 1 - depth, m
 2 - temperature, C
 3 - salinity, kg/kg
 4 - turbulent kinetic energy, m**2/s**2
 5 - dissipation rate, m**2/s**3
 6 - kinematic heat conductance, m**2/s
 7 - modulus of horizontal velocity, m/s
 8 - Richardson number, n/d
   -0.000000   27.15279  0.1337E-12  0.2564E-05  0.3916E-07  0.2966E-04  0.6782E-02 -0.6527E+00
   -0.112493   27.17672  0.1337E-12  0.2263E-05  0.1289E-07  0.1009E-03  0.3343E-02 -0.2360E+01
   -0.224988   27.18122  0.1337E-12  0.1776E-05  0.6733E-08  0.1192E-03  0.2524E-02 -0.3633E+01
   -0.337483   27.18318  0.1337E-12  0.1204E-05  0.3465E-08  0.7048E-04  0.2088E-02 -0.2423E+01
   -0.449979   27.18379  0.1337E-12  0.3161E-06  0.8973E-09  0.5991E-07  0.1781E-02  0.7111E+02
   -0.562476   26.69379  0.1419E-12  0.6469E-08  0.1947E-10  0.5131E-09  0.2215E-03  0.1077E+05
   -0.674974   25.47885  0.1491E-12  0.4419E-11  0.1000E-11  0.1000E-09  0.2349E-04  0.1087E+07
   -0.787473   24.00202  0.1515E-12  0.4419E-11  0.1000E-11  0.1000E-09  0.2432E-05  0.9769E+08
   -0.899972   22.47638  0.1524E-12  0.4419E-11  0.1000E-11  0.1000E-09  0.2486E-06  0.8150E+10
   -1.012473   21.04487  0.1528E-12  0.4419E-11  0.1000E-11  0.1000E-09  0.2480E-07  0.6626E+12
   -1.124973   19.79995  0.1529E-12  0.4325E-08  0.2646E-11  0.1192E-09  0.2413E-08  0.5308E+14
   -1.237475   18.79050  0.1530E-12  0.5433E-07  0.3080E-10  0.1847E-08  0.2287E-09  0.4118E+16
   -1.349977   18.04124  0.1530E-12  0.6055E-06  0.3259E-09  0.3546E-07  0.2098E-10  0.7735E+17
   -1.462479   17.61056  0.1530E-12  0.2653E-05  0.1425E-08  0.2205E-05  0.1434E-11  0.6044E+16
   -1.574982   17.57646  0.1530E-12  0.2902E-05  0.1564E-08  0.1568E-03  0.1182E-12  0.6386E+14
   -1.687485   17.57610  0.1530E-12  0.3066E-05  0.1662E-08  0.4130E-03  0.8815E-13  0.1279E+14
   -1.799988   17.57603  0.1530E-12  0.3223E-05  0.1766E-08  0.6889E-03  0.7256E-13  0.6985E+12
   -1.912492   17.57602  0.1530E-12  0.3366E-05  0.1873E-08  0.1441E-02  0.6151E-13 -0.3287E+13
   -2.024995   17.57604  0.1530E-12  0.3477E-05  0.1963E-08  0.2080E-02  0.5436E-13 -0.4754E+13
   -2.137499   17.57607  0.1530E-12  0.3581E-05  0.2055E-08  0.2052E-02  0.5017E-13 -0.7483E+13
   -2.250003   17.57611  0.1530E-12  0.3696E-05  0.2162E-08  0.2049E-02  0.4620E-13 -0.1016E+14
   -2.362507   17.57617  0.1530E-12  0.3819E-05  0.2286E-08  0.2050E-02  0.4248E-13 -0.1283E+14
   -2.475011   17.57624  0.1530E-12  0.3948E-05  0.2425E-08  0.2052E-02  0.3899E-13 -0.1559E+14
   -2.587515   17.57633  0.1530E-12  0.4081E-05  0.2579E-08  0.2051E-02  0.3574E-13 -0.1843E+14
   -2.700018   17.57643  0.1530E-12  0.4216E-05  0.2749E-08  0.2047E-02  0.3270E-13 -0.2135E+14
   -2.812522   17.57655  0.1530E-12  0.4351E-05  0.2935E-08  0.2036E-02  0.2986E-13 -0.2439E+14
   -2.925025   17.57669  0.1530E-12  0.4485E-05  0.3138E-08  0.2019E-02  0.2722E-13 -0.2758E+14
   -3.037527   17.57685  0.1530E-12  0.4615E-05  0.3360E-08  0.1994E-02  0.2474E-13 -0.3099E+14
   -3.150030   17.57702  0.1530E-12  0.4739E-05  0.3605E-08  0.1959E-02  0.2243E-13 -0.3469E+14
   -3.262532   17.57722  0.1530E-12  0.4856E-05  0.3874E-08  0.1913E-02  0.2027E-13 -0.3878E+14
   -3.375033   17.57744  0.1530E-12  0.4964E-05  0.4176E-08  0.1856E-02  0.1825E-13 -0.4338E+14
   -3.487534   17.57768  0.1530E-12  0.5060E-05  0.4517E-08  0.1785E-02  0.1636E-13 -0.4870E+14
   -3.600034   17.57796  0.1530E-12  0.5141E-05  0.4911E-08  0.1698E-02  0.1459E-13 -0.5509E+14
   -3.712534   17.57827  0.1530E-12  0.5203E-05  0.5377E-08  0.1594E-02  0.1292E-13 -0.6304E+14
   -3.825032   17.57863  0.1530E-12  0.5240E-05  0.5946E-08  0.1470E-02  0.1135E-13 -0.7328E+14
   -3.937530   17.57904  0.1530E-12  0.5243E-05  0.6677E-08  0.1322E-02  0.9867E-14 -0.8727E+14
   -4.050027   17.57954  0.1530E-12  0.5199E-05  0.7678E-08  0.1147E-02  0.8467E-14 -0.1079E+15
   -4.162524   17.58015  0.1530E-12  0.5079E-05  0.9207E-08  0.9327E-03  0.7147E-14 -0.1431E+15
   -4.275019   17.58096  0.1530E-12  0.4814E-05  0.1200E-07  0.7096E-03  0.5915E-14 -0.2054E+15
   -4.387513   17.58212  0.1530E-12  0.2201E-05  0.4146E-07  0.2132E-04  0.4905E-14 -0.7707E+16
   -4.500006   17.62565  0.1530E-12  0.0000E+00  0.0000E+00  0.0000E+00  0.4902E-14  0.0000E+00
