 1 - depth, m
 2 - temperature, C
 3 - salinity, kg/kg
 4 - turbulent kinetic energy, m**2/s**2
 5 - dissipation rate, m**2/s**3
 6 - kinematic heat conductance, m**2/s
 7 - modulus of horizontal velocity, m/s
 8 - Richardson number, n/d
   -0.000000   26.39462  0.1289E-12  0.7749E-06  0.7148E-08  0.1562E-04  0.5515E-02 -0.6303E+00
   -0.112493   26.39671  0.1290E-12  0.2273E-07  0.1997E-09  0.1468E-07  0.2844E-02  0.2319E+02
   -0.224988   25.95320  0.1353E-12  0.1463E-09  0.1521E-11  0.1000E-09  0.3417E-03  0.4595E+04
   -0.337483   24.60337  0.1439E-12  0.4419E-11  0.1000E-11  0.1000E-09  0.3901E-04  0.4576E+06
   -0.449979   22.72588  0.1491E-12  0.4419E-11  0.1000E-11  0.1000E-09  0.4363E-05  0.3726E+08
   -0.562476   20.62956  0.1515E-12  0.4419E-11  0.1000E-11  0.1000E-09  0.4776E-06  0.2763E+10
   -0.674974   18.55345  0.1525E-12  0.4419E-11  0.1000E-11  0.1000E-09  0.5113E-07  0.1952E+12
   -0.787473   16.65987  0.1528E-12  0.4419E-11  0.1000E-11  0.1000E-09  0.5352E-08  0.1349E+14
   -0.899973   15.04353  0.1529E-12  0.3914E-08  0.2290E-11  0.1101E-09  0.5530E-09  0.8997E+15
   -1.012473   13.74920  0.1530E-12  0.4749E-07  0.2565E-10  0.1739E-08  0.5574E-10  0.5881E+17
   -1.124974   12.78508  0.1530E-12  0.5135E-06  0.2631E-09  0.3015E-07  0.5456E-11  0.7265E+17
   -1.237475   12.16870  0.1530E-12  0.2628E-05  0.1338E-08  0.1496E-05  0.4211E-12  0.7743E+16
   -1.349977   12.10048  0.1530E-12  0.2905E-05  0.1484E-08  0.1146E-03  0.2915E-13  0.9121E+14
   -1.462479   12.09967  0.1530E-12  0.3075E-05  0.1578E-08  0.3567E-03  0.2084E-13  0.1814E+14
   -1.574982   12.09951  0.1530E-12  0.3231E-05  0.1673E-08  0.6152E-03  0.1710E-13  0.3854E+13
   -1.687485   12.09948  0.1530E-12  0.3386E-05  0.1778E-08  0.9681E-03  0.1450E-13 -0.2077E+13
   -1.799988   12.09950  0.1530E-12  0.3498E-05  0.1860E-08  0.2255E-02  0.1256E-13 -0.2956E+13
   -1.912492   12.09952  0.1530E-12  0.3593E-05  0.1937E-08  0.2208E-02  0.1166E-13 -0.5208E+13
   -2.024996   12.09957  0.1530E-12  0.3701E-05  0.2028E-08  0.2200E-02  0.1081E-13 -0.7491E+13
   -2.137500   12.09964  0.1530E-12  0.3817E-05  0.2133E-08  0.2201E-02  0.9994E-14 -0.9815E+13
   -2.250004   12.09972  0.1530E-12  0.3941E-05  0.2252E-08  0.2204E-02  0.9231E-14 -0.1216E+14
   -2.362507   12.09983  0.1530E-12  0.4070E-05  0.2385E-08  0.2208E-02  0.8514E-14 -0.1454E+14
   -2.475011   12.09996  0.1530E-12  0.4203E-05  0.2531E-08  0.2209E-02  0.7843E-14 -0.1701E+14
   -2.587515   12.10011  0.1530E-12  0.4337E-05  0.2690E-08  0.2206E-02  0.7214E-14 -0.1955E+14
   -2.700019   12.10028  0.1530E-12  0.4472E-05  0.2863E-08  0.2197E-02  0.6625E-14 -0.2218E+14
   -2.812522   12.10048  0.1530E-12  0.4605E-05  0.3051E-08  0.2182E-02  0.6072E-14 -0.2494E+14
   -2.925025   12.10070  0.1530E-12  0.4735E-05  0.3254E-08  0.2160E-02  0.5555E-14 -0.2785E+14
   -3.037528   12.10095  0.1530E-12  0.4860E-05  0.3476E-08  0.2128E-02  0.5069E-14 -0.3098E+14
   -3.150030   12.10122  0.1530E-12  0.4978E-05  0.3719E-08  0.2087E-02  0.4613E-14 -0.3439E+14
   -3.262532   12.10152  0.1530E-12  0.5089E-05  0.3987E-08  0.2034E-02  0.4185E-14 -0.3818E+14
   -3.375033   12.10186  0.1530E-12  0.5189E-05  0.4287E-08  0.1969E-02  0.3782E-14 -0.4245E+14
   -3.487534   12.10224  0.1530E-12  0.5276E-05  0.4626E-08  0.1889E-02  0.3403E-14 -0.4743E+14
   -3.600034   12.10266  0.1530E-12  0.5348E-05  0.5018E-08  0.1793E-02  0.3046E-14 -0.5341E+14
   -3.712534   12.10313  0.1530E-12  0.5401E-05  0.5482E-08  0.1680E-02  0.2709E-14 -0.6086E+14
   -3.825033   12.10367  0.1530E-12  0.5428E-05  0.6051E-08  0.1546E-02  0.2389E-14 -0.7046E+14
   -3.937531   12.10429  0.1530E-12  0.5421E-05  0.6783E-08  0.1387E-02  0.2086E-14 -0.8358E+14
   -4.050028   12.10503  0.1530E-12  0.5365E-05  0.7791E-08  0.1201E-02  0.1799E-14 -0.1029E+15
   -4.162524   12.10594  0.1530E-12  0.5234E-05  0.9335E-08  0.9738E-03  0.1526E-14 -0.1357E+15
   -4.275019   12.10714  0.1530E-12  0.4956E-05  0.1217E-07  0.7414E-03  0.1270E-14 -0.1927E+15
   -4.387514   12.10884  0.1530E-12  0.2253E-05  0.4253E-07  0.2137E-04  0.1060E-14 -0.7426E+16
   -4.500007   12.17424  0.1530E-12  0.0000E+00  0.0000E+00  0.0000E+00  0.1060E-14  0.0000E+00
