 1 - depth, m
 2 - temperature, C
 3 - salinity, kg/kg
 4 - turbulent kinetic energy, m**2/s**2
 5 - dissipation rate, m**2/s**3
 6 - kinematic heat conductance, m**2/s
 7 - modulus of horizontal velocity, m/s
 8 - Richardson number, n/d
   -0.000000   25.08880  0.1286E-12  0.5519E-10  0.3850E-11  0.1004E-09  0.2779E-01  0.5021E+00
   -0.112493   24.03638  0.1362E-12  0.4419E-11  0.1000E-11  0.1000E-09  0.3290E-02  0.7120E+02
   -0.224988   21.76980  0.1452E-12  0.4419E-11  0.1000E-11  0.1000E-09  0.3819E-03  0.5876E+04
   -0.337483   18.91012  0.1503E-12  0.4419E-11  0.1000E-11  0.1000E-09  0.4346E-04  0.3843E+06
   -0.449979   16.04338  0.1522E-12  0.4419E-11  0.1000E-11  0.1000E-09  0.4844E-05  0.2216E+08
   -0.562476   13.53988  0.1528E-12  0.4419E-11  0.1000E-11  0.1000E-09  0.5285E-06  0.1199E+10
   -0.674974   11.54631  0.1530E-12  0.1498E-08  0.1049E-11  0.1000E-09  0.5639E-07  0.6353E+11
   -0.787473   10.06074  0.1530E-12  0.1983E-07  0.8248E-11  0.8378E-09  0.5882E-08  0.3391E+13
   -0.899973    9.01477  0.1530E-12  0.1766E-06  0.6941E-10  0.1310E-07  0.6047E-09  0.1702E+15
   -1.012473    8.35505  0.1530E-12  0.1156E-05  0.4418E-09  0.3680E-06  0.5731E-10  0.4124E+16
   -1.124974    8.18285  0.1530E-12  0.1601E-05  0.6179E-09  0.1974E-04  0.3186E-11  0.3054E+15
   -1.237475    8.17798  0.1530E-12  0.1741E-05  0.6745E-09  0.1650E-03  0.1318E-11  0.2354E+14
   -1.349977    8.17760  0.1530E-12  0.1842E-05  0.7183E-09  0.3396E-03  0.1014E-11  0.6904E+13
   -1.462480    8.17749  0.1530E-12  0.1942E-05  0.7651E-09  0.5290E-03  0.8294E-12  0.1192E+13
   -1.574982    8.17747  0.1530E-12  0.2040E-05  0.8166E-09  0.7739E-03  0.6958E-12 -0.1608E+13
   -1.687485    8.17749  0.1530E-12  0.2121E-05  0.8620E-09  0.1722E-02  0.5941E-12 -0.1900E+13
   -1.799989    8.17752  0.1530E-12  0.2186E-05  0.9018E-09  0.1783E-02  0.5370E-12 -0.3025E+13
   -1.912492    8.17757  0.1530E-12  0.2252E-05  0.9443E-09  0.1775E-02  0.4931E-12 -0.4288E+13
   -2.024996    8.17764  0.1530E-12  0.2324E-05  0.9931E-09  0.1776E-02  0.4520E-12 -0.5572E+13
   -2.137500    8.17773  0.1530E-12  0.2399E-05  0.1048E-08  0.1779E-02  0.4137E-12 -0.6881E+13
   -2.250004    8.17785  0.1530E-12  0.2478E-05  0.1109E-08  0.1783E-02  0.3781E-12 -0.8212E+13
   -2.362508    8.17798  0.1530E-12  0.2559E-05  0.1175E-08  0.1785E-02  0.3451E-12 -0.9570E+13
   -2.475012    8.17813  0.1530E-12  0.2642E-05  0.1248E-08  0.1784E-02  0.3145E-12 -0.1099E+14
   -2.587516    8.17831  0.1530E-12  0.2725E-05  0.1327E-08  0.1780E-02  0.2861E-12 -0.1246E+14
   -2.700019    8.17852  0.1530E-12  0.2807E-05  0.1412E-08  0.1772E-02  0.2597E-12 -0.1399E+14
   -2.812523    8.17874  0.1530E-12  0.2888E-05  0.1504E-08  0.1758E-02  0.2353E-12 -0.1560E+14
   -2.925026    8.17900  0.1530E-12  0.2966E-05  0.1603E-08  0.1738E-02  0.2126E-12 -0.1731E+14
   -3.037528    8.17928  0.1530E-12  0.3041E-05  0.1712E-08  0.1710E-02  0.1915E-12 -0.1915E+14
   -3.150031    8.17959  0.1530E-12  0.3112E-05  0.1830E-08  0.1675E-02  0.1720E-12 -0.2118E+14
   -3.262533    8.17993  0.1530E-12  0.3178E-05  0.1961E-08  0.1632E-02  0.1538E-12 -0.2344E+14
   -3.375034    8.18031  0.1530E-12  0.3238E-05  0.2108E-08  0.1578E-02  0.1369E-12 -0.2600E+14
   -3.487535    8.18073  0.1530E-12  0.3290E-05  0.2274E-08  0.1513E-02  0.1213E-12 -0.2899E+14
   -3.600035    8.18120  0.1530E-12  0.3332E-05  0.2466E-08  0.1436E-02  0.1067E-12 -0.3260E+14
   -3.712535    8.18173  0.1530E-12  0.3362E-05  0.2695E-08  0.1345E-02  0.9316E-13 -0.3711E+14
   -3.825034    8.18233  0.1530E-12  0.3377E-05  0.2976E-08  0.1238E-02  0.8052E-13 -0.4293E+14
   -3.937532    8.18303  0.1530E-12  0.3372E-05  0.3338E-08  0.1112E-02  0.6873E-13 -0.5090E+14
   -4.050029    8.18385  0.1530E-12  0.3337E-05  0.3837E-08  0.9638E-03  0.5773E-13 -0.6269E+14
   -4.162525    8.18487  0.1530E-12  0.3255E-05  0.4605E-08  0.7836E-03  0.4751E-13 -0.8282E+14
   -4.275020    8.18621  0.1530E-12  0.3082E-05  0.6020E-08  0.5878E-03  0.3812E-13 -0.1203E+15
   -4.387515    8.18816  0.1530E-12  0.1414E-05  0.2110E-07  0.1687E-04  0.3046E-13 -0.4747E+16
   -4.500008    8.26439  0.1530E-12  0.0000E+00  0.0000E+00  0.0000E+00  0.3050E-13  0.0000E+00
