 1 - depth, m
 2 - temperature, C
 3 - salinity, kg/kg
 4 - turbulent kinetic energy, m**2/s**2
 5 - dissipation rate, m**2/s**3
 6 - kinematic heat conductance, m**2/s
 7 - modulus of horizontal velocity, m/s
 8 - Richardson number, n/d
   -0.000000   27.66279  0.1356E-12  0.1390E-05  0.2265E-07  0.2184E-04  0.1466E-02 -0.1166E+02
   -0.112493   27.69732  0.1356E-12  0.2174E-05  0.9380E-08  0.1824E-03  0.5007E-03 -0.7736E+02
   -0.224987   27.70021  0.1356E-12  0.2067E-05  0.6479E-08  0.2446E-03  0.3881E-03 -0.1405E+03
   -0.337483   27.70160  0.1356E-12  0.1806E-05  0.4613E-08  0.2386E-03  0.3273E-03 -0.1311E+03
   -0.449979   27.70243  0.1356E-12  0.1458E-05  0.3145E-08  0.1654E-03  0.2811E-03 -0.1353E+03
   -0.562476   27.70290  0.1356E-12  0.1025E-05  0.1949E-08  0.6994E-04  0.2436E-03  0.3017E+02
   -0.674974   27.69509  0.1357E-12  0.4484E-06  0.8389E-09  0.1335E-06  0.1759E-03  0.1428E+05
   -0.787473   27.48516  0.1377E-12  0.1528E-07  0.3016E-10  0.1618E-08  0.2529E-04  0.2904E+07
   -0.899972   26.91597  0.1435E-12  0.3930E-09  0.1171E-11  0.1000E-09  0.2599E-05  0.3390E+09
   -1.012473   26.18155  0.1483E-12  0.4419E-11  0.1000E-11  0.1000E-09  0.2595E-06  0.3549E+11
   -1.124973   25.35117  0.1511E-12  0.2626E-10  0.1000E-11  0.1000E-09  0.2527E-07  0.3576E+13
   -1.237475   24.49188  0.1523E-12  0.9004E-08  0.6637E-11  0.2730E-09  0.2398E-08  0.3569E+15
   -1.349977   23.65936  0.1528E-12  0.1331E-06  0.9195E-10  0.4262E-08  0.2214E-09  0.3190E+17
   -1.462479   22.90100  0.1530E-12  0.1651E-05  0.1087E-08  0.8649E-07  0.1966E-10  0.1066E+18
   -1.574982   22.43576  0.1530E-12  0.3994E-05  0.2624E-08  0.8832E-05  0.9803E-12  0.3440E+16
   -1.687485   22.42055  0.1530E-12  0.4321E-05  0.2847E-08  0.2873E-03  0.1588E-12  0.5160E+14
   -1.799988   22.42032  0.1530E-12  0.4547E-05  0.3017E-08  0.6123E-03  0.1265E-12  0.1010E+14
   -1.912491   22.42027  0.1530E-12  0.4767E-05  0.3204E-08  0.1059E-02  0.1067E-12 -0.2597E+13
   -2.024995   22.42029  0.1530E-12  0.4928E-05  0.3356E-08  0.2471E-02  0.9247E-13 -0.4904E+13
   -2.137499   22.42031  0.1530E-12  0.5068E-05  0.3500E-08  0.2414E-02  0.8595E-13 -0.8982E+13
   -2.250003   22.42035  0.1530E-12  0.5226E-05  0.3676E-08  0.2405E-02  0.7969E-13 -0.1305E+14
   -2.362507   22.42040  0.1530E-12  0.5399E-05  0.3880E-08  0.2405E-02  0.7376E-13 -0.1713E+14
   -2.475011   22.42048  0.1530E-12  0.5583E-05  0.4113E-08  0.2408E-02  0.6818E-13 -0.2134E+14
   -2.587514   22.42057  0.1530E-12  0.5774E-05  0.4373E-08  0.2409E-02  0.6292E-13 -0.2563E+14
   -2.700018   22.42069  0.1530E-12  0.5969E-05  0.4661E-08  0.2405E-02  0.5798E-13 -0.3002E+14
   -2.812521   22.42082  0.1530E-12  0.6165E-05  0.4977E-08  0.2396E-02  0.5334E-13 -0.3456E+14
   -2.925024   22.42097  0.1530E-12  0.6360E-05  0.5323E-08  0.2378E-02  0.4899E-13 -0.3931E+14
   -3.037527   22.42114  0.1530E-12  0.6549E-05  0.5702E-08  0.2350E-02  0.4490E-13 -0.4435E+14
   -3.150029   22.42134  0.1530E-12  0.6731E-05  0.6118E-08  0.2311E-02  0.4106E-13 -0.4979E+14
   -3.262531   22.42156  0.1530E-12  0.6903E-05  0.6577E-08  0.2260E-02  0.3743E-13 -0.5577E+14
   -3.375032   22.42181  0.1530E-12  0.7061E-05  0.7089E-08  0.2194E-02  0.3403E-13 -0.6247E+14
   -3.487533   22.42208  0.1530E-12  0.7201E-05  0.7668E-08  0.2111E-02  0.3080E-13 -0.7019E+14
   -3.600033   22.42239  0.1530E-12  0.7320E-05  0.8336E-08  0.2009E-02  0.2777E-13 -0.7942E+14
   -3.712533   22.42274  0.1530E-12  0.7411E-05  0.9123E-08  0.1887E-02  0.2488E-13 -0.9087E+14
   -3.825032   22.42314  0.1530E-12  0.7466E-05  0.1008E-07  0.1740E-02  0.2214E-13 -0.1056E+15
   -3.937530   22.42361  0.1530E-12  0.7473E-05  0.1131E-07  0.1565E-02  0.1953E-13 -0.1256E+15
   -4.050027   22.42416  0.1530E-12  0.7410E-05  0.1299E-07  0.1357E-02  0.1703E-13 -0.1549E+15
   -4.162523   22.42484  0.1530E-12  0.7237E-05  0.1555E-07  0.1100E-02  0.1465E-13 -0.2050E+15
   -4.275018   22.42575  0.1530E-12  0.6856E-05  0.2022E-07  0.8458E-03  0.1241E-13 -0.2886E+15
   -4.387513   22.42702  0.1530E-12  0.3109E-05  0.6975E-07  0.2542E-04  0.1056E-13 -0.1063E+17
   -4.500006   22.47383  0.1530E-12  0.0000E+00  0.0000E+00  0.0000E+00  0.1053E-13  0.0000E+00
