 1 - depth, m
 2 - temperature, C
 3 - salinity, kg/kg
 4 - turbulent kinetic energy, m**2/s**2
 5 - dissipation rate, m**2/s**3
 6 - kinematic heat conductance, m**2/s
 7 - modulus of horizontal velocity, m/s
 8 - Richardson number, n/d
   -0.000000   22.39928  0.1397E-12  0.3418E-06  0.2890E-07  0.1886E-06  0.5056E-01  0.2741E+00
   -0.112493   20.23036  0.1421E-12  0.3703E-09  0.2717E-10  0.1840E-09  0.6969E-02  0.2537E+02
   -0.224988   15.47907  0.1509E-12  0.4419E-11  0.1000E-11  0.1000E-09  0.8117E-03  0.1080E+04
   -0.337483   11.69574  0.1526E-12  0.4419E-11  0.1000E-11  0.1000E-09  0.9263E-04  0.3895E+05
   -0.449979    9.14728  0.1529E-12  0.2093E-09  0.1000E-11  0.1021E-09  0.1035E-04  0.1343E+07
   -0.562476    7.57721  0.1530E-12  0.1115E-07  0.3371E-11  0.7179E-09  0.1132E-05  0.4833E+08
   -0.674975    6.64608  0.1530E-12  0.8013E-07  0.2230E-10  0.1085E-07  0.1209E-06  0.1850E+10
   -0.787473    6.11695  0.1530E-12  0.4436E-06  0.1198E-09  0.1937E-06  0.1234E-07  0.5568E+11
   -0.899973    5.91229  0.1530E-12  0.8832E-06  0.2424E-09  0.4842E-05  0.9638E-09  0.9631E+12
   -1.012473    5.89374  0.1530E-12  0.9597E-06  0.2643E-09  0.1117E-03  0.1927E-09  0.9777E+13
   -1.124974    5.89321  0.1530E-12  0.1009E-05  0.2795E-09  0.2564E-03  0.1439E-09  0.3619E+13
   -1.237475    5.89309  0.1530E-12  0.1058E-05  0.2958E-09  0.3663E-03  0.1166E-09  0.1277E+13
   -1.349977    5.89304  0.1530E-12  0.1110E-05  0.3147E-09  0.4913E-03  0.9617E-10 -0.2520E+12
   -1.462480    5.89305  0.1530E-12  0.1162E-05  0.3357E-09  0.6624E-03  0.8032E-10 -0.1200E+13
   -1.574983    5.89310  0.1530E-12  0.1209E-05  0.3557E-09  0.1230E-02  0.6790E-10 -0.1265E+13
   -1.687486    5.89314  0.1530E-12  0.1247E-05  0.3727E-09  0.1423E-02  0.5993E-10 -0.1639E+13
   -1.799989    5.89320  0.1530E-12  0.1282E-05  0.3898E-09  0.1416E-02  0.5447E-10 -0.2241E+13
   -1.912493    5.89327  0.1530E-12  0.1320E-05  0.4093E-09  0.1415E-02  0.4942E-10 -0.2863E+13
   -2.024996    5.89337  0.1530E-12  0.1361E-05  0.4310E-09  0.1415E-02  0.4477E-10 -0.3503E+13
   -2.137500    5.89349  0.1530E-12  0.1403E-05  0.4550E-09  0.1416E-02  0.4048E-10 -0.4162E+13
   -2.250004    5.89364  0.1530E-12  0.1447E-05  0.4813E-09  0.1416E-02  0.3655E-10 -0.4837E+13
   -2.362508    5.89380  0.1530E-12  0.1492E-05  0.5100E-09  0.1414E-02  0.3293E-10 -0.5533E+13
   -2.475012    5.89400  0.1530E-12  0.1536E-05  0.5410E-09  0.1410E-02  0.2962E-10 -0.6264E+13
   -2.587516    5.89421  0.1530E-12  0.1581E-05  0.5745E-09  0.1404E-02  0.2658E-10 -0.7030E+13
   -2.700020    5.89445  0.1530E-12  0.1626E-05  0.6107E-09  0.1393E-02  0.2379E-10 -0.7832E+13
   -2.812523    5.89473  0.1530E-12  0.1669E-05  0.6498E-09  0.1379E-02  0.2124E-10 -0.8685E+13
   -2.925026    5.89503  0.1530E-12  0.1712E-05  0.6922E-09  0.1360E-02  0.1889E-10 -0.9596E+13
   -3.037529    5.89536  0.1530E-12  0.1752E-05  0.7384E-09  0.1336E-02  0.1675E-10 -0.1059E+14
   -3.150031    5.89572  0.1530E-12  0.1790E-05  0.7891E-09  0.1306E-02  0.1478E-10 -0.1168E+14
   -3.262533    5.89613  0.1530E-12  0.1825E-05  0.8452E-09  0.1270E-02  0.1298E-10 -0.1291E+14
   -3.375035    5.89657  0.1530E-12  0.1857E-05  0.9081E-09  0.1226E-02  0.1133E-10 -0.1431E+14
   -3.487536    5.89706  0.1530E-12  0.1885E-05  0.9798E-09  0.1175E-02  0.9831E-11 -0.1595E+14
   -3.600036    5.89761  0.1530E-12  0.1907E-05  0.1063E-08  0.1114E-02  0.8459E-11 -0.1794E+14
   -3.712535    5.89823  0.1530E-12  0.1923E-05  0.1162E-08  0.1043E-02  0.7208E-11 -0.2043E+14
   -3.825034    5.89894  0.1530E-12  0.1931E-05  0.1285E-08  0.9598E-03  0.6064E-11 -0.2365E+14
   -3.937532    5.89975  0.1530E-12  0.1927E-05  0.1443E-08  0.8630E-03  0.5023E-11 -0.2810E+14
   -4.050029    5.90072  0.1530E-12  0.1908E-05  0.1663E-08  0.7489E-03  0.4075E-11 -0.3473E+14
   -4.162526    5.90191  0.1530E-12  0.1862E-05  0.2000E-08  0.6098E-03  0.3218E-11 -0.4618E+14
   -4.275021    5.90350  0.1530E-12  0.1765E-05  0.2629E-08  0.4487E-03  0.2455E-11 -0.6935E+14
   -4.387515    5.90588  0.1530E-12  0.8183E-06  0.9301E-08  0.1285E-04  0.1835E-11 -0.2852E+16
   -4.500009    6.00153  0.1530E-12  0.0000E+00  0.0000E+00  0.0000E+00  0.1842E-11  0.0000E+00
