 1 - depth, m
 2 - temperature, C
 3 - salinity, kg/kg
 4 - turbulent kinetic energy, m**2/s**2
 5 - dissipation rate, m**2/s**3
 6 - kinematic heat conductance, m**2/s
 7 - modulus of horizontal velocity, m/s
 8 - Richardson number, n/d
   -0.000000   25.90854  0.1295E-12  0.1117E-05  0.1087E-07  0.1584E-04  0.7291E-02 -0.2631E+00
   -0.112493   25.91361  0.1296E-12  0.3192E-07  0.3077E-09  0.1570E-07  0.4365E-02  0.1197E+02
   -0.224988   25.33124  0.1364E-12  0.1919E-09  0.1947E-11  0.1000E-09  0.5288E-03  0.2076E+04
   -0.337483   23.78787  0.1452E-12  0.4419E-11  0.1000E-11  0.1000E-09  0.6075E-04  0.1932E+06
   -0.449979   21.75117  0.1498E-12  0.4419E-11  0.1000E-11  0.1000E-09  0.6833E-05  0.1490E+08
   -0.562476   19.55873  0.1518E-12  0.4419E-11  0.1000E-11  0.1000E-09  0.7521E-06  0.1054E+10
   -0.674974   17.44877  0.1526E-12  0.4419E-11  0.1000E-11  0.1000E-09  0.8094E-07  0.7134E+11
   -0.787473   15.57102  0.1529E-12  0.4419E-11  0.1000E-11  0.1000E-09  0.8513E-08  0.4734E+13
   -0.899973   14.00452  0.1530E-12  0.5269E-08  0.2834E-11  0.1505E-09  0.8835E-09  0.3031E+15
   -1.012473   12.78139  0.1530E-12  0.5974E-07  0.2974E-10  0.2464E-08  0.8944E-10  0.1892E+17
   -1.124974   11.91002  0.1530E-12  0.5933E-06  0.2808E-09  0.4526E-07  0.8764E-11  0.5255E+17
   -1.237475   11.42282  0.1530E-12  0.2315E-05  0.1101E-08  0.2318E-05  0.6182E-12  0.4217E+16
   -1.349977   11.38258  0.1530E-12  0.2540E-05  0.1212E-08  0.1280E-03  0.6196E-13  0.6344E+14
   -1.462479   11.38197  0.1530E-12  0.2684E-05  0.1287E-08  0.3512E-03  0.4569E-13  0.1424E+14
   -1.574982   11.38183  0.1530E-12  0.2821E-05  0.1366E-08  0.5900E-03  0.3746E-13  0.2858E+13
   -1.687485   11.38181  0.1530E-12  0.2957E-05  0.1452E-08  0.9114E-03  0.3166E-13 -0.2051E+13
   -1.799989   11.38183  0.1530E-12  0.3056E-05  0.1521E-08  0.2106E-02  0.2731E-13 -0.2681E+13
   -1.912492   11.38185  0.1530E-12  0.3140E-05  0.1584E-08  0.2067E-02  0.2528E-13 -0.4635E+13
   -2.024996   11.38190  0.1530E-12  0.3234E-05  0.1660E-08  0.2060E-02  0.2335E-13 -0.6622E+13
   -2.137500   11.38196  0.1530E-12  0.3336E-05  0.1746E-08  0.2060E-02  0.2154E-13 -0.8648E+13
   -2.250004   11.38204  0.1530E-12  0.3445E-05  0.1844E-08  0.2063E-02  0.1983E-13 -0.1070E+14
   -2.362508   11.38215  0.1530E-12  0.3558E-05  0.1953E-08  0.2065E-02  0.1824E-13 -0.1277E+14
   -2.475011   11.38227  0.1530E-12  0.3674E-05  0.2073E-08  0.2066E-02  0.1675E-13 -0.1493E+14
   -2.587515   11.38241  0.1530E-12  0.3792E-05  0.2204E-08  0.2063E-02  0.1536E-13 -0.1716E+14
   -2.700019   11.38258  0.1530E-12  0.3909E-05  0.2346E-08  0.2055E-02  0.1406E-13 -0.1946E+14
   -2.812522   11.38276  0.1530E-12  0.4026E-05  0.2500E-08  0.2040E-02  0.1284E-13 -0.2188E+14
   -2.925025   11.38297  0.1530E-12  0.4139E-05  0.2668E-08  0.2019E-02  0.1170E-13 -0.2443E+14
   -3.037528   11.38321  0.1530E-12  0.4249E-05  0.2851E-08  0.1989E-02  0.1064E-13 -0.2718E+14
   -3.150030   11.38347  0.1530E-12  0.4353E-05  0.3050E-08  0.1950E-02  0.9646E-14 -0.3017E+14
   -3.262532   11.38376  0.1530E-12  0.4450E-05  0.3271E-08  0.1901E-02  0.8715E-14 -0.3350E+14
   -3.375034   11.38408  0.1530E-12  0.4537E-05  0.3518E-08  0.1840E-02  0.7841E-14 -0.3727E+14
   -3.487534   11.38444  0.1530E-12  0.4614E-05  0.3797E-08  0.1766E-02  0.7023E-14 -0.4165E+14
   -3.600035   11.38484  0.1530E-12  0.4678E-05  0.4120E-08  0.1677E-02  0.6255E-14 -0.4690E+14
   -3.712534   11.38529  0.1530E-12  0.4724E-05  0.4503E-08  0.1571E-02  0.5533E-14 -0.5347E+14
   -3.825033   11.38580  0.1530E-12  0.4748E-05  0.4972E-08  0.1446E-02  0.4852E-14 -0.6193E+14
   -3.937531   11.38640  0.1530E-12  0.4743E-05  0.5576E-08  0.1298E-02  0.4209E-14 -0.7350E+14
   -4.050028   11.38711  0.1530E-12  0.4696E-05  0.6408E-08  0.1125E-02  0.3601E-14 -0.9054E+14
   -4.162524   11.38797  0.1530E-12  0.4581E-05  0.7681E-08  0.9129E-03  0.3029E-14 -0.1196E+15
   -4.275020   11.38912  0.1530E-12  0.4338E-05  0.1002E-07  0.6922E-03  0.2495E-14 -0.1710E+15
   -4.387514   11.39077  0.1530E-12  0.1979E-05  0.3499E-07  0.2003E-04  0.2057E-14 -0.6609E+16
   -4.500007   11.45397  0.1530E-12  0.0000E+00  0.0000E+00  0.0000E+00  0.2061E-14  0.0000E+00
