 1 - depth, m
 2 - temperature, C
 3 - salinity, kg/kg
 4 - turbulent kinetic energy, m**2/s**2
 5 - dissipation rate, m**2/s**3
 6 - kinematic heat conductance, m**2/s
 7 - modulus of horizontal velocity, m/s
 8 - Richardson number, n/d
   -0.000000   24.95598  0.1311E-12  0.1464E-05  0.1772E-07  0.1060E-04  0.1063E-01  0.4675E-01
   -0.112493   24.95025  0.1311E-12  0.2756E-07  0.3276E-09  0.7080E-08  0.5820E-02  0.1604E+02
   -0.224988   23.43088  0.1419E-12  0.1298E-09  0.1696E-11  0.1000E-09  0.6865E-03  0.1608E+04
   -0.337483   21.10813  0.1487E-12  0.4419E-11  0.1000E-11  0.1000E-09  0.7816E-04  0.1200E+06
   -0.449979   18.56469  0.1515E-12  0.4419E-11  0.1000E-11  0.1000E-09  0.8715E-05  0.7951E+07
   -0.562476   16.13333  0.1525E-12  0.4419E-11  0.1000E-11  0.1000E-09  0.9512E-06  0.4942E+09
   -0.674974   14.00859  0.1529E-12  0.4419E-11  0.1000E-11  0.1000E-09  0.1015E-06  0.2968E+11
   -0.787473   12.28051  0.1530E-12  0.2654E-08  0.1321E-11  0.1011E-09  0.1060E-07  0.1758E+13
   -0.899973   10.96509  0.1530E-12  0.2789E-07  0.1227E-10  0.1211E-08  0.1091E-08  0.1001E+15
   -1.012473   10.04231  0.1530E-12  0.2563E-06  0.1070E-09  0.2030E-07  0.1094E-09  0.5095E+16
   -1.124974    9.50117  0.1530E-12  0.1476E-05  0.6071E-09  0.7325E-06  0.9573E-11  0.7668E+16
   -1.237475    9.40490  0.1530E-12  0.1822E-05  0.7546E-09  0.3697E-04  0.6000E-12  0.1841E+15
   -1.349977    9.40258  0.1530E-12  0.1965E-05  0.8170E-09  0.2139E-03  0.3227E-12  0.1957E+14
   -1.462480    9.40233  0.1530E-12  0.2076E-05  0.8695E-09  0.4106E-03  0.2540E-12  0.5289E+13
   -1.574982    9.40226  0.1530E-12  0.2185E-05  0.9267E-09  0.6218E-03  0.2100E-12 -0.5203E+11
   -1.687485    9.40226  0.1530E-12  0.2291E-05  0.9879E-09  0.1032E-02  0.1775E-12 -0.2345E+13
   -1.799989    9.40229  0.1530E-12  0.2370E-05  0.1037E-08  0.1851E-02  0.1538E-12 -0.2660E+13
   -1.912492    9.40232  0.1530E-12  0.2440E-05  0.1084E-08  0.1826E-02  0.1415E-12 -0.4133E+13
   -2.024996    9.40238  0.1530E-12  0.2516E-05  0.1138E-08  0.1823E-02  0.1299E-12 -0.5622E+13
   -2.137500    9.40245  0.1530E-12  0.2598E-05  0.1199E-08  0.1825E-02  0.1191E-12 -0.7142E+13
   -2.250004    9.40254  0.1530E-12  0.2684E-05  0.1268E-08  0.1829E-02  0.1090E-12 -0.8682E+13
   -2.362508    9.40265  0.1530E-12  0.2773E-05  0.1344E-08  0.1832E-02  0.9958E-13 -0.1025E+14
   -2.475012    9.40278  0.1530E-12  0.2864E-05  0.1428E-08  0.1832E-02  0.9086E-13 -0.1188E+14
   -2.587516    9.40293  0.1530E-12  0.2955E-05  0.1519E-08  0.1829E-02  0.8277E-13 -0.1357E+14
   -2.700019    9.40311  0.1530E-12  0.3047E-05  0.1617E-08  0.1821E-02  0.7525E-13 -0.1532E+14
   -2.812522    9.40330  0.1530E-12  0.3137E-05  0.1724E-08  0.1808E-02  0.6827E-13 -0.1717E+14
   -2.925026    9.40352  0.1530E-12  0.3225E-05  0.1839E-08  0.1789E-02  0.6178E-13 -0.1912E+14
   -3.037528    9.40377  0.1530E-12  0.3310E-05  0.1965E-08  0.1762E-02  0.5576E-13 -0.2122E+14
   -3.150031    9.40404  0.1530E-12  0.3390E-05  0.2103E-08  0.1727E-02  0.5016E-13 -0.2351E+14
   -3.262533    9.40434  0.1530E-12  0.3465E-05  0.2255E-08  0.1683E-02  0.4495E-13 -0.2608E+14
   -3.375034    9.40467  0.1530E-12  0.3533E-05  0.2425E-08  0.1629E-02  0.4010E-13 -0.2897E+14
   -3.487535    9.40504  0.1530E-12  0.3592E-05  0.2618E-08  0.1563E-02  0.3560E-13 -0.3235E+14
   -3.600035    9.40545  0.1530E-12  0.3641E-05  0.2841E-08  0.1484E-02  0.3140E-13 -0.3642E+14
   -3.712535    9.40592  0.1530E-12  0.3676E-05  0.3106E-08  0.1391E-02  0.2749E-13 -0.4150E+14
   -3.825033    9.40645  0.1530E-12  0.3695E-05  0.3431E-08  0.1281E-02  0.2383E-13 -0.4806E+14
   -3.937531    9.40706  0.1530E-12  0.3691E-05  0.3849E-08  0.1151E-02  0.2041E-13 -0.5704E+14
   -4.050029    9.40779  0.1530E-12  0.3654E-05  0.4425E-08  0.9978E-03  0.1722E-13 -0.7031E+14
   -4.162525    9.40869  0.1530E-12  0.3565E-05  0.5310E-08  0.8114E-03  0.1424E-13 -0.9295E+14
   -4.275020    9.40987  0.1530E-12  0.3377E-05  0.6936E-08  0.6106E-03  0.1149E-13 -0.1347E+15
   -4.387515    9.41159  0.1530E-12  0.1549E-05  0.2422E-07  0.1770E-04  0.9253E-14 -0.5252E+16
   -4.500008    9.47819  0.1530E-12  0.0000E+00  0.0000E+00  0.0000E+00  0.9267E-14  0.0000E+00
