 1 - depth, m
 2 - temperature, C
 3 - salinity, kg/kg
 4 - turbulent kinetic energy, m**2/s**2
 5 - dissipation rate, m**2/s**3
 6 - kinematic heat conductance, m**2/s
 7 - modulus of horizontal velocity, m/s
 8 - Richardson number, n/d
   -0.000000   24.63854  0.1338E-12  0.2796E-06  0.9119E-08  0.4410E-06  0.2623E-01  0.3974E+00
   -0.112493   23.83292  0.1361E-12  0.8797E-09  0.2784E-10  0.3323E-09  0.3963E-02  0.6569E+02
   -0.224988   20.88543  0.1463E-12  0.4419E-11  0.1000E-11  0.1000E-09  0.4665E-03  0.4731E+04
   -0.337483   17.54203  0.1511E-12  0.4419E-11  0.1000E-11  0.1000E-09  0.5378E-04  0.2699E+06
   -0.449979   14.50622  0.1525E-12  0.4419E-11  0.1000E-11  0.1000E-09  0.6072E-05  0.1384E+08
   -0.562476   12.05845  0.1529E-12  0.4419E-11  0.1000E-11  0.1000E-09  0.6709E-06  0.6778E+09
   -0.674974   10.23199  0.1530E-12  0.4324E-08  0.1786E-11  0.1481E-09  0.7249E-07  0.3305E+11
   -0.787473    8.94528  0.1530E-12  0.3970E-07  0.1493E-10  0.2247E-08  0.7653E-08  0.1640E+13
   -0.899973    8.08953  0.1530E-12  0.3174E-06  0.1138E-09  0.3606E-07  0.7933E-09  0.7229E+14
   -1.012473    7.61233  0.1530E-12  0.1314E-05  0.4708E-09  0.1327E-05  0.6598E-10  0.1212E+16
   -1.124974    7.55182  0.1530E-12  0.1479E-05  0.5324E-09  0.7002E-04  0.5639E-11  0.5995E+14
   -1.237475    7.55070  0.1530E-12  0.1575E-05  0.5700E-09  0.2134E-03  0.3839E-11  0.1307E+14
   -1.349977    7.55046  0.1530E-12  0.1662E-05  0.6063E-09  0.3782E-03  0.3041E-11  0.4011E+13
   -1.462480    7.55038  0.1530E-12  0.1749E-05  0.6462E-09  0.5565E-03  0.2506E-11  0.1748E+12
   -1.574982    7.55038  0.1530E-12  0.1836E-05  0.6897E-09  0.8245E-03  0.2105E-11 -0.1768E+13
   -1.687485    7.55041  0.1530E-12  0.1900E-05  0.7246E-09  0.1716E-02  0.1800E-11 -0.1825E+13
   -1.799989    7.55045  0.1530E-12  0.1955E-05  0.7562E-09  0.1696E-02  0.1650E-11 -0.2884E+13
   -1.912492    7.55050  0.1530E-12  0.2014E-05  0.7927E-09  0.1692E-02  0.1511E-11 -0.3976E+13
   -2.024996    7.55058  0.1530E-12  0.2078E-05  0.8342E-09  0.1693E-02  0.1382E-11 -0.5090E+13
   -2.137500    7.55067  0.1530E-12  0.2145E-05  0.8807E-09  0.1696E-02  0.1261E-11 -0.6229E+13
   -2.250004    7.55079  0.1530E-12  0.2215E-05  0.9320E-09  0.1698E-02  0.1150E-11 -0.7388E+13
   -2.362508    7.55093  0.1530E-12  0.2287E-05  0.9881E-09  0.1700E-02  0.1047E-11 -0.8574E+13
   -2.475012    7.55109  0.1530E-12  0.2360E-05  0.1049E-08  0.1698E-02  0.9511E-12 -0.9811E+13
   -2.587516    7.55128  0.1530E-12  0.2433E-05  0.1115E-08  0.1694E-02  0.8627E-12 -0.1110E+14
   -2.700019    7.55149  0.1530E-12  0.2506E-05  0.1187E-08  0.1685E-02  0.7808E-12 -0.1244E+14
   -2.812523    7.55172  0.1530E-12  0.2577E-05  0.1264E-08  0.1671E-02  0.7051E-12 -0.1385E+14
   -2.925026    7.55198  0.1530E-12  0.2646E-05  0.1348E-08  0.1651E-02  0.6349E-12 -0.1535E+14
   -3.037528    7.55227  0.1530E-12  0.2713E-05  0.1439E-08  0.1624E-02  0.5700E-12 -0.1698E+14
   -3.150031    7.55260  0.1530E-12  0.2775E-05  0.1538E-08  0.1590E-02  0.5098E-12 -0.1876E+14
   -3.262533    7.55295  0.1530E-12  0.2833E-05  0.1648E-08  0.1548E-02  0.4542E-12 -0.2076E+14
   -3.375034    7.55334  0.1530E-12  0.2886E-05  0.1771E-08  0.1497E-02  0.4026E-12 -0.2302E+14
   -3.487535    7.55378  0.1530E-12  0.2931E-05  0.1911E-08  0.1435E-02  0.3549E-12 -0.2567E+14
   -3.600035    7.55426  0.1530E-12  0.2969E-05  0.2073E-08  0.1361E-02  0.3107E-12 -0.2886E+14
   -3.712535    7.55481  0.1530E-12  0.2995E-05  0.2266E-08  0.1275E-02  0.2698E-12 -0.3285E+14
   -3.825034    7.55543  0.1530E-12  0.3008E-05  0.2502E-08  0.1173E-02  0.2318E-12 -0.3801E+14
   -3.937532    7.55615  0.1530E-12  0.3003E-05  0.2807E-08  0.1054E-02  0.1965E-12 -0.4508E+14
   -4.050029    7.55700  0.1530E-12  0.2972E-05  0.3229E-08  0.9139E-03  0.1638E-12 -0.5555E+14
   -4.162525    7.55804  0.1530E-12  0.2899E-05  0.3877E-08  0.7433E-03  0.1336E-12 -0.7345E+14
   -4.275020    7.55943  0.1530E-12  0.2746E-05  0.5073E-08  0.5554E-03  0.1059E-12 -0.1073E+15
   -4.387515    7.56145  0.1530E-12  0.1263E-05  0.1780E-07  0.1593E-04  0.8348E-13 -0.4262E+16
   -4.500008    7.64097  0.1530E-12  0.0000E+00  0.0000E+00  0.0000E+00  0.8386E-13  0.0000E+00
