 1 - depth, m
 2 - temperature, C
 3 - salinity, kg/kg
 4 - turbulent kinetic energy, m**2/s**2
 5 - dissipation rate, m**2/s**3
 6 - kinematic heat conductance, m**2/s
 7 - modulus of horizontal velocity, m/s
 8 - Richardson number, n/d
   -0.000000   27.95918  0.1366E-12  0.1994E-05  0.3732E-07  0.2606E-04  0.1641E-02 -0.1537E+02
   -0.112493   28.00301  0.1366E-12  0.3421E-05  0.1610E-07  0.2815E-03  0.5348E-03 -0.1494E+03
   -0.224987   28.00615  0.1366E-12  0.3465E-05  0.1203E-07  0.3731E-03  0.4288E-03 -0.2613E+03
   -0.337483   28.00795  0.1366E-12  0.3303E-05  0.9503E-08  0.4198E-03  0.3740E-03 -0.2443E+03
   -0.449979   28.00913  0.1366E-12  0.3034E-05  0.7566E-08  0.4318E-03  0.3339E-03 -0.1302E+03
   -0.562476   28.00992  0.1366E-12  0.2695E-05  0.5959E-08  0.4125E-03  0.3020E-03 -0.1778E+03
   -0.674974   28.01043  0.1366E-12  0.2281E-05  0.4505E-08  0.2572E-03  0.2736E-03 -0.2759E+03
   -0.787473   28.01080  0.1366E-12  0.1787E-05  0.3201E-08  0.1118E-03  0.2474E-03 -0.2750E+02
   -0.899972   28.01057  0.1366E-12  0.1014E-05  0.1803E-08  0.3499E-06  0.2216E-03  0.2242E+04
   -1.012472   27.78914  0.1404E-12  0.4198E-07  0.7769E-10  0.3216E-08  0.3584E-04  0.2912E+06
   -1.124973   27.04539  0.1486E-12  0.1578E-08  0.2784E-11  0.1198E-09  0.3546E-05  0.3235E+08
   -1.237475   26.22811  0.1513E-12  0.7430E-08  0.5410E-11  0.2235E-09  0.3392E-06  0.3252E+10
   -1.349976   25.45100  0.1524E-12  0.1056E-06  0.7086E-10  0.3450E-08  0.3157E-07  0.3170E+12
   -1.462479   24.77823  0.1529E-12  0.1286E-05  0.8221E-09  0.7001E-07  0.2829E-08  0.2056E+14
   -1.574981   24.38210  0.1530E-12  0.3552E-05  0.2241E-08  0.6613E-05  0.1559E-09  0.4110E+15
   -1.687485   24.36557  0.1530E-12  0.3854E-05  0.2439E-08  0.2474E-03  0.2098E-10  0.5362E+14
   -1.799988   24.36535  0.1530E-12  0.4061E-05  0.2588E-08  0.5475E-03  0.1648E-10  0.1082E+14
   -1.912491   24.36531  0.1530E-12  0.4265E-05  0.2752E-08  0.9269E-03  0.1381E-10 -0.1785E+13
   -2.024995   24.36532  0.1530E-12  0.4416E-05  0.2888E-08  0.2315E-02  0.1189E-10 -0.4183E+13
   -2.137499   24.36533  0.1530E-12  0.4546E-05  0.3016E-08  0.2272E-02  0.1099E-10 -0.7873E+13
   -2.250003   24.36537  0.1530E-12  0.4689E-05  0.3168E-08  0.2261E-02  0.1017E-10 -0.1160E+14
   -2.362507   24.36541  0.1530E-12  0.4847E-05  0.3346E-08  0.2261E-02  0.9400E-11 -0.1535E+14
   -2.475010   24.36547  0.1530E-12  0.5014E-05  0.3549E-08  0.2263E-02  0.8672E-11 -0.1923E+14
   -2.587514   24.36555  0.1530E-12  0.5188E-05  0.3776E-08  0.2264E-02  0.7988E-11 -0.2317E+14
   -2.700018   24.36565  0.1530E-12  0.5367E-05  0.4028E-08  0.2261E-02  0.7347E-11 -0.2723E+14
   -2.812521   24.36576  0.1530E-12  0.5546E-05  0.4304E-08  0.2252E-02  0.6746E-11 -0.3141E+14
   -2.925024   24.36589  0.1530E-12  0.5724E-05  0.4607E-08  0.2236E-02  0.6182E-11 -0.3580E+14
   -3.037527   24.36603  0.1530E-12  0.5899E-05  0.4939E-08  0.2211E-02  0.5654E-11 -0.4045E+14
   -3.150029   24.36620  0.1530E-12  0.6066E-05  0.5303E-08  0.2175E-02  0.5158E-11 -0.4547E+14
   -3.262531   24.36638  0.1530E-12  0.6224E-05  0.5706E-08  0.2127E-02  0.4692E-11 -0.5098E+14
   -3.375032   24.36659  0.1530E-12  0.6370E-05  0.6155E-08  0.2066E-02  0.4254E-11 -0.5718E+14
   -3.487533   24.36682  0.1530E-12  0.6501E-05  0.6663E-08  0.1989E-02  0.3841E-11 -0.6430E+14
   -3.600033   24.36708  0.1530E-12  0.6612E-05  0.7248E-08  0.1894E-02  0.3452E-11 -0.7284E+14
   -3.712533   24.36738  0.1530E-12  0.6697E-05  0.7938E-08  0.1780E-02  0.3085E-11 -0.8341E+14
   -3.825032   24.36772  0.1530E-12  0.6750E-05  0.8779E-08  0.1642E-02  0.2736E-11 -0.9701E+14
   -3.937529   24.36812  0.1530E-12  0.6759E-05  0.9854E-08  0.1478E-02  0.2404E-11 -0.1155E+15
   -4.050027   24.36859  0.1530E-12  0.6706E-05  0.1133E-07  0.1282E-02  0.2089E-11 -0.1427E+15
   -4.162523   24.36917  0.1530E-12  0.6552E-05  0.1357E-07  0.1041E-02  0.1789E-11 -0.1892E+15
   -4.275018   24.36994  0.1530E-12  0.6210E-05  0.1765E-07  0.7982E-03  0.1506E-11 -0.2683E+15
   -4.387512   24.37103  0.1530E-12  0.2825E-05  0.6073E-07  0.2424E-04  0.1274E-11 -0.9864E+16
   -4.500006   24.41116  0.1530E-12  0.0000E+00  0.0000E+00  0.0000E+00  0.1275E-11  0.0000E+00
