 1 - depth, m
 2 - temperature, C
 3 - salinity, kg/kg
 4 - turbulent kinetic energy, m**2/s**2
 5 - dissipation rate, m**2/s**3
 6 - kinematic heat conductance, m**2/s
 7 - modulus of horizontal velocity, m/s
 8 - Richardson number, n/d
   -0.000000   26.30177  0.1363E-12  0.2874E-05  0.4752E-07  0.3013E-04  0.6659E-02 -0.5982E+00
   -0.112493   26.32960  0.1363E-12  0.2976E-05  0.1647E-07  0.1406E-03  0.2917E-02 -0.2594E+01
   -0.224988   26.33407  0.1363E-12  0.2736E-05  0.1014E-07  0.2110E-03  0.2185E-02 -0.4519E+01
   -0.337483   26.33618  0.1363E-12  0.2374E-05  0.6849E-08  0.2299E-03  0.1805E-02 -0.6186E+01
   -0.449979   26.33743  0.1363E-12  0.1946E-05  0.4650E-08  0.1969E-03  0.1555E-02 -0.7174E+01
   -0.562476   26.33818  0.1363E-12  0.1478E-05  0.3034E-08  0.1080E-03  0.1375E-02 -0.3929E+01
   -0.674974   26.33840  0.1363E-12  0.7065E-06  0.1432E-08  0.2319E-06  0.1237E-02  0.5512E+02
   -0.787473   26.13391  0.1398E-12  0.2284E-07  0.4847E-10  0.1768E-08  0.1950E-03  0.8846E+04
   -0.899973   25.24538  0.1492E-12  0.5085E-09  0.1346E-11  0.1000E-09  0.2024E-04  0.9641E+06
   -1.012473   24.16719  0.1519E-12  0.4419E-11  0.1000E-11  0.1000E-09  0.2041E-05  0.9177E+08
   -1.124974   23.07560  0.1526E-12  0.4419E-11  0.1000E-11  0.1000E-09  0.2007E-06  0.8282E+10
   -1.237475   22.07691  0.1529E-12  0.2579E-09  0.1002E-11  0.1000E-09  0.1922E-07  0.7236E+12
   -1.349977   21.23998  0.1530E-12  0.1333E-07  0.7804E-11  0.4747E-09  0.1790E-08  0.6189E+14
   -1.462479   20.59491  0.1530E-12  0.1616E-06  0.8894E-10  0.8058E-08  0.1616E-09  0.5057E+16
   -1.574982   20.15280  0.1530E-12  0.1514E-05  0.8023E-09  0.2213E-06  0.1376E-10  0.3015E+17
   -1.687485   20.00453  0.1530E-12  0.2291E-05  0.1218E-08  0.2031E-04  0.5847E-12  0.5739E+15
   -1.799988   20.00169  0.1530E-12  0.2498E-05  0.1334E-08  0.2552E-03  0.2079E-12  0.2315E+14
   -1.912492   20.00158  0.1530E-12  0.2646E-05  0.1426E-08  0.5102E-03  0.1626E-12  0.3026E+13
   -2.024996   20.00156  0.1530E-12  0.2788E-05  0.1525E-08  0.9080E-03  0.1340E-12 -0.3346E+13
   -2.137499   20.00158  0.1530E-12  0.2893E-05  0.1607E-08  0.1787E-02  0.1142E-12 -0.4396E+13
   -2.250003   20.00160  0.1530E-12  0.2986E-05  0.1686E-08  0.1760E-02  0.1044E-12 -0.7110E+13
   -2.362507   20.00164  0.1530E-12  0.3088E-05  0.1780E-08  0.1758E-02  0.9517E-13 -0.9732E+13
   -2.475011   20.00168  0.1530E-12  0.3199E-05  0.1888E-08  0.1760E-02  0.8663E-13 -0.1244E+14
   -2.587515   20.00175  0.1530E-12  0.3315E-05  0.2011E-08  0.1761E-02  0.7872E-13 -0.1521E+14
   -2.700018   20.00182  0.1530E-12  0.3434E-05  0.2147E-08  0.1761E-02  0.7140E-13 -0.1804E+14
   -2.812522   20.00191  0.1530E-12  0.3555E-05  0.2298E-08  0.1756E-02  0.6463E-13 -0.2098E+14
   -2.925025   20.00201  0.1530E-12  0.3675E-05  0.2464E-08  0.1745E-02  0.5837E-13 -0.2402E+14
   -3.037528   20.00213  0.1530E-12  0.3794E-05  0.2647E-08  0.1728E-02  0.5258E-13 -0.2728E+14
   -3.150030   20.00227  0.1530E-12  0.3909E-05  0.2847E-08  0.1703E-02  0.4723E-13 -0.3077E+14
   -3.262532   20.00242  0.1530E-12  0.4018E-05  0.3070E-08  0.1668E-02  0.4228E-13 -0.3462E+14
   -3.375033   20.00259  0.1530E-12  0.4119E-05  0.3318E-08  0.1622E-02  0.3769E-13 -0.3892E+14
   -3.487534   20.00278  0.1530E-12  0.4210E-05  0.3600E-08  0.1564E-02  0.3344E-13 -0.4391E+14
   -3.600034   20.00300  0.1530E-12  0.4289E-05  0.3925E-08  0.1493E-02  0.2950E-13 -0.4984E+14
   -3.712534   20.00324  0.1530E-12  0.4352E-05  0.4307E-08  0.1405E-02  0.2585E-13 -0.5725E+14
   -3.825032   20.00353  0.1530E-12  0.4394E-05  0.4774E-08  0.1300E-02  0.2244E-13 -0.6674E+14
   -3.937530   20.00386  0.1530E-12  0.4407E-05  0.5370E-08  0.1173E-02  0.1926E-13 -0.7975E+14
   -4.050028   20.00425  0.1530E-12  0.4379E-05  0.6185E-08  0.1021E-02  0.1630E-13 -0.9895E+14
   -4.162524   20.00474  0.1530E-12  0.4285E-05  0.7424E-08  0.8338E-03  0.1354E-13 -0.1318E+15
   -4.275019   20.00539  0.1530E-12  0.4066E-05  0.9684E-08  0.6318E-03  0.1100E-13 -0.1921E+15
   -4.387513   20.00634  0.1530E-12  0.1876E-05  0.3301E-07  0.1983E-04  0.8932E-14 -0.7020E+16
   -4.500007   20.04097  0.1530E-12  0.0000E+00  0.0000E+00  0.0000E+00  0.8927E-14  0.0000E+00
