 1 - depth, m
 2 - temperature, C
 3 - salinity, kg/kg
 4 - turbulent kinetic energy, m**2/s**2
 5 - dissipation rate, m**2/s**3
 6 - kinematic heat conductance, m**2/s
 7 - modulus of horizontal velocity, m/s
 8 - Richardson number, n/d
   -0.000000   27.18193  0.1358E-12  0.1206E-05  0.1831E-07  0.2025E-04  0.1667E-02 -0.8252E+01
   -0.112493   27.21226  0.1358E-12  0.1800E-05  0.7427E-08  0.1509E-03  0.5760E-03 -0.5277E+02
   -0.224987   27.21498  0.1358E-12  0.1673E-05  0.4921E-08  0.1942E-03  0.4357E-03 -0.7920E+02
   -0.337483   27.21628  0.1358E-12  0.1411E-05  0.3334E-08  0.1779E-03  0.3551E-03 -0.9230E+02
   -0.449979   27.21700  0.1358E-12  0.1073E-05  0.2155E-08  0.1184E-03  0.2965E-03 -0.7376E+02
   -0.562476   27.21540  0.1358E-12  0.6918E-06  0.1216E-08  0.3915E-04  0.2186E-03  0.7889E+03
   -0.674974   27.19528  0.1359E-12  0.2534E-06  0.4257E-09  0.5744E-07  0.1422E-03  0.2586E+06
   -0.787473   26.95280  0.1381E-12  0.8836E-08  0.1590E-10  0.8727E-09  0.1782E-04  0.5049E+08
   -0.899972   26.38310  0.1443E-12  0.5035E-10  0.1000E-11  0.1000E-09  0.1845E-05  0.5926E+10
   -1.012473   25.62173  0.1492E-12  0.4419E-11  0.1000E-11  0.1000E-09  0.1857E-06  0.6088E+12
   -1.124973   24.75692  0.1516E-12  0.5192E-11  0.1000E-11  0.1000E-09  0.1824E-07  0.5915E+14
   -1.237475   23.87421  0.1525E-12  0.4839E-08  0.3531E-11  0.1573E-09  0.1744E-08  0.5634E+16
   -1.349977   23.03993  0.1529E-12  0.7124E-07  0.4844E-10  0.2341E-08  0.1622E-09  0.4945E+17
   -1.462479   22.29423  0.1530E-12  0.9193E-06  0.5934E-09  0.4105E-07  0.1459E-10  0.1204E+18
   -1.574982   21.75387  0.1530E-12  0.3739E-05  0.2403E-08  0.3330E-05  0.9911E-12  0.9037E+16
   -1.687485   21.71263  0.1530E-12  0.4061E-05  0.2616E-08  0.2249E-03  0.6938E-13  0.7037E+14
   -1.799988   21.71231  0.1530E-12  0.4277E-05  0.2773E-08  0.5423E-03  0.5313E-13  0.1309E+14
   -1.912492   21.71225  0.1530E-12  0.4488E-05  0.2944E-08  0.9252E-03  0.4433E-13 -0.1412E+13
   -2.024995   21.71226  0.1530E-12  0.4645E-05  0.3088E-08  0.2400E-02  0.3809E-13 -0.4186E+13
   -2.137499   21.71227  0.1530E-12  0.4779E-05  0.3222E-08  0.2344E-02  0.3510E-13 -0.8103E+13
   -2.250003   21.71231  0.1530E-12  0.4927E-05  0.3381E-08  0.2330E-02  0.3250E-13 -0.1201E+14
   -2.362507   21.71237  0.1530E-12  0.5089E-05  0.3568E-08  0.2329E-02  0.3003E-13 -0.1593E+14
   -2.475011   21.71244  0.1530E-12  0.5261E-05  0.3781E-08  0.2331E-02  0.2771E-13 -0.1995E+14
   -2.587515   21.71253  0.1530E-12  0.5441E-05  0.4019E-08  0.2332E-02  0.2553E-13 -0.2407E+14
   -2.700018   21.71264  0.1530E-12  0.5625E-05  0.4284E-08  0.2328E-02  0.2349E-13 -0.2826E+14
   -2.812521   21.71277  0.1530E-12  0.5810E-05  0.4574E-08  0.2319E-02  0.2157E-13 -0.3261E+14
   -2.925025   21.71292  0.1530E-12  0.5994E-05  0.4893E-08  0.2302E-02  0.1977E-13 -0.3714E+14
   -3.037527   21.71308  0.1530E-12  0.6174E-05  0.5242E-08  0.2275E-02  0.1809E-13 -0.4196E+14
   -3.150030   21.71328  0.1530E-12  0.6347E-05  0.5625E-08  0.2238E-02  0.1651E-13 -0.4715E+14
   -3.262531   21.71349  0.1530E-12  0.6510E-05  0.6049E-08  0.2188E-02  0.1502E-13 -0.5286E+14
   -3.375033   21.71373  0.1530E-12  0.6660E-05  0.6522E-08  0.2124E-02  0.1362E-13 -0.5924E+14
   -3.487534   21.71400  0.1530E-12  0.6794E-05  0.7056E-08  0.2045E-02  0.1231E-13 -0.6662E+14
   -3.600034   21.71430  0.1530E-12  0.6907E-05  0.7673E-08  0.1947E-02  0.1107E-13 -0.7541E+14
   -3.712533   21.71465  0.1530E-12  0.6995E-05  0.8400E-08  0.1829E-02  0.9893E-14 -0.8633E+14
   -3.825032   21.71504  0.1530E-12  0.7048E-05  0.9286E-08  0.1687E-02  0.8780E-14 -0.1003E+15
   -3.937530   21.71549  0.1530E-12  0.7055E-05  0.1042E-07  0.1518E-02  0.7720E-14 -0.1194E+15
   -4.050027   21.71604  0.1530E-12  0.6997E-05  0.1197E-07  0.1316E-02  0.6712E-14 -0.1473E+15
   -4.162523   21.71671  0.1530E-12  0.6835E-05  0.1433E-07  0.1068E-02  0.5753E-14 -0.1950E+15
   -4.275019   21.71760  0.1530E-12  0.6476E-05  0.1864E-07  0.8199E-03  0.4850E-14 -0.2754E+15
   -4.387513   21.71885  0.1530E-12  0.2941E-05  0.6423E-07  0.2472E-04  0.4108E-14 -0.1014E+17
   -4.500006   21.76490  0.1530E-12  0.0000E+00  0.0000E+00  0.0000E+00  0.4094E-14  0.0000E+00
