 1 - depth, m
 2 - temperature, C
 3 - salinity, kg/kg
 4 - turbulent kinetic energy, m**2/s**2
 5 - dissipation rate, m**2/s**3
 6 - kinematic heat conductance, m**2/s
 7 - modulus of horizontal velocity, m/s
 8 - Richardson number, n/d
   -0.000000   25.65262  0.1300E-12  0.1681E-05  0.1889E-07  0.1643E-04  0.1048E-01 -0.7794E-01
   -0.112493   25.65470  0.1300E-12  0.4779E-07  0.5410E-09  0.1836E-07  0.6567E-02  0.7528E+01
   -0.224988   24.77589  0.1380E-12  0.2475E-09  0.2937E-11  0.1000E-09  0.7961E-03  0.1000E+04
   -0.337483   22.96323  0.1464E-12  0.4419E-11  0.1000E-11  0.1000E-09  0.9113E-04  0.8528E+05
   -0.449979   20.75330  0.1505E-12  0.4419E-11  0.1000E-11  0.1000E-09  0.1021E-04  0.6265E+07
   -0.562476   18.47059  0.1521E-12  0.4419E-11  0.1000E-11  0.1000E-09  0.1120E-05  0.4270E+09
   -0.674974   16.33865  0.1527E-12  0.4419E-11  0.1000E-11  0.1000E-09  0.1201E-06  0.2796E+11
   -0.787473   14.49159  0.1529E-12  0.3315E-10  0.1000E-11  0.1000E-09  0.1259E-07  0.1800E+13
   -0.899973   12.98979  0.1530E-12  0.1110E-07  0.5707E-11  0.3575E-09  0.1303E-08  0.1123E+15
   -1.012473   11.84521  0.1530E-12  0.1214E-06  0.5821E-10  0.5906E-08  0.1314E-09  0.6773E+16
   -1.124974   11.05612  0.1530E-12  0.1083E-05  0.4973E-09  0.1303E-06  0.1267E-10  0.3266E+17
   -1.237475   10.72305  0.1530E-12  0.2265E-05  0.1050E-08  0.7271E-05  0.7035E-12  0.1337E+16
   -1.349977   10.70914  0.1530E-12  0.2465E-05  0.1147E-08  0.1764E-03  0.1538E-12  0.3883E+14
   -1.462479   10.70874  0.1530E-12  0.2599E-05  0.1216E-08  0.3968E-03  0.1186E-12  0.1006E+14
   -1.574982   10.70863  0.1530E-12  0.2730E-05  0.1291E-08  0.6324E-03  0.9813E-13  0.1407E+13
   -1.687485   10.70862  0.1530E-12  0.2859E-05  0.1372E-08  0.1019E-02  0.8331E-13 -0.2396E+13
   -1.799989   10.70864  0.1530E-12  0.2954E-05  0.1438E-08  0.2075E-02  0.7235E-13 -0.2877E+13
   -1.912492   10.70867  0.1530E-12  0.3037E-05  0.1499E-08  0.2039E-02  0.6695E-13 -0.4728E+13
   -2.024996   10.70872  0.1530E-12  0.3128E-05  0.1571E-08  0.2034E-02  0.6181E-13 -0.6602E+13
   -2.137500   10.70879  0.1530E-12  0.3227E-05  0.1653E-08  0.2035E-02  0.5698E-13 -0.8511E+13
   -2.250004   10.70888  0.1530E-12  0.3332E-05  0.1746E-08  0.2038E-02  0.5244E-13 -0.1044E+14
   -2.362508   10.70899  0.1530E-12  0.3441E-05  0.1849E-08  0.2041E-02  0.4821E-13 -0.1241E+14
   -2.475012   10.70912  0.1530E-12  0.3552E-05  0.1962E-08  0.2041E-02  0.4425E-13 -0.1445E+14
   -2.587515   10.70927  0.1530E-12  0.3665E-05  0.2086E-08  0.2037E-02  0.4055E-13 -0.1656E+14
   -2.700019   10.70944  0.1530E-12  0.3778E-05  0.2220E-08  0.2029E-02  0.3709E-13 -0.1874E+14
   -2.812522   10.70964  0.1530E-12  0.3889E-05  0.2365E-08  0.2014E-02  0.3387E-13 -0.2103E+14
   -2.925025   10.70986  0.1530E-12  0.3997E-05  0.2523E-08  0.1993E-02  0.3085E-13 -0.2345E+14
   -3.037528   10.71011  0.1530E-12  0.4102E-05  0.2695E-08  0.1963E-02  0.2803E-13 -0.2606E+14
   -3.150030   10.71038  0.1530E-12  0.4201E-05  0.2883E-08  0.1924E-02  0.2540E-13 -0.2891E+14
   -3.262532   10.71068  0.1530E-12  0.4293E-05  0.3090E-08  0.1875E-02  0.2293E-13 -0.3208E+14
   -3.375034   10.71102  0.1530E-12  0.4376E-05  0.3322E-08  0.1814E-02  0.2062E-13 -0.3566E+14
   -3.487535   10.71139  0.1530E-12  0.4449E-05  0.3585E-08  0.1741E-02  0.1845E-13 -0.3983E+14
   -3.600035   10.71181  0.1530E-12  0.4509E-05  0.3889E-08  0.1652E-02  0.1642E-13 -0.4484E+14
   -3.712534   10.71228  0.1530E-12  0.4553E-05  0.4250E-08  0.1548E-02  0.1451E-13 -0.5110E+14
   -3.825033   10.71282  0.1530E-12  0.4575E-05  0.4692E-08  0.1424E-02  0.1272E-13 -0.5916E+14
   -3.937531   10.71344  0.1530E-12  0.4569E-05  0.5261E-08  0.1279E-02  0.1102E-13 -0.7019E+14
   -4.050028   10.71417  0.1530E-12  0.4522E-05  0.6046E-08  0.1108E-02  0.9416E-14 -0.8644E+14
   -4.162525   10.71508  0.1530E-12  0.4412E-05  0.7248E-08  0.8993E-03  0.7908E-14 -0.1141E+15
   -4.275020   10.71627  0.1530E-12  0.4178E-05  0.9456E-08  0.6811E-03  0.6502E-14 -0.1634E+15
   -4.387514   10.71798  0.1530E-12  0.1906E-05  0.3306E-07  0.1963E-04  0.5349E-14 -0.6342E+16
   -4.500007   10.78408  0.1530E-12  0.0000E+00  0.0000E+00  0.0000E+00  0.5356E-14  0.0000E+00
