 1 - depth, m
 2 - temperature, C
 3 - salinity, kg/kg
 4 - turbulent kinetic energy, m**2/s**2
 5 - dissipation rate, m**2/s**3
 6 - kinematic heat conductance, m**2/s
 7 - modulus of horizontal velocity, m/s
 8 - Richardson number, n/d
   -0.000000    0.00000  0.0000E+00  0.1219E-13  0.7603E-17  0.1000E-09  0.0000E+00  0.1065E+17
   -0.068737    0.16332  0.0000E+00  0.1219E-13  0.7603E-17  0.1000E-09  0.0000E+00  0.1011E+17
   -0.137475    0.32560  0.0000E+00  0.1219E-13  0.7603E-17  0.1000E-09  0.0000E+00  0.9571E+16
   -0.206213    0.48658  0.0000E+00  0.1219E-13  0.7603E-17  0.1000E-09  0.0000E+00  0.9028E+16
   -0.274952    0.64595  0.0000E+00  0.1219E-13  0.7603E-17  0.1000E-09  0.0000E+00  0.8504E+16
   -0.343691    0.80380  0.0000E+00  0.1219E-13  0.7603E-17  0.1000E-09  0.0000E+00  0.7984E+16
   -0.412431    0.95990  0.0000E+00  0.1219E-13  0.7603E-17  0.1000E-09  0.0000E+00  0.7468E+16
   -0.481171    1.11399  0.0000E+00  0.1219E-13  0.7603E-17  0.1000E-09  0.0000E+00  0.6955E+16
   -0.549912    1.26574  0.0000E+00  0.1219E-13  0.7603E-17  0.1000E-09  0.0000E+00  0.6443E+16
   -0.618653    1.41469  0.0000E+00  0.1219E-13  0.7603E-17  0.1000E-09  0.0000E+00  0.5944E+16
   -0.687395    1.56055  0.0000E+00  0.1219E-13  0.7603E-17  0.1000E-09  0.0000E+00  0.5491E+16
   -0.756137    1.70392  0.0000E+00  0.1219E-13  0.7603E-17  0.1000E-09  0.0000E+00  0.5068E+16
   -0.824879    1.84509  0.0000E+00  0.1219E-13  0.7603E-17  0.1000E-09  0.0000E+00  0.4656E+16
   -0.893621    1.98386  0.0000E+00  0.1219E-13  0.7603E-17  0.1000E-09  0.0000E+00  0.4257E+16
   -0.962364    2.12006  0.0000E+00  0.1219E-13  0.7603E-17  0.1000E-09  0.0000E+00  0.3871E+16
   -1.031107    2.25349  0.0000E+00  0.1219E-13  0.7603E-17  0.1000E-09  0.0000E+00  0.3504E+16
   -1.099850    2.38412  0.0000E+00  0.1219E-13  0.7603E-17  0.1000E-09  0.0000E+00  0.3152E+16
   -1.168593    2.51175  0.0000E+00  0.1219E-13  0.7603E-17  0.1000E-09  0.0000E+00  0.2816E+16
   -1.237337    2.63621  0.0000E+00  0.2507E-13  0.7603E-17  0.1000E-09  0.0000E+00  0.2497E+16
   -1.306080    2.75728  0.0000E+00  0.8658E-13  0.1129E-16  0.1000E-09  0.0000E+00  0.2194E+16
   -1.374824    2.87475  0.0000E+00  0.2212E-12  0.2383E-16  0.1000E-09  0.0000E+00  0.1922E+16
   -1.443567    2.98921  0.0000E+00  0.5104E-12  0.5187E-16  0.1000E-09  0.0000E+00  0.1669E+16
   -1.512311    3.10074  0.0000E+00  0.1137E-11  0.1119E-15  0.1000E-09  0.0000E+00  0.1429E+16
   -1.581054    3.20903  0.0000E+00  0.2506E-11  0.2400E-15  0.1000E-09  0.0000E+00  0.1203E+16
   -1.649797    3.31378  0.0000E+00  0.5469E-11  0.5107E-15  0.1000E-09  0.0000E+00  0.9933E+15
   -1.718540    3.41472  0.0000E+00  0.1183E-10  0.1078E-14  0.1000E-09  0.0000E+00  0.8003E+15
   -1.787283    3.51156  0.0000E+00  0.2541E-10  0.2258E-14  0.1000E-09  0.0000E+00  0.6248E+15
   -1.856026    3.60400  0.0000E+00  0.5413E-10  0.4695E-14  0.1000E-09  0.0000E+00  0.4677E+15
   -1.924769    3.69174  0.0000E+00  0.1145E-09  0.9694E-14  0.1498E-09  0.0000E+00  0.3293E+15
   -1.993511    3.77443  0.0000E+00  0.2405E-09  0.1988E-13  0.4817E-09  0.0000E+00  0.2100E+15
   -2.062253    3.85157  0.0000E+00  0.5012E-09  0.4049E-13  0.1808E-08  0.0000E+00  0.1139E+15
   -2.130994    3.92604  0.0000E+00  0.1030E-08  0.8142E-13  0.1472E-07  0.0000E+00  0.2812E+14
   -2.199736    3.99314  0.0000E+00  0.1483E-08  0.1178E-12  0.6821E-05  0.0000E+00 -0.1726E+12
   -2.268476    3.99461  0.0000E+00  0.1701E-08  0.1416E-12  0.7476E-05  0.0000E+00 -0.1950E+12
   -2.337217    3.99600  0.0000E+00  0.1880E-08  0.1699E-12  0.7514E-05  0.0000E+00 -0.2288E+12
   -2.405957    3.99741  0.0000E+00  0.2023E-08  0.2071E-12  0.6962E-05  0.0000E+00 -0.2901E+12
   -2.474696    3.99897  0.0000E+00  0.2124E-08  0.2624E-12  0.5833E-05  0.0000E+00 -0.4142E+12
   -2.543435    4.00091  0.0000E+00  0.2170E-08  0.3633E-12  0.4156E-05  0.0000E+00 -0.7370E+12
   -2.612173    4.00384  0.0000E+00  0.2113E-08  0.6192E-12  0.2107E-05  0.0000E+00 -0.2132E+13
   -2.680910    4.01038  0.0000E+00  0.1825E-08  0.1787E-11  0.4959E-06  0.0000E+00 -0.2215E+14
   -2.749647    4.04470  0.0000E+00  0.0000E+00  0.0000E+00  0.0000E+00  0.0000E+00  0.0000E+00
