 1 - depth, m
 2 - temperature, C
 3 - salinity, kg/kg
 4 - turbulent kinetic energy, m**2/s**2
 5 - dissipation rate, m**2/s**3
 6 - kinematic heat conductance, m**2/s
 7 - modulus of horizontal velocity, m/s
 8 - Richardson number, n/d
   -0.000000    0.00000  0.0000E+00  0.1219E-13  0.7603E-17  0.1000E-09  0.0000E+00  0.9320E+16
   -0.068744    0.14253  0.0000E+00  0.1219E-13  0.7603E-17  0.1000E-09  0.0000E+00  0.8807E+16
   -0.137488    0.28259  0.0000E+00  0.1219E-13  0.7603E-17  0.1000E-09  0.0000E+00  0.8297E+16
   -0.206233    0.41991  0.0000E+00  0.1219E-13  0.7603E-17  0.1000E-09  0.0000E+00  0.7792E+16
   -0.274978    0.55418  0.0000E+00  0.1219E-13  0.7603E-17  0.1000E-09  0.0000E+00  0.7319E+16
   -0.343724    0.68557  0.0000E+00  0.1219E-13  0.7603E-17  0.1000E-09  0.0000E+00  0.6859E+16
   -0.412471    0.81393  0.0000E+00  0.1219E-13  0.7603E-17  0.1000E-09  0.0000E+00  0.6410E+16
   -0.481218    0.93904  0.0000E+00  0.1219E-13  0.7603E-17  0.1000E-09  0.0000E+00  0.5970E+16
   -0.549965    1.06062  0.0000E+00  0.1219E-13  0.7603E-17  0.1000E-09  0.0000E+00  0.5531E+16
   -0.618713    1.17819  0.0000E+00  0.1219E-13  0.7603E-17  0.1000E-09  0.0000E+00  0.5108E+16
   -0.687462    1.29155  0.0000E+00  0.1219E-13  0.7603E-17  0.1000E-09  0.0000E+00  0.4757E+16
   -0.756210    1.40181  0.0000E+00  0.1219E-13  0.7603E-17  0.1000E-09  0.0000E+00  0.4452E+16
   -0.824959    1.50962  0.0000E+00  0.1219E-13  0.7603E-17  0.1000E-09  0.0000E+00  0.4158E+16
   -0.893708    1.61493  0.0000E+00  0.1219E-13  0.7603E-17  0.1000E-09  0.0000E+00  0.3876E+16
   -0.962458    1.71767  0.0000E+00  0.1219E-13  0.7603E-17  0.1000E-09  0.0000E+00  0.3605E+16
   -1.031207    1.81777  0.0000E+00  0.1219E-13  0.7603E-17  0.1000E-09  0.0000E+00  0.3352E+16
   -1.099957    1.91534  0.0000E+00  0.1219E-13  0.7603E-17  0.1000E-09  0.0000E+00  0.3110E+16
   -1.168707    2.01031  0.0000E+00  0.1219E-13  0.7603E-17  0.1000E-09  0.0000E+00  0.2879E+16
   -1.237457    2.10263  0.0000E+00  0.1219E-13  0.7603E-17  0.1000E-09  0.0000E+00  0.2658E+16
   -1.306207    2.19224  0.0000E+00  0.1219E-13  0.7603E-17  0.1000E-09  0.0000E+00  0.2449E+16
   -1.374958    2.27905  0.0000E+00  0.1219E-13  0.7603E-17  0.1000E-09  0.0000E+00  0.2280E+16
   -1.443708    2.36419  0.0000E+00  0.1219E-13  0.7603E-17  0.1000E-09  0.0000E+00  0.2128E+16
   -1.512458    2.44803  0.0000E+00  0.1219E-13  0.7603E-17  0.1000E-09  0.0000E+00  0.1985E+16
   -1.581208    2.53068  0.0000E+00  0.1219E-13  0.7603E-17  0.1000E-09  0.0000E+00  0.1848E+16
   -1.649958    2.61220  0.0000E+00  0.1219E-13  0.7603E-17  0.1000E-09  0.0000E+00  0.1715E+16
   -1.718708    2.69256  0.0000E+00  0.1219E-13  0.7603E-17  0.1000E-09  0.0000E+00  0.1586E+16
   -1.787457    2.77171  0.0000E+00  0.1219E-13  0.7603E-17  0.1000E-09  0.0000E+00  0.1462E+16
   -1.856207    2.84960  0.0000E+00  0.1219E-13  0.7603E-17  0.1000E-09  0.0000E+00  0.1341E+16
   -1.924956    2.92616  0.0000E+00  0.1219E-13  0.7603E-17  0.1000E-09  0.0000E+00  0.1224E+16
   -1.993705    3.00132  0.0000E+00  0.1219E-13  0.7603E-17  0.1000E-09  0.0000E+00  0.1110E+16
   -2.062454    3.07496  0.0000E+00  0.1219E-13  0.7603E-17  0.1000E-09  0.0000E+00  0.1023E+16
   -2.131202    3.14864  0.0000E+00  0.1219E-13  0.7603E-17  0.1000E-09  0.0000E+00  0.9407E+15
   -2.199950    3.22269  0.0000E+00  0.1219E-13  0.7603E-17  0.1000E-09  0.0000E+00  0.8582E+15
   -2.268697    3.29726  0.0000E+00  0.1219E-13  0.7603E-17  0.1000E-09  0.0000E+00  0.7878E+15
   -2.337444    3.37373  0.0000E+00  0.1219E-13  0.7603E-17  0.1000E-09  0.0000E+00  0.7208E+15
   -2.406191    3.45335  0.0000E+00  0.1219E-13  0.7604E-17  0.1000E-09  0.0000E+00  0.6523E+15
   -2.474937    3.53751  0.0000E+00  0.2774E-13  0.1268E-16  0.1000E-09  0.0000E+00  0.5804E+15
   -2.543682    3.62884  0.0000E+00  0.1270E-12  0.4943E-16  0.1000E-09  0.0000E+00  0.5054E+15
   -2.612427    3.73419  0.0000E+00  0.6291E-12  0.2333E-15  0.1000E-09  0.0000E+00  0.3925E+15
   -2.681172    3.86970  0.0000E+00  0.3469E-11  0.1242E-14  0.2926E-08  0.0000E+00 -0.1310E+13
   -2.749915    4.10377  0.0000E+00  0.0000E+00  0.0000E+00  0.0000E+00  0.0000E+00  0.0000E+00
