 1 - depth, m
 2 - temperature, C
 3 - salinity, kg/kg
 4 - turbulent kinetic energy, m**2/s**2
 5 - dissipation rate, m**2/s**3
 6 - kinematic heat conductance, m**2/s
 7 - modulus of horizontal velocity, m/s
 8 - Richardson number, n/d
   -0.000000    0.00000  0.0000E+00  0.7382E-12  0.1415E-15  0.1000E-09  0.0000E+00  0.1692E+17
   -0.068762    0.26311  0.0000E+00  0.1625E-11  0.1332E-15  0.1000E-09  0.0000E+00  0.1558E+17
   -0.137525    0.52417  0.0000E+00  0.3348E-11  0.1866E-15  0.1000E-09  0.0000E+00  0.1424E+17
   -0.206288    0.78256  0.0000E+00  0.6229E-11  0.2989E-15  0.1000E-09  0.0000E+00  0.1292E+17
   -0.275052    1.03771  0.0000E+00  0.1093E-10  0.4920E-15  0.1000E-09  0.0000E+00  0.1166E+17
   -0.343816    1.28956  0.0000E+00  0.1858E-10  0.8079E-15  0.1000E-09  0.0000E+00  0.1043E+17
   -0.412581    1.53773  0.0000E+00  0.3104E-10  0.1318E-14  0.1000E-09  0.0000E+00  0.9236E+16
   -0.481346    1.78183  0.0000E+00  0.5132E-10  0.2137E-14  0.1000E-09  0.0000E+00  0.8091E+16
   -0.550112    2.02142  0.0000E+00  0.8436E-10  0.3453E-14  0.1000E-09  0.0000E+00  0.6990E+16
   -0.618878    2.25586  0.0000E+00  0.1381E-09  0.5560E-14  0.1000E-09  0.0000E+00  0.5949E+16
   -0.687645    2.48488  0.0000E+00  0.2252E-09  0.8931E-14  0.1000E-09  0.0000E+00  0.5004E+16
   -0.756412    2.70981  0.0000E+00  0.3662E-09  0.1432E-13  0.1000E-09  0.0000E+00  0.4123E+16
   -0.825179    2.93144  0.0000E+00  0.5943E-09  0.2295E-13  0.1000E-09  0.0000E+00  0.3280E+16
   -0.893947    3.14952  0.0000E+00  0.9635E-09  0.3679E-13  0.1001E-09  0.0000E+00  0.2473E+16
   -0.962714    3.36333  0.0000E+00  0.1562E-08  0.5906E-13  0.1768E-09  0.0000E+00  0.1700E+16
   -1.031482    3.57069  0.0000E+00  0.2533E-08  0.9500E-13  0.4954E-09  0.0000E+00  0.9757E+15
   -1.100250    3.76603  0.0000E+00  0.4106E-08  0.1531E-12  0.2224E-08  0.0000E+00  0.3516E+15
   -1.169019    3.93609  0.0000E+00  0.5871E-08  0.2216E-12  0.5489E-05  0.0000E+00  0.3165E+14
   -1.237787    3.99298  0.0000E+00  0.6124E-08  0.2322E-12  0.4871E-04  0.0000E+00 -0.2966E+11
   -1.306556    3.99344  0.0000E+00  0.6277E-08  0.2397E-12  0.5126E-04  0.0000E+00 -0.3458E+11
   -1.375324    3.99385  0.0000E+00  0.6427E-08  0.2480E-12  0.5406E-04  0.0000E+00 -0.3710E+11
   -1.444092    3.99425  0.0000E+00  0.6571E-08  0.2571E-12  0.5714E-04  0.0000E+00 -0.3895E+11
   -1.512861    3.99462  0.0000E+00  0.6709E-08  0.2668E-12  0.5928E-04  0.0000E+00 -0.4099E+11
   -1.581629    3.99498  0.0000E+00  0.6842E-08  0.2774E-12  0.6086E-04  0.0000E+00 -0.4319E+11
   -1.650398    3.99534  0.0000E+00  0.6971E-08  0.2890E-12  0.6176E-04  0.0000E+00 -0.4576E+11
   -1.719166    3.99570  0.0000E+00  0.7094E-08  0.3017E-12  0.6217E-04  0.0000E+00 -0.4870E+11
   -1.787934    3.99606  0.0000E+00  0.7211E-08  0.3156E-12  0.6210E-04  0.0000E+00 -0.5207E+11
   -1.856701    3.99643  0.0000E+00  0.7321E-08  0.3310E-12  0.6161E-04  0.0000E+00 -0.5597E+11
   -1.925469    3.99681  0.0000E+00  0.7423E-08  0.3482E-12  0.6064E-04  0.0000E+00 -0.6055E+11
   -1.994236    3.99720  0.0000E+00  0.7516E-08  0.3676E-12  0.5921E-04  0.0000E+00 -0.6603E+11
   -2.063003    3.99760  0.0000E+00  0.7598E-08  0.3900E-12  0.5703E-04  0.0000E+00 -0.7267E+11
   -2.131770    3.99803  0.0000E+00  0.7668E-08  0.4164E-12  0.5409E-04  0.0000E+00 -0.8122E+11
   -2.200536    3.99849  0.0000E+00  0.7720E-08  0.4480E-12  0.4974E-04  0.0000E+00 -0.9342E+11
   -2.269302    3.99899  0.0000E+00  0.7749E-08  0.4870E-12  0.4481E-04  0.0000E+00 -0.1098E+12
   -2.338067    3.99955  0.0000E+00  0.7751E-08  0.5382E-12  0.3935E-04  0.0000E+00 -0.1330E+12
   -2.406832    4.00020  0.0000E+00  0.7713E-08  0.6097E-12  0.3311E-04  0.0000E+00 -0.1695E+12
   -2.475596    4.00098  0.0000E+00  0.7611E-08  0.7192E-12  0.2590E-04  0.0000E+00 -0.2351E+12
   -2.544360    4.00199  0.0000E+00  0.7393E-08  0.9175E-12  0.1760E-04  0.0000E+00 -0.3853E+12
   -2.613123    4.00351  0.0000E+00  0.6872E-08  0.1418E-11  0.8481E-05  0.0000E+00 -0.9542E+12
   -2.681886    4.00678  0.0000E+00  0.4667E-08  0.4583E-11  0.9375E-06  0.0000E+00 -0.1601E+14
   -2.750648    4.03598  0.0000E+00  0.0000E+00  0.0000E+00  0.0000E+00  0.0000E+00  0.0000E+00
