 1 - depth, m
 2 - temperature, C
 3 - salinity, kg/kg
 4 - turbulent kinetic energy, m**2/s**2
 5 - dissipation rate, m**2/s**3
 6 - kinematic heat conductance, m**2/s
 7 - modulus of horizontal velocity, m/s
 8 - Richardson number, n/d
   -0.000000    9.32266  0.0000E+00  0.4837E-04  0.8991E-05  0.4903E-04  0.5353E-01 -0.1228E-01
   -0.068736    9.38753  0.0000E+00  0.2947E-04  0.2012E-05  0.8088E-04  0.2423E-01 -0.3111E-01
   -0.137472    9.40914  0.0000E+00  0.2288E-04  0.7670E-06  0.1138E-03  0.1758E-01 -0.5823E-01
   -0.206209    9.42394  0.0000E+00  0.1905E-04  0.3632E-06  0.1532E-03  0.1359E-01 -0.9669E-01
   -0.274947    9.43488  0.0000E+00  0.1677E-04  0.2068E-06  0.1984E-03  0.1091E-01 -0.1385E+00
   -0.343685    9.44321  0.0000E+00  0.1524E-04  0.1347E-06  0.2536E-03  0.8971E-02 -0.1786E+00
   -0.412424    9.44962  0.0000E+00  0.1412E-04  0.9611E-07  0.3639E-03  0.7520E-02  0.1605E+01
   -0.481163    9.45431  0.0000E+00  0.1328E-04  0.7337E-07  0.5937E-03  0.6427E-02  0.8180E+03
   -0.549903    9.45752  0.0000E+00  0.1266E-04  0.5903E-07  0.7893E-03  0.5619E-02  0.2113E+03
   -0.618643    9.45977  0.0000E+00  0.1220E-04  0.4928E-07  0.9534E-03  0.4987E-02  0.9560E+02
   -0.687383    9.46144  0.0000E+00  0.1185E-04  0.4223E-07  0.1071E-02  0.4465E-02  0.2443E+03
   -0.756124    9.46279  0.0000E+00  0.1156E-04  0.3682E-07  0.1147E-02  0.4016E-02  0.1153E+02
   -0.824865    9.46400  0.0000E+00  0.1132E-04  0.3249E-07  0.1207E-02  0.3616E-02  0.3819E+01
   -0.893607    9.46512  0.0000E+00  0.1111E-04  0.2897E-07  0.1264E-02  0.3259E-02  0.3339E+01
   -0.962348    9.46617  0.0000E+00  0.1094E-04  0.2609E-07  0.1321E-02  0.2940E-02  0.2994E+01
   -1.031090    9.46716  0.0000E+00  0.1078E-04  0.2369E-07  0.1368E-02  0.2656E-02  0.2887E+01
   -1.099832    9.46809  0.0000E+00  0.1063E-04  0.2169E-07  0.1414E-02  0.2396E-02  0.2785E+01
   -1.168574    9.46898  0.0000E+00  0.1049E-04  0.2000E-07  0.1461E-02  0.2157E-02  0.2682E+01
   -1.237317    9.46982  0.0000E+00  0.1035E-04  0.1857E-07  0.1507E-02  0.1937E-02  0.2580E+01
   -1.306059    9.47063  0.0000E+00  0.1021E-04  0.1736E-07  0.1552E-02  0.1734E-02  0.2480E+01
   -1.374801    9.47139  0.0000E+00  0.1006E-04  0.1633E-07  0.1595E-02  0.1547E-02  0.2384E+01
   -1.443544    9.47212  0.0000E+00  0.9912E-05  0.1546E-07  0.1638E-02  0.1374E-02  0.2297E+01
   -1.512286    9.47282  0.0000E+00  0.9753E-05  0.1474E-07  0.1698E-02  0.1215E-02  0.2122E+01
   -1.581028    9.47348  0.0000E+00  0.9588E-05  0.1415E-07  0.1769E-02  0.1071E-02  0.1941E+01
   -1.649770    9.47411  0.0000E+00  0.9418E-05  0.1369E-07  0.1851E-02  0.9446E-03  0.1786E+01
   -1.718512    9.47470  0.0000E+00  0.9246E-05  0.1334E-07  0.1923E-02  0.8336E-03  0.1647E+01
   -1.787254    9.47526  0.0000E+00  0.9074E-05  0.1310E-07  0.1924E-02  0.7365E-03  0.1512E+01
   -1.855996    9.47580  0.0000E+00  0.8905E-05  0.1296E-07  0.1881E-02  0.6520E-03  0.1382E+01
   -1.924737    9.47635  0.0000E+00  0.8739E-05  0.1292E-07  0.1816E-02  0.5785E-03  0.1259E+01
   -1.993478    9.47691  0.0000E+00  0.8578E-05  0.1298E-07  0.1741E-02  0.5148E-03  0.1143E+01
   -2.062219    9.47748  0.0000E+00  0.8424E-05  0.1312E-07  0.1660E-02  0.4596E-03  0.1033E+01
   -2.130960    9.47807  0.0000E+00  0.8279E-05  0.1336E-07  0.1575E-02  0.4117E-03  0.9273E+00
   -2.199700    9.47868  0.0000E+00  0.8142E-05  0.1370E-07  0.1497E-02  0.3700E-03  0.8623E+00
   -2.268439    9.47931  0.0000E+00  0.8006E-05  0.1416E-07  0.1417E-02  0.3335E-03  0.9726E+00
   -2.337179    9.47997  0.0000E+00  0.7857E-05  0.1486E-07  0.1313E-02  0.2996E-03  0.1286E+01
   -2.405917    9.48066  0.0000E+00  0.7686E-05  0.1592E-07  0.1186E-02  0.2666E-03  0.1872E+01
   -2.474656    9.48142  0.0000E+00  0.7486E-05  0.1762E-07  0.1034E-02  0.2342E-03  0.3047E+01
   -2.543393    9.48227  0.0000E+00  0.7229E-05  0.2065E-07  0.8355E-03  0.2020E-03  0.2842E+03
   -2.612130    9.48332  0.0000E+00  0.6836E-05  0.2763E-07  0.6490E-03  0.1694E-03  0.3263E+02
   -2.680867    9.48490  0.0000E+00  0.4323E-05  0.1014E-06  0.3254E-04  0.1374E-03 -0.1541E+04
   -2.749603    9.51200  0.0000E+00  0.0000E+00  0.0000E+00  0.0000E+00  0.1394E-03  0.0000E+00
