 1 - depth, m
 2 - temperature, C
 3 - salinity, kg/kg
 4 - turbulent kinetic energy, m**2/s**2
 5 - dissipation rate, m**2/s**3
 6 - kinematic heat conductance, m**2/s
 7 - modulus of horizontal velocity, m/s
 8 - Richardson number, n/d
   -0.000000    0.00000  0.0000E+00  0.1219E-13  0.7603E-17  0.1000E-09  0.0000E+00  0.1656E+17
   -0.068784    0.25719  0.0000E+00  0.1219E-13  0.7603E-17  0.1000E-09  0.0000E+00  0.1448E+17
   -0.137569    0.49871  0.0000E+00  0.1219E-13  0.7603E-17  0.1000E-09  0.0000E+00  0.1232E+17
   -0.206354    0.71907  0.0000E+00  0.1219E-13  0.7603E-17  0.1000E-09  0.0000E+00  0.1016E+17
   -0.275140    0.91336  0.0000E+00  0.1219E-13  0.7603E-17  0.1000E-09  0.0000E+00  0.8274E+16
   -0.343926    1.08173  0.0000E+00  0.1219E-13  0.7603E-17  0.1000E-09  0.0000E+00  0.6595E+16
   -0.412713    1.22363  0.0000E+00  0.1219E-13  0.7603E-17  0.1000E-09  0.0000E+00  0.5143E+16
   -0.481501    1.33982  0.0000E+00  0.1219E-13  0.7603E-17  0.1000E-09  0.0000E+00  0.3914E+16
   -0.550289    1.43194  0.0000E+00  0.1219E-13  0.7603E-17  0.1000E-09  0.0000E+00  0.2837E+16
   -0.619077    1.50095  0.0000E+00  0.1219E-13  0.7603E-17  0.1000E-09  0.0000E+00  0.1993E+16
   -0.687866    1.55065  0.0000E+00  0.1220E-13  0.7603E-17  0.1000E-09  0.0000E+00  0.1602E+16
   -0.756655    1.59139  0.0000E+00  0.4815E-13  0.8269E-17  0.1000E-09  0.0000E+00  0.1558E+16
   -0.825444    1.63172  0.0000E+00  0.1373E-12  0.1749E-16  0.1000E-09  0.0000E+00  0.1707E+16
   -0.894234    1.67674  0.0000E+00  0.3394E-12  0.4028E-16  0.1000E-09  0.0000E+00  0.2030E+16
   -0.963024    1.73150  0.0000E+00  0.8031E-12  0.9244E-16  0.1000E-09  0.0000E+00  0.2498E+16
   -1.031814    1.80084  0.0000E+00  0.1868E-11  0.2101E-15  0.1000E-09  0.0000E+00  0.3112E+16
   -1.100604    1.89052  0.0000E+00  0.4302E-11  0.4733E-15  0.1000E-09  0.0000E+00  0.3743E+16
   -1.169394    2.00395  0.0000E+00  0.9837E-11  0.1059E-14  0.1000E-09  0.0000E+00  0.4293E+16
   -1.238185    2.14289  0.0000E+00  0.2234E-10  0.2353E-14  0.1000E-09  0.0000E+00  0.4659E+16
   -1.306975    2.30700  0.0000E+00  0.5039E-10  0.5192E-14  0.1000E-09  0.0000E+00  0.4753E+16
   -1.375766    2.49344  0.0000E+00  0.1129E-09  0.1138E-13  0.1000E-09  0.0000E+00  0.4642E+16
   -1.444556    2.70210  0.0000E+00  0.2511E-09  0.2476E-13  0.1000E-09  0.0000E+00  0.4212E+16
   -1.513347    2.92730  0.0000E+00  0.5553E-09  0.5357E-13  0.1000E-09  0.0000E+00  0.3509E+16
   -1.582137    3.16160  0.0000E+00  0.1225E-08  0.1157E-12  0.2244E-09  0.0000E+00  0.2628E+16
   -1.650928    3.39611  0.0000E+00  0.2688E-08  0.2483E-12  0.7406E-09  0.0000E+00  0.1703E+16
   -1.719718    3.62227  0.0000E+00  0.5852E-08  0.5290E-12  0.3108E-08  0.0000E+00  0.8637E+15
   -1.788508    3.83519  0.0000E+00  0.1244E-07  0.1103E-11  0.3202E-07  0.0000E+00  0.1750E+15
   -1.857298    4.01058  0.0000E+00  0.1346E-07  0.1198E-11  0.5742E-04  0.0000E+00 -0.1787E+12
   -1.926088    4.01105  0.0000E+00  0.1392E-07  0.1252E-11  0.5815E-04  0.0000E+00 -0.2192E+12
   -1.994877    4.01161  0.0000E+00  0.1432E-07  0.1309E-11  0.6008E-04  0.0000E+00 -0.2332E+12
   -2.063666    4.01219  0.0000E+00  0.1465E-07  0.1373E-11  0.5980E-04  0.0000E+00 -0.2445E+12
   -2.132455    4.01279  0.0000E+00  0.1493E-07  0.1447E-11  0.5827E-04  0.0000E+00 -0.2600E+12
   -2.201243    4.01341  0.0000E+00  0.1515E-07  0.1534E-11  0.5530E-04  0.0000E+00 -0.2840E+12
   -2.270031    4.01407  0.0000E+00  0.1530E-07  0.1643E-11  0.5125E-04  0.0000E+00 -0.3190E+12
   -2.338818    4.01480  0.0000E+00  0.1539E-07  0.1785E-11  0.4632E-04  0.0000E+00 -0.3698E+12
   -2.407605    4.01561  0.0000E+00  0.1538E-07  0.1985E-11  0.4021E-04  0.0000E+00 -0.4502E+12
   -2.476392    4.01658  0.0000E+00  0.1525E-07  0.2291E-11  0.3266E-04  0.0000E+00 -0.5946E+12
   -2.545178    4.01781  0.0000E+00  0.1490E-07  0.2842E-11  0.2345E-04  0.0000E+00 -0.9196E+12
   -2.613963    4.01963  0.0000E+00  0.1403E-07  0.4203E-11  0.1247E-04  0.0000E+00 -0.2082E+13
   -2.682748    4.02341  0.0000E+00  0.1023E-07  0.1283E-10  0.1724E-05  0.0000E+00 -0.2873E+14
   -2.751532    4.05735  0.0000E+00  0.0000E+00  0.0000E+00  0.0000E+00  0.0000E+00  0.0000E+00
