 1 - depth, m
 2 - temperature, C
 3 - salinity, kg/kg
 4 - turbulent kinetic energy, m**2/s**2
 5 - dissipation rate, m**2/s**3
 6 - kinematic heat conductance, m**2/s
 7 - modulus of horizontal velocity, m/s
 8 - Richardson number, n/d
   -0.000000    0.00000  0.0000E+00  0.1630E-12  0.2685E-16  0.1000E-09  0.0000E+00  0.1601E+17
   -0.068741    0.24841  0.0000E+00  0.3349E-12  0.3617E-16  0.1000E-09  0.0000E+00  0.1433E+17
   -0.137483    0.48664  0.0000E+00  0.7435E-12  0.6915E-16  0.1000E-09  0.0000E+00  0.1281E+17
   -0.206226    0.71529  0.0000E+00  0.1607E-11  0.1415E-15  0.1000E-09  0.0000E+00  0.1145E+17
   -0.274969    0.93502  0.0000E+00  0.3396E-11  0.2897E-15  0.1000E-09  0.0000E+00  0.1033E+17
   -0.343713    1.14845  0.0000E+00  0.7067E-11  0.5875E-15  0.1000E-09  0.0000E+00  0.9319E+16
   -0.412457    1.35664  0.0000E+00  0.1455E-10  0.1181E-14  0.1000E-09  0.0000E+00  0.8403E+16
   -0.481201    1.56036  0.0000E+00  0.2970E-10  0.2354E-14  0.1000E-09  0.0000E+00  0.7555E+16
   -0.549947    1.76008  0.0000E+00  0.6021E-10  0.4662E-14  0.1000E-09  0.0000E+00  0.6742E+16
   -0.618692    1.95549  0.0000E+00  0.1212E-09  0.9170E-14  0.1000E-09  0.0000E+00  0.6005E+16
   -0.687438    2.14756  0.0000E+00  0.2421E-09  0.1791E-13  0.1000E-09  0.0000E+00  0.5479E+16
   -0.756184    2.34292  0.0000E+00  0.4803E-09  0.3475E-13  0.1000E-09  0.0000E+00  0.5043E+16
   -0.824931    2.54668  0.0000E+00  0.9461E-09  0.6695E-13  0.1000E-09  0.0000E+00  0.4573E+16
   -0.893678    2.76116  0.0000E+00  0.1851E-08  0.1282E-12  0.1616E-09  0.0000E+00  0.4036E+16
   -0.962425    2.98898  0.0000E+00  0.3597E-08  0.2438E-12  0.3665E-09  0.0000E+00  0.3386E+16
   -1.031172    3.23245  0.0000E+00  0.6935E-08  0.4602E-12  0.9159E-09  0.0000E+00  0.2560E+16
   -1.099920    3.49158  0.0000E+00  0.1326E-07  0.8617E-12  0.2871E-08  0.0000E+00  0.1531E+16
   -1.168667    3.76162  0.0000E+00  0.2492E-07  0.1589E-11  0.2073E-07  0.0000E+00  0.3926E+15
   -1.237415    4.00972  0.0000E+00  0.2547E-07  0.1626E-11  0.1398E-03  0.0000E+00 -0.8978E+11
   -1.306163    4.00996  0.0000E+00  0.2573E-07  0.1648E-11  0.1402E-03  0.0000E+00 -0.1053E+12
   -1.374911    4.01024  0.0000E+00  0.2597E-07  0.1671E-11  0.1469E-03  0.0000E+00 -0.1047E+12
   -1.443658    4.01052  0.0000E+00  0.2617E-07  0.1695E-11  0.1502E-03  0.0000E+00 -0.1049E+12
   -1.512406    4.01080  0.0000E+00  0.2635E-07  0.1721E-11  0.1501E-03  0.0000E+00 -0.1070E+12
   -1.581154    4.01108  0.0000E+00  0.2651E-07  0.1750E-11  0.1495E-03  0.0000E+00 -0.1096E+12
   -1.649901    4.01136  0.0000E+00  0.2665E-07  0.1782E-11  0.1485E-03  0.0000E+00 -0.1126E+12
   -1.718649    4.01164  0.0000E+00  0.2678E-07  0.1819E-11  0.1471E-03  0.0000E+00 -0.1161E+12
   -1.787396    4.01193  0.0000E+00  0.2689E-07  0.1859E-11  0.1453E-03  0.0000E+00 -0.1202E+12
   -1.856143    4.01223  0.0000E+00  0.2697E-07  0.1905E-11  0.1430E-03  0.0000E+00 -0.1250E+12
   -1.924890    4.01254  0.0000E+00  0.2704E-07  0.1957E-11  0.1402E-03  0.0000E+00 -0.1306E+12
   -1.993637    4.01285  0.0000E+00  0.2708E-07  0.2016E-11  0.1369E-03  0.0000E+00 -0.1372E+12
   -2.062383    4.01318  0.0000E+00  0.2709E-07  0.2083E-11  0.1329E-03  0.0000E+00 -0.1437E+12
   -2.131129    4.01352  0.0000E+00  0.2707E-07  0.2161E-11  0.1283E-03  0.0000E+00 -0.1513E+12
   -2.199874    4.01387  0.0000E+00  0.2702E-07  0.2253E-11  0.1231E-03  0.0000E+00 -0.1603E+12
   -2.268620    4.01424  0.0000E+00  0.2691E-07  0.2373E-11  0.1168E-03  0.0000E+00 -0.1719E+12
   -2.337364    4.01463  0.0000E+00  0.2673E-07  0.2553E-11  0.9683E-04  0.0000E+00 -0.2116E+12
   -2.406108    4.01511  0.0000E+00  0.2642E-07  0.2827E-11  0.7531E-04  0.0000E+00 -0.2791E+12
   -2.474852    4.01572  0.0000E+00  0.2595E-07  0.3259E-11  0.5766E-04  0.0000E+00 -0.3768E+12
   -2.543595    4.01653  0.0000E+00  0.2516E-07  0.4045E-11  0.3971E-04  0.0000E+00 -0.5741E+12
   -2.612338    4.01772  0.0000E+00  0.2357E-07  0.5987E-11  0.2023E-04  0.0000E+00 -0.1227E+13
   -2.681080    4.02012  0.0000E+00  0.1551E-07  0.2107E-10  0.1838E-05  0.0000E+00 -0.2016E+14
   -2.749821    4.04729  0.0000E+00  0.0000E+00  0.0000E+00  0.0000E+00  0.0000E+00  0.0000E+00
