 1 - depth, m
 2 - temperature, C
 3 - salinity, kg/kg
 4 - turbulent kinetic energy, m**2/s**2
 5 - dissipation rate, m**2/s**3
 6 - kinematic heat conductance, m**2/s
 7 - modulus of horizontal velocity, m/s
 8 - Richardson number, n/d
   -0.000000    0.00000  0.0000E+00  0.1219E-13  0.7603E-17  0.1000E-09  0.0000E+00  0.1060E+17
   -0.068737    0.16251  0.0000E+00  0.1219E-13  0.7603E-17  0.1000E-09  0.0000E+00  0.9915E+16
   -0.137475    0.32152  0.0000E+00  0.1219E-13  0.7603E-17  0.1000E-09  0.0000E+00  0.9396E+16
   -0.206213    0.47929  0.0000E+00  0.1219E-13  0.7603E-17  0.1000E-09  0.0000E+00  0.8958E+16
   -0.274952    0.63704  0.0000E+00  0.1219E-13  0.7603E-17  0.1000E-09  0.0000E+00  0.8610E+16
   -0.343691    0.79644  0.0000E+00  0.1219E-13  0.7603E-17  0.1000E-09  0.0000E+00  0.8261E+16
   -0.412431    0.95769  0.0000E+00  0.1219E-13  0.7603E-17  0.1000E-09  0.0000E+00  0.7886E+16
   -0.481172    1.12054  0.0000E+00  0.1219E-13  0.7603E-17  0.1000E-09  0.0000E+00  0.7475E+16
   -0.549913    1.28439  0.0000E+00  0.1219E-13  0.7603E-17  0.1000E-09  0.0000E+00  0.7012E+16
   -0.618654    1.44816  0.0000E+00  0.1341E-13  0.7603E-17  0.1000E-09  0.0000E+00  0.6532E+16
   -0.687395    1.61131  0.0000E+00  0.5924E-13  0.8539E-17  0.1000E-09  0.0000E+00  0.6045E+16
   -0.756137    1.77342  0.0000E+00  0.1629E-12  0.1712E-16  0.1000E-09  0.0000E+00  0.5553E+16
   -0.824880    1.93404  0.0000E+00  0.3839E-12  0.3717E-16  0.1000E-09  0.0000E+00  0.5059E+16
   -0.893622    2.09264  0.0000E+00  0.8613E-12  0.8049E-16  0.1000E-09  0.0000E+00  0.4569E+16
   -0.962365    2.24867  0.0000E+00  0.1897E-11  0.1728E-15  0.1000E-09  0.0000E+00  0.4087E+16
   -1.031108    2.40159  0.0000E+00  0.4135E-11  0.3678E-15  0.1000E-09  0.0000E+00  0.3639E+16
   -1.099851    2.55179  0.0000E+00  0.8932E-11  0.7762E-15  0.1000E-09  0.0000E+00  0.3205E+16
   -1.168595    2.69888  0.0000E+00  0.1915E-10  0.1626E-14  0.1000E-09  0.0000E+00  0.2788E+16
   -1.237338    2.84247  0.0000E+00  0.4077E-10  0.3380E-14  0.1000E-09  0.0000E+00  0.2392E+16
   -1.306082    2.98225  0.0000E+00  0.8610E-10  0.6969E-14  0.1000E-09  0.0000E+00  0.2020E+16
   -1.374825    3.11798  0.0000E+00  0.1803E-09  0.1425E-13  0.1000E-09  0.0000E+00  0.1704E+16
   -1.443569    3.25199  0.0000E+00  0.3745E-09  0.2888E-13  0.1163E-09  0.0000E+00  0.1412E+16
   -1.512312    3.38557  0.0000E+00  0.7720E-09  0.5810E-13  0.2614E-09  0.0000E+00  0.1128E+16
   -1.581056    3.51927  0.0000E+00  0.1584E-08  0.1163E-12  0.6885E-09  0.0000E+00  0.8554E+15
   -1.649799    3.65531  0.0000E+00  0.3223E-08  0.2311E-12  0.1999E-08  0.0000E+00  0.5838E+15
   -1.718542    3.79903  0.0000E+00  0.6470E-08  0.4532E-12  0.9298E-08  0.0000E+00  0.2600E+15
   -1.787285    3.95519  0.0000E+00  0.9313E-08  0.6540E-12  0.1885E-04  0.0000E+00  0.1462E+14
   -1.856028    4.00551  0.0000E+00  0.9840E-08  0.6950E-12  0.5497E-04  0.0000E+00 -0.1358E+12
   -1.924771    4.00599  0.0000E+00  0.1012E-07  0.7217E-12  0.5475E-04  0.0000E+00 -0.1445E+12
   -1.993513    4.00647  0.0000E+00  0.1035E-07  0.7499E-12  0.5438E-04  0.0000E+00 -0.1480E+12
   -2.062255    4.00696  0.0000E+00  0.1053E-07  0.7812E-12  0.5349E-04  0.0000E+00 -0.1535E+12
   -2.130997    4.00745  0.0000E+00  0.1068E-07  0.8168E-12  0.5154E-04  0.0000E+00 -0.1624E+12
   -2.199738    4.00795  0.0000E+00  0.1078E-07  0.8585E-12  0.4874E-04  0.0000E+00 -0.1750E+12
   -2.268479    4.00847  0.0000E+00  0.1083E-07  0.9094E-12  0.4525E-04  0.0000E+00 -0.1926E+12
   -2.337219    4.00904  0.0000E+00  0.1083E-07  0.9764E-12  0.4084E-04  0.0000E+00 -0.2188E+12
   -2.405959    4.00966  0.0000E+00  0.1076E-07  0.1071E-11  0.3531E-04  0.0000E+00 -0.2607E+12
   -2.474699    4.01038  0.0000E+00  0.1059E-07  0.1216E-11  0.2845E-04  0.0000E+00 -0.3359E+12
   -2.543438    4.01127  0.0000E+00  0.1025E-07  0.1480E-11  0.2010E-04  0.0000E+00 -0.5029E+12
   -2.612176    4.01255  0.0000E+00  0.9499E-08  0.2141E-11  0.1030E-04  0.0000E+00 -0.1088E+13
   -2.680914    4.01510  0.0000E+00  0.6346E-08  0.6491E-11  0.1128E-05  0.0000E+00 -0.1509E+14
   -2.749651    4.03888  0.0000E+00  0.0000E+00  0.0000E+00  0.0000E+00  0.0000E+00  0.0000E+00
