 1 - depth, m
 2 - temperature, C
 3 - salinity, kg/kg
 4 - turbulent kinetic energy, m**2/s**2
 5 - dissipation rate, m**2/s**3
 6 - kinematic heat conductance, m**2/s
 7 - modulus of horizontal velocity, m/s
 8 - Richardson number, n/d
   -0.000000   18.76029  0.0000E+00  0.7855E-04  0.1901E-04  0.9020E-04  0.7434E-01 -0.5031E+11
   -0.068723   18.85438  0.0000E+00  0.4161E-04  0.4041E-05  0.9898E-04  0.2795E-01 -0.5025E+11
   -0.137447   18.87493  0.0000E+00  0.3070E-04  0.1488E-05  0.1309E-03  0.2040E-01 -0.5013E+11
   -0.206172   18.88907  0.0000E+00  0.2463E-04  0.6697E-06  0.1755E-03  0.1607E-01 -0.5013E+11
   -0.274897   18.89970  0.0000E+00  0.2110E-04  0.3601E-06  0.2272E-03  0.1310E-01 -0.5013E+11
   -0.343623   18.90765  0.0000E+00  0.1886E-04  0.2249E-06  0.3191E-03  0.1088E-01 -0.5013E+11
   -0.412350   18.91333  0.0000E+00  0.1733E-04  0.1578E-06  0.4629E-03  0.9242E-02 -0.5013E+11
   -0.481076   18.91713  0.0000E+00  0.1619E-04  0.1202E-06  0.6356E-03  0.8021E-02 -0.3570E+11
   -0.549804   18.91950  0.0000E+00  0.1526E-04  0.9674E-07  0.7896E-03  0.7090E-02 -0.3028E+11
   -0.618531   18.92118  0.0000E+00  0.1447E-04  0.8044E-07  0.8696E-03  0.6349E-02 -0.3028E+11
   -0.687259   18.92255  0.0000E+00  0.1374E-04  0.6805E-07  0.9302E-03  0.5701E-02 -0.3789E+11
   -0.755988   18.92374  0.0000E+00  0.1304E-04  0.5828E-07  0.9740E-03  0.5132E-02 -0.1143E+12
   -0.824717   18.92479  0.0000E+00  0.1235E-04  0.5034E-07  0.1008E-02  0.4630E-02 -0.1143E+12
   -0.893446   18.92574  0.0000E+00  0.1168E-04  0.4377E-07  0.1035E-02  0.4187E-02 -0.6025E+10
   -0.962175   18.92659  0.0000E+00  0.1101E-04  0.3827E-07  0.1058E-02  0.3798E-02 -0.9059E+07
   -1.030904   18.92737  0.0000E+00  0.1034E-04  0.3362E-07  0.1070E-02  0.3461E-02 -0.1878E+10
   -1.099634   18.92804  0.0000E+00  0.9693E-05  0.2968E-07  0.1078E-02  0.3162E-02 -0.2250E+07
   -1.168364   18.92859  0.0000E+00  0.9073E-05  0.2636E-07  0.1074E-02  0.2898E-02 -0.2540E+06
   -1.237093   18.92904  0.0000E+00  0.8488E-05  0.2357E-07  0.1044E-02  0.2670E-02 -0.3158E+05
   -1.305823   18.92940  0.0000E+00  0.7920E-05  0.2117E-07  0.9390E-03  0.2469E-02  0.5956E+05
   -1.374553   18.92961  0.0000E+00  0.7350E-05  0.1905E-07  0.8377E-03  0.2282E-02  0.2891E+05
   -1.443283   18.92955  0.0000E+00  0.6769E-05  0.1717E-07  0.7064E-03  0.2106E-02  0.1924E+06
   -1.512013   18.92760  0.0000E+00  0.6109E-05  0.1525E-07  0.6122E-03  0.1910E-02  0.6057E+06
   -1.580743   18.91943  0.0000E+00  0.5332E-05  0.1359E-07  0.5179E-03  0.1633E-02  0.2210E+07
   -1.649473   18.89931  0.0000E+00  0.4578E-05  0.1250E-07  0.4215E-03  0.1310E-02  0.7300E+07
   -1.718202   18.86175  0.0000E+00  0.3874E-05  0.1319E-07  0.3172E-03  0.1011E-02  0.2336E+08
   -1.786932   18.81083  0.0000E+00  0.3180E-05  0.1176E-07  0.2209E-03  0.7560E-03  0.1005E+09
   -1.855661   18.74607  0.0000E+00  0.2482E-05  0.1483E-07  0.1329E-03  0.5382E-03  0.7687E+09
   -1.924390   18.67542  0.0000E+00  0.1815E-05  0.1387E-05  0.6234E-04  0.3621E-03  0.1474E+11
   -1.993119   18.63100  0.0000E+00  0.1381E-05  0.1398E-05  0.3903E-04  0.2332E-03 -0.2423E+12
   -2.061847   18.65309  0.0000E+00  0.9940E-06  0.1408E-05  0.6037E-05  0.1636E-03  0.6716E+14
   -2.130575   18.60830  0.0000E+00  0.5211E-06  0.1425E-05  0.5150E-07  0.8350E-04  0.4376E+16
   -2.199303   18.38538  0.0000E+00  0.1616E-06  0.1449E-05  0.4567E-08  0.1122E-04  0.3370E+17
   -2.268030   17.84817  0.0000E+00  0.1167E-06  0.1482E-05  0.1372E-08  0.5931E-06  0.3450E+17
   -2.336757   17.29024  0.0000E+00  0.1126E-06  0.1526E-05  0.1094E-08  0.3291E-07  0.4448E+17
   -2.405483   16.68973  0.0000E+00  0.1115E-06  0.1583E-05  0.1035E-08  0.8810E-08  0.9938E+17
   -2.474209   15.86465  0.0000E+00  0.1116E-06  0.1659E-05  0.1153E-08  0.6429E-08  0.1570E+18
   -2.542934   14.71154  0.0000E+00  0.1787E-06  0.1765E-05  0.5287E-07  0.4620E-08  0.8100E+17
   -2.611659   14.14879  0.0000E+00  0.9483E-06  0.1931E-05  0.2625E-04  0.3398E-08  0.4028E+16
   -2.680383   14.12415  0.0000E+00  0.2028E-05  0.2259E-05  0.2254E-04  0.2488E-08 -0.1511E+17
   -2.749107   14.23835  0.0000E+00  0.0000E+00  0.0000E+00  0.0000E+00  0.2116E-07  0.0000E+00
