 1 - depth, m
 2 - temperature, C
 3 - salinity, kg/kg
 4 - turbulent kinetic energy, m**2/s**2
 5 - dissipation rate, m**2/s**3
 6 - kinematic heat conductance, m**2/s
 7 - modulus of horizontal velocity, m/s
 8 - Richardson number, n/d
   -0.000000    0.00000  0.0000E+00  0.1219E-13  0.7603E-17  0.1000E-09  0.0000E+00  0.9851E+16
   -0.068754    0.15082  0.0000E+00  0.1219E-13  0.7603E-17  0.1000E-09  0.0000E+00  0.9537E+16
   -0.137508    0.30311  0.0000E+00  0.1219E-13  0.7603E-17  0.1000E-09  0.0000E+00  0.9217E+16
   -0.206263    0.45695  0.0000E+00  0.1219E-13  0.7603E-17  0.1000E-09  0.0000E+00  0.8880E+16
   -0.275019    0.61219  0.0000E+00  0.1219E-13  0.7603E-17  0.1000E-09  0.0000E+00  0.8553E+16
   -0.343775    0.76922  0.0000E+00  0.1219E-13  0.7603E-17  0.1000E-09  0.0000E+00  0.8197E+16
   -0.412531    0.92770  0.0000E+00  0.1219E-13  0.7603E-17  0.1000E-09  0.0000E+00  0.7807E+16
   -0.481288    1.08711  0.0000E+00  0.1219E-13  0.7603E-17  0.1000E-09  0.0000E+00  0.7380E+16
   -0.550046    1.24676  0.0000E+00  0.1219E-13  0.7603E-17  0.1000E-09  0.0000E+00  0.6913E+16
   -0.618804    1.40568  0.0000E+00  0.1219E-13  0.7603E-17  0.1000E-09  0.0000E+00  0.6430E+16
   -0.687562    1.56327  0.0000E+00  0.1219E-13  0.7603E-17  0.1000E-09  0.0000E+00  0.5953E+16
   -0.756321    1.71931  0.0000E+00  0.1219E-13  0.7603E-17  0.1000E-09  0.0000E+00  0.5479E+16
   -0.825080    1.87350  0.0000E+00  0.1943E-13  0.7603E-17  0.1000E-09  0.0000E+00  0.5007E+16
   -0.893839    2.02539  0.0000E+00  0.7554E-13  0.8799E-17  0.1000E-09  0.0000E+00  0.4543E+16
   -0.962599    2.17454  0.0000E+00  0.1896E-12  0.1618E-16  0.1000E-09  0.0000E+00  0.4089E+16
   -1.031359    2.32056  0.0000E+00  0.4099E-12  0.3198E-16  0.1000E-09  0.0000E+00  0.3663E+16
   -1.100119    2.46356  0.0000E+00  0.8394E-12  0.6298E-16  0.1000E-09  0.0000E+00  0.3254E+16
   -1.168879    2.60326  0.0000E+00  0.1681E-11  0.1228E-15  0.1000E-09  0.0000E+00  0.2863E+16
   -1.237639    2.73935  0.0000E+00  0.3326E-11  0.2374E-15  0.1000E-09  0.0000E+00  0.2492E+16
   -1.306399    2.87153  0.0000E+00  0.6528E-11  0.4557E-15  0.1000E-09  0.0000E+00  0.2142E+16
   -1.375159    2.99950  0.0000E+00  0.1272E-10  0.8686E-15  0.1000E-09  0.0000E+00  0.1836E+16
   -1.443919    3.12442  0.0000E+00  0.2461E-10  0.1645E-14  0.1000E-09  0.0000E+00  0.1553E+16
   -1.512680    3.24663  0.0000E+00  0.4737E-10  0.3099E-14  0.1000E-09  0.0000E+00  0.1281E+16
   -1.581440    3.36559  0.0000E+00  0.9105E-10  0.5831E-14  0.1000E-09  0.0000E+00  0.1027E+16
   -1.650200    3.48096  0.0000E+00  0.1742E-09  0.1093E-13  0.1000E-09  0.0000E+00  0.7919E+15
   -1.718960    3.59262  0.0000E+00  0.3317E-09  0.2037E-13  0.1797E-09  0.0000E+00  0.5772E+15
   -1.787719    3.70048  0.0000E+00  0.6282E-09  0.3780E-13  0.5036E-09  0.0000E+00  0.3823E+15
   -1.856479    3.80444  0.0000E+00  0.1183E-08  0.6977E-13  0.1720E-08  0.0000E+00  0.2066E+15
   -1.925238    3.90408  0.0000E+00  0.2204E-08  0.1275E-12  0.1235E-07  0.0000E+00  0.5257E+14
   -1.993997    3.99380  0.0000E+00  0.2609E-08  0.1518E-12  0.1687E-04  0.0000E+00 -0.8873E+11
   -2.062756    3.99453  0.0000E+00  0.2797E-08  0.1659E-12  0.1758E-04  0.0000E+00 -0.9940E+11
   -2.131514    3.99527  0.0000E+00  0.2956E-08  0.1812E-12  0.1793E-04  0.0000E+00 -0.1065E+12
   -2.200272    3.99600  0.0000E+00  0.3087E-08  0.1982E-12  0.1772E-04  0.0000E+00 -0.1166E+12
   -2.269030    3.99674  0.0000E+00  0.3192E-08  0.2183E-12  0.1700E-04  0.0000E+00 -0.1317E+12
   -2.337787    3.99751  0.0000E+00  0.3270E-08  0.2440E-12  0.1567E-04  0.0000E+00 -0.1553E+12
   -2.406544    3.99837  0.0000E+00  0.3316E-08  0.2794E-12  0.1367E-04  0.0000E+00 -0.1951E+12
   -2.475300    3.99936  0.0000E+00  0.3318E-08  0.3333E-12  0.1099E-04  0.0000E+00 -0.2709E+12
   -2.544055    4.00062  0.0000E+00  0.3247E-08  0.4324E-12  0.7574E-05  0.0000E+00 -0.4577E+12
   -2.612810    4.00254  0.0000E+00  0.3005E-08  0.6868E-12  0.3624E-05  0.0000E+00 -0.1242E+13
   -2.681565    4.00685  0.0000E+00  0.2185E-08  0.2003E-11  0.5549E-06  0.0000E+00 -0.1716E+14
   -2.750318    4.03743  0.0000E+00  0.0000E+00  0.0000E+00  0.0000E+00  0.0000E+00  0.0000E+00
