 1 - depth, m
 2 - temperature, C
 3 - salinity, kg/kg
 4 - turbulent kinetic energy, m**2/s**2
 5 - dissipation rate, m**2/s**3
 6 - kinematic heat conductance, m**2/s
 7 - modulus of horizontal velocity, m/s
 8 - Richardson number, n/d
   -0.000000    0.00000  0.0000E+00  0.6317E-12  0.1237E-15  0.1000E-09  0.0000E+00  0.1757E+17
   -0.068731    0.27365  0.0000E+00  0.1420E-11  0.1371E-15  0.1000E-09  0.0000E+00  0.1608E+17
   -0.137463    0.54424  0.0000E+00  0.3102E-11  0.2296E-15  0.1000E-09  0.0000E+00  0.1461E+17
   -0.206195    0.81139  0.0000E+00  0.6291E-11  0.4256E-15  0.1000E-09  0.0000E+00  0.1319E+17
   -0.274928    1.07471  0.0000E+00  0.1226E-10  0.7969E-15  0.1000E-09  0.0000E+00  0.1183E+17
   -0.343661    1.33423  0.0000E+00  0.2341E-10  0.1482E-14  0.1000E-09  0.0000E+00  0.1052E+17
   -0.412395    1.58959  0.0000E+00  0.4418E-10  0.2736E-14  0.1000E-09  0.0000E+00  0.9252E+16
   -0.481129    1.84029  0.0000E+00  0.8273E-10  0.5017E-14  0.1000E-09  0.0000E+00  0.8035E+16
   -0.549864    2.08569  0.0000E+00  0.1541E-09  0.9158E-14  0.1000E-09  0.0000E+00  0.6867E+16
   -0.618599    2.32490  0.0000E+00  0.2857E-09  0.1663E-13  0.1000E-09  0.0000E+00  0.5767E+16
   -0.687335    2.55733  0.0000E+00  0.5266E-09  0.3005E-13  0.1000E-09  0.0000E+00  0.4775E+16
   -0.756071    2.78424  0.0000E+00  0.9654E-09  0.5402E-13  0.1000E-09  0.0000E+00  0.3863E+16
   -0.824807    3.00638  0.0000E+00  0.1760E-08  0.9657E-13  0.1636E-09  0.0000E+00  0.3006E+16
   -0.893544    3.22353  0.0000E+00  0.3192E-08  0.1717E-12  0.3967E-09  0.0000E+00  0.2204E+16
   -0.962281    3.43553  0.0000E+00  0.5756E-08  0.3038E-12  0.1061E-08  0.0000E+00  0.1458E+16
   -1.031017    3.64200  0.0000E+00  0.1030E-07  0.5334E-12  0.3544E-08  0.0000E+00  0.7662E+15
   -1.099755    3.84099  0.0000E+00  0.1807E-07  0.9201E-12  0.2889E-07  0.0000E+00  0.1622E+15
   -1.168492    4.00735  0.0000E+00  0.1844E-07  0.9399E-12  0.1294E-03  0.0000E+00 -0.5722E+11
   -1.237229    4.00753  0.0000E+00  0.1861E-07  0.9507E-12  0.1292E-03  0.0000E+00 -0.6968E+11
   -1.305967    4.00773  0.0000E+00  0.1876E-07  0.9622E-12  0.1329E-03  0.0000E+00 -0.6966E+11
   -1.374704    4.00794  0.0000E+00  0.1889E-07  0.9745E-12  0.1362E-03  0.0000E+00 -0.6902E+11
   -1.443442    4.00814  0.0000E+00  0.1901E-07  0.9875E-12  0.1379E-03  0.0000E+00 -0.6901E+11
   -1.512179    4.00834  0.0000E+00  0.1911E-07  0.1001E-11  0.1373E-03  0.0000E+00 -0.7000E+11
   -1.580917    4.00855  0.0000E+00  0.1919E-07  0.1017E-11  0.1365E-03  0.0000E+00 -0.7119E+11
   -1.649654    4.00875  0.0000E+00  0.1927E-07  0.1034E-11  0.1354E-03  0.0000E+00 -0.7259E+11
   -1.718391    4.00896  0.0000E+00  0.1932E-07  0.1053E-11  0.1339E-03  0.0000E+00 -0.7424E+11
   -1.787128    4.00916  0.0000E+00  0.1937E-07  0.1075E-11  0.1320E-03  0.0000E+00 -0.7618E+11
   -1.855865    4.00938  0.0000E+00  0.1940E-07  0.1099E-11  0.1297E-03  0.0000E+00 -0.7848E+11
   -1.924601    4.00959  0.0000E+00  0.1942E-07  0.1126E-11  0.1269E-03  0.0000E+00 -0.8119E+11
   -1.993338    4.00981  0.0000E+00  0.1941E-07  0.1157E-11  0.1237E-03  0.0000E+00 -0.8441E+11
   -2.062074    4.01004  0.0000E+00  0.1939E-07  0.1193E-11  0.1200E-03  0.0000E+00 -0.8795E+11
   -2.130809    4.01028  0.0000E+00  0.1935E-07  0.1237E-11  0.1157E-03  0.0000E+00 -0.9223E+11
   -2.199544    4.01052  0.0000E+00  0.1928E-07  0.1296E-11  0.1068E-03  0.0000E+00 -0.1010E+12
   -2.268279    4.01079  0.0000E+00  0.1915E-07  0.1377E-11  0.8874E-04  0.0000E+00 -0.1233E+12
   -2.337014    4.01111  0.0000E+00  0.1898E-07  0.1489E-11  0.7339E-04  0.0000E+00 -0.1518E+12
   -2.405748    4.01149  0.0000E+00  0.1872E-07  0.1653E-11  0.6028E-04  0.0000E+00 -0.1890E+12
   -2.474481    4.01197  0.0000E+00  0.1834E-07  0.1908E-11  0.4686E-04  0.0000E+00 -0.2503E+12
   -2.543214    4.01258  0.0000E+00  0.1773E-07  0.2375E-11  0.3207E-04  0.0000E+00 -0.3823E+12
   -2.611946    4.01350  0.0000E+00  0.1654E-07  0.3543E-11  0.1609E-04  0.0000E+00 -0.8254E+12
   -2.680678    4.01537  0.0000E+00  0.1091E-07  0.1225E-10  0.1518E-05  0.0000E+00 -0.1254E+14
   -2.749409    4.03576  0.0000E+00  0.0000E+00  0.0000E+00  0.0000E+00  0.0000E+00  0.0000E+00
