 1 - depth, m
 2 - temperature, C
 3 - salinity, kg/kg
 4 - turbulent kinetic energy, m**2/s**2
 5 - dissipation rate, m**2/s**3
 6 - kinematic heat conductance, m**2/s
 7 - modulus of horizontal velocity, m/s
 8 - Richardson number, n/d
   -0.000000    0.00000  0.0000E+00  0.1452E-11  0.3287E-15  0.1000E-09  0.0000E+00  0.1786E+17
   -0.068741    0.27828  0.0000E+00  0.3547E-11  0.3160E-15  0.1000E-09  0.0000E+00  0.1632E+17
   -0.137483    0.55358  0.0000E+00  0.7710E-11  0.4702E-15  0.1000E-09  0.0000E+00  0.1482E+17
   -0.206225    0.82552  0.0000E+00  0.1498E-10  0.7983E-15  0.1000E-09  0.0000E+00  0.1336E+17
   -0.274967    1.09371  0.0000E+00  0.2750E-10  0.1385E-14  0.1000E-09  0.0000E+00  0.1196E+17
   -0.343711    1.35829  0.0000E+00  0.4903E-10  0.2390E-14  0.1000E-09  0.0000E+00  0.1062E+17
   -0.412455    1.61903  0.0000E+00  0.8609E-10  0.4096E-14  0.1000E-09  0.0000E+00  0.9330E+16
   -0.481199    1.87563  0.0000E+00  0.1497E-09  0.6970E-14  0.1000E-09  0.0000E+00  0.8091E+16
   -0.549944    2.12773  0.0000E+00  0.2588E-09  0.1180E-13  0.1000E-09  0.0000E+00  0.6902E+16
   -0.618689    2.37471  0.0000E+00  0.4448E-09  0.1987E-13  0.1000E-09  0.0000E+00  0.5778E+16
   -0.687435    2.61628  0.0000E+00  0.7603E-09  0.3329E-13  0.1000E-09  0.0000E+00  0.4758E+16
   -0.756180    2.85424  0.0000E+00  0.1292E-08  0.5546E-13  0.1000E-09  0.0000E+00  0.3802E+16
   -0.824927    3.08968  0.0000E+00  0.2184E-08  0.9188E-13  0.1624E-09  0.0000E+00  0.2880E+16
   -0.893673    3.32238  0.0000E+00  0.3671E-08  0.1514E-12  0.3869E-09  0.0000E+00  0.1992E+16
   -0.962420    3.55195  0.0000E+00  0.6135E-08  0.2481E-12  0.1106E-08  0.0000E+00  0.1142E+16
   -1.031167    3.77753  0.0000E+00  0.1016E-07  0.4029E-12  0.6013E-08  0.0000E+00  0.3418E+15
   -1.099914    3.99271  0.0000E+00  0.1046E-07  0.4154E-12  0.8329E-04  0.0000E+00 -0.3335E+11
   -1.168661    3.99304  0.0000E+00  0.1060E-07  0.4224E-12  0.8652E-04  0.0000E+00 -0.3792E+11
   -1.237409    3.99339  0.0000E+00  0.1073E-07  0.4299E-12  0.8905E-04  0.0000E+00 -0.3921E+11
   -1.306156    3.99374  0.0000E+00  0.1085E-07  0.4379E-12  0.9140E-04  0.0000E+00 -0.4008E+11
   -1.374903    3.99408  0.0000E+00  0.1097E-07  0.4465E-12  0.9371E-04  0.0000E+00 -0.4082E+11
   -1.443651    3.99441  0.0000E+00  0.1107E-07  0.4557E-12  0.9591E-04  0.0000E+00 -0.4151E+11
   -1.512398    3.99473  0.0000E+00  0.1116E-07  0.4656E-12  0.9753E-04  0.0000E+00 -0.4239E+11
   -1.581146    3.99505  0.0000E+00  0.1125E-07  0.4763E-12  0.9845E-04  0.0000E+00 -0.4353E+11
   -1.649893    3.99536  0.0000E+00  0.1132E-07  0.4879E-12  0.9860E-04  0.0000E+00 -0.4499E+11
   -1.718640    3.99568  0.0000E+00  0.1139E-07  0.5008E-12  0.9802E-04  0.0000E+00 -0.4680E+11
   -1.787387    3.99599  0.0000E+00  0.1145E-07  0.5152E-12  0.9665E-04  0.0000E+00 -0.4907E+11
   -1.856134    3.99631  0.0000E+00  0.1151E-07  0.5316E-12  0.9460E-04  0.0000E+00 -0.5182E+11
   -1.924880    3.99664  0.0000E+00  0.1155E-07  0.5505E-12  0.9186E-04  0.0000E+00 -0.5518E+11
   -1.993626    3.99697  0.0000E+00  0.1158E-07  0.5729E-12  0.8827E-04  0.0000E+00 -0.5943E+11
   -2.062372    3.99732  0.0000E+00  0.1160E-07  0.5999E-12  0.8194E-04  0.0000E+00 -0.6608E+11
   -2.131118    3.99770  0.0000E+00  0.1160E-07  0.6327E-12  0.7393E-04  0.0000E+00 -0.7568E+11
   -2.199863    3.99812  0.0000E+00  0.1159E-07  0.6728E-12  0.6612E-04  0.0000E+00 -0.8771E+11
   -2.268608    3.99858  0.0000E+00  0.1154E-07  0.7233E-12  0.5896E-04  0.0000E+00 -0.1024E+12
   -2.337352    3.99911  0.0000E+00  0.1146E-07  0.7910E-12  0.5152E-04  0.0000E+00 -0.1227E+12
   -2.406096    3.99970  0.0000E+00  0.1132E-07  0.8871E-12  0.4316E-04  0.0000E+00 -0.1543E+12
   -2.474839    4.00042  0.0000E+00  0.1111E-07  0.1036E-11  0.3368E-04  0.0000E+00 -0.2105E+12
   -2.543582    4.00134  0.0000E+00  0.1075E-07  0.1309E-11  0.2295E-04  0.0000E+00 -0.3367E+12
   -2.612324    4.00271  0.0000E+00  0.9985E-08  0.1998E-11  0.1127E-04  0.0000E+00 -0.7933E+12
   -2.681066    4.00555  0.0000E+00  0.6666E-08  0.6727E-11  0.1165E-05  0.0000E+00 -0.1387E+14
   -2.749807    4.03259  0.0000E+00  0.0000E+00  0.0000E+00  0.0000E+00  0.0000E+00  0.0000E+00
