 1 - depth, m
 2 - temperature, C
 3 - salinity, kg/kg
 4 - turbulent kinetic energy, m**2/s**2
 5 - dissipation rate, m**2/s**3
 6 - kinematic heat conductance, m**2/s
 7 - modulus of horizontal velocity, m/s
 8 - Richardson number, n/d
   -0.000000    7.30453  0.0000E+00  0.3341E-03  0.1624E-03  0.1216E-03  0.1939E+00  0.1578E-01
   -0.068781    7.35043  0.0000E+00  0.1845E-03  0.4287E-04  0.2929E-03  0.5782E-01 -0.1349E-01
   -0.137562    7.35639  0.0000E+00  0.1341E-03  0.1940E-04  0.2728E-03  0.4469E-01 -0.4940E-01
   -0.206344    7.36135  0.0000E+00  0.1019E-03  0.9766E-05  0.2691E-03  0.3775E-01 -0.8319E-02
   -0.275127    7.36501  0.0000E+00  0.8098E-04  0.5219E-05  0.2735E-03  0.3296E-01 -0.9030E-02
   -0.343910    7.36806  0.0000E+00  0.6656E-04  0.2928E-05  0.2861E-03  0.2877E-01 -0.9401E-02
   -0.412694    7.37071  0.0000E+00  0.5629E-04  0.1738E-05  0.3025E-03  0.2518E-01 -0.1097E-01
   -0.481478    7.37304  0.0000E+00  0.4862E-04  0.1098E-05  0.3203E-03  0.2208E-01 -0.1284E-01
   -0.550263    7.37515  0.0000E+00  0.4261E-04  0.7361E-06  0.3406E-03  0.1940E-01 -0.1617E-01
   -0.619048    7.37707  0.0000E+00  0.3782E-04  0.5198E-06  0.3600E-03  0.1713E-01 -0.2026E-01
   -0.687834    7.37883  0.0000E+00  0.3391E-04  0.3825E-06  0.3788E-03  0.1518E-01 -0.2535E-01
   -0.756619    7.38047  0.0000E+00  0.3064E-04  0.2905E-06  0.3973E-03  0.1350E-01 -0.3174E-01
   -0.825406    7.38201  0.0000E+00  0.2786E-04  0.2262E-06  0.4160E-03  0.1204E-01 -0.3976E-01
   -0.894192    7.38345  0.0000E+00  0.2547E-04  0.1797E-06  0.4352E-03  0.1076E-01 -0.4988E-01
   -0.962979    7.38481  0.0000E+00  0.2341E-04  0.1454E-06  0.4553E-03  0.9648E-02 -0.6271E-01
   -1.031765    7.38610  0.0000E+00  0.2164E-04  0.1195E-06  0.4725E-03  0.8673E-02 -0.7066E-01
   -1.100552    7.38732  0.0000E+00  0.2009E-04  0.9959E-07  0.4912E-03  0.7794E-02  0.2099E+00
   -1.169340    7.38849  0.0000E+00  0.1872E-04  0.8400E-07  0.5106E-03  0.7000E-02 -0.5235E-01
   -1.238127    7.38960  0.0000E+00  0.1750E-04  0.7158E-07  0.5334E-03  0.6281E-02  0.2127E+01
   -1.306914    7.39066  0.0000E+00  0.1640E-04  0.6156E-07  0.5626E-03  0.5629E-02  0.4023E+03
   -1.375702    7.39166  0.0000E+00  0.1541E-04  0.5337E-07  0.6015E-03  0.5035E-02  0.1884E+02
   -1.444489    7.39261  0.0000E+00  0.1450E-04  0.4659E-07  0.6482E-03  0.4491E-02  0.1043E+03
   -1.513276    7.39349  0.0000E+00  0.1366E-04  0.4091E-07  0.6988E-03  0.3990E-02  0.9865E+02
   -1.582063    7.39432  0.0000E+00  0.1288E-04  0.3612E-07  0.7534E-03  0.3541E-02  0.8483E+02
   -1.650851    7.39509  0.0000E+00  0.1216E-04  0.3207E-07  0.8108E-03  0.3142E-02  0.6518E+01
   -1.719638    7.39581  0.0000E+00  0.1151E-04  0.2865E-07  0.8657E-03  0.2786E-02  0.2290E+02
   -1.788425    7.39649  0.0000E+00  0.1090E-04  0.2576E-07  0.9193E-03  0.2467E-02  0.9525E+01
   -1.857211    7.39712  0.0000E+00  0.1035E-04  0.2332E-07  0.9833E-03  0.2181E-02  0.3956E+02
   -1.925998    7.39772  0.0000E+00  0.9842E-05  0.2127E-07  0.1053E-02  0.1923E-02  0.1734E+02
   -1.994784    7.39826  0.0000E+00  0.9377E-05  0.1957E-07  0.1114E-02  0.1691E-02  0.5170E+02
   -2.063569    7.39877  0.0000E+00  0.8950E-05  0.1818E-07  0.1153E-02  0.1481E-02  0.4237E+02
   -2.132355    7.39926  0.0000E+00  0.8558E-05  0.1708E-07  0.1167E-02  0.1289E-02  0.1737E+03
   -2.201140    7.39972  0.0000E+00  0.8200E-05  0.1625E-07  0.1159E-02  0.1113E-02  0.5745E+02
   -2.269925    7.40018  0.0000E+00  0.7874E-05  0.1570E-07  0.1125E-02  0.9524E-03  0.1457E+03
   -2.338709    7.40065  0.0000E+00  0.7570E-05  0.1543E-07  0.1057E-02  0.8109E-03  0.6096E+03
   -2.407493    7.40115  0.0000E+00  0.7285E-05  0.1549E-07  0.9653E-03  0.6884E-03  0.6667E+02
   -2.476276    7.40169  0.0000E+00  0.7001E-05  0.1599E-07  0.8405E-03  0.5819E-03  0.6140E+03
   -2.545059    7.40232  0.0000E+00  0.6668E-05  0.1743E-07  0.6453E-03  0.4833E-03  0.4058E+03
   -2.613841    7.40316  0.0000E+00  0.6160E-05  0.2188E-07  0.3160E-03  0.3831E-03  0.4258E+03
   -2.682622    7.40481  0.0000E+00  0.3528E-05  0.7050E-07  0.2322E-04  0.2722E-03 -0.2303E+05
   -2.751403    7.42813  0.0000E+00  0.0000E+00  0.0000E+00  0.0000E+00  0.2720E-03  0.0000E+00
