 1 - depth, m
 2 - temperature, C
 3 - salinity, kg/kg
 4 - turbulent kinetic energy, m**2/s**2
 5 - dissipation rate, m**2/s**3
 6 - kinematic heat conductance, m**2/s
 7 - modulus of horizontal velocity, m/s
 8 - Richardson number, n/d
   -0.000000    0.00000  0.0000E+00  0.1219E-13  0.7603E-17  0.1000E-09  0.0000E+00  0.1491E+17
   -0.068765    0.23079  0.0000E+00  0.3350E-13  0.7603E-17  0.1000E-09  0.0000E+00  0.1370E+17
   -0.137530    0.45709  0.0000E+00  0.1040E-12  0.1023E-16  0.1000E-09  0.0000E+00  0.1253E+17
   -0.206296    0.67849  0.0000E+00  0.2416E-12  0.1895E-16  0.1000E-09  0.0000E+00  0.1142E+17
   -0.275063    0.89470  0.0000E+00  0.5030E-12  0.3670E-16  0.1000E-09  0.0000E+00  0.1039E+17
   -0.343830    1.10628  0.0000E+00  0.1003E-11  0.7065E-16  0.1000E-09  0.0000E+00  0.9418E+16
   -0.412597    1.31330  0.0000E+00  0.1961E-11  0.1347E-15  0.1000E-09  0.0000E+00  0.8503E+16
   -0.481365    1.51578  0.0000E+00  0.3793E-11  0.2549E-15  0.1000E-09  0.0000E+00  0.7637E+16
   -0.550134    1.71363  0.0000E+00  0.7293E-11  0.4797E-15  0.1000E-09  0.0000E+00  0.6806E+16
   -0.618903    1.90641  0.0000E+00  0.1394E-10  0.8975E-15  0.1000E-09  0.0000E+00  0.6028E+16
   -0.687672    2.09407  0.0000E+00  0.2647E-10  0.1669E-14  0.1000E-09  0.0000E+00  0.5361E+16
   -0.756442    2.27882  0.0000E+00  0.4998E-10  0.3087E-14  0.1000E-09  0.0000E+00  0.4759E+16
   -0.825212    2.46201  0.0000E+00  0.9382E-10  0.5677E-14  0.1000E-09  0.0000E+00  0.4174E+16
   -0.893982    2.64368  0.0000E+00  0.1751E-09  0.1038E-13  0.1000E-09  0.0000E+00  0.3606E+16
   -0.962753    2.82381  0.0000E+00  0.3249E-09  0.1888E-13  0.1000E-09  0.0000E+00  0.3053E+16
   -1.031524    3.00235  0.0000E+00  0.5987E-09  0.3410E-13  0.1000E-09  0.0000E+00  0.2516E+16
   -1.100295    3.17917  0.0000E+00  0.1096E-08  0.6120E-13  0.1562E-09  0.0000E+00  0.1995E+16
   -1.169066    3.35407  0.0000E+00  0.1994E-08  0.1092E-12  0.3732E-09  0.0000E+00  0.1489E+16
   -1.237837    3.52671  0.0000E+00  0.3607E-08  0.1937E-12  0.9837E-09  0.0000E+00  0.1002E+16
   -1.306608    3.69646  0.0000E+00  0.6482E-08  0.3416E-12  0.3235E-08  0.0000E+00  0.5375E+15
   -1.375379    3.86130  0.0000E+00  0.1146E-07  0.5931E-12  0.2507E-07  0.0000E+00  0.1204E+15
   -1.444150    4.00291  0.0000E+00  0.1184E-07  0.6140E-12  0.8636E-04  0.0000E+00 -0.5863E+11
   -1.512922    4.00313  0.0000E+00  0.1202E-07  0.6255E-12  0.8426E-04  0.0000E+00 -0.7133E+11
   -1.581693    4.00340  0.0000E+00  0.1218E-07  0.6382E-12  0.8571E-04  0.0000E+00 -0.7332E+11
   -1.650464    4.00367  0.0000E+00  0.1232E-07  0.6521E-12  0.8676E-04  0.0000E+00 -0.7457E+11
   -1.719235    4.00395  0.0000E+00  0.1245E-07  0.6675E-12  0.8748E-04  0.0000E+00 -0.7582E+11
   -1.788005    4.00422  0.0000E+00  0.1256E-07  0.6841E-12  0.8832E-04  0.0000E+00 -0.7686E+11
   -1.856776    4.00449  0.0000E+00  0.1266E-07  0.7024E-12  0.8796E-04  0.0000E+00 -0.7896E+11
   -1.925546    4.00477  0.0000E+00  0.1273E-07  0.7230E-12  0.8677E-04  0.0000E+00 -0.8199E+11
   -1.994316    4.00505  0.0000E+00  0.1279E-07  0.7472E-12  0.8427E-04  0.0000E+00 -0.8654E+11
   -2.063086    4.00534  0.0000E+00  0.1283E-07  0.7765E-12  0.8044E-04  0.0000E+00 -0.9245E+11
   -2.131855    4.00565  0.0000E+00  0.1285E-07  0.8125E-12  0.7369E-04  0.0000E+00 -0.1028E+12
   -2.200624    4.00598  0.0000E+00  0.1284E-07  0.8571E-12  0.6602E-04  0.0000E+00 -0.1171E+12
   -2.269393    4.00636  0.0000E+00  0.1280E-07  0.9135E-12  0.5892E-04  0.0000E+00 -0.1346E+12
   -2.338161    4.00678  0.0000E+00  0.1271E-07  0.9898E-12  0.5170E-04  0.0000E+00 -0.1581E+12
   -2.406929    4.00727  0.0000E+00  0.1256E-07  0.1099E-11  0.4360E-04  0.0000E+00 -0.1945E+12
   -2.475696    4.00785  0.0000E+00  0.1232E-07  0.1268E-11  0.3433E-04  0.0000E+00 -0.2592E+12
   -2.544462    4.00861  0.0000E+00  0.1191E-07  0.1578E-11  0.2371E-04  0.0000E+00 -0.4034E+12
   -2.613228    4.00974  0.0000E+00  0.1107E-07  0.2359E-11  0.1191E-04  0.0000E+00 -0.9157E+12
   -2.681994    4.01211  0.0000E+00  0.7440E-08  0.7701E-11  0.1268E-05  0.0000E+00 -0.1459E+14
   -2.750758    4.03660  0.0000E+00  0.0000E+00  0.0000E+00  0.0000E+00  0.0000E+00  0.0000E+00
