 1 - depth, m
 2 - temperature, C
 3 - salinity, kg/kg
 4 - turbulent kinetic energy, m**2/s**2
 5 - dissipation rate, m**2/s**3
 6 - kinematic heat conductance, m**2/s
 7 - modulus of horizontal velocity, m/s
 8 - Richardson number, n/d
   -0.000000    0.00000  0.0000E+00  0.1042E-12  0.1401E-16  0.1000E-09  0.0000E+00  0.1524E+17
   -0.068752    0.23611  0.0000E+00  0.1937E-12  0.1648E-16  0.1000E-09  0.0000E+00  0.1406E+17
   -0.137505    0.46885  0.0000E+00  0.3909E-12  0.2738E-16  0.1000E-09  0.0000E+00  0.1290E+17
   -0.206259    0.69785  0.0000E+00  0.7684E-12  0.4998E-16  0.1000E-09  0.0000E+00  0.1179E+17
   -0.275013    0.92283  0.0000E+00  0.1474E-11  0.9244E-16  0.1000E-09  0.0000E+00  0.1074E+17
   -0.343768    1.14410  0.0000E+00  0.2781E-11  0.1701E-15  0.1000E-09  0.0000E+00  0.9734E+16
   -0.412523    1.36159  0.0000E+00  0.5197E-11  0.3108E-15  0.1000E-09  0.0000E+00  0.8774E+16
   -0.481279    1.57517  0.0000E+00  0.9638E-11  0.5643E-15  0.1000E-09  0.0000E+00  0.7853E+16
   -0.550035    1.78460  0.0000E+00  0.1778E-10  0.1020E-14  0.1000E-09  0.0000E+00  0.6965E+16
   -0.618791    1.98935  0.0000E+00  0.3263E-10  0.1833E-14  0.1000E-09  0.0000E+00  0.6123E+16
   -0.687548    2.18921  0.0000E+00  0.5955E-10  0.3279E-14  0.1000E-09  0.0000E+00  0.5371E+16
   -0.756305    2.38563  0.0000E+00  0.1081E-09  0.5831E-14  0.1000E-09  0.0000E+00  0.4677E+16
   -0.825063    2.57946  0.0000E+00  0.1950E-09  0.1032E-13  0.1000E-09  0.0000E+00  0.4009E+16
   -0.893821    2.77057  0.0000E+00  0.3500E-09  0.1815E-13  0.1000E-09  0.0000E+00  0.3367E+16
   -0.962579    2.95879  0.0000E+00  0.6250E-09  0.3178E-13  0.1000E-09  0.0000E+00  0.2753E+16
   -1.031337    3.14396  0.0000E+00  0.1109E-08  0.5529E-13  0.1298E-09  0.0000E+00  0.2168E+16
   -1.100096    3.32594  0.0000E+00  0.1954E-08  0.9557E-13  0.3019E-09  0.0000E+00  0.1611E+16
   -1.168854    3.50442  0.0000E+00  0.3423E-08  0.1643E-12  0.7702E-09  0.0000E+00  0.1086E+16
   -1.237613    3.67893  0.0000E+00  0.5959E-08  0.2807E-12  0.2412E-08  0.0000E+00  0.5924E+15
   -1.306372    3.84804  0.0000E+00  0.1025E-07  0.4742E-12  0.1625E-07  0.0000E+00  0.1487E+15
   -1.375131    3.99917  0.0000E+00  0.1060E-07  0.4911E-12  0.8347E-04  0.0000E+00 -0.4934E+11
   -1.443890    3.99942  0.0000E+00  0.1076E-07  0.5004E-12  0.8306E-04  0.0000E+00 -0.5728E+11
   -1.512648    3.99969  0.0000E+00  0.1090E-07  0.5101E-12  0.8486E-04  0.0000E+00 -0.5829E+11
   -1.581407    3.99997  0.0000E+00  0.1102E-07  0.5205E-12  0.8692E-04  0.0000E+00 -0.5850E+11
   -1.650166    4.00024  0.0000E+00  0.1113E-07  0.5315E-12  0.8844E-04  0.0000E+00 -0.5888E+11
   -1.718924    4.00051  0.0000E+00  0.1122E-07  0.5434E-12  0.8958E-04  0.0000E+00 -0.5946E+11
   -1.787682    4.00077  0.0000E+00  0.1130E-07  0.5567E-12  0.8962E-04  0.0000E+00 -0.6076E+11
   -1.856441    4.00104  0.0000E+00  0.1137E-07  0.5721E-12  0.8876E-04  0.0000E+00 -0.6272E+11
   -1.925198    4.00131  0.0000E+00  0.1143E-07  0.5901E-12  0.8699E-04  0.0000E+00 -0.6547E+11
   -1.993956    4.00158  0.0000E+00  0.1147E-07  0.6114E-12  0.8276E-04  0.0000E+00 -0.7046E+11
   -2.062713    4.00187  0.0000E+00  0.1149E-07  0.6368E-12  0.7596E-04  0.0000E+00 -0.7834E+11
   -2.131470    4.00219  0.0000E+00  0.1150E-07  0.6675E-12  0.6883E-04  0.0000E+00 -0.8830E+11
   -2.200227    4.00254  0.0000E+00  0.1148E-07  0.7050E-12  0.6228E-04  0.0000E+00 -0.9989E+11
   -2.268983    4.00293  0.0000E+00  0.1143E-07  0.7524E-12  0.5607E-04  0.0000E+00 -0.1141E+12
   -2.337739    4.00336  0.0000E+00  0.1134E-07  0.8162E-12  0.4927E-04  0.0000E+00 -0.1340E+12
   -2.406494    4.00386  0.0000E+00  0.1120E-07  0.9073E-12  0.4146E-04  0.0000E+00 -0.1654E+12
   -2.475249    4.00445  0.0000E+00  0.1098E-07  0.1049E-11  0.3250E-04  0.0000E+00 -0.2214E+12
   -2.544003    4.00521  0.0000E+00  0.1060E-07  0.1310E-11  0.2230E-04  0.0000E+00 -0.3465E+12
   -2.612756    4.00635  0.0000E+00  0.9823E-08  0.1970E-11  0.1105E-04  0.0000E+00 -0.7945E+12
   -2.681509    4.00874  0.0000E+00  0.6496E-08  0.6496E-11  0.1128E-05  0.0000E+00 -0.1317E+14
   -2.750262    4.03306  0.0000E+00  0.0000E+00  0.0000E+00  0.0000E+00  0.0000E+00  0.0000E+00
