 1 - depth, m
 2 - temperature, C
 3 - salinity, kg/kg
 4 - turbulent kinetic energy, m**2/s**2
 5 - dissipation rate, m**2/s**3
 6 - kinematic heat conductance, m**2/s
 7 - modulus of horizontal velocity, m/s
 8 - Richardson number, n/d
   -0.000000    0.00000  0.0000E+00  0.1219E-13  0.7603E-17  0.1000E-09  0.0000E+00  0.1265E+17
   -0.068740    0.19479  0.0000E+00  0.1219E-13  0.7603E-17  0.1000E-09  0.0000E+00  0.1146E+17
   -0.137481    0.38100  0.0000E+00  0.1219E-13  0.7603E-17  0.1000E-09  0.0000E+00  0.1033E+17
   -0.206222    0.55806  0.0000E+00  0.1219E-13  0.7603E-17  0.1000E-09  0.0000E+00  0.9260E+16
   -0.274964    0.72544  0.0000E+00  0.1219E-13  0.7603E-17  0.1000E-09  0.0000E+00  0.8373E+16
   -0.343707    0.88501  0.0000E+00  0.1219E-13  0.7603E-17  0.1000E-09  0.0000E+00  0.7566E+16
   -0.412450    1.03702  0.0000E+00  0.1219E-13  0.7603E-17  0.1000E-09  0.0000E+00  0.6822E+16
   -0.481194    1.18150  0.0000E+00  0.1219E-13  0.7603E-17  0.1000E-09  0.0000E+00  0.6125E+16
   -0.549938    1.31820  0.0000E+00  0.1219E-13  0.7603E-17  0.1000E-09  0.0000E+00  0.5437E+16
   -0.618682    1.44598  0.0000E+00  0.1219E-13  0.7603E-17  0.1000E-09  0.0000E+00  0.4816E+16
   -0.687427    1.56506  0.0000E+00  0.1219E-13  0.7603E-17  0.1000E-09  0.0000E+00  0.4406E+16
   -0.756172    1.67960  0.0000E+00  0.1219E-13  0.7603E-17  0.1000E-09  0.0000E+00  0.4127E+16
   -0.824918    1.79251  0.0000E+00  0.4383E-13  0.7613E-17  0.1000E-09  0.0000E+00  0.3880E+16
   -0.893663    1.90447  0.0000E+00  0.1250E-12  0.1541E-16  0.1000E-09  0.0000E+00  0.3661E+16
   -0.962409    2.01615  0.0000E+00  0.3068E-12  0.3476E-16  0.1000E-09  0.0000E+00  0.3464E+16
   -1.031156    2.12819  0.0000E+00  0.7149E-12  0.7808E-16  0.1000E-09  0.0000E+00  0.3307E+16
   -1.099902    2.24205  0.0000E+00  0.1630E-11  0.1733E-15  0.1000E-09  0.0000E+00  0.3156E+16
   -1.168648    2.35837  0.0000E+00  0.3674E-11  0.3808E-15  0.1000E-09  0.0000E+00  0.3006E+16
   -1.237395    2.47771  0.0000E+00  0.8202E-11  0.8295E-15  0.1000E-09  0.0000E+00  0.2849E+16
   -1.306142    2.60052  0.0000E+00  0.1815E-10  0.1792E-14  0.1000E-09  0.0000E+00  0.2680E+16
   -1.374888    2.72718  0.0000E+00  0.3985E-10  0.3840E-14  0.1000E-09  0.0000E+00  0.2542E+16
   -1.443635    2.86071  0.0000E+00  0.8676E-10  0.8166E-14  0.1000E-09  0.0000E+00  0.2379E+16
   -1.512382    3.00230  0.0000E+00  0.1877E-09  0.1726E-13  0.1000E-09  0.0000E+00  0.2168E+16
   -1.581128    3.15238  0.0000E+00  0.4050E-09  0.3639E-13  0.1011E-09  0.0000E+00  0.1900E+16
   -1.649875    3.31117  0.0000E+00  0.8687E-09  0.7628E-13  0.2482E-09  0.0000E+00  0.1565E+16
   -1.718621    3.47850  0.0000E+00  0.1851E-08  0.1589E-12  0.6966E-09  0.0000E+00  0.1162E+16
   -1.787368    3.65383  0.0000E+00  0.3914E-08  0.3286E-12  0.2428E-08  0.0000E+00  0.6898E+15
   -1.856114    3.83521  0.0000E+00  0.8142E-08  0.6697E-12  0.1937E-07  0.0000E+00  0.1767E+15
   -1.924859    4.00422  0.0000E+00  0.9002E-08  0.7442E-12  0.4138E-04  0.0000E+00 -0.1769E+12
   -1.993605    4.00485  0.0000E+00  0.9390E-08  0.7863E-12  0.4225E-04  0.0000E+00 -0.1981E+12
   -2.062350    4.00552  0.0000E+00  0.9720E-08  0.8323E-12  0.4249E-04  0.0000E+00 -0.2082E+12
   -2.131095    4.00620  0.0000E+00  0.9996E-08  0.8840E-12  0.4186E-04  0.0000E+00 -0.2215E+12
   -2.199839    4.00690  0.0000E+00  0.1022E-07  0.9439E-12  0.4042E-04  0.0000E+00 -0.2404E+12
   -2.268583    4.00763  0.0000E+00  0.1038E-07  0.1016E-11  0.3816E-04  0.0000E+00 -0.2678E+12
   -2.337327    4.00842  0.0000E+00  0.1050E-07  0.1111E-11  0.3489E-04  0.0000E+00 -0.3100E+12
   -2.406070    4.00930  0.0000E+00  0.1054E-07  0.1243E-11  0.3048E-04  0.0000E+00 -0.3787E+12
   -2.474812    4.01033  0.0000E+00  0.1048E-07  0.1444E-11  0.2482E-04  0.0000E+00 -0.5044E+12
   -2.543555    4.01163  0.0000E+00  0.1025E-07  0.1807E-11  0.1777E-04  0.0000E+00 -0.7926E+12
   -2.612296    4.01356  0.0000E+00  0.9645E-08  0.2712E-11  0.9310E-05  0.0000E+00 -0.1858E+13
   -2.681037    4.01762  0.0000E+00  0.7099E-08  0.8165E-11  0.1360E-05  0.0000E+00 -0.2547E+14
   -2.749777    4.05138  0.0000E+00  0.0000E+00  0.0000E+00  0.0000E+00  0.0000E+00  0.0000E+00
