 1 - depth, m
 2 - temperature, C
 3 - salinity, kg/kg
 4 - turbulent kinetic energy, m**2/s**2
 5 - dissipation rate, m**2/s**3
 6 - kinematic heat conductance, m**2/s
 7 - modulus of horizontal velocity, m/s
 8 - Richardson number, n/d
   -0.000000    0.00000  0.0000E+00  0.1219E-13  0.7603E-17  0.1000E-09  0.0000E+00  0.1184E+17
   -0.068799    0.18211  0.0000E+00  0.1219E-13  0.7603E-17  0.1000E-09  0.0000E+00  0.1125E+17
   -0.137598    0.36408  0.0000E+00  0.1219E-13  0.7603E-17  0.1000E-09  0.0000E+00  0.1058E+17
   -0.206398    0.54453  0.0000E+00  0.1219E-13  0.7603E-17  0.1000E-09  0.0000E+00  0.9880E+16
   -0.275199    0.72266  0.0000E+00  0.1219E-13  0.7603E-17  0.1000E-09  0.0000E+00  0.9214E+16
   -0.344000    0.89856  0.0000E+00  0.1219E-13  0.7603E-17  0.1000E-09  0.0000E+00  0.8557E+16
   -0.412801    1.07194  0.0000E+00  0.1219E-13  0.7603E-17  0.1000E-09  0.0000E+00  0.7913E+16
   -0.481604    1.24249  0.0000E+00  0.1219E-13  0.7603E-17  0.1000E-09  0.0000E+00  0.7279E+16
   -0.550406    1.40983  0.0000E+00  0.1219E-13  0.7603E-17  0.1000E-09  0.0000E+00  0.6651E+16
   -0.619209    1.57330  0.0000E+00  0.1219E-13  0.7603E-17  0.1000E-09  0.0000E+00  0.6046E+16
   -0.688013    1.73260  0.0000E+00  0.1219E-13  0.7603E-17  0.1000E-09  0.0000E+00  0.5510E+16
   -0.756816    1.88871  0.0000E+00  0.3227E-13  0.7603E-17  0.1000E-09  0.0000E+00  0.5019E+16
   -0.825620    2.04220  0.0000E+00  0.1014E-12  0.1038E-16  0.1000E-09  0.0000E+00  0.4545E+16
   -0.894425    2.19289  0.0000E+00  0.2389E-12  0.1965E-16  0.1000E-09  0.0000E+00  0.4089E+16
   -0.963229    2.34057  0.0000E+00  0.5070E-12  0.3906E-16  0.1000E-09  0.0000E+00  0.3652E+16
   -1.032034    2.48506  0.0000E+00  0.1035E-11  0.7748E-16  0.1000E-09  0.0000E+00  0.3240E+16
   -1.100839    2.62638  0.0000E+00  0.2082E-11  0.1527E-15  0.1000E-09  0.0000E+00  0.2849E+16
   -1.169644    2.76440  0.0000E+00  0.4158E-11  0.2994E-15  0.1000E-09  0.0000E+00  0.2479E+16
   -1.238449    2.89893  0.0000E+00  0.8264E-11  0.5847E-15  0.1000E-09  0.0000E+00  0.2130E+16
   -1.307254    3.02982  0.0000E+00  0.1636E-10  0.1137E-14  0.1000E-09  0.0000E+00  0.1802E+16
   -1.376060    3.15685  0.0000E+00  0.3224E-10  0.2202E-14  0.1000E-09  0.0000E+00  0.1512E+16
   -1.444865    3.28109  0.0000E+00  0.6327E-10  0.4245E-14  0.1000E-09  0.0000E+00  0.1240E+16
   -1.513670    3.40262  0.0000E+00  0.1238E-09  0.8156E-14  0.1000E-09  0.0000E+00  0.9795E+15
   -1.582475    3.52083  0.0000E+00  0.2421E-09  0.1567E-13  0.1122E-09  0.0000E+00  0.7331E+15
   -1.651280    3.63464  0.0000E+00  0.4721E-09  0.3001E-13  0.3018E-09  0.0000E+00  0.5049E+15
   -1.720085    3.74238  0.0000E+00  0.9166E-09  0.5721E-13  0.9515E-09  0.0000E+00  0.3047E+15
   -1.788890    3.84235  0.0000E+00  0.1769E-08  0.1084E-12  0.3898E-08  0.0000E+00  0.1409E+15
   -1.857694    3.93341  0.0000E+00  0.3319E-08  0.2005E-12  0.4926E-07  0.0000E+00  0.2051E+14
   -1.926499    3.99996  0.0000E+00  0.3785E-08  0.2300E-12  0.2544E-04  0.0000E+00 -0.9998E+11
   -1.995303    4.00042  0.0000E+00  0.3997E-08  0.2465E-12  0.2535E-04  0.0000E+00 -0.1095E+12
   -2.064107    4.00091  0.0000E+00  0.4178E-08  0.2643E-12  0.2539E-04  0.0000E+00 -0.1151E+12
   -2.132910    4.00141  0.0000E+00  0.4331E-08  0.2843E-12  0.2497E-04  0.0000E+00 -0.1233E+12
   -2.201713    4.00192  0.0000E+00  0.4456E-08  0.3073E-12  0.2402E-04  0.0000E+00 -0.1351E+12
   -2.270515    4.00246  0.0000E+00  0.4553E-08  0.3352E-12  0.2255E-04  0.0000E+00 -0.1527E+12
   -2.339318    4.00306  0.0000E+00  0.4621E-08  0.3718E-12  0.2043E-04  0.0000E+00 -0.1803E+12
   -2.408119    4.00373  0.0000E+00  0.4653E-08  0.4232E-12  0.1761E-04  0.0000E+00 -0.2268E+12
   -2.476920    4.00455  0.0000E+00  0.4634E-08  0.5032E-12  0.1403E-04  0.0000E+00 -0.3154E+12
   -2.545721    4.00562  0.0000E+00  0.4529E-08  0.6515E-12  0.9676E-05  0.0000E+00 -0.5329E+12
   -2.614521    4.00731  0.0000E+00  0.4217E-08  0.1035E-11  0.4705E-05  0.0000E+00 -0.1436E+13
   -2.683320    4.01130  0.0000E+00  0.3123E-08  0.3124E-11  0.7335E-06  0.0000E+00 -0.2067E+14
   -2.752119    4.04344  0.0000E+00  0.0000E+00  0.0000E+00  0.0000E+00  0.0000E+00  0.0000E+00
