 1 - depth, m
 2 - temperature, C
 3 - salinity, kg/kg
 4 - turbulent kinetic energy, m**2/s**2
 5 - dissipation rate, m**2/s**3
 6 - kinematic heat conductance, m**2/s
 7 - modulus of horizontal velocity, m/s
 8 - Richardson number, n/d
   -0.000000    0.00000  0.0000E+00  0.1219E-13  0.7603E-17  0.1000E-09  0.0000E+00  0.1073E+17
   -0.068737    0.16451  0.0000E+00  0.1219E-13  0.7603E-17  0.1000E-09  0.0000E+00  0.1020E+17
   -0.137475    0.32822  0.0000E+00  0.1219E-13  0.7603E-17  0.1000E-09  0.0000E+00  0.9647E+16
   -0.206213    0.49062  0.0000E+00  0.1219E-13  0.7603E-17  0.1000E-09  0.0000E+00  0.9090E+16
   -0.274952    0.65133  0.0000E+00  0.1219E-13  0.7603E-17  0.1000E-09  0.0000E+00  0.8551E+16
   -0.343691    0.81036  0.0000E+00  0.1219E-13  0.7603E-17  0.1000E-09  0.0000E+00  0.8017E+16
   -0.412431    0.96749  0.0000E+00  0.1219E-13  0.7603E-17  0.1000E-09  0.0000E+00  0.7489E+16
   -0.481172    1.12247  0.0000E+00  0.1219E-13  0.7603E-17  0.1000E-09  0.0000E+00  0.6967E+16
   -0.549913    1.27499  0.0000E+00  0.1219E-13  0.7603E-17  0.1000E-09  0.0000E+00  0.6447E+16
   -0.618654    1.42459  0.0000E+00  0.1219E-13  0.7603E-17  0.1000E-09  0.0000E+00  0.5942E+16
   -0.687395    1.57101  0.0000E+00  0.1219E-13  0.7603E-17  0.1000E-09  0.0000E+00  0.5484E+16
   -0.756137    1.71488  0.0000E+00  0.1219E-13  0.7603E-17  0.1000E-09  0.0000E+00  0.5058E+16
   -0.824880    1.85652  0.0000E+00  0.1219E-13  0.7603E-17  0.1000E-09  0.0000E+00  0.4644E+16
   -0.893622    1.99575  0.0000E+00  0.1219E-13  0.7603E-17  0.1000E-09  0.0000E+00  0.4243E+16
   -0.962365    2.13239  0.0000E+00  0.1219E-13  0.7603E-17  0.1000E-09  0.0000E+00  0.3856E+16
   -1.031108    2.26625  0.0000E+00  0.1219E-13  0.7603E-17  0.1000E-09  0.0000E+00  0.3488E+16
   -1.099851    2.39730  0.0000E+00  0.1219E-13  0.7603E-17  0.1000E-09  0.0000E+00  0.3135E+16
   -1.168595    2.52536  0.0000E+00  0.1219E-13  0.7603E-17  0.1000E-09  0.0000E+00  0.2798E+16
   -1.237338    2.65024  0.0000E+00  0.3445E-13  0.7605E-17  0.1000E-09  0.0000E+00  0.2477E+16
   -1.306082    2.77175  0.0000E+00  0.1059E-12  0.1320E-16  0.1000E-09  0.0000E+00  0.2174E+16
   -1.374825    2.88965  0.0000E+00  0.2634E-12  0.2877E-16  0.1000E-09  0.0000E+00  0.1902E+16
   -1.443569    3.00455  0.0000E+00  0.6087E-12  0.6345E-16  0.1000E-09  0.0000E+00  0.1648E+16
   -1.512312    3.11651  0.0000E+00  0.1371E-11  0.1386E-15  0.1000E-09  0.0000E+00  0.1407E+16
   -1.581056    3.22520  0.0000E+00  0.3058E-11  0.3013E-15  0.1000E-09  0.0000E+00  0.1180E+16
   -1.649799    3.33030  0.0000E+00  0.6763E-11  0.6497E-15  0.1000E-09  0.0000E+00  0.9689E+15
   -1.718542    3.43149  0.0000E+00  0.1483E-10  0.1390E-14  0.1000E-09  0.0000E+00  0.7751E+15
   -1.787285    3.52843  0.0000E+00  0.3228E-10  0.2952E-14  0.1000E-09  0.0000E+00  0.5994E+15
   -1.856028    3.62076  0.0000E+00  0.6973E-10  0.6223E-14  0.1000E-09  0.0000E+00  0.4427E+15
   -1.924771    3.70810  0.0000E+00  0.1495E-09  0.1303E-13  0.2168E-09  0.0000E+00  0.3056E+15
   -1.993513    3.79002  0.0000E+00  0.3183E-09  0.2709E-13  0.7295E-09  0.0000E+00  0.1888E+15
   -2.062255    3.86597  0.0000E+00  0.6723E-09  0.5590E-13  0.2969E-08  0.0000E+00  0.9570E+14
   -2.130997    3.93854  0.0000E+00  0.1388E-08  0.1130E-12  0.3367E-07  0.0000E+00  0.1697E+14
   -2.199738    3.99720  0.0000E+00  0.1909E-08  0.1566E-12  0.9251E-05  0.0000E+00 -0.1897E+12
   -2.268479    3.99827  0.0000E+00  0.2140E-08  0.1827E-12  0.9623E-05  0.0000E+00 -0.2095E+12
   -2.337219    3.99934  0.0000E+00  0.2323E-08  0.2130E-12  0.9413E-05  0.0000E+00 -0.2388E+12
   -2.405959    4.00046  0.0000E+00  0.2460E-08  0.2523E-12  0.8592E-05  0.0000E+00 -0.2937E+12
   -2.474699    4.00173  0.0000E+00  0.2547E-08  0.3106E-12  0.7145E-05  0.0000E+00 -0.4054E+12
   -2.543438    4.00332  0.0000E+00  0.2566E-08  0.4164E-12  0.5077E-05  0.0000E+00 -0.6934E+12
   -2.612176    4.00575  0.0000E+00  0.2453E-08  0.6859E-12  0.2543E-05  0.0000E+00 -0.1927E+13
   -2.680914    4.01129  0.0000E+00  0.2013E-08  0.1964E-11  0.5323E-06  0.0000E+00 -0.2147E+14
   -2.749651    4.04432  0.0000E+00  0.0000E+00  0.0000E+00  0.0000E+00  0.0000E+00  0.0000E+00
