 1 - depth, m
 2 - temperature, C
 3 - salinity, kg/kg
 4 - turbulent kinetic energy, m**2/s**2
 5 - dissipation rate, m**2/s**3
 6 - kinematic heat conductance, m**2/s
 7 - modulus of horizontal velocity, m/s
 8 - Richardson number, n/d
   -0.000000    0.00000  0.0000E+00  0.1042E-11  0.2316E-15  0.1000E-09  0.0000E+00  0.1875E+17
   -0.068729    0.29277  0.0000E+00  0.2516E-11  0.2605E-15  0.1000E-09  0.0000E+00  0.1694E+17
   -0.137459    0.58021  0.0000E+00  0.5684E-11  0.4505E-15  0.1000E-09  0.0000E+00  0.1522E+17
   -0.206190    0.86230  0.0000E+00  0.1180E-10  0.8575E-15  0.1000E-09  0.0000E+00  0.1358E+17
   -0.274921    1.13894  0.0000E+00  0.2351E-10  0.1643E-14  0.1000E-09  0.0000E+00  0.1205E+17
   -0.343653    1.41042  0.0000E+00  0.4585E-10  0.3121E-14  0.1000E-09  0.0000E+00  0.1060E+17
   -0.412385    1.67669  0.0000E+00  0.8841E-10  0.5884E-14  0.1000E-09  0.0000E+00  0.9226E+16
   -0.481118    1.93764  0.0000E+00  0.1691E-09  0.1102E-13  0.1000E-09  0.0000E+00  0.7926E+16
   -0.549851    2.19304  0.0000E+00  0.3217E-09  0.2052E-13  0.1000E-09  0.0000E+00  0.6695E+16
   -0.618585    2.44244  0.0000E+00  0.6087E-09  0.3802E-13  0.1000E-09  0.0000E+00  0.5543E+16
   -0.687319    2.68565  0.0000E+00  0.1145E-08  0.7004E-13  0.1000E-09  0.0000E+00  0.4508E+16
   -0.756053    2.92475  0.0000E+00  0.2140E-08  0.1283E-12  0.1844E-09  0.0000E+00  0.3542E+16
   -0.824788    3.16084  0.0000E+00  0.3978E-08  0.2337E-12  0.4551E-09  0.0000E+00  0.2614E+16
   -0.893523    3.39350  0.0000E+00  0.7348E-08  0.4232E-12  0.1249E-08  0.0000E+00  0.1725E+16
   -0.962258    3.62175  0.0000E+00  0.1347E-07  0.7609E-12  0.4395E-08  0.0000E+00  0.8812E+15
   -1.030993    3.84186  0.0000E+00  0.2406E-07  0.1336E-11  0.4302E-07  0.0000E+00  0.1581E+15
   -1.099729    4.01309  0.0000E+00  0.2448E-07  0.1361E-11  0.1564E-03  0.0000E+00 -0.7361E+11
   -1.168464    4.01327  0.0000E+00  0.2468E-07  0.1374E-11  0.1572E-03  0.0000E+00 -0.8220E+11
   -1.237200    4.01346  0.0000E+00  0.2485E-07  0.1389E-11  0.1634E-03  0.0000E+00 -0.8155E+11
   -1.305936    4.01365  0.0000E+00  0.2501E-07  0.1405E-11  0.1640E-03  0.0000E+00 -0.8237E+11
   -1.374672    4.01385  0.0000E+00  0.2514E-07  0.1422E-11  0.1636E-03  0.0000E+00 -0.8323E+11
   -1.443408    4.01404  0.0000E+00  0.2526E-07  0.1440E-11  0.1631E-03  0.0000E+00 -0.8414E+11
   -1.512143    4.01423  0.0000E+00  0.2536E-07  0.1460E-11  0.1622E-03  0.0000E+00 -0.8530E+11
   -1.580879    4.01443  0.0000E+00  0.2544E-07  0.1483E-11  0.1610E-03  0.0000E+00 -0.8671E+11
   -1.649615    4.01462  0.0000E+00  0.2551E-07  0.1507E-11  0.1594E-03  0.0000E+00 -0.8838E+11
   -1.718350    4.01482  0.0000E+00  0.2557E-07  0.1535E-11  0.1574E-03  0.0000E+00 -0.9035E+11
   -1.787086    4.01502  0.0000E+00  0.2560E-07  0.1566E-11  0.1549E-03  0.0000E+00 -0.9266E+11
   -1.855821    4.01523  0.0000E+00  0.2562E-07  0.1602E-11  0.1521E-03  0.0000E+00 -0.9538E+11
   -1.924556    4.01544  0.0000E+00  0.2562E-07  0.1642E-11  0.1487E-03  0.0000E+00 -0.9859E+11
   -1.993290    4.01565  0.0000E+00  0.2560E-07  0.1687E-11  0.1448E-03  0.0000E+00 -0.1024E+12
   -2.062025    4.01587  0.0000E+00  0.2556E-07  0.1740E-11  0.1404E-03  0.0000E+00 -0.1066E+12
   -2.130759    4.01610  0.0000E+00  0.2549E-07  0.1801E-11  0.1353E-03  0.0000E+00 -0.1115E+12
   -2.199492    4.01634  0.0000E+00  0.2539E-07  0.1876E-11  0.1296E-03  0.0000E+00 -0.1175E+12
   -2.268226    4.01659  0.0000E+00  0.2524E-07  0.1979E-11  0.1166E-03  0.0000E+00 -0.1320E+12
   -2.336958    4.01687  0.0000E+00  0.2501E-07  0.2136E-11  0.9197E-04  0.0000E+00 -0.1697E+12
   -2.405691    4.01722  0.0000E+00  0.2467E-07  0.2367E-11  0.7271E-04  0.0000E+00 -0.2185E+12
   -2.474422    4.01767  0.0000E+00  0.2418E-07  0.2732E-11  0.5598E-04  0.0000E+00 -0.2906E+12
   -2.543154    4.01825  0.0000E+00  0.2340E-07  0.3398E-11  0.3831E-04  0.0000E+00 -0.4404E+12
   -2.611884    4.01912  0.0000E+00  0.2188E-07  0.5054E-11  0.1935E-04  0.0000E+00 -0.9323E+12
   -2.680614    4.02089  0.0000E+00  0.1423E-07  0.1807E-10  0.1698E-05  0.0000E+00 -0.1447E+14
   -2.749343    4.04148  0.0000E+00  0.0000E+00  0.0000E+00  0.0000E+00  0.0000E+00  0.0000E+00
