 1 - depth, m
 2 - temperature, C
 3 - salinity, kg/kg
 4 - turbulent kinetic energy, m**2/s**2
 5 - dissipation rate, m**2/s**3
 6 - kinematic heat conductance, m**2/s
 7 - modulus of horizontal velocity, m/s
 8 - Richardson number, n/d
   -0.000000    0.00000  0.0000E+00  0.1219E-13  0.7603E-17  0.1000E-09  0.0000E+00  0.1380E+17
   -0.068766    0.21311  0.0000E+00  0.1219E-13  0.7603E-17  0.1000E-09  0.0000E+00  0.1247E+17
   -0.137533    0.41735  0.0000E+00  0.1219E-13  0.7603E-17  0.1000E-09  0.0000E+00  0.1120E+17
   -0.206300    0.61205  0.0000E+00  0.1219E-13  0.7603E-17  0.1000E-09  0.0000E+00  0.1003E+17
   -0.275068    0.79701  0.0000E+00  0.1219E-13  0.7603E-17  0.1000E-09  0.0000E+00  0.9063E+16
   -0.343837    0.97446  0.0000E+00  0.2292E-13  0.7604E-17  0.1000E-09  0.0000E+00  0.8202E+16
   -0.412606    1.14508  0.0000E+00  0.6960E-13  0.1035E-16  0.1000E-09  0.0000E+00  0.7422E+16
   -0.481376    1.30929  0.0000E+00  0.1882E-12  0.2065E-16  0.1000E-09  0.0000E+00  0.6701E+16
   -0.550146    1.46719  0.0000E+00  0.4522E-12  0.4587E-16  0.1000E-09  0.0000E+00  0.6002E+16
   -0.618916    1.61793  0.0000E+00  0.1038E-11  0.1015E-15  0.1000E-09  0.0000E+00  0.5375E+16
   -0.687687    1.76191  0.0000E+00  0.2334E-11  0.2218E-15  0.1000E-09  0.0000E+00  0.4947E+16
   -0.756458    1.90356  0.0000E+00  0.5177E-11  0.4790E-15  0.1000E-09  0.0000E+00  0.4635E+16
   -0.825229    2.04597  0.0000E+00  0.1135E-10  0.1023E-14  0.1000E-09  0.0000E+00  0.4342E+16
   -0.894001    2.18995  0.0000E+00  0.2461E-10  0.2162E-14  0.1000E-09  0.0000E+00  0.4062E+16
   -0.962773    2.33635  0.0000E+00  0.5283E-10  0.4523E-14  0.1000E-09  0.0000E+00  0.3787E+16
   -1.031545    2.48603  0.0000E+00  0.1121E-09  0.9355E-14  0.1000E-09  0.0000E+00  0.3522E+16
   -1.100317    2.64048  0.0000E+00  0.2350E-09  0.1913E-13  0.1000E-09  0.0000E+00  0.3241E+16
   -1.169090    2.80070  0.0000E+00  0.4877E-09  0.3870E-13  0.1000E-09  0.0000E+00  0.2938E+16
   -1.237862    2.96792  0.0000E+00  0.1001E-08  0.7747E-13  0.1516E-09  0.0000E+00  0.2602E+16
   -1.306635    3.14386  0.0000E+00  0.2032E-08  0.1533E-12  0.3510E-09  0.0000E+00  0.2224E+16
   -1.375408    3.33130  0.0000E+00  0.4071E-08  0.2991E-12  0.8495E-09  0.0000E+00  0.1791E+16
   -1.444180    3.53653  0.0000E+00  0.8025E-08  0.5736E-12  0.2400E-08  0.0000E+00  0.1207E+16
   -1.512953    3.76484  0.0000E+00  0.1547E-07  0.1074E-11  0.1405E-07  0.0000E+00  0.3855E+15
   -1.581726    4.00239  0.0000E+00  0.1615E-07  0.1123E-11  0.8068E-04  0.0000E+00 -0.9756E+11
   -1.650498    4.00277  0.0000E+00  0.1647E-07  0.1151E-11  0.8026E-04  0.0000E+00 -0.1186E+12
   -1.719271    4.00323  0.0000E+00  0.1675E-07  0.1181E-11  0.8216E-04  0.0000E+00 -0.1238E+12
   -1.788043    4.00369  0.0000E+00  0.1701E-07  0.1214E-11  0.8380E-04  0.0000E+00 -0.1280E+12
   -1.856815    4.00415  0.0000E+00  0.1723E-07  0.1250E-11  0.8537E-04  0.0000E+00 -0.1322E+12
   -1.925586    4.00461  0.0000E+00  0.1742E-07  0.1290E-11  0.8635E-04  0.0000E+00 -0.1373E+12
   -1.994358    4.00509  0.0000E+00  0.1758E-07  0.1335E-11  0.8626E-04  0.0000E+00 -0.1447E+12
   -2.063129    4.00557  0.0000E+00  0.1771E-07  0.1386E-11  0.8398E-04  0.0000E+00 -0.1529E+12
   -2.131900    4.00607  0.0000E+00  0.1780E-07  0.1448E-11  0.8008E-04  0.0000E+00 -0.1644E+12
   -2.200670    4.00659  0.0000E+00  0.1784E-07  0.1524E-11  0.7365E-04  0.0000E+00 -0.1833E+12
   -2.269440    4.00716  0.0000E+00  0.1784E-07  0.1620E-11  0.6573E-04  0.0000E+00 -0.2113E+12
   -2.338210    4.00780  0.0000E+00  0.1777E-07  0.1750E-11  0.5776E-04  0.0000E+00 -0.2486E+12
   -2.406979    4.00852  0.0000E+00  0.1760E-07  0.1932E-11  0.4922E-04  0.0000E+00 -0.3036E+12
   -2.475747    4.00938  0.0000E+00  0.1731E-07  0.2214E-11  0.3937E-04  0.0000E+00 -0.3985E+12
   -2.544515    4.01046  0.0000E+00  0.1678E-07  0.2722E-11  0.2776E-04  0.0000E+00 -0.6053E+12
   -2.613283    4.01201  0.0000E+00  0.1566E-07  0.3979E-11  0.1442E-04  0.0000E+00 -0.1314E+13
   -2.682049    4.01509  0.0000E+00  0.1069E-07  0.1267E-10  0.1613E-05  0.0000E+00 -0.1933E+14
   -2.750816    4.04374  0.0000E+00  0.0000E+00  0.0000E+00  0.0000E+00  0.0000E+00  0.0000E+00
