 1 - depth, m
 2 - temperature, C
 3 - salinity, kg/kg
 4 - turbulent kinetic energy, m**2/s**2
 5 - dissipation rate, m**2/s**3
 6 - kinematic heat conductance, m**2/s
 7 - modulus of horizontal velocity, m/s
 8 - Richardson number, n/d
   -0.000000    0.00000  0.0000E+00  0.4025E-04  0.6849E-05  0.3931E-04  0.5210E-01  0.3381E-02
   -0.068794    0.00805  0.0000E+00  0.2425E-04  0.1467E-05  0.6130E-04  0.2581E-01  0.5879E-02
   -0.137588    0.01202  0.0000E+00  0.1800E-04  0.5283E-06  0.7815E-04  0.1921E-01  0.1137E-01
   -0.206382    0.01495  0.0000E+00  0.1412E-04  0.2451E-06  0.9157E-04  0.1509E-01  0.2023E-01
   -0.275178    0.01731  0.0000E+00  0.1173E-04  0.1394E-06  0.1014E-03  0.1225E-01  0.2978E-01
   -0.343974    0.01931  0.0000E+00  0.9988E-05  0.8985E-07  0.1084E-03  0.1009E-01  0.4225E-01
   -0.412770    0.02109  0.0000E+00  0.8575E-05  0.6216E-07  0.1118E-03  0.8390E-02  0.5879E-01
   -0.481567    0.02272  0.0000E+00  0.7340E-05  0.4459E-07  0.1116E-03  0.6994E-02  0.8239E-01
   -0.550364    0.02430  0.0000E+00  0.6216E-05  0.3242E-07  0.1093E-03  0.5819E-02  0.1315E+00
   -0.619162    0.02584  0.0000E+00  0.5224E-05  0.2380E-07  0.1041E-03  0.4854E-02  0.2306E+00
   -0.687960    0.02745  0.0000E+00  0.4354E-05  0.1756E-07  0.9690E-04  0.4046E-02  0.6079E+00
   -0.756759    0.02927  0.0000E+00  0.3596E-05  0.1296E-07  0.8825E-04  0.3364E-02  0.4957E+01
   -0.825558    0.03137  0.0000E+00  0.2937E-05  0.9522E-08  0.7867E-04  0.2791E-02  0.8613E+02
   -0.894357    0.03367  0.0000E+00  0.2368E-05  0.6946E-08  0.6861E-04  0.2308E-02  0.1603E+04
   -0.963156    0.03603  0.0000E+00  0.1883E-05  0.5022E-08  0.5865E-04  0.1906E-02  0.1262E+05
   -1.031955    0.03785  0.0000E+00  0.1477E-05  0.3605E-08  0.4743E-04  0.1578E-02  0.5290E+06
   -1.100755    0.04027  0.0000E+00  0.1133E-05  0.2547E-08  0.3666E-04  0.1289E-02  0.1110E+08
   -1.169555    0.04315  0.0000E+00  0.8423E-06  0.1755E-08  0.2658E-04  0.1034E-02  0.2351E+09
   -1.238355    0.04662  0.0000E+00  0.5983E-06  0.1164E-08  0.1749E-04  0.8096E-03  0.6309E+10
   -1.307155    0.05132  0.0000E+00  0.3969E-06  0.7292E-09  0.9810E-05  0.6129E-03  0.2257E+12
   -1.375955    0.05946  0.0000E+00  0.2255E-06  0.4011E-09  0.3104E-05  0.4425E-03  0.1004E+14
   -1.444755    0.08323  0.0000E+00  0.6951E-07  0.1251E-09  0.1407E-06  0.2697E-03  0.1933E+15
   -1.513555    0.18033  0.0000E+00  0.7559E-08  0.1400E-10  0.9375E-08  0.5333E-04  0.5250E+15
   -1.582355    0.30931  0.0000E+00  0.5901E-09  0.1138E-11  0.9701E-09  0.6408E-05  0.7565E+15
   -1.651155    0.41664  0.0000E+00  0.4266E-10  0.8541E-13  0.1440E-09  0.6989E-06  0.8980E+15
   -1.719954    0.50478  0.0000E+00  0.2982E-11  0.6174E-14  0.1000E-09  0.7260E-07  0.1043E+16
   -1.788754    0.58582  0.0000E+00  0.2063E-12  0.4358E-15  0.1000E-09  0.7218E-08  0.1275E+16
   -1.857553    0.67070  0.0000E+00  0.3897E-13  0.4957E-16  0.1000E-09  0.6862E-09  0.1687E+16
   -1.926352    0.76676  0.0000E+00  0.1737E-12  0.1324E-15  0.1000E-09  0.6224E-10  0.3034E+16
   -1.995151    0.87865  0.0000E+00  0.1186E-11  0.8613E-15  0.1000E-09  0.5372E-11  0.6536E+16
   -2.063950    1.00983  0.0000E+00  0.8008E-11  0.5611E-14  0.1000E-09  0.4396E-12  0.1034E+17
   -2.132748    1.23040  0.0000E+00  0.5289E-10  0.3577E-13  0.1000E-09  0.3397E-13  0.1366E+17
   -2.201546    1.55431  0.0000E+00  0.3414E-09  0.2231E-12  0.1304E-09  0.2465E-14  0.1575E+17
   -2.270343    1.99838  0.0000E+00  0.2174E-08  0.1376E-11  0.4741E-09  0.1252E-15  0.1544E+17
   -2.339140    2.58427  0.0000E+00  0.1358E-07  0.8353E-11  0.6026E-08  0.5317E-17  0.1156E+17
   -2.407936    3.38951  0.0000E+00  0.3425E-07  0.2263E-10  0.1167E-04  0.1972E-18  0.4481E+16
   -2.476732    4.01012  0.0000E+00  0.5465E-07  0.3939E-10  0.2924E-04  0.5501E-20  0.3434E+15
   -2.545528    4.17140  0.0000E+00  0.6702E-07  0.5520E-10  0.3204E-04  0.8219E-21 -0.1862E+14
   -2.614322    4.17817  0.0000E+00  0.6914E-07  0.7423E-10  0.2238E-04  0.1626E-21 -0.3073E+14
   -2.683116    4.18882  0.0000E+00  0.5364E-07  0.1792E-09  0.3989E-05  0.1982E-22 -0.2371E+15
   -2.751910    4.25601  0.0000E+00  0.0000E+00  0.0000E+00  0.0000E+00  0.1992E-22  0.0000E+00
