 1 - depth, m
 2 - temperature, C
 3 - salinity, kg/kg
 4 - turbulent kinetic energy, m**2/s**2
 5 - dissipation rate, m**2/s**3
 6 - kinematic heat conductance, m**2/s
 7 - modulus of horizontal velocity, m/s
 8 - Richardson number, n/d
   -0.000000    0.00000  0.0000E+00  0.1166E-11  0.2609E-15  0.1000E-09  0.0000E+00  0.1816E+17
   -0.068737    0.28317  0.0000E+00  0.2829E-11  0.2807E-15  0.1000E-09  0.0000E+00  0.1659E+17
   -0.137474    0.56362  0.0000E+00  0.6326E-11  0.4668E-15  0.1000E-09  0.0000E+00  0.1503E+17
   -0.206212    0.84066  0.0000E+00  0.1290E-10  0.8628E-15  0.1000E-09  0.0000E+00  0.1351E+17
   -0.274950    1.11365  0.0000E+00  0.2512E-10  0.1610E-14  0.1000E-09  0.0000E+00  0.1206E+17
   -0.343689    1.38256  0.0000E+00  0.4781E-10  0.2984E-14  0.1000E-09  0.0000E+00  0.1066E+17
   -0.412429    1.64704  0.0000E+00  0.8991E-10  0.5485E-14  0.1000E-09  0.0000E+00  0.9313E+16
   -0.481169    1.90673  0.0000E+00  0.1677E-09  0.1001E-13  0.1000E-09  0.0000E+00  0.8031E+16
   -0.549909    2.16123  0.0000E+00  0.3111E-09  0.1819E-13  0.1000E-09  0.0000E+00  0.6809E+16
   -0.618650    2.40993  0.0000E+00  0.5739E-09  0.3287E-13  0.1000E-09  0.0000E+00  0.5660E+16
   -0.687391    2.65256  0.0000E+00  0.1053E-08  0.5908E-13  0.1000E-09  0.0000E+00  0.4627E+16
   -0.756133    2.89111  0.0000E+00  0.1920E-08  0.1056E-12  0.1467E-09  0.0000E+00  0.3665E+16
   -0.824875    3.12678  0.0000E+00  0.3481E-08  0.1877E-12  0.3488E-09  0.0000E+00  0.2740E+16
   -0.893617    3.35929  0.0000E+00  0.6276E-08  0.3317E-12  0.9116E-09  0.0000E+00  0.1853E+16
   -0.962359    3.58811  0.0000E+00  0.1124E-07  0.5826E-12  0.2948E-08  0.0000E+00  0.1006E+16
   -1.031102    3.81106  0.0000E+00  0.1980E-07  0.1008E-11  0.2159E-07  0.0000E+00  0.2379E+15
   -1.099845    4.00616  0.0000E+00  0.2018E-07  0.1028E-11  0.1394E-03  0.0000E+00 -0.5876E+11
   -1.168588    4.00635  0.0000E+00  0.2035E-07  0.1039E-11  0.1395E-03  0.0000E+00 -0.6913E+11
   -1.237331    4.00657  0.0000E+00  0.2050E-07  0.1051E-11  0.1450E-03  0.0000E+00 -0.6869E+11
   -1.306074    4.00679  0.0000E+00  0.2063E-07  0.1063E-11  0.1484E-03  0.0000E+00 -0.6816E+11
   -1.374817    4.00700  0.0000E+00  0.2075E-07  0.1076E-11  0.1491E-03  0.0000E+00 -0.6856E+11
   -1.443560    4.00721  0.0000E+00  0.2085E-07  0.1090E-11  0.1486E-03  0.0000E+00 -0.6942E+11
   -1.512303    4.00742  0.0000E+00  0.2094E-07  0.1106E-11  0.1479E-03  0.0000E+00 -0.7049E+11
   -1.581046    4.00763  0.0000E+00  0.2102E-07  0.1123E-11  0.1467E-03  0.0000E+00 -0.7177E+11
   -1.649789    4.00785  0.0000E+00  0.2108E-07  0.1143E-11  0.1453E-03  0.0000E+00 -0.7327E+11
   -1.718532    4.00806  0.0000E+00  0.2113E-07  0.1164E-11  0.1435E-03  0.0000E+00 -0.7502E+11
   -1.787275    4.00828  0.0000E+00  0.2117E-07  0.1188E-11  0.1413E-03  0.0000E+00 -0.7707E+11
   -1.856017    4.00850  0.0000E+00  0.2119E-07  0.1215E-11  0.1387E-03  0.0000E+00 -0.7946E+11
   -1.924759    4.00873  0.0000E+00  0.2119E-07  0.1246E-11  0.1356E-03  0.0000E+00 -0.8227E+11
   -1.993501    4.00896  0.0000E+00  0.2118E-07  0.1281E-11  0.1320E-03  0.0000E+00 -0.8557E+11
   -2.062243    4.00920  0.0000E+00  0.2115E-07  0.1321E-11  0.1279E-03  0.0000E+00 -0.8925E+11
   -2.130984    4.00945  0.0000E+00  0.2110E-07  0.1368E-11  0.1233E-03  0.0000E+00 -0.9356E+11
   -2.199725    4.00971  0.0000E+00  0.2102E-07  0.1430E-11  0.1173E-03  0.0000E+00 -0.9941E+11
   -2.268465    4.00998  0.0000E+00  0.2088E-07  0.1519E-11  0.9669E-04  0.0000E+00 -0.1223E+12
   -2.337205    4.01031  0.0000E+00  0.2068E-07  0.1645E-11  0.7865E-04  0.0000E+00 -0.1530E+12
   -2.405945    4.01071  0.0000E+00  0.2040E-07  0.1827E-11  0.6401E-04  0.0000E+00 -0.1922E+12
   -2.474684    4.01121  0.0000E+00  0.1999E-07  0.2112E-11  0.4962E-04  0.0000E+00 -0.2553E+12
   -2.543422    4.01185  0.0000E+00  0.1933E-07  0.2634E-11  0.3391E-04  0.0000E+00 -0.3902E+12
   -2.612160    4.01281  0.0000E+00  0.1804E-07  0.3938E-11  0.1702E-04  0.0000E+00 -0.8416E+12
   -2.680897    4.01477  0.0000E+00  0.1186E-07  0.1384E-10  0.1574E-05  0.0000E+00 -0.1320E+14
   -2.749634    4.03627  0.0000E+00  0.0000E+00  0.0000E+00  0.0000E+00  0.0000E+00  0.0000E+00
