 1 - depth, m
 2 - temperature, C
 3 - salinity, kg/kg
 4 - turbulent kinetic energy, m**2/s**2
 5 - dissipation rate, m**2/s**3
 6 - kinematic heat conductance, m**2/s
 7 - modulus of horizontal velocity, m/s
 8 - Richardson number, n/d
   -0.000000    8.19932  0.0000E+00  0.4007E-03  0.2748E-03  0.1231E-03  0.2194E+00  0.1912E-01
   -0.068735    8.27298  0.0000E+00  0.2149E-03  0.6879E-04  0.3170E-03  0.6567E-01 -0.1865E-01
   -0.137470    8.28576  0.0000E+00  0.1538E-03  0.2973E-04  0.2886E-03  0.5009E-01 -0.1591E+00
   -0.206206    8.29571  0.0000E+00  0.1158E-03  0.1397E-04  0.2886E-03  0.4165E-01 -0.1813E-01
   -0.274942    8.30271  0.0000E+00  0.9161E-04  0.7065E-05  0.2944E-03  0.3608E-01 -0.1932E-01
   -0.343679    8.30835  0.0000E+00  0.7510E-04  0.3765E-05  0.3090E-03  0.3127E-01 -0.2881E-01
   -0.412417    8.31314  0.0000E+00  0.6352E-04  0.2153E-05  0.3279E-03  0.2719E-01 -0.1967E-01
   -0.481155    8.31729  0.0000E+00  0.5499E-04  0.1330E-05  0.3494E-03  0.2372E-01 -0.2292E-01
   -0.549893    8.32097  0.0000E+00  0.4838E-04  0.8829E-06  0.3750E-03  0.2077E-01 -0.2863E-01
   -0.618632    8.32423  0.0000E+00  0.4315E-04  0.6219E-06  0.4009E-03  0.1832E-01 -0.3577E-01
   -0.687371    8.32716  0.0000E+00  0.3889E-04  0.4584E-06  0.4273E-03  0.1626E-01 -0.4469E-01
   -0.756111    8.32983  0.0000E+00  0.3535E-04  0.3495E-06  0.4544E-03  0.1449E-01 -0.5571E-01
   -0.824851    8.33227  0.0000E+00  0.3234E-04  0.2735E-06  0.4823E-03  0.1296E-01 -0.6922E-01
   -0.893591    8.33452  0.0000E+00  0.2977E-04  0.2186E-06  0.5116E-03  0.1164E-01 -0.8336E-01
   -0.962331    8.33661  0.0000E+00  0.2755E-04  0.1779E-06  0.5457E-03  0.1048E-01  0.1662E-01
   -1.031072    8.33854  0.0000E+00  0.2565E-04  0.1473E-06  0.5846E-03  0.9472E-02  0.1657E+01
   -1.099813    8.34033  0.0000E+00  0.2399E-04  0.1237E-06  0.6295E-03  0.8566E-02  0.6441E+00
   -1.168553    8.34199  0.0000E+00  0.2252E-04  0.1052E-06  0.6845E-03  0.7750E-02  0.6366E+01
   -1.237294    8.34352  0.0000E+00  0.2123E-04  0.9042E-07  0.7595E-03  0.7014E-02  0.5372E+02
   -1.306036    8.34491  0.0000E+00  0.2007E-04  0.7854E-07  0.8629E-03  0.6347E-02  0.4791E+02
   -1.374777    8.34617  0.0000E+00  0.1902E-04  0.6884E-07  0.9661E-03  0.5739E-02  0.3328E+02
   -1.443518    8.34729  0.0000E+00  0.1806E-04  0.6081E-07  0.1085E-02  0.5179E-02  0.1949E+02
   -1.512259    8.34828  0.0000E+00  0.1718E-04  0.5410E-07  0.1215E-02  0.4661E-02  0.4703E+02
   -1.581000    8.34914  0.0000E+00  0.1636E-04  0.4839E-07  0.1330E-02  0.4189E-02  0.2404E+02
   -1.649741    8.34991  0.0000E+00  0.1559E-04  0.4352E-07  0.1431E-02  0.3759E-02  0.2016E+02
   -1.718482    8.35060  0.0000E+00  0.1486E-04  0.3934E-07  0.1510E-02  0.3366E-02  0.2439E+02
   -1.787222    8.35122  0.0000E+00  0.1418E-04  0.3574E-07  0.1570E-02  0.3004E-02  0.1208E+03
   -1.855963    8.35179  0.0000E+00  0.1352E-04  0.3266E-07  0.1599E-02  0.2672E-02  0.3313E+03
   -1.924703    8.35234  0.0000E+00  0.1290E-04  0.3003E-07  0.1611E-02  0.2364E-02  0.3973E+01
   -1.993443    8.35287  0.0000E+00  0.1232E-04  0.2782E-07  0.1609E-02  0.2081E-02  0.1799E+01
   -2.062182    8.35339  0.0000E+00  0.1176E-04  0.2601E-07  0.1595E-02  0.1821E-02  0.2485E+01
   -2.130921    8.35391  0.0000E+00  0.1123E-04  0.2461E-07  0.1572E-02  0.1582E-02  0.1271E+01
   -2.199660    8.35443  0.0000E+00  0.1074E-04  0.2361E-07  0.1531E-02  0.1362E-02  0.1118E+01
   -2.268399    8.35496  0.0000E+00  0.1029E-04  0.2304E-07  0.1471E-02  0.1160E-02  0.8978E+00
   -2.337137    8.35550  0.0000E+00  0.9862E-05  0.2293E-07  0.1369E-02  0.9834E-03  0.6999E+00
   -2.405874    8.35608  0.0000E+00  0.9479E-05  0.2336E-07  0.1241E-02  0.8329E-03  0.5508E+00
   -2.474611    8.35671  0.0000E+00  0.9137E-05  0.2444E-07  0.1114E-02  0.7082E-03  0.5294E+00
   -2.543348    8.35741  0.0000E+00  0.8785E-05  0.2667E-07  0.9620E-03  0.6080E-03  0.8430E+01
   -2.612083    8.35820  0.0000E+00  0.8228E-05  0.3319E-07  0.5093E-03  0.5152E-03  0.4818E+03
   -2.680819    8.35973  0.0000E+00  0.4810E-05  0.1115E-06  0.2809E-04  0.3937E-03 -0.2030E+04
   -2.749553    8.38577  0.0000E+00  0.0000E+00  0.0000E+00  0.0000E+00  0.3933E-03  0.0000E+00
