 1 - depth, m
 2 - temperature, C
 3 - salinity, kg/kg
 4 - turbulent kinetic energy, m**2/s**2
 5 - dissipation rate, m**2/s**3
 6 - kinematic heat conductance, m**2/s
 7 - modulus of horizontal velocity, m/s
 8 - Richardson number, n/d
   -0.000000    7.89474  0.0000E+00  0.1861E-03  0.7718E-04  0.1165E-03  0.1346E+00 -0.2359E-02
   -0.068734    7.96683  0.0000E+00  0.9940E-04  0.1794E-04  0.1662E-03  0.4638E-01 -0.6711E-02
   -0.137468    7.97906  0.0000E+00  0.7000E-04  0.6846E-05  0.1640E-03  0.3497E-01 -0.1344E-01
   -0.206204    7.98861  0.0000E+00  0.5277E-04  0.3075E-05  0.1754E-03  0.2855E-01 -0.1909E-01
   -0.274939    7.99615  0.0000E+00  0.4230E-04  0.1554E-05  0.1922E-03  0.2403E-01 -0.2346E-01
   -0.343676    8.00252  0.0000E+00  0.3540E-04  0.8709E-06  0.2132E-03  0.2036E-01 -0.2849E-01
   -0.412413    8.00799  0.0000E+00  0.3055E-04  0.5352E-06  0.2363E-03  0.1735E-01 -0.3492E-01
   -0.481150    8.01274  0.0000E+00  0.2687E-04  0.3544E-06  0.2601E-03  0.1485E-01 -0.4329E-01
   -0.549888    8.01694  0.0000E+00  0.2390E-04  0.2481E-06  0.2861E-03  0.1276E-01 -0.5628E-01
   -0.618626    8.02068  0.0000E+00  0.2146E-04  0.1814E-06  0.3120E-03  0.1104E-01 -0.7235E-01
   -0.687364    8.02403  0.0000E+00  0.1942E-04  0.1372E-06  0.3387E-03  0.9603E-02 -0.9234E-01
   -0.756103    8.02708  0.0000E+00  0.1770E-04  0.1066E-06  0.3668E-03  0.8390E-02 -0.1171E+00
   -0.824842    8.02984  0.0000E+00  0.1623E-04  0.8465E-07  0.3978E-03  0.7362E-02 -0.1417E+00
   -0.893582    8.03235  0.0000E+00  0.1498E-04  0.6852E-07  0.4428E-03  0.6490E-02  0.4510E+01
   -0.962322    8.03461  0.0000E+00  0.1391E-04  0.5647E-07  0.5282E-03  0.5750E-02  0.2355E+02
   -1.031061    8.03656  0.0000E+00  0.1303E-04  0.4742E-07  0.6882E-03  0.5126E-02  0.7785E+02
   -1.099802    8.03816  0.0000E+00  0.1229E-04  0.4053E-07  0.8789E-03  0.4590E-02  0.1122E+03
   -1.168542    8.03942  0.0000E+00  0.1166E-04  0.3519E-07  0.1044E-02  0.4126E-02  0.1777E+03
   -1.237282    8.04043  0.0000E+00  0.1112E-04  0.3094E-07  0.1165E-02  0.3713E-02  0.1242E+04
   -1.306022    8.04127  0.0000E+00  0.1064E-04  0.2748E-07  0.1239E-02  0.3339E-02  0.7951E+03
   -1.374763    8.04201  0.0000E+00  0.1021E-04  0.2460E-07  0.1283E-02  0.2995E-02  0.3163E+02
   -1.443503    8.04271  0.0000E+00  0.9805E-05  0.2216E-07  0.1298E-02  0.2674E-02  0.3665E+01
   -1.512244    8.04339  0.0000E+00  0.9427E-05  0.2007E-07  0.1315E-02  0.2371E-02  0.3224E+01
   -1.580984    8.04405  0.0000E+00  0.9068E-05  0.1827E-07  0.1334E-02  0.2094E-02  0.2764E+01
   -1.649724    8.04469  0.0000E+00  0.8727E-05  0.1673E-07  0.1356E-02  0.1844E-02  0.2425E+01
   -1.718464    8.04532  0.0000E+00  0.8404E-05  0.1542E-07  0.1378E-02  0.1619E-02  0.2158E+01
   -1.787204    8.04593  0.0000E+00  0.8097E-05  0.1431E-07  0.1400E-02  0.1416E-02  0.1937E+01
   -1.855944    8.04652  0.0000E+00  0.7807E-05  0.1341E-07  0.1415E-02  0.1234E-02  0.1746E+01
   -1.924683    8.04710  0.0000E+00  0.7533E-05  0.1268E-07  0.1413E-02  0.1073E-02  0.1571E+01
   -1.993423    8.04768  0.0000E+00  0.7276E-05  0.1212E-07  0.1384E-02  0.9292E-03  0.1408E+01
   -2.062162    8.04826  0.0000E+00  0.7037E-05  0.1174E-07  0.1336E-02  0.8025E-03  0.1255E+01
   -2.130900    8.04886  0.0000E+00  0.6817E-05  0.1151E-07  0.1277E-02  0.6913E-03  0.1112E+01
   -2.199638    8.04948  0.0000E+00  0.6617E-05  0.1145E-07  0.1209E-02  0.5937E-03  0.9809E+00
   -2.268376    8.05012  0.0000E+00  0.6437E-05  0.1155E-07  0.1133E-02  0.5086E-03  0.8227E+00
   -2.337113    8.05081  0.0000E+00  0.6274E-05  0.1182E-07  0.1061E-02  0.4378E-03  0.7346E+00
   -2.405850    8.05153  0.0000E+00  0.6115E-05  0.1232E-07  0.9843E-03  0.3802E-03  0.9247E+00
   -2.474586    8.05230  0.0000E+00  0.5943E-05  0.1320E-07  0.8798E-03  0.3277E-03  0.1453E+01
   -2.543322    8.05316  0.0000E+00  0.5739E-05  0.1485E-07  0.7634E-03  0.2772E-03  0.2813E+01
   -2.612057    8.05414  0.0000E+00  0.5420E-05  0.1906E-07  0.5633E-03  0.2305E-03  0.6051E+03
   -2.680792    8.05561  0.0000E+00  0.3328E-05  0.6801E-07  0.2751E-04  0.1766E-03 -0.6029E+04
   -2.749526    8.08291  0.0000E+00  0.0000E+00  0.0000E+00  0.0000E+00  0.1780E-03  0.0000E+00
