 1 - depth, m
 2 - temperature, C
 3 - salinity, kg/kg
 4 - turbulent kinetic energy, m**2/s**2
 5 - dissipation rate, m**2/s**3
 6 - kinematic heat conductance, m**2/s
 7 - modulus of horizontal velocity, m/s
 8 - Richardson number, n/d
   -0.000000    0.00000  0.0000E+00  0.1286E-12  0.1735E-16  0.1000E-09  0.0000E+00  0.1477E+17
   -0.068730    0.22852  0.0000E+00  0.2377E-12  0.1901E-16  0.1000E-09  0.0000E+00  0.1382E+17
   -0.137460    0.45666  0.0000E+00  0.4682E-12  0.2962E-16  0.1000E-09  0.0000E+00  0.1286E+17
   -0.206191    0.68390  0.0000E+00  0.8891E-12  0.5161E-16  0.1000E-09  0.0000E+00  0.1188E+17
   -0.274922    0.90976  0.0000E+00  0.1642E-11  0.9201E-16  0.1000E-09  0.0000E+00  0.1094E+17
   -0.343654    1.13436  0.0000E+00  0.2986E-11  0.1642E-15  0.1000E-09  0.0000E+00  0.1001E+17
   -0.412387    1.35738  0.0000E+00  0.5395E-11  0.2927E-15  0.1000E-09  0.0000E+00  0.9081E+16
   -0.481120    1.57840  0.0000E+00  0.9718E-11  0.5209E-15  0.1000E-09  0.0000E+00  0.8165E+16
   -0.549853    1.79692  0.0000E+00  0.1750E-10  0.9269E-15  0.1000E-09  0.0000E+00  0.7259E+16
   -0.618587    2.01219  0.0000E+00  0.3149E-10  0.1648E-14  0.1000E-09  0.0000E+00  0.6381E+16
   -0.687321    2.22379  0.0000E+00  0.5659E-10  0.2926E-14  0.1000E-09  0.0000E+00  0.5558E+16
   -0.756056    2.43213  0.0000E+00  0.1015E-09  0.5185E-14  0.1000E-09  0.0000E+00  0.4774E+16
   -0.824791    2.63728  0.0000E+00  0.1819E-09  0.9169E-14  0.1000E-09  0.0000E+00  0.4017E+16
   -0.893526    2.83866  0.0000E+00  0.3251E-09  0.1618E-13  0.1000E-09  0.0000E+00  0.3288E+16
   -0.962262    3.03539  0.0000E+00  0.5796E-09  0.2846E-13  0.1000E-09  0.0000E+00  0.2589E+16
   -1.030997    3.22598  0.0000E+00  0.1030E-08  0.4989E-13  0.1313E-09  0.0000E+00  0.1934E+16
   -1.099733    3.40863  0.0000E+00  0.1822E-08  0.8706E-13  0.3317E-09  0.0000E+00  0.1335E+16
   -1.168469    3.58055  0.0000E+00  0.3211E-08  0.1513E-12  0.9413E-09  0.0000E+00  0.8163E+15
   -1.237205    3.73937  0.0000E+00  0.5633E-08  0.2618E-12  0.3345E-08  0.0000E+00  0.3972E+15
   -1.305941    3.88404  0.0000E+00  0.9726E-08  0.4465E-12  0.2821E-07  0.0000E+00  0.8030E+14
   -1.374677    4.00145  0.0000E+00  0.1004E-07  0.4620E-12  0.8384E-04  0.0000E+00 -0.4801E+11
   -1.443413    4.00165  0.0000E+00  0.1019E-07  0.4706E-12  0.8230E-04  0.0000E+00 -0.5728E+11
   -1.512149    4.00189  0.0000E+00  0.1033E-07  0.4799E-12  0.8408E-04  0.0000E+00 -0.5851E+11
   -1.580886    4.00213  0.0000E+00  0.1046E-07  0.4905E-12  0.8468E-04  0.0000E+00 -0.5982E+11
   -1.649621    4.00237  0.0000E+00  0.1057E-07  0.5019E-12  0.8677E-04  0.0000E+00 -0.5988E+11
   -1.718357    4.00260  0.0000E+00  0.1067E-07  0.5139E-12  0.8751E-04  0.0000E+00 -0.6081E+11
   -1.787093    4.00284  0.0000E+00  0.1075E-07  0.5268E-12  0.8755E-04  0.0000E+00 -0.6225E+11
   -1.855828    4.00308  0.0000E+00  0.1082E-07  0.5412E-12  0.8677E-04  0.0000E+00 -0.6432E+11
   -1.924564    4.00332  0.0000E+00  0.1089E-07  0.5579E-12  0.8525E-04  0.0000E+00 -0.6707E+11
   -1.993298    4.00357  0.0000E+00  0.1093E-07  0.5777E-12  0.8321E-04  0.0000E+00 -0.7047E+11
   -2.062033    4.00383  0.0000E+00  0.1097E-07  0.6019E-12  0.7859E-04  0.0000E+00 -0.7628E+11
   -2.130767    4.00411  0.0000E+00  0.1098E-07  0.6313E-12  0.7097E-04  0.0000E+00 -0.8641E+11
   -2.199501    4.00442  0.0000E+00  0.1097E-07  0.6673E-12  0.6350E-04  0.0000E+00 -0.9900E+11
   -2.268235    4.00476  0.0000E+00  0.1094E-07  0.7128E-12  0.5668E-04  0.0000E+00 -0.1140E+12
   -2.336968    4.00515  0.0000E+00  0.1086E-07  0.7739E-12  0.4964E-04  0.0000E+00 -0.1344E+12
   -2.405700    4.00560  0.0000E+00  0.1074E-07  0.8609E-12  0.4172E-04  0.0000E+00 -0.1660E+12
   -2.474432    4.00615  0.0000E+00  0.1053E-07  0.9959E-12  0.3266E-04  0.0000E+00 -0.2222E+12
   -2.543164    4.00685  0.0000E+00  0.1018E-07  0.1243E-11  0.2233E-04  0.0000E+00 -0.3473E+12
   -2.611895    4.00790  0.0000E+00  0.9438E-08  0.1868E-11  0.1099E-04  0.0000E+00 -0.7937E+12
   -2.680625    4.01014  0.0000E+00  0.6223E-08  0.6155E-11  0.1092E-05  0.0000E+00 -0.1286E+14
   -2.749354    4.03332  0.0000E+00  0.0000E+00  0.0000E+00  0.0000E+00  0.0000E+00  0.0000E+00
