 1 - depth, m
 2 - temperature, C
 3 - salinity, kg/kg
 4 - turbulent kinetic energy, m**2/s**2
 5 - dissipation rate, m**2/s**3
 6 - kinematic heat conductance, m**2/s
 7 - modulus of horizontal velocity, m/s
 8 - Richardson number, n/d
   -0.000000    0.00000  0.0000E+00  0.2258E-13  0.7603E-17  0.1000E-09  0.0000E+00  0.1476E+17
   -0.068757    0.22838  0.0000E+00  0.7154E-13  0.7743E-17  0.1000E-09  0.0000E+00  0.1369E+17
   -0.137514    0.45435  0.0000E+00  0.1716E-12  0.1291E-16  0.1000E-09  0.0000E+00  0.1264E+17
   -0.206273    0.67745  0.0000E+00  0.3571E-12  0.2401E-16  0.1000E-09  0.0000E+00  0.1161E+17
   -0.275031    0.89736  0.0000E+00  0.7003E-12  0.4498E-16  0.1000E-09  0.0000E+00  0.1063E+17
   -0.343791    1.11421  0.0000E+00  0.1337E-11  0.8348E-16  0.1000E-09  0.0000E+00  0.9678E+16
   -0.412551    1.32784  0.0000E+00  0.2517E-11  0.1536E-15  0.1000E-09  0.0000E+00  0.8763E+16
   -0.481311    1.53807  0.0000E+00  0.4698E-11  0.2807E-15  0.1000E-09  0.0000E+00  0.7879E+16
   -0.550072    1.74460  0.0000E+00  0.8722E-11  0.5104E-15  0.1000E-09  0.0000E+00  0.7022E+16
   -0.618833    1.94693  0.0000E+00  0.1610E-10  0.9233E-15  0.1000E-09  0.0000E+00  0.6203E+16
   -0.687594    2.14473  0.0000E+00  0.2956E-10  0.1661E-14  0.1000E-09  0.0000E+00  0.5444E+16
   -0.756356    2.33845  0.0000E+00  0.5397E-10  0.2972E-14  0.1000E-09  0.0000E+00  0.4733E+16
   -0.825118    2.52822  0.0000E+00  0.9798E-10  0.5289E-14  0.1000E-09  0.0000E+00  0.4055E+16
   -0.893881    2.71371  0.0000E+00  0.1769E-09  0.9364E-14  0.1000E-09  0.0000E+00  0.3414E+16
   -0.962644    2.89462  0.0000E+00  0.3178E-09  0.1649E-13  0.1000E-09  0.0000E+00  0.2812E+16
   -1.031406    3.07063  0.0000E+00  0.5671E-09  0.2887E-13  0.1000E-09  0.0000E+00  0.2255E+16
   -1.100170    3.24180  0.0000E+00  0.1006E-08  0.5020E-13  0.1469E-09  0.0000E+00  0.1740E+16
   -1.168933    3.40793  0.0000E+00  0.1773E-08  0.8683E-13  0.3496E-09  0.0000E+00  0.1265E+16
   -1.237696    3.56875  0.0000E+00  0.3108E-08  0.1494E-12  0.9154E-09  0.0000E+00  0.8307E+15
   -1.306459    3.72387  0.0000E+00  0.5415E-08  0.2555E-12  0.2968E-08  0.0000E+00  0.4383E+15
   -1.375223    3.87189  0.0000E+00  0.9299E-08  0.4311E-12  0.2172E-07  0.0000E+00  0.1011E+15
   -1.443986    4.00026  0.0000E+00  0.9618E-08  0.4467E-12  0.8007E-04  0.0000E+00 -0.4938E+11
   -1.512750    4.00048  0.0000E+00  0.9765E-08  0.4552E-12  0.7729E-04  0.0000E+00 -0.5825E+11
   -1.581513    4.00074  0.0000E+00  0.9896E-08  0.4643E-12  0.7861E-04  0.0000E+00 -0.5954E+11
   -1.650276    4.00100  0.0000E+00  0.1001E-07  0.4743E-12  0.7956E-04  0.0000E+00 -0.6030E+11
   -1.719039    4.00126  0.0000E+00  0.1012E-07  0.4851E-12  0.7998E-04  0.0000E+00 -0.6122E+11
   -1.787802    4.00152  0.0000E+00  0.1020E-07  0.4971E-12  0.8010E-04  0.0000E+00 -0.6230E+11
   -1.856565    4.00178  0.0000E+00  0.1028E-07  0.5106E-12  0.7922E-04  0.0000E+00 -0.6416E+11
   -1.925327    4.00204  0.0000E+00  0.1034E-07  0.5263E-12  0.7723E-04  0.0000E+00 -0.6705E+11
   -1.994090    4.00231  0.0000E+00  0.1039E-07  0.5446E-12  0.7419E-04  0.0000E+00 -0.7118E+11
   -2.062852    4.00259  0.0000E+00  0.1042E-07  0.5665E-12  0.6941E-04  0.0000E+00 -0.7743E+11
   -2.131613    4.00289  0.0000E+00  0.1043E-07  0.5928E-12  0.6368E-04  0.0000E+00 -0.8592E+11
   -2.200374    4.00322  0.0000E+00  0.1041E-07  0.6249E-12  0.5810E-04  0.0000E+00 -0.9610E+11
   -2.269135    4.00358  0.0000E+00  0.1037E-07  0.6653E-12  0.5252E-04  0.0000E+00 -0.1089E+12
   -2.337895    4.00398  0.0000E+00  0.1029E-07  0.7198E-12  0.4625E-04  0.0000E+00 -0.1272E+12
   -2.406655    4.00443  0.0000E+00  0.1016E-07  0.7975E-12  0.3897E-04  0.0000E+00 -0.1560E+12
   -2.475414    4.00497  0.0000E+00  0.9946E-08  0.9189E-12  0.3058E-04  0.0000E+00 -0.2074E+12
   -2.544173    4.00567  0.0000E+00  0.9591E-08  0.1142E-11  0.2096E-04  0.0000E+00 -0.3219E+12
   -2.612931    4.00670  0.0000E+00  0.8865E-08  0.1708E-11  0.1032E-04  0.0000E+00 -0.7305E+12
   -2.681689    4.00887  0.0000E+00  0.5764E-08  0.5586E-11  0.1013E-05  0.0000E+00 -0.1183E+14
   -2.750446    4.03126  0.0000E+00  0.0000E+00  0.0000E+00  0.0000E+00  0.0000E+00  0.0000E+00
