 1 - depth, m
 2 - temperature, C
 3 - salinity, kg/kg
 4 - turbulent kinetic energy, m**2/s**2
 5 - dissipation rate, m**2/s**3
 6 - kinematic heat conductance, m**2/s
 7 - modulus of horizontal velocity, m/s
 8 - Richardson number, n/d
   -0.000000    0.00000  0.0000E+00  0.9290E-10  0.5891E-13  0.1000E-09  0.3100E-23  0.2111E+17
   -0.068775    0.33134  0.0000E+00  0.4660E-09  0.4435E-13  0.1000E-09  0.7557E-24  0.1085E+17
   -0.137550    0.51482  0.0000E+00  0.1145E-08  0.5643E-13  0.1000E-09  0.1800E-24  0.4831E+16
   -0.206325    0.60009  0.0000E+00  0.2239E-08  0.8708E-13  0.3450E-09  0.4248E-25  0.1420E+16
   -0.275102    0.62571  0.0000E+00  0.3982E-08  0.1404E-12  0.2428E-08  0.1306E-25  0.4306E+15
   -0.343879    0.63356  0.0000E+00  0.6756E-08  0.2259E-12  0.3177E-08  0.4214E-26  0.3624E+15
   -0.412656    0.64011  0.0000E+00  0.1118E-07  0.3602E-12  0.3129E-08  0.1316E-26  0.6232E+15
   -0.481434    0.65135  0.0000E+00  0.1821E-07  0.5682E-12  0.3763E-08  0.3782E-27  0.8258E+15
   -0.550212    0.66629  0.0000E+00  0.2924E-07  0.8857E-12  0.9387E-08  0.9106E-28  0.5434E+15
   -0.618991    0.67615  0.0000E+00  0.4557E-07  0.1346E-11  0.5321E-07  0.2136E-28  0.2380E+15
   -0.687770    0.68046  0.0000E+00  0.5387E-07  0.1609E-11  0.2982E-03  0.4651E-29  0.2604E+14
   -0.756550    0.68092  0.0000E+00  0.5401E-07  0.1614E-11  0.5790E-03  0.3893E-30 -0.3830E+11
   -0.825330    0.68092  0.0000E+00  0.5409E-07  0.1617E-11  0.5801E-03  0.3758E-30 -0.6749E+11
   -0.894110    0.68092  0.0000E+00  0.5412E-07  0.1618E-11  0.5742E-03  0.3647E-30 -0.8095E+11
   -0.962890    0.68092  0.0000E+00  0.5410E-07  0.1618E-11  0.5636E-03  0.3570E-30 -0.6389E+11
   -1.031671    0.68092  0.0000E+00  0.5393E-07  0.1613E-11  0.9658E-07  0.3527E-30  0.1871E+15
   -1.100451    0.68438  0.0000E+00  0.3646E-07  0.1125E-11  0.6058E-08  0.1550E-30  0.9724E+15
   -1.169232    0.70229  0.0000E+00  0.2364E-07  0.7546E-12  0.2132E-08  0.3866E-31  0.1816E+16
   -1.238013    0.73598  0.0000E+00  0.1514E-07  0.5005E-12  0.9538E-09  0.9294E-32  0.2676E+16
   -1.306794    0.78627  0.0000E+00  0.9574E-08  0.3287E-12  0.4787E-09  0.2173E-32  0.3491E+16
   -1.375575    0.85313  0.0000E+00  0.5955E-08  0.2142E-12  0.2268E-09  0.4945E-33  0.4802E+16
   -1.444356    0.94764  0.0000E+00  0.3618E-08  0.1396E-12  0.1166E-09  0.1083E-33  0.6084E+16
   -1.513137    1.07201  0.0000E+00  0.2118E-08  0.9339E-13  0.1000E-09  0.1731E-34  0.6588E+16
   -1.581918    1.21335  0.0000E+00  0.1162E-08  0.6931E-13  0.1000E-09  0.2384E-35  0.6841E+16
   -1.650699    1.36873  0.0000E+00  0.6145E-09  0.6941E-13  0.1000E-09  0.3137E-36  0.7336E+16
   -1.719480    1.54714  0.0000E+00  0.4915E-09  0.1207E-12  0.1006E-09  0.3936E-37  0.8251E+16
   -1.788260    1.76629  0.0000E+00  0.1152E-08  0.3612E-12  0.1915E-09  0.4699E-38  0.9660E+16
   -1.857041    2.05715  0.0000E+00  0.4218E-08  0.1312E-11  0.5830E-09  0.5322E-39  0.1120E+17
   -1.925821    2.46933  0.0000E+00  0.1604E-07  0.4831E-11  0.2275E-08  0.5702E-40  0.1127E+17
   -1.994601    3.06892  0.0000E+00  0.5870E-07  0.1715E-10  0.2621E-07  0.5763E-41  0.6457E+16
   -2.063380    3.82658  0.0000E+00  0.9013E-07  0.2711E-10  0.6746E-04  0.5452E-42  0.9288E+15
   -2.132159    4.11658  0.0000E+00  0.9519E-07  0.2889E-10  0.1162E-03  0.1889E-43 -0.2343E+13
   -2.200938    4.11775  0.0000E+00  0.9786E-07  0.3022E-10  0.1173E-03  0.1241E-43 -0.2640E+13
   -2.269716    4.11904  0.0000E+00  0.9982E-07  0.3174E-10  0.1178E-03  0.7571E-44 -0.2751E+13
   -2.338494    4.12037  0.0000E+00  0.1011E-06  0.3359E-10  0.1147E-03  0.4361E-44 -0.2918E+13
   -2.407272    4.12176  0.0000E+00  0.1017E-06  0.3599E-10  0.1084E-03  0.2478E-44 -0.3184E+13
   -2.476049    4.12326  0.0000E+00  0.1014E-06  0.3953E-10  0.9769E-04  0.1332E-44 -0.3665E+13
   -2.544825    4.12498  0.0000E+00  0.9969E-07  0.4614E-10  0.7157E-04  0.6144E-45 -0.5244E+13
   -2.613601    4.12741  0.0000E+00  0.9455E-07  0.6255E-10  0.3988E-04  0.2109E-45 -0.1025E+14
   -2.682376    4.13202  0.0000E+00  0.6289E-07  0.1902E-09  0.3972E-05  0.4205E-46 -0.1408E+15
   -2.751150    4.18462  0.0000E+00  0.0000E+00  0.0000E+00  0.0000E+00  0.4664E-46  0.0000E+00
