 1 - depth, m
 2 - temperature, C
 3 - salinity, kg/kg
 4 - turbulent kinetic energy, m**2/s**2
 5 - dissipation rate, m**2/s**3
 6 - kinematic heat conductance, m**2/s
 7 - modulus of horizontal velocity, m/s
 8 - Richardson number, n/d
   -0.000000    0.00000  0.0000E+00  0.1219E-13  0.7603E-17  0.1000E-09  0.0000E+00  0.1385E+17
   -0.068728    0.21384  0.0000E+00  0.1219E-13  0.7603E-17  0.1000E-09  0.0000E+00  0.1291E+17
   -0.137458    0.42558  0.0000E+00  0.1219E-13  0.7603E-17  0.1000E-09  0.0000E+00  0.1198E+17
   -0.206187    0.63477  0.0000E+00  0.2074E-13  0.7603E-17  0.1000E-09  0.0000E+00  0.1106E+17
   -0.274918    0.84096  0.0000E+00  0.7777E-13  0.8464E-17  0.1000E-09  0.0000E+00  0.1019E+17
   -0.343648    1.04432  0.0000E+00  0.1892E-12  0.1484E-16  0.1000E-09  0.0000E+00  0.9336E+16
   -0.412380    1.24460  0.0000E+00  0.3963E-12  0.2822E-16  0.1000E-09  0.0000E+00  0.8510E+16
   -0.481112    1.44153  0.0000E+00  0.7856E-12  0.5376E-16  0.1000E-09  0.0000E+00  0.7708E+16
   -0.549844    1.63474  0.0000E+00  0.1525E-11  0.1018E-15  0.1000E-09  0.0000E+00  0.6926E+16
   -0.618577    1.82365  0.0000E+00  0.2930E-11  0.1915E-15  0.1000E-09  0.0000E+00  0.6181E+16
   -0.687310    2.00799  0.0000E+00  0.5590E-11  0.3584E-15  0.1000E-09  0.0000E+00  0.5514E+16
   -0.756043    2.18889  0.0000E+00  0.1061E-10  0.6671E-15  0.1000E-09  0.0000E+00  0.4899E+16
   -0.824777    2.36701  0.0000E+00  0.2002E-10  0.1236E-14  0.1000E-09  0.0000E+00  0.4306E+16
   -0.893511    2.54213  0.0000E+00  0.3761E-10  0.2277E-14  0.1000E-09  0.0000E+00  0.3736E+16
   -0.962245    2.71397  0.0000E+00  0.7031E-10  0.4178E-14  0.1000E-09  0.0000E+00  0.3190E+16
   -1.030979    2.88213  0.0000E+00  0.1306E-09  0.7619E-14  0.1000E-09  0.0000E+00  0.2670E+16
   -1.099714    3.04620  0.0000E+00  0.2412E-09  0.1381E-13  0.1000E-09  0.0000E+00  0.2176E+16
   -1.168449    3.20543  0.0000E+00  0.4432E-09  0.2491E-13  0.1000E-09  0.0000E+00  0.1712E+16
   -1.237184    3.35893  0.0000E+00  0.8102E-09  0.4471E-13  0.1770E-09  0.0000E+00  0.1285E+16
   -1.305919    3.50574  0.0000E+00  0.1474E-08  0.7986E-13  0.4500E-09  0.0000E+00  0.9032E+15
   -1.374654    3.64514  0.0000E+00  0.2667E-08  0.1419E-12  0.1255E-08  0.0000E+00  0.5757E+15
   -1.443388    3.77842  0.0000E+00  0.4795E-08  0.2507E-12  0.4433E-08  0.0000E+00  0.2878E+15
   -1.512123    3.90530  0.0000E+00  0.8420E-08  0.4336E-12  0.4482E-07  0.0000E+00  0.4916E+14
   -1.580858    4.00337  0.0000E+00  0.8815E-08  0.4552E-12  0.6830E-04  0.0000E+00 -0.6332E+11
   -1.649593    4.00360  0.0000E+00  0.8993E-08  0.4667E-12  0.6611E-04  0.0000E+00 -0.7361E+11
   -1.718328    4.00387  0.0000E+00  0.9147E-08  0.4787E-12  0.6695E-04  0.0000E+00 -0.7544E+11
   -1.787062    4.00415  0.0000E+00  0.9283E-08  0.4920E-12  0.6726E-04  0.0000E+00 -0.7700E+11
   -1.855796    4.00442  0.0000E+00  0.9405E-08  0.5069E-12  0.6682E-04  0.0000E+00 -0.7922E+11
   -1.924530    4.00470  0.0000E+00  0.9510E-08  0.5240E-12  0.6559E-04  0.0000E+00 -0.8244E+11
   -1.993264    4.00498  0.0000E+00  0.9596E-08  0.5438E-12  0.6348E-04  0.0000E+00 -0.8706E+11
   -2.061997    4.00528  0.0000E+00  0.9663E-08  0.5670E-12  0.6023E-04  0.0000E+00 -0.9372E+11
   -2.130731    4.00559  0.0000E+00  0.9707E-08  0.5945E-12  0.5622E-04  0.0000E+00 -0.1026E+12
   -2.199463    4.00593  0.0000E+00  0.9725E-08  0.6278E-12  0.5200E-04  0.0000E+00 -0.1137E+12
   -2.268196    4.00629  0.0000E+00  0.9712E-08  0.6694E-12  0.4742E-04  0.0000E+00 -0.1283E+12
   -2.336927    4.00670  0.0000E+00  0.9662E-08  0.7252E-12  0.4203E-04  0.0000E+00 -0.1497E+12
   -2.405659    4.00716  0.0000E+00  0.9561E-08  0.8048E-12  0.3563E-04  0.0000E+00 -0.1839E+12
   -2.474390    4.00772  0.0000E+00  0.9383E-08  0.9288E-12  0.2813E-04  0.0000E+00 -0.2455E+12
   -2.543120    4.00844  0.0000E+00  0.9064E-08  0.1157E-11  0.1944E-04  0.0000E+00 -0.3851E+12
   -2.611850    4.00952  0.0000E+00  0.8390E-08  0.1734E-11  0.9672E-05  0.0000E+00 -0.8957E+12
   -2.680579    4.01187  0.0000E+00  0.5587E-08  0.5545E-11  0.1036E-05  0.0000E+00 -0.1456E+14
   -2.749307    4.03644  0.0000E+00  0.0000E+00  0.0000E+00  0.0000E+00  0.0000E+00  0.0000E+00
