 1 - depth, m
 2 - temperature, C
 3 - salinity, kg/kg
 4 - turbulent kinetic energy, m**2/s**2
 5 - dissipation rate, m**2/s**3
 6 - kinematic heat conductance, m**2/s
 7 - modulus of horizontal velocity, m/s
 8 - Richardson number, n/d
   -0.000000    0.00000  0.0000E+00  0.1352E-11  0.3059E-15  0.1000E-09  0.0000E+00  0.1795E+17
   -0.068766    0.27970  0.0000E+00  0.3302E-11  0.3082E-15  0.1000E-09  0.0000E+00  0.1639E+17
   -0.137533    0.55631  0.0000E+00  0.7269E-11  0.4817E-15  0.1000E-09  0.0000E+00  0.1487E+17
   -0.206300    0.82950  0.0000E+00  0.1442E-10  0.8493E-15  0.1000E-09  0.0000E+00  0.1339E+17
   -0.275069    1.09890  0.0000E+00  0.2714E-10  0.1522E-14  0.1000E-09  0.0000E+00  0.1199E+17
   -0.343837    1.36464  0.0000E+00  0.4978E-10  0.2710E-14  0.1000E-09  0.0000E+00  0.1063E+17
   -0.412606    1.62646  0.0000E+00  0.9006E-10  0.4790E-14  0.1000E-09  0.0000E+00  0.9331E+16
   -0.481376    1.88404  0.0000E+00  0.1615E-09  0.8410E-14  0.1000E-09  0.0000E+00  0.8081E+16
   -0.550146    2.13697  0.0000E+00  0.2880E-09  0.1469E-13  0.1000E-09  0.0000E+00  0.6882E+16
   -0.618916    2.38463  0.0000E+00  0.5109E-09  0.2554E-13  0.1000E-09  0.0000E+00  0.5749E+16
   -0.687687    2.62670  0.0000E+00  0.9013E-09  0.4416E-13  0.1000E-09  0.0000E+00  0.4725E+16
   -0.756458    2.86508  0.0000E+00  0.1581E-08  0.7595E-13  0.1032E-09  0.0000E+00  0.3766E+16
   -0.825230    3.10088  0.0000E+00  0.2759E-08  0.1299E-12  0.2328E-09  0.0000E+00  0.2841E+16
   -0.894001    3.33382  0.0000E+00  0.4787E-08  0.2211E-12  0.5769E-09  0.0000E+00  0.1951E+16
   -0.962773    3.56347  0.0000E+00  0.8257E-08  0.3740E-12  0.1732E-08  0.0000E+00  0.1100E+16
   -1.031546    3.78851  0.0000E+00  0.1409E-07  0.6264E-12  0.1043E-07  0.0000E+00  0.3060E+15
   -1.100318    3.99789  0.0000E+00  0.1439E-07  0.6404E-12  0.1149E-03  0.0000E+00 -0.4244E+11
   -1.169091    3.99812  0.0000E+00  0.1453E-07  0.6484E-12  0.1136E-03  0.0000E+00 -0.4989E+11
   -1.237863    3.99839  0.0000E+00  0.1467E-07  0.6572E-12  0.1167E-03  0.0000E+00 -0.5067E+11
   -1.306636    3.99865  0.0000E+00  0.1479E-07  0.6664E-12  0.1205E-03  0.0000E+00 -0.5038E+11
   -1.375409    3.99891  0.0000E+00  0.1489E-07  0.6761E-12  0.1232E-03  0.0000E+00 -0.5035E+11
   -1.444181    3.99917  0.0000E+00  0.1498E-07  0.6864E-12  0.1242E-03  0.0000E+00 -0.5093E+11
   -1.512954    3.99942  0.0000E+00  0.1507E-07  0.6975E-12  0.1239E-03  0.0000E+00 -0.5201E+11
   -1.581727    3.99967  0.0000E+00  0.1514E-07  0.7096E-12  0.1231E-03  0.0000E+00 -0.5336E+11
   -1.650499    3.99992  0.0000E+00  0.1520E-07  0.7230E-12  0.1219E-03  0.0000E+00 -0.5489E+11
   -1.719271    4.00017  0.0000E+00  0.1526E-07  0.7379E-12  0.1205E-03  0.0000E+00 -0.5661E+11
   -1.788044    4.00043  0.0000E+00  0.1530E-07  0.7546E-12  0.1187E-03  0.0000E+00 -0.5859E+11
   -1.856816    4.00070  0.0000E+00  0.1533E-07  0.7732E-12  0.1165E-03  0.0000E+00 -0.6085E+11
   -1.925587    4.00096  0.0000E+00  0.1535E-07  0.7941E-12  0.1139E-03  0.0000E+00 -0.6347E+11
   -1.994359    4.00124  0.0000E+00  0.1536E-07  0.8182E-12  0.1109E-03  0.0000E+00 -0.6653E+11
   -2.063130    4.00152  0.0000E+00  0.1535E-07  0.8479E-12  0.1073E-03  0.0000E+00 -0.7005E+11
   -2.131901    4.00181  0.0000E+00  0.1533E-07  0.8867E-12  0.9949E-04  0.0000E+00 -0.7695E+11
   -2.200671    4.00212  0.0000E+00  0.1527E-07  0.9367E-12  0.8551E-04  0.0000E+00 -0.9138E+11
   -2.269441    4.00249  0.0000E+00  0.1518E-07  0.1001E-11  0.7324E-04  0.0000E+00 -0.1094E+12
   -2.338211    4.00292  0.0000E+00  0.1505E-07  0.1089E-11  0.6267E-04  0.0000E+00 -0.1317E+12
   -2.406980    4.00341  0.0000E+00  0.1485E-07  0.1216E-11  0.5212E-04  0.0000E+00 -0.1640E+12
   -2.475749    4.00402  0.0000E+00  0.1455E-07  0.1412E-11  0.4055E-04  0.0000E+00 -0.2203E+12
   -2.544517    4.00479  0.0000E+00  0.1407E-07  0.1771E-11  0.2767E-04  0.0000E+00 -0.3440E+12
   -2.613284    4.00595  0.0000E+00  0.1311E-07  0.2674E-11  0.1375E-04  0.0000E+00 -0.7736E+12
   -2.682051    4.00832  0.0000E+00  0.8772E-08  0.9126E-11  0.1386E-05  0.0000E+00 -0.1250E+14
   -2.750817    4.03193  0.0000E+00  0.0000E+00  0.0000E+00  0.0000E+00  0.0000E+00  0.0000E+00
