 1 - depth, m
 2 - temperature, C
 3 - salinity, kg/kg
 4 - turbulent kinetic energy, m**2/s**2
 5 - dissipation rate, m**2/s**3
 6 - kinematic heat conductance, m**2/s
 7 - modulus of horizontal velocity, m/s
 8 - Richardson number, n/d
   -0.000000    1.59581  0.0000E+00  0.1039E-03  0.7040E-04  0.8295E-04  0.8856E-01  0.1673E-02
   -0.068764    1.61702  0.0000E+00  0.5717E-04  0.2516E-04  0.1094E-03  0.3583E-01  0.1828E-01
   -0.137528    1.62221  0.0000E+00  0.4048E-04  0.9594E-05  0.1140E-03  0.2699E-01  0.5654E-02
   -0.206294    1.62603  0.0000E+00  0.3035E-04  0.4220E-05  0.1241E-03  0.2181E-01  0.8832E-02
   -0.275059    1.62909  0.0000E+00  0.2412E-04  0.1730E-05  0.1340E-03  0.1820E-01  0.1269E-01
   -0.343826    1.63172  0.0000E+00  0.1992E-04  0.7008E-06  0.1434E-03  0.1527E-01  0.1697E-01
   -0.412593    1.63404  0.0000E+00  0.1688E-04  0.3235E-06  0.1508E-03  0.1290E-01  0.2221E-01
   -0.481360    1.63613  0.0000E+00  0.1447E-04  0.1816E-06  0.1552E-03  0.1094E-01  0.2884E-01
   -0.550128    1.63808  0.0000E+00  0.1242E-04  0.1173E-06  0.1580E-03  0.9293E-02  0.3980E-01
   -0.618896    1.63989  0.0000E+00  0.1068E-04  0.8189E-07  0.1574E-03  0.7935E-02  0.5437E-01
   -0.687664    1.64163  0.0000E+00  0.9178E-05  0.5954E-07  0.1541E-03  0.6792E-02  0.7433E-01
   -0.756433    1.64332  0.0000E+00  0.7873E-05  0.4422E-07  0.1486E-03  0.5821E-02  0.1024E+00
   -0.825202    1.64498  0.0000E+00  0.6731E-05  0.3324E-07  0.1412E-03  0.4989E-02  0.1436E+00
   -0.893972    1.64666  0.0000E+00  0.5733E-05  0.2520E-07  0.1327E-03  0.4275E-02  0.2087E+00
   -0.962742    1.64838  0.0000E+00  0.4871E-05  0.1923E-07  0.1237E-03  0.3663E-02  0.3263E+00
   -1.031512    1.65016  0.0000E+00  0.4137E-05  0.1482E-07  0.1123E-03  0.3147E-02  0.4708E+00
   -1.100282    1.65215  0.0000E+00  0.3503E-05  0.1148E-07  0.1007E-03  0.2683E-02  0.7321E+00
   -1.169052    1.65456  0.0000E+00  0.2954E-05  0.8924E-08  0.8944E-04  0.2266E-02  0.1339E+01
   -1.237822    1.65834  0.0000E+00  0.2484E-05  0.6959E-08  0.7869E-04  0.1886E-02  0.4762E+01
   -1.306593    1.66427  0.0000E+00  0.2084E-05  0.5443E-08  0.6819E-04  0.1556E-02  0.5428E+02
   -1.375363    1.66996  0.0000E+00  0.1739E-05  0.4256E-08  0.5762E-04  0.1276E-02  0.1627E+04
   -1.444133    1.67640  0.0000E+00  0.1433E-05  0.3306E-08  0.4678E-04  0.1029E-02  0.8358E+05
   -1.512904    1.68706  0.0000E+00  0.1159E-05  0.2527E-08  0.3806E-04  0.7977E-03  0.4889E+07
   -1.581674    1.69991  0.0000E+00  0.9177E-06  0.1897E-08  0.3037E-04  0.6039E-03  0.3321E+09
   -1.650444    1.71309  0.0000E+00  0.7100E-06  0.1395E-08  0.2325E-04  0.4491E-03  0.2818E+11
   -1.719214    1.72908  0.0000E+00  0.5334E-06  0.9993E-09  0.1702E-04  0.3246E-03  0.2751E+13
   -1.787984    1.75024  0.0000E+00  0.3861E-06  0.6926E-09  0.1195E-04  0.2252E-03  0.1534E+15
   -1.856754    1.77904  0.0000E+00  0.2706E-06  0.4650E-09  0.8118E-05  0.1484E-03  0.2829E+15
   -1.925524    1.81205  0.0000E+00  0.1844E-06  0.3029E-09  0.5291E-05  0.9419E-04  0.3151E+15
   -1.994293    1.84013  0.0000E+00  0.1224E-06  0.1914E-09  0.3558E-05  0.5694E-04  0.2976E+15
   -2.063062    1.85611  0.0000E+00  0.7661E-07  0.1153E-09  0.1896E-05  0.3307E-04  0.1003E+16
   -2.131830    1.90636  0.0000E+00  0.4401E-07  0.6399E-10  0.8054E-06  0.1724E-04  0.2671E+16
   -2.200598    2.03168  0.0000E+00  0.2451E-07  0.3252E-10  0.1621E-06  0.7757E-05  0.5516E+16
   -2.269366    2.33185  0.0000E+00  0.2900E-07  0.2311E-10  0.2026E-07  0.1982E-05  0.6853E+16
   -2.338133    2.92913  0.0000E+00  0.5239E-07  0.3683E-10  0.1653E-04  0.1256E-06  0.4681E+16
   -2.406900    3.54175  0.0000E+00  0.8022E-07  0.6048E-10  0.3541E-04  0.4933E-08  0.1516E+16
   -2.475667    4.07646  0.0000E+00  0.1046E-06  0.8670E-10  0.4958E-04  0.1594E-09  0.2524E+14
   -2.544432    4.20599  0.0000E+00  0.1187E-06  0.1126E-09  0.4964E-04  0.3461E-11 -0.2391E+14
   -2.613198    4.21361  0.0000E+00  0.1195E-06  0.1483E-09  0.3310E-04  0.7657E-12 -0.4088E+14
   -2.681962    4.22551  0.0000E+00  0.8806E-07  0.3659E-09  0.5032E-05  0.1125E-12 -0.3471E+15
   -2.750726    4.30815  0.0000E+00  0.0000E+00  0.0000E+00  0.0000E+00  0.1198E-12  0.0000E+00
