 1 - depth, m
 2 - temperature, C
 3 - salinity, kg/kg
 4 - turbulent kinetic energy, m**2/s**2
 5 - dissipation rate, m**2/s**3
 6 - kinematic heat conductance, m**2/s
 7 - modulus of horizontal velocity, m/s
 8 - Richardson number, n/d
   -0.000000    0.00000  0.0000E+00  0.1219E-13  0.7603E-17  0.1000E-09  0.0000E+00  0.1381E+17
   -0.068750    0.21321  0.0000E+00  0.1219E-13  0.7603E-17  0.1000E-09  0.0000E+00  0.1262E+17
   -0.137501    0.42003  0.0000E+00  0.1219E-13  0.7603E-17  0.1000E-09  0.0000E+00  0.1152E+17
   -0.206252    0.62060  0.0000E+00  0.4325E-13  0.7604E-17  0.1000E-09  0.0000E+00  0.1050E+17
   -0.275004    0.81507  0.0000E+00  0.1232E-12  0.1229E-16  0.1000E-09  0.0000E+00  0.9615E+16
   -0.343757    1.00488  0.0000E+00  0.2823E-12  0.2433E-16  0.1000E-09  0.0000E+00  0.8801E+16
   -0.412510    1.19049  0.0000E+00  0.5981E-12  0.4899E-16  0.1000E-09  0.0000E+00  0.8044E+16
   -0.481264    1.37220  0.0000E+00  0.1230E-11  0.9785E-16  0.1000E-09  0.0000E+00  0.7330E+16
   -0.550017    1.55010  0.0000E+00  0.2496E-11  0.1940E-15  0.1000E-09  0.0000E+00  0.6636E+16
   -0.618772    1.72371  0.0000E+00  0.5027E-11  0.3821E-15  0.1000E-09  0.0000E+00  0.5991E+16
   -0.687527    1.89327  0.0000E+00  0.1005E-10  0.7478E-15  0.1000E-09  0.0000E+00  0.5481E+16
   -0.756282    2.06192  0.0000E+00  0.1997E-10  0.1454E-14  0.1000E-09  0.0000E+00  0.5041E+16
   -0.825037    2.23178  0.0000E+00  0.3941E-10  0.2811E-14  0.1000E-09  0.0000E+00  0.4603E+16
   -0.893793    2.40321  0.0000E+00  0.7732E-10  0.5401E-14  0.1000E-09  0.0000E+00  0.4161E+16
   -0.962549    2.57651  0.0000E+00  0.1508E-09  0.1032E-13  0.1000E-09  0.0000E+00  0.3710E+16
   -1.031305    2.75192  0.0000E+00  0.2920E-09  0.1958E-13  0.1000E-09  0.0000E+00  0.3249E+16
   -1.100061    2.92971  0.0000E+00  0.5615E-09  0.3690E-13  0.1000E-09  0.0000E+00  0.2770E+16
   -1.168818    3.10990  0.0000E+00  0.1073E-08  0.6912E-13  0.1549E-09  0.0000E+00  0.2272E+16
   -1.237574    3.29232  0.0000E+00  0.2039E-08  0.1288E-12  0.3739E-09  0.0000E+00  0.1754E+16
   -1.306331    3.47654  0.0000E+00  0.3852E-08  0.2386E-12  0.9972E-09  0.0000E+00  0.1218E+16
   -1.375088    3.66167  0.0000E+00  0.7227E-08  0.4391E-12  0.3321E-08  0.0000E+00  0.6734E+15
   -1.443844    3.84577  0.0000E+00  0.1332E-07  0.7951E-12  0.2666E-07  0.0000E+00  0.1521E+15
   -1.512601    4.00554  0.0000E+00  0.1380E-07  0.8256E-12  0.8694E-04  0.0000E+00 -0.7595E+11
   -1.581358    4.00579  0.0000E+00  0.1403E-07  0.8426E-12  0.8455E-04  0.0000E+00 -0.9449E+11
   -1.650114    4.00610  0.0000E+00  0.1423E-07  0.8615E-12  0.8650E-04  0.0000E+00 -0.9748E+11
   -1.718870    4.00641  0.0000E+00  0.1443E-07  0.8828E-12  0.8729E-04  0.0000E+00 -0.1003E+12
   -1.787627    4.00672  0.0000E+00  0.1460E-07  0.9067E-12  0.8881E-04  0.0000E+00 -0.1019E+12
   -1.856383    4.00704  0.0000E+00  0.1474E-07  0.9324E-12  0.9005E-04  0.0000E+00 -0.1037E+12
   -1.925138    4.00736  0.0000E+00  0.1486E-07  0.9602E-12  0.9000E-04  0.0000E+00 -0.1072E+12
   -1.993894    4.00768  0.0000E+00  0.1496E-07  0.9915E-12  0.8903E-04  0.0000E+00 -0.1120E+12
   -2.062649    4.00801  0.0000E+00  0.1503E-07  0.1029E-11  0.8638E-04  0.0000E+00 -0.1180E+12
   -2.131404    4.00836  0.0000E+00  0.1508E-07  0.1075E-11  0.8172E-04  0.0000E+00 -0.1275E+12
   -2.200158    4.00872  0.0000E+00  0.1510E-07  0.1133E-11  0.7337E-04  0.0000E+00 -0.1452E+12
   -2.268912    4.00913  0.0000E+00  0.1508E-07  0.1206E-11  0.6465E-04  0.0000E+00 -0.1692E+12
   -2.337666    4.00960  0.0000E+00  0.1500E-07  0.1306E-11  0.5636E-04  0.0000E+00 -0.2002E+12
   -2.406419    4.01014  0.0000E+00  0.1485E-07  0.1447E-11  0.4765E-04  0.0000E+00 -0.2459E+12
   -2.475171    4.01079  0.0000E+00  0.1459E-07  0.1667E-11  0.3774E-04  0.0000E+00 -0.3255E+12
   -2.543923    4.01163  0.0000E+00  0.1414E-07  0.2065E-11  0.2630E-04  0.0000E+00 -0.5009E+12
   -2.612675    4.01286  0.0000E+00  0.1319E-07  0.3056E-11  0.1342E-04  0.0000E+00 -0.1111E+13
   -2.681425    4.01541  0.0000E+00  0.9049E-08  0.9822E-11  0.1488E-05  0.0000E+00 -0.1642E+14
   -2.750175    4.04057  0.0000E+00  0.0000E+00  0.0000E+00  0.0000E+00  0.0000E+00  0.0000E+00
