 1 - depth, m
 2 - temperature, C
 3 - salinity, kg/kg
 4 - turbulent kinetic energy, m**2/s**2
 5 - dissipation rate, m**2/s**3
 6 - kinematic heat conductance, m**2/s
 7 - modulus of horizontal velocity, m/s
 8 - Richardson number, n/d
   -0.000000    0.00000  0.0000E+00  0.1218E-13  0.7603E-17  0.1000E-09  0.0000E+00  0.1101E+17
   -0.068735    0.16906  0.0000E+00  0.1218E-13  0.7603E-17  0.1000E-09  0.0000E+00  0.1105E+17
   -0.137471    0.34711  0.0000E+00  0.1218E-13  0.7603E-17  0.1000E-09  0.0000E+00  0.1088E+17
   -0.206207    0.53187  0.0000E+00  0.3261E-13  0.7603E-17  0.1000E-09  0.0000E+00  0.1051E+17
   -0.274944    0.72100  0.0000E+00  0.1025E-12  0.9149E-17  0.1000E-09  0.0000E+00  0.1006E+17
   -0.343681    0.91345  0.0000E+00  0.2331E-12  0.1562E-16  0.1000E-09  0.0000E+00  0.9505E+16
   -0.412419    1.10776  0.0000E+00  0.4675E-12  0.2849E-16  0.1000E-09  0.0000E+00  0.8879E+16
   -0.481157    1.30261  0.0000E+00  0.8906E-12  0.5197E-16  0.1000E-09  0.0000E+00  0.8204E+16
   -0.549896    1.49680  0.0000E+00  0.1659E-11  0.9407E-16  0.1000E-09  0.0000E+00  0.7487E+16
   -0.618635    1.68895  0.0000E+00  0.3052E-11  0.1689E-15  0.1000E-09  0.0000E+00  0.6769E+16
   -0.687375    1.87830  0.0000E+00  0.5564E-11  0.3009E-15  0.1000E-09  0.0000E+00  0.6073E+16
   -0.756115    2.06459  0.0000E+00  0.1006E-10  0.5321E-15  0.1000E-09  0.0000E+00  0.5401E+16
   -0.824855    2.24751  0.0000E+00  0.1806E-10  0.9341E-15  0.1000E-09  0.0000E+00  0.4750E+16
   -0.893595    2.42659  0.0000E+00  0.3219E-10  0.1628E-14  0.1000E-09  0.0000E+00  0.4126E+16
   -0.962336    2.60133  0.0000E+00  0.5694E-10  0.2817E-14  0.1000E-09  0.0000E+00  0.3532E+16
   -1.031077    2.77122  0.0000E+00  0.9989E-10  0.4834E-14  0.1000E-09  0.0000E+00  0.2987E+16
   -1.099818    2.93658  0.0000E+00  0.1738E-09  0.8226E-14  0.1000E-09  0.0000E+00  0.2476E+16
   -1.168559    3.09714  0.0000E+00  0.2999E-09  0.1389E-13  0.1000E-09  0.0000E+00  0.2003E+16
   -1.237301    3.25270  0.0000E+00  0.5137E-09  0.2327E-13  0.1000E-09  0.0000E+00  0.1569E+16
   -1.306042    3.40329  0.0000E+00  0.8732E-09  0.3871E-13  0.1688E-09  0.0000E+00  0.1175E+16
   -1.374784    3.54913  0.0000E+00  0.1473E-08  0.6388E-13  0.3936E-09  0.0000E+00  0.8339E+15
   -1.443525    3.69424  0.0000E+00  0.2464E-08  0.1046E-12  0.1069E-08  0.0000E+00  0.5054E+15
   -1.512266    3.84123  0.0000E+00  0.4084E-08  0.1697E-12  0.5396E-08  0.0000E+00  0.1654E+15
   -1.581008    3.98894  0.0000E+00  0.4412E-08  0.1836E-12  0.2803E-04  0.0000E+00 -0.1630E+11
   -1.649749    3.99021  0.0000E+00  0.4578E-08  0.1920E-12  0.3220E-04  0.0000E+00 -0.4169E+11
   -1.718490    3.99093  0.0000E+00  0.4727E-08  0.2010E-12  0.3477E-04  0.0000E+00 -0.4559E+11
   -1.787231    3.99157  0.0000E+00  0.4865E-08  0.2107E-12  0.3648E-04  0.0000E+00 -0.4887E+11
   -1.855972    3.99216  0.0000E+00  0.4990E-08  0.2214E-12  0.3743E-04  0.0000E+00 -0.5225E+11
   -1.924712    3.99273  0.0000E+00  0.5103E-08  0.2331E-12  0.3773E-04  0.0000E+00 -0.5603E+11
   -1.993453    3.99328  0.0000E+00  0.5203E-08  0.2462E-12  0.3740E-04  0.0000E+00 -0.6047E+11
   -2.062193    3.99383  0.0000E+00  0.5290E-08  0.2610E-12  0.3664E-04  0.0000E+00 -0.6607E+11
   -2.130932    3.99438  0.0000E+00  0.5361E-08  0.2780E-12  0.3534E-04  0.0000E+00 -0.7315E+11
   -2.199671    3.99495  0.0000E+00  0.5414E-08  0.2980E-12  0.3345E-04  0.0000E+00 -0.8233E+11
   -2.268410    3.99554  0.0000E+00  0.5447E-08  0.3225E-12  0.3098E-04  0.0000E+00 -0.9489E+11
   -2.337148    3.99619  0.0000E+00  0.5454E-08  0.3546E-12  0.2775E-04  0.0000E+00 -0.1134E+12
   -2.405886    3.99690  0.0000E+00  0.5427E-08  0.3995E-12  0.2367E-04  0.0000E+00 -0.1433E+12
   -2.474624    3.99774  0.0000E+00  0.5348E-08  0.4688E-12  0.1870E-04  0.0000E+00 -0.1978E+12
   -2.543360    3.99880  0.0000E+00  0.5173E-08  0.5955E-12  0.1277E-04  0.0000E+00 -0.3250E+12
   -2.612097    4.00037  0.0000E+00  0.4757E-08  0.9200E-12  0.6099E-05  0.0000E+00 -0.8244E+12
   -2.680832    4.00372  0.0000E+00  0.3161E-08  0.2869E-11  0.6885E-06  0.0000E+00 -0.1377E+14
   -2.749567    4.03169  0.0000E+00  0.0000E+00  0.0000E+00  0.0000E+00  0.0000E+00  0.0000E+00
