 1 - depth, m
 2 - temperature, C
 3 - salinity, kg/kg
 4 - turbulent kinetic energy, m**2/s**2
 5 - dissipation rate, m**2/s**3
 6 - kinematic heat conductance, m**2/s
 7 - modulus of horizontal velocity, m/s
 8 - Richardson number, n/d
   -0.000000    0.00000  0.0000E+00  0.1219E-13  0.7603E-17  0.1000E-09  0.0000E+00  0.1334E+17
   -0.068756    0.20584  0.0000E+00  0.1219E-13  0.7603E-17  0.1000E-09  0.0000E+00  0.1220E+17
   -0.137514    0.40515  0.0000E+00  0.1219E-13  0.7603E-17  0.1000E-09  0.0000E+00  0.1115E+17
   -0.206271    0.59805  0.0000E+00  0.1219E-13  0.7603E-17  0.1000E-09  0.0000E+00  0.1016E+17
   -0.275029    0.78466  0.0000E+00  0.1219E-13  0.7603E-17  0.1000E-09  0.0000E+00  0.9329E+16
   -0.343788    0.96669  0.0000E+00  0.5309E-13  0.7990E-17  0.1000E-09  0.0000E+00  0.8565E+16
   -0.412548    1.14461  0.0000E+00  0.1454E-12  0.1559E-16  0.1000E-09  0.0000E+00  0.7854E+16
   -0.481308    1.31868  0.0000E+00  0.3383E-12  0.3322E-16  0.1000E-09  0.0000E+00  0.7179E+16
   -0.550068    1.48888  0.0000E+00  0.7465E-12  0.7061E-16  0.1000E-09  0.0000E+00  0.6514E+16
   -0.618828    1.65452  0.0000E+00  0.1614E-11  0.1486E-15  0.1000E-09  0.0000E+00  0.5896E+16
   -0.687590    1.81576  0.0000E+00  0.3448E-11  0.3100E-15  0.1000E-09  0.0000E+00  0.5421E+16
   -0.756351    1.97583  0.0000E+00  0.7305E-11  0.6414E-15  0.1000E-09  0.0000E+00  0.5023E+16
   -0.825113    2.13691  0.0000E+00  0.1535E-10  0.1317E-14  0.1000E-09  0.0000E+00  0.4630E+16
   -0.893875    2.29939  0.0000E+00  0.3203E-10  0.2686E-14  0.1000E-09  0.0000E+00  0.4237E+16
   -0.962637    2.46365  0.0000E+00  0.6634E-10  0.5438E-14  0.1000E-09  0.0000E+00  0.3840E+16
   -1.031399    2.63007  0.0000E+00  0.1362E-09  0.1092E-13  0.1000E-09  0.0000E+00  0.3439E+16
   -1.100162    2.79925  0.0000E+00  0.2775E-09  0.2176E-13  0.1000E-09  0.0000E+00  0.3023E+16
   -1.168925    2.97149  0.0000E+00  0.5611E-09  0.4304E-13  0.1000E-09  0.0000E+00  0.2587E+16
   -1.237688    3.14699  0.0000E+00  0.1127E-08  0.8458E-13  0.2026E-09  0.0000E+00  0.2125E+16
   -1.306451    3.32577  0.0000E+00  0.2248E-08  0.1651E-12  0.5132E-09  0.0000E+00  0.1638E+16
   -1.375213    3.50770  0.0000E+00  0.4451E-08  0.3202E-12  0.1444E-08  0.0000E+00  0.1129E+16
   -1.443976    3.69335  0.0000E+00  0.8737E-08  0.6157E-12  0.5363E-08  0.0000E+00  0.5849E+15
   -1.512739    3.87956  0.0000E+00  0.1650E-07  0.1144E-11  0.7020E-07  0.0000E+00  0.8389E+14
   -1.581502    4.01321  0.0000E+00  0.1712E-07  0.1189E-11  0.9220E-04  0.0000E+00 -0.1067E+12
   -1.650265    4.01346  0.0000E+00  0.1740E-07  0.1214E-11  0.9174E-04  0.0000E+00 -0.1293E+12
   -1.719028    4.01376  0.0000E+00  0.1766E-07  0.1242E-11  0.9473E-04  0.0000E+00 -0.1312E+12
   -1.787790    4.01407  0.0000E+00  0.1791E-07  0.1276E-11  0.9312E-04  0.0000E+00 -0.1381E+12
   -1.856552    4.01438  0.0000E+00  0.1813E-07  0.1312E-11  0.9704E-04  0.0000E+00 -0.1367E+12
   -1.925314    4.01469  0.0000E+00  0.1829E-07  0.1349E-11  0.9734E-04  0.0000E+00 -0.1405E+12
   -1.994076    4.01501  0.0000E+00  0.1842E-07  0.1389E-11  0.9652E-04  0.0000E+00 -0.1461E+12
   -2.062837    4.01533  0.0000E+00  0.1851E-07  0.1434E-11  0.9447E-04  0.0000E+00 -0.1520E+12
   -2.131598    4.01566  0.0000E+00  0.1858E-07  0.1489E-11  0.9164E-04  0.0000E+00 -0.1592E+12
   -2.200359    4.01601  0.0000E+00  0.1860E-07  0.1560E-11  0.8563E-04  0.0000E+00 -0.1733E+12
   -2.269119    4.01638  0.0000E+00  0.1858E-07  0.1654E-11  0.7441E-04  0.0000E+00 -0.2034E+12
   -2.337879    4.01681  0.0000E+00  0.1848E-07  0.1782E-11  0.6367E-04  0.0000E+00 -0.2436E+12
   -2.406639    4.01731  0.0000E+00  0.1830E-07  0.1966E-11  0.5351E-04  0.0000E+00 -0.2985E+12
   -2.475397    4.01792  0.0000E+00  0.1799E-07  0.2249E-11  0.4251E-04  0.0000E+00 -0.3905E+12
   -2.544156    4.01870  0.0000E+00  0.1743E-07  0.2763E-11  0.2983E-04  0.0000E+00 -0.5897E+12
   -2.612913    4.01984  0.0000E+00  0.1628E-07  0.4035E-11  0.1541E-04  0.0000E+00 -0.1267E+13
   -2.681671    4.02217  0.0000E+00  0.1102E-07  0.1301E-10  0.1618E-05  0.0000E+00 -0.1832E+14
   -2.750427    4.04653  0.0000E+00  0.0000E+00  0.0000E+00  0.0000E+00  0.0000E+00  0.0000E+00
