 1 - depth, m
 2 - temperature, C
 3 - salinity, kg/kg
 4 - turbulent kinetic energy, m**2/s**2
 5 - dissipation rate, m**2/s**3
 6 - kinematic heat conductance, m**2/s
 7 - modulus of horizontal velocity, m/s
 8 - Richardson number, n/d
   -0.000000    0.00000  0.0000E+00  0.4765E-10  0.2530E-13  0.1000E-09  0.5097E-37  0.2219E+17
   -0.068755    0.34920  0.0000E+00  0.2093E-09  0.1904E-13  0.1000E-09  0.1243E-37  0.1286E+17
   -0.137510    0.56904  0.0000E+00  0.5083E-09  0.2422E-13  0.1000E-09  0.2962E-38  0.6830E+16
   -0.206265    0.69213  0.0000E+00  0.1002E-08  0.3785E-13  0.1004E-09  0.6998E-39  0.3005E+16
   -0.275022    0.74792  0.0000E+00  0.1816E-08  0.6248E-13  0.2434E-09  0.2155E-39  0.1310E+16
   -0.343779    0.77262  0.0000E+00  0.3167E-08  0.1040E-12  0.8479E-09  0.6867E-40  0.6259E+15
   -0.412536    0.78450  0.0000E+00  0.5423E-08  0.1726E-12  0.1806E-08  0.2138E-40  0.4703E+15
   -0.481294    0.79343  0.0000E+00  0.9192E-08  0.2851E-12  0.3142E-08  0.6142E-41  0.4799E+15
   -0.550053    0.80254  0.0000E+00  0.1535E-07  0.4661E-12  0.1539E-07  0.1478E-41  0.2400E+15
   -0.618811    0.80709  0.0000E+00  0.1874E-07  0.5694E-12  0.1165E-03  0.3466E-42  0.7090E+14
   -0.687570    0.80842  0.0000E+00  0.2070E-07  0.6277E-12  0.2131E-03  0.7648E-43  0.1044E+14
   -0.756330    0.80861  0.0000E+00  0.2077E-07  0.6299E-12  0.2892E-03  0.6460E-44 -0.6049E+11
   -0.825090    0.80861  0.0000E+00  0.2077E-07  0.6301E-12  0.2993E-03  0.5922E-44 -0.5708E+11
   -0.893850    0.80861  0.0000E+00  0.2073E-07  0.6290E-12  0.2524E-03  0.5619E-44 -0.3435E+11
   -0.962610    0.80861  0.0000E+00  0.2061E-07  0.6258E-12  0.1047E-03  0.5402E-44  0.6961E+13
   -1.031371    0.80875  0.0000E+00  0.1670E-07  0.5128E-12  0.5473E-08  0.5309E-44  0.5076E+15
   -1.100131    0.81847  0.0000E+00  0.1082E-07  0.3399E-12  0.1525E-08  0.1311E-44  0.1152E+16
   -1.168892    0.84063  0.0000E+00  0.6981E-08  0.2249E-12  0.6244E-09  0.3107E-45  0.1845E+16
   -1.237653    0.87645  0.0000E+00  0.4487E-08  0.1486E-12  0.2975E-09  0.7163E-46  0.2548E+16
   -1.306414    0.92662  0.0000E+00  0.2860E-08  0.9814E-13  0.1551E-09  0.1608E-46  0.3218E+16
   -1.375175    0.99125  0.0000E+00  0.1796E-08  0.6498E-13  0.1005E-09  0.3512E-47  0.4364E+16
   -1.443936    1.08129  0.0000E+00  0.1098E-08  0.4386E-13  0.1000E-09  0.7391E-48  0.5536E+16
   -1.512697    1.19994  0.0000E+00  0.6424E-09  0.3183E-13  0.1000E-09  0.1147E-48  0.6222E+16
   -1.581458    1.33999  0.0000E+00  0.3603E-09  0.2849E-13  0.1000E-09  0.1539E-49  0.6784E+16
   -1.650219    1.50224  0.0000E+00  0.2414E-09  0.3949E-13  0.1000E-09  0.1976E-50  0.7544E+16
   -1.718980    1.69696  0.0000E+00  0.3698E-09  0.9313E-13  0.1000E-09  0.2421E-51  0.8553E+16
   -1.787740    1.94135  0.0000E+00  0.1114E-08  0.2936E-12  0.1643E-09  0.2826E-52  0.9656E+16
   -1.856501    2.26071  0.0000E+00  0.3826E-08  0.9837E-12  0.4900E-09  0.3132E-53  0.1026E+17
   -1.925261    2.68784  0.0000E+00  0.1314E-07  0.3278E-11  0.1941E-08  0.3289E-54  0.9045E+16
   -1.994021    3.25497  0.0000E+00  0.4377E-07  0.1062E-10  0.1974E-07  0.3261E-55  0.4234E+16
   -2.062780    3.91898  0.0000E+00  0.6332E-07  0.1589E-10  0.6157E-04  0.3029E-56  0.3016E+15
   -2.131539    4.08342  0.0000E+00  0.6685E-07  0.1696E-10  0.9875E-04  0.1108E-57 -0.1747E+13
   -2.200298    4.08459  0.0000E+00  0.6874E-07  0.1778E-10  0.1000E-03  0.7044E-58 -0.1857E+13
   -2.269056    4.08580  0.0000E+00  0.7010E-07  0.1869E-10  0.1007E-03  0.4169E-58 -0.1907E+13
   -2.337814    4.08703  0.0000E+00  0.7099E-07  0.1981E-10  0.9820E-04  0.2380E-58 -0.2009E+13
   -2.406572    4.08831  0.0000E+00  0.7140E-07  0.2130E-10  0.9164E-04  0.1309E-58 -0.2217E+13
   -2.475329    4.08971  0.0000E+00  0.7119E-07  0.2365E-10  0.7739E-04  0.6730E-59 -0.2726E+13
   -2.544085    4.09142  0.0000E+00  0.6991E-07  0.2800E-10  0.5577E-04  0.2792E-59 -0.4016E+13
   -2.612841    4.09387  0.0000E+00  0.6624E-07  0.3842E-10  0.3173E-04  0.8860E-60 -0.7863E+13
   -2.681596    4.09852  0.0000E+00  0.4486E-07  0.1164E-09  0.3417E-05  0.1594E-60 -0.1092E+15
   -2.750351    4.14960  0.0000E+00  0.0000E+00  0.0000E+00  0.0000E+00  0.1775E-60  0.0000E+00
