 1 - depth, m
 2 - temperature, C
 3 - salinity, kg/kg
 4 - turbulent kinetic energy, m**2/s**2
 5 - dissipation rate, m**2/s**3
 6 - kinematic heat conductance, m**2/s
 7 - modulus of horizontal velocity, m/s
 8 - Richardson number, n/d
   -0.000000    0.00000  0.0000E+00  0.3843E-12  0.6668E-16  0.1000E-09  0.0000E+00  0.1674E+17
   -0.068736    0.26025  0.0000E+00  0.8074E-12  0.7312E-16  0.1000E-09  0.0000E+00  0.1544E+17
   -0.137474    0.51872  0.0000E+00  0.1704E-11  0.1189E-15  0.1000E-09  0.0000E+00  0.1414E+17
   -0.206211    0.77479  0.0000E+00  0.3374E-11  0.2150E-15  0.1000E-09  0.0000E+00  0.1286E+17
   -0.274950    1.02788  0.0000E+00  0.6440E-11  0.3944E-15  0.1000E-09  0.0000E+00  0.1162E+17
   -0.343688    1.27796  0.0000E+00  0.1205E-10  0.7206E-15  0.1000E-09  0.0000E+00  0.1041E+17
   -0.412428    1.52462  0.0000E+00  0.2233E-10  0.1309E-14  0.1000E-09  0.0000E+00  0.9244E+16
   -0.481168    1.76744  0.0000E+00  0.4111E-10  0.2366E-14  0.1000E-09  0.0000E+00  0.8112E+16
   -0.549908    2.00588  0.0000E+00  0.7540E-10  0.4262E-14  0.1000E-09  0.0000E+00  0.7016E+16
   -0.618649    2.23912  0.0000E+00  0.1378E-09  0.7652E-14  0.1000E-09  0.0000E+00  0.5971E+16
   -0.687390    2.46644  0.0000E+00  0.2507E-09  0.1368E-13  0.1000E-09  0.0000E+00  0.5010E+16
   -0.756131    2.68840  0.0000E+00  0.4544E-09  0.2437E-13  0.1000E-09  0.0000E+00  0.4109E+16
   -0.824873    2.90475  0.0000E+00  0.8201E-09  0.4322E-13  0.1000E-09  0.0000E+00  0.3255E+16
   -0.893615    3.11421  0.0000E+00  0.1474E-08  0.7635E-13  0.1579E-09  0.0000E+00  0.2462E+16
   -0.962357    3.31540  0.0000E+00  0.2638E-08  0.1343E-12  0.3919E-09  0.0000E+00  0.1744E+16
   -1.031099    3.50729  0.0000E+00  0.4695E-08  0.2350E-12  0.1072E-08  0.0000E+00  0.1116E+16
   -1.099842    3.68983  0.0000E+00  0.8299E-08  0.4085E-12  0.3644E-08  0.0000E+00  0.5705E+15
   -1.168585    3.86253  0.0000E+00  0.1441E-07  0.6985E-12  0.3027E-07  0.0000E+00  0.1174E+15
   -1.237328    4.00509  0.0000E+00  0.1474E-07  0.7155E-12  0.1142E-03  0.0000E+00 -0.5499E+11
   -1.306071    4.00527  0.0000E+00  0.1489E-07  0.7250E-12  0.1106E-03  0.0000E+00 -0.6297E+11
   -1.374814    4.00548  0.0000E+00  0.1504E-07  0.7356E-12  0.1138E-03  0.0000E+00 -0.6319E+11
   -1.443557    4.00569  0.0000E+00  0.1517E-07  0.7469E-12  0.1163E-03  0.0000E+00 -0.6310E+11
   -1.512299    4.00590  0.0000E+00  0.1528E-07  0.7587E-12  0.1180E-03  0.0000E+00 -0.6323E+11
   -1.581042    4.00611  0.0000E+00  0.1537E-07  0.7713E-12  0.1179E-03  0.0000E+00 -0.6426E+11
   -1.649785    4.00631  0.0000E+00  0.1546E-07  0.7852E-12  0.1171E-03  0.0000E+00 -0.6567E+11
   -1.718528    4.00652  0.0000E+00  0.1553E-07  0.8005E-12  0.1160E-03  0.0000E+00 -0.6731E+11
   -1.787270    4.00673  0.0000E+00  0.1559E-07  0.8176E-12  0.1146E-03  0.0000E+00 -0.6924E+11
   -1.856012    4.00695  0.0000E+00  0.1563E-07  0.8368E-12  0.1127E-03  0.0000E+00 -0.7151E+11
   -1.924754    4.00717  0.0000E+00  0.1567E-07  0.8585E-12  0.1105E-03  0.0000E+00 -0.7418E+11
   -1.993496    4.00739  0.0000E+00  0.1568E-07  0.8831E-12  0.1078E-03  0.0000E+00 -0.7736E+11
   -2.062238    4.00763  0.0000E+00  0.1568E-07  0.9120E-12  0.1046E-03  0.0000E+00 -0.8093E+11
   -2.130979    4.00787  0.0000E+00  0.1566E-07  0.9493E-12  0.1007E-03  0.0000E+00 -0.8533E+11
   -2.199719    4.00812  0.0000E+00  0.1561E-07  0.9990E-12  0.8827E-04  0.0000E+00 -0.9889E+11
   -2.268460    4.00841  0.0000E+00  0.1553E-07  0.1064E-11  0.7505E-04  0.0000E+00 -0.1185E+12
   -2.337199    4.00875  0.0000E+00  0.1539E-07  0.1153E-11  0.6375E-04  0.0000E+00 -0.1427E+12
   -2.405939    4.00915  0.0000E+00  0.1519E-07  0.1280E-11  0.5297E-04  0.0000E+00 -0.1766E+12
   -2.474678    4.00964  0.0000E+00  0.1489E-07  0.1479E-11  0.4130E-04  0.0000E+00 -0.2346E+12
   -2.543416    4.01027  0.0000E+00  0.1440E-07  0.1843E-11  0.2826E-04  0.0000E+00 -0.3611E+12
   -2.612154    4.01121  0.0000E+00  0.1341E-07  0.2755E-11  0.1410E-04  0.0000E+00 -0.7938E+12
   -2.680891    4.01317  0.0000E+00  0.8949E-08  0.9296E-11  0.1393E-05  0.0000E+00 -0.1192E+14
   -2.749627    4.03368  0.0000E+00  0.0000E+00  0.0000E+00  0.0000E+00  0.0000E+00  0.0000E+00
