 1 - depth, m
 2 - temperature, C
 3 - salinity, kg/kg
 4 - turbulent kinetic energy, m**2/s**2
 5 - dissipation rate, m**2/s**3
 6 - kinematic heat conductance, m**2/s
 7 - modulus of horizontal velocity, m/s
 8 - Richardson number, n/d
   -0.000000    0.60355  0.0000E+00  0.2086E-03  0.9207E-04  0.1507E-03  0.1453E+00 -0.5077E-03
   -0.068729    0.64970  0.0000E+00  0.1113E-03  0.2193E-04  0.1859E-03  0.5009E-01  0.2195E-01
   -0.137459    0.65630  0.0000E+00  0.7824E-04  0.8577E-05  0.1711E-03  0.3873E-01  0.8680E-02
   -0.206190    0.66152  0.0000E+00  0.5798E-04  0.3853E-05  0.1711E-03  0.3222E-01  0.1013E-01
   -0.274921    0.66590  0.0000E+00  0.4526E-04  0.1911E-05  0.1770E-03  0.2758E-01  0.2787E-01
   -0.343653    0.66982  0.0000E+00  0.3671E-04  0.1036E-05  0.1856E-03  0.2371E-01  0.1554E-01
   -0.412386    0.67336  0.0000E+00  0.3063E-04  0.6139E-06  0.1938E-03  0.2047E-01  0.1900E-01
   -0.481118    0.67661  0.0000E+00  0.2599E-04  0.3924E-06  0.1993E-03  0.1771E-01  0.2351E-01
   -0.549852    0.67966  0.0000E+00  0.2217E-04  0.2647E-06  0.2031E-03  0.1534E-01  0.3126E-01
   -0.618585    0.68255  0.0000E+00  0.1897E-04  0.1859E-06  0.2025E-03  0.1335E-01  0.4123E-01
   -0.687319    0.68534  0.0000E+00  0.1624E-04  0.1342E-06  0.1981E-03  0.1165E-01  0.5442E-01
   -0.756054    0.68810  0.0000E+00  0.1385E-04  0.9866E-07  0.1901E-03  0.1017E-01  0.7237E-01
   -0.824789    0.69086  0.0000E+00  0.1174E-04  0.7328E-07  0.1788E-03  0.8892E-02  0.9775E-01
   -0.893524    0.69369  0.0000E+00  0.9874E-05  0.5470E-07  0.1648E-03  0.7775E-02  0.1359E+00
   -0.962259    0.69662  0.0000E+00  0.8233E-05  0.4093E-07  0.1491E-03  0.6804E-02  0.1996E+00
   -1.030994    0.69972  0.0000E+00  0.6815E-05  0.3076E-07  0.1291E-03  0.5970E-02  0.2647E+00
   -1.099730    0.70315  0.0000E+00  0.5568E-05  0.2306E-07  0.1079E-03  0.5209E-02  0.3623E+00
   -1.168465    0.70708  0.0000E+00  0.4461E-05  0.1715E-07  0.8581E-04  0.4511E-02  0.5237E+00
   -1.237201    0.71184  0.0000E+00  0.3477E-05  0.1256E-07  0.6349E-04  0.3870E-02  0.8291E+00
   -1.305937    0.71816  0.0000E+00  0.2604E-05  0.8981E-08  0.4183E-04  0.3276E-02  0.1576E+01
   -1.374673    0.72863  0.0000E+00  0.1779E-05  0.6060E-08  0.2149E-04  0.2717E-02  0.4595E+01
   -1.443409    0.82273  0.0000E+00  0.1039E-05  0.3622E-08  0.8266E-05  0.1907E-02  0.5719E+02
   -1.512145    1.16594  0.0000E+00  0.4753E-06  0.1743E-08  0.1764E-05  0.1015E-02  0.1509E+04
   -1.580881    1.63045  0.0000E+00  0.1296E-06  0.5080E-09  0.6425E-07  0.3865E-03  0.5659E+05
   -1.649617    2.06055  0.0000E+00  0.1165E-07  0.4724E-10  0.9344E-08  0.7202E-04  0.2567E+07
   -1.718352    2.32331  0.0000E+00  0.6170E-09  0.3303E-11  0.1526E-08  0.8604E-05  0.1461E+09
   -1.787088    2.46252  0.0000E+00  0.2522E-10  0.1043E-11  0.2054E-09  0.8641E-06  0.1040E+11
   -1.855823    2.55021  0.0000E+00  0.4419E-11  0.1000E-11  0.1000E-09  0.8042E-07  0.8723E+12
   -1.924558    2.61429  0.0000E+00  0.4419E-11  0.1000E-11  0.1000E-09  0.7113E-08  0.8037E+14
   -1.993293    2.66316  0.0000E+00  0.4419E-11  0.1000E-11  0.1000E-09  0.5985E-09  0.3918E+15
   -2.062027    2.69754  0.0000E+00  0.4419E-11  0.1000E-11  0.1000E-09  0.4779E-10  0.1407E+16
   -2.130761    2.78148  0.0000E+00  0.4419E-11  0.1000E-11  0.1000E-09  0.3606E-11  0.2678E+16
   -2.199495    2.93545  0.0000E+00  0.4419E-11  0.1000E-11  0.1000E-09  0.2554E-12  0.3476E+16
   -2.268228    3.17057  0.0000E+00  0.4419E-11  0.1000E-11  0.1000E-09  0.1277E-13  0.3131E+16
   -2.336961    3.46650  0.0000E+00  0.4419E-11  0.1000E-11  0.1000E-09  0.5359E-15  0.1883E+16
   -2.405693    3.79531  0.0000E+00  0.4419E-11  0.1000E-11  0.1000E-09  0.1966E-16 -0.2312E+15
   -2.474425    4.20878  0.0000E+00  0.4419E-11  0.1000E-11  0.1000E-09  0.6067E-18 -0.4919E+16
   -2.543156    4.81588  0.0000E+00  0.4419E-11  0.1000E-11  0.1000E-09  0.1413E-19 -0.1197E+17
   -2.611887    5.48580  0.0000E+00  0.4419E-11  0.1000E-11  0.1000E-09  0.2482E-21 -0.1832E+17
   -2.680617    6.14512  0.0000E+00  0.4419E-11  0.1000E-11  0.1000E-09  0.2905E-23 -0.1181E+17
   -2.749346    6.48087  0.0000E+00  0.0000E+00  0.0000E+00  0.0000E+00  0.2509E-23  0.0000E+00
