 1 - depth, m
 2 - temperature, C
 3 - salinity, kg/kg
 4 - turbulent kinetic energy, m**2/s**2
 5 - dissipation rate, m**2/s**3
 6 - kinematic heat conductance, m**2/s
 7 - modulus of horizontal velocity, m/s
 8 - Richardson number, n/d
   -0.000000    0.00000  0.0000E+00  0.1219E-13  0.7604E-17  0.1000E-09  0.0000E+00  0.9796E+16
   -0.068752    0.14997  0.0000E+00  0.1219E-13  0.7604E-17  0.1000E-09  0.0000E+00  0.9108E+16
   -0.137506    0.29523  0.0000E+00  0.1219E-13  0.7604E-17  0.1000E-09  0.0000E+00  0.8457E+16
   -0.206259    0.43578  0.0000E+00  0.1219E-13  0.7604E-17  0.1000E-09  0.0000E+00  0.7842E+16
   -0.275014    0.57159  0.0000E+00  0.1219E-13  0.7604E-17  0.1000E-09  0.0000E+00  0.7300E+16
   -0.343769    0.70337  0.0000E+00  0.1219E-13  0.7604E-17  0.1000E-09  0.0000E+00  0.6794E+16
   -0.412524    0.83124  0.0000E+00  0.1219E-13  0.7604E-17  0.1000E-09  0.0000E+00  0.6316E+16
   -0.481280    0.95521  0.0000E+00  0.1219E-13  0.7604E-17  0.1000E-09  0.0000E+00  0.5857E+16
   -0.550036    1.07514  0.0000E+00  0.1219E-13  0.7604E-17  0.1000E-09  0.0000E+00  0.5402E+16
   -0.618793    1.19053  0.0000E+00  0.1219E-13  0.7604E-17  0.1000E-09  0.0000E+00  0.4971E+16
   -0.687550    1.30130  0.0000E+00  0.1219E-13  0.7604E-17  0.1000E-09  0.0000E+00  0.4631E+16
   -0.756308    1.40899  0.0000E+00  0.1219E-13  0.7604E-17  0.1000E-09  0.0000E+00  0.4348E+16
   -0.825065    1.51454  0.0000E+00  0.1219E-13  0.7604E-17  0.1000E-09  0.0000E+00  0.4076E+16
   -0.893823    1.61795  0.0000E+00  0.1219E-13  0.7604E-17  0.1000E-09  0.0000E+00  0.3815E+16
   -0.962582    1.71919  0.0000E+00  0.1219E-13  0.7604E-17  0.1000E-09  0.0000E+00  0.3565E+16
   -1.031340    1.81822  0.0000E+00  0.1219E-13  0.7604E-17  0.1000E-09  0.0000E+00  0.3334E+16
   -1.100099    1.91526  0.0000E+00  0.1219E-13  0.7604E-17  0.1000E-09  0.0000E+00  0.3112E+16
   -1.168858    2.01029  0.0000E+00  0.1219E-13  0.7604E-17  0.1000E-09  0.0000E+00  0.2899E+16
   -1.237617    2.10327  0.0000E+00  0.1219E-13  0.7604E-17  0.1000E-09  0.0000E+00  0.2694E+16
   -1.306376    2.19414  0.0000E+00  0.1219E-13  0.7604E-17  0.1000E-09  0.0000E+00  0.2497E+16
   -1.375135    2.28284  0.0000E+00  0.1219E-13  0.7604E-17  0.1000E-09  0.0000E+00  0.2345E+16
   -1.443894    2.37067  0.0000E+00  0.1219E-13  0.7604E-17  0.1000E-09  0.0000E+00  0.2207E+16
   -1.512653    2.45806  0.0000E+00  0.1219E-13  0.7604E-17  0.1000E-09  0.0000E+00  0.2072E+16
   -1.581412    2.54508  0.0000E+00  0.1219E-13  0.7604E-17  0.1000E-09  0.0000E+00  0.1940E+16
   -1.650170    2.63174  0.0000E+00  0.1219E-13  0.7604E-17  0.1000E-09  0.0000E+00  0.1809E+16
   -1.718929    2.71797  0.0000E+00  0.1219E-13  0.7604E-17  0.1000E-09  0.0000E+00  0.1678E+16
   -1.787688    2.80368  0.0000E+00  0.1219E-13  0.7604E-17  0.1000E-09  0.0000E+00  0.1547E+16
   -1.856446    2.88876  0.0000E+00  0.1219E-13  0.7604E-17  0.1000E-09  0.0000E+00  0.1418E+16
   -1.925204    2.97309  0.0000E+00  0.1219E-13  0.7604E-17  0.1000E-09  0.0000E+00  0.1289E+16
   -1.993962    3.05651  0.0000E+00  0.1219E-13  0.7604E-17  0.1000E-09  0.0000E+00  0.1163E+16
   -2.062719    3.13886  0.0000E+00  0.1219E-13  0.7604E-17  0.1000E-09  0.0000E+00  0.1062E+16
   -2.131476    3.22193  0.0000E+00  0.1219E-13  0.7604E-17  0.1000E-09  0.0000E+00  0.9630E+15
   -2.200233    3.30607  0.0000E+00  0.1219E-13  0.7604E-17  0.1000E-09  0.0000E+00  0.8606E+15
   -2.268989    3.39137  0.0000E+00  0.1221E-13  0.9555E-17  0.1000E-09  0.0000E+00  0.7681E+15
   -2.337745    3.47962  0.0000E+00  0.5336E-13  0.5932E-16  0.1000E-09  0.0000E+00  0.6737E+15
   -2.406501    3.57236  0.0000E+00  0.4930E-12  0.5433E-15  0.1000E-09  0.0000E+00  0.5690E+15
   -2.475256    3.67148  0.0000E+00  0.4649E-11  0.5064E-14  0.1000E-09  0.0000E+00  0.4463E+15
   -2.544010    3.78045  0.0000E+00  0.4481E-10  0.4871E-13  0.7348E-09  0.0000E+00  0.2845E+15
   -2.612764    3.90796  0.0000E+00  0.4424E-09  0.4916E-12  0.3363E-07  0.0000E+00  0.2149E+14
   -2.681517    4.04463  0.0000E+00  0.3554E-08  0.5464E-11  0.7654E-06  0.0000E+00 -0.6329E+14
   -2.750269    4.09351  0.0000E+00  0.0000E+00  0.0000E+00  0.0000E+00  0.0000E+00  0.0000E+00
