 1 - depth, m
 2 - temperature, C
 3 - salinity, kg/kg
 4 - turbulent kinetic energy, m**2/s**2
 5 - dissipation rate, m**2/s**3
 6 - kinematic heat conductance, m**2/s
 7 - modulus of horizontal velocity, m/s
 8 - Richardson number, n/d
   -0.000000    0.00000  0.0000E+00  0.1219E-13  0.7603E-17  0.1000E-09  0.0000E+00  0.1373E+17
   -0.068764    0.21195  0.0000E+00  0.1219E-13  0.7603E-17  0.1000E-09  0.0000E+00  0.1232E+17
   -0.137529    0.41366  0.0000E+00  0.1219E-13  0.7603E-17  0.1000E-09  0.0000E+00  0.1100E+17
   -0.206295    0.60448  0.0000E+00  0.1219E-13  0.7603E-17  0.1000E-09  0.0000E+00  0.9763E+16
   -0.275061    0.78392  0.0000E+00  0.1219E-13  0.7603E-17  0.1000E-09  0.0000E+00  0.8752E+16
   -0.343827    0.95430  0.0000E+00  0.1219E-13  0.7603E-17  0.1000E-09  0.0000E+00  0.7845E+16
   -0.412595    1.11607  0.0000E+00  0.1219E-13  0.7603E-17  0.1000E-09  0.0000E+00  0.7022E+16
   -0.481362    1.26944  0.0000E+00  0.1219E-13  0.7603E-17  0.1000E-09  0.0000E+00  0.6263E+16
   -0.550130    1.41431  0.0000E+00  0.5185E-13  0.8310E-17  0.1000E-09  0.0000E+00  0.5524E+16
   -0.618899    1.54956  0.0000E+00  0.1452E-12  0.1702E-16  0.1000E-09  0.0000E+00  0.4872E+16
   -0.687668    1.67566  0.0000E+00  0.3487E-12  0.3777E-16  0.1000E-09  0.0000E+00  0.4464E+16
   -0.756437    1.79785  0.0000E+00  0.7967E-12  0.8334E-16  0.1000E-09  0.0000E+00  0.4207E+16
   -0.825206    1.91986  0.0000E+00  0.1785E-11  0.1820E-15  0.1000E-09  0.0000E+00  0.3986E+16
   -0.893976    2.04277  0.0000E+00  0.3958E-11  0.3938E-15  0.1000E-09  0.0000E+00  0.3793E+16
   -0.962746    2.16767  0.0000E+00  0.8698E-11  0.8453E-15  0.1000E-09  0.0000E+00  0.3619E+16
   -1.031517    2.29567  0.0000E+00  0.1894E-10  0.1799E-14  0.1000E-09  0.0000E+00  0.3474E+16
   -1.100287    2.42875  0.0000E+00  0.4089E-10  0.3795E-14  0.1000E-09  0.0000E+00  0.3325E+16
   -1.169058    2.56805  0.0000E+00  0.8759E-10  0.7949E-14  0.1000E-09  0.0000E+00  0.3157E+16
   -1.237828    2.71471  0.0000E+00  0.1863E-09  0.1653E-13  0.1000E-09  0.0000E+00  0.2956E+16
   -1.306599    2.86977  0.0000E+00  0.3934E-09  0.3415E-13  0.1000E-09  0.0000E+00  0.2707E+16
   -1.375370    3.03409  0.0000E+00  0.8252E-09  0.7010E-13  0.1472E-09  0.0000E+00  0.2425E+16
   -1.444141    3.21087  0.0000E+00  0.1719E-08  0.1429E-12  0.3555E-09  0.0000E+00  0.2048E+16
   -1.512911    3.40099  0.0000E+00  0.3562E-08  0.2899E-12  0.9532E-09  0.0000E+00  0.1551E+16
   -1.581682    3.60401  0.0000E+00  0.7358E-08  0.5865E-12  0.3241E-08  0.0000E+00  0.9241E+15
   -1.650452    3.81682  0.0000E+00  0.1492E-07  0.1167E-11  0.2714E-07  0.0000E+00  0.2216E+15
   -1.719223    4.00939  0.0000E+00  0.1572E-07  0.1233E-11  0.7498E-04  0.0000E+00 -0.1364E+12
   -1.787993    4.00977  0.0000E+00  0.1610E-07  0.1271E-11  0.7426E-04  0.0000E+00 -0.1651E+12
   -1.856763    4.01021  0.0000E+00  0.1642E-07  0.1312E-11  0.7649E-04  0.0000E+00 -0.1721E+12
   -1.925533    4.01067  0.0000E+00  0.1671E-07  0.1357E-11  0.7853E-04  0.0000E+00 -0.1778E+12
   -1.994303    4.01113  0.0000E+00  0.1695E-07  0.1406E-11  0.7977E-04  0.0000E+00 -0.1854E+12
   -2.063072    4.01161  0.0000E+00  0.1715E-07  0.1461E-11  0.7918E-04  0.0000E+00 -0.1928E+12
   -2.131841    4.01209  0.0000E+00  0.1731E-07  0.1526E-11  0.7693E-04  0.0000E+00 -0.2039E+12
   -2.200609    4.01259  0.0000E+00  0.1743E-07  0.1607E-11  0.7257E-04  0.0000E+00 -0.2224E+12
   -2.269377    4.01313  0.0000E+00  0.1749E-07  0.1710E-11  0.6516E-04  0.0000E+00 -0.2552E+12
   -2.338145    4.01373  0.0000E+00  0.1748E-07  0.1847E-11  0.5717E-04  0.0000E+00 -0.3010E+12
   -2.406912    4.01442  0.0000E+00  0.1737E-07  0.2040E-11  0.4879E-04  0.0000E+00 -0.3673E+12
   -2.475679    4.01524  0.0000E+00  0.1714E-07  0.2336E-11  0.3923E-04  0.0000E+00 -0.4803E+12
   -2.544445    4.01629  0.0000E+00  0.1666E-07  0.2868E-11  0.2784E-04  0.0000E+00 -0.7265E+12
   -2.613210    4.01780  0.0000E+00  0.1560E-07  0.4177E-11  0.1456E-04  0.0000E+00 -0.1571E+13
   -2.681975    4.02084  0.0000E+00  0.1080E-07  0.1306E-10  0.1668E-05  0.0000E+00 -0.2219E+14
   -2.750739    4.04978  0.0000E+00  0.0000E+00  0.0000E+00  0.0000E+00  0.0000E+00  0.0000E+00
