 1 - depth, m
 2 - temperature, C
 3 - salinity, kg/kg
 4 - turbulent kinetic energy, m**2/s**2
 5 - dissipation rate, m**2/s**3
 6 - kinematic heat conductance, m**2/s
 7 - modulus of horizontal velocity, m/s
 8 - Richardson number, n/d
   -0.000000    0.00000  0.0000E+00  0.1219E-13  0.7603E-17  0.1000E-09  0.0000E+00  0.1346E+17
   -0.068759    0.20766  0.0000E+00  0.1219E-13  0.7603E-17  0.1000E-09  0.0000E+00  0.1266E+17
   -0.137519    0.41477  0.0000E+00  0.3771E-13  0.7603E-17  0.1000E-09  0.0000E+00  0.1186E+17
   -0.206280    0.62104  0.0000E+00  0.1126E-12  0.1033E-16  0.1000E-09  0.0000E+00  0.1105E+17
   -0.275041    0.82613  0.0000E+00  0.2554E-12  0.1876E-16  0.1000E-09  0.0000E+00  0.1028E+17
   -0.343803    1.03025  0.0000E+00  0.5206E-12  0.3556E-16  0.1000E-09  0.0000E+00  0.9500E+16
   -0.412565    1.23310  0.0000E+00  0.1018E-11  0.6713E-16  0.1000E-09  0.0000E+00  0.8725E+16
   -0.481328    1.43426  0.0000E+00  0.1953E-11  0.1256E-15  0.1000E-09  0.0000E+00  0.7951E+16
   -0.550091    1.63318  0.0000E+00  0.3714E-11  0.2336E-15  0.1000E-09  0.0000E+00  0.7175E+16
   -0.618855    1.82904  0.0000E+00  0.7014E-11  0.4319E-15  0.1000E-09  0.0000E+00  0.6417E+16
   -0.687619    2.02132  0.0000E+00  0.1316E-10  0.7938E-15  0.1000E-09  0.0000E+00  0.5713E+16
   -0.756383    2.21054  0.0000E+00  0.2455E-10  0.1450E-14  0.1000E-09  0.0000E+00  0.5045E+16
   -0.825148    2.39684  0.0000E+00  0.4552E-10  0.2635E-14  0.1000E-09  0.0000E+00  0.4396E+16
   -0.893912    2.57973  0.0000E+00  0.8391E-10  0.4760E-14  0.1000E-09  0.0000E+00  0.3771E+16
   -0.962678    2.75870  0.0000E+00  0.1538E-09  0.8552E-14  0.1000E-09  0.0000E+00  0.3175E+16
   -1.031443    2.93323  0.0000E+00  0.2801E-09  0.1527E-13  0.1000E-09  0.0000E+00  0.2617E+16
   -1.100208    3.10315  0.0000E+00  0.5067E-09  0.2707E-13  0.1000E-09  0.0000E+00  0.2096E+16
   -1.168974    3.26814  0.0000E+00  0.9110E-09  0.4773E-13  0.1506E-09  0.0000E+00  0.1614E+16
   -1.237740    3.42792  0.0000E+00  0.1629E-08  0.8370E-13  0.3633E-09  0.0000E+00  0.1173E+16
   -1.306506    3.58232  0.0000E+00  0.2896E-08  0.1460E-12  0.9620E-09  0.0000E+00  0.7725E+15
   -1.375272    3.73116  0.0000E+00  0.5115E-08  0.2530E-12  0.3107E-08  0.0000E+00  0.4147E+15
   -1.444037    3.87532  0.0000E+00  0.8897E-08  0.4323E-12  0.2320E-07  0.0000E+00  0.9497E+14
   -1.512803    4.00074  0.0000E+00  0.9244E-08  0.4501E-12  0.7391E-04  0.0000E+00 -0.5674E+11
   -1.581569    4.00099  0.0000E+00  0.9404E-08  0.4599E-12  0.7177E-04  0.0000E+00 -0.6505E+11
   -1.650335    4.00127  0.0000E+00  0.9546E-08  0.4703E-12  0.7301E-04  0.0000E+00 -0.6614E+11
   -1.719100    4.00155  0.0000E+00  0.9672E-08  0.4817E-12  0.7382E-04  0.0000E+00 -0.6696E+11
   -1.787866    4.00183  0.0000E+00  0.9783E-08  0.4943E-12  0.7399E-04  0.0000E+00 -0.6821E+11
   -1.856631    4.00210  0.0000E+00  0.9879E-08  0.5086E-12  0.7317E-04  0.0000E+00 -0.7035E+11
   -1.925396    4.00239  0.0000E+00  0.9960E-08  0.5249E-12  0.7140E-04  0.0000E+00 -0.7351E+11
   -1.994160    4.00267  0.0000E+00  0.1002E-07  0.5440E-12  0.6854E-04  0.0000E+00 -0.7813E+11
   -2.062925    4.00298  0.0000E+00  0.1007E-07  0.5663E-12  0.6438E-04  0.0000E+00 -0.8474E+11
   -2.131689    4.00330  0.0000E+00  0.1009E-07  0.5930E-12  0.5971E-04  0.0000E+00 -0.9319E+11
   -2.200452    4.00364  0.0000E+00  0.1009E-07  0.6254E-12  0.5497E-04  0.0000E+00 -0.1034E+12
   -2.269215    4.00402  0.0000E+00  0.1006E-07  0.6660E-12  0.4996E-04  0.0000E+00 -0.1168E+12
   -2.337978    4.00444  0.0000E+00  0.9991E-08  0.7206E-12  0.4414E-04  0.0000E+00 -0.1363E+12
   -2.406740    4.00491  0.0000E+00  0.9871E-08  0.7986E-12  0.3731E-04  0.0000E+00 -0.1672E+12
   -2.475502    4.00548  0.0000E+00  0.9674E-08  0.9203E-12  0.2936E-04  0.0000E+00 -0.2225E+12
   -2.544263    4.00620  0.0000E+00  0.9334E-08  0.1144E-11  0.2020E-04  0.0000E+00 -0.3465E+12
   -2.613024    4.00729  0.0000E+00  0.8629E-08  0.1712E-11  0.9998E-05  0.0000E+00 -0.7945E+12
   -2.681784    4.00958  0.0000E+00  0.5664E-08  0.5540E-11  0.1019E-05  0.0000E+00 -0.1297E+14
   -2.750543    4.03320  0.0000E+00  0.0000E+00  0.0000E+00  0.0000E+00  0.0000E+00  0.0000E+00
