 1 - depth, m
 2 - temperature, C
 3 - salinity, kg/kg
 4 - turbulent kinetic energy, m**2/s**2
 5 - dissipation rate, m**2/s**3
 6 - kinematic heat conductance, m**2/s
 7 - modulus of horizontal velocity, m/s
 8 - Richardson number, n/d
   -0.000000    0.00000  0.0000E+00  0.1219E-13  0.7603E-17  0.1000E-09  0.0000E+00  0.1272E+17
   -0.068730    0.19597  0.0000E+00  0.1219E-13  0.7603E-17  0.1000E-09  0.0000E+00  0.1206E+17
   -0.137461    0.39233  0.0000E+00  0.1219E-13  0.7603E-17  0.1000E-09  0.0000E+00  0.1139E+17
   -0.206193    0.58874  0.0000E+00  0.2236E-13  0.7603E-17  0.1000E-09  0.0000E+00  0.1068E+17
   -0.274925    0.78460  0.0000E+00  0.7612E-13  0.8018E-17  0.1000E-09  0.0000E+00  0.9984E+16
   -0.343658    0.97983  0.0000E+00  0.1791E-12  0.1206E-16  0.1000E-09  0.0000E+00  0.9267E+16
   -0.412391    1.17380  0.0000E+00  0.3553E-12  0.2077E-16  0.1000E-09  0.0000E+00  0.8539E+16
   -0.481125    1.36584  0.0000E+00  0.6572E-12  0.3633E-16  0.1000E-09  0.0000E+00  0.7805E+16
   -0.549859    1.55523  0.0000E+00  0.1179E-11  0.6321E-16  0.1000E-09  0.0000E+00  0.7067E+16
   -0.618594    1.74105  0.0000E+00  0.2084E-11  0.1091E-15  0.1000E-09  0.0000E+00  0.6350E+16
   -0.687329    1.92279  0.0000E+00  0.3647E-11  0.1870E-15  0.1000E-09  0.0000E+00  0.5696E+16
   -0.756064    2.10121  0.0000E+00  0.6335E-11  0.3185E-15  0.1000E-09  0.0000E+00  0.5085E+16
   -0.824800    2.27669  0.0000E+00  0.1093E-10  0.5395E-15  0.1000E-09  0.0000E+00  0.4497E+16
   -0.893536    2.44899  0.0000E+00  0.1877E-10  0.9095E-15  0.1000E-09  0.0000E+00  0.3933E+16
   -0.962272    2.61785  0.0000E+00  0.3206E-10  0.1527E-14  0.1000E-09  0.0000E+00  0.3397E+16
   -1.031009    2.78305  0.0000E+00  0.5447E-10  0.2552E-14  0.1000E-09  0.0000E+00  0.2894E+16
   -1.099745    2.94473  0.0000E+00  0.9211E-10  0.4248E-14  0.1000E-09  0.0000E+00  0.2420E+16
   -1.168482    3.10277  0.0000E+00  0.1553E-09  0.7058E-14  0.1000E-09  0.0000E+00  0.1974E+16
   -1.237219    3.25707  0.0000E+00  0.2612E-09  0.1172E-13  0.1000E-09  0.0000E+00  0.1557E+16
   -1.305956    3.40749  0.0000E+00  0.4390E-09  0.1946E-13  0.1025E-09  0.0000E+00  0.1167E+16
   -1.374692    3.55357  0.0000E+00  0.7378E-09  0.3238E-13  0.2037E-09  0.0000E+00  0.8092E+15
   -1.443429    3.69559  0.0000E+00  0.1242E-08  0.5400E-13  0.5821E-09  0.0000E+00  0.4719E+15
   -1.512166    3.83030  0.0000E+00  0.2094E-08  0.9044E-13  0.2626E-08  0.0000E+00  0.1757E+15
   -1.580903    3.94855  0.0000E+00  0.3208E-08  0.1398E-12  0.2338E-05  0.0000E+00  0.1619E+14
   -1.649640    3.99333  0.0000E+00  0.3495E-08  0.1536E-12  0.2687E-04  0.0000E+00 -0.4508E+11
   -1.718376    3.99390  0.0000E+00  0.3660E-08  0.1630E-12  0.2864E-04  0.0000E+00 -0.5186E+11
   -1.787113    3.99442  0.0000E+00  0.3815E-08  0.1733E-12  0.3005E-04  0.0000E+00 -0.5564E+11
   -1.855849    3.99492  0.0000E+00  0.3961E-08  0.1847E-12  0.3090E-04  0.0000E+00 -0.5962E+11
   -1.924585    3.99540  0.0000E+00  0.4097E-08  0.1974E-12  0.3123E-04  0.0000E+00 -0.6429E+11
   -1.993320    3.99589  0.0000E+00  0.4223E-08  0.2117E-12  0.3105E-04  0.0000E+00 -0.6998E+11
   -2.062056    3.99639  0.0000E+00  0.4338E-08  0.2280E-12  0.3056E-04  0.0000E+00 -0.7731E+11
   -2.130791    3.99690  0.0000E+00  0.4441E-08  0.2468E-12  0.2960E-04  0.0000E+00 -0.8669E+11
   -2.199526    3.99744  0.0000E+00  0.4528E-08  0.2689E-12  0.2813E-04  0.0000E+00 -0.9902E+11
   -2.268260    3.99802  0.0000E+00  0.4597E-08  0.2958E-12  0.2610E-04  0.0000E+00 -0.1160E+12
   -2.336994    3.99866  0.0000E+00  0.4645E-08  0.3311E-12  0.2337E-04  0.0000E+00 -0.1413E+12
   -2.405727    3.99940  0.0000E+00  0.4663E-08  0.3804E-12  0.1991E-04  0.0000E+00 -0.1827E+12
   -2.474460    4.00028  0.0000E+00  0.4636E-08  0.4560E-12  0.1569E-04  0.0000E+00 -0.2601E+12
   -2.543192    4.00145  0.0000E+00  0.4524E-08  0.5947E-12  0.1066E-04  0.0000E+00 -0.4465E+12
   -2.611923    4.00326  0.0000E+00  0.4203E-08  0.9495E-12  0.5070E-05  0.0000E+00 -0.1213E+13
   -2.680655    4.00738  0.0000E+00  0.3017E-08  0.2911E-11  0.7069E-06  0.0000E+00 -0.1847E+14
   -2.749385    4.03927  0.0000E+00  0.0000E+00  0.0000E+00  0.0000E+00  0.0000E+00  0.0000E+00
