 1 - depth, m
 2 - temperature, C
 3 - salinity, kg/kg
 4 - turbulent kinetic energy, m**2/s**2
 5 - dissipation rate, m**2/s**3
 6 - kinematic heat conductance, m**2/s
 7 - modulus of horizontal velocity, m/s
 8 - Richardson number, n/d
   -0.000000    0.00000  0.0000E+00  0.7167E-13  0.9615E-17  0.1000E-09  0.0000E+00  0.1530E+17
   -0.068739    0.23698  0.0000E+00  0.1330E-12  0.1229E-16  0.1000E-09  0.0000E+00  0.1413E+17
   -0.137478    0.47104  0.0000E+00  0.2742E-12  0.2180E-16  0.1000E-09  0.0000E+00  0.1299E+17
   -0.206218    0.70183  0.0000E+00  0.5582E-12  0.4188E-16  0.1000E-09  0.0000E+00  0.1188E+17
   -0.274959    0.92902  0.0000E+00  0.1115E-11  0.8106E-16  0.1000E-09  0.0000E+00  0.1084E+17
   -0.343700    1.15294  0.0000E+00  0.2197E-11  0.1559E-15  0.1000E-09  0.0000E+00  0.9829E+16
   -0.412442    1.37343  0.0000E+00  0.4291E-11  0.2977E-15  0.1000E-09  0.0000E+00  0.8858E+16
   -0.481184    1.59027  0.0000E+00  0.8316E-11  0.5646E-15  0.1000E-09  0.0000E+00  0.7920E+16
   -0.549927    1.80309  0.0000E+00  0.1603E-10  0.1066E-14  0.1000E-09  0.0000E+00  0.7008E+16
   -0.618670    2.01119  0.0000E+00  0.3074E-10  0.2000E-14  0.1000E-09  0.0000E+00  0.6140E+16
   -0.687413    2.21419  0.0000E+00  0.5858E-10  0.3734E-14  0.1000E-09  0.0000E+00  0.5363E+16
   -0.756157    2.41350  0.0000E+00  0.1110E-09  0.6928E-14  0.1000E-09  0.0000E+00  0.4644E+16
   -0.824901    2.60986  0.0000E+00  0.2090E-09  0.1278E-13  0.1000E-09  0.0000E+00  0.3952E+16
   -0.893645    2.80298  0.0000E+00  0.3913E-09  0.2346E-13  0.1000E-09  0.0000E+00  0.3290E+16
   -0.962390    2.99262  0.0000E+00  0.7286E-09  0.4281E-13  0.1000E-09  0.0000E+00  0.2662E+16
   -1.031134    3.17859  0.0000E+00  0.1347E-08  0.7760E-13  0.1909E-09  0.0000E+00  0.2069E+16
   -1.099879    3.36081  0.0000E+00  0.2475E-08  0.1397E-12  0.4707E-09  0.0000E+00  0.1511E+16
   -1.168624    3.53913  0.0000E+00  0.4516E-08  0.2501E-12  0.1289E-08  0.0000E+00  0.9872E+15
   -1.237370    3.71309  0.0000E+00  0.8180E-08  0.4445E-12  0.4544E-08  0.0000E+00  0.4979E+15
   -1.306115    3.88013  0.0000E+00  0.1444E-07  0.7716E-12  0.4629E-07  0.0000E+00  0.8481E+14
   -1.374860    4.00772  0.0000E+00  0.1486E-07  0.7957E-12  0.1027E-03  0.0000E+00 -0.6722E+11
   -1.443606    4.00792  0.0000E+00  0.1506E-07  0.8088E-12  0.1026E-03  0.0000E+00 -0.7703E+11
   -1.512351    4.00815  0.0000E+00  0.1522E-07  0.8223E-12  0.1049E-03  0.0000E+00 -0.7765E+11
   -1.581096    4.00837  0.0000E+00  0.1536E-07  0.8364E-12  0.1078E-03  0.0000E+00 -0.7709E+11
   -1.649841    4.00859  0.0000E+00  0.1548E-07  0.8515E-12  0.1091E-03  0.0000E+00 -0.7740E+11
   -1.718586    4.00881  0.0000E+00  0.1559E-07  0.8678E-12  0.1087E-03  0.0000E+00 -0.7885E+11
   -1.787331    4.00904  0.0000E+00  0.1567E-07  0.8857E-12  0.1078E-03  0.0000E+00 -0.8072E+11
   -1.856075    4.00926  0.0000E+00  0.1574E-07  0.9057E-12  0.1064E-03  0.0000E+00 -0.8304E+11
   -1.924820    4.00949  0.0000E+00  0.1579E-07  0.9282E-12  0.1047E-03  0.0000E+00 -0.8585E+11
   -1.993564    4.00973  0.0000E+00  0.1583E-07  0.9537E-12  0.1025E-03  0.0000E+00 -0.8923E+11
   -2.062308    4.00997  0.0000E+00  0.1585E-07  0.9845E-12  0.9959E-04  0.0000E+00 -0.9299E+11
   -2.131051    4.01022  0.0000E+00  0.1584E-07  0.1025E-11  0.9510E-04  0.0000E+00 -0.9861E+11
   -2.199794    4.01048  0.0000E+00  0.1580E-07  0.1077E-11  0.8274E-04  0.0000E+00 -0.1149E+12
   -2.268537    4.01078  0.0000E+00  0.1572E-07  0.1145E-11  0.7125E-04  0.0000E+00 -0.1358E+12
   -2.337279    4.01113  0.0000E+00  0.1559E-07  0.1238E-11  0.6124E-04  0.0000E+00 -0.1615E+12
   -2.406020    4.01155  0.0000E+00  0.1540E-07  0.1370E-11  0.5126E-04  0.0000E+00 -0.1981E+12
   -2.474762    4.01204  0.0000E+00  0.1509E-07  0.1577E-11  0.4022E-04  0.0000E+00 -0.2615E+12
   -2.543502    4.01268  0.0000E+00  0.1459E-07  0.1955E-11  0.2774E-04  0.0000E+00 -0.4000E+12
   -2.612242    4.01363  0.0000E+00  0.1359E-07  0.2899E-11  0.1400E-04  0.0000E+00 -0.8742E+12
   -2.680982    4.01561  0.0000E+00  0.9117E-08  0.9588E-11  0.1427E-05  0.0000E+00 -0.1283E+14
   -2.749721    4.03628  0.0000E+00  0.0000E+00  0.0000E+00  0.0000E+00  0.0000E+00  0.0000E+00
