 1 - depth, m
 2 - temperature, C
 3 - salinity, kg/kg
 4 - turbulent kinetic energy, m**2/s**2
 5 - dissipation rate, m**2/s**3
 6 - kinematic heat conductance, m**2/s
 7 - modulus of horizontal velocity, m/s
 8 - Richardson number, n/d
   -0.000000    0.00000  0.0000E+00  0.1219E-13  0.7603E-17  0.1000E-09  0.0000E+00  0.1622E+17
   -0.068747    0.25183  0.0000E+00  0.1219E-13  0.7603E-17  0.1000E-09  0.0000E+00  0.1431E+17
   -0.137495    0.48999  0.0000E+00  0.1219E-13  0.7603E-17  0.1000E-09  0.0000E+00  0.1252E+17
   -0.206243    0.71344  0.0000E+00  0.4742E-13  0.7787E-17  0.1000E-09  0.0000E+00  0.1087E+17
   -0.274992    0.92140  0.0000E+00  0.1326E-12  0.1542E-16  0.1000E-09  0.0000E+00  0.9521E+16
   -0.343741    1.11662  0.0000E+00  0.3162E-12  0.3377E-16  0.1000E-09  0.0000E+00  0.8340E+16
   -0.412491    1.29984  0.0000E+00  0.7156E-12  0.7370E-16  0.1000E-09  0.0000E+00  0.7306E+16
   -0.481241    1.47182  0.0000E+00  0.1586E-11  0.1592E-15  0.1000E-09  0.0000E+00  0.6397E+16
   -0.549992    1.63315  0.0000E+00  0.3484E-11  0.3412E-15  0.1000E-09  0.0000E+00  0.5563E+16
   -0.618743    1.78343  0.0000E+00  0.7589E-11  0.7263E-15  0.1000E-09  0.0000E+00  0.4870E+16
   -0.687495    1.92432  0.0000E+00  0.1641E-10  0.1535E-14  0.1000E-09  0.0000E+00  0.4525E+16
   -0.756247    2.06479  0.0000E+00  0.3521E-10  0.3220E-14  0.1000E-09  0.0000E+00  0.4374E+16
   -0.824999    2.21145  0.0000E+00  0.7503E-10  0.6709E-14  0.1000E-09  0.0000E+00  0.4241E+16
   -0.893752    2.36671  0.0000E+00  0.1588E-09  0.1389E-13  0.1000E-09  0.0000E+00  0.4095E+16
   -0.962505    2.53273  0.0000E+00  0.3337E-09  0.2856E-13  0.1000E-09  0.0000E+00  0.3901E+16
   -1.031258    2.71136  0.0000E+00  0.6958E-09  0.5827E-13  0.1000E-09  0.0000E+00  0.3626E+16
   -1.100011    2.90412  0.0000E+00  0.1440E-08  0.1180E-12  0.1861E-09  0.0000E+00  0.3229E+16
   -1.168764    3.11155  0.0000E+00  0.2958E-08  0.2374E-12  0.4505E-09  0.0000E+00  0.2686E+16
   -1.237517    3.33329  0.0000E+00  0.6035E-08  0.4745E-12  0.1219E-08  0.0000E+00  0.1985E+16
   -1.306271    3.56777  0.0000E+00  0.1222E-07  0.9411E-12  0.4239E-08  0.0000E+00  0.1134E+16
   -1.375024    3.80998  0.0000E+00  0.2409E-07  0.1823E-11  0.3969E-07  0.0000E+00  0.2383E+15
   -1.443778    4.01467  0.0000E+00  0.2484E-07  0.1884E-11  0.1154E-03  0.0000E+00 -0.1263E+12
   -1.512531    4.01495  0.0000E+00  0.2521E-07  0.1920E-11  0.1140E-03  0.0000E+00 -0.1470E+12
   -1.581285    4.01528  0.0000E+00  0.2555E-07  0.1960E-11  0.1201E-03  0.0000E+00 -0.1478E+12
   -1.650038    4.01560  0.0000E+00  0.2585E-07  0.2004E-11  0.1245E-03  0.0000E+00 -0.1491E+12
   -1.718791    4.01593  0.0000E+00  0.2612E-07  0.2050E-11  0.1265E-03  0.0000E+00 -0.1531E+12
   -1.787544    4.01626  0.0000E+00  0.2636E-07  0.2102E-11  0.1260E-03  0.0000E+00 -0.1603E+12
   -1.856297    4.01660  0.0000E+00  0.2658E-07  0.2159E-11  0.1249E-03  0.0000E+00 -0.1689E+12
   -1.925050    4.01695  0.0000E+00  0.2676E-07  0.2223E-11  0.1234E-03  0.0000E+00 -0.1792E+12
   -1.993802    4.01732  0.0000E+00  0.2692E-07  0.2296E-11  0.1214E-03  0.0000E+00 -0.1915E+12
   -2.062554    4.01771  0.0000E+00  0.2704E-07  0.2378E-11  0.1184E-03  0.0000E+00 -0.2009E+12
   -2.131306    4.01812  0.0000E+00  0.2711E-07  0.2472E-11  0.1147E-03  0.0000E+00 -0.2115E+12
   -2.200057    4.01854  0.0000E+00  0.2714E-07  0.2582E-11  0.1104E-03  0.0000E+00 -0.2243E+12
   -2.268808    4.01899  0.0000E+00  0.2711E-07  0.2717E-11  0.1051E-03  0.0000E+00 -0.2408E+12
   -2.337558    4.01945  0.0000E+00  0.2700E-07  0.2914E-11  0.9392E-04  0.0000E+00 -0.2763E+12
   -2.406308    4.01998  0.0000E+00  0.2677E-07  0.3220E-11  0.7352E-04  0.0000E+00 -0.3636E+12
   -2.475057    4.02067  0.0000E+00  0.2636E-07  0.3701E-11  0.5632E-04  0.0000E+00 -0.4934E+12
   -2.543806    4.02157  0.0000E+00  0.2561E-07  0.4571E-11  0.3915E-04  0.0000E+00 -0.7510E+12
   -2.612554    4.02291  0.0000E+00  0.2403E-07  0.6707E-11  0.2022E-04  0.0000E+00 -0.1606E+13
   -2.681302    4.02562  0.0000E+00  0.1606E-07  0.2283E-10  0.1940E-05  0.0000E+00 -0.2593E+14
   -2.750049    4.05601  0.0000E+00  0.0000E+00  0.0000E+00  0.0000E+00  0.0000E+00  0.0000E+00
