 1 - depth, m
 2 - temperature, C
 3 - salinity, kg/kg
 4 - turbulent kinetic energy, m**2/s**2
 5 - dissipation rate, m**2/s**3
 6 - kinematic heat conductance, m**2/s
 7 - modulus of horizontal velocity, m/s
 8 - Richardson number, n/d
   -0.000000    6.38222  0.0000E+00  0.1552E-03  0.5419E-04  0.9519E-04  0.1061E+00  0.2012E-01
   -0.068752    6.44436  0.0000E+00  0.8701E-04  0.1350E-04  0.1708E-03  0.3557E-01 -0.5257E-01
   -0.137505    6.45706  0.0000E+00  0.6340E-04  0.5893E-05  0.1761E-03  0.2733E-01  0.1005E+00
   -0.206258    6.46559  0.0000E+00  0.4852E-04  0.2905E-05  0.1958E-03  0.2275E-01  0.3131E+01
   -0.275012    6.47200  0.0000E+00  0.3887E-04  0.1552E-05  0.2210E-03  0.1951E-01  0.1692E+02
   -0.343766    6.47728  0.0000E+00  0.3227E-04  0.8946E-06  0.2500E-03  0.1682E-01  0.2578E+01
   -0.412521    6.48178  0.0000E+00  0.2755E-04  0.5536E-06  0.2807E-03  0.1455E-01  0.2609E+02
   -0.481276    6.48569  0.0000E+00  0.2400E-04  0.3644E-06  0.3122E-03  0.1261E-01  0.7312E+01
   -0.550032    6.48916  0.0000E+00  0.2117E-04  0.2517E-06  0.3465E-03  0.1095E-01  0.3794E+01
   -0.618788    6.49224  0.0000E+00  0.1888E-04  0.1812E-06  0.3805E-03  0.9557E-02  0.4862E+02
   -0.687545    6.49503  0.0000E+00  0.1698E-04  0.1348E-06  0.4144E-03  0.8368E-02  0.3024E+01
   -0.756302    6.49757  0.0000E+00  0.1539E-04  0.1031E-06  0.4478E-03  0.7349E-02  0.2353E+01
   -0.825059    6.49990  0.0000E+00  0.1403E-04  0.8071E-07  0.4829E-03  0.6472E-02  0.8194E+00
   -0.893816    6.50203  0.0000E+00  0.1286E-04  0.6439E-07  0.5193E-03  0.5715E-02  0.4018E+01
   -0.962574    6.50398  0.0000E+00  0.1186E-04  0.5228E-07  0.5541E-03  0.5063E-02  0.2675E+01
   -1.031332    6.50578  0.0000E+00  0.1100E-04  0.4315E-07  0.5869E-03  0.4502E-02  0.8855E+02
   -1.100090    6.50744  0.0000E+00  0.1026E-04  0.3614E-07  0.6249E-03  0.4003E-02  0.3964E+01
   -1.168848    6.50897  0.0000E+00  0.9612E-05  0.3064E-07  0.6602E-03  0.3560E-02  0.4504E+02
   -1.237607    6.51037  0.0000E+00  0.9038E-05  0.2627E-07  0.7031E-03  0.3163E-02  0.2129E+02
   -1.306365    6.51166  0.0000E+00  0.8528E-05  0.2275E-07  0.7587E-03  0.2808E-02  0.3957E+02
   -1.375124    6.51281  0.0000E+00  0.8071E-05  0.1989E-07  0.8242E-03  0.2490E-02  0.9910E+02
   -1.443882    6.51384  0.0000E+00  0.7658E-05  0.1753E-07  0.8854E-03  0.2203E-02  0.3683E+02
   -1.512641    6.51477  0.0000E+00  0.7281E-05  0.1557E-07  0.9563E-03  0.1941E-02  0.1029E+03
   -1.581399    6.51558  0.0000E+00  0.6936E-05  0.1393E-07  0.1028E-02  0.1709E-02  0.2163E+02
   -1.650157    6.51631  0.0000E+00  0.6620E-05  0.1255E-07  0.1084E-02  0.1504E-02  0.6207E+03
   -1.718915    6.51697  0.0000E+00  0.6329E-05  0.1138E-07  0.1123E-02  0.1323E-02  0.1022E+02
   -1.787673    6.51758  0.0000E+00  0.6061E-05  0.1040E-07  0.1152E-02  0.1162E-02  0.1025E+02
   -1.856431    6.51815  0.0000E+00  0.5814E-05  0.9579E-08  0.1172E-02  0.1018E-02  0.4563E+01
   -1.925189    6.51868  0.0000E+00  0.5586E-05  0.8897E-08  0.1176E-02  0.8897E-03  0.1280E+02
   -1.993946    6.51920  0.0000E+00  0.5376E-05  0.8340E-08  0.1165E-02  0.7752E-03  0.2220E+01
   -2.062703    6.51970  0.0000E+00  0.5184E-05  0.7900E-08  0.1143E-02  0.6729E-03  0.5804E+01
   -2.131459    6.52020  0.0000E+00  0.5009E-05  0.7571E-08  0.1112E-02  0.5816E-03  0.1788E+02
   -2.200216    6.52069  0.0000E+00  0.4850E-05  0.7352E-08  0.1071E-02  0.5000E-03  0.2137E+01
   -2.268971    6.52119  0.0000E+00  0.4708E-05  0.7243E-08  0.1022E-02  0.4269E-03  0.2506E+01
   -2.337727    6.52170  0.0000E+00  0.4578E-05  0.7248E-08  0.9648E-03  0.3644E-03  0.8575E+01
   -2.406482    6.52222  0.0000E+00  0.4456E-05  0.7387E-08  0.9000E-03  0.3120E-03  0.6838E+01
   -2.475236    6.52277  0.0000E+00  0.4332E-05  0.7715E-08  0.8160E-03  0.2667E-03  0.5805E+02
   -2.543990    6.52337  0.0000E+00  0.4180E-05  0.8453E-08  0.6673E-03  0.2241E-03  0.7890E+02
   -2.612743    6.52409  0.0000E+00  0.3919E-05  0.1068E-07  0.3248E-03  0.1788E-03  0.1031E+04
   -2.681495    6.52558  0.0000E+00  0.2300E-05  0.3689E-07  0.1920E-04  0.1231E-03 -0.1687E+05
   -2.750247    6.55069  0.0000E+00  0.0000E+00  0.0000E+00  0.0000E+00  0.1230E-03  0.0000E+00
