 1 - depth, m
 2 - temperature, C
 3 - salinity, kg/kg
 4 - turbulent kinetic energy, m**2/s**2
 5 - dissipation rate, m**2/s**3
 6 - kinematic heat conductance, m**2/s
 7 - modulus of horizontal velocity, m/s
 8 - Richardson number, n/d
   -0.000000    0.00000  0.0000E+00  0.1219E-13  0.7603E-17  0.1000E-09  0.0000E+00  0.1085E+17
   -0.068732    0.16643  0.0000E+00  0.1219E-13  0.7603E-17  0.1000E-09  0.0000E+00  0.1029E+17
   -0.137465    0.33173  0.0000E+00  0.1219E-13  0.7603E-17  0.1000E-09  0.0000E+00  0.9717E+16
   -0.206199    0.49552  0.0000E+00  0.1219E-13  0.7603E-17  0.1000E-09  0.0000E+00  0.9144E+16
   -0.274933    0.65746  0.0000E+00  0.1219E-13  0.7603E-17  0.1000E-09  0.0000E+00  0.8590E+16
   -0.343668    0.81757  0.0000E+00  0.1219E-13  0.7603E-17  0.1000E-09  0.0000E+00  0.8043E+16
   -0.412403    0.97562  0.0000E+00  0.1219E-13  0.7603E-17  0.1000E-09  0.0000E+00  0.7504E+16
   -0.481139    1.13139  0.0000E+00  0.1219E-13  0.7603E-17  0.1000E-09  0.0000E+00  0.6973E+16
   -0.549875    1.28457  0.0000E+00  0.1219E-13  0.7603E-17  0.1000E-09  0.0000E+00  0.6446E+16
   -0.618612    1.43472  0.0000E+00  0.1219E-13  0.7603E-17  0.1000E-09  0.0000E+00  0.5935E+16
   -0.687349    1.58162  0.0000E+00  0.1219E-13  0.7603E-17  0.1000E-09  0.0000E+00  0.5475E+16
   -0.756086    1.72593  0.0000E+00  0.1219E-13  0.7603E-17  0.1000E-09  0.0000E+00  0.5047E+16
   -0.824824    1.86799  0.0000E+00  0.1219E-13  0.7603E-17  0.1000E-09  0.0000E+00  0.4631E+16
   -0.893561    2.00765  0.0000E+00  0.1219E-13  0.7603E-17  0.1000E-09  0.0000E+00  0.4229E+16
   -0.962300    2.14472  0.0000E+00  0.1219E-13  0.7603E-17  0.1000E-09  0.0000E+00  0.3841E+16
   -1.031038    2.27902  0.0000E+00  0.1219E-13  0.7603E-17  0.1000E-09  0.0000E+00  0.3471E+16
   -1.099777    2.41050  0.0000E+00  0.1219E-13  0.7603E-17  0.1000E-09  0.0000E+00  0.3117E+16
   -1.168515    2.53898  0.0000E+00  0.1219E-13  0.7603E-17  0.1000E-09  0.0000E+00  0.2778E+16
   -1.237254    2.66427  0.0000E+00  0.3525E-13  0.7605E-17  0.1000E-09  0.0000E+00  0.2457E+16
   -1.305993    2.78617  0.0000E+00  0.1078E-12  0.1344E-16  0.1000E-09  0.0000E+00  0.2153E+16
   -1.374732    2.90448  0.0000E+00  0.2686E-12  0.2947E-16  0.1000E-09  0.0000E+00  0.1880E+16
   -1.443470    3.01979  0.0000E+00  0.6231E-12  0.6531E-16  0.1000E-09  0.0000E+00  0.1626E+16
   -1.512209    3.13219  0.0000E+00  0.1409E-11  0.1434E-15  0.1000E-09  0.0000E+00  0.1385E+16
   -1.580948    3.24139  0.0000E+00  0.3156E-11  0.3130E-15  0.1000E-09  0.0000E+00  0.1159E+16
   -1.649687    3.34709  0.0000E+00  0.7011E-11  0.6779E-15  0.1000E-09  0.0000E+00  0.9474E+15
   -1.718425    3.44894  0.0000E+00  0.1545E-10  0.1457E-14  0.1000E-09  0.0000E+00  0.7526E+15
   -1.787164    3.54651  0.0000E+00  0.3377E-10  0.3109E-14  0.1000E-09  0.0000E+00  0.5751E+15
   -1.855902    3.63924  0.0000E+00  0.7326E-10  0.6584E-14  0.1000E-09  0.0000E+00  0.4169E+15
   -1.924640    3.72652  0.0000E+00  0.1578E-09  0.1385E-13  0.2518E-09  0.0000E+00  0.2797E+15
   -1.993377    3.80769  0.0000E+00  0.3375E-09  0.2893E-13  0.8896E-09  0.0000E+00  0.1653E+15
   -2.062115    3.88214  0.0000E+00  0.7156E-09  0.5996E-13  0.4001E-08  0.0000E+00  0.7607E+14
   -2.130852    3.95237  0.0000E+00  0.1457E-08  0.1199E-12  0.7546E-07  0.0000E+00  0.7909E+13
   -2.199588    3.99837  0.0000E+00  0.1988E-08  0.1652E-12  0.9638E-05  0.0000E+00 -0.1975E+12
   -2.268324    3.99937  0.0000E+00  0.2227E-08  0.1924E-12  0.9981E-05  0.0000E+00 -0.2156E+12
   -2.337060    4.00038  0.0000E+00  0.2415E-08  0.2240E-12  0.9737E-05  0.0000E+00 -0.2450E+12
   -2.405795    4.00145  0.0000E+00  0.2555E-08  0.2648E-12  0.8879E-05  0.0000E+00 -0.3006E+12
   -2.474530    4.00267  0.0000E+00  0.2644E-08  0.3252E-12  0.7385E-05  0.0000E+00 -0.4133E+12
   -2.543264    4.00421  0.0000E+00  0.2663E-08  0.4348E-12  0.5256E-05  0.0000E+00 -0.7030E+12
   -2.611998    4.00656  0.0000E+00  0.2545E-08  0.7130E-12  0.2638E-05  0.0000E+00 -0.1937E+13
   -2.680731    4.01195  0.0000E+00  0.2079E-08  0.2040E-11  0.5453E-06  0.0000E+00 -0.2165E+14
   -2.749463    4.04481  0.0000E+00  0.0000E+00  0.0000E+00  0.0000E+00  0.0000E+00  0.0000E+00
