 1 - depth, m
 2 - temperature, C
 3 - salinity, kg/kg
 4 - turbulent kinetic energy, m**2/s**2
 5 - dissipation rate, m**2/s**3
 6 - kinematic heat conductance, m**2/s
 7 - modulus of horizontal velocity, m/s
 8 - Richardson number, n/d
   -0.000000    0.00000  0.0000E+00  0.2358E-12  0.3539E-16  0.1000E-09  0.0000E+00  0.1545E+17
   -0.068736    0.23942  0.0000E+00  0.4612E-12  0.3713E-16  0.1000E-09  0.0000E+00  0.1426E+17
   -0.137472    0.47579  0.0000E+00  0.9285E-12  0.5665E-16  0.1000E-09  0.0000E+00  0.1309E+17
   -0.206209    0.70876  0.0000E+00  0.1768E-11  0.9710E-16  0.1000E-09  0.0000E+00  0.1195E+17
   -0.274947    0.93794  0.0000E+00  0.3242E-11  0.1699E-15  0.1000E-09  0.0000E+00  0.1089E+17
   -0.343685    1.16365  0.0000E+00  0.5817E-11  0.2962E-15  0.1000E-09  0.0000E+00  0.9857E+16
   -0.412424    1.38575  0.0000E+00  0.1031E-10  0.5133E-15  0.1000E-09  0.0000E+00  0.8869E+16
   -0.481163    1.60404  0.0000E+00  0.1812E-10  0.8840E-15  0.1000E-09  0.0000E+00  0.7919E+16
   -0.549903    1.81824  0.0000E+00  0.3170E-10  0.1516E-14  0.1000E-09  0.0000E+00  0.7002E+16
   -0.618643    2.02781  0.0000E+00  0.5515E-10  0.2586E-14  0.1000E-09  0.0000E+00  0.6134E+16
   -0.687384    2.23257  0.0000E+00  0.9549E-10  0.4392E-14  0.1000E-09  0.0000E+00  0.5371E+16
   -0.756124    2.43462  0.0000E+00  0.1645E-09  0.7422E-14  0.1000E-09  0.0000E+00  0.4669E+16
   -0.824865    2.63528  0.0000E+00  0.2819E-09  0.1248E-13  0.1000E-09  0.0000E+00  0.3985E+16
   -0.893607    2.83455  0.0000E+00  0.4806E-09  0.2089E-13  0.1000E-09  0.0000E+00  0.3319E+16
   -0.962348    3.03243  0.0000E+00  0.8156E-09  0.3479E-13  0.1000E-09  0.0000E+00  0.2669E+16
   -1.031090    3.22887  0.0000E+00  0.1376E-08  0.5760E-13  0.1440E-09  0.0000E+00  0.2036E+16
   -1.099832    3.42371  0.0000E+00  0.2307E-08  0.9481E-13  0.3400E-09  0.0000E+00  0.1419E+16
   -1.168574    3.61666  0.0000E+00  0.3846E-08  0.1552E-12  0.9610E-09  0.0000E+00  0.8223E+15
   -1.237317    3.80708  0.0000E+00  0.6367E-08  0.2524E-12  0.5104E-08  0.0000E+00  0.2520E+15
   -1.306059    3.99029  0.0000E+00  0.6679E-08  0.2654E-12  0.4709E-04  0.0000E+00 -0.3450E+11
   -1.374801    3.99082  0.0000E+00  0.6838E-08  0.2733E-12  0.5003E-04  0.0000E+00 -0.3907E+11
   -1.443544    3.99135  0.0000E+00  0.6991E-08  0.2821E-12  0.5283E-04  0.0000E+00 -0.4131E+11
   -1.512286    3.99185  0.0000E+00  0.7137E-08  0.2918E-12  0.5509E-04  0.0000E+00 -0.4343E+11
   -1.581028    3.99233  0.0000E+00  0.7278E-08  0.3025E-12  0.5679E-04  0.0000E+00 -0.4568E+11
   -1.649770    3.99280  0.0000E+00  0.7412E-08  0.3144E-12  0.5795E-04  0.0000E+00 -0.4819E+11
   -1.718512    3.99326  0.0000E+00  0.7540E-08  0.3275E-12  0.5858E-04  0.0000E+00 -0.5103E+11
   -1.787254    3.99371  0.0000E+00  0.7659E-08  0.3420E-12  0.5869E-04  0.0000E+00 -0.5433E+11
   -1.855996    3.99417  0.0000E+00  0.7768E-08  0.3580E-12  0.5826E-04  0.0000E+00 -0.5821E+11
   -1.924737    3.99463  0.0000E+00  0.7868E-08  0.3760E-12  0.5731E-04  0.0000E+00 -0.6283E+11
   -1.993478    3.99509  0.0000E+00  0.7955E-08  0.3963E-12  0.5583E-04  0.0000E+00 -0.6843E+11
   -2.062219    3.99558  0.0000E+00  0.8029E-08  0.4196E-12  0.5361E-04  0.0000E+00 -0.7522E+11
   -2.130960    3.99608  0.0000E+00  0.8086E-08  0.4466E-12  0.5078E-04  0.0000E+00 -0.8377E+11
   -2.199700    3.99662  0.0000E+00  0.8124E-08  0.4787E-12  0.4735E-04  0.0000E+00 -0.9485E+11
   -2.268439    3.99719  0.0000E+00  0.8138E-08  0.5182E-12  0.4328E-04  0.0000E+00 -0.1099E+12
   -2.337179    3.99781  0.0000E+00  0.8123E-08  0.5704E-12  0.3831E-04  0.0000E+00 -0.1321E+12
   -2.405917    3.99853  0.0000E+00  0.8065E-08  0.6440E-12  0.3238E-04  0.0000E+00 -0.1676E+12
   -2.474656    3.99937  0.0000E+00  0.7943E-08  0.7573E-12  0.2543E-04  0.0000E+00 -0.2320E+12
   -2.543393    4.00046  0.0000E+00  0.7698E-08  0.9642E-12  0.1737E-04  0.0000E+00 -0.3800E+12
   -2.612130    4.00208  0.0000E+00  0.7141E-08  0.1489E-11  0.8452E-05  0.0000E+00 -0.9438E+12
   -2.680867    4.00552  0.0000E+00  0.4856E-08  0.4818E-11  0.9658E-06  0.0000E+00 -0.1635E+14
   -2.749603    4.03588  0.0000E+00  0.0000E+00  0.0000E+00  0.0000E+00  0.0000E+00  0.0000E+00
