 1 - depth, m
 2 - temperature, C
 3 - salinity, kg/kg
 4 - turbulent kinetic energy, m**2/s**2
 5 - dissipation rate, m**2/s**3
 6 - kinematic heat conductance, m**2/s
 7 - modulus of horizontal velocity, m/s
 8 - Richardson number, n/d
   -0.000000   15.36369  0.0000E+00  0.9564E-04  0.3007E-04  0.8058E-04  0.8094E-01 -0.2210E-01
   -0.068766   15.39777  0.0000E+00  0.5205E-04  0.6978E-05  0.1083E-03  0.3122E-01 -0.2709E-01
   -0.137533   15.40513  0.0000E+00  0.3763E-04  0.2687E-05  0.1243E-03  0.2323E-01 -0.4363E-01
   -0.206301   15.41025  0.0000E+00  0.2914E-04  0.1190E-05  0.1504E-03  0.1859E-01 -0.7130E-01
   -0.275069   15.41413  0.0000E+00  0.2403E-04  0.6005E-06  0.1816E-03  0.1533E-01 -0.9796E-01
   -0.343838   15.41724  0.0000E+00  0.2072E-04  0.3435E-06  0.2236E-03  0.1276E-01 -0.9603E-01
   -0.412608   15.41974  0.0000E+00  0.1840E-04  0.2187E-06  0.3195E-03  0.1072E-01  0.5883E+02
   -0.481377   15.42172  0.0000E+00  0.1665E-04  0.1509E-06  0.3760E-03  0.9096E-02  0.2536E+01
   -0.550148   15.42338  0.0000E+00  0.1524E-04  0.1100E-06  0.4406E-03  0.7773E-02  0.1933E+02
   -0.618918   15.42479  0.0000E+00  0.1410E-04  0.8366E-07  0.5180E-03  0.6706E-02  0.2015E+02
   -0.687689   15.42599  0.0000E+00  0.1317E-04  0.6579E-07  0.6017E-03  0.5838E-02  0.1222E+02
   -0.756461   15.42700  0.0000E+00  0.1242E-04  0.5324E-07  0.7138E-03  0.5124E-02  0.4115E+02
   -0.825233   15.42785  0.0000E+00  0.1182E-04  0.4426E-07  0.8648E-03  0.4538E-02  0.4329E+02
   -0.894005   15.42852  0.0000E+00  0.1135E-04  0.3771E-07  0.1029E-02  0.4056E-02  0.7559E+02
   -0.962777   15.42905  0.0000E+00  0.1098E-04  0.3284E-07  0.1191E-02  0.3653E-02  0.1972E+03
   -1.031549   15.42948  0.0000E+00  0.1070E-04  0.2912E-07  0.1298E-02  0.3310E-02  0.2281E+02
   -1.100322   15.42985  0.0000E+00  0.1046E-04  0.2615E-07  0.1356E-02  0.3000E-02  0.3130E+01
   -1.169095   15.43021  0.0000E+00  0.1027E-04  0.2373E-07  0.1397E-02  0.2713E-02  0.2847E+01
   -1.237867   15.43056  0.0000E+00  0.1010E-04  0.2173E-07  0.1433E-02  0.2448E-02  0.2804E+01
   -1.306640   15.43091  0.0000E+00  0.9956E-05  0.2007E-07  0.1467E-02  0.2200E-02  0.2775E+01
   -1.375413   15.43126  0.0000E+00  0.9822E-05  0.1870E-07  0.1497E-02  0.1970E-02  0.2751E+01
   -1.444186   15.43161  0.0000E+00  0.9693E-05  0.1756E-07  0.1522E-02  0.1755E-02  0.2728E+01
   -1.512959   15.43196  0.0000E+00  0.9566E-05  0.1663E-07  0.1556E-02  0.1552E-02  0.2515E+01
   -1.581732   15.43231  0.0000E+00  0.9437E-05  0.1588E-07  0.1591E-02  0.1368E-02  0.2267E+01
   -1.650505   15.43266  0.0000E+00  0.9307E-05  0.1529E-07  0.1622E-02  0.1204E-02  0.2058E+01
   -1.719277   15.43301  0.0000E+00  0.9174E-05  0.1485E-07  0.1648E-02  0.1058E-02  0.1879E+01
   -1.788050   15.43335  0.0000E+00  0.9041E-05  0.1457E-07  0.1671E-02  0.9289E-03  0.1723E+01
   -1.856822   15.43370  0.0000E+00  0.8906E-05  0.1442E-07  0.1681E-02  0.8156E-03  0.1585E+01
   -1.925594   15.43405  0.0000E+00  0.8771E-05  0.1441E-07  0.1657E-02  0.7167E-03  0.1454E+01
   -1.994366   15.43441  0.0000E+00  0.8637E-05  0.1452E-07  0.1597E-02  0.6308E-03  0.1332E+01
   -2.063137   15.43479  0.0000E+00  0.8505E-05  0.1476E-07  0.1525E-02  0.5568E-03  0.1265E+01
   -2.131908   15.43520  0.0000E+00  0.8374E-05  0.1512E-07  0.1443E-02  0.4925E-03  0.1258E+01
   -2.200679   15.43564  0.0000E+00  0.8244E-05  0.1562E-07  0.1355E-02  0.4363E-03  0.1318E+01
   -2.269449   15.43612  0.0000E+00  0.8112E-05  0.1629E-07  0.1267E-02  0.3867E-03  0.1484E+01
   -2.338219   15.43665  0.0000E+00  0.7965E-05  0.1724E-07  0.1168E-02  0.3439E-03  0.2022E+01
   -2.406988   15.43723  0.0000E+00  0.7788E-05  0.1868E-07  0.1046E-02  0.3033E-03  0.3164E+01
   -2.475757   15.43789  0.0000E+00  0.7564E-05  0.2099E-07  0.8833E-03  0.2636E-03  0.5670E+01
   -2.544525   15.43869  0.0000E+00  0.7258E-05  0.2521E-07  0.7562E-03  0.2234E-03  0.1272E+02
   -2.613293   15.43963  0.0000E+00  0.6688E-05  0.3768E-07  0.4507E-03  0.1863E-03 -0.8045E+01
   -2.682060   15.44254  0.0000E+00  0.4125E-05  0.1286E-06  0.5684E-04  0.1325E-03 -0.2159E+04
   -2.750826   15.45711  0.0000E+00  0.0000E+00  0.0000E+00  0.0000E+00  0.1417E-03  0.0000E+00
