 1 - depth, m
 2 - temperature, C
 3 - salinity, kg/kg
 4 - turbulent kinetic energy, m**2/s**2
 5 - dissipation rate, m**2/s**3
 6 - kinematic heat conductance, m**2/s
 7 - modulus of horizontal velocity, m/s
 8 - Richardson number, n/d
   -0.000000    0.00000  0.0000E+00  0.1219E-13  0.7603E-17  0.1000E-09  0.0000E+00  0.1783E+17
   -0.068748    0.27774  0.0000E+00  0.1219E-13  0.7603E-17  0.1000E-09  0.0000E+00  0.1546E+17
   -0.137497    0.53796  0.0000E+00  0.1219E-13  0.7603E-17  0.1000E-09  0.0000E+00  0.1314E+17
   -0.206247    0.77667  0.0000E+00  0.1219E-13  0.7603E-17  0.1000E-09  0.0000E+00  0.1093E+17
   -0.274997    0.99041  0.0000E+00  0.1286E-13  0.7603E-17  0.1000E-09  0.0000E+00  0.9062E+16
   -0.343747    1.18069  0.0000E+00  0.6056E-13  0.9837E-17  0.1000E-09  0.0000E+00  0.7440E+16
   -0.412499    1.34765  0.0000E+00  0.1713E-12  0.2164E-16  0.1000E-09  0.0000E+00  0.6071E+16
   -0.481250    1.49253  0.0000E+00  0.4208E-12  0.4981E-16  0.1000E-09  0.0000E+00  0.4950E+16
   -0.550002    1.61750  0.0000E+00  0.9919E-12  0.1136E-15  0.1000E-09  0.0000E+00  0.4020E+16
   -0.618755    1.72429  0.0000E+00  0.2298E-11  0.2563E-15  0.1000E-09  0.0000E+00  0.3367E+16
   -0.687508    1.81794  0.0000E+00  0.5268E-11  0.5728E-15  0.1000E-09  0.0000E+00  0.3240E+16
   -0.756261    1.91220  0.0000E+00  0.1196E-10  0.1269E-14  0.1000E-09  0.0000E+00  0.3461E+16
   -0.825015    2.01804  0.0000E+00  0.2692E-10  0.2786E-14  0.1000E-09  0.0000E+00  0.3784E+16
   -0.893768    2.14095  0.0000E+00  0.6010E-10  0.6070E-14  0.1000E-09  0.0000E+00  0.4116E+16
   -0.962523    2.28496  0.0000E+00  0.1330E-09  0.1312E-13  0.1000E-09  0.0000E+00  0.4348E+16
   -1.031277    2.45215  0.0000E+00  0.2917E-09  0.2809E-13  0.1000E-09  0.0000E+00  0.4396E+16
   -1.100031    2.64272  0.0000E+00  0.6338E-09  0.5961E-13  0.1000E-09  0.0000E+00  0.4183E+16
   -1.168786    2.85417  0.0000E+00  0.1366E-08  0.1255E-12  0.1730E-09  0.0000E+00  0.3700E+16
   -1.237541    3.08238  0.0000E+00  0.2921E-08  0.2623E-12  0.4475E-09  0.0000E+00  0.2987E+16
   -1.306295    3.32260  0.0000E+00  0.6195E-08  0.5439E-12  0.1311E-08  0.0000E+00  0.2114E+16
   -1.375050    3.57045  0.0000E+00  0.1301E-07  0.1117E-11  0.4950E-08  0.0000E+00  0.1150E+16
   -1.443805    3.82263  0.0000E+00  0.2636E-07  0.2222E-11  0.5640E-07  0.0000E+00  0.2025E+15
   -1.512560    4.01827  0.0000E+00  0.2728E-07  0.2304E-11  0.1108E-03  0.0000E+00 -0.1540E+12
   -1.581314    4.01858  0.0000E+00  0.2772E-07  0.2352E-11  0.1128E-03  0.0000E+00 -0.1795E+12
   -1.650069    4.01893  0.0000E+00  0.2813E-07  0.2406E-11  0.1176E-03  0.0000E+00 -0.1836E+12
   -1.718823    4.01929  0.0000E+00  0.2849E-07  0.2466E-11  0.1224E-03  0.0000E+00 -0.1861E+12
   -1.787578    4.01965  0.0000E+00  0.2882E-07  0.2530E-11  0.1250E-03  0.0000E+00 -0.1923E+12
   -1.856332    4.02002  0.0000E+00  0.2912E-07  0.2601E-11  0.1245E-03  0.0000E+00 -0.2036E+12
   -1.925086    4.02040  0.0000E+00  0.2937E-07  0.2680E-11  0.1233E-03  0.0000E+00 -0.2174E+12
   -1.993839    4.02080  0.0000E+00  0.2959E-07  0.2768E-11  0.1217E-03  0.0000E+00 -0.2338E+12
   -2.062592    4.02123  0.0000E+00  0.2976E-07  0.2868E-11  0.1190E-03  0.0000E+00 -0.2448E+12
   -2.131345    4.02168  0.0000E+00  0.2988E-07  0.2982E-11  0.1155E-03  0.0000E+00 -0.2567E+12
   -2.200098    4.02214  0.0000E+00  0.2994E-07  0.3114E-11  0.1113E-03  0.0000E+00 -0.2716E+12
   -2.268850    4.02262  0.0000E+00  0.2993E-07  0.3272E-11  0.1063E-03  0.0000E+00 -0.2906E+12
   -2.337601    4.02313  0.0000E+00  0.2984E-07  0.3499E-11  0.9851E-04  0.0000E+00 -0.3212E+12
   -2.406353    4.02368  0.0000E+00  0.2961E-07  0.3859E-11  0.7682E-04  0.0000E+00 -0.4240E+12
   -2.475103    4.02440  0.0000E+00  0.2917E-07  0.4426E-11  0.5850E-04  0.0000E+00 -0.5787E+12
   -2.543853    4.02536  0.0000E+00  0.2837E-07  0.5452E-11  0.4082E-04  0.0000E+00 -0.8794E+12
   -2.612603    4.02677  0.0000E+00  0.2665E-07  0.7962E-11  0.2128E-04  0.0000E+00 -0.1873E+13
   -2.681352    4.02963  0.0000E+00  0.1784E-07  0.2696E-10  0.2063E-05  0.0000E+00 -0.3050E+14
   -2.750100    4.06230  0.0000E+00  0.0000E+00  0.0000E+00  0.0000E+00  0.0000E+00  0.0000E+00
