 1 - depth, m
 2 - temperature, C
 3 - salinity, kg/kg
 4 - turbulent kinetic energy, m**2/s**2
 5 - dissipation rate, m**2/s**3
 6 - kinematic heat conductance, m**2/s
 7 - modulus of horizontal velocity, m/s
 8 - Richardson number, n/d
   -0.000000    0.00000  0.0000E+00  0.1219E-13  0.7603E-17  0.1000E-09  0.0000E+00  0.1280E+17
   -0.068741    0.19715  0.0000E+00  0.1219E-13  0.7603E-17  0.1000E-09  0.0000E+00  0.1147E+17
   -0.137483    0.38358  0.0000E+00  0.1219E-13  0.7603E-17  0.1000E-09  0.0000E+00  0.1011E+17
   -0.206225    0.55696  0.0000E+00  0.1219E-13  0.7603E-17  0.1000E-09  0.0000E+00  0.8776E+16
   -0.274968    0.71531  0.0000E+00  0.1219E-13  0.7603E-17  0.1000E-09  0.0000E+00  0.7594E+16
   -0.343712    0.85916  0.0000E+00  0.1219E-13  0.7603E-17  0.1000E-09  0.0000E+00  0.6498E+16
   -0.412456    0.98803  0.0000E+00  0.1219E-13  0.7603E-17  0.1000E-09  0.0000E+00  0.5491E+16
   -0.481200    1.10166  0.0000E+00  0.1219E-13  0.7603E-17  0.1000E-09  0.0000E+00  0.4570E+16
   -0.549945    1.19992  0.0000E+00  0.1219E-13  0.7603E-17  0.1000E-09  0.0000E+00  0.3698E+16
   -0.618691    1.28218  0.0000E+00  0.1219E-13  0.7603E-17  0.1000E-09  0.0000E+00  0.2941E+16
   -0.687436    1.34951  0.0000E+00  0.1219E-13  0.7603E-17  0.1000E-09  0.0000E+00  0.2488E+16
   -0.756182    1.40792  0.0000E+00  0.1219E-13  0.7603E-17  0.1000E-09  0.0000E+00  0.2258E+16
   -0.824929    1.46214  0.0000E+00  0.1219E-13  0.7603E-17  0.1000E-09  0.0000E+00  0.2129E+16
   -0.893675    1.51441  0.0000E+00  0.1219E-13  0.7603E-17  0.1000E-09  0.0000E+00  0.2095E+16
   -0.962422    1.56697  0.0000E+00  0.1219E-13  0.7603E-17  0.1000E-09  0.0000E+00  0.2145E+16
   -1.031169    1.62206  0.0000E+00  0.1219E-13  0.7603E-17  0.1000E-09  0.0000E+00  0.2288E+16
   -1.099917    1.68232  0.0000E+00  0.1219E-13  0.7603E-17  0.1000E-09  0.0000E+00  0.2479E+16
   -1.168664    1.74952  0.0000E+00  0.1219E-13  0.7603E-17  0.1000E-09  0.0000E+00  0.2692E+16
   -1.237412    1.82495  0.0000E+00  0.1219E-13  0.7603E-17  0.1000E-09  0.0000E+00  0.2901E+16
   -1.306159    1.90942  0.0000E+00  0.1219E-13  0.7603E-17  0.1000E-09  0.0000E+00  0.3078E+16
   -1.374907    2.00311  0.0000E+00  0.1219E-13  0.7603E-17  0.1000E-09  0.0000E+00  0.3279E+16
   -1.443655    2.10821  0.0000E+00  0.1219E-13  0.7603E-17  0.1000E-09  0.0000E+00  0.3416E+16
   -1.512402    2.22460  0.0000E+00  0.1219E-13  0.7603E-17  0.1000E-09  0.0000E+00  0.3469E+16
   -1.581150    2.35148  0.0000E+00  0.1219E-13  0.7603E-17  0.1000E-09  0.0000E+00  0.3417E+16
   -1.649897    2.48723  0.0000E+00  0.1219E-13  0.7603E-17  0.1000E-09  0.0000E+00  0.3252E+16
   -1.718644    2.62934  0.0000E+00  0.1219E-13  0.7603E-17  0.1000E-09  0.0000E+00  0.2991E+16
   -1.787392    2.77501  0.0000E+00  0.1219E-13  0.7603E-17  0.1000E-09  0.0000E+00  0.2656E+16
   -1.856138    2.92131  0.0000E+00  0.1220E-13  0.7604E-17  0.1000E-09  0.0000E+00  0.2278E+16
   -1.924885    3.06547  0.0000E+00  0.4859E-13  0.1849E-16  0.1000E-09  0.0000E+00  0.1886E+16
   -1.993632    3.20503  0.0000E+00  0.2065E-12  0.7253E-16  0.1000E-09  0.0000E+00  0.1506E+16
   -2.062378    3.33805  0.0000E+00  0.8433E-12  0.2840E-15  0.1000E-09  0.0000E+00  0.1164E+16
   -2.131123    3.46385  0.0000E+00  0.3363E-11  0.1089E-14  0.1000E-09  0.0000E+00  0.8639E+15
   -2.199869    3.58199  0.0000E+00  0.1314E-10  0.4099E-14  0.1000E-09  0.0000E+00  0.6085E+15
   -2.268614    3.69267  0.0000E+00  0.5079E-10  0.1527E-13  0.1916E-09  0.0000E+00  0.4038E+15
   -2.337358    3.79952  0.0000E+00  0.1958E-09  0.5684E-13  0.1289E-08  0.0000E+00  0.2226E+15
   -2.406102    3.90534  0.0000E+00  0.7388E-09  0.2079E-12  0.2062E-07  0.0000E+00  0.4965E+14
   -2.474846    4.00236  0.0000E+00  0.2144E-08  0.6075E-12  0.2439E-05  0.0000E+00 -0.2111E+13
   -2.543589    4.00931  0.0000E+00  0.3041E-08  0.1116E-11  0.2587E-05  0.0000E+00 -0.3480E+13
   -2.612331    4.01752  0.0000E+00  0.4000E-08  0.2403E-11  0.1989E-05  0.0000E+00 -0.9077E+13
   -2.681073    4.03250  0.0000E+00  0.5446E-08  0.8208E-11  0.1100E-05  0.0000E+00 -0.5785E+14
   -2.749814    4.08392  0.0000E+00  0.0000E+00  0.0000E+00  0.0000E+00  0.0000E+00  0.0000E+00
