 1 - depth, m
 2 - temperature, C
 3 - salinity, kg/kg
 4 - turbulent kinetic energy, m**2/s**2
 5 - dissipation rate, m**2/s**3
 6 - kinematic heat conductance, m**2/s
 7 - modulus of horizontal velocity, m/s
 8 - Richardson number, n/d
   -0.000000   10.56230  0.0000E+00  0.1574E-04  0.9106E-06  0.3129E-04  0.2279E-01 -0.4474E-01
   -0.068732   10.59798  0.0000E+00  0.1273E-04  0.2769E-06  0.8070E-04  0.1227E-01 -0.1644E+00
   -0.137465   10.61093  0.0000E+00  0.1108E-04  0.1385E-06  0.1684E-03  0.8639E-02  0.3760E+01
   -0.206199   10.61821  0.0000E+00  0.1001E-04  0.8480E-07  0.2540E-03  0.6610E-02  0.2093E+02
   -0.274933   10.62307  0.0000E+00  0.9322E-05  0.5875E-07  0.3275E-03  0.5345E-02  0.1152E+02
   -0.343667   10.62661  0.0000E+00  0.8848E-05  0.4390E-07  0.4118E-03  0.4453E-02  0.8089E+01
   -0.412403   10.62929  0.0000E+00  0.8508E-05  0.3456E-07  0.5224E-03  0.3791E-02  0.6882E+01
   -0.481138   10.63122  0.0000E+00  0.8284E-05  0.2874E-07  0.7560E-03  0.3286E-02  0.1858E+02
   -0.549874   10.63240  0.0000E+00  0.8153E-05  0.2493E-07  0.9158E-03  0.2935E-02  0.3151E+01
   -0.618611   10.63332  0.0000E+00  0.8065E-05  0.2198E-07  0.1000E-02  0.2639E-02  0.2992E+01
   -0.687348   10.63414  0.0000E+00  0.8001E-05  0.1960E-07  0.1090E-02  0.2369E-02  0.2829E+01
   -0.756085   10.63489  0.0000E+00  0.7955E-05  0.1768E-07  0.1180E-02  0.2131E-02  0.2639E+01
   -0.824822   10.63556  0.0000E+00  0.7923E-05  0.1612E-07  0.1261E-02  0.1919E-02  0.2463E+01
   -0.893560   10.63619  0.0000E+00  0.7899E-05  0.1483E-07  0.1333E-02  0.1730E-02  0.2295E+01
   -0.962298   10.63678  0.0000E+00  0.7880E-05  0.1377E-07  0.1404E-02  0.1562E-02  0.2138E+01
   -1.031036   10.63733  0.0000E+00  0.7865E-05  0.1289E-07  0.1465E-02  0.1413E-02  0.2079E+01
   -1.099775   10.63785  0.0000E+00  0.7849E-05  0.1215E-07  0.1523E-02  0.1277E-02  0.2020E+01
   -1.168513   10.63835  0.0000E+00  0.7832E-05  0.1154E-07  0.1578E-02  0.1153E-02  0.1960E+01
   -1.237252   10.63883  0.0000E+00  0.7810E-05  0.1103E-07  0.1629E-02  0.1039E-02  0.1900E+01
   -1.305991   10.63929  0.0000E+00  0.7783E-05  0.1061E-07  0.1677E-02  0.9353E-03  0.1840E+01
   -1.374730   10.63973  0.0000E+00  0.7751E-05  0.1027E-07  0.1720E-02  0.8399E-03  0.1781E+01
   -1.443468   10.64016  0.0000E+00  0.7712E-05  0.1000E-07  0.1760E-02  0.7523E-03  0.1726E+01
   -1.512207   10.64058  0.0000E+00  0.7667E-05  0.9795E-08  0.1808E-02  0.6718E-03  0.1629E+01
   -1.580946   10.64098  0.0000E+00  0.7616E-05  0.9648E-08  0.1847E-02  0.6001E-03  0.1528E+01
   -1.649684   10.64137  0.0000E+00  0.7560E-05  0.9556E-08  0.1847E-02  0.5372E-03  0.1446E+01
   -1.718423   10.64176  0.0000E+00  0.7500E-05  0.9516E-08  0.1824E-02  0.4821E-03  0.1389E+01
   -1.787161   10.64216  0.0000E+00  0.7437E-05  0.9523E-08  0.1791E-02  0.4340E-03  0.1350E+01
   -1.855899   10.64256  0.0000E+00  0.7371E-05  0.9576E-08  0.1750E-02  0.3918E-03  0.1336E+01
   -1.924637   10.64297  0.0000E+00  0.7304E-05  0.9675E-08  0.1700E-02  0.3547E-03  0.1346E+01
   -1.993374   10.64339  0.0000E+00  0.7234E-05  0.9821E-08  0.1644E-02  0.3220E-03  0.1392E+01
   -2.062112   10.64382  0.0000E+00  0.7163E-05  0.1002E-07  0.1583E-02  0.2929E-03  0.1475E+01
   -2.130848   10.64427  0.0000E+00  0.7089E-05  0.1027E-07  0.1519E-02  0.2669E-03  0.1649E+01
   -2.199585   10.64474  0.0000E+00  0.7009E-05  0.1060E-07  0.1447E-02  0.2431E-03  0.2022E+01
   -2.268321   10.64523  0.0000E+00  0.6920E-05  0.1106E-07  0.1358E-02  0.2196E-03  0.2579E+01
   -2.337057   10.64575  0.0000E+00  0.6816E-05  0.1170E-07  0.1252E-02  0.1967E-03  0.3520E+01
   -2.405792   10.64631  0.0000E+00  0.6693E-05  0.1263E-07  0.1127E-02  0.1745E-03  0.5236E+01
   -2.474526   10.64694  0.0000E+00  0.6542E-05  0.1406E-07  0.9825E-03  0.1526E-03  0.8632E+01
   -2.543261   10.64765  0.0000E+00  0.6343E-05  0.1653E-07  0.7901E-03  0.1308E-03  0.1715E+02
   -2.611994   10.64854  0.0000E+00  0.6043E-05  0.2173E-07  0.6292E-03  0.1090E-03  0.4308E+02
   -2.680727   10.64966  0.0000E+00  0.3872E-05  0.8103E-07  0.2794E-04  0.8964E-04 -0.4318E+04
   -2.749459   10.67478  0.0000E+00  0.0000E+00  0.0000E+00  0.0000E+00  0.8961E-04  0.0000E+00
