 1 - depth, m
 2 - temperature, C
 3 - salinity, kg/kg
 4 - turbulent kinetic energy, m**2/s**2
 5 - dissipation rate, m**2/s**3
 6 - kinematic heat conductance, m**2/s
 7 - modulus of horizontal velocity, m/s
 8 - Richardson number, n/d
   -0.000000    0.00000  0.0000E+00  0.1219E-13  0.7603E-17  0.1000E-09  0.0000E+00  0.1158E+17
   -0.068774    0.17789  0.0000E+00  0.1219E-13  0.7603E-17  0.1000E-09  0.0000E+00  0.1054E+17
   -0.137548    0.34800  0.0000E+00  0.1219E-13  0.7603E-17  0.1000E-09  0.0000E+00  0.9483E+16
   -0.206324    0.50854  0.0000E+00  0.1219E-13  0.7603E-17  0.1000E-09  0.0000E+00  0.8423E+16
   -0.275099    0.65804  0.0000E+00  0.1219E-13  0.7603E-17  0.1000E-09  0.0000E+00  0.7491E+16
   -0.343876    0.79722  0.0000E+00  0.1219E-13  0.7603E-17  0.1000E-09  0.0000E+00  0.6620E+16
   -0.412653    0.92576  0.0000E+00  0.1219E-13  0.7603E-17  0.1000E-09  0.0000E+00  0.5809E+16
   -0.481430    1.04343  0.0000E+00  0.1219E-13  0.7603E-17  0.1000E-09  0.0000E+00  0.5052E+16
   -0.550208    1.14993  0.0000E+00  0.1219E-13  0.7603E-17  0.1000E-09  0.0000E+00  0.4318E+16
   -0.618986    1.24439  0.0000E+00  0.1219E-13  0.7603E-17  0.1000E-09  0.0000E+00  0.3664E+16
   -0.687764    1.32730  0.0000E+00  0.1219E-13  0.7603E-17  0.1000E-09  0.0000E+00  0.3261E+16
   -0.756543    1.40343  0.0000E+00  0.1219E-13  0.7603E-17  0.1000E-09  0.0000E+00  0.3031E+16
   -0.825322    1.47636  0.0000E+00  0.1219E-13  0.7603E-17  0.1000E-09  0.0000E+00  0.2865E+16
   -0.894102    1.54738  0.0000E+00  0.1219E-13  0.7603E-17  0.1000E-09  0.0000E+00  0.2756E+16
   -0.962882    1.61778  0.0000E+00  0.1219E-13  0.7603E-17  0.1000E-09  0.0000E+00  0.2695E+16
   -1.031662    1.68882  0.0000E+00  0.1219E-13  0.7603E-17  0.1000E-09  0.0000E+00  0.2693E+16
   -1.100442    1.76213  0.0000E+00  0.1219E-13  0.7603E-17  0.1000E-09  0.0000E+00  0.2716E+16
   -1.169222    1.83872  0.0000E+00  0.1219E-13  0.7603E-17  0.1000E-09  0.0000E+00  0.2751E+16
   -1.238002    1.91929  0.0000E+00  0.1219E-13  0.7603E-17  0.1000E-09  0.0000E+00  0.2784E+16
   -1.306783    2.00426  0.0000E+00  0.1219E-13  0.7603E-17  0.1000E-09  0.0000E+00  0.2801E+16
   -1.375563    2.09374  0.0000E+00  0.1219E-13  0.7603E-17  0.1000E-09  0.0000E+00  0.2851E+16
   -1.444343    2.18952  0.0000E+00  0.1219E-13  0.7603E-17  0.1000E-09  0.0000E+00  0.2878E+16
   -1.513124    2.29186  0.0000E+00  0.1219E-13  0.7603E-17  0.1000E-09  0.0000E+00  0.2864E+16
   -1.581904    2.40043  0.0000E+00  0.1219E-13  0.7603E-17  0.1000E-09  0.0000E+00  0.2801E+16
   -1.650684    2.51455  0.0000E+00  0.1219E-13  0.7603E-17  0.1000E-09  0.0000E+00  0.2683E+16
   -1.719464    2.63310  0.0000E+00  0.1219E-13  0.7603E-17  0.1000E-09  0.0000E+00  0.2516E+16
   -1.788244    2.75483  0.0000E+00  0.1219E-13  0.7603E-17  0.1000E-09  0.0000E+00  0.2306E+16
   -1.857024    2.87838  0.0000E+00  0.1219E-13  0.7603E-17  0.1000E-09  0.0000E+00  0.2066E+16
   -1.925804    3.00240  0.0000E+00  0.1219E-13  0.7603E-17  0.1000E-09  0.0000E+00  0.1807E+16
   -1.994583    3.12565  0.0000E+00  0.2402E-13  0.1144E-16  0.1000E-09  0.0000E+00  0.1540E+16
   -2.063362    3.24701  0.0000E+00  0.1105E-12  0.4863E-16  0.1000E-09  0.0000E+00  0.1286E+16
   -2.132140    3.36651  0.0000E+00  0.5173E-12  0.2183E-15  0.1000E-09  0.0000E+00  0.1040E+16
   -2.200918    3.48376  0.0000E+00  0.2370E-11  0.9626E-15  0.1000E-09  0.0000E+00  0.8061E+15
   -2.269696    3.59854  0.0000E+00  0.1073E-10  0.4199E-14  0.1000E-09  0.0000E+00  0.5967E+15
   -2.338473    3.71321  0.0000E+00  0.4843E-10  0.1828E-13  0.2329E-09  0.0000E+00  0.3933E+15
   -2.407250    3.82963  0.0000E+00  0.2159E-09  0.7878E-13  0.2144E-08  0.0000E+00  0.1815E+15
   -2.476027    3.94864  0.0000E+00  0.9151E-09  0.3262E-12  0.1506E-06  0.0000E+00  0.6106E+13
   -2.544802    4.01209  0.0000E+00  0.2740E-08  0.1127E-11  0.2232E-05  0.0000E+00 -0.4559E+13
   -2.613578    4.02164  0.0000E+00  0.3958E-08  0.2456E-11  0.1979E-05  0.0000E+00 -0.9932E+13
   -2.682352    4.03649  0.0000E+00  0.5355E-08  0.8051E-11  0.1083E-05  0.0000E+00 -0.5753E+14
   -2.751126    4.08567  0.0000E+00  0.0000E+00  0.0000E+00  0.0000E+00  0.0000E+00  0.0000E+00
