 1 - depth, m
 2 - temperature, C
 3 - salinity, kg/kg
 4 - turbulent kinetic energy, m**2/s**2
 5 - dissipation rate, m**2/s**3
 6 - kinematic heat conductance, m**2/s
 7 - modulus of horizontal velocity, m/s
 8 - Richardson number, n/d
   -0.000000    0.00000  0.0000E+00  0.1219E-13  0.7603E-17  0.1000E-09  0.0000E+00  0.1278E+17
   -0.068738    0.19683  0.0000E+00  0.1219E-13  0.7603E-17  0.1000E-09  0.0000E+00  0.1187E+17
   -0.137477    0.39000  0.0000E+00  0.1219E-13  0.7603E-17  0.1000E-09  0.0000E+00  0.1099E+17
   -0.206216    0.57928  0.0000E+00  0.1219E-13  0.7603E-17  0.1000E-09  0.0000E+00  0.1015E+17
   -0.274956    0.76450  0.0000E+00  0.1219E-13  0.7603E-17  0.1000E-09  0.0000E+00  0.9374E+16
   -0.343697    0.94615  0.0000E+00  0.1219E-13  0.7603E-17  0.1000E-09  0.0000E+00  0.8635E+16
   -0.412438    1.12422  0.0000E+00  0.1219E-13  0.7603E-17  0.1000E-09  0.0000E+00  0.7929E+16
   -0.481179    1.29862  0.0000E+00  0.1219E-13  0.7603E-17  0.1000E-09  0.0000E+00  0.7250E+16
   -0.549921    1.46913  0.0000E+00  0.4173E-13  0.7604E-17  0.1000E-09  0.0000E+00  0.6587E+16
   -0.618664    1.63523  0.0000E+00  0.1202E-12  0.1055E-16  0.1000E-09  0.0000E+00  0.5957E+16
   -0.687406    1.79671  0.0000E+00  0.2673E-12  0.1905E-16  0.1000E-09  0.0000E+00  0.5410E+16
   -0.756149    1.95491  0.0000E+00  0.5383E-12  0.3574E-16  0.1000E-09  0.0000E+00  0.4916E+16
   -0.824893    2.11059  0.0000E+00  0.1042E-11  0.6678E-16  0.1000E-09  0.0000E+00  0.4439E+16
   -0.893636    2.26362  0.0000E+00  0.1979E-11  0.1237E-15  0.1000E-09  0.0000E+00  0.3981E+16
   -0.962380    2.41387  0.0000E+00  0.3721E-11  0.2273E-15  0.1000E-09  0.0000E+00  0.3543E+16
   -1.031124    2.56119  0.0000E+00  0.6932E-11  0.4144E-15  0.1000E-09  0.0000E+00  0.3127E+16
   -1.099869    2.70560  0.0000E+00  0.1281E-10  0.7497E-15  0.1000E-09  0.0000E+00  0.2732E+16
   -1.168613    2.84696  0.0000E+00  0.2350E-10  0.1347E-14  0.1000E-09  0.0000E+00  0.2356E+16
   -1.237358    2.98514  0.0000E+00  0.4285E-10  0.2405E-14  0.1000E-09  0.0000E+00  0.2002E+16
   -1.306102    3.11999  0.0000E+00  0.7765E-10  0.4269E-14  0.1000E-09  0.0000E+00  0.1669E+16
   -1.374847    3.25135  0.0000E+00  0.1398E-09  0.7532E-14  0.1000E-09  0.0000E+00  0.1370E+16
   -1.443592    3.38043  0.0000E+00  0.2504E-09  0.1321E-13  0.1000E-09  0.0000E+00  0.1089E+16
   -1.512336    3.50755  0.0000E+00  0.4461E-09  0.2307E-13  0.1429E-09  0.0000E+00  0.8214E+15
   -1.581081    3.63272  0.0000E+00  0.7936E-09  0.4022E-13  0.3621E-09  0.0000E+00  0.5655E+15
   -1.649825    3.75572  0.0000E+00  0.1406E-08  0.6984E-13  0.1105E-08  0.0000E+00  0.3220E+15
   -1.718569    3.87599  0.0000E+00  0.2472E-08  0.1204E-12  0.6445E-08  0.0000E+00  0.9534E+14
   -1.787313    3.98971  0.0000E+00  0.2833E-08  0.1387E-12  0.1685E-04  0.0000E+00 -0.5525E+11
   -1.856057    3.99066  0.0000E+00  0.3020E-08  0.1503E-12  0.1911E-04  0.0000E+00 -0.6382E+11
   -1.924801    3.99152  0.0000E+00  0.3192E-08  0.1631E-12  0.2065E-04  0.0000E+00 -0.6962E+11
   -1.993544    3.99232  0.0000E+00  0.3349E-08  0.1773E-12  0.2154E-04  0.0000E+00 -0.7607E+11
   -2.062288    3.99308  0.0000E+00  0.3492E-08  0.1933E-12  0.2186E-04  0.0000E+00 -0.8404E+11
   -2.131030    3.99383  0.0000E+00  0.3620E-08  0.2117E-12  0.2163E-04  0.0000E+00 -0.9422E+11
   -2.199773    3.99460  0.0000E+00  0.3730E-08  0.2331E-12  0.2087E-04  0.0000E+00 -0.1077E+12
   -2.268515    3.99539  0.0000E+00  0.3822E-08  0.2594E-12  0.1960E-04  0.0000E+00 -0.1268E+12
   -2.337256    3.99624  0.0000E+00  0.3893E-08  0.2939E-12  0.1772E-04  0.0000E+00 -0.1560E+12
   -2.405997    3.99720  0.0000E+00  0.3936E-08  0.3426E-12  0.1519E-04  0.0000E+00 -0.2047E+12
   -2.474738    3.99834  0.0000E+00  0.3938E-08  0.4182E-12  0.1199E-04  0.0000E+00 -0.2984E+12
   -2.543478    3.99983  0.0000E+00  0.3867E-08  0.5596E-12  0.8144E-05  0.0000E+00 -0.5345E+12
   -2.612217    4.00215  0.0000E+00  0.3623E-08  0.9282E-12  0.3890E-05  0.0000E+00 -0.1561E+13
   -2.680956    4.00753  0.0000E+00  0.2812E-08  0.2843E-11  0.6854E-06  0.0000E+00 -0.2210E+14
   -2.749694    4.04351  0.0000E+00  0.0000E+00  0.0000E+00  0.0000E+00  0.0000E+00  0.0000E+00
