 1 - depth, m
 2 - temperature, C
 3 - salinity, kg/kg
 4 - turbulent kinetic energy, m**2/s**2
 5 - dissipation rate, m**2/s**3
 6 - kinematic heat conductance, m**2/s
 7 - modulus of horizontal velocity, m/s
 8 - Richardson number, n/d
   -0.000000    0.00000  0.0000E+00  0.1176E-12  0.1581E-16  0.1000E-09  0.0000E+00  0.1510E+17
   -0.068739    0.23388  0.0000E+00  0.2186E-12  0.1797E-16  0.1000E-09  0.0000E+00  0.1397E+17
   -0.137478    0.46494  0.0000E+00  0.4373E-12  0.2901E-16  0.1000E-09  0.0000E+00  0.1285E+17
   -0.206218    0.69274  0.0000E+00  0.8477E-12  0.5182E-16  0.1000E-09  0.0000E+00  0.1176E+17
   -0.274959    0.91689  0.0000E+00  0.1599E-11  0.9398E-16  0.1000E-09  0.0000E+00  0.1073E+17
   -0.343700    1.13758  0.0000E+00  0.2963E-11  0.1697E-15  0.1000E-09  0.0000E+00  0.9740E+16
   -0.412442    1.35465  0.0000E+00  0.5435E-11  0.3043E-15  0.1000E-09  0.0000E+00  0.8785E+16
   -0.481184    1.56787  0.0000E+00  0.9892E-11  0.5422E-15  0.1000E-09  0.0000E+00  0.7867E+16
   -0.549927    1.77697  0.0000E+00  0.1791E-10  0.9616E-15  0.1000E-09  0.0000E+00  0.6980E+16
   -0.618670    1.98140  0.0000E+00  0.3225E-10  0.1697E-14  0.1000E-09  0.0000E+00  0.6139E+16
   -0.687413    2.18092  0.0000E+00  0.5776E-10  0.2978E-14  0.1000E-09  0.0000E+00  0.5389E+16
   -0.756157    2.37699  0.0000E+00  0.1029E-09  0.5199E-14  0.1000E-09  0.0000E+00  0.4696E+16
   -0.824901    2.57045  0.0000E+00  0.1822E-09  0.9027E-14  0.1000E-09  0.0000E+00  0.4029E+16
   -0.893646    2.76117  0.0000E+00  0.3210E-09  0.1559E-13  0.1000E-09  0.0000E+00  0.3389E+16
   -0.962390    2.94903  0.0000E+00  0.5626E-09  0.2679E-13  0.1000E-09  0.0000E+00  0.2777E+16
   -1.031135    3.13387  0.0000E+00  0.9795E-09  0.4575E-13  0.1061E-09  0.0000E+00  0.2195E+16
   -1.099880    3.31565  0.0000E+00  0.1694E-08  0.7763E-13  0.2409E-09  0.0000E+00  0.1640E+16
   -1.168625    3.49408  0.0000E+00  0.2914E-08  0.1310E-12  0.5977E-09  0.0000E+00  0.1116E+16
   -1.237370    3.66885  0.0000E+00  0.4981E-08  0.2197E-12  0.1800E-08  0.0000E+00  0.6216E+15
   -1.306116    3.83890  0.0000E+00  0.8431E-08  0.3651E-12  0.1096E-07  0.0000E+00  0.1698E+15
   -1.374861    3.99567  0.0000E+00  0.8748E-08  0.3795E-12  0.7316E-04  0.0000E+00 -0.4377E+11
   -1.443606    3.99597  0.0000E+00  0.8896E-08  0.3876E-12  0.7166E-04  0.0000E+00 -0.4954E+11
   -1.512352    3.99629  0.0000E+00  0.9029E-08  0.3961E-12  0.7326E-04  0.0000E+00 -0.5075E+11
   -1.581097    3.99661  0.0000E+00  0.9150E-08  0.4054E-12  0.7463E-04  0.0000E+00 -0.5166E+11
   -1.649842    3.99693  0.0000E+00  0.9261E-08  0.4157E-12  0.7567E-04  0.0000E+00 -0.5265E+11
   -1.718587    3.99724  0.0000E+00  0.9361E-08  0.4271E-12  0.7603E-04  0.0000E+00 -0.5408E+11
   -1.787332    3.99755  0.0000E+00  0.9450E-08  0.4399E-12  0.7549E-04  0.0000E+00 -0.5616E+11
   -1.856076    3.99786  0.0000E+00  0.9529E-08  0.4544E-12  0.7407E-04  0.0000E+00 -0.5901E+11
   -1.924821    3.99819  0.0000E+00  0.9595E-08  0.4711E-12  0.7171E-04  0.0000E+00 -0.6290E+11
   -1.993565    3.99852  0.0000E+00  0.9647E-08  0.4903E-12  0.6830E-04  0.0000E+00 -0.6819E+11
   -2.062309    3.99887  0.0000E+00  0.9683E-08  0.5128E-12  0.6398E-04  0.0000E+00 -0.7492E+11
   -2.131052    3.99925  0.0000E+00  0.9701E-08  0.5395E-12  0.5942E-04  0.0000E+00 -0.8311E+11
   -2.199795    3.99965  0.0000E+00  0.9698E-08  0.5718E-12  0.5476E-04  0.0000E+00 -0.9310E+11
   -2.268538    4.00009  0.0000E+00  0.9669E-08  0.6123E-12  0.4971E-04  0.0000E+00 -0.1063E+12
   -2.337280    4.00057  0.0000E+00  0.9605E-08  0.6665E-12  0.4381E-04  0.0000E+00 -0.1256E+12
   -2.406022    4.00113  0.0000E+00  0.9494E-08  0.7438E-12  0.3691E-04  0.0000E+00 -0.1563E+12
   -2.474763    4.00178  0.0000E+00  0.9310E-08  0.8640E-12  0.2893E-04  0.0000E+00 -0.2115E+12
   -2.543504    4.00263  0.0000E+00  0.8989E-08  0.1085E-11  0.1979E-04  0.0000E+00 -0.3365E+12
   -2.612244    4.00390  0.0000E+00  0.8317E-08  0.1647E-11  0.9703E-05  0.0000E+00 -0.7962E+12
   -2.680983    4.00658  0.0000E+00  0.5505E-08  0.5401E-11  0.1015E-05  0.0000E+00 -0.1379E+14
   -2.749722    4.03291  0.0000E+00  0.0000E+00  0.0000E+00  0.0000E+00  0.0000E+00  0.0000E+00
