 1 - depth, m
 2 - temperature, C
 3 - salinity, kg/kg
 4 - turbulent kinetic energy, m**2/s**2
 5 - dissipation rate, m**2/s**3
 6 - kinematic heat conductance, m**2/s
 7 - modulus of horizontal velocity, m/s
 8 - Richardson number, n/d
   -0.000000   13.47117  0.0000E+00  0.4501E-04  0.9070E-05  0.4987E-04  0.4744E-01 -0.4975E-01
   -0.068737   13.52305  0.0000E+00  0.2570E-04  0.1888E-05  0.8698E-04  0.1966E-01 -0.1188E+00
   -0.137475   13.53740  0.0000E+00  0.1990E-04  0.6993E-06  0.1620E-03  0.1418E-01  0.4720E+00
   -0.206214   13.54634  0.0000E+00  0.1669E-04  0.3267E-06  0.2623E-03  0.1099E-01  0.1750E+04
   -0.274953   13.55271  0.0000E+00  0.1491E-04  0.1847E-06  0.3390E-03  0.8875E-02  0.8004E+02
   -0.343692   13.55752  0.0000E+00  0.1383E-04  0.1200E-06  0.4294E-03  0.7340E-02  0.8947E+01
   -0.412432   13.56116  0.0000E+00  0.1311E-04  0.8598E-07  0.5403E-03  0.6199E-02  0.8819E+01
   -0.481173   13.56391  0.0000E+00  0.1264E-04  0.6628E-07  0.7149E-03  0.5338E-02  0.7633E+03
   -0.549914   13.56581  0.0000E+00  0.1234E-04  0.5430E-07  0.9670E-03  0.4692E-02  0.3962E+03
   -0.618656   13.56702  0.0000E+00  0.1217E-04  0.4635E-07  0.1115E-02  0.4211E-02  0.1892E+02
   -0.687397   13.56799  0.0000E+00  0.1206E-04  0.4044E-07  0.1229E-02  0.3791E-02  0.6236E+01
   -0.756140   13.56884  0.0000E+00  0.1199E-04  0.3586E-07  0.1318E-02  0.3421E-02  0.3964E+01
   -0.824882   13.56961  0.0000E+00  0.1195E-04  0.3220E-07  0.1401E-02  0.3090E-02  0.3096E+01
   -0.893625   13.57034  0.0000E+00  0.1193E-04  0.2925E-07  0.1481E-02  0.2794E-02  0.2819E+01
   -0.962368   13.57103  0.0000E+00  0.1192E-04  0.2686E-07  0.1561E-02  0.2529E-02  0.2582E+01
   -1.031111   13.57168  0.0000E+00  0.1191E-04  0.2490E-07  0.1629E-02  0.2292E-02  0.2506E+01
   -1.099855   13.57230  0.0000E+00  0.1191E-04  0.2329E-07  0.1693E-02  0.2075E-02  0.2432E+01
   -1.168598   13.57290  0.0000E+00  0.1189E-04  0.2195E-07  0.1753E-02  0.1874E-02  0.2354E+01
   -1.237342   13.57347  0.0000E+00  0.1187E-04  0.2086E-07  0.1808E-02  0.1689E-02  0.2276E+01
   -1.306086   13.57403  0.0000E+00  0.1183E-04  0.1996E-07  0.1857E-02  0.1519E-02  0.2196E+01
   -1.374829   13.57457  0.0000E+00  0.1178E-04  0.1924E-07  0.1898E-02  0.1361E-02  0.2118E+01
   -1.443573   13.57509  0.0000E+00  0.1171E-04  0.1867E-07  0.1932E-02  0.1216E-02  0.2043E+01
   -1.512317   13.57561  0.0000E+00  0.1162E-04  0.1825E-07  0.1972E-02  0.1081E-02  0.1904E+01
   -1.581060   13.57612  0.0000E+00  0.1151E-04  0.1796E-07  0.2012E-02  0.9602E-03  0.1759E+01
   -1.649804   13.57661  0.0000E+00  0.1139E-04  0.1779E-07  0.2053E-02  0.8539E-03  0.1633E+01
   -1.718547   13.57709  0.0000E+00  0.1126E-04  0.1774E-07  0.2091E-02  0.7610E-03  0.1520E+01
   -1.787291   13.57756  0.0000E+00  0.1112E-04  0.1780E-07  0.2094E-02  0.6798E-03  0.1415E+01
   -1.856034   13.57803  0.0000E+00  0.1097E-04  0.1797E-07  0.2044E-02  0.6094E-03  0.1335E+01
   -1.924776   13.57851  0.0000E+00  0.1082E-04  0.1824E-07  0.1961E-02  0.5481E-03  0.1291E+01
   -1.993519   13.57901  0.0000E+00  0.1067E-04  0.1863E-07  0.1866E-02  0.4946E-03  0.1282E+01
   -2.062261   13.57954  0.0000E+00  0.1051E-04  0.1914E-07  0.1764E-02  0.4477E-03  0.1314E+01
   -2.131003   13.58011  0.0000E+00  0.1035E-04  0.1978E-07  0.1659E-02  0.4064E-03  0.1394E+01
   -2.199744   13.58071  0.0000E+00  0.1018E-04  0.2060E-07  0.1555E-02  0.3695E-03  0.1621E+01
   -2.268486   13.58136  0.0000E+00  0.1000E-04  0.2169E-07  0.1439E-02  0.3356E-03  0.2095E+01
   -2.337226   13.58206  0.0000E+00  0.9786E-05  0.2327E-07  0.1292E-02  0.3026E-03  0.3021E+01
   -2.405966   13.58284  0.0000E+00  0.9519E-05  0.2567E-07  0.1135E-02  0.2699E-03  0.4913E+01
   -2.474706   13.58374  0.0000E+00  0.9175E-05  0.2966E-07  0.8985E-03  0.2372E-03  0.1110E+02
   -2.543445   13.58490  0.0000E+00  0.8697E-05  0.3718E-07  0.8219E-03  0.2019E-03  0.2813E+02
   -2.612183   13.58616  0.0000E+00  0.7732E-05  0.6210E-07  0.3464E-03  0.1709E-03 -0.6360E+02
   -2.680921   13.59180  0.0000E+00  0.4630E-05  0.2064E-06  0.9081E-04  0.1108E-03 -0.1012E+04
   -2.749659   13.60338  0.0000E+00  0.0000E+00  0.0000E+00  0.0000E+00  0.1275E-03  0.0000E+00
