 1 - depth, m
 2 - temperature, C
 3 - salinity, kg/kg
 4 - turbulent kinetic energy, m**2/s**2
 5 - dissipation rate, m**2/s**3
 6 - kinematic heat conductance, m**2/s
 7 - modulus of horizontal velocity, m/s
 8 - Richardson number, n/d
   -0.000000    7.56345  0.0000E+00  0.3982E-03  0.2695E-03  0.1356E-03  0.2185E+00  0.4059E-02
   -0.068746    7.63477  0.0000E+00  0.2151E-03  0.7047E-04  0.3210E-03  0.6570E-01 -0.4304E-01
   -0.137493    7.64525  0.0000E+00  0.1546E-03  0.3056E-04  0.2895E-03  0.5035E-01 -0.1406E+00
   -0.206240    7.65348  0.0000E+00  0.1162E-03  0.1433E-04  0.2853E-03  0.4200E-01 -0.1144E-01
   -0.274988    7.65940  0.0000E+00  0.9149E-04  0.7130E-05  0.2894E-03  0.3637E-01 -0.1149E-01
   -0.343736    7.66425  0.0000E+00  0.7482E-04  0.3778E-05  0.3029E-03  0.3152E-01 -0.1292E-01
   -0.412485    7.66844  0.0000E+00  0.6323E-04  0.2163E-05  0.3207E-03  0.2740E-01 -0.1454E-01
   -0.481234    7.67209  0.0000E+00  0.5469E-04  0.1338E-05  0.3405E-03  0.2392E-01 -0.1702E-01
   -0.549984    7.67534  0.0000E+00  0.4804E-04  0.8877E-06  0.3639E-03  0.2096E-01 -0.2137E-01
   -0.618734    7.67824  0.0000E+00  0.4276E-04  0.6239E-06  0.3871E-03  0.1849E-01 -0.2677E-01
   -0.687485    7.68087  0.0000E+00  0.3846E-04  0.4585E-06  0.4103E-03  0.1640E-01 -0.3350E-01
   -0.756236    7.68327  0.0000E+00  0.3487E-04  0.3484E-06  0.4338E-03  0.1461E-01 -0.4182E-01
   -0.824987    7.68550  0.0000E+00  0.3182E-04  0.2717E-06  0.4578E-03  0.1305E-01 -0.5208E-01
   -0.893739    7.68756  0.0000E+00  0.2919E-04  0.2163E-06  0.4824E-03  0.1170E-01 -0.6476E-01
   -0.962491    7.68948  0.0000E+00  0.2692E-04  0.1753E-06  0.5081E-03  0.1052E-01 -0.8049E-01
   -1.031243    7.69128  0.0000E+00  0.2497E-04  0.1445E-06  0.5310E-03  0.9485E-02 -0.9300E-01
   -1.099995    7.69297  0.0000E+00  0.2326E-04  0.1208E-06  0.5561E-03  0.8555E-02 -0.5927E-01
   -1.168747    7.69456  0.0000E+00  0.2176E-04  0.1021E-06  0.5872E-03  0.7715E-02  0.3574E+01
   -1.237500    7.69605  0.0000E+00  0.2041E-04  0.8732E-07  0.6238E-03  0.6955E-02  0.9693E+00
   -1.306252    7.69745  0.0000E+00  0.1920E-04  0.7536E-07  0.6698E-03  0.6266E-02  0.3399E+02
   -1.375005    7.69875  0.0000E+00  0.1811E-04  0.6559E-07  0.7389E-03  0.5637E-02  0.1449E+02
   -1.443757    7.69995  0.0000E+00  0.1711E-04  0.5753E-07  0.8330E-03  0.5062E-02  0.6385E+02
   -1.512510    7.70103  0.0000E+00  0.1618E-04  0.5078E-07  0.9251E-03  0.4532E-02  0.6117E+02
   -1.581262    7.70202  0.0000E+00  0.1533E-04  0.4508E-07  0.1021E-02  0.4054E-02  0.3710E+02
   -1.650014    7.70290  0.0000E+00  0.1454E-04  0.4026E-07  0.1120E-02  0.3624E-02  0.6667E+02
   -1.718766    7.70369  0.0000E+00  0.1381E-04  0.3617E-07  0.1226E-02  0.3236E-02  0.6169E+02
   -1.787518    7.70440  0.0000E+00  0.1313E-04  0.3270E-07  0.1312E-02  0.2885E-02  0.5535E+03
   -1.856270    7.70504  0.0000E+00  0.1250E-04  0.2975E-07  0.1398E-02  0.2564E-02  0.2711E+02
   -1.925022    7.70561  0.0000E+00  0.1191E-04  0.2724E-07  0.1465E-02  0.2271E-02  0.5300E+02
   -1.993773    7.70614  0.0000E+00  0.1135E-04  0.2515E-07  0.1513E-02  0.2002E-02  0.4020E+03
   -2.062524    7.70663  0.0000E+00  0.1084E-04  0.2342E-07  0.1527E-02  0.1755E-02  0.9793E+01
   -2.131275    7.70710  0.0000E+00  0.1035E-04  0.2206E-07  0.1515E-02  0.1528E-02  0.3445E+01
   -2.200025    7.70757  0.0000E+00  0.9903E-05  0.2105E-07  0.1480E-02  0.1319E-02  0.9453E+01
   -2.268775    7.70804  0.0000E+00  0.9490E-05  0.2041E-07  0.1424E-02  0.1126E-02  0.2215E+01
   -2.337524    7.70852  0.0000E+00  0.9108E-05  0.2016E-07  0.1329E-02  0.9571E-03  0.1264E+02
   -2.406273    7.70903  0.0000E+00  0.8761E-05  0.2036E-07  0.1204E-02  0.8128E-03  0.1324E+03
   -2.475021    7.70959  0.0000E+00  0.8441E-05  0.2111E-07  0.1050E-02  0.6923E-03  0.4576E+02
   -2.543769    7.71022  0.0000E+00  0.8083E-05  0.2297E-07  0.8302E-03  0.5895E-03  0.2528E+03
   -2.612517    7.71104  0.0000E+00  0.7512E-05  0.2871E-07  0.3860E-03  0.4844E-03  0.4937E+03
   -2.681263    7.71274  0.0000E+00  0.4322E-05  0.9433E-07  0.2579E-04  0.3572E-03 -0.9237E+04
   -2.750009    7.73731  0.0000E+00  0.0000E+00  0.0000E+00  0.0000E+00  0.3567E-03  0.0000E+00
