 1 - depth, m
 2 - temperature, C
 3 - salinity, kg/kg
 4 - turbulent kinetic energy, m**2/s**2
 5 - dissipation rate, m**2/s**3
 6 - kinematic heat conductance, m**2/s
 7 - modulus of horizontal velocity, m/s
 8 - Richardson number, n/d
   -0.000000   16.31527  0.0000E+00  0.8072E-04  0.2329E-04  0.9174E-04  0.7389E-01 -0.4209E-01
   -0.068755   16.36508  0.0000E+00  0.4403E-04  0.5708E-05  0.9724E-04  0.2894E-01 -0.1668E+00
   -0.137511   16.37647  0.0000E+00  0.3225E-04  0.2270E-05  0.1187E-03  0.2122E-01 -0.5361E-01
   -0.206268   16.38457  0.0000E+00  0.2528E-04  0.8858E-06  0.1516E-03  0.1671E-01 -0.8701E-01
   -0.275025   16.39084  0.0000E+00  0.2131E-04  0.4171E-06  0.1907E-03  0.1356E-01 -0.1170E+00
   -0.343783   16.39576  0.0000E+00  0.1883E-04  0.2414E-06  0.2407E-03  0.1116E-01 -0.6583E-01
   -0.412541   16.39963  0.0000E+00  0.1714E-04  0.1591E-06  0.3367E-03  0.9330E-02  0.1441E+03
   -0.481299   16.40260  0.0000E+00  0.1591E-04  0.1142E-06  0.4619E-03  0.7923E-02  0.3142E+02
   -0.550059   16.40488  0.0000E+00  0.1501E-04  0.8733E-07  0.6404E-03  0.6840E-02  0.8724E+02
   -0.618818   16.40652  0.0000E+00  0.1435E-04  0.7033E-07  0.8588E-03  0.6015E-02  0.7273E+03
   -0.687578   16.40764  0.0000E+00  0.1389E-04  0.5897E-07  0.1046E-02  0.5372E-02  0.5805E+03
   -0.756338   16.40846  0.0000E+00  0.1354E-04  0.5074E-07  0.1152E-02  0.4840E-02  0.1376E+03
   -0.825099   16.40915  0.0000E+00  0.1327E-04  0.4440E-07  0.1232E-02  0.4368E-02  0.4360E+02
   -0.893860   16.40978  0.0000E+00  0.1307E-04  0.3939E-07  0.1294E-02  0.3950E-02  0.3538E+01
   -0.962621   16.41037  0.0000E+00  0.1291E-04  0.3534E-07  0.1356E-02  0.3574E-02  0.3132E+01
   -1.031382   16.41093  0.0000E+00  0.1278E-04  0.3205E-07  0.1405E-02  0.3238E-02  0.3030E+01
   -1.100144   16.41148  0.0000E+00  0.1267E-04  0.2936E-07  0.1454E-02  0.2929E-02  0.2944E+01
   -1.168905   16.41200  0.0000E+00  0.1258E-04  0.2713E-07  0.1502E-02  0.2643E-02  0.2857E+01
   -1.237667   16.41251  0.0000E+00  0.1249E-04  0.2528E-07  0.1551E-02  0.2378E-02  0.2769E+01
   -1.306429   16.41300  0.0000E+00  0.1240E-04  0.2375E-07  0.1598E-02  0.2133E-02  0.2680E+01
   -1.375191   16.41348  0.0000E+00  0.1230E-04  0.2250E-07  0.1643E-02  0.1906E-02  0.2593E+01
   -1.443952   16.41396  0.0000E+00  0.1218E-04  0.2147E-07  0.1687E-02  0.1694E-02  0.2509E+01
   -1.512714   16.41442  0.0000E+00  0.1206E-04  0.2066E-07  0.1747E-02  0.1497E-02  0.2311E+01
   -1.581476   16.41486  0.0000E+00  0.1191E-04  0.2003E-07  0.1819E-02  0.1320E-02  0.2102E+01
   -1.650237   16.41530  0.0000E+00  0.1175E-04  0.1959E-07  0.1893E-02  0.1163E-02  0.1922E+01
   -1.718999   16.41572  0.0000E+00  0.1158E-04  0.1932E-07  0.1938E-02  0.1025E-02  0.1764E+01
   -1.787760   16.41612  0.0000E+00  0.1140E-04  0.1921E-07  0.1966E-02  0.9053E-03  0.1624E+01
   -1.856521   16.41653  0.0000E+00  0.1122E-04  0.1926E-07  0.1973E-02  0.8008E-03  0.1496E+01
   -1.925282   16.41693  0.0000E+00  0.1103E-04  0.1945E-07  0.1905E-02  0.7104E-03  0.1371E+01
   -1.994043   16.41735  0.0000E+00  0.1084E-04  0.1979E-07  0.1806E-02  0.6323E-03  0.1252E+01
   -2.062803   16.41780  0.0000E+00  0.1065E-04  0.2027E-07  0.1702E-02  0.5651E-03  0.1141E+01
   -2.131563   16.41828  0.0000E+00  0.1047E-04  0.2089E-07  0.1597E-02  0.5072E-03  0.1070E+01
   -2.200322   16.41880  0.0000E+00  0.1029E-04  0.2169E-07  0.1495E-02  0.4568E-03  0.1099E+01
   -2.269082   16.41936  0.0000E+00  0.1010E-04  0.2275E-07  0.1390E-02  0.4119E-03  0.1306E+01
   -2.337840   16.41996  0.0000E+00  0.9878E-05  0.2427E-07  0.1260E-02  0.3704E-03  0.1851E+01
   -2.406598   16.42063  0.0000E+00  0.9608E-05  0.2662E-07  0.1109E-02  0.3296E-03  0.2979E+01
   -2.475356   16.42140  0.0000E+00  0.9264E-05  0.3048E-07  0.8857E-03  0.2889E-03  0.5630E+01
   -2.544113   16.42238  0.0000E+00  0.8792E-05  0.3774E-07  0.8120E-03  0.2459E-03  0.1100E+02
   -2.612870   16.42344  0.0000E+00  0.7837E-05  0.6215E-07  0.3415E-03  0.2084E-03 -0.3831E+02
   -2.681626   16.42818  0.0000E+00  0.4697E-05  0.2052E-06  0.9028E-04  0.1352E-03 -0.5759E+03
   -2.750381   16.43803  0.0000E+00  0.0000E+00  0.0000E+00  0.0000E+00  0.1539E-03  0.0000E+00
