 1 - depth, m
 2 - temperature, C
 3 - salinity, kg/kg
 4 - turbulent kinetic energy, m**2/s**2
 5 - dissipation rate, m**2/s**3
 6 - kinematic heat conductance, m**2/s
 7 - modulus of horizontal velocity, m/s
 8 - Richardson number, n/d
   -0.000000    0.00000  0.0000E+00  0.1219E-13  0.7603E-17  0.1000E-09  0.0000E+00  0.9665E+16
   -0.068757    0.14791  0.0000E+00  0.1219E-13  0.7603E-17  0.1000E-09  0.0000E+00  0.9006E+16
   -0.137514    0.29143  0.0000E+00  0.1219E-13  0.7603E-17  0.1000E-09  0.0000E+00  0.8379E+16
   -0.206273    0.43050  0.0000E+00  0.1219E-13  0.7603E-17  0.1000E-09  0.0000E+00  0.7781E+16
   -0.275031    0.56501  0.0000E+00  0.1219E-13  0.7603E-17  0.1000E-09  0.0000E+00  0.7257E+16
   -0.343791    0.69572  0.0000E+00  0.1219E-13  0.7603E-17  0.1000E-09  0.0000E+00  0.6765E+16
   -0.412550    0.82270  0.0000E+00  0.1219E-13  0.7603E-17  0.1000E-09  0.0000E+00  0.6295E+16
   -0.481311    0.94590  0.0000E+00  0.1219E-13  0.7603E-17  0.1000E-09  0.0000E+00  0.5841E+16
   -0.550072    1.06508  0.0000E+00  0.1219E-13  0.7603E-17  0.1000E-09  0.0000E+00  0.5383E+16
   -0.618833    1.17964  0.0000E+00  0.1219E-13  0.7603E-17  0.1000E-09  0.0000E+00  0.4949E+16
   -0.687594    1.28946  0.0000E+00  0.1219E-13  0.7603E-17  0.1000E-09  0.0000E+00  0.4612E+16
   -0.756356    1.39617  0.0000E+00  0.1219E-13  0.7603E-17  0.1000E-09  0.0000E+00  0.4334E+16
   -0.825118    1.50081  0.0000E+00  0.1219E-13  0.7603E-17  0.1000E-09  0.0000E+00  0.4067E+16
   -0.893881    1.60336  0.0000E+00  0.1219E-13  0.7603E-17  0.1000E-09  0.0000E+00  0.3811E+16
   -0.962643    1.70381  0.0000E+00  0.1219E-13  0.7603E-17  0.1000E-09  0.0000E+00  0.3566E+16
   -1.031406    1.80214  0.0000E+00  0.1219E-13  0.7603E-17  0.1000E-09  0.0000E+00  0.3341E+16
   -1.100169    1.89863  0.0000E+00  0.1219E-13  0.7603E-17  0.1000E-09  0.0000E+00  0.3126E+16
   -1.168933    1.99329  0.0000E+00  0.1219E-13  0.7603E-17  0.1000E-09  0.0000E+00  0.2920E+16
   -1.237696    2.08609  0.0000E+00  0.1219E-13  0.7603E-17  0.1000E-09  0.0000E+00  0.2721E+16
   -1.306459    2.17699  0.0000E+00  0.1219E-13  0.7603E-17  0.1000E-09  0.0000E+00  0.2529E+16
   -1.375223    2.26593  0.0000E+00  0.1219E-13  0.7603E-17  0.1000E-09  0.0000E+00  0.2385E+16
   -1.443986    2.35434  0.0000E+00  0.1219E-13  0.7603E-17  0.1000E-09  0.0000E+00  0.2254E+16
   -1.512750    2.44272  0.0000E+00  0.1219E-13  0.7603E-17  0.1000E-09  0.0000E+00  0.2126E+16
   -1.581513    2.53109  0.0000E+00  0.1219E-13  0.7603E-17  0.1000E-09  0.0000E+00  0.1998E+16
   -1.650276    2.61946  0.0000E+00  0.1219E-13  0.7603E-17  0.1000E-09  0.0000E+00  0.1869E+16
   -1.719039    2.70776  0.0000E+00  0.1219E-13  0.7603E-17  0.1000E-09  0.0000E+00  0.1739E+16
   -1.787802    2.79592  0.0000E+00  0.1219E-13  0.7603E-17  0.1000E-09  0.0000E+00  0.1608E+16
   -1.856565    2.88383  0.0000E+00  0.1219E-13  0.7603E-17  0.1000E-09  0.0000E+00  0.1476E+16
   -1.925327    2.97135  0.0000E+00  0.1219E-13  0.7603E-17  0.1000E-09  0.0000E+00  0.1344E+16
   -1.994090    3.05833  0.0000E+00  0.1219E-13  0.7603E-17  0.1000E-09  0.0000E+00  0.1212E+16
   -2.062851    3.14458  0.0000E+00  0.1219E-13  0.7603E-17  0.1000E-09  0.0000E+00  0.1106E+16
   -2.131613    3.23197  0.0000E+00  0.1219E-13  0.7603E-17  0.1000E-09  0.0000E+00  0.9994E+15
   -2.200374    3.32082  0.0000E+00  0.1219E-13  0.7609E-17  0.1000E-09  0.0000E+00  0.8873E+15
   -2.269135    3.41124  0.0000E+00  0.2577E-13  0.2361E-16  0.1000E-09  0.0000E+00  0.7822E+15
   -2.337895    3.50499  0.0000E+00  0.1974E-12  0.1793E-15  0.1000E-09  0.0000E+00  0.6721E+15
   -2.406655    3.60362  0.0000E+00  0.1593E-11  0.1407E-14  0.1000E-09  0.0000E+00  0.5476E+15
   -2.475414    3.70901  0.0000E+00  0.1278E-10  0.1102E-13  0.1297E-09  0.0000E+00  0.3989E+15
   -2.544173    3.82463  0.0000E+00  0.1038E-09  0.8816E-13  0.1942E-08  0.0000E+00  0.1989E+15
   -2.612931    3.95816  0.0000E+00  0.8334E-09  0.7192E-12  0.1875E-06  0.0000E+00 -0.1200E+14
   -2.681689    4.03456  0.0000E+00  0.3474E-08  0.5219E-11  0.7584E-06  0.0000E+00 -0.6012E+14
   -2.750446    4.08637  0.0000E+00  0.0000E+00  0.0000E+00  0.0000E+00  0.0000E+00  0.0000E+00
