 1 - depth, m
 2 - temperature, C
 3 - salinity, kg/kg
 4 - turbulent kinetic energy, m**2/s**2
 5 - dissipation rate, m**2/s**3
 6 - kinematic heat conductance, m**2/s
 7 - modulus of horizontal velocity, m/s
 8 - Richardson number, n/d
   -0.000000    0.00000  0.0000E+00  0.1219E-13  0.7604E-17  0.1000E-09  0.0000E+00  0.1055E+17
   -0.068730    0.16178  0.0000E+00  0.1219E-13  0.7604E-17  0.1000E-09  0.0000E+00  0.9663E+16
   -0.137461    0.31663  0.0000E+00  0.1219E-13  0.7604E-17  0.1000E-09  0.0000E+00  0.8822E+16
   -0.206192    0.46432  0.0000E+00  0.1219E-13  0.7604E-17  0.1000E-09  0.0000E+00  0.8022E+16
   -0.274924    0.60456  0.0000E+00  0.1219E-13  0.7604E-17  0.1000E-09  0.0000E+00  0.7337E+16
   -0.343656    0.73843  0.0000E+00  0.1219E-13  0.7604E-17  0.1000E-09  0.0000E+00  0.6700E+16
   -0.412389    0.86599  0.0000E+00  0.1219E-13  0.7604E-17  0.1000E-09  0.0000E+00  0.6101E+16
   -0.481123    0.98712  0.0000E+00  0.1219E-13  0.7604E-17  0.1000E-09  0.0000E+00  0.5529E+16
   -0.549856    1.10151  0.0000E+00  0.1219E-13  0.7604E-17  0.1000E-09  0.0000E+00  0.4959E+16
   -0.618591    1.20830  0.0000E+00  0.1219E-13  0.7604E-17  0.1000E-09  0.0000E+00  0.4433E+16
   -0.687325    1.30755  0.0000E+00  0.1219E-13  0.7604E-17  0.1000E-09  0.0000E+00  0.4076E+16
   -0.756060    1.40232  0.0000E+00  0.1219E-13  0.7604E-17  0.1000E-09  0.0000E+00  0.3826E+16
   -0.824796    1.49469  0.0000E+00  0.1219E-13  0.7604E-17  0.1000E-09  0.0000E+00  0.3603E+16
   -0.893531    1.58506  0.0000E+00  0.1219E-13  0.7604E-17  0.1000E-09  0.0000E+00  0.3404E+16
   -0.962267    1.67382  0.0000E+00  0.1219E-13  0.7604E-17  0.1000E-09  0.0000E+00  0.3226E+16
   -1.031003    1.76133  0.0000E+00  0.1219E-13  0.7604E-17  0.1000E-09  0.0000E+00  0.3080E+16
   -1.099739    1.84835  0.0000E+00  0.1219E-13  0.7604E-17  0.1000E-09  0.0000E+00  0.2947E+16
   -1.168476    1.93521  0.0000E+00  0.1219E-13  0.7604E-17  0.1000E-09  0.0000E+00  0.2823E+16
   -1.237212    2.02213  0.0000E+00  0.1219E-13  0.7604E-17  0.1000E-09  0.0000E+00  0.2704E+16
   -1.305948    2.10929  0.0000E+00  0.1219E-13  0.7604E-17  0.1000E-09  0.0000E+00  0.2586E+16
   -1.374685    2.19672  0.0000E+00  0.1219E-13  0.7604E-17  0.1000E-09  0.0000E+00  0.2512E+16
   -1.443422    2.28609  0.0000E+00  0.1219E-13  0.7604E-17  0.1000E-09  0.0000E+00  0.2444E+16
   -1.512158    2.37793  0.0000E+00  0.1219E-13  0.7604E-17  0.1000E-09  0.0000E+00  0.2365E+16
   -1.580894    2.47225  0.0000E+00  0.1219E-13  0.7604E-17  0.1000E-09  0.0000E+00  0.2273E+16
   -1.649631    2.56897  0.0000E+00  0.1219E-13  0.7604E-17  0.1000E-09  0.0000E+00  0.2166E+16
   -1.718367    2.66785  0.0000E+00  0.1219E-13  0.7604E-17  0.1000E-09  0.0000E+00  0.2042E+16
   -1.787103    2.76861  0.0000E+00  0.1219E-13  0.7604E-17  0.1000E-09  0.0000E+00  0.1904E+16
   -1.855839    2.87089  0.0000E+00  0.1219E-13  0.7604E-17  0.1000E-09  0.0000E+00  0.1753E+16
   -1.924574    2.97434  0.0000E+00  0.1219E-13  0.7604E-17  0.1000E-09  0.0000E+00  0.1591E+16
   -1.993310    3.07857  0.0000E+00  0.1219E-13  0.7604E-17  0.1000E-09  0.0000E+00  0.1421E+16
   -2.062045    3.18321  0.0000E+00  0.1829E-13  0.1023E-16  0.1000E-09  0.0000E+00  0.1260E+16
   -2.130779    3.28920  0.0000E+00  0.9104E-13  0.4782E-16  0.1000E-09  0.0000E+00  0.1093E+16
   -2.199514    3.39657  0.0000E+00  0.4788E-12  0.2410E-15  0.1000E-09  0.0000E+00  0.9195E+15
   -2.268247    3.50528  0.0000E+00  0.2485E-11  0.1202E-14  0.1000E-09  0.0000E+00  0.7509E+15
   -2.336981    3.61732  0.0000E+00  0.1281E-10  0.5956E-14  0.1000E-09  0.0000E+00  0.5722E+15
   -2.405714    3.73439  0.0000E+00  0.6506E-10  0.2914E-13  0.3915E-09  0.0000E+00  0.3698E+15
   -2.474446    3.85826  0.0000E+00  0.3260E-09  0.1411E-12  0.5258E-08  0.0000E+00  0.1286E+15
   -2.543178    3.98853  0.0000E+00  0.1457E-08  0.6260E-12  0.9096E-06  0.0000E+00 -0.4279E+13
   -2.611909    4.00988  0.0000E+00  0.2815E-08  0.1840E-11  0.1314E-05  0.0000E+00 -0.1091E+14
   -2.680640    4.03045  0.0000E+00  0.4460E-08  0.6600E-11  0.9351E-06  0.0000E+00 -0.5645E+14
   -2.749370    4.08203  0.0000E+00  0.0000E+00  0.0000E+00  0.0000E+00  0.0000E+00  0.0000E+00
