 1 - depth, m
 2 - temperature, C
 3 - salinity, kg/kg
 4 - turbulent kinetic energy, m**2/s**2
 5 - dissipation rate, m**2/s**3
 6 - kinematic heat conductance, m**2/s
 7 - modulus of horizontal velocity, m/s
 8 - Richardson number, n/d
   -0.000000    0.00000  0.0000E+00  0.1219E-13  0.7604E-17  0.1000E-09  0.0000E+00  0.9698E+16
   -0.068746    0.14843  0.0000E+00  0.1219E-13  0.7604E-17  0.1000E-09  0.0000E+00  0.9022E+16
   -0.137492    0.29224  0.0000E+00  0.1219E-13  0.7604E-17  0.1000E-09  0.0000E+00  0.8386E+16
   -0.206239    0.43146  0.0000E+00  0.1219E-13  0.7604E-17  0.1000E-09  0.0000E+00  0.7783E+16
   -0.274987    0.56606  0.0000E+00  0.1219E-13  0.7604E-17  0.1000E-09  0.0000E+00  0.7257E+16
   -0.343735    0.69682  0.0000E+00  0.1219E-13  0.7604E-17  0.1000E-09  0.0000E+00  0.6764E+16
   -0.412484    0.82384  0.0000E+00  0.1219E-13  0.7604E-17  0.1000E-09  0.0000E+00  0.6295E+16
   -0.481233    0.94707  0.0000E+00  0.1219E-13  0.7604E-17  0.1000E-09  0.0000E+00  0.5841E+16
   -0.549983    1.06632  0.0000E+00  0.1219E-13  0.7604E-17  0.1000E-09  0.0000E+00  0.5385E+16
   -0.618733    1.18096  0.0000E+00  0.1219E-13  0.7604E-17  0.1000E-09  0.0000E+00  0.4952E+16
   -0.687483    1.29090  0.0000E+00  0.1219E-13  0.7604E-17  0.1000E-09  0.0000E+00  0.4615E+16
   -0.756234    1.39775  0.0000E+00  0.1219E-13  0.7604E-17  0.1000E-09  0.0000E+00  0.4336E+16
   -0.824985    1.50252  0.0000E+00  0.1219E-13  0.7604E-17  0.1000E-09  0.0000E+00  0.4069E+16
   -0.893737    1.60521  0.0000E+00  0.1219E-13  0.7604E-17  0.1000E-09  0.0000E+00  0.3813E+16
   -0.962488    1.70579  0.0000E+00  0.1219E-13  0.7604E-17  0.1000E-09  0.0000E+00  0.3567E+16
   -1.031240    1.80424  0.0000E+00  0.1219E-13  0.7604E-17  0.1000E-09  0.0000E+00  0.3341E+16
   -1.099992    1.90084  0.0000E+00  0.1219E-13  0.7604E-17  0.1000E-09  0.0000E+00  0.3125E+16
   -1.168744    1.99558  0.0000E+00  0.1219E-13  0.7604E-17  0.1000E-09  0.0000E+00  0.2918E+16
   -1.237496    2.08843  0.0000E+00  0.1219E-13  0.7604E-17  0.1000E-09  0.0000E+00  0.2718E+16
   -1.306249    2.17935  0.0000E+00  0.1219E-13  0.7604E-17  0.1000E-09  0.0000E+00  0.2526E+16
   -1.375001    2.26829  0.0000E+00  0.1219E-13  0.7604E-17  0.1000E-09  0.0000E+00  0.2380E+16
   -1.443753    2.35666  0.0000E+00  0.1219E-13  0.7604E-17  0.1000E-09  0.0000E+00  0.2249E+16
   -1.512506    2.44493  0.0000E+00  0.1219E-13  0.7604E-17  0.1000E-09  0.0000E+00  0.2119E+16
   -1.581258    2.53314  0.0000E+00  0.1219E-13  0.7604E-17  0.1000E-09  0.0000E+00  0.1990E+16
   -1.650010    2.62131  0.0000E+00  0.1219E-13  0.7604E-17  0.1000E-09  0.0000E+00  0.1861E+16
   -1.718762    2.70936  0.0000E+00  0.1219E-13  0.7604E-17  0.1000E-09  0.0000E+00  0.1731E+16
   -1.787514    2.79722  0.0000E+00  0.1219E-13  0.7604E-17  0.1000E-09  0.0000E+00  0.1600E+16
   -1.856266    2.88477  0.0000E+00  0.1219E-13  0.7604E-17  0.1000E-09  0.0000E+00  0.1468E+16
   -1.925017    2.97188  0.0000E+00  0.1219E-13  0.7604E-17  0.1000E-09  0.0000E+00  0.1337E+16
   -1.993768    3.05840  0.0000E+00  0.1219E-13  0.7604E-17  0.1000E-09  0.0000E+00  0.1206E+16
   -2.062519    3.14414  0.0000E+00  0.1219E-13  0.7604E-17  0.1000E-09  0.0000E+00  0.1100E+16
   -2.131269    3.23096  0.0000E+00  0.1219E-13  0.7604E-17  0.1000E-09  0.0000E+00  0.9942E+15
   -2.200019    3.31919  0.0000E+00  0.1219E-13  0.7605E-17  0.1000E-09  0.0000E+00  0.8833E+15
   -2.268769    3.40891  0.0000E+00  0.2129E-13  0.1991E-16  0.1000E-09  0.0000E+00  0.7799E+15
   -2.337518    3.50189  0.0000E+00  0.1633E-12  0.1523E-15  0.1000E-09  0.0000E+00  0.6718E+15
   -2.406267    3.59968  0.0000E+00  0.1343E-11  0.1220E-14  0.1000E-09  0.0000E+00  0.5500E+15
   -2.475015    3.70413  0.0000E+00  0.1099E-10  0.9758E-14  0.1127E-09  0.0000E+00  0.4050E+15
   -2.543763    3.81868  0.0000E+00  0.9117E-10  0.7980E-13  0.1658E-08  0.0000E+00  0.2108E+15
   -2.612510    3.95122  0.0000E+00  0.7529E-09  0.6693E-12  0.1484E-06  0.0000E+00 -0.1052E+14
   -2.681256    4.03709  0.0000E+00  0.3512E-08  0.5311E-11  0.7636E-06  0.0000E+00 -0.6099E+14
   -2.750002    4.08817  0.0000E+00  0.0000E+00  0.0000E+00  0.0000E+00  0.0000E+00  0.0000E+00
