 1 - depth, m
 2 - temperature, C
 3 - salinity, kg/kg
 4 - turbulent kinetic energy, m**2/s**2
 5 - dissipation rate, m**2/s**3
 6 - kinematic heat conductance, m**2/s
 7 - modulus of horizontal velocity, m/s
 8 - Richardson number, n/d
   -0.000000   16.99352  0.0000E+00  0.3434E-04  0.5091E-05  0.4373E-04  0.4173E-01 -0.9771E-02
   -0.068760   17.01316  0.0000E+00  0.2195E-04  0.1118E-05  0.7280E-04  0.2035E-01 -0.2626E-01
   -0.137521   17.01947  0.0000E+00  0.1726E-04  0.4354E-06  0.1010E-03  0.1468E-01 -0.4424E-01
   -0.206282   17.02343  0.0000E+00  0.1441E-04  0.2167E-06  0.1310E-03  0.1125E-01 -0.6679E-01
   -0.275044   17.02615  0.0000E+00  0.1266E-04  0.1288E-06  0.1630E-03  0.8956E-02 -0.9036E-01
   -0.343806   17.02814  0.0000E+00  0.1145E-04  0.8589E-07  0.1996E-03  0.7266E-02 -0.1180E+00
   -0.412569   17.02966  0.0000E+00  0.1055E-04  0.6172E-07  0.2516E-03  0.5986E-02 -0.5815E-01
   -0.481332   17.03083  0.0000E+00  0.9869E-05  0.4677E-07  0.3438E-03  0.5000E-02  0.3135E+01
   -0.550096   17.03174  0.0000E+00  0.9355E-05  0.3694E-07  0.4218E-03  0.4245E-02  0.1630E+02
   -0.618860   17.03244  0.0000E+00  0.8989E-05  0.3033E-07  0.5539E-03  0.3659E-02  0.7741E+02
   -0.687625   17.03296  0.0000E+00  0.8750E-05  0.2587E-07  0.7577E-03  0.3209E-02  0.7225E+03
   -0.756390   17.03332  0.0000E+00  0.8608E-05  0.2277E-07  0.1032E-02  0.2860E-02  0.1457E+03
   -0.825155   17.03360  0.0000E+00  0.8533E-05  0.2046E-07  0.1213E-02  0.2580E-02  0.2037E+01
   -0.893920   17.03384  0.0000E+00  0.8508E-05  0.1865E-07  0.1290E-02  0.2335E-02  0.1954E+01
   -0.962686   17.03409  0.0000E+00  0.8525E-05  0.1723E-07  0.1367E-02  0.2111E-02  0.1897E+01
   -1.031452   17.03433  0.0000E+00  0.8576E-05  0.1613E-07  0.1429E-02  0.1912E-02  0.1942E+01
   -1.100218   17.03458  0.0000E+00  0.8653E-05  0.1529E-07  0.1488E-02  0.1728E-02  0.1983E+01
   -1.168984   17.03483  0.0000E+00  0.8749E-05  0.1467E-07  0.1545E-02  0.1558E-02  0.2002E+01
   -1.237751   17.03510  0.0000E+00  0.8857E-05  0.1424E-07  0.1601E-02  0.1401E-02  0.2002E+01
   -1.306517   17.03538  0.0000E+00  0.8969E-05  0.1396E-07  0.1655E-02  0.1256E-02  0.1985E+01
   -1.375284   17.03567  0.0000E+00  0.9080E-05  0.1382E-07  0.1706E-02  0.1122E-02  0.1957E+01
   -1.444050   17.03596  0.0000E+00  0.9182E-05  0.1380E-07  0.1754E-02  0.9987E-03  0.1917E+01
   -1.512816   17.03627  0.0000E+00  0.9272E-05  0.1388E-07  0.1809E-02  0.8861E-03  0.1812E+01
   -1.581583   17.03659  0.0000E+00  0.9346E-05  0.1405E-07  0.1857E-02  0.7865E-03  0.1694E+01
   -1.650349   17.03691  0.0000E+00  0.9404E-05  0.1431E-07  0.1868E-02  0.7001E-03  0.1589E+01
   -1.719115   17.03725  0.0000E+00  0.9446E-05  0.1463E-07  0.1857E-02  0.6257E-03  0.1497E+01
   -1.787881   17.03760  0.0000E+00  0.9473E-05  0.1502E-07  0.1826E-02  0.5616E-03  0.1416E+01
   -1.856647   17.03798  0.0000E+00  0.9486E-05  0.1547E-07  0.1777E-02  0.5067E-03  0.1341E+01
   -1.925412   17.03839  0.0000E+00  0.9486E-05  0.1598E-07  0.1719E-02  0.4595E-03  0.1325E+01
   -1.994178   17.03883  0.0000E+00  0.9474E-05  0.1656E-07  0.1656E-02  0.4185E-03  0.1399E+01
   -2.062943   17.03931  0.0000E+00  0.9450E-05  0.1722E-07  0.1587E-02  0.3821E-03  0.1578E+01
   -2.131707   17.03984  0.0000E+00  0.9412E-05  0.1801E-07  0.1509E-02  0.3491E-03  0.1924E+01
   -2.200471   17.04041  0.0000E+00  0.9356E-05  0.1899E-07  0.1419E-02  0.3177E-03  0.2506E+01
   -2.269235   17.04105  0.0000E+00  0.9274E-05  0.2023E-07  0.1314E-02  0.2871E-03  0.3409E+01
   -2.337998   17.04177  0.0000E+00  0.9155E-05  0.2192E-07  0.1186E-02  0.2570E-03  0.5049E+01
   -2.406761   17.04259  0.0000E+00  0.8985E-05  0.2436E-07  0.1043E-02  0.2274E-03  0.8317E+01
   -2.475524   17.04355  0.0000E+00  0.8739E-05  0.2818E-07  0.8430E-03  0.1980E-03  0.1602E+02
   -2.544285   17.04479  0.0000E+00  0.8368E-05  0.3502E-07  0.7590E-03  0.1673E-03  0.3412E+02
   -2.613047   17.04620  0.0000E+00  0.7577E-05  0.5686E-07  0.3394E-03  0.1403E-03 -0.1065E+03
   -2.681807   17.05168  0.0000E+00  0.4629E-05  0.1887E-06  0.8163E-04  0.9201E-04 -0.2792E+04
   -2.750567   17.06627  0.0000E+00  0.0000E+00  0.0000E+00  0.0000E+00  0.1023E-03  0.0000E+00
