 1 - depth, m
 2 - temperature, C
 3 - salinity, kg/kg
 4 - turbulent kinetic energy, m**2/s**2
 5 - dissipation rate, m**2/s**3
 6 - kinematic heat conductance, m**2/s
 7 - modulus of horizontal velocity, m/s
 8 - Richardson number, n/d
   -0.000000    0.00000  0.0000E+00  0.1044E-11  0.2310E-15  0.1000E-09  0.0000E+00  0.1796E+17
   -0.068753    0.27983  0.0000E+00  0.2512E-11  0.2568E-15  0.1000E-09  0.0000E+00  0.1622E+17
   -0.137506    0.55340  0.0000E+00  0.5648E-11  0.4391E-15  0.1000E-09  0.0000E+00  0.1461E+17
   -0.206260    0.82128  0.0000E+00  0.1165E-10  0.8285E-15  0.1000E-09  0.0000E+00  0.1311E+17
   -0.275015    1.08398  0.0000E+00  0.2304E-10  0.1575E-14  0.1000E-09  0.0000E+00  0.1175E+17
   -0.343770    1.34271  0.0000E+00  0.4461E-10  0.2973E-14  0.1000E-09  0.0000E+00  0.1048E+17
   -0.412526    1.59802  0.0000E+00  0.8542E-10  0.5569E-14  0.1000E-09  0.0000E+00  0.9270E+16
   -0.481282    1.85025  0.0000E+00  0.1623E-09  0.1037E-13  0.1000E-09  0.0000E+00  0.8113E+16
   -0.550039    2.09954  0.0000E+00  0.3069E-09  0.1920E-13  0.1000E-09  0.0000E+00  0.6992E+16
   -0.618796    2.34557  0.0000E+00  0.5772E-09  0.3541E-13  0.1000E-09  0.0000E+00  0.5920E+16
   -0.687553    2.58834  0.0000E+00  0.1080E-08  0.6495E-13  0.1000E-09  0.0000E+00  0.4944E+16
   -0.756311    2.83050  0.0000E+00  0.2010E-08  0.1185E-12  0.1507E-09  0.0000E+00  0.4003E+16
   -0.825069    3.07353  0.0000E+00  0.3720E-08  0.2152E-12  0.3586E-09  0.0000E+00  0.3055E+16
   -0.893828    3.31692  0.0000E+00  0.6847E-08  0.3886E-12  0.9408E-09  0.0000E+00  0.2103E+16
   -0.962586    3.55972  0.0000E+00  0.1252E-07  0.6975E-12  0.3072E-08  0.0000E+00  0.1156E+16
   -1.031345    3.79887  0.0000E+00  0.2252E-07  0.1233E-11  0.2309E-07  0.0000E+00  0.2720E+15
   -1.100104    4.00812  0.0000E+00  0.2295E-07  0.1258E-11  0.1457E-03  0.0000E+00 -0.6604E+11
   -1.168863    4.00831  0.0000E+00  0.2315E-07  0.1271E-11  0.1460E-03  0.0000E+00 -0.7908E+11
   -1.237623    4.00854  0.0000E+00  0.2333E-07  0.1286E-11  0.1522E-03  0.0000E+00 -0.7905E+11
   -1.306382    4.00877  0.0000E+00  0.2348E-07  0.1302E-11  0.1563E-03  0.0000E+00 -0.7889E+11
   -1.375141    4.00899  0.0000E+00  0.2362E-07  0.1318E-11  0.1567E-03  0.0000E+00 -0.7988E+11
   -1.443901    4.00921  0.0000E+00  0.2375E-07  0.1337E-11  0.1562E-03  0.0000E+00 -0.8113E+11
   -1.512660    4.00944  0.0000E+00  0.2385E-07  0.1357E-11  0.1554E-03  0.0000E+00 -0.8262E+11
   -1.581419    4.00967  0.0000E+00  0.2395E-07  0.1379E-11  0.1542E-03  0.0000E+00 -0.8436E+11
   -1.650178    4.00990  0.0000E+00  0.2403E-07  0.1404E-11  0.1527E-03  0.0000E+00 -0.8637E+11
   -1.718937    4.01013  0.0000E+00  0.2410E-07  0.1432E-11  0.1508E-03  0.0000E+00 -0.8869E+11
   -1.787696    4.01036  0.0000E+00  0.2415E-07  0.1463E-11  0.1485E-03  0.0000E+00 -0.9138E+11
   -1.856455    4.01061  0.0000E+00  0.2418E-07  0.1498E-11  0.1457E-03  0.0000E+00 -0.9451E+11
   -1.925213    4.01085  0.0000E+00  0.2420E-07  0.1537E-11  0.1425E-03  0.0000E+00 -0.9816E+11
   -1.993971    4.01111  0.0000E+00  0.2419E-07  0.1582E-11  0.1387E-03  0.0000E+00 -0.1024E+12
   -2.062729    4.01137  0.0000E+00  0.2417E-07  0.1634E-11  0.1344E-03  0.0000E+00 -0.1072E+12
   -2.131487    4.01164  0.0000E+00  0.2412E-07  0.1694E-11  0.1295E-03  0.0000E+00 -0.1127E+12
   -2.200244    4.01192  0.0000E+00  0.2404E-07  0.1766E-11  0.1240E-03  0.0000E+00 -0.1194E+12
   -2.269000    4.01222  0.0000E+00  0.2392E-07  0.1866E-11  0.1132E-03  0.0000E+00 -0.1328E+12
   -2.337757    4.01254  0.0000E+00  0.2371E-07  0.2017E-11  0.8969E-04  0.0000E+00 -0.1707E+12
   -2.406512    4.01296  0.0000E+00  0.2341E-07  0.2240E-11  0.7091E-04  0.0000E+00 -0.2210E+12
   -2.475267    4.01348  0.0000E+00  0.2296E-07  0.2591E-11  0.5459E-04  0.0000E+00 -0.2959E+12
   -2.544022    4.01417  0.0000E+00  0.2223E-07  0.3229E-11  0.3735E-04  0.0000E+00 -0.4521E+12
   -2.612776    4.01518  0.0000E+00  0.2080E-07  0.4817E-11  0.1882E-04  0.0000E+00 -0.9708E+12
   -2.681530    4.01726  0.0000E+00  0.1364E-07  0.1712E-10  0.1694E-05  0.0000E+00 -0.1564E+14
   -2.750283    4.04067  0.0000E+00  0.0000E+00  0.0000E+00  0.0000E+00  0.0000E+00  0.0000E+00
