 1 - depth, m
 2 - temperature, C
 3 - salinity, kg/kg
 4 - turbulent kinetic energy, m**2/s**2
 5 - dissipation rate, m**2/s**3
 6 - kinematic heat conductance, m**2/s
 7 - modulus of horizontal velocity, m/s
 8 - Richardson number, n/d
   -0.000000    0.00000  0.0000E+00  0.1219E-13  0.7603E-17  0.1000E-09  0.0000E+00  0.1120E+17
   -0.068737    0.17190  0.0000E+00  0.1219E-13  0.7603E-17  0.1000E-09  0.0000E+00  0.1057E+17
   -0.137475    0.34219  0.0000E+00  0.1219E-13  0.7603E-17  0.1000E-09  0.0000E+00  0.9965E+16
   -0.206213    0.51081  0.0000E+00  0.1219E-13  0.7603E-17  0.1000E-09  0.0000E+00  0.9369E+16
   -0.274952    0.67765  0.0000E+00  0.1219E-13  0.7603E-17  0.1000E-09  0.0000E+00  0.8810E+16
   -0.343691    0.84309  0.0000E+00  0.1219E-13  0.7603E-17  0.1000E-09  0.0000E+00  0.8261E+16
   -0.412431    1.00702  0.0000E+00  0.1219E-13  0.7603E-17  0.1000E-09  0.0000E+00  0.7717E+16
   -0.481172    1.16920  0.0000E+00  0.1219E-13  0.7603E-17  0.1000E-09  0.0000E+00  0.7174E+16
   -0.549912    1.32928  0.0000E+00  0.1219E-13  0.7603E-17  0.1000E-09  0.0000E+00  0.6625E+16
   -0.618654    1.48663  0.0000E+00  0.1219E-13  0.7603E-17  0.1000E-09  0.0000E+00  0.6088E+16
   -0.687395    1.64092  0.0000E+00  0.1219E-13  0.7603E-17  0.1000E-09  0.0000E+00  0.5600E+16
   -0.756137    1.79280  0.0000E+00  0.1219E-13  0.7603E-17  0.1000E-09  0.0000E+00  0.5143E+16
   -0.824880    1.94257  0.0000E+00  0.1320E-13  0.7603E-17  0.1000E-09  0.0000E+00  0.4695E+16
   -0.893622    2.08998  0.0000E+00  0.6287E-13  0.8205E-17  0.1000E-09  0.0000E+00  0.4259E+16
   -0.962365    2.23474  0.0000E+00  0.1664E-12  0.1527E-16  0.1000E-09  0.0000E+00  0.3836E+16
   -1.031108    2.37658  0.0000E+00  0.3700E-12  0.3085E-16  0.1000E-09  0.0000E+00  0.3435E+16
   -1.099851    2.51546  0.0000E+00  0.7748E-12  0.6206E-16  0.1000E-09  0.0000E+00  0.3050E+16
   -1.168594    2.65115  0.0000E+00  0.1584E-11  0.1235E-15  0.1000E-09  0.0000E+00  0.2682E+16
   -1.237338    2.78337  0.0000E+00  0.3200E-11  0.2434E-15  0.1000E-09  0.0000E+00  0.2334E+16
   -1.306081    2.91186  0.0000E+00  0.6403E-11  0.4759E-15  0.1000E-09  0.0000E+00  0.2006E+16
   -1.374825    3.03633  0.0000E+00  0.1272E-10  0.9238E-15  0.1000E-09  0.0000E+00  0.1715E+16
   -1.443568    3.15775  0.0000E+00  0.2507E-10  0.1780E-14  0.1000E-09  0.0000E+00  0.1446E+16
   -1.512312    3.27632  0.0000E+00  0.4913E-10  0.3412E-14  0.1000E-09  0.0000E+00  0.1192E+16
   -1.581055    3.39179  0.0000E+00  0.9608E-10  0.6527E-14  0.1000E-09  0.0000E+00  0.9540E+15
   -1.649799    3.50393  0.0000E+00  0.1870E-09  0.1242E-13  0.1000E-09  0.0000E+00  0.7334E+15
   -1.718542    3.61257  0.0000E+00  0.3617E-09  0.2352E-13  0.2257E-09  0.0000E+00  0.5306E+15
   -1.787285    3.71745  0.0000E+00  0.6957E-09  0.4428E-13  0.6512E-09  0.0000E+00  0.3461E+15
   -1.856028    3.81822  0.0000E+00  0.1329E-08  0.8283E-13  0.2334E-08  0.0000E+00  0.1807E+15
   -1.924770    3.91398  0.0000E+00  0.2503E-08  0.1529E-12  0.1934E-07  0.0000E+00  0.4028E+14
   -1.993513    3.99605  0.0000E+00  0.2946E-08  0.1810E-12  0.1848E-04  0.0000E+00 -0.9992E+11
   -2.062255    3.99669  0.0000E+00  0.3147E-08  0.1970E-12  0.1894E-04  0.0000E+00 -0.1111E+12
   -2.130996    3.99735  0.0000E+00  0.3315E-08  0.2142E-12  0.1905E-04  0.0000E+00 -0.1184E+12
   -2.199737    3.99802  0.0000E+00  0.3452E-08  0.2337E-12  0.1862E-04  0.0000E+00 -0.1290E+12
   -2.268478    3.99870  0.0000E+00  0.3560E-08  0.2569E-12  0.1771E-04  0.0000E+00 -0.1455E+12
   -2.337219    3.99943  0.0000E+00  0.3640E-08  0.2871E-12  0.1620E-04  0.0000E+00 -0.1718E+12
   -2.405959    4.00024  0.0000E+00  0.3687E-08  0.3292E-12  0.1405E-04  0.0000E+00 -0.2168E+12
   -2.474698    4.00120  0.0000E+00  0.3688E-08  0.3948E-12  0.1122E-04  0.0000E+00 -0.3042E+12
   -2.543437    4.00245  0.0000E+00  0.3612E-08  0.5173E-12  0.7712E-05  0.0000E+00 -0.5238E+12
   -2.612175    4.00441  0.0000E+00  0.3364E-08  0.8373E-12  0.3711E-05  0.0000E+00 -0.1468E+13
   -2.680913    4.00900  0.0000E+00  0.2556E-08  0.2501E-11  0.6335E-06  0.0000E+00 -0.2037E+14
   -2.749650    4.04213  0.0000E+00  0.0000E+00  0.0000E+00  0.0000E+00  0.0000E+00  0.0000E+00
