 1 - depth, m
 2 - temperature, C
 3 - salinity, kg/kg
 4 - turbulent kinetic energy, m**2/s**2
 5 - dissipation rate, m**2/s**3
 6 - kinematic heat conductance, m**2/s
 7 - modulus of horizontal velocity, m/s
 8 - Richardson number, n/d
   -0.000000    0.00000  0.0000E+00  0.7918E-13  0.1311E-16  0.1000E-09  0.0000E+00  0.1586E+17
   -0.068739    0.24599  0.0000E+00  0.1669E-12  0.1947E-16  0.1000E-09  0.0000E+00  0.1420E+17
   -0.137479    0.48183  0.0000E+00  0.3894E-12  0.4041E-16  0.1000E-09  0.0000E+00  0.1271E+17
   -0.206219    0.70826  0.0000E+00  0.8937E-12  0.8851E-16  0.1000E-09  0.0000E+00  0.1137E+17
   -0.274960    0.92586  0.0000E+00  0.2012E-11  0.1932E-15  0.1000E-09  0.0000E+00  0.1026E+17
   -0.343701    1.13721  0.0000E+00  0.4463E-11  0.4168E-15  0.1000E-09  0.0000E+00  0.9268E+16
   -0.412443    1.34331  0.0000E+00  0.9780E-11  0.8894E-15  0.1000E-09  0.0000E+00  0.8362E+16
   -0.481186    1.54484  0.0000E+00  0.2120E-10  0.1878E-14  0.1000E-09  0.0000E+00  0.7521E+16
   -0.549928    1.74218  0.0000E+00  0.4557E-10  0.3933E-14  0.1000E-09  0.0000E+00  0.6711E+16
   -0.618672    1.93488  0.0000E+00  0.9700E-10  0.8159E-14  0.1000E-09  0.0000E+00  0.5972E+16
   -0.687415    2.12368  0.0000E+00  0.2045E-09  0.1677E-13  0.1000E-09  0.0000E+00  0.5450E+16
   -0.756159    2.31510  0.0000E+00  0.4270E-09  0.3415E-13  0.1000E-09  0.0000E+00  0.5017E+16
   -0.824904    2.51380  0.0000E+00  0.8831E-09  0.6889E-13  0.1000E-09  0.0000E+00  0.4548E+16
   -0.893648    2.72132  0.0000E+00  0.1809E-08  0.1377E-12  0.1740E-09  0.0000E+00  0.4030E+16
   -0.962393    2.93986  0.0000E+00  0.3673E-08  0.2729E-12  0.4033E-09  0.0000E+00  0.3445E+16
   -1.031138    3.17296  0.0000E+00  0.7378E-08  0.5352E-12  0.9901E-09  0.0000E+00  0.2749E+16
   -1.099883    3.42596  0.0000E+00  0.1465E-07  0.1038E-11  0.2838E-08  0.0000E+00  0.1852E+16
   -1.168629    3.70591  0.0000E+00  0.2858E-07  0.1980E-11  0.1671E-07  0.0000E+00  0.6187E+15
   -1.237374    3.99874  0.0000E+00  0.3082E-07  0.2147E-11  0.1343E-03  0.0000E+00  0.3670E+13
   -1.306120    4.01119  0.0000E+00  0.3116E-07  0.2176E-11  0.1553E-03  0.0000E+00 -0.1244E+12
   -1.374865    4.01151  0.0000E+00  0.3143E-07  0.2204E-11  0.1610E-03  0.0000E+00 -0.1249E+12
   -1.443611    4.01182  0.0000E+00  0.3166E-07  0.2233E-11  0.1646E-03  0.0000E+00 -0.1243E+12
   -1.512356    4.01213  0.0000E+00  0.3186E-07  0.2264E-11  0.1657E-03  0.0000E+00 -0.1251E+12
   -1.581102    4.01243  0.0000E+00  0.3203E-07  0.2297E-11  0.1654E-03  0.0000E+00 -0.1268E+12
   -1.649847    4.01274  0.0000E+00  0.3217E-07  0.2335E-11  0.1644E-03  0.0000E+00 -0.1291E+12
   -1.718592    4.01305  0.0000E+00  0.3230E-07  0.2376E-11  0.1630E-03  0.0000E+00 -0.1318E+12
   -1.787337    4.01336  0.0000E+00  0.3239E-07  0.2423E-11  0.1610E-03  0.0000E+00 -0.1351E+12
   -1.856082    4.01367  0.0000E+00  0.3246E-07  0.2475E-11  0.1586E-03  0.0000E+00 -0.1390E+12
   -1.924827    4.01400  0.0000E+00  0.3250E-07  0.2534E-11  0.1556E-03  0.0000E+00 -0.1438E+12
   -1.993571    4.01432  0.0000E+00  0.3251E-07  0.2602E-11  0.1520E-03  0.0000E+00 -0.1495E+12
   -2.062315    4.01466  0.0000E+00  0.3249E-07  0.2679E-11  0.1476E-03  0.0000E+00 -0.1551E+12
   -2.131058    4.01501  0.0000E+00  0.3242E-07  0.2770E-11  0.1425E-03  0.0000E+00 -0.1616E+12
   -2.199802    4.01537  0.0000E+00  0.3232E-07  0.2881E-11  0.1355E-03  0.0000E+00 -0.1709E+12
   -2.268545    4.01574  0.0000E+00  0.3215E-07  0.3031E-11  0.1240E-03  0.0000E+00 -0.1884E+12
   -2.337287    4.01614  0.0000E+00  0.3188E-07  0.3252E-11  0.1018E-03  0.0000E+00 -0.2324E+12
   -2.406029    4.01664  0.0000E+00  0.3147E-07  0.3584E-11  0.8025E-04  0.0000E+00 -0.2994E+12
   -2.474770    4.01727  0.0000E+00  0.3086E-07  0.4111E-11  0.6158E-04  0.0000E+00 -0.3993E+12
   -2.543511    4.01808  0.0000E+00  0.2988E-07  0.5073E-11  0.4255E-04  0.0000E+00 -0.6002E+12
   -2.612251    4.01927  0.0000E+00  0.2796E-07  0.7453E-11  0.2185E-04  0.0000E+00 -0.1255E+13
   -2.680991    4.02163  0.0000E+00  0.1813E-07  0.2650E-10  0.1935E-05  0.0000E+00 -0.2055E+14
   -2.749730    4.04858  0.0000E+00  0.0000E+00  0.0000E+00  0.0000E+00  0.0000E+00  0.0000E+00
