 1 - depth, m
 2 - temperature, C
 3 - salinity, kg/kg
 4 - turbulent kinetic energy, m**2/s**2
 5 - dissipation rate, m**2/s**3
 6 - kinematic heat conductance, m**2/s
 7 - modulus of horizontal velocity, m/s
 8 - Richardson number, n/d
   -0.000000    0.00000  0.0000E+00  0.1219E-13  0.7604E-17  0.1000E-09  0.0000E+00  0.1059E+17
   -0.068752    0.16242  0.0000E+00  0.1219E-13  0.7604E-17  0.1000E-09  0.0000E+00  0.9676E+16
   -0.137504    0.31751  0.0000E+00  0.1219E-13  0.7604E-17  0.1000E-09  0.0000E+00  0.8816E+16
   -0.206257    0.46514  0.0000E+00  0.1219E-13  0.7604E-17  0.1000E-09  0.0000E+00  0.8011E+16
   -0.275010    0.60521  0.0000E+00  0.1219E-13  0.7604E-17  0.1000E-09  0.0000E+00  0.7327E+16
   -0.343764    0.73894  0.0000E+00  0.1219E-13  0.7604E-17  0.1000E-09  0.0000E+00  0.6700E+16
   -0.412518    0.86652  0.0000E+00  0.1219E-13  0.7604E-17  0.1000E-09  0.0000E+00  0.6115E+16
   -0.481273    0.98795  0.0000E+00  0.1219E-13  0.7604E-17  0.1000E-09  0.0000E+00  0.5560E+16
   -0.550029    1.10303  0.0000E+00  0.1219E-13  0.7604E-17  0.1000E-09  0.0000E+00  0.5009E+16
   -0.618785    1.21099  0.0000E+00  0.1219E-13  0.7604E-17  0.1000E-09  0.0000E+00  0.4501E+16
   -0.687541    1.31190  0.0000E+00  0.1219E-13  0.7604E-17  0.1000E-09  0.0000E+00  0.4151E+16
   -0.756297    1.40861  0.0000E+00  0.1219E-13  0.7604E-17  0.1000E-09  0.0000E+00  0.3899E+16
   -0.825054    1.50305  0.0000E+00  0.1219E-13  0.7604E-17  0.1000E-09  0.0000E+00  0.3671E+16
   -0.893811    1.59551  0.0000E+00  0.1219E-13  0.7604E-17  0.1000E-09  0.0000E+00  0.3464E+16
   -0.962569    1.68628  0.0000E+00  0.1219E-13  0.7604E-17  0.1000E-09  0.0000E+00  0.3275E+16
   -1.031326    1.77567  0.0000E+00  0.1219E-13  0.7604E-17  0.1000E-09  0.0000E+00  0.3115E+16
   -1.100084    1.86431  0.0000E+00  0.1219E-13  0.7604E-17  0.1000E-09  0.0000E+00  0.2967E+16
   -1.168842    1.95246  0.0000E+00  0.1219E-13  0.7604E-17  0.1000E-09  0.0000E+00  0.2827E+16
   -1.237600    2.04031  0.0000E+00  0.1219E-13  0.7604E-17  0.1000E-09  0.0000E+00  0.2693E+16
   -1.306358    2.12797  0.0000E+00  0.1219E-13  0.7604E-17  0.1000E-09  0.0000E+00  0.2561E+16
   -1.375116    2.21549  0.0000E+00  0.1219E-13  0.7604E-17  0.1000E-09  0.0000E+00  0.2475E+16
   -1.443874    2.30450  0.0000E+00  0.1219E-13  0.7604E-17  0.1000E-09  0.0000E+00  0.2395E+16
   -1.512632    2.39552  0.0000E+00  0.1219E-13  0.7604E-17  0.1000E-09  0.0000E+00  0.2308E+16
   -1.581390    2.48863  0.0000E+00  0.1219E-13  0.7604E-17  0.1000E-09  0.0000E+00  0.2212E+16
   -1.650148    2.58377  0.0000E+00  0.1219E-13  0.7604E-17  0.1000E-09  0.0000E+00  0.2102E+16
   -1.718906    2.68076  0.0000E+00  0.1219E-13  0.7604E-17  0.1000E-09  0.0000E+00  0.1980E+16
   -1.787663    2.77938  0.0000E+00  0.1219E-13  0.7604E-17  0.1000E-09  0.0000E+00  0.1846E+16
   -1.856421    2.87935  0.0000E+00  0.1219E-13  0.7604E-17  0.1000E-09  0.0000E+00  0.1700E+16
   -1.925178    2.98039  0.0000E+00  0.1219E-13  0.7604E-17  0.1000E-09  0.0000E+00  0.1546E+16
   -1.993935    3.08217  0.0000E+00  0.1219E-13  0.7604E-17  0.1000E-09  0.0000E+00  0.1384E+16
   -2.062691    3.18437  0.0000E+00  0.1220E-13  0.7612E-17  0.1000E-09  0.0000E+00  0.1232E+16
   -2.131447    3.28798  0.0000E+00  0.4743E-13  0.2670E-16  0.1000E-09  0.0000E+00  0.1074E+16
   -2.200203    3.39305  0.0000E+00  0.2583E-12  0.1389E-15  0.1000E-09  0.0000E+00  0.9080E+15
   -2.268959    3.49947  0.0000E+00  0.1401E-11  0.7234E-15  0.1000E-09  0.0000E+00  0.7474E+15
   -2.337713    3.60915  0.0000E+00  0.7540E-11  0.3744E-14  0.1000E-09  0.0000E+00  0.5769E+15
   -2.406468    3.72368  0.0000E+00  0.3998E-10  0.1913E-13  0.2464E-09  0.0000E+00  0.3846E+15
   -2.475222    3.84480  0.0000E+00  0.2094E-09  0.9683E-13  0.2983E-08  0.0000E+00  0.1558E+15
   -2.543975    3.97378  0.0000E+00  0.1029E-08  0.4691E-12  0.4468E-06  0.0000E+00 -0.3428E+13
   -2.612728    4.01079  0.0000E+00  0.2665E-08  0.1809E-11  0.1218E-05  0.0000E+00 -0.1188E+14
   -2.681480    4.03231  0.0000E+00  0.4414E-08  0.6568E-11  0.9249E-06  0.0000E+00 -0.5722E+14
   -2.750232    4.08342  0.0000E+00  0.0000E+00  0.0000E+00  0.0000E+00  0.0000E+00  0.0000E+00
