 1 - depth, m
 2 - temperature, C
 3 - salinity, kg/kg
 4 - turbulent kinetic energy, m**2/s**2
 5 - dissipation rate, m**2/s**3
 6 - kinematic heat conductance, m**2/s
 7 - modulus of horizontal velocity, m/s
 8 - Richardson number, n/d
   -0.000000    0.00000  0.0000E+00  0.9774E-12  0.2159E-15  0.1000E-09  0.0000E+00  0.1876E+17
   -0.068766    0.29295  0.0000E+00  0.2349E-11  0.2476E-15  0.1000E-09  0.0000E+00  0.1684E+17
   -0.137532    0.57862  0.0000E+00  0.5328E-11  0.4351E-15  0.1000E-09  0.0000E+00  0.1506E+17
   -0.206299    0.85747  0.0000E+00  0.1115E-10  0.8380E-15  0.1000E-09  0.0000E+00  0.1341E+17
   -0.275067    1.12991  0.0000E+00  0.2241E-10  0.1623E-14  0.1000E-09  0.0000E+00  0.1190E+17
   -0.343835    1.39687  0.0000E+00  0.4415E-10  0.3117E-14  0.1000E-09  0.0000E+00  0.1050E+17
   -0.412604    1.65881  0.0000E+00  0.8604E-10  0.5939E-14  0.1000E-09  0.0000E+00  0.9179E+16
   -0.481373    1.91603  0.0000E+00  0.1663E-09  0.1124E-13  0.1000E-09  0.0000E+00  0.7936E+16
   -0.550143    2.16863  0.0000E+00  0.3199E-09  0.2116E-13  0.1000E-09  0.0000E+00  0.6754E+16
   -0.618913    2.41636  0.0000E+00  0.6118E-09  0.3964E-13  0.1000E-09  0.0000E+00  0.5640E+16
   -0.687683    2.65922  0.0000E+00  0.1163E-08  0.7384E-13  0.1000E-09  0.0000E+00  0.4633E+16
   -0.756454    2.89959  0.0000E+00  0.2199E-08  0.1368E-12  0.1892E-09  0.0000E+00  0.3679E+16
   -0.825225    3.13871  0.0000E+00  0.4131E-08  0.2518E-12  0.4674E-09  0.0000E+00  0.2743E+16
   -0.893997    3.37614  0.0000E+00  0.7716E-08  0.4611E-12  0.1285E-08  0.0000E+00  0.1826E+16
   -0.962768    3.61076  0.0000E+00  0.1430E-07  0.8382E-12  0.4551E-08  0.0000E+00  0.9376E+15
   -1.031540    3.83847  0.0000E+00  0.2579E-07  0.1486E-11  0.4579E-07  0.0000E+00  0.1653E+15
   -1.100312    4.01446  0.0000E+00  0.2623E-07  0.1514E-11  0.1609E-03  0.0000E+00 -0.7880E+11
   -1.169084    4.01464  0.0000E+00  0.2644E-07  0.1529E-11  0.1621E-03  0.0000E+00 -0.8771E+11
   -1.237856    4.01484  0.0000E+00  0.2663E-07  0.1545E-11  0.1686E-03  0.0000E+00 -0.8731E+11
   -1.306629    4.01503  0.0000E+00  0.2680E-07  0.1563E-11  0.1687E-03  0.0000E+00 -0.8881E+11
   -1.375401    4.01523  0.0000E+00  0.2694E-07  0.1582E-11  0.1682E-03  0.0000E+00 -0.8993E+11
   -1.444173    4.01543  0.0000E+00  0.2707E-07  0.1603E-11  0.1677E-03  0.0000E+00 -0.9102E+11
   -1.512946    4.01563  0.0000E+00  0.2718E-07  0.1626E-11  0.1668E-03  0.0000E+00 -0.9237E+11
   -1.581718    4.01583  0.0000E+00  0.2728E-07  0.1651E-11  0.1655E-03  0.0000E+00 -0.9399E+11
   -1.650490    4.01603  0.0000E+00  0.2736E-07  0.1679E-11  0.1639E-03  0.0000E+00 -0.9591E+11
   -1.719262    4.01623  0.0000E+00  0.2742E-07  0.1711E-11  0.1618E-03  0.0000E+00 -0.9814E+11
   -1.788034    4.01644  0.0000E+00  0.2746E-07  0.1746E-11  0.1593E-03  0.0000E+00 -0.1008E+12
   -1.856806    4.01666  0.0000E+00  0.2748E-07  0.1786E-11  0.1564E-03  0.0000E+00 -0.1038E+12
   -1.925577    4.01687  0.0000E+00  0.2749E-07  0.1831E-11  0.1529E-03  0.0000E+00 -0.1075E+12
   -1.994348    4.01710  0.0000E+00  0.2747E-07  0.1883E-11  0.1489E-03  0.0000E+00 -0.1117E+12
   -2.063119    4.01733  0.0000E+00  0.2743E-07  0.1943E-11  0.1443E-03  0.0000E+00 -0.1164E+12
   -2.131889    4.01757  0.0000E+00  0.2736E-07  0.2012E-11  0.1391E-03  0.0000E+00 -0.1220E+12
   -2.200659    4.01781  0.0000E+00  0.2726E-07  0.2094E-11  0.1333E-03  0.0000E+00 -0.1286E+12
   -2.269429    4.01807  0.0000E+00  0.2711E-07  0.2205E-11  0.1263E-03  0.0000E+00 -0.1373E+12
   -2.338198    4.01835  0.0000E+00  0.2688E-07  0.2376E-11  0.9889E-04  0.0000E+00 -0.1778E+12
   -2.406967    4.01870  0.0000E+00  0.2652E-07  0.2632E-11  0.7677E-04  0.0000E+00 -0.2333E+12
   -2.475735    4.01916  0.0000E+00  0.2601E-07  0.3037E-11  0.5874E-04  0.0000E+00 -0.3123E+12
   -2.544503    4.01976  0.0000E+00  0.2518E-07  0.3776E-11  0.4021E-04  0.0000E+00 -0.4732E+12
   -2.613270    4.02065  0.0000E+00  0.2357E-07  0.5610E-11  0.2035E-04  0.0000E+00 -0.9990E+12
   -2.682036    4.02246  0.0000E+00  0.1530E-07  0.2017E-10  0.1762E-05  0.0000E+00 -0.1568E+14
   -2.750802    4.04384  0.0000E+00  0.0000E+00  0.0000E+00  0.0000E+00  0.0000E+00  0.0000E+00
