 1 - depth, m
 2 - temperature, C
 3 - salinity, kg/kg
 4 - turbulent kinetic energy, m**2/s**2
 5 - dissipation rate, m**2/s**3
 6 - kinematic heat conductance, m**2/s
 7 - modulus of horizontal velocity, m/s
 8 - Richardson number, n/d
   -0.000000    0.00000  0.0000E+00  0.3879E-12  0.7333E-16  0.1000E-09  0.0000E+00  0.1608E+17
   -0.068732    0.24950  0.0000E+00  0.8542E-12  0.9270E-16  0.1000E-09  0.0000E+00  0.1469E+17
   -0.137464    0.49404  0.0000E+00  0.1921E-11  0.1723E-15  0.1000E-09  0.0000E+00  0.1340E+17
   -0.206197    0.73417  0.0000E+00  0.4110E-11  0.3456E-15  0.1000E-09  0.0000E+00  0.1220E+17
   -0.274931    0.97032  0.0000E+00  0.8542E-11  0.6951E-15  0.1000E-09  0.0000E+00  0.1113E+17
   -0.343665    1.20423  0.0000E+00  0.1746E-10  0.1386E-14  0.1000E-09  0.0000E+00  0.1013E+17
   -0.412400    1.43655  0.0000E+00  0.3534E-10  0.2742E-14  0.1000E-09  0.0000E+00  0.9166E+16
   -0.481135    1.66768  0.0000E+00  0.7096E-10  0.5386E-14  0.1000E-09  0.0000E+00  0.8230E+16
   -0.549871    1.89780  0.0000E+00  0.1417E-09  0.1052E-13  0.1000E-09  0.0000E+00  0.7300E+16
   -0.618607    2.12647  0.0000E+00  0.2813E-09  0.2045E-13  0.1000E-09  0.0000E+00  0.6399E+16
   -0.687343    2.35396  0.0000E+00  0.5549E-09  0.3949E-13  0.1000E-09  0.0000E+00  0.5607E+16
   -0.756080    2.58420  0.0000E+00  0.1088E-08  0.7580E-13  0.1000E-09  0.0000E+00  0.4837E+16
   -0.824817    2.81976  0.0000E+00  0.2119E-08  0.1446E-12  0.1834E-09  0.0000E+00  0.4016E+16
   -0.893554    3.06076  0.0000E+00  0.4104E-08  0.2744E-12  0.4455E-09  0.0000E+00  0.3135E+16
   -0.962292    3.30699  0.0000E+00  0.7895E-08  0.5173E-12  0.1201E-08  0.0000E+00  0.2194E+16
   -1.031030    3.55751  0.0000E+00  0.1506E-07  0.9671E-12  0.4114E-08  0.0000E+00  0.1197E+16
   -1.099768    3.80796  0.0000E+00  0.2801E-07  0.1768E-11  0.3712E-07  0.0000E+00  0.2430E+15
   -1.168506    4.01549  0.0000E+00  0.2853E-07  0.1803E-11  0.1646E-03  0.0000E+00 -0.9645E+11
   -1.237244    4.01570  0.0000E+00  0.2878E-07  0.1823E-11  0.1604E-03  0.0000E+00 -0.1056E+12
   -1.305982    4.01593  0.0000E+00  0.2900E-07  0.1844E-11  0.1655E-03  0.0000E+00 -0.1058E+12
   -1.374721    4.01615  0.0000E+00  0.2919E-07  0.1867E-11  0.1672E-03  0.0000E+00 -0.1064E+12
   -1.443459    4.01638  0.0000E+00  0.2936E-07  0.1892E-11  0.1672E-03  0.0000E+00 -0.1077E+12
   -1.512197    4.01661  0.0000E+00  0.2951E-07  0.1919E-11  0.1666E-03  0.0000E+00 -0.1095E+12
   -1.580936    4.01684  0.0000E+00  0.2964E-07  0.1949E-11  0.1655E-03  0.0000E+00 -0.1116E+12
   -1.649674    4.01707  0.0000E+00  0.2975E-07  0.1983E-11  0.1641E-03  0.0000E+00 -0.1140E+12
   -1.718412    4.01731  0.0000E+00  0.2985E-07  0.2021E-11  0.1623E-03  0.0000E+00 -0.1169E+12
   -1.787150    4.01755  0.0000E+00  0.2992E-07  0.2064E-11  0.1600E-03  0.0000E+00 -0.1202E+12
   -1.855887    4.01779  0.0000E+00  0.2997E-07  0.2112E-11  0.1572E-03  0.0000E+00 -0.1242E+12
   -1.924625    4.01804  0.0000E+00  0.3000E-07  0.2167E-11  0.1539E-03  0.0000E+00 -0.1288E+12
   -1.993362    4.01830  0.0000E+00  0.3000E-07  0.2229E-11  0.1500E-03  0.0000E+00 -0.1343E+12
   -2.062098    4.01857  0.0000E+00  0.2997E-07  0.2301E-11  0.1455E-03  0.0000E+00 -0.1401E+12
   -2.130835    4.01884  0.0000E+00  0.2992E-07  0.2384E-11  0.1404E-03  0.0000E+00 -0.1470E+12
   -2.199571    4.01913  0.0000E+00  0.2983E-07  0.2482E-11  0.1346E-03  0.0000E+00 -0.1552E+12
   -2.268307    4.01943  0.0000E+00  0.2969E-07  0.2608E-11  0.1278E-03  0.0000E+00 -0.1656E+12
   -2.337042    4.01975  0.0000E+00  0.2946E-07  0.2798E-11  0.1072E-03  0.0000E+00 -0.2005E+12
   -2.405776    4.02013  0.0000E+00  0.2910E-07  0.3093E-11  0.8182E-04  0.0000E+00 -0.2678E+12
   -2.474511    4.02063  0.0000E+00  0.2856E-07  0.3562E-11  0.6200E-04  0.0000E+00 -0.3625E+12
   -2.543244    4.02130  0.0000E+00  0.2768E-07  0.4418E-11  0.4253E-04  0.0000E+00 -0.5489E+12
   -2.611977    4.02229  0.0000E+00  0.2593E-07  0.6535E-11  0.2163E-04  0.0000E+00 -0.1154E+13
   -2.680710    4.02428  0.0000E+00  0.1685E-07  0.2346E-10  0.1864E-05  0.0000E+00 -0.1845E+14
   -2.749442    4.04794  0.0000E+00  0.0000E+00  0.0000E+00  0.0000E+00  0.0000E+00  0.0000E+00
