 1 - depth, m
 2 - temperature, C
 3 - salinity, kg/kg
 4 - turbulent kinetic energy, m**2/s**2
 5 - dissipation rate, m**2/s**3
 6 - kinematic heat conductance, m**2/s
 7 - modulus of horizontal velocity, m/s
 8 - Richardson number, n/d
   -0.000000    0.00000  0.0000E+00  0.1062E-11  0.2337E-15  0.1000E-09  0.0000E+00  0.1692E+17
   -0.068739    0.26302  0.0000E+00  0.2552E-11  0.2552E-15  0.1000E-09  0.0000E+00  0.1536E+17
   -0.137479    0.52020  0.0000E+00  0.5711E-11  0.4295E-15  0.1000E-09  0.0000E+00  0.1392E+17
   -0.206219    0.77220  0.0000E+00  0.1170E-10  0.8007E-15  0.1000E-09  0.0000E+00  0.1259E+17
   -0.274960    1.01957  0.0000E+00  0.2294E-10  0.1505E-14  0.1000E-09  0.0000E+00  0.1140E+17
   -0.343701    1.26385  0.0000E+00  0.4398E-10  0.2806E-14  0.1000E-09  0.0000E+00  0.1028E+17
   -0.412443    1.50572  0.0000E+00  0.8325E-10  0.5189E-14  0.1000E-09  0.0000E+00  0.9220E+16
   -0.481185    1.74575  0.0000E+00  0.1562E-09  0.9522E-14  0.1000E-09  0.0000E+00  0.8205E+16
   -0.549928    1.98440  0.0000E+00  0.2914E-09  0.1738E-13  0.1000E-09  0.0000E+00  0.7219E+16
   -0.618672    2.22184  0.0000E+00  0.5402E-09  0.3153E-13  0.1000E-09  0.0000E+00  0.6280E+16
   -0.687415    2.45909  0.0000E+00  0.9952E-09  0.5687E-13  0.1000E-09  0.0000E+00  0.5446E+16
   -0.756159    2.70081  0.0000E+00  0.1822E-08  0.1020E-12  0.1122E-09  0.0000E+00  0.4623E+16
   -0.824903    2.95043  0.0000E+00  0.3316E-08  0.1817E-12  0.2485E-09  0.0000E+00  0.3721E+16
   -0.893648    3.20860  0.0000E+00  0.5997E-08  0.3219E-12  0.6035E-09  0.0000E+00  0.2715E+16
   -0.962393    3.47462  0.0000E+00  0.1078E-07  0.5669E-12  0.1798E-08  0.0000E+00  0.1604E+16
   -1.031138    3.74484  0.0000E+00  0.1913E-07  0.9872E-12  0.1102E-07  0.0000E+00  0.4563E+15
   -1.099883    4.00074  0.0000E+00  0.1953E-07  0.1009E-11  0.1308E-03  0.0000E+00 -0.5608E+11
   -1.168628    4.00099  0.0000E+00  0.1972E-07  0.1021E-11  0.1311E-03  0.0000E+00 -0.6686E+11
   -1.237374    4.00127  0.0000E+00  0.1989E-07  0.1034E-11  0.1363E-03  0.0000E+00 -0.6748E+11
   -1.306119    4.00156  0.0000E+00  0.2004E-07  0.1048E-11  0.1414E-03  0.0000E+00 -0.6730E+11
   -1.374865    4.00184  0.0000E+00  0.2017E-07  0.1063E-11  0.1430E-03  0.0000E+00 -0.6803E+11
   -1.443610    4.00212  0.0000E+00  0.2029E-07  0.1079E-11  0.1429E-03  0.0000E+00 -0.6935E+11
   -1.512356    4.00239  0.0000E+00  0.2040E-07  0.1096E-11  0.1422E-03  0.0000E+00 -0.7099E+11
   -1.581101    4.00267  0.0000E+00  0.2050E-07  0.1115E-11  0.1412E-03  0.0000E+00 -0.7285E+11
   -1.649847    4.00295  0.0000E+00  0.2058E-07  0.1136E-11  0.1398E-03  0.0000E+00 -0.7497E+11
   -1.718592    4.00324  0.0000E+00  0.2065E-07  0.1160E-11  0.1381E-03  0.0000E+00 -0.7736E+11
   -1.787337    4.00353  0.0000E+00  0.2071E-07  0.1187E-11  0.1360E-03  0.0000E+00 -0.8010E+11
   -1.856082    4.00382  0.0000E+00  0.2076E-07  0.1216E-11  0.1335E-03  0.0000E+00 -0.8324E+11
   -1.924826    4.00412  0.0000E+00  0.2078E-07  0.1250E-11  0.1306E-03  0.0000E+00 -0.8689E+11
   -1.993570    4.00443  0.0000E+00  0.2079E-07  0.1288E-11  0.1272E-03  0.0000E+00 -0.9113E+11
   -2.062314    4.00475  0.0000E+00  0.2079E-07  0.1332E-11  0.1232E-03  0.0000E+00 -0.9579E+11
   -2.131058    4.00508  0.0000E+00  0.2076E-07  0.1382E-11  0.1187E-03  0.0000E+00 -0.1012E+12
   -2.199801    4.00542  0.0000E+00  0.2070E-07  0.1448E-11  0.1134E-03  0.0000E+00 -0.1079E+12
   -2.268544    4.00578  0.0000E+00  0.2059E-07  0.1541E-11  0.9589E-04  0.0000E+00 -0.1304E+12
   -2.337287    4.00620  0.0000E+00  0.2042E-07  0.1673E-11  0.7805E-04  0.0000E+00 -0.1644E+12
   -2.406028    4.00672  0.0000E+00  0.2017E-07  0.1864E-11  0.6339E-04  0.0000E+00 -0.2090E+12
   -2.474770    4.00736  0.0000E+00  0.1978E-07  0.2162E-11  0.4920E-04  0.0000E+00 -0.2804E+12
   -2.543511    4.00820  0.0000E+00  0.1916E-07  0.2704E-11  0.3370E-04  0.0000E+00 -0.4337E+12
   -2.612251    4.00943  0.0000E+00  0.1791E-07  0.4056E-11  0.1693E-04  0.0000E+00 -0.9542E+12
   -2.680991    4.01193  0.0000E+00  0.1190E-07  0.1418E-10  0.1623E-05  0.0000E+00 -0.1586E+14
   -2.749730    4.03810  0.0000E+00  0.0000E+00  0.0000E+00  0.0000E+00  0.0000E+00  0.0000E+00
