 1 - depth, m
 2 - temperature, C
 3 - salinity, kg/kg
 4 - turbulent kinetic energy, m**2/s**2
 5 - dissipation rate, m**2/s**3
 6 - kinematic heat conductance, m**2/s
 7 - modulus of horizontal velocity, m/s
 8 - Richardson number, n/d
   -0.000000    0.00000  0.0000E+00  0.1219E-13  0.7603E-17  0.1000E-09  0.0000E+00  0.1113E+17
   -0.068739    0.17082  0.0000E+00  0.1219E-13  0.7603E-17  0.1000E-09  0.0000E+00  0.1049E+17
   -0.137479    0.33967  0.0000E+00  0.1219E-13  0.7603E-17  0.1000E-09  0.0000E+00  0.9864E+16
   -0.206220    0.50640  0.0000E+00  0.1219E-13  0.7603E-17  0.1000E-09  0.0000E+00  0.9255E+16
   -0.274961    0.67093  0.0000E+00  0.1219E-13  0.7603E-17  0.1000E-09  0.0000E+00  0.8686E+16
   -0.343703    0.83360  0.0000E+00  0.1219E-13  0.7603E-17  0.1000E-09  0.0000E+00  0.8133E+16
   -0.412445    0.99436  0.0000E+00  0.1219E-13  0.7603E-17  0.1000E-09  0.0000E+00  0.7591E+16
   -0.481188    1.15307  0.0000E+00  0.1219E-13  0.7603E-17  0.1000E-09  0.0000E+00  0.7058E+16
   -0.549931    1.30948  0.0000E+00  0.1219E-13  0.7603E-17  0.1000E-09  0.0000E+00  0.6525E+16
   -0.618675    1.46309  0.0000E+00  0.1219E-13  0.7603E-17  0.1000E-09  0.0000E+00  0.6006E+16
   -0.687419    1.61365  0.0000E+00  0.1219E-13  0.7603E-17  0.1000E-09  0.0000E+00  0.5536E+16
   -0.756163    1.76182  0.0000E+00  0.1219E-13  0.7603E-17  0.1000E-09  0.0000E+00  0.5097E+16
   -0.824908    1.90793  0.0000E+00  0.1219E-13  0.7603E-17  0.1000E-09  0.0000E+00  0.4669E+16
   -0.893652    2.05175  0.0000E+00  0.1219E-13  0.7603E-17  0.1000E-09  0.0000E+00  0.4251E+16
   -0.962398    2.19306  0.0000E+00  0.2000E-13  0.7603E-17  0.1000E-09  0.0000E+00  0.3846E+16
   -1.031143    2.33161  0.0000E+00  0.7646E-13  0.9340E-17  0.1000E-09  0.0000E+00  0.3461E+16
   -1.099888    2.46736  0.0000E+00  0.1935E-12  0.1793E-16  0.1000E-09  0.0000E+00  0.3091E+16
   -1.168634    2.60007  0.0000E+00  0.4272E-12  0.3654E-16  0.1000E-09  0.0000E+00  0.2737E+16
   -1.237380    2.72950  0.0000E+00  0.8984E-12  0.7406E-16  0.1000E-09  0.0000E+00  0.2400E+16
   -1.306126    2.85542  0.0000E+00  0.1851E-11  0.1486E-15  0.1000E-09  0.0000E+00  0.2082E+16
   -1.374872    2.97756  0.0000E+00  0.3770E-11  0.2953E-15  0.1000E-09  0.0000E+00  0.1798E+16
   -1.443617    3.09665  0.0000E+00  0.7610E-11  0.5824E-15  0.1000E-09  0.0000E+00  0.1533E+16
   -1.512363    3.21279  0.0000E+00  0.1526E-10  0.1141E-14  0.1000E-09  0.0000E+00  0.1283E+16
   -1.581109    3.32569  0.0000E+00  0.3053E-10  0.2231E-14  0.1000E-09  0.0000E+00  0.1048E+16
   -1.649855    3.43507  0.0000E+00  0.6073E-10  0.4339E-14  0.1000E-09  0.0000E+00  0.8311E+15
   -1.718600    3.54068  0.0000E+00  0.1200E-09  0.8387E-14  0.1000E-09  0.0000E+00  0.6322E+15
   -1.787345    3.64226  0.0000E+00  0.2359E-09  0.1612E-13  0.1814E-09  0.0000E+00  0.4522E+15
   -1.856091    3.73952  0.0000E+00  0.4606E-09  0.3079E-13  0.5375E-09  0.0000E+00  0.2916E+15
   -1.924836    3.83205  0.0000E+00  0.8935E-09  0.5845E-13  0.1968E-08  0.0000E+00  0.1512E+15
   -1.993580    3.91903  0.0000E+00  0.1710E-08  0.1096E-12  0.1594E-07  0.0000E+00  0.3504E+14
   -2.062324    3.99387  0.0000E+00  0.2140E-08  0.1380E-12  0.1231E-04  0.0000E+00 -0.1115E+12
   -2.131068    3.99476  0.0000E+00  0.2340E-08  0.1549E-12  0.1301E-04  0.0000E+00 -0.1234E+12
   -2.199812    3.99565  0.0000E+00  0.2505E-08  0.1735E-12  0.1319E-04  0.0000E+00 -0.1348E+12
   -2.268555    3.99653  0.0000E+00  0.2641E-08  0.1951E-12  0.1288E-04  0.0000E+00 -0.1527E+12
   -2.337298    3.99745  0.0000E+00  0.2750E-08  0.2228E-12  0.1200E-04  0.0000E+00 -0.1821E+12
   -2.406040    3.99845  0.0000E+00  0.2828E-08  0.2611E-12  0.1054E-04  0.0000E+00 -0.2331E+12
   -2.474782    3.99962  0.0000E+00  0.2867E-08  0.3203E-12  0.8481E-05  0.0000E+00 -0.3339E+12
   -2.543523    4.00113  0.0000E+00  0.2844E-08  0.4310E-12  0.5839E-05  0.0000E+00 -0.5936E+12
   -2.612264    4.00350  0.0000E+00  0.2685E-08  0.7193E-12  0.2825E-05  0.0000E+00 -0.1736E+13
   -2.681004    4.00905  0.0000E+00  0.2168E-08  0.2127E-11  0.5640E-06  0.0000E+00 -0.2147E+14
   -2.749743    4.04340  0.0000E+00  0.0000E+00  0.0000E+00  0.0000E+00  0.0000E+00  0.0000E+00
