 1 - depth, m
 2 - temperature, C
 3 - salinity, kg/kg
 4 - turbulent kinetic energy, m**2/s**2
 5 - dissipation rate, m**2/s**3
 6 - kinematic heat conductance, m**2/s
 7 - modulus of horizontal velocity, m/s
 8 - Richardson number, n/d
   -0.000000    0.00000  0.0000E+00  0.7426E-05  0.2898E-06  0.1848E-04  0.1804E-01  0.1672E-01
   -0.068758    0.01138  0.0000E+00  0.5397E-05  0.9242E-07  0.2922E-04  0.1056E-01  0.5465E-01
   -0.137516    0.01868  0.0000E+00  0.3896E-05  0.4246E-07  0.3245E-04  0.7271E-02  0.2838E+00
   -0.206275    0.03133  0.0000E+00  0.2814E-05  0.2201E-07  0.3240E-04  0.5233E-02  0.3189E+01
   -0.275034    0.04088  0.0000E+00  0.2097E-05  0.1266E-07  0.2987E-04  0.3999E-02  0.3774E+02
   -0.343794    0.04767  0.0000E+00  0.1565E-05  0.7673E-08  0.2602E-04  0.3088E-02  0.6156E+03
   -0.412554    0.05369  0.0000E+00  0.1147E-05  0.4737E-08  0.2117E-04  0.2371E-02  0.1428E+05
   -0.481315    0.05995  0.0000E+00  0.8041E-06  0.2879E-08  0.1566E-04  0.1782E-02  0.4296E+06
   -0.550077    0.06739  0.0000E+00  0.5150E-06  0.1623E-08  0.1028E-04  0.1285E-02  0.1138E+08
   -0.618839    0.07442  0.0000E+00  0.2877E-06  0.8172E-09  0.5220E-05  0.8904E-03  0.5659E+09
   -0.687601    0.08458  0.0000E+00  0.1104E-06  0.2989E-09  0.1267E-05  0.5653E-03  0.3587E+11
   -0.756363    0.11329  0.0000E+00  0.2260E-07  0.5507E-10  0.2494E-06  0.2340E-03  0.1735E+13
   -0.825126    0.16924  0.0000E+00  0.3900E-08  0.8186E-11  0.4345E-07  0.6022E-04  0.5187E+14
   -0.893889    0.20508  0.0000E+00  0.7180E-09  0.1127E-11  0.6202E-08  0.1362E-04  0.1856E+15
   -0.962653    0.22104  0.0000E+00  0.9259E-09  0.4891E-12  0.9641E-06  0.2595E-05  0.1444E+14
   -1.031416    0.22242  0.0000E+00  0.2996E-09  0.1349E-12  0.2797E-08  0.6776E-06  0.5641E+14
   -1.100180    0.22756  0.0000E+00  0.6880E-10  0.2952E-13  0.3136E-09  0.1465E-06  0.1638E+15
   -1.168944    0.23726  0.0000E+00  0.1583E-10  0.6622E-14  0.1084E-09  0.3156E-07  0.3260E+15
   -1.237708    0.25223  0.0000E+00  0.3669E-11  0.1512E-14  0.1000E-09  0.6796E-08  0.5794E+15
   -1.306472    0.27598  0.0000E+00  0.8577E-12  0.3513E-15  0.1000E-09  0.1458E-08  0.1025E+16
   -1.375236    0.31548  0.0000E+00  0.2048E-12  0.8476E-16  0.1000E-09  0.3103E-09  0.3028E+16
   -1.444000    0.39060  0.0000E+00  0.5347E-13  0.2389E-16  0.1000E-09  0.6458E-10  0.6427E+16
   -1.512764    0.51361  0.0000E+00  0.2622E-13  0.1554E-16  0.1000E-09  0.9996E-11  0.7693E+16
   -1.581528    0.65821  0.0000E+00  0.7761E-13  0.5231E-16  0.1000E-09  0.1345E-11  0.7884E+16
   -1.650292    0.80566  0.0000E+00  0.4843E-12  0.3167E-15  0.1000E-09  0.1736E-12  0.7444E+16
   -1.719056    0.95123  0.0000E+00  0.3151E-11  0.1982E-14  0.1000E-09  0.2145E-13  0.7016E+16
   -1.787819    1.09579  0.0000E+00  0.2015E-10  0.1219E-13  0.1000E-09  0.2529E-14  0.6942E+16
   -1.856583    1.24712  0.0000E+00  0.1257E-09  0.7301E-13  0.1111E-09  0.2835E-15  0.7447E+16
   -1.925346    1.42073  0.0000E+00  0.7604E-09  0.4233E-12  0.2440E-09  0.3012E-16  0.8807E+16
   -1.994109    1.64585  0.0000E+00  0.4422E-08  0.2354E-11  0.8718E-09  0.3023E-17  0.1134E+17
   -2.062871    1.98425  0.0000E+00  0.2416E-07  0.1231E-10  0.4207E-08  0.2854E-18  0.1531E+17
   -2.131633    2.62572  0.0000E+00  0.7875E-07  0.3928E-10  0.6381E-05  0.2523E-19  0.1224E+17
   -2.200395    3.49445  0.0000E+00  0.1267E-06  0.6490E-10  0.5565E-04  0.2065E-20  0.4953E+16
   -2.269156    4.08208  0.0000E+00  0.1502E-06  0.7911E-10  0.9585E-04  0.1175E-21  0.2757E+15
   -2.337917    4.19479  0.0000E+00  0.1588E-06  0.8630E-10  0.1093E-03  0.5788E-23 -0.8257E+13
   -2.406678    4.19739  0.0000E+00  0.1635E-06  0.9349E-10  0.1066E-03  0.3107E-23 -0.9015E+13
   -2.475438    4.20018  0.0000E+00  0.1658E-06  0.1030E-09  0.9906E-04  0.1586E-23 -0.1014E+14
   -2.544197    4.20327  0.0000E+00  0.1651E-06  0.1186E-09  0.8361E-04  0.7371E-24 -0.1268E+14
   -2.612956    4.20711  0.0000E+00  0.1583E-06  0.1557E-09  0.4906E-04  0.2697E-24 -0.2334E+14
   -2.681714    4.21397  0.0000E+00  0.1069E-06  0.4429E-09  0.5285E-05  0.6198E-25 -0.2842E+15
   -2.750472    4.28445  0.0000E+00  0.0000E+00  0.0000E+00  0.0000E+00  0.6476E-25  0.0000E+00
