 1 - depth, m
 2 - temperature, C
 3 - salinity, kg/kg
 4 - turbulent kinetic energy, m**2/s**2
 5 - dissipation rate, m**2/s**3
 6 - kinematic heat conductance, m**2/s
 7 - modulus of horizontal velocity, m/s
 8 - Richardson number, n/d
   -0.000000    7.08112  0.0000E+00  0.1586E-03  0.7543E-04  0.1034E-03  0.1074E+00  0.8343E-01
   -0.068781    7.15531  0.0000E+00  0.8637E-04  0.2012E-04  0.1654E-03  0.3677E-01 -0.1234E+00
   -0.137563    7.16921  0.0000E+00  0.6233E-04  0.8867E-05  0.1762E-03  0.2797E-01  0.3330E+02
   -0.206345    7.17870  0.0000E+00  0.4724E-04  0.4142E-05  0.2009E-03  0.2302E-01  0.6257E+01
   -0.275128    7.18586  0.0000E+00  0.3761E-04  0.1978E-05  0.2310E-03  0.1957E-01  0.3347E+01
   -0.343912    7.19178  0.0000E+00  0.3113E-04  0.1009E-05  0.2657E-03  0.1668E-01  0.3984E+01
   -0.412696    7.19685  0.0000E+00  0.2665E-04  0.5716E-06  0.3029E-03  0.1426E-01  0.7983E+01
   -0.481480    7.20124  0.0000E+00  0.2334E-04  0.3586E-06  0.3427E-03  0.1224E-01  0.6446E+01
   -0.550265    7.20507  0.0000E+00  0.2074E-04  0.2427E-06  0.3855E-03  0.1055E-01  0.2102E+01
   -0.619050    7.20844  0.0000E+00  0.1864E-04  0.1739E-06  0.4289E-03  0.9171E-02  0.1507E+02
   -0.687836    7.21144  0.0000E+00  0.1692E-04  0.1299E-06  0.4736E-03  0.8014E-02  0.8103E+02
   -0.756622    7.21412  0.0000E+00  0.1547E-04  0.1002E-06  0.5174E-03  0.7036E-02  0.9958E+02
   -0.825408    7.21654  0.0000E+00  0.1423E-04  0.7914E-07  0.5621E-03  0.6203E-02  0.1356E+02
   -0.894195    7.21873  0.0000E+00  0.1318E-04  0.6381E-07  0.6140E-03  0.5490E-02  0.1952E+01
   -0.962982    7.22071  0.0000E+00  0.1227E-04  0.5237E-07  0.6651E-03  0.4881E-02  0.7939E+01
   -1.031769    7.22250  0.0000E+00  0.1150E-04  0.4371E-07  0.7261E-03  0.4357E-02  0.1190E+02
   -1.100556    7.22410  0.0000E+00  0.1083E-04  0.3702E-07  0.8017E-03  0.3896E-02  0.2451E+02
   -1.169344    7.22552  0.0000E+00  0.1025E-04  0.3177E-07  0.8882E-03  0.3487E-02  0.2352E+02
   -1.238131    7.22676  0.0000E+00  0.9738E-05  0.2760E-07  0.9802E-03  0.3124E-02  0.9836E+02
   -1.306919    7.22784  0.0000E+00  0.9284E-05  0.2424E-07  0.1074E-02  0.2798E-02  0.3645E+02
   -1.375706    7.22877  0.0000E+00  0.8877E-05  0.2149E-07  0.1148E-02  0.2505E-02  0.4886E+02
   -1.444494    7.22959  0.0000E+00  0.8505E-05  0.1921E-07  0.1207E-02  0.2235E-02  0.1176E+03
   -1.513282    7.23034  0.0000E+00  0.8161E-05  0.1730E-07  0.1256E-02  0.1986E-02  0.5118E+02
   -1.582069    7.23101  0.0000E+00  0.7837E-05  0.1566E-07  0.1296E-02  0.1760E-02  0.2584E+02
   -1.650856    7.23165  0.0000E+00  0.7533E-05  0.1427E-07  0.1319E-02  0.1557E-02  0.2484E+01
   -1.719644    7.23225  0.0000E+00  0.7246E-05  0.1308E-07  0.1333E-02  0.1374E-02  0.5433E+01
   -1.788431    7.23282  0.0000E+00  0.6977E-05  0.1207E-07  0.1342E-02  0.1209E-02  0.2252E+01
   -1.857218    7.23338  0.0000E+00  0.6723E-05  0.1122E-07  0.1341E-02  0.1061E-02  0.1936E+01
   -1.926004    7.23392  0.0000E+00  0.6485E-05  0.1052E-07  0.1330E-02  0.9279E-03  0.1607E+01
   -1.994791    7.23446  0.0000E+00  0.6262E-05  0.9963E-08  0.1308E-02  0.8089E-03  0.1779E+01
   -2.063577    7.23498  0.0000E+00  0.6054E-05  0.9533E-08  0.1275E-02  0.7027E-03  0.1508E+01
   -2.132362    7.23551  0.0000E+00  0.5862E-05  0.9232E-08  0.1232E-02  0.6079E-03  0.1553E+01
   -2.201148    7.23604  0.0000E+00  0.5686E-05  0.9060E-08  0.1179E-02  0.5234E-03  0.1655E+01
   -2.269933    7.23658  0.0000E+00  0.5526E-05  0.9023E-08  0.1116E-02  0.4478E-03  0.1865E+01
   -2.338717    7.23714  0.0000E+00  0.5377E-05  0.9131E-08  0.1046E-02  0.3833E-03  0.2288E+01
   -2.407501    7.23771  0.0000E+00  0.5237E-05  0.9414E-08  0.9688E-03  0.3289E-03  0.3277E+01
   -2.476285    7.23832  0.0000E+00  0.5097E-05  0.9953E-08  0.8775E-03  0.2823E-03  0.5239E+01
   -2.545068    7.23898  0.0000E+00  0.4937E-05  0.1098E-07  0.7819E-03  0.2402E-03  0.1060E+02
   -2.613850    7.23970  0.0000E+00  0.4669E-05  0.1381E-07  0.4504E-03  0.2011E-03  0.5550E+03
   -2.682632    7.24093  0.0000E+00  0.2798E-05  0.4918E-07  0.2151E-04  0.1476E-03 -0.4287E+04
   -2.751413    7.26537  0.0000E+00  0.0000E+00  0.0000E+00  0.0000E+00  0.1476E-03  0.0000E+00
