 1 - depth, m
 2 - temperature, C
 3 - salinity, kg/kg
 4 - turbulent kinetic energy, m**2/s**2
 5 - dissipation rate, m**2/s**3
 6 - kinematic heat conductance, m**2/s
 7 - modulus of horizontal velocity, m/s
 8 - Richardson number, n/d
   -0.000000    0.00000  0.0000E+00  0.1219E-13  0.7603E-17  0.1000E-09  0.0000E+00  0.1107E+17
   -0.068738    0.16996  0.0000E+00  0.1219E-13  0.7603E-17  0.1000E-09  0.0000E+00  0.1047E+17
   -0.137476    0.33853  0.0000E+00  0.1219E-13  0.7603E-17  0.1000E-09  0.0000E+00  0.9880E+16
   -0.206216    0.50548  0.0000E+00  0.1219E-13  0.7603E-17  0.1000E-09  0.0000E+00  0.9289E+16
   -0.274955    0.67058  0.0000E+00  0.1219E-13  0.7603E-17  0.1000E-09  0.0000E+00  0.8730E+16
   -0.343696    0.83408  0.0000E+00  0.1219E-13  0.7603E-17  0.1000E-09  0.0000E+00  0.8181E+16
   -0.412436    0.99585  0.0000E+00  0.1219E-13  0.7603E-17  0.1000E-09  0.0000E+00  0.7639E+16
   -0.481178    1.15568  0.0000E+00  0.1219E-13  0.7603E-17  0.1000E-09  0.0000E+00  0.7102E+16
   -0.549919    1.31327  0.0000E+00  0.1219E-13  0.7603E-17  0.1000E-09  0.0000E+00  0.6564E+16
   -0.618661    1.46808  0.0000E+00  0.1219E-13  0.7603E-17  0.1000E-09  0.0000E+00  0.6039E+16
   -0.687404    1.61983  0.0000E+00  0.1219E-13  0.7603E-17  0.1000E-09  0.0000E+00  0.5563E+16
   -0.756147    1.76917  0.0000E+00  0.1219E-13  0.7603E-17  0.1000E-09  0.0000E+00  0.5118E+16
   -0.824890    1.91645  0.0000E+00  0.1219E-13  0.7603E-17  0.1000E-09  0.0000E+00  0.4684E+16
   -0.893633    2.06141  0.0000E+00  0.1219E-13  0.7603E-17  0.1000E-09  0.0000E+00  0.4260E+16
   -0.962377    2.20384  0.0000E+00  0.2367E-13  0.7603E-17  0.1000E-09  0.0000E+00  0.3850E+16
   -1.031121    2.34347  0.0000E+00  0.8408E-13  0.1019E-16  0.1000E-09  0.0000E+00  0.3460E+16
   -1.099865    2.48028  0.0000E+00  0.2110E-12  0.2021E-16  0.1000E-09  0.0000E+00  0.3086E+16
   -1.168609    2.61407  0.0000E+00  0.4701E-12  0.4202E-16  0.1000E-09  0.0000E+00  0.2729E+16
   -1.237353    2.74459  0.0000E+00  0.1004E-11  0.8674E-16  0.1000E-09  0.0000E+00  0.2389E+16
   -1.306098    2.87163  0.0000E+00  0.2106E-11  0.1772E-15  0.1000E-09  0.0000E+00  0.2068E+16
   -1.374842    2.99491  0.0000E+00  0.4368E-11  0.3590E-15  0.1000E-09  0.0000E+00  0.1781E+16
   -1.443587    3.11519  0.0000E+00  0.8984E-11  0.7213E-15  0.1000E-09  0.0000E+00  0.1513E+16
   -1.512331    3.23255  0.0000E+00  0.1836E-10  0.1441E-14  0.1000E-09  0.0000E+00  0.1258E+16
   -1.581075    3.34657  0.0000E+00  0.3743E-10  0.2871E-14  0.1000E-09  0.0000E+00  0.1019E+16
   -1.649820    3.45678  0.0000E+00  0.7589E-10  0.5691E-14  0.1000E-09  0.0000E+00  0.7972E+15
   -1.718564    3.56277  0.0000E+00  0.1529E-09  0.1121E-13  0.1000E-09  0.0000E+00  0.5956E+15
   -1.787307    3.66415  0.0000E+00  0.3063E-09  0.2197E-13  0.2692E-09  0.0000E+00  0.4154E+15
   -1.856051    3.76050  0.0000E+00  0.6096E-09  0.4279E-13  0.8451E-09  0.0000E+00  0.2576E+15
   -1.924795    3.85143  0.0000E+00  0.1205E-08  0.8277E-13  0.3432E-08  0.0000E+00  0.1227E+15
   -1.993538    3.93577  0.0000E+00  0.2321E-08  0.1565E-12  0.4203E-07  0.0000E+00  0.1889E+14
   -2.062281    3.99841  0.0000E+00  0.2811E-08  0.1909E-12  0.1650E-04  0.0000E+00 -0.1266E+12
   -2.131023    3.99906  0.0000E+00  0.3030E-08  0.2103E-12  0.1686E-04  0.0000E+00 -0.1385E+12
   -2.199765    3.99974  0.0000E+00  0.3205E-08  0.2312E-12  0.1674E-04  0.0000E+00 -0.1486E+12
   -2.268507    4.00042  0.0000E+00  0.3344E-08  0.2555E-12  0.1613E-04  0.0000E+00 -0.1651E+12
   -2.337248    4.00115  0.0000E+00  0.3450E-08  0.2863E-12  0.1492E-04  0.0000E+00 -0.1924E+12
   -2.405989    4.00196  0.0000E+00  0.3518E-08  0.3287E-12  0.1307E-04  0.0000E+00 -0.2399E+12
   -2.474729    4.00291  0.0000E+00  0.3538E-08  0.3941E-12  0.1053E-04  0.0000E+00 -0.3327E+12
   -2.543469    4.00414  0.0000E+00  0.3481E-08  0.5154E-12  0.7308E-05  0.0000E+00 -0.5659E+12
   -2.612208    4.00606  0.0000E+00  0.3254E-08  0.8300E-12  0.3557E-05  0.0000E+00 -0.1560E+13
   -2.680947    4.01059  0.0000E+00  0.2493E-08  0.2443E-11  0.6220E-06  0.0000E+00 -0.2061E+14
   -2.749685    4.04307  0.0000E+00  0.0000E+00  0.0000E+00  0.0000E+00  0.0000E+00  0.0000E+00
