 1 - depth, m
 2 - temperature, C
 3 - salinity, kg/kg
 4 - turbulent kinetic energy, m**2/s**2
 5 - dissipation rate, m**2/s**3
 6 - kinematic heat conductance, m**2/s
 7 - modulus of horizontal velocity, m/s
 8 - Richardson number, n/d
   -0.000000    4.69972  0.0000E+00  0.5999E-04  0.1532E-04  0.6142E-04  0.5977E-01 -0.1402E-01
   -0.068786    4.77505  0.0000E+00  0.3218E-04  0.3416E-05  0.7460E-04  0.2470E-01 -0.4124E-01
   -0.137572    4.79753  0.0000E+00  0.2310E-04  0.1256E-05  0.9095E-04  0.1827E-01 -0.9622E-01
   -0.206359    4.81400  0.0000E+00  0.1767E-04  0.5425E-06  0.1167E-03  0.1439E-01  0.1947E+01
   -0.275147    4.82704  0.0000E+00  0.1447E-04  0.2732E-06  0.1435E-03  0.1168E-01  0.1382E+02
   -0.343935    4.83779  0.0000E+00  0.1238E-04  0.1581E-06  0.1706E-03  0.9589E-02  0.1444E+02
   -0.412723    4.84680  0.0000E+00  0.1086E-04  0.1020E-06  0.1980E-03  0.7937E-02  0.1618E+02
   -0.481513    4.85451  0.0000E+00  0.9641E-05  0.7085E-07  0.2250E-03  0.6612E-02  0.3805E+01
   -0.550302    4.86121  0.0000E+00  0.8606E-05  0.5146E-07  0.2530E-03  0.5535E-02  0.1406E+02
   -0.619092    4.86712  0.0000E+00  0.7728E-05  0.3865E-07  0.2805E-03  0.4669E-02  0.1419E+02
   -0.687882    4.87238  0.0000E+00  0.6980E-05  0.2977E-07  0.3084E-03  0.3962E-02  0.1649E+02
   -0.756673    4.87712  0.0000E+00  0.6341E-05  0.2339E-07  0.3368E-03  0.3379E-02  0.5985E+01
   -0.825464    4.88140  0.0000E+00  0.5794E-05  0.1869E-07  0.3665E-03  0.2893E-02  0.6769E+01
   -0.894255    4.88527  0.0000E+00  0.5327E-05  0.1516E-07  0.3980E-03  0.2487E-02  0.4312E+01
   -0.963047    4.88878  0.0000E+00  0.4930E-05  0.1248E-07  0.4448E-03  0.2147E-02  0.1381E+02
   -1.031839    4.89185  0.0000E+00  0.4601E-05  0.1045E-07  0.5299E-03  0.1864E-02  0.1606E+03
   -1.100631    4.89444  0.0000E+00  0.4327E-05  0.8902E-08  0.5947E-03  0.1627E-02  0.4251E+02
   -1.169423    4.89669  0.0000E+00  0.4095E-05  0.7695E-08  0.6507E-03  0.1426E-02  0.4469E+02
   -1.238215    4.89866  0.0000E+00  0.3897E-05  0.6743E-08  0.7091E-03  0.1251E-02  0.1110E+02
   -1.307007    4.90038  0.0000E+00  0.3727E-05  0.5981E-08  0.7510E-03  0.1101E-02  0.4306E+02
   -1.375799    4.90193  0.0000E+00  0.3578E-05  0.5362E-08  0.7919E-03  0.9674E-03  0.1449E+02
   -1.444592    4.90334  0.0000E+00  0.3446E-05  0.4854E-08  0.8271E-03  0.8487E-03  0.2152E+03
   -1.513384    4.90463  0.0000E+00  0.3329E-05  0.4434E-08  0.8543E-03  0.7418E-03  0.1341E+02
   -1.582176    4.90583  0.0000E+00  0.3223E-05  0.4085E-08  0.8744E-03  0.6479E-03  0.1995E+02
   -1.650968    4.90697  0.0000E+00  0.3128E-05  0.3796E-08  0.8840E-03  0.5664E-03  0.2549E+01
   -1.719760    4.90808  0.0000E+00  0.3041E-05  0.3557E-08  0.8872E-03  0.4956E-03  0.2912E+01
   -1.788552    4.90916  0.0000E+00  0.2963E-05  0.3360E-08  0.8864E-03  0.4336E-03  0.2894E+01
   -1.857343    4.91023  0.0000E+00  0.2891E-05  0.3202E-08  0.8812E-03  0.3797E-03  0.3220E+01
   -1.926134    4.91128  0.0000E+00  0.2826E-05  0.3077E-08  0.8724E-03  0.3328E-03  0.3745E+01
   -1.994926    4.91233  0.0000E+00  0.2767E-05  0.2982E-08  0.8602E-03  0.2919E-03  0.4393E+01
   -2.063716    4.91337  0.0000E+00  0.2711E-05  0.2914E-08  0.8441E-03  0.2561E-03  0.5404E+01
   -2.132507    4.91441  0.0000E+00  0.2659E-05  0.2872E-08  0.8236E-03  0.2241E-03  0.6674E+01
   -2.201297    4.91545  0.0000E+00  0.2610E-05  0.2856E-08  0.7981E-03  0.1948E-03  0.8771E+01
   -2.270086    4.91651  0.0000E+00  0.2561E-05  0.2870E-08  0.7665E-03  0.1677E-03  0.1167E+02
   -2.338875    4.91759  0.0000E+00  0.2510E-05  0.2921E-08  0.7263E-03  0.1429E-03  0.1718E+02
   -2.407664    4.91872  0.0000E+00  0.2457E-05  0.3025E-08  0.6761E-03  0.1203E-03  0.2739E+02
   -2.476452    4.91991  0.0000E+00  0.2399E-05  0.3213E-08  0.6114E-03  0.9953E-04  0.4947E+02
   -2.545240    4.92120  0.0000E+00  0.2331E-05  0.3557E-08  0.5478E-03  0.8056E-04  0.1164E+03
   -2.614027    4.92264  0.0000E+00  0.2212E-05  0.4497E-08  0.2755E-03  0.6402E-04  0.2142E+08
   -2.682813    4.92548  0.0000E+00  0.1331E-05  0.1630E-07  0.1505E-04  0.4163E-04 -0.8557E+05
   -2.751599    4.97798  0.0000E+00  0.0000E+00  0.0000E+00  0.0000E+00  0.4164E-04  0.0000E+00
