 1 - depth, m
 2 - temperature, C
 3 - salinity, kg/kg
 4 - turbulent kinetic energy, m**2/s**2
 5 - dissipation rate, m**2/s**3
 6 - kinematic heat conductance, m**2/s
 7 - modulus of horizontal velocity, m/s
 8 - Richardson number, n/d
   -0.000000    0.00000  0.0000E+00  0.1219E-13  0.7603E-17  0.1000E-09  0.0000E+00  0.1260E+17
   -0.068742    0.19409  0.0000E+00  0.1219E-13  0.7603E-17  0.1000E-09  0.0000E+00  0.1151E+17
   -0.137485    0.38109  0.0000E+00  0.1219E-13  0.7603E-17  0.1000E-09  0.0000E+00  0.1044E+17
   -0.206228    0.56008  0.0000E+00  0.1219E-13  0.7603E-17  0.1000E-09  0.0000E+00  0.9414E+16
   -0.274972    0.73042  0.0000E+00  0.1219E-13  0.7603E-17  0.1000E-09  0.0000E+00  0.8550E+16
   -0.343717    0.89372  0.0000E+00  0.1219E-13  0.7603E-17  0.1000E-09  0.0000E+00  0.7764E+16
   -0.412462    1.05031  0.0000E+00  0.1219E-13  0.7603E-17  0.1000E-09  0.0000E+00  0.7042E+16
   -0.481207    1.20032  0.0000E+00  0.1219E-13  0.7603E-17  0.1000E-09  0.0000E+00  0.6368E+16
   -0.549953    1.34366  0.0000E+00  0.1219E-13  0.7603E-17  0.1000E-09  0.0000E+00  0.5707E+16
   -0.618699    1.47939  0.0000E+00  0.1219E-13  0.7603E-17  0.1000E-09  0.0000E+00  0.5107E+16
   -0.687446    1.60769  0.0000E+00  0.2488E-13  0.7603E-17  0.1000E-09  0.0000E+00  0.4687E+16
   -0.756193    1.73211  0.0000E+00  0.8654E-13  0.1072E-16  0.1000E-09  0.0000E+00  0.4377E+16
   -0.824941    1.85512  0.0000E+00  0.2184E-12  0.2188E-16  0.1000E-09  0.0000E+00  0.4092E+16
   -0.893688    1.97716  0.0000E+00  0.4936E-12  0.4639E-16  0.1000E-09  0.0000E+00  0.3827E+16
   -0.962436    2.09870  0.0000E+00  0.1073E-11  0.9756E-16  0.1000E-09  0.0000E+00  0.3579E+16
   -1.031184    2.22017  0.0000E+00  0.2289E-11  0.2028E-15  0.1000E-09  0.0000E+00  0.3362E+16
   -1.099932    2.34268  0.0000E+00  0.4826E-11  0.4172E-15  0.1000E-09  0.0000E+00  0.3152E+16
   -1.168681    2.46671  0.0000E+00  0.1008E-10  0.8512E-15  0.1000E-09  0.0000E+00  0.2942E+16
   -1.237429    2.59269  0.0000E+00  0.2090E-10  0.1723E-14  0.1000E-09  0.0000E+00  0.2731E+16
   -1.306178    2.72108  0.0000E+00  0.4298E-10  0.3463E-14  0.1000E-09  0.0000E+00  0.2516E+16
   -1.374927    2.85242  0.0000E+00  0.8775E-10  0.6910E-14  0.1000E-09  0.0000E+00  0.2335E+16
   -1.443675    2.99004  0.0000E+00  0.1779E-09  0.1369E-13  0.1000E-09  0.0000E+00  0.2138E+16
   -1.512424    3.13571  0.0000E+00  0.3584E-09  0.2699E-13  0.1000E-09  0.0000E+00  0.1900E+16
   -1.581172    3.29068  0.0000E+00  0.7210E-09  0.5309E-13  0.1688E-09  0.0000E+00  0.1601E+16
   -1.649921    3.45573  0.0000E+00  0.1443E-08  0.1040E-12  0.4328E-09  0.0000E+00  0.1223E+16
   -1.718669    3.63068  0.0000E+00  0.2870E-08  0.2024E-12  0.1355E-08  0.0000E+00  0.7607E+15
   -1.787417    3.81374  0.0000E+00  0.5653E-08  0.3905E-12  0.8533E-08  0.0000E+00  0.2331E+15
   -1.856165    3.99494  0.0000E+00  0.6320E-08  0.4389E-12  0.3054E-04  0.0000E+00 -0.1209E+12
   -1.924913    3.99580  0.0000E+00  0.6643E-08  0.4679E-12  0.3250E-04  0.0000E+00 -0.1348E+12
   -1.993660    3.99666  0.0000E+00  0.6934E-08  0.5002E-12  0.3415E-04  0.0000E+00 -0.1444E+12
   -2.062407    3.99752  0.0000E+00  0.7192E-08  0.5363E-12  0.3462E-04  0.0000E+00 -0.1553E+12
   -2.131154    3.99837  0.0000E+00  0.7418E-08  0.5775E-12  0.3428E-04  0.0000E+00 -0.1695E+12
   -2.199900    3.99924  0.0000E+00  0.7609E-08  0.6254E-12  0.3319E-04  0.0000E+00 -0.1887E+12
   -2.268646    4.00014  0.0000E+00  0.7762E-08  0.6835E-12  0.3138E-04  0.0000E+00 -0.2158E+12
   -2.337391    4.00110  0.0000E+00  0.7876E-08  0.7592E-12  0.2865E-04  0.0000E+00 -0.2566E+12
   -2.406136    4.00217  0.0000E+00  0.7939E-08  0.8642E-12  0.2494E-04  0.0000E+00 -0.3230E+12
   -2.474881    4.00342  0.0000E+00  0.7927E-08  0.1024E-11  0.2016E-04  0.0000E+00 -0.4454E+12
   -2.543625    4.00501  0.0000E+00  0.7787E-08  0.1315E-11  0.1423E-04  0.0000E+00 -0.7327E+12
   -2.612368    4.00736  0.0000E+00  0.7342E-08  0.2046E-11  0.7267E-05  0.0000E+00 -0.1848E+13
   -2.681111    4.01237  0.0000E+00  0.5538E-08  0.6257E-11  0.1142E-05  0.0000E+00 -0.2613E+14
   -2.749853    4.04968  0.0000E+00  0.0000E+00  0.0000E+00  0.0000E+00  0.0000E+00  0.0000E+00
