 1 - depth, m
 2 - temperature, C
 3 - salinity, kg/kg
 4 - turbulent kinetic energy, m**2/s**2
 5 - dissipation rate, m**2/s**3
 6 - kinematic heat conductance, m**2/s
 7 - modulus of horizontal velocity, m/s
 8 - Richardson number, n/d
   -0.000000    0.00000  0.0000E+00  0.1219E-13  0.7603E-17  0.1000E-09  0.0000E+00  0.1378E+17
   -0.068738    0.21273  0.0000E+00  0.1585E-13  0.7603E-17  0.1000E-09  0.0000E+00  0.1301E+17
   -0.137477    0.42606  0.0000E+00  0.6836E-13  0.7604E-17  0.1000E-09  0.0000E+00  0.1215E+17
   -0.206217    0.63828  0.0000E+00  0.1711E-12  0.1191E-16  0.1000E-09  0.0000E+00  0.1125E+17
   -0.274957    0.84829  0.0000E+00  0.3525E-12  0.2126E-16  0.1000E-09  0.0000E+00  0.1036E+17
   -0.343697    1.05579  0.0000E+00  0.6732E-12  0.3839E-16  0.1000E-09  0.0000E+00  0.9491E+16
   -0.412439    1.26043  0.0000E+00  0.1245E-11  0.6881E-16  0.1000E-09  0.0000E+00  0.8646E+16
   -0.481180    1.46195  0.0000E+00  0.2267E-11  0.1223E-15  0.1000E-09  0.0000E+00  0.7827E+16
   -0.549922    1.66006  0.0000E+00  0.4092E-11  0.2160E-15  0.1000E-09  0.0000E+00  0.7029E+16
   -0.618665    1.85427  0.0000E+00  0.7341E-11  0.3795E-15  0.1000E-09  0.0000E+00  0.6265E+16
   -0.687408    2.04430  0.0000E+00  0.1309E-10  0.6629E-15  0.1000E-09  0.0000E+00  0.5556E+16
   -0.756151    2.23053  0.0000E+00  0.2320E-10  0.1151E-14  0.1000E-09  0.0000E+00  0.4889E+16
   -0.824894    2.41310  0.0000E+00  0.4088E-10  0.1988E-14  0.1000E-09  0.0000E+00  0.4252E+16
   -0.893638    2.59171  0.0000E+00  0.7163E-10  0.3415E-14  0.1000E-09  0.0000E+00  0.3646E+16
   -0.962382    2.76607  0.0000E+00  0.1248E-09  0.5833E-14  0.1000E-09  0.0000E+00  0.3075E+16
   -1.031126    2.93587  0.0000E+00  0.2161E-09  0.9898E-14  0.1000E-09  0.0000E+00  0.2545E+16
   -1.099871    3.10118  0.0000E+00  0.3716E-09  0.1669E-13  0.1000E-09  0.0000E+00  0.2051E+16
   -1.168615    3.26182  0.0000E+00  0.6351E-09  0.2796E-13  0.1000E-09  0.0000E+00  0.1595E+16
   -1.237360    3.41766  0.0000E+00  0.1079E-08  0.4660E-13  0.2021E-09  0.0000E+00  0.1175E+16
   -1.306105    3.56854  0.0000E+00  0.1824E-08  0.7722E-13  0.4968E-09  0.0000E+00  0.7922E+15
   -1.374850    3.71438  0.0000E+00  0.3064E-08  0.1272E-12  0.1444E-08  0.0000E+00  0.4495E+15
   -1.443594    3.85690  0.0000E+00  0.5100E-08  0.2078E-12  0.8117E-08  0.0000E+00  0.1311E+15
   -1.512339    3.99219  0.0000E+00  0.5391E-08  0.2202E-12  0.4379E-04  0.0000E+00 -0.3906E+11
   -1.581084    3.99261  0.0000E+00  0.5533E-08  0.2274E-12  0.4501E-04  0.0000E+00 -0.4458E+11
   -1.649828    3.99305  0.0000E+00  0.5664E-08  0.2352E-12  0.4638E-04  0.0000E+00 -0.4652E+11
   -1.718573    3.99348  0.0000E+00  0.5785E-08  0.2438E-12  0.4726E-04  0.0000E+00 -0.4841E+11
   -1.787317    3.99390  0.0000E+00  0.5894E-08  0.2533E-12  0.4764E-04  0.0000E+00 -0.5060E+11
   -1.856061    3.99432  0.0000E+00  0.5993E-08  0.2638E-12  0.4754E-04  0.0000E+00 -0.5325E+11
   -1.924805    3.99474  0.0000E+00  0.6080E-08  0.2754E-12  0.4694E-04  0.0000E+00 -0.5649E+11
   -1.993548    3.99516  0.0000E+00  0.6154E-08  0.2886E-12  0.4583E-04  0.0000E+00 -0.6050E+11
   -2.062292    3.99558  0.0000E+00  0.6215E-08  0.3036E-12  0.4421E-04  0.0000E+00 -0.6554E+11
   -2.131034    3.99603  0.0000E+00  0.6259E-08  0.3212E-12  0.4206E-04  0.0000E+00 -0.7199E+11
   -2.199777    3.99649  0.0000E+00  0.6287E-08  0.3420E-12  0.3935E-04  0.0000E+00 -0.8043E+11
   -2.268519    3.99698  0.0000E+00  0.6293E-08  0.3679E-12  0.3608E-04  0.0000E+00 -0.9205E+11
   -2.337261    3.99752  0.0000E+00  0.6273E-08  0.4022E-12  0.3203E-04  0.0000E+00 -0.1093E+12
   -2.406002    3.99813  0.0000E+00  0.6217E-08  0.4507E-12  0.2711E-04  0.0000E+00 -0.1370E+12
   -2.474742    3.99885  0.0000E+00  0.6105E-08  0.5259E-12  0.2129E-04  0.0000E+00 -0.1874E+12
   -2.543482    3.99977  0.0000E+00  0.5890E-08  0.6646E-12  0.1448E-04  0.0000E+00 -0.3041E+12
   -2.612222    4.00114  0.0000E+00  0.5411E-08  0.1020E-11  0.6916E-05  0.0000E+00 -0.7545E+12
   -2.680961    4.00410  0.0000E+00  0.3546E-08  0.3237E-11  0.7391E-06  0.0000E+00 -0.1307E+14
   -2.749699    4.03087  0.0000E+00  0.0000E+00  0.0000E+00  0.0000E+00  0.0000E+00  0.0000E+00
