 1 - depth, m
 2 - temperature, C
 3 - salinity, kg/kg
 4 - turbulent kinetic energy, m**2/s**2
 5 - dissipation rate, m**2/s**3
 6 - kinematic heat conductance, m**2/s
 7 - modulus of horizontal velocity, m/s
 8 - Richardson number, n/d
   -0.000000    0.00000  0.0000E+00  0.1157E-12  0.1561E-16  0.1000E-09  0.0000E+00  0.1466E+17
   -0.068731    0.22684  0.0000E+00  0.2155E-12  0.1794E-16  0.1000E-09  0.0000E+00  0.1365E+17
   -0.137463    0.45201  0.0000E+00  0.4329E-12  0.2925E-16  0.1000E-09  0.0000E+00  0.1267E+17
   -0.206195    0.67559  0.0000E+00  0.8437E-12  0.5267E-16  0.1000E-09  0.0000E+00  0.1171E+17
   -0.274928    0.89745  0.0000E+00  0.1601E-11  0.9620E-16  0.1000E-09  0.0000E+00  0.1079E+17
   -0.343662    1.11785  0.0000E+00  0.2987E-11  0.1749E-15  0.1000E-09  0.0000E+00  0.9883E+16
   -0.412396    1.33654  0.0000E+00  0.5516E-11  0.3157E-15  0.1000E-09  0.0000E+00  0.8983E+16
   -0.481130    1.55311  0.0000E+00  0.1011E-10  0.5663E-15  0.1000E-09  0.0000E+00  0.8092E+16
   -0.549865    1.76701  0.0000E+00  0.1842E-10  0.1011E-14  0.1000E-09  0.0000E+00  0.7209E+16
   -0.618600    1.97743  0.0000E+00  0.3340E-10  0.1796E-14  0.1000E-09  0.0000E+00  0.6353E+16
   -0.687336    2.18382  0.0000E+00  0.6021E-10  0.3173E-14  0.1000E-09  0.0000E+00  0.5551E+16
   -0.756072    2.38652  0.0000E+00  0.1079E-09  0.5576E-14  0.1000E-09  0.0000E+00  0.4791E+16
   -0.824808    2.58556  0.0000E+00  0.1925E-09  0.9745E-14  0.1000E-09  0.0000E+00  0.4064E+16
   -0.893545    2.78050  0.0000E+00  0.3413E-09  0.1694E-13  0.1000E-09  0.0000E+00  0.3373E+16
   -0.962282    2.97098  0.0000E+00  0.6020E-09  0.2930E-13  0.1000E-09  0.0000E+00  0.2723E+16
   -1.031019    3.15670  0.0000E+00  0.1055E-08  0.5036E-13  0.1208E-09  0.0000E+00  0.2121E+16
   -1.099756    3.33779  0.0000E+00  0.1837E-08  0.8601E-13  0.2805E-09  0.0000E+00  0.1561E+16
   -1.168494    3.51405  0.0000E+00  0.3179E-08  0.1460E-12  0.7128E-09  0.0000E+00  0.1043E+16
   -1.237231    3.68520  0.0000E+00  0.5469E-08  0.2465E-12  0.2215E-08  0.0000E+00  0.5668E+15
   -1.305969    3.85008  0.0000E+00  0.9301E-08  0.4118E-12  0.1452E-07  0.0000E+00  0.1445E+15
   -1.374706    3.99784  0.0000E+00  0.9610E-08  0.4262E-12  0.8147E-04  0.0000E+00 -0.4302E+11
   -1.443444    3.99808  0.0000E+00  0.9751E-08  0.4340E-12  0.7913E-04  0.0000E+00 -0.5172E+11
   -1.512182    3.99835  0.0000E+00  0.9877E-08  0.4422E-12  0.8052E-04  0.0000E+00 -0.5314E+11
   -1.580919    3.99863  0.0000E+00  0.9991E-08  0.4513E-12  0.8156E-04  0.0000E+00 -0.5404E+11
   -1.649656    3.99891  0.0000E+00  0.1009E-07  0.4612E-12  0.8208E-04  0.0000E+00 -0.5506E+11
   -1.718394    3.99919  0.0000E+00  0.1018E-07  0.4722E-12  0.8267E-04  0.0000E+00 -0.5596E+11
   -1.787131    3.99946  0.0000E+00  0.1026E-07  0.4844E-12  0.8238E-04  0.0000E+00 -0.5742E+11
   -1.855868    3.99974  0.0000E+00  0.1033E-07  0.4982E-12  0.8109E-04  0.0000E+00 -0.5965E+11
   -1.924604    4.00002  0.0000E+00  0.1038E-07  0.5142E-12  0.7881E-04  0.0000E+00 -0.6278E+11
   -1.993341    4.00031  0.0000E+00  0.1043E-07  0.5329E-12  0.7552E-04  0.0000E+00 -0.6709E+11
   -2.062077    4.00061  0.0000E+00  0.1045E-07  0.5552E-12  0.7049E-04  0.0000E+00 -0.7340E+11
   -2.130813    4.00093  0.0000E+00  0.1045E-07  0.5821E-12  0.6457E-04  0.0000E+00 -0.8188E+11
   -2.199548    4.00129  0.0000E+00  0.1044E-07  0.6148E-12  0.5882E-04  0.0000E+00 -0.9207E+11
   -2.268283    4.00167  0.0000E+00  0.1039E-07  0.6560E-12  0.5310E-04  0.0000E+00 -0.1049E+12
   -2.337017    4.00210  0.0000E+00  0.1031E-07  0.7114E-12  0.4669E-04  0.0000E+00 -0.1232E+12
   -2.405751    4.00259  0.0000E+00  0.1018E-07  0.7905E-12  0.3928E-04  0.0000E+00 -0.1520E+12
   -2.474485    4.00318  0.0000E+00  0.9971E-08  0.9139E-12  0.3077E-04  0.0000E+00 -0.2035E+12
   -2.543218    4.00393  0.0000E+00  0.9619E-08  0.1141E-11  0.2105E-04  0.0000E+00 -0.3185E+12
   -2.611950    4.00505  0.0000E+00  0.8895E-08  0.1717E-11  0.1034E-04  0.0000E+00 -0.7316E+12
   -2.680682    4.00740  0.0000E+00  0.5809E-08  0.5655E-11  0.1026E-05  0.0000E+00 -0.1220E+14
   -2.749413    4.03107  0.0000E+00  0.0000E+00  0.0000E+00  0.0000E+00  0.0000E+00  0.0000E+00
