 1 - depth, m
 2 - temperature, C
 3 - salinity, kg/kg
 4 - turbulent kinetic energy, m**2/s**2
 5 - dissipation rate, m**2/s**3
 6 - kinematic heat conductance, m**2/s
 7 - modulus of horizontal velocity, m/s
 8 - Richardson number, n/d
   -0.000000    0.00000  0.0000E+00  0.6705E-12  0.1321E-15  0.1000E-09  0.0000E+00  0.1765E+17
   -0.068737    0.27486  0.0000E+00  0.1509E-11  0.1432E-15  0.1000E-09  0.0000E+00  0.1615E+17
   -0.137475    0.54694  0.0000E+00  0.3275E-11  0.2349E-15  0.1000E-09  0.0000E+00  0.1469E+17
   -0.206214    0.81592  0.0000E+00  0.6571E-11  0.4289E-15  0.1000E-09  0.0000E+00  0.1327E+17
   -0.274953    1.08143  0.0000E+00  0.1265E-10  0.7934E-15  0.1000E-09  0.0000E+00  0.1191E+17
   -0.343693    1.34359  0.0000E+00  0.2386E-10  0.1460E-14  0.1000E-09  0.0000E+00  0.1060E+17
   -0.412434    1.60210  0.0000E+00  0.4452E-10  0.2670E-14  0.1000E-09  0.0000E+00  0.9329E+16
   -0.481174    1.85654  0.0000E+00  0.8252E-10  0.4857E-14  0.1000E-09  0.0000E+00  0.8101E+16
   -0.549916    2.10630  0.0000E+00  0.1523E-09  0.8805E-14  0.1000E-09  0.0000E+00  0.6913E+16
   -0.618657    2.35036  0.0000E+00  0.2802E-09  0.1590E-13  0.1000E-09  0.0000E+00  0.5780E+16
   -0.687399    2.58773  0.0000E+00  0.5130E-09  0.2861E-13  0.1000E-09  0.0000E+00  0.4741E+16
   -0.756142    2.81885  0.0000E+00  0.9354E-09  0.5124E-13  0.1000E-09  0.0000E+00  0.3774E+16
   -0.824884    3.04337  0.0000E+00  0.1698E-08  0.9140E-13  0.1622E-09  0.0000E+00  0.2869E+16
   -0.893627    3.25986  0.0000E+00  0.3069E-08  0.1623E-12  0.4042E-09  0.0000E+00  0.2044E+16
   -0.962371    3.46730  0.0000E+00  0.5522E-08  0.2870E-12  0.1113E-08  0.0000E+00  0.1312E+16
   -1.031114    3.66537  0.0000E+00  0.9865E-08  0.5042E-12  0.3823E-08  0.0000E+00  0.6711E+15
   -1.099858    3.85345  0.0000E+00  0.1727E-07  0.8694E-12  0.3277E-07  0.0000E+00  0.1350E+15
   -1.168601    4.00729  0.0000E+00  0.1764E-07  0.8889E-12  0.1257E-03  0.0000E+00 -0.5725E+11
   -1.237345    4.00746  0.0000E+00  0.1781E-07  0.8996E-12  0.1254E-03  0.0000E+00 -0.6820E+11
   -1.306089    4.00766  0.0000E+00  0.1796E-07  0.9110E-12  0.1295E-03  0.0000E+00 -0.6798E+11
   -1.374833    4.00787  0.0000E+00  0.1809E-07  0.9232E-12  0.1326E-03  0.0000E+00 -0.6758E+11
   -1.443577    4.00807  0.0000E+00  0.1821E-07  0.9362E-12  0.1340E-03  0.0000E+00 -0.6789E+11
   -1.512321    4.00826  0.0000E+00  0.1831E-07  0.9501E-12  0.1335E-03  0.0000E+00 -0.6906E+11
   -1.581065    4.00846  0.0000E+00  0.1840E-07  0.9656E-12  0.1327E-03  0.0000E+00 -0.7042E+11
   -1.649809    4.00867  0.0000E+00  0.1848E-07  0.9828E-12  0.1316E-03  0.0000E+00 -0.7199E+11
   -1.718552    4.00887  0.0000E+00  0.1855E-07  0.1002E-11  0.1302E-03  0.0000E+00 -0.7384E+11
   -1.787296    4.00908  0.0000E+00  0.1860E-07  0.1023E-11  0.1283E-03  0.0000E+00 -0.7599E+11
   -1.856039    4.00929  0.0000E+00  0.1864E-07  0.1048E-11  0.1261E-03  0.0000E+00 -0.7851E+11
   -1.924782    4.00951  0.0000E+00  0.1866E-07  0.1075E-11  0.1235E-03  0.0000E+00 -0.8147E+11
   -1.993525    4.00973  0.0000E+00  0.1867E-07  0.1106E-11  0.1203E-03  0.0000E+00 -0.8497E+11
   -2.062267    4.00996  0.0000E+00  0.1866E-07  0.1141E-11  0.1167E-03  0.0000E+00 -0.8883E+11
   -2.131009    4.01020  0.0000E+00  0.1862E-07  0.1184E-11  0.1124E-03  0.0000E+00 -0.9346E+11
   -2.199751    4.01045  0.0000E+00  0.1856E-07  0.1240E-11  0.1065E-03  0.0000E+00 -0.1001E+12
   -2.268492    4.01071  0.0000E+00  0.1846E-07  0.1319E-11  0.8862E-04  0.0000E+00 -0.1223E+12
   -2.337233    4.01103  0.0000E+00  0.1829E-07  0.1428E-11  0.7298E-04  0.0000E+00 -0.1516E+12
   -2.405973    4.01142  0.0000E+00  0.1806E-07  0.1586E-11  0.5976E-04  0.0000E+00 -0.1898E+12
   -2.474713    4.01190  0.0000E+00  0.1770E-07  0.1834E-11  0.4642E-04  0.0000E+00 -0.2523E+12
   -2.543452    4.01252  0.0000E+00  0.1712E-07  0.2285E-11  0.3175E-04  0.0000E+00 -0.3867E+12
   -2.612191    4.01344  0.0000E+00  0.1598E-07  0.3414E-11  0.1589E-04  0.0000E+00 -0.8403E+12
   -2.680929    4.01535  0.0000E+00  0.1060E-07  0.1177E-10  0.1509E-05  0.0000E+00 -0.1279E+14
   -2.749666    4.03608  0.0000E+00  0.0000E+00  0.0000E+00  0.0000E+00  0.0000E+00  0.0000E+00
