 1 - depth, m
 2 - temperature, C
 3 - salinity, kg/kg
 4 - turbulent kinetic energy, m**2/s**2
 5 - dissipation rate, m**2/s**3
 6 - kinematic heat conductance, m**2/s
 7 - modulus of horizontal velocity, m/s
 8 - Richardson number, n/d
   -0.000000    0.00000  0.0000E+00  0.1392E-09  0.1144E-12  0.1014E-09  0.5203E-07  0.1185E+17
   -0.068738    0.23065  0.0000E+00  0.8577E-09  0.1766E-12  0.2385E-09  0.1269E-07  0.5100E+16
   -0.137478    0.32739  0.0000E+00  0.2703E-08  0.4595E-12  0.2111E-08  0.3018E-08  0.1645E+16
   -0.206217    0.35798  0.0000E+00  0.3672E-08  0.5991E-12  0.1058E-04  0.6712E-09  0.8351E+14
   -0.274958    0.35942  0.0000E+00  0.3525E-08  0.5071E-12  0.2980E-07  0.2784E-09  0.6433E+14
   -0.343698    0.36161  0.0000E+00  0.3348E-08  0.3192E-12  0.2005E-08  0.8269E-10  0.6683E+15
   -0.412440    0.37536  0.0000E+00  0.5328E-08  0.3501E-12  0.1266E-08  0.2447E-10  0.1320E+16
   -0.481182    0.40054  0.0000E+00  0.9770E-08  0.5393E-12  0.1600E-08  0.6803E-11  0.1727E+16
   -0.549924    0.43126  0.0000E+00  0.1802E-07  0.9235E-12  0.3684E-08  0.1606E-11  0.1335E+16
   -0.618667    0.45403  0.0000E+00  0.3261E-07  0.1605E-11  0.1052E-07  0.3719E-12  0.8110E+15
   -0.687410    0.46783  0.0000E+00  0.5684E-07  0.2726E-11  0.5242E-07  0.8341E-13  0.2966E+15
   -0.756153    0.47287  0.0000E+00  0.5895E-07  0.2854E-11  0.2766E-03  0.1412E-13  0.1616E+13
   -0.824897    0.47290  0.0000E+00  0.5925E-07  0.2872E-11  0.4042E-03  0.2794E-14 -0.1261E+12
   -0.893641    0.47290  0.0000E+00  0.5942E-07  0.2882E-11  0.4012E-03  0.2621E-14 -0.2230E+12
   -0.962385    0.47290  0.0000E+00  0.5946E-07  0.2886E-11  0.4173E-03  0.2489E-14 -0.2876E+12
   -1.031130    0.47289  0.0000E+00  0.5925E-07  0.2876E-11  0.2953E-03  0.2407E-14  0.8905E+12
   -1.099874    0.47291  0.0000E+00  0.5792E-07  0.2821E-11  0.2982E-07  0.2352E-14  0.5372E+15
   -1.168619    0.48219  0.0000E+00  0.3374E-07  0.1689E-11  0.6036E-08  0.5735E-15  0.1451E+16
   -1.237364    0.50731  0.0000E+00  0.1911E-07  0.9838E-12  0.2073E-08  0.1261E-15  0.2428E+16
   -1.306109    0.54976  0.0000E+00  0.1065E-07  0.5629E-12  0.8287E-09  0.2675E-16  0.3457E+16
   -1.374854    0.61113  0.0000E+00  0.5845E-08  0.3172E-12  0.3275E-09  0.5504E-17  0.4929E+16
   -1.443599    0.70067  0.0000E+00  0.3164E-08  0.1766E-12  0.1419E-09  0.1090E-17  0.6389E+16
   -1.512344    0.82068  0.0000E+00  0.1687E-08  0.9766E-13  0.1000E-09  0.1611E-18  0.6664E+16
   -1.581089    0.95122  0.0000E+00  0.8718E-09  0.5414E-13  0.1000E-09  0.2069E-19  0.6442E+16
   -1.649833    1.08337  0.0000E+00  0.4254E-09  0.3211E-13  0.1000E-09  0.2542E-20  0.6347E+16
   -1.718578    1.22017  0.0000E+00  0.1952E-09  0.2593E-13  0.1000E-09  0.2979E-21  0.6506E+16
   -1.787322    1.36842  0.0000E+00  0.1366E-09  0.4335E-13  0.1000E-09  0.3325E-22  0.7074E+16
   -1.856067    1.54077  0.0000E+00  0.3707E-09  0.1505E-12  0.1283E-09  0.3526E-23  0.8228E+16
   -1.924811    1.75990  0.0000E+00  0.1635E-08  0.6522E-12  0.3160E-09  0.3543E-24  0.1007E+17
   -1.993554    2.06649  0.0000E+00  0.7351E-08  0.2833E-11  0.1142E-08  0.3362E-25  0.1211E+17
   -2.062298    2.53346  0.0000E+00  0.3194E-07  0.1192E-10  0.6963E-08  0.3005E-26  0.1191E+17
   -2.131041    3.29245  0.0000E+00  0.7824E-07  0.3011E-10  0.2008E-04  0.2521E-27  0.5320E+16
   -2.199784    3.98705  0.0000E+00  0.1019E-06  0.4073E-10  0.7964E-04  0.1965E-28  0.3980E+15
   -2.268526    4.14186  0.0000E+00  0.1083E-06  0.4413E-10  0.1010E-03  0.5560E-30 -0.4498E+13
   -2.337268    4.14375  0.0000E+00  0.1118E-06  0.4711E-10  0.1000E-03  0.3087E-30 -0.4917E+13
   -2.406009    4.14576  0.0000E+00  0.1140E-06  0.5077E-10  0.9636E-04  0.1636E-30 -0.5302E+13
   -2.474750    4.14790  0.0000E+00  0.1148E-06  0.5584E-10  0.8788E-04  0.8225E-31 -0.6029E+13
   -2.543490    4.15030  0.0000E+00  0.1137E-06  0.6472E-10  0.6947E-04  0.3723E-31 -0.8003E+13
   -2.612230    4.15347  0.0000E+00  0.1084E-06  0.8627E-10  0.4003E-04  0.1264E-31 -0.1513E+14
   -2.680969    4.15927  0.0000E+00  0.7326E-07  0.2483E-09  0.4373E-05  0.2580E-32 -0.1899E+15
   -2.749707    4.21986  0.0000E+00  0.0000E+00  0.0000E+00  0.0000E+00  0.2726E-32  0.0000E+00
