 1 - depth, m
 2 - temperature, C
 3 - salinity, kg/kg
 4 - turbulent kinetic energy, m**2/s**2
 5 - dissipation rate, m**2/s**3
 6 - kinematic heat conductance, m**2/s
 7 - modulus of horizontal velocity, m/s
 8 - Richardson number, n/d
   -0.000000    0.00000  0.0000E+00  0.1218E-13  0.7603E-17  0.1000E-09  0.0000E+00  0.1141E+17
   -0.068736    0.17524  0.0000E+00  0.1218E-13  0.7603E-17  0.1000E-09  0.0000E+00  0.1121E+17
   -0.137473    0.35626  0.0000E+00  0.1218E-13  0.7603E-17  0.1000E-09  0.0000E+00  0.1078E+17
   -0.206210    0.53988  0.0000E+00  0.1218E-13  0.7603E-17  0.1000E-09  0.0000E+00  0.1022E+17
   -0.274948    0.72395  0.0000E+00  0.1218E-13  0.7603E-17  0.1000E-09  0.0000E+00  0.9607E+16
   -0.343686    0.90768  0.0000E+00  0.1218E-13  0.7603E-17  0.1000E-09  0.0000E+00  0.8967E+16
   -0.412425    1.09023  0.0000E+00  0.1218E-13  0.7603E-17  0.1000E-09  0.0000E+00  0.8313E+16
   -0.481164    1.27098  0.0000E+00  0.1963E-13  0.7603E-17  0.1000E-09  0.0000E+00  0.7656E+16
   -0.549904    1.44936  0.0000E+00  0.7509E-13  0.7920E-17  0.1000E-09  0.0000E+00  0.6995E+16
   -0.618644    1.62462  0.0000E+00  0.1814E-12  0.1328E-16  0.1000E-09  0.0000E+00  0.6352E+16
   -0.687385    1.79639  0.0000E+00  0.3739E-12  0.2463E-16  0.1000E-09  0.0000E+00  0.5753E+16
   -0.756125    1.96501  0.0000E+00  0.7282E-12  0.4615E-16  0.1000E-09  0.0000E+00  0.5188E+16
   -0.824867    2.13063  0.0000E+00  0.1389E-11  0.8627E-16  0.1000E-09  0.0000E+00  0.4644E+16
   -0.893608    2.29304  0.0000E+00  0.2630E-11  0.1609E-15  0.1000E-09  0.0000E+00  0.4123E+16
   -0.962350    2.45197  0.0000E+00  0.4964E-11  0.2994E-15  0.1000E-09  0.0000E+00  0.3625E+16
   -1.031092    2.60715  0.0000E+00  0.9340E-11  0.5555E-15  0.1000E-09  0.0000E+00  0.3160E+16
   -1.099834    2.75874  0.0000E+00  0.1752E-10  0.1028E-14  0.1000E-09  0.0000E+00  0.2721E+16
   -1.168576    2.90654  0.0000E+00  0.3278E-10  0.1896E-14  0.1000E-09  0.0000E+00  0.2306E+16
   -1.237319    3.05029  0.0000E+00  0.6120E-10  0.3488E-14  0.1000E-09  0.0000E+00  0.1918E+16
   -1.306061    3.18969  0.0000E+00  0.1139E-09  0.6399E-14  0.1000E-09  0.0000E+00  0.1555E+16
   -1.374804    3.32419  0.0000E+00  0.2114E-09  0.1170E-13  0.1000E-09  0.0000E+00  0.1232E+16
   -1.443546    3.45478  0.0000E+00  0.3911E-09  0.2132E-13  0.1179E-09  0.0000E+00  0.9324E+15
   -1.512288    3.58091  0.0000E+00  0.7217E-09  0.3874E-13  0.3015E-09  0.0000E+00  0.6519E+15
   -1.581031    3.70070  0.0000E+00  0.1333E-08  0.7042E-13  0.8838E-09  0.0000E+00  0.4037E+15
   -1.649773    3.81239  0.0000E+00  0.2451E-08  0.1276E-12  0.3262E-08  0.0000E+00  0.1983E+15
   -1.718515    3.91530  0.0000E+00  0.4433E-08  0.2275E-12  0.3022E-07  0.0000E+00  0.3835E+14
   -1.787257    3.99958  0.0000E+00  0.4814E-08  0.2482E-12  0.3954E-04  0.0000E+00 -0.6982E+11
   -1.855999    3.99991  0.0000E+00  0.4985E-08  0.2593E-12  0.3896E-04  0.0000E+00 -0.7837E+11
   -1.924740    4.00028  0.0000E+00  0.5133E-08  0.2711E-12  0.3847E-04  0.0000E+00 -0.8094E+11
   -1.993482    4.00064  0.0000E+00  0.5258E-08  0.2841E-12  0.3742E-04  0.0000E+00 -0.8385E+11
   -2.062222    4.00101  0.0000E+00  0.5364E-08  0.2987E-12  0.3652E-04  0.0000E+00 -0.8866E+11
   -2.130963    4.00139  0.0000E+00  0.5450E-08  0.3155E-12  0.3519E-04  0.0000E+00 -0.9531E+11
   -2.199703    4.00179  0.0000E+00  0.5512E-08  0.3352E-12  0.3331E-04  0.0000E+00 -0.1044E+12
   -2.268443    4.00221  0.0000E+00  0.5550E-08  0.3595E-12  0.3085E-04  0.0000E+00 -0.1174E+12
   -2.337182    4.00268  0.0000E+00  0.5559E-08  0.3915E-12  0.2766E-04  0.0000E+00 -0.1370E+12
   -2.405921    4.00321  0.0000E+00  0.5531E-08  0.4368E-12  0.2364E-04  0.0000E+00 -0.1689E+12
   -2.474660    4.00383  0.0000E+00  0.5449E-08  0.5069E-12  0.1874E-04  0.0000E+00 -0.2277E+12
   -2.543397    4.00464  0.0000E+00  0.5268E-08  0.6361E-12  0.1287E-04  0.0000E+00 -0.3648E+12
   -2.612135    4.00587  0.0000E+00  0.4842E-08  0.9673E-12  0.6201E-05  0.0000E+00 -0.8979E+12
   -2.680871    4.00861  0.0000E+00  0.3227E-08  0.2955E-11  0.7051E-06  0.0000E+00 -0.1424E+14
   -2.749607    4.03443  0.0000E+00  0.0000E+00  0.0000E+00  0.0000E+00  0.0000E+00  0.0000E+00
