 1 - depth, m
 2 - temperature, C
 3 - salinity, kg/kg
 4 - turbulent kinetic energy, m**2/s**2
 5 - dissipation rate, m**2/s**3
 6 - kinematic heat conductance, m**2/s
 7 - modulus of horizontal velocity, m/s
 8 - Richardson number, n/d
   -0.000000    0.00000  0.0000E+00  0.1219E-13  0.7604E-17  0.1000E-09  0.0000E+00  0.1428E+17
   -0.068738    0.22076  0.0000E+00  0.1219E-13  0.7604E-17  0.1000E-09  0.0000E+00  0.1316E+17
   -0.137476    0.43714  0.0000E+00  0.5774E-13  0.7604E-17  0.1000E-09  0.0000E+00  0.1214E+17
   -0.206215    0.65000  0.0000E+00  0.1530E-12  0.1179E-16  0.1000E-09  0.0000E+00  0.1120E+17
   -0.274954    0.85985  0.0000E+00  0.3257E-12  0.2148E-16  0.1000E-09  0.0000E+00  0.1031E+17
   -0.343695    1.06721  0.0000E+00  0.6383E-12  0.3973E-16  0.1000E-09  0.0000E+00  0.9463E+16
   -0.412435    1.27212  0.0000E+00  0.1209E-11  0.7295E-16  0.1000E-09  0.0000E+00  0.8637E+16
   -0.481176    1.47439  0.0000E+00  0.2255E-11  0.1328E-15  0.1000E-09  0.0000E+00  0.7829E+16
   -0.549918    1.67367  0.0000E+00  0.4170E-11  0.2405E-15  0.1000E-09  0.0000E+00  0.7037E+16
   -0.618660    1.86939  0.0000E+00  0.7664E-11  0.4329E-15  0.1000E-09  0.0000E+00  0.6271E+16
   -0.687402    2.06114  0.0000E+00  0.1400E-10  0.7750E-15  0.1000E-09  0.0000E+00  0.5553E+16
   -0.756145    2.24913  0.0000E+00  0.2543E-10  0.1380E-14  0.1000E-09  0.0000E+00  0.4874E+16
   -0.824888    2.43335  0.0000E+00  0.4594E-10  0.2444E-14  0.1000E-09  0.0000E+00  0.4224E+16
   -0.893631    2.61340  0.0000E+00  0.8254E-10  0.4305E-14  0.1000E-09  0.0000E+00  0.3607E+16
   -0.962374    2.78894  0.0000E+00  0.1475E-09  0.7545E-14  0.1000E-09  0.0000E+00  0.3027E+16
   -1.031118    2.95965  0.0000E+00  0.2620E-09  0.1314E-13  0.1000E-09  0.0000E+00  0.2489E+16
   -1.099862    3.12552  0.0000E+00  0.4622E-09  0.2275E-13  0.1000E-09  0.0000E+00  0.1991E+16
   -1.168606    3.28637  0.0000E+00  0.8111E-09  0.3917E-13  0.1301E-09  0.0000E+00  0.1532E+16
   -1.237350    3.44201  0.0000E+00  0.1416E-08  0.6709E-13  0.3071E-09  0.0000E+00  0.1112E+16
   -1.306094    3.59216  0.0000E+00  0.2459E-08  0.1144E-12  0.7959E-09  0.0000E+00  0.7313E+15
   -1.374838    3.73639  0.0000E+00  0.4245E-08  0.1938E-12  0.2507E-08  0.0000E+00  0.3935E+15
   -1.443583    3.87510  0.0000E+00  0.7238E-08  0.3248E-12  0.1723E-07  0.0000E+00  0.9593E+14
   -1.512327    3.99784  0.0000E+00  0.7564E-08  0.3402E-12  0.6417E-04  0.0000E+00 -0.4678E+11
   -1.581071    3.99810  0.0000E+00  0.7714E-08  0.3486E-12  0.6332E-04  0.0000E+00 -0.5510E+11
   -1.649815    3.99840  0.0000E+00  0.7847E-08  0.3576E-12  0.6393E-04  0.0000E+00 -0.5687E+11
   -1.718559    3.99869  0.0000E+00  0.7966E-08  0.3673E-12  0.6415E-04  0.0000E+00 -0.5837E+11
   -1.787303    3.99899  0.0000E+00  0.8071E-08  0.3782E-12  0.6379E-04  0.0000E+00 -0.6022E+11
   -1.856046    3.99929  0.0000E+00  0.8164E-08  0.3903E-12  0.6286E-04  0.0000E+00 -0.6263E+11
   -1.924789    3.99959  0.0000E+00  0.8242E-08  0.4040E-12  0.6128E-04  0.0000E+00 -0.6581E+11
   -1.993532    3.99991  0.0000E+00  0.8304E-08  0.4197E-12  0.5906E-04  0.0000E+00 -0.6998E+11
   -2.062275    4.00023  0.0000E+00  0.8349E-08  0.4380E-12  0.5616E-04  0.0000E+00 -0.7540E+11
   -2.131017    4.00057  0.0000E+00  0.8376E-08  0.4596E-12  0.5281E-04  0.0000E+00 -0.8223E+11
   -2.199759    4.00094  0.0000E+00  0.8380E-08  0.4855E-12  0.4903E-04  0.0000E+00 -0.9095E+11
   -2.268501    4.00133  0.0000E+00  0.8360E-08  0.5179E-12  0.4471E-04  0.0000E+00 -0.1028E+12
   -2.337242    4.00176  0.0000E+00  0.8307E-08  0.5614E-12  0.3954E-04  0.0000E+00 -0.1203E+12
   -2.405982    4.00225  0.0000E+00  0.8209E-08  0.6233E-12  0.3341E-04  0.0000E+00 -0.1482E+12
   -2.474722    4.00283  0.0000E+00  0.8044E-08  0.7198E-12  0.2625E-04  0.0000E+00 -0.1983E+12
   -2.543462    4.00358  0.0000E+00  0.7754E-08  0.8976E-12  0.1796E-04  0.0000E+00 -0.3117E+12
   -2.612201    4.00470  0.0000E+00  0.7143E-08  0.1351E-11  0.8745E-05  0.0000E+00 -0.7282E+12
   -2.680939    4.00707  0.0000E+00  0.4627E-08  0.4347E-11  0.8734E-06  0.0000E+00 -0.1216E+14
   -2.749677    4.03084  0.0000E+00  0.0000E+00  0.0000E+00  0.0000E+00  0.0000E+00  0.0000E+00
