 1 - depth, m
 2 - temperature, C
 3 - salinity, kg/kg
 4 - turbulent kinetic energy, m**2/s**2
 5 - dissipation rate, m**2/s**3
 6 - kinematic heat conductance, m**2/s
 7 - modulus of horizontal velocity, m/s
 8 - Richardson number, n/d
   -0.000000    0.00000  0.0000E+00  0.1219E-13  0.7603E-17  0.1000E-09  0.0000E+00  0.1474E+17
   -0.068731    0.22804  0.0000E+00  0.1219E-13  0.7603E-17  0.1000E-09  0.0000E+00  0.1300E+17
   -0.137464    0.44218  0.0000E+00  0.1219E-13  0.7603E-17  0.1000E-09  0.0000E+00  0.1134E+17
   -0.206196    0.64079  0.0000E+00  0.1219E-13  0.7603E-17  0.1000E-09  0.0000E+00  0.9769E+16
   -0.274930    0.82252  0.0000E+00  0.1219E-13  0.7603E-17  0.1000E-09  0.0000E+00  0.8474E+16
   -0.343664    0.98958  0.0000E+00  0.1219E-13  0.7603E-17  0.1000E-09  0.0000E+00  0.7324E+16
   -0.412398    1.14227  0.0000E+00  0.1219E-13  0.7603E-17  0.1000E-09  0.0000E+00  0.6302E+16
   -0.481133    1.28089  0.0000E+00  0.1219E-13  0.7603E-17  0.1000E-09  0.0000E+00  0.5393E+16
   -0.549868    1.40570  0.0000E+00  0.1219E-13  0.7603E-17  0.1000E-09  0.0000E+00  0.4543E+16
   -0.618604    1.51595  0.0000E+00  0.2994E-13  0.7603E-17  0.1000E-09  0.0000E+00  0.3834E+16
   -0.687340    1.61315  0.0000E+00  0.9659E-13  0.1260E-16  0.1000E-09  0.0000E+00  0.3465E+16
   -0.756077    1.70470  0.0000E+00  0.2451E-12  0.2751E-16  0.1000E-09  0.0000E+00  0.3325E+16
   -0.824813    1.79629  0.0000E+00  0.5725E-12  0.6120E-16  0.1000E-09  0.0000E+00  0.3268E+16
   -0.893550    1.89034  0.0000E+00  0.1299E-11  0.1348E-15  0.1000E-09  0.0000E+00  0.3274E+16
   -0.962288    1.98916  0.0000E+00  0.2905E-11  0.2941E-15  0.1000E-09  0.0000E+00  0.3319E+16
   -1.031025    2.09480  0.0000E+00  0.6427E-11  0.6350E-15  0.1000E-09  0.0000E+00  0.3408E+16
   -1.099763    2.21000  0.0000E+00  0.1408E-10  0.1358E-14  0.1000E-09  0.0000E+00  0.3477E+16
   -1.168501    2.33604  0.0000E+00  0.3059E-10  0.2883E-14  0.1000E-09  0.0000E+00  0.3496E+16
   -1.237238    2.47362  0.0000E+00  0.6594E-10  0.6073E-14  0.1000E-09  0.0000E+00  0.3441E+16
   -1.305976    2.62290  0.0000E+00  0.1411E-09  0.1270E-13  0.1000E-09  0.0000E+00  0.3296E+16
   -1.374714    2.78355  0.0000E+00  0.2996E-09  0.2637E-13  0.1000E-09  0.0000E+00  0.3109E+16
   -1.443452    2.95836  0.0000E+00  0.6318E-09  0.5437E-13  0.1020E-09  0.0000E+00  0.2807E+16
   -1.512190    3.14751  0.0000E+00  0.1325E-08  0.1115E-12  0.2397E-09  0.0000E+00  0.2371E+16
   -1.580928    3.35036  0.0000E+00  0.2772E-08  0.2283E-12  0.6476E-09  0.0000E+00  0.1797E+16
   -1.649666    3.56561  0.0000E+00  0.5764E-08  0.4647E-12  0.2174E-08  0.0000E+00  0.1090E+16
   -1.718404    3.79011  0.0000E+00  0.1182E-07  0.9340E-12  0.1594E-07  0.0000E+00  0.2998E+15
   -1.787141    4.00400  0.0000E+00  0.1269E-07  0.1007E-11  0.5746E-04  0.0000E+00 -0.1390E+12
   -1.855879    4.00450  0.0000E+00  0.1310E-07  0.1048E-11  0.5940E-04  0.0000E+00 -0.1695E+12
   -1.924616    4.00509  0.0000E+00  0.1345E-07  0.1093E-11  0.6122E-04  0.0000E+00 -0.1802E+12
   -1.993352    4.00569  0.0000E+00  0.1376E-07  0.1143E-11  0.6242E-04  0.0000E+00 -0.1912E+12
   -2.062089    4.00631  0.0000E+00  0.1402E-07  0.1199E-11  0.6180E-04  0.0000E+00 -0.2021E+12
   -2.130825    4.00695  0.0000E+00  0.1424E-07  0.1264E-11  0.5993E-04  0.0000E+00 -0.2169E+12
   -2.199561    4.00761  0.0000E+00  0.1441E-07  0.1341E-11  0.5669E-04  0.0000E+00 -0.2387E+12
   -2.268296    4.00832  0.0000E+00  0.1453E-07  0.1436E-11  0.5241E-04  0.0000E+00 -0.2696E+12
   -2.337031    4.00909  0.0000E+00  0.1458E-07  0.1561E-11  0.4724E-04  0.0000E+00 -0.3139E+12
   -2.405765    4.00995  0.0000E+00  0.1455E-07  0.1736E-11  0.4089E-04  0.0000E+00 -0.3833E+12
   -2.474499    4.01097  0.0000E+00  0.1440E-07  0.2002E-11  0.3310E-04  0.0000E+00 -0.5067E+12
   -2.543233    4.01225  0.0000E+00  0.1404E-07  0.2480E-11  0.2362E-04  0.0000E+00 -0.7812E+12
   -2.611965    4.01411  0.0000E+00  0.1319E-07  0.3659E-11  0.1240E-04  0.0000E+00 -0.1752E+13
   -2.680697    4.01788  0.0000E+00  0.9475E-08  0.1120E-10  0.1632E-05  0.0000E+00 -0.2426E+14
   -2.749429    4.05031  0.0000E+00  0.0000E+00  0.0000E+00  0.0000E+00  0.0000E+00  0.0000E+00
