 1 - depth, m
 2 - temperature, C
 3 - salinity, kg/kg
 4 - turbulent kinetic energy, m**2/s**2
 5 - dissipation rate, m**2/s**3
 6 - kinematic heat conductance, m**2/s
 7 - modulus of horizontal velocity, m/s
 8 - Richardson number, n/d
   -0.000000    0.00000  0.0000E+00  0.4160E-12  0.7024E-16  0.1000E-09  0.0000E+00  0.1519E+17
   -0.068741    0.23529  0.0000E+00  0.8563E-12  0.6873E-16  0.1000E-09  0.0000E+00  0.1429E+17
   -0.137483    0.47190  0.0000E+00  0.1728E-11  0.9846E-16  0.1000E-09  0.0000E+00  0.1335E+17
   -0.206226    0.70928  0.0000E+00  0.3213E-11  0.1601E-15  0.1000E-09  0.0000E+00  0.1236E+17
   -0.274969    0.94657  0.0000E+00  0.5675E-11  0.2665E-15  0.1000E-09  0.0000E+00  0.1137E+17
   -0.343713    1.18345  0.0000E+00  0.9739E-11  0.4425E-15  0.1000E-09  0.0000E+00  0.1035E+17
   -0.412457    1.41901  0.0000E+00  0.1644E-10  0.7293E-15  0.1000E-09  0.0000E+00  0.9319E+16
   -0.481202    1.65235  0.0000E+00  0.2748E-10  0.1194E-14  0.1000E-09  0.0000E+00  0.8292E+16
   -0.549947    1.88255  0.0000E+00  0.4564E-10  0.1946E-14  0.1000E-09  0.0000E+00  0.7276E+16
   -0.618692    2.10854  0.0000E+00  0.7541E-10  0.3159E-14  0.1000E-09  0.0000E+00  0.6301E+16
   -0.687438    2.32979  0.0000E+00  0.1240E-09  0.5109E-14  0.1000E-09  0.0000E+00  0.5404E+16
   -0.756184    2.54720  0.0000E+00  0.2033E-09  0.8242E-14  0.1000E-09  0.0000E+00  0.4566E+16
   -0.824931    2.76140  0.0000E+00  0.3321E-09  0.1327E-13  0.1000E-09  0.0000E+00  0.3766E+16
   -0.893678    2.97235  0.0000E+00  0.5414E-09  0.2135E-13  0.1000E-09  0.0000E+00  0.3003E+16
   -0.962425    3.17993  0.0000E+00  0.8816E-09  0.3437E-13  0.1007E-09  0.0000E+00  0.2273E+16
   -1.031172    3.38356  0.0000E+00  0.1434E-08  0.5535E-13  0.1791E-09  0.0000E+00  0.1574E+16
   -1.099920    3.58143  0.0000E+00  0.2333E-08  0.8929E-13  0.4979E-09  0.0000E+00  0.9122E+15
   -1.168667    3.76783  0.0000E+00  0.3798E-08  0.1445E-12  0.2164E-08  0.0000E+00  0.3408E+15
   -1.237415    3.92958  0.0000E+00  0.5613E-08  0.2156E-12  0.3932E-05  0.0000E+00  0.3660E+14
   -1.306163    3.99344  0.0000E+00  0.5873E-08  0.2266E-12  0.4751E-04  0.0000E+00 -0.3084E+11
   -1.374911    3.99386  0.0000E+00  0.6021E-08  0.2339E-12  0.4998E-04  0.0000E+00 -0.3657E+11
   -1.443658    3.99425  0.0000E+00  0.6162E-08  0.2418E-12  0.5267E-04  0.0000E+00 -0.3896E+11
   -1.512406    3.99463  0.0000E+00  0.6297E-08  0.2505E-12  0.5490E-04  0.0000E+00 -0.4098E+11
   -1.581154    3.99499  0.0000E+00  0.6427E-08  0.2601E-12  0.5677E-04  0.0000E+00 -0.4295E+11
   -1.649901    3.99535  0.0000E+00  0.6553E-08  0.2706E-12  0.5812E-04  0.0000E+00 -0.4516E+11
   -1.718649    3.99570  0.0000E+00  0.6673E-08  0.2822E-12  0.5887E-04  0.0000E+00 -0.4776E+11
   -1.787396    3.99605  0.0000E+00  0.6787E-08  0.2949E-12  0.5898E-04  0.0000E+00 -0.5090E+11
   -1.856143    3.99641  0.0000E+00  0.6895E-08  0.3091E-12  0.5864E-04  0.0000E+00 -0.5456E+11
   -1.924890    3.99678  0.0000E+00  0.6994E-08  0.3250E-12  0.5781E-04  0.0000E+00 -0.5890E+11
   -1.993637    3.99716  0.0000E+00  0.7085E-08  0.3430E-12  0.5650E-04  0.0000E+00 -0.6413E+11
   -2.062383    3.99756  0.0000E+00  0.7165E-08  0.3639E-12  0.5438E-04  0.0000E+00 -0.7058E+11
   -2.131129    3.99797  0.0000E+00  0.7231E-08  0.3884E-12  0.5094E-04  0.0000E+00 -0.7962E+11
   -2.199875    3.99842  0.0000E+00  0.7280E-08  0.4175E-12  0.4686E-04  0.0000E+00 -0.9148E+11
   -2.268620    3.99891  0.0000E+00  0.7308E-08  0.4533E-12  0.4248E-04  0.0000E+00 -0.1069E+12
   -2.337364    3.99946  0.0000E+00  0.7308E-08  0.5004E-12  0.3746E-04  0.0000E+00 -0.1290E+12
   -2.406109    4.00009  0.0000E+00  0.7270E-08  0.5662E-12  0.3158E-04  0.0000E+00 -0.1641E+12
   -2.474852    4.00085  0.0000E+00  0.7172E-08  0.6671E-12  0.2472E-04  0.0000E+00 -0.2274E+12
   -2.543595    4.00184  0.0000E+00  0.6961E-08  0.8504E-12  0.1679E-04  0.0000E+00 -0.3728E+12
   -2.612338    4.00332  0.0000E+00  0.6459E-08  0.1314E-11  0.8067E-05  0.0000E+00 -0.9265E+12
   -2.681080    4.00654  0.0000E+00  0.4366E-08  0.4228E-11  0.8891E-06  0.0000E+00 -0.1556E+14
   -2.749821    4.03528  0.0000E+00  0.0000E+00  0.0000E+00  0.0000E+00  0.0000E+00  0.0000E+00
