 1 - depth, m
 2 - temperature, C
 3 - salinity, kg/kg
 4 - turbulent kinetic energy, m**2/s**2
 5 - dissipation rate, m**2/s**3
 6 - kinematic heat conductance, m**2/s
 7 - modulus of horizontal velocity, m/s
 8 - Richardson number, n/d
   -0.000000   14.53137  0.0000E+00  0.1060E-03  0.1214E-02  0.7627E-04  0.8191E-01 -0.6454E-02
   -0.068757   14.55691  0.0000E+00  0.5924E-04  0.6703E-03  0.1098E-03  0.3162E-01 -0.2068E-01
   -0.137516   14.56282  0.0000E+00  0.4308E-04  0.3892E-03  0.1202E-03  0.2367E-01 -0.3399E-01
   -0.206274   14.56695  0.0000E+00  0.3217E-04  0.1725E-03  0.1410E-03  0.1899E-01 -0.6664E-01
   -0.275034   14.57011  0.0000E+00  0.2473E-04  0.4315E-04  0.1661E-03  0.1568E-01 -0.7297E-01
   -0.343794   14.57271  0.0000E+00  0.2018E-04  0.4997E-05  0.1951E-03  0.1299E-01 -0.9577E-01
   -0.412554   14.57486  0.0000E+00  0.1755E-04  0.4711E-06  0.2330E-03  0.1082E-01 -0.8803E-01
   -0.481315   14.57662  0.0000E+00  0.1570E-04  0.1582E-06  0.3212E-03  0.9076E-02  0.7984E+02
   -0.550076   14.57802  0.0000E+00  0.1423E-04  0.1059E-06  0.3740E-03  0.7706E-02  0.2036E+02
   -0.618838   14.57921  0.0000E+00  0.1304E-04  0.7906E-07  0.4266E-03  0.6606E-02  0.2830E+02
   -0.687600   14.58024  0.0000E+00  0.1204E-04  0.6134E-07  0.4904E-03  0.5706E-02  0.2107E+02
   -0.756362   14.58114  0.0000E+00  0.1122E-04  0.4891E-07  0.5655E-03  0.4964E-02  0.1343E+01
   -0.825125   14.58193  0.0000E+00  0.1054E-04  0.3992E-07  0.6510E-03  0.4351E-02  0.1723E+02
   -0.893888   14.58260  0.0000E+00  0.9990E-05  0.3332E-07  0.7794E-03  0.3840E-02  0.1813E+02
   -0.962652   14.58316  0.0000E+00  0.9552E-05  0.2844E-07  0.9285E-03  0.3420E-02  0.6378E+02
   -1.031415   14.58361  0.0000E+00  0.9208E-05  0.2479E-07  0.1078E-02  0.3070E-02  0.2616E+02
   -1.100179   14.58398  0.0000E+00  0.8934E-05  0.2199E-07  0.1196E-02  0.2768E-02  0.2473E+02
   -1.168942   14.58429  0.0000E+00  0.8710E-05  0.1978E-07  0.1278E-02  0.2498E-02  0.5040E+02
   -1.237706   14.58459  0.0000E+00  0.8523E-05  0.1798E-07  0.1324E-02  0.2251E-02  0.2795E+01
   -1.306470   14.58487  0.0000E+00  0.8360E-05  0.1649E-07  0.1355E-02  0.2022E-02  0.2747E+01
   -1.375234   14.58516  0.0000E+00  0.8216E-05  0.1526E-07  0.1380E-02  0.1809E-02  0.2581E+01
   -1.443998   14.58545  0.0000E+00  0.8085E-05  0.1423E-07  0.1402E-02  0.1610E-02  0.2585E+01
   -1.512762   14.58574  0.0000E+00  0.7961E-05  0.1338E-07  0.1432E-02  0.1423E-02  0.2397E+01
   -1.581526   14.58603  0.0000E+00  0.7842E-05  0.1268E-07  0.1463E-02  0.1254E-02  0.2171E+01
   -1.650290   14.58632  0.0000E+00  0.7728E-05  0.1212E-07  0.1491E-02  0.1102E-02  0.1981E+01
   -1.719054   14.58661  0.0000E+00  0.7617E-05  0.1170E-07  0.1514E-02  0.9679E-03  0.1818E+01
   -1.787817   14.58690  0.0000E+00  0.7509E-05  0.1139E-07  0.1532E-02  0.8489E-03  0.1676E+01
   -1.856580   14.58719  0.0000E+00  0.7404E-05  0.1120E-07  0.1531E-02  0.7443E-03  0.1545E+01
   -1.925343   14.58749  0.0000E+00  0.7302E-05  0.1111E-07  0.1506E-02  0.6528E-03  0.1425E+01
   -1.994106   14.58780  0.0000E+00  0.7203E-05  0.1112E-07  0.1462E-02  0.5734E-03  0.1334E+01
   -2.062869   14.58813  0.0000E+00  0.7106E-05  0.1123E-07  0.1408E-02  0.5043E-03  0.1297E+01
   -2.131631   14.58848  0.0000E+00  0.7011E-05  0.1143E-07  0.1345E-02  0.4442E-03  0.1307E+01
   -2.200393   14.58885  0.0000E+00  0.6918E-05  0.1174E-07  0.1275E-02  0.3914E-03  0.1395E+01
   -2.269154   14.58925  0.0000E+00  0.6824E-05  0.1217E-07  0.1202E-02  0.3449E-03  0.1576E+01
   -2.337915   14.58969  0.0000E+00  0.6721E-05  0.1278E-07  0.1120E-02  0.3046E-03  0.2106E+01
   -2.406675   14.59017  0.0000E+00  0.6601E-05  0.1368E-07  0.1018E-02  0.2673E-03  0.3184E+01
   -2.475435   14.59070  0.0000E+00  0.6452E-05  0.1510E-07  0.8920E-03  0.2312E-03  0.5408E+01
   -2.544194   14.59132  0.0000E+00  0.6253E-05  0.1758E-07  0.7246E-03  0.1960E-03  0.1104E+02
   -2.612953   14.59210  0.0000E+00  0.5948E-05  0.2285E-07  0.5748E-03  0.1612E-03  0.2951E+02
   -2.681711   14.59310  0.0000E+00  0.3811E-05  0.8079E-07  0.2843E-04  0.1305E-03 -0.2719E+04
   -2.750469   14.61375  0.0000E+00  0.0000E+00  0.0000E+00  0.0000E+00  0.1305E-03  0.0000E+00
