 1 - depth, m
 2 - temperature, C
 3 - salinity, kg/kg
 4 - turbulent kinetic energy, m**2/s**2
 5 - dissipation rate, m**2/s**3
 6 - kinematic heat conductance, m**2/s
 7 - modulus of horizontal velocity, m/s
 8 - Richardson number, n/d
   -0.000000    0.00000  0.0000E+00  0.3282E-13  0.7603E-17  0.1000E-09  0.0000E+00  0.1462E+17
   -0.068741    0.22622  0.0000E+00  0.8181E-13  0.8071E-17  0.1000E-09  0.0000E+00  0.1362E+17
   -0.137482    0.45081  0.0000E+00  0.1840E-12  0.1333E-16  0.1000E-09  0.0000E+00  0.1261E+17
   -0.206225    0.67306  0.0000E+00  0.3746E-12  0.2451E-16  0.1000E-09  0.0000E+00  0.1160E+17
   -0.274967    0.89243  0.0000E+00  0.7265E-12  0.4548E-16  0.1000E-09  0.0000E+00  0.1063E+17
   -0.343711    1.10887  0.0000E+00  0.1375E-11  0.8377E-16  0.1000E-09  0.0000E+00  0.9682E+16
   -0.412455    1.32216  0.0000E+00  0.2571E-11  0.1531E-15  0.1000E-09  0.0000E+00  0.8769E+16
   -0.481199    1.53205  0.0000E+00  0.4767E-11  0.2778E-15  0.1000E-09  0.0000E+00  0.7886E+16
   -0.549944    1.73821  0.0000E+00  0.8788E-11  0.5015E-15  0.1000E-09  0.0000E+00  0.7030E+16
   -0.618689    1.94012  0.0000E+00  0.1611E-10  0.9009E-15  0.1000E-09  0.0000E+00  0.6211E+16
   -0.687434    2.13746  0.0000E+00  0.2938E-10  0.1609E-14  0.1000E-09  0.0000E+00  0.5455E+16
   -0.756180    2.33070  0.0000E+00  0.5327E-10  0.2860E-14  0.1000E-09  0.0000E+00  0.4746E+16
   -0.824927    2.52003  0.0000E+00  0.9604E-10  0.5053E-14  0.1000E-09  0.0000E+00  0.4072E+16
   -0.893673    2.70516  0.0000E+00  0.1722E-09  0.8883E-14  0.1000E-09  0.0000E+00  0.3434E+16
   -0.962420    2.88579  0.0000E+00  0.3071E-09  0.1553E-13  0.1000E-09  0.0000E+00  0.2835E+16
   -1.031167    3.06166  0.0000E+00  0.5442E-09  0.2699E-13  0.1000E-09  0.0000E+00  0.2280E+16
   -1.099914    3.23286  0.0000E+00  0.9580E-09  0.4660E-13  0.1344E-09  0.0000E+00  0.1765E+16
   -1.168661    3.39920  0.0000E+00  0.1677E-08  0.8000E-13  0.3157E-09  0.0000E+00  0.1290E+16
   -1.237408    3.56047  0.0000E+00  0.2918E-08  0.1366E-12  0.8141E-09  0.0000E+00  0.8543E+15
   -1.306156    3.71635  0.0000E+00  0.5048E-08  0.2319E-12  0.2576E-08  0.0000E+00  0.4584E+15
   -1.374903    3.86569  0.0000E+00  0.8620E-08  0.3890E-12  0.1756E-07  0.0000E+00  0.1129E+15
   -1.443651    3.99859  0.0000E+00  0.8933E-08  0.4039E-12  0.7629E-04  0.0000E+00 -0.4672E+11
   -1.512398    3.99883  0.0000E+00  0.9076E-08  0.4119E-12  0.7346E-04  0.0000E+00 -0.5479E+11
   -1.581145    3.99911  0.0000E+00  0.9203E-08  0.4204E-12  0.7478E-04  0.0000E+00 -0.5607E+11
   -1.649893    3.99938  0.0000E+00  0.9316E-08  0.4297E-12  0.7581E-04  0.0000E+00 -0.5682E+11
   -1.718640    3.99966  0.0000E+00  0.9416E-08  0.4398E-12  0.7636E-04  0.0000E+00 -0.5773E+11
   -1.787387    3.99993  0.0000E+00  0.9505E-08  0.4513E-12  0.7611E-04  0.0000E+00 -0.5917E+11
   -1.856133    4.00021  0.0000E+00  0.9581E-08  0.4643E-12  0.7494E-04  0.0000E+00 -0.6137E+11
   -1.924880    4.00048  0.0000E+00  0.9645E-08  0.4793E-12  0.7269E-04  0.0000E+00 -0.6460E+11
   -1.993626    4.00077  0.0000E+00  0.9693E-08  0.4967E-12  0.6960E-04  0.0000E+00 -0.6897E+11
   -2.062372    4.00107  0.0000E+00  0.9725E-08  0.5174E-12  0.6513E-04  0.0000E+00 -0.7518E+11
   -2.131118    4.00140  0.0000E+00  0.9737E-08  0.5421E-12  0.6018E-04  0.0000E+00 -0.8308E+11
   -2.199863    4.00174  0.0000E+00  0.9727E-08  0.5720E-12  0.5525E-04  0.0000E+00 -0.9258E+11
   -2.268608    4.00212  0.0000E+00  0.9689E-08  0.6097E-12  0.5010E-04  0.0000E+00 -0.1049E+12
   -2.337352    4.00254  0.0000E+00  0.9616E-08  0.6603E-12  0.4415E-04  0.0000E+00 -0.1227E+12
   -2.406096    4.00301  0.0000E+00  0.9495E-08  0.7326E-12  0.3721E-04  0.0000E+00 -0.1509E+12
   -2.474839    4.00358  0.0000E+00  0.9300E-08  0.8454E-12  0.2919E-04  0.0000E+00 -0.2014E+12
   -2.543582    4.00431  0.0000E+00  0.8967E-08  0.1053E-11  0.1998E-04  0.0000E+00 -0.3145E+12
   -2.612324    4.00539  0.0000E+00  0.8279E-08  0.1581E-11  0.9795E-05  0.0000E+00 -0.7225E+12
   -2.681066    4.00767  0.0000E+00  0.5377E-08  0.5161E-11  0.9670E-06  0.0000E+00 -0.1197E+14
   -2.749807    4.03086  0.0000E+00  0.0000E+00  0.0000E+00  0.0000E+00  0.0000E+00  0.0000E+00
