 1 - depth, m
 2 - temperature, C
 3 - salinity, kg/kg
 4 - turbulent kinetic energy, m**2/s**2
 5 - dissipation rate, m**2/s**3
 6 - kinematic heat conductance, m**2/s
 7 - modulus of horizontal velocity, m/s
 8 - Richardson number, n/d
   -0.000000    0.00000  0.0000E+00  0.2171E-12  0.3310E-16  0.1000E-09  0.0000E+00  0.1502E+17
   -0.068774    0.23259  0.0000E+00  0.4287E-12  0.3687E-16  0.1000E-09  0.0000E+00  0.1404E+17
   -0.137549    0.46484  0.0000E+00  0.8823E-12  0.5967E-16  0.1000E-09  0.0000E+00  0.1306E+17
   -0.206324    0.69641  0.0000E+00  0.1731E-11  0.1072E-15  0.1000E-09  0.0000E+00  0.1207E+17
   -0.275100    0.92689  0.0000E+00  0.3287E-11  0.1954E-15  0.1000E-09  0.0000E+00  0.1111E+17
   -0.343877    1.15641  0.0000E+00  0.6121E-11  0.3543E-15  0.1000E-09  0.0000E+00  0.1014E+17
   -0.412654    1.38456  0.0000E+00  0.1127E-10  0.6380E-15  0.1000E-09  0.0000E+00  0.9180E+16
   -0.481431    1.61078  0.0000E+00  0.2060E-10  0.1141E-14  0.1000E-09  0.0000E+00  0.8222E+16
   -0.550209    1.83435  0.0000E+00  0.3745E-10  0.2032E-14  0.1000E-09  0.0000E+00  0.7268E+16
   -0.618988    2.05425  0.0000E+00  0.6770E-10  0.3600E-14  0.1000E-09  0.0000E+00  0.6342E+16
   -0.687766    2.26976  0.0000E+00  0.1217E-09  0.6342E-14  0.1000E-09  0.0000E+00  0.5478E+16
   -0.756545    2.48132  0.0000E+00  0.2176E-09  0.1111E-13  0.1000E-09  0.0000E+00  0.4662E+16
   -0.825325    2.68905  0.0000E+00  0.3869E-09  0.1937E-13  0.1000E-09  0.0000E+00  0.3883E+16
   -0.894105    2.89246  0.0000E+00  0.6843E-09  0.3358E-13  0.1000E-09  0.0000E+00  0.3145E+16
   -0.962884    3.09119  0.0000E+00  0.1203E-08  0.5791E-13  0.1201E-09  0.0000E+00  0.2455E+16
   -1.031665    3.28501  0.0000E+00  0.2103E-08  0.9923E-13  0.2784E-09  0.0000E+00  0.1815E+16
   -1.100445    3.47408  0.0000E+00  0.3650E-08  0.1689E-12  0.7048E-09  0.0000E+00  0.1221E+16
   -1.169225    3.65831  0.0000E+00  0.6294E-08  0.2858E-12  0.2172E-08  0.0000E+00  0.6702E+15
   -1.238006    3.83681  0.0000E+00  0.1073E-07  0.4783E-12  0.1401E-07  0.0000E+00  0.1742E+15
   -1.306786    3.99851  0.0000E+00  0.1103E-07  0.4926E-12  0.9047E-04  0.0000E+00 -0.4119E+11
   -1.375567    3.99873  0.0000E+00  0.1117E-07  0.5004E-12  0.8954E-04  0.0000E+00 -0.5192E+11
   -1.444348    3.99899  0.0000E+00  0.1130E-07  0.5087E-12  0.9115E-04  0.0000E+00 -0.5320E+11
   -1.513128    3.99926  0.0000E+00  0.1141E-07  0.5175E-12  0.9282E-04  0.0000E+00 -0.5368E+11
   -1.581909    3.99952  0.0000E+00  0.1151E-07  0.5271E-12  0.9422E-04  0.0000E+00 -0.5408E+11
   -1.650689    3.99978  0.0000E+00  0.1160E-07  0.5375E-12  0.9534E-04  0.0000E+00 -0.5455E+11
   -1.719470    4.00004  0.0000E+00  0.1167E-07  0.5489E-12  0.9567E-04  0.0000E+00 -0.5544E+11
   -1.788250    4.00029  0.0000E+00  0.1174E-07  0.5615E-12  0.9533E-04  0.0000E+00 -0.5671E+11
   -1.857030    4.00055  0.0000E+00  0.1179E-07  0.5759E-12  0.9426E-04  0.0000E+00 -0.5847E+11
   -1.925809    4.00081  0.0000E+00  0.1183E-07  0.5930E-12  0.9203E-04  0.0000E+00 -0.6107E+11
   -1.994589    4.00107  0.0000E+00  0.1186E-07  0.6136E-12  0.8808E-04  0.0000E+00 -0.6514E+11
   -2.063368    4.00135  0.0000E+00  0.1187E-07  0.6384E-12  0.8117E-04  0.0000E+00 -0.7200E+11
   -2.132147    4.00166  0.0000E+00  0.1186E-07  0.6687E-12  0.7294E-04  0.0000E+00 -0.8165E+11
   -2.200925    4.00199  0.0000E+00  0.1183E-07  0.7059E-12  0.6540E-04  0.0000E+00 -0.9304E+11
   -2.269703    4.00237  0.0000E+00  0.1177E-07  0.7530E-12  0.5852E-04  0.0000E+00 -0.1067E+12
   -2.338480    4.00279  0.0000E+00  0.1167E-07  0.8167E-12  0.5124E-04  0.0000E+00 -0.1255E+12
   -2.407258    4.00326  0.0000E+00  0.1151E-07  0.9076E-12  0.4301E-04  0.0000E+00 -0.1548E+12
   -2.476034    4.00384  0.0000E+00  0.1128E-07  0.1049E-11  0.3363E-04  0.0000E+00 -0.2069E+12
   -2.544810    4.00458  0.0000E+00  0.1088E-07  0.1310E-11  0.2299E-04  0.0000E+00 -0.3226E+12
   -2.613585    4.00567  0.0000E+00  0.1008E-07  0.1970E-11  0.1135E-04  0.0000E+00 -0.7326E+12
   -2.682360    4.00795  0.0000E+00  0.6616E-08  0.6563E-11  0.1123E-05  0.0000E+00 -0.1206E+14
   -2.751134    4.03113  0.0000E+00  0.0000E+00  0.0000E+00  0.0000E+00  0.0000E+00  0.0000E+00
