 1 - depth, m
 2 - temperature, C
 3 - salinity, kg/kg
 4 - turbulent kinetic energy, m**2/s**2
 5 - dissipation rate, m**2/s**3
 6 - kinematic heat conductance, m**2/s
 7 - modulus of horizontal velocity, m/s
 8 - Richardson number, n/d
   -0.000000    0.00000  0.0000E+00  0.1219E-13  0.7604E-17  0.1000E-09  0.0000E+00  0.1379E+17
   -0.068742    0.21300  0.0000E+00  0.1219E-13  0.7604E-17  0.1000E-09  0.0000E+00  0.1237E+17
   -0.137485    0.41546  0.0000E+00  0.1219E-13  0.7604E-17  0.1000E-09  0.0000E+00  0.1108E+17
   -0.206229    0.60777  0.0000E+00  0.1219E-13  0.7604E-17  0.1000E-09  0.0000E+00  0.9908E+16
   -0.274973    0.79015  0.0000E+00  0.1219E-13  0.7604E-17  0.1000E-09  0.0000E+00  0.8956E+16
   -0.343718    0.96500  0.0000E+00  0.1219E-13  0.7604E-17  0.1000E-09  0.0000E+00  0.8106E+16
   -0.412463    1.13297  0.0000E+00  0.1919E-13  0.7604E-17  0.1000E-09  0.0000E+00  0.7332E+16
   -0.481208    1.29438  0.0000E+00  0.7437E-13  0.1047E-16  0.1000E-09  0.0000E+00  0.6613E+16
   -0.549955    1.44918  0.0000E+00  0.1968E-12  0.2218E-16  0.1000E-09  0.0000E+00  0.5912E+16
   -0.618701    1.59641  0.0000E+00  0.4619E-12  0.4895E-16  0.1000E-09  0.0000E+00  0.5283E+16
   -0.687448    1.73644  0.0000E+00  0.1043E-11  0.1071E-15  0.1000E-09  0.0000E+00  0.4860E+16
   -0.756195    1.87378  0.0000E+00  0.2316E-11  0.2319E-15  0.1000E-09  0.0000E+00  0.4558E+16
   -0.824943    2.01157  0.0000E+00  0.5091E-11  0.4978E-15  0.1000E-09  0.0000E+00  0.4280E+16
   -0.893691    2.15068  0.0000E+00  0.1110E-10  0.1060E-14  0.1000E-09  0.0000E+00  0.4020E+16
   -0.962439    2.29204  0.0000E+00  0.2402E-10  0.2243E-14  0.1000E-09  0.0000E+00  0.3770E+16
   -1.031187    2.43664  0.0000E+00  0.5153E-10  0.4703E-14  0.1000E-09  0.0000E+00  0.3537E+16
   -1.099936    2.58616  0.0000E+00  0.1096E-09  0.9782E-14  0.1000E-09  0.0000E+00  0.3291E+16
   -1.168684    2.74171  0.0000E+00  0.2314E-09  0.2020E-13  0.1000E-09  0.0000E+00  0.3018E+16
   -1.237433    2.90428  0.0000E+00  0.4853E-09  0.4145E-13  0.1000E-09  0.0000E+00  0.2704E+16
   -1.306182    3.07469  0.0000E+00  0.1011E-08  0.8447E-13  0.1845E-09  0.0000E+00  0.2332E+16
   -1.374930    3.25339  0.0000E+00  0.2091E-08  0.1710E-12  0.4566E-09  0.0000E+00  0.1909E+16
   -1.443679    3.44227  0.0000E+00  0.4295E-08  0.3440E-12  0.1258E-08  0.0000E+00  0.1395E+16
   -1.512428    3.64109  0.0000E+00  0.8759E-08  0.6873E-12  0.4484E-08  0.0000E+00  0.7834E+15
   -1.581177    3.84638  0.0000E+00  0.1742E-07  0.1343E-11  0.4732E-07  0.0000E+00  0.1483E+15
   -1.649925    4.01370  0.0000E+00  0.1821E-07  0.1407E-11  0.8645E-04  0.0000E+00 -0.1321E+12
   -1.718674    4.01400  0.0000E+00  0.1858E-07  0.1444E-11  0.8678E-04  0.0000E+00 -0.1592E+12
   -1.787422    4.01437  0.0000E+00  0.1890E-07  0.1483E-11  0.8915E-04  0.0000E+00 -0.1645E+12
   -1.856170    4.01474  0.0000E+00  0.1918E-07  0.1526E-11  0.9166E-04  0.0000E+00 -0.1680E+12
   -1.924918    4.01512  0.0000E+00  0.1942E-07  0.1573E-11  0.9386E-04  0.0000E+00 -0.1718E+12
   -1.993666    4.01550  0.0000E+00  0.1961E-07  0.1623E-11  0.9394E-04  0.0000E+00 -0.1799E+12
   -2.062413    4.01589  0.0000E+00  0.1977E-07  0.1678E-11  0.9249E-04  0.0000E+00 -0.1871E+12
   -2.131160    4.01629  0.0000E+00  0.1988E-07  0.1743E-11  0.9007E-04  0.0000E+00 -0.1962E+12
   -2.199906    4.01670  0.0000E+00  0.1995E-07  0.1825E-11  0.8660E-04  0.0000E+00 -0.2086E+12
   -2.268652    4.01714  0.0000E+00  0.1997E-07  0.1933E-11  0.7744E-04  0.0000E+00 -0.2389E+12
   -2.337398    4.01763  0.0000E+00  0.1991E-07  0.2083E-11  0.6601E-04  0.0000E+00 -0.2879E+12
   -2.406143    4.01821  0.0000E+00  0.1976E-07  0.2296E-11  0.5527E-04  0.0000E+00 -0.3551E+12
   -2.474888    4.01892  0.0000E+00  0.1945E-07  0.2624E-11  0.4406E-04  0.0000E+00 -0.4640E+12
   -2.543632    4.01982  0.0000E+00  0.1888E-07  0.3214E-11  0.3110E-04  0.0000E+00 -0.6967E+12
   -2.612376    4.02112  0.0000E+00  0.1767E-07  0.4666E-11  0.1618E-04  0.0000E+00 -0.1481E+13
   -2.681119    4.02374  0.0000E+00  0.1199E-07  0.1492E-10  0.1705E-05  0.0000E+00 -0.2119E+14
   -2.749861    4.05041  0.0000E+00  0.0000E+00  0.0000E+00  0.0000E+00  0.0000E+00  0.0000E+00
