 1 - depth, m
 2 - temperature, C
 3 - salinity, kg/kg
 4 - turbulent kinetic energy, m**2/s**2
 5 - dissipation rate, m**2/s**3
 6 - kinematic heat conductance, m**2/s
 7 - modulus of horizontal velocity, m/s
 8 - Richardson number, n/d
   -0.000000    0.00000  0.0000E+00  0.1219E-13  0.7603E-17  0.1000E-09  0.0000E+00  0.1174E+17
   -0.068733    0.18054  0.0000E+00  0.1219E-13  0.7603E-17  0.1000E-09  0.0000E+00  0.9652E+16
   -0.137466    0.33607  0.0000E+00  0.1219E-13  0.7603E-17  0.1000E-09  0.0000E+00  0.8295E+16
   -0.206200    0.47559  0.0000E+00  0.1219E-13  0.7603E-17  0.1000E-09  0.0000E+00  0.7371E+16
   -0.274935    0.60468  0.0000E+00  0.1219E-13  0.7603E-17  0.1000E-09  0.0000E+00  0.6910E+16
   -0.343670    0.73061  0.0000E+00  0.1219E-13  0.7603E-17  0.1000E-09  0.0000E+00  0.6619E+16
   -0.412405    0.85625  0.0000E+00  0.1219E-13  0.7603E-17  0.1000E-09  0.0000E+00  0.6405E+16
   -0.481141    0.98309  0.0000E+00  0.1219E-13  0.7603E-17  0.1000E-09  0.0000E+00  0.6203E+16
   -0.549878    1.11156  0.0000E+00  0.1219E-13  0.7603E-17  0.1000E-09  0.0000E+00  0.5931E+16
   -0.618615    1.24027  0.0000E+00  0.1219E-13  0.7603E-17  0.1000E-09  0.0000E+00  0.5662E+16
   -0.687352    1.36935  0.0000E+00  0.1219E-13  0.7603E-17  0.1000E-09  0.0000E+00  0.5383E+16
   -0.756090    1.49856  0.0000E+00  0.1219E-13  0.7603E-17  0.1000E-09  0.0000E+00  0.5090E+16
   -0.824828    1.62751  0.0000E+00  0.1219E-13  0.7603E-17  0.1000E-09  0.0000E+00  0.4782E+16
   -0.893566    1.75571  0.0000E+00  0.1219E-13  0.7603E-17  0.1000E-09  0.0000E+00  0.4459E+16
   -0.962305    1.88255  0.0000E+00  0.1219E-13  0.7603E-17  0.1000E-09  0.0000E+00  0.4119E+16
   -1.031044    2.00720  0.0000E+00  0.1219E-13  0.7603E-17  0.1000E-09  0.0000E+00  0.3847E+16
   -1.099782    2.13144  0.0000E+00  0.1219E-13  0.7603E-17  0.1000E-09  0.0000E+00  0.3566E+16
   -1.168521    2.25480  0.0000E+00  0.1558E-13  0.7915E-17  0.1000E-09  0.0000E+00  0.3280E+16
   -1.237261    2.37684  0.0000E+00  0.4819E-13  0.1280E-16  0.1000E-09  0.0000E+00  0.2995E+16
   -1.306000    2.49722  0.0000E+00  0.1646E-12  0.3408E-16  0.1000E-09  0.0000E+00  0.2714E+16
   -1.374739    2.61565  0.0000E+00  0.5257E-12  0.1029E-15  0.1000E-09  0.0000E+00  0.2480E+16
   -1.443478    2.73385  0.0000E+00  0.1627E-11  0.3078E-15  0.1000E-09  0.0000E+00  0.2266E+16
   -1.512217    2.85280  0.0000E+00  0.4959E-11  0.9090E-15  0.1000E-09  0.0000E+00  0.2004E+16
   -1.580957    2.96980  0.0000E+00  0.1496E-10  0.2659E-14  0.1000E-09  0.0000E+00  0.1738E+16
   -1.649696    3.08370  0.0000E+00  0.4452E-10  0.7672E-14  0.1000E-09  0.0000E+00  0.1498E+16
   -1.718435    3.19513  0.0000E+00  0.1306E-09  0.2182E-13  0.1267E-09  0.0000E+00  0.1284E+16
   -1.787173    3.30523  0.0000E+00  0.3775E-09  0.6122E-13  0.2876E-09  0.0000E+00  0.1101E+16
   -1.855912    3.41664  0.0000E+00  0.1075E-08  0.1693E-12  0.8686E-09  0.0000E+00  0.9555E+15
   -1.924650    3.53580  0.0000E+00  0.3015E-08  0.4613E-12  0.2675E-08  0.0000E+00  0.8317E+15
   -1.993388    3.67829  0.0000E+00  0.8210E-08  0.1224E-11  0.1401E-07  0.0000E+00  0.5704E+15
   -2.062126    3.86575  0.0000E+00  0.1379E-07  0.2040E-11  0.1390E-04  0.0000E+00  0.1837E+15
   -2.130863    4.00150  0.0000E+00  0.1638E-07  0.2444E-11  0.3742E-04  0.0000E+00  0.7118E+13
   -2.199600    4.02348  0.0000E+00  0.1750E-07  0.2669E-11  0.4488E-04  0.0000E+00 -0.6563E+12
   -2.268337    4.02464  0.0000E+00  0.1824E-07  0.2883E-11  0.4469E-04  0.0000E+00 -0.7080E+12
   -2.337073    4.02583  0.0000E+00  0.1880E-07  0.3141E-11  0.4280E-04  0.0000E+00 -0.7832E+12
   -2.405808    4.02711  0.0000E+00  0.1917E-07  0.3475E-11  0.3908E-04  0.0000E+00 -0.9100E+12
   -2.474543    4.02853  0.0000E+00  0.1930E-07  0.3957E-11  0.3335E-04  0.0000E+00 -0.1140E+13
   -2.543278    4.03025  0.0000E+00  0.1908E-07  0.4782E-11  0.2517E-04  0.0000E+00 -0.1643E+13
   -2.612012    4.03260  0.0000E+00  0.1812E-07  0.6732E-11  0.1411E-04  0.0000E+00 -0.3343E+13
   -2.680745    4.03704  0.0000E+00  0.1311E-07  0.1908E-10  0.1933E-05  0.0000E+00 -0.3800E+14
   -2.749478    4.07251  0.0000E+00  0.0000E+00  0.0000E+00  0.0000E+00  0.0000E+00  0.0000E+00
