 1 - depth, m
 2 - temperature, C
 3 - salinity, kg/kg
 4 - turbulent kinetic energy, m**2/s**2
 5 - dissipation rate, m**2/s**3
 6 - kinematic heat conductance, m**2/s
 7 - modulus of horizontal velocity, m/s
 8 - Richardson number, n/d
   -0.000000    0.00000  0.0000E+00  0.9722E-12  0.2148E-15  0.1000E-09  0.0000E+00  0.1886E+17
   -0.068750    0.29451  0.0000E+00  0.2337E-11  0.2471E-15  0.1000E-09  0.0000E+00  0.1694E+17
   -0.137500    0.58211  0.0000E+00  0.5307E-11  0.4355E-15  0.1000E-09  0.0000E+00  0.1515E+17
   -0.206251    0.86303  0.0000E+00  0.1112E-10  0.8406E-15  0.1000E-09  0.0000E+00  0.1348E+17
   -0.275003    1.13752  0.0000E+00  0.2240E-10  0.1631E-14  0.1000E-09  0.0000E+00  0.1194E+17
   -0.343755    1.40633  0.0000E+00  0.4421E-10  0.3138E-14  0.1000E-09  0.0000E+00  0.1051E+17
   -0.412508    1.66981  0.0000E+00  0.8631E-10  0.5990E-14  0.1000E-09  0.0000E+00  0.9171E+16
   -0.481261    1.92822  0.0000E+00  0.1672E-09  0.1135E-13  0.1000E-09  0.0000E+00  0.7908E+16
   -0.550015    2.18162  0.0000E+00  0.3221E-09  0.2141E-13  0.1000E-09  0.0000E+00  0.6711E+16
   -0.618769    2.42977  0.0000E+00  0.6169E-09  0.4017E-13  0.1000E-09  0.0000E+00  0.5587E+16
   -0.687523    2.67267  0.0000E+00  0.1175E-08  0.7494E-13  0.1000E-09  0.0000E+00  0.4574E+16
   -0.756278    2.91269  0.0000E+00  0.2224E-08  0.1390E-12  0.1955E-09  0.0000E+00  0.3619E+16
   -0.825033    3.15107  0.0000E+00  0.4185E-08  0.2563E-12  0.4858E-09  0.0000E+00  0.2685E+16
   -0.893789    3.38742  0.0000E+00  0.7825E-08  0.4697E-12  0.1346E-08  0.0000E+00  0.1776E+16
   -0.962544    3.62064  0.0000E+00  0.1452E-07  0.8547E-12  0.4845E-08  0.0000E+00  0.8979E+15
   -1.031300    3.84647  0.0000E+00  0.2613E-07  0.1513E-11  0.5244E-07  0.0000E+00  0.1468E+15
   -1.100056    4.01527  0.0000E+00  0.2658E-07  0.1540E-11  0.1630E-03  0.0000E+00 -0.8008E+11
   -1.168812    4.01544  0.0000E+00  0.2679E-07  0.1556E-11  0.1638E-03  0.0000E+00 -0.8855E+11
   -1.237568    4.01564  0.0000E+00  0.2698E-07  0.1573E-11  0.1710E-03  0.0000E+00 -0.8782E+11
   -1.306325    4.01583  0.0000E+00  0.2715E-07  0.1590E-11  0.1700E-03  0.0000E+00 -0.8978E+11
   -1.375081    4.01602  0.0000E+00  0.2729E-07  0.1610E-11  0.1695E-03  0.0000E+00 -0.9090E+11
   -1.443837    4.01621  0.0000E+00  0.2742E-07  0.1630E-11  0.1689E-03  0.0000E+00 -0.9196E+11
   -1.512594    4.01641  0.0000E+00  0.2753E-07  0.1653E-11  0.1680E-03  0.0000E+00 -0.9328E+11
   -1.581350    4.01661  0.0000E+00  0.2762E-07  0.1679E-11  0.1668E-03  0.0000E+00 -0.9487E+11
   -1.650106    4.01681  0.0000E+00  0.2770E-07  0.1708E-11  0.1651E-03  0.0000E+00 -0.9675E+11
   -1.718862    4.01701  0.0000E+00  0.2776E-07  0.1739E-11  0.1630E-03  0.0000E+00 -0.9895E+11
   -1.787618    4.01721  0.0000E+00  0.2780E-07  0.1775E-11  0.1605E-03  0.0000E+00 -0.1015E+12
   -1.856373    4.01742  0.0000E+00  0.2782E-07  0.1815E-11  0.1575E-03  0.0000E+00 -0.1046E+12
   -1.925129    4.01764  0.0000E+00  0.2783E-07  0.1861E-11  0.1541E-03  0.0000E+00 -0.1082E+12
   -1.993884    4.01786  0.0000E+00  0.2780E-07  0.1913E-11  0.1500E-03  0.0000E+00 -0.1124E+12
   -2.062639    4.01808  0.0000E+00  0.2776E-07  0.1974E-11  0.1454E-03  0.0000E+00 -0.1170E+12
   -2.131393    4.01832  0.0000E+00  0.2769E-07  0.2044E-11  0.1402E-03  0.0000E+00 -0.1226E+12
   -2.200147    4.01856  0.0000E+00  0.2759E-07  0.2126E-11  0.1343E-03  0.0000E+00 -0.1291E+12
   -2.268901    4.01882  0.0000E+00  0.2744E-07  0.2239E-11  0.1273E-03  0.0000E+00 -0.1378E+12
   -2.337654    4.01908  0.0000E+00  0.2720E-07  0.2412E-11  0.9963E-04  0.0000E+00 -0.1784E+12
   -2.406407    4.01943  0.0000E+00  0.2684E-07  0.2671E-11  0.7726E-04  0.0000E+00 -0.2341E+12
   -2.475159    4.01988  0.0000E+00  0.2631E-07  0.3082E-11  0.5910E-04  0.0000E+00 -0.3132E+12
   -2.543911    4.02047  0.0000E+00  0.2548E-07  0.3830E-11  0.4046E-04  0.0000E+00 -0.4741E+12
   -2.612662    4.02134  0.0000E+00  0.2384E-07  0.5688E-11  0.2048E-04  0.0000E+00 -0.9990E+12
   -2.681412    4.02312  0.0000E+00  0.1547E-07  0.2047E-10  0.1767E-05  0.0000E+00 -0.1562E+14
   -2.750162    4.04419  0.0000E+00  0.0000E+00  0.0000E+00  0.0000E+00  0.0000E+00  0.0000E+00
