 1 - depth, m
 2 - temperature, C
 3 - salinity, kg/kg
 4 - turbulent kinetic energy, m**2/s**2
 5 - dissipation rate, m**2/s**3
 6 - kinematic heat conductance, m**2/s
 7 - modulus of horizontal velocity, m/s
 8 - Richardson number, n/d
   -0.000000    0.00000  0.0000E+00  0.1219E-13  0.7603E-17  0.1000E-09  0.0000E+00  0.1289E+17
   -0.068749    0.19861  0.0000E+00  0.1219E-13  0.7603E-17  0.1000E-09  0.0000E+00  0.1161E+17
   -0.137499    0.38760  0.0000E+00  0.1219E-13  0.7603E-17  0.1000E-09  0.0000E+00  0.1040E+17
   -0.206249    0.56620  0.0000E+00  0.1219E-13  0.7603E-17  0.1000E-09  0.0000E+00  0.9249E+16
   -0.275000    0.73382  0.0000E+00  0.1219E-13  0.7603E-17  0.1000E-09  0.0000E+00  0.8301E+16
   -0.343751    0.89241  0.0000E+00  0.1219E-13  0.7603E-17  0.1000E-09  0.0000E+00  0.7443E+16
   -0.412503    1.04227  0.0000E+00  0.1219E-13  0.7603E-17  0.1000E-09  0.0000E+00  0.6658E+16
   -0.481256    1.18346  0.0000E+00  0.1219E-13  0.7603E-17  0.1000E-09  0.0000E+00  0.5928E+16
   -0.550008    1.31576  0.0000E+00  0.1219E-13  0.7603E-17  0.1000E-09  0.0000E+00  0.5213E+16
   -0.618762    1.43803  0.0000E+00  0.1219E-13  0.7603E-17  0.1000E-09  0.0000E+00  0.4576E+16
   -0.687515    1.55064  0.0000E+00  0.1219E-13  0.7603E-17  0.1000E-09  0.0000E+00  0.4173E+16
   -0.756269    1.65827  0.0000E+00  0.1219E-13  0.7603E-17  0.1000E-09  0.0000E+00  0.3917E+16
   -0.825024    1.76424  0.0000E+00  0.3698E-13  0.7603E-17  0.1000E-09  0.0000E+00  0.3702E+16
   -0.893778    1.86944  0.0000E+00  0.1110E-12  0.1335E-16  0.1000E-09  0.0000E+00  0.3519E+16
   -0.962533    1.97474  0.0000E+00  0.2724E-12  0.2882E-16  0.1000E-09  0.0000E+00  0.3362E+16
   -1.031288    2.08092  0.0000E+00  0.6215E-12  0.6281E-16  0.1000E-09  0.0000E+00  0.3246E+16
   -1.100043    2.18958  0.0000E+00  0.1379E-11  0.1353E-15  0.1000E-09  0.0000E+00  0.3135E+16
   -1.168798    2.30140  0.0000E+00  0.3017E-11  0.2886E-15  0.1000E-09  0.0000E+00  0.3022E+16
   -1.237554    2.41691  0.0000E+00  0.6537E-11  0.6101E-15  0.1000E-09  0.0000E+00  0.2898E+16
   -1.306309    2.53654  0.0000E+00  0.1404E-10  0.1279E-14  0.1000E-09  0.0000E+00  0.2758E+16
   -1.375065    2.66064  0.0000E+00  0.2991E-10  0.2661E-14  0.1000E-09  0.0000E+00  0.2655E+16
   -1.443820    2.79253  0.0000E+00  0.6323E-10  0.5493E-14  0.1000E-09  0.0000E+00  0.2529E+16
   -1.512576    2.93371  0.0000E+00  0.1328E-09  0.1127E-13  0.1000E-09  0.0000E+00  0.2354E+16
   -1.581331    3.08514  0.0000E+00  0.2783E-09  0.2308E-13  0.1000E-09  0.0000E+00  0.2115E+16
   -1.650087    3.24768  0.0000E+00  0.5799E-09  0.4701E-13  0.1334E-09  0.0000E+00  0.1795E+16
   -1.718842    3.42168  0.0000E+00  0.1201E-08  0.9518E-13  0.3517E-09  0.0000E+00  0.1379E+16
   -1.787597    3.60667  0.0000E+00  0.2471E-08  0.1915E-12  0.1131E-08  0.0000E+00  0.8630E+15
   -1.856352    3.80065  0.0000E+00  0.5035E-08  0.3821E-12  0.7215E-08  0.0000E+00  0.2701E+15
   -1.925106    3.99419  0.0000E+00  0.5793E-08  0.4423E-12  0.2505E-04  0.0000E+00 -0.1469E+12
   -1.993861    3.99531  0.0000E+00  0.6160E-08  0.4790E-12  0.2732E-04  0.0000E+00 -0.1647E+12
   -2.062615    3.99641  0.0000E+00  0.6489E-08  0.5200E-12  0.2860E-04  0.0000E+00 -0.1778E+12
   -2.131368    3.99748  0.0000E+00  0.6780E-08  0.5666E-12  0.2900E-04  0.0000E+00 -0.1946E+12
   -2.200121    3.99854  0.0000E+00  0.7033E-08  0.6205E-12  0.2859E-04  0.0000E+00 -0.2173E+12
   -2.268874    3.99963  0.0000E+00  0.7246E-08  0.6854E-12  0.2741E-04  0.0000E+00 -0.2496E+12
   -2.337627    4.00077  0.0000E+00  0.7419E-08  0.7695E-12  0.2532E-04  0.0000E+00 -0.2985E+12
   -2.406379    4.00204  0.0000E+00  0.7541E-08  0.8854E-12  0.2224E-04  0.0000E+00 -0.3783E+12
   -2.475130    4.00350  0.0000E+00  0.7589E-08  0.1061E-11  0.1813E-04  0.0000E+00 -0.5265E+12
   -2.543881    4.00536  0.0000E+00  0.7514E-08  0.1380E-11  0.1290E-04  0.0000E+00 -0.8773E+12
   -2.612631    4.00810  0.0000E+00  0.7153E-08  0.2178E-11  0.6661E-05  0.0000E+00 -0.2252E+13
   -2.681381    4.01392  0.0000E+00  0.5626E-08  0.6616E-11  0.1169E-05  0.0000E+00 -0.2966E+14
   -2.750130    4.05378  0.0000E+00  0.0000E+00  0.0000E+00  0.0000E+00  0.0000E+00  0.0000E+00
