 1 - depth, m
 2 - temperature, C
 3 - salinity, kg/kg
 4 - turbulent kinetic energy, m**2/s**2
 5 - dissipation rate, m**2/s**3
 6 - kinematic heat conductance, m**2/s
 7 - modulus of horizontal velocity, m/s
 8 - Richardson number, n/d
   -0.000000    0.00000  0.0000E+00  0.1219E-13  0.7603E-17  0.1000E-09  0.0000E+00  0.1272E+17
   -0.068731    0.19602  0.0000E+00  0.1219E-13  0.7603E-17  0.1000E-09  0.0000E+00  0.1184E+17
   -0.137463    0.38870  0.0000E+00  0.1219E-13  0.7603E-17  0.1000E-09  0.0000E+00  0.1099E+17
   -0.206195    0.57788  0.0000E+00  0.1219E-13  0.7603E-17  0.1000E-09  0.0000E+00  0.1017E+17
   -0.274928    0.76336  0.0000E+00  0.1219E-13  0.7603E-17  0.1000E-09  0.0000E+00  0.9405E+16
   -0.343661    0.94555  0.0000E+00  0.1219E-13  0.7603E-17  0.1000E-09  0.0000E+00  0.8672E+16
   -0.412395    1.12437  0.0000E+00  0.1219E-13  0.7603E-17  0.1000E-09  0.0000E+00  0.7967E+16
   -0.481130    1.29964  0.0000E+00  0.1219E-13  0.7603E-17  0.1000E-09  0.0000E+00  0.7284E+16
   -0.549864    1.47106  0.0000E+00  0.4608E-13  0.7604E-17  0.1000E-09  0.0000E+00  0.6614E+16
   -0.618600    1.63802  0.0000E+00  0.1294E-12  0.1192E-16  0.1000E-09  0.0000E+00  0.5977E+16
   -0.687335    1.80030  0.0000E+00  0.2911E-12  0.2289E-16  0.1000E-09  0.0000E+00  0.5425E+16
   -0.756071    1.95924  0.0000E+00  0.6032E-12  0.4485E-16  0.1000E-09  0.0000E+00  0.4927E+16
   -0.824808    2.11566  0.0000E+00  0.1210E-11  0.8722E-16  0.1000E-09  0.0000E+00  0.4446E+16
   -0.893544    2.26941  0.0000E+00  0.2391E-11  0.1681E-15  0.1000E-09  0.0000E+00  0.3985E+16
   -0.962281    2.42037  0.0000E+00  0.4678E-11  0.3216E-15  0.1000E-09  0.0000E+00  0.3543E+16
   -1.031018    2.56838  0.0000E+00  0.9072E-11  0.6100E-15  0.1000E-09  0.0000E+00  0.3124E+16
   -1.099755    2.71348  0.0000E+00  0.1745E-10  0.1148E-14  0.1000E-09  0.0000E+00  0.2726E+16
   -1.168493    2.85554  0.0000E+00  0.3332E-10  0.2145E-14  0.1000E-09  0.0000E+00  0.2348E+16
   -1.237230    2.99441  0.0000E+00  0.6322E-10  0.3984E-14  0.1000E-09  0.0000E+00  0.1991E+16
   -1.305968    3.12995  0.0000E+00  0.1192E-09  0.7352E-14  0.1000E-09  0.0000E+00  0.1656E+16
   -1.374705    3.26200  0.0000E+00  0.2232E-09  0.1349E-13  0.1000E-09  0.0000E+00  0.1355E+16
   -1.443443    3.39185  0.0000E+00  0.4156E-09  0.2459E-13  0.1167E-09  0.0000E+00  0.1073E+16
   -1.512180    3.51986  0.0000E+00  0.7700E-09  0.4463E-13  0.2832E-09  0.0000E+00  0.8022E+15
   -1.580918    3.64599  0.0000E+00  0.1424E-08  0.8087E-13  0.7580E-09  0.0000E+00  0.5430E+15
   -1.649655    3.76999  0.0000E+00  0.2621E-08  0.1459E-12  0.2511E-08  0.0000E+00  0.2957E+15
   -1.718392    3.89071  0.0000E+00  0.4760E-08  0.2599E-12  0.1872E-07  0.0000E+00  0.7067E+14
   -1.787129    3.99752  0.0000E+00  0.5189E-08  0.2845E-12  0.3593E-04  0.0000E+00 -0.7454E+11
   -1.855866    3.99794  0.0000E+00  0.5387E-08  0.2982E-12  0.3617E-04  0.0000E+00 -0.8556E+11
   -1.924603    3.99840  0.0000E+00  0.5560E-08  0.3130E-12  0.3645E-04  0.0000E+00 -0.8931E+11
   -1.993339    3.99886  0.0000E+00  0.5709E-08  0.3293E-12  0.3621E-04  0.0000E+00 -0.9364E+11
   -2.062075    3.99933  0.0000E+00  0.5835E-08  0.3477E-12  0.3547E-04  0.0000E+00 -0.9954E+11
   -2.130811    3.99981  0.0000E+00  0.5938E-08  0.3689E-12  0.3418E-04  0.0000E+00 -0.1076E+12
   -2.199546    4.00031  0.0000E+00  0.6016E-08  0.3940E-12  0.3232E-04  0.0000E+00 -0.1186E+12
   -2.268281    4.00084  0.0000E+00  0.6067E-08  0.4250E-12  0.2993E-04  0.0000E+00 -0.1344E+12
   -2.337015    4.00142  0.0000E+00  0.6088E-08  0.4663E-12  0.2683E-04  0.0000E+00 -0.1587E+12
   -2.405749    4.00208  0.0000E+00  0.6070E-08  0.5250E-12  0.2292E-04  0.0000E+00 -0.1988E+12
   -2.474482    4.00286  0.0000E+00  0.5993E-08  0.6168E-12  0.1816E-04  0.0000E+00 -0.2739E+12
   -2.543215    4.00389  0.0000E+00  0.5813E-08  0.7875E-12  0.1250E-04  0.0000E+00 -0.4541E+12
   -2.611948    4.00546  0.0000E+00  0.5379E-08  0.1229E-11  0.6102E-05  0.0000E+00 -0.1182E+13
   -2.680679    4.00906  0.0000E+00  0.3811E-08  0.3809E-11  0.8364E-06  0.0000E+00 -0.1911E+14
   -2.749410    4.04070  0.0000E+00  0.0000E+00  0.0000E+00  0.0000E+00  0.0000E+00  0.0000E+00
