 1 - depth, m
 2 - temperature, C
 3 - salinity, kg/kg
 4 - turbulent kinetic energy, m**2/s**2
 5 - dissipation rate, m**2/s**3
 6 - kinematic heat conductance, m**2/s
 7 - modulus of horizontal velocity, m/s
 8 - Richardson number, n/d
   -0.000000    0.00000  0.0000E+00  0.1995E-12  0.3000E-16  0.1000E-09  0.0000E+00  0.1574E+17
   -0.068764    0.24404  0.0000E+00  0.3903E-12  0.3365E-16  0.1000E-09  0.0000E+00  0.1427E+17
   -0.137529    0.48100  0.0000E+00  0.8001E-12  0.5464E-16  0.1000E-09  0.0000E+00  0.1292E+17
   -0.206295    0.71127  0.0000E+00  0.1568E-11  0.9831E-16  0.1000E-09  0.0000E+00  0.1168E+17
   -0.275061    0.93518  0.0000E+00  0.2977E-11  0.1795E-15  0.1000E-09  0.0000E+00  0.1057E+17
   -0.343828    1.15383  0.0000E+00  0.5550E-11  0.3260E-15  0.1000E-09  0.0000E+00  0.9544E+16
   -0.412595    1.36772  0.0000E+00  0.1024E-10  0.5885E-15  0.1000E-09  0.0000E+00  0.8593E+16
   -0.481363    1.57726  0.0000E+00  0.1874E-10  0.1056E-14  0.1000E-09  0.0000E+00  0.7703E+16
   -0.550131    1.78269  0.0000E+00  0.3415E-10  0.1886E-14  0.1000E-09  0.0000E+00  0.6858E+16
   -0.618900    1.98395  0.0000E+00  0.6193E-10  0.3354E-14  0.1000E-09  0.0000E+00  0.6071E+16
   -0.687669    2.18140  0.0000E+00  0.1117E-09  0.5937E-14  0.1000E-09  0.0000E+00  0.5410E+16
   -0.756438    2.37832  0.0000E+00  0.2006E-09  0.1046E-13  0.1000E-09  0.0000E+00  0.4808E+16
   -0.825208    2.57690  0.0000E+00  0.3583E-09  0.1833E-13  0.1000E-09  0.0000E+00  0.4201E+16
   -0.893978    2.77751  0.0000E+00  0.6370E-09  0.3198E-13  0.1000E-09  0.0000E+00  0.3581E+16
   -0.962748    2.98035  0.0000E+00  0.1127E-08  0.5555E-13  0.1000E-09  0.0000E+00  0.2943E+16
   -1.031519    3.18535  0.0000E+00  0.1983E-08  0.9595E-13  0.2141E-09  0.0000E+00  0.2281E+16
   -1.100289    3.39169  0.0000E+00  0.3467E-08  0.1647E-12  0.5232E-09  0.0000E+00  0.1603E+16
   -1.169060    3.59831  0.0000E+00  0.6028E-08  0.2814E-12  0.1556E-08  0.0000E+00  0.9206E+15
   -1.237831    3.80313  0.0000E+00  0.1039E-07  0.4768E-12  0.9245E-08  0.0000E+00  0.2626E+15
   -1.306602    3.99593  0.0000E+00  0.1075E-07  0.4944E-12  0.8071E-04  0.0000E+00 -0.4602E+11
   -1.375373    3.99623  0.0000E+00  0.1092E-07  0.5040E-12  0.8225E-04  0.0000E+00 -0.5399E+11
   -1.444143    3.99657  0.0000E+00  0.1107E-07  0.5142E-12  0.8429E-04  0.0000E+00 -0.5556E+11
   -1.512914    3.99691  0.0000E+00  0.1120E-07  0.5252E-12  0.8629E-04  0.0000E+00 -0.5656E+11
   -1.581685    3.99725  0.0000E+00  0.1133E-07  0.5371E-12  0.8825E-04  0.0000E+00 -0.5741E+11
   -1.650456    3.99758  0.0000E+00  0.1144E-07  0.5501E-12  0.8993E-04  0.0000E+00 -0.5836E+11
   -1.719226    3.99790  0.0000E+00  0.1154E-07  0.5644E-12  0.9061E-04  0.0000E+00 -0.5992E+11
   -1.787997    3.99823  0.0000E+00  0.1163E-07  0.5805E-12  0.9046E-04  0.0000E+00 -0.6206E+11
   -1.856767    3.99856  0.0000E+00  0.1171E-07  0.5987E-12  0.8940E-04  0.0000E+00 -0.6492E+11
   -1.925537    3.99889  0.0000E+00  0.1178E-07  0.6197E-12  0.8757E-04  0.0000E+00 -0.6856E+11
   -1.994307    3.99923  0.0000E+00  0.1184E-07  0.6444E-12  0.8492E-04  0.0000E+00 -0.7322E+11
   -2.063076    3.99959  0.0000E+00  0.1188E-07  0.6739E-12  0.7907E-04  0.0000E+00 -0.8105E+11
   -2.131845    3.99997  0.0000E+00  0.1190E-07  0.7095E-12  0.7177E-04  0.0000E+00 -0.9213E+11
   -2.200614    4.00040  0.0000E+00  0.1190E-07  0.7529E-12  0.6450E-04  0.0000E+00 -0.1060E+12
   -2.269382    4.00087  0.0000E+00  0.1187E-07  0.8076E-12  0.5776E-04  0.0000E+00 -0.1230E+12
   -2.338150    4.00140  0.0000E+00  0.1180E-07  0.8809E-12  0.5069E-04  0.0000E+00 -0.1464E+12
   -2.406917    4.00201  0.0000E+00  0.1168E-07  0.9849E-12  0.4268E-04  0.0000E+00 -0.1827E+12
   -2.475684    4.00273  0.0000E+00  0.1147E-07  0.1146E-11  0.3350E-04  0.0000E+00 -0.2473E+12
   -2.544450    4.00367  0.0000E+00  0.1110E-07  0.1440E-11  0.2300E-04  0.0000E+00 -0.3921E+12
   -2.613216    4.00505  0.0000E+00  0.1032E-07  0.2180E-11  0.1141E-04  0.0000E+00 -0.9144E+12
   -2.681981    4.00794  0.0000E+00  0.6976E-08  0.7191E-11  0.1228E-05  0.0000E+00 -0.1530E+14
   -2.750745    4.03552  0.0000E+00  0.0000E+00  0.0000E+00  0.0000E+00  0.0000E+00  0.0000E+00
