 1 - depth, m
 2 - temperature, C
 3 - salinity, kg/kg
 4 - turbulent kinetic energy, m**2/s**2
 5 - dissipation rate, m**2/s**3
 6 - kinematic heat conductance, m**2/s
 7 - modulus of horizontal velocity, m/s
 8 - Richardson number, n/d
   -0.000000    0.00000  0.0000E+00  0.1219E-13  0.7603E-17  0.1000E-09  0.0000E+00  0.1471E+17
   -0.068756    0.22757  0.0000E+00  0.1219E-13  0.7603E-17  0.1000E-09  0.0000E+00  0.1293E+17
   -0.137512    0.44043  0.0000E+00  0.1219E-13  0.7603E-17  0.1000E-09  0.0000E+00  0.1119E+17
   -0.206269    0.63621  0.0000E+00  0.1219E-13  0.7603E-17  0.1000E-09  0.0000E+00  0.9523E+16
   -0.275027    0.81297  0.0000E+00  0.1219E-13  0.7603E-17  0.1000E-09  0.0000E+00  0.8123E+16
   -0.343785    0.97238  0.0000E+00  0.1219E-13  0.7603E-17  0.1000E-09  0.0000E+00  0.6866E+16
   -0.412543    1.11437  0.0000E+00  0.1219E-13  0.7603E-17  0.1000E-09  0.0000E+00  0.5742E+16
   -0.481302    1.23904  0.0000E+00  0.1219E-13  0.7603E-17  0.1000E-09  0.0000E+00  0.4740E+16
   -0.550062    1.34659  0.0000E+00  0.1219E-13  0.7603E-17  0.1000E-09  0.0000E+00  0.3807E+16
   -0.618822    1.43640  0.0000E+00  0.1219E-13  0.7603E-17  0.1000E-09  0.0000E+00  0.3027E+16
   -0.687582    1.51025  0.0000E+00  0.1219E-13  0.7603E-17  0.1000E-09  0.0000E+00  0.2611E+16
   -0.756343    1.57583  0.0000E+00  0.1219E-13  0.7603E-17  0.1000E-09  0.0000E+00  0.2458E+16
   -0.825104    1.63932  0.0000E+00  0.1219E-13  0.7603E-17  0.1000E-09  0.0000E+00  0.2427E+16
   -0.893865    1.70380  0.0000E+00  0.1219E-13  0.7603E-17  0.1000E-09  0.0000E+00  0.2502E+16
   -0.962627    1.77233  0.0000E+00  0.4400E-13  0.8591E-17  0.1000E-09  0.0000E+00  0.2661E+16
   -1.031388    1.84772  0.0000E+00  0.1316E-12  0.1967E-16  0.1000E-09  0.0000E+00  0.2913E+16
   -1.100150    1.93352  0.0000E+00  0.3468E-12  0.4854E-16  0.1000E-09  0.0000E+00  0.3178E+16
   -1.168912    2.03157  0.0000E+00  0.8772E-12  0.1186E-15  0.1000E-09  0.0000E+00  0.3413E+16
   -1.237674    2.14285  0.0000E+00  0.2178E-11  0.2858E-15  0.1000E-09  0.0000E+00  0.3577E+16
   -1.306436    2.26745  0.0000E+00  0.5337E-11  0.6806E-15  0.1000E-09  0.0000E+00  0.3639E+16
   -1.375199    2.40454  0.0000E+00  0.1293E-10  0.1603E-14  0.1000E-09  0.0000E+00  0.3666E+16
   -1.443961    2.55623  0.0000E+00  0.3096E-10  0.3734E-14  0.1000E-09  0.0000E+00  0.3564E+16
   -1.512723    2.72145  0.0000E+00  0.7346E-10  0.8619E-14  0.1000E-09  0.0000E+00  0.3318E+16
   -1.581485    2.89810  0.0000E+00  0.1734E-09  0.1979E-13  0.1000E-09  0.0000E+00  0.2939E+16
   -1.650247    3.08358  0.0000E+00  0.4054E-09  0.4507E-13  0.1000E-09  0.0000E+00  0.2453E+16
   -1.719009    3.27516  0.0000E+00  0.9394E-09  0.1017E-12  0.2730E-09  0.0000E+00  0.1896E+16
   -1.787771    3.47050  0.0000E+00  0.2156E-08  0.2273E-12  0.8911E-09  0.0000E+00  0.1298E+16
   -1.856532    3.66787  0.0000E+00  0.4894E-08  0.5031E-12  0.3767E-08  0.0000E+00  0.6795E+15
   -1.925293    3.86398  0.0000E+00  0.1073E-07  0.1079E-11  0.4945E-07  0.0000E+00  0.1108E+15
   -1.994054    4.01534  0.0000E+00  0.1191E-07  0.1203E-11  0.4667E-04  0.0000E+00 -0.2734E+12
   -2.062815    4.01594  0.0000E+00  0.1241E-07  0.1271E-11  0.4647E-04  0.0000E+00 -0.2984E+12
   -2.131575    4.01657  0.0000E+00  0.1282E-07  0.1345E-11  0.4591E-04  0.0000E+00 -0.3130E+12
   -2.200335    4.01723  0.0000E+00  0.1315E-07  0.1430E-11  0.4444E-04  0.0000E+00 -0.3339E+12
   -2.269095    4.01791  0.0000E+00  0.1339E-07  0.1531E-11  0.4211E-04  0.0000E+00 -0.3659E+12
   -2.337854    4.01864  0.0000E+00  0.1355E-07  0.1664E-11  0.3868E-04  0.0000E+00 -0.4165E+12
   -2.406613    4.01945  0.0000E+00  0.1361E-07  0.1848E-11  0.3401E-04  0.0000E+00 -0.5003E+12
   -2.475371    4.02040  0.0000E+00  0.1355E-07  0.2130E-11  0.2795E-04  0.0000E+00 -0.6543E+12
   -2.544128    4.02160  0.0000E+00  0.1328E-07  0.2640E-11  0.2034E-04  0.0000E+00 -0.1006E+13
   -2.612885    4.02338  0.0000E+00  0.1254E-07  0.3897E-11  0.1101E-04  0.0000E+00 -0.2276E+13
   -2.681642    4.02711  0.0000E+00  0.9368E-08  0.1152E-10  0.1677E-05  0.0000E+00 -0.2908E+14
   -2.750397    4.05966  0.0000E+00  0.0000E+00  0.0000E+00  0.0000E+00  0.0000E+00  0.0000E+00
