 1 - depth, m
 2 - temperature, C
 3 - salinity, kg/kg
 4 - turbulent kinetic energy, m**2/s**2
 5 - dissipation rate, m**2/s**3
 6 - kinematic heat conductance, m**2/s
 7 - modulus of horizontal velocity, m/s
 8 - Richardson number, n/d
   -0.000000    0.00000  0.0000E+00  0.1256E-07  0.4579E-10  0.2985E-08  0.0000E+00  0.6321E+17
   -0.068741    1.11555  0.0000E+00  0.1413E-06  0.4615E-10  0.5529E-08  0.0000E+00  0.3328E+17
   -0.137484    2.01572  0.0000E+00  0.4004E-06  0.1119E-09  0.4447E-04  0.0000E+00  0.1504E+17
   -0.206226    2.75395  0.0000E+00  0.5660E-06  0.1560E-09  0.3822E-03  0.0000E+00  0.6199E+16
   -0.274969    3.13843  0.0000E+00  0.6974E-06  0.1919E-09  0.5833E-03  0.0000E+00  0.3151E+16
   -0.343713    3.37552  0.0000E+00  0.8152E-06  0.2248E-09  0.7357E-03  0.0000E+00  0.2054E+16
   -0.412458    3.55498  0.0000E+00  0.9283E-06  0.2570E-09  0.8726E-03  0.0000E+00  0.1740E+16
   -0.481202    3.72179  0.0000E+00  0.1041E-05  0.2894E-09  0.1001E-02  0.0000E+00  0.1693E+16
   -0.549948    3.88905  0.0000E+00  0.1150E-05  0.3215E-09  0.1122E-02  0.0000E+00  0.1598E+16
   -0.618693    4.05934  0.0000E+00  0.1244E-05  0.3496E-09  0.1256E-02  0.0000E+00  0.1170E+16
   -0.687440    4.21113  0.0000E+00  0.1283E-05  0.3615E-09  0.1375E-02  0.0000E+00  0.1860E+15
   -0.756186    4.26763  0.0000E+00  0.1285E-05  0.3638E-09  0.1438E-02  0.0000E+00 -0.2248E+13
   -0.824933    4.26817  0.0000E+00  0.1288E-05  0.3663E-09  0.1427E-02  0.0000E+00 -0.2261E+13
   -0.893680    4.26873  0.0000E+00  0.1290E-05  0.3692E-09  0.1413E-02  0.0000E+00 -0.2248E+13
   -0.962427    4.26927  0.0000E+00  0.1291E-05  0.3724E-09  0.1401E-02  0.0000E+00 -0.2263E+13
   -1.031174    4.26982  0.0000E+00  0.1292E-05  0.3760E-09  0.1388E-02  0.0000E+00 -0.2291E+13
   -1.099922    4.27037  0.0000E+00  0.1293E-05  0.3800E-09  0.1372E-02  0.0000E+00 -0.2324E+13
   -1.168670    4.27092  0.0000E+00  0.1294E-05  0.3844E-09  0.1356E-02  0.0000E+00 -0.2371E+13
   -1.237418    4.27148  0.0000E+00  0.1294E-05  0.3893E-09  0.1338E-02  0.0000E+00 -0.2419E+13
   -1.306165    4.27205  0.0000E+00  0.1294E-05  0.3947E-09  0.1318E-02  0.0000E+00 -0.2482E+13
   -1.374913    4.27263  0.0000E+00  0.1294E-05  0.4006E-09  0.1297E-02  0.0000E+00 -0.2538E+13
   -1.443661    4.27322  0.0000E+00  0.1293E-05  0.4072E-09  0.1273E-02  0.0000E+00 -0.2608E+13
   -1.512409    4.27382  0.0000E+00  0.1291E-05  0.4144E-09  0.1248E-02  0.0000E+00 -0.2680E+13
   -1.581157    4.27443  0.0000E+00  0.1289E-05  0.4226E-09  0.1220E-02  0.0000E+00 -0.2762E+13
   -1.649905    4.27506  0.0000E+00  0.1287E-05  0.4318E-09  0.1189E-02  0.0000E+00 -0.2846E+13
   -1.718652    4.27570  0.0000E+00  0.1284E-05  0.4422E-09  0.1156E-02  0.0000E+00 -0.2953E+13
   -1.787400    4.27637  0.0000E+00  0.1281E-05  0.4540E-09  0.1120E-02  0.0000E+00 -0.3065E+13
   -1.856147    4.27705  0.0000E+00  0.1277E-05  0.4675E-09  0.1082E-02  0.0000E+00 -0.3203E+13
   -1.924894    4.27777  0.0000E+00  0.1272E-05  0.4831E-09  0.1041E-02  0.0000E+00 -0.3352E+13
   -1.993641    4.27852  0.0000E+00  0.1266E-05  0.5012E-09  0.9968E-03  0.0000E+00 -0.3540E+13
   -2.062387    4.27930  0.0000E+00  0.1260E-05  0.5224E-09  0.9486E-03  0.0000E+00 -0.3732E+13
   -2.131133    4.28013  0.0000E+00  0.1253E-05  0.5475E-09  0.8981E-03  0.0000E+00 -0.3987E+13
   -2.199879    4.28100  0.0000E+00  0.1244E-05  0.5775E-09  0.8443E-03  0.0000E+00 -0.4287E+13
   -2.268624    4.28194  0.0000E+00  0.1235E-05  0.6146E-09  0.7850E-03  0.0000E+00 -0.4646E+13
   -2.337369    4.28295  0.0000E+00  0.1223E-05  0.6632E-09  0.7197E-03  0.0000E+00 -0.5110E+13
   -2.406113    4.28406  0.0000E+00  0.1209E-05  0.7291E-09  0.6464E-03  0.0000E+00 -0.5823E+13
   -2.474857    4.28531  0.0000E+00  0.1191E-05  0.8244E-09  0.5625E-03  0.0000E+00 -0.6862E+13
   -2.543601    4.28678  0.0000E+00  0.1167E-05  0.9787E-09  0.4779E-03  0.0000E+00 -0.8290E+13
   -2.612343    4.28854  0.0000E+00  0.1121E-05  0.1348E-08  0.2771E-03  0.0000E+00 -0.1453E+14
   -2.681085    4.29165  0.0000E+00  0.7008E-06  0.6162E-08  0.1118E-04  0.0000E+00 -0.4097E+15
   -2.749827    4.36831  0.0000E+00  0.0000E+00  0.0000E+00  0.0000E+00  0.0000E+00  0.0000E+00
