 1 - depth, m
 2 - temperature, C
 3 - salinity, kg/kg
 4 - turbulent kinetic energy, m**2/s**2
 5 - dissipation rate, m**2/s**3
 6 - kinematic heat conductance, m**2/s
 7 - modulus of horizontal velocity, m/s
 8 - Richardson number, n/d
   -0.000000    0.00000  0.0000E+00  0.1219E-13  0.7603E-17  0.1000E-09  0.0000E+00  0.1280E+17
   -0.068738    0.19723  0.0000E+00  0.1219E-13  0.7603E-17  0.1000E-09  0.0000E+00  0.1192E+17
   -0.137476    0.39134  0.0000E+00  0.1219E-13  0.7603E-17  0.1000E-09  0.0000E+00  0.1106E+17
   -0.206215    0.58198  0.0000E+00  0.1219E-13  0.7603E-17  0.1000E-09  0.0000E+00  0.1023E+17
   -0.274954    0.76881  0.0000E+00  0.1219E-13  0.7603E-17  0.1000E-09  0.0000E+00  0.9449E+16
   -0.343695    0.95223  0.0000E+00  0.1219E-13  0.7603E-17  0.1000E-09  0.0000E+00  0.8703E+16
   -0.412435    1.13213  0.0000E+00  0.1219E-13  0.7603E-17  0.1000E-09  0.0000E+00  0.7985E+16
   -0.481176    1.30834  0.0000E+00  0.1219E-13  0.7603E-17  0.1000E-09  0.0000E+00  0.7291E+16
   -0.549918    1.48056  0.0000E+00  0.3993E-13  0.7603E-17  0.1000E-09  0.0000E+00  0.6612E+16
   -0.618660    1.64817  0.0000E+00  0.1170E-12  0.1171E-16  0.1000E-09  0.0000E+00  0.5968E+16
   -0.687402    1.81096  0.0000E+00  0.2709E-12  0.2291E-16  0.1000E-09  0.0000E+00  0.5413E+16
   -0.756145    1.97038  0.0000E+00  0.5752E-12  0.4595E-16  0.1000E-09  0.0000E+00  0.4913E+16
   -0.824887    2.12730  0.0000E+00  0.1181E-11  0.9149E-16  0.1000E-09  0.0000E+00  0.4432E+16
   -0.893631    2.28160  0.0000E+00  0.2389E-11  0.1805E-15  0.1000E-09  0.0000E+00  0.3969E+16
   -0.962374    2.43313  0.0000E+00  0.4784E-11  0.3532E-15  0.1000E-09  0.0000E+00  0.3525E+16
   -1.031118    2.58176  0.0000E+00  0.9494E-11  0.6855E-15  0.1000E-09  0.0000E+00  0.3106E+16
   -1.099862    2.72750  0.0000E+00  0.1868E-10  0.1320E-14  0.1000E-09  0.0000E+00  0.2705E+16
   -1.168606    2.87021  0.0000E+00  0.3651E-10  0.2523E-14  0.1000E-09  0.0000E+00  0.2325E+16
   -1.237350    3.00974  0.0000E+00  0.7085E-10  0.4791E-14  0.1000E-09  0.0000E+00  0.1966E+16
   -1.306094    3.14591  0.0000E+00  0.1366E-09  0.9041E-14  0.1000E-09  0.0000E+00  0.1628E+16
   -1.374838    3.27853  0.0000E+00  0.2617E-09  0.1696E-13  0.1000E-09  0.0000E+00  0.1326E+16
   -1.443582    3.40889  0.0000E+00  0.4981E-09  0.3160E-13  0.1545E-09  0.0000E+00  0.1041E+16
   -1.512327    3.53731  0.0000E+00  0.9435E-09  0.5863E-13  0.3882E-09  0.0000E+00  0.7686E+15
   -1.581071    3.66372  0.0000E+00  0.1784E-08  0.1086E-12  0.1087E-08  0.0000E+00  0.5083E+15
   -1.649815    3.78773  0.0000E+00  0.3353E-08  0.2000E-12  0.3901E-08  0.0000E+00  0.2609E+15
   -1.718558    3.90757  0.0000E+00  0.6159E-08  0.3609E-12  0.3941E-07  0.0000E+00  0.4657E+14
   -1.787302    4.00242  0.0000E+00  0.6646E-08  0.3909E-12  0.4430E-04  0.0000E+00 -0.9111E+11
   -1.856046    4.00278  0.0000E+00  0.6866E-08  0.4074E-12  0.4409E-04  0.0000E+00 -0.9991E+11
   -1.924789    4.00316  0.0000E+00  0.7056E-08  0.4252E-12  0.4405E-04  0.0000E+00 -0.1034E+12
   -1.993532    4.00355  0.0000E+00  0.7218E-08  0.4447E-12  0.4347E-04  0.0000E+00 -0.1077E+12
   -2.062274    4.00395  0.0000E+00  0.7351E-08  0.4667E-12  0.4236E-04  0.0000E+00 -0.1136E+12
   -2.131017    4.00435  0.0000E+00  0.7456E-08  0.4920E-12  0.4065E-04  0.0000E+00 -0.1218E+12
   -2.199759    4.00478  0.0000E+00  0.7532E-08  0.5221E-12  0.3834E-04  0.0000E+00 -0.1331E+12
   -2.268500    4.00523  0.0000E+00  0.7575E-08  0.5593E-12  0.3545E-04  0.0000E+00 -0.1494E+12
   -2.337241    4.00573  0.0000E+00  0.7582E-08  0.6090E-12  0.3177E-04  0.0000E+00 -0.1743E+12
   -2.405982    4.00629  0.0000E+00  0.7542E-08  0.6796E-12  0.2719E-04  0.0000E+00 -0.2151E+12
   -2.474722    4.00697  0.0000E+00  0.7434E-08  0.7897E-12  0.2164E-04  0.0000E+00 -0.2903E+12
   -2.543461    4.00785  0.0000E+00  0.7204E-08  0.9932E-12  0.1506E-04  0.0000E+00 -0.4667E+12
   -2.612200    4.00919  0.0000E+00  0.6674E-08  0.1513E-11  0.7512E-05  0.0000E+00 -0.1148E+13
   -2.680939    4.01220  0.0000E+00  0.4631E-08  0.4692E-11  0.9512E-06  0.0000E+00 -0.1839E+14
   -2.749676    4.04126  0.0000E+00  0.0000E+00  0.0000E+00  0.0000E+00  0.0000E+00  0.0000E+00
