 1 - depth, m
 2 - temperature, C
 3 - salinity, kg/kg
 4 - turbulent kinetic energy, m**2/s**2
 5 - dissipation rate, m**2/s**3
 6 - kinematic heat conductance, m**2/s
 7 - modulus of horizontal velocity, m/s
 8 - Richardson number, n/d
   -0.000000    0.00000  0.0000E+00  0.1219E-13  0.7603E-17  0.1000E-09  0.0000E+00  0.1412E+17
   -0.068746    0.21822  0.0000E+00  0.1390E-13  0.7603E-17  0.1000E-09  0.0000E+00  0.1318E+17
   -0.137492    0.43481  0.0000E+00  0.6438E-13  0.7604E-17  0.1000E-09  0.0000E+00  0.1221E+17
   -0.206239    0.64881  0.0000E+00  0.1649E-12  0.1197E-16  0.1000E-09  0.0000E+00  0.1125E+17
   -0.274986    0.85969  0.0000E+00  0.3444E-12  0.2159E-16  0.1000E-09  0.0000E+00  0.1034E+17
   -0.343734    1.06754  0.0000E+00  0.6649E-12  0.3943E-16  0.1000E-09  0.0000E+00  0.9455E+16
   -0.412483    1.27230  0.0000E+00  0.1243E-11  0.7148E-16  0.1000E-09  0.0000E+00  0.8608E+16
   -0.481232    1.47390  0.0000E+00  0.2288E-11  0.1285E-15  0.1000E-09  0.0000E+00  0.7791E+16
   -0.549981    1.67213  0.0000E+00  0.4177E-11  0.2297E-15  0.1000E-09  0.0000E+00  0.6997E+16
   -0.618731    1.86654  0.0000E+00  0.7579E-11  0.4082E-15  0.1000E-09  0.0000E+00  0.6235E+16
   -0.687481    2.05685  0.0000E+00  0.1367E-10  0.7216E-15  0.1000E-09  0.0000E+00  0.5526E+16
   -0.756232    2.24339  0.0000E+00  0.2452E-10  0.1269E-14  0.1000E-09  0.0000E+00  0.4858E+16
   -0.824982    2.42627  0.0000E+00  0.4374E-10  0.2219E-14  0.1000E-09  0.0000E+00  0.4219E+16
   -0.893734    2.60515  0.0000E+00  0.7761E-10  0.3860E-14  0.1000E-09  0.0000E+00  0.3612E+16
   -0.962485    2.77971  0.0000E+00  0.1370E-09  0.6680E-14  0.1000E-09  0.0000E+00  0.3040E+16
   -1.031237    2.94965  0.0000E+00  0.2402E-09  0.1149E-13  0.1000E-09  0.0000E+00  0.2508E+16
   -1.099988    3.11496  0.0000E+00  0.4185E-09  0.1964E-13  0.1000E-09  0.0000E+00  0.2014E+16
   -1.168740    3.27543  0.0000E+00  0.7251E-09  0.3337E-13  0.1091E-09  0.0000E+00  0.1557E+16
   -1.237492    3.43087  0.0000E+00  0.1250E-08  0.5643E-13  0.2524E-09  0.0000E+00  0.1138E+16
   -1.306244    3.58101  0.0000E+00  0.2142E-08  0.9492E-13  0.6375E-09  0.0000E+00  0.7583E+15
   -1.374996    3.72559  0.0000E+00  0.3651E-08  0.1588E-12  0.1926E-08  0.0000E+00  0.4199E+15
   -1.443749    3.86578  0.0000E+00  0.6161E-08  0.2631E-12  0.1185E-07  0.0000E+00  0.1134E+15
   -1.512501    3.99497  0.0000E+00  0.6469E-08  0.2770E-12  0.5451E-04  0.0000E+00 -0.4327E+11
   -1.581253    3.99529  0.0000E+00  0.6615E-08  0.2847E-12  0.5483E-04  0.0000E+00 -0.5010E+11
   -1.650005    3.99564  0.0000E+00  0.6747E-08  0.2931E-12  0.5562E-04  0.0000E+00 -0.5193E+11
   -1.718756    3.99599  0.0000E+00  0.6867E-08  0.3023E-12  0.5596E-04  0.0000E+00 -0.5363E+11
   -1.787508    3.99634  0.0000E+00  0.6974E-08  0.3124E-12  0.5583E-04  0.0000E+00 -0.5563E+11
   -1.856259    3.99669  0.0000E+00  0.7067E-08  0.3236E-12  0.5523E-04  0.0000E+00 -0.5810E+11
   -1.925010    3.99704  0.0000E+00  0.7148E-08  0.3361E-12  0.5411E-04  0.0000E+00 -0.6122E+11
   -1.993761    3.99740  0.0000E+00  0.7214E-08  0.3503E-12  0.5247E-04  0.0000E+00 -0.6516E+11
   -2.062512    3.99777  0.0000E+00  0.7264E-08  0.3667E-12  0.5029E-04  0.0000E+00 -0.7015E+11
   -2.131262    3.99815  0.0000E+00  0.7297E-08  0.3859E-12  0.4760E-04  0.0000E+00 -0.7653E+11
   -2.200012    3.99856  0.0000E+00  0.7311E-08  0.4089E-12  0.4436E-04  0.0000E+00 -0.8490E+11
   -2.268761    3.99899  0.0000E+00  0.7302E-08  0.4376E-12  0.4054E-04  0.0000E+00 -0.9641E+11
   -2.337510    3.99947  0.0000E+00  0.7263E-08  0.4759E-12  0.3589E-04  0.0000E+00 -0.1135E+12
   -2.406259    4.00001  0.0000E+00  0.7184E-08  0.5303E-12  0.3034E-04  0.0000E+00 -0.1408E+12
   -2.475007    4.00065  0.0000E+00  0.7044E-08  0.6151E-12  0.2382E-04  0.0000E+00 -0.1903E+12
   -2.543754    4.00147  0.0000E+00  0.6790E-08  0.7714E-12  0.1624E-04  0.0000E+00 -0.3034E+12
   -2.612501    4.00270  0.0000E+00  0.6245E-08  0.1172E-11  0.7832E-05  0.0000E+00 -0.7286E+12
   -2.681247    4.00533  0.0000E+00  0.4057E-08  0.3751E-11  0.8030E-06  0.0000E+00 -0.1251E+14
   -2.749993    4.03057  0.0000E+00  0.0000E+00  0.0000E+00  0.0000E+00  0.0000E+00  0.0000E+00
