 1 - depth, m
 2 - temperature, C
 3 - salinity, kg/kg
 4 - turbulent kinetic energy, m**2/s**2
 5 - dissipation rate, m**2/s**3
 6 - kinematic heat conductance, m**2/s
 7 - modulus of horizontal velocity, m/s
 8 - Richardson number, n/d
   -0.000000    0.00000  0.0000E+00  0.1306E-13  0.7603E-17  0.1000E-09  0.0000E+00  0.1482E+17
   -0.068748    0.22942  0.0000E+00  0.6115E-13  0.7605E-17  0.1000E-09  0.0000E+00  0.1372E+17
   -0.137498    0.45595  0.0000E+00  0.1592E-12  0.1253E-16  0.1000E-09  0.0000E+00  0.1265E+17
   -0.206247    0.67941  0.0000E+00  0.3400E-12  0.2347E-16  0.1000E-09  0.0000E+00  0.1161E+17
   -0.274998    0.89959  0.0000E+00  0.6749E-12  0.4430E-16  0.1000E-09  0.0000E+00  0.1063E+17
   -0.343748    1.11668  0.0000E+00  0.1298E-11  0.8276E-16  0.1000E-09  0.0000E+00  0.9680E+16
   -0.412500    1.33059  0.0000E+00  0.2460E-11  0.1532E-15  0.1000E-09  0.0000E+00  0.8766E+16
   -0.481252    1.54116  0.0000E+00  0.4620E-11  0.2817E-15  0.1000E-09  0.0000E+00  0.7884E+16
   -0.550004    1.74812  0.0000E+00  0.8626E-11  0.5151E-15  0.1000E-09  0.0000E+00  0.7027E+16
   -0.618757    1.95098  0.0000E+00  0.1602E-10  0.9370E-15  0.1000E-09  0.0000E+00  0.6207E+16
   -0.687510    2.14937  0.0000E+00  0.2958E-10  0.1695E-14  0.1000E-09  0.0000E+00  0.5446E+16
   -0.756263    2.34372  0.0000E+00  0.5430E-10  0.3050E-14  0.1000E-09  0.0000E+00  0.4730E+16
   -0.825017    2.53409  0.0000E+00  0.9914E-10  0.5459E-14  0.1000E-09  0.0000E+00  0.4048E+16
   -0.893771    2.72012  0.0000E+00  0.1800E-09  0.9718E-14  0.1000E-09  0.0000E+00  0.3402E+16
   -0.962525    2.90144  0.0000E+00  0.3252E-09  0.1721E-13  0.1000E-09  0.0000E+00  0.2796E+16
   -1.031280    3.07772  0.0000E+00  0.5835E-09  0.3029E-13  0.1000E-09  0.0000E+00  0.2237E+16
   -1.100034    3.24896  0.0000E+00  0.1040E-08  0.5297E-13  0.1568E-09  0.0000E+00  0.1719E+16
   -1.168789    3.41495  0.0000E+00  0.1844E-08  0.9211E-13  0.3768E-09  0.0000E+00  0.1244E+16
   -1.237544    3.57542  0.0000E+00  0.3250E-08  0.1593E-12  0.9988E-09  0.0000E+00  0.8120E+15
   -1.306299    3.72997  0.0000E+00  0.5693E-08  0.2739E-12  0.3301E-08  0.0000E+00  0.4224E+15
   -1.375054    3.87699  0.0000E+00  0.9810E-08  0.4639E-12  0.2571E-07  0.0000E+00  0.9189E+14
   -1.443809    4.00154  0.0000E+00  0.1014E-07  0.4802E-12  0.8231E-04  0.0000E+00 -0.5108E+11
   -1.512564    4.00175  0.0000E+00  0.1029E-07  0.4891E-12  0.8022E-04  0.0000E+00 -0.6072E+11
   -1.581319    4.00200  0.0000E+00  0.1042E-07  0.4987E-12  0.8149E-04  0.0000E+00 -0.6201E+11
   -1.650073    4.00225  0.0000E+00  0.1054E-07  0.5091E-12  0.8236E-04  0.0000E+00 -0.6280E+11
   -1.718828    4.00250  0.0000E+00  0.1065E-07  0.5206E-12  0.8288E-04  0.0000E+00 -0.6362E+11
   -1.787583    4.00275  0.0000E+00  0.1074E-07  0.5331E-12  0.8338E-04  0.0000E+00 -0.6438E+11
   -1.856337    4.00300  0.0000E+00  0.1081E-07  0.5471E-12  0.8269E-04  0.0000E+00 -0.6605E+11
   -1.925091    4.00325  0.0000E+00  0.1087E-07  0.5633E-12  0.8098E-04  0.0000E+00 -0.6863E+11
   -1.993845    4.00351  0.0000E+00  0.1092E-07  0.5824E-12  0.7789E-04  0.0000E+00 -0.7266E+11
   -2.062598    4.00377  0.0000E+00  0.1095E-07  0.6053E-12  0.7259E-04  0.0000E+00 -0.7921E+11
   -2.131351    4.00406  0.0000E+00  0.1095E-07  0.6330E-12  0.6624E-04  0.0000E+00 -0.8824E+11
   -2.200104    4.00438  0.0000E+00  0.1093E-07  0.6667E-12  0.6017E-04  0.0000E+00 -0.9897E+11
   -2.268856    4.00472  0.0000E+00  0.1089E-07  0.7094E-12  0.5428E-04  0.0000E+00 -0.1122E+12
   -2.337608    4.00511  0.0000E+00  0.1080E-07  0.7669E-12  0.4776E-04  0.0000E+00 -0.1309E+12
   -2.406359    4.00555  0.0000E+00  0.1066E-07  0.8491E-12  0.4024E-04  0.0000E+00 -0.1603E+12
   -2.475110    4.00607  0.0000E+00  0.1044E-07  0.9773E-12  0.3159E-04  0.0000E+00 -0.2125E+12
   -2.543860    4.00675  0.0000E+00  0.1007E-07  0.1213E-11  0.2168E-04  0.0000E+00 -0.3284E+12
   -2.612610    4.00775  0.0000E+00  0.9314E-08  0.1810E-11  0.1072E-04  0.0000E+00 -0.7393E+12
   -2.681359    4.00985  0.0000E+00  0.6065E-08  0.5922E-11  0.1048E-05  0.0000E+00 -0.1177E+14
   -2.750108    4.03166  0.0000E+00  0.0000E+00  0.0000E+00  0.0000E+00  0.0000E+00  0.0000E+00
