 1 - depth, m
 2 - temperature, C
 3 - salinity, kg/kg
 4 - turbulent kinetic energy, m**2/s**2
 5 - dissipation rate, m**2/s**3
 6 - kinematic heat conductance, m**2/s
 7 - modulus of horizontal velocity, m/s
 8 - Richardson number, n/d
   -0.000000    0.00000  0.0000E+00  0.1219E-13  0.7603E-17  0.1000E-09  0.0000E+00  0.9652E+16
   -0.068735    0.14772  0.0000E+00  0.1219E-13  0.7603E-17  0.1000E-09  0.0000E+00  0.9003E+16
   -0.137471    0.29118  0.0000E+00  0.1219E-13  0.7603E-17  0.1000E-09  0.0000E+00  0.8379E+16
   -0.206207    0.43024  0.0000E+00  0.1219E-13  0.7603E-17  0.1000E-09  0.0000E+00  0.7780E+16
   -0.274943    0.56472  0.0000E+00  0.1219E-13  0.7603E-17  0.1000E-09  0.0000E+00  0.7256E+16
   -0.343681    0.69540  0.0000E+00  0.1219E-13  0.7603E-17  0.1000E-09  0.0000E+00  0.6763E+16
   -0.412419    0.82233  0.0000E+00  0.1219E-13  0.7603E-17  0.1000E-09  0.0000E+00  0.6293E+16
   -0.481157    0.94545  0.0000E+00  0.1219E-13  0.7603E-17  0.1000E-09  0.0000E+00  0.5838E+16
   -0.549896    1.06456  0.0000E+00  0.1219E-13  0.7603E-17  0.1000E-09  0.0000E+00  0.5379E+16
   -0.618635    1.17900  0.0000E+00  0.1219E-13  0.7603E-17  0.1000E-09  0.0000E+00  0.4943E+16
   -0.687375    1.28866  0.0000E+00  0.1219E-13  0.7603E-17  0.1000E-09  0.0000E+00  0.4606E+16
   -0.756114    1.39520  0.0000E+00  0.1219E-13  0.7603E-17  0.1000E-09  0.0000E+00  0.4329E+16
   -0.824855    1.49968  0.0000E+00  0.1219E-13  0.7603E-17  0.1000E-09  0.0000E+00  0.4063E+16
   -0.893595    1.60207  0.0000E+00  0.1219E-13  0.7603E-17  0.1000E-09  0.0000E+00  0.3808E+16
   -0.962336    1.70237  0.0000E+00  0.1219E-13  0.7603E-17  0.1000E-09  0.0000E+00  0.3563E+16
   -1.031077    1.80055  0.0000E+00  0.1219E-13  0.7603E-17  0.1000E-09  0.0000E+00  0.3340E+16
   -1.099818    1.89692  0.0000E+00  0.1219E-13  0.7603E-17  0.1000E-09  0.0000E+00  0.3126E+16
   -1.168559    1.99147  0.0000E+00  0.1219E-13  0.7603E-17  0.1000E-09  0.0000E+00  0.2920E+16
   -1.237301    2.08420  0.0000E+00  0.1219E-13  0.7603E-17  0.1000E-09  0.0000E+00  0.2722E+16
   -1.306042    2.17505  0.0000E+00  0.1219E-13  0.7603E-17  0.1000E-09  0.0000E+00  0.2532E+16
   -1.374783    2.26398  0.0000E+00  0.1219E-13  0.7603E-17  0.1000E-09  0.0000E+00  0.2388E+16
   -1.443525    2.35243  0.0000E+00  0.1219E-13  0.7603E-17  0.1000E-09  0.0000E+00  0.2260E+16
   -1.512266    2.44089  0.0000E+00  0.1219E-13  0.7603E-17  0.1000E-09  0.0000E+00  0.2132E+16
   -1.581008    2.52941  0.0000E+00  0.1219E-13  0.7603E-17  0.1000E-09  0.0000E+00  0.2004E+16
   -1.649749    2.61797  0.0000E+00  0.1219E-13  0.7603E-17  0.1000E-09  0.0000E+00  0.1876E+16
   -1.718490    2.70653  0.0000E+00  0.1219E-13  0.7603E-17  0.1000E-09  0.0000E+00  0.1746E+16
   -1.787231    2.79499  0.0000E+00  0.1219E-13  0.7603E-17  0.1000E-09  0.0000E+00  0.1615E+16
   -1.855972    2.88325  0.0000E+00  0.1219E-13  0.7603E-17  0.1000E-09  0.0000E+00  0.1484E+16
   -1.924712    2.97119  0.0000E+00  0.1219E-13  0.7603E-17  0.1000E-09  0.0000E+00  0.1351E+16
   -1.993452    3.05863  0.0000E+00  0.1219E-13  0.7603E-17  0.1000E-09  0.0000E+00  0.1219E+16
   -2.062192    3.14540  0.0000E+00  0.1219E-13  0.7603E-17  0.1000E-09  0.0000E+00  0.1112E+16
   -2.130932    3.23335  0.0000E+00  0.1219E-13  0.7603E-17  0.1000E-09  0.0000E+00  0.1004E+16
   -2.199671    3.32283  0.0000E+00  0.1219E-13  0.7619E-17  0.1000E-09  0.0000E+00  0.8906E+15
   -2.268410    3.41395  0.0000E+00  0.3224E-13  0.2882E-16  0.1000E-09  0.0000E+00  0.7839E+15
   -2.337148    3.50846  0.0000E+00  0.2459E-12  0.2165E-15  0.1000E-09  0.0000E+00  0.6717E+15
   -2.405886    3.60793  0.0000E+00  0.1941E-11  0.1661E-14  0.1000E-09  0.0000E+00  0.5445E+15
   -2.474623    3.71427  0.0000E+00  0.1521E-10  0.1269E-13  0.1525E-09  0.0000E+00  0.3920E+15
   -2.543360    3.83098  0.0000E+00  0.1206E-09  0.9897E-13  0.2334E-08  0.0000E+00  0.1859E+15
   -2.612096    3.96548  0.0000E+00  0.9370E-09  0.7816E-12  0.2406E-06  0.0000E+00 -0.1289E+14
   -2.680832    4.03196  0.0000E+00  0.3442E-08  0.5133E-11  0.7544E-06  0.0000E+00 -0.5913E+14
   -2.749567    4.08450  0.0000E+00  0.0000E+00  0.0000E+00  0.0000E+00  0.0000E+00  0.0000E+00
