 1 - depth, m
 2 - temperature, C
 3 - salinity, kg/kg
 4 - turbulent kinetic energy, m**2/s**2
 5 - dissipation rate, m**2/s**3
 6 - kinematic heat conductance, m**2/s
 7 - modulus of horizontal velocity, m/s
 8 - Richardson number, n/d
   -0.000000    0.00000  0.0000E+00  0.2048E-12  0.3116E-16  0.1000E-09  0.0000E+00  0.1505E+17
   -0.068750    0.23308  0.0000E+00  0.4040E-12  0.3528E-16  0.1000E-09  0.0000E+00  0.1408E+17
   -0.137501    0.46602  0.0000E+00  0.8341E-12  0.5788E-16  0.1000E-09  0.0000E+00  0.1310E+17
   -0.206253    0.69848  0.0000E+00  0.1647E-11  0.1051E-15  0.1000E-09  0.0000E+00  0.1211E+17
   -0.275005    0.92999  0.0000E+00  0.3150E-11  0.1933E-15  0.1000E-09  0.0000E+00  0.1115E+17
   -0.343758    1.16068  0.0000E+00  0.5917E-11  0.3536E-15  0.1000E-09  0.0000E+00  0.1018E+17
   -0.412512    1.39010  0.0000E+00  0.1099E-10  0.6426E-15  0.1000E-09  0.0000E+00  0.9211E+16
   -0.481265    1.61766  0.0000E+00  0.2027E-10  0.1160E-14  0.1000E-09  0.0000E+00  0.8244E+16
   -0.550020    1.84261  0.0000E+00  0.3719E-10  0.2085E-14  0.1000E-09  0.0000E+00  0.7281E+16
   -0.618774    2.06388  0.0000E+00  0.6786E-10  0.3729E-14  0.1000E-09  0.0000E+00  0.6343E+16
   -0.687529    2.28070  0.0000E+00  0.1232E-09  0.6634E-14  0.1000E-09  0.0000E+00  0.5467E+16
   -0.756285    2.49343  0.0000E+00  0.2223E-09  0.1174E-13  0.1000E-09  0.0000E+00  0.4640E+16
   -0.825041    2.70206  0.0000E+00  0.3992E-09  0.2066E-13  0.1000E-09  0.0000E+00  0.3848E+16
   -0.893797    2.90598  0.0000E+00  0.7128E-09  0.3618E-13  0.1000E-09  0.0000E+00  0.3102E+16
   -0.962553    3.10469  0.0000E+00  0.1266E-08  0.6303E-13  0.1334E-09  0.0000E+00  0.2406E+16
   -1.031309    3.29787  0.0000E+00  0.2235E-08  0.1091E-12  0.3146E-09  0.0000E+00  0.1766E+16
   -1.100066    3.48569  0.0000E+00  0.3917E-08  0.1877E-12  0.8114E-09  0.0000E+00  0.1178E+16
   -1.168823    3.66812  0.0000E+00  0.6822E-08  0.3207E-12  0.2563E-08  0.0000E+00  0.6374E+15
   -1.237579    3.84423  0.0000E+00  0.1173E-07  0.5415E-12  0.1762E-07  0.0000E+00  0.1568E+15
   -1.306336    4.00053  0.0000E+00  0.1203E-07  0.5566E-12  0.9602E-04  0.0000E+00 -0.4483E+11
   -1.375093    4.00073  0.0000E+00  0.1218E-07  0.5648E-12  0.9495E-04  0.0000E+00 -0.5611E+11
   -1.443850    4.00098  0.0000E+00  0.1231E-07  0.5738E-12  0.9638E-04  0.0000E+00 -0.5754E+11
   -1.512607    4.00123  0.0000E+00  0.1243E-07  0.5834E-12  0.9881E-04  0.0000E+00 -0.5751E+11
   -1.581364    4.00147  0.0000E+00  0.1253E-07  0.5936E-12  0.1003E-03  0.0000E+00 -0.5779E+11
   -1.650121    4.00171  0.0000E+00  0.1262E-07  0.6047E-12  0.1014E-03  0.0000E+00 -0.5818E+11
   -1.718877    4.00195  0.0000E+00  0.1269E-07  0.6168E-12  0.1016E-03  0.0000E+00 -0.5907E+11
   -1.787634    4.00219  0.0000E+00  0.1275E-07  0.6301E-12  0.1009E-03  0.0000E+00 -0.6046E+11
   -1.856390    4.00243  0.0000E+00  0.1280E-07  0.6450E-12  0.9942E-04  0.0000E+00 -0.6239E+11
   -1.925146    4.00268  0.0000E+00  0.1284E-07  0.6625E-12  0.9747E-04  0.0000E+00 -0.6474E+11
   -1.993902    4.00293  0.0000E+00  0.1286E-07  0.6837E-12  0.9497E-04  0.0000E+00 -0.6764E+11
   -2.062657    4.00319  0.0000E+00  0.1287E-07  0.7100E-12  0.8895E-04  0.0000E+00 -0.7334E+11
   -2.131412    4.00346  0.0000E+00  0.1286E-07  0.7426E-12  0.7922E-04  0.0000E+00 -0.8369E+11
   -2.200167    4.00377  0.0000E+00  0.1282E-07  0.7829E-12  0.7006E-04  0.0000E+00 -0.9637E+11
   -2.268921    4.00412  0.0000E+00  0.1275E-07  0.8343E-12  0.6211E-04  0.0000E+00 -0.1111E+12
   -2.337675    4.00451  0.0000E+00  0.1264E-07  0.9038E-12  0.5421E-04  0.0000E+00 -0.1307E+12
   -2.406428    4.00497  0.0000E+00  0.1247E-07  0.1003E-11  0.4545E-04  0.0000E+00 -0.1609E+12
   -2.475181    4.00551  0.0000E+00  0.1221E-07  0.1158E-11  0.3553E-04  0.0000E+00 -0.2141E+12
   -2.543934    4.00621  0.0000E+00  0.1179E-07  0.1443E-11  0.2432E-04  0.0000E+00 -0.3316E+12
   -2.612685    4.00724  0.0000E+00  0.1094E-07  0.2162E-11  0.1206E-04  0.0000E+00 -0.7430E+12
   -2.681436    4.00940  0.0000E+00  0.7194E-08  0.7220E-11  0.1187E-05  0.0000E+00 -0.1187E+14
   -2.750187    4.03157  0.0000E+00  0.0000E+00  0.0000E+00  0.0000E+00  0.0000E+00  0.0000E+00
