 1 - depth, m
 2 - temperature, C
 3 - salinity, kg/kg
 4 - turbulent kinetic energy, m**2/s**2
 5 - dissipation rate, m**2/s**3
 6 - kinematic heat conductance, m**2/s
 7 - modulus of horizontal velocity, m/s
 8 - Richardson number, n/d
   -0.000000    0.00000  0.0000E+00  0.2628E-12  0.3998E-16  0.1000E-09  0.0000E+00  0.1490E+17
   -0.068735    0.23067  0.0000E+00  0.5177E-12  0.4104E-16  0.1000E-09  0.0000E+00  0.1392E+17
   -0.137471    0.46060  0.0000E+00  0.1041E-11  0.6141E-16  0.1000E-09  0.0000E+00  0.1293E+17
   -0.206207    0.68953  0.0000E+00  0.1968E-11  0.1037E-15  0.1000E-09  0.0000E+00  0.1195E+17
   -0.274944    0.91709  0.0000E+00  0.3574E-11  0.1789E-15  0.1000E-09  0.0000E+00  0.1100E+17
   -0.343682    1.14344  0.0000E+00  0.6339E-11  0.3078E-15  0.1000E-09  0.0000E+00  0.1005E+17
   -0.412420    1.36825  0.0000E+00  0.1109E-10  0.5257E-15  0.1000E-09  0.0000E+00  0.9109E+16
   -0.481158    1.59103  0.0000E+00  0.1923E-10  0.8918E-15  0.1000E-09  0.0000E+00  0.8176E+16
   -0.549897    1.81118  0.0000E+00  0.3313E-10  0.1505E-14  0.1000E-09  0.0000E+00  0.7251E+16
   -0.618637    2.02783  0.0000E+00  0.5677E-10  0.2525E-14  0.1000E-09  0.0000E+00  0.6355E+16
   -0.687377    2.24045  0.0000E+00  0.9668E-10  0.4214E-14  0.1000E-09  0.0000E+00  0.5522E+16
   -0.756117    2.44965  0.0000E+00  0.1637E-09  0.6991E-14  0.1000E-09  0.0000E+00  0.4735E+16
   -0.824857    2.65572  0.0000E+00  0.2755E-09  0.1153E-13  0.1000E-09  0.0000E+00  0.3979E+16
   -0.893598    2.85834  0.0000E+00  0.4610E-09  0.1891E-13  0.1000E-09  0.0000E+00  0.3258E+16
   -0.962339    3.05727  0.0000E+00  0.7668E-09  0.3083E-13  0.1000E-09  0.0000E+00  0.2575E+16
   -1.031080    3.25232  0.0000E+00  0.1267E-08  0.4992E-13  0.1316E-09  0.0000E+00  0.1933E+16
   -1.099821    3.44365  0.0000E+00  0.2078E-08  0.8027E-13  0.3080E-09  0.0000E+00  0.1328E+16
   -1.168563    3.63107  0.0000E+00  0.3385E-08  0.1282E-12  0.8607E-09  0.0000E+00  0.7595E+15
   -1.237304    3.81411  0.0000E+00  0.5472E-08  0.2032E-12  0.4469E-08  0.0000E+00  0.2326E+15
   -1.306046    3.98903  0.0000E+00  0.5760E-08  0.2143E-12  0.3890E-04  0.0000E+00 -0.2613E+11
   -1.374787    3.98968  0.0000E+00  0.5909E-08  0.2212E-12  0.4289E-04  0.0000E+00 -0.3193E+11
   -1.443529    3.99028  0.0000E+00  0.6052E-08  0.2288E-12  0.4627E-04  0.0000E+00 -0.3465E+11
   -1.512271    3.99082  0.0000E+00  0.6188E-08  0.2371E-12  0.4893E-04  0.0000E+00 -0.3695E+11
   -1.581012    3.99133  0.0000E+00  0.6318E-08  0.2462E-12  0.5094E-04  0.0000E+00 -0.3921E+11
   -1.649754    3.99181  0.0000E+00  0.6442E-08  0.2562E-12  0.5235E-04  0.0000E+00 -0.4159E+11
   -1.718495    3.99228  0.0000E+00  0.6559E-08  0.2671E-12  0.5319E-04  0.0000E+00 -0.4422E+11
   -1.787236    3.99274  0.0000E+00  0.6668E-08  0.2792E-12  0.5348E-04  0.0000E+00 -0.4720E+11
   -1.855977    3.99320  0.0000E+00  0.6768E-08  0.2925E-12  0.5324E-04  0.0000E+00 -0.5066E+11
   -1.924718    3.99366  0.0000E+00  0.6859E-08  0.3074E-12  0.5246E-04  0.0000E+00 -0.5474E+11
   -1.993458    3.99412  0.0000E+00  0.6938E-08  0.3241E-12  0.5115E-04  0.0000E+00 -0.5965E+11
   -2.062198    3.99459  0.0000E+00  0.7005E-08  0.3432E-12  0.4921E-04  0.0000E+00 -0.6564E+11
   -2.130938    3.99509  0.0000E+00  0.7056E-08  0.3654E-12  0.4669E-04  0.0000E+00 -0.7316E+11
   -2.199678    3.99561  0.0000E+00  0.7090E-08  0.3916E-12  0.4360E-04  0.0000E+00 -0.8289E+11
   -2.268417    3.99616  0.0000E+00  0.7103E-08  0.4239E-12  0.3988E-04  0.0000E+00 -0.9611E+11
   -2.337155    3.99677  0.0000E+00  0.7088E-08  0.4666E-12  0.3533E-04  0.0000E+00 -0.1156E+12
   -2.405893    3.99745  0.0000E+00  0.7036E-08  0.5266E-12  0.2986E-04  0.0000E+00 -0.1467E+12
   -2.474631    3.99826  0.0000E+00  0.6923E-08  0.6190E-12  0.2342E-04  0.0000E+00 -0.2031E+12
   -2.543368    3.99930  0.0000E+00  0.6700E-08  0.7880E-12  0.1594E-04  0.0000E+00 -0.3333E+12
   -2.612104    4.00085  0.0000E+00  0.6190E-08  0.1218E-11  0.7665E-05  0.0000E+00 -0.8329E+12
   -2.680840    4.00413  0.0000E+00  0.4130E-08  0.3924E-11  0.8406E-06  0.0000E+00 -0.1454E+14
   -2.749575    4.03293  0.0000E+00  0.0000E+00  0.0000E+00  0.0000E+00  0.0000E+00  0.0000E+00
