 1 - depth, m
 2 - temperature, C
 3 - salinity, kg/kg
 4 - turbulent kinetic energy, m**2/s**2
 5 - dissipation rate, m**2/s**3
 6 - kinematic heat conductance, m**2/s
 7 - modulus of horizontal velocity, m/s
 8 - Richardson number, n/d
   -0.000000    0.00000  0.0000E+00  0.1219E-13  0.7603E-17  0.1000E-09  0.0000E+00  0.1343E+17
   -0.068759    0.20721  0.0000E+00  0.1219E-13  0.7603E-17  0.1000E-09  0.0000E+00  0.1263E+17
   -0.137519    0.41379  0.0000E+00  0.4115E-13  0.7603E-17  0.1000E-09  0.0000E+00  0.1183E+17
   -0.206280    0.61943  0.0000E+00  0.1197E-12  0.1056E-16  0.1000E-09  0.0000E+00  0.1102E+17
   -0.275041    0.82379  0.0000E+00  0.2677E-12  0.1916E-16  0.1000E-09  0.0000E+00  0.1025E+17
   -0.343803    1.02711  0.0000E+00  0.5412E-12  0.3608E-16  0.1000E-09  0.0000E+00  0.9473E+16
   -0.412565    1.22910  0.0000E+00  0.1051E-11  0.6764E-16  0.1000E-09  0.0000E+00  0.8702E+16
   -0.481328    1.42939  0.0000E+00  0.2002E-11  0.1257E-15  0.1000E-09  0.0000E+00  0.7934E+16
   -0.550092    1.62743  0.0000E+00  0.3781E-11  0.2321E-15  0.1000E-09  0.0000E+00  0.7163E+16
   -0.618855    1.82242  0.0000E+00  0.7090E-11  0.4261E-15  0.1000E-09  0.0000E+00  0.6411E+16
   -0.687619    2.01384  0.0000E+00  0.1321E-10  0.7774E-15  0.1000E-09  0.0000E+00  0.5712E+16
   -0.756384    2.20221  0.0000E+00  0.2446E-10  0.1410E-14  0.1000E-09  0.0000E+00  0.5048E+16
   -0.825148    2.38766  0.0000E+00  0.4503E-10  0.2543E-14  0.1000E-09  0.0000E+00  0.4405E+16
   -0.893913    2.56973  0.0000E+00  0.8242E-10  0.4560E-14  0.1000E-09  0.0000E+00  0.3786E+16
   -0.962678    2.74797  0.0000E+00  0.1500E-09  0.8131E-14  0.1000E-09  0.0000E+00  0.3196E+16
   -1.031444    2.92194  0.0000E+00  0.2711E-09  0.1440E-13  0.1000E-09  0.0000E+00  0.2644E+16
   -1.100209    3.09158  0.0000E+00  0.4866E-09  0.2534E-13  0.1000E-09  0.0000E+00  0.2128E+16
   -1.168975    3.25665  0.0000E+00  0.8683E-09  0.4434E-13  0.1370E-09  0.0000E+00  0.1648E+16
   -1.237741    3.41697  0.0000E+00  0.1541E-08  0.7714E-13  0.3256E-09  0.0000E+00  0.1206E+16
   -1.306507    3.57236  0.0000E+00  0.2718E-08  0.1335E-12  0.8475E-09  0.0000E+00  0.8018E+15
   -1.375273    3.72262  0.0000E+00  0.4764E-08  0.2295E-12  0.2671E-08  0.0000E+00  0.4376E+15
   -1.444039    3.86865  0.0000E+00  0.8239E-08  0.3898E-12  0.1853E-07  0.0000E+00  0.1073E+15
   -1.512805    3.99903  0.0000E+00  0.8586E-08  0.4071E-12  0.6977E-04  0.0000E+00 -0.5346E+11
   -1.581570    3.99930  0.0000E+00  0.8745E-08  0.4165E-12  0.6798E-04  0.0000E+00 -0.6138E+11
   -1.650336    3.99960  0.0000E+00  0.8886E-08  0.4266E-12  0.6898E-04  0.0000E+00 -0.6275E+11
   -1.719102    3.99990  0.0000E+00  0.9011E-08  0.4375E-12  0.6960E-04  0.0000E+00 -0.6386E+11
   -1.787867    4.00019  0.0000E+00  0.9122E-08  0.4497E-12  0.6961E-04  0.0000E+00 -0.6536E+11
   -1.856632    4.00049  0.0000E+00  0.9219E-08  0.4635E-12  0.6869E-04  0.0000E+00 -0.6772E+11
   -1.925397    4.00079  0.0000E+00  0.9300E-08  0.4791E-12  0.6687E-04  0.0000E+00 -0.7113E+11
   -1.994162    4.00110  0.0000E+00  0.9366E-08  0.4972E-12  0.6409E-04  0.0000E+00 -0.7591E+11
   -2.062926    4.00143  0.0000E+00  0.9412E-08  0.5183E-12  0.6051E-04  0.0000E+00 -0.8216E+11
   -2.131690    4.00177  0.0000E+00  0.9438E-08  0.5434E-12  0.5655E-04  0.0000E+00 -0.8994E+11
   -2.200454    4.00214  0.0000E+00  0.9440E-08  0.5737E-12  0.5233E-04  0.0000E+00 -0.9959E+11
   -2.269217    4.00253  0.0000E+00  0.9414E-08  0.6116E-12  0.4766E-04  0.0000E+00 -0.1125E+12
   -2.337980    4.00297  0.0000E+00  0.9353E-08  0.6626E-12  0.4214E-04  0.0000E+00 -0.1315E+12
   -2.406743    4.00347  0.0000E+00  0.9243E-08  0.7353E-12  0.3562E-04  0.0000E+00 -0.1618E+12
   -2.475504    4.00406  0.0000E+00  0.9060E-08  0.8487E-12  0.2802E-04  0.0000E+00 -0.2162E+12
   -2.544266    4.00482  0.0000E+00  0.8740E-08  0.1058E-11  0.1925E-04  0.0000E+00 -0.3390E+12
   -2.613026    4.00596  0.0000E+00  0.8072E-08  0.1589E-11  0.9481E-05  0.0000E+00 -0.7870E+12
   -2.681786    4.00837  0.0000E+00  0.5296E-08  0.5134E-11  0.9750E-06  0.0000E+00 -0.1311E+14
   -2.750546    4.03279  0.0000E+00  0.0000E+00  0.0000E+00  0.0000E+00  0.0000E+00  0.0000E+00
