 1 - depth, m
 2 - temperature, C
 3 - salinity, kg/kg
 4 - turbulent kinetic energy, m**2/s**2
 5 - dissipation rate, m**2/s**3
 6 - kinematic heat conductance, m**2/s
 7 - modulus of horizontal velocity, m/s
 8 - Richardson number, n/d
   -0.000000    0.00000  0.0000E+00  0.1453E-11  0.3263E-15  0.1000E-09  0.0000E+00  0.1780E+17
   -0.068739    0.27724  0.0000E+00  0.3528E-11  0.3051E-15  0.1000E-09  0.0000E+00  0.1628E+17
   -0.137479    0.55171  0.0000E+00  0.7590E-11  0.4392E-15  0.1000E-09  0.0000E+00  0.1479E+17
   -0.206219    0.82294  0.0000E+00  0.1453E-10  0.7257E-15  0.1000E-09  0.0000E+00  0.1334E+17
   -0.274960    1.09051  0.0000E+00  0.2620E-10  0.1229E-14  0.1000E-09  0.0000E+00  0.1195E+17
   -0.343702    1.35453  0.0000E+00  0.4578E-10  0.2075E-14  0.1000E-09  0.0000E+00  0.1062E+17
   -0.412444    1.61477  0.0000E+00  0.7866E-10  0.3476E-14  0.1000E-09  0.0000E+00  0.9333E+16
   -0.481186    1.87093  0.0000E+00  0.1337E-09  0.5781E-14  0.1000E-09  0.0000E+00  0.8099E+16
   -0.549929    2.12264  0.0000E+00  0.2259E-09  0.9563E-14  0.1000E-09  0.0000E+00  0.6915E+16
   -0.618673    2.36929  0.0000E+00  0.3795E-09  0.1573E-13  0.1000E-09  0.0000E+00  0.5793E+16
   -0.687417    2.61058  0.0000E+00  0.6336E-09  0.2574E-13  0.1000E-09  0.0000E+00  0.4775E+16
   -0.756161    2.84830  0.0000E+00  0.1052E-08  0.4188E-13  0.1000E-09  0.0000E+00  0.3821E+16
   -0.824905    3.08350  0.0000E+00  0.1735E-08  0.6773E-13  0.1192E-09  0.0000E+00  0.2901E+16
   -0.893650    3.31602  0.0000E+00  0.2847E-08  0.1089E-12  0.2753E-09  0.0000E+00  0.2015E+16
   -0.962395    3.54547  0.0000E+00  0.4643E-08  0.1741E-12  0.7608E-09  0.0000E+00  0.1166E+16
   -1.031140    3.77121  0.0000E+00  0.7509E-08  0.2761E-12  0.3883E-08  0.0000E+00  0.3632E+15
   -1.099885    3.98899  0.0000E+00  0.7809E-08  0.2876E-12  0.5090E-04  0.0000E+00 -0.2508E+11
   -1.168631    3.98961  0.0000E+00  0.7966E-08  0.2947E-12  0.5592E-04  0.0000E+00 -0.3003E+11
   -1.237376    3.99018  0.0000E+00  0.8119E-08  0.3027E-12  0.6038E-04  0.0000E+00 -0.3249E+11
   -1.306122    3.99070  0.0000E+00  0.8267E-08  0.3115E-12  0.6412E-04  0.0000E+00 -0.3441E+11
   -1.374868    3.99119  0.0000E+00  0.8410E-08  0.3210E-12  0.6722E-04  0.0000E+00 -0.3619E+11
   -1.443613    3.99165  0.0000E+00  0.8545E-08  0.3312E-12  0.6975E-04  0.0000E+00 -0.3795E+11
   -1.512359    3.99209  0.0000E+00  0.8673E-08  0.3421E-12  0.7173E-04  0.0000E+00 -0.3979E+11
   -1.581104    3.99252  0.0000E+00  0.8795E-08  0.3540E-12  0.7306E-04  0.0000E+00 -0.4182E+11
   -1.649850    3.99294  0.0000E+00  0.8909E-08  0.3669E-12  0.7368E-04  0.0000E+00 -0.4416E+11
   -1.718595    3.99335  0.0000E+00  0.9016E-08  0.3810E-12  0.7368E-04  0.0000E+00 -0.4683E+11
   -1.787340    3.99377  0.0000E+00  0.9114E-08  0.3964E-12  0.7309E-04  0.0000E+00 -0.4993E+11
   -1.856085    3.99419  0.0000E+00  0.9204E-08  0.4136E-12  0.7193E-04  0.0000E+00 -0.5355E+11
   -1.924830    3.99461  0.0000E+00  0.9283E-08  0.4328E-12  0.7019E-04  0.0000E+00 -0.5786E+11
   -1.993574    3.99505  0.0000E+00  0.9351E-08  0.4548E-12  0.6785E-04  0.0000E+00 -0.6309E+11
   -2.062318    3.99550  0.0000E+00  0.9406E-08  0.4803E-12  0.6458E-04  0.0000E+00 -0.6964E+11
   -2.131062    3.99597  0.0000E+00  0.9446E-08  0.5103E-12  0.6027E-04  0.0000E+00 -0.7833E+11
   -2.199806    3.99648  0.0000E+00  0.9465E-08  0.5463E-12  0.5541E-04  0.0000E+00 -0.8957E+11
   -2.268549    3.99702  0.0000E+00  0.9461E-08  0.5908E-12  0.5020E-04  0.0000E+00 -0.1044E+12
   -2.337291    3.99763  0.0000E+00  0.9424E-08  0.6498E-12  0.4420E-04  0.0000E+00 -0.1257E+12
   -2.406033    3.99832  0.0000E+00  0.9343E-08  0.7329E-12  0.3721E-04  0.0000E+00 -0.1595E+12
   -2.474775    3.99914  0.0000E+00  0.9190E-08  0.8608E-12  0.2913E-04  0.0000E+00 -0.2202E+12
   -2.543516    4.00019  0.0000E+00  0.8903E-08  0.1094E-11  0.1987E-04  0.0000E+00 -0.3581E+12
   -2.612256    4.00175  0.0000E+00  0.8270E-08  0.1683E-11  0.9693E-05  0.0000E+00 -0.8710E+12
   -2.680996    4.00501  0.0000E+00  0.5569E-08  0.5557E-11  0.1048E-05  0.0000E+00 -0.1527E+14
   -2.749735    4.03425  0.0000E+00  0.0000E+00  0.0000E+00  0.0000E+00  0.0000E+00  0.0000E+00
