 1 - depth, m
 2 - temperature, C
 3 - salinity, kg/kg
 4 - turbulent kinetic energy, m**2/s**2
 5 - dissipation rate, m**2/s**3
 6 - kinematic heat conductance, m**2/s
 7 - modulus of horizontal velocity, m/s
 8 - Richardson number, n/d
   -0.000000   -0.00000  0.6254E-09  0.1219E-13  0.7604E-17  0.1000E-09  0.0000E+00  0.8427E+16
   -0.068746    0.12864  0.1441E-09  0.1219E-13  0.7604E-17  0.1000E-09  0.0000E+00  0.8020E+16
   -0.137492    0.25547  0.9863E-10  0.1219E-13  0.7604E-17  0.1000E-09  0.0000E+00  0.7568E+16
   -0.206239    0.37948  0.8894E-10  0.1219E-13  0.7604E-17  0.1000E-09  0.0000E+00  0.7127E+16
   -0.274986    0.50057  0.8630E-10  0.1219E-13  0.7604E-17  0.1000E-09  0.0000E+00  0.6702E+16
   -0.343734    0.61864  0.8568E-10  0.1219E-13  0.7604E-17  0.1000E-09  0.0000E+00  0.6304E+16
   -0.412483    0.73385  0.8556E-10  0.1219E-13  0.7604E-17  0.1000E-09  0.0000E+00  0.5923E+16
   -0.481232    0.84615  0.8554E-10  0.1219E-13  0.7604E-17  0.1000E-09  0.0000E+00  0.5557E+16
   -0.549981    0.95550  0.8553E-10  0.1219E-13  0.7604E-17  0.1000E-09  0.0000E+00  0.5218E+16
   -0.618731    1.06209  0.8553E-10  0.1219E-13  0.7604E-17  0.1000E-09  0.0000E+00  0.4906E+16
   -0.687481    1.16617  0.8553E-10  0.1219E-13  0.7604E-17  0.1000E-09  0.0000E+00  0.4612E+16
   -0.756232    1.26782  0.8552E-10  0.1219E-13  0.7604E-17  0.1000E-09  0.0000E+00  0.4366E+16
   -0.824983    1.36785  0.8549E-10  0.1219E-13  0.7604E-17  0.1000E-09  0.0000E+00  0.4129E+16
   -0.893734    1.46628  0.8545E-10  0.1219E-13  0.7604E-17  0.1000E-09  0.0000E+00  0.3902E+16
   -0.962485    1.56313  0.8536E-10  0.1219E-13  0.7604E-17  0.1000E-09  0.0000E+00  0.3683E+16
   -1.031237    1.65839  0.8522E-10  0.1219E-13  0.7604E-17  0.1000E-09  0.0000E+00  0.3474E+16
   -1.099989    1.75210  0.8499E-10  0.1219E-13  0.7604E-17  0.1000E-09  0.0000E+00  0.3279E+16
   -1.168741    1.84446  0.8468E-10  0.1219E-13  0.7604E-17  0.1000E-09  0.0000E+00  0.3089E+16
   -1.237493    1.93543  0.8430E-10  0.1219E-13  0.7604E-17  0.1000E-09  0.0000E+00  0.2905E+16
   -1.306245    2.02494  0.8388E-10  0.1219E-13  0.7604E-17  0.1000E-09  0.0000E+00  0.2726E+16
   -1.374997    2.11294  0.8344E-10  0.1219E-13  0.7604E-17  0.1000E-09  0.0000E+00  0.2561E+16
   -1.443749    2.19969  0.8301E-10  0.1219E-13  0.7604E-17  0.1000E-09  0.0000E+00  0.2415E+16
   -1.512501    2.28569  0.8259E-10  0.1219E-13  0.7604E-17  0.1000E-09  0.0000E+00  0.2272E+16
   -1.581253    2.37086  0.8220E-10  0.1219E-13  0.7604E-17  0.1000E-09  0.0000E+00  0.2130E+16
   -1.650005    2.45513  0.8185E-10  0.1219E-13  0.7604E-17  0.1000E-09  0.0000E+00  0.1990E+16
   -1.718757    2.53842  0.8159E-10  0.1219E-13  0.7604E-17  0.1000E-09  0.0000E+00  0.1853E+16
   -1.787509    2.62061  0.8142E-10  0.1219E-13  0.7604E-17  0.1000E-09  0.0000E+00  0.1718E+16
   -1.856260    2.70163  0.8132E-10  0.1219E-13  0.7604E-17  0.1000E-09  0.0000E+00  0.1586E+16
   -1.925011    2.78135  0.8126E-10  0.1219E-13  0.7604E-17  0.1000E-09  0.0000E+00  0.1457E+16
   -1.993762    2.85968  0.8123E-10  0.1219E-13  0.7604E-17  0.1000E-09  0.0000E+00  0.1332E+16
   -2.062513    2.93649  0.8122E-10  0.1219E-13  0.7604E-17  0.1000E-09  0.0000E+00  0.1264E+16
   -2.131263    3.01506  0.8121E-10  0.1219E-13  0.7604E-17  0.1000E-09  0.0000E+00  0.1221E+16
   -2.200013    3.09766  0.8121E-10  0.1219E-13  0.7604E-17  0.1000E-09  0.0000E+00  0.1178E+16
   -2.268762    3.18546  0.8121E-10  0.1219E-13  0.7604E-17  0.1000E-09  0.0000E+00  0.1131E+16
   -2.337511    3.28014  0.8121E-10  0.1219E-13  0.1206E-16  0.1000E-09  0.0000E+00  0.1078E+16
   -2.406260    3.38421  0.8121E-10  0.6169E-13  0.9408E-16  0.1000E-09  0.0000E+00  0.1009E+16
   -2.475008    3.50170  0.8121E-10  0.7492E-12  0.1140E-14  0.1000E-09  0.0000E+00  0.9032E+15
   -2.543755    3.63948  0.8121E-10  0.9383E-11  0.1421E-13  0.1000E-09  0.0000E+00  0.6837E+15
   -2.612502    3.80362  0.8121E-10  0.1126E-09  0.1723E-12  0.2406E-08  0.0000E+00  0.2615E+15
   -2.681248    3.99326  0.8121E-10  0.1265E-08  0.2127E-11  0.2355E-06  0.0000E+00 -0.7312E+14
   -2.749994    4.08324  0.8121E-10  0.0000E+00  0.0000E+00  0.0000E+00  0.0000E+00  0.0000E+00
