 1 - depth, m
 2 - temperature, C
 3 - salinity, kg/kg
 4 - turbulent kinetic energy, m**2/s**2
 5 - dissipation rate, m**2/s**3
 6 - kinematic heat conductance, m**2/s
 7 - modulus of horizontal velocity, m/s
 8 - Richardson number, n/d
   -0.000000   -0.00000  0.9332E-09  0.3615E-11  0.1019E-14  0.1000E-09  0.0000E+00  0.2042E+17
   -0.068746    0.31997  0.1722E-09  0.1003E-10  0.9055E-15  0.1000E-09  0.0000E+00  0.1850E+17
   -0.137492    0.63804  0.8218E-10  0.2216E-10  0.1255E-14  0.1000E-09  0.0000E+00  0.1652E+17
   -0.206239    0.95178  0.7063E-10  0.4208E-10  0.2008E-14  0.1000E-09  0.0000E+00  0.1459E+17
   -0.274986    1.26045  0.7037E-10  0.7431E-10  0.3299E-14  0.1000E-09  0.0000E+00  0.1273E+17
   -0.343734    1.56336  0.7029E-10  0.1263E-09  0.5399E-14  0.1000E-09  0.0000E+00  0.1097E+17
   -0.412483    1.86003  0.7018E-10  0.2103E-09  0.8758E-14  0.1000E-09  0.0000E+00  0.9290E+16
   -0.481232    2.14997  0.6994E-10  0.3458E-09  0.1410E-13  0.1000E-09  0.0000E+00  0.7716E+16
   -0.549982    2.43279  0.6946E-10  0.5639E-09  0.2255E-13  0.1000E-09  0.0000E+00  0.6253E+16
   -0.618731    2.70844  0.6867E-10  0.9108E-09  0.3578E-13  0.1000E-09  0.0000E+00  0.4899E+16
   -0.687482    2.97694  0.6769E-10  0.1462E-08  0.5647E-13  0.1013E-09  0.0000E+00  0.3645E+16
   -0.756232    3.23801  0.6689E-10  0.2336E-08  0.8883E-13  0.1815E-09  0.0000E+00  0.2491E+16
   -0.824983    3.49135  0.6653E-10  0.3720E-08  0.1395E-12  0.4997E-09  0.0000E+00  0.1418E+16
   -0.893734    3.73195  0.6644E-10  0.5906E-08  0.2187E-12  0.2347E-08  0.0000E+00  0.4817E+15
   -0.962486    3.94521  0.6643E-10  0.7519E-08  0.2811E-12  0.1504E-04  0.0000E+00  0.2876E+14
   -1.031238    3.99122  0.6643E-10  0.7768E-08  0.2917E-12  0.5142E-04  0.0000E+00 -0.2822E+11
   -1.099989    3.99175  0.6643E-10  0.7937E-08  0.3002E-12  0.5717E-04  0.0000E+00 -0.3091E+11
   -1.168741    3.99222  0.6643E-10  0.8104E-08  0.3096E-12  0.6142E-04  0.0000E+00 -0.3324E+11
   -1.237493    3.99266  0.6643E-10  0.8268E-08  0.3200E-12  0.6483E-04  0.0000E+00 -0.3543E+11
   -1.306246    3.99307  0.6643E-10  0.8428E-08  0.3313E-12  0.6756E-04  0.0000E+00 -0.3762E+11
   -1.374998    3.99347  0.6643E-10  0.8584E-08  0.3434E-12  0.6980E-04  0.0000E+00 -0.3985E+11
   -1.443750    3.99386  0.6643E-10  0.8735E-08  0.3565E-12  0.7150E-04  0.0000E+00 -0.4219E+11
   -1.512502    3.99425  0.6643E-10  0.8879E-08  0.3705E-12  0.7268E-04  0.0000E+00 -0.4474E+11
   -1.581254    3.99463  0.6643E-10  0.9018E-08  0.3855E-12  0.7328E-04  0.0000E+00 -0.4760E+11
   -1.650006    3.99501  0.6643E-10  0.9148E-08  0.4017E-12  0.7342E-04  0.0000E+00 -0.5079E+11
   -1.718758    3.99540  0.6643E-10  0.9270E-08  0.4190E-12  0.7310E-04  0.0000E+00 -0.5438E+11
   -1.787510    3.99580  0.6643E-10  0.9382E-08  0.4378E-12  0.7239E-04  0.0000E+00 -0.5842E+11
   -1.856261    3.99620  0.6643E-10  0.9483E-08  0.4582E-12  0.7124E-04  0.0000E+00 -0.6305E+11
   -1.925012    3.99661  0.6643E-10  0.9571E-08  0.4805E-12  0.6970E-04  0.0000E+00 -0.6839E+11
   -1.993763    3.99704  0.6643E-10  0.9644E-08  0.5050E-12  0.6769E-04  0.0000E+00 -0.7468E+11
   -2.062514    3.99749  0.6643E-10  0.9700E-08  0.5327E-12  0.6510E-04  0.0000E+00 -0.8219E+11
   -2.131264    3.99797  0.6643E-10  0.9739E-08  0.5664E-12  0.6150E-04  0.0000E+00 -0.9213E+11
   -2.200014    3.99847  0.6643E-10  0.9755E-08  0.6086E-12  0.5674E-04  0.0000E+00 -0.1060E+12
   -2.268764    3.99903  0.6643E-10  0.9738E-08  0.6631E-12  0.5047E-04  0.0000E+00 -0.1269E+12
   -2.337513    3.99966  0.6643E-10  0.9676E-08  0.7361E-12  0.4358E-04  0.0000E+00 -0.1576E+12
   -2.406261    4.00040  0.6643E-10  0.9544E-08  0.8405E-12  0.3587E-04  0.0000E+00 -0.2078E+12
   -2.475009    4.00133  0.6643E-10  0.9292E-08  0.1005E-11  0.2704E-04  0.0000E+00 -0.3051E+12
   -2.543757    4.00258  0.6643E-10  0.8787E-08  0.1318E-11  0.1698E-04  0.0000E+00 -0.5560E+12
   -2.612504    4.00464  0.6643E-10  0.7696E-08  0.2066E-11  0.7283E-05  0.0000E+00 -0.1609E+13
   -2.681250    4.00959  0.6643E-10  0.3918E-08  0.6154E-11  0.5370E-06  0.0000E+00 -0.4618E+14
   -2.749996    4.06658  0.6643E-10  0.0000E+00  0.0000E+00  0.0000E+00  0.0000E+00  0.0000E+00
