 1 - depth, m
 2 - temperature, C
 3 - salinity, kg/kg
 4 - turbulent kinetic energy, m**2/s**2
 5 - dissipation rate, m**2/s**3
 6 - kinematic heat conductance, m**2/s
 7 - modulus of horizontal velocity, m/s
 8 - Richardson number, n/d
   -0.000000   -0.00000  0.2654E-09  0.1219E-13  0.7603E-17  0.1000E-09  0.0000E+00  0.1241E+17
   -0.068746    0.19107  0.1289E-09  0.1219E-13  0.7603E-17  0.1000E-09  0.0000E+00  0.1144E+17
   -0.137492    0.37676  0.8383E-10  0.1219E-13  0.7603E-17  0.1000E-09  0.0000E+00  0.1034E+17
   -0.206239    0.55374  0.7342E-10  0.1219E-13  0.7603E-17  0.1000E-09  0.0000E+00  0.9309E+16
   -0.274987    0.72180  0.7161E-10  0.1412E-13  0.7603E-17  0.1000E-09  0.0000E+00  0.8383E+16
   -0.343735    0.88136  0.7136E-10  0.6447E-13  0.1047E-16  0.1000E-09  0.0000E+00  0.7675E+16
   -0.412484    1.03541  0.7133E-10  0.1822E-12  0.2354E-16  0.1000E-09  0.0000E+00  0.7044E+16
   -0.481233    1.18464  0.7133E-10  0.4516E-12  0.5488E-16  0.1000E-09  0.0000E+00  0.6489E+16
   -0.549983    1.32987  0.7132E-10  0.1075E-11  0.1264E-15  0.1000E-09  0.0000E+00  0.6085E+16
   -0.618733    1.47403  0.7132E-10  0.2504E-11  0.2865E-15  0.1000E-09  0.0000E+00  0.5811E+16
   -0.687483    1.62026  0.7132E-10  0.5760E-11  0.6420E-15  0.1000E-09  0.0000E+00  0.5579E+16
   -0.756234    1.77008  0.7132E-10  0.1311E-10  0.1425E-14  0.1000E-09  0.0000E+00  0.5460E+16
   -0.824985    1.92765  0.7132E-10  0.2957E-10  0.3132E-14  0.1000E-09  0.0000E+00  0.5322E+16
   -0.893736    2.09427  0.7130E-10  0.6606E-10  0.6822E-14  0.1000E-09  0.0000E+00  0.5146E+16
   -0.962488    2.27121  0.7126E-10  0.1462E-09  0.1473E-13  0.1000E-09  0.0000E+00  0.4909E+16
   -1.031240    2.45958  0.7115E-10  0.3208E-09  0.3153E-13  0.1000E-09  0.0000E+00  0.4587E+16
   -1.099992    2.66024  0.7095E-10  0.7001E-09  0.6714E-13  0.1000E-09  0.0000E+00  0.4158E+16
   -1.168744    2.87371  0.7065E-10  0.1517E-08  0.1420E-12  0.2005E-09  0.0000E+00  0.3607E+16
   -1.237496    3.10051  0.7030E-10  0.3261E-08  0.2981E-12  0.5201E-09  0.0000E+00  0.2918E+16
   -1.306248    3.34087  0.6992E-10  0.6948E-08  0.6204E-12  0.1521E-08  0.0000E+00  0.2078E+16
   -1.375000    3.59453  0.6931E-10  0.1464E-07  0.1278E-11  0.6064E-08  0.0000E+00  0.1076E+16
   -1.443753    3.85727  0.6828E-10  0.2900E-07  0.2489E-11  0.1128E-06  0.0000E+00  0.1210E+15
   -1.512505    4.02441  0.6816E-10  0.2979E-07  0.2561E-11  0.1354E-03  0.0000E+00 -0.1864E+12
   -1.581257    4.02472  0.6816E-10  0.3015E-07  0.2601E-11  0.1327E-03  0.0000E+00 -0.1933E+12
   -1.650009    4.02504  0.6816E-10  0.3047E-07  0.2646E-11  0.1329E-03  0.0000E+00 -0.1962E+12
   -1.718761    4.02536  0.6816E-10  0.3074E-07  0.2695E-11  0.1328E-03  0.0000E+00 -0.1997E+12
   -1.787513    4.02569  0.6816E-10  0.3098E-07  0.2750E-11  0.1322E-03  0.0000E+00 -0.2041E+12
   -1.856265    4.02602  0.6816E-10  0.3117E-07  0.2810E-11  0.1311E-03  0.0000E+00 -0.2096E+12
   -1.925016    4.02635  0.6816E-10  0.3131E-07  0.2876E-11  0.1295E-03  0.0000E+00 -0.2162E+12
   -1.993767    4.02670  0.6816E-10  0.3141E-07  0.2950E-11  0.1273E-03  0.0000E+00 -0.2242E+12
   -2.062518    4.02705  0.6816E-10  0.3145E-07  0.3033E-11  0.1244E-03  0.0000E+00 -0.2333E+12
   -2.131268    4.02741  0.6816E-10  0.3144E-07  0.3132E-11  0.1207E-03  0.0000E+00 -0.2449E+12
   -2.200018    4.02779  0.6816E-10  0.3137E-07  0.3254E-11  0.1160E-03  0.0000E+00 -0.2598E+12
   -2.268768    4.02819  0.6816E-10  0.3123E-07  0.3411E-11  0.1102E-03  0.0000E+00 -0.2798E+12
   -2.337517    4.02862  0.6816E-10  0.3095E-07  0.3643E-11  0.9821E-04  0.0000E+00 -0.3228E+12
   -2.406266    4.02910  0.6816E-10  0.3044E-07  0.4011E-11  0.7596E-04  0.0000E+00 -0.4325E+12
   -2.475014    4.02974  0.6816E-10  0.2959E-07  0.4603E-11  0.5707E-04  0.0000E+00 -0.6051E+12
   -2.543762    4.03062  0.6816E-10  0.2808E-07  0.5703E-11  0.3784E-04  0.0000E+00 -0.9746E+12
   -2.612509    4.03201  0.6816E-10  0.2515E-07  0.8167E-11  0.1835E-04  0.0000E+00 -0.2196E+13
   -2.681255    4.03498  0.6816E-10  0.1266E-07  0.2379E-10  0.1196E-05  0.0000E+00 -0.4867E+14
   -2.750001    4.07898  0.6816E-10  0.0000E+00  0.0000E+00  0.0000E+00  0.0000E+00  0.0000E+00
