 1 - depth, m
 2 - temperature, C
 3 - salinity, kg/kg
 4 - turbulent kinetic energy, m**2/s**2
 5 - dissipation rate, m**2/s**3
 6 - kinematic heat conductance, m**2/s
 7 - modulus of horizontal velocity, m/s
 8 - Richardson number, n/d
   -0.000000   -0.00000  0.2577E-09  0.7598E-12  0.1481E-15  0.1000E-09  0.0000E+00  0.1674E+17
   -0.068746    0.26015  0.2969E-09  0.1703E-11  0.1472E-15  0.1000E-09  0.0000E+00  0.1537E+17
   -0.137492    0.51724  0.2163E-09  0.3606E-11  0.2218E-15  0.1000E-09  0.0000E+00  0.1396E+17
   -0.206240    0.76966  0.1280E-09  0.6970E-11  0.3790E-15  0.1000E-09  0.0000E+00  0.1263E+17
   -0.274987    1.01764  0.8685E-10  0.1283E-10  0.6620E-15  0.1000E-09  0.0000E+00  0.1139E+17
   -0.343736    1.26158  0.7399E-10  0.2301E-10  0.1151E-14  0.1000E-09  0.0000E+00  0.1024E+17
   -0.412484    1.50222  0.7080E-10  0.4064E-10  0.1988E-14  0.1000E-09  0.0000E+00  0.9144E+16
   -0.481234    1.73979  0.6993E-10  0.7116E-10  0.3408E-14  0.1000E-09  0.0000E+00  0.8098E+16
   -0.549984    1.97441  0.6937E-10  0.1237E-09  0.5808E-14  0.1000E-09  0.0000E+00  0.7106E+16
   -0.618734    2.20652  0.6871E-10  0.2131E-09  0.9810E-14  0.1000E-09  0.0000E+00  0.6161E+16
   -0.687484    2.43654  0.6796E-10  0.3646E-09  0.1646E-13  0.1000E-09  0.0000E+00  0.5247E+16
   -0.756235    2.66452  0.6729E-10  0.6200E-09  0.2745E-13  0.1000E-09  0.0000E+00  0.4377E+16
   -0.824986    2.89132  0.6682E-10  0.1048E-08  0.4553E-13  0.1000E-09  0.0000E+00  0.3524E+16
   -0.893738    3.11678  0.6658E-10  0.1763E-08  0.7510E-13  0.1422E-09  0.0000E+00  0.2689E+16
   -0.962489    3.34059  0.6647E-10  0.2948E-08  0.1232E-12  0.3349E-09  0.0000E+00  0.1873E+16
   -1.031241    3.56220  0.6644E-10  0.4901E-08  0.2010E-12  0.9450E-09  0.0000E+00  0.1083E+16
   -1.099993    3.78065  0.6643E-10  0.8111E-08  0.3265E-12  0.5016E-08  0.0000E+00  0.3318E+15
   -1.168746    3.99083  0.6643E-10  0.8432E-08  0.3401E-12  0.5830E-04  0.0000E+00 -0.3884E+11
   -1.237498    3.99135  0.6643E-10  0.8594E-08  0.3482E-12  0.6181E-04  0.0000E+00 -0.4044E+11
   -1.306250    3.99184  0.6643E-10  0.8750E-08  0.3574E-12  0.6481E-04  0.0000E+00 -0.4195E+11
   -1.375003    3.99231  0.6643E-10  0.8900E-08  0.3674E-12  0.6741E-04  0.0000E+00 -0.4345E+11
   -1.443755    3.99276  0.6643E-10  0.9042E-08  0.3784E-12  0.6956E-04  0.0000E+00 -0.4506E+11
   -1.512508    3.99319  0.6643E-10  0.9175E-08  0.3903E-12  0.7108E-04  0.0000E+00 -0.4689E+11
   -1.581260    3.99362  0.6643E-10  0.9299E-08  0.4032E-12  0.7193E-04  0.0000E+00 -0.4904E+11
   -1.650012    3.99403  0.6643E-10  0.9413E-08  0.4170E-12  0.7213E-04  0.0000E+00 -0.5157E+11
   -1.718764    3.99445  0.6643E-10  0.9516E-08  0.4320E-12  0.7182E-04  0.0000E+00 -0.5448E+11
   -1.787516    3.99487  0.6643E-10  0.9607E-08  0.4484E-12  0.7102E-04  0.0000E+00 -0.5784E+11
   -1.856268    3.99529  0.6643E-10  0.9686E-08  0.4663E-12  0.6975E-04  0.0000E+00 -0.6176E+11
   -1.925019    3.99572  0.6643E-10  0.9751E-08  0.4861E-12  0.6796E-04  0.0000E+00 -0.6641E+11
   -1.993771    3.99616  0.6643E-10  0.9801E-08  0.5083E-12  0.6563E-04  0.0000E+00 -0.7201E+11
   -2.062521    3.99662  0.6643E-10  0.9834E-08  0.5336E-12  0.6265E-04  0.0000E+00 -0.7911E+11
   -2.131272    3.99710  0.6643E-10  0.9846E-08  0.5644E-12  0.5882E-04  0.0000E+00 -0.8856E+11
   -2.200022    3.99761  0.6643E-10  0.9834E-08  0.6027E-12  0.5422E-04  0.0000E+00 -0.1013E+12
   -2.268772    3.99817  0.6643E-10  0.9789E-08  0.6520E-12  0.4889E-04  0.0000E+00 -0.1190E+12
   -2.337521    3.99879  0.6643E-10  0.9697E-08  0.7183E-12  0.4264E-04  0.0000E+00 -0.1456E+12
   -2.406270    3.99951  0.6643E-10  0.9535E-08  0.8136E-12  0.3529E-04  0.0000E+00 -0.1898E+12
   -2.475018    4.00040  0.6643E-10  0.9251E-08  0.9651E-12  0.2674E-04  0.0000E+00 -0.2756E+12
   -2.543766    4.00160  0.6643E-10  0.8715E-08  0.1254E-11  0.1689E-04  0.0000E+00 -0.4963E+12
   -2.612513    4.00355  0.6643E-10  0.7597E-08  0.1946E-11  0.7283E-05  0.0000E+00 -0.1415E+13
   -2.681260    4.00817  0.6643E-10  0.3770E-08  0.5779E-11  0.5153E-06  0.0000E+00 -0.4253E+14
   -2.750006    4.06319  0.6643E-10  0.0000E+00  0.0000E+00  0.0000E+00  0.0000E+00  0.0000E+00
