 1 - depth, m
 2 - temperature, C
 3 - salinity, kg/kg
 4 - turbulent kinetic energy, m**2/s**2
 5 - dissipation rate, m**2/s**3
 6 - kinematic heat conductance, m**2/s
 7 - modulus of horizontal velocity, m/s
 8 - Richardson number, n/d
   -0.000000   -0.00000  0.2247E-09  0.1219E-13  0.7603E-17  0.1000E-09  0.0000E+00  0.1339E+17
   -0.068746    0.20652  0.1403E-09  0.2568E-13  0.7603E-17  0.1000E-09  0.0000E+00  0.1239E+17
   -0.137492    0.40898  0.9499E-10  0.8788E-13  0.1108E-16  0.1000E-09  0.0000E+00  0.1133E+17
   -0.206239    0.60540  0.7740E-10  0.2219E-12  0.2297E-16  0.1000E-09  0.0000E+00  0.1036E+17
   -0.274986    0.79622  0.7258E-10  0.5052E-12  0.4927E-16  0.1000E-09  0.0000E+00  0.9486E+16
   -0.343735    0.98216  0.7154E-10  0.1106E-11  0.1045E-15  0.1000E-09  0.0000E+00  0.8769E+16
   -0.412483    1.16550  0.7136E-10  0.2379E-11  0.2192E-15  0.1000E-09  0.0000E+00  0.8110E+16
   -0.481232    1.34695  0.7133E-10  0.5064E-11  0.4556E-15  0.1000E-09  0.0000E+00  0.7501E+16
   -0.549982    1.52722  0.7133E-10  0.1069E-10  0.9392E-15  0.1000E-09  0.0000E+00  0.6977E+16
   -0.618732    1.70822  0.7132E-10  0.2229E-10  0.1914E-14  0.1000E-09  0.0000E+00  0.6516E+16
   -0.687482    1.89191  0.7132E-10  0.4609E-10  0.3869E-14  0.1000E-09  0.0000E+00  0.6061E+16
   -0.756233    2.07918  0.7132E-10  0.9455E-10  0.7760E-14  0.1000E-09  0.0000E+00  0.5657E+16
   -0.824984    2.27297  0.7131E-10  0.1926E-09  0.1545E-13  0.1000E-09  0.0000E+00  0.5205E+16
   -0.893735    2.47374  0.7129E-10  0.3893E-09  0.3056E-13  0.1000E-09  0.0000E+00  0.4694E+16
   -0.962486    2.68174  0.7122E-10  0.7814E-09  0.6001E-13  0.1000E-09  0.0000E+00  0.4114E+16
   -1.031238    2.89700  0.7110E-10  0.1557E-08  0.1171E-12  0.1722E-09  0.0000E+00  0.3460E+16
   -1.099990    3.11933  0.7087E-10  0.3093E-08  0.2275E-12  0.4237E-09  0.0000E+00  0.2734E+16
   -1.168742    3.34849  0.7049E-10  0.6107E-08  0.4398E-12  0.1161E-08  0.0000E+00  0.1929E+16
   -1.237494    3.58313  0.6973E-10  0.1196E-07  0.8440E-12  0.4060E-08  0.0000E+00  0.1059E+16
   -1.306246    3.81898  0.6862E-10  0.2287E-07  0.1584E-11  0.3787E-07  0.0000E+00  0.2136E+15
   -1.374998    4.01441  0.6841E-10  0.2344E-07  0.1626E-11  0.1319E-03  0.0000E+00 -0.1176E+12
   -1.443751    4.01468  0.6841E-10  0.2369E-07  0.1649E-11  0.1294E-03  0.0000E+00 -0.1219E+12
   -1.512503    4.01495  0.6841E-10  0.2392E-07  0.1674E-11  0.1297E-03  0.0000E+00 -0.1238E+12
   -1.581255    4.01522  0.6841E-10  0.2413E-07  0.1702E-11  0.1298E-03  0.0000E+00 -0.1260E+12
   -1.650007    4.01550  0.6841E-10  0.2431E-07  0.1733E-11  0.1294E-03  0.0000E+00 -0.1286E+12
   -1.718759    4.01578  0.6841E-10  0.2446E-07  0.1766E-11  0.1287E-03  0.0000E+00 -0.1318E+12
   -1.787510    4.01607  0.6841E-10  0.2459E-07  0.1803E-11  0.1275E-03  0.0000E+00 -0.1355E+12
   -1.856262    4.01636  0.6841E-10  0.2469E-07  0.1845E-11  0.1258E-03  0.0000E+00 -0.1400E+12
   -1.925013    4.01665  0.6841E-10  0.2476E-07  0.1890E-11  0.1237E-03  0.0000E+00 -0.1452E+12
   -1.993764    4.01696  0.6841E-10  0.2480E-07  0.1940E-11  0.1212E-03  0.0000E+00 -0.1512E+12
   -2.062515    4.01727  0.6841E-10  0.2481E-07  0.1997E-11  0.1181E-03  0.0000E+00 -0.1584E+12
   -2.131265    4.01759  0.6841E-10  0.2478E-07  0.2066E-11  0.1141E-03  0.0000E+00 -0.1673E+12
   -2.200015    4.01793  0.6841E-10  0.2470E-07  0.2151E-11  0.1094E-03  0.0000E+00 -0.1787E+12
   -2.268764    4.01829  0.6841E-10  0.2456E-07  0.2270E-11  0.1029E-03  0.0000E+00 -0.1952E+12
   -2.337514    4.01868  0.6841E-10  0.2429E-07  0.2450E-11  0.8323E-04  0.0000E+00 -0.2493E+12
   -2.406262    4.01917  0.6841E-10  0.2386E-07  0.2716E-11  0.6592E-04  0.0000E+00 -0.3284E+12
   -2.475010    4.01980  0.6841E-10  0.2317E-07  0.3141E-11  0.5023E-04  0.0000E+00 -0.4565E+12
   -2.543758    4.02066  0.6841E-10  0.2195E-07  0.3931E-11  0.3303E-04  0.0000E+00 -0.7490E+12
   -2.612505    4.02203  0.6841E-10  0.1958E-07  0.5719E-11  0.1566E-04  0.0000E+00 -0.1754E+13
   -2.681251    4.02503  0.6841E-10  0.9609E-08  0.1701E-10  0.9741E-06  0.0000E+00 -0.4421E+14
   -2.749997    4.07086  0.6841E-10  0.0000E+00  0.0000E+00  0.0000E+00  0.0000E+00  0.0000E+00
