 1 - depth, m
 2 - temperature, C
 3 - salinity, kg/kg
 4 - turbulent kinetic energy, m**2/s**2
 5 - dissipation rate, m**2/s**3
 6 - kinematic heat conductance, m**2/s
 7 - modulus of horizontal velocity, m/s
 8 - Richardson number, n/d
   -0.000000    2.25685  0.6577E-10  0.1336E-03  0.4365E-04  0.1248E-03  0.1114E+00  0.6758E-02
   -0.068746    2.30391  0.6577E-10  0.6918E-04  0.9747E-05  0.1226E-03  0.4250E-01  0.2517E-01
   -0.137493    2.31344  0.6578E-10  0.4767E-04  0.3597E-05  0.1152E-03  0.3283E-01  0.5203E-02
   -0.206240    2.32098  0.6578E-10  0.3432E-04  0.1540E-05  0.1180E-03  0.2704E-01  0.8195E-02
   -0.274988    2.32772  0.6578E-10  0.2571E-04  0.7359E-06  0.1246E-03  0.2276E-01  0.1291E-01
   -0.343736    2.33390  0.6578E-10  0.2027E-04  0.3922E-06  0.1299E-03  0.1949E-01  0.1656E-01
   -0.412485    2.33961  0.6578E-10  0.1646E-04  0.2280E-06  0.1360E-03  0.1678E-01  0.2264E-01
   -0.481235    2.34485  0.6578E-10  0.1368E-04  0.1423E-06  0.1430E-03  0.1459E-01  0.3295E-01
   -0.549985    2.34965  0.6578E-10  0.1172E-04  0.9541E-07  0.1487E-03  0.1287E-01  0.4355E-01
   -0.618735    2.35407  0.6578E-10  0.1033E-04  0.6848E-07  0.1516E-03  0.1143E-01  0.5074E-01
   -0.687486    2.35823  0.6578E-10  0.9238E-05  0.5153E-07  0.1540E-03  0.1016E-01  0.5974E-01
   -0.756237    2.36213  0.6578E-10  0.8327E-05  0.4016E-07  0.1549E-03  0.9039E-02  0.7005E-01
   -0.824988    2.36583  0.6578E-10  0.7536E-05  0.3212E-07  0.1536E-03  0.8032E-02  0.8112E-01
   -0.893740    2.36938  0.6578E-10  0.6824E-05  0.2618E-07  0.1497E-03  0.7121E-02  0.9196E-01
   -0.962491    2.37285  0.6578E-10  0.6154E-05  0.2156E-07  0.1420E-03  0.6279E-02  0.1006E+00
   -1.031244    2.37630  0.6579E-10  0.5477E-05  0.1768E-07  0.1317E-03  0.5479E-02  0.1121E+00
   -1.099996    2.37983  0.6579E-10  0.4773E-05  0.1425E-07  0.1245E-03  0.4715E-02  0.1530E+00
   -1.168748    2.38333  0.6579E-10  0.4100E-05  0.1137E-07  0.1135E-03  0.4062E-02  0.2061E+00
   -1.237501    2.38693  0.6579E-10  0.3469E-05  0.8982E-08  0.1002E-03  0.3490E-02  0.2788E+00
   -1.306253    2.39073  0.6579E-10  0.2887E-05  0.7007E-08  0.8552E-04  0.2983E-02  0.3836E+00
   -1.375006    2.39487  0.6579E-10  0.2355E-05  0.5382E-08  0.7001E-04  0.2529E-02  0.5457E+00
   -1.443758    2.39959  0.6579E-10  0.1873E-05  0.4051E-08  0.5429E-04  0.2122E-02  0.8236E+00
   -1.512511    2.40533  0.6579E-10  0.1440E-05  0.2967E-08  0.3910E-04  0.1753E-02  0.1384E+01
   -1.581263    2.41322  0.6579E-10  0.1050E-05  0.2083E-08  0.2504E-04  0.1416E-02  0.2838E+01
   -1.650016    2.43130  0.6579E-10  0.7053E-06  0.1361E-08  0.1375E-04  0.1084E-02  0.1499E+02
   -1.718768    2.49044  0.6580E-10  0.4287E-06  0.8101E-09  0.5514E-05  0.7590E-03  0.2116E+03
   -1.787520    2.56962  0.6580E-10  0.1794E-06  0.3385E-09  0.3824E-06  0.4946E-03  0.4513E+04
   -1.856272    2.70750  0.6582E-10  0.2412E-07  0.4629E-10  0.3247E-07  0.1613E-03  0.1569E+06
   -1.925023    2.92969  0.6584E-10  0.1965E-08  0.4311E-11  0.5299E-08  0.2805E-04  0.7931E+07
   -1.993775    3.09952  0.6585E-10  0.5783E-10  0.1009E-11  0.3963E-09  0.4318E-05  0.3970E+09
   -2.062526    3.25850  0.6586E-10  0.4419E-11  0.1000E-11  0.1000E-09  0.3266E-06  0.6335E+11
   -2.131276    3.41465  0.6586E-10  0.4419E-11  0.1000E-11  0.1000E-09  0.1883E-07  0.1567E+14
   -2.200027    3.56735  0.6586E-10  0.4419E-11  0.1000E-11  0.1000E-09  0.9906E-09  0.4465E+15
   -2.268777    3.72017  0.6586E-10  0.4419E-11  0.1000E-11  0.1000E-09  0.4702E-10  0.4228E+15
   -2.337526    3.88755  0.6587E-10  0.4419E-11  0.1000E-11  0.1000E-09  0.1984E-11 -0.1357E+15
   -2.406275    4.09339  0.6587E-10  0.4419E-11  0.1000E-11  0.1000E-09  0.7296E-13 -0.1027E+16
   -2.475023    4.33254  0.6587E-10  0.4419E-11  0.1000E-11  0.1000E-09  0.2281E-14 -0.2158E+16
   -2.543771    4.59717  0.6587E-10  0.4419E-11  0.1000E-11  0.1000E-09  0.6829E-16 -0.3893E+16
   -2.612519    4.91147  0.6587E-10  0.4419E-11  0.1000E-11  0.1000E-09  0.2204E-17 -0.8294E+16
   -2.681265    5.37689  0.6588E-10  0.4419E-11  0.1000E-11  0.1000E-09  0.5983E-19 -0.1439E+17
   -2.750011    5.94743  0.6588E-10  0.0000E+00  0.0000E+00  0.0000E+00  0.5758E-19  0.0000E+00
