 1 - depth, m
 2 - temperature, C
 3 - salinity, kg/kg
 4 - turbulent kinetic energy, m**2/s**2
 5 - dissipation rate, m**2/s**3
 6 - kinematic heat conductance, m**2/s
 7 - modulus of horizontal velocity, m/s
 8 - Richardson number, n/d
   -0.000000   -0.00000  0.2637E-09  0.1219E-13  0.7603E-17  0.1000E-09  0.0000E+00  0.1155E+17
   -0.068746    0.17746  0.1567E-09  0.1219E-13  0.7603E-17  0.1000E-09  0.0000E+00  0.1075E+17
   -0.137492    0.35092  0.1066E-09  0.1219E-13  0.7603E-17  0.1000E-09  0.0000E+00  0.9887E+16
   -0.206239    0.51863  0.8708E-10  0.1219E-13  0.7603E-17  0.1000E-09  0.0000E+00  0.9090E+16
   -0.274986    0.68078  0.8158E-10  0.1219E-13  0.7603E-17  0.1000E-09  0.0000E+00  0.8361E+16
   -0.343734    0.83773  0.8036E-10  0.1219E-13  0.7603E-17  0.1000E-09  0.0000E+00  0.7757E+16
   -0.412483    0.99108  0.8013E-10  0.1219E-13  0.7603E-17  0.1000E-09  0.0000E+00  0.7197E+16
   -0.481232    1.14114  0.8010E-10  0.1916E-13  0.7603E-17  0.1000E-09  0.0000E+00  0.6677E+16
   -0.549981    1.28819  0.8009E-10  0.7472E-13  0.9824E-17  0.1000E-09  0.0000E+00  0.6238E+16
   -0.618731    1.43357  0.8009E-10  0.1930E-12  0.1974E-16  0.1000E-09  0.0000E+00  0.5867E+16
   -0.687481    1.57867  0.8009E-10  0.4371E-12  0.4165E-16  0.1000E-09  0.0000E+00  0.5518E+16
   -0.756232    1.72396  0.8009E-10  0.9469E-12  0.8720E-16  0.1000E-09  0.0000E+00  0.5238E+16
   -0.824983    1.87147  0.8008E-10  0.2013E-11  0.1806E-15  0.1000E-09  0.0000E+00  0.4952E+16
   -0.893734    2.02146  0.8004E-10  0.4231E-11  0.3705E-15  0.1000E-09  0.0000E+00  0.4655E+16
   -0.962486    2.17413  0.7997E-10  0.8813E-11  0.7536E-15  0.1000E-09  0.0000E+00  0.4344E+16
   -1.031237    2.32963  0.7982E-10  0.1821E-10  0.1521E-14  0.1000E-09  0.0000E+00  0.4013E+16
   -1.099989    2.48798  0.7957E-10  0.3744E-10  0.3056E-14  0.1000E-09  0.0000E+00  0.3660E+16
   -1.168741    2.64908  0.7924E-10  0.7652E-10  0.6105E-14  0.1000E-09  0.0000E+00  0.3286E+16
   -1.237493    2.81286  0.7886E-10  0.1553E-09  0.1211E-13  0.1000E-09  0.0000E+00  0.2891E+16
   -1.306245    2.97919  0.7849E-10  0.3129E-09  0.2387E-13  0.1000E-09  0.0000E+00  0.2474E+16
   -1.374997    3.14786  0.7815E-10  0.6261E-09  0.4671E-13  0.1163E-09  0.0000E+00  0.2044E+16
   -1.443749    3.31909  0.7779E-10  0.1244E-08  0.9078E-13  0.2893E-09  0.0000E+00  0.1597E+16
   -1.512502    3.49323  0.7733E-10  0.2454E-08  0.1752E-12  0.7929E-09  0.0000E+00  0.1125E+16
   -1.581254    3.66940  0.7674E-10  0.4802E-08  0.3357E-12  0.2698E-08  0.0000E+00  0.6333E+15
   -1.650006    3.84530  0.7624E-10  0.9241E-08  0.6335E-12  0.2094E-07  0.0000E+00  0.1539E+15
   -1.718757    4.00263  0.7614E-10  0.9906E-08  0.6815E-12  0.5060E-04  0.0000E+00 -0.1309E+12
   -1.787509    4.00313  0.7614E-10  0.1021E-07  0.7085E-12  0.5179E-04  0.0000E+00 -0.1333E+12
   -1.856260    4.00363  0.7614E-10  0.1047E-07  0.7381E-12  0.5234E-04  0.0000E+00 -0.1375E+12
   -1.925012    4.00413  0.7614E-10  0.1070E-07  0.7709E-12  0.5227E-04  0.0000E+00 -0.1435E+12
   -1.993762    4.00463  0.7614E-10  0.1090E-07  0.8074E-12  0.5156E-04  0.0000E+00 -0.1516E+12
   -2.062513    4.00516  0.7614E-10  0.1106E-07  0.8492E-12  0.5033E-04  0.0000E+00 -0.1627E+12
   -2.131263    4.00570  0.7614E-10  0.1119E-07  0.9000E-12  0.4842E-04  0.0000E+00 -0.1782E+12
   -2.200013    4.00628  0.7614E-10  0.1128E-07  0.9635E-12  0.4572E-04  0.0000E+00 -0.2001E+12
   -2.268763    4.00691  0.7614E-10  0.1134E-07  0.1045E-11  0.4214E-04  0.0000E+00 -0.2320E+12
   -2.337512    4.00761  0.7614E-10  0.1133E-07  0.1155E-11  0.3762E-04  0.0000E+00 -0.2815E+12
   -2.406260    4.00844  0.7614E-10  0.1125E-07  0.1312E-11  0.3201E-04  0.0000E+00 -0.3651E+12
   -2.475008    4.00947  0.7614E-10  0.1102E-07  0.1560E-11  0.2517E-04  0.0000E+00 -0.5288E+12
   -2.543756    4.01088  0.7614E-10  0.1051E-07  0.2022E-11  0.1667E-04  0.0000E+00 -0.9442E+12
   -2.612503    4.01323  0.7614E-10  0.9323E-08  0.3104E-11  0.7607E-05  0.0000E+00 -0.2606E+13
   -2.681249    4.01882  0.7614E-10  0.5106E-08  0.8894E-11  0.6688E-06  0.0000E+00 -0.6073E+14
   -2.749995    4.08021  0.7614E-10  0.0000E+00  0.0000E+00  0.0000E+00  0.0000E+00  0.0000E+00
