 1 - depth, m
 2 - temperature, C
 3 - salinity, kg/kg
 4 - turbulent kinetic energy, m**2/s**2
 5 - dissipation rate, m**2/s**3
 6 - kinematic heat conductance, m**2/s
 7 - modulus of horizontal velocity, m/s
 8 - Richardson number, n/d
   -0.000000   -0.00000  0.8996E-09  0.2201E-11  0.5657E-15  0.1000E-09  0.0000E+00  0.2015E+17
   -0.068746    0.31562  0.1971E-09  0.5800E-11  0.5804E-15  0.1000E-09  0.0000E+00  0.1823E+17
   -0.137492    0.62836  0.8624E-10  0.1318E-10  0.9408E-15  0.1000E-09  0.0000E+00  0.1624E+17
   -0.206239    0.93548  0.7138E-10  0.2674E-10  0.1709E-14  0.1000E-09  0.0000E+00  0.1432E+17
   -0.274986    1.23628  0.7039E-10  0.5155E-10  0.3147E-14  0.1000E-09  0.0000E+00  0.1250E+17
   -0.343734    1.53024  0.7027E-10  0.9685E-10  0.5752E-14  0.1000E-09  0.0000E+00  0.1078E+17
   -0.412483    1.81702  0.7014E-10  0.1795E-09  0.1043E-13  0.1000E-09  0.0000E+00  0.9167E+16
   -0.481232    2.09606  0.6985E-10  0.3299E-09  0.1877E-13  0.1000E-09  0.0000E+00  0.7654E+16
   -0.549981    2.36675  0.6933E-10  0.6023E-09  0.3359E-13  0.1000E-09  0.0000E+00  0.6258E+16
   -0.618731    2.62882  0.6853E-10  0.1089E-08  0.5958E-13  0.1000E-09  0.0000E+00  0.4981E+16
   -0.687481    2.88214  0.6760E-10  0.1957E-08  0.1050E-12  0.1399E-09  0.0000E+00  0.3820E+16
   -0.756232    3.12666  0.6687E-10  0.3494E-08  0.1839E-12  0.3363E-09  0.0000E+00  0.2783E+16
   -0.824983    3.36351  0.6654E-10  0.6202E-08  0.3202E-12  0.8863E-09  0.0000E+00  0.1839E+16
   -0.893734    3.59264  0.6645E-10  0.1094E-07  0.5540E-12  0.2871E-08  0.0000E+00  0.9827E+15
   -0.962485    3.81283  0.6643E-10  0.1901E-07  0.9462E-12  0.2065E-07  0.0000E+00  0.2335E+15
   -1.031237    4.00486  0.6643E-10  0.1932E-07  0.9628E-12  0.1492E-03  0.0000E+00 -0.6037E+11
   -1.099989    4.00507  0.6643E-10  0.1947E-07  0.9721E-12  0.1459E-03  0.0000E+00 -0.6245E+11
   -1.168741    4.00528  0.6643E-10  0.1961E-07  0.9824E-12  0.1461E-03  0.0000E+00 -0.6316E+11
   -1.237493    4.00549  0.6643E-10  0.1973E-07  0.9937E-12  0.1463E-03  0.0000E+00 -0.6390E+11
   -1.306245    4.00570  0.6643E-10  0.1984E-07  0.1006E-11  0.1461E-03  0.0000E+00 -0.6477E+11
   -1.374997    4.00591  0.6643E-10  0.1994E-07  0.1020E-11  0.1457E-03  0.0000E+00 -0.6577E+11
   -1.443749    4.00613  0.6643E-10  0.2003E-07  0.1034E-11  0.1450E-03  0.0000E+00 -0.6689E+11
   -1.512501    4.00634  0.6643E-10  0.2010E-07  0.1050E-11  0.1439E-03  0.0000E+00 -0.6817E+11
   -1.581253    4.00656  0.6643E-10  0.2017E-07  0.1068E-11  0.1426E-03  0.0000E+00 -0.6965E+11
   -1.650005    4.00678  0.6643E-10  0.2021E-07  0.1087E-11  0.1409E-03  0.0000E+00 -0.7133E+11
   -1.718757    4.00700  0.6643E-10  0.2025E-07  0.1108E-11  0.1389E-03  0.0000E+00 -0.7325E+11
   -1.787509    4.00722  0.6643E-10  0.2026E-07  0.1131E-11  0.1365E-03  0.0000E+00 -0.7545E+11
   -1.856260    4.00745  0.6643E-10  0.2027E-07  0.1156E-11  0.1338E-03  0.0000E+00 -0.7795E+11
   -1.925011    4.00768  0.6643E-10  0.2025E-07  0.1184E-11  0.1307E-03  0.0000E+00 -0.8083E+11
   -1.993762    4.00792  0.6643E-10  0.2022E-07  0.1215E-11  0.1273E-03  0.0000E+00 -0.8410E+11
   -2.062513    4.00817  0.6643E-10  0.2017E-07  0.1250E-11  0.1235E-03  0.0000E+00 -0.8809E+11
   -2.131263    4.00843  0.6643E-10  0.2009E-07  0.1294E-11  0.1188E-03  0.0000E+00 -0.9319E+11
   -2.200013    4.00869  0.6643E-10  0.1997E-07  0.1353E-11  0.1125E-03  0.0000E+00 -0.1003E+12
   -2.268762    4.00898  0.6643E-10  0.1978E-07  0.1440E-11  0.9276E-04  0.0000E+00 -0.1245E+12
   -2.337511    4.00933  0.6643E-10  0.1951E-07  0.1562E-11  0.7532E-04  0.0000E+00 -0.1580E+12
   -2.406260    4.00976  0.6643E-10  0.1910E-07  0.1741E-11  0.6073E-04  0.0000E+00 -0.2036E+12
   -2.475008    4.01031  0.6643E-10  0.1849E-07  0.2027E-11  0.4599E-04  0.0000E+00 -0.2833E+12
   -2.543755    4.01105  0.6643E-10  0.1745E-07  0.2564E-11  0.2961E-04  0.0000E+00 -0.4721E+12
   -2.612502    4.01224  0.6643E-10  0.1547E-07  0.3802E-11  0.1362E-04  0.0000E+00 -0.1139E+13
   -2.681248    4.01491  0.6643E-10  0.7219E-08  0.1172E-10  0.7613E-06  0.0000E+00 -0.3369E+14
   -2.749994    4.05788  0.6643E-10  0.0000E+00  0.0000E+00  0.0000E+00  0.0000E+00  0.0000E+00
