 1 - depth, m
 2 - temperature, C
 3 - salinity, kg/kg
 4 - turbulent kinetic energy, m**2/s**2
 5 - dissipation rate, m**2/s**3
 6 - kinematic heat conductance, m**2/s
 7 - modulus of horizontal velocity, m/s
 8 - Richardson number, n/d
   -0.000000   11.36183  0.8519E-10  0.2099E-03  0.5270E-02  0.1292E-03  0.1323E+00 -0.3959E-02
   -0.068746   11.41508  0.8520E-10  0.1187E-03  0.3089E-02  0.1732E-03  0.4570E-01 -0.2655E-01
   -0.137492   11.42379  0.8520E-10  0.8504E-04  0.1904E-02  0.1656E-03  0.3500E-01 -0.2330E-01
   -0.206240   11.43090  0.8520E-10  0.6274E-04  0.9376E-03  0.1749E-03  0.2880E-01 -0.2982E-01
   -0.274987   11.43659  0.8520E-10  0.4619E-04  0.2827E-03  0.1935E-03  0.2437E-01 -0.4046E-01
   -0.343736   11.44140  0.8520E-10  0.3549E-04  0.4141E-04  0.2152E-03  0.2096E-01 -0.5022E-01
   -0.412485   11.44557  0.8520E-10  0.2947E-04  0.3330E-05  0.2439E-03  0.1810E-01 -0.6570E-01
   -0.481234   11.44914  0.8521E-10  0.2578E-04  0.4803E-06  0.2810E-03  0.1579E-01  0.8916E-01
   -0.549984   11.45206  0.8521E-10  0.2329E-04  0.2531E-06  0.3224E-03  0.1400E-01  0.1577E+00
   -0.618734   11.45454  0.8521E-10  0.2153E-04  0.1823E-06  0.3697E-03  0.1253E-01 -0.2184E-01
   -0.687484   11.45664  0.8521E-10  0.2020E-04  0.1404E-06  0.4515E-03  0.1127E-01  0.1823E+02
   -0.756235   11.45839  0.8521E-10  0.1914E-04  0.1127E-06  0.5633E-03  0.1018E-01  0.4943E+02
   -0.824987   11.45985  0.8521E-10  0.1827E-04  0.9316E-07  0.6553E-03  0.9247E-02  0.1840E+02
   -0.893738   11.46109  0.8521E-10  0.1751E-04  0.7884E-07  0.7497E-03  0.8417E-02  0.1040E+03
   -0.962490   11.46216  0.8521E-10  0.1683E-04  0.6790E-07  0.8448E-03  0.7675E-02  0.5606E+02
   -1.031242   11.46310  0.8521E-10  0.1621E-04  0.5923E-07  0.9480E-03  0.7000E-02  0.1201E+03
   -1.099994   11.46391  0.8521E-10  0.1561E-04  0.5217E-07  0.1079E-02  0.6385E-02  0.2727E+03
   -1.168746   11.46460  0.8521E-10  0.1507E-04  0.4640E-07  0.1231E-02  0.5841E-02  0.7667E+03
   -1.237498   11.46517  0.8521E-10  0.1456E-04  0.4162E-07  0.1345E-02  0.5354E-02  0.1040E+03
   -1.306251   11.46567  0.8521E-10  0.1408E-04  0.3757E-07  0.1432E-02  0.4908E-02  0.5564E+02
   -1.375003   11.46611  0.8521E-10  0.1362E-04  0.3411E-07  0.1485E-02  0.4496E-02  0.7913E+02
   -1.443756   11.46652  0.8521E-10  0.1318E-04  0.3111E-07  0.1514E-02  0.4111E-02  0.1555E+02
   -1.512508   11.46692  0.8521E-10  0.1275E-04  0.2849E-07  0.1530E-02  0.3750E-02  0.6332E+01
   -1.581260   11.46730  0.8521E-10  0.1234E-04  0.2622E-07  0.1539E-02  0.3410E-02  0.5041E+01
   -1.650013   11.46768  0.8521E-10  0.1193E-04  0.2423E-07  0.1544E-02  0.3090E-02  0.4616E+01
   -1.718765   11.46804  0.8521E-10  0.1153E-04  0.2251E-07  0.1545E-02  0.2787E-02  0.4291E+01
   -1.787517   11.46840  0.8521E-10  0.1114E-04  0.2103E-07  0.1543E-02  0.2501E-02  0.4039E+01
   -1.856268   11.46876  0.8521E-10  0.1075E-04  0.1976E-07  0.1536E-02  0.2228E-02  0.3838E+01
   -1.925020   11.46910  0.8521E-10  0.1036E-04  0.1870E-07  0.1523E-02  0.1968E-02  0.3688E+01
   -1.993771   11.46945  0.8521E-10  0.9979E-05  0.1783E-07  0.1506E-02  0.1718E-02  0.3577E+01
   -2.062522   11.46979  0.8521E-10  0.9595E-05  0.1715E-07  0.1502E-02  0.1476E-02  0.2638E+01
   -2.131273   11.47013  0.8521E-10  0.9204E-05  0.1666E-07  0.1480E-02  0.1259E-02  0.1875E+01
   -2.200023   11.47047  0.8521E-10  0.8816E-05  0.1638E-07  0.1447E-02  0.1071E-02  0.1389E+01
   -2.268772   11.47082  0.8521E-10  0.8439E-05  0.1635E-07  0.1375E-02  0.9116E-03  0.1042E+01
   -2.337522   11.47118  0.8521E-10  0.8082E-05  0.1661E-07  0.1244E-02  0.7795E-03  0.8116E+00
   -2.406271   11.47158  0.8521E-10  0.7750E-05  0.1720E-07  0.1111E-02  0.6742E-03  0.8052E+00
   -2.475019   11.47202  0.8521E-10  0.7423E-05  0.1825E-07  0.9791E-03  0.5939E-03  0.1239E+01
   -2.543767   11.47253  0.8521E-10  0.7038E-05  0.2024E-07  0.8559E-03  0.5330E-03  0.3268E+01
   -2.612514   11.47311  0.8521E-10  0.6438E-05  0.2502E-07  0.5156E-03  0.4840E-03  0.6382E+02
   -2.681260   11.47408  0.8521E-10  0.2980E-05  0.7366E-07  0.1747E-04  0.4272E-03 -0.7975E+04
   -2.750006   11.50242  0.8521E-10  0.0000E+00  0.0000E+00  0.0000E+00  0.4238E-03  0.0000E+00
