 1 - depth, m
 2 - temperature, C
 3 - salinity, kg/kg
 4 - turbulent kinetic energy, m**2/s**2
 5 - dissipation rate, m**2/s**3
 6 - kinematic heat conductance, m**2/s
 7 - modulus of horizontal velocity, m/s
 8 - Richardson number, n/d
   -0.000000    7.13445  0.6594E-10  0.5631E-04  0.1451E-04  0.5892E-04  0.5547E-01 -0.1732E+00
   -0.068746    7.19620  0.6595E-10  0.3066E-04  0.3138E-05  0.1060E-03  0.2261E-01  0.2700E+00
   -0.137492    7.21278  0.6595E-10  0.2235E-04  0.1146E-05  0.1506E-03  0.1673E-01  0.1304E+02
   -0.206239    7.22427  0.6595E-10  0.1738E-04  0.4969E-06  0.1948E-03  0.1320E-01  0.5468E+02
   -0.274987    7.23339  0.6595E-10  0.1427E-04  0.2505E-06  0.2436E-03  0.1070E-01  0.9135E+01
   -0.343735    7.24079  0.6595E-10  0.1234E-04  0.1453E-06  0.2948E-03  0.8897E-02  0.7352E+01
   -0.412483    7.24687  0.6595E-10  0.1101E-04  0.9360E-07  0.3498E-03  0.7509E-02  0.6849E+01
   -0.481232    7.25183  0.6595E-10  0.1007E-04  0.6530E-07  0.4087E-03  0.6451E-02  0.5976E+02
   -0.549982    7.25590  0.6595E-10  0.9403E-05  0.4866E-07  0.4712E-03  0.5647E-02  0.2484E+02
   -0.618732    7.25925  0.6595E-10  0.8923E-05  0.3821E-07  0.5412E-03  0.5009E-02  0.5057E+02
   -0.687482    7.26202  0.6595E-10  0.8556E-05  0.3119E-07  0.6472E-03  0.4477E-02  0.1031E+03
   -0.756233    7.26418  0.6595E-10  0.8270E-05  0.2633E-07  0.8044E-03  0.4035E-02  0.6458E+02
   -0.824984    7.26580  0.6595E-10  0.8042E-05  0.2281E-07  0.9244E-03  0.3670E-02  0.6543E+02
   -0.893735    7.26710  0.6595E-10  0.7848E-05  0.2011E-07  0.1030E-02  0.3345E-02  0.3429E+02
   -0.962487    7.26818  0.6595E-10  0.7676E-05  0.1796E-07  0.1108E-02  0.3051E-02  0.5436E+02
   -1.031238    7.26912  0.6595E-10  0.7514E-05  0.1619E-07  0.1162E-02  0.2778E-02  0.3835E+02
   -1.099990    7.26998  0.6595E-10  0.7356E-05  0.1469E-07  0.1208E-02  0.2523E-02  0.1017E+02
   -1.168742    7.27079  0.6595E-10  0.7200E-05  0.1340E-07  0.1244E-02  0.2290E-02  0.6152E+01
   -1.237494    7.27155  0.6595E-10  0.7047E-05  0.1228E-07  0.1278E-02  0.2078E-02  0.5464E+01
   -1.306247    7.27227  0.6595E-10  0.6896E-05  0.1132E-07  0.1306E-02  0.1884E-02  0.4942E+01
   -1.374999    7.27296  0.6595E-10  0.6746E-05  0.1049E-07  0.1330E-02  0.1706E-02  0.4468E+01
   -1.443751    7.27363  0.6595E-10  0.6597E-05  0.9761E-08  0.1351E-02  0.1541E-02  0.4234E+01
   -1.512503    7.27427  0.6595E-10  0.6449E-05  0.9132E-08  0.1369E-02  0.1390E-02  0.4068E+01
   -1.581255    7.27488  0.6595E-10  0.6302E-05  0.8589E-08  0.1383E-02  0.1250E-02  0.3965E+01
   -1.650007    7.27548  0.6595E-10  0.6155E-05  0.8123E-08  0.1393E-02  0.1121E-02  0.3900E+01
   -1.718759    7.27606  0.6595E-10  0.6009E-05  0.7728E-08  0.1399E-02  0.1001E-02  0.3881E+01
   -1.787511    7.27661  0.6595E-10  0.5863E-05  0.7400E-08  0.1400E-02  0.8895E-03  0.3890E+01
   -1.856263    7.27716  0.6595E-10  0.5719E-05  0.7134E-08  0.1395E-02  0.7857E-03  0.3941E+01
   -1.925014    7.27768  0.6595E-10  0.5575E-05  0.6929E-08  0.1384E-02  0.6886E-03  0.4018E+01
   -1.993765    7.27820  0.6595E-10  0.5434E-05  0.6784E-08  0.1362E-02  0.5973E-03  0.4242E+01
   -2.062516    7.27871  0.6595E-10  0.5297E-05  0.6701E-08  0.1330E-02  0.5113E-03  0.4399E+01
   -2.131266    7.27922  0.6595E-10  0.5161E-05  0.6681E-08  0.1271E-02  0.4365E-03  0.4921E+01
   -2.200016    7.27975  0.6595E-10  0.5030E-05  0.6731E-08  0.1199E-02  0.3742E-03  0.6049E+01
   -2.268765    7.28029  0.6595E-10  0.4904E-05  0.6857E-08  0.1121E-02  0.3234E-03  0.8050E+01
   -2.337514    7.28087  0.6595E-10  0.4779E-05  0.7072E-08  0.1042E-02  0.2826E-03  0.1177E+02
   -2.406263    7.28147  0.6595E-10  0.4646E-05  0.7419E-08  0.9517E-03  0.2495E-03  0.1980E+02
   -2.475011    7.28212  0.6595E-10  0.4486E-05  0.7999E-08  0.8312E-03  0.2203E-03  0.3942E+02
   -2.543759    7.28285  0.6595E-10  0.4279E-05  0.9040E-08  0.7090E-03  0.1948E-03  0.1113E+03
   -2.612506    7.28369  0.6595E-10  0.3942E-05  0.1142E-07  0.4517E-03  0.1742E-03  0.1718E+04
   -2.681252    7.28499  0.6595E-10  0.1844E-05  0.3542E-07  0.1350E-04  0.1501E-03 -0.2092E+06
   -2.749998    7.32611  0.6596E-10  0.0000E+00  0.0000E+00  0.0000E+00  0.1493E-03  0.0000E+00
