 1 - depth, m
 2 - temperature, C
 3 - salinity, kg/kg
 4 - turbulent kinetic energy, m**2/s**2
 5 - dissipation rate, m**2/s**3
 6 - kinematic heat conductance, m**2/s
 7 - modulus of horizontal velocity, m/s
 8 - Richardson number, n/d
   -0.000000   17.71432  0.6805E-10  0.7625E-04  0.1846E-04  0.7726E-04  0.7289E-01 -0.5093E-01
   -0.068746   17.76710  0.6805E-10  0.4106E-04  0.3953E-05  0.9150E-04  0.2888E-01 -0.2748E+00
   -0.137492   17.77966  0.6805E-10  0.3014E-04  0.1474E-05  0.1144E-03  0.2130E-01 -0.6476E-01
   -0.206239   17.78851  0.6805E-10  0.2378E-04  0.6584E-06  0.1494E-03  0.1681E-01 -0.1057E+00
   -0.274987   17.79523  0.6805E-10  0.1992E-04  0.3414E-06  0.1985E-03  0.1369E-01 -0.1532E+00
   -0.343735   17.80031  0.6805E-10  0.1763E-04  0.2034E-06  0.2959E-03  0.1149E-01  0.2294E+03
   -0.412484   17.80403  0.6805E-10  0.1620E-04  0.1355E-06  0.4256E-03  0.9870E-02  0.1575E+02
   -0.481233   17.80671  0.6805E-10  0.1533E-04  0.9900E-07  0.5941E-03  0.8698E-02  0.9418E+02
   -0.549983   17.80860  0.6805E-10  0.1485E-04  0.7805E-07  0.8196E-03  0.7845E-02  0.6332E+02
   -0.618733   17.80987  0.6805E-10  0.1460E-04  0.6515E-07  0.1023E-02  0.7193E-02  0.1451E+03
   -0.687483   17.81076  0.6805E-10  0.1448E-04  0.5633E-07  0.1157E-02  0.6640E-02  0.2594E+02
   -0.756234   17.81149  0.6805E-10  0.1444E-04  0.4974E-07  0.1233E-02  0.6136E-02  0.6280E+01
   -0.824985   17.81215  0.6805E-10  0.1444E-04  0.4455E-07  0.1287E-02  0.5664E-02  0.6146E+01
   -0.893736   17.81278  0.6805E-10  0.1445E-04  0.4034E-07  0.1336E-02  0.5218E-02  0.6297E+01
   -0.962488   17.81337  0.6805E-10  0.1445E-04  0.3687E-07  0.1384E-02  0.4794E-02  0.6608E+01
   -1.031240   17.81393  0.6805E-10  0.1444E-04  0.3392E-07  0.1433E-02  0.4387E-02  0.6659E+01
   -1.099992   17.81447  0.6805E-10  0.1440E-04  0.3138E-07  0.1495E-02  0.3999E-02  0.5647E+01
   -1.168744   17.81498  0.6805E-10  0.1433E-04  0.2919E-07  0.1553E-02  0.3642E-02  0.4932E+01
   -1.237496   17.81546  0.6805E-10  0.1424E-04  0.2730E-07  0.1608E-02  0.3312E-02  0.4392E+01
   -1.306248   17.81593  0.6805E-10  0.1411E-04  0.2567E-07  0.1659E-02  0.3006E-02  0.3962E+01
   -1.375000   17.81637  0.6805E-10  0.1396E-04  0.2428E-07  0.1705E-02  0.2724E-02  0.3606E+01
   -1.443753   17.81680  0.6805E-10  0.1378E-04  0.2309E-07  0.1745E-02  0.2461E-02  0.3301E+01
   -1.512505   17.81722  0.6805E-10  0.1358E-04  0.2209E-07  0.1780E-02  0.2219E-02  0.3034E+01
   -1.581257   17.81763  0.6805E-10  0.1335E-04  0.2128E-07  0.1808E-02  0.1994E-02  0.2799E+01
   -1.650009   17.81803  0.6805E-10  0.1309E-04  0.2063E-07  0.1831E-02  0.1787E-02  0.2587E+01
   -1.718761   17.81842  0.6805E-10  0.1281E-04  0.2016E-07  0.1850E-02  0.1595E-02  0.2396E+01
   -1.787513   17.81881  0.6805E-10  0.1251E-04  0.1985E-07  0.1866E-02  0.1418E-02  0.2222E+01
   -1.856265   17.81919  0.6805E-10  0.1220E-04  0.1970E-07  0.1880E-02  0.1255E-02  0.2063E+01
   -1.925016   17.81956  0.6805E-10  0.1187E-04  0.1973E-07  0.1888E-02  0.1103E-02  0.1916E+01
   -1.993767   17.81994  0.6805E-10  0.1154E-04  0.1992E-07  0.1869E-02  0.9628E-03  0.1778E+01
   -2.062518   17.82032  0.6805E-10  0.1121E-04  0.2028E-07  0.1837E-02  0.8328E-03  0.1521E+01
   -2.131268   17.82069  0.6805E-10  0.1088E-04  0.2084E-07  0.1712E-02  0.7216E-03  0.1268E+01
   -2.200018   17.82110  0.6805E-10  0.1057E-04  0.2159E-07  0.1552E-02  0.6309E-03  0.1059E+01
   -2.268768   17.82155  0.6805E-10  0.1027E-04  0.2256E-07  0.1417E-02  0.5588E-03  0.9316E+00
   -2.337517   17.82204  0.6805E-10  0.9955E-05  0.2387E-07  0.1291E-02  0.5020E-03  0.1137E+01
   -2.406266   17.82258  0.6805E-10  0.9589E-05  0.2590E-07  0.1148E-02  0.4530E-03  0.2124E+01
   -2.475014   17.82318  0.6805E-10  0.9104E-05  0.2953E-07  0.9099E-03  0.4070E-03  0.4368E+01
   -2.543762   17.82399  0.6805E-10  0.8388E-05  0.3672E-07  0.7754E-03  0.3612E-03  0.3043E+03
   -2.612509   17.82489  0.6805E-10  0.7096E-05  0.5805E-07  0.3446E-03  0.3248E-03 -0.5432E+03
   -2.681255   17.82898  0.6805E-10  0.3429E-05  0.1753E-06  0.5206E-04  0.2640E-03 -0.2827E+04
   -2.750001   17.84279  0.6805E-10  0.0000E+00  0.0000E+00  0.0000E+00  0.2829E-03  0.0000E+00
