 1 - depth, m
 2 - temperature, C
 3 - salinity, kg/kg
 4 - turbulent kinetic energy, m**2/s**2
 5 - dissipation rate, m**2/s**3
 6 - kinematic heat conductance, m**2/s
 7 - modulus of horizontal velocity, m/s
 8 - Richardson number, n/d
   -0.000000   -0.00000  0.1935E-09  0.4391E-12  0.9000E-16  0.1000E-09  0.0000E+00  0.1511E+17
   -0.068746    0.23407  0.1293E-09  0.1028E-11  0.1251E-15  0.1000E-09  0.0000E+00  0.1380E+17
   -0.137492    0.46228  0.8537E-10  0.2467E-11  0.2561E-15  0.1000E-09  0.0000E+00  0.1255E+17
   -0.206239    0.68437  0.7306E-10  0.5666E-11  0.5569E-15  0.1000E-09  0.0000E+00  0.1148E+17
   -0.274986    0.90221  0.7075E-10  0.1269E-10  0.1208E-14  0.1000E-09  0.0000E+00  0.1054E+17
   -0.343734    1.11761  0.7040E-10  0.2794E-10  0.2588E-14  0.1000E-09  0.0000E+00  0.9776E+16
   -0.412483    1.33379  0.7035E-10  0.6073E-10  0.5481E-14  0.1000E-09  0.0000E+00  0.9057E+16
   -0.481231    1.55197  0.7035E-10  0.1305E-09  0.1148E-13  0.1000E-09  0.0000E+00  0.8364E+16
   -0.549981    1.77332  0.7034E-10  0.2777E-09  0.2381E-13  0.1000E-09  0.0000E+00  0.7724E+16
   -0.618731    2.00039  0.7034E-10  0.5823E-09  0.4870E-13  0.1000E-09  0.0000E+00  0.7103E+16
   -0.687481    2.23594  0.7033E-10  0.1207E-08  0.9842E-13  0.1000E-09  0.0000E+00  0.6439E+16
   -0.756232    2.48205  0.7031E-10  0.2472E-08  0.1965E-12  0.1736E-09  0.0000E+00  0.5765E+16
   -0.824982    2.74427  0.7021E-10  0.4998E-08  0.3874E-12  0.3979E-09  0.0000E+00  0.4956E+16
   -0.893734    3.02676  0.6995E-10  0.9964E-08  0.7523E-12  0.9696E-09  0.0000E+00  0.3943E+16
   -0.962485    3.33559  0.6927E-10  0.1956E-07  0.1437E-11  0.2815E-08  0.0000E+00  0.2582E+16
   -1.031236    3.67550  0.6757E-10  0.3752E-07  0.2683E-11  0.1801E-07  0.0000E+00  0.7587E+15
   -1.099988    4.01423  0.6600E-10  0.3809E-07  0.2725E-11  0.1981E-03  0.0000E+00 -0.1189E+12
   -1.168740    4.01450  0.6600E-10  0.3835E-07  0.2749E-11  0.1936E-03  0.0000E+00 -0.1235E+12
   -1.237492    4.01478  0.6600E-10  0.3859E-07  0.2776E-11  0.1944E-03  0.0000E+00 -0.1250E+12
   -1.306244    4.01506  0.6600E-10  0.3881E-07  0.2805E-11  0.2063E-03  0.0000E+00 -0.1196E+12
   -1.374996    4.01533  0.6600E-10  0.3900E-07  0.2839E-11  0.2061E-03  0.0000E+00 -0.1217E+12
   -1.443748    4.01559  0.6600E-10  0.3917E-07  0.2875E-11  0.1934E-03  0.0000E+00 -0.1307E+12
   -1.512500    4.01587  0.6600E-10  0.3930E-07  0.2915E-11  0.1916E-03  0.0000E+00 -0.1331E+12
   -1.581252    4.01616  0.6600E-10  0.3941E-07  0.2958E-11  0.1899E-03  0.0000E+00 -0.1355E+12
   -1.650004    4.01645  0.6600E-10  0.3949E-07  0.3005E-11  0.1879E-03  0.0000E+00 -0.1381E+12
   -1.718756    4.01674  0.6600E-10  0.3954E-07  0.3058E-11  0.1855E-03  0.0000E+00 -0.1413E+12
   -1.787508    4.01704  0.6600E-10  0.3956E-07  0.3115E-11  0.1826E-03  0.0000E+00 -0.1449E+12
   -1.856259    4.01734  0.6600E-10  0.3954E-07  0.3179E-11  0.1792E-03  0.0000E+00 -0.1491E+12
   -1.925010    4.01764  0.6600E-10  0.3950E-07  0.3251E-11  0.1753E-03  0.0000E+00 -0.1539E+12
   -1.993761    4.01795  0.6600E-10  0.3942E-07  0.3330E-11  0.1710E-03  0.0000E+00 -0.1594E+12
   -2.062512    4.01827  0.6600E-10  0.3931E-07  0.3420E-11  0.1660E-03  0.0000E+00 -0.1660E+12
   -2.131262    4.01860  0.6600E-10  0.3914E-07  0.3529E-11  0.1600E-03  0.0000E+00 -0.1743E+12
   -2.200012    4.01895  0.6600E-10  0.3892E-07  0.3664E-11  0.1531E-03  0.0000E+00 -0.1848E+12
   -2.268761    4.01931  0.6600E-10  0.3862E-07  0.3840E-11  0.1436E-03  0.0000E+00 -0.1999E+12
   -2.337510    4.01969  0.6600E-10  0.3815E-07  0.4103E-11  0.1223E-03  0.0000E+00 -0.2393E+12
   -2.406259    4.02015  0.6600E-10  0.3741E-07  0.4531E-11  0.9058E-04  0.0000E+00 -0.3312E+12
   -2.475007    4.02077  0.6600E-10  0.3627E-07  0.5231E-11  0.6640E-04  0.0000E+00 -0.4684E+12
   -2.543754    4.02162  0.6600E-10  0.3435E-07  0.6545E-11  0.4317E-04  0.0000E+00 -0.7574E+12
   -2.612501    4.02297  0.6600E-10  0.3077E-07  0.9514E-11  0.2071E-04  0.0000E+00 -0.1702E+13
   -2.681247    4.02582  0.6600E-10  0.1529E-07  0.2913E-10  0.1305E-05  0.0000E+00 -0.4061E+14
   -2.749993    4.06847  0.6600E-10  0.0000E+00  0.0000E+00  0.0000E+00  0.0000E+00  0.0000E+00
