 1 - depth, m
 2 - temperature, C
 3 - salinity, kg/kg
 4 - turbulent kinetic energy, m**2/s**2
 5 - dissipation rate, m**2/s**3
 6 - kinematic heat conductance, m**2/s
 7 - modulus of horizontal velocity, m/s
 8 - Richardson number, n/d
   -0.000000   -0.00000  0.1431E-15  0.1187E-11  0.5553E-15  0.1000E-09  0.0000E+00  0.4189E+17
   -0.068748    0.69260  0.2827E-12  0.6173E-11  0.1672E-14  0.1000E-09  0.0000E+00  0.2214E+17
   -0.137496    1.13148  0.4898E-10  0.2961E-10  0.7363E-14  0.1000E-09  0.0000E+00  0.1154E+17
   -0.206246    1.39228  0.1100E-09  0.1346E-09  0.3168E-13  0.1109E-09  0.0000E+00  0.5748E+16
   -0.274995    1.53321  0.1414E-09  0.5799E-09  0.1301E-12  0.3382E-09  0.0000E+00  0.2469E+16
   -0.343746    1.59606  0.1417E-09  0.2324E-08  0.5003E-12  0.2535E-08  0.0000E+00  0.1568E+16
   -0.412496    1.63611  0.1247E-09  0.4353E-08  0.1033E-11  0.4263E-05  0.0000E+00  0.1017E+16
   -0.481248    1.66180  0.1070E-09  0.5241E-08  0.1341E-11  0.1352E-04  0.0000E+00  0.5854E+15
   -0.549999    1.67648  0.9694E-10  0.5125E-08  0.1272E-11  0.1334E-04  0.0000E+00  0.6782E+15
   -0.618752    1.69377  0.9062E-10  0.4245E-08  0.9993E-12  0.1217E-05  0.0000E+00  0.1374E+16
   -0.687504    1.73003  0.8412E-10  0.1521E-08  0.3525E-12  0.1757E-08  0.0000E+00  0.2019E+16
   -0.756257    1.78513  0.8146E-10  0.4538E-09  0.1270E-12  0.4218E-09  0.0000E+00  0.2512E+16
   -0.825010    1.85622  0.8056E-10  0.5239E-09  0.1876E-12  0.4385E-09  0.0000E+00  0.2907E+16
   -0.893763    1.94193  0.8019E-10  0.1975E-08  0.7084E-12  0.1151E-08  0.0000E+00  0.3334E+16
   -0.962517    2.04535  0.8000E-10  0.8357E-08  0.2889E-11  0.3057E-08  0.0000E+00  0.4051E+16
   -1.031271    2.18019  0.7986E-10  0.3393E-07  0.1131E-10  0.6743E-08  0.0000E+00  0.5450E+16
   -1.100025    2.39162  0.7967E-10  0.1272E-06  0.4111E-10  0.2401E-07  0.0000E+00  0.6055E+16
   -1.168779    2.77293  0.7916E-10  0.2420E-06  0.7759E-10  0.8593E-04  0.0000E+00  0.4889E+16
   -1.237534    3.16575  0.7857E-10  0.3456E-06  0.1109E-09  0.2105E-03  0.0000E+00  0.3755E+16
   -1.306288    3.50567  0.7803E-10  0.4375E-06  0.1412E-09  0.3209E-03  0.0000E+00  0.2805E+16
   -1.375042    3.79444  0.7757E-10  0.5172E-06  0.1684E-09  0.4175E-03  0.0000E+00  0.1956E+16
   -1.443797    4.03107  0.7723E-10  0.5768E-06  0.1894E-09  0.5007E-03  0.0000E+00  0.8149E+15
   -1.512551    4.18956  0.7701E-10  0.5882E-06  0.1945E-09  0.5719E-03  0.0000E+00  0.1686E+14
   -1.581306    4.20409  0.7700E-10  0.5919E-06  0.1975E-09  0.5782E-03  0.0000E+00 -0.3151E+13
   -1.650060    4.20505  0.7700E-10  0.5947E-06  0.2007E-09  0.5737E-03  0.0000E+00 -0.3251E+13
   -1.718814    4.20602  0.7700E-10  0.5970E-06  0.2043E-09  0.5678E-03  0.0000E+00 -0.3316E+13
   -1.787568    4.20701  0.7699E-10  0.5986E-06  0.2084E-09  0.5598E-03  0.0000E+00 -0.3417E+13
   -1.856321    4.20801  0.7699E-10  0.5996E-06  0.2130E-09  0.5499E-03  0.0000E+00 -0.3534E+13
   -1.925075    4.20905  0.7699E-10  0.5998E-06  0.2181E-09  0.5379E-03  0.0000E+00 -0.3674E+13
   -1.993828    4.21011  0.7699E-10  0.5993E-06  0.2239E-09  0.5241E-03  0.0000E+00 -0.3835E+13
   -2.062581    4.21121  0.7699E-10  0.5980E-06  0.2306E-09  0.5079E-03  0.0000E+00 -0.4009E+13
   -2.131333    4.21236  0.7699E-10  0.5956E-06  0.2387E-09  0.4884E-03  0.0000E+00 -0.4207E+13
   -2.200085    4.21355  0.7699E-10  0.5921E-06  0.2488E-09  0.4653E-03  0.0000E+00 -0.4461E+13
   -2.268837    4.21481  0.7699E-10  0.5871E-06  0.2616E-09  0.4379E-03  0.0000E+00 -0.4792E+13
   -2.337588    4.21615  0.7699E-10  0.5804E-06  0.2785E-09  0.4056E-03  0.0000E+00 -0.5237E+13
   -2.406339    4.21760  0.7699E-10  0.5712E-06  0.3018E-09  0.3670E-03  0.0000E+00 -0.5866E+13
   -2.475090    4.21922  0.7699E-10  0.5584E-06  0.3359E-09  0.3211E-03  0.0000E+00 -0.6828E+13
   -2.543839    4.22109  0.7699E-10  0.5387E-06  0.3936E-09  0.2609E-03  0.0000E+00 -0.8455E+13
   -2.612588    4.22339  0.7699E-10  0.5001E-06  0.5266E-09  0.1179E-03  0.0000E+00 -0.1906E+14
   -2.681337    4.22852  0.7699E-10  0.2411E-06  0.1764E-08  0.5243E-05  0.0000E+00 -0.5276E+15
   -2.750085    4.34181  0.7699E-10  0.0000E+00  0.0000E+00  0.0000E+00  0.0000E+00  0.0000E+00
