 1 - depth, m
 2 - temperature, C
 3 - salinity, kg/kg
 4 - turbulent kinetic energy, m**2/s**2
 5 - dissipation rate, m**2/s**3
 6 - kinematic heat conductance, m**2/s
 7 - modulus of horizontal velocity, m/s
 8 - Richardson number, n/d
   -0.000000   -0.00000  0.3110E-09  0.1219E-13  0.7603E-17  0.1000E-09  0.0000E+00  0.1253E+17
   -0.068746    0.19292  0.2197E-09  0.1219E-13  0.7603E-17  0.1000E-09  0.0000E+00  0.1198E+17
   -0.137493    0.38768  0.1294E-09  0.1219E-13  0.7603E-17  0.1000E-09  0.0000E+00  0.1126E+17
   -0.206240    0.58154  0.9158E-10  0.1219E-13  0.7603E-17  0.1000E-09  0.0000E+00  0.1051E+17
   -0.274988    0.77368  0.7973E-10  0.1219E-13  0.7603E-17  0.1000E-09  0.0000E+00  0.9759E+16
   -0.343737    0.96365  0.7654E-10  0.3105E-13  0.7603E-17  0.1000E-09  0.0000E+00  0.9034E+16
   -0.412486    1.15143  0.7576E-10  0.9881E-13  0.1022E-16  0.1000E-09  0.0000E+00  0.8319E+16
   -0.481235    1.33668  0.7557E-10  0.2331E-12  0.1919E-16  0.1000E-09  0.0000E+00  0.7618E+16
   -0.549985    1.51906  0.7552E-10  0.4927E-12  0.3773E-16  0.1000E-09  0.0000E+00  0.6948E+16
   -0.618735    1.69862  0.7550E-10  0.9944E-12  0.7356E-16  0.1000E-09  0.0000E+00  0.6311E+16
   -0.687486    1.87543  0.7546E-10  0.1968E-11  0.1419E-15  0.1000E-09  0.0000E+00  0.5695E+16
   -0.756237    2.04931  0.7540E-10  0.3853E-11  0.2715E-15  0.1000E-09  0.0000E+00  0.5122E+16
   -0.824989    2.22077  0.7530E-10  0.7480E-11  0.5156E-15  0.1000E-09  0.0000E+00  0.4567E+16
   -0.893740    2.38961  0.7514E-10  0.1441E-10  0.9720E-15  0.1000E-09  0.0000E+00  0.4032E+16
   -0.962492    2.55556  0.7491E-10  0.2759E-10  0.1820E-14  0.1000E-09  0.0000E+00  0.3517E+16
   -1.031244    2.71841  0.7459E-10  0.5244E-10  0.3387E-14  0.1000E-09  0.0000E+00  0.3025E+16
   -1.099997    2.87789  0.7419E-10  0.9932E-10  0.6280E-14  0.1000E-09  0.0000E+00  0.2557E+16
   -1.168749    3.03368  0.7369E-10  0.1872E-09  0.1159E-13  0.1000E-09  0.0000E+00  0.2115E+16
   -1.237501    3.18558  0.7315E-10  0.3509E-09  0.2127E-13  0.1000E-09  0.0000E+00  0.1703E+16
   -1.306254    3.33345  0.7267E-10  0.6537E-09  0.3881E-13  0.1497E-09  0.0000E+00  0.1320E+16
   -1.375007    3.47716  0.7236E-10  0.1210E-08  0.7040E-13  0.3696E-09  0.0000E+00  0.9699E+15
   -1.443759    3.61717  0.7221E-10  0.2227E-08  0.1269E-12  0.9967E-09  0.0000E+00  0.6485E+15
   -1.512512    3.75422  0.7215E-10  0.4067E-08  0.2272E-12  0.3346E-08  0.0000E+00  0.3461E+15
   -1.581264    3.88729  0.7214E-10  0.7295E-08  0.4002E-12  0.2720E-07  0.0000E+00  0.7532E+14
   -1.650017    4.00075  0.7214E-10  0.7747E-08  0.4262E-12  0.5142E-04  0.0000E+00 -0.8530E+11
   -1.718769    4.00112  0.7214E-10  0.7950E-08  0.4405E-12  0.5210E-04  0.0000E+00 -0.8626E+11
   -1.787521    4.00149  0.7214E-10  0.8126E-08  0.4558E-12  0.5225E-04  0.0000E+00 -0.8809E+11
   -1.856273    4.00186  0.7214E-10  0.8277E-08  0.4724E-12  0.5187E-04  0.0000E+00 -0.9083E+11
   -1.925025    4.00222  0.7214E-10  0.8403E-08  0.4907E-12  0.5097E-04  0.0000E+00 -0.9461E+11
   -1.993776    4.00260  0.7214E-10  0.8504E-08  0.5110E-12  0.4955E-04  0.0000E+00 -0.9963E+11
   -2.062527    4.00299  0.7214E-10  0.8581E-08  0.5344E-12  0.4789E-04  0.0000E+00 -0.1066E+12
   -2.131278    4.00339  0.7214E-10  0.8636E-08  0.5629E-12  0.4572E-04  0.0000E+00 -0.1164E+12
   -2.200028    4.00382  0.7214E-10  0.8663E-08  0.5986E-12  0.4286E-04  0.0000E+00 -0.1301E+12
   -2.268778    4.00429  0.7214E-10  0.8658E-08  0.6448E-12  0.3924E-04  0.0000E+00 -0.1501E+12
   -2.337528    4.00481  0.7214E-10  0.8607E-08  0.7072E-12  0.3477E-04  0.0000E+00 -0.1810E+12
   -2.406277    4.00543  0.7214E-10  0.8490E-08  0.7970E-12  0.2935E-04  0.0000E+00 -0.2333E+12
   -2.475025    4.00619  0.7214E-10  0.8262E-08  0.9394E-12  0.2283E-04  0.0000E+00 -0.3357E+12
   -2.543773    4.00724  0.7214E-10  0.7802E-08  0.1207E-11  0.1486E-04  0.0000E+00 -0.5972E+12
   -2.612521    4.00899  0.7214E-10  0.6805E-08  0.1842E-11  0.6546E-05  0.0000E+00 -0.1664E+13
   -2.681267    4.01327  0.7214E-10  0.3427E-08  0.5219E-11  0.4834E-06  0.0000E+00 -0.4330E+14
   -2.750013    4.06543  0.7214E-10  0.0000E+00  0.0000E+00  0.0000E+00  0.0000E+00  0.0000E+00
