 1 - depth, m
 2 - temperature, C
 3 - salinity, kg/kg
 4 - turbulent kinetic energy, m**2/s**2
 5 - dissipation rate, m**2/s**3
 6 - kinematic heat conductance, m**2/s
 7 - modulus of horizontal velocity, m/s
 8 - Richardson number, n/d
   -0.000000   -0.00000  0.2620E-09  0.1219E-13  0.7603E-17  0.1000E-09  0.0000E+00  0.1103E+17
   -0.068746    0.16924  0.1551E-09  0.1219E-13  0.7603E-17  0.1000E-09  0.0000E+00  0.1028E+17
   -0.137492    0.33461  0.9939E-10  0.1219E-13  0.7603E-17  0.1000E-09  0.0000E+00  0.9418E+16
   -0.206239    0.49339  0.8389E-10  0.1219E-13  0.7603E-17  0.1000E-09  0.0000E+00  0.8598E+16
   -0.274987    0.64532  0.8071E-10  0.1219E-13  0.7603E-17  0.1000E-09  0.0000E+00  0.7841E+16
   -0.343735    0.79054  0.8018E-10  0.1219E-13  0.7603E-17  0.1000E-09  0.0000E+00  0.7241E+16
   -0.412484    0.93112  0.8010E-10  0.1219E-13  0.7603E-17  0.1000E-09  0.0000E+00  0.6686E+16
   -0.481233    1.06725  0.8009E-10  0.1219E-13  0.7603E-17  0.1000E-09  0.0000E+00  0.6176E+16
   -0.549983    1.19920  0.8009E-10  0.5923E-13  0.8434E-17  0.1000E-09  0.0000E+00  0.5778E+16
   -0.618733    1.32887  0.8009E-10  0.1601E-12  0.1642E-16  0.1000E-09  0.0000E+00  0.5482E+16
   -0.687483    1.45832  0.8009E-10  0.3655E-12  0.3436E-16  0.1000E-09  0.0000E+00  0.5218E+16
   -0.756234    1.58830  0.8009E-10  0.7892E-12  0.7136E-16  0.1000E-09  0.0000E+00  0.5049E+16
   -0.824985    1.72145  0.8008E-10  0.1665E-11  0.1463E-15  0.1000E-09  0.0000E+00  0.4880E+16
   -0.893736    1.85838  0.8006E-10  0.3467E-11  0.2968E-15  0.1000E-09  0.0000E+00  0.4706E+16
   -0.962488    1.99966  0.8001E-10  0.7143E-11  0.5963E-15  0.1000E-09  0.0000E+00  0.4518E+16
   -1.031240    2.14584  0.7988E-10  0.1458E-10  0.1187E-14  0.1000E-09  0.0000E+00  0.4306E+16
   -1.099992    2.29725  0.7965E-10  0.2958E-10  0.2350E-14  0.1000E-09  0.0000E+00  0.4054E+16
   -1.168744    2.45383  0.7931E-10  0.5959E-10  0.4621E-14  0.1000E-09  0.0000E+00  0.3777E+16
   -1.237496    2.61617  0.7892E-10  0.1191E-09  0.9017E-14  0.1000E-09  0.0000E+00  0.3471E+16
   -1.306248    2.78503  0.7853E-10  0.2362E-09  0.1746E-13  0.1000E-09  0.0000E+00  0.3130E+16
   -1.375001    2.96141  0.7820E-10  0.4646E-09  0.3355E-13  0.1000E-09  0.0000E+00  0.2755E+16
   -1.443753    3.14738  0.7789E-10  0.9069E-09  0.6399E-13  0.1401E-09  0.0000E+00  0.2322E+16
   -1.512505    3.34536  0.7749E-10  0.1757E-08  0.1212E-12  0.3464E-09  0.0000E+00  0.1778E+16
   -1.581257    3.55523  0.7698E-10  0.3378E-08  0.2277E-12  0.1042E-08  0.0000E+00  0.1110E+16
   -1.650010    3.77444  0.7640E-10  0.6429E-08  0.4240E-12  0.6120E-08  0.0000E+00  0.3521E+15
   -1.718762    3.99236  0.7609E-10  0.7080E-08  0.4689E-12  0.3078E-04  0.0000E+00 -0.1073E+12
   -1.787513    3.99341  0.7609E-10  0.7403E-08  0.4967E-12  0.3362E-04  0.0000E+00 -0.1145E+12
   -1.856265    3.99437  0.7609E-10  0.7702E-08  0.5280E-12  0.3565E-04  0.0000E+00 -0.1227E+12
   -1.925016    3.99530  0.7609E-10  0.7977E-08  0.5630E-12  0.3695E-04  0.0000E+00 -0.1324E+12
   -1.993767    3.99619  0.7609E-10  0.8224E-08  0.6021E-12  0.3754E-04  0.0000E+00 -0.1443E+12
   -2.062518    3.99709  0.7609E-10  0.8443E-08  0.6465E-12  0.3745E-04  0.0000E+00 -0.1593E+12
   -2.131269    3.99799  0.7609E-10  0.8641E-08  0.7002E-12  0.3659E-04  0.0000E+00 -0.1793E+12
   -2.200019    3.99894  0.7609E-10  0.8815E-08  0.7665E-12  0.3492E-04  0.0000E+00 -0.2070E+12
   -2.268768    3.99994  0.7609E-10  0.8957E-08  0.8511E-12  0.3243E-04  0.0000E+00 -0.2471E+12
   -2.337517    4.00106  0.7609E-10  0.9056E-08  0.9642E-12  0.2905E-04  0.0000E+00 -0.3092E+12
   -2.406266    4.00234  0.7609E-10  0.9088E-08  0.1126E-11  0.2470E-04  0.0000E+00 -0.4153E+12
   -2.475014    4.00392  0.7609E-10  0.9008E-08  0.1381E-11  0.1931E-04  0.0000E+00 -0.6278E+12
   -2.543762    4.00606  0.7609E-10  0.8689E-08  0.1863E-11  0.1264E-04  0.0000E+00 -0.1190E+13
   -2.612509    4.00959  0.7609E-10  0.7797E-08  0.3013E-11  0.5691E-05  0.0000E+00 -0.3618E+13
   -2.681255    4.01799  0.7609E-10  0.4793E-08  0.8764E-11  0.6491E-06  0.0000E+00 -0.7269E+14
   -2.750001    4.08776  0.7609E-10  0.0000E+00  0.0000E+00  0.0000E+00  0.0000E+00  0.0000E+00
