 1 - depth, m
 2 - temperature, C
 3 - salinity, kg/kg
 4 - turbulent kinetic energy, m**2/s**2
 5 - dissipation rate, m**2/s**3
 6 - kinematic heat conductance, m**2/s
 7 - modulus of horizontal velocity, m/s
 8 - Richardson number, n/d
   -0.000000   -0.00000  0.2585E-09  0.1219E-13  0.7603E-17  0.1000E-09  0.0000E+00  0.1292E+17
   -0.068746    0.19907  0.9472E-10  0.1219E-13  0.7603E-17  0.1000E-09  0.0000E+00  0.1153E+17
   -0.137492    0.38671  0.7306E-10  0.1219E-13  0.7603E-17  0.1000E-09  0.0000E+00  0.1001E+17
   -0.206239    0.55843  0.7066E-10  0.2411E-13  0.7933E-17  0.1000E-09  0.0000E+00  0.8623E+16
   -0.274986    0.71404  0.7038E-10  0.7425E-13  0.1304E-16  0.1000E-09  0.0000E+00  0.7420E+16
   -0.343735    0.85447  0.7035E-10  0.2140E-12  0.3154E-16  0.1000E-09  0.0000E+00  0.6592E+16
   -0.412483    0.98504  0.7035E-10  0.5703E-12  0.7983E-16  0.1000E-09  0.0000E+00  0.5913E+16
   -0.481232    1.10745  0.7035E-10  0.1473E-11  0.1995E-15  0.1000E-09  0.0000E+00  0.5383E+16
   -0.549982    1.22384  0.7035E-10  0.3739E-11  0.4914E-15  0.1000E-09  0.0000E+00  0.5136E+16
   -0.618732    1.33990  0.7035E-10  0.9315E-11  0.1189E-14  0.1000E-09  0.0000E+00  0.5146E+16
   -0.687482    1.46177  0.7034E-10  0.2288E-10  0.2837E-14  0.1000E-09  0.0000E+00  0.5258E+16
   -0.756233    1.59299  0.7034E-10  0.5545E-10  0.6685E-14  0.1000E-09  0.0000E+00  0.5594E+16
   -0.824984    1.74134  0.7030E-10  0.1327E-09  0.1556E-13  0.1000E-09  0.0000E+00  0.5914E+16
   -0.893735    1.91013  0.7017E-10  0.3136E-09  0.3576E-13  0.1000E-09  0.0000E+00  0.6163E+16
   -0.962486    2.10266  0.6982E-10  0.7323E-09  0.8124E-13  0.1000E-09  0.0000E+00  0.6278E+16
   -1.031238    2.32227  0.6912E-10  0.1690E-08  0.1824E-12  0.1529E-09  0.0000E+00  0.6183E+16
   -1.099990    2.57259  0.6815E-10  0.3867E-08  0.4065E-12  0.3565E-09  0.0000E+00  0.5806E+16
   -1.168742    2.85857  0.6717E-10  0.8759E-08  0.8967E-12  0.9046E-09  0.0000E+00  0.5043E+16
   -1.237494    3.18833  0.6652E-10  0.1960E-07  0.1955E-11  0.2708E-08  0.0000E+00  0.3668E+16
   -1.306246    3.57233  0.6616E-10  0.4298E-07  0.4184E-11  0.1688E-07  0.0000E+00  0.1347E+16
   -1.374998    3.99055  0.6557E-10  0.4912E-07  0.4828E-11  0.1497E-03  0.0000E+00  0.2070E+14
   -1.443751    4.02654  0.6555E-10  0.4972E-07  0.4900E-11  0.1861E-03  0.0000E+00 -0.2514E+12
   -1.512503    4.02694  0.6555E-10  0.5014E-07  0.4963E-11  0.1850E-03  0.0000E+00 -0.2566E+12
   -1.581255    4.02734  0.6555E-10  0.5050E-07  0.5033E-11  0.1850E-03  0.0000E+00 -0.2588E+12
   -1.650007    4.02774  0.6555E-10  0.5080E-07  0.5109E-11  0.1849E-03  0.0000E+00 -0.2611E+12
   -1.718759    4.02814  0.6555E-10  0.5104E-07  0.5192E-11  0.1831E-03  0.0000E+00 -0.2656E+12
   -1.787511    4.02854  0.6555E-10  0.5122E-07  0.5285E-11  0.1811E-03  0.0000E+00 -0.2709E+12
   -1.856262    4.02895  0.6555E-10  0.5134E-07  0.5387E-11  0.1785E-03  0.0000E+00 -0.2775E+12
   -1.925013    4.02936  0.6555E-10  0.5140E-07  0.5500E-11  0.1754E-03  0.0000E+00 -0.2852E+12
   -1.993764    4.02978  0.6555E-10  0.5140E-07  0.5626E-11  0.1720E-03  0.0000E+00 -0.2929E+12
   -2.062515    4.03021  0.6555E-10  0.5132E-07  0.5770E-11  0.1678E-03  0.0000E+00 -0.3026E+12
   -2.131265    4.03064  0.6555E-10  0.5117E-07  0.5945E-11  0.1625E-03  0.0000E+00 -0.3149E+12
   -2.200015    4.03110  0.6555E-10  0.5093E-07  0.6160E-11  0.1558E-03  0.0000E+00 -0.3313E+12
   -2.268765    4.03156  0.6555E-10  0.5057E-07  0.6436E-11  0.1471E-03  0.0000E+00 -0.3544E+12
   -2.337514    4.03206  0.6555E-10  0.5004E-07  0.6819E-11  0.1347E-03  0.0000E+00 -0.3919E+12
   -2.406262    4.03261  0.6555E-10  0.4919E-07  0.7422E-11  0.1087E-03  0.0000E+00 -0.4941E+12
   -2.475010    4.03329  0.6555E-10  0.4778E-07  0.8459E-11  0.7723E-04  0.0000E+00 -0.7154E+12
   -2.543758    4.03426  0.6555E-10  0.4533E-07  0.1043E-10  0.5008E-04  0.0000E+00 -0.1150E+13
   -2.612505    4.03578  0.6555E-10  0.4074E-07  0.1486E-10  0.2443E-04  0.0000E+00 -0.2505E+13
   -2.681251    4.03894  0.6555E-10  0.2055E-07  0.4446E-10  0.1583E-05  0.0000E+00 -0.5450E+14
   -2.749997    4.08505  0.6555E-10  0.0000E+00  0.0000E+00  0.0000E+00  0.0000E+00  0.0000E+00
