 1 - depth, m
 2 - temperature, C
 3 - salinity, kg/kg
 4 - turbulent kinetic energy, m**2/s**2
 5 - dissipation rate, m**2/s**3
 6 - kinematic heat conductance, m**2/s
 7 - modulus of horizontal velocity, m/s
 8 - Richardson number, n/d
   -0.000000   -0.00000  0.1128E-08  0.3842E-11  0.1130E-14  0.1000E-09  0.0000E+00  0.2174E+17
   -0.068746    0.34166  0.6230E-10  0.1103E-10  0.1143E-14  0.1000E-09  0.0000E+00  0.1958E+17
   -0.137492    0.68148  0.7901E-10  0.2567E-10  0.1859E-14  0.1000E-09  0.0000E+00  0.1729E+17
   -0.206239    1.01575  0.6916E-10  0.5252E-10  0.3395E-14  0.1000E-09  0.0000E+00  0.1506E+17
   -0.274987    1.34300  0.7047E-10  0.1017E-09  0.6277E-14  0.1000E-09  0.0000E+00  0.1292E+17
   -0.343735    1.66199  0.7030E-10  0.1918E-09  0.1152E-13  0.1000E-09  0.0000E+00  0.1090E+17
   -0.412483    1.97161  0.7024E-10  0.3568E-09  0.2097E-13  0.1000E-09  0.0000E+00  0.9004E+16
   -0.481232    2.27068  0.7005E-10  0.6582E-09  0.3791E-13  0.1000E-09  0.0000E+00  0.7257E+16
   -0.549982    2.55808  0.6963E-10  0.1207E-08  0.6816E-13  0.1000E-09  0.0000E+00  0.5677E+16
   -0.618732    2.83313  0.6888E-10  0.2192E-08  0.1215E-12  0.1448E-09  0.0000E+00  0.4271E+16
   -0.687482    3.09557  0.6783E-10  0.3955E-08  0.2151E-12  0.3607E-09  0.0000E+00  0.3036E+16
   -0.756233    3.34554  0.6690E-10  0.7094E-08  0.3786E-12  0.9784E-09  0.0000E+00  0.1970E+16
   -0.824984    3.58489  0.6650E-10  0.1264E-07  0.6622E-12  0.3267E-08  0.0000E+00  0.1032E+16
   -0.893735    3.81314  0.6643E-10  0.2216E-07  0.1141E-11  0.2509E-07  0.0000E+00  0.2318E+15
   -0.962487    4.00756  0.6642E-10  0.2249E-07  0.1160E-11  0.1657E-03  0.0000E+00 -0.6498E+11
   -1.031239    4.00775  0.6642E-10  0.2265E-07  0.1170E-11  0.1618E-03  0.0000E+00 -0.6723E+11
   -1.099990    4.00795  0.6642E-10  0.2280E-07  0.1182E-11  0.1620E-03  0.0000E+00 -0.6804E+11
   -1.168742    4.00815  0.6642E-10  0.2293E-07  0.1194E-11  0.1622E-03  0.0000E+00 -0.6887E+11
   -1.237495    4.00835  0.6642E-10  0.2305E-07  0.1208E-11  0.1620E-03  0.0000E+00 -0.6985E+11
   -1.306247    4.00855  0.6642E-10  0.2316E-07  0.1223E-11  0.1616E-03  0.0000E+00 -0.7098E+11
   -1.374999    4.00876  0.6642E-10  0.2326E-07  0.1240E-11  0.1608E-03  0.0000E+00 -0.7221E+11
   -1.443751    4.00896  0.6642E-10  0.2334E-07  0.1258E-11  0.1598E-03  0.0000E+00 -0.7351E+11
   -1.512503    4.00917  0.6642E-10  0.2341E-07  0.1278E-11  0.1584E-03  0.0000E+00 -0.7498E+11
   -1.581256    4.00937  0.6642E-10  0.2346E-07  0.1299E-11  0.1567E-03  0.0000E+00 -0.7667E+11
   -1.650008    4.00959  0.6642E-10  0.2350E-07  0.1323E-11  0.1546E-03  0.0000E+00 -0.7859E+11
   -1.718760    4.00980  0.6642E-10  0.2353E-07  0.1349E-11  0.1523E-03  0.0000E+00 -0.8076E+11
   -1.787511    4.01002  0.6642E-10  0.2353E-07  0.1377E-11  0.1495E-03  0.0000E+00 -0.8324E+11
   -1.856263    4.01024  0.6642E-10  0.2352E-07  0.1408E-11  0.1464E-03  0.0000E+00 -0.8606E+11
   -1.925014    4.01047  0.6642E-10  0.2350E-07  0.1443E-11  0.1429E-03  0.0000E+00 -0.8928E+11
   -1.993765    4.01070  0.6642E-10  0.2345E-07  0.1481E-11  0.1391E-03  0.0000E+00 -0.9294E+11
   -2.062516    4.01095  0.6642E-10  0.2339E-07  0.1525E-11  0.1348E-03  0.0000E+00 -0.9737E+11
   -2.131266    4.01120  0.6642E-10  0.2329E-07  0.1577E-11  0.1296E-03  0.0000E+00 -0.1029E+12
   -2.200016    4.01146  0.6642E-10  0.2316E-07  0.1645E-11  0.1236E-03  0.0000E+00 -0.1099E+12
   -2.268766    4.01174  0.6642E-10  0.2295E-07  0.1742E-11  0.1090E-03  0.0000E+00 -0.1274E+12
   -2.337515    4.01206  0.6642E-10  0.2264E-07  0.1887E-11  0.8612E-04  0.0000E+00 -0.1657E+12
   -2.406263    4.01246  0.6642E-10  0.2219E-07  0.2104E-11  0.6781E-04  0.0000E+00 -0.2181E+12
   -2.475011    4.01299  0.6642E-10  0.2149E-07  0.2450E-11  0.5104E-04  0.0000E+00 -0.3044E+12
   -2.543759    4.01371  0.6642E-10  0.2031E-07  0.3099E-11  0.3288E-04  0.0000E+00 -0.5049E+12
   -2.612506    4.01486  0.6642E-10  0.1807E-07  0.4587E-11  0.1525E-04  0.0000E+00 -0.1198E+13
   -2.681252    4.01743  0.6642E-10  0.8521E-08  0.1426E-10  0.8546E-06  0.0000E+00 -0.3417E+14
   -2.749998    4.05934  0.6642E-10  0.0000E+00  0.0000E+00  0.0000E+00  0.0000E+00  0.0000E+00
