 1 - depth, m
 2 - temperature, C
 3 - salinity, kg/kg
 4 - turbulent kinetic energy, m**2/s**2
 5 - dissipation rate, m**2/s**3
 6 - kinematic heat conductance, m**2/s
 7 - modulus of horizontal velocity, m/s
 8 - Richardson number, n/d
   -0.000000   -0.00000  0.2501E-09  0.1187E-07  0.2543E-10  0.5689E-08  0.1342E-56  0.2254E+17
   -0.068745    0.35502  0.7524E-10  0.1314E-06  0.1600E-10  0.6130E-08  0.3368E-57  0.1329E+17
   -0.137490    0.58285  0.7197E-10  0.3853E-06  0.1512E-10  0.1102E-07  0.8226E-58  0.6990E+16
   -0.206236    0.70946  0.7146E-10  0.7297E-06  0.1762E-10  0.3367E-07  0.1893E-58  0.2674E+16
   -0.274983    0.75930  0.7137E-10  0.7317E-06  0.1764E-10  0.7935E-02  0.1912E-59  0.5626E+12
   -0.343730    0.75931  0.7137E-10  0.7318E-06  0.1764E-10  0.9296E-02  0.1910E-59 -0.1792E+11
   -0.412478    0.75931  0.7137E-10  0.7319E-06  0.1764E-10  0.9272E-02  0.1909E-59 -0.3842E+11
   -0.481226    0.75931  0.7137E-10  0.7320E-06  0.1764E-10  0.9266E-02  0.1907E-59 -0.5558E+11
   -0.549975    0.75931  0.7137E-10  0.7321E-06  0.1764E-10  0.9265E-02  0.1907E-59 -0.6131E+11
   -0.618724    0.75931  0.7137E-10  0.7321E-06  0.1764E-10  0.9267E-02  0.1906E-59 -0.5544E+11
   -0.687474    0.75931  0.7137E-10  0.7321E-06  0.1764E-10  0.9270E-02  0.1906E-59 -0.4704E+11
   -0.756223    0.75931  0.7137E-10  0.7320E-06  0.1764E-10  0.9276E-02  0.1905E-59 -0.3614E+11
   -0.824974    0.75931  0.7137E-10  0.7319E-06  0.1764E-10  0.9285E-02  0.1905E-59 -0.2331E+11
   -0.893724    0.75931  0.7137E-10  0.7318E-06  0.1764E-10  0.9332E-02  0.1904E-59 -0.8710E+10
   -0.962475    0.75930  0.7137E-10  0.7317E-06  0.1763E-10  0.2055E-02  0.1904E-59  0.3543E+11
   -1.031225    0.75931  0.7137E-10  0.7313E-06  0.1762E-10  0.1262E-06  0.1902E-59  0.7114E+15
   -1.099976    0.77270  0.7121E-10  0.5242E-06  0.1273E-10  0.6610E-07  0.6407E-60  0.9813E+15
   -1.168728    0.79128  0.7092E-10  0.3652E-06  0.8974E-11  0.3538E-07  0.1956E-60  0.1292E+16
   -1.237479    0.81591  0.7048E-10  0.2496E-06  0.6223E-11  0.1915E-07  0.5569E-61  0.1655E+16
   -1.306230    0.84776  0.7002E-10  0.1682E-06  0.4270E-11  0.1040E-07  0.1510E-61  0.2091E+16
   -1.374982    0.88850  0.6978E-10  0.1117E-06  0.2908E-11  0.5091E-08  0.3944E-62  0.2909E+16
   -1.443733    0.94615  0.6968E-10  0.7287E-07  0.1976E-11  0.2338E-08  0.9967E-63  0.4303E+16
   -1.512484    1.03363  0.6954E-10  0.4632E-07  0.1356E-11  0.1175E-08  0.2446E-63  0.5874E+16
   -1.581236    1.15766  0.6925E-10  0.2822E-07  0.9732E-12  0.6450E-09  0.5847E-64  0.7659E+16
   -1.649987    1.32857  0.6872E-10  0.1612E-07  0.7965E-12  0.4193E-09  0.1361E-64  0.9610E+16
   -1.718738    1.56097  0.6812E-10  0.8910E-08  0.8755E-12  0.3826E-09  0.3088E-65  0.1153E+17
   -1.787489    1.87539  0.6788E-10  0.7167E-08  0.1550E-11  0.6013E-09  0.6822E-66  0.1298E+17
   -1.856239    2.30271  0.6784E-10  0.1543E-07  0.4391E-11  0.1769E-08  0.1467E-66  0.1281E+17
   -1.924990    2.89185  0.6773E-10  0.5164E-07  0.1475E-10  0.1374E-07  0.3066E-67  0.8276E+16
   -1.993740    3.66360  0.6770E-10  0.8891E-07  0.2533E-10  0.5098E-04  0.6040E-68  0.1668E+16
   -2.062490    4.10320  0.6773E-10  0.9381E-07  0.2690E-10  0.1276E-03  0.2050E-69 -0.2206E+13
   -2.131239    4.10442  0.6773E-10  0.9616E-07  0.2800E-10  0.1263E-03  0.1204E-69 -0.2315E+13
   -2.199988    4.10567  0.6773E-10  0.9799E-07  0.2926E-10  0.1254E-03  0.7497E-70 -0.2418E+13
   -2.268737    4.10697  0.6773E-10  0.9930E-07  0.3078E-10  0.1225E-03  0.4618E-70 -0.2568E+13
   -2.337485    4.10833  0.6773E-10  0.1000E-06  0.3270E-10  0.1175E-03  0.2772E-70 -0.2790E+13
   -2.406233    4.10979  0.6773E-10  0.1000E-06  0.3525E-10  0.1095E-03  0.1578E-70 -0.3135E+13
   -2.474980    4.11141  0.6773E-10  0.9894E-07  0.3913E-10  0.9618E-04  0.7913E-71 -0.3774E+13
   -2.543727    4.11335  0.6773E-10  0.9568E-07  0.4651E-10  0.6624E-04  0.3622E-71 -0.5874E+13
   -2.612473    4.11632  0.6773E-10  0.8753E-07  0.6309E-10  0.3449E-04  0.1525E-71 -0.1233E+14
   -2.681218    4.12234  0.6773E-10  0.4683E-07  0.1696E-09  0.2625E-05  0.4751E-72 -0.2188E+15
   -2.749963    4.20225  0.6773E-10  0.0000E+00  0.0000E+00  0.0000E+00  0.6424E-72  0.0000E+00
