 1 - depth, m
 2 - temperature, C
 3 - salinity, kg/kg
 4 - turbulent kinetic energy, m**2/s**2
 5 - dissipation rate, m**2/s**3
 6 - kinematic heat conductance, m**2/s
 7 - modulus of horizontal velocity, m/s
 8 - Richardson number, n/d
   -0.000000   -0.00000  0.4526E-09  0.1219E-13  0.7603E-17  0.1000E-09  0.0000E+00  0.1186E+17
   -0.068746    0.18237  0.2067E-09  0.1219E-13  0.7603E-17  0.1000E-09  0.0000E+00  0.1120E+17
   -0.137492    0.36353  0.1142E-09  0.1219E-13  0.7603E-17  0.1000E-09  0.0000E+00  0.1046E+17
   -0.206239    0.54200  0.8819E-10  0.1219E-13  0.7603E-17  0.1000E-09  0.0000E+00  0.9749E+16
   -0.274987    0.71756  0.8195E-10  0.1219E-13  0.7603E-17  0.1000E-09  0.0000E+00  0.9056E+16
   -0.343735    0.89005  0.8051E-10  0.1219E-13  0.7603E-17  0.1000E-09  0.0000E+00  0.8401E+16
   -0.412483    1.05963  0.8018E-10  0.1219E-13  0.7603E-17  0.1000E-09  0.0000E+00  0.7768E+16
   -0.481232    1.22619  0.8011E-10  0.1219E-13  0.7603E-17  0.1000E-09  0.0000E+00  0.7159E+16
   -0.549982    1.38959  0.8009E-10  0.1219E-13  0.7603E-17  0.1000E-09  0.0000E+00  0.6584E+16
   -0.618732    1.54996  0.8007E-10  0.1219E-13  0.7603E-17  0.1000E-09  0.0000E+00  0.6042E+16
   -0.687482    1.70746  0.8004E-10  0.1219E-13  0.7603E-17  0.1000E-09  0.0000E+00  0.5523E+16
   -0.756233    1.86204  0.7999E-10  0.1219E-13  0.7603E-17  0.1000E-09  0.0000E+00  0.5052E+16
   -0.824984    2.01441  0.7990E-10  0.5483E-13  0.8068E-17  0.1000E-09  0.0000E+00  0.4596E+16
   -0.893735    2.16443  0.7975E-10  0.1497E-12  0.1546E-16  0.1000E-09  0.0000E+00  0.4155E+16
   -0.962487    2.31199  0.7954E-10  0.3448E-12  0.3249E-16  0.1000E-09  0.0000E+00  0.3732E+16
   -1.031238    2.45697  0.7927E-10  0.7506E-12  0.6808E-16  0.1000E-09  0.0000E+00  0.3327E+16
   -1.099990    2.59926  0.7894E-10  0.1603E-11  0.1416E-15  0.1000E-09  0.0000E+00  0.2941E+16
   -1.168742    2.73885  0.7858E-10  0.3389E-11  0.2922E-15  0.1000E-09  0.0000E+00  0.2573E+16
   -1.237494    2.87556  0.7820E-10  0.7100E-11  0.5983E-15  0.1000E-09  0.0000E+00  0.2222E+16
   -1.306247    3.00923  0.7778E-10  0.1476E-10  0.1216E-14  0.1000E-09  0.0000E+00  0.1890E+16
   -1.374999    3.13961  0.7734E-10  0.3044E-10  0.2452E-14  0.1000E-09  0.0000E+00  0.1579E+16
   -1.443751    3.26669  0.7690E-10  0.6233E-10  0.4908E-14  0.1000E-09  0.0000E+00  0.1289E+16
   -1.512503    3.39052  0.7654E-10  0.1267E-09  0.9756E-14  0.1000E-09  0.0000E+00  0.1015E+16
   -1.581255    3.51042  0.7632E-10  0.2555E-09  0.1926E-13  0.1290E-09  0.0000E+00  0.7595E+15
   -1.650007    3.62556  0.7623E-10  0.5118E-09  0.3773E-13  0.3638E-09  0.0000E+00  0.5276E+15
   -1.718759    3.73509  0.7620E-10  0.1017E-08  0.7341E-13  0.1150E-08  0.0000E+00  0.3246E+15
   -1.787511    3.83864  0.7619E-10  0.2004E-08  0.1416E-12  0.4770E-08  0.0000E+00  0.1509E+15
   -1.856263    3.93554  0.7619E-10  0.3792E-08  0.2635E-12  0.7144E-07  0.0000E+00  0.1857E+14
   -1.925014    4.00074  0.7619E-10  0.4374E-08  0.3058E-12  0.2300E-04  0.0000E+00 -0.1382E+12
   -1.993765    4.00133  0.7619E-10  0.4636E-08  0.3298E-12  0.2345E-04  0.0000E+00 -0.1416E+12
   -2.062516    4.00192  0.7619E-10  0.4861E-08  0.3565E-12  0.2363E-04  0.0000E+00 -0.1498E+12
   -2.131266    4.00252  0.7619E-10  0.5062E-08  0.3883E-12  0.2342E-04  0.0000E+00 -0.1635E+12
   -2.200016    4.00316  0.7619E-10  0.5239E-08  0.4274E-12  0.2266E-04  0.0000E+00 -0.1844E+12
   -2.268765    4.00384  0.7619E-10  0.5390E-08  0.4772E-12  0.2133E-04  0.0000E+00 -0.2165E+12
   -2.337514    4.00461  0.7619E-10  0.5509E-08  0.5438E-12  0.1937E-04  0.0000E+00 -0.2678E+12
   -2.406263    4.00552  0.7619E-10  0.5582E-08  0.6387E-12  0.1674E-04  0.0000E+00 -0.3576E+12
   -2.475011    4.00668  0.7619E-10  0.5579E-08  0.7879E-12  0.1334E-04  0.0000E+00 -0.5403E+12
   -2.543759    4.00831  0.7619E-10  0.5409E-08  0.1066E-11  0.8865E-05  0.0000E+00 -0.1025E+13
   -2.612506    4.01110  0.7619E-10  0.4827E-08  0.1716E-11  0.3951E-05  0.0000E+00 -0.3127E+13
   -2.681252    4.01815  0.7619E-10  0.2902E-08  0.4702E-11  0.4430E-06  0.0000E+00 -0.5696E+14
   -2.749998    4.07737  0.7619E-10  0.0000E+00  0.0000E+00  0.0000E+00  0.0000E+00  0.0000E+00
