 1 - depth, m
 2 - temperature, C
 3 - salinity, kg/kg
 4 - turbulent kinetic energy, m**2/s**2
 5 - dissipation rate, m**2/s**3
 6 - kinematic heat conductance, m**2/s
 7 - modulus of horizontal velocity, m/s
 8 - Richardson number, n/d
   -0.000000   -0.00000  0.9626E-09  0.2369E-11  0.6120E-15  0.1000E-09  0.0000E+00  0.2010E+17
   -0.068746    0.31481  0.1836E-09  0.6261E-11  0.6035E-15  0.1000E-09  0.0000E+00  0.1812E+17
   -0.137492    0.62550  0.8454E-10  0.1409E-10  0.9405E-15  0.1000E-09  0.0000E+00  0.1611E+17
   -0.206239    0.92977  0.7134E-10  0.2810E-10  0.1658E-14  0.1000E-09  0.0000E+00  0.1420E+17
   -0.274986    1.22720  0.7038E-10  0.5302E-10  0.2973E-14  0.1000E-09  0.0000E+00  0.1240E+17
   -0.343734    1.51748  0.7024E-10  0.9730E-10  0.5297E-14  0.1000E-09  0.0000E+00  0.1071E+17
   -0.412483    1.80044  0.7007E-10  0.1759E-09  0.9360E-14  0.1000E-09  0.0000E+00  0.9133E+16
   -0.481232    2.07588  0.6974E-10  0.3152E-09  0.1643E-13  0.1000E-09  0.0000E+00  0.7666E+16
   -0.549981    2.34362  0.6916E-10  0.5610E-09  0.2865E-13  0.1000E-09  0.0000E+00  0.6314E+16
   -0.618731    2.60370  0.6834E-10  0.9890E-09  0.4952E-13  0.1000E-09  0.0000E+00  0.5071E+16
   -0.687481    2.85624  0.6746E-10  0.1732E-08  0.8502E-13  0.1101E-09  0.0000E+00  0.3931E+16
   -0.756232    3.10132  0.6681E-10  0.3014E-08  0.1451E-12  0.2550E-09  0.0000E+00  0.2897E+16
   -0.824983    3.33991  0.6652E-10  0.5214E-08  0.2463E-12  0.6454E-09  0.0000E+00  0.1943E+16
   -0.893734    3.57175  0.6644E-10  0.8965E-08  0.4156E-12  0.1984E-08  0.0000E+00  0.1067E+16
   -0.962485    3.79562  0.6643E-10  0.1525E-07  0.6942E-12  0.1245E-07  0.0000E+00  0.2841E+15
   -1.031237    3.99932  0.6643E-10  0.1557E-07  0.7096E-12  0.1326E-03  0.0000E+00 -0.4797E+11
   -1.099989    3.99956  0.6643E-10  0.1571E-07  0.7175E-12  0.1302E-03  0.0000E+00 -0.4970E+11
   -1.168741    3.99980  0.6643E-10  0.1583E-07  0.7256E-12  0.1305E-03  0.0000E+00 -0.5049E+11
   -1.237493    4.00003  0.6643E-10  0.1594E-07  0.7345E-12  0.1307E-03  0.0000E+00 -0.5133E+11
   -1.306245    4.00027  0.6643E-10  0.1604E-07  0.7442E-12  0.1307E-03  0.0000E+00 -0.5228E+11
   -1.374997    4.00051  0.6643E-10  0.1613E-07  0.7548E-12  0.1304E-03  0.0000E+00 -0.5332E+11
   -1.443749    4.00074  0.6643E-10  0.1621E-07  0.7664E-12  0.1298E-03  0.0000E+00 -0.5445E+11
   -1.512501    4.00098  0.6643E-10  0.1628E-07  0.7789E-12  0.1289E-03  0.0000E+00 -0.5572E+11
   -1.581253    4.00122  0.6643E-10  0.1634E-07  0.7926E-12  0.1277E-03  0.0000E+00 -0.5715E+11
   -1.650005    4.00147  0.6643E-10  0.1639E-07  0.8076E-12  0.1263E-03  0.0000E+00 -0.5876E+11
   -1.718757    4.00171  0.6643E-10  0.1643E-07  0.8239E-12  0.1245E-03  0.0000E+00 -0.6057E+11
   -1.787509    4.00196  0.6643E-10  0.1645E-07  0.8418E-12  0.1224E-03  0.0000E+00 -0.6262E+11
   -1.856260    4.00221  0.6643E-10  0.1646E-07  0.8614E-12  0.1200E-03  0.0000E+00 -0.6495E+11
   -1.925011    4.00247  0.6643E-10  0.1646E-07  0.8830E-12  0.1172E-03  0.0000E+00 -0.6759E+11
   -1.993762    4.00274  0.6643E-10  0.1644E-07  0.9073E-12  0.1142E-03  0.0000E+00 -0.7061E+11
   -2.062513    4.00301  0.6643E-10  0.1641E-07  0.9363E-12  0.1105E-03  0.0000E+00 -0.7441E+11
   -2.131263    4.00329  0.6643E-10  0.1634E-07  0.9753E-12  0.1048E-03  0.0000E+00 -0.8015E+11
   -2.200013    4.00359  0.6643E-10  0.1624E-07  0.1028E-11  0.9023E-04  0.0000E+00 -0.9545E+11
   -2.268762    4.00394  0.6643E-10  0.1608E-07  0.1098E-11  0.7617E-04  0.0000E+00 -0.1165E+12
   -2.337511    4.00436  0.6643E-10  0.1586E-07  0.1196E-11  0.6417E-04  0.0000E+00 -0.1435E+12
   -2.406260    4.00486  0.6643E-10  0.1553E-07  0.1338E-11  0.5255E-04  0.0000E+00 -0.1835E+12
   -2.475008    4.00548  0.6643E-10  0.1502E-07  0.1564E-11  0.3981E-04  0.0000E+00 -0.2576E+12
   -2.543755    4.00632  0.6643E-10  0.1415E-07  0.1990E-11  0.2546E-04  0.0000E+00 -0.4379E+12
   -2.612502    4.00767  0.6643E-10  0.1248E-07  0.2986E-11  0.1150E-04  0.0000E+00 -0.1104E+13
   -2.681248    4.01075  0.6643E-10  0.5822E-08  0.9169E-11  0.6643E-06  0.0000E+00 -0.3507E+14
   -2.749994    4.05756  0.6643E-10  0.0000E+00  0.0000E+00  0.0000E+00  0.0000E+00  0.0000E+00
