 1 - depth, m
 2 - temperature, C
 3 - salinity, kg/kg
 4 - turbulent kinetic energy, m**2/s**2
 5 - dissipation rate, m**2/s**3
 6 - kinematic heat conductance, m**2/s
 7 - modulus of horizontal velocity, m/s
 8 - Richardson number, n/d
   -0.000000   -0.00000  0.2736E-09  0.2380E-12  0.4410E-16  0.1000E-09  0.0000E+00  0.1433E+17
   -0.068746    0.22160  0.1102E-09  0.5190E-12  0.6244E-16  0.1000E-09  0.0000E+00  0.1321E+17
   -0.137492    0.43893  0.7622E-10  0.1205E-11  0.1259E-15  0.1000E-09  0.0000E+00  0.1199E+17
   -0.206239    0.64912  0.7111E-10  0.2711E-11  0.2693E-15  0.1000E-09  0.0000E+00  0.1087E+17
   -0.274987    0.85259  0.7044E-10  0.5973E-11  0.5758E-15  0.1000E-09  0.0000E+00  0.9884E+16
   -0.343735    1.05053  0.7036E-10  0.1296E-10  0.1218E-14  0.1000E-09  0.0000E+00  0.9129E+16
   -0.412484    1.24668  0.7035E-10  0.2782E-10  0.2551E-14  0.1000E-09  0.0000E+00  0.8466E+16
   -0.481233    1.44272  0.7035E-10  0.5918E-10  0.5297E-14  0.1000E-09  0.0000E+00  0.7882E+16
   -0.549983    1.64058  0.7034E-10  0.1248E-09  0.1091E-13  0.1000E-09  0.0000E+00  0.7421E+16
   -0.618733    1.84422  0.7034E-10  0.2601E-09  0.2221E-13  0.1000E-09  0.0000E+00  0.7038E+16
   -0.687483    2.05789  0.7034E-10  0.5374E-09  0.4484E-13  0.1000E-09  0.0000E+00  0.6635E+16
   -0.756234    2.28458  0.7031E-10  0.1101E-08  0.8982E-13  0.1000E-09  0.0000E+00  0.6235E+16
   -0.824985    2.53039  0.7021E-10  0.2240E-08  0.1786E-12  0.1609E-09  0.0000E+00  0.5651E+16
   -0.893736    2.79751  0.6997E-10  0.4520E-08  0.3525E-12  0.3730E-09  0.0000E+00  0.4812E+16
   -0.962488    3.08682  0.6944E-10  0.9052E-08  0.6905E-12  0.9615E-09  0.0000E+00  0.3659E+16
   -1.031240    3.39679  0.6846E-10  0.1797E-07  0.1342E-11  0.3130E-08  0.0000E+00  0.2187E+16
   -1.099992    3.72098  0.6669E-10  0.3514E-07  0.2571E-11  0.2409E-07  0.0000E+00  0.5461E+15
   -1.168744    4.01689  0.6584E-10  0.3575E-07  0.2619E-11  0.1830E-03  0.0000E+00 -0.1300E+12
   -1.237496    4.01716  0.6584E-10  0.3604E-07  0.2646E-11  0.1788E-03  0.0000E+00 -0.1360E+12
   -1.306248    4.01744  0.6584E-10  0.3631E-07  0.2677E-11  0.1790E-03  0.0000E+00 -0.1390E+12
   -1.375001    4.01773  0.6584E-10  0.3655E-07  0.2712E-11  0.1790E-03  0.0000E+00 -0.1417E+12
   -1.443753    4.01801  0.6584E-10  0.3677E-07  0.2750E-11  0.1787E-03  0.0000E+00 -0.1441E+12
   -1.512505    4.01830  0.6584E-10  0.3696E-07  0.2792E-11  0.1779E-03  0.0000E+00 -0.1469E+12
   -1.581257    4.01860  0.6584E-10  0.3712E-07  0.2838E-11  0.1767E-03  0.0000E+00 -0.1501E+12
   -1.650009    4.01889  0.6584E-10  0.3726E-07  0.2889E-11  0.1751E-03  0.0000E+00 -0.1539E+12
   -1.718761    4.01919  0.6584E-10  0.3736E-07  0.2945E-11  0.1730E-03  0.0000E+00 -0.1581E+12
   -1.787513    4.01950  0.6584E-10  0.3744E-07  0.3007E-11  0.1705E-03  0.0000E+00 -0.1631E+12
   -1.856265    4.01981  0.6584E-10  0.3748E-07  0.3075E-11  0.1675E-03  0.0000E+00 -0.1687E+12
   -1.925016    4.02013  0.6584E-10  0.3749E-07  0.3151E-11  0.1640E-03  0.0000E+00 -0.1752E+12
   -1.993767    4.02046  0.6584E-10  0.3746E-07  0.3235E-11  0.1600E-03  0.0000E+00 -0.1826E+12
   -2.062518    4.02080  0.6584E-10  0.3740E-07  0.3331E-11  0.1554E-03  0.0000E+00 -0.1911E+12
   -2.131268    4.02115  0.6584E-10  0.3728E-07  0.3445E-11  0.1498E-03  0.0000E+00 -0.2015E+12
   -2.200018    4.02152  0.6584E-10  0.3711E-07  0.3586E-11  0.1432E-03  0.0000E+00 -0.2146E+12
   -2.268768    4.02191  0.6584E-10  0.3686E-07  0.3761E-11  0.1355E-03  0.0000E+00 -0.2313E+12
   -2.337517    4.02232  0.6584E-10  0.3648E-07  0.4014E-11  0.1259E-03  0.0000E+00 -0.2548E+12
   -2.406266    4.02277  0.6584E-10  0.3585E-07  0.4426E-11  0.9363E-04  0.0000E+00 -0.3524E+12
   -2.475014    4.02338  0.6584E-10  0.3482E-07  0.5113E-11  0.6705E-04  0.0000E+00 -0.5121E+12
   -2.543762    4.02425  0.6584E-10  0.3303E-07  0.6406E-11  0.4333E-04  0.0000E+00 -0.8366E+12
   -2.612509    4.02564  0.6584E-10  0.2965E-07  0.9327E-11  0.2070E-04  0.0000E+00 -0.1897E+13
   -2.681255    4.02860  0.6584E-10  0.1493E-07  0.2845E-10  0.1319E-05  0.0000E+00 -0.4462E+14
   -2.750001    4.07286  0.6584E-10  0.0000E+00  0.0000E+00  0.0000E+00  0.0000E+00  0.0000E+00
