 1 - depth, m
 2 - temperature, C
 3 - salinity, kg/kg
 4 - turbulent kinetic energy, m**2/s**2
 5 - dissipation rate, m**2/s**3
 6 - kinematic heat conductance, m**2/s
 7 - modulus of horizontal velocity, m/s
 8 - Richardson number, n/d
   -0.000000   -0.00000  0.2792E-09  0.1219E-13  0.7603E-17  0.1000E-09  0.0000E+00  0.1106E+17
   -0.068746    0.16975  0.1506E-09  0.1219E-13  0.7603E-17  0.1000E-09  0.0000E+00  0.1029E+17
   -0.137492    0.33527  0.9676E-10  0.1219E-13  0.7603E-17  0.1000E-09  0.0000E+00  0.9394E+16
   -0.206239    0.49366  0.8314E-10  0.1219E-13  0.7603E-17  0.1000E-09  0.0000E+00  0.8542E+16
   -0.274987    0.64460  0.8055E-10  0.1219E-13  0.7603E-17  0.1000E-09  0.0000E+00  0.7757E+16
   -0.343735    0.78819  0.8015E-10  0.1219E-13  0.7603E-17  0.1000E-09  0.0000E+00  0.7138E+16
   -0.412484    0.92660  0.8010E-10  0.1219E-13  0.7603E-17  0.1000E-09  0.0000E+00  0.6569E+16
   -0.481233    1.06008  0.8009E-10  0.1219E-13  0.7603E-17  0.1000E-09  0.0000E+00  0.6052E+16
   -0.549983    1.18895  0.8009E-10  0.1219E-13  0.7603E-17  0.1000E-09  0.0000E+00  0.5656E+16
   -0.618733    1.31529  0.8009E-10  0.1636E-13  0.7603E-17  0.1000E-09  0.0000E+00  0.5371E+16
   -0.687483    1.44133  0.8009E-10  0.6900E-13  0.1111E-16  0.1000E-09  0.0000E+00  0.5123E+16
   -0.756234    1.56793  0.8009E-10  0.1929E-12  0.2529E-16  0.1000E-09  0.0000E+00  0.4976E+16
   -0.824985    1.69788  0.8009E-10  0.4790E-12  0.5930E-16  0.1000E-09  0.0000E+00  0.4832E+16
   -0.893736    1.83188  0.8007E-10  0.1145E-11  0.1372E-15  0.1000E-09  0.0000E+00  0.4684E+16
   -0.962488    1.97057  0.8001E-10  0.2691E-11  0.3134E-15  0.1000E-09  0.0000E+00  0.4523E+16
   -1.031240    2.11455  0.7988E-10  0.6247E-11  0.7080E-15  0.1000E-09  0.0000E+00  0.4333E+16
   -1.099992    2.26412  0.7965E-10  0.1440E-10  0.1588E-14  0.1000E-09  0.0000E+00  0.4097E+16
   -1.168744    2.41903  0.7931E-10  0.3289E-10  0.3533E-14  0.1000E-09  0.0000E+00  0.3831E+16
   -1.237496    2.57962  0.7891E-10  0.7440E-10  0.7787E-14  0.1000E-09  0.0000E+00  0.3526E+16
   -1.306248    2.74616  0.7852E-10  0.1667E-09  0.1700E-13  0.1000E-09  0.0000E+00  0.3179E+16
   -1.375000    2.91885  0.7820E-10  0.3701E-09  0.3678E-13  0.1000E-09  0.0000E+00  0.2799E+16
   -1.443753    3.09879  0.7789E-10  0.8140E-09  0.7887E-13  0.1689E-09  0.0000E+00  0.2376E+16
   -1.512505    3.28766  0.7750E-10  0.1774E-08  0.1676E-12  0.4545E-09  0.0000E+00  0.1877E+16
   -1.581257    3.48562  0.7699E-10  0.3830E-08  0.3531E-12  0.1387E-08  0.0000E+00  0.1296E+16
   -1.650009    3.69268  0.7644E-10  0.8177E-08  0.7360E-12  0.5991E-08  0.0000E+00  0.6260E+15
   -1.718761    3.90581  0.7609E-10  0.1596E-07  0.1415E-11  0.1787E-06  0.0000E+00  0.4490E+14
   -1.787513    4.01596  0.7607E-10  0.1697E-07  0.1510E-11  0.7396E-04  0.0000E+00 -0.2167E+12
   -1.856265    4.01642  0.7607E-10  0.1740E-07  0.1560E-11  0.7744E-04  0.0000E+00 -0.2112E+12
   -1.925016    4.01687  0.7607E-10  0.1775E-07  0.1612E-11  0.7740E-04  0.0000E+00 -0.2156E+12
   -1.993767    4.01731  0.7607E-10  0.1803E-07  0.1669E-11  0.7649E-04  0.0000E+00 -0.2228E+12
   -2.062518    4.01777  0.7607E-10  0.1825E-07  0.1735E-11  0.7424E-04  0.0000E+00 -0.2355E+12
   -2.131268    4.01824  0.7607E-10  0.1842E-07  0.1815E-11  0.7050E-04  0.0000E+00 -0.2556E+12
   -2.200018    4.01875  0.7607E-10  0.1854E-07  0.1916E-11  0.6514E-04  0.0000E+00 -0.2865E+12
   -2.268768    4.01931  0.7607E-10  0.1858E-07  0.2047E-11  0.5909E-04  0.0000E+00 -0.3295E+12
   -2.337517    4.01994  0.7607E-10  0.1852E-07  0.2224E-11  0.5257E-04  0.0000E+00 -0.3907E+12
   -2.406266    4.02068  0.7607E-10  0.1833E-07  0.2475E-11  0.4504E-04  0.0000E+00 -0.4886E+12
   -2.475014    4.02157  0.7607E-10  0.1791E-07  0.2866E-11  0.3592E-04  0.0000E+00 -0.6732E+12
   -2.543762    4.02277  0.7607E-10  0.1706E-07  0.3583E-11  0.2445E-04  0.0000E+00 -0.1116E+13
   -2.612509    4.02468  0.7607E-10  0.1522E-07  0.5203E-11  0.1182E-04  0.0000E+00 -0.2697E+13
   -2.681255    4.02893  0.7607E-10  0.7956E-08  0.1456E-10  0.9065E-06  0.0000E+00 -0.6011E+14
   -2.750001    4.08377  0.7607E-10  0.0000E+00  0.0000E+00  0.0000E+00  0.0000E+00  0.0000E+00
