 1 - depth, m
 2 - temperature, C
 3 - salinity, kg/kg
 4 - turbulent kinetic energy, m**2/s**2
 5 - dissipation rate, m**2/s**3
 6 - kinematic heat conductance, m**2/s
 7 - modulus of horizontal velocity, m/s
 8 - Richardson number, n/d
   -0.000000   -0.00000  0.3769E-09  0.1219E-13  0.7603E-17  0.1000E-09  0.0000E+00  0.1309E+17
   -0.068746    0.20177  0.2080E-09  0.1219E-13  0.7603E-17  0.1000E-09  0.0000E+00  0.1234E+17
   -0.137492    0.40318  0.1172E-09  0.1219E-13  0.7603E-17  0.1000E-09  0.0000E+00  0.1151E+17
   -0.206239    0.60247  0.8656E-10  0.1318E-13  0.7603E-17  0.1000E-09  0.0000E+00  0.1068E+17
   -0.274987    0.79927  0.7821E-10  0.6237E-13  0.7603E-17  0.1000E-09  0.0000E+00  0.9874E+16
   -0.343735    0.99329  0.7615E-10  0.1607E-12  0.1231E-16  0.1000E-09  0.0000E+00  0.9099E+16
   -0.412484    1.18458  0.7566E-10  0.3386E-12  0.2267E-16  0.1000E-09  0.0000E+00  0.8344E+16
   -0.481233    1.37287  0.7555E-10  0.6629E-12  0.4212E-16  0.1000E-09  0.0000E+00  0.7611E+16
   -0.549982    1.55791  0.7552E-10  0.1259E-11  0.7761E-16  0.1000E-09  0.0000E+00  0.6915E+16
   -0.618732    1.73978  0.7550E-10  0.2346E-11  0.1412E-15  0.1000E-09  0.0000E+00  0.6257E+16
   -0.687483    1.91863  0.7546E-10  0.4327E-11  0.2546E-15  0.1000E-09  0.0000E+00  0.5626E+16
   -0.756233    2.09438  0.7540E-10  0.7913E-11  0.4558E-15  0.1000E-09  0.0000E+00  0.5046E+16
   -0.824985    2.26774  0.7530E-10  0.1437E-10  0.8101E-15  0.1000E-09  0.0000E+00  0.4487E+16
   -0.893736    2.43860  0.7514E-10  0.2591E-10  0.1430E-14  0.1000E-09  0.0000E+00  0.3949E+16
   -0.962487    2.60685  0.7491E-10  0.4642E-10  0.2509E-14  0.1000E-09  0.0000E+00  0.3433E+16
   -1.031239    2.77241  0.7459E-10  0.8262E-10  0.4373E-14  0.1000E-09  0.0000E+00  0.2941E+16
   -1.099991    2.93520  0.7419E-10  0.1465E-09  0.7595E-14  0.1000E-09  0.0000E+00  0.2472E+16
   -1.168743    3.09522  0.7368E-10  0.2586E-09  0.1313E-13  0.1000E-09  0.0000E+00  0.2026E+16
   -1.237495    3.25239  0.7312E-10  0.4539E-09  0.2258E-13  0.1000E-09  0.0000E+00  0.1604E+16
   -1.306248    3.40663  0.7263E-10  0.7919E-09  0.3860E-13  0.1633E-09  0.0000E+00  0.1203E+16
   -1.375000    3.55782  0.7232E-10  0.1373E-08  0.6560E-13  0.4035E-09  0.0000E+00  0.8280E+15
   -1.443752    3.70615  0.7219E-10  0.2366E-08  0.1108E-12  0.1190E-08  0.0000E+00  0.4746E+15
   -1.512504    3.85175  0.7215E-10  0.4040E-08  0.1855E-12  0.6681E-08  0.0000E+00  0.1419E+15
   -1.581257    3.99020  0.7214E-10  0.4399E-08  0.2027E-12  0.2661E-04  0.0000E+00 -0.5027E+11
   -1.650009    3.99098  0.7214E-10  0.4581E-08  0.2132E-12  0.2920E-04  0.0000E+00 -0.5394E+11
   -1.718761    3.99168  0.7214E-10  0.4750E-08  0.2249E-12  0.3110E-04  0.0000E+00 -0.5755E+11
   -1.787512    3.99234  0.7214E-10  0.4907E-08  0.2378E-12  0.3238E-04  0.0000E+00 -0.6151E+11
   -1.856264    3.99296  0.7214E-10  0.5051E-08  0.2521E-12  0.3309E-04  0.0000E+00 -0.6609E+11
   -1.925015    3.99357  0.7214E-10  0.5182E-08  0.2678E-12  0.3328E-04  0.0000E+00 -0.7152E+11
   -1.993766    3.99418  0.7214E-10  0.5297E-08  0.2852E-12  0.3296E-04  0.0000E+00 -0.7812E+11
   -2.062517    3.99479  0.7214E-10  0.5397E-08  0.3051E-12  0.3228E-04  0.0000E+00 -0.8656E+11
   -2.131267    3.99542  0.7214E-10  0.5485E-08  0.3292E-12  0.3107E-04  0.0000E+00 -0.9794E+11
   -2.200017    3.99609  0.7214E-10  0.5556E-08  0.3592E-12  0.2926E-04  0.0000E+00 -0.1137E+12
   -2.268767    3.99680  0.7214E-10  0.5608E-08  0.3977E-12  0.2682E-04  0.0000E+00 -0.1366E+12
   -2.337516    3.99761  0.7214E-10  0.5630E-08  0.4495E-12  0.2369E-04  0.0000E+00 -0.1724E+12
   -2.406265    3.99854  0.7214E-10  0.5608E-08  0.5243E-12  0.1983E-04  0.0000E+00 -0.2343E+12
   -2.475013    3.99971  0.7214E-10  0.5508E-08  0.6438E-12  0.1517E-04  0.0000E+00 -0.3609E+12
   -2.543761    4.00133  0.7214E-10  0.5243E-08  0.8733E-12  0.9589E-05  0.0000E+00 -0.7091E+12
   -2.612508    4.00409  0.7214E-10  0.4580E-08  0.1432E-11  0.4031E-05  0.0000E+00 -0.2330E+13
   -2.681254    4.01108  0.7214E-10  0.2634E-08  0.4075E-11  0.4106E-06  0.0000E+00 -0.5076E+14
   -2.750000    4.07056  0.7214E-10  0.0000E+00  0.0000E+00  0.0000E+00  0.0000E+00  0.0000E+00
