 1 - depth, m
 2 - temperature, C
 3 - salinity, kg/kg
 4 - turbulent kinetic energy, m**2/s**2
 5 - dissipation rate, m**2/s**3
 6 - kinematic heat conductance, m**2/s
 7 - modulus of horizontal velocity, m/s
 8 - Richardson number, n/d
   -0.000000   -0.00000  0.2393E-09  0.3093E-12  0.5613E-16  0.1000E-09  0.0000E+00  0.1755E+17
   -0.068746    0.27328  0.2698E-09  0.6734E-12  0.7249E-16  0.1000E-09  0.0000E+00  0.1549E+17
   -0.137492    0.53356  0.2201E-09  0.1524E-11  0.1375E-15  0.1000E-09  0.0000E+00  0.1378E+17
   -0.206239    0.78402  0.1419E-09  0.3308E-11  0.2812E-15  0.1000E-09  0.0000E+00  0.1234E+17
   -0.274986    1.02725  0.9531E-10  0.7006E-11  0.5774E-15  0.1000E-09  0.0000E+00  0.1107E+17
   -0.343734    1.26484  0.7712E-10  0.1461E-10  0.1175E-14  0.1000E-09  0.0000E+00  0.9954E+16
   -0.412482    1.49876  0.7167E-10  0.3013E-10  0.2370E-14  0.1000E-09  0.0000E+00  0.8898E+16
   -0.481231    1.72923  0.7013E-10  0.6166E-10  0.4745E-14  0.1000E-09  0.0000E+00  0.7887E+16
   -0.549981    1.95615  0.6943E-10  0.1252E-09  0.9434E-14  0.1000E-09  0.0000E+00  0.6941E+16
   -0.618731    2.18015  0.6876E-10  0.2516E-09  0.1856E-13  0.1000E-09  0.0000E+00  0.6050E+16
   -0.687481    2.40186  0.6804E-10  0.5017E-09  0.3625E-13  0.1000E-09  0.0000E+00  0.5191E+16
   -0.756231    2.62132  0.6738E-10  0.9933E-09  0.7032E-13  0.1000E-09  0.0000E+00  0.4389E+16
   -0.824982    2.84006  0.6690E-10  0.1954E-08  0.1355E-12  0.1905E-09  0.0000E+00  0.3621E+16
   -0.893733    3.05943  0.6662E-10  0.3817E-08  0.2596E-12  0.4578E-09  0.0000E+00  0.2886E+16
   -0.962485    3.28254  0.6650E-10  0.7408E-08  0.4942E-12  0.1166E-08  0.0000E+00  0.2158E+16
   -1.031236    3.51503  0.6645E-10  0.1427E-07  0.9337E-12  0.3509E-08  0.0000E+00  0.1358E+16
   -1.099988    3.76392  0.6643E-10  0.2708E-07  0.1741E-11  0.2395E-07  0.0000E+00  0.3887E+15
   -1.168740    4.01049  0.6643E-10  0.2768E-07  0.1782E-11  0.1618E-03  0.0000E+00 -0.3660E+11
   -1.237492    4.01144  0.6643E-10  0.2792E-07  0.1802E-11  0.1610E-03  0.0000E+00 -0.1042E+12
   -1.306244    4.01170  0.6643E-10  0.2813E-07  0.1824E-11  0.1611E-03  0.0000E+00 -0.1062E+12
   -1.374996    4.01197  0.6643E-10  0.2833E-07  0.1848E-11  0.1613E-03  0.0000E+00 -0.1079E+12
   -1.443748    4.01224  0.6643E-10  0.2850E-07  0.1874E-11  0.1610E-03  0.0000E+00 -0.1098E+12
   -1.512500    4.01251  0.6643E-10  0.2866E-07  0.1902E-11  0.1604E-03  0.0000E+00 -0.1118E+12
   -1.581252    4.01278  0.6643E-10  0.2879E-07  0.1933E-11  0.1594E-03  0.0000E+00 -0.1142E+12
   -1.650004    4.01305  0.6643E-10  0.2890E-07  0.1968E-11  0.1580E-03  0.0000E+00 -0.1168E+12
   -1.718756    4.01333  0.6643E-10  0.2899E-07  0.2005E-11  0.1562E-03  0.0000E+00 -0.1200E+12
   -1.787507    4.01361  0.6643E-10  0.2905E-07  0.2046E-11  0.1540E-03  0.0000E+00 -0.1236E+12
   -1.856259    4.01390  0.6643E-10  0.2908E-07  0.2092E-11  0.1513E-03  0.0000E+00 -0.1277E+12
   -1.925010    4.01419  0.6643E-10  0.2909E-07  0.2142E-11  0.1484E-03  0.0000E+00 -0.1322E+12
   -1.993761    4.01449  0.6643E-10  0.2907E-07  0.2198E-11  0.1447E-03  0.0000E+00 -0.1378E+12
   -2.062511    4.01480  0.6643E-10  0.2902E-07  0.2262E-11  0.1402E-03  0.0000E+00 -0.1445E+12
   -2.131261    4.01512  0.6643E-10  0.2892E-07  0.2341E-11  0.1341E-03  0.0000E+00 -0.1535E+12
   -2.200011    4.01546  0.6643E-10  0.2877E-07  0.2439E-11  0.1256E-03  0.0000E+00 -0.1664E+12
   -2.268760    4.01582  0.6643E-10  0.2856E-07  0.2568E-11  0.1153E-03  0.0000E+00 -0.1849E+12
   -2.337509    4.01622  0.6643E-10  0.2822E-07  0.2754E-11  0.1005E-03  0.0000E+00 -0.2171E+12
   -2.406258    4.01668  0.6643E-10  0.2769E-07  0.3048E-11  0.7728E-04  0.0000E+00 -0.2906E+12
   -2.475006    4.01729  0.6643E-10  0.2686E-07  0.3524E-11  0.5730E-04  0.0000E+00 -0.4084E+12
   -2.543753    4.01812  0.6643E-10  0.2543E-07  0.4419E-11  0.3711E-04  0.0000E+00 -0.6665E+12
   -2.612500    4.01943  0.6643E-10  0.2271E-07  0.6454E-11  0.1748E-04  0.0000E+00 -0.1538E+13
   -2.681246    4.02227  0.6643E-10  0.1106E-07  0.1973E-10  0.1048E-05  0.0000E+00 -0.3955E+14
   -2.749992    4.06591  0.6643E-10  0.0000E+00  0.0000E+00  0.0000E+00  0.0000E+00  0.0000E+00
