 1 - depth, m
 2 - temperature, C
 3 - salinity, kg/kg
 4 - turbulent kinetic energy, m**2/s**2
 5 - dissipation rate, m**2/s**3
 6 - kinematic heat conductance, m**2/s
 7 - modulus of horizontal velocity, m/s
 8 - Richardson number, n/d
   -0.000000   -0.00000  0.5053E-09  0.1219E-13  0.7604E-17  0.1000E-09  0.0000E+00  0.1416E+17
   -0.068746    0.21883  0.1200E-09  0.1223E-13  0.7604E-17  0.1000E-09  0.0000E+00  0.1308E+17
   -0.137492    0.43375  0.8908E-10  0.4831E-13  0.7604E-17  0.1000E-09  0.0000E+00  0.1196E+17
   -0.206239    0.64305  0.7922E-10  0.1319E-12  0.1064E-16  0.1000E-09  0.0000E+00  0.1090E+17
   -0.274986    0.84679  0.7637E-10  0.2817E-12  0.1875E-16  0.1000E-09  0.0000E+00  0.9929E+16
   -0.343734    1.04524  0.7569E-10  0.5464E-12  0.3405E-16  0.1000E-09  0.0000E+00  0.9056E+16
   -0.412483    1.23936  0.7555E-10  0.1019E-11  0.6150E-16  0.1000E-09  0.0000E+00  0.8244E+16
   -0.481232    1.42949  0.7553E-10  0.1867E-11  0.1102E-15  0.1000E-09  0.0000E+00  0.7487E+16
   -0.549981    1.61595  0.7552E-10  0.3386E-11  0.1961E-15  0.1000E-09  0.0000E+00  0.6801E+16
   -0.618731    1.79962  0.7552E-10  0.6081E-11  0.3461E-15  0.1000E-09  0.0000E+00  0.6172E+16
   -0.687481    1.98139  0.7551E-10  0.1085E-10  0.6074E-15  0.1000E-09  0.0000E+00  0.5578E+16
   -0.756232    2.16174  0.7548E-10  0.1927E-10  0.1062E-14  0.1000E-09  0.0000E+00  0.5049E+16
   -0.824983    2.34252  0.7543E-10  0.3409E-10  0.1849E-14  0.1000E-09  0.0000E+00  0.4524E+16
   -0.893734    2.52392  0.7532E-10  0.6011E-10  0.3213E-14  0.1000E-09  0.0000E+00  0.3999E+16
   -0.962485    2.70603  0.7515E-10  0.1057E-09  0.5573E-14  0.1000E-09  0.0000E+00  0.3469E+16
   -1.031237    2.88881  0.7491E-10  0.1855E-09  0.9655E-14  0.1000E-09  0.0000E+00  0.2936E+16
   -1.099989    3.07217  0.7458E-10  0.3261E-09  0.1677E-13  0.1000E-09  0.0000E+00  0.2400E+16
   -1.168741    3.25612  0.7416E-10  0.5740E-09  0.2920E-13  0.1001E-09  0.0000E+00  0.1854E+16
   -1.237493    3.43967  0.7361E-10  0.1011E-08  0.5093E-13  0.1994E-09  0.0000E+00  0.1302E+16
   -1.306245    3.62052  0.7291E-10  0.1783E-08  0.8901E-13  0.5980E-09  0.0000E+00  0.7589E+15
   -1.374997    3.79349  0.7229E-10  0.3144E-08  0.1558E-12  0.2883E-08  0.0000E+00  0.2733E+15
   -1.443749    3.94671  0.7212E-10  0.4871E-08  0.2437E-12  0.2227E-05  0.0000E+00  0.1933E+14
   -1.512501    3.99373  0.7211E-10  0.5274E-08  0.2659E-12  0.3033E-04  0.0000E+00 -0.5783E+11
   -1.581253    3.99446  0.7211E-10  0.5518E-08  0.2818E-12  0.3349E-04  0.0000E+00 -0.6395E+11
   -1.650005    3.99510  0.7211E-10  0.5754E-08  0.2995E-12  0.3591E-04  0.0000E+00 -0.6924E+11
   -1.718757    3.99570  0.7211E-10  0.5980E-08  0.3190E-12  0.3770E-04  0.0000E+00 -0.7476E+11
   -1.787509    3.99628  0.7211E-10  0.6196E-08  0.3405E-12  0.3894E-04  0.0000E+00 -0.8092E+11
   -1.856260    3.99686  0.7211E-10  0.6400E-08  0.3641E-12  0.3966E-04  0.0000E+00 -0.8802E+11
   -1.925011    3.99744  0.7211E-10  0.6590E-08  0.3901E-12  0.3987E-04  0.0000E+00 -0.9638E+11
   -1.993762    3.99802  0.7211E-10  0.6763E-08  0.4188E-12  0.3958E-04  0.0000E+00 -0.1064E+12
   -2.062513    3.99863  0.7211E-10  0.6917E-08  0.4511E-12  0.3872E-04  0.0000E+00 -0.1187E+12
   -2.131263    3.99927  0.7211E-10  0.7057E-08  0.4898E-12  0.3719E-04  0.0000E+00 -0.1349E+12
   -2.200013    3.99996  0.7211E-10  0.7179E-08  0.5375E-12  0.3499E-04  0.0000E+00 -0.1571E+12
   -2.268762    4.00070  0.7211E-10  0.7277E-08  0.5980E-12  0.3207E-04  0.0000E+00 -0.1889E+12
   -2.337511    4.00155  0.7211E-10  0.7340E-08  0.6784E-12  0.2837E-04  0.0000E+00 -0.2379E+12
   -2.406260    4.00255  0.7211E-10  0.7349E-08  0.7927E-12  0.2383E-04  0.0000E+00 -0.3213E+12
   -2.475008    4.00380  0.7211E-10  0.7263E-08  0.9723E-12  0.1837E-04  0.0000E+00 -0.4879E+12
   -2.543755    4.00553  0.7211E-10  0.6974E-08  0.1310E-11  0.1180E-04  0.0000E+00 -0.9302E+12
   -2.612502    4.00845  0.7211E-10  0.6193E-08  0.2111E-11  0.5150E-05  0.0000E+00 -0.2864E+13
   -2.681249    4.01562  0.7211E-10  0.3604E-08  0.6024E-11  0.5202E-06  0.0000E+00 -0.5943E+14
   -2.749994    4.07824  0.7211E-10  0.0000E+00  0.0000E+00  0.0000E+00  0.0000E+00  0.0000E+00
