 1 - depth, m
 2 - temperature, C
 3 - salinity, kg/kg
 4 - turbulent kinetic energy, m**2/s**2
 5 - dissipation rate, m**2/s**3
 6 - kinematic heat conductance, m**2/s
 7 - modulus of horizontal velocity, m/s
 8 - Richardson number, n/d
   -0.000000   -0.00000  0.7635E-09  0.3292E-11  0.9601E-15  0.1000E-09  0.0000E+00  0.2235E+17
   -0.068745    0.35173  0.0000E+00  0.9379E-11  0.1070E-14  0.1000E-09  0.0000E+00  0.1954E+17
   -0.137491    0.69209  0.8202E-10  0.2240E-10  0.1908E-14  0.1000E-09  0.0000E+00  0.1697E+17
   -0.206238    1.02103  0.6985E-10  0.4785E-10  0.3730E-14  0.1000E-09  0.0000E+00  0.1467E+17
   -0.274985    1.33985  0.7043E-10  0.9763E-10  0.7322E-14  0.1000E-09  0.0000E+00  0.1259E+17
   -0.343733    1.64961  0.7035E-10  0.1948E-09  0.1423E-13  0.1000E-09  0.0000E+00  0.1069E+17
   -0.412481    1.95114  0.7034E-10  0.3837E-09  0.2740E-13  0.1000E-09  0.0000E+00  0.8963E+16
   -0.481230    2.24512  0.7032E-10  0.7497E-09  0.5239E-13  0.1000E-09  0.0000E+00  0.7370E+16
   -0.549979    2.53214  0.7026E-10  0.1454E-08  0.9948E-13  0.1000E-09  0.0000E+00  0.5899E+16
   -0.618728    2.81281  0.7006E-10  0.2792E-08  0.1870E-12  0.2100E-09  0.0000E+00  0.4534E+16
   -0.687478    3.08754  0.6953E-10  0.5320E-08  0.3490E-12  0.5449E-09  0.0000E+00  0.3260E+16
   -0.756229    3.35656  0.6842E-10  0.1006E-07  0.6466E-12  0.1587E-08  0.0000E+00  0.2075E+16
   -0.824979    3.62055  0.6703E-10  0.1886E-07  0.1188E-11  0.6347E-08  0.0000E+00  0.9536E+15
   -0.893730    3.87447  0.6643E-10  0.3332E-07  0.2070E-11  0.1205E-06  0.0000E+00  0.8975E+14
   -0.962481    4.01993  0.6640E-10  0.3380E-07  0.2101E-11  0.2016E-03  0.0000E+00 -0.9801E+11
   -1.031233    4.02012  0.6640E-10  0.3402E-07  0.2118E-11  0.1965E-03  0.0000E+00 -0.1013E+12
   -1.099984    4.02031  0.6640E-10  0.3422E-07  0.2138E-11  0.1974E-03  0.0000E+00 -0.1020E+12
   -1.168736    4.02050  0.6640E-10  0.3440E-07  0.2159E-11  0.2105E-03  0.0000E+00 -0.9671E+11
   -1.237487    4.02068  0.6640E-10  0.3456E-07  0.2182E-11  0.2107E-03  0.0000E+00 -0.9795E+11
   -1.306239    4.02086  0.6640E-10  0.3470E-07  0.2207E-11  0.1967E-03  0.0000E+00 -0.1061E+12
   -1.374991    4.02106  0.6640E-10  0.3482E-07  0.2235E-11  0.1950E-03  0.0000E+00 -0.1082E+12
   -1.443743    4.02126  0.6640E-10  0.3493E-07  0.2266E-11  0.1936E-03  0.0000E+00 -0.1097E+12
   -1.512495    4.02146  0.6640E-10  0.3501E-07  0.2300E-11  0.1919E-03  0.0000E+00 -0.1115E+12
   -1.581246    4.02166  0.6640E-10  0.3507E-07  0.2337E-11  0.1898E-03  0.0000E+00 -0.1136E+12
   -1.649998    4.02186  0.6640E-10  0.3510E-07  0.2377E-11  0.1873E-03  0.0000E+00 -0.1160E+12
   -1.718750    4.02207  0.6640E-10  0.3512E-07  0.2422E-11  0.1844E-03  0.0000E+00 -0.1188E+12
   -1.787501    4.02228  0.6640E-10  0.3511E-07  0.2471E-11  0.1810E-03  0.0000E+00 -0.1220E+12
   -1.856252    4.02250  0.6640E-10  0.3507E-07  0.2525E-11  0.1773E-03  0.0000E+00 -0.1256E+12
   -1.925003    4.02272  0.6640E-10  0.3501E-07  0.2585E-11  0.1731E-03  0.0000E+00 -0.1298E+12
   -1.993754    4.02295  0.6640E-10  0.3492E-07  0.2652E-11  0.1684E-03  0.0000E+00 -0.1346E+12
   -2.062504    4.02318  0.6640E-10  0.3481E-07  0.2729E-11  0.1632E-03  0.0000E+00 -0.1404E+12
   -2.131254    4.02342  0.6640E-10  0.3465E-07  0.2821E-11  0.1570E-03  0.0000E+00 -0.1477E+12
   -2.200003    4.02367  0.6640E-10  0.3445E-07  0.2934E-11  0.1499E-03  0.0000E+00 -0.1569E+12
   -2.268752    4.02394  0.6640E-10  0.3418E-07  0.3076E-11  0.1418E-03  0.0000E+00 -0.1684E+12
   -2.337501    4.02423  0.6640E-10  0.3379E-07  0.3286E-11  0.1233E-03  0.0000E+00 -0.1976E+12
   -2.406249    4.02456  0.6640E-10  0.3314E-07  0.3638E-11  0.9023E-04  0.0000E+00 -0.2770E+12
   -2.474997    4.02502  0.6640E-10  0.3215E-07  0.4216E-11  0.6559E-04  0.0000E+00 -0.3955E+12
   -2.543744    4.02567  0.6640E-10  0.3046E-07  0.5302E-11  0.4233E-04  0.0000E+00 -0.6441E+12
   -2.612491    4.02670  0.6640E-10  0.2730E-07  0.7755E-11  0.2009E-04  0.0000E+00 -0.1454E+13
   -2.681237    4.02893  0.6640E-10  0.1328E-07  0.2413E-10  0.1161E-05  0.0000E+00 -0.3471E+14
   -2.749982    4.06538  0.6640E-10  0.0000E+00  0.0000E+00  0.0000E+00  0.0000E+00  0.0000E+00
