 1 - depth, m
 2 - temperature, C
 3 - salinity, kg/kg
 4 - turbulent kinetic energy, m**2/s**2
 5 - dissipation rate, m**2/s**3
 6 - kinematic heat conductance, m**2/s
 7 - modulus of horizontal velocity, m/s
 8 - Richardson number, n/d
   -0.000000   -0.00000  0.4025E-09  0.1219E-13  0.7603E-17  0.1000E-09  0.0000E+00  0.1331E+17
   -0.068746    0.20534  0.2004E-09  0.1219E-13  0.7603E-17  0.1000E-09  0.0000E+00  0.1252E+17
   -0.137492    0.40987  0.1118E-09  0.1219E-13  0.7603E-17  0.1000E-09  0.0000E+00  0.1164E+17
   -0.206239    0.61188  0.8462E-10  0.1219E-13  0.7603E-17  0.1000E-09  0.0000E+00  0.1078E+17
   -0.274987    0.81105  0.7768E-10  0.5414E-13  0.7603E-17  0.1000E-09  0.0000E+00  0.9936E+16
   -0.343735    1.00714  0.7602E-10  0.1455E-12  0.1271E-16  0.1000E-09  0.0000E+00  0.9137E+16
   -0.412483    1.20026  0.7563E-10  0.3196E-12  0.2450E-16  0.1000E-09  0.0000E+00  0.8363E+16
   -0.481233    1.39019  0.7554E-10  0.6531E-12  0.4767E-16  0.1000E-09  0.0000E+00  0.7615E+16
   -0.549982    1.57673  0.7552E-10  0.1297E-11  0.9191E-16  0.1000E-09  0.0000E+00  0.6907E+16
   -0.618732    1.75998  0.7550E-10  0.2529E-11  0.1750E-15  0.1000E-09  0.0000E+00  0.6239E+16
   -0.687482    1.94012  0.7547E-10  0.4881E-11  0.3302E-15  0.1000E-09  0.0000E+00  0.5600E+16
   -0.756233    2.11707  0.7541E-10  0.9344E-11  0.6186E-15  0.1000E-09  0.0000E+00  0.5012E+16
   -0.824984    2.29156  0.7531E-10  0.1776E-10  0.1151E-14  0.1000E-09  0.0000E+00  0.4445E+16
   -0.893735    2.46346  0.7515E-10  0.3354E-10  0.2126E-14  0.1000E-09  0.0000E+00  0.3900E+16
   -0.962487    2.63261  0.7492E-10  0.6289E-10  0.3904E-14  0.1000E-09  0.0000E+00  0.3377E+16
   -1.031239    2.79890  0.7461E-10  0.1172E-09  0.7122E-14  0.1000E-09  0.0000E+00  0.2879E+16
   -1.099991    2.96222  0.7421E-10  0.2176E-09  0.1295E-13  0.1000E-09  0.0000E+00  0.2407E+16
   -1.168743    3.12255  0.7370E-10  0.4021E-09  0.2345E-13  0.1000E-09  0.0000E+00  0.1958E+16
   -1.237495    3.27978  0.7313E-10  0.7391E-09  0.4221E-13  0.1401E-09  0.0000E+00  0.1534E+16
   -1.306247    3.43380  0.7262E-10  0.1350E-08  0.7557E-13  0.3391E-09  0.0000E+00  0.1135E+16
   -1.374999    3.58443  0.7231E-10  0.2452E-08  0.1345E-12  0.8994E-09  0.0000E+00  0.7613E+15
   -1.443752    3.73170  0.7218E-10  0.4421E-08  0.2378E-12  0.2940E-08  0.0000E+00  0.4118E+15
   -1.512504    3.87491  0.7214E-10  0.7849E-08  0.4144E-12  0.2202E-07  0.0000E+00  0.9588E+14
   -1.581256    3.99982  0.7214E-10  0.8283E-08  0.4385E-12  0.5572E-04  0.0000E+00 -0.7801E+11
   -1.650008    4.00019  0.7214E-10  0.8480E-08  0.4518E-12  0.5662E-04  0.0000E+00 -0.7895E+11
   -1.718760    4.00054  0.7214E-10  0.8655E-08  0.4662E-12  0.5701E-04  0.0000E+00 -0.8060E+11
   -1.787512    4.00090  0.7214E-10  0.8807E-08  0.4818E-12  0.5689E-04  0.0000E+00 -0.8298E+11
   -1.856263    4.00126  0.7214E-10  0.8937E-08  0.4990E-12  0.5626E-04  0.0000E+00 -0.8619E+11
   -1.925014    4.00162  0.7214E-10  0.9045E-08  0.5181E-12  0.5513E-04  0.0000E+00 -0.9037E+11
   -1.993765    4.00200  0.7214E-10  0.9130E-08  0.5394E-12  0.5350E-04  0.0000E+00 -0.9573E+11
   -2.062516    4.00238  0.7214E-10  0.9193E-08  0.5639E-12  0.5156E-04  0.0000E+00 -0.1029E+12
   -2.131266    4.00278  0.7214E-10  0.9233E-08  0.5939E-12  0.4906E-04  0.0000E+00 -0.1127E+12
   -2.200016    4.00321  0.7214E-10  0.9247E-08  0.6315E-12  0.4584E-04  0.0000E+00 -0.1264E+12
   -2.268766    4.00369  0.7214E-10  0.9227E-08  0.6803E-12  0.4184E-04  0.0000E+00 -0.1463E+12
   -2.337515    4.00422  0.7214E-10  0.9161E-08  0.7462E-12  0.3697E-04  0.0000E+00 -0.1769E+12
   -2.406264    4.00484  0.7214E-10  0.9026E-08  0.8412E-12  0.3110E-04  0.0000E+00 -0.2286E+12
   -2.475012    4.00561  0.7214E-10  0.8775E-08  0.9921E-12  0.2410E-04  0.0000E+00 -0.3296E+12
   -2.543759    4.00667  0.7214E-10  0.8283E-08  0.1277E-11  0.1564E-04  0.0000E+00 -0.5876E+12
   -2.612506    4.00843  0.7214E-10  0.7230E-08  0.1951E-11  0.6892E-05  0.0000E+00 -0.1638E+13
   -2.681253    4.01274  0.7214E-10  0.3633E-08  0.5589E-11  0.5043E-06  0.0000E+00 -0.4387E+14
   -2.749999    4.06571  0.7214E-10  0.0000E+00  0.0000E+00  0.0000E+00  0.0000E+00  0.0000E+00
