 1 - depth, m
 2 - temperature, C
 3 - salinity, kg/kg
 4 - turbulent kinetic energy, m**2/s**2
 5 - dissipation rate, m**2/s**3
 6 - kinematic heat conductance, m**2/s
 7 - modulus of horizontal velocity, m/s
 8 - Richardson number, n/d
   -0.000000   -0.00000  0.4394E-09  0.1219E-13  0.7604E-17  0.1000E-09  0.0000E+00  0.1254E+17
   -0.068746    0.19316  0.1388E-09  0.1219E-13  0.7604E-17  0.1000E-09  0.0000E+00  0.1161E+17
   -0.137492    0.38176  0.9863E-10  0.1219E-13  0.7604E-17  0.1000E-09  0.0000E+00  0.1065E+17
   -0.206238    0.56458  0.8520E-10  0.1219E-13  0.7604E-17  0.1000E-09  0.0000E+00  0.9775E+16
   -0.274986    0.74192  0.8126E-10  0.1219E-13  0.7604E-17  0.1000E-09  0.0000E+00  0.8970E+16
   -0.343734    0.91415  0.8032E-10  0.1219E-13  0.7604E-17  0.1000E-09  0.0000E+00  0.8263E+16
   -0.412482    1.08233  0.8013E-10  0.1219E-13  0.7604E-17  0.1000E-09  0.0000E+00  0.7607E+16
   -0.481231    1.24673  0.8010E-10  0.3175E-13  0.7604E-17  0.1000E-09  0.0000E+00  0.6996E+16
   -0.549981    1.40762  0.8009E-10  0.1001E-12  0.1130E-16  0.1000E-09  0.0000E+00  0.6449E+16
   -0.618730    1.56581  0.8009E-10  0.2405E-12  0.2257E-16  0.1000E-09  0.0000E+00  0.5956E+16
   -0.687480    1.72212  0.8008E-10  0.5247E-12  0.4643E-16  0.1000E-09  0.0000E+00  0.5490E+16
   -0.756231    1.87686  0.8007E-10  0.1105E-11  0.9469E-16  0.1000E-09  0.0000E+00  0.5088E+16
   -0.824982    2.03156  0.8004E-10  0.2288E-11  0.1912E-15  0.1000E-09  0.0000E+00  0.4690E+16
   -0.893733    2.18630  0.7996E-10  0.4689E-11  0.3826E-15  0.1000E-09  0.0000E+00  0.4295E+16
   -0.962484    2.34113  0.7983E-10  0.9528E-11  0.7596E-15  0.1000E-09  0.0000E+00  0.3900E+16
   -1.031236    2.49601  0.7962E-10  0.1921E-10  0.1496E-14  0.1000E-09  0.0000E+00  0.3507E+16
   -1.099987    2.65095  0.7933E-10  0.3854E-10  0.2935E-14  0.1000E-09  0.0000E+00  0.3117E+16
   -1.168739    2.80602  0.7898E-10  0.7690E-10  0.5727E-14  0.1000E-09  0.0000E+00  0.2726E+16
   -1.237491    2.96106  0.7861E-10  0.1524E-09  0.1110E-13  0.1000E-09  0.0000E+00  0.2333E+16
   -1.306243    3.11586  0.7824E-10  0.2999E-09  0.2137E-13  0.1000E-09  0.0000E+00  0.1941E+16
   -1.374995    3.27012  0.7785E-10  0.5863E-09  0.4086E-13  0.1337E-09  0.0000E+00  0.1555E+16
   -1.443747    3.42384  0.7738E-10  0.1138E-08  0.7763E-13  0.3363E-09  0.0000E+00  0.1175E+16
   -1.512499    3.57703  0.7683E-10  0.2194E-08  0.1465E-12  0.9353E-09  0.0000E+00  0.7971E+15
   -1.581251    3.72885  0.7638E-10  0.4196E-08  0.2744E-12  0.3270E-08  0.0000E+00  0.4270E+15
   -1.650003    3.87707  0.7620E-10  0.7868E-08  0.5048E-12  0.2803E-07  0.0000E+00  0.9153E+14
   -1.718755    4.00237  0.7618E-10  0.8454E-08  0.5444E-12  0.4665E-04  0.0000E+00 -0.1153E+12
   -1.787506    4.00282  0.7618E-10  0.8720E-08  0.5665E-12  0.4760E-04  0.0000E+00 -0.1172E+12
   -1.856258    4.00327  0.7618E-10  0.8952E-08  0.5906E-12  0.4795E-04  0.0000E+00 -0.1207E+12
   -1.925009    4.00372  0.7618E-10  0.9153E-08  0.6173E-12  0.4773E-04  0.0000E+00 -0.1258E+12
   -1.993760    4.00417  0.7618E-10  0.9322E-08  0.6470E-12  0.4692E-04  0.0000E+00 -0.1328E+12
   -2.062510    4.00464  0.7618E-10  0.9461E-08  0.6810E-12  0.4573E-04  0.0000E+00 -0.1425E+12
   -2.131260    4.00513  0.7618E-10  0.9574E-08  0.7226E-12  0.4395E-04  0.0000E+00 -0.1563E+12
   -2.200010    4.00566  0.7618E-10  0.9659E-08  0.7745E-12  0.4146E-04  0.0000E+00 -0.1759E+12
   -2.268760    4.00623  0.7618E-10  0.9707E-08  0.8415E-12  0.3819E-04  0.0000E+00 -0.2046E+12
   -2.337508    4.00687  0.7618E-10  0.9707E-08  0.9319E-12  0.3406E-04  0.0000E+00 -0.2492E+12
   -2.406257    4.00763  0.7618E-10  0.9636E-08  0.1062E-11  0.2897E-04  0.0000E+00 -0.3251E+12
   -2.475005    4.00858  0.7618E-10  0.9443E-08  0.1266E-11  0.2276E-04  0.0000E+00 -0.4749E+12
   -2.543752    4.00991  0.7618E-10  0.8996E-08  0.1649E-11  0.1501E-04  0.0000E+00 -0.8583E+12
   -2.612499    4.01212  0.7618E-10  0.7947E-08  0.2548E-11  0.6757E-05  0.0000E+00 -0.2422E+13
   -2.681245    4.01754  0.7618E-10  0.4322E-08  0.7251E-11  0.5894E-06  0.0000E+00 -0.5650E+14
   -2.749991    4.07684  0.7618E-10  0.0000E+00  0.0000E+00  0.0000E+00  0.0000E+00  0.0000E+00
