 1 - depth, m
 2 - temperature, C
 3 - salinity, kg/kg
 4 - turbulent kinetic energy, m**2/s**2
 5 - dissipation rate, m**2/s**3
 6 - kinematic heat conductance, m**2/s
 7 - modulus of horizontal velocity, m/s
 8 - Richardson number, n/d
   -0.000000   -0.00000  0.3300E-09  0.8977E-13  0.1335E-16  0.1000E-09  0.0000E+00  0.1491E+17
   -0.068746    0.23086  0.1308E-09  0.1746E-12  0.1812E-16  0.1000E-09  0.0000E+00  0.1375E+17
   -0.137492    0.45795  0.9066E-10  0.3765E-12  0.3415E-16  0.1000E-09  0.0000E+00  0.1255E+17
   -0.206239    0.67963  0.7669E-10  0.8004E-12  0.6896E-16  0.1000E-09  0.0000E+00  0.1143E+17
   -0.274986    0.89623  0.7254E-10  0.1673E-11  0.1399E-15  0.1000E-09  0.0000E+00  0.1041E+17
   -0.343734    1.10833  0.7156E-10  0.3450E-11  0.2815E-15  0.1000E-09  0.0000E+00  0.9499E+16
   -0.412483    1.31737  0.7136E-10  0.7043E-11  0.5617E-15  0.1000E-09  0.0000E+00  0.8651E+16
   -0.481232    1.52388  0.7133E-10  0.1426E-10  0.1112E-14  0.1000E-09  0.0000E+00  0.7852E+16
   -0.549981    1.72834  0.7132E-10  0.2867E-10  0.2187E-14  0.1000E-09  0.0000E+00  0.7118E+16
   -0.618731    1.93188  0.7132E-10  0.5702E-10  0.4255E-14  0.1000E-09  0.0000E+00  0.6430E+16
   -0.687481    2.13561  0.7132E-10  0.1125E-09  0.8216E-14  0.1000E-09  0.0000E+00  0.5756E+16
   -0.756232    2.33996  0.7131E-10  0.2204E-09  0.1575E-13  0.1000E-09  0.0000E+00  0.5129E+16
   -0.824983    2.54698  0.7129E-10  0.4289E-09  0.3001E-13  0.1000E-09  0.0000E+00  0.4479E+16
   -0.893734    2.75671  0.7124E-10  0.8292E-09  0.5681E-13  0.1000E-09  0.0000E+00  0.3804E+16
   -0.962485    2.96901  0.7112E-10  0.1593E-08  0.1069E-12  0.1753E-09  0.0000E+00  0.3103E+16
   -1.031237    3.18355  0.7089E-10  0.3039E-08  0.1998E-12  0.4272E-09  0.0000E+00  0.2380E+16
   -1.099989    3.39987  0.7040E-10  0.5778E-08  0.3721E-12  0.1155E-08  0.0000E+00  0.1641E+16
   -1.168741    3.61744  0.6950E-10  0.1092E-07  0.6893E-12  0.3966E-08  0.0000E+00  0.8848E+15
   -1.237493    3.83272  0.6865E-10  0.2018E-07  0.1252E-11  0.3536E-07  0.0000E+00  0.1803E+15
   -1.306245    4.01097  0.6853E-10  0.2067E-07  0.1284E-11  0.1301E-03  0.0000E+00 -0.9396E+11
   -1.374997    4.01121  0.6853E-10  0.2089E-07  0.1301E-11  0.1277E-03  0.0000E+00 -0.9747E+11
   -1.443749    4.01146  0.6853E-10  0.2108E-07  0.1320E-11  0.1280E-03  0.0000E+00 -0.9881E+11
   -1.512501    4.01171  0.6853E-10  0.2125E-07  0.1340E-11  0.1280E-03  0.0000E+00 -0.1003E+12
   -1.581253    4.01196  0.6853E-10  0.2140E-07  0.1363E-11  0.1278E-03  0.0000E+00 -0.1022E+12
   -1.650005    4.01221  0.6853E-10  0.2154E-07  0.1387E-11  0.1271E-03  0.0000E+00 -0.1044E+12
   -1.718757    4.01247  0.6853E-10  0.2165E-07  0.1414E-11  0.1261E-03  0.0000E+00 -0.1070E+12
   -1.787509    4.01273  0.6853E-10  0.2174E-07  0.1444E-11  0.1247E-03  0.0000E+00 -0.1101E+12
   -1.856260    4.01299  0.6853E-10  0.2180E-07  0.1477E-11  0.1228E-03  0.0000E+00 -0.1137E+12
   -1.925011    4.01326  0.6853E-10  0.2185E-07  0.1513E-11  0.1206E-03  0.0000E+00 -0.1179E+12
   -1.993762    4.01354  0.6853E-10  0.2187E-07  0.1554E-11  0.1179E-03  0.0000E+00 -0.1228E+12
   -2.062513    4.01383  0.6853E-10  0.2186E-07  0.1599E-11  0.1147E-03  0.0000E+00 -0.1287E+12
   -2.131263    4.01413  0.6853E-10  0.2182E-07  0.1654E-11  0.1108E-03  0.0000E+00 -0.1361E+12
   -2.200013    4.01444  0.6853E-10  0.2173E-07  0.1727E-11  0.1059E-03  0.0000E+00 -0.1458E+12
   -2.268762    4.01477  0.6853E-10  0.2158E-07  0.1832E-11  0.9288E-04  0.0000E+00 -0.1709E+12
   -2.337511    4.01515  0.6853E-10  0.2133E-07  0.1982E-11  0.7580E-04  0.0000E+00 -0.2167E+12
   -2.406260    4.01562  0.6853E-10  0.2093E-07  0.2204E-11  0.6114E-04  0.0000E+00 -0.2810E+12
   -2.475008    4.01623  0.6853E-10  0.2031E-07  0.2555E-11  0.4679E-04  0.0000E+00 -0.3901E+12
   -2.543755    4.01705  0.6853E-10  0.1921E-07  0.3209E-11  0.3062E-04  0.0000E+00 -0.6459E+12
   -2.612502    4.01836  0.6853E-10  0.1708E-07  0.4702E-11  0.1436E-04  0.0000E+00 -0.1539E+13
   -2.681248    4.02129  0.6853E-10  0.8247E-08  0.1408E-10  0.8660E-06  0.0000E+00 -0.4108E+14
   -2.749994    4.06676  0.6853E-10  0.0000E+00  0.0000E+00  0.0000E+00  0.0000E+00  0.0000E+00
