 1 - depth, m
 2 - temperature, C
 3 - salinity, kg/kg
 4 - turbulent kinetic energy, m**2/s**2
 5 - dissipation rate, m**2/s**3
 6 - kinematic heat conductance, m**2/s
 7 - modulus of horizontal velocity, m/s
 8 - Richardson number, n/d
   -0.000000   -0.00000  0.3144E-09  0.6828E-11  0.3643E-14  0.1000E-09  0.0000E+00  0.3737E+17
   -0.068746    0.61062  0.2632E-09  0.3131E-10  0.9037E-14  0.1000E-09  0.0000E+00  0.2184E+17
   -0.137493    1.02998  0.2077E-09  0.1201E-09  0.3183E-13  0.1000E-09  0.0000E+00  0.1409E+17
   -0.206240    1.33750  0.1372E-09  0.4366E-09  0.1112E-12  0.1205E-09  0.0000E+00  0.1003E+17
   -0.274988    1.58106  0.9446E-10  0.1548E-08  0.3801E-12  0.3018E-09  0.0000E+00  0.7784E+16
   -0.343736    1.78893  0.7714E-10  0.5343E-08  0.1266E-11  0.9677E-09  0.0000E+00  0.7077E+16
   -0.412485    1.99769  0.7170E-10  0.1795E-07  0.4108E-11  0.2790E-08  0.0000E+00  0.6916E+16
   -0.481235    2.22925  0.7008E-10  0.5840E-07  0.1293E-10  0.6792E-08  0.0000E+00  0.7598E+16
   -0.549985    2.55160  0.6923E-10  0.1773E-06  0.3823E-10  0.3268E-07  0.0000E+00  0.7233E+16
   -0.618735    3.06217  0.6814E-10  0.2958E-06  0.6302E-10  0.1774E-03  0.0000E+00  0.5254E+16
   -0.687486    3.52309  0.6729E-10  0.3934E-06  0.8297E-10  0.3786E-03  0.0000E+00  0.3172E+16
   -0.756237    3.88144  0.6679E-10  0.4606E-06  0.9630E-10  0.5520E-03  0.0000E+00  0.1253E+16
   -0.824988    4.10839  0.6659E-10  0.4812E-06  0.1004E-09  0.6925E-03  0.0000E+00  0.1030E+15
   -0.893740    4.16041  0.6656E-10  0.4833E-06  0.1011E-09  0.7447E-03  0.0000E+00 -0.1199E+13
   -0.962491    4.16087  0.6656E-10  0.4850E-06  0.1019E-09  0.7423E-03  0.0000E+00 -0.1216E+13
   -1.031244    4.16133  0.6656E-10  0.4864E-06  0.1028E-09  0.7402E-03  0.0000E+00 -0.1220E+13
   -1.099996    4.16180  0.6656E-10  0.4877E-06  0.1038E-09  0.7368E-03  0.0000E+00 -0.1238E+13
   -1.168748    4.16226  0.6656E-10  0.4888E-06  0.1050E-09  0.7323E-03  0.0000E+00 -0.1256E+13
   -1.237501    4.16273  0.6656E-10  0.4897E-06  0.1062E-09  0.7265E-03  0.0000E+00 -0.1281E+13
   -1.306253    4.16321  0.6656E-10  0.4904E-06  0.1076E-09  0.7195E-03  0.0000E+00 -0.1307E+13
   -1.375006    4.16369  0.6656E-10  0.4909E-06  0.1091E-09  0.7120E-03  0.0000E+00 -0.1336E+13
   -1.443758    4.16418  0.6656E-10  0.4912E-06  0.1108E-09  0.7400E-03  0.0000E+00 -0.1269E+13
   -1.512511    4.16466  0.6656E-10  0.4912E-06  0.1125E-09  0.7186E-03  0.0000E+00 -0.1360E+13
   -1.581263    4.16514  0.6656E-10  0.4911E-06  0.1145E-09  0.6796E-03  0.0000E+00 -0.1457E+13
   -1.650016    4.16567  0.6656E-10  0.4906E-06  0.1168E-09  0.6656E-03  0.0000E+00 -0.1496E+13
   -1.718768    4.16621  0.6656E-10  0.4899E-06  0.1193E-09  0.6505E-03  0.0000E+00 -0.1552E+13
   -1.787520    4.16676  0.6656E-10  0.4889E-06  0.1221E-09  0.6340E-03  0.0000E+00 -0.1614E+13
   -1.856272    4.16734  0.6656E-10  0.4876E-06  0.1252E-09  0.6161E-03  0.0000E+00 -0.1686E+13
   -1.925023    4.16794  0.6656E-10  0.4859E-06  0.1287E-09  0.5968E-03  0.0000E+00 -0.1766E+13
   -1.993775    4.16857  0.6656E-10  0.4840E-06  0.1326E-09  0.5761E-03  0.0000E+00 -0.1858E+13
   -2.062526    4.16923  0.6656E-10  0.4816E-06  0.1371E-09  0.5537E-03  0.0000E+00 -0.1957E+13
   -2.131276    4.16992  0.6656E-10  0.4786E-06  0.1426E-09  0.5282E-03  0.0000E+00 -0.2074E+13
   -2.200027    4.17064  0.6656E-10  0.4749E-06  0.1493E-09  0.4995E-03  0.0000E+00 -0.2217E+13
   -2.268777    4.17142  0.6656E-10  0.4703E-06  0.1578E-09  0.4669E-03  0.0000E+00 -0.2401E+13
   -2.337526    4.17225  0.6656E-10  0.4646E-06  0.1690E-09  0.4297E-03  0.0000E+00 -0.2641E+13
   -2.406275    4.17317  0.6656E-10  0.4572E-06  0.1843E-09  0.3865E-03  0.0000E+00 -0.2976E+13
   -2.475023    4.17419  0.6656E-10  0.4474E-06  0.2065E-09  0.3375E-03  0.0000E+00 -0.3465E+13
   -2.543771    4.17537  0.6656E-10  0.4324E-06  0.2450E-09  0.2667E-03  0.0000E+00 -0.4384E+13
   -2.612519    4.17687  0.6656E-10  0.4022E-06  0.3364E-09  0.1062E-03  0.0000E+00 -0.1129E+14
   -2.681265    4.18066  0.6656E-10  0.1914E-06  0.1217E-08  0.4511E-05  0.0000E+00 -0.3227E+15
   -2.750011    4.26785  0.6656E-10  0.0000E+00  0.0000E+00  0.0000E+00  0.0000E+00  0.0000E+00
