 1 - depth, m
 2 - temperature, C
 3 - salinity, kg/kg
 4 - turbulent kinetic energy, m**2/s**2
 5 - dissipation rate, m**2/s**3
 6 - kinematic heat conductance, m**2/s
 7 - modulus of horizontal velocity, m/s
 8 - Richardson number, n/d
   -0.000000   -0.00000  0.3445E-12  0.1218E-13  0.7603E-17  0.1000E-09  0.0000E+00  0.2110E+17
   -0.068747    0.33267  0.6281E-10  0.1218E-13  0.7603E-17  0.1000E-09  0.0000E+00  0.1191E+17
   -0.137496    0.53571  0.1367E-09  0.1218E-13  0.7603E-17  0.1000E-09  0.0000E+00  0.7373E+16
   -0.206244    0.66753  0.1663E-09  0.1218E-13  0.7603E-17  0.1000E-09  0.0000E+00  0.4751E+16
   -0.274994    0.75509  0.1576E-09  0.1218E-13  0.7603E-17  0.1000E-09  0.0000E+00  0.3056E+16
   -0.343743    0.81240  0.1347E-09  0.1218E-13  0.7603E-17  0.1000E-09  0.0000E+00  0.2604E+16
   -0.412494    0.86218  0.1135E-09  0.1218E-13  0.7603E-17  0.1000E-09  0.0000E+00  0.2258E+16
   -0.481245    0.90601  0.9931E-10  0.1218E-13  0.7603E-17  0.1000E-09  0.0000E+00  0.1881E+16
   -0.549996    0.94290  0.9156E-10  0.1218E-13  0.7603E-17  0.1000E-09  0.0000E+00  0.1908E+16
   -0.618748    0.98088  0.8791E-10  0.1218E-13  0.7603E-17  0.1000E-09  0.0000E+00  0.2333E+16
   -0.687500    1.02825  0.8638E-10  0.1218E-13  0.7603E-17  0.1000E-09  0.0000E+00  0.2635E+16
   -0.756252    1.08283  0.8579E-10  0.1218E-13  0.7603E-17  0.1000E-09  0.0000E+00  0.2826E+16
   -0.825005    1.14266  0.8558E-10  0.1218E-13  0.7603E-17  0.1000E-09  0.0000E+00  0.3001E+16
   -0.893758    1.20769  0.8548E-10  0.1218E-13  0.7603E-17  0.1000E-09  0.0000E+00  0.3186E+16
   -0.962511    1.27857  0.8540E-10  0.1218E-13  0.7603E-17  0.1000E-09  0.0000E+00  0.3445E+16
   -1.031264    1.35753  0.8530E-10  0.1218E-13  0.7603E-17  0.1000E-09  0.0000E+00  0.3647E+16
   -1.100018    1.44399  0.8515E-10  0.1218E-13  0.7603E-17  0.1000E-09  0.0000E+00  0.3286E+16
   -1.168772    1.52454  0.8496E-10  0.1218E-13  0.7603E-17  0.1000E-09  0.0000E+00  0.3065E+16
   -1.237526    1.60218  0.8471E-10  0.1218E-13  0.7603E-17  0.1000E-09  0.0000E+00  0.2904E+16
   -1.306280    1.67825  0.8441E-10  0.1218E-13  0.7603E-17  0.1000E-09  0.0000E+00  0.2771E+16
   -1.375034    1.75335  0.8407E-10  0.1218E-13  0.7603E-17  0.1000E-09  0.0000E+00  0.2666E+16
   -1.443788    1.82816  0.8369E-10  0.1218E-13  0.7603E-17  0.1000E-09  0.0000E+00  0.2593E+16
   -1.512542    1.90360  0.8330E-10  0.1218E-13  0.7603E-17  0.1000E-09  0.0000E+00  0.2529E+16
   -1.581295    1.98003  0.8292E-10  0.1279E-13  0.8236E-17  0.1000E-09  0.0000E+00  0.2478E+16
   -1.650049    2.05794  0.8255E-10  0.2319E-13  0.1708E-16  0.1000E-09  0.0000E+00  0.2443E+16
   -1.718803    2.13811  0.8222E-10  0.1166E-12  0.9093E-16  0.1000E-09  0.0000E+00  0.2433E+16
   -1.787556    2.22169  0.8194E-10  0.8622E-12  0.6525E-15  0.1000E-09  0.0000E+00  0.2458E+16
   -1.856309    2.31050  0.8171E-10  0.6515E-11  0.4703E-14  0.1018E-09  0.0000E+00  0.2538E+16
   -1.925062    2.40767  0.8154E-10  0.4738E-10  0.3251E-13  0.1364E-09  0.0000E+00  0.2730E+16
   -1.993815    2.51987  0.8141E-10  0.3277E-09  0.2137E-12  0.3419E-09  0.0000E+00  0.3179E+16
   -2.062568    2.66440  0.8133E-10  0.2144E-08  0.1333E-11  0.1515E-08  0.0000E+00  0.3126E+16
   -2.131320    2.82845  0.8128E-10  0.1261E-07  0.7539E-11  0.8560E-08  0.0000E+00  0.3010E+16
   -2.200071    3.05539  0.8124E-10  0.2891E-07  0.1774E-10  0.5891E-05  0.0000E+00  0.2488E+16
   -2.268823    3.30234  0.8122E-10  0.4318E-07  0.2772E-10  0.1843E-04  0.0000E+00  0.2000E+16
   -2.337573    3.51911  0.8122E-10  0.5490E-07  0.3728E-10  0.2687E-04  0.0000E+00  0.1615E+16
   -2.406324    3.71899  0.8121E-10  0.6453E-07  0.4707E-10  0.3179E-04  0.0000E+00  0.1207E+16
   -2.475074    3.92011  0.8121E-10  0.7314E-07  0.5884E-10  0.3257E-04  0.0000E+00  0.3549E+15
   -2.543823    4.12299  0.8121E-10  0.8079E-07  0.7565E-10  0.3193E-04  0.0000E+00 -0.1933E+14
   -2.612572    4.13208  0.8121E-10  0.7904E-07  0.1031E-09  0.2028E-04  0.0000E+00 -0.3542E+14
   -2.681320    4.14688  0.8121E-10  0.5002E-07  0.2539E-09  0.2617E-05  0.0000E+00 -0.3914E+15
   -2.750067    4.25403  0.8121E-10  0.0000E+00  0.0000E+00  0.0000E+00  0.0000E+00  0.0000E+00
