 1 - depth, m
 2 - temperature, C
 3 - salinity, kg/kg
 4 - turbulent kinetic energy, m**2/s**2
 5 - dissipation rate, m**2/s**3
 6 - kinematic heat conductance, m**2/s
 7 - modulus of horizontal velocity, m/s
 8 - Richardson number, n/d
   -0.000000   -0.00000  0.8081E-09  0.1246E-11  0.2802E-15  0.1000E-09  0.0000E+00  0.1843E+17
   -0.068746    0.28752  0.2613E-09  0.3033E-11  0.2926E-15  0.1000E-09  0.0000E+00  0.1701E+17
   -0.137492    0.57574  0.1011E-09  0.6734E-11  0.4735E-15  0.1000E-09  0.0000E+00  0.1543E+17
   -0.206239    0.86159  0.7405E-10  0.1356E-10  0.8572E-15  0.1000E-09  0.0000E+00  0.1384E+17
   -0.274987    1.14377  0.7065E-10  0.2604E-10  0.1574E-14  0.1000E-09  0.0000E+00  0.1227E+17
   -0.343735    1.42110  0.7021E-10  0.4881E-10  0.2868E-14  0.1000E-09  0.0000E+00  0.1075E+17
   -0.412484    1.69277  0.6997E-10  0.9027E-10  0.5185E-14  0.1000E-09  0.0000E+00  0.9291E+16
   -0.481233    1.95784  0.6958E-10  0.1655E-09  0.9308E-14  0.1000E-09  0.0000E+00  0.7905E+16
   -0.549983    2.21550  0.6896E-10  0.3014E-09  0.1660E-13  0.1000E-09  0.0000E+00  0.6615E+16
   -0.618733    2.46541  0.6817E-10  0.5434E-09  0.2934E-13  0.1000E-09  0.0000E+00  0.5429E+16
   -0.687483    2.70753  0.6738E-10  0.9730E-09  0.5149E-13  0.1000E-09  0.0000E+00  0.4343E+16
   -0.756234    2.94183  0.6681E-10  0.1731E-08  0.8982E-13  0.1357E-09  0.0000E+00  0.3371E+16
   -0.824985    3.16964  0.6654E-10  0.3062E-08  0.1557E-12  0.3200E-09  0.0000E+00  0.2478E+16
   -0.893736    3.39122  0.6645E-10  0.5384E-08  0.2685E-12  0.8242E-09  0.0000E+00  0.1659E+16
   -0.962488    3.60685  0.6643E-10  0.9401E-08  0.4599E-12  0.2591E-08  0.0000E+00  0.9041E+15
   -1.031240    3.81576  0.6643E-10  0.1620E-07  0.7782E-12  0.1755E-07  0.0000E+00  0.2262E+15
   -1.099992    4.00243  0.6643E-10  0.1651E-07  0.7938E-12  0.1338E-03  0.0000E+00 -0.5607E+11
   -1.168744    4.00265  0.6643E-10  0.1665E-07  0.8023E-12  0.1311E-03  0.0000E+00 -0.5788E+11
   -1.237496    4.00288  0.6643E-10  0.1678E-07  0.8115E-12  0.1313E-03  0.0000E+00 -0.5846E+11
   -1.306248    4.00310  0.6643E-10  0.1689E-07  0.8215E-12  0.1314E-03  0.0000E+00 -0.5907E+11
   -1.375001    4.00332  0.6643E-10  0.1699E-07  0.8324E-12  0.1313E-03  0.0000E+00 -0.5984E+11
   -1.443753    4.00355  0.6643E-10  0.1708E-07  0.8443E-12  0.1309E-03  0.0000E+00 -0.6077E+11
   -1.512505    4.00377  0.6643E-10  0.1716E-07  0.8572E-12  0.1302E-03  0.0000E+00 -0.6186E+11
   -1.581258    4.00400  0.6643E-10  0.1723E-07  0.8712E-12  0.1291E-03  0.0000E+00 -0.6311E+11
   -1.650010    4.00422  0.6643E-10  0.1728E-07  0.8866E-12  0.1278E-03  0.0000E+00 -0.6456E+11
   -1.718762    4.00445  0.6643E-10  0.1732E-07  0.9033E-12  0.1262E-03  0.0000E+00 -0.6622E+11
   -1.787513    4.00468  0.6643E-10  0.1735E-07  0.9217E-12  0.1242E-03  0.0000E+00 -0.6813E+11
   -1.856265    4.00492  0.6643E-10  0.1736E-07  0.9420E-12  0.1218E-03  0.0000E+00 -0.7031E+11
   -1.925016    4.00516  0.6643E-10  0.1735E-07  0.9643E-12  0.1192E-03  0.0000E+00 -0.7283E+11
   -1.993767    4.00540  0.6643E-10  0.1733E-07  0.9892E-12  0.1162E-03  0.0000E+00 -0.7570E+11
   -2.062518    4.00565  0.6643E-10  0.1729E-07  0.1019E-11  0.1126E-03  0.0000E+00 -0.7935E+11
   -2.131269    4.00591  0.6643E-10  0.1722E-07  0.1058E-11  0.1079E-03  0.0000E+00 -0.8433E+11
   -2.200019    4.00619  0.6643E-10  0.1711E-07  0.1112E-11  0.9366E-04  0.0000E+00 -0.9920E+11
   -2.268768    4.00650  0.6643E-10  0.1694E-07  0.1185E-11  0.7875E-04  0.0000E+00 -0.1211E+12
   -2.337518    4.00688  0.6643E-10  0.1670E-07  0.1286E-11  0.6612E-04  0.0000E+00 -0.1489E+12
   -2.406266    4.00734  0.6643E-10  0.1635E-07  0.1433E-11  0.5417E-04  0.0000E+00 -0.1894E+12
   -2.475014    4.00791  0.6643E-10  0.1582E-07  0.1668E-11  0.4116E-04  0.0000E+00 -0.2635E+12
   -2.543762    4.00867  0.6643E-10  0.1490E-07  0.2111E-11  0.2647E-04  0.0000E+00 -0.4419E+12
   -2.612509    4.00990  0.6643E-10  0.1315E-07  0.3137E-11  0.1206E-04  0.0000E+00 -0.1086E+13
   -2.681256    4.01268  0.6643E-10  0.6087E-08  0.9582E-11  0.6762E-06  0.0000E+00 -0.3315E+14
   -2.750001    4.05652  0.6643E-10  0.0000E+00  0.0000E+00  0.0000E+00  0.0000E+00  0.0000E+00
