 1 - depth, m
 2 - temperature, C
 3 - salinity, kg/kg
 4 - turbulent kinetic energy, m**2/s**2
 5 - dissipation rate, m**2/s**3
 6 - kinematic heat conductance, m**2/s
 7 - modulus of horizontal velocity, m/s
 8 - Richardson number, n/d
   -0.000000   -0.00000  0.1914E-09  0.1219E-13  0.7603E-17  0.1000E-09  0.0000E+00  0.1029E+17
   -0.068746    0.15772  0.2317E-09  0.1219E-13  0.7603E-17  0.1000E-09  0.0000E+00  0.9908E+16
   -0.137492    0.31640  0.1651E-09  0.1219E-13  0.7603E-17  0.1000E-09  0.0000E+00  0.9439E+16
   -0.206239    0.47466  0.1131E-09  0.1219E-13  0.7603E-17  0.1000E-09  0.0000E+00  0.8961E+16
   -0.274987    0.63223  0.9045E-10  0.1219E-13  0.7603E-17  0.1000E-09  0.0000E+00  0.8476E+16
   -0.343735    0.78884  0.8293E-10  0.1219E-13  0.7603E-17  0.1000E-09  0.0000E+00  0.8002E+16
   -0.412484    0.94451  0.8080E-10  0.1219E-13  0.7603E-17  0.1000E-09  0.0000E+00  0.7523E+16
   -0.481233    1.09890  0.8026E-10  0.1219E-13  0.7603E-17  0.1000E-09  0.0000E+00  0.7041E+16
   -0.549983    1.25168  0.8012E-10  0.1219E-13  0.7603E-17  0.1000E-09  0.0000E+00  0.6570E+16
   -0.618733    1.40278  0.8008E-10  0.1219E-13  0.7603E-17  0.1000E-09  0.0000E+00  0.6113E+16
   -0.687484    1.55216  0.8004E-10  0.1219E-13  0.7603E-17  0.1000E-09  0.0000E+00  0.5663E+16
   -0.756234    1.69959  0.7999E-10  0.1219E-13  0.7603E-17  0.1000E-09  0.0000E+00  0.5237E+16
   -0.824986    1.84533  0.7990E-10  0.1219E-13  0.7603E-17  0.1000E-09  0.0000E+00  0.4819E+16
   -0.893737    1.98915  0.7976E-10  0.1219E-13  0.7603E-17  0.1000E-09  0.0000E+00  0.4409E+16
   -0.962489    2.13083  0.7957E-10  0.1219E-13  0.7603E-17  0.1000E-09  0.0000E+00  0.4011E+16
   -1.031240    2.27016  0.7932E-10  0.1219E-13  0.7603E-17  0.1000E-09  0.0000E+00  0.3624E+16
   -1.099992    2.40692  0.7902E-10  0.1649E-13  0.7603E-17  0.1000E-09  0.0000E+00  0.3250E+16
   -1.168745    2.54081  0.7867E-10  0.4711E-13  0.8583E-17  0.1000E-09  0.0000E+00  0.2891E+16
   -1.237497    2.67162  0.7829E-10  0.1300E-12  0.1536E-16  0.1000E-09  0.0000E+00  0.2549E+16
   -1.306249    2.79914  0.7789E-10  0.3061E-12  0.3283E-16  0.1000E-09  0.0000E+00  0.2226E+16
   -1.375002    2.92316  0.7747E-10  0.6833E-12  0.7097E-16  0.1000E-09  0.0000E+00  0.1926E+16
   -1.443754    3.04382  0.7705E-10  0.1499E-11  0.1527E-15  0.1000E-09  0.0000E+00  0.1651E+16
   -1.512506    3.16145  0.7670E-10  0.3267E-11  0.3275E-15  0.1000E-09  0.0000E+00  0.1393E+16
   -1.581258    3.27594  0.7644E-10  0.7100E-11  0.7005E-15  0.1000E-09  0.0000E+00  0.1153E+16
   -1.650011    3.38714  0.7629E-10  0.1540E-10  0.1495E-14  0.1000E-09  0.0000E+00  0.9287E+15
   -1.718763    3.49494  0.7623E-10  0.3333E-10  0.3185E-14  0.1000E-09  0.0000E+00  0.7218E+15
   -1.787514    3.59910  0.7620E-10  0.7201E-10  0.6770E-14  0.1000E-09  0.0000E+00  0.5314E+15
   -1.856266    3.69917  0.7619E-10  0.1553E-09  0.1436E-13  0.2038E-09  0.0000E+00  0.3579E+15
   -1.925018    3.79417  0.7619E-10  0.3339E-09  0.3035E-13  0.7513E-09  0.0000E+00  0.2044E+15
   -1.993769    3.88207  0.7619E-10  0.7147E-09  0.6384E-13  0.4026E-08  0.0000E+00  0.7919E+14
   -2.062519    3.95888  0.7619E-10  0.1457E-08  0.1286E-12  0.1492E-06  0.0000E+00  0.5542E+13
   -2.131270    3.99633  0.7619E-10  0.2059E-08  0.1845E-12  0.8090E-05  0.0000E+00 -0.2180E+12
   -2.200020    3.99769  0.7619E-10  0.2389E-08  0.2250E-12  0.8942E-05  0.0000E+00 -0.2428E+12
   -2.268770    3.99901  0.7619E-10  0.2688E-08  0.2744E-12  0.9259E-05  0.0000E+00 -0.2868E+12
   -2.337519    4.00041  0.7619E-10  0.2961E-08  0.3389E-12  0.9059E-05  0.0000E+00 -0.3613E+12
   -2.406268    4.00198  0.7619E-10  0.3205E-08  0.4292E-12  0.8330E-05  0.0000E+00 -0.4950E+12
   -2.475016    4.00391  0.7619E-10  0.3403E-08  0.5692E-12  0.7026E-05  0.0000E+00 -0.7713E+12
   -2.543764    4.00654  0.7619E-10  0.3498E-08  0.8250E-12  0.4955E-05  0.0000E+00 -0.1509E+13
   -2.612511    4.01086  0.7619E-10  0.3308E-08  0.1402E-11  0.2402E-05  0.0000E+00 -0.4646E+13
   -2.681257    4.02090  0.7619E-10  0.2309E-08  0.3744E-11  0.3743E-06  0.0000E+00 -0.6025E+14
   -2.750003    4.08062  0.7619E-10  0.0000E+00  0.0000E+00  0.0000E+00  0.0000E+00  0.0000E+00
