 1 - depth, m
 2 - temperature, C
 3 - salinity, kg/kg
 4 - turbulent kinetic energy, m**2/s**2
 5 - dissipation rate, m**2/s**3
 6 - kinematic heat conductance, m**2/s
 7 - modulus of horizontal velocity, m/s
 8 - Richardson number, n/d
   -0.000000   -0.00000  0.3999E-09  0.3334E-11  0.9641E-15  0.1000E-09  0.0000E+00  0.1980E+17
   -0.068745    0.30993  0.9383E-10  0.9466E-11  0.1041E-14  0.1000E-09  0.0000E+00  0.1764E+17
   -0.137491    0.61147  0.8009E-10  0.2239E-10  0.1802E-14  0.1000E-09  0.0000E+00  0.1562E+17
   -0.206238    0.90452  0.7228E-10  0.4715E-10  0.3442E-14  0.1000E-09  0.0000E+00  0.1381E+17
   -0.274985    1.19063  0.7067E-10  0.9452E-10  0.6611E-14  0.1000E-09  0.0000E+00  0.1219E+17
   -0.343733    1.47128  0.7039E-10  0.1848E-09  0.1256E-13  0.1000E-09  0.0000E+00  0.1071E+17
   -0.412481    1.74827  0.7035E-10  0.3563E-09  0.2363E-13  0.1000E-09  0.0000E+00  0.9350E+16
   -0.481230    2.02297  0.7034E-10  0.6800E-09  0.4405E-13  0.1000E-09  0.0000E+00  0.8070E+16
   -0.549979    2.29691  0.7034E-10  0.1287E-08  0.8149E-13  0.1000E-09  0.0000E+00  0.6864E+16
   -0.618729    2.57239  0.7031E-10  0.2409E-08  0.1491E-12  0.1332E-09  0.0000E+00  0.5698E+16
   -0.687479    2.85215  0.7022E-10  0.4471E-08  0.2707E-12  0.3050E-09  0.0000E+00  0.4516E+16
   -0.756229    3.13852  0.6989E-10  0.8233E-08  0.4876E-12  0.7578E-09  0.0000E+00  0.3274E+16
   -0.824980    3.43363  0.6893E-10  0.1504E-07  0.8718E-12  0.2332E-08  0.0000E+00  0.1903E+16
   -0.893730    3.73281  0.6716E-10  0.2710E-07  0.1539E-11  0.1563E-07  0.0000E+00  0.5017E+15
   -0.962482    4.00706  0.6634E-10  0.2749E-07  0.1563E-11  0.1814E-03  0.0000E+00 -0.7616E+11
   -1.031233    4.00730  0.6634E-10  0.2768E-07  0.1576E-11  0.1773E-03  0.0000E+00 -0.7895E+11
   -1.099984    4.00754  0.6634E-10  0.2785E-07  0.1591E-11  0.1781E-03  0.0000E+00 -0.7998E+11
   -1.168736    4.00778  0.6634E-10  0.2802E-07  0.1609E-11  0.1889E-03  0.0000E+00 -0.7665E+11
   -1.237488    4.00800  0.6634E-10  0.2818E-07  0.1630E-11  0.1891E-03  0.0000E+00 -0.7812E+11
   -1.306240    4.00823  0.6634E-10  0.2832E-07  0.1651E-11  0.1775E-03  0.0000E+00 -0.8464E+11
   -1.374992    4.00848  0.6634E-10  0.2843E-07  0.1673E-11  0.1761E-03  0.0000E+00 -0.8671E+11
   -1.443743    4.00872  0.6634E-10  0.2853E-07  0.1697E-11  0.1748E-03  0.0000E+00 -0.8836E+11
   -1.512495    4.00897  0.6634E-10  0.2861E-07  0.1724E-11  0.1733E-03  0.0000E+00 -0.9021E+11
   -1.581247    4.00923  0.6634E-10  0.2867E-07  0.1753E-11  0.1715E-03  0.0000E+00 -0.9230E+11
   -1.649999    4.00948  0.6634E-10  0.2872E-07  0.1784E-11  0.1692E-03  0.0000E+00 -0.9466E+11
   -1.718750    4.00974  0.6634E-10  0.2875E-07  0.1819E-11  0.1666E-03  0.0000E+00 -0.9733E+11
   -1.787502    4.01001  0.6634E-10  0.2875E-07  0.1857E-11  0.1637E-03  0.0000E+00 -0.1004E+12
   -1.856253    4.01027  0.6634E-10  0.2874E-07  0.1899E-11  0.1603E-03  0.0000E+00 -0.1038E+12
   -1.925004    4.01055  0.6634E-10  0.2871E-07  0.1945E-11  0.1565E-03  0.0000E+00 -0.1077E+12
   -1.993754    4.01083  0.6634E-10  0.2865E-07  0.1997E-11  0.1523E-03  0.0000E+00 -0.1122E+12
   -2.062505    4.01112  0.6634E-10  0.2857E-07  0.2056E-11  0.1476E-03  0.0000E+00 -0.1175E+12
   -2.131255    4.01142  0.6634E-10  0.2845E-07  0.2126E-11  0.1420E-03  0.0000E+00 -0.1241E+12
   -2.200004    4.01174  0.6634E-10  0.2829E-07  0.2212E-11  0.1356E-03  0.0000E+00 -0.1322E+12
   -2.268753    4.01207  0.6634E-10  0.2806E-07  0.2333E-11  0.1277E-03  0.0000E+00 -0.1431E+12
   -2.337502    4.01242  0.6634E-10  0.2770E-07  0.2519E-11  0.9997E-04  0.0000E+00 -0.1873E+12
   -2.406250    4.01287  0.6634E-10  0.2715E-07  0.2802E-11  0.7638E-04  0.0000E+00 -0.2532E+12
   -2.474998    4.01347  0.6634E-10  0.2631E-07  0.3259E-11  0.5690E-04  0.0000E+00 -0.3554E+12
   -2.543745    4.01430  0.6634E-10  0.2490E-07  0.4117E-11  0.3670E-04  0.0000E+00 -0.5856E+12
   -2.612492    4.01560  0.6634E-10  0.2222E-07  0.6076E-11  0.1720E-04  0.0000E+00 -0.1370E+13
   -2.681238    4.01845  0.6634E-10  0.1073E-07  0.1893E-10  0.1018E-05  0.0000E+00 -0.3767E+14
   -2.749983    4.06277  0.6634E-10  0.0000E+00  0.0000E+00  0.0000E+00  0.0000E+00  0.0000E+00
