 1 - depth, m
 2 - temperature, C
 3 - salinity, kg/kg
 4 - turbulent kinetic energy, m**2/s**2
 5 - dissipation rate, m**2/s**3
 6 - kinematic heat conductance, m**2/s
 7 - modulus of horizontal velocity, m/s
 8 - Richardson number, n/d
   -0.000000   -0.00000  0.3935E-09  0.1519E-12  0.2271E-16  0.1000E-09  0.0000E+00  0.1537E+17
   -0.068746    0.23813  0.1802E-09  0.2969E-12  0.2756E-16  0.1000E-09  0.0000E+00  0.1432E+17
   -0.137492    0.47546  0.9736E-10  0.6218E-12  0.4778E-16  0.1000E-09  0.0000E+00  0.1318E+17
   -0.206239    0.71003  0.7716E-10  0.1261E-11  0.9042E-16  0.1000E-09  0.0000E+00  0.1206E+17
   -0.274987    0.94146  0.7266E-10  0.2495E-11  0.1728E-15  0.1000E-09  0.0000E+00  0.1098E+17
   -0.343735    1.16946  0.7162E-10  0.4858E-11  0.3280E-15  0.1000E-09  0.0000E+00  0.9945E+16
   -0.412483    1.39416  0.7138E-10  0.9354E-11  0.6174E-15  0.1000E-09  0.0000E+00  0.8947E+16
   -0.481232    1.61529  0.7133E-10  0.1787E-10  0.1154E-14  0.1000E-09  0.0000E+00  0.7987E+16
   -0.549982    1.83260  0.7132E-10  0.3389E-10  0.2142E-14  0.1000E-09  0.0000E+00  0.7080E+16
   -0.618732    2.04627  0.7131E-10  0.6363E-10  0.3937E-14  0.1000E-09  0.0000E+00  0.6223E+16
   -0.687482    2.25650  0.7129E-10  0.1186E-09  0.7184E-14  0.1000E-09  0.0000E+00  0.5407E+16
   -0.756233    2.46329  0.7124E-10  0.2195E-09  0.1302E-13  0.1000E-09  0.0000E+00  0.4655E+16
   -0.824984    2.66775  0.7113E-10  0.4036E-09  0.2346E-13  0.1000E-09  0.0000E+00  0.3930E+16
   -0.893735    2.86984  0.7092E-10  0.7376E-09  0.4200E-13  0.1000E-09  0.0000E+00  0.3231E+16
   -0.962487    3.06949  0.7052E-10  0.1340E-08  0.7475E-13  0.1486E-09  0.0000E+00  0.2560E+16
   -1.031239    3.26660  0.6992E-10  0.2418E-08  0.1322E-12  0.3515E-09  0.0000E+00  0.1915E+16
   -1.099991    3.46103  0.6925E-10  0.4351E-08  0.2332E-12  0.9148E-09  0.0000E+00  0.1298E+16
   -1.168743    3.65259  0.6880E-10  0.7786E-08  0.4092E-12  0.2951E-08  0.0000E+00  0.7061E+15
   -1.237495    3.83940  0.6863E-10  0.1373E-07  0.7086E-12  0.2160E-07  0.0000E+00  0.1671E+15
   -1.306247    4.00309  0.6861E-10  0.1415E-07  0.7312E-12  0.1069E-03  0.0000E+00 -0.6564E+11
   -1.374999    4.00334  0.6861E-10  0.1432E-07  0.7422E-12  0.1074E-03  0.0000E+00 -0.6632E+11
   -1.443751    4.00359  0.6861E-10  0.1445E-07  0.7531E-12  0.1076E-03  0.0000E+00 -0.6724E+11
   -1.512504    4.00383  0.6861E-10  0.1457E-07  0.7649E-12  0.1077E-03  0.0000E+00 -0.6822E+11
   -1.581256    4.00408  0.6861E-10  0.1468E-07  0.7777E-12  0.1075E-03  0.0000E+00 -0.6943E+11
   -1.650008    4.00433  0.6861E-10  0.1478E-07  0.7918E-12  0.1070E-03  0.0000E+00 -0.7087E+11
   -1.718760    4.00458  0.6861E-10  0.1486E-07  0.8071E-12  0.1062E-03  0.0000E+00 -0.7259E+11
   -1.787511    4.00483  0.6861E-10  0.1492E-07  0.8239E-12  0.1050E-03  0.0000E+00 -0.7461E+11
   -1.856263    4.00508  0.6861E-10  0.1497E-07  0.8426E-12  0.1034E-03  0.0000E+00 -0.7699E+11
   -1.925014    4.00534  0.6861E-10  0.1500E-07  0.8641E-12  0.1014E-03  0.0000E+00 -0.7985E+11
   -1.993765    4.00561  0.6861E-10  0.1501E-07  0.8897E-12  0.9885E-04  0.0000E+00 -0.8330E+11
   -2.062516    4.00588  0.6861E-10  0.1501E-07  0.9211E-12  0.9499E-04  0.0000E+00 -0.8846E+11
   -2.131266    4.00617  0.6861E-10  0.1497E-07  0.9614E-12  0.8553E-04  0.0000E+00 -0.1006E+12
   -2.200016    4.00649  0.6861E-10  0.1490E-07  0.1013E-11  0.7520E-04  0.0000E+00 -0.1178E+12
   -2.268766    4.00686  0.6861E-10  0.1477E-07  0.1082E-11  0.6576E-04  0.0000E+00 -0.1393E+12
   -2.337515    4.00729  0.6861E-10  0.1459E-07  0.1176E-11  0.5683E-04  0.0000E+00 -0.1681E+12
   -2.406264    4.00779  0.6861E-10  0.1430E-07  0.1311E-11  0.4721E-04  0.0000E+00 -0.2133E+12
   -2.475012    4.00842  0.6861E-10  0.1385E-07  0.1527E-11  0.3624E-04  0.0000E+00 -0.2987E+12
   -2.543759    4.00927  0.6861E-10  0.1305E-07  0.1931E-11  0.2350E-04  0.0000E+00 -0.5068E+12
   -2.612506    4.01063  0.6861E-10  0.1149E-07  0.2872E-11  0.1069E-04  0.0000E+00 -0.1278E+13
   -2.681253    4.01379  0.6861E-10  0.5428E-08  0.8558E-11  0.6426E-06  0.0000E+00 -0.3771E+14
   -2.749998    4.06096  0.6861E-10  0.0000E+00  0.0000E+00  0.0000E+00  0.0000E+00  0.0000E+00
