 1 - depth, m
 2 - temperature, C
 3 - salinity, kg/kg
 4 - turbulent kinetic energy, m**2/s**2
 5 - dissipation rate, m**2/s**3
 6 - kinematic heat conductance, m**2/s
 7 - modulus of horizontal velocity, m/s
 8 - Richardson number, n/d
   -0.000000   -0.00000  0.2390E-09  0.1219E-13  0.7603E-17  0.1000E-09  0.0000E+00  0.1128E+17
   -0.068746    0.17322  0.1595E-09  0.1219E-13  0.7603E-17  0.1000E-09  0.0000E+00  0.1049E+17
   -0.137492    0.34227  0.1065E-09  0.1219E-13  0.7603E-17  0.1000E-09  0.0000E+00  0.9642E+16
   -0.206239    0.50529  0.8660E-10  0.1219E-13  0.7603E-17  0.1000E-09  0.0000E+00  0.8854E+16
   -0.274986    0.66246  0.8139E-10  0.1219E-13  0.7603E-17  0.1000E-09  0.0000E+00  0.8138E+16
   -0.343734    0.81418  0.8031E-10  0.1219E-13  0.7603E-17  0.1000E-09  0.0000E+00  0.7557E+16
   -0.412483    0.96226  0.8013E-10  0.1219E-13  0.7603E-17  0.1000E-09  0.0000E+00  0.7018E+16
   -0.481232    1.10696  0.8010E-10  0.1667E-13  0.7603E-17  0.1000E-09  0.0000E+00  0.6519E+16
   -0.549982    1.24856  0.8009E-10  0.6973E-13  0.9234E-17  0.1000E-09  0.0000E+00  0.6109E+16
   -0.618731    1.38856  0.8009E-10  0.1818E-12  0.1816E-16  0.1000E-09  0.0000E+00  0.5775E+16
   -0.687482    1.52858  0.8009E-10  0.4099E-12  0.3789E-16  0.1000E-09  0.0000E+00  0.5464E+16
   -0.756232    1.66917  0.8009E-10  0.8801E-12  0.7853E-16  0.1000E-09  0.0000E+00  0.5229E+16
   -0.824983    1.81256  0.8008E-10  0.1852E-11  0.1610E-15  0.1000E-09  0.0000E+00  0.4988E+16
   -0.893735    1.95914  0.8006E-10  0.3854E-11  0.3271E-15  0.1000E-09  0.0000E+00  0.4736E+16
   -0.962486    2.10924  0.7999E-10  0.7948E-11  0.6592E-15  0.1000E-09  0.0000E+00  0.4467E+16
   -1.031238    2.26314  0.7985E-10  0.1626E-10  0.1318E-14  0.1000E-09  0.0000E+00  0.4174E+16
   -1.099990    2.42098  0.7962E-10  0.3313E-10  0.2625E-14  0.1000E-09  0.0000E+00  0.3849E+16
   -1.168742    2.58263  0.7929E-10  0.6710E-10  0.5200E-14  0.1000E-09  0.0000E+00  0.3498E+16
   -1.237494    2.74815  0.7891E-10  0.1350E-09  0.1023E-13  0.1000E-09  0.0000E+00  0.3117E+16
   -1.306246    2.91750  0.7853E-10  0.2697E-09  0.2001E-13  0.1000E-09  0.0000E+00  0.2704E+16
   -1.374998    3.09053  0.7819E-10  0.5354E-09  0.3886E-13  0.1000E-09  0.0000E+00  0.2268E+16
   -1.443750    3.26760  0.7786E-10  0.1056E-08  0.7498E-13  0.2115E-09  0.0000E+00  0.1804E+16
   -1.512502    3.44922  0.7743E-10  0.2067E-08  0.1438E-12  0.5633E-09  0.0000E+00  0.1299E+16
   -1.581254    3.63453  0.7688E-10  0.4019E-08  0.2738E-12  0.1834E-08  0.0000E+00  0.7599E+15
   -1.650006    3.82155  0.7630E-10  0.7719E-08  0.5155E-12  0.1239E-07  0.0000E+00  0.2119E+15
   -1.718758    3.99796  0.7612E-10  0.8361E-08  0.5606E-12  0.4193E-04  0.0000E+00 -0.1214E+12
   -1.787510    3.99861  0.7612E-10  0.8661E-08  0.5867E-12  0.4355E-04  0.0000E+00 -0.1248E+12
   -1.856261    3.99924  0.7612E-10  0.8930E-08  0.6157E-12  0.4454E-04  0.0000E+00 -0.1299E+12
   -1.925013    3.99987  0.7612E-10  0.9169E-08  0.6479E-12  0.4490E-04  0.0000E+00 -0.1369E+12
   -1.993763    4.00050  0.7612E-10  0.9377E-08  0.6839E-12  0.4465E-04  0.0000E+00 -0.1462E+12
   -2.062514    4.00114  0.7612E-10  0.9555E-08  0.7250E-12  0.4384E-04  0.0000E+00 -0.1584E+12
   -2.131264    4.00181  0.7612E-10  0.9708E-08  0.7751E-12  0.4234E-04  0.0000E+00 -0.1754E+12
   -2.200014    4.00251  0.7612E-10  0.9833E-08  0.8374E-12  0.4007E-04  0.0000E+00 -0.1993E+12
   -2.268764    4.00328  0.7612E-10  0.9922E-08  0.9176E-12  0.3698E-04  0.0000E+00 -0.2341E+12
   -2.337513    4.00414  0.7612E-10  0.9963E-08  0.1025E-11  0.3299E-04  0.0000E+00 -0.2882E+12
   -2.406261    4.00514  0.7612E-10  0.9931E-08  0.1180E-11  0.2801E-04  0.0000E+00 -0.3805E+12
   -2.475009    4.00639  0.7612E-10  0.9776E-08  0.1424E-11  0.2192E-04  0.0000E+00 -0.5637E+12
   -2.543757    4.00811  0.7612E-10  0.9363E-08  0.1883E-11  0.1439E-04  0.0000E+00 -0.1040E+13
   -2.612504    4.01097  0.7612E-10  0.8333E-08  0.2971E-11  0.6476E-05  0.0000E+00 -0.3034E+13
   -2.681250    4.01786  0.7612E-10  0.4828E-08  0.8587E-11  0.6489E-06  0.0000E+00 -0.6643E+14
   -2.749996    4.08370  0.7612E-10  0.0000E+00  0.0000E+00  0.0000E+00  0.0000E+00  0.0000E+00
