 1 - depth, m
 2 - temperature, C
 3 - salinity, kg/kg
 4 - turbulent kinetic energy, m**2/s**2
 5 - dissipation rate, m**2/s**3
 6 - kinematic heat conductance, m**2/s
 7 - modulus of horizontal velocity, m/s
 8 - Richardson number, n/d
   -0.000000   -0.00000  0.7411E-10  0.3303E-05  0.9834E-07  0.1042E-04  0.1077E-01  0.8822E+04
   -0.068745    0.02575  0.7268E-10  0.2228E-05  0.2931E-07  0.1532E-04  0.5881E-02  0.4853E+05
   -0.137490    0.03954  0.7238E-10  0.1468E-05  0.1220E-07  0.1554E-04  0.3786E-02  0.3465E+06
   -0.206236    0.04936  0.7220E-10  0.9215E-06  0.5493E-08  0.1311E-04  0.2566E-02  0.1638E+07
   -0.274982    0.05638  0.7206E-10  0.5379E-06  0.2440E-08  0.1011E-04  0.1776E-02 -0.1141E+08
   -0.343729    0.06064  0.7196E-10  0.2969E-06  0.1087E-08  0.5630E-05  0.1253E-02  0.9789E+08
   -0.412476    0.06839  0.7185E-10  0.1333E-06  0.4156E-09  0.2439E-05  0.8256E-03  0.1961E+10
   -0.481224    0.08197  0.7166E-10  0.4317E-07  0.1126E-09  0.8993E-06  0.4511E-03  0.1100E+11
   -0.549973    0.10164  0.7110E-10  0.1353E-07  0.2907E-10  0.4267E-06  0.2133E-03 -0.2371E+11
   -0.618721    0.11082  0.7074E-10  0.3736E-08  0.7063E-11  0.7756E-07  0.1089E-03  0.9500E+11
   -0.687471    0.11650  0.7053E-10  0.7431E-09  0.1274E-11  0.1349E-07  0.5075E-04  0.1760E+12
   -0.756220    0.11954  0.7040E-10  0.1064E-09  0.1673E-12  0.1944E-08  0.2152E-04  0.1976E+13
   -0.824970    0.12214  0.7029E-10  0.1371E-10  0.1998E-13  0.3311E-09  0.8723E-05  0.2244E+14
   -0.893720    0.12612  0.7020E-10  0.1772E-11  0.2449E-14  0.1201E-09  0.3518E-05  0.8388E+14
   -0.962470    0.13422  0.7012E-10  0.2302E-12  0.3098E-15  0.1000E-09  0.1395E-05  0.1837E+15
   -1.031221    0.15077  0.7005E-10  0.3741E-13  0.4414E-16  0.1000E-09  0.4674E-06  0.2825E+15
   -1.099972    0.17479  0.6998E-10  0.1473E-13  0.1171E-16  0.1000E-09  0.1088E-06  0.2116E+15
   -1.168722    0.18821  0.6993E-10  0.1227E-13  0.7918E-17  0.1000E-09  0.2499E-07  0.1638E+15
   -1.237473    0.19676  0.6988E-10  0.1219E-13  0.7605E-17  0.1000E-09  0.5655E-08  0.1583E+15
   -1.306224    0.20357  0.6984E-10  0.1219E-13  0.7604E-17  0.1000E-09  0.1261E-08  0.2702E+15
   -1.374975    0.21050  0.6980E-10  0.1219E-13  0.7604E-17  0.1000E-09  0.2765E-09  0.5538E+15
   -1.443727    0.22110  0.6976E-10  0.1219E-13  0.7604E-17  0.1000E-09  0.5964E-10  0.1112E+16
   -1.512478    0.24098  0.6972E-10  0.1219E-13  0.7604E-17  0.1000E-09  0.1264E-10  0.1944E+16
   -1.581229    0.27425  0.6965E-10  0.1219E-13  0.7604E-17  0.1000E-09  0.2631E-11  0.3092E+16
   -1.649979    0.32523  0.6944E-10  0.1219E-13  0.7604E-17  0.1000E-09  0.5372E-12  0.4278E+16
   -1.718730    0.39630  0.6882E-10  0.1745E-13  0.1189E-16  0.1000E-09  0.1076E-12  0.5380E+16
   -1.787481    0.48788  0.6820E-10  0.6444E-13  0.4657E-16  0.1000E-09  0.2113E-13  0.6527E+16
   -1.856231    0.60261  0.6799E-10  0.3990E-12  0.2818E-15  0.1000E-09  0.4065E-14  0.7966E+16
   -1.924981    0.74862  0.6787E-10  0.2579E-11  0.1757E-14  0.1000E-09  0.7655E-15  0.9868E+16
   -1.993731    0.93990  0.6776E-10  0.1634E-10  0.1074E-13  0.1000E-09  0.1387E-15  0.1220E+17
   -2.062480    1.19563  0.6765E-10  0.1019E-09  0.6470E-13  0.1000E-09  0.1136E-16  0.1374E+17
   -2.131230    1.51786  0.6762E-10  0.6350E-09  0.3904E-12  0.1722E-09  0.6942E-18  0.1500E+17
   -2.199978    1.93309  0.6759E-10  0.3881E-08  0.2317E-11  0.7387E-09  0.3846E-19  0.1584E+17
   -2.268727    2.51679  0.6757E-10  0.2295E-07  0.1335E-10  0.8720E-08  0.1910E-20  0.1256E+17
   -2.337475    3.36493  0.6775E-10  0.5125E-07  0.3191E-10  0.1786E-04  0.8379E-22  0.5142E+16
   -2.406222    3.99641  0.6790E-10  0.7413E-07  0.4925E-10  0.4049E-04  0.3186E-23  0.4718E+15
   -2.474969    4.17886  0.6790E-10  0.8694E-07  0.6286E-10  0.4771E-04  0.9179E-25 -0.1496E+14
   -2.543715    4.18393  0.6790E-10  0.9066E-07  0.7617E-10  0.4014E-04  0.2715E-25 -0.1936E+14
   -2.612461    4.19031  0.6790E-10  0.8713E-07  0.1002E-09  0.2518E-04  0.8367E-26 -0.3441E+14
   -2.681206    4.20120  0.6790E-10  0.5305E-07  0.2296E-09  0.2953E-05  0.2054E-26 -0.3831E+15
   -2.749951    4.29655  0.6790E-10  0.0000E+00  0.0000E+00  0.0000E+00  0.2468E-26  0.0000E+00
