 1 - depth, m
 2 - temperature, C
 3 - salinity, kg/kg
 4 - turbulent kinetic energy, m**2/s**2
 5 - dissipation rate, m**2/s**3
 6 - kinematic heat conductance, m**2/s
 7 - modulus of horizontal velocity, m/s
 8 - Richardson number, n/d
   -0.000000   -0.00000  0.6786E-09  0.3298E-11  0.9588E-15  0.1000E-09  0.0000E+00  0.2214E+17
   -0.068746    0.34839  0.1285E-10  0.9372E-11  0.1054E-14  0.1000E-09  0.0000E+00  0.1931E+17
   -0.137492    0.68416  0.8018E-10  0.2225E-10  0.1853E-14  0.1000E-09  0.0000E+00  0.1672E+17
   -0.206239    1.00719  0.7038E-10  0.4715E-10  0.3583E-14  0.1000E-09  0.0000E+00  0.1446E+17
   -0.274986    1.31967  0.7044E-10  0.9533E-10  0.6964E-14  0.1000E-09  0.0000E+00  0.1246E+17
   -0.343734    1.62349  0.7035E-10  0.1884E-09  0.1341E-13  0.1000E-09  0.0000E+00  0.1066E+17
   -0.412483    1.92014  0.7034E-10  0.3677E-09  0.2561E-13  0.1000E-09  0.0000E+00  0.9015E+16
   -0.481232    2.21063  0.7033E-10  0.7120E-09  0.4855E-13  0.1000E-09  0.0000E+00  0.7484E+16
   -0.549981    2.49560  0.7030E-10  0.1370E-08  0.9148E-13  0.1000E-09  0.0000E+00  0.6051E+16
   -0.618731    2.77543  0.7017E-10  0.2609E-08  0.1708E-12  0.1850E-09  0.0000E+00  0.4698E+16
   -0.687482    3.05005  0.6980E-10  0.4934E-08  0.3165E-12  0.4712E-09  0.0000E+00  0.3420E+16
   -0.756232    3.31888  0.6889E-10  0.9270E-08  0.5831E-12  0.1334E-08  0.0000E+00  0.2225E+16
   -0.824983    3.58157  0.6740E-10  0.1728E-07  0.1066E-11  0.4916E-08  0.0000E+00  0.1104E+16
   -0.893734    3.83308  0.6645E-10  0.3123E-07  0.1895E-11  0.5483E-07  0.0000E+00  0.1766E+15
   -0.962486    4.01773  0.6639E-10  0.3168E-07  0.1925E-11  0.1941E-03  0.0000E+00 -0.9094E+11
   -1.031237    4.01792  0.6639E-10  0.3189E-07  0.1941E-11  0.1895E-03  0.0000E+00 -0.9429E+11
   -1.099989    4.01811  0.6639E-10  0.3209E-07  0.1959E-11  0.1903E-03  0.0000E+00 -0.9525E+11
   -1.168741    4.01830  0.6639E-10  0.3226E-07  0.1980E-11  0.2027E-03  0.0000E+00 -0.9075E+11
   -1.237493    4.01848  0.6639E-10  0.3242E-07  0.2001E-11  0.2027E-03  0.0000E+00 -0.9226E+11
   -1.306245    4.01866  0.6639E-10  0.3256E-07  0.2026E-11  0.1897E-03  0.0000E+00 -0.1001E+12
   -1.374998    4.01886  0.6639E-10  0.3269E-07  0.2053E-11  0.1880E-03  0.0000E+00 -0.1024E+12
   -1.443750    4.01906  0.6639E-10  0.3280E-07  0.2082E-11  0.1867E-03  0.0000E+00 -0.1042E+12
   -1.512502    4.01926  0.6639E-10  0.3288E-07  0.2115E-11  0.1850E-03  0.0000E+00 -0.1062E+12
   -1.581254    4.01947  0.6639E-10  0.3295E-07  0.2150E-11  0.1830E-03  0.0000E+00 -0.1086E+12
   -1.650006    4.01967  0.6639E-10  0.3300E-07  0.2189E-11  0.1806E-03  0.0000E+00 -0.1112E+12
   -1.718758    4.01989  0.6639E-10  0.3303E-07  0.2232E-11  0.1778E-03  0.0000E+00 -0.1143E+12
   -1.787509    4.02010  0.6639E-10  0.3303E-07  0.2279E-11  0.1746E-03  0.0000E+00 -0.1177E+12
   -1.856261    4.02032  0.6639E-10  0.3301E-07  0.2331E-11  0.1709E-03  0.0000E+00 -0.1217E+12
   -1.925012    4.02055  0.6639E-10  0.3297E-07  0.2388E-11  0.1669E-03  0.0000E+00 -0.1262E+12
   -1.993763    4.02079  0.6639E-10  0.3290E-07  0.2453E-11  0.1624E-03  0.0000E+00 -0.1313E+12
   -2.062514    4.02103  0.6639E-10  0.3280E-07  0.2525E-11  0.1573E-03  0.0000E+00 -0.1373E+12
   -2.131264    4.02128  0.6639E-10  0.3266E-07  0.2612E-11  0.1513E-03  0.0000E+00 -0.1448E+12
   -2.200014    4.02154  0.6639E-10  0.3248E-07  0.2719E-11  0.1444E-03  0.0000E+00 -0.1543E+12
   -2.268763    4.02182  0.6639E-10  0.3224E-07  0.2854E-11  0.1366E-03  0.0000E+00 -0.1662E+12
   -2.337512    4.02212  0.6639E-10  0.3187E-07  0.3054E-11  0.1186E-03  0.0000E+00 -0.1955E+12
   -2.406261    4.02247  0.6639E-10  0.3128E-07  0.3386E-11  0.8735E-04  0.0000E+00 -0.2732E+12
   -2.475009    4.02295  0.6639E-10  0.3034E-07  0.3929E-11  0.6364E-04  0.0000E+00 -0.3904E+12
   -2.543756    4.02362  0.6639E-10  0.2876E-07  0.4949E-11  0.4105E-04  0.0000E+00 -0.6387E+12
   -2.612503    4.02470  0.6639E-10  0.2577E-07  0.7254E-11  0.1941E-04  0.0000E+00 -0.1456E+13
   -2.681250    4.02705  0.6639E-10  0.1252E-07  0.2257E-10  0.1122E-05  0.0000E+00 -0.3583E+14
   -2.749995    4.06529  0.6639E-10  0.0000E+00  0.0000E+00  0.0000E+00  0.0000E+00  0.0000E+00
