 1 - depth, m
 2 - temperature, C
 3 - salinity, kg/kg
 4 - turbulent kinetic energy, m**2/s**2
 5 - dissipation rate, m**2/s**3
 6 - kinematic heat conductance, m**2/s
 7 - modulus of horizontal velocity, m/s
 8 - Richardson number, n/d
   -0.000000   -0.00000  0.9575E-13  0.3655E-07  0.1366E-09  0.7862E-08  0.0000E+00  0.6925E+17
   -0.068747    1.27800  0.2906E-11  0.4239E-06  0.1326E-09  0.2052E-07  0.0000E+00  0.3414E+17
   -0.137495    2.55305  0.5454E-10  0.7149E-06  0.2086E-09  0.3450E-03  0.0000E+00  0.1343E+17
   -0.206244    3.27072  0.8927E-10  0.9115E-06  0.2625E-09  0.6878E-03  0.0000E+00  0.5934E+16
   -0.274993    3.68003  0.9514E-10  0.1069E-05  0.3065E-09  0.9281E-03  0.0000E+00  0.3102E+16
   -0.343742    3.94634  0.8815E-10  0.1205E-05  0.3454E-09  0.1112E-02  0.0000E+00  0.2105E+16
   -0.412493    4.15440  0.8094E-10  0.1309E-05  0.3754E-09  0.1285E-02  0.0000E+00  0.1022E+16
   -0.481243    4.30863  0.7693E-10  0.1327E-05  0.3813E-09  0.1434E-02  0.0000E+00  0.3362E+14
   -0.549994    4.32710  0.7660E-10  0.1331E-05  0.3834E-09  0.1454E-02  0.0000E+00 -0.2390E+13
   -0.618746    4.32757  0.7659E-10  0.1334E-05  0.3857E-09  0.1452E-02  0.0000E+00 -0.2228E+13
   -0.687498    4.32803  0.7659E-10  0.1336E-05  0.3882E-09  0.1447E-02  0.0000E+00 -0.2234E+13
   -0.756250    4.32849  0.7659E-10  0.1338E-05  0.3911E-09  0.1438E-02  0.0000E+00 -0.2246E+13
   -0.825003    4.32895  0.7658E-10  0.1340E-05  0.3943E-09  0.1429E-02  0.0000E+00 -0.2266E+13
   -0.893755    4.32940  0.7658E-10  0.1341E-05  0.3977E-09  0.1418E-02  0.0000E+00 -0.2297E+13
   -0.962508    4.32986  0.7658E-10  0.1342E-05  0.4016E-09  0.1405E-02  0.0000E+00 -0.2335E+13
   -1.031262    4.33032  0.7657E-10  0.1343E-05  0.4058E-09  0.1390E-02  0.0000E+00 -0.2386E+13
   -1.100015    4.33079  0.7657E-10  0.1344E-05  0.4104E-09  0.1373E-02  0.0000E+00 -0.2433E+13
   -1.168769    4.33126  0.7657E-10  0.1344E-05  0.4156E-09  0.1354E-02  0.0000E+00 -0.2491E+13
   -1.237522    4.33174  0.7656E-10  0.1343E-05  0.4212E-09  0.1334E-02  0.0000E+00 -0.2553E+13
   -1.306276    4.33223  0.7656E-10  0.1342E-05  0.4274E-09  0.1312E-02  0.0000E+00 -0.2629E+13
   -1.375030    4.33274  0.7656E-10  0.1341E-05  0.4342E-09  0.1303E-02  0.0000E+00 -0.2671E+13
   -1.443784    4.33325  0.7656E-10  0.1339E-05  0.4417E-09  0.1264E-02  0.0000E+00 -0.2797E+13
   -1.512537    4.33378  0.7655E-10  0.1337E-05  0.4499E-09  0.1251E-02  0.0000E+00 -0.2854E+13
   -1.581291    4.33432  0.7655E-10  0.1335E-05  0.4589E-09  0.1206E-02  0.0000E+00 -0.3014E+13
   -1.650045    4.33488  0.7655E-10  0.1331E-05  0.4689E-09  0.1191E-02  0.0000E+00 -0.3079E+13
   -1.718798    4.33546  0.7655E-10  0.1328E-05  0.4800E-09  0.1141E-02  0.0000E+00 -0.3284E+13
   -1.787551    4.33607  0.7655E-10  0.1323E-05  0.4923E-09  0.1107E-02  0.0000E+00 -0.3445E+13
   -1.856304    4.33671  0.7654E-10  0.1318E-05  0.5062E-09  0.1071E-02  0.0000E+00 -0.3610E+13
   -1.925057    4.33737  0.7654E-10  0.1312E-05  0.5216E-09  0.1031E-02  0.0000E+00 -0.3831E+13
   -1.993810    4.33808  0.7654E-10  0.1305E-05  0.5390E-09  0.9902E-03  0.0000E+00 -0.4050E+13
   -2.062562    4.33882  0.7654E-10  0.1297E-05  0.5590E-09  0.9455E-03  0.0000E+00 -0.4319E+13
   -2.131314    4.33960  0.7654E-10  0.1288E-05  0.5832E-09  0.8956E-03  0.0000E+00 -0.4587E+13
   -2.200065    4.34044  0.7654E-10  0.1277E-05  0.6134E-09  0.8385E-03  0.0000E+00 -0.4954E+13
   -2.268817    4.34133  0.7654E-10  0.1263E-05  0.6519E-09  0.7757E-03  0.0000E+00 -0.5390E+13
   -2.337567    4.34230  0.7653E-10  0.1246E-05  0.7026E-09  0.7050E-03  0.0000E+00 -0.6000E+13
   -2.406317    4.34338  0.7653E-10  0.1225E-05  0.7726E-09  0.6262E-03  0.0000E+00 -0.6829E+13
   -2.475067    4.34460  0.7653E-10  0.1196E-05  0.8760E-09  0.5335E-03  0.0000E+00 -0.8131E+13
   -2.543816    4.34604  0.7653E-10  0.1154E-05  0.1046E-08  0.4438E-03  0.0000E+00 -0.9996E+13
   -2.612565    4.34782  0.7653E-10  0.1078E-05  0.1419E-08  0.2144E-03  0.0000E+00 -0.2094E+14
   -2.681313    4.35156  0.7653E-10  0.5119E-06  0.5263E-08  0.7238E-05  0.0000E+00 -0.7178E+15
   -2.750060    4.46140  0.7651E-10  0.0000E+00  0.0000E+00  0.0000E+00  0.0000E+00  0.0000E+00
