 1 - depth, m
 2 - temperature, C
 3 - salinity, kg/kg
 4 - turbulent kinetic energy, m**2/s**2
 5 - dissipation rate, m**2/s**3
 6 - kinematic heat conductance, m**2/s
 7 - modulus of horizontal velocity, m/s
 8 - Richardson number, n/d
   -0.000000   13.58949  0.8773E-10  0.2500E-04  0.5392E-05  0.3225E-04  0.3424E-01  0.2141E-02
   -0.068746   13.58924  0.8774E-10  0.1419E-04  0.1141E-05  0.4377E-04  0.1774E-01  0.1556E-01
   -0.137493   13.58766  0.8775E-10  0.9764E-05  0.3979E-06  0.4612E-04  0.1326E-01  0.5365E-01
   -0.206240   13.58541  0.8775E-10  0.6767E-05  0.1640E-06  0.4356E-04  0.1042E-01  0.2148E+00
   -0.274988   13.58028  0.8776E-10  0.4668E-05  0.7535E-07  0.3801E-04  0.8340E-02  0.2481E+01
   -0.343737   13.56704  0.8778E-10  0.3276E-05  0.3836E-07  0.3057E-04  0.6801E-02  0.3585E+02
   -0.412486   13.54891  0.8780E-10  0.2227E-05  0.2042E-07  0.2256E-04  0.5524E-02  0.7404E+03
   -0.481235   13.52726  0.8782E-10  0.1403E-05  0.1076E-07  0.1481E-04  0.4475E-02  0.2237E+05
   -0.549985   13.49789  0.8784E-10  0.8228E-06  0.5681E-08  0.8102E-05  0.3620E-02  0.5531E+06
   -0.618736   13.45824  0.8788E-10  0.4539E-06  0.3159E-08  0.3445E-05  0.2859E-02  0.4028E+07
   -0.687487   13.41090  0.8790E-10  0.2042E-06  0.1616E-08  0.8511E-06  0.2063E-02  0.2710E+08
   -0.756238   13.35192  0.8793E-10  0.3293E-07  0.3288E-09  0.3766E-07  0.1278E-02  0.1975E+09
   -0.824989   13.23307  0.8803E-10  0.1198E-08  0.1174E-10  0.2651E-08  0.4627E-03  0.1350E+10
   -0.893741   13.13709  0.8808E-10  0.2453E-10  0.1113E-11  0.1890E-09  0.1405E-03  0.8448E+10
   -0.962493   13.08424  0.8809E-10  0.4419E-11  0.1000E-11  0.1000E-09  0.4149E-04  0.4315E+11
   -1.031245   13.05637  0.8809E-10  0.4419E-11  0.1000E-11  0.1000E-09  0.1081E-04  0.2643E+12
   -1.099997   13.04170  0.8809E-10  0.4419E-11  0.1000E-11  0.1000E-09  0.2101E-05  0.7777E+13
   -1.168750   13.02562  0.8810E-10  0.4419E-11  0.1000E-11  0.1000E-09  0.4025E-06  0.1516E+15
   -1.237502   13.00912  0.8810E-10  0.4419E-11  0.1000E-11  0.1000E-09  0.7598E-07  0.3129E+15
   -1.306255   12.99327  0.8810E-10  0.4419E-11  0.1000E-11  0.1000E-09  0.1413E-07  0.4302E+15
   -1.375008   12.97880  0.8810E-10  0.4419E-11  0.1000E-11  0.1000E-09  0.2589E-08  0.5431E+15
   -1.443760   12.96532  0.8810E-10  0.4419E-11  0.1000E-11  0.1000E-09  0.4668E-09  0.8101E+15
   -1.512513   12.95141  0.8810E-10  0.4419E-11  0.1000E-11  0.1000E-09  0.8282E-10  0.1204E+16
   -1.581265   12.93598  0.8810E-10  0.4419E-11  0.1000E-11  0.1000E-09  0.1445E-10  0.2052E+16
   -1.650018   12.91635  0.8810E-10  0.4419E-11  0.1000E-11  0.1000E-09  0.2479E-11  0.3619E+16
   -1.718770   12.88694  0.8811E-10  0.5568E-10  0.1000E-11  0.1790E-09  0.4180E-12  0.6065E+16
   -1.787522   12.83744  0.8811E-10  0.1532E-08  0.2261E-11  0.7701E-09  0.6920E-13  0.1038E+17
   -1.856274   12.75208  0.8811E-10  0.1382E-07  0.1429E-10  0.4449E-08  0.1124E-13  0.1622E+17
   -1.925026   12.61724  0.8813E-10  0.9982E-07  0.9726E-10  0.5368E-07  0.1744E-14  0.1881E+17
   -1.993777   12.45819  0.8817E-10  0.2091E-06  0.2145E-09  0.1149E-04  0.1540E-15  0.1465E+17
   -2.062529   12.33135  0.8823E-10  0.3374E-06  0.3678E-09  0.4087E-04  0.3806E-16  0.8310E+16
   -2.131279   12.25761  0.8824E-10  0.4689E-06  0.5390E-09  0.8764E-04  0.2206E-16  0.1303E+16
   -2.200030   12.24583  0.8824E-10  0.5637E-06  0.6889E-09  0.1362E-03  0.1512E-16 -0.2310E+14
   -2.268780   12.24603  0.8824E-10  0.6377E-06  0.8436E-09  0.1653E-03  0.1078E-16 -0.3891E+14
   -2.337529   12.24637  0.8824E-10  0.7052E-06  0.1025E-08  0.1740E-03  0.7605E-17 -0.5472E+14
   -2.406278   12.24685  0.8824E-10  0.7668E-06  0.1251E-08  0.1715E-03  0.5263E-17 -0.7508E+14
   -2.475027   12.24750  0.8824E-10  0.8187E-06  0.1551E-08  0.1595E-03  0.3563E-17 -0.1044E+15
   -2.543775   12.24841  0.8824E-10  0.8523E-06  0.1996E-08  0.1379E-03  0.2386E-17 -0.1536E+15
   -2.612522   12.24975  0.8824E-10  0.8422E-06  0.2741E-08  0.1034E-03  0.1596E-17 -0.2603E+15
   -2.681269   12.25202  0.8825E-10  0.5178E-06  0.6949E-08  0.9287E-05  0.1057E-17 -0.3664E+16
   -2.750015   12.28385  0.8825E-10  0.0000E+00  0.0000E+00  0.0000E+00  0.1058E-17  0.0000E+00
