 1 - depth, m
 2 - temperature, C
 3 - salinity, kg/kg
 4 - turbulent kinetic energy, m**2/s**2
 5 - dissipation rate, m**2/s**3
 6 - kinematic heat conductance, m**2/s
 7 - modulus of horizontal velocity, m/s
 8 - Richardson number, n/d
   -0.000000   -0.00000  0.9640E-09  0.2412E-11  0.6232E-15  0.1000E-09  0.0000E+00  0.1996E+17
   -0.068746    0.31244  0.1858E-09  0.6376E-11  0.6053E-15  0.1000E-09  0.0000E+00  0.1804E+17
   -0.137492    0.62142  0.8481E-10  0.1429E-10  0.9284E-15  0.1000E-09  0.0000E+00  0.1607E+17
   -0.206239    0.92450  0.7141E-10  0.2832E-10  0.1617E-14  0.1000E-09  0.0000E+00  0.1419E+17
   -0.274986    1.22109  0.7038E-10  0.5299E-10  0.2869E-14  0.1000E-09  0.0000E+00  0.1240E+17
   -0.343734    1.51073  0.7023E-10  0.9636E-10  0.5062E-14  0.1000E-09  0.0000E+00  0.1073E+17
   -0.412483    1.79321  0.7006E-10  0.1726E-09  0.8856E-14  0.1000E-09  0.0000E+00  0.9154E+16
   -0.481232    2.06825  0.6972E-10  0.3062E-09  0.1539E-13  0.1000E-09  0.0000E+00  0.7692E+16
   -0.549981    2.33568  0.6913E-10  0.5395E-09  0.2657E-13  0.1000E-09  0.0000E+00  0.6343E+16
   -0.618731    2.59554  0.6831E-10  0.9416E-09  0.4546E-13  0.1000E-09  0.0000E+00  0.5103E+16
   -0.687481    2.84799  0.6744E-10  0.1632E-08  0.7728E-13  0.1011E-09  0.0000E+00  0.3964E+16
   -0.756232    3.09313  0.6680E-10  0.2812E-08  0.1306E-12  0.2268E-09  0.0000E+00  0.2931E+16
   -0.824983    3.33200  0.6652E-10  0.4816E-08  0.2194E-12  0.5652E-09  0.0000E+00  0.1976E+16
   -0.893734    3.56443  0.6644E-10  0.8199E-08  0.3664E-12  0.1702E-08  0.0000E+00  0.1096E+16
   -0.962486    3.78950  0.6643E-10  0.1382E-07  0.6065E-12  0.1020E-07  0.0000E+00  0.3031E+15
   -1.031237    3.99727  0.6643E-10  0.1415E-07  0.6214E-12  0.1202E-03  0.0000E+00 -0.4493E+11
   -1.099989    3.99753  0.6643E-10  0.1428E-07  0.6289E-12  0.1235E-03  0.0000E+00 -0.4472E+11
   -1.168741    3.99779  0.6643E-10  0.1439E-07  0.6363E-12  0.1237E-03  0.0000E+00 -0.4564E+11
   -1.237493    3.99804  0.6643E-10  0.1450E-07  0.6443E-12  0.1239E-03  0.0000E+00 -0.4655E+11
   -1.306245    3.99829  0.6643E-10  0.1460E-07  0.6532E-12  0.1239E-03  0.0000E+00 -0.4755E+11
   -1.374997    3.99854  0.6643E-10  0.1468E-07  0.6629E-12  0.1237E-03  0.0000E+00 -0.4865E+11
   -1.443749    3.99879  0.6643E-10  0.1476E-07  0.6734E-12  0.1232E-03  0.0000E+00 -0.4982E+11
   -1.512502    3.99904  0.6643E-10  0.1483E-07  0.6849E-12  0.1224E-03  0.0000E+00 -0.5113E+11
   -1.581254    3.99930  0.6643E-10  0.1489E-07  0.6974E-12  0.1213E-03  0.0000E+00 -0.5259E+11
   -1.650006    3.99955  0.6643E-10  0.1494E-07  0.7110E-12  0.1199E-03  0.0000E+00 -0.5422E+11
   -1.718757    3.99981  0.6643E-10  0.1498E-07  0.7258E-12  0.1183E-03  0.0000E+00 -0.5604E+11
   -1.787509    4.00007  0.6643E-10  0.1501E-07  0.7421E-12  0.1163E-03  0.0000E+00 -0.5808E+11
   -1.856260    4.00034  0.6643E-10  0.1503E-07  0.7598E-12  0.1140E-03  0.0000E+00 -0.6039E+11
   -1.925012    4.00061  0.6643E-10  0.1503E-07  0.7797E-12  0.1114E-03  0.0000E+00 -0.6303E+11
   -1.993763    4.00089  0.6643E-10  0.1502E-07  0.8028E-12  0.1083E-03  0.0000E+00 -0.6612E+11
   -2.062513    4.00118  0.6643E-10  0.1499E-07  0.8314E-12  0.1045E-03  0.0000E+00 -0.7005E+11
   -2.131263    4.00148  0.6643E-10  0.1493E-07  0.8689E-12  0.9477E-04  0.0000E+00 -0.7922E+11
   -2.200013    4.00181  0.6643E-10  0.1484E-07  0.9179E-12  0.8195E-04  0.0000E+00 -0.9427E+11
   -2.268763    4.00219  0.6643E-10  0.1470E-07  0.9828E-12  0.7036E-04  0.0000E+00 -0.1136E+12
   -2.337512    4.00264  0.6643E-10  0.1450E-07  0.1072E-11  0.5997E-04  0.0000E+00 -0.1388E+12
   -2.406260    4.00317  0.6643E-10  0.1420E-07  0.1202E-11  0.4926E-04  0.0000E+00 -0.1778E+12
   -2.475008    4.00383  0.6643E-10  0.1374E-07  0.1408E-11  0.3729E-04  0.0000E+00 -0.2512E+12
   -2.543756    4.00473  0.6643E-10  0.1294E-07  0.1798E-11  0.2377E-04  0.0000E+00 -0.4316E+12
   -2.612503    4.00617  0.6643E-10  0.1138E-07  0.2715E-11  0.1064E-04  0.0000E+00 -0.1113E+13
   -2.681249    4.00947  0.6643E-10  0.5333E-08  0.8317E-11  0.6301E-06  0.0000E+00 -0.3607E+14
   -2.749995    4.05803  0.6643E-10  0.0000E+00  0.0000E+00  0.0000E+00  0.0000E+00  0.0000E+00
