 1 - depth, m
 2 - temperature, C
 3 - salinity, kg/kg
 4 - turbulent kinetic energy, m**2/s**2
 5 - dissipation rate, m**2/s**3
 6 - kinematic heat conductance, m**2/s
 7 - modulus of horizontal velocity, m/s
 8 - Richardson number, n/d
   -0.000000   -0.00000  0.1952E-09  0.5772E-12  0.1227E-15  0.1000E-09  0.0000E+00  0.1616E+17
   -0.068746    0.25086  0.1294E-09  0.1357E-11  0.1635E-15  0.1000E-09  0.0000E+00  0.1482E+17
   -0.137492    0.49772  0.8835E-10  0.3194E-11  0.3221E-15  0.1000E-09  0.0000E+00  0.1349E+17
   -0.206239    0.73981  0.7426E-10  0.7124E-11  0.6774E-15  0.1000E-09  0.0000E+00  0.1231E+17
   -0.274986    0.97859  0.7103E-10  0.1546E-10  0.1424E-14  0.1000E-09  0.0000E+00  0.1124E+17
   -0.343734    1.21558  0.7045E-10  0.3299E-10  0.2964E-14  0.1000E-09  0.0000E+00  0.1031E+17
   -0.412483    1.45338  0.7036E-10  0.6964E-10  0.6108E-14  0.1000E-09  0.0000E+00  0.9420E+16
   -0.481232    1.69307  0.7035E-10  0.1457E-09  0.1249E-13  0.1000E-09  0.0000E+00  0.8546E+16
   -0.549981    1.93563  0.7034E-10  0.3025E-09  0.2533E-13  0.1000E-09  0.0000E+00  0.7698E+16
   -0.618731    2.18287  0.7034E-10  0.6209E-09  0.5083E-13  0.1000E-09  0.0000E+00  0.6842E+16
   -0.687481    2.43645  0.7033E-10  0.1264E-08  0.1012E-12  0.1000E-09  0.0000E+00  0.5927E+16
   -0.756232    2.69702  0.7029E-10  0.2553E-08  0.1998E-12  0.2047E-09  0.0000E+00  0.4969E+16
   -0.824983    2.96679  0.7015E-10  0.5117E-08  0.3919E-12  0.5124E-09  0.0000E+00  0.3894E+16
   -0.893734    3.24520  0.6969E-10  0.1018E-07  0.7628E-12  0.1438E-08  0.0000E+00  0.2701E+16
   -0.962485    3.53055  0.6831E-10  0.2006E-07  0.1472E-11  0.5328E-08  0.0000E+00  0.1408E+16
   -1.031237    3.81627  0.6638E-10  0.3805E-07  0.2744E-11  0.6541E-07  0.0000E+00  0.2159E+15
   -1.099989    4.02459  0.6614E-10  0.3865E-07  0.2790E-11  0.1988E-03  0.0000E+00 -0.1303E+12
   -1.168741    4.02481  0.6614E-10  0.3894E-07  0.2817E-11  0.1940E-03  0.0000E+00 -0.1356E+12
   -1.237493    4.02503  0.6614E-10  0.3920E-07  0.2847E-11  0.1949E-03  0.0000E+00 -0.1372E+12
   -1.306245    4.02526  0.6614E-10  0.3943E-07  0.2879E-11  0.2078E-03  0.0000E+00 -0.1307E+12
   -1.374997    4.02547  0.6614E-10  0.3963E-07  0.2914E-11  0.2078E-03  0.0000E+00 -0.1328E+12
   -1.443749    4.02569  0.6614E-10  0.3981E-07  0.2953E-11  0.1939E-03  0.0000E+00 -0.1437E+12
   -1.512501    4.02592  0.6614E-10  0.3997E-07  0.2997E-11  0.1920E-03  0.0000E+00 -0.1467E+12
   -1.581253    4.02615  0.6614E-10  0.4010E-07  0.3045E-11  0.1903E-03  0.0000E+00 -0.1496E+12
   -1.650005    4.02639  0.6614E-10  0.4019E-07  0.3098E-11  0.1883E-03  0.0000E+00 -0.1530E+12
   -1.718757    4.02664  0.6614E-10  0.4026E-07  0.3156E-11  0.1858E-03  0.0000E+00 -0.1568E+12
   -1.787509    4.02688  0.6614E-10  0.4030E-07  0.3220E-11  0.1828E-03  0.0000E+00 -0.1612E+12
   -1.856260    4.02714  0.6614E-10  0.4031E-07  0.3292E-11  0.1793E-03  0.0000E+00 -0.1663E+12
   -1.925011    4.02740  0.6614E-10  0.4028E-07  0.3371E-11  0.1754E-03  0.0000E+00 -0.1722E+12
   -1.993762    4.02766  0.6614E-10  0.4021E-07  0.3459E-11  0.1710E-03  0.0000E+00 -0.1789E+12
   -2.062513    4.02794  0.6614E-10  0.4011E-07  0.3558E-11  0.1660E-03  0.0000E+00 -0.1867E+12
   -2.131263    4.02822  0.6614E-10  0.3996E-07  0.3679E-11  0.1599E-03  0.0000E+00 -0.1964E+12
   -2.200013    4.02852  0.6614E-10  0.3975E-07  0.3826E-11  0.1528E-03  0.0000E+00 -0.2086E+12
   -2.268762    4.02884  0.6614E-10  0.3946E-07  0.4011E-11  0.1445E-03  0.0000E+00 -0.2243E+12
   -2.337511    4.02917  0.6614E-10  0.3904E-07  0.4274E-11  0.1344E-03  0.0000E+00 -0.2461E+12
   -2.406260    4.02954  0.6614E-10  0.3836E-07  0.4702E-11  0.1002E-03  0.0000E+00 -0.3385E+12
   -2.475008    4.03004  0.6614E-10  0.3725E-07  0.5426E-11  0.7100E-04  0.0000E+00 -0.4951E+12
   -2.543755    4.03075  0.6614E-10  0.3534E-07  0.6792E-11  0.4577E-04  0.0000E+00 -0.8058E+12
   -2.612502    4.03190  0.6614E-10  0.3175E-07  0.9866E-11  0.2192E-04  0.0000E+00 -0.1799E+13
   -2.681248    4.03435  0.6614E-10  0.1588E-07  0.3023E-10  0.1348E-05  0.0000E+00 -0.4003E+14
   -2.749994    4.07247  0.6614E-10  0.0000E+00  0.0000E+00  0.0000E+00  0.0000E+00  0.0000E+00
