 1 - depth, m
 2 - temperature, C
 3 - salinity, kg/kg
 4 - turbulent kinetic energy, m**2/s**2
 5 - dissipation rate, m**2/s**3
 6 - kinematic heat conductance, m**2/s
 7 - modulus of horizontal velocity, m/s
 8 - Richardson number, n/d
   -0.000000   -0.00000  0.3538E-09  0.7978E-13  0.1066E-16  0.1000E-09  0.0000E+00  0.1482E+17
   -0.068746    0.22937  0.1977E-09  0.1479E-12  0.1329E-16  0.1000E-09  0.0000E+00  0.1388E+17
   -0.137492    0.45855  0.1113E-09  0.3028E-12  0.2311E-16  0.1000E-09  0.0000E+00  0.1284E+17
   -0.206239    0.68559  0.8189E-10  0.6098E-12  0.4371E-16  0.1000E-09  0.0000E+00  0.1181E+17
   -0.274987    0.91004  0.7387E-10  0.1205E-11  0.8354E-16  0.1000E-09  0.0000E+00  0.1080E+17
   -0.343735    1.13151  0.7190E-10  0.2345E-11  0.1586E-15  0.1000E-09  0.0000E+00  0.9822E+16
   -0.412484    1.34996  0.7145E-10  0.4519E-11  0.2989E-15  0.1000E-09  0.0000E+00  0.8873E+16
   -0.481233    1.56499  0.7135E-10  0.8639E-11  0.5591E-15  0.1000E-09  0.0000E+00  0.7955E+16
   -0.549982    1.77626  0.7132E-10  0.1640E-10  0.1039E-14  0.1000E-09  0.0000E+00  0.7081E+16
   -0.618732    1.98370  0.7130E-10  0.3082E-10  0.1911E-14  0.1000E-09  0.0000E+00  0.6251E+16
   -0.687483    2.18735  0.7127E-10  0.5749E-10  0.3491E-14  0.1000E-09  0.0000E+00  0.5461E+16
   -0.756234    2.38702  0.7119E-10  0.1065E-09  0.6335E-14  0.1000E-09  0.0000E+00  0.4730E+16
   -0.824985    2.58340  0.7105E-10  0.1961E-09  0.1142E-13  0.1000E-09  0.0000E+00  0.4032E+16
   -0.893736    2.77633  0.7078E-10  0.3588E-09  0.2048E-13  0.1000E-09  0.0000E+00  0.3368E+16
   -0.962487    2.96573  0.7035E-10  0.6524E-09  0.3649E-13  0.1000E-09  0.0000E+00  0.2741E+16
   -1.031239    3.15155  0.6977E-10  0.1179E-08  0.6464E-13  0.1532E-09  0.0000E+00  0.2148E+16
   -1.099991    3.33381  0.6920E-10  0.2125E-08  0.1142E-12  0.3654E-09  0.0000E+00  0.1590E+16
   -1.168743    3.51247  0.6883E-10  0.3812E-08  0.2008E-12  0.9601E-09  0.0000E+00  0.1065E+16
   -1.237495    3.68727  0.6866E-10  0.6795E-08  0.3510E-12  0.3132E-08  0.0000E+00  0.5707E+15
   -1.306248    3.85659  0.6862E-10  0.1192E-07  0.6049E-12  0.2373E-07  0.0000E+00  0.1299E+15
   -1.375000    4.00258  0.6861E-10  0.1233E-07  0.6267E-12  0.9278E-04  0.0000E+00 -0.6622E+11
   -1.443752    4.00284  0.6861E-10  0.1250E-07  0.6379E-12  0.9681E-04  0.0000E+00 -0.6453E+11
   -1.512504    4.00309  0.6861E-10  0.1264E-07  0.6488E-12  0.9689E-04  0.0000E+00 -0.6553E+11
   -1.581257    4.00334  0.6861E-10  0.1276E-07  0.6604E-12  0.9698E-04  0.0000E+00 -0.6655E+11
   -1.650009    4.00358  0.6861E-10  0.1287E-07  0.6730E-12  0.9674E-04  0.0000E+00 -0.6781E+11
   -1.718761    4.00383  0.6861E-10  0.1296E-07  0.6870E-12  0.9614E-04  0.0000E+00 -0.6937E+11
   -1.787512    4.00408  0.6861E-10  0.1304E-07  0.7026E-12  0.9515E-04  0.0000E+00 -0.7127E+11
   -1.856264    4.00434  0.6861E-10  0.1310E-07  0.7205E-12  0.9373E-04  0.0000E+00 -0.7357E+11
   -1.925015    4.00460  0.6861E-10  0.1315E-07  0.7411E-12  0.9191E-04  0.0000E+00 -0.7633E+11
   -1.993766    4.00486  0.6861E-10  0.1317E-07  0.7653E-12  0.8740E-04  0.0000E+00 -0.8171E+11
   -2.062517    4.00514  0.6861E-10  0.1318E-07  0.7938E-12  0.8046E-04  0.0000E+00 -0.9073E+11
   -2.131267    4.00544  0.6861E-10  0.1315E-07  0.8295E-12  0.7305E-04  0.0000E+00 -0.1026E+12
   -2.200017    4.00578  0.6861E-10  0.1310E-07  0.8750E-12  0.6580E-04  0.0000E+00 -0.1175E+12
   -2.268767    4.00617  0.6861E-10  0.1300E-07  0.9346E-12  0.5881E-04  0.0000E+00 -0.1364E+12
   -2.337516    4.00660  0.6861E-10  0.1284E-07  0.1016E-11  0.5137E-04  0.0000E+00 -0.1632E+12
   -2.406265    4.00711  0.6861E-10  0.1259E-07  0.1133E-11  0.4285E-04  0.0000E+00 -0.2070E+12
   -2.475013    4.00773  0.6861E-10  0.1219E-07  0.1319E-11  0.3297E-04  0.0000E+00 -0.2904E+12
   -2.543761    4.00858  0.6861E-10  0.1148E-07  0.1668E-11  0.2138E-04  0.0000E+00 -0.4953E+12
   -2.612508    4.00996  0.6861E-10  0.1007E-07  0.2486E-11  0.9654E-05  0.0000E+00 -0.1268E+13
   -2.681254    4.01316  0.6861E-10  0.4750E-08  0.7319E-11  0.5857E-06  0.0000E+00 -0.3714E+14
   -2.750000    4.06024  0.6861E-10  0.0000E+00  0.0000E+00  0.0000E+00  0.0000E+00  0.0000E+00
