 1 - depth, m
 2 - temperature, C
 3 - salinity, kg/kg
 4 - turbulent kinetic energy, m**2/s**2
 5 - dissipation rate, m**2/s**3
 6 - kinematic heat conductance, m**2/s
 7 - modulus of horizontal velocity, m/s
 8 - Richardson number, n/d
   -0.000000   -0.00000  0.2239E-09  0.1219E-13  0.7603E-17  0.1000E-09  0.0000E+00  0.1245E+17
   -0.068746    0.19161  0.1399E-09  0.1219E-13  0.7603E-17  0.1000E-09  0.0000E+00  0.1156E+17
   -0.137492    0.37934  0.8981E-10  0.1219E-13  0.7603E-17  0.1000E-09  0.0000E+00  0.1056E+17
   -0.206239    0.56034  0.7508E-10  0.5018E-13  0.8068E-17  0.1000E-09  0.0000E+00  0.9622E+16
   -0.274987    0.73458  0.7195E-10  0.1405E-12  0.1633E-16  0.1000E-09  0.0000E+00  0.8772E+16
   -0.343735    0.90250  0.7141E-10  0.3361E-12  0.3600E-16  0.1000E-09  0.0000E+00  0.8106E+16
   -0.412484    1.06669  0.7134E-10  0.7631E-12  0.7884E-16  0.1000E-09  0.0000E+00  0.7498E+16
   -0.481233    1.22770  0.7133E-10  0.1697E-11  0.1707E-15  0.1000E-09  0.0000E+00  0.6947E+16
   -0.549983    1.38620  0.7132E-10  0.3732E-11  0.3661E-15  0.1000E-09  0.0000E+00  0.6516E+16
   -0.618733    1.54464  0.7132E-10  0.8096E-11  0.7753E-15  0.1000E-09  0.0000E+00  0.6188E+16
   -0.687483    1.70570  0.7132E-10  0.1740E-10  0.1627E-14  0.1000E-09  0.0000E+00  0.5886E+16
   -0.756234    1.87071  0.7132E-10  0.3708E-10  0.3387E-14  0.1000E-09  0.0000E+00  0.5675E+16
   -0.824985    2.04352  0.7132E-10  0.7838E-10  0.6994E-14  0.1000E-09  0.0000E+00  0.5432E+16
   -0.893736    2.22529  0.7130E-10  0.1644E-09  0.1433E-13  0.1000E-09  0.0000E+00  0.5138E+16
   -0.962488    2.41709  0.7125E-10  0.3421E-09  0.2916E-13  0.1000E-09  0.0000E+00  0.4771E+16
   -1.031240    2.61978  0.7114E-10  0.7065E-09  0.5888E-13  0.1000E-09  0.0000E+00  0.4312E+16
   -1.099992    2.83399  0.7094E-10  0.1453E-08  0.1184E-12  0.1612E-09  0.0000E+00  0.3741E+16
   -1.168744    3.05999  0.7065E-10  0.2972E-08  0.2369E-12  0.3964E-09  0.0000E+00  0.3043E+16
   -1.237496    3.29743  0.7028E-10  0.6034E-08  0.4707E-12  0.1084E-08  0.0000E+00  0.2212E+16
   -1.306248    3.54503  0.6970E-10  0.1215E-07  0.9276E-12  0.3767E-08  0.0000E+00  0.1255E+16
   -1.375001    3.79831  0.6858E-10  0.2389E-07  0.1790E-11  0.3379E-07  0.0000E+00  0.2709E+15
   -1.443753    4.01542  0.6826E-10  0.2457E-07  0.1844E-11  0.1282E-03  0.0000E+00 -0.1367E+12
   -1.512505    4.01572  0.6826E-10  0.2487E-07  0.1873E-11  0.1260E-03  0.0000E+00 -0.1420E+12
   -1.581258    4.01602  0.6826E-10  0.2513E-07  0.1904E-11  0.1263E-03  0.0000E+00 -0.1446E+12
   -1.650010    4.01633  0.6826E-10  0.2536E-07  0.1939E-11  0.1263E-03  0.0000E+00 -0.1476E+12
   -1.718762    4.01665  0.6826E-10  0.2556E-07  0.1977E-11  0.1259E-03  0.0000E+00 -0.1513E+12
   -1.787513    4.01696  0.6826E-10  0.2573E-07  0.2019E-11  0.1251E-03  0.0000E+00 -0.1557E+12
   -1.856265    4.01729  0.6826E-10  0.2587E-07  0.2065E-11  0.1237E-03  0.0000E+00 -0.1609E+12
   -1.925016    4.01762  0.6826E-10  0.2598E-07  0.2117E-11  0.1219E-03  0.0000E+00 -0.1671E+12
   -1.993767    4.01795  0.6826E-10  0.2605E-07  0.2174E-11  0.1197E-03  0.0000E+00 -0.1743E+12
   -2.062518    4.01830  0.6826E-10  0.2608E-07  0.2238E-11  0.1168E-03  0.0000E+00 -0.1825E+12
   -2.131269    4.01867  0.6826E-10  0.2607E-07  0.2315E-11  0.1130E-03  0.0000E+00 -0.1927E+12
   -2.200019    4.01905  0.6826E-10  0.2601E-07  0.2410E-11  0.1085E-03  0.0000E+00 -0.2057E+12
   -2.268768    4.01944  0.6826E-10  0.2588E-07  0.2539E-11  0.1027E-03  0.0000E+00 -0.2234E+12
   -2.337518    4.01987  0.6826E-10  0.2562E-07  0.2736E-11  0.8508E-04  0.0000E+00 -0.2786E+12
   -2.406266    4.02040  0.6826E-10  0.2520E-07  0.3030E-11  0.6718E-04  0.0000E+00 -0.3682E+12
   -2.475014    4.02108  0.6826E-10  0.2448E-07  0.3499E-11  0.5115E-04  0.0000E+00 -0.5121E+12
   -2.543762    4.02201  0.6826E-10  0.2321E-07  0.4369E-11  0.3375E-04  0.0000E+00 -0.8372E+12
   -2.612509    4.02348  0.6826E-10  0.2073E-07  0.6337E-11  0.1610E-04  0.0000E+00 -0.1949E+13
   -2.681256    4.02669  0.6826E-10  0.1032E-07  0.1870E-10  0.1038E-05  0.0000E+00 -0.4763E+14
   -2.750001    4.07416  0.6826E-10  0.0000E+00  0.0000E+00  0.0000E+00  0.0000E+00  0.0000E+00
