 1 - depth, m
 2 - temperature, C
 3 - salinity, kg/kg
 4 - turbulent kinetic energy, m**2/s**2
 5 - dissipation rate, m**2/s**3
 6 - kinematic heat conductance, m**2/s
 7 - modulus of horizontal velocity, m/s
 8 - Richardson number, n/d
   -0.000000   -0.00000  0.3533E-09  0.1219E-13  0.7604E-17  0.1000E-09  0.0000E+00  0.1214E+17
   -0.068746    0.18671  0.1484E-09  0.1219E-13  0.7604E-17  0.1000E-09  0.0000E+00  0.1127E+17
   -0.137492    0.36932  0.1026E-09  0.1219E-13  0.7604E-17  0.1000E-09  0.0000E+00  0.1037E+17
   -0.206239    0.54636  0.8632E-10  0.1219E-13  0.7604E-17  0.1000E-09  0.0000E+00  0.9527E+16
   -0.274986    0.71804  0.8150E-10  0.1219E-13  0.7604E-17  0.1000E-09  0.0000E+00  0.8758E+16
   -0.343734    0.88472  0.8036E-10  0.1219E-13  0.7604E-17  0.1000E-09  0.0000E+00  0.8094E+16
   -0.412483    1.04764  0.8014E-10  0.1219E-13  0.7604E-17  0.1000E-09  0.0000E+00  0.7478E+16
   -0.481232    1.20705  0.8010E-10  0.2442E-13  0.7604E-17  0.1000E-09  0.0000E+00  0.6903E+16
   -0.549981    1.36322  0.8009E-10  0.8532E-13  0.1058E-16  0.1000E-09  0.0000E+00  0.6397E+16
   -0.618731    1.51715  0.8009E-10  0.2137E-12  0.2136E-16  0.1000E-09  0.0000E+00  0.5949E+16
   -0.687481    1.66984  0.8009E-10  0.4783E-12  0.4483E-16  0.1000E-09  0.0000E+00  0.5524E+16
   -0.756232    1.82167  0.8008E-10  0.1029E-11  0.9330E-16  0.1000E-09  0.0000E+00  0.5165E+16
   -0.824983    1.97434  0.8006E-10  0.2174E-11  0.1921E-15  0.1000E-09  0.0000E+00  0.4804E+16
   -0.893734    2.12798  0.8000E-10  0.4543E-11  0.3918E-15  0.1000E-09  0.0000E+00  0.4441E+16
   -0.962485    2.28268  0.7990E-10  0.9411E-11  0.7925E-15  0.1000E-09  0.0000E+00  0.4072E+16
   -1.031237    2.43847  0.7971E-10  0.1933E-10  0.1590E-14  0.1000E-09  0.0000E+00  0.3696E+16
   -1.099989    2.59533  0.7944E-10  0.3953E-10  0.3177E-14  0.1000E-09  0.0000E+00  0.3315E+16
   -1.168741    2.75328  0.7910E-10  0.8032E-10  0.6310E-14  0.1000E-09  0.0000E+00  0.2925E+16
   -1.237493    2.91217  0.7873E-10  0.1621E-09  0.1245E-13  0.1000E-09  0.0000E+00  0.2526E+16
   -1.306245    3.07181  0.7836E-10  0.3247E-09  0.2438E-13  0.1000E-09  0.0000E+00  0.2121E+16
   -1.374997    3.23195  0.7800E-10  0.6457E-09  0.4742E-13  0.1407E-09  0.0000E+00  0.1715E+16
   -1.443749    3.39263  0.7757E-10  0.1275E-08  0.9161E-13  0.3567E-09  0.0000E+00  0.1307E+16
   -1.512501    3.55397  0.7704E-10  0.2500E-08  0.1757E-12  0.1002E-08  0.0000E+00  0.8927E+15
   -1.581253    3.71506  0.7648E-10  0.4860E-08  0.3345E-12  0.3562E-08  0.0000E+00  0.4778E+15
   -1.650005    3.87329  0.7620E-10  0.9241E-08  0.6239E-12  0.3253E-07  0.0000E+00  0.9747E+14
   -1.718757    4.00481  0.7617E-10  0.9885E-08  0.6696E-12  0.5220E-04  0.0000E+00 -0.1280E+12
   -1.787508    4.00525  0.7617E-10  0.1017E-07  0.6951E-12  0.5314E-04  0.0000E+00 -0.1300E+12
   -1.856260    4.00568  0.7617E-10  0.1043E-07  0.7228E-12  0.5345E-04  0.0000E+00 -0.1336E+12
   -1.925011    4.00612  0.7617E-10  0.1064E-07  0.7533E-12  0.5315E-04  0.0000E+00 -0.1390E+12
   -1.993762    4.00656  0.7617E-10  0.1082E-07  0.7874E-12  0.5223E-04  0.0000E+00 -0.1463E+12
   -2.062512    4.00702  0.7617E-10  0.1097E-07  0.8263E-12  0.5087E-04  0.0000E+00 -0.1565E+12
   -2.131263    4.00749  0.7617E-10  0.1108E-07  0.8739E-12  0.4887E-04  0.0000E+00 -0.1709E+12
   -2.200012    4.00800  0.7617E-10  0.1117E-07  0.9332E-12  0.4610E-04  0.0000E+00 -0.1913E+12
   -2.268762    4.00856  0.7617E-10  0.1121E-07  0.1010E-11  0.4248E-04  0.0000E+00 -0.2211E+12
   -2.337511    4.00918  0.7617E-10  0.1119E-07  0.1113E-11  0.3793E-04  0.0000E+00 -0.2672E+12
   -2.406259    4.00992  0.7617E-10  0.1109E-07  0.1260E-11  0.3232E-04  0.0000E+00 -0.3451E+12
   -2.475007    4.01083  0.7617E-10  0.1086E-07  0.1492E-11  0.2547E-04  0.0000E+00 -0.4973E+12
   -2.543755    4.01210  0.7617E-10  0.1034E-07  0.1923E-11  0.1692E-04  0.0000E+00 -0.8806E+12
   -2.612502    4.01419  0.7617E-10  0.9153E-08  0.2926E-11  0.7740E-05  0.0000E+00 -0.2393E+13
   -2.681248    4.01922  0.7617E-10  0.4891E-08  0.8321E-11  0.6428E-06  0.0000E+00 -0.5664E+14
   -2.749994    4.07753  0.7617E-10  0.0000E+00  0.0000E+00  0.0000E+00  0.0000E+00  0.0000E+00
