 1 - depth, m
 2 - temperature, C
 3 - salinity, kg/kg
 4 - turbulent kinetic energy, m**2/s**2
 5 - dissipation rate, m**2/s**3
 6 - kinematic heat conductance, m**2/s
 7 - modulus of horizontal velocity, m/s
 8 - Richardson number, n/d
   -0.000000    9.06679  0.7846E-10  0.1445E-04  0.6522E-06  0.3448E-04  0.2067E-01 -0.4009E-01
   -0.068746    9.10838  0.7846E-10  0.1204E-04  0.2250E-06  0.8064E-04  0.1177E-01 -0.1343E+00
   -0.137492    9.12537  0.7846E-10  0.1053E-04  0.1179E-06  0.1509E-03  0.8355E-02  0.2789E+03
   -0.206239    9.13523  0.7846E-10  0.9498E-05  0.7337E-07  0.2445E-03  0.6453E-02  0.1549E+03
   -0.274987    9.14165  0.7846E-10  0.8816E-05  0.5080E-07  0.3382E-03  0.5284E-02  0.7837E+02
   -0.343735    9.14612  0.7846E-10  0.8390E-05  0.3810E-07  0.4536E-03  0.4523E-02  0.4329E+02
   -0.412483    9.14921  0.7846E-10  0.8148E-05  0.3085E-07  0.7100E-03  0.3986E-02  0.1052E+04
   -0.481233    9.15091  0.7846E-10  0.8034E-05  0.2641E-07  0.8283E-03  0.3640E-02  0.2309E+01
   -0.549982    9.15231  0.7846E-10  0.7982E-05  0.2315E-07  0.9160E-03  0.3358E-02  0.2355E+01
   -0.618732    9.15354  0.7846E-10  0.7967E-05  0.2059E-07  0.1013E-02  0.3099E-02  0.2637E+01
   -0.687482    9.15464  0.7846E-10  0.7972E-05  0.1856E-07  0.1111E-02  0.2859E-02  0.2848E+01
   -0.756233    9.15561  0.7846E-10  0.7989E-05  0.1691E-07  0.1190E-02  0.2632E-02  0.3001E+01
   -0.824984    9.15650  0.7846E-10  0.8007E-05  0.1554E-07  0.1255E-02  0.2419E-02  0.3108E+01
   -0.893735    9.15732  0.7846E-10  0.8022E-05  0.1439E-07  0.1313E-02  0.2218E-02  0.3197E+01
   -0.962487    9.15810  0.7846E-10  0.8029E-05  0.1341E-07  0.1365E-02  0.2027E-02  0.3281E+01
   -1.031239    9.15883  0.7846E-10  0.8024E-05  0.1257E-07  0.1415E-02  0.1845E-02  0.3276E+01
   -1.099991    9.15953  0.7846E-10  0.8005E-05  0.1183E-07  0.1476E-02  0.1672E-02  0.2985E+01
   -1.168743    9.16018  0.7846E-10  0.7972E-05  0.1120E-07  0.1535E-02  0.1514E-02  0.2749E+01
   -1.237495    9.16080  0.7846E-10  0.7925E-05  0.1066E-07  0.1591E-02  0.1371E-02  0.2549E+01
   -1.306247    9.16138  0.7846E-10  0.7867E-05  0.1020E-07  0.1641E-02  0.1241E-02  0.2377E+01
   -1.374999    9.16194  0.7846E-10  0.7796E-05  0.9805E-08  0.1687E-02  0.1122E-02  0.2223E+01
   -1.443751    9.16247  0.7846E-10  0.7715E-05  0.9477E-08  0.1726E-02  0.1014E-02  0.2086E+01
   -1.512504    9.16298  0.7846E-10  0.7625E-05  0.9208E-08  0.1758E-02  0.9157E-03  0.1960E+01
   -1.581256    9.16348  0.7846E-10  0.7527E-05  0.8994E-08  0.1783E-02  0.8262E-03  0.1844E+01
   -1.650008    9.16395  0.7846E-10  0.7422E-05  0.8832E-08  0.1801E-02  0.7446E-03  0.1735E+01
   -1.718760    9.16442  0.7846E-10  0.7311E-05  0.8720E-08  0.1810E-02  0.6703E-03  0.1634E+01
   -1.787511    9.16487  0.7846E-10  0.7197E-05  0.8656E-08  0.1806E-02  0.6025E-03  0.1537E+01
   -1.856263    9.16531  0.7846E-10  0.7081E-05  0.8639E-08  0.1779E-02  0.5404E-03  0.1448E+01
   -1.925014    9.16575  0.7846E-10  0.6963E-05  0.8669E-08  0.1724E-02  0.4833E-03  0.1361E+01
   -1.993765    9.16620  0.7846E-10  0.6846E-05  0.8747E-08  0.1651E-02  0.4306E-03  0.1296E+01
   -2.062516    9.16666  0.7846E-10  0.6732E-05  0.8874E-08  0.1573E-02  0.3821E-03  0.1200E+01
   -2.131266    9.16713  0.7846E-10  0.6617E-05  0.9059E-08  0.1490E-02  0.3400E-03  0.1177E+01
   -2.200016    9.16762  0.7846E-10  0.6502E-05  0.9311E-08  0.1407E-02  0.3045E-03  0.1283E+01
   -2.268766    9.16814  0.7846E-10  0.6379E-05  0.9656E-08  0.1320E-02  0.2745E-03  0.1643E+01
   -2.337515    9.16869  0.7846E-10  0.6239E-05  0.1015E-07  0.1214E-02  0.2477E-03  0.2420E+01
   -2.406264    9.16927  0.7846E-10  0.6070E-05  0.1090E-07  0.1081E-02  0.2223E-03  0.4096E+01
   -2.475012    9.16993  0.7846E-10  0.5855E-05  0.1208E-07  0.9228E-03  0.1985E-03  0.8253E+01
   -2.543759    9.17069  0.7846E-10  0.5558E-05  0.1418E-07  0.7228E-03  0.1769E-03  0.2362E+02
   -2.612506    9.17165  0.7846E-10  0.5122E-05  0.1832E-07  0.5357E-03  0.1578E-03  0.1329E+03
   -2.681253    9.17294  0.7846E-10  0.2511E-05  0.5742E-07  0.1664E-04  0.1417E-03 -0.2274E+05
   -2.749998    9.21334  0.7846E-10  0.0000E+00  0.0000E+00  0.0000E+00  0.1412E-03  0.0000E+00
