 1 - depth, m
 2 - temperature, C
 3 - salinity, kg/kg
 4 - turbulent kinetic energy, m**2/s**2
 5 - dissipation rate, m**2/s**3
 6 - kinematic heat conductance, m**2/s
 7 - modulus of horizontal velocity, m/s
 8 - Richardson number, n/d
   -0.000000   -0.00000  0.4683E-09  0.1219E-13  0.7604E-17  0.1000E-09  0.0000E+00  0.1407E+17
   -0.068746    0.21743  0.1235E-09  0.2940E-13  0.7604E-17  0.1000E-09  0.0000E+00  0.1295E+17
   -0.137492    0.43003  0.9064E-10  0.9546E-13  0.9268E-17  0.1000E-09  0.0000E+00  0.1182E+17
   -0.206238    0.63654  0.7967E-10  0.2219E-12  0.1633E-16  0.1000E-09  0.0000E+00  0.1077E+17
   -0.274986    0.83728  0.7647E-10  0.4550E-12  0.3064E-16  0.1000E-09  0.0000E+00  0.9814E+16
   -0.343734    1.03269  0.7571E-10  0.8859E-12  0.5730E-16  0.1000E-09  0.0000E+00  0.8964E+16
   -0.412482    1.22385  0.7556E-10  0.1685E-11  0.1061E-15  0.1000E-09  0.0000E+00  0.8173E+16
   -0.481231    1.41110  0.7553E-10  0.3164E-11  0.1945E-15  0.1000E-09  0.0000E+00  0.7437E+16
   -0.549980    1.59476  0.7552E-10  0.5889E-11  0.3542E-15  0.1000E-09  0.0000E+00  0.6770E+16
   -0.618730    1.77574  0.7552E-10  0.1084E-10  0.6380E-15  0.1000E-09  0.0000E+00  0.6160E+16
   -0.687480    1.95495  0.7551E-10  0.1980E-10  0.1140E-14  0.1000E-09  0.0000E+00  0.5584E+16
   -0.756231    2.13282  0.7549E-10  0.3590E-10  0.2024E-14  0.1000E-09  0.0000E+00  0.5076E+16
   -0.824982    2.31139  0.7544E-10  0.6465E-10  0.3570E-14  0.1000E-09  0.0000E+00  0.4574E+16
   -0.893733    2.49097  0.7535E-10  0.1157E-09  0.6255E-14  0.1000E-09  0.0000E+00  0.4073E+16
   -0.962484    2.67193  0.7519E-10  0.2057E-09  0.1090E-13  0.1000E-09  0.0000E+00  0.3570E+16
   -1.031236    2.85469  0.7496E-10  0.3635E-09  0.1886E-13  0.1000E-09  0.0000E+00  0.3063E+16
   -1.099987    3.03979  0.7464E-10  0.6404E-09  0.3256E-13  0.1000E-09  0.0000E+00  0.2548E+16
   -1.168739    3.22801  0.7425E-10  0.1123E-08  0.5596E-13  0.1420E-09  0.0000E+00  0.2005E+16
   -1.237491    3.41914  0.7373E-10  0.1960E-08  0.9572E-13  0.3395E-09  0.0000E+00  0.1434E+16
   -1.306243    3.61216  0.7303E-10  0.3400E-08  0.1628E-12  0.9827E-09  0.0000E+00  0.8426E+15
   -1.374995    3.80490  0.7234E-10  0.5853E-08  0.2750E-12  0.5419E-08  0.0000E+00  0.2581E+15
   -1.443747    3.99017  0.7211E-10  0.6257E-08  0.2948E-12  0.3496E-04  0.0000E+00 -0.5066E+11
   -1.512499    3.99094  0.7211E-10  0.6465E-08  0.3073E-12  0.3837E-04  0.0000E+00 -0.5446E+11
   -1.581251    3.99164  0.7211E-10  0.6666E-08  0.3213E-12  0.4106E-04  0.0000E+00 -0.5812E+11
   -1.650003    3.99230  0.7211E-10  0.6857E-08  0.3369E-12  0.4309E-04  0.0000E+00 -0.6196E+11
   -1.718755    3.99293  0.7211E-10  0.7037E-08  0.3540E-12  0.4452E-04  0.0000E+00 -0.6619E+11
   -1.787506    3.99354  0.7211E-10  0.7206E-08  0.3728E-12  0.4538E-04  0.0000E+00 -0.7101E+11
   -1.856258    3.99414  0.7211E-10  0.7362E-08  0.3935E-12  0.4570E-04  0.0000E+00 -0.7661E+11
   -1.925009    3.99475  0.7211E-10  0.7503E-08  0.4164E-12  0.4548E-04  0.0000E+00 -0.8322E+11
   -1.993760    3.99535  0.7211E-10  0.7626E-08  0.4417E-12  0.4475E-04  0.0000E+00 -0.9116E+11
   -2.062510    3.99598  0.7211E-10  0.7732E-08  0.4704E-12  0.4352E-04  0.0000E+00 -0.1010E+12
   -2.131260    3.99662  0.7211E-10  0.7821E-08  0.5051E-12  0.4162E-04  0.0000E+00 -0.1140E+12
   -2.200010    3.99731  0.7211E-10  0.7889E-08  0.5480E-12  0.3899E-04  0.0000E+00 -0.1319E+12
   -2.268759    3.99805  0.7211E-10  0.7930E-08  0.6029E-12  0.3558E-04  0.0000E+00 -0.1575E+12
   -2.337508    3.99887  0.7211E-10  0.7932E-08  0.6767E-12  0.3134E-04  0.0000E+00 -0.1971E+12
   -2.406257    3.99984  0.7211E-10  0.7875E-08  0.7825E-12  0.2619E-04  0.0000E+00 -0.2644E+12
   -2.475005    4.00103  0.7211E-10  0.7715E-08  0.9507E-12  0.2004E-04  0.0000E+00 -0.3993E+12
   -2.543752    4.00267  0.7211E-10  0.7339E-08  0.1271E-11  0.1275E-04  0.0000E+00 -0.7598E+12
   -2.612499    4.00541  0.7211E-10  0.6449E-08  0.2046E-11  0.5487E-05  0.0000E+00 -0.2358E+13
   -2.681245    4.01211  0.7211E-10  0.3627E-08  0.5964E-11  0.5210E-06  0.0000E+00 -0.5614E+14
   -2.749990    4.07485  0.7211E-10  0.0000E+00  0.0000E+00  0.0000E+00  0.0000E+00  0.0000E+00
