 1 - depth, m
 2 - temperature, C
 3 - salinity, kg/kg
 4 - turbulent kinetic energy, m**2/s**2
 5 - dissipation rate, m**2/s**3
 6 - kinematic heat conductance, m**2/s
 7 - modulus of horizontal velocity, m/s
 8 - Richardson number, n/d
   -0.000000   -0.00000  0.2667E-09  0.1219E-13  0.7603E-17  0.1000E-09  0.0000E+00  0.1164E+17
   -0.068746    0.17887  0.1312E-09  0.1219E-13  0.7603E-17  0.1000E-09  0.0000E+00  0.1057E+17
   -0.137492    0.34939  0.8552E-10  0.1219E-13  0.7603E-17  0.1000E-09  0.0000E+00  0.9345E+16
   -0.206239    0.50762  0.7686E-10  0.1219E-13  0.7603E-17  0.1000E-09  0.0000E+00  0.8204E+16
   -0.274987    0.65309  0.7568E-10  0.1219E-13  0.7603E-17  0.1000E-09  0.0000E+00  0.7176E+16
   -0.343735    0.78607  0.7555E-10  0.1219E-13  0.7603E-17  0.1000E-09  0.0000E+00  0.6407E+16
   -0.412483    0.90992  0.7553E-10  0.1219E-13  0.7603E-17  0.1000E-09  0.0000E+00  0.5721E+16
   -0.481232    1.02511  0.7552E-10  0.1219E-13  0.7603E-17  0.1000E-09  0.0000E+00  0.5117E+16
   -0.549982    1.13228  0.7552E-10  0.1219E-13  0.7603E-17  0.1000E-09  0.0000E+00  0.4707E+16
   -0.618732    1.23474  0.7552E-10  0.1219E-13  0.7603E-17  0.1000E-09  0.0000E+00  0.4482E+16
   -0.687482    1.33615  0.7552E-10  0.3862E-13  0.8023E-17  0.1000E-09  0.0000E+00  0.4327E+16
   -0.756233    1.43807  0.7552E-10  0.1172E-12  0.1853E-16  0.1000E-09  0.0000E+00  0.4328E+16
   -0.824984    1.54445  0.7552E-10  0.3175E-12  0.4697E-16  0.1000E-09  0.0000E+00  0.4363E+16
   -0.893735    1.65679  0.7551E-10  0.8285E-12  0.1183E-15  0.1000E-09  0.0000E+00  0.4418E+16
   -0.962487    1.77660  0.7547E-10  0.2127E-11  0.2945E-15  0.1000E-09  0.0000E+00  0.4479E+16
   -1.031239    1.90537  0.7536E-10  0.5398E-11  0.7256E-15  0.1000E-09  0.0000E+00  0.4513E+16
   -1.099990    2.04404  0.7513E-10  0.1361E-10  0.1776E-14  0.1000E-09  0.0000E+00  0.4471E+16
   -1.168742    2.19233  0.7479E-10  0.3400E-10  0.4309E-14  0.1000E-09  0.0000E+00  0.4392E+16
   -1.237495    2.35146  0.7439E-10  0.8402E-10  0.1034E-13  0.1000E-09  0.0000E+00  0.4255E+16
   -1.306247    2.52247  0.7402E-10  0.2053E-09  0.2454E-13  0.1000E-09  0.0000E+00  0.4037E+16
   -1.374999    2.70623  0.7376E-10  0.4957E-09  0.5753E-13  0.1062E-09  0.0000E+00  0.3744E+16
   -1.443751    2.90486  0.7355E-10  0.1182E-08  0.1332E-12  0.2027E-09  0.0000E+00  0.3352E+16
   -1.512504    3.12139  0.7328E-10  0.2780E-08  0.3041E-12  0.5555E-09  0.0000E+00  0.2791E+16
   -1.581256    3.35714  0.7286E-10  0.6448E-08  0.6850E-12  0.1707E-08  0.0000E+00  0.2040E+16
   -1.650008    3.61620  0.7226E-10  0.1468E-07  0.1516E-11  0.8054E-08  0.0000E+00  0.1001E+16
   -1.718760    3.90309  0.7168E-10  0.2474E-07  0.2554E-11  0.1924E-04  0.0000E+00  0.7255E+14
   -1.787511    4.02237  0.7164E-10  0.2585E-07  0.2679E-11  0.9758E-04  0.0000E+00 -0.2836E+12
   -1.856263    4.02289  0.7164E-10  0.2635E-07  0.2749E-11  0.9690E-04  0.0000E+00 -0.2911E+12
   -1.925014    4.02342  0.7164E-10  0.2673E-07  0.2820E-11  0.9689E-04  0.0000E+00 -0.2962E+12
   -1.993765    4.02394  0.7164E-10  0.2702E-07  0.2897E-11  0.9631E-04  0.0000E+00 -0.3031E+12
   -2.062516    4.02447  0.7164E-10  0.2724E-07  0.2982E-11  0.9491E-04  0.0000E+00 -0.3128E+12
   -2.131266    4.02500  0.7164E-10  0.2739E-07  0.3084E-11  0.9258E-04  0.0000E+00 -0.3269E+12
   -2.200016    4.02555  0.7164E-10  0.2746E-07  0.3212E-11  0.8919E-04  0.0000E+00 -0.3468E+12
   -2.268766    4.02613  0.7164E-10  0.2743E-07  0.3386E-11  0.8397E-04  0.0000E+00 -0.3783E+12
   -2.337515    4.02675  0.7164E-10  0.2727E-07  0.3632E-11  0.7229E-04  0.0000E+00 -0.4540E+12
   -2.406263    4.02747  0.7164E-10  0.2690E-07  0.3991E-11  0.5990E-04  0.0000E+00 -0.5728E+12
   -2.475012    4.02837  0.7164E-10  0.2622E-07  0.4555E-11  0.4712E-04  0.0000E+00 -0.7747E+12
   -2.543759    4.02954  0.7164E-10  0.2491E-07  0.5592E-11  0.3210E-04  0.0000E+00 -0.1234E+13
   -2.612506    4.03135  0.7164E-10  0.2227E-07  0.7915E-11  0.1583E-04  0.0000E+00 -0.2787E+13
   -2.681252    4.03517  0.7164E-10  0.1150E-07  0.2203E-10  0.1157E-05  0.0000E+00 -0.5864E+14
   -2.749998    4.08580  0.7164E-10  0.0000E+00  0.0000E+00  0.0000E+00  0.0000E+00  0.0000E+00
