 1 - depth, m
 2 - temperature, C
 3 - salinity, kg/kg
 4 - turbulent kinetic energy, m**2/s**2
 5 - dissipation rate, m**2/s**3
 6 - kinematic heat conductance, m**2/s
 7 - modulus of horizontal velocity, m/s
 8 - Richardson number, n/d
   -0.000000   -0.00000  0.3922E-09  0.1219E-13  0.7604E-17  0.1000E-09  0.0000E+00  0.8493E+16
   -0.068746    0.12965  0.1575E-09  0.1219E-13  0.7604E-17  0.1000E-09  0.0000E+00  0.8022E+16
   -0.137492    0.25653  0.1087E-09  0.1219E-13  0.7604E-17  0.1000E-09  0.0000E+00  0.7506E+16
   -0.206239    0.37956  0.9181E-10  0.1219E-13  0.7604E-17  0.1000E-09  0.0000E+00  0.7017E+16
   -0.274986    0.49875  0.8693E-10  0.1219E-13  0.7604E-17  0.1000E-09  0.0000E+00  0.6558E+16
   -0.343734    0.61417  0.8579E-10  0.1219E-13  0.7604E-17  0.1000E-09  0.0000E+00  0.6155E+16
   -0.412483    0.72644  0.8558E-10  0.1219E-13  0.7604E-17  0.1000E-09  0.0000E+00  0.5774E+16
   -0.481232    0.83560  0.8554E-10  0.1219E-13  0.7604E-17  0.1000E-09  0.0000E+00  0.5414E+16
   -0.549981    0.94169  0.8553E-10  0.1219E-13  0.7604E-17  0.1000E-09  0.0000E+00  0.5096E+16
   -0.618731    1.04524  0.8553E-10  0.1219E-13  0.7604E-17  0.1000E-09  0.0000E+00  0.4817E+16
   -0.687481    1.14677  0.8553E-10  0.1219E-13  0.7604E-17  0.1000E-09  0.0000E+00  0.4557E+16
   -0.756232    1.24645  0.8553E-10  0.1219E-13  0.7604E-17  0.1000E-09  0.0000E+00  0.4352E+16
   -0.824983    1.34531  0.8552E-10  0.1219E-13  0.7604E-17  0.1000E-09  0.0000E+00  0.4153E+16
   -0.893734    1.44342  0.8551E-10  0.1219E-13  0.7604E-17  0.1000E-09  0.0000E+00  0.3960E+16
   -0.962485    1.54078  0.8547E-10  0.1219E-13  0.7604E-17  0.1000E-09  0.0000E+00  0.3772E+16
   -1.031237    1.63742  0.8540E-10  0.1219E-13  0.7604E-17  0.1000E-09  0.0000E+00  0.3587E+16
   -1.099989    1.73333  0.8526E-10  0.1219E-13  0.7604E-17  0.1000E-09  0.0000E+00  0.3407E+16
   -1.168740    1.82851  0.8503E-10  0.1219E-13  0.7604E-17  0.1000E-09  0.0000E+00  0.3229E+16
   -1.237492    1.92291  0.8471E-10  0.1219E-13  0.7604E-17  0.1000E-09  0.0000E+00  0.3053E+16
   -1.306245    2.01646  0.8430E-10  0.1219E-13  0.7604E-17  0.1000E-09  0.0000E+00  0.2878E+16
   -1.374997    2.10908  0.8386E-10  0.1219E-13  0.7604E-17  0.1000E-09  0.0000E+00  0.2719E+16
   -1.443749    2.20112  0.8343E-10  0.1219E-13  0.7604E-17  0.1000E-09  0.0000E+00  0.2580E+16
   -1.512501    2.29321  0.8299E-10  0.1219E-13  0.7604E-17  0.1000E-09  0.0000E+00  0.2438E+16
   -1.581253    2.38524  0.8256E-10  0.1219E-13  0.7604E-17  0.1000E-09  0.0000E+00  0.2294E+16
   -1.650005    2.47711  0.8214E-10  0.1219E-13  0.7604E-17  0.1000E-09  0.0000E+00  0.2148E+16
   -1.718757    2.56866  0.8179E-10  0.1219E-13  0.7604E-17  0.1000E-09  0.0000E+00  0.2001E+16
   -1.787508    2.65976  0.8153E-10  0.1219E-13  0.7604E-17  0.1000E-09  0.0000E+00  0.1853E+16
   -1.856260    2.75023  0.8138E-10  0.1219E-13  0.7604E-17  0.1000E-09  0.0000E+00  0.1705E+16
   -1.925011    2.83989  0.8129E-10  0.1219E-13  0.7604E-17  0.1000E-09  0.0000E+00  0.1558E+16
   -1.993762    2.92856  0.8125E-10  0.1219E-13  0.7604E-17  0.1000E-09  0.0000E+00  0.1412E+16
   -2.062512    3.01604  0.8122E-10  0.1219E-13  0.7604E-17  0.1000E-09  0.0000E+00  0.1319E+16
   -2.131262    3.10571  0.8121E-10  0.1219E-13  0.7604E-17  0.1000E-09  0.0000E+00  0.1246E+16
   -2.200012    3.19992  0.8121E-10  0.1219E-13  0.7604E-17  0.1000E-09  0.0000E+00  0.1165E+16
   -2.268762    3.29976  0.8121E-10  0.2962E-13  0.2902E-16  0.1000E-09  0.0000E+00  0.1072E+16
   -2.337511    3.40682  0.8121E-10  0.2417E-12  0.2336E-15  0.1000E-09  0.0000E+00  0.9602E+15
   -2.406259    3.52347  0.8121E-10  0.2052E-11  0.1920E-14  0.1000E-09  0.0000E+00  0.8153E+15
   -2.475007    3.65347  0.8121E-10  0.1727E-10  0.1568E-13  0.1237E-09  0.0000E+00  0.6077E+15
   -2.543755    3.80325  0.8121E-10  0.1449E-09  0.1284E-12  0.2206E-08  0.0000E+00  0.2620E+15
   -2.612501    3.97541  0.8121E-10  0.1084E-08  0.9690E-12  0.3282E-06  0.0000E+00 -0.1871E+14
   -2.681248    4.03654  0.8121E-10  0.2414E-08  0.4606E-11  0.3807E-06  0.0000E+00 -0.9206E+14
   -2.749993    4.10586  0.8121E-10  0.0000E+00  0.0000E+00  0.0000E+00  0.0000E+00  0.0000E+00
