 1 - depth, m
 2 - temperature, C
 3 - salinity, kg/kg
 4 - turbulent kinetic energy, m**2/s**2
 5 - dissipation rate, m**2/s**3
 6 - kinematic heat conductance, m**2/s
 7 - modulus of horizontal velocity, m/s
 8 - Richardson number, n/d
   -0.000000   -0.00000  0.1485E-09  0.1219E-13  0.7603E-17  0.1000E-09  0.0000E+00  0.1324E+17
   -0.068746    0.20413  0.1953E-09  0.1219E-13  0.7603E-17  0.1000E-09  0.0000E+00  0.1253E+17
   -0.137492    0.40890  0.1512E-09  0.2379E-13  0.7603E-17  0.1000E-09  0.0000E+00  0.1175E+17
   -0.206239    0.61287  0.1060E-09  0.8424E-13  0.9084E-17  0.1000E-09  0.0000E+00  0.1097E+17
   -0.274987    0.81580  0.8322E-10  0.2041E-12  0.1647E-16  0.1000E-09  0.0000E+00  0.1019E+17
   -0.343735    1.01743  0.7482E-10  0.4311E-12  0.3190E-16  0.1000E-09  0.0000E+00  0.9434E+16
   -0.412484    1.21783  0.7225E-10  0.8649E-12  0.6162E-16  0.1000E-09  0.0000E+00  0.8678E+16
   -0.481233    1.41663  0.7155E-10  0.1698E-11  0.1180E-15  0.1000E-09  0.0000E+00  0.7929E+16
   -0.549982    1.61345  0.7137E-10  0.3298E-11  0.2241E-15  0.1000E-09  0.0000E+00  0.7203E+16
   -0.618732    1.80825  0.7131E-10  0.6332E-11  0.4214E-15  0.1000E-09  0.0000E+00  0.6500E+16
   -0.687483    2.00103  0.7127E-10  0.1206E-10  0.7865E-15  0.1000E-09  0.0000E+00  0.5813E+16
   -0.756234    2.19149  0.7120E-10  0.2284E-10  0.1459E-14  0.1000E-09  0.0000E+00  0.5155E+16
   -0.824985    2.37979  0.7108E-10  0.4296E-10  0.2690E-14  0.1000E-09  0.0000E+00  0.4512E+16
   -0.893736    2.56552  0.7084E-10  0.8034E-10  0.4930E-14  0.1000E-09  0.0000E+00  0.3886E+16
   -0.962487    2.74817  0.7048E-10  0.1494E-09  0.8987E-14  0.1000E-09  0.0000E+00  0.3280E+16
   -1.031239    2.92717  0.6999E-10  0.2761E-09  0.1629E-13  0.1000E-09  0.0000E+00  0.2699E+16
   -1.099991    3.10175  0.6947E-10  0.5091E-09  0.2945E-13  0.1000E-09  0.0000E+00  0.2148E+16
   -1.168743    3.27096  0.6904E-10  0.9351E-09  0.5305E-13  0.1650E-09  0.0000E+00  0.1637E+16
   -1.237495    3.43417  0.6878E-10  0.1709E-08  0.9510E-13  0.4127E-09  0.0000E+00  0.1173E+16
   -1.306248    3.59104  0.6867E-10  0.3105E-08  0.1696E-12  0.1138E-08  0.0000E+00  0.7584E+15
   -1.375000    3.74154  0.6862E-10  0.5605E-08  0.3004E-12  0.3914E-08  0.0000E+00  0.3907E+15
   -1.443752    3.88542  0.6861E-10  0.9912E-08  0.5225E-12  0.3429E-07  0.0000E+00  0.7751E+14
   -1.512504    4.00341  0.6861E-10  0.1034E-07  0.5467E-12  0.7354E-04  0.0000E+00 -0.7598E+11
   -1.581257    4.00369  0.6861E-10  0.1054E-07  0.5597E-12  0.7764E-04  0.0000E+00 -0.7343E+11
   -1.650009    4.00396  0.6861E-10  0.1070E-07  0.5732E-12  0.7816E-04  0.0000E+00 -0.7433E+11
   -1.718761    4.00422  0.6861E-10  0.1084E-07  0.5875E-12  0.7785E-04  0.0000E+00 -0.7604E+11
   -1.787512    4.00449  0.6861E-10  0.1096E-07  0.6032E-12  0.7696E-04  0.0000E+00 -0.7840E+11
   -1.856264    4.00477  0.6861E-10  0.1106E-07  0.6206E-12  0.7528E-04  0.0000E+00 -0.8172E+11
   -1.925015    4.00505  0.6861E-10  0.1115E-07  0.6403E-12  0.7274E-04  0.0000E+00 -0.8627E+11
   -1.993766    4.00534  0.6861E-10  0.1120E-07  0.6626E-12  0.6939E-04  0.0000E+00 -0.9229E+11
   -2.062517    4.00565  0.6861E-10  0.1124E-07  0.6887E-12  0.6552E-04  0.0000E+00 -0.1003E+12
   -2.131268    4.00597  0.6861E-10  0.1125E-07  0.7208E-12  0.6114E-04  0.0000E+00 -0.1107E+12
   -2.200018    4.00633  0.6861E-10  0.1123E-07  0.7614E-12  0.5640E-04  0.0000E+00 -0.1243E+12
   -2.268767    4.00672  0.6861E-10  0.1117E-07  0.8140E-12  0.5114E-04  0.0000E+00 -0.1428E+12
   -2.337516    4.00716  0.6861E-10  0.1105E-07  0.8851E-12  0.4502E-04  0.0000E+00 -0.1704E+12
   -2.406265    4.00768  0.6861E-10  0.1085E-07  0.9875E-12  0.3778E-04  0.0000E+00 -0.2160E+12
   -2.475013    4.00831  0.6861E-10  0.1052E-07  0.1150E-11  0.2923E-04  0.0000E+00 -0.3034E+12
   -2.543761    4.00918  0.6861E-10  0.9913E-08  0.1454E-11  0.1903E-04  0.0000E+00 -0.5195E+12
   -2.612508    4.01058  0.6861E-10  0.8673E-08  0.2166E-11  0.8546E-05  0.0000E+00 -0.1348E+13
   -2.681254    4.01390  0.6861E-10  0.4122E-08  0.6237E-11  0.5339E-06  0.0000E+00 -0.3766E+14
   -2.750000    4.06096  0.6861E-10  0.0000E+00  0.0000E+00  0.0000E+00  0.0000E+00  0.0000E+00
