 1 - depth, m
 2 - temperature, C
 3 - salinity, kg/kg
 4 - turbulent kinetic energy, m**2/s**2
 5 - dissipation rate, m**2/s**3
 6 - kinematic heat conductance, m**2/s
 7 - modulus of horizontal velocity, m/s
 8 - Richardson number, n/d
   -0.000000   -0.00000  0.3231E-09  0.1219E-13  0.7604E-17  0.1000E-09  0.0000E+00  0.8448E+16
   -0.068746    0.12896  0.1634E-09  0.1219E-13  0.7604E-17  0.1000E-09  0.0000E+00  0.7973E+16
   -0.137492    0.25503  0.1118E-09  0.1219E-13  0.7604E-17  0.1000E-09  0.0000E+00  0.7443E+16
   -0.206239    0.37696  0.9247E-10  0.1219E-13  0.7604E-17  0.1000E-09  0.0000E+00  0.6942E+16
   -0.274986    0.49475  0.8702E-10  0.1219E-13  0.7604E-17  0.1000E-09  0.0000E+00  0.6474E+16
   -0.343734    0.60852  0.8580E-10  0.1219E-13  0.7604E-17  0.1000E-09  0.0000E+00  0.6073E+16
   -0.412483    0.71906  0.8557E-10  0.1219E-13  0.7604E-17  0.1000E-09  0.0000E+00  0.5695E+16
   -0.481232    0.82643  0.8554E-10  0.1219E-13  0.7604E-17  0.1000E-09  0.0000E+00  0.5339E+16
   -0.549981    0.93069  0.8553E-10  0.1219E-13  0.7604E-17  0.1000E-09  0.0000E+00  0.5031E+16
   -0.618731    1.03249  0.8553E-10  0.1219E-13  0.7604E-17  0.1000E-09  0.0000E+00  0.4768E+16
   -0.687481    1.13250  0.8553E-10  0.1219E-13  0.7604E-17  0.1000E-09  0.0000E+00  0.4523E+16
   -0.756232    1.23089  0.8553E-10  0.1219E-13  0.7604E-17  0.1000E-09  0.0000E+00  0.4337E+16
   -0.824983    1.32880  0.8553E-10  0.1219E-13  0.7604E-17  0.1000E-09  0.0000E+00  0.4156E+16
   -0.893734    1.42631  0.8552E-10  0.1219E-13  0.7604E-17  0.1000E-09  0.0000E+00  0.3980E+16
   -0.962486    1.52346  0.8549E-10  0.1219E-13  0.7604E-17  0.1000E-09  0.0000E+00  0.3806E+16
   -1.031237    1.62025  0.8543E-10  0.1219E-13  0.7604E-17  0.1000E-09  0.0000E+00  0.3635E+16
   -1.099989    1.71669  0.8532E-10  0.1219E-13  0.7604E-17  0.1000E-09  0.0000E+00  0.3462E+16
   -1.168741    1.81267  0.8512E-10  0.1219E-13  0.7604E-17  0.1000E-09  0.0000E+00  0.3290E+16
   -1.237493    1.90815  0.8482E-10  0.1219E-13  0.7604E-17  0.1000E-09  0.0000E+00  0.3119E+16
   -1.306245    2.00306  0.8443E-10  0.1219E-13  0.7604E-17  0.1000E-09  0.0000E+00  0.2949E+16
   -1.374997    2.09734  0.8398E-10  0.1219E-13  0.7604E-17  0.1000E-09  0.0000E+00  0.2795E+16
   -1.443750    2.19137  0.8354E-10  0.1219E-13  0.7604E-17  0.1000E-09  0.0000E+00  0.2661E+16
   -1.512502    2.28588  0.8311E-10  0.1219E-13  0.7604E-17  0.1000E-09  0.0000E+00  0.2522E+16
   -1.581254    2.38075  0.8268E-10  0.1219E-13  0.7604E-17  0.1000E-09  0.0000E+00  0.2380E+16
   -1.650006    2.47586  0.8224E-10  0.1219E-13  0.7604E-17  0.1000E-09  0.0000E+00  0.2232E+16
   -1.718757    2.57103  0.8185E-10  0.1219E-13  0.7604E-17  0.1000E-09  0.0000E+00  0.2081E+16
   -1.787509    2.66608  0.8157E-10  0.1219E-13  0.7604E-17  0.1000E-09  0.0000E+00  0.1927E+16
   -1.856261    2.76079  0.8140E-10  0.1219E-13  0.7604E-17  0.1000E-09  0.0000E+00  0.1771E+16
   -1.925012    2.85492  0.8131E-10  0.1219E-13  0.7604E-17  0.1000E-09  0.0000E+00  0.1613E+16
   -1.993763    2.94822  0.8125E-10  0.1219E-13  0.7604E-17  0.1000E-09  0.0000E+00  0.1455E+16
   -2.062513    3.04041  0.8122E-10  0.1219E-13  0.7604E-17  0.1000E-09  0.0000E+00  0.1349E+16
   -2.131263    3.13491  0.8121E-10  0.1219E-13  0.7604E-17  0.1000E-09  0.0000E+00  0.1261E+16
   -2.200013    3.23406  0.8121E-10  0.2978E-13  0.2495E-16  0.1000E-09  0.0000E+00  0.1163E+16
   -2.268763    3.33897  0.8121E-10  0.2147E-12  0.1757E-15  0.1000E-09  0.0000E+00  0.1050E+16
   -2.337512    3.45127  0.8121E-10  0.1598E-11  0.1259E-14  0.1000E-09  0.0000E+00  0.9143E+15
   -2.406260    3.57350  0.8121E-10  0.1171E-10  0.8882E-14  0.1000E-09  0.0000E+00  0.7399E+15
   -2.475008    3.70978  0.8121E-10  0.8467E-10  0.6203E-13  0.6156E-09  0.0000E+00  0.4885E+15
   -2.543756    3.86674  0.8121E-10  0.6036E-09  0.4301E-12  0.1842E-07  0.0000E+00  0.9667E+14
   -2.612503    4.03076  0.8121E-10  0.3249E-08  0.2434E-11  0.1529E-05  0.0000E+00 -0.1554E+14
   -2.681249    4.04925  0.8121E-10  0.3295E-08  0.6396E-11  0.4817E-06  0.0000E+00 -0.9153E+14
   -2.749995    4.11147  0.8121E-10  0.0000E+00  0.0000E+00  0.0000E+00  0.0000E+00  0.0000E+00
