 1 - depth, m
 2 - temperature, C
 3 - salinity, kg/kg
 4 - turbulent kinetic energy, m**2/s**2
 5 - dissipation rate, m**2/s**3
 6 - kinematic heat conductance, m**2/s
 7 - modulus of horizontal velocity, m/s
 8 - Richardson number, n/d
   -0.000000    4.47935  0.8256E-10  0.6282E-04  0.1306E-04  0.6139E-04  0.6987E-01 -0.1899E-02
   -0.068746    4.51859  0.8256E-10  0.3349E-04  0.2663E-05  0.6933E-04  0.3083E-01 -0.2027E-02
   -0.137492    4.53162  0.8256E-10  0.2392E-04  0.9308E-06  0.8421E-04  0.2305E-01 -0.2778E-02
   -0.206239    4.54161  0.8256E-10  0.1818E-04  0.4041E-06  0.9924E-04  0.1814E-01 -0.4709E-02
   -0.274987    4.55008  0.8256E-10  0.1452E-04  0.2077E-06  0.1141E-03  0.1466E-01 -0.7801E-02
   -0.343735    4.55736  0.8256E-10  0.1216E-04  0.1231E-06  0.1277E-03  0.1216E-01 -0.1126E-01
   -0.412484    4.56372  0.8256E-10  0.1043E-04  0.7985E-07  0.1423E-03  0.1021E-01 -0.1657E-01
   -0.481233    4.56930  0.8256E-10  0.9112E-05  0.5512E-07  0.1586E-03  0.8713E-02 -0.2485E-01
   -0.549983    4.57421  0.8256E-10  0.8140E-05  0.4028E-07  0.1744E-03  0.7564E-02 -0.3390E-01
   -0.618733    4.57859  0.8256E-10  0.7412E-05  0.3087E-07  0.1887E-03  0.6634E-02 -0.4152E-01
   -0.687483    4.58256  0.8256E-10  0.6824E-05  0.2445E-07  0.2035E-03  0.5832E-02 -0.5044E-01
   -0.756234    4.58618  0.8256E-10  0.6328E-05  0.1985E-07  0.2180E-03  0.5136E-02 -0.6055E-01
   -0.824985    4.58951  0.8256E-10  0.5896E-05  0.1642E-07  0.2319E-03  0.4526E-02 -0.7163E-01
   -0.893736    4.59259  0.8256E-10  0.5508E-05  0.1378E-07  0.2448E-03  0.3985E-02 -0.8336E-01
   -0.962488    4.59547  0.8256E-10  0.5151E-05  0.1168E-07  0.2564E-03  0.3499E-02 -0.9523E-01
   -1.031240    4.59819  0.8256E-10  0.4812E-05  0.9960E-08  0.2682E-03  0.3057E-02 -0.1106E+00
   -1.099992    4.60075  0.8256E-10  0.4489E-05  0.8517E-08  0.2838E-03  0.2656E-02 -0.1415E+00
   -1.168744    4.60315  0.8256E-10  0.4190E-05  0.7324E-08  0.2986E-03  0.2314E-02 -0.1783E+00
   -1.237496    4.60542  0.8256E-10  0.3916E-05  0.6333E-08  0.3134E-03  0.2017E-02 -0.2206E+00
   -1.306248    4.60755  0.8256E-10  0.3666E-05  0.5507E-08  0.3302E-03  0.1758E-02 -0.2567E+00
   -1.375001    4.60957  0.8256E-10  0.3440E-05  0.4816E-08  0.3592E-03  0.1531E-02 -0.3491E-01
   -1.443753    4.61142  0.8257E-10  0.3237E-05  0.4242E-08  0.4258E-03  0.1331E-02  0.6109E+03
   -1.512505    4.61306  0.8257E-10  0.3057E-05  0.3770E-08  0.4936E-03  0.1158E-02  0.3483E+03
   -1.581258    4.61452  0.8257E-10  0.2899E-05  0.3381E-08  0.5575E-03  0.1008E-02  0.5392E+03
   -1.650010    4.61579  0.8257E-10  0.2759E-05  0.3062E-08  0.6593E-03  0.8769E-03  0.9225E+03
   -1.718762    4.61683  0.8257E-10  0.2641E-05  0.2810E-08  0.7735E-03  0.7638E-03  0.6735E+03
   -1.787513    4.61768  0.8257E-10  0.2541E-05  0.2614E-08  0.8274E-03  0.6685E-03  0.5767E+02
   -1.856265    4.61844  0.8257E-10  0.2452E-05  0.2454E-08  0.8242E-03  0.5859E-03  0.1194E+01
   -1.925016    4.61921  0.8257E-10  0.2371E-05  0.2322E-08  0.8125E-03  0.5091E-03  0.1147E+01
   -1.993768    4.61998  0.8257E-10  0.2297E-05  0.2216E-08  0.7978E-03  0.4369E-03  0.1123E+01
   -2.062518    4.62076  0.8257E-10  0.2231E-05  0.2135E-08  0.7790E-03  0.3690E-03  0.9244E+00
   -2.131269    4.62155  0.8257E-10  0.2170E-05  0.2076E-08  0.7574E-03  0.3111E-03  0.7533E+00
   -2.200019    4.62237  0.8257E-10  0.2116E-05  0.2040E-08  0.7348E-03  0.2644E-03  0.7685E+00
   -2.268768    4.62321  0.8257E-10  0.2063E-05  0.2023E-08  0.7078E-03  0.2261E-03  0.1049E+01
   -2.337518    4.62408  0.8257E-10  0.2009E-05  0.2028E-08  0.6724E-03  0.1923E-03  0.1629E+01
   -2.406266    4.62500  0.8257E-10  0.1951E-05  0.2065E-08  0.6271E-03  0.1626E-03  0.2861E+01
   -2.475015    4.62599  0.8257E-10  0.1886E-05  0.2150E-08  0.5801E-03  0.1370E-03  0.7210E+01
   -2.543762    4.62706  0.8257E-10  0.1787E-05  0.2361E-08  0.3721E-03  0.1159E-03  0.4190E+04
   -2.612509    4.62875  0.8257E-10  0.1604E-05  0.2988E-08  0.1514E-03  0.9209E-04 -0.5658E+02
   -2.681256    4.63290  0.8257E-10  0.7153E-06  0.8550E-08  0.8247E-05  0.6824E-04 -0.1442E+06
   -2.750002    4.70895  0.8257E-10  0.0000E+00  0.0000E+00  0.0000E+00  0.6810E-04  0.0000E+00
