 1 - depth, m
 2 - temperature, C
 3 - salinity, kg/kg
 4 - turbulent kinetic energy, m**2/s**2
 5 - dissipation rate, m**2/s**3
 6 - kinematic heat conductance, m**2/s
 7 - modulus of horizontal velocity, m/s
 8 - Richardson number, n/d
   -0.000000   16.10732  0.7537E-10  0.2779E-04  0.3661E-05  0.4038E-04  0.3445E-01 -0.3485E-01
   -0.068746   16.13772  0.7537E-10  0.1864E-04  0.8242E-06  0.7997E-04  0.1692E-01 -0.9993E-01
   -0.137492   16.14820  0.7537E-10  0.1520E-04  0.3307E-06  0.1373E-03  0.1218E-01 -0.8766E-01
   -0.206239   16.15449  0.7537E-10  0.1313E-04  0.1695E-06  0.2137E-03  0.9433E-02  0.2924E+03
   -0.274987   16.15871  0.7537E-10  0.1185E-04  0.1025E-06  0.2976E-03  0.7664E-02  0.1628E+02
   -0.343735   16.16160  0.7537E-10  0.1109E-04  0.7045E-07  0.4353E-03  0.6484E-02  0.2776E+02
   -0.412484   16.16358  0.7537E-10  0.1064E-04  0.5292E-07  0.5899E-03  0.5664E-02  0.1699E+03
   -0.481233   16.16494  0.7537E-10  0.1039E-04  0.4262E-07  0.8025E-03  0.5070E-02  0.5469E+02
   -0.549983   16.16584  0.7537E-10  0.1030E-04  0.3621E-07  0.9837E-03  0.4642E-02  0.2148E+02
   -0.618733   16.16649  0.7537E-10  0.1030E-04  0.3179E-07  0.1124E-02  0.4292E-02  0.6094E+01
   -0.687484   16.16702  0.7537E-10  0.1035E-04  0.2843E-07  0.1215E-02  0.3971E-02  0.3135E+01
   -0.756234   16.16751  0.7537E-10  0.1043E-04  0.2580E-07  0.1289E-02  0.3668E-02  0.3298E+01
   -0.824986   16.16798  0.7537E-10  0.1053E-04  0.2370E-07  0.1355E-02  0.3384E-02  0.3463E+01
   -0.893737   16.16842  0.7537E-10  0.1064E-04  0.2199E-07  0.1414E-02  0.3114E-02  0.3631E+01
   -0.962489   16.16885  0.7537E-10  0.1075E-04  0.2058E-07  0.1469E-02  0.2856E-02  0.3805E+01
   -1.031240   16.16927  0.7537E-10  0.1085E-04  0.1942E-07  0.1524E-02  0.2608E-02  0.3840E+01
   -1.099992   16.16968  0.7537E-10  0.1093E-04  0.1844E-07  0.1594E-02  0.2371E-02  0.3452E+01
   -1.168745   16.17007  0.7537E-10  0.1099E-04  0.1763E-07  0.1662E-02  0.2154E-02  0.3136E+01
   -1.237497   16.17046  0.7537E-10  0.1103E-04  0.1697E-07  0.1726E-02  0.1953E-02  0.2877E+01
   -1.306249   16.17083  0.7537E-10  0.1105E-04  0.1644E-07  0.1784E-02  0.1770E-02  0.2657E+01
   -1.375002   16.17119  0.7537E-10  0.1105E-04  0.1604E-07  0.1836E-02  0.1601E-02  0.2468E+01
   -1.443754   16.17155  0.7537E-10  0.1103E-04  0.1575E-07  0.1881E-02  0.1446E-02  0.2300E+01
   -1.512506   16.17191  0.7537E-10  0.1099E-04  0.1556E-07  0.1918E-02  0.1305E-02  0.2153E+01
   -1.581259   16.17227  0.7537E-10  0.1093E-04  0.1548E-07  0.1950E-02  0.1176E-02  0.2021E+01
   -1.650011   16.17262  0.7537E-10  0.1086E-04  0.1549E-07  0.1976E-02  0.1058E-02  0.1905E+01
   -1.718763   16.17298  0.7537E-10  0.1076E-04  0.1559E-07  0.1997E-02  0.9500E-03  0.1800E+01
   -1.787515   16.17334  0.7537E-10  0.1065E-04  0.1578E-07  0.2013E-02  0.8519E-03  0.1708E+01
   -1.856266   16.17370  0.7537E-10  0.1053E-04  0.1605E-07  0.2009E-02  0.7623E-03  0.1622E+01
   -1.925018   16.17407  0.7537E-10  0.1039E-04  0.1641E-07  0.1968E-02  0.6803E-03  0.1541E+01
   -1.993769   16.17446  0.7537E-10  0.1024E-04  0.1686E-07  0.1887E-02  0.6048E-03  0.1469E+01
   -2.062520   16.17487  0.7537E-10  0.1009E-04  0.1739E-07  0.1774E-02  0.5358E-03  0.1360E+01
   -2.131270   16.17532  0.7537E-10  0.9925E-05  0.1803E-07  0.1652E-02  0.4765E-03  0.1300E+01
   -2.200020   16.17581  0.7537E-10  0.9756E-05  0.1880E-07  0.1537E-02  0.4273E-03  0.1360E+01
   -2.268770   16.17633  0.7537E-10  0.9572E-05  0.1977E-07  0.1428E-02  0.3870E-03  0.1707E+01
   -2.337519   16.17691  0.7537E-10  0.9350E-05  0.2110E-07  0.1294E-02  0.3515E-03  0.2612E+01
   -2.406268   16.17755  0.7537E-10  0.9064E-05  0.2309E-07  0.1130E-02  0.3176E-03  0.4662E+01
   -2.475016   16.17830  0.7537E-10  0.8673E-05  0.2633E-07  0.8949E-03  0.2851E-03  0.1051E+02
   -2.543764   16.17926  0.7537E-10  0.8093E-05  0.3235E-07  0.7751E-03  0.2538E-03  0.2868E+02
   -2.612511   16.18038  0.7537E-10  0.6990E-05  0.4999E-07  0.3266E-03  0.2289E-03 -0.1182E+03
   -2.681257   16.18516  0.7537E-10  0.3407E-05  0.1499E-06  0.4856E-04  0.1870E-03 -0.6225E+04
   -2.750003   16.20396  0.7537E-10  0.0000E+00  0.0000E+00  0.0000E+00  0.1970E-03  0.0000E+00
