 1 - depth, m
 2 - temperature, C
 3 - salinity, kg/kg
 4 - turbulent kinetic energy, m**2/s**2
 5 - dissipation rate, m**2/s**3
 6 - kinematic heat conductance, m**2/s
 7 - modulus of horizontal velocity, m/s
 8 - Richardson number, n/d
   -0.000000   -0.00000  0.7204E-09  0.3250E-11  0.9446E-15  0.1000E-09  0.0000E+00  0.2206E+17
   -0.068745    0.34705  0.4331E-11  0.9238E-11  0.1051E-14  0.1000E-09  0.0000E+00  0.1938E+17
   -0.137491    0.68383  0.8069E-10  0.2203E-10  0.1871E-14  0.1000E-09  0.0000E+00  0.1689E+17
   -0.206238    1.01018  0.7014E-10  0.4700E-10  0.3651E-14  0.1000E-09  0.0000E+00  0.1464E+17
   -0.274985    1.32715  0.7043E-10  0.9573E-10  0.7154E-14  0.1000E-09  0.0000E+00  0.1260E+17
   -0.343733    1.63547  0.7035E-10  0.1907E-09  0.1388E-13  0.1000E-09  0.0000E+00  0.1073E+17
   -0.412481    1.93588  0.7034E-10  0.3751E-09  0.2669E-13  0.1000E-09  0.0000E+00  0.9013E+16
   -0.481230    2.22897  0.7033E-10  0.7316E-09  0.5096E-13  0.1000E-09  0.0000E+00  0.7429E+16
   -0.549979    2.51526  0.7028E-10  0.1417E-08  0.9663E-13  0.1000E-09  0.0000E+00  0.5966E+16
   -0.618728    2.79534  0.7011E-10  0.2717E-08  0.1814E-12  0.2006E-09  0.0000E+00  0.4604E+16
   -0.687478    3.06956  0.6964E-10  0.5169E-08  0.3381E-12  0.5166E-09  0.0000E+00  0.3331E+16
   -0.756229    3.33794  0.6860E-10  0.9763E-08  0.6257E-12  0.1484E-08  0.0000E+00  0.2146E+16
   -0.824979    3.60080  0.6716E-10  0.1828E-07  0.1148E-11  0.5683E-08  0.0000E+00  0.1029E+16
   -0.893730    3.85290  0.6644E-10  0.3282E-07  0.2030E-11  0.7937E-07  0.0000E+00  0.1310E+15
   -0.962481    4.01980  0.6639E-10  0.3329E-07  0.2061E-11  0.1996E-03  0.0000E+00 -0.9573E+11
   -1.031232    4.01998  0.6639E-10  0.3351E-07  0.2078E-11  0.1947E-03  0.0000E+00 -0.9910E+11
   -1.099984    4.02017  0.6639E-10  0.3371E-07  0.2097E-11  0.1955E-03  0.0000E+00 -0.9992E+11
   -1.168736    4.02036  0.6639E-10  0.3389E-07  0.2118E-11  0.2084E-03  0.0000E+00 -0.9493E+11
   -1.237487    4.02053  0.6639E-10  0.3404E-07  0.2141E-11  0.2085E-03  0.0000E+00 -0.9631E+11
   -1.306239    4.02071  0.6639E-10  0.3419E-07  0.2166E-11  0.1948E-03  0.0000E+00 -0.1044E+12
   -1.374991    4.02091  0.6639E-10  0.3431E-07  0.2194E-11  0.1931E-03  0.0000E+00 -0.1066E+12
   -1.443743    4.02110  0.6639E-10  0.3442E-07  0.2225E-11  0.1917E-03  0.0000E+00 -0.1083E+12
   -1.512495    4.02130  0.6639E-10  0.3450E-07  0.2259E-11  0.1900E-03  0.0000E+00 -0.1102E+12
   -1.581246    4.02150  0.6639E-10  0.3457E-07  0.2296E-11  0.1880E-03  0.0000E+00 -0.1125E+12
   -1.649998    4.02171  0.6639E-10  0.3461E-07  0.2336E-11  0.1855E-03  0.0000E+00 -0.1150E+12
   -1.718749    4.02191  0.6639E-10  0.3463E-07  0.2381E-11  0.1826E-03  0.0000E+00 -0.1179E+12
   -1.787501    4.02212  0.6639E-10  0.3462E-07  0.2430E-11  0.1793E-03  0.0000E+00 -0.1213E+12
   -1.856252    4.02234  0.6639E-10  0.3459E-07  0.2484E-11  0.1756E-03  0.0000E+00 -0.1251E+12
   -1.925003    4.02256  0.6639E-10  0.3454E-07  0.2544E-11  0.1714E-03  0.0000E+00 -0.1295E+12
   -1.993753    4.02279  0.6639E-10  0.3446E-07  0.2611E-11  0.1668E-03  0.0000E+00 -0.1345E+12
   -2.062504    4.02302  0.6639E-10  0.3435E-07  0.2687E-11  0.1616E-03  0.0000E+00 -0.1404E+12
   -2.131254    4.02327  0.6639E-10  0.3420E-07  0.2778E-11  0.1555E-03  0.0000E+00 -0.1479E+12
   -2.200003    4.02352  0.6639E-10  0.3400E-07  0.2891E-11  0.1484E-03  0.0000E+00 -0.1573E+12
   -2.268752    4.02379  0.6639E-10  0.3374E-07  0.3031E-11  0.1404E-03  0.0000E+00 -0.1690E+12
   -2.337501    4.02408  0.6639E-10  0.3336E-07  0.3239E-11  0.1227E-03  0.0000E+00 -0.1975E+12
   -2.406249    4.02441  0.6639E-10  0.3273E-07  0.3587E-11  0.8982E-04  0.0000E+00 -0.2771E+12
   -2.474997    4.02487  0.6639E-10  0.3175E-07  0.4159E-11  0.6526E-04  0.0000E+00 -0.3962E+12
   -2.543744    4.02552  0.6639E-10  0.3009E-07  0.5232E-11  0.4211E-04  0.0000E+00 -0.6462E+12
   -2.612491    4.02656  0.6639E-10  0.2697E-07  0.7656E-11  0.1997E-04  0.0000E+00 -0.1462E+13
   -2.681237    4.02882  0.6639E-10  0.1312E-07  0.2382E-10  0.1154E-05  0.0000E+00 -0.3509E+14
   -2.749982    4.06562  0.6639E-10  0.0000E+00  0.0000E+00  0.0000E+00  0.0000E+00  0.0000E+00
