 1 - depth, m
 2 - temperature, C
 3 - salinity, kg/kg
 4 - turbulent kinetic energy, m**2/s**2
 5 - dissipation rate, m**2/s**3
 6 - kinematic heat conductance, m**2/s
 7 - modulus of horizontal velocity, m/s
 8 - Richardson number, n/d
   -0.000000   -0.00000  0.4924E-09  0.3550E-12  0.5862E-16  0.1000E-09  0.0000E+00  0.1604E+17
   -0.068746    0.24890  0.1229E-09  0.7275E-12  0.6100E-16  0.1000E-09  0.0000E+00  0.1477E+17
   -0.137492    0.49488  0.8334E-10  0.1496E-11  0.9372E-16  0.1000E-09  0.0000E+00  0.1347E+17
   -0.206239    0.73631  0.7452E-10  0.2878E-11  0.1619E-15  0.1000E-09  0.0000E+00  0.1223E+17
   -0.274986    0.97322  0.7206E-10  0.5320E-11  0.2856E-15  0.1000E-09  0.0000E+00  0.1106E+17
   -0.343734    1.20575  0.7147E-10  0.9614E-11  0.5018E-15  0.1000E-09  0.0000E+00  0.9974E+16
   -0.412483    1.43449  0.7135E-10  0.1715E-10  0.8757E-15  0.1000E-09  0.0000E+00  0.8946E+16
   -0.481232    1.65957  0.7133E-10  0.3034E-10  0.1519E-14  0.1000E-09  0.0000E+00  0.7970E+16
   -0.549981    1.88112  0.7132E-10  0.5334E-10  0.2619E-14  0.1000E-09  0.0000E+00  0.7055E+16
   -0.618731    2.09965  0.7132E-10  0.9296E-10  0.4479E-14  0.1000E-09  0.0000E+00  0.6193E+16
   -0.687481    2.31567  0.7131E-10  0.1610E-09  0.7612E-14  0.1000E-09  0.0000E+00  0.5367E+16
   -0.756232    2.52936  0.7128E-10  0.2772E-09  0.1287E-13  0.1000E-09  0.0000E+00  0.4603E+16
   -0.824983    2.74229  0.7121E-10  0.4748E-09  0.2164E-13  0.1000E-09  0.0000E+00  0.3850E+16
   -0.893734    2.95435  0.7107E-10  0.8095E-09  0.3623E-13  0.1000E-09  0.0000E+00  0.3109E+16
   -0.962485    3.16542  0.7078E-10  0.1373E-08  0.6035E-13  0.1291E-09  0.0000E+00  0.2380E+16
   -1.031237    3.37521  0.7023E-10  0.2318E-08  0.1001E-12  0.3055E-09  0.0000E+00  0.1667E+16
   -1.099989    3.58339  0.6944E-10  0.3904E-08  0.1655E-12  0.8656E-09  0.0000E+00  0.9735E+15
   -1.168741    3.78967  0.6876E-10  0.6543E-08  0.2727E-12  0.4576E-08  0.0000E+00  0.3034E+15
   -1.237493    3.98932  0.6859E-10  0.6901E-08  0.2884E-12  0.4052E-04  0.0000E+00 -0.3757E+11
   -1.306245    3.99003  0.6859E-10  0.7091E-08  0.2983E-12  0.4496E-04  0.0000E+00 -0.4099E+11
   -1.374997    3.99068  0.6859E-10  0.7277E-08  0.3096E-12  0.4860E-04  0.0000E+00 -0.4399E+11
   -1.443749    3.99128  0.6859E-10  0.7458E-08  0.3221E-12  0.5148E-04  0.0000E+00 -0.4685E+11
   -1.512501    3.99185  0.6859E-10  0.7634E-08  0.3358E-12  0.5372E-04  0.0000E+00 -0.4981E+11
   -1.581253    3.99239  0.6859E-10  0.7802E-08  0.3507E-12  0.5537E-04  0.0000E+00 -0.5297E+11
   -1.650005    3.99293  0.6859E-10  0.7963E-08  0.3670E-12  0.5645E-04  0.0000E+00 -0.5646E+11
   -1.718757    3.99345  0.6859E-10  0.8113E-08  0.3846E-12  0.5700E-04  0.0000E+00 -0.6037E+11
   -1.787509    3.99397  0.6859E-10  0.8253E-08  0.4038E-12  0.5703E-04  0.0000E+00 -0.6484E+11
   -1.856260    3.99449  0.6859E-10  0.8381E-08  0.4247E-12  0.5656E-04  0.0000E+00 -0.7000E+11
   -1.925011    3.99502  0.6859E-10  0.8494E-08  0.4477E-12  0.5559E-04  0.0000E+00 -0.7606E+11
   -1.993762    3.99556  0.6859E-10  0.8591E-08  0.4731E-12  0.5414E-04  0.0000E+00 -0.8327E+11
   -2.062513    3.99612  0.6859E-10  0.8670E-08  0.5016E-12  0.5219E-04  0.0000E+00 -0.9214E+11
   -2.131263    3.99670  0.6859E-10  0.8731E-08  0.5361E-12  0.4953E-04  0.0000E+00 -0.1037E+12
   -2.200013    3.99732  0.6859E-10  0.8770E-08  0.5785E-12  0.4609E-04  0.0000E+00 -0.1195E+12
   -2.268762    3.99799  0.6859E-10  0.8778E-08  0.6328E-12  0.4181E-04  0.0000E+00 -0.1420E+12
   -2.337511    3.99874  0.6859E-10  0.8744E-08  0.7054E-12  0.3660E-04  0.0000E+00 -0.1762E+12
   -2.406260    3.99962  0.6859E-10  0.8646E-08  0.8093E-12  0.3040E-04  0.0000E+00 -0.2339E+12
   -2.475008    4.00069  0.6859E-10  0.8435E-08  0.9742E-12  0.2310E-04  0.0000E+00 -0.3479E+12
   -2.543755    4.00216  0.6859E-10  0.7990E-08  0.1288E-11  0.1461E-04  0.0000E+00 -0.6477E+12
   -2.612502    4.00459  0.6859E-10  0.6995E-08  0.2043E-11  0.6267E-05  0.0000E+00 -0.1946E+13
   -2.681249    4.01044  0.6859E-10  0.3740E-08  0.6011E-11  0.5276E-06  0.0000E+00 -0.5136E+14
   -2.749994    4.07083  0.6859E-10  0.0000E+00  0.0000E+00  0.0000E+00  0.0000E+00  0.0000E+00
