 1 - depth, m
 2 - temperature, C
 3 - salinity, kg/kg
 4 - turbulent kinetic energy, m**2/s**2
 5 - dissipation rate, m**2/s**3
 6 - kinematic heat conductance, m**2/s
 7 - modulus of horizontal velocity, m/s
 8 - Richardson number, n/d
   -0.000000   -0.00000  0.2859E-09  0.1106E-12  0.1633E-16  0.1000E-09  0.0000E+00  0.1444E+17
   -0.068746    0.22323  0.1344E-09  0.2143E-12  0.2105E-16  0.1000E-09  0.0000E+00  0.1329E+17
   -0.137492    0.44200  0.9280E-10  0.4541E-12  0.3816E-16  0.1000E-09  0.0000E+00  0.1212E+17
   -0.206239    0.65488  0.7722E-10  0.9421E-12  0.7470E-16  0.1000E-09  0.0000E+00  0.1106E+17
   -0.274986    0.86245  0.7264E-10  0.1917E-11  0.1473E-15  0.1000E-09  0.0000E+00  0.1010E+17
   -0.343734    1.06547  0.7157E-10  0.3843E-11  0.2883E-15  0.1000E-09  0.0000E+00  0.9263E+16
   -0.412483    1.26575  0.7137E-10  0.7631E-11  0.5599E-15  0.1000E-09  0.0000E+00  0.8491E+16
   -0.481232    1.46394  0.7133E-10  0.1503E-10  0.1080E-14  0.1000E-09  0.0000E+00  0.7769E+16
   -0.549981    1.66071  0.7133E-10  0.2942E-10  0.2068E-14  0.1000E-09  0.0000E+00  0.7119E+16
   -0.618731    1.85757  0.7132E-10  0.5699E-10  0.3923E-14  0.1000E-09  0.0000E+00  0.6519E+16
   -0.687481    2.05604  0.7132E-10  0.1096E-09  0.7390E-14  0.1000E-09  0.0000E+00  0.5929E+16
   -0.756232    2.25690  0.7132E-10  0.2093E-09  0.1383E-13  0.1000E-09  0.0000E+00  0.5382E+16
   -0.824983    2.46270  0.7130E-10  0.3975E-09  0.2573E-13  0.1000E-09  0.0000E+00  0.4795E+16
   -0.893734    2.67371  0.7126E-10  0.7501E-09  0.4759E-13  0.1000E-09  0.0000E+00  0.4159E+16
   -0.962485    2.88994  0.7117E-10  0.1407E-08  0.8750E-13  0.1284E-09  0.0000E+00  0.3468E+16
   -1.031237    3.11101  0.7099E-10  0.2624E-08  0.1600E-12  0.2990E-09  0.0000E+00  0.2724E+16
   -1.099989    3.33628  0.7064E-10  0.4879E-08  0.2917E-12  0.7674E-09  0.0000E+00  0.1936E+16
   -1.168740    3.56498  0.6991E-10  0.9028E-08  0.5296E-12  0.2438E-08  0.0000E+00  0.1106E+16
   -1.237493    3.79396  0.6882E-10  0.1650E-07  0.9503E-12  0.1681E-07  0.0000E+00  0.2881E+15
   -1.306245    4.00354  0.6850E-10  0.1700E-07  0.9812E-12  0.1129E-03  0.0000E+00 -0.7985E+11
   -1.374997    4.00383  0.6850E-10  0.1721E-07  0.9966E-12  0.1145E-03  0.0000E+00 -0.8077E+11
   -1.443749    4.00413  0.6850E-10  0.1738E-07  0.1012E-11  0.1147E-03  0.0000E+00 -0.8243E+11
   -1.512501    4.00442  0.6850E-10  0.1754E-07  0.1029E-11  0.1149E-03  0.0000E+00 -0.8419E+11
   -1.581253    4.00471  0.6850E-10  0.1768E-07  0.1048E-11  0.1148E-03  0.0000E+00 -0.8624E+11
   -1.650005    4.00501  0.6850E-10  0.1781E-07  0.1068E-11  0.1143E-03  0.0000E+00 -0.8863E+11
   -1.718757    4.00531  0.6850E-10  0.1792E-07  0.1091E-11  0.1134E-03  0.0000E+00 -0.9139E+11
   -1.787508    4.00561  0.6850E-10  0.1801E-07  0.1116E-11  0.1122E-03  0.0000E+00 -0.9457E+11
   -1.856260    4.00592  0.6850E-10  0.1808E-07  0.1143E-11  0.1105E-03  0.0000E+00 -0.9825E+11
   -1.925011    4.00624  0.6850E-10  0.1814E-07  0.1173E-11  0.1085E-03  0.0000E+00 -0.1025E+12
   -1.993762    4.00657  0.6850E-10  0.1817E-07  0.1206E-11  0.1062E-03  0.0000E+00 -0.1074E+12
   -2.062512    4.00690  0.6850E-10  0.1817E-07  0.1245E-11  0.1032E-03  0.0000E+00 -0.1133E+12
   -2.131262    4.00725  0.6850E-10  0.1815E-07  0.1295E-11  0.9935E-04  0.0000E+00 -0.1209E+12
   -2.200012    4.00762  0.6850E-10  0.1809E-07  0.1363E-11  0.9114E-04  0.0000E+00 -0.1358E+12
   -2.268762    4.00802  0.6850E-10  0.1797E-07  0.1456E-11  0.7745E-04  0.0000E+00 -0.1655E+12
   -2.337511    4.00850  0.6850E-10  0.1777E-07  0.1584E-11  0.6495E-04  0.0000E+00 -0.2059E+12
   -2.406259    4.00909  0.6850E-10  0.1745E-07  0.1770E-11  0.5337E-04  0.0000E+00 -0.2645E+12
   -2.475007    4.00982  0.6850E-10  0.1693E-07  0.2065E-11  0.4089E-04  0.0000E+00 -0.3707E+12
   -2.543755    4.01080  0.6850E-10  0.1601E-07  0.2617E-11  0.2656E-04  0.0000E+00 -0.6274E+12
   -2.612502    4.01239  0.6850E-10  0.1418E-07  0.3892E-11  0.1223E-04  0.0000E+00 -0.1567E+13
   -2.681248    4.01598  0.6850E-10  0.6933E-08  0.1168E-10  0.7844E-06  0.0000E+00 -0.4466E+14
   -2.749993    4.06746  0.6850E-10  0.0000E+00  0.0000E+00  0.0000E+00  0.0000E+00  0.0000E+00
