 1 - depth, m
 2 - temperature, C
 3 - salinity, kg/kg
 4 - turbulent kinetic energy, m**2/s**2
 5 - dissipation rate, m**2/s**3
 6 - kinematic heat conductance, m**2/s
 7 - modulus of horizontal velocity, m/s
 8 - Richardson number, n/d
   -0.000000   -0.00000  0.3119E-09  0.1219E-13  0.7603E-17  0.1000E-09  0.0000E+00  0.9873E+16
   -0.068746    0.15117  0.1415E-09  0.1219E-13  0.7603E-17  0.1000E-09  0.0000E+00  0.9057E+16
   -0.137492    0.29566  0.9378E-10  0.1219E-13  0.7603E-17  0.1000E-09  0.0000E+00  0.8060E+16
   -0.206239    0.42949  0.8645E-10  0.1219E-13  0.7603E-17  0.1000E-09  0.0000E+00  0.7066E+16
   -0.274987    0.55137  0.8563E-10  0.1219E-13  0.7603E-17  0.1000E-09  0.0000E+00  0.6118E+16
   -0.343735    0.66072  0.8554E-10  0.1219E-13  0.7603E-17  0.1000E-09  0.0000E+00  0.5342E+16
   -0.412484    0.75940  0.8553E-10  0.1219E-13  0.7603E-17  0.1000E-09  0.0000E+00  0.4620E+16
   -0.481233    0.84738  0.8553E-10  0.1219E-13  0.7603E-17  0.1000E-09  0.0000E+00  0.3961E+16
   -0.549982    0.92495  0.8553E-10  0.1219E-13  0.7603E-17  0.1000E-09  0.0000E+00  0.3465E+16
   -0.618732    0.99454  0.8553E-10  0.1219E-13  0.7603E-17  0.1000E-09  0.0000E+00  0.3136E+16
   -0.687483    1.05901  0.8553E-10  0.1219E-13  0.7603E-17  0.1000E-09  0.0000E+00  0.2890E+16
   -0.756233    1.11977  0.8553E-10  0.1219E-13  0.7603E-17  0.1000E-09  0.0000E+00  0.2813E+16
   -0.824984    1.18025  0.8553E-10  0.1219E-13  0.7603E-17  0.1000E-09  0.0000E+00  0.2804E+16
   -0.893736    1.24191  0.8553E-10  0.1219E-13  0.7603E-17  0.1000E-09  0.0000E+00  0.2857E+16
   -0.962487    1.30626  0.8553E-10  0.1219E-13  0.7603E-17  0.1000E-09  0.0000E+00  0.2963E+16
   -1.031239    1.37476  0.8551E-10  0.1219E-13  0.7603E-17  0.1000E-09  0.0000E+00  0.3094E+16
   -1.099991    1.44834  0.8546E-10  0.1219E-13  0.7603E-17  0.1000E-09  0.0000E+00  0.3201E+16
   -1.168743    1.52691  0.8535E-10  0.1219E-13  0.7603E-17  0.1000E-09  0.0000E+00  0.3326E+16
   -1.237495    1.61140  0.8512E-10  0.1219E-13  0.7603E-17  0.1000E-09  0.0000E+00  0.3453E+16
   -1.306247    1.70256  0.8473E-10  0.1219E-13  0.7603E-17  0.1000E-09  0.0000E+00  0.3565E+16
   -1.375000    1.80082  0.8423E-10  0.1219E-13  0.7603E-17  0.1000E-09  0.0000E+00  0.3683E+16
   -1.443752    1.90737  0.8374E-10  0.1219E-13  0.7603E-17  0.1000E-09  0.0000E+00  0.3806E+16
   -1.512504    2.02378  0.8335E-10  0.1219E-13  0.7603E-17  0.1000E-09  0.0000E+00  0.3858E+16
   -1.581256    2.14954  0.8296E-10  0.1219E-13  0.7603E-17  0.1000E-09  0.0000E+00  0.3829E+16
   -1.650008    2.28379  0.8247E-10  0.1219E-13  0.7603E-17  0.1000E-09  0.0000E+00  0.3714E+16
   -1.718760    2.42532  0.8195E-10  0.1689E-13  0.7616E-17  0.1000E-09  0.0000E+00  0.3515E+16
   -1.787512    2.57266  0.8157E-10  0.6993E-13  0.2259E-16  0.1000E-09  0.0000E+00  0.3243E+16
   -1.856264    2.72411  0.8138E-10  0.2678E-12  0.8123E-16  0.1000E-09  0.0000E+00  0.2910E+16
   -1.925015    2.87788  0.8132E-10  0.9865E-12  0.2874E-15  0.1000E-09  0.0000E+00  0.2534E+16
   -1.993766    3.03215  0.8125E-10  0.3549E-11  0.9949E-15  0.1000E-09  0.0000E+00  0.2134E+16
   -2.062517    3.18520  0.8121E-10  0.1260E-10  0.3400E-14  0.1000E-09  0.0000E+00  0.1782E+16
   -2.131267    3.34065  0.8121E-10  0.4487E-10  0.1167E-13  0.1000E-09  0.0000E+00  0.1432E+16
   -2.200017    3.50078  0.8121E-10  0.1577E-09  0.3953E-13  0.1912E-09  0.0000E+00  0.1050E+16
   -2.268767    3.66618  0.8121E-10  0.5465E-09  0.1322E-12  0.1064E-08  0.0000E+00  0.6316E+15
   -2.337516    3.83747  0.8121E-10  0.1857E-08  0.4341E-12  0.1293E-07  0.0000E+00  0.1713E+15
   -2.406265    4.00470  0.8121E-10  0.3980E-08  0.9342E-12  0.5921E-05  0.0000E+00 -0.1514E+13
   -2.475013    4.00942  0.8121E-10  0.4940E-08  0.1330E-11  0.6383E-05  0.0000E+00 -0.1993E+13
   -2.543760    4.01442  0.8121E-10  0.5637E-08  0.1982E-11  0.5446E-05  0.0000E+00 -0.3358E+13
   -2.612507    4.02125  0.8121E-10  0.5817E-08  0.3363E-11  0.3176E-05  0.0000E+00 -0.8717E+13
   -2.681254    4.03465  0.8121E-10  0.4594E-08  0.9161E-11  0.6258E-06  0.0000E+00 -0.9342E+14
   -2.749999    4.10581  0.8121E-10  0.0000E+00  0.0000E+00  0.0000E+00  0.0000E+00  0.0000E+00
