 1 - depth, m
 2 - temperature, C
 3 - salinity, kg/kg
 4 - turbulent kinetic energy, m**2/s**2
 5 - dissipation rate, m**2/s**3
 6 - kinematic heat conductance, m**2/s
 7 - modulus of horizontal velocity, m/s
 8 - Richardson number, n/d
   -0.000000   -0.00000  0.3191E-10  0.1219E-13  0.7603E-17  0.1000E-09  0.0000E+00  0.1031E+17
   -0.068746    0.15796  0.1421E-09  0.1219E-13  0.7603E-17  0.1000E-09  0.0000E+00  0.1025E+17
   -0.137493    0.32222  0.1528E-09  0.1219E-13  0.7603E-17  0.1000E-09  0.0000E+00  0.1001E+17
   -0.206240    0.49054  0.1313E-09  0.1219E-13  0.7603E-17  0.1000E-09  0.0000E+00  0.9676E+16
   -0.274988    0.66190  0.1070E-09  0.1219E-13  0.7603E-17  0.1000E-09  0.0000E+00  0.9267E+16
   -0.343737    0.83523  0.8929E-10  0.1219E-13  0.7603E-17  0.1000E-09  0.0000E+00  0.8816E+16
   -0.412486    1.01003  0.7915E-10  0.2567E-13  0.7603E-17  0.1000E-09  0.0000E+00  0.8307E+16
   -0.481236    1.18522  0.7433E-10  0.8810E-13  0.9054E-17  0.1000E-09  0.0000E+00  0.7757E+16
   -0.549986    1.35985  0.7235E-10  0.2099E-12  0.1610E-16  0.1000E-09  0.0000E+00  0.7199E+16
   -0.618736    1.53353  0.7162E-10  0.4355E-12  0.3052E-16  0.1000E-09  0.0000E+00  0.6645E+16
   -0.687487    1.70608  0.7135E-10  0.8578E-12  0.5771E-16  0.1000E-09  0.0000E+00  0.6089E+16
   -0.756238    1.87704  0.7122E-10  0.1651E-11  0.1080E-15  0.1000E-09  0.0000E+00  0.5545E+16
   -0.824989    2.04627  0.7107E-10  0.3135E-11  0.2003E-15  0.1000E-09  0.0000E+00  0.5010E+16
   -0.893741    2.21349  0.7087E-10  0.5900E-11  0.3682E-15  0.1000E-09  0.0000E+00  0.4489E+16
   -0.962493    2.37848  0.7057E-10  0.1101E-10  0.6718E-15  0.1000E-09  0.0000E+00  0.3983E+16
   -1.031245    2.54104  0.7019E-10  0.2039E-10  0.1216E-14  0.1000E-09  0.0000E+00  0.3492E+16
   -1.099998    2.70080  0.6977E-10  0.3759E-10  0.2193E-14  0.1000E-09  0.0000E+00  0.3010E+16
   -1.168750    2.85690  0.6937E-10  0.6890E-10  0.3930E-14  0.1000E-09  0.0000E+00  0.2554E+16
   -1.237503    3.00909  0.6905E-10  0.1254E-09  0.6999E-14  0.1000E-09  0.0000E+00  0.2126E+16
   -1.306255    3.15719  0.6883E-10  0.2268E-09  0.1238E-13  0.1000E-09  0.0000E+00  0.1728E+16
   -1.375008    3.30111  0.6871E-10  0.4071E-09  0.2173E-13  0.1000E-09  0.0000E+00  0.1369E+16
   -1.443761    3.44184  0.6865E-10  0.7255E-09  0.3790E-13  0.1853E-09  0.0000E+00  0.1044E+16
   -1.512513    3.58111  0.6863E-10  0.1284E-08  0.6562E-13  0.4575E-09  0.0000E+00  0.7326E+15
   -1.581266    3.71954  0.6862E-10  0.2254E-08  0.1128E-12  0.1345E-08  0.0000E+00  0.4291E+15
   -1.650018    3.85759  0.6861E-10  0.3918E-08  0.1919E-12  0.7623E-08  0.0000E+00  0.1298E+15
   -1.718771    3.99145  0.6861E-10  0.4286E-08  0.2106E-12  0.2733E-04  0.0000E+00 -0.6163E+11
   -1.787523    3.99220  0.6861E-10  0.4462E-08  0.2215E-12  0.2925E-04  0.0000E+00 -0.6472E+11
   -1.856275    3.99289  0.6861E-10  0.4619E-08  0.2334E-12  0.3046E-04  0.0000E+00 -0.6812E+11
   -1.925027    3.99354  0.6861E-10  0.4756E-08  0.2463E-12  0.3102E-04  0.0000E+00 -0.7219E+11
   -1.993778    3.99416  0.6861E-10  0.4874E-08  0.2604E-12  0.3099E-04  0.0000E+00 -0.7721E+11
   -2.062529    3.99478  0.6861E-10  0.4973E-08  0.2763E-12  0.3063E-04  0.0000E+00 -0.8392E+11
   -2.131280    3.99539  0.6861E-10  0.5056E-08  0.2954E-12  0.2977E-04  0.0000E+00 -0.9311E+11
   -2.200030    3.99603  0.6861E-10  0.5121E-08  0.3188E-12  0.2828E-04  0.0000E+00 -0.1058E+12
   -2.268780    3.99671  0.6861E-10  0.5162E-08  0.3486E-12  0.2612E-04  0.0000E+00 -0.1243E+12
   -2.337530    3.99745  0.6861E-10  0.5171E-08  0.3884E-12  0.2325E-04  0.0000E+00 -0.1528E+12
   -2.406279    3.99830  0.6861E-10  0.5134E-08  0.4453E-12  0.1958E-04  0.0000E+00 -0.2017E+12
   -2.475027    3.99933  0.6861E-10  0.5018E-08  0.5355E-12  0.1506E-04  0.0000E+00 -0.3000E+12
   -2.543775    4.00074  0.6861E-10  0.4742E-08  0.7077E-12  0.9552E-05  0.0000E+00 -0.5655E+12
   -2.612523    4.00306  0.6861E-10  0.4089E-08  0.1126E-11  0.3993E-05  0.0000E+00 -0.1780E+13
   -2.681270    4.00885  0.6861E-10  0.2184E-08  0.3119E-11  0.3516E-06  0.0000E+00 -0.4121E+14
   -2.750016    4.06228  0.6861E-10  0.0000E+00  0.0000E+00  0.0000E+00  0.0000E+00  0.0000E+00
