 1 - depth, m
 2 - temperature, C
 3 - salinity, kg/kg
 4 - turbulent kinetic energy, m**2/s**2
 5 - dissipation rate, m**2/s**3
 6 - kinematic heat conductance, m**2/s
 7 - modulus of horizontal velocity, m/s
 8 - Richardson number, n/d
   -0.000000   -0.00000  0.3020E-09  0.1219E-13  0.7603E-17  0.1000E-09  0.0000E+00  0.8556E+16
   -0.068746    0.13064  0.1607E-09  0.1219E-13  0.7603E-17  0.1000E-09  0.0000E+00  0.8079E+16
   -0.137492    0.25848  0.1034E-09  0.1219E-13  0.7603E-17  0.1000E-09  0.0000E+00  0.7489E+16
   -0.206239    0.38130  0.8882E-10  0.1219E-13  0.7603E-17  0.1000E-09  0.0000E+00  0.6905E+16
   -0.274987    0.49862  0.8603E-10  0.1219E-13  0.7603E-17  0.1000E-09  0.0000E+00  0.6346E+16
   -0.343735    0.61025  0.8560E-10  0.1219E-13  0.7603E-17  0.1000E-09  0.0000E+00  0.5883E+16
   -0.412484    0.71734  0.8554E-10  0.1219E-13  0.7603E-17  0.1000E-09  0.0000E+00  0.5443E+16
   -0.481233    0.81981  0.8553E-10  0.1219E-13  0.7603E-17  0.1000E-09  0.0000E+00  0.5029E+16
   -0.549983    0.91770  0.8553E-10  0.1219E-13  0.7603E-17  0.1000E-09  0.0000E+00  0.4695E+16
   -0.618733    1.01216  0.8553E-10  0.1219E-13  0.7603E-17  0.1000E-09  0.0000E+00  0.4441E+16
   -0.687483    1.10450  0.8553E-10  0.1219E-13  0.7603E-17  0.1000E-09  0.0000E+00  0.4216E+16
   -0.756234    1.19514  0.8553E-10  0.1219E-13  0.7603E-17  0.1000E-09  0.0000E+00  0.4079E+16
   -0.824985    1.28585  0.8553E-10  0.1219E-13  0.7603E-17  0.1000E-09  0.0000E+00  0.3956E+16
   -0.893736    1.37699  0.8553E-10  0.1219E-13  0.7603E-17  0.1000E-09  0.0000E+00  0.3845E+16
   -0.962488    1.46886  0.8551E-10  0.1219E-13  0.7603E-17  0.1000E-09  0.0000E+00  0.3741E+16
   -1.031239    1.56174  0.8548E-10  0.1219E-13  0.7603E-17  0.1000E-09  0.0000E+00  0.3637E+16
   -1.099991    1.65572  0.8540E-10  0.1219E-13  0.7603E-17  0.1000E-09  0.0000E+00  0.3516E+16
   -1.168744    1.75049  0.8524E-10  0.1219E-13  0.7603E-17  0.1000E-09  0.0000E+00  0.3396E+16
   -1.237496    1.84616  0.8497E-10  0.1219E-13  0.7603E-17  0.1000E-09  0.0000E+00  0.3274E+16
   -1.306248    1.94279  0.8457E-10  0.1219E-13  0.7603E-17  0.1000E-09  0.0000E+00  0.3148E+16
   -1.375000    2.04036  0.8410E-10  0.1219E-13  0.7603E-17  0.1000E-09  0.0000E+00  0.3036E+16
   -1.443753    2.13950  0.8365E-10  0.1219E-13  0.7603E-17  0.1000E-09  0.0000E+00  0.2946E+16
   -1.512505    2.24124  0.8323E-10  0.1219E-13  0.7603E-17  0.1000E-09  0.0000E+00  0.2839E+16
   -1.581257    2.34545  0.8281E-10  0.1219E-13  0.7603E-17  0.1000E-09  0.0000E+00  0.2716E+16
   -1.650009    2.45191  0.8234E-10  0.1219E-13  0.7603E-17  0.1000E-09  0.0000E+00  0.2574E+16
   -1.718761    2.56033  0.8189E-10  0.1219E-13  0.7603E-17  0.1000E-09  0.0000E+00  0.2415E+16
   -1.787513    2.67035  0.8157E-10  0.1219E-13  0.7603E-17  0.1000E-09  0.0000E+00  0.2240E+16
   -1.856265    2.78154  0.8139E-10  0.1219E-13  0.7603E-17  0.1000E-09  0.0000E+00  0.2050E+16
   -1.925016    2.89340  0.8131E-10  0.1219E-13  0.7603E-17  0.1000E-09  0.0000E+00  0.1849E+16
   -1.993767    3.00537  0.8125E-10  0.1594E-13  0.9012E-17  0.1000E-09  0.0000E+00  0.1639E+16
   -2.062518    3.11684  0.8122E-10  0.7799E-13  0.4133E-16  0.1000E-09  0.0000E+00  0.1473E+16
   -2.131268    3.23115  0.8121E-10  0.4186E-12  0.2123E-15  0.1000E-09  0.0000E+00  0.1315E+16
   -2.200018    3.35051  0.8121E-10  0.2204E-11  0.1072E-14  0.1000E-09  0.0000E+00  0.1135E+16
   -2.268768    3.47582  0.8121E-10  0.1137E-10  0.5307E-14  0.1000E-09  0.0000E+00  0.9300E+15
   -2.337517    3.60856  0.8121E-10  0.5757E-10  0.2582E-13  0.1886E-09  0.0000E+00  0.6878E+15
   -2.406266    3.75113  0.8121E-10  0.2870E-09  0.1238E-12  0.1606E-08  0.0000E+00  0.3842E+15
   -2.475014    3.90638  0.8121E-10  0.1373E-08  0.5741E-12  0.6666E-07  0.0000E+00  0.3657E+14
   -2.543761    4.02800  0.8121E-10  0.4404E-08  0.1934E-11  0.3769E-05  0.0000E+00 -0.5504E+13
   -2.612508    4.03572  0.8121E-10  0.5200E-08  0.3272E-11  0.2774E-05  0.0000E+00 -0.1069E+14
   -2.681255    4.04801  0.8121E-10  0.4150E-08  0.8138E-11  0.5768E-06  0.0000E+00 -0.9061E+14
   -2.750001    4.11037  0.8121E-10  0.0000E+00  0.0000E+00  0.0000E+00  0.0000E+00  0.0000E+00
