 1 - depth, m
 2 - temperature, C
 3 - salinity, kg/kg
 4 - turbulent kinetic energy, m**2/s**2
 5 - dissipation rate, m**2/s**3
 6 - kinematic heat conductance, m**2/s
 7 - modulus of horizontal velocity, m/s
 8 - Richardson number, n/d
   -0.000000   -0.00000  0.2621E-09  0.1219E-13  0.7603E-17  0.1000E-09  0.0000E+00  0.8341E+16
   -0.068746    0.12729  0.1704E-09  0.1219E-13  0.7603E-17  0.1000E-09  0.0000E+00  0.7878E+16
   -0.137492    0.25177  0.1133E-09  0.1219E-13  0.7603E-17  0.1000E-09  0.0000E+00  0.7351E+16
   -0.206239    0.37205  0.9234E-10  0.1219E-13  0.7603E-17  0.1000E-09  0.0000E+00  0.6849E+16
   -0.274986    0.48806  0.8688E-10  0.1219E-13  0.7603E-17  0.1000E-09  0.0000E+00  0.6377E+16
   -0.343734    0.59988  0.8576E-10  0.1219E-13  0.7603E-17  0.1000E-09  0.0000E+00  0.5982E+16
   -0.412483    0.70843  0.8557E-10  0.1219E-13  0.7603E-17  0.1000E-09  0.0000E+00  0.5605E+16
   -0.481232    0.81370  0.8554E-10  0.1219E-13  0.7603E-17  0.1000E-09  0.0000E+00  0.5246E+16
   -0.549982    0.91567  0.8553E-10  0.1219E-13  0.7603E-17  0.1000E-09  0.0000E+00  0.4943E+16
   -0.618731    1.01514  0.8553E-10  0.1219E-13  0.7603E-17  0.1000E-09  0.0000E+00  0.4694E+16
   -0.687482    1.11293  0.8553E-10  0.1219E-13  0.7603E-17  0.1000E-09  0.0000E+00  0.4463E+16
   -0.756232    1.20927  0.8553E-10  0.1219E-13  0.7603E-17  0.1000E-09  0.0000E+00  0.4297E+16
   -0.824983    1.30545  0.8553E-10  0.1219E-13  0.7603E-17  0.1000E-09  0.0000E+00  0.4137E+16
   -0.893735    1.40159  0.8552E-10  0.1219E-13  0.7603E-17  0.1000E-09  0.0000E+00  0.3982E+16
   -0.962486    1.49778  0.8551E-10  0.1219E-13  0.7603E-17  0.1000E-09  0.0000E+00  0.3830E+16
   -1.031238    1.59411  0.8546E-10  0.1219E-13  0.7603E-17  0.1000E-09  0.0000E+00  0.3677E+16
   -1.099989    1.69054  0.8537E-10  0.1219E-13  0.7603E-17  0.1000E-09  0.0000E+00  0.3517E+16
   -1.168741    1.78688  0.8520E-10  0.1219E-13  0.7603E-17  0.1000E-09  0.0000E+00  0.3357E+16
   -1.237494    1.88309  0.8493E-10  0.1219E-13  0.7603E-17  0.1000E-09  0.0000E+00  0.3197E+16
   -1.306246    1.97917  0.8454E-10  0.1219E-13  0.7603E-17  0.1000E-09  0.0000E+00  0.3036E+16
   -1.374998    2.07503  0.8409E-10  0.1219E-13  0.7603E-17  0.1000E-09  0.0000E+00  0.2892E+16
   -1.443750    2.17119  0.8364E-10  0.1219E-13  0.7603E-17  0.1000E-09  0.0000E+00  0.2769E+16
   -1.512502    2.26848  0.8322E-10  0.1219E-13  0.7603E-17  0.1000E-09  0.0000E+00  0.2640E+16
   -1.581254    2.36681  0.8279E-10  0.1219E-13  0.7603E-17  0.1000E-09  0.0000E+00  0.2502E+16
   -1.650006    2.46603  0.8233E-10  0.1219E-13  0.7603E-17  0.1000E-09  0.0000E+00  0.2357E+16
   -1.718758    2.56598  0.8191E-10  0.1219E-13  0.7603E-17  0.1000E-09  0.0000E+00  0.2204E+16
   -1.787510    2.66644  0.8160E-10  0.1219E-13  0.7603E-17  0.1000E-09  0.0000E+00  0.2044E+16
   -1.856261    2.76718  0.8141E-10  0.1219E-13  0.7603E-17  0.1000E-09  0.0000E+00  0.1879E+16
   -1.925012    2.86792  0.8132E-10  0.1219E-13  0.7603E-17  0.1000E-09  0.0000E+00  0.1709E+16
   -1.993763    2.96836  0.8126E-10  0.1219E-13  0.7603E-17  0.1000E-09  0.0000E+00  0.1537E+16
   -2.062514    3.06817  0.8122E-10  0.1219E-13  0.7603E-17  0.1000E-09  0.0000E+00  0.1412E+16
   -2.131264    3.17074  0.8121E-10  0.2539E-13  0.1630E-16  0.1000E-09  0.0000E+00  0.1300E+16
   -2.200014    3.27836  0.8121E-10  0.1476E-12  0.9102E-16  0.1000E-09  0.0000E+00  0.1171E+16
   -2.268764    3.39202  0.8121E-10  0.8889E-12  0.5260E-15  0.1000E-09  0.0000E+00  0.1021E+16
   -2.337513    3.51317  0.8121E-10  0.5257E-11  0.2988E-14  0.1000E-09  0.0000E+00  0.8412E+15
   -2.406261    3.64402  0.8121E-10  0.3060E-10  0.1673E-13  0.1359E-09  0.0000E+00  0.6127E+15
   -2.475009    3.78815  0.8121E-10  0.1760E-09  0.9273E-13  0.1522E-08  0.0000E+00  0.2980E+15
   -2.543757    3.95031  0.8121E-10  0.9614E-09  0.4948E-12  0.2306E-06  0.0000E+00 -0.1119E+12
   -2.612504    4.02272  0.8121E-10  0.3062E-08  0.2259E-11  0.1431E-05  0.0000E+00 -0.1490E+14
   -2.681250    4.04316  0.8121E-10  0.3246E-08  0.6306E-11  0.4771E-06  0.0000E+00 -0.9203E+14
   -2.749996    4.10878  0.8121E-10  0.0000E+00  0.0000E+00  0.0000E+00  0.0000E+00  0.0000E+00
