 1 - depth, m
 2 - temperature, C
 3 - salinity, kg/kg
 4 - turbulent kinetic energy, m**2/s**2
 5 - dissipation rate, m**2/s**3
 6 - kinematic heat conductance, m**2/s
 7 - modulus of horizontal velocity, m/s
 8 - Richardson number, n/d
   -0.000000   -0.00000  0.4530E-09  0.1219E-13  0.7603E-17  0.1000E-09  0.0000E+00  0.1191E+17
   -0.068746    0.18311  0.2057E-09  0.1219E-13  0.7603E-17  0.1000E-09  0.0000E+00  0.1122E+17
   -0.137492    0.36474  0.1135E-09  0.1219E-13  0.7603E-17  0.1000E-09  0.0000E+00  0.1048E+17
   -0.206239    0.54351  0.8795E-10  0.1219E-13  0.7603E-17  0.1000E-09  0.0000E+00  0.9755E+16
   -0.274986    0.71926  0.8189E-10  0.1219E-13  0.7603E-17  0.1000E-09  0.0000E+00  0.9059E+16
   -0.343735    0.89191  0.8050E-10  0.1219E-13  0.7603E-17  0.1000E-09  0.0000E+00  0.8404E+16
   -0.412483    1.06167  0.8018E-10  0.1219E-13  0.7603E-17  0.1000E-09  0.0000E+00  0.7771E+16
   -0.481232    1.22843  0.8011E-10  0.1219E-13  0.7603E-17  0.1000E-09  0.0000E+00  0.7162E+16
   -0.549982    1.39205  0.8009E-10  0.1219E-13  0.7603E-17  0.1000E-09  0.0000E+00  0.6587E+16
   -0.618732    1.55268  0.8007E-10  0.1219E-13  0.7603E-17  0.1000E-09  0.0000E+00  0.6045E+16
   -0.687482    1.71045  0.8004E-10  0.1219E-13  0.7603E-17  0.1000E-09  0.0000E+00  0.5525E+16
   -0.756233    1.86532  0.7999E-10  0.2595E-13  0.7604E-17  0.1000E-09  0.0000E+00  0.5053E+16
   -0.824984    2.01798  0.7990E-10  0.7678E-13  0.9196E-17  0.1000E-09  0.0000E+00  0.4596E+16
   -0.893735    2.16832  0.7976E-10  0.1817E-12  0.1606E-16  0.1000E-09  0.0000E+00  0.4154E+16
   -0.962486    2.31620  0.7955E-10  0.3805E-12  0.3099E-16  0.1000E-09  0.0000E+00  0.3730E+16
   -1.031238    2.46148  0.7927E-10  0.7620E-12  0.6019E-16  0.1000E-09  0.0000E+00  0.3323E+16
   -1.099990    2.60408  0.7895E-10  0.1506E-11  0.1168E-15  0.1000E-09  0.0000E+00  0.2936E+16
   -1.168742    2.74396  0.7859E-10  0.2963E-11  0.2265E-15  0.1000E-09  0.0000E+00  0.2567E+16
   -1.237494    2.88098  0.7821E-10  0.5817E-11  0.4390E-15  0.1000E-09  0.0000E+00  0.2216E+16
   -1.306246    3.01499  0.7779E-10  0.1141E-10  0.8506E-15  0.1000E-09  0.0000E+00  0.1884E+16
   -1.374998    3.14585  0.7735E-10  0.2239E-10  0.1648E-14  0.1000E-09  0.0000E+00  0.1575E+16
   -1.443751    3.27374  0.7691E-10  0.4394E-10  0.3196E-14  0.1000E-09  0.0000E+00  0.1289E+16
   -1.512503    3.39901  0.7655E-10  0.8630E-10  0.6199E-14  0.1000E-09  0.0000E+00  0.1016E+16
   -1.581255    3.52127  0.7632E-10  0.1696E-09  0.1203E-13  0.1021E-09  0.0000E+00  0.7580E+15
   -1.650007    3.63976  0.7623E-10  0.3334E-09  0.2334E-13  0.2306E-09  0.0000E+00  0.5156E+15
   -1.718759    3.75274  0.7620E-10  0.6556E-09  0.4528E-13  0.7732E-09  0.0000E+00  0.2967E+15
   -1.787510    3.85697  0.7619E-10  0.1287E-08  0.8762E-13  0.3670E-08  0.0000E+00  0.1187E+15
   -1.856262    3.94669  0.7619E-10  0.2439E-08  0.1644E-12  0.8725E-07  0.0000E+00  0.1226E+14
   -1.925013    3.99683  0.7619E-10  0.2952E-08  0.2006E-12  0.1527E-04  0.0000E+00 -0.1240E+12
   -1.993764    3.99759  0.7619E-10  0.3207E-08  0.2232E-12  0.1614E-04  0.0000E+00 -0.1309E+12
   -2.062515    3.99834  0.7619E-10  0.3438E-08  0.2491E-12  0.1669E-04  0.0000E+00 -0.1431E+12
   -2.131265    3.99910  0.7619E-10  0.3656E-08  0.2805E-12  0.1684E-04  0.0000E+00 -0.1617E+12
   -2.200015    3.99991  0.7619E-10  0.3864E-08  0.3196E-12  0.1652E-04  0.0000E+00 -0.1890E+12
   -2.268765    4.00079  0.7619E-10  0.4058E-08  0.3698E-12  0.1571E-04  0.0000E+00 -0.2302E+12
   -2.337514    4.00179  0.7619E-10  0.4235E-08  0.4373E-12  0.1439E-04  0.0000E+00 -0.2961E+12
   -2.406262    4.00299  0.7619E-10  0.4384E-08  0.5340E-12  0.1252E-04  0.0000E+00 -0.4118E+12
   -2.475010    4.00452  0.7619E-10  0.4479E-08  0.6865E-12  0.1004E-04  0.0000E+00 -0.6496E+12
   -2.543758    4.00670  0.7619E-10  0.4449E-08  0.9704E-12  0.6730E-05  0.0000E+00 -0.1291E+13
   -2.612505    4.01043  0.7619E-10  0.4082E-08  0.1628E-11  0.3079E-05  0.0000E+00 -0.4091E+13
   -2.681251    4.01954  0.7619E-10  0.2697E-08  0.4456E-11  0.4208E-06  0.0000E+00 -0.6157E+14
   -2.749997    4.08102  0.7619E-10  0.0000E+00  0.0000E+00  0.0000E+00  0.0000E+00  0.0000E+00
