 1 - depth, m
 2 - temperature, C
 3 - salinity, kg/kg
 4 - turbulent kinetic energy, m**2/s**2
 5 - dissipation rate, m**2/s**3
 6 - kinematic heat conductance, m**2/s
 7 - modulus of horizontal velocity, m/s
 8 - Richardson number, n/d
   -0.000000    4.30997  0.7284E-10  0.3841E-03  0.1535E-02  0.1147E-03  0.1973E+00 -0.7935E-02
   -0.068746    4.39883  0.7284E-10  0.2113E-03  0.3548E-03  0.2723E-03  0.6234E-01 -0.1216E-02
   -0.137492    4.41588  0.7284E-10  0.1493E-03  0.8723E-04  0.2446E-03  0.4837E-01 -0.1757E-02
   -0.206239    4.42931  0.7284E-10  0.1085E-03  0.2398E-04  0.2390E-03  0.4035E-01 -0.2820E-02
   -0.274986    4.43995  0.7284E-10  0.8271E-04  0.8961E-05  0.2459E-03  0.3467E-01 -0.4218E-02
   -0.343735    4.44884  0.7284E-10  0.6592E-04  0.4189E-05  0.2561E-03  0.3036E-01 -0.5351E-02
   -0.412483    4.45663  0.7284E-10  0.5463E-04  0.2261E-05  0.2741E-03  0.2662E-01 -0.7287E-02
   -0.481232    4.46337  0.7284E-10  0.4676E-04  0.1346E-05  0.2993E-03  0.2357E-01 -0.1035E-01
   -0.549982    4.46920  0.7284E-10  0.4130E-04  0.8694E-06  0.3264E-03  0.2113E-01 -0.1353E-01
   -0.618732    4.47429  0.7284E-10  0.3742E-04  0.6027E-06  0.3528E-03  0.1910E-01 -0.1611E-01
   -0.687482    4.47880  0.7284E-10  0.3449E-04  0.4422E-06  0.3812E-03  0.1731E-01 -0.1915E-01
   -0.756233    4.48283  0.7284E-10  0.3218E-04  0.3395E-06  0.4096E-03  0.1574E-01 -0.2254E-01
   -0.824984    4.48647  0.7284E-10  0.3027E-04  0.2702E-06  0.4367E-03  0.1433E-01 -0.2614E-01
   -0.893735    4.48980  0.7284E-10  0.2863E-04  0.2211E-06  0.4615E-03  0.1307E-01 -0.2982E-01
   -0.962486    4.49287  0.7284E-10  0.2715E-04  0.1846E-06  0.4828E-03  0.1191E-01 -0.3342E-01
   -1.031238    4.49574  0.7284E-10  0.2575E-04  0.1564E-06  0.5027E-03  0.1084E-01 -0.3799E-01
   -1.099990    4.49842  0.7284E-10  0.2440E-04  0.1338E-06  0.5285E-03  0.9859E-02 -0.4717E-01
   -1.168742    4.50092  0.7284E-10  0.2312E-04  0.1155E-06  0.5510E-03  0.8983E-02 -0.5753E-01
   -1.237494    4.50327  0.7284E-10  0.2193E-04  0.1005E-06  0.5717E-03  0.8197E-02 -0.6695E-01
   -1.306246    4.50548  0.7284E-10  0.2080E-04  0.8807E-07  0.5929E-03  0.7486E-02  0.1999E-01
   -1.374998    4.50757  0.7284E-10  0.1976E-04  0.7769E-07  0.6198E-03  0.6840E-02  0.4916E+01
   -1.443750    4.50952  0.7284E-10  0.1879E-04  0.6896E-07  0.6529E-03  0.6249E-02  0.2894E+03
   -1.512503    4.51134  0.7284E-10  0.1788E-04  0.6157E-07  0.6841E-03  0.5708E-02  0.6042E+02
   -1.581255    4.51304  0.7284E-10  0.1704E-04  0.5528E-07  0.7115E-03  0.5209E-02  0.1463E+03
   -1.650007    4.51464  0.7284E-10  0.1626E-04  0.4991E-07  0.7315E-03  0.4748E-02  0.1089E+01
   -1.718759    4.51616  0.7284E-10  0.1552E-04  0.4531E-07  0.7512E-03  0.4317E-02  0.6671E+03
   -1.787510    4.51760  0.7284E-10  0.1484E-04  0.4136E-07  0.7677E-03  0.3914E-02  0.4809E+03
   -1.856262    4.51898  0.7284E-10  0.1419E-04  0.3796E-07  0.7740E-03  0.3534E-02  0.2928E+02
   -1.925013    4.52030  0.7284E-10  0.1357E-04  0.3503E-07  0.7711E-03  0.3172E-02  0.1845E+03
   -1.993764    4.52159  0.7284E-10  0.1299E-04  0.3250E-07  0.7634E-03  0.2824E-02  0.8943E+00
   -2.062515    4.52285  0.7284E-10  0.1242E-04  0.3031E-07  0.7590E-03  0.2486E-02  0.1561E+01
   -2.131265    4.52408  0.7284E-10  0.1185E-04  0.2839E-07  0.7517E-03  0.2179E-02  0.8204E+00
   -2.200015    4.52530  0.7284E-10  0.1129E-04  0.2677E-07  0.7354E-03  0.1907E-02  0.5033E+00
   -2.268764    4.52652  0.7284E-10  0.1073E-04  0.2547E-07  0.7095E-03  0.1666E-02  0.2676E+02
   -2.337513    4.52775  0.7284E-10  0.1016E-04  0.2453E-07  0.6722E-03  0.1451E-02  0.1278E+02
   -2.406262    4.52904  0.7284E-10  0.9566E-05  0.2406E-07  0.6194E-03  0.1259E-02  0.1282E+01
   -2.475010    4.53041  0.7284E-10  0.8911E-05  0.2431E-07  0.5399E-03  0.1088E-02  0.2404E+02
   -2.543758    4.53197  0.7284E-10  0.8105E-05  0.2599E-07  0.3930E-03  0.9395E-03  0.3167E+03
   -2.612505    4.53405  0.7284E-10  0.7026E-05  0.3135E-07  0.2242E-03  0.8097E-03 -0.1202E+02
   -2.681251    4.53763  0.7284E-10  0.2966E-05  0.7996E-07  0.1477E-04  0.6920E-03 -0.1987E+05
   -2.749996    4.59201  0.7284E-10  0.0000E+00  0.0000E+00  0.0000E+00  0.6799E-03  0.0000E+00
