 1 - depth, m
 2 - temperature, C
 3 - salinity, kg/kg
 4 - turbulent kinetic energy, m**2/s**2
 5 - dissipation rate, m**2/s**3
 6 - kinematic heat conductance, m**2/s
 7 - modulus of horizontal velocity, m/s
 8 - Richardson number, n/d
   -0.000000   -0.00000  0.9730E-09  0.4159E-11  0.1222E-14  0.1000E-09  0.0000E+00  0.2068E+17
   -0.068746    0.32435  0.1506E-09  0.1194E-10  0.1149E-14  0.1000E-09  0.0000E+00  0.1872E+17
   -0.137492    0.64678  0.8016E-10  0.2722E-10  0.1731E-14  0.1000E-09  0.0000E+00  0.1667E+17
   -0.206239    0.96450  0.7026E-10  0.5389E-10  0.2977E-14  0.1000E-09  0.0000E+00  0.1468E+17
   -0.274986    1.27662  0.7037E-10  0.1002E-09  0.5222E-14  0.1000E-09  0.0000E+00  0.1276E+17
   -0.343735    1.58236  0.7029E-10  0.1804E-09  0.9107E-14  0.1000E-09  0.0000E+00  0.1094E+17
   -0.412483    1.88121  0.7020E-10  0.3195E-09  0.1574E-13  0.1000E-09  0.0000E+00  0.9231E+16
   -0.481232    2.17263  0.6997E-10  0.5603E-09  0.2701E-13  0.1000E-09  0.0000E+00  0.7630E+16
   -0.549982    2.45625  0.6950E-10  0.9752E-09  0.4604E-13  0.1000E-09  0.0000E+00  0.6150E+16
   -0.618732    2.73207  0.6872E-10  0.1681E-08  0.7774E-13  0.1000E-09  0.0000E+00  0.4791E+16
   -0.687482    3.00027  0.6772E-10  0.2875E-08  0.1303E-12  0.1873E-09  0.0000E+00  0.3542E+16
   -0.756233    3.26094  0.6690E-10  0.4886E-08  0.2170E-12  0.4593E-09  0.0000E+00  0.2407E+16
   -0.824984    3.51531  0.6653E-10  0.8249E-08  0.3592E-12  0.1352E-08  0.0000E+00  0.1354E+16
   -0.893735    3.76277  0.6644E-10  0.1380E-07  0.5892E-12  0.7678E-08  0.0000E+00  0.3917E+15
   -0.962486    3.99527  0.6643E-10  0.1412E-07  0.6035E-12  0.1148E-03  0.0000E+00 -0.4255E+11
   -1.031238    3.99557  0.6643E-10  0.1426E-07  0.6110E-12  0.1249E-03  0.0000E+00 -0.4019E+11
   -1.099990    3.99585  0.6643E-10  0.1438E-07  0.6186E-12  0.1263E-03  0.0000E+00 -0.4090E+11
   -1.168742    3.99612  0.6643E-10  0.1449E-07  0.6266E-12  0.1266E-03  0.0000E+00 -0.4196E+11
   -1.237494    3.99639  0.6643E-10  0.1459E-07  0.6352E-12  0.1266E-03  0.0000E+00 -0.4309E+11
   -1.306246    3.99666  0.6643E-10  0.1468E-07  0.6445E-12  0.1265E-03  0.0000E+00 -0.4431E+11
   -1.374998    3.99693  0.6643E-10  0.1476E-07  0.6546E-12  0.1261E-03  0.0000E+00 -0.4561E+11
   -1.443751    3.99720  0.6643E-10  0.1484E-07  0.6656E-12  0.1254E-03  0.0000E+00 -0.4694E+11
   -1.512503    3.99747  0.6643E-10  0.1490E-07  0.6775E-12  0.1244E-03  0.0000E+00 -0.4840E+11
   -1.581255    3.99775  0.6643E-10  0.1496E-07  0.6905E-12  0.1232E-03  0.0000E+00 -0.5000E+11
   -1.650007    3.99802  0.6643E-10  0.1501E-07  0.7046E-12  0.1217E-03  0.0000E+00 -0.5177E+11
   -1.718759    3.99830  0.6643E-10  0.1505E-07  0.7199E-12  0.1199E-03  0.0000E+00 -0.5372E+11
   -1.787511    3.99858  0.6643E-10  0.1508E-07  0.7367E-12  0.1178E-03  0.0000E+00 -0.5590E+11
   -1.856262    3.99887  0.6643E-10  0.1509E-07  0.7553E-12  0.1154E-03  0.0000E+00 -0.5834E+11
   -1.925013    3.99917  0.6643E-10  0.1510E-07  0.7761E-12  0.1126E-03  0.0000E+00 -0.6113E+11
   -1.993764    3.99947  0.6643E-10  0.1509E-07  0.8004E-12  0.1094E-03  0.0000E+00 -0.6438E+11
   -2.062515    3.99977  0.6643E-10  0.1506E-07  0.8302E-12  0.1047E-03  0.0000E+00 -0.6896E+11
   -2.131265    4.00010  0.6643E-10  0.1500E-07  0.8690E-12  0.9465E-04  0.0000E+00 -0.7846E+11
   -2.200015    4.00046  0.6643E-10  0.1491E-07  0.9195E-12  0.8189E-04  0.0000E+00 -0.9359E+11
   -2.268765    4.00088  0.6643E-10  0.1477E-07  0.9864E-12  0.7035E-04  0.0000E+00 -0.1131E+12
   -2.337514    4.00136  0.6643E-10  0.1457E-07  0.1078E-11  0.5995E-04  0.0000E+00 -0.1387E+12
   -2.406262    4.00194  0.6643E-10  0.1427E-07  0.1211E-11  0.4918E-04  0.0000E+00 -0.1785E+12
   -2.475010    4.00265  0.6643E-10  0.1381E-07  0.1424E-11  0.3716E-04  0.0000E+00 -0.2536E+12
   -2.543758    4.00362  0.6643E-10  0.1301E-07  0.1826E-11  0.2363E-04  0.0000E+00 -0.4395E+12
   -2.612505    4.00517  0.6643E-10  0.1144E-07  0.2774E-11  0.1055E-04  0.0000E+00 -0.1150E+13
   -2.681251    4.00873  0.6643E-10  0.5420E-08  0.8545E-11  0.6436E-06  0.0000E+00 -0.3794E+14
   -2.749997    4.05945  0.6643E-10  0.0000E+00  0.0000E+00  0.0000E+00  0.0000E+00  0.0000E+00
