 1 - depth, m
 2 - temperature, C
 3 - salinity, kg/kg
 4 - turbulent kinetic energy, m**2/s**2
 5 - dissipation rate, m**2/s**3
 6 - kinematic heat conductance, m**2/s
 7 - modulus of horizontal velocity, m/s
 8 - Richardson number, n/d
   -0.000000   11.13269  0.7920E-10  0.1810E-03  0.6440E-04  0.9166E-04  0.1275E+00 -0.1560E-02
   -0.068746   11.16855  0.7921E-10  0.1006E-03  0.1589E-04  0.1820E-03  0.4323E-01 -0.8065E-02
   -0.137493   11.17494  0.7921E-10  0.7279E-04  0.6789E-05  0.1773E-03  0.3331E-01 -0.2681E+00
   -0.206240   11.17965  0.7921E-10  0.5520E-04  0.3301E-05  0.1824E-03  0.2768E-01 -0.1977E-01
   -0.274988   11.18337  0.7922E-10  0.4339E-04  0.1741E-05  0.1971E-03  0.2361E-01 -0.2920E-01
   -0.343737   11.18647  0.7922E-10  0.3553E-04  0.9919E-06  0.2148E-03  0.2050E-01 -0.3689E-01
   -0.412486   11.18913  0.7922E-10  0.3002E-04  0.6046E-06  0.2383E-03  0.1791E-01 -0.4874E-01
   -0.481235   11.19142  0.7922E-10  0.2609E-04  0.3920E-06  0.2675E-03  0.1578E-01 -0.6605E-01
   -0.549985   11.19339  0.7922E-10  0.2333E-04  0.2698E-06  0.2989E-03  0.1405E-01 -0.8360E-01
   -0.618735   11.19511  0.7922E-10  0.2136E-04  0.1964E-06  0.3312E-03  0.1259E-01 -0.9818E-01
   -0.687486   11.19662  0.7922E-10  0.1988E-04  0.1498E-06  0.3685E-03  0.1132E-01 -0.1083E+00
   -0.756237   11.19795  0.7922E-10  0.1869E-04  0.1186E-06  0.4256E-03  0.1020E-01  0.1969E+01
   -0.824989   11.19911  0.7922E-10  0.1772E-04  0.9688E-07  0.5507E-03  0.9218E-02  0.7155E+03
   -0.893740   11.20008  0.7922E-10  0.1688E-04  0.8107E-07  0.6199E-03  0.8359E-02  0.4493E+01
   -0.962492   11.20095  0.7922E-10  0.1613E-04  0.6905E-07  0.6862E-03  0.7583E-02  0.9965E+01
   -1.031244   11.20173  0.7922E-10  0.1542E-04  0.5955E-07  0.7412E-03  0.6878E-02  0.2120E+02
   -1.099997   11.20244  0.7922E-10  0.1475E-04  0.5183E-07  0.8174E-03  0.6236E-02  0.4611E+02
   -1.168749   11.20308  0.7922E-10  0.1413E-04  0.4554E-07  0.9090E-03  0.5672E-02  0.1640E+02
   -1.237502   11.20365  0.7922E-10  0.1355E-04  0.4036E-07  0.1019E-02  0.5172E-02  0.6120E+02
   -1.306254   11.20414  0.7922E-10  0.1303E-04  0.3608E-07  0.1138E-02  0.4725E-02  0.1583E+03
   -1.375007   11.20458  0.7922E-10  0.1254E-04  0.3250E-07  0.1248E-02  0.4321E-02  0.1559E+03
   -1.443759   11.20496  0.7922E-10  0.1209E-04  0.2948E-07  0.1345E-02  0.3951E-02  0.1648E+03
   -1.512512   11.20530  0.7922E-10  0.1167E-04  0.2691E-07  0.1427E-02  0.3609E-02  0.1744E+02
   -1.581264   11.20562  0.7922E-10  0.1127E-04  0.2469E-07  0.1481E-02  0.3290E-02  0.2160E+02
   -1.650017   11.20591  0.7922E-10  0.1089E-04  0.2277E-07  0.1504E-02  0.2989E-02  0.5923E+02
   -1.718769   11.20620  0.7922E-10  0.1052E-04  0.2111E-07  0.1512E-02  0.2703E-02  0.4343E+01
   -1.787521   11.20648  0.7922E-10  0.1016E-04  0.1968E-07  0.1511E-02  0.2432E-02  0.3901E+01
   -1.856273   11.20677  0.7922E-10  0.9812E-05  0.1845E-07  0.1498E-02  0.2173E-02  0.3777E+01
   -1.925025   11.20705  0.7922E-10  0.9466E-05  0.1741E-07  0.1475E-02  0.1925E-02  0.3739E+01
   -1.993776   11.20734  0.7922E-10  0.9123E-05  0.1654E-07  0.1441E-02  0.1685E-02  0.3752E+01
   -2.062527   11.20764  0.7922E-10  0.8780E-05  0.1585E-07  0.1418E-02  0.1453E-02  0.2726E+01
   -2.131278   11.20793  0.7922E-10  0.8430E-05  0.1531E-07  0.1390E-02  0.1243E-02  0.1901E+01
   -2.200028   11.20824  0.7922E-10  0.8079E-05  0.1495E-07  0.1360E-02  0.1059E-02  0.1398E+01
   -2.268778   11.20855  0.7922E-10  0.7734E-05  0.1482E-07  0.1299E-02  0.9020E-03  0.1068E+01
   -2.337528   11.20888  0.7922E-10  0.7402E-05  0.1495E-07  0.1188E-02  0.7704E-03  0.9485E+00
   -2.406277   11.20924  0.7922E-10  0.7086E-05  0.1540E-07  0.1057E-02  0.6626E-03  0.1096E+01
   -2.475025   11.20965  0.7922E-10  0.6782E-05  0.1626E-07  0.9276E-03  0.5796E-03  0.1847E+01
   -2.543773   11.21011  0.7922E-10  0.6436E-05  0.1789E-07  0.8233E-03  0.5184E-03  0.5095E+01
   -2.612521   11.21065  0.7922E-10  0.5891E-05  0.2193E-07  0.4588E-03  0.4710E-03  0.9772E+02
   -2.681267   11.21159  0.7922E-10  0.2705E-05  0.6395E-07  0.1630E-04  0.4124E-03 -0.9435E+04
   -2.750013   11.23828  0.7922E-10  0.0000E+00  0.0000E+00  0.0000E+00  0.4087E-03  0.0000E+00
