 1 - depth, m
 2 - temperature, C
 3 - salinity, kg/kg
 4 - turbulent kinetic energy, m**2/s**2
 5 - dissipation rate, m**2/s**3
 6 - kinematic heat conductance, m**2/s
 7 - modulus of horizontal velocity, m/s
 8 - Richardson number, n/d
   -0.000000   -0.00000  0.3174E-09  0.1056E-12  0.1403E-16  0.1000E-09  0.0000E+00  0.1448E+17
   -0.068746    0.22390  0.2047E-09  0.1954E-12  0.1621E-16  0.1000E-09  0.0000E+00  0.1361E+17
   -0.137492    0.44822  0.1183E-09  0.3913E-12  0.2646E-16  0.1000E-09  0.0000E+00  0.1264E+17
   -0.206239    0.67093  0.8470E-10  0.7619E-12  0.4765E-16  0.1000E-09  0.0000E+00  0.1167E+17
   -0.274987    0.89150  0.7470E-10  0.1448E-11  0.8714E-16  0.1000E-09  0.0000E+00  0.1070E+17
   -0.343735    1.10946  0.7212E-10  0.2704E-11  0.1585E-15  0.1000E-09  0.0000E+00  0.9766E+16
   -0.412484    1.32472  0.7150E-10  0.4994E-11  0.2862E-15  0.1000E-09  0.0000E+00  0.8851E+16
   -0.481233    1.53690  0.7136E-10  0.9148E-11  0.5130E-15  0.1000E-09  0.0000E+00  0.7962E+16
   -0.549983    1.74560  0.7132E-10  0.1664E-10  0.9136E-15  0.1000E-09  0.0000E+00  0.7114E+16
   -0.618733    1.95081  0.7130E-10  0.2997E-10  0.1611E-14  0.1000E-09  0.0000E+00  0.6308E+16
   -0.687483    2.15261  0.7126E-10  0.5357E-10  0.2821E-14  0.1000E-09  0.0000E+00  0.5539E+16
   -0.756234    2.35087  0.7119E-10  0.9512E-10  0.4907E-14  0.1000E-09  0.0000E+00  0.4825E+16
   -0.824985    2.54632  0.7104E-10  0.1678E-09  0.8484E-14  0.1000E-09  0.0000E+00  0.4141E+16
   -0.893736    2.73886  0.7077E-10  0.2944E-09  0.1458E-13  0.1000E-09  0.0000E+00  0.3487E+16
   -0.962488    2.92844  0.7034E-10  0.5132E-09  0.2491E-13  0.1000E-09  0.0000E+00  0.2863E+16
   -1.031240    3.11504  0.6978E-10  0.8892E-09  0.4231E-13  0.1005E-09  0.0000E+00  0.2271E+16
   -1.099992    3.29871  0.6923E-10  0.1536E-08  0.7164E-13  0.2137E-09  0.0000E+00  0.1707E+16
   -1.168744    3.47944  0.6885E-10  0.2642E-08  0.1208E-12  0.5253E-09  0.0000E+00  0.1171E+16
   -1.237496    3.65708  0.6868E-10  0.4520E-08  0.2027E-12  0.1558E-08  0.0000E+00  0.6625E+15
   -1.306248    3.83095  0.6862E-10  0.7661E-08  0.3370E-12  0.9104E-08  0.0000E+00  0.1889E+15
   -1.375001    3.99400  0.6861E-10  0.8001E-08  0.3528E-12  0.5857E-04  0.0000E+00 -0.5119E+11
   -1.443753    3.99442  0.6861E-10  0.8164E-08  0.3618E-12  0.6042E-04  0.0000E+00 -0.5214E+11
   -1.512505    3.99482  0.6861E-10  0.8314E-08  0.3716E-12  0.6178E-04  0.0000E+00 -0.5339E+11
   -1.581257    3.99521  0.6861E-10  0.8452E-08  0.3824E-12  0.6266E-04  0.0000E+00 -0.5496E+11
   -1.650009    3.99560  0.6861E-10  0.8576E-08  0.3942E-12  0.6304E-04  0.0000E+00 -0.5693E+11
   -1.718761    3.99599  0.6861E-10  0.8688E-08  0.4070E-12  0.6296E-04  0.0000E+00 -0.5931E+11
   -1.787513    3.99637  0.6861E-10  0.8786E-08  0.4212E-12  0.6238E-04  0.0000E+00 -0.6221E+11
   -1.856265    3.99676  0.6861E-10  0.8869E-08  0.4367E-12  0.6136E-04  0.0000E+00 -0.6570E+11
   -1.925016    3.99715  0.6861E-10  0.8937E-08  0.4540E-12  0.5985E-04  0.0000E+00 -0.6994E+11
   -1.993767    3.99756  0.6861E-10  0.8988E-08  0.4734E-12  0.5788E-04  0.0000E+00 -0.7510E+11
   -2.062518    3.99798  0.6861E-10  0.9021E-08  0.4956E-12  0.5550E-04  0.0000E+00 -0.8163E+11
   -2.131268    3.99842  0.6861E-10  0.9034E-08  0.5226E-12  0.5251E-04  0.0000E+00 -0.9031E+11
   -2.200018    3.99888  0.6861E-10  0.9023E-08  0.5565E-12  0.4876E-04  0.0000E+00 -0.1022E+12
   -2.268768    3.99939  0.6861E-10  0.8981E-08  0.6002E-12  0.4420E-04  0.0000E+00 -0.1191E+12
   -2.337517    3.99996  0.6861E-10  0.8895E-08  0.6593E-12  0.3872E-04  0.0000E+00 -0.1450E+12
   -2.406266    4.00062  0.6861E-10  0.8742E-08  0.7446E-12  0.3222E-04  0.0000E+00 -0.1883E+12
   -2.475014    4.00144  0.6861E-10  0.8477E-08  0.8808E-12  0.2459E-04  0.0000E+00 -0.2732E+12
   -2.543762    4.00255  0.6861E-10  0.7976E-08  0.1140E-11  0.1565E-04  0.0000E+00 -0.4923E+12
   -2.612509    4.00439  0.6861E-10  0.6930E-08  0.1763E-11  0.6751E-05  0.0000E+00 -0.1409E+13
   -2.681255    4.00882  0.6861E-10  0.3429E-08  0.5156E-11  0.4800E-06  0.0000E+00 -0.4112E+14
   -2.750001    4.06220  0.6861E-10  0.0000E+00  0.0000E+00  0.0000E+00  0.0000E+00  0.0000E+00
