 1 - depth, m
 2 - temperature, C
 3 - salinity, kg/kg
 4 - turbulent kinetic energy, m**2/s**2
 5 - dissipation rate, m**2/s**3
 6 - kinematic heat conductance, m**2/s
 7 - modulus of horizontal velocity, m/s
 8 - Richardson number, n/d
   -0.000000   17.55394  0.6805E-10  0.5260E-04  0.9865E-05  0.6201E-04  0.5599E-01 -0.8169E-01
   -0.068746   17.60807  0.6805E-10  0.3047E-04  0.2110E-05  0.8358E-04  0.2384E-01 -0.5131E-01
   -0.137492   17.62346  0.6805E-10  0.2345E-04  0.8020E-06  0.1203E-03  0.1728E-01 -0.9788E-01
   -0.206239   17.63378  0.6805E-10  0.1944E-04  0.3791E-06  0.1709E-03  0.1344E-01 -0.1646E+00
   -0.274987   17.64117  0.6805E-10  0.1707E-04  0.2114E-06  0.2505E-03  0.1093E-01 -0.2045E+00
   -0.343735   17.64636  0.6805E-10  0.1574E-04  0.1368E-06  0.4793E-03  0.9256E-02  0.1583E+03
   -0.412483   17.64959  0.6805E-10  0.1504E-04  0.9984E-07  0.6951E-03  0.8158E-02  0.6270E+02
   -0.481232   17.65166  0.6805E-10  0.1467E-04  0.7914E-07  0.8822E-03  0.7382E-02  0.4060E+02
   -0.549982   17.65307  0.6805E-10  0.1452E-04  0.6622E-07  0.1048E-02  0.6782E-02  0.1820E+02
   -0.618732   17.65414  0.6805E-10  0.1449E-04  0.5726E-07  0.1160E-02  0.6271E-02  0.4802E+01
   -0.687482   17.65505  0.6805E-10  0.1453E-04  0.5048E-07  0.1229E-02  0.5796E-02  0.4435E+01
   -0.756233   17.65589  0.6805E-10  0.1459E-04  0.4515E-07  0.1287E-02  0.5351E-02  0.4554E+01
   -0.824984   17.65667  0.6805E-10  0.1466E-04  0.4084E-07  0.1344E-02  0.4933E-02  0.4704E+01
   -0.893735   17.65739  0.6805E-10  0.1472E-04  0.3729E-07  0.1399E-02  0.4537E-02  0.4868E+01
   -0.962487   17.65807  0.6805E-10  0.1475E-04  0.3429E-07  0.1454E-02  0.4160E-02  0.5060E+01
   -1.031238   17.65870  0.6805E-10  0.1474E-04  0.3172E-07  0.1510E-02  0.3797E-02  0.5078E+01
   -1.099990   17.65930  0.6805E-10  0.1469E-04  0.2947E-07  0.1579E-02  0.3452E-02  0.4493E+01
   -1.168742   17.65986  0.6805E-10  0.1461E-04  0.2751E-07  0.1644E-02  0.3134E-02  0.4033E+01
   -1.237494   17.66038  0.6805E-10  0.1448E-04  0.2581E-07  0.1704E-02  0.2842E-02  0.3659E+01
   -1.306246   17.66087  0.6805E-10  0.1431E-04  0.2432E-07  0.1758E-02  0.2573E-02  0.3344E+01
   -1.374999   17.66134  0.6805E-10  0.1411E-04  0.2304E-07  0.1806E-02  0.2326E-02  0.3073E+01
   -1.443751   17.66179  0.6805E-10  0.1387E-04  0.2194E-07  0.1847E-02  0.2098E-02  0.2834E+01
   -1.512503   17.66221  0.6805E-10  0.1361E-04  0.2101E-07  0.1882E-02  0.1889E-02  0.2621E+01
   -1.581255   17.66262  0.6805E-10  0.1331E-04  0.2025E-07  0.1912E-02  0.1698E-02  0.2428E+01
   -1.650007   17.66302  0.6805E-10  0.1300E-04  0.1963E-07  0.1937E-02  0.1522E-02  0.2251E+01
   -1.718759   17.66340  0.6805E-10  0.1266E-04  0.1917E-07  0.1960E-02  0.1361E-02  0.2087E+01
   -1.787511   17.66376  0.6805E-10  0.1231E-04  0.1886E-07  0.1983E-02  0.1213E-02  0.1934E+01
   -1.856262   17.66412  0.6805E-10  0.1196E-04  0.1870E-07  0.2005E-02  0.1077E-02  0.1791E+01
   -1.925014   17.66446  0.6805E-10  0.1160E-04  0.1869E-07  0.2010E-02  0.9522E-03  0.1653E+01
   -1.993764   17.66479  0.6805E-10  0.1124E-04  0.1884E-07  0.1969E-02  0.8368E-03  0.1521E+01
   -2.062515   17.66512  0.6805E-10  0.1090E-04  0.1915E-07  0.1871E-02  0.7307E-03  0.1303E+01
   -2.131265   17.66545  0.6805E-10  0.1056E-04  0.1964E-07  0.1715E-02  0.6400E-03  0.1093E+01
   -2.200015   17.66581  0.6805E-10  0.1025E-04  0.2031E-07  0.1560E-02  0.5657E-03  0.9235E+00
   -2.268765   17.66621  0.6805E-10  0.9947E-05  0.2121E-07  0.1438E-02  0.5063E-03  0.8705E+00
   -2.337514   17.66662  0.6805E-10  0.9625E-05  0.2252E-07  0.1303E-02  0.4581E-03  0.9366E+01
   -2.406263   17.66708  0.6805E-10  0.9237E-05  0.2466E-07  0.1157E-02  0.4137E-03  0.3248E+01
   -2.475011   17.66759  0.6805E-10  0.8709E-05  0.2886E-07  0.9060E-03  0.3718E-03  0.3886E+04
   -2.543758   17.66836  0.6805E-10  0.7888E-05  0.3765E-07  0.7358E-03  0.3262E-03  0.1716E+04
   -2.612505   17.66917  0.6805E-10  0.6489E-05  0.6267E-07  0.3574E-03  0.2902E-03  0.2025E+03
   -2.681252   17.67286  0.6805E-10  0.3131E-05  0.1941E-06  0.5437E-04  0.2317E-03 -0.4413E+04
   -2.749997   17.68412  0.6805E-10  0.0000E+00  0.0000E+00  0.0000E+00  0.2578E-03  0.0000E+00
