 1 - depth, m
 2 - temperature, C
 3 - salinity, kg/kg
 4 - turbulent kinetic energy, m**2/s**2
 5 - dissipation rate, m**2/s**3
 6 - kinematic heat conductance, m**2/s
 7 - modulus of horizontal velocity, m/s
 8 - Richardson number, n/d
   -0.000000   -0.00000  0.5165E-10  0.1219E-13  0.7603E-17  0.1000E-09  0.0000E+00  0.1047E+17
   -0.068746    0.16045  0.1524E-09  0.1219E-13  0.7603E-17  0.1000E-09  0.0000E+00  0.1043E+17
   -0.137493    0.32787  0.1524E-09  0.1219E-13  0.7603E-17  0.1000E-09  0.0000E+00  0.1020E+17
   -0.206241    0.49978  0.1281E-09  0.1219E-13  0.7603E-17  0.1000E-09  0.0000E+00  0.9849E+16
   -0.274989    0.67480  0.1040E-09  0.1219E-13  0.7603E-17  0.1000E-09  0.0000E+00  0.9404E+16
   -0.343738    0.85154  0.8726E-10  0.1219E-13  0.7603E-17  0.1000E-09  0.0000E+00  0.8909E+16
   -0.412487    1.02926  0.7805E-10  0.2340E-13  0.7603E-17  0.1000E-09  0.0000E+00  0.8356E+16
   -0.481237    1.20680  0.7383E-10  0.8366E-13  0.9070E-17  0.1000E-09  0.0000E+00  0.7768E+16
   -0.549987    1.38321  0.7215E-10  0.2036E-12  0.1648E-16  0.1000E-09  0.0000E+00  0.7180E+16
   -0.618737    1.55816  0.7155E-10  0.4306E-12  0.3190E-16  0.1000E-09  0.0000E+00  0.6604E+16
   -0.687488    1.73155  0.7133E-10  0.8643E-12  0.6157E-16  0.1000E-09  0.0000E+00  0.6033E+16
   -0.756239    1.90302  0.7120E-10  0.1697E-11  0.1176E-15  0.1000E-09  0.0000E+00  0.5480E+16
   -0.824991    2.07254  0.7105E-10  0.3290E-11  0.2227E-15  0.1000E-09  0.0000E+00  0.4941E+16
   -0.893743    2.23992  0.7083E-10  0.6321E-11  0.4183E-15  0.1000E-09  0.0000E+00  0.4418E+16
   -0.962495    2.40497  0.7053E-10  0.1205E-10  0.7799E-15  0.1000E-09  0.0000E+00  0.3913E+16
   -1.031247    2.56754  0.7014E-10  0.2280E-10  0.1444E-14  0.1000E-09  0.0000E+00  0.3422E+16
   -1.100000    2.72726  0.6971E-10  0.4297E-10  0.2661E-14  0.1000E-09  0.0000E+00  0.2941E+16
   -1.168752    2.88327  0.6932E-10  0.8056E-10  0.4881E-14  0.1000E-09  0.0000E+00  0.2485E+16
   -1.237505    3.03522  0.6901E-10  0.1501E-09  0.8896E-14  0.1000E-09  0.0000E+00  0.2056E+16
   -1.306258    3.18278  0.6881E-10  0.2777E-09  0.1611E-13  0.1000E-09  0.0000E+00  0.1658E+16
   -1.375011    3.32567  0.6870E-10  0.5104E-09  0.2899E-13  0.1137E-09  0.0000E+00  0.1299E+16
   -1.443763    3.46468  0.6864E-10  0.9320E-09  0.5182E-13  0.2701E-09  0.0000E+00  0.9781E+15
   -1.512516    3.60144  0.6862E-10  0.1690E-08  0.9203E-13  0.6951E-09  0.0000E+00  0.6754E+15
   -1.581269    3.73663  0.6862E-10  0.3044E-08  0.1623E-12  0.2154E-08  0.0000E+00  0.3847E+15
   -1.650022    3.87065  0.6861E-10  0.5412E-08  0.2829E-12  0.1394E-07  0.0000E+00  0.1042E+15
   -1.718774    3.99614  0.6861E-10  0.5816E-08  0.3050E-12  0.4007E-04  0.0000E+00 -0.7690E+11
   -1.787526    3.99663  0.6861E-10  0.5998E-08  0.3170E-12  0.4090E-04  0.0000E+00 -0.7810E+11
   -1.856278    3.99710  0.6861E-10  0.6154E-08  0.3299E-12  0.4118E-04  0.0000E+00 -0.8016E+11
   -1.925030    3.99757  0.6861E-10  0.6285E-08  0.3438E-12  0.4090E-04  0.0000E+00 -0.8316E+11
   -1.993782    3.99803  0.6861E-10  0.6392E-08  0.3591E-12  0.4010E-04  0.0000E+00 -0.8725E+11
   -2.062533    3.99850  0.6861E-10  0.6477E-08  0.3764E-12  0.3907E-04  0.0000E+00 -0.9311E+11
   -2.131284    3.99898  0.6861E-10  0.6541E-08  0.3972E-12  0.3757E-04  0.0000E+00 -0.1014E+12
   -2.200035    3.99948  0.6861E-10  0.6581E-08  0.4230E-12  0.3542E-04  0.0000E+00 -0.1132E+12
   -2.268785    4.00002  0.6861E-10  0.6593E-08  0.4561E-12  0.3256E-04  0.0000E+00 -0.1303E+12
   -2.337534    4.00062  0.6861E-10  0.6565E-08  0.5004E-12  0.2891E-04  0.0000E+00 -0.1567E+12
   -2.406284    4.00130  0.6861E-10  0.6481E-08  0.5641E-12  0.2437E-04  0.0000E+00 -0.2015E+12
   -2.475032    4.00214  0.6861E-10  0.6303E-08  0.6651E-12  0.1884E-04  0.0000E+00 -0.2899E+12
   -2.543781    4.00327  0.6861E-10  0.5933E-08  0.8569E-12  0.1210E-04  0.0000E+00 -0.5202E+12
   -2.612528    4.00513  0.6861E-10  0.5120E-08  0.1318E-11  0.5175E-05  0.0000E+00 -0.1506E+13
   -2.681275    4.00969  0.6861E-10  0.2567E-08  0.3669E-11  0.3893E-06  0.0000E+00 -0.3858E+14
   -2.750021    4.06030  0.6861E-10  0.0000E+00  0.0000E+00  0.0000E+00  0.0000E+00  0.0000E+00
