 1 - depth, m
 2 - temperature, C
 3 - salinity, kg/kg
 4 - turbulent kinetic energy, m**2/s**2
 5 - dissipation rate, m**2/s**3
 6 - kinematic heat conductance, m**2/s
 7 - modulus of horizontal velocity, m/s
 8 - Richardson number, n/d
   -0.000000   -0.00000  0.1879E-09  0.7065E-12  0.1382E-15  0.1000E-09  0.0000E+00  0.1496E+17
   -0.068746    0.23165  0.3616E-09  0.1591E-11  0.1443E-15  0.1000E-09  0.0000E+00  0.1450E+17
   -0.137493    0.47163  0.2121E-09  0.3425E-11  0.2288E-15  0.1000E-09  0.0000E+00  0.1379E+17
   -0.206240    0.71728  0.1118E-09  0.6780E-11  0.4070E-15  0.1000E-09  0.0000E+00  0.1295E+17
   -0.274988    0.96710  0.7926E-10  0.1284E-10  0.7365E-15  0.1000E-09  0.0000E+00  0.1198E+17
   -0.343737    1.21930  0.7181E-10  0.2377E-10  0.1326E-14  0.1000E-09  0.0000E+00  0.1094E+17
   -0.412486    1.47270  0.7036E-10  0.4340E-10  0.2368E-14  0.1000E-09  0.0000E+00  0.9818E+16
   -0.481235    1.72534  0.6990E-10  0.7861E-10  0.4203E-14  0.1000E-09  0.0000E+00  0.8659E+16
   -0.549985    1.97538  0.6941E-10  0.1415E-09  0.7415E-14  0.1000E-09  0.0000E+00  0.7511E+16
   -0.618735    2.22181  0.6873E-10  0.2522E-09  0.1297E-13  0.1000E-09  0.0000E+00  0.6397E+16
   -0.687486    2.46383  0.6794E-10  0.4467E-09  0.2253E-13  0.1000E-09  0.0000E+00  0.5319E+16
   -0.756237    2.70025  0.6722E-10  0.7864E-09  0.3891E-13  0.1000E-09  0.0000E+00  0.4315E+16
   -0.824988    2.93124  0.6676E-10  0.1377E-08  0.6684E-13  0.1020E-09  0.0000E+00  0.3371E+16
   -0.893740    3.15609  0.6654E-10  0.2398E-08  0.1142E-12  0.2330E-09  0.0000E+00  0.2497E+16
   -0.962492    3.37465  0.6646E-10  0.4152E-08  0.1940E-12  0.5816E-09  0.0000E+00  0.1701E+16
   -1.031244    3.58789  0.6643E-10  0.7146E-08  0.3278E-12  0.1727E-08  0.0000E+00  0.9688E+15
   -1.099996    3.79739  0.6643E-10  0.1222E-07  0.5504E-12  0.1008E-07  0.0000E+00  0.2794E+15
   -1.168749    3.99698  0.6643E-10  0.1256E-07  0.5667E-12  0.1029E-03  0.0000E+00 -0.5012E+11
   -1.237501    3.99728  0.6643E-10  0.1271E-07  0.5751E-12  0.1088E-03  0.0000E+00 -0.4831E+11
   -1.306254    3.99755  0.6643E-10  0.1283E-07  0.5834E-12  0.1089E-03  0.0000E+00 -0.4912E+11
   -1.375006    3.99783  0.6643E-10  0.1294E-07  0.5922E-12  0.1091E-03  0.0000E+00 -0.4997E+11
   -1.443759    3.99810  0.6643E-10  0.1304E-07  0.6016E-12  0.1091E-03  0.0000E+00 -0.5110E+11
   -1.512511    3.99838  0.6643E-10  0.1313E-07  0.6119E-12  0.1088E-03  0.0000E+00 -0.5237E+11
   -1.581264    3.99865  0.6643E-10  0.1321E-07  0.6231E-12  0.1082E-03  0.0000E+00 -0.5380E+11
   -1.650016    3.99893  0.6643E-10  0.1327E-07  0.6353E-12  0.1073E-03  0.0000E+00 -0.5541E+11
   -1.718769    3.99920  0.6643E-10  0.1333E-07  0.6486E-12  0.1062E-03  0.0000E+00 -0.5723E+11
   -1.787521    3.99948  0.6643E-10  0.1337E-07  0.6634E-12  0.1046E-03  0.0000E+00 -0.5930E+11
   -1.856273    3.99977  0.6643E-10  0.1341E-07  0.6801E-12  0.1027E-03  0.0000E+00 -0.6169E+11
   -1.925024    4.00006  0.6643E-10  0.1343E-07  0.6993E-12  0.1004E-03  0.0000E+00 -0.6450E+11
   -1.993776    4.00036  0.6643E-10  0.1343E-07  0.7222E-12  0.9755E-04  0.0000E+00 -0.6782E+11
   -2.062527    4.00066  0.6643E-10  0.1342E-07  0.7498E-12  0.9118E-04  0.0000E+00 -0.7436E+11
   -2.131277    4.00099  0.6643E-10  0.1338E-07  0.7847E-12  0.8170E-04  0.0000E+00 -0.8533E+11
   -2.200028    4.00135  0.6643E-10  0.1331E-07  0.8294E-12  0.7205E-04  0.0000E+00 -0.9986E+11
   -2.268778    4.00177  0.6643E-10  0.1319E-07  0.8882E-12  0.6324E-04  0.0000E+00 -0.1180E+12
   -2.337527    4.00225  0.6643E-10  0.1302E-07  0.9684E-12  0.5459E-04  0.0000E+00 -0.1428E+12
   -2.406276    4.00282  0.6643E-10  0.1276E-07  0.1084E-11  0.4507E-04  0.0000E+00 -0.1824E+12
   -2.475025    4.00351  0.6643E-10  0.1234E-07  0.1270E-11  0.3421E-04  0.0000E+00 -0.2577E+12
   -2.543773    4.00444  0.6643E-10  0.1162E-07  0.1620E-11  0.2183E-04  0.0000E+00 -0.4440E+12
   -2.612520    4.00594  0.6643E-10  0.1019E-07  0.2448E-11  0.9703E-05  0.0000E+00 -0.1160E+13
   -2.681267    4.00941  0.6643E-10  0.4807E-08  0.7406E-11  0.5908E-06  0.0000E+00 -0.3694E+14
   -2.750013    4.05878  0.6643E-10  0.0000E+00  0.0000E+00  0.0000E+00  0.0000E+00  0.0000E+00
