 1 - depth, m
 2 - temperature, C
 3 - salinity, kg/kg
 4 - turbulent kinetic energy, m**2/s**2
 5 - dissipation rate, m**2/s**3
 6 - kinematic heat conductance, m**2/s
 7 - modulus of horizontal velocity, m/s
 8 - Richardson number, n/d
   -0.000000   -0.00000  0.1581E-12  0.1219E-13  0.7603E-17  0.1000E-09  0.0000E+00  0.6666E+16
   -0.068746    0.10137  0.1511E-11  0.1219E-13  0.7603E-17  0.1000E-09  0.0000E+00  0.6604E+16
   -0.137493    0.20466  0.2878E-11  0.1219E-13  0.7603E-17  0.1000E-09  0.0000E+00  0.6526E+16
   -0.206240    0.30977  0.3665E-11  0.1219E-13  0.7603E-17  0.1000E-09  0.0000E+00  0.6431E+16
   -0.274988    0.41658  0.3881E-11  0.1219E-13  0.7603E-17  0.1000E-09  0.0000E+00  0.6320E+16
   -0.343736    0.52495  0.3762E-11  0.1219E-13  0.7603E-17  0.1000E-09  0.0000E+00  0.6192E+16
   -0.412485    0.63473  0.3524E-11  0.1219E-13  0.7603E-17  0.1000E-09  0.0000E+00  0.6049E+16
   -0.481234    0.74578  0.3293E-11  0.1219E-13  0.7603E-17  0.1000E-09  0.0000E+00  0.5893E+16
   -0.549984    0.85796  0.3121E-11  0.1219E-13  0.7603E-17  0.1000E-09  0.0000E+00  0.5724E+16
   -0.618734    0.97113  0.3012E-11  0.1219E-13  0.7603E-17  0.1000E-09  0.0000E+00  0.5544E+16
   -0.687485    1.08518  0.2950E-11  0.1219E-13  0.7603E-17  0.1000E-09  0.0000E+00  0.5355E+16
   -0.756236    1.19998  0.2919E-11  0.1219E-13  0.7603E-17  0.1000E-09  0.0000E+00  0.5157E+16
   -0.824987    1.31542  0.2903E-11  0.1219E-13  0.7603E-17  0.1000E-09  0.0000E+00  0.4952E+16
   -0.893739    1.43140  0.2896E-11  0.1219E-13  0.7603E-17  0.1000E-09  0.0000E+00  0.4740E+16
   -0.962490    1.54782  0.2892E-11  0.1219E-13  0.7603E-17  0.1000E-09  0.0000E+00  0.4524E+16
   -1.031242    1.66460  0.2888E-11  0.1219E-13  0.7603E-17  0.1000E-09  0.0000E+00  0.4303E+16
   -1.099995    1.78164  0.2884E-11  0.1219E-13  0.7603E-17  0.1000E-09  0.0000E+00  0.4079E+16
   -1.168747    1.89887  0.2879E-11  0.1219E-13  0.7603E-17  0.1000E-09  0.0000E+00  0.3853E+16
   -1.237499    2.01624  0.2873E-11  0.1219E-13  0.7603E-17  0.1000E-09  0.0000E+00  0.3626E+16
   -1.306252    2.13368  0.2865E-11  0.1219E-13  0.7603E-17  0.1000E-09  0.0000E+00  0.3397E+16
   -1.375004    2.25114  0.2857E-11  0.1219E-13  0.7603E-17  0.1000E-09  0.0000E+00  0.3169E+16
   -1.443757    2.36862  0.2848E-11  0.1219E-13  0.7603E-17  0.1000E-09  0.0000E+00  0.2941E+16
   -1.512509    2.48609  0.2840E-11  0.1219E-13  0.7603E-17  0.1000E-09  0.0000E+00  0.2714E+16
   -1.581262    2.60354  0.2832E-11  0.1219E-13  0.7603E-17  0.1000E-09  0.0000E+00  0.2487E+16
   -1.650014    2.72094  0.2826E-11  0.1219E-13  0.7603E-17  0.1000E-09  0.0000E+00  0.2262E+16
   -1.718766    2.83830  0.2820E-11  0.1219E-13  0.7603E-17  0.1000E-09  0.0000E+00  0.2036E+16
   -1.787518    2.95554  0.2816E-11  0.3379E-13  0.9444E-17  0.1000E-09  0.0000E+00  0.1784E+16
   -1.856270    3.07079  0.2813E-11  0.1201E-12  0.2784E-16  0.1000E-09  0.0000E+00  0.1539E+16
   -1.925021    3.18360  0.2810E-11  0.4007E-12  0.8832E-16  0.1000E-09  0.0000E+00  0.1301E+16
   -1.993773    3.29334  0.2808E-11  0.1306E-11  0.2777E-15  0.1000E-09  0.0000E+00  0.1079E+16
   -2.062524    3.39994  0.2806E-11  0.4096E-11  0.8422E-15  0.1000E-09  0.0000E+00  0.8940E+15
   -2.131274    3.50605  0.2805E-11  0.1262E-10  0.2511E-14  0.1000E-09  0.0000E+00  0.7136E+15
   -2.200024    3.61194  0.2804E-11  0.3836E-10  0.7387E-14  0.1000E-09  0.0000E+00  0.5351E+15
   -2.268774    3.71765  0.2804E-11  0.1162E-09  0.2167E-13  0.3071E-09  0.0000E+00  0.3576E+15
   -2.337524    3.82296  0.2803E-11  0.3541E-09  0.6401E-13  0.1779E-08  0.0000E+00  0.1817E+15
   -2.406273    3.92692  0.2803E-11  0.1058E-08  0.1861E-12  0.3817E-07  0.0000E+00  0.2350E+14
   -2.475021    4.00933  0.2803E-11  0.2158E-08  0.3841E-12  0.5565E-05  0.0000E+00 -0.9811E+12
   -2.543769    4.01190  0.2803E-11  0.2502E-08  0.5004E-12  0.5055E-05  0.0000E+00 -0.1179E+13
   -2.612516    4.01469  0.2803E-11  0.2529E-08  0.6870E-12  0.3195E-05  0.0000E+00 -0.2014E+13
   -2.681263    4.01891  0.2803E-11  0.1866E-08  0.1466E-11  0.5359E-06  0.0000E+00 -0.1222E+14
   -2.750009    4.03753  0.2803E-11  0.0000E+00  0.0000E+00  0.0000E+00  0.0000E+00  0.0000E+00
