 1 - depth, m
 2 - temperature, C
 3 - salinity, kg/kg
 4 - turbulent kinetic energy, m**2/s**2
 5 - dissipation rate, m**2/s**3
 6 - kinematic heat conductance, m**2/s
 7 - modulus of horizontal velocity, m/s
 8 - Richardson number, n/d
   -0.000000   -0.00000  0.9032E-10  0.1219E-13  0.7603E-17  0.1000E-09  0.0000E+00  0.7695E+16
   -0.068746    0.11727  0.6713E-10  0.1219E-13  0.7603E-17  0.1000E-09  0.0000E+00  0.7426E+16
   -0.137492    0.23416  0.5030E-10  0.1219E-13  0.7603E-17  0.1000E-09  0.0000E+00  0.7158E+16
   -0.206239    0.35063  0.4099E-10  0.1219E-13  0.7603E-17  0.1000E-09  0.0000E+00  0.6892E+16
   -0.274987    0.46663  0.3657E-10  0.1219E-13  0.7603E-17  0.1000E-09  0.0000E+00  0.6628E+16
   -0.343735    0.58214  0.3473E-10  0.1219E-13  0.7603E-17  0.1000E-09  0.0000E+00  0.6366E+16
   -0.412484    0.69712  0.3405E-10  0.1219E-13  0.7603E-17  0.1000E-09  0.0000E+00  0.6107E+16
   -0.481233    0.81157  0.3382E-10  0.1219E-13  0.7603E-17  0.1000E-09  0.0000E+00  0.5850E+16
   -0.549982    0.92544  0.3375E-10  0.1219E-13  0.7603E-17  0.1000E-09  0.0000E+00  0.5598E+16
   -0.618732    1.03873  0.3373E-10  0.1219E-13  0.7603E-17  0.1000E-09  0.0000E+00  0.5348E+16
   -0.687483    1.15142  0.3373E-10  0.1219E-13  0.7603E-17  0.1000E-09  0.0000E+00  0.5108E+16
   -0.756233    1.26360  0.3372E-10  0.1219E-13  0.7603E-17  0.1000E-09  0.0000E+00  0.4873E+16
   -0.824984    1.37532  0.3371E-10  0.1219E-13  0.7603E-17  0.1000E-09  0.0000E+00  0.4641E+16
   -0.893736    1.48657  0.3369E-10  0.1219E-13  0.7603E-17  0.1000E-09  0.0000E+00  0.4411E+16
   -0.962487    1.59731  0.3365E-10  0.1219E-13  0.7603E-17  0.1000E-09  0.0000E+00  0.4184E+16
   -1.031239    1.70753  0.3359E-10  0.1219E-13  0.7603E-17  0.1000E-09  0.0000E+00  0.3959E+16
   -1.099991    1.81719  0.3351E-10  0.1219E-13  0.7603E-17  0.1000E-09  0.0000E+00  0.3738E+16
   -1.168743    1.92626  0.3340E-10  0.1219E-13  0.7603E-17  0.1000E-09  0.0000E+00  0.3518E+16
   -1.237495    2.03468  0.3327E-10  0.1219E-13  0.7603E-17  0.1000E-09  0.0000E+00  0.3302E+16
   -1.306247    2.14243  0.3315E-10  0.1219E-13  0.7603E-17  0.1000E-09  0.0000E+00  0.3089E+16
   -1.375000    2.24945  0.3303E-10  0.1219E-13  0.7603E-17  0.1000E-09  0.0000E+00  0.2880E+16
   -1.443752    2.35576  0.3293E-10  0.1219E-13  0.7603E-17  0.1000E-09  0.0000E+00  0.2676E+16
   -1.512504    2.46133  0.3286E-10  0.1219E-13  0.7603E-17  0.1000E-09  0.0000E+00  0.2474E+16
   -1.581256    2.56609  0.3280E-10  0.1219E-13  0.7603E-17  0.1000E-09  0.0000E+00  0.2276E+16
   -1.650008    2.67000  0.3277E-10  0.1219E-13  0.7603E-17  0.1000E-09  0.0000E+00  0.2082E+16
   -1.718760    2.77298  0.3274E-10  0.1219E-13  0.7603E-17  0.1000E-09  0.0000E+00  0.1892E+16
   -1.787512    2.87501  0.3273E-10  0.1219E-13  0.7603E-17  0.1000E-09  0.0000E+00  0.1719E+16
   -1.856264    2.97678  0.3271E-10  0.1219E-13  0.7603E-17  0.1000E-09  0.0000E+00  0.1548E+16
   -1.925015    3.07827  0.3270E-10  0.1219E-13  0.7603E-17  0.1000E-09  0.0000E+00  0.1378E+16
   -1.993766    3.17948  0.3268E-10  0.1219E-13  0.7603E-17  0.1000E-09  0.0000E+00  0.1208E+16
   -2.062517    3.28020  0.3266E-10  0.1475E-13  0.7605E-17  0.1000E-09  0.0000E+00  0.1039E+16
   -2.131267    3.38030  0.3264E-10  0.6698E-13  0.2651E-16  0.1000E-09  0.0000E+00  0.8740E+15
   -2.200017    3.47972  0.3262E-10  0.2966E-12  0.1113E-15  0.1000E-09  0.0000E+00  0.7117E+15
   -2.268767    3.57836  0.3261E-10  0.1289E-11  0.4651E-15  0.1000E-09  0.0000E+00  0.5548E+15
   -2.337516    3.67649  0.3261E-10  0.5596E-11  0.1945E-14  0.1000E-09  0.0000E+00  0.4012E+15
   -2.406264    3.77422  0.3260E-10  0.2412E-10  0.8091E-14  0.1615E-09  0.0000E+00  0.2499E+15
   -2.475013    3.87161  0.3260E-10  0.1038E-09  0.3370E-13  0.1630E-08  0.0000E+00  0.1005E+15
   -2.543760    3.96790  0.3260E-10  0.4314E-09  0.1373E-12  0.2064E-06  0.0000E+00 -0.9004E+12
   -2.612507    4.00765  0.3260E-10  0.1190E-08  0.5194E-12  0.1021E-05  0.0000E+00 -0.5430E+13
   -2.681254    4.02020  0.3260E-10  0.1424E-08  0.1329E-11  0.4596E-06  0.0000E+00 -0.2199E+14
   -2.749999    4.04922  0.3260E-10  0.0000E+00  0.0000E+00  0.0000E+00  0.0000E+00  0.0000E+00
