 1 - depth, m
 2 - temperature, C
 3 - salinity, kg/kg
 4 - turbulent kinetic energy, m**2/s**2
 5 - dissipation rate, m**2/s**3
 6 - kinematic heat conductance, m**2/s
 7 - modulus of horizontal velocity, m/s
 8 - Richardson number, n/d
   -0.000000   -0.00000  0.2386E-11  0.4094E-06  0.5014E-08  0.2784E-05  0.5799E-02  0.2823E+04
   -0.068745    0.02751  0.2285E-11  0.3068E-06  0.1850E-08  0.3734E-05  0.3796E-02  0.1121E+04
   -0.137490    0.03981  0.2271E-11  0.2112E-06  0.8960E-09  0.3286E-05  0.2735E-02  0.5719E+03
   -0.206236    0.04848  0.2261E-11  0.1353E-06  0.4597E-09  0.2369E-05  0.1998E-02  0.5044E+03
   -0.274982    0.05644  0.2252E-11  0.7923E-07  0.2300E-09  0.1445E-05  0.1437E-02  0.6731E+03
   -0.343729    0.06443  0.2242E-11  0.4118E-07  0.1047E-09  0.7195E-06  0.9960E-03  0.1100E+04
   -0.412477    0.07262  0.2233E-11  0.1947E-07  0.3905E-10  0.2626E-06  0.6497E-03  0.1917E+04
   -0.481225    0.08108  0.2224E-11  0.1314E-07  0.9818E-11  0.6352E-07  0.3864E-03  0.3043E+04
   -0.549973    0.08962  0.2213E-11  0.1647E-07  0.2016E-11  0.2083E-04  0.2032E-03  0.2206E+05
   -0.618722    0.09735  0.2201E-11  0.2114E-07  0.1395E-11  0.6925E-04  0.9845E-04  0.9799E+05
   -0.687471    0.10326  0.2191E-11  0.2432E-07  0.1597E-11  0.1041E-03  0.4672E-04  0.1726E+08
   -0.756221    0.10707  0.2183E-11  0.2601E-07  0.1781E-11  0.1283E-03  0.2196E-04  0.6038E+06
   -0.824971    0.10912  0.2179E-11  0.2679E-07  0.1896E-11  0.1484E-03  0.1029E-04  0.1413E+07
   -0.893721    0.11007  0.2177E-11  0.2725E-07  0.1984E-11  0.1559E-03  0.4958E-05  0.1142E+07
   -0.962471    0.11048  0.2176E-11  0.2742E-07  0.2039E-11  0.1543E-03  0.2549E-05  0.3024E+07
   -1.031222    0.11064  0.2175E-11  0.2729E-07  0.2031E-11  0.1513E-03  0.1423E-05  0.6846E+07
   -1.099973    0.11073  0.2174E-11  0.2685E-07  0.1955E-11  0.1390E-03  0.8855E-06  0.1905E+08
   -1.168724    0.11089  0.2173E-11  0.2596E-07  0.1823E-11  0.8850E-04  0.6175E-06  0.1494E+07
   -1.237475    0.11154  0.2171E-11  0.2327E-07  0.1525E-11  0.2271E-07  0.3884E-06  0.8698E+07
   -1.306226    0.11583  0.2166E-11  0.1078E-07  0.7229E-12  0.4025E-08  0.1692E-06  0.1069E+09
   -1.374977    0.12640  0.2164E-11  0.4731E-08  0.3278E-12  0.9317E-09  0.7129E-07  0.1294E+10
   -1.443728    0.14898  0.2162E-11  0.2020E-08  0.1450E-12  0.2791E-09  0.2988E-07  0.1361E+11
   -1.512479    0.19073  0.2160E-11  0.8429E-09  0.6274E-13  0.1296E-09  0.1252E-07  0.1293E+12
   -1.581230    0.26089  0.2157E-11  0.3440E-09  0.2658E-13  0.1005E-09  0.5232E-08  0.1111E+13
   -1.649981    0.37095  0.2155E-11  0.1375E-09  0.1105E-13  0.1000E-09  0.2115E-08  0.7493E+13
   -1.718732    0.53362  0.2152E-11  0.5444E-10  0.4564E-14  0.1000E-09  0.6465E-09  0.5929E+14
   -1.787482    0.75592  0.2151E-11  0.2138E-10  0.1920E-14  0.1000E-09  0.4187E-10  0.4793E+16
   -1.856233    0.92691  0.2150E-11  0.8013E-11  0.9352E-15  0.1000E-09  0.2506E-11  0.6278E+16
   -1.924983    1.05509  0.2150E-11  0.3473E-11  0.1115E-14  0.1000E-09  0.1375E-12  0.4383E+16
   -1.993733    1.14876  0.2150E-11  0.7359E-11  0.4442E-14  0.1000E-09  0.8190E-14  0.4720E+16
   -2.062482    1.25373  0.2150E-11  0.4227E-10  0.2544E-13  0.1000E-09  0.6266E-15  0.9964E+16
   -2.131232    1.48891  0.2149E-11  0.2550E-09  0.1471E-12  0.1101E-09  0.4501E-16  0.1480E+17
   -2.199981    1.88782  0.2147E-11  0.1497E-08  0.8253E-12  0.2657E-09  0.3015E-17  0.1711E+17
   -2.268729    2.48005  0.2145E-11  0.8549E-08  0.4508E-11  0.2034E-08  0.1398E-18  0.1402E+17
   -2.337477    3.29071  0.2139E-11  0.3503E-07  0.1800E-10  0.2173E-05  0.5234E-20  0.4428E+16
   -2.406225    4.10076  0.2130E-11  0.5178E-07  0.2716E-10  0.4017E-04  0.2206E-21 -0.7817E+12
   -2.474972    4.11748  0.2130E-11  0.5769E-07  0.3231E-10  0.4106E-04  0.6474E-22 -0.8641E+13
   -2.543718    4.12205  0.2130E-11  0.6064E-07  0.3877E-10  0.3513E-04  0.1868E-22 -0.1090E+14
   -2.612464    4.12755  0.2130E-11  0.6034E-07  0.5201E-10  0.2294E-04  0.4363E-23 -0.1886E+14
   -2.681209    4.13651  0.2130E-11  0.4721E-07  0.1325E-09  0.4051E-05  0.6130E-24 -0.1586E+15
   -2.749954    4.19502  0.2130E-11  0.0000E+00  0.0000E+00  0.0000E+00  0.6190E-24  0.0000E+00
