 1 - depth, m
 2 - temperature, C
 3 - salinity, kg/kg
 4 - turbulent kinetic energy, m**2/s**2
 5 - dissipation rate, m**2/s**3
 6 - kinematic heat conductance, m**2/s
 7 - modulus of horizontal velocity, m/s
 8 - Richardson number, n/d
   -0.000000   -0.00000  0.3756E-10  0.2388E-07  0.6312E-10  0.3593E-07  0.1674E-05  0.3502E+16
   -0.068745    0.12483  0.2856E-10  0.1878E-06  0.3718E-10  0.5046E-07  0.1539E-05  0.1544E+16
   -0.137490    0.17920  0.2673E-10  0.5936E-06  0.2811E-10  0.2020E-06  0.1286E-05  0.3265E+15
   -0.206237    0.19106  0.2620E-10  0.6131E-06  0.2866E-10  0.3674E-02  0.9821E-06  0.2371E+13
   -0.274983    0.19208  0.2613E-10  0.6230E-06  0.2907E-10  0.3789E-02  0.6955E-06 -0.1695E+11
   -0.343731    0.19264  0.2608E-10  0.6317E-06  0.2945E-10  0.3874E-02  0.4499E-06 -0.4305E+11
   -0.412479    0.19303  0.2604E-10  0.6387E-06  0.2977E-10  0.3953E-02  0.2540E-06 -0.5808E+11
   -0.481227    0.19325  0.2601E-10  0.6419E-06  0.2991E-10  0.4029E-02  0.1203E-06 -0.6735E+11
   -0.549976    0.19330  0.2599E-10  0.6422E-06  0.2991E-10  0.4077E-02  0.7489E-07 -0.7175E+11
   -0.618725    0.19329  0.2599E-10  0.6423E-06  0.2991E-10  0.4081E-02  0.7444E-07 -0.7274E+11
   -0.687474    0.19329  0.2599E-10  0.6424E-06  0.2990E-10  0.4080E-02  0.7401E-07 -0.7083E+11
   -0.756224    0.19329  0.2599E-10  0.6424E-06  0.2989E-10  0.4079E-02  0.7363E-07 -0.6568E+11
   -0.824975    0.19328  0.2599E-10  0.6422E-06  0.2988E-10  0.4075E-02  0.7328E-07 -0.5906E+11
   -0.893725    0.19328  0.2599E-10  0.6420E-06  0.2986E-10  0.4067E-02  0.7298E-07 -0.4931E+11
   -0.962476    0.19328  0.2599E-10  0.6417E-06  0.2984E-10  0.4061E-02  0.7272E-07 -0.3776E+11
   -1.031227    0.19328  0.2599E-10  0.6414E-06  0.2982E-10  0.4055E-02  0.7250E-07 -0.2312E+11
   -1.099978    0.19328  0.2599E-10  0.6410E-06  0.2980E-10  0.4062E-02  0.7232E-07 -0.3792E+10
   -1.168729    0.19328  0.2599E-10  0.6407E-06  0.2978E-10  0.4148E-02  0.7219E-07  0.3566E+11
   -1.237480    0.19328  0.2599E-10  0.6402E-06  0.2976E-10  0.1661E-03  0.7210E-07  0.3920E+13
   -1.306232    0.19436  0.2594E-10  0.5921E-06  0.2767E-10  0.1359E-06  0.4357E-07  0.3991E+15
   -1.374983    0.21105  0.2572E-10  0.3606E-06  0.1699E-10  0.3213E-07  0.2166E-07  0.1088E+16
   -1.443735    0.25227  0.2554E-10  0.2052E-06  0.9801E-11  0.1116E-07  0.1027E-07  0.1834E+16
   -1.512486    0.32159  0.2548E-10  0.1140E-06  0.5526E-11  0.4319E-08  0.4756E-08  0.2699E+16
   -1.581237    0.42579  0.2545E-10  0.6256E-07  0.3080E-11  0.1774E-08  0.2157E-08  0.3715E+16
   -1.649989    0.57393  0.2542E-10  0.3413E-07  0.1709E-11  0.7762E-09  0.9256E-09  0.4815E+16
   -1.718740    0.77578  0.2539E-10  0.1871E-07  0.9579E-12  0.3828E-09  0.2925E-09  0.6172E+16
   -1.787491    1.03584  0.2538E-10  0.1026E-07  0.5472E-12  0.2784E-09  0.1904E-10  0.8469E+16
   -1.856242    1.26480  0.2537E-10  0.5430E-08  0.3234E-12  0.2063E-09  0.1145E-11  0.8888E+16
   -1.924992    1.47353  0.2537E-10  0.2693E-08  0.2241E-12  0.1680E-09  0.6307E-13  0.7932E+16
   -1.993742    1.67712  0.2537E-10  0.1362E-08  0.2511E-12  0.1696E-09  0.3774E-14  0.8667E+16
   -2.062492    1.92433  0.2536E-10  0.1681E-08  0.5908E-12  0.2631E-09  0.2904E-15  0.1180E+17
   -2.131242    2.32137  0.2535E-10  0.5975E-08  0.2278E-11  0.9623E-09  0.2097E-16  0.1281E+17
   -2.199991    2.91719  0.2532E-10  0.2547E-07  0.9509E-11  0.8966E-08  0.1412E-17  0.8282E+16
   -2.268740    3.71975  0.2524E-10  0.5117E-07  0.2027E-10  0.2645E-04  0.6551E-19  0.1317E+16
   -2.337488    4.11133  0.2520E-10  0.6049E-07  0.2460E-10  0.6180E-04  0.1885E-20 -0.4722E+13
   -2.406236    4.11377  0.2520E-10  0.6429E-07  0.2738E-10  0.6029E-04  0.7257E-21 -0.5056E+13
   -2.474983    4.11634  0.2520E-10  0.6674E-07  0.3102E-10  0.5453E-04  0.2630E-21 -0.5891E+13
   -2.543730    4.11927  0.2520E-10  0.6763E-07  0.3691E-10  0.4363E-04  0.8516E-22 -0.7922E+13
   -2.612476    4.12311  0.2520E-10  0.6582E-07  0.5010E-10  0.2696E-04  0.2143E-22 -0.1454E+14
   -2.681222    4.12990  0.2520E-10  0.4975E-07  0.1366E-09  0.4126E-05  0.3064E-23 -0.1458E+15
   -2.749967    4.18505  0.2520E-10  0.0000E+00  0.0000E+00  0.0000E+00  0.3089E-23  0.0000E+00
