 1 - depth, m
 2 - temperature, C
 3 - salinity, kg/kg
 4 - turbulent kinetic energy, m**2/s**2
 5 - dissipation rate, m**2/s**3
 6 - kinematic heat conductance, m**2/s
 7 - modulus of horizontal velocity, m/s
 8 - Richardson number, n/d
   -0.000000   -0.00000  0.1718E-09  0.1219E-13  0.7603E-17  0.1000E-09  0.0000E+00  0.3591E+16
   -0.068746    0.05426  0.9603E-10  0.1219E-13  0.7603E-17  0.1000E-09  0.0000E+00  0.3437E+16
   -0.137492    0.10696  0.7798E-10  0.1219E-13  0.7603E-17  0.1000E-09  0.0000E+00  0.3310E+16
   -0.206239    0.15844  0.7422E-10  0.1219E-13  0.7603E-17  0.1000E-09  0.0000E+00  0.3209E+16
   -0.274987    0.20907  0.7352E-10  0.1219E-13  0.7603E-17  0.1000E-09  0.0000E+00  0.3136E+16
   -0.343735    0.25925  0.7341E-10  0.1219E-13  0.7603E-17  0.1000E-09  0.0000E+00  0.3090E+16
   -0.412483    0.30941  0.7339E-10  0.1219E-13  0.7603E-17  0.1000E-09  0.0000E+00  0.3073E+16
   -0.481232    0.36002  0.7339E-10  0.1219E-13  0.7603E-17  0.1000E-09  0.0000E+00  0.3083E+16
   -0.549982    0.41157  0.7339E-10  0.1219E-13  0.7603E-17  0.1000E-09  0.0000E+00  0.3121E+16
   -0.618732    0.46456  0.7339E-10  0.1219E-13  0.7603E-17  0.1000E-09  0.0000E+00  0.3186E+16
   -0.687482    0.51954  0.7339E-10  0.1219E-13  0.7603E-17  0.1000E-09  0.0000E+00  0.3291E+16
   -0.756233    0.57733  0.7339E-10  0.1219E-13  0.7603E-17  0.1000E-09  0.0000E+00  0.3428E+16
   -0.824984    0.63865  0.7339E-10  0.1219E-13  0.7603E-17  0.1000E-09  0.0000E+00  0.3584E+16
   -0.893735    0.70404  0.7339E-10  0.1219E-13  0.7603E-17  0.1000E-09  0.0000E+00  0.3753E+16
   -0.962486    0.77402  0.7339E-10  0.1219E-13  0.7603E-17  0.1000E-09  0.0000E+00  0.3930E+16
   -1.031238    0.84908  0.7339E-10  0.1219E-13  0.7603E-17  0.1000E-09  0.0000E+00  0.4111E+16
   -1.099990    0.92967  0.7339E-10  0.1219E-13  0.7603E-17  0.1000E-09  0.0000E+00  0.4288E+16
   -1.168742    1.01617  0.7338E-10  0.1219E-13  0.7603E-17  0.1000E-09  0.0000E+00  0.4454E+16
   -1.237494    1.10892  0.7334E-10  0.1219E-13  0.7603E-17  0.1000E-09  0.0000E+00  0.4601E+16
   -1.306246    1.20815  0.7324E-10  0.1219E-13  0.7603E-17  0.1000E-09  0.0000E+00  0.4723E+16
   -1.374999    1.31400  0.7301E-10  0.1219E-13  0.7603E-17  0.1000E-09  0.0000E+00  0.4830E+16
   -1.443751    1.42699  0.7265E-10  0.1219E-13  0.7603E-17  0.1000E-09  0.0000E+00  0.4900E+16
   -1.512503    1.54719  0.7226E-10  0.1219E-13  0.7603E-17  0.1000E-09  0.0000E+00  0.4919E+16
   -1.581255    1.67443  0.7201E-10  0.1219E-13  0.7603E-17  0.1000E-09  0.0000E+00  0.4884E+16
   -1.650007    1.80837  0.7190E-10  0.1219E-13  0.7603E-17  0.1000E-09  0.0000E+00  0.4790E+16
   -1.718759    1.94860  0.7184E-10  0.1219E-13  0.7603E-17  0.1000E-09  0.0000E+00  0.4632E+16
   -1.787511    2.09444  0.7181E-10  0.1219E-13  0.7603E-17  0.1000E-09  0.0000E+00  0.4352E+16
   -1.856262    2.24290  0.7179E-10  0.1219E-13  0.7603E-17  0.1000E-09  0.0000E+00  0.4036E+16
   -1.925013    2.39327  0.7178E-10  0.1219E-13  0.7603E-17  0.1000E-09  0.0000E+00  0.3688E+16
   -1.993764    2.54472  0.7177E-10  0.1219E-13  0.7603E-17  0.1000E-09  0.0000E+00  0.3326E+16
   -2.062515    2.69687  0.7174E-10  0.1219E-13  0.7603E-17  0.1000E-09  0.0000E+00  0.3004E+16
   -2.131265    2.85208  0.7169E-10  0.1219E-13  0.7603E-17  0.1000E-09  0.0000E+00  0.2659E+16
   -2.200015    3.01024  0.7159E-10  0.4359E-13  0.3169E-16  0.1000E-09  0.0000E+00  0.2287E+16
   -2.268765    3.17091  0.7142E-10  0.2887E-12  0.2020E-15  0.1000E-09  0.0000E+00  0.1902E+16
   -2.337514    3.33446  0.7119E-10  0.1942E-11  0.1300E-14  0.1000E-09  0.0000E+00  0.1499E+16
   -2.406262    3.50127  0.7099E-10  0.1285E-10  0.8236E-14  0.1000E-09  0.0000E+00  0.1076E+16
   -2.475011    3.67195  0.7091E-10  0.8422E-10  0.5179E-13  0.4099E-09  0.0000E+00  0.6258E+15
   -2.543758    3.84768  0.7090E-10  0.5450E-09  0.3233E-12  0.1045E-07  0.0000E+00  0.1420E+15
   -2.612505    4.01979  0.7090E-10  0.2909E-08  0.1748E-11  0.1727E-05  0.0000E+00 -0.1004E+14
   -2.681251    4.03535  0.7090E-10  0.3866E-08  0.4789E-11  0.9587E-06  0.0000E+00 -0.3931E+14
   -2.749997    4.07250  0.7090E-10  0.0000E+00  0.0000E+00  0.0000E+00  0.0000E+00  0.0000E+00
