 1 - depth, m
 2 - temperature, C
 3 - salinity, kg/kg
 4 - turbulent kinetic energy, m**2/s**2
 5 - dissipation rate, m**2/s**3
 6 - kinematic heat conductance, m**2/s
 7 - modulus of horizontal velocity, m/s
 8 - Richardson number, n/d
   -0.000000   -0.00000  0.1806E-11  0.1219E-13  0.7603E-17  0.1000E-09  0.0000E+00  0.4071E+16
   -0.068746    0.06158  0.9878E-12  0.1219E-13  0.7603E-17  0.1000E-09  0.0000E+00  0.3879E+16
   -0.137492    0.12122  0.8024E-12  0.1219E-13  0.7603E-17  0.1000E-09  0.0000E+00  0.3723E+16
   -0.206239    0.17941  0.7634E-12  0.1219E-13  0.7603E-17  0.1000E-09  0.0000E+00  0.3606E+16
   -0.274986    0.23668  0.7563E-12  0.1219E-13  0.7603E-17  0.1000E-09  0.0000E+00  0.3526E+16
   -0.343735    0.29361  0.7551E-12  0.1219E-13  0.7603E-17  0.1000E-09  0.0000E+00  0.3486E+16
   -0.412483    0.35081  0.7550E-12  0.1219E-13  0.7603E-17  0.1000E-09  0.0000E+00  0.3485E+16
   -0.481232    0.40898  0.7549E-12  0.1219E-13  0.7603E-17  0.1000E-09  0.0000E+00  0.3524E+16
   -0.549982    0.46883  0.7549E-12  0.1219E-13  0.7603E-17  0.1000E-09  0.0000E+00  0.3602E+16
   -0.618732    0.53114  0.7549E-12  0.1219E-13  0.7603E-17  0.1000E-09  0.0000E+00  0.3717E+16
   -0.687482    0.59672  0.7549E-12  0.1219E-13  0.7603E-17  0.1000E-09  0.0000E+00  0.3884E+16
   -0.756233    0.66671  0.7549E-12  0.1219E-13  0.7603E-17  0.1000E-09  0.0000E+00  0.4092E+16
   -0.824984    0.74217  0.7549E-12  0.1219E-13  0.7603E-17  0.1000E-09  0.0000E+00  0.4323E+16
   -0.893735    0.82395  0.7549E-12  0.1219E-13  0.7603E-17  0.1000E-09  0.0000E+00  0.4571E+16
   -0.962486    0.91293  0.7549E-12  0.1219E-13  0.7603E-17  0.1000E-09  0.0000E+00  0.4828E+16
   -1.031238    1.00996  0.7549E-12  0.1219E-13  0.7603E-17  0.1000E-09  0.0000E+00  0.5084E+16
   -1.099990    1.11584  0.7548E-12  0.1219E-13  0.7603E-17  0.1000E-09  0.0000E+00  0.5325E+16
   -1.168742    1.23133  0.7542E-12  0.3783E-13  0.8652E-17  0.1000E-09  0.0000E+00  0.5540E+16
   -1.237494    1.35712  0.7527E-12  0.1182E-12  0.2142E-16  0.1000E-09  0.0000E+00  0.5714E+16
   -1.306246    1.49380  0.7495E-12  0.3337E-12  0.5710E-16  0.1000E-09  0.0000E+00  0.5832E+16
   -1.374998    1.64186  0.7445E-12  0.9095E-12  0.1504E-15  0.1000E-09  0.0000E+00  0.5902E+16
   -1.443751    1.80229  0.7399E-12  0.2435E-11  0.3904E-15  0.1000E-09  0.0000E+00  0.5886E+16
   -1.512503    1.97550  0.7374E-12  0.6426E-11  0.9999E-15  0.1000E-09  0.0000E+00  0.5762E+16
   -1.581255    2.16149  0.7361E-12  0.1674E-10  0.2529E-14  0.1000E-09  0.0000E+00  0.5518E+16
   -1.650007    2.36005  0.7353E-12  0.4304E-10  0.6315E-14  0.1000E-09  0.0000E+00  0.5143E+16
   -1.718759    2.57073  0.7347E-12  0.1093E-09  0.1558E-13  0.1000E-09  0.0000E+00  0.4635E+16
   -1.787510    2.79286  0.7345E-12  0.2815E-09  0.3899E-13  0.1000E-09  0.0000E+00  0.4005E+16
   -1.856262    3.02627  0.7343E-12  0.7283E-09  0.9804E-13  0.1534E-09  0.0000E+00  0.3253E+16
   -1.925013    3.27087  0.7341E-12  0.1875E-08  0.2455E-12  0.5266E-09  0.0000E+00  0.2374E+16
   -1.993764    3.52624  0.7334E-12  0.4796E-08  0.6110E-12  0.2288E-08  0.0000E+00  0.1360E+16
   -2.062515    3.78899  0.7316E-12  0.1175E-07  0.1461E-11  0.2512E-07  0.0000E+00  0.2969E+15
   -2.131265    4.01999  0.7310E-12  0.1337E-07  0.1672E-11  0.4400E-04  0.0000E+00 -0.4643E+12
   -2.200015    4.02086  0.7310E-12  0.1402E-07  0.1782E-11  0.4431E-04  0.0000E+00 -0.4755E+12
   -2.268765    4.02173  0.7310E-12  0.1451E-07  0.1903E-11  0.4339E-04  0.0000E+00 -0.5010E+12
   -2.337514    4.02262  0.7310E-12  0.1486E-07  0.2049E-11  0.4109E-04  0.0000E+00 -0.5466E+12
   -2.406262    4.02357  0.7310E-12  0.1507E-07  0.2243E-11  0.3720E-04  0.0000E+00 -0.6257E+12
   -2.475010    4.02463  0.7310E-12  0.1510E-07  0.2531E-11  0.3143E-04  0.0000E+00 -0.7726E+12
   -2.543758    4.02590  0.7310E-12  0.1488E-07  0.3034E-11  0.2344E-04  0.0000E+00 -0.1095E+13
   -2.612505    4.02762  0.7310E-12  0.1410E-07  0.4234E-11  0.1304E-04  0.0000E+00 -0.2154E+13
   -2.681251    4.03083  0.7310E-12  0.1042E-07  0.1174E-10  0.1832E-05  0.0000E+00 -0.2126E+14
   -2.749997    4.05486  0.7310E-12  0.0000E+00  0.0000E+00  0.0000E+00  0.0000E+00  0.0000E+00
