 1 - depth, m
 2 - temperature, C
 3 - salinity, kg/kg
 4 - turbulent kinetic energy, m**2/s**2
 5 - dissipation rate, m**2/s**3
 6 - kinematic heat conductance, m**2/s
 7 - modulus of horizontal velocity, m/s
 8 - Richardson number, n/d
   -0.000000   -0.00000  0.4705E-12  0.1219E-13  0.7603E-17  0.1000E-09  0.0000E+00  0.6797E+16
   -0.068746    0.10339  0.3105E-11  0.1219E-13  0.7603E-17  0.1000E-09  0.0000E+00  0.6726E+16
   -0.137493    0.20869  0.5437E-11  0.1219E-13  0.7603E-17  0.1000E-09  0.0000E+00  0.6635E+16
   -0.206240    0.31571  0.6597E-11  0.1219E-13  0.7603E-17  0.1000E-09  0.0000E+00  0.6526E+16
   -0.274988    0.42431  0.6793E-11  0.1219E-13  0.7603E-17  0.1000E-09  0.0000E+00  0.6400E+16
   -0.343736    0.53433  0.6490E-11  0.1219E-13  0.7603E-17  0.1000E-09  0.0000E+00  0.6259E+16
   -0.412485    0.64565  0.6048E-11  0.1219E-13  0.7603E-17  0.1000E-09  0.0000E+00  0.6105E+16
   -0.481234    0.75813  0.5656E-11  0.1219E-13  0.7603E-17  0.1000E-09  0.0000E+00  0.5937E+16
   -0.549984    0.87164  0.5379E-11  0.1219E-13  0.7603E-17  0.1000E-09  0.0000E+00  0.5758E+16
   -0.618735    0.98605  0.5210E-11  0.1219E-13  0.7603E-17  0.1000E-09  0.0000E+00  0.5569E+16
   -0.687485    1.10123  0.5118E-11  0.1219E-13  0.7603E-17  0.1000E-09  0.0000E+00  0.5370E+16
   -0.756236    1.21707  0.5072E-11  0.1219E-13  0.7603E-17  0.1000E-09  0.0000E+00  0.5164E+16
   -0.824987    1.33345  0.5050E-11  0.1219E-13  0.7603E-17  0.1000E-09  0.0000E+00  0.4951E+16
   -0.893739    1.45026  0.5040E-11  0.1219E-13  0.7603E-17  0.1000E-09  0.0000E+00  0.4732E+16
   -0.962491    1.56740  0.5034E-11  0.1219E-13  0.7603E-17  0.1000E-09  0.0000E+00  0.4508E+16
   -1.031243    1.68478  0.5028E-11  0.1219E-13  0.7603E-17  0.1000E-09  0.0000E+00  0.4281E+16
   -1.099995    1.80232  0.5021E-11  0.1219E-13  0.7603E-17  0.1000E-09  0.0000E+00  0.4051E+16
   -1.168747    1.91992  0.5013E-11  0.1219E-13  0.7603E-17  0.1000E-09  0.0000E+00  0.3820E+16
   -1.237500    2.03754  0.5002E-11  0.1219E-13  0.7603E-17  0.1000E-09  0.0000E+00  0.3588E+16
   -1.306252    2.15511  0.4989E-11  0.1219E-13  0.7603E-17  0.1000E-09  0.0000E+00  0.3356E+16
   -1.375005    2.27259  0.4974E-11  0.1219E-13  0.7603E-17  0.1000E-09  0.0000E+00  0.3124E+16
   -1.443757    2.38995  0.4960E-11  0.1219E-13  0.7603E-17  0.1000E-09  0.0000E+00  0.2894E+16
   -1.512510    2.50718  0.4945E-11  0.1219E-13  0.7603E-17  0.1000E-09  0.0000E+00  0.2665E+16
   -1.581262    2.62426  0.4932E-11  0.1219E-13  0.7603E-17  0.1000E-09  0.0000E+00  0.2438E+16
   -1.650015    2.74117  0.4921E-11  0.1219E-13  0.7603E-17  0.1000E-09  0.0000E+00  0.2212E+16
   -1.718767    2.85791  0.4912E-11  0.1219E-13  0.7603E-17  0.1000E-09  0.0000E+00  0.1986E+16
   -1.787519    2.97440  0.4905E-11  0.3527E-13  0.9731E-17  0.1000E-09  0.0000E+00  0.1739E+16
   -1.856271    3.08892  0.4899E-11  0.1250E-12  0.2872E-16  0.1000E-09  0.0000E+00  0.1498E+16
   -1.925022    3.20103  0.4894E-11  0.4155E-12  0.9075E-16  0.1000E-09  0.0000E+00  0.1264E+16
   -1.993773    3.31014  0.4891E-11  0.1348E-11  0.2842E-15  0.1000E-09  0.0000E+00  0.1045E+16
   -2.062524    3.41614  0.4888E-11  0.4210E-11  0.8585E-15  0.1000E-09  0.0000E+00  0.8612E+15
   -2.131275    3.52151  0.4886E-11  0.1292E-10  0.2550E-14  0.1000E-09  0.0000E+00  0.6825E+15
   -2.200025    3.62648  0.4884E-11  0.3913E-10  0.7478E-14  0.1000E-09  0.0000E+00  0.5063E+15
   -2.268775    3.73106  0.4884E-11  0.1181E-09  0.2186E-13  0.3336E-09  0.0000E+00  0.3320E+15
   -2.337525    3.83498  0.4883E-11  0.3588E-09  0.6440E-13  0.2022E-08  0.0000E+00  0.1607E+15
   -2.406273    3.93714  0.4883E-11  0.1060E-08  0.1854E-12  0.5895E-07  0.0000E+00  0.1472E+14
   -2.475022    4.00958  0.4883E-11  0.2139E-08  0.3809E-12  0.5523E-05  0.0000E+00 -0.9815E+12
   -2.543770    4.01213  0.4883E-11  0.2486E-08  0.4981E-12  0.5009E-05  0.0000E+00 -0.1184E+13
   -2.612517    4.01491  0.4883E-11  0.2517E-08  0.6869E-12  0.3164E-05  0.0000E+00 -0.2033E+13
   -2.681264    4.01913  0.4883E-11  0.1867E-08  0.1473E-11  0.5382E-06  0.0000E+00 -0.1241E+14
   -2.750010    4.03791  0.4883E-11  0.0000E+00  0.0000E+00  0.0000E+00  0.0000E+00  0.0000E+00
