 1 - depth, m
 2 - temperature, C
 3 - salinity, kg/kg
 4 - turbulent kinetic energy, m**2/s**2
 5 - dissipation rate, m**2/s**3
 6 - kinematic heat conductance, m**2/s
 7 - modulus of horizontal velocity, m/s
 8 - Richardson number, n/d
   -0.000000   -0.00000  0.4213E-18  0.1218E-13  0.7603E-17  0.1000E-09  0.0000E+00  0.4359E+16
   -0.068747    0.06598  0.5419E-20  0.1218E-13  0.7603E-17  0.1000E-09  0.0000E+00  0.4562E+16
   -0.137494    0.13632  0.5339E-14  0.1218E-13  0.7603E-17  0.1000E-09  0.0000E+00  0.4727E+16
   -0.206242    0.21068  0.2113E-12  0.1218E-13  0.7603E-17  0.1000E-09  0.0000E+00  0.4863E+16
   -0.274991    0.28883  0.6142E-12  0.1218E-13  0.7603E-17  0.1000E-09  0.0000E+00  0.4974E+16
   -0.343740    0.37064  0.1057E-11  0.1218E-13  0.7603E-17  0.1000E-09  0.0000E+00  0.5064E+16
   -0.412489    0.45598  0.1395E-11  0.1218E-13  0.7603E-17  0.1000E-09  0.0000E+00  0.5132E+16
   -0.481239    0.54477  0.1573E-11  0.1218E-13  0.7603E-17  0.1000E-09  0.0000E+00  0.5178E+16
   -0.549990    0.63688  0.1614E-11  0.1218E-13  0.7603E-17  0.1000E-09  0.0000E+00  0.5201E+16
   -0.618741    0.73219  0.1573E-11  0.1218E-13  0.7603E-17  0.1000E-09  0.0000E+00  0.5202E+16
   -0.687492    0.83054  0.1501E-11  0.1218E-13  0.7603E-17  0.1000E-09  0.0000E+00  0.5173E+16
   -0.756244    0.93167  0.1430E-11  0.1218E-13  0.7603E-17  0.1000E-09  0.0000E+00  0.5119E+16
   -0.824996    1.03532  0.1375E-11  0.1218E-13  0.7603E-17  0.1000E-09  0.0000E+00  0.5043E+16
   -0.893748    1.14131  0.1337E-11  0.1218E-13  0.7603E-17  0.1000E-09  0.0000E+00  0.4946E+16
   -0.962501    1.24946  0.1315E-11  0.1218E-13  0.7603E-17  0.1000E-09  0.0000E+00  0.4832E+16
   -1.031253    1.35960  0.1302E-11  0.1218E-13  0.7603E-17  0.1000E-09  0.0000E+00  0.4701E+16
   -1.100006    1.47160  0.1295E-11  0.1218E-13  0.7603E-17  0.1000E-09  0.0000E+00  0.4556E+16
   -1.168759    1.58534  0.1292E-11  0.1218E-13  0.7603E-17  0.1000E-09  0.0000E+00  0.4399E+16
   -1.237512    1.70076  0.1290E-11  0.1218E-13  0.7603E-17  0.1000E-09  0.0000E+00  0.4232E+16
   -1.306266    1.81781  0.1288E-11  0.1218E-13  0.7603E-17  0.1000E-09  0.0000E+00  0.4056E+16
   -1.375019    1.93650  0.1286E-11  0.1218E-13  0.7603E-17  0.1000E-09  0.0000E+00  0.3874E+16
   -1.443772    2.05689  0.1284E-11  0.1218E-13  0.7603E-17  0.1000E-09  0.0000E+00  0.3685E+16
   -1.512525    2.17909  0.1281E-11  0.1218E-13  0.7603E-17  0.1000E-09  0.0000E+00  0.3490E+16
   -1.581278    2.30322  0.1278E-11  0.1218E-13  0.7603E-17  0.1000E-09  0.0000E+00  0.3288E+16
   -1.650031    2.42947  0.1274E-11  0.1218E-13  0.7603E-17  0.1000E-09  0.0000E+00  0.3080E+16
   -1.718784    2.55810  0.1271E-11  0.1218E-13  0.7603E-17  0.1000E-09  0.0000E+00  0.2861E+16
   -1.787537    2.68924  0.1267E-11  0.1218E-13  0.7603E-17  0.1000E-09  0.0000E+00  0.2528E+16
   -1.856289    2.81761  0.1264E-11  0.1218E-13  0.7603E-17  0.1000E-09  0.0000E+00  0.2199E+16
   -1.925042    2.94229  0.1262E-11  0.1218E-13  0.7603E-17  0.1000E-09  0.0000E+00  0.1873E+16
   -1.993794    3.06188  0.1260E-11  0.5877E-13  0.1962E-16  0.1000E-09  0.0000E+00  0.1577E+16
   -2.062545    3.17637  0.1258E-11  0.2377E-12  0.7277E-16  0.1000E-09  0.0000E+00  0.1373E+16
   -2.131297    3.29149  0.1256E-11  0.9092E-12  0.2670E-15  0.1000E-09  0.0000E+00  0.1173E+16
   -2.200048    3.40798  0.1255E-11  0.3399E-11  0.9612E-15  0.1000E-09  0.0000E+00  0.9693E+15
   -2.268798    3.52617  0.1254E-11  0.1260E-10  0.3434E-14  0.1000E-09  0.0000E+00  0.7549E+15
   -2.337548    3.64578  0.1253E-11  0.4684E-10  0.1231E-13  0.1169E-09  0.0000E+00  0.5337E+15
   -2.406298    3.76692  0.1253E-11  0.1734E-09  0.4400E-13  0.7298E-09  0.0000E+00  0.3045E+15
   -2.475047    3.88955  0.1253E-11  0.6387E-09  0.1569E-12  0.1101E-07  0.0000E+00  0.7034E+14
   -2.543796    4.00624  0.1252E-11  0.1784E-08  0.4382E-12  0.3229E-05  0.0000E+00 -0.1846E+13
   -2.612544    4.01147  0.1252E-11  0.2051E-08  0.6389E-12  0.2482E-05  0.0000E+00 -0.2775E+13
   -2.681291    4.01774  0.1252E-11  0.1576E-08  0.1250E-11  0.4736E-06  0.0000E+00 -0.1318E+14
   -2.750038    4.03800  0.1252E-11  0.0000E+00  0.0000E+00  0.0000E+00  0.0000E+00  0.0000E+00
