 1 - depth, m
 2 - temperature, C
 3 - salinity, kg/kg
 4 - turbulent kinetic energy, m**2/s**2
 5 - dissipation rate, m**2/s**3
 6 - kinematic heat conductance, m**2/s
 7 - modulus of horizontal velocity, m/s
 8 - Richardson number, n/d
   -0.000000   -0.00000  0.2115E-11  0.1219E-13  0.7603E-17  0.1000E-09  0.0000E+00  0.7478E+16
   -0.068746    0.11392  0.1238E-11  0.1219E-13  0.7603E-17  0.1000E-09  0.0000E+00  0.7175E+16
   -0.137492    0.22669  0.9010E-12  0.1219E-13  0.7603E-17  0.1000E-09  0.0000E+00  0.6906E+16
   -0.206239    0.33873  0.7927E-12  0.1219E-13  0.7603E-17  0.1000E-09  0.0000E+00  0.6667E+16
   -0.274986    0.45048  0.7636E-12  0.1219E-13  0.7603E-17  0.1000E-09  0.0000E+00  0.6454E+16
   -0.343735    0.56235  0.7567E-12  0.1219E-13  0.7603E-17  0.1000E-09  0.0000E+00  0.6263E+16
   -0.412483    0.67474  0.7553E-12  0.1219E-13  0.7603E-17  0.1000E-09  0.0000E+00  0.6091E+16
   -0.481232    0.78803  0.7550E-12  0.1219E-13  0.7603E-17  0.1000E-09  0.0000E+00  0.5932E+16
   -0.549982    0.90259  0.7550E-12  0.1219E-13  0.7603E-17  0.1000E-09  0.0000E+00  0.5783E+16
   -0.618732    1.01875  0.7549E-12  0.1219E-13  0.7603E-17  0.1000E-09  0.0000E+00  0.5640E+16
   -0.687482    1.13684  0.7549E-12  0.1219E-13  0.7603E-17  0.1000E-09  0.0000E+00  0.5511E+16
   -0.756233    1.25740  0.7549E-12  0.1219E-13  0.7603E-17  0.1000E-09  0.0000E+00  0.5385E+16
   -0.824984    1.38085  0.7549E-12  0.1219E-13  0.7603E-17  0.1000E-09  0.0000E+00  0.5252E+16
   -0.893735    1.50743  0.7549E-12  0.5533E-13  0.8398E-17  0.1000E-09  0.0000E+00  0.5107E+16
   -0.962486    1.63734  0.7547E-12  0.1517E-12  0.1678E-16  0.1000E-09  0.0000E+00  0.4947E+16
   -1.031238    1.77073  0.7544E-12  0.3543E-12  0.3614E-16  0.1000E-09  0.0000E+00  0.4769E+16
   -1.099990    1.90771  0.7535E-12  0.7859E-12  0.7729E-16  0.1000E-09  0.0000E+00  0.4570E+16
   -1.168742    2.04836  0.7519E-12  0.1707E-11  0.1634E-15  0.1000E-09  0.0000E+00  0.4347E+16
   -1.237494    2.19270  0.7494E-12  0.3664E-11  0.3422E-15  0.1000E-09  0.0000E+00  0.4098E+16
   -1.306246    2.34071  0.7459E-12  0.7789E-11  0.7101E-15  0.1000E-09  0.0000E+00  0.3822E+16
   -1.374998    2.49230  0.7423E-12  0.1642E-10  0.1461E-14  0.1000E-09  0.0000E+00  0.3523E+16
   -1.443751    2.64753  0.7393E-12  0.3431E-10  0.2984E-14  0.1000E-09  0.0000E+00  0.3195E+16
   -1.512503    2.80626  0.7372E-12  0.7114E-10  0.6043E-14  0.1000E-09  0.0000E+00  0.2838E+16
   -1.581255    2.96825  0.7359E-12  0.1463E-09  0.1215E-13  0.1000E-09  0.0000E+00  0.2453E+16
   -1.650007    3.13317  0.7351E-12  0.2986E-09  0.2423E-13  0.1000E-09  0.0000E+00  0.2043E+16
   -1.718759    3.30063  0.7346E-12  0.6048E-09  0.4799E-13  0.1515E-09  0.0000E+00  0.1612E+16
   -1.787511    3.47030  0.7340E-12  0.1243E-08  0.9637E-13  0.4157E-09  0.0000E+00  0.1180E+16
   -1.856262    3.64478  0.7332E-12  0.2579E-08  0.1956E-12  0.1404E-08  0.0000E+00  0.7088E+15
   -1.925013    3.82344  0.7322E-12  0.5331E-08  0.3958E-12  0.9725E-08  0.0000E+00  0.2071E+15
   -1.993764    3.99773  0.7318E-12  0.6053E-08  0.4521E-12  0.3104E-04  0.0000E+00 -0.1607E+12
   -2.062515    3.99859  0.7318E-12  0.6377E-08  0.4833E-12  0.3239E-04  0.0000E+00 -0.1659E+12
   -2.131265    3.99943  0.7318E-12  0.6650E-08  0.5169E-12  0.3289E-04  0.0000E+00 -0.1744E+12
   -2.200015    4.00025  0.7318E-12  0.6875E-08  0.5541E-12  0.3260E-04  0.0000E+00 -0.1870E+12
   -2.268765    4.00108  0.7318E-12  0.7051E-08  0.5973E-12  0.3148E-04  0.0000E+00 -0.2056E+12
   -2.337514    4.00194  0.7318E-12  0.7180E-08  0.6517E-12  0.2937E-04  0.0000E+00 -0.2340E+12
   -2.406262    4.00287  0.7318E-12  0.7252E-08  0.7255E-12  0.2613E-04  0.0000E+00 -0.2802E+12
   -2.475010    4.00392  0.7318E-12  0.7248E-08  0.8369E-12  0.2156E-04  0.0000E+00 -0.3643E+12
   -2.543758    4.00519  0.7318E-12  0.7117E-08  0.1034E-11  0.1553E-04  0.0000E+00 -0.5517E+12
   -2.612505    4.00697  0.7318E-12  0.6701E-08  0.1514E-11  0.8117E-05  0.0000E+00 -0.1207E+13
   -2.681251    4.01042  0.7318E-12  0.4910E-08  0.4331E-11  0.1127E-05  0.0000E+00 -0.1343E+14
   -2.749997    4.03423  0.7318E-12  0.0000E+00  0.0000E+00  0.0000E+00  0.0000E+00  0.0000E+00
