 1 - depth, m
 2 - temperature, C
 3 - salinity, kg/kg
 4 - turbulent kinetic energy, m**2/s**2
 5 - dissipation rate, m**2/s**3
 6 - kinematic heat conductance, m**2/s
 7 - modulus of horizontal velocity, m/s
 8 - Richardson number, n/d
   -0.000000   -0.00000  0.3038E-10  0.1219E-13  0.7603E-17  0.1000E-09  0.0000E+00  0.5639E+16
   -0.068746    0.08557  0.1689E-10  0.1219E-13  0.7603E-17  0.1000E-09  0.0000E+00  0.5426E+16
   -0.137492    0.16985  0.1272E-10  0.1219E-13  0.7603E-17  0.1000E-09  0.0000E+00  0.5252E+16
   -0.206239    0.25335  0.1165E-10  0.1219E-13  0.7603E-17  0.1000E-09  0.0000E+00  0.5111E+16
   -0.274986    0.33656  0.1141E-10  0.1219E-13  0.7603E-17  0.1000E-09  0.0000E+00  0.5000E+16
   -0.343735    0.41997  0.1137E-10  0.1219E-13  0.7603E-17  0.1000E-09  0.0000E+00  0.4916E+16
   -0.412483    0.50404  0.1136E-10  0.1219E-13  0.7603E-17  0.1000E-09  0.0000E+00  0.4856E+16
   -0.481232    0.58925  0.1136E-10  0.1219E-13  0.7603E-17  0.1000E-09  0.0000E+00  0.4816E+16
   -0.549982    0.67605  0.1136E-10  0.1219E-13  0.7603E-17  0.1000E-09  0.0000E+00  0.4792E+16
   -0.618732    0.76487  0.1136E-10  0.1219E-13  0.7603E-17  0.1000E-09  0.0000E+00  0.4780E+16
   -0.687482    0.85613  0.1136E-10  0.1219E-13  0.7603E-17  0.1000E-09  0.0000E+00  0.4791E+16
   -0.756233    0.95050  0.1136E-10  0.1219E-13  0.7603E-17  0.1000E-09  0.0000E+00  0.4813E+16
   -0.824984    1.04852  0.1136E-10  0.1219E-13  0.7603E-17  0.1000E-09  0.0000E+00  0.4834E+16
   -0.893735    1.15052  0.1136E-10  0.1219E-13  0.7603E-17  0.1000E-09  0.0000E+00  0.4848E+16
   -0.962486    1.25684  0.1136E-10  0.1219E-13  0.7603E-17  0.1000E-09  0.0000E+00  0.4851E+16
   -1.031238    1.36774  0.1135E-10  0.1219E-13  0.7603E-17  0.1000E-09  0.0000E+00  0.4838E+16
   -1.099990    1.48347  0.1135E-10  0.1219E-13  0.7603E-17  0.1000E-09  0.0000E+00  0.4805E+16
   -1.168742    1.60421  0.1134E-10  0.1219E-13  0.7603E-17  0.1000E-09  0.0000E+00  0.4747E+16
   -1.237494    1.73009  0.1133E-10  0.2885E-13  0.7603E-17  0.1000E-09  0.0000E+00  0.4661E+16
   -1.306246    1.86121  0.1130E-10  0.9367E-13  0.1531E-16  0.1000E-09  0.0000E+00  0.4542E+16
   -1.374998    1.99759  0.1125E-10  0.2554E-12  0.3780E-16  0.1000E-09  0.0000E+00  0.4396E+16
   -1.443750    2.13948  0.1120E-10  0.6562E-12  0.9332E-16  0.1000E-09  0.0000E+00  0.4212E+16
   -1.512503    2.28689  0.1116E-10  0.1647E-11  0.2272E-15  0.1000E-09  0.0000E+00  0.3985E+16
   -1.581255    2.43962  0.1113E-10  0.4076E-11  0.5463E-15  0.1000E-09  0.0000E+00  0.3714E+16
   -1.650007    2.59742  0.1112E-10  0.9962E-11  0.1298E-14  0.1000E-09  0.0000E+00  0.3399E+16
   -1.718759    2.75993  0.1111E-10  0.2407E-10  0.3050E-14  0.1000E-09  0.0000E+00  0.3042E+16
   -1.787510    2.92679  0.1110E-10  0.5895E-10  0.7264E-14  0.1000E-09  0.0000E+00  0.2664E+16
   -1.856262    3.09880  0.1110E-10  0.1452E-09  0.1741E-13  0.1000E-09  0.0000E+00  0.2246E+16
   -1.925013    3.27602  0.1110E-10  0.3565E-09  0.4161E-13  0.1184E-09  0.0000E+00  0.1788E+16
   -1.993764    3.45860  0.1109E-10  0.8714E-09  0.9904E-13  0.3932E-09  0.0000E+00  0.1282E+16
   -2.062515    3.64574  0.1107E-10  0.2071E-08  0.2294E-12  0.1605E-08  0.0000E+00  0.7269E+15
   -2.131265    3.83282  0.1104E-10  0.4822E-08  0.5211E-12  0.1454E-07  0.0000E+00  0.1821E+15
   -2.200015    4.00487  0.1104E-10  0.5940E-08  0.6470E-12  0.2254E-04  0.0000E+00 -0.3531E+12
   -2.268764    4.00605  0.1104E-10  0.6388E-08  0.7140E-12  0.2306E-04  0.0000E+00 -0.3682E+12
   -2.337513    4.00720  0.1104E-10  0.6733E-08  0.7903E-12  0.2253E-04  0.0000E+00 -0.4012E+12
   -2.406262    4.00839  0.1104E-10  0.6980E-08  0.8860E-12  0.2086E-04  0.0000E+00 -0.4623E+12
   -2.475010    4.00969  0.1104E-10  0.7114E-08  0.1023E-11  0.1789E-04  0.0000E+00 -0.5796E+12
   -2.543758    4.01122  0.1104E-10  0.7092E-08  0.1256E-11  0.1342E-04  0.0000E+00 -0.8456E+12
   -2.612504    4.01330  0.1104E-10  0.6761E-08  0.1806E-11  0.7395E-05  0.0000E+00 -0.1769E+13
   -2.681251    4.01721  0.1104E-10  0.5153E-08  0.4849E-11  0.1204E-05  0.0000E+00 -0.1701E+14
   -2.749996    4.04223  0.1104E-10  0.0000E+00  0.0000E+00  0.0000E+00  0.0000E+00  0.0000E+00
