 1 - depth, m
 2 - temperature, C
 3 - salinity, kg/kg
 4 - turbulent kinetic energy, m**2/s**2
 5 - dissipation rate, m**2/s**3
 6 - kinematic heat conductance, m**2/s
 7 - modulus of horizontal velocity, m/s
 8 - Richardson number, n/d
   -0.000000   -0.00000  0.6948E-11  0.1219E-13  0.7603E-17  0.1000E-09  0.0000E+00  0.3933E+16
   -0.068746    0.05948  0.3762E-11  0.1219E-13  0.7603E-17  0.1000E-09  0.0000E+00  0.3738E+16
   -0.137492    0.11692  0.3066E-11  0.1219E-13  0.7603E-17  0.1000E-09  0.0000E+00  0.3577E+16
   -0.206239    0.17274  0.2923E-11  0.1219E-13  0.7603E-17  0.1000E-09  0.0000E+00  0.3452E+16
   -0.274987    0.22746  0.2898E-11  0.1219E-13  0.7603E-17  0.1000E-09  0.0000E+00  0.3364E+16
   -0.343735    0.28159  0.2894E-11  0.1219E-13  0.7603E-17  0.1000E-09  0.0000E+00  0.3314E+16
   -0.412483    0.33576  0.2894E-11  0.1219E-13  0.7603E-17  0.1000E-09  0.0000E+00  0.3302E+16
   -0.481232    0.39060  0.2894E-11  0.1219E-13  0.7603E-17  0.1000E-09  0.0000E+00  0.3330E+16
   -0.549982    0.44683  0.2894E-11  0.1219E-13  0.7603E-17  0.1000E-09  0.0000E+00  0.3398E+16
   -0.618732    0.50518  0.2894E-11  0.1219E-13  0.7603E-17  0.1000E-09  0.0000E+00  0.3504E+16
   -0.687482    0.56647  0.2894E-11  0.1219E-13  0.7603E-17  0.1000E-09  0.0000E+00  0.3663E+16
   -0.756233    0.63181  0.2894E-11  0.1219E-13  0.7603E-17  0.1000E-09  0.0000E+00  0.3865E+16
   -0.824984    0.70223  0.2894E-11  0.1219E-13  0.7603E-17  0.1000E-09  0.0000E+00  0.4094E+16
   -0.893735    0.77860  0.2894E-11  0.1219E-13  0.7603E-17  0.1000E-09  0.0000E+00  0.4344E+16
   -0.962486    0.86181  0.2894E-11  0.1219E-13  0.7603E-17  0.1000E-09  0.0000E+00  0.4608E+16
   -1.031238    0.95269  0.2894E-11  0.1219E-13  0.7603E-17  0.1000E-09  0.0000E+00  0.4876E+16
   -1.099990    1.05208  0.2893E-11  0.1219E-13  0.7603E-17  0.1000E-09  0.0000E+00  0.5136E+16
   -1.168742    1.16073  0.2890E-11  0.1219E-13  0.7603E-17  0.1000E-09  0.0000E+00  0.5375E+16
   -1.237494    1.27936  0.2883E-11  0.1219E-13  0.7603E-17  0.1000E-09  0.0000E+00  0.5580E+16
   -1.306246    1.40854  0.2868E-11  0.4372E-13  0.1076E-16  0.1000E-09  0.0000E+00  0.5736E+16
   -1.374999    1.54878  0.2847E-11  0.1433E-12  0.2959E-16  0.1000E-09  0.0000E+00  0.5851E+16
   -1.443751    1.70104  0.2831E-11  0.4298E-12  0.8447E-16  0.1000E-09  0.0000E+00  0.5888E+16
   -1.512503    1.86574  0.2822E-11  0.1250E-11  0.2373E-15  0.1000E-09  0.0000E+00  0.5825E+16
   -1.581255    2.04286  0.2818E-11  0.3570E-11  0.6559E-15  0.1000E-09  0.0000E+00  0.5649E+16
   -1.650007    2.23222  0.2814E-11  0.1004E-10  0.1786E-14  0.1000E-09  0.0000E+00  0.5351E+16
   -1.718759    2.43342  0.2812E-11  0.2779E-10  0.4792E-14  0.1000E-09  0.0000E+00  0.4926E+16
   -1.787511    2.64580  0.2811E-11  0.7796E-10  0.1302E-13  0.1000E-09  0.0000E+00  0.4357E+16
   -1.856262    2.86760  0.2810E-11  0.2190E-09  0.3548E-13  0.1000E-09  0.0000E+00  0.3691E+16
   -1.925013    3.09874  0.2810E-11  0.6109E-09  0.9598E-13  0.1669E-09  0.0000E+00  0.2926E+16
   -1.993764    3.33921  0.2809E-11  0.1691E-08  0.2578E-12  0.6384E-09  0.0000E+00  0.2056E+16
   -2.062515    3.58820  0.2806E-11  0.4528E-08  0.6705E-12  0.3168E-08  0.0000E+00  0.1078E+16
   -2.131265    3.83965  0.2800E-11  0.1158E-07  0.1672E-11  0.5534E-07  0.0000E+00  0.1546E+15
   -2.200015    4.02925  0.2800E-11  0.1358E-07  0.1975E-11  0.3958E-04  0.0000E+00 -0.6360E+12
   -2.268765    4.03018  0.2800E-11  0.1434E-07  0.2129E-11  0.3953E-04  0.0000E+00 -0.6540E+12
   -2.337514    4.03112  0.2800E-11  0.1490E-07  0.2304E-11  0.3804E-04  0.0000E+00 -0.6988E+12
   -2.406263    4.03211  0.2800E-11  0.1526E-07  0.2525E-11  0.3495E-04  0.0000E+00 -0.7847E+12
   -2.475011    4.03319  0.2800E-11  0.1541E-07  0.2842E-11  0.2996E-04  0.0000E+00 -0.9501E+12
   -2.543758    4.03447  0.2800E-11  0.1526E-07  0.3385E-11  0.2271E-04  0.0000E+00 -0.1317E+13
   -2.612505    4.03618  0.2800E-11  0.1451E-07  0.4663E-11  0.1289E-04  0.0000E+00 -0.2521E+13
   -2.681251    4.03931  0.2800E-11  0.1077E-07  0.1252E-10  0.1874E-05  0.0000E+00 -0.2326E+14
   -2.749997    4.06235  0.2800E-11  0.0000E+00  0.0000E+00  0.0000E+00  0.0000E+00  0.0000E+00
