 1 - depth, m
 2 - temperature, C
 3 - salinity, kg/kg
 4 - turbulent kinetic energy, m**2/s**2
 5 - dissipation rate, m**2/s**3
 6 - kinematic heat conductance, m**2/s
 7 - modulus of horizontal velocity, m/s
 8 - Richardson number, n/d
   -0.000000   -0.00000  0.4497E-11  0.1219E-13  0.7603E-17  0.1000E-09  0.0000E+00  0.5788E+16
   -0.068746    0.08786  0.2485E-11  0.1219E-13  0.7603E-17  0.1000E-09  0.0000E+00  0.5574E+16
   -0.137492    0.17452  0.1872E-11  0.1219E-13  0.7603E-17  0.1000E-09  0.0000E+00  0.5400E+16
   -0.206239    0.26052  0.1720E-11  0.1219E-13  0.7603E-17  0.1000E-09  0.0000E+00  0.5261E+16
   -0.274987    0.34640  0.1686E-11  0.1219E-13  0.7603E-17  0.1000E-09  0.0000E+00  0.5156E+16
   -0.343735    0.43270  0.1680E-11  0.1219E-13  0.7603E-17  0.1000E-09  0.0000E+00  0.5080E+16
   -0.412483    0.51995  0.1679E-11  0.1219E-13  0.7603E-17  0.1000E-09  0.0000E+00  0.5030E+16
   -0.481232    0.60871  0.1679E-11  0.1219E-13  0.7603E-17  0.1000E-09  0.0000E+00  0.5003E+16
   -0.549982    0.69949  0.1679E-11  0.1219E-13  0.7603E-17  0.1000E-09  0.0000E+00  0.4993E+16
   -0.618732    0.79281  0.1679E-11  0.1219E-13  0.7603E-17  0.1000E-09  0.0000E+00  0.4996E+16
   -0.687482    0.88916  0.1679E-11  0.1219E-13  0.7603E-17  0.1000E-09  0.0000E+00  0.5023E+16
   -0.756233    0.98932  0.1679E-11  0.1219E-13  0.7603E-17  0.1000E-09  0.0000E+00  0.5060E+16
   -0.824984    1.09391  0.1679E-11  0.1219E-13  0.7603E-17  0.1000E-09  0.0000E+00  0.5093E+16
   -0.893735    1.20335  0.1678E-11  0.1219E-13  0.7603E-17  0.1000E-09  0.0000E+00  0.5117E+16
   -0.962487    1.31802  0.1678E-11  0.1219E-13  0.7603E-17  0.1000E-09  0.0000E+00  0.5124E+16
   -1.031238    1.43827  0.1678E-11  0.5626E-13  0.9240E-17  0.1000E-09  0.0000E+00  0.5110E+16
   -1.099990    1.56439  0.1677E-11  0.1589E-12  0.1991E-16  0.1000E-09  0.0000E+00  0.5069E+16
   -1.168742    1.69663  0.1675E-11  0.3877E-12  0.4533E-16  0.1000E-09  0.0000E+00  0.4995E+16
   -1.237494    1.83519  0.1671E-11  0.9039E-12  0.1021E-15  0.1000E-09  0.0000E+00  0.4882E+16
   -1.306246    1.98018  0.1664E-11  0.2068E-11  0.2274E-15  0.1000E-09  0.0000E+00  0.4725E+16
   -1.374999    2.13167  0.1655E-11  0.4674E-11  0.5008E-15  0.1000E-09  0.0000E+00  0.4529E+16
   -1.443751    2.28996  0.1646E-11  0.1046E-10  0.1092E-14  0.1000E-09  0.0000E+00  0.4283E+16
   -1.512503    2.45504  0.1641E-11  0.2318E-10  0.2361E-14  0.1000E-09  0.0000E+00  0.3977E+16
   -1.581255    2.62669  0.1638E-11  0.5091E-10  0.5059E-14  0.1000E-09  0.0000E+00  0.3613E+16
   -1.650007    2.80457  0.1636E-11  0.1108E-09  0.1075E-13  0.1000E-09  0.0000E+00  0.3191E+16
   -1.718759    2.98822  0.1635E-11  0.2391E-09  0.2263E-13  0.1000E-09  0.0000E+00  0.2714E+16
   -1.787511    3.17720  0.1634E-11  0.5233E-09  0.4834E-13  0.1111E-09  0.0000E+00  0.2215E+16
   -1.856262    3.37391  0.1634E-11  0.1156E-08  0.1043E-12  0.3223E-09  0.0000E+00  0.1647E+16
   -1.925013    3.57830  0.1632E-11  0.2551E-08  0.2248E-12  0.1137E-08  0.0000E+00  0.1007E+16
   -1.993764    3.78983  0.1629E-11  0.5599E-08  0.4822E-12  0.8137E-08  0.0000E+00  0.3018E+15
   -2.062515    3.99847  0.1627E-11  0.6477E-08  0.5615E-12  0.2852E-04  0.0000E+00 -0.2162E+12
   -2.131265    3.99956  0.1627E-11  0.6863E-08  0.6057E-12  0.2986E-04  0.0000E+00 -0.2246E+12
   -2.200015    4.00060  0.1627E-11  0.7182E-08  0.6538E-12  0.3028E-04  0.0000E+00 -0.2390E+12
   -2.268765    4.00163  0.1627E-11  0.7437E-08  0.7087E-12  0.2977E-04  0.0000E+00 -0.2611E+12
   -2.337514    4.00269  0.1627E-11  0.7635E-08  0.7770E-12  0.2819E-04  0.0000E+00 -0.2958E+12
   -2.406263    4.00380  0.1627E-11  0.7766E-08  0.8681E-12  0.2543E-04  0.0000E+00 -0.3525E+12
   -2.475011    4.00504  0.1627E-11  0.7809E-08  0.1004E-11  0.2128E-04  0.0000E+00 -0.4561E+12
   -2.543758    4.00654  0.1627E-11  0.7712E-08  0.1241E-11  0.1557E-04  0.0000E+00 -0.6864E+12
   -2.612505    4.00860  0.1627E-11  0.7311E-08  0.1810E-11  0.8335E-05  0.0000E+00 -0.1484E+13
   -2.681252    4.01251  0.1627E-11  0.5492E-08  0.5079E-11  0.1254E-05  0.0000E+00 -0.1562E+14
   -2.749997    4.03809  0.1627E-11  0.0000E+00  0.0000E+00  0.0000E+00  0.0000E+00  0.0000E+00
