 1 - depth, m
 2 - temperature, C
 3 - salinity, kg/kg
 4 - turbulent kinetic energy, m**2/s**2
 5 - dissipation rate, m**2/s**3
 6 - kinematic heat conductance, m**2/s
 7 - modulus of horizontal velocity, m/s
 8 - Richardson number, n/d
   -0.000000   14.69730  0.9748E-12  0.2713E-04  0.2403E-05  0.3545E-04  0.4263E-01 -0.1345E-01
   -0.068746   14.73056  0.9748E-12  0.2228E-04  0.6380E-06  0.9352E-04  0.2544E-01 -0.4325E-01
   -0.137492   14.74070  0.9748E-12  0.2084E-04  0.3206E-06  0.1576E-03  0.2051E-01 -0.7092E-01
   -0.206239   14.74655  0.9748E-12  0.2004E-04  0.2050E-06  0.2311E-03  0.1759E-01 -0.1019E+00
   -0.274987   14.75038  0.9748E-12  0.1951E-04  0.1482E-06  0.3145E-03  0.1562E-01 -0.1323E+00
   -0.343735   14.75308  0.9748E-12  0.1915E-04  0.1154E-06  0.4290E-03  0.1420E-01  0.7405E-04
   -0.412484   14.75502  0.9748E-12  0.1892E-04  0.9475E-07  0.6633E-03  0.1312E-01  0.8665E+01
   -0.481233   14.75636  0.9748E-12  0.1879E-04  0.8112E-07  0.9968E-03  0.1227E-01  0.9388E+02
   -0.549983   14.75719  0.9748E-12  0.1876E-04  0.7177E-07  0.1485E-02  0.1158E-01  0.1974E+02
   -0.618733   14.75770  0.9748E-12  0.1880E-04  0.6470E-07  0.1474E-02  0.1099E-01  0.1141E+02
   -0.687483   14.75819  0.9748E-12  0.1888E-04  0.5887E-07  0.1572E-02  0.1040E-01  0.1271E+02
   -0.756234   14.75864  0.9748E-12  0.1898E-04  0.5415E-07  0.1636E-02  0.9850E-02  0.1346E+02
   -0.824985   14.75907  0.9748E-12  0.1908E-04  0.5024E-07  0.1709E-02  0.9323E-02  0.1455E+02
   -0.893736   14.75947  0.9748E-12  0.1918E-04  0.4696E-07  0.1775E-02  0.8817E-02  0.1565E+02
   -0.962488   14.75986  0.9748E-12  0.1927E-04  0.4418E-07  0.1841E-02  0.8328E-02  0.1690E+02
   -1.031240   14.76022  0.9748E-12  0.1934E-04  0.4180E-07  0.1902E-02  0.7852E-02  0.1830E+02
   -1.099992   14.76058  0.9748E-12  0.1939E-04  0.3976E-07  0.1961E-02  0.7387E-02  0.1993E+02
   -1.168744   14.76091  0.9748E-12  0.1941E-04  0.3798E-07  0.2015E-02  0.6930E-02  0.2186E+02
   -1.237496   14.76124  0.9748E-12  0.1939E-04  0.3643E-07  0.2064E-02  0.6481E-02  0.2424E+02
   -1.306248   14.76156  0.9748E-12  0.1934E-04  0.3507E-07  0.2106E-02  0.6036E-02  0.2730E+02
   -1.375000   14.76187  0.9748E-12  0.1924E-04  0.3387E-07  0.2138E-02  0.5594E-02  0.3146E+02
   -1.443753   14.76218  0.9748E-12  0.1910E-04  0.3280E-07  0.2159E-02  0.5154E-02  0.3753E+02
   -1.512505   14.76248  0.9748E-12  0.1889E-04  0.3185E-07  0.2167E-02  0.4714E-02  0.4736E+02
   -1.581257   14.76278  0.9748E-12  0.1862E-04  0.3099E-07  0.2157E-02  0.4274E-02  0.6569E+02
   -1.650009   14.76308  0.9748E-12  0.1828E-04  0.3020E-07  0.2131E-02  0.3830E-02  0.1095E+03
   -1.718761   14.76339  0.9748E-12  0.1785E-04  0.2945E-07  0.2079E-02  0.3382E-02  0.2066E+03
   -1.787513   14.76370  0.9748E-12  0.1732E-04  0.2871E-07  0.2027E-02  0.2927E-02  0.1665E+02
   -1.856265   14.76402  0.9748E-12  0.1669E-04  0.2807E-07  0.1967E-02  0.2533E-02  0.6276E+01
   -1.925016   14.76436  0.9748E-12  0.1600E-04  0.2761E-07  0.1913E-02  0.2189E-02  0.3314E+01
   -1.993767   14.76470  0.9748E-12  0.1527E-04  0.2743E-07  0.1873E-02  0.1897E-02  0.2192E+01
   -2.062518   14.76504  0.9748E-12  0.1454E-04  0.2760E-07  0.1838E-02  0.1646E-02  0.1724E+01
   -2.131268   14.76540  0.9748E-12  0.1382E-04  0.2819E-07  0.1807E-02  0.1423E-02  0.1379E+01
   -2.200018   14.76576  0.9748E-12  0.1314E-04  0.2927E-07  0.1739E-02  0.1223E-02  0.1111E+01
   -2.268768   14.76614  0.9748E-12  0.1251E-04  0.3093E-07  0.1554E-02  0.1046E-02  0.8465E+00
   -2.337517   14.76656  0.9748E-12  0.1192E-04  0.3345E-07  0.1333E-02  0.8995E-03  0.9061E+00
   -2.406266   14.76707  0.9748E-12  0.1130E-04  0.3792E-07  0.1190E-02  0.7804E-03  0.1852E+02
   -2.475014   14.76768  0.9748E-12  0.1046E-04  0.4893E-07  0.8815E-03  0.6753E-03  0.4568E+02
   -2.543762   14.76897  0.9748E-12  0.9175E-05  0.7053E-07  0.7121E-03  0.5408E-03  0.2224E+03
   -2.612509   14.77006  0.9748E-12  0.7214E-05  0.1360E-06  0.3430E-03  0.4217E-03  0.4148E+04
   -2.681255   14.77553  0.9748E-12  0.4443E-05  0.3946E-06  0.1466E-03  0.2419E-03 -0.2357E+03
   -2.750001   14.78146  0.9748E-12  0.0000E+00  0.0000E+00  0.0000E+00  0.3704E-03  0.0000E+00
