 1 - depth, m
 2 - temperature, C
 3 - salinity, kg/kg
 4 - turbulent kinetic energy, m**2/s**2
 5 - dissipation rate, m**2/s**3
 6 - kinematic heat conductance, m**2/s
 7 - modulus of horizontal velocity, m/s
 8 - Richardson number, n/d
   -0.000000   -0.00000  0.3068E-10  0.1219E-13  0.7603E-17  0.1000E-09  0.0000E+00  0.5723E+16
   -0.068746    0.08686  0.1696E-10  0.1219E-13  0.7603E-17  0.1000E-09  0.0000E+00  0.5506E+16
   -0.137492    0.17243  0.1275E-10  0.1219E-13  0.7603E-17  0.1000E-09  0.0000E+00  0.5327E+16
   -0.206239    0.25721  0.1166E-10  0.1219E-13  0.7603E-17  0.1000E-09  0.0000E+00  0.5181E+16
   -0.274986    0.34167  0.1142E-10  0.1219E-13  0.7603E-17  0.1000E-09  0.0000E+00  0.5065E+16
   -0.343735    0.42631  0.1137E-10  0.1219E-13  0.7603E-17  0.1000E-09  0.0000E+00  0.4976E+16
   -0.412483    0.51160  0.1136E-10  0.1219E-13  0.7603E-17  0.1000E-09  0.0000E+00  0.4911E+16
   -0.481232    0.59799  0.1136E-10  0.1219E-13  0.7603E-17  0.1000E-09  0.0000E+00  0.4865E+16
   -0.549982    0.68593  0.1136E-10  0.1219E-13  0.7603E-17  0.1000E-09  0.0000E+00  0.4835E+16
   -0.618732    0.77586  0.1136E-10  0.1219E-13  0.7603E-17  0.1000E-09  0.0000E+00  0.4817E+16
   -0.687482    0.86818  0.1136E-10  0.1219E-13  0.7603E-17  0.1000E-09  0.0000E+00  0.4821E+16
   -0.756233    0.96355  0.1136E-10  0.1219E-13  0.7603E-17  0.1000E-09  0.0000E+00  0.4836E+16
   -0.824984    1.06249  0.1136E-10  0.1219E-13  0.7603E-17  0.1000E-09  0.0000E+00  0.4848E+16
   -0.893735    1.16535  0.1136E-10  0.1219E-13  0.7603E-17  0.1000E-09  0.0000E+00  0.4854E+16
   -0.962486    1.27242  0.1136E-10  0.1219E-13  0.7603E-17  0.1000E-09  0.0000E+00  0.4849E+16
   -1.031238    1.38397  0.1135E-10  0.1219E-13  0.7603E-17  0.1000E-09  0.0000E+00  0.4827E+16
   -1.099990    1.50022  0.1135E-10  0.1219E-13  0.7603E-17  0.1000E-09  0.0000E+00  0.4786E+16
   -1.168742    1.62136  0.1134E-10  0.1219E-13  0.7603E-17  0.1000E-09  0.0000E+00  0.4720E+16
   -1.237494    1.74750  0.1133E-10  0.2934E-13  0.7603E-17  0.1000E-09  0.0000E+00  0.4626E+16
   -1.306246    1.87872  0.1130E-10  0.9465E-13  0.1552E-16  0.1000E-09  0.0000E+00  0.4500E+16
   -1.374998    2.01504  0.1125E-10  0.2581E-12  0.3846E-16  0.1000E-09  0.0000E+00  0.4348E+16
   -1.443751    2.15669  0.1120E-10  0.6649E-12  0.9523E-16  0.1000E-09  0.0000E+00  0.4159E+16
   -1.512503    2.30367  0.1116E-10  0.1674E-11  0.2325E-15  0.1000E-09  0.0000E+00  0.3928E+16
   -1.581255    2.45577  0.1113E-10  0.4154E-11  0.5607E-15  0.1000E-09  0.0000E+00  0.3654E+16
   -1.650007    2.61273  0.1112E-10  0.1018E-10  0.1336E-14  0.1000E-09  0.0000E+00  0.3338E+16
   -1.718759    2.77420  0.1111E-10  0.2466E-10  0.3147E-14  0.1000E-09  0.0000E+00  0.2983E+16
   -1.787510    2.93982  0.1110E-10  0.6057E-10  0.7514E-14  0.1000E-09  0.0000E+00  0.2609E+16
   -1.856262    3.11046  0.1110E-10  0.1496E-09  0.1806E-13  0.1000E-09  0.0000E+00  0.2196E+16
   -1.925013    3.28618  0.1110E-10  0.3682E-09  0.4325E-13  0.1261E-09  0.0000E+00  0.1745E+16
   -1.993764    3.46713  0.1109E-10  0.9022E-09  0.1032E-12  0.4211E-09  0.0000E+00  0.1247E+16
   -2.062515    3.65250  0.1107E-10  0.2149E-08  0.2395E-12  0.1735E-08  0.0000E+00  0.7023E+15
   -2.131265    3.83758  0.1104E-10  0.5010E-08  0.5448E-12  0.1623E-07  0.0000E+00  0.1705E+15
   -2.200015    4.00606  0.1104E-10  0.6144E-08  0.6734E-12  0.2332E-04  0.0000E+00 -0.3584E+12
   -2.268764    4.00718  0.1104E-10  0.6596E-08  0.7415E-12  0.2376E-04  0.0000E+00 -0.3730E+12
   -2.337514    4.00829  0.1104E-10  0.6942E-08  0.8186E-12  0.2316E-04  0.0000E+00 -0.4054E+12
   -2.406262    4.00944  0.1104E-10  0.7186E-08  0.9154E-12  0.2142E-04  0.0000E+00 -0.4657E+12
   -2.475010    4.01069  0.1104E-10  0.7315E-08  0.1054E-11  0.1835E-04  0.0000E+00 -0.5817E+12
   -2.543758    4.01217  0.1104E-10  0.7284E-08  0.1290E-11  0.1376E-04  0.0000E+00 -0.8444E+12
   -2.612505    4.01418  0.1104E-10  0.6937E-08  0.1847E-11  0.7587E-05  0.0000E+00 -0.1753E+13
   -2.681251    4.01794  0.1104E-10  0.5264E-08  0.4950E-11  0.1220E-05  0.0000E+00 -0.1679E+14
   -2.749997    4.04239  0.1104E-10  0.0000E+00  0.0000E+00  0.0000E+00  0.0000E+00  0.0000E+00
