 1 - depth, m
 2 - temperature, C
 3 - salinity, kg/kg
 4 - turbulent kinetic energy, m**2/s**2
 5 - dissipation rate, m**2/s**3
 6 - kinematic heat conductance, m**2/s
 7 - modulus of horizontal velocity, m/s
 8 - Richardson number, n/d
   -0.000000   -0.00000  0.2773E-11  0.1219E-13  0.7603E-17  0.1000E-09  0.0000E+00  0.8423E+16
   -0.068746    0.12856  0.1811E-11  0.1219E-13  0.7603E-17  0.1000E-09  0.0000E+00  0.8084E+16
   -0.137492    0.25641  0.1299E-11  0.1219E-13  0.7603E-17  0.1000E-09  0.0000E+00  0.7760E+16
   -0.206239    0.38368  0.1088E-11  0.1219E-13  0.7603E-17  0.1000E-09  0.0000E+00  0.7451E+16
   -0.274987    0.51053  0.1015E-11  0.1219E-13  0.7603E-17  0.1000E-09  0.0000E+00  0.7154E+16
   -0.343735    0.63712  0.9931E-12  0.1219E-13  0.7603E-17  0.1000E-09  0.0000E+00  0.6868E+16
   -0.412483    0.76359  0.9872E-12  0.1219E-13  0.7603E-17  0.1000E-09  0.0000E+00  0.6591E+16
   -0.481233    0.89010  0.9857E-12  0.1219E-13  0.7603E-17  0.1000E-09  0.0000E+00  0.6322E+16
   -0.549982    1.01679  0.9854E-12  0.1219E-13  0.7603E-17  0.1000E-09  0.0000E+00  0.6059E+16
   -0.618732    1.14378  0.9853E-12  0.1219E-13  0.7603E-17  0.1000E-09  0.0000E+00  0.5801E+16
   -0.687482    1.27119  0.9853E-12  0.1219E-13  0.7603E-17  0.1000E-09  0.0000E+00  0.5554E+16
   -0.756233    1.39933  0.9853E-12  0.1219E-13  0.7603E-17  0.1000E-09  0.0000E+00  0.5312E+16
   -0.824984    1.52841  0.9852E-12  0.1219E-13  0.7603E-17  0.1000E-09  0.0000E+00  0.5068E+16
   -0.893735    1.65850  0.9849E-12  0.1219E-13  0.7603E-17  0.1000E-09  0.0000E+00  0.4821E+16
   -0.962487    1.78968  0.9843E-12  0.2863E-13  0.7603E-17  0.1000E-09  0.0000E+00  0.4569E+16
   -1.031239    1.92196  0.9832E-12  0.9325E-13  0.1253E-16  0.1000E-09  0.0000E+00  0.4311E+16
   -1.099991    2.05539  0.9812E-12  0.2373E-12  0.2740E-16  0.1000E-09  0.0000E+00  0.4048E+16
   -1.168743    2.18996  0.9782E-12  0.5549E-12  0.6098E-16  0.1000E-09  0.0000E+00  0.3777E+16
   -1.237495    2.32564  0.9743E-12  0.1259E-11  0.1341E-15  0.1000E-09  0.0000E+00  0.3499E+16
   -1.306247    2.46241  0.9700E-12  0.2812E-11  0.2917E-15  0.1000E-09  0.0000E+00  0.3214E+16
   -1.374999    2.60019  0.9660E-12  0.6212E-11  0.6281E-15  0.1000E-09  0.0000E+00  0.2924E+16
   -1.443751    2.73900  0.9627E-12  0.1359E-10  0.1340E-14  0.1000E-09  0.0000E+00  0.2627E+16
   -1.512504    2.87877  0.9604E-12  0.2944E-10  0.2831E-14  0.1000E-09  0.0000E+00  0.2323E+16
   -1.581256    3.01938  0.9588E-12  0.6322E-10  0.5930E-14  0.1000E-09  0.0000E+00  0.2012E+16
   -1.650008    3.16067  0.9578E-12  0.1345E-09  0.1231E-13  0.1000E-09  0.0000E+00  0.1697E+16
   -1.718760    3.30247  0.9570E-12  0.2837E-09  0.2535E-13  0.1000E-09  0.0000E+00  0.1378E+16
   -1.787512    3.44469  0.9563E-12  0.6069E-09  0.5291E-13  0.2520E-09  0.0000E+00  0.1069E+16
   -1.856263    3.58888  0.9554E-12  0.1310E-08  0.1115E-12  0.7606E-09  0.0000E+00  0.7458E+15
   -1.925014    3.73486  0.9545E-12  0.2822E-08  0.2347E-12  0.2912E-08  0.0000E+00  0.4099E+15
   -1.993765    3.88122  0.9540E-12  0.5980E-08  0.4868E-12  0.2962E-07  0.0000E+00  0.8337E+14
   -2.062516    4.00656  0.9540E-12  0.6762E-08  0.5537E-12  0.3427E-04  0.0000E+00 -0.1998E+12
   -2.131266    4.00718  0.9540E-12  0.7088E-08  0.5887E-12  0.3463E-04  0.0000E+00 -0.2037E+12
   -2.200016    4.00779  0.9540E-12  0.7343E-08  0.6256E-12  0.3419E-04  0.0000E+00 -0.2123E+12
   -2.268766    4.00842  0.9540E-12  0.7533E-08  0.6670E-12  0.3293E-04  0.0000E+00 -0.2270E+12
   -2.337515    4.00906  0.9540E-12  0.7661E-08  0.7183E-12  0.3069E-04  0.0000E+00 -0.2511E+12
   -2.406264    4.00976  0.9540E-12  0.7720E-08  0.7874E-12  0.2732E-04  0.0000E+00 -0.2915E+12
   -2.475012    4.01054  0.9540E-12  0.7689E-08  0.8917E-12  0.2261E-04  0.0000E+00 -0.3661E+12
   -2.543759    4.01148  0.9540E-12  0.7517E-08  0.1077E-11  0.1636E-04  0.0000E+00 -0.5313E+12
   -2.612506    4.01280  0.9540E-12  0.7035E-08  0.1531E-11  0.8591E-05  0.0000E+00 -0.1094E+13
   -2.681253    4.01531  0.9540E-12  0.4997E-08  0.4290E-11  0.1092E-05  0.0000E+00 -0.1128E+14
   -2.749998    4.03407  0.9540E-12  0.0000E+00  0.0000E+00  0.0000E+00  0.0000E+00  0.0000E+00
