 1 - depth, m
 2 - temperature, C
 3 - salinity, kg/kg
 4 - turbulent kinetic energy, m**2/s**2
 5 - dissipation rate, m**2/s**3
 6 - kinematic heat conductance, m**2/s
 7 - modulus of horizontal velocity, m/s
 8 - Richardson number, n/d
   -0.000000   -0.00000  0.5466E-11  0.1219E-13  0.7603E-17  0.1000E-09  0.0000E+00  0.6751E+16
   -0.068746    0.10268  0.1616E-10  0.1219E-13  0.7603E-17  0.1000E-09  0.0000E+00  0.6673E+16
   -0.137493    0.20711  0.2068E-10  0.1219E-13  0.7603E-17  0.1000E-09  0.0000E+00  0.6576E+16
   -0.206240    0.31312  0.2124E-10  0.1219E-13  0.7603E-17  0.1000E-09  0.0000E+00  0.6460E+16
   -0.274988    0.42053  0.2006E-10  0.1219E-13  0.7603E-17  0.1000E-09  0.0000E+00  0.6325E+16
   -0.343736    0.52912  0.1844E-10  0.1219E-13  0.7603E-17  0.1000E-09  0.0000E+00  0.6173E+16
   -0.412485    0.63869  0.1706E-10  0.1219E-13  0.7603E-17  0.1000E-09  0.0000E+00  0.6006E+16
   -0.481234    0.74906  0.1611E-10  0.1219E-13  0.7603E-17  0.1000E-09  0.0000E+00  0.5825E+16
   -0.549984    0.86005  0.1556E-10  0.1219E-13  0.7603E-17  0.1000E-09  0.0000E+00  0.5635E+16
   -0.618734    0.97151  0.1527E-10  0.1219E-13  0.7603E-17  0.1000E-09  0.0000E+00  0.5435E+16
   -0.687485    1.08327  0.1514E-10  0.1219E-13  0.7603E-17  0.1000E-09  0.0000E+00  0.5230E+16
   -0.756236    1.19526  0.1508E-10  0.1219E-13  0.7603E-17  0.1000E-09  0.0000E+00  0.5020E+16
   -0.824987    1.30735  0.1505E-10  0.1219E-13  0.7603E-17  0.1000E-09  0.0000E+00  0.4805E+16
   -0.893738    1.41945  0.1504E-10  0.1219E-13  0.7603E-17  0.1000E-09  0.0000E+00  0.4588E+16
   -0.962490    1.53146  0.1503E-10  0.1219E-13  0.7603E-17  0.1000E-09  0.0000E+00  0.4369E+16
   -1.031242    1.64330  0.1501E-10  0.1219E-13  0.7603E-17  0.1000E-09  0.0000E+00  0.4149E+16
   -1.099994    1.75491  0.1499E-10  0.1219E-13  0.7603E-17  0.1000E-09  0.0000E+00  0.3929E+16
   -1.168747    1.86622  0.1496E-10  0.1219E-13  0.7603E-17  0.1000E-09  0.0000E+00  0.3710E+16
   -1.237499    1.97718  0.1493E-10  0.1219E-13  0.7603E-17  0.1000E-09  0.0000E+00  0.3492E+16
   -1.306251    2.08775  0.1489E-10  0.1219E-13  0.7603E-17  0.1000E-09  0.0000E+00  0.3276E+16
   -1.375004    2.19789  0.1485E-10  0.1219E-13  0.7603E-17  0.1000E-09  0.0000E+00  0.3064E+16
   -1.443756    2.30764  0.1481E-10  0.1219E-13  0.7603E-17  0.1000E-09  0.0000E+00  0.2855E+16
   -1.512509    2.41699  0.1477E-10  0.1219E-13  0.7603E-17  0.1000E-09  0.0000E+00  0.2649E+16
   -1.581261    2.52594  0.1473E-10  0.1219E-13  0.7603E-17  0.1000E-09  0.0000E+00  0.2446E+16
   -1.650013    2.63452  0.1471E-10  0.1219E-13  0.7603E-17  0.1000E-09  0.0000E+00  0.2246E+16
   -1.718766    2.74274  0.1468E-10  0.1219E-13  0.7603E-17  0.1000E-09  0.0000E+00  0.2048E+16
   -1.787518    2.85059  0.1467E-10  0.1219E-13  0.7603E-17  0.1000E-09  0.0000E+00  0.1839E+16
   -1.856269    2.95717  0.1465E-10  0.1219E-13  0.7603E-17  0.1000E-09  0.0000E+00  0.1633E+16
   -1.925021    3.06227  0.1464E-10  0.1219E-13  0.7603E-17  0.1000E-09  0.0000E+00  0.1431E+16
   -1.993772    3.16558  0.1463E-10  0.1219E-13  0.7603E-17  0.1000E-09  0.0000E+00  0.1239E+16
   -2.062523    3.26706  0.1462E-10  0.2109E-13  0.8518E-17  0.1000E-09  0.0000E+00  0.1070E+16
   -2.131274    3.36816  0.1461E-10  0.8638E-13  0.3063E-16  0.1000E-09  0.0000E+00  0.9052E+15
   -2.200024    3.46903  0.1460E-10  0.3577E-12  0.1212E-15  0.1000E-09  0.0000E+00  0.7416E+15
   -2.268774    3.56967  0.1459E-10  0.1464E-11  0.4778E-15  0.1000E-09  0.0000E+00  0.5794E+15
   -2.337523    3.67000  0.1459E-10  0.6000E-11  0.1887E-14  0.1000E-09  0.0000E+00  0.4187E+15
   -2.406272    3.76993  0.1459E-10  0.2444E-10  0.7421E-14  0.1429E-09  0.0000E+00  0.2600E+15
   -2.475020    3.86923  0.1459E-10  0.9958E-10  0.2925E-13  0.1374E-08  0.0000E+00  0.1045E+15
   -2.543768    3.96672  0.1459E-10  0.3932E-09  0.1129E-12  0.1925E-06  0.0000E+00 -0.4956E+12
   -2.612515    4.00750  0.1459E-10  0.1069E-08  0.4122E-12  0.1125E-05  0.0000E+00 -0.4396E+13
   -2.681262    4.01810  0.1459E-10  0.1089E-08  0.9059E-12  0.3744E-06  0.0000E+00 -0.1687E+14
   -2.750008    4.04257  0.1459E-10  0.0000E+00  0.0000E+00  0.0000E+00  0.0000E+00  0.0000E+00
