 1 - depth, m
 2 - temperature, C
 3 - salinity, kg/kg
 4 - turbulent kinetic energy, m**2/s**2
 5 - dissipation rate, m**2/s**3
 6 - kinematic heat conductance, m**2/s
 7 - modulus of horizontal velocity, m/s
 8 - Richardson number, n/d
   -0.000000   -0.03061  0.7263E-12  0.2251E-04  0.2514E-05  0.3468E-04  0.4493E-01  0.1744E-01
   -0.068746    0.00316  0.7263E-12  0.1734E-04  0.6123E-06  0.7098E-04  0.3096E-01  0.1248E-01
   -0.137492    0.01095  0.7263E-12  0.1551E-04  0.2835E-06  0.1009E-03  0.2656E-01  0.2462E-01
   -0.206239    0.01543  0.7263E-12  0.1425E-04  0.1699E-06  0.1255E-03  0.2373E-01  0.3377E-01
   -0.274987    0.01888  0.7263E-12  0.1323E-04  0.1177E-06  0.1452E-03  0.2162E-01  0.4331E-01
   -0.343735    0.02174  0.7263E-12  0.1234E-04  0.8839E-07  0.1603E-03  0.1995E-01  0.5335E-01
   -0.412484    0.02421  0.7263E-12  0.1154E-04  0.6974E-07  0.1712E-03  0.1856E-01  0.6398E-01
   -0.481233    0.02643  0.7263E-12  0.1079E-04  0.5679E-07  0.1785E-03  0.1737E-01  0.7532E-01
   -0.549983    0.02848  0.7263E-12  0.1009E-04  0.4729E-07  0.1825E-03  0.1631E-01  0.8751E-01
   -0.618733    0.03040  0.7263E-12  0.9430E-05  0.4001E-07  0.1835E-03  0.1537E-01  0.1007E+00
   -0.687483    0.03225  0.7263E-12  0.8806E-05  0.3428E-07  0.1819E-03  0.1450E-01  0.1151E+00
   -0.756234    0.03405  0.7263E-12  0.8215E-05  0.2966E-07  0.1781E-03  0.1371E-01  0.1309E+00
   -0.824985    0.03583  0.7264E-12  0.7655E-05  0.2587E-07  0.1722E-03  0.1297E-01  0.1483E+00
   -0.893737    0.03762  0.7264E-12  0.7123E-05  0.2272E-07  0.1647E-03  0.1227E-01  0.1678E+00
   -0.962488    0.03942  0.7264E-12  0.6619E-05  0.2008E-07  0.1558E-03  0.1161E-01  0.1895E+00
   -1.031240    0.04128  0.7264E-12  0.6143E-05  0.1786E-07  0.1458E-03  0.1098E-01  0.2141E+00
   -1.099992    0.04321  0.7264E-12  0.5696E-05  0.1598E-07  0.1351E-03  0.1038E-01  0.2422E+00
   -1.168744    0.04524  0.7264E-12  0.5278E-05  0.1441E-07  0.1241E-03  0.9790E-02  0.2746E+00
   -1.237497    0.04740  0.7264E-12  0.4895E-05  0.1313E-07  0.1133E-03  0.9216E-02  0.3127E+00
   -1.306249    0.04975  0.7264E-12  0.4552E-05  0.1213E-07  0.1033E-03  0.8652E-02  0.3583E+00
   -1.375001    0.05233  0.7264E-12  0.4257E-05  0.1143E-07  0.9502E-04  0.8094E-02  0.4144E+00
   -1.443754    0.05524  0.7264E-12  0.4025E-05  0.1107E-07  0.8900E-04  0.7537E-02  0.4844E+00
   -1.512506    0.05865  0.7264E-12  0.3868E-05  0.1113E-07  0.8577E-04  0.6972E-02  0.5736E+00
   -1.581258    0.06296  0.7264E-12  0.3800E-05  0.1169E-07  0.8596E-04  0.6382E-02  0.7868E+00
   -1.650010    0.06944  0.7264E-12  0.3952E-05  0.1366E-07  0.6715E-04  0.5719E-02  0.7745E+00
   -1.718762    0.08607  0.7264E-12  0.3428E-05  0.1209E-07  0.5141E-04  0.3264E-02  0.2292E+01
   -1.787514    0.14522  0.7264E-12  0.2633E-05  0.8549E-08  0.6388E-04  0.1056E-02  0.2188E+03
   -1.856266    0.20656  0.7265E-12  0.2101E-05  0.6351E-08  0.5248E-04  0.6248E-03  0.2663E+05
   -1.925017    0.25336  0.7265E-12  0.1692E-05  0.4794E-08  0.6766E-04  0.3945E-03 -0.1903E+06
   -1.993768    0.26445  0.7265E-12  0.1378E-05  0.3690E-08  0.8030E-04  0.2863E-03 -0.6735E+07
   -2.062519    0.26626  0.7265E-12  0.1104E-05  0.2832E-08  0.2646E-04  0.2183E-03  0.1468E+08
   -2.131270    0.27119  0.7265E-12  0.8574E-06  0.2142E-08  0.1746E-04  0.1603E-03  0.1178E+11
   -2.200020    0.31989  0.7265E-12  0.6377E-06  0.1574E-08  0.1138E-04  0.1099E-03  0.6233E+13
   -2.268769    0.44978  0.7266E-12  0.4814E-06  0.1170E-08  0.7383E-05  0.6527E-04  0.1529E+16
   -2.337519    0.62380  0.7266E-12  0.3669E-06  0.8758E-09  0.4202E-05  0.4221E-04  0.9190E+16
   -2.406267    0.85062  0.7266E-12  0.2630E-06  0.6202E-09  0.1635E-05  0.2632E-04  0.1227E+17
   -2.475016    1.21340  0.7266E-12  0.1663E-06  0.3865E-09  0.1030E-06  0.1488E-04  0.1521E+17
   -2.543763    1.84767  0.7267E-12  0.4445E-07  0.1044E-09  0.9569E-08  0.2807E-05  0.1920E+17
   -2.612510    2.92165  0.7269E-12  0.5311E-08  0.1364E-10  0.1616E-08  0.9592E-07  0.4812E+16
   -2.681257    4.27059  0.7274E-12  0.9552E-09  0.3722E-11  0.9233E-08  0.1173E-08 -0.1122E+17
   -2.750003    5.21830  0.7277E-12  0.0000E+00  0.0000E+00  0.0000E+00  0.1107E-08  0.0000E+00
