 1 - depth, m
 2 - temperature, C
 3 - salinity, kg/kg
 4 - turbulent kinetic energy, m**2/s**2
 5 - dissipation rate, m**2/s**3
 6 - kinematic heat conductance, m**2/s
 7 - modulus of horizontal velocity, m/s
 8 - Richardson number, n/d
   -0.000000   -0.00000  0.7072E-11  0.1219E-13  0.7603E-17  0.1000E-09  0.0000E+00  0.4236E+16
   -0.068746    0.06410  0.3882E-11  0.1219E-13  0.7603E-17  0.1000E-09  0.0000E+00  0.4051E+16
   -0.137492    0.12646  0.3097E-11  0.1219E-13  0.7603E-17  0.1000E-09  0.0000E+00  0.3905E+16
   -0.206239    0.18760  0.2930E-11  0.1219E-13  0.7603E-17  0.1000E-09  0.0000E+00  0.3797E+16
   -0.274986    0.24808  0.2900E-11  0.1219E-13  0.7603E-17  0.1000E-09  0.0000E+00  0.3726E+16
   -0.343735    0.30845  0.2895E-11  0.1219E-13  0.7603E-17  0.1000E-09  0.0000E+00  0.3691E+16
   -0.412483    0.36932  0.2894E-11  0.1219E-13  0.7603E-17  0.1000E-09  0.0000E+00  0.3693E+16
   -0.481232    0.43132  0.2894E-11  0.1219E-13  0.7603E-17  0.1000E-09  0.0000E+00  0.3729E+16
   -0.549982    0.49513  0.2894E-11  0.1219E-13  0.7603E-17  0.1000E-09  0.0000E+00  0.3799E+16
   -0.618732    0.56142  0.2894E-11  0.1219E-13  0.7603E-17  0.1000E-09  0.0000E+00  0.3900E+16
   -0.687482    0.63092  0.2894E-11  0.1219E-13  0.7603E-17  0.1000E-09  0.0000E+00  0.4046E+16
   -0.756233    0.70466  0.2894E-11  0.1219E-13  0.7603E-17  0.1000E-09  0.0000E+00  0.4223E+16
   -0.824984    0.78355  0.2894E-11  0.1219E-13  0.7603E-17  0.1000E-09  0.0000E+00  0.4418E+16
   -0.893735    0.86833  0.2894E-11  0.1219E-13  0.7603E-17  0.1000E-09  0.0000E+00  0.4622E+16
   -0.962486    0.95970  0.2894E-11  0.1219E-13  0.7603E-17  0.1000E-09  0.0000E+00  0.4829E+16
   -1.031238    1.05837  0.2893E-11  0.1219E-13  0.7603E-17  0.1000E-09  0.0000E+00  0.5029E+16
   -1.099990    1.16496  0.2893E-11  0.1219E-13  0.7603E-17  0.1000E-09  0.0000E+00  0.5211E+16
   -1.168742    1.28006  0.2889E-11  0.3499E-13  0.7603E-17  0.1000E-09  0.0000E+00  0.5365E+16
   -1.237494    1.40418  0.2881E-11  0.1059E-12  0.1534E-16  0.1000E-09  0.0000E+00  0.5480E+16
   -1.306246    1.53773  0.2866E-11  0.2738E-12  0.3617E-16  0.1000E-09  0.0000E+00  0.5544E+16
   -1.374998    1.68102  0.2846E-11  0.6705E-12  0.8521E-16  0.1000E-09  0.0000E+00  0.5567E+16
   -1.443751    1.83488  0.2830E-11  0.1607E-11  0.1982E-15  0.1000E-09  0.0000E+00  0.5519E+16
   -1.512503    1.99960  0.2822E-11  0.3798E-11  0.4557E-15  0.1000E-09  0.0000E+00  0.5385E+16
   -1.581255    2.17522  0.2817E-11  0.8876E-11  0.1037E-14  0.1000E-09  0.0000E+00  0.5158E+16
   -1.650007    2.36170  0.2814E-11  0.2053E-10  0.2334E-14  0.1000E-09  0.0000E+00  0.4833E+16
   -1.718759    2.55902  0.2812E-11  0.4699E-10  0.5203E-14  0.1000E-09  0.0000E+00  0.4408E+16
   -1.787510    2.76724  0.2811E-11  0.1091E-09  0.1176E-13  0.1000E-09  0.0000E+00  0.3898E+16
   -1.856262    2.98772  0.2810E-11  0.2553E-09  0.2682E-13  0.1000E-09  0.0000E+00  0.3276E+16
   -1.925013    3.22160  0.2810E-11  0.5961E-09  0.6104E-13  0.1236E-09  0.0000E+00  0.2516E+16
   -1.993764    3.46966  0.2808E-11  0.1388E-08  0.1386E-12  0.4454E-09  0.0000E+00  0.1586E+16
   -2.062515    3.72986  0.2805E-11  0.3146E-08  0.3065E-12  0.3027E-08  0.0000E+00  0.5166E+15
   -2.131265    3.98945  0.2800E-11  0.4171E-08  0.4097E-12  0.1180E-04  0.0000E+00 -0.2301E+12
   -2.200015    3.99260  0.2800E-11  0.4707E-08  0.4807E-12  0.1548E-04  0.0000E+00 -0.2814E+12
   -2.268764    3.99500  0.2800E-11  0.5172E-08  0.5603E-12  0.1732E-04  0.0000E+00 -0.3297E+12
   -2.337513    3.99715  0.2800E-11  0.5581E-08  0.6559E-12  0.1777E-04  0.0000E+00 -0.3937E+12
   -2.406262    3.99927  0.2800E-11  0.5928E-08  0.7780E-12  0.1694E-04  0.0000E+00 -0.4916E+12
   -2.475010    4.00150  0.2800E-11  0.6194E-08  0.9510E-12  0.1478E-04  0.0000E+00 -0.6655E+12
   -2.543758    4.00407  0.2800E-11  0.6335E-08  0.1239E-11  0.1122E-04  0.0000E+00 -0.1050E+13
   -2.612505    4.00751  0.2800E-11  0.6217E-08  0.1895E-11  0.6298E-05  0.0000E+00 -0.2389E+13
   -2.681251    4.01378  0.2800E-11  0.5132E-08  0.5194E-11  0.1248E-05  0.0000E+00 -0.2212E+14
   -2.749997    4.04615  0.2800E-11  0.0000E+00  0.0000E+00  0.0000E+00  0.0000E+00  0.0000E+00
