 1 - depth, m
 2 - temperature, C
 3 - salinity, kg/kg
 4 - turbulent kinetic energy, m**2/s**2
 5 - dissipation rate, m**2/s**3
 6 - kinematic heat conductance, m**2/s
 7 - modulus of horizontal velocity, m/s
 8 - Richardson number, n/d
   -0.000000   -0.00000  0.2457E-15  0.1590E-08  0.2368E-11  0.3860E-09  0.0000E+00  0.3004E+17
   -0.068747    0.48206  0.0000E+00  0.1631E-07  0.1942E-11  0.5674E-09  0.0000E+00  0.1680E+17
   -0.137494    0.78572  0.5522E-13  0.4689E-07  0.3182E-11  0.1703E-08  0.0000E+00  0.9048E+16
   -0.206242    0.96275  0.6572E-13  0.1054E-06  0.6223E-11  0.7145E-08  0.0000E+00  0.4255E+16
   -0.274990    1.04995  0.4176E-11  0.2053E-06  0.1186E-10  0.8271E-07  0.0000E+00  0.1043E+16
   -0.343740    1.07148  0.2354E-10  0.2069E-06  0.1213E-10  0.1214E-02  0.0000E+00  0.2113E+13
   -0.412489    1.07152  0.2464E-10  0.2077E-06  0.1227E-10  0.1235E-02  0.0000E+00 -0.8991E+12
   -0.481239    1.07150  0.2469E-10  0.2077E-06  0.1225E-10  0.1231E-02  0.0000E+00 -0.3714E+12
   -0.549990    1.07150  0.2507E-10  0.2071E-06  0.1212E-10  0.1214E-02  0.0000E+00  0.4426E+14
   -0.618741    1.07237  0.2806E-10  0.2051E-06  0.1175E-10  0.1173E-02  0.0000E+00  0.2018E+15
   -0.687492    1.07639  0.3187E-10  0.1990E-06  0.1098E-10  0.1094E-02  0.0000E+00  0.4751E+15
   -0.756244    1.08599  0.3502E-10  0.1852E-06  0.9742E-11  0.8924E-03  0.0000E+00  0.8442E+15
   -0.824996    1.10335  0.3692E-10  0.1592E-06  0.7966E-11  0.4300E-03  0.0000E+00  0.1301E+16
   -0.893748    1.13060  0.3776E-10  0.1128E-06  0.5449E-11  0.2740E-07  0.0000E+00  0.1813E+16
   -0.962500    1.16935  0.3755E-10  0.5652E-07  0.2788E-11  0.8125E-08  0.0000E+00  0.2184E+16
   -1.031253    1.21694  0.3619E-10  0.2646E-07  0.1348E-11  0.3334E-08  0.0000E+00  0.2444E+16
   -1.100006    1.27127  0.3514E-10  0.1191E-07  0.6334E-12  0.1431E-08  0.0000E+00  0.2649E+16
   -1.168759    1.33149  0.3448E-10  0.5170E-08  0.2966E-12  0.6468E-09  0.0000E+00  0.2811E+16
   -1.237512    1.39702  0.3410E-10  0.2130E-08  0.1540E-12  0.3423E-09  0.0000E+00  0.2943E+16
   -1.306265    1.46757  0.3389E-10  0.8676E-09  0.1354E-12  0.2808E-09  0.0000E+00  0.3082E+16
   -1.375018    1.54375  0.3377E-10  0.8150E-09  0.3220E-12  0.4605E-09  0.0000E+00  0.3537E+16
   -1.443771    1.63444  0.3369E-10  0.3207E-08  0.1457E-11  0.1269E-08  0.0000E+00  0.4524E+16
   -1.512525    1.75653  0.3363E-10  0.1598E-07  0.7104E-11  0.3269E-08  0.0000E+00  0.6853E+16
   -1.581278    1.96108  0.3356E-10  0.7428E-07  0.3198E-10  0.9909E-08  0.0000E+00  0.1083E+17
   -1.650031    2.40773  0.3345E-10  0.1950E-06  0.7999E-10  0.2688E-04  0.0000E+00  0.1105E+17
   -1.718783    3.09925  0.3327E-10  0.3069E-06  0.1231E-09  0.1339E-03  0.0000E+00  0.7783E+16
   -1.787536    3.74879  0.3311E-10  0.3862E-06  0.1537E-09  0.2439E-03  0.0000E+00  0.2762E+16
   -1.856289    4.13156  0.3300E-10  0.4139E-06  0.1653E-09  0.3275E-03  0.0000E+00  0.2203E+15
   -1.925041    4.21427  0.3297E-10  0.4201E-06  0.1696E-09  0.3526E-03  0.0000E+00 -0.4716E+13
   -1.993793    4.21562  0.3297E-10  0.4249E-06  0.1743E-09  0.3492E-03  0.0000E+00 -0.4959E+13
   -2.062544    4.21703  0.3297E-10  0.4289E-06  0.1798E-09  0.3450E-03  0.0000E+00 -0.5095E+13
   -2.131296    4.21846  0.3297E-10  0.4318E-06  0.1862E-09  0.3382E-03  0.0000E+00 -0.5287E+13
   -2.200047    4.21993  0.3297E-10  0.4337E-06  0.1937E-09  0.3289E-03  0.0000E+00 -0.5530E+13
   -2.268797    4.22146  0.3297E-10  0.4344E-06  0.2029E-09  0.3164E-03  0.0000E+00 -0.5845E+13
   -2.337547    4.22305  0.3297E-10  0.4339E-06  0.2149E-09  0.2999E-03  0.0000E+00 -0.6262E+13
   -2.406297    4.22475  0.3297E-10  0.4318E-06  0.2315E-09  0.2785E-03  0.0000E+00 -0.6863E+13
   -2.475046    4.22659  0.3297E-10  0.4277E-06  0.2560E-09  0.2494E-03  0.0000E+00 -0.7793E+13
   -2.543794    4.22866  0.3297E-10  0.4202E-06  0.2973E-09  0.2098E-03  0.0000E+00 -0.9406E+13
   -2.612542    4.23116  0.3297E-10  0.4033E-06  0.3991E-09  0.1197E-03  0.0000E+00 -0.1700E+14
   -2.681290    4.23565  0.3297E-10  0.2710E-06  0.1474E-08  0.8234E-05  0.0000E+00 -0.2940E+15
   -2.750036    4.30252  0.3297E-10  0.0000E+00  0.0000E+00  0.0000E+00  0.0000E+00  0.0000E+00
