 1 - depth, m
 2 - temperature, C
 3 - salinity, kg/kg
 4 - turbulent kinetic energy, m**2/s**2
 5 - dissipation rate, m**2/s**3
 6 - kinematic heat conductance, m**2/s
 7 - modulus of horizontal velocity, m/s
 8 - Richardson number, n/d
   -0.000000   -0.00000  0.1629E-11  0.1219E-13  0.7603E-17  0.1000E-09  0.0000E+00  0.7374E+16
   -0.068746    0.11231  0.9474E-12  0.1219E-13  0.7603E-17  0.1000E-09  0.0000E+00  0.7080E+16
   -0.137492    0.22351  0.6891E-12  0.1219E-13  0.7603E-17  0.1000E-09  0.0000E+00  0.6816E+16
   -0.206239    0.33397  0.6058E-12  0.1219E-13  0.7603E-17  0.1000E-09  0.0000E+00  0.6581E+16
   -0.274987    0.44410  0.5832E-12  0.1219E-13  0.7603E-17  0.1000E-09  0.0000E+00  0.6371E+16
   -0.343735    0.55429  0.5778E-12  0.1219E-13  0.7603E-17  0.1000E-09  0.0000E+00  0.6182E+16
   -0.412483    0.66492  0.5767E-12  0.1219E-13  0.7603E-17  0.1000E-09  0.0000E+00  0.6011E+16
   -0.481232    0.77634  0.5764E-12  0.1219E-13  0.7603E-17  0.1000E-09  0.0000E+00  0.5853E+16
   -0.549982    0.88891  0.5764E-12  0.1219E-13  0.7603E-17  0.1000E-09  0.0000E+00  0.5706E+16
   -0.618732    1.00295  0.5764E-12  0.1219E-13  0.7603E-17  0.1000E-09  0.0000E+00  0.5564E+16
   -0.687482    1.11875  0.5764E-12  0.1219E-13  0.7603E-17  0.1000E-09  0.0000E+00  0.5437E+16
   -0.756233    1.23684  0.5764E-12  0.1219E-13  0.7603E-17  0.1000E-09  0.0000E+00  0.5313E+16
   -0.824984    1.35760  0.5764E-12  0.1219E-13  0.7603E-17  0.1000E-09  0.0000E+00  0.5182E+16
   -0.893735    1.48125  0.5763E-12  0.1219E-13  0.7603E-17  0.1000E-09  0.0000E+00  0.5041E+16
   -0.962487    1.60796  0.5762E-12  0.1219E-13  0.7603E-17  0.1000E-09  0.0000E+00  0.4887E+16
   -1.031238    1.73788  0.5759E-12  0.5577E-13  0.9915E-17  0.1000E-09  0.0000E+00  0.4716E+16
   -1.099990    1.87111  0.5753E-12  0.1622E-12  0.2269E-16  0.1000E-09  0.0000E+00  0.4526E+16
   -1.168742    2.00770  0.5741E-12  0.4122E-12  0.5422E-16  0.1000E-09  0.0000E+00  0.4315E+16
   -1.237494    2.14769  0.5721E-12  0.1005E-11  0.1279E-15  0.1000E-09  0.0000E+00  0.4082E+16
   -1.306246    2.29105  0.5695E-12  0.2408E-11  0.2975E-15  0.1000E-09  0.0000E+00  0.3824E+16
   -1.374999    2.43772  0.5668E-12  0.5693E-11  0.6842E-15  0.1000E-09  0.0000E+00  0.3546E+16
   -1.443751    2.58778  0.5645E-12  0.1331E-10  0.1556E-14  0.1000E-09  0.0000E+00  0.3244E+16
   -1.512503    2.74115  0.5629E-12  0.3077E-10  0.3503E-14  0.1000E-09  0.0000E+00  0.2914E+16
   -1.581255    2.89765  0.5619E-12  0.7040E-10  0.7805E-14  0.1000E-09  0.0000E+00  0.2560E+16
   -1.650007    3.05702  0.5613E-12  0.1594E-09  0.1721E-13  0.1000E-09  0.0000E+00  0.2182E+16
   -1.718759    3.21901  0.5610E-12  0.3573E-09  0.3759E-13  0.1072E-09  0.0000E+00  0.1784E+16
   -1.787511    3.38341  0.5606E-12  0.8119E-09  0.8322E-13  0.3058E-09  0.0000E+00  0.1385E+16
   -1.856262    3.55257  0.5601E-12  0.1859E-08  0.1857E-12  0.9951E-09  0.0000E+00  0.9494E+15
   -1.925013    3.72632  0.5594E-12  0.4236E-08  0.4128E-12  0.4420E-08  0.0000E+00  0.4750E+15
   -1.993764    3.90192  0.5589E-12  0.9192E-08  0.8787E-12  0.9060E-07  0.0000E+00  0.4903E+14
   -2.062515    4.01578  0.5589E-12  0.1025E-07  0.9853E-12  0.4441E-04  0.0000E+00 -0.2756E+12
   -2.131265    4.01637  0.5589E-12  0.1069E-07  0.1041E-11  0.4458E-04  0.0000E+00 -0.2801E+12
   -2.200015    4.01696  0.5589E-12  0.1103E-07  0.1100E-11  0.4381E-04  0.0000E+00 -0.2906E+12
   -2.268765    4.01756  0.5589E-12  0.1128E-07  0.1166E-11  0.4205E-04  0.0000E+00 -0.3090E+12
   -2.337514    4.01819  0.5589E-12  0.1144E-07  0.1249E-11  0.3913E-04  0.0000E+00 -0.3394E+12
   -2.406263    4.01886  0.5589E-12  0.1150E-07  0.1361E-11  0.3485E-04  0.0000E+00 -0.3904E+12
   -2.475011    4.01962  0.5589E-12  0.1145E-07  0.1530E-11  0.2894E-04  0.0000E+00 -0.4838E+12
   -2.543758    4.02053  0.5589E-12  0.1120E-07  0.1831E-11  0.2114E-04  0.0000E+00 -0.6873E+12
   -2.612505    4.02179  0.5589E-12  0.1053E-07  0.2562E-11  0.1140E-04  0.0000E+00 -0.1355E+13
   -2.681252    4.02415  0.5589E-12  0.7665E-08  0.7122E-11  0.1514E-05  0.0000E+00 -0.1271E+14
   -2.749997    4.04159  0.5589E-12  0.0000E+00  0.0000E+00  0.0000E+00  0.0000E+00  0.0000E+00
