 1 - depth, m
 2 - temperature, C
 3 - salinity, kg/kg
 4 - turbulent kinetic energy, m**2/s**2
 5 - dissipation rate, m**2/s**3
 6 - kinematic heat conductance, m**2/s
 7 - modulus of horizontal velocity, m/s
 8 - Richardson number, n/d
   -0.000000   -0.00000  0.4657E-11  0.1219E-13  0.7603E-17  0.1000E-09  0.0000E+00  0.7275E+16
   -0.068746    0.11077  0.2743E-11  0.1219E-13  0.7603E-17  0.1000E-09  0.0000E+00  0.6985E+16
   -0.137492    0.22042  0.1998E-11  0.1219E-13  0.7603E-17  0.1000E-09  0.0000E+00  0.6730E+16
   -0.206239    0.32936  0.1760E-11  0.1219E-13  0.7603E-17  0.1000E-09  0.0000E+00  0.6504E+16
   -0.274986    0.43803  0.1697E-11  0.1219E-13  0.7603E-17  0.1000E-09  0.0000E+00  0.6303E+16
   -0.343735    0.54682  0.1682E-11  0.1219E-13  0.7603E-17  0.1000E-09  0.0000E+00  0.6124E+16
   -0.412483    0.65613  0.1679E-11  0.1219E-13  0.7603E-17  0.1000E-09  0.0000E+00  0.5962E+16
   -0.481232    0.76632  0.1679E-11  0.1219E-13  0.7603E-17  0.1000E-09  0.0000E+00  0.5814E+16
   -0.549982    0.87775  0.1679E-11  0.1219E-13  0.7603E-17  0.1000E-09  0.0000E+00  0.5676E+16
   -0.618732    0.99073  0.1679E-11  0.1219E-13  0.7603E-17  0.1000E-09  0.0000E+00  0.5544E+16
   -0.687482    1.10557  0.1679E-11  0.1219E-13  0.7603E-17  0.1000E-09  0.0000E+00  0.5425E+16
   -0.756233    1.22281  0.1679E-11  0.1219E-13  0.7603E-17  0.1000E-09  0.0000E+00  0.5310E+16
   -0.824984    1.34285  0.1678E-11  0.1219E-13  0.7603E-17  0.1000E-09  0.0000E+00  0.5188E+16
   -0.893735    1.46589  0.1678E-11  0.1219E-13  0.7603E-17  0.1000E-09  0.0000E+00  0.5055E+16
   -0.962486    1.59212  0.1678E-11  0.1219E-13  0.7603E-17  0.1000E-09  0.0000E+00  0.4908E+16
   -1.031238    1.72168  0.1678E-11  0.5461E-13  0.9771E-17  0.1000E-09  0.0000E+00  0.4744E+16
   -1.099990    1.85468  0.1676E-11  0.1589E-12  0.2232E-16  0.1000E-09  0.0000E+00  0.4560E+16
   -1.168742    1.99117  0.1673E-11  0.4045E-12  0.5337E-16  0.1000E-09  0.0000E+00  0.4354E+16
   -1.237494    2.13117  0.1668E-11  0.9877E-12  0.1260E-15  0.1000E-09  0.0000E+00  0.4125E+16
   -1.306246    2.27466  0.1661E-11  0.2368E-11  0.2935E-15  0.1000E-09  0.0000E+00  0.3870E+16
   -1.374998    2.42157  0.1653E-11  0.5605E-11  0.6757E-15  0.1000E-09  0.0000E+00  0.3594E+16
   -1.443751    2.57197  0.1646E-11  0.1312E-10  0.1539E-14  0.1000E-09  0.0000E+00  0.3292E+16
   -1.512503    2.72578  0.1641E-11  0.3036E-10  0.3468E-14  0.1000E-09  0.0000E+00  0.2962E+16
   -1.581255    2.88278  0.1638E-11  0.6955E-10  0.7735E-14  0.1000E-09  0.0000E+00  0.2607E+16
   -1.650007    3.04272  0.1636E-11  0.1577E-09  0.1708E-13  0.1000E-09  0.0000E+00  0.2226E+16
   -1.718759    3.20529  0.1635E-11  0.3538E-09  0.3735E-13  0.1041E-09  0.0000E+00  0.1825E+16
   -1.787510    3.37027  0.1634E-11  0.8051E-09  0.8279E-13  0.2958E-09  0.0000E+00  0.1424E+16
   -1.856262    3.53997  0.1632E-11  0.1845E-08  0.1850E-12  0.9545E-09  0.0000E+00  0.9860E+15
   -1.925013    3.71416  0.1630E-11  0.4212E-08  0.4118E-12  0.4111E-08  0.0000E+00  0.5095E+15
   -1.993764    3.89032  0.1628E-11  0.9251E-08  0.8862E-12  0.6867E-07  0.0000E+00  0.6535E+14
   -2.062515    4.01599  0.1628E-11  0.1031E-07  0.9934E-12  0.4451E-04  0.0000E+00 -0.2766E+12
   -2.131265    4.01657  0.1628E-11  0.1075E-07  0.1049E-11  0.4468E-04  0.0000E+00 -0.2812E+12
   -2.200015    4.01716  0.1628E-11  0.1109E-07  0.1108E-11  0.4392E-04  0.0000E+00 -0.2918E+12
   -2.268765    4.01776  0.1628E-11  0.1134E-07  0.1175E-11  0.4216E-04  0.0000E+00 -0.3103E+12
   -2.337514    4.01838  0.1628E-11  0.1150E-07  0.1258E-11  0.3924E-04  0.0000E+00 -0.3409E+12
   -2.406262    4.01906  0.1628E-11  0.1157E-07  0.1371E-11  0.3495E-04  0.0000E+00 -0.3922E+12
   -2.475010    4.01981  0.1628E-11  0.1151E-07  0.1542E-11  0.2903E-04  0.0000E+00 -0.4862E+12
   -2.543758    4.02073  0.1628E-11  0.1126E-07  0.1846E-11  0.2121E-04  0.0000E+00 -0.6910E+12
   -2.612505    4.02198  0.1628E-11  0.1060E-07  0.2583E-11  0.1144E-04  0.0000E+00 -0.1363E+13
   -2.681251    4.02435  0.1628E-11  0.7714E-08  0.7183E-11  0.1522E-05  0.0000E+00 -0.1279E+14
   -2.749997    4.04181  0.1628E-11  0.0000E+00  0.0000E+00  0.0000E+00  0.0000E+00  0.0000E+00
