 1 - depth, m
 2 - temperature, C
 3 - salinity, kg/kg
 4 - turbulent kinetic energy, m**2/s**2
 5 - dissipation rate, m**2/s**3
 6 - kinematic heat conductance, m**2/s
 7 - modulus of horizontal velocity, m/s
 8 - Richardson number, n/d
   -0.000000   11.23382  0.3343E-10  0.4074E-05  0.9207E-07  0.1403E-04  0.3195E-01  0.9549E-01
   -0.068746   11.18916  0.3343E-10  0.2917E-05  0.4523E-07  0.1216E-04  0.2676E-01  0.3382E+00
   -0.137492   10.94218  0.3351E-10  0.1856E-05  0.2761E-07  0.6782E-05  0.2199E-01  0.9776E+00
   -0.206239   10.52748  0.3358E-10  0.9750E-06  0.1706E-07  0.2460E-05  0.1704E-01  0.2704E+01
   -0.274987   10.02426  0.3363E-10  0.5198E-06  0.8280E-08  0.3988E-06  0.1165E-01  0.6161E+01
   -0.343735    9.39840  0.3368E-10  0.7977E-06  0.1898E-08  0.9646E-06  0.5805E-02  0.2859E+02
   -0.412484    8.67108  0.3377E-10  0.1398E-05  0.1546E-08  0.1323E-04  0.2118E-02  0.1911E+03
   -0.481233    8.35776  0.3379E-10  0.2335E-05  0.1670E-08  0.4051E-04  0.6540E-03  0.2981E+03
   -0.549983    8.27972  0.3379E-10  0.2556E-05  0.1772E-08  0.1034E-03  0.1318E-03  0.4137E+03
   -0.618733    8.27764  0.3379E-10  0.2700E-05  0.1857E-08  0.2007E-03  0.1074E-03  0.4952E+03
   -0.687484    8.27714  0.3379E-10  0.2833E-05  0.1947E-08  0.3133E-03  0.9435E-04  0.3673E+03
   -0.756235    8.27695  0.3379E-10  0.2965E-05  0.2047E-08  0.4449E-03  0.8465E-04  0.9571E+04
   -0.824986    8.27688  0.3379E-10  0.3084E-05  0.2147E-08  0.8428E-03  0.7682E-04  0.9311E+04
   -0.893737    8.27689  0.3379E-10  0.3173E-05  0.2228E-08  0.1427E-02  0.7091E-04  0.3033E+03
   -0.962489    8.27693  0.3379E-10  0.3249E-05  0.2302E-08  0.1505E-02  0.6772E-04  0.6865E+02
   -1.031241    8.27699  0.3379E-10  0.3329E-05  0.2386E-08  0.1496E-02  0.6464E-04  0.8201E+02
   -1.099993    8.27708  0.3379E-10  0.3413E-05  0.2480E-08  0.1497E-02  0.6157E-04  0.1027E+03
   -1.168745    8.27720  0.3379E-10  0.3502E-05  0.2583E-08  0.1501E-02  0.5852E-04  0.1235E+03
   -1.237497    8.27736  0.3379E-10  0.3592E-05  0.2695E-08  0.1505E-02  0.5549E-04  0.1453E+03
   -1.306249    8.27755  0.3379E-10  0.3684E-05  0.2814E-08  0.1509E-02  0.5249E-04  0.1677E+03
   -1.375002    8.27777  0.3379E-10  0.3774E-05  0.2940E-08  0.1511E-02  0.4951E-04  0.1917E+03
   -1.443754    8.27803  0.3379E-10  0.3863E-05  0.3073E-08  0.1510E-02  0.4655E-04  0.2165E+03
   -1.512507    8.27833  0.3379E-10  0.3948E-05  0.3210E-08  0.1506E-02  0.4361E-04  0.2438E+03
   -1.581259    8.27866  0.3379E-10  0.4029E-05  0.3352E-08  0.1499E-02  0.4067E-04  0.2938E+03
   -1.650011    8.27903  0.3379E-10  0.4101E-05  0.3493E-08  0.1544E-02  0.3774E-04  0.1234E+04
   -1.718763    8.27943  0.3379E-10  0.4166E-05  0.3638E-08  0.1481E-02  0.3498E-04  0.1905E+04
   -1.787515    8.27989  0.3379E-10  0.4225E-05  0.3793E-08  0.1452E-02  0.3210E-04  0.4541E+03
   -1.856266    8.28037  0.3379E-10  0.4279E-05  0.3963E-08  0.1512E-02  0.2935E-04  0.1341E+04
   -1.925018    8.28085  0.3379E-10  0.4329E-05  0.4158E-08  0.1369E-02  0.2698E-04  0.7113E+04
   -1.993769    8.28138  0.3379E-10  0.4375E-05  0.4382E-08  0.1347E-02  0.2464E-04  0.9985E+03
   -2.062520    8.28195  0.3379E-10  0.4415E-05  0.4639E-08  0.1299E-02  0.2243E-04  0.1236E+04
   -2.131270    8.28257  0.3379E-10  0.4447E-05  0.4930E-08  0.1242E-02  0.2030E-04  0.1614E+04
   -2.200020    8.28325  0.3379E-10  0.4470E-05  0.5265E-08  0.1176E-02  0.1823E-04  0.2179E+04
   -2.268770    8.28399  0.3379E-10  0.4480E-05  0.5664E-08  0.1101E-02  0.1619E-04  0.3014E+04
   -2.337519    8.28482  0.3379E-10  0.4477E-05  0.6175E-08  0.1013E-02  0.1423E-04  0.4515E+04
   -2.406268    8.28576  0.3379E-10  0.4457E-05  0.6866E-08  0.9084E-03  0.1235E-04  0.7448E+04
   -2.475016    8.28683  0.3379E-10  0.4411E-05  0.7881E-08  0.7855E-03  0.1054E-04  0.1398E+05
   -2.543764    8.28811  0.3379E-10  0.4327E-05  0.9556E-08  0.6290E-03  0.8790E-05  0.3270E+05
   -2.612511    8.28977  0.3379E-10  0.4166E-05  0.1297E-07  0.4905E-03  0.7055E-05  0.9580E+05
   -2.681258    8.29196  0.3379E-10  0.2868E-05  0.4908E-07  0.2826E-04  0.5509E-05 -0.7266E+07
   -2.750004    8.33195  0.3379E-10  0.0000E+00  0.0000E+00  0.0000E+00  0.5509E-05  0.0000E+00
