 1 - depth, m
 2 - temperature, C
 3 - salinity, kg/kg
 4 - turbulent kinetic energy, m**2/s**2
 5 - dissipation rate, m**2/s**3
 6 - kinematic heat conductance, m**2/s
 7 - modulus of horizontal velocity, m/s
 8 - Richardson number, n/d
   -0.000000   -0.00000  0.1781E-11  0.1219E-13  0.7603E-17  0.1000E-09  0.0000E+00  0.3931E+16
   -0.068746    0.05944  0.9730E-12  0.1219E-13  0.7603E-17  0.1000E-09  0.0000E+00  0.3726E+16
   -0.137492    0.11668  0.7990E-12  0.1219E-13  0.7603E-17  0.1000E-09  0.0000E+00  0.3557E+16
   -0.206239    0.17218  0.7627E-12  0.1219E-13  0.7603E-17  0.1000E-09  0.0000E+00  0.3426E+16
   -0.274986    0.22647  0.7561E-12  0.1219E-13  0.7603E-17  0.1000E-09  0.0000E+00  0.3334E+16
   -0.343735    0.28012  0.7551E-12  0.1219E-13  0.7603E-17  0.1000E-09  0.0000E+00  0.3283E+16
   -0.412483    0.33376  0.7550E-12  0.1219E-13  0.7603E-17  0.1000E-09  0.0000E+00  0.3272E+16
   -0.481232    0.38807  0.7549E-12  0.1219E-13  0.7603E-17  0.1000E-09  0.0000E+00  0.3304E+16
   -0.549982    0.44379  0.7549E-12  0.1219E-13  0.7603E-17  0.1000E-09  0.0000E+00  0.3377E+16
   -0.618732    0.50174  0.7549E-12  0.1219E-13  0.7603E-17  0.1000E-09  0.0000E+00  0.3492E+16
   -0.687482    0.56275  0.7549E-12  0.1219E-13  0.7603E-17  0.1000E-09  0.0000E+00  0.3664E+16
   -0.756233    0.62802  0.7549E-12  0.1219E-13  0.7603E-17  0.1000E-09  0.0000E+00  0.3882E+16
   -0.824984    0.69867  0.7549E-12  0.1219E-13  0.7603E-17  0.1000E-09  0.0000E+00  0.4130E+16
   -0.893735    0.77563  0.7549E-12  0.1219E-13  0.7603E-17  0.1000E-09  0.0000E+00  0.4402E+16
   -0.962486    0.85986  0.7549E-12  0.1219E-13  0.7603E-17  0.1000E-09  0.0000E+00  0.4689E+16
   -1.031238    0.95230  0.7549E-12  0.1219E-13  0.7603E-17  0.1000E-09  0.0000E+00  0.4980E+16
   -1.099990    1.05384  0.7548E-12  0.1219E-13  0.7603E-17  0.1000E-09  0.0000E+00  0.5264E+16
   -1.168742    1.16535  0.7543E-12  0.4304E-13  0.9134E-17  0.1000E-09  0.0000E+00  0.5526E+16
   -1.237494    1.28758  0.7529E-12  0.1316E-12  0.2216E-16  0.1000E-09  0.0000E+00  0.5750E+16
   -1.306246    1.42126  0.7497E-12  0.3600E-12  0.5719E-16  0.1000E-09  0.0000E+00  0.5921E+16
   -1.374998    1.56695  0.7447E-12  0.9494E-12  0.1459E-15  0.1000E-09  0.0000E+00  0.6048E+16
   -1.443750    1.72584  0.7399E-12  0.2460E-11  0.3670E-15  0.1000E-09  0.0000E+00  0.6089E+16
   -1.512503    1.89849  0.7374E-12  0.6292E-11  0.9117E-15  0.1000E-09  0.0000E+00  0.6018E+16
   -1.581255    2.08503  0.7361E-12  0.1589E-10  0.2239E-14  0.1000E-09  0.0000E+00  0.5819E+16
   -1.650007    2.28540  0.7353E-12  0.3968E-10  0.5435E-14  0.1000E-09  0.0000E+00  0.5478E+16
   -1.718758    2.49928  0.7347E-12  0.9792E-10  0.1305E-13  0.1000E-09  0.0000E+00  0.4988E+16
   -1.787510    2.72605  0.7345E-12  0.2452E-09  0.3177E-13  0.1000E-09  0.0000E+00  0.4356E+16
   -1.856262    2.96542  0.7343E-12  0.6174E-09  0.7785E-13  0.1107E-09  0.0000E+00  0.3583E+16
   -1.925013    3.21732  0.7341E-12  0.1549E-08  0.1902E-12  0.3642E-09  0.0000E+00  0.2660E+16
   -1.993764    3.48117  0.7336E-12  0.3866E-08  0.4624E-12  0.1487E-08  0.0000E+00  0.1586E+16
   -2.062514    3.75397  0.7320E-12  0.9320E-08  0.1088E-11  0.1325E-07  0.0000E+00  0.4196E+15
   -2.131265    4.01014  0.7309E-12  0.1076E-07  0.1264E-11  0.3694E-04  0.0000E+00 -0.4062E+12
   -2.200015    4.01121  0.7309E-12  0.1135E-07  0.1358E-11  0.3765E-04  0.0000E+00 -0.4188E+12
   -2.268764    4.01226  0.7309E-12  0.1180E-07  0.1462E-11  0.3719E-04  0.0000E+00 -0.4449E+12
   -2.337513    4.01334  0.7309E-12  0.1215E-07  0.1587E-11  0.3544E-04  0.0000E+00 -0.4904E+12
   -2.406262    4.01447  0.7309E-12  0.1238E-07  0.1754E-11  0.3223E-04  0.0000E+00 -0.5683E+12
   -2.475010    4.01574  0.7309E-12  0.1245E-07  0.1999E-11  0.2730E-04  0.0000E+00 -0.7126E+12
   -2.543757    4.01725  0.7309E-12  0.1232E-07  0.2427E-11  0.2037E-04  0.0000E+00 -0.1031E+13
   -2.612504    4.01931  0.7309E-12  0.1172E-07  0.3444E-11  0.1132E-04  0.0000E+00 -0.2094E+13
   -2.681251    4.02314  0.7309E-12  0.8898E-08  0.9503E-11  0.1743E-05  0.0000E+00 -0.2058E+14
   -2.749996    4.04944  0.7309E-12  0.0000E+00  0.0000E+00  0.0000E+00  0.0000E+00  0.0000E+00
