 1 - depth, m
 2 - temperature, C
 3 - salinity, kg/kg
 4 - turbulent kinetic energy, m**2/s**2
 5 - dissipation rate, m**2/s**3
 6 - kinematic heat conductance, m**2/s
 7 - modulus of horizontal velocity, m/s
 8 - Richardson number, n/d
   -0.000000   -0.00000  0.4811E-11  0.1219E-13  0.7603E-17  0.1000E-09  0.0000E+00  0.7849E+16
   -0.068746    0.11966  0.2849E-11  0.1219E-13  0.7603E-17  0.1000E-09  0.0000E+00  0.7533E+16
   -0.137492    0.23834  0.2057E-11  0.1219E-13  0.7603E-17  0.1000E-09  0.0000E+00  0.7241E+16
   -0.206239    0.35632  0.1785E-11  0.1219E-13  0.7603E-17  0.1000E-09  0.0000E+00  0.6973E+16
   -0.274987    0.47391  0.1705E-11  0.1219E-13  0.7603E-17  0.1000E-09  0.0000E+00  0.6725E+16
   -0.343735    0.59141  0.1684E-11  0.1219E-13  0.7603E-17  0.1000E-09  0.0000E+00  0.6495E+16
   -0.412483    0.70913  0.1680E-11  0.1219E-13  0.7603E-17  0.1000E-09  0.0000E+00  0.6279E+16
   -0.481232    0.82735  0.1679E-11  0.1219E-13  0.7603E-17  0.1000E-09  0.0000E+00  0.6075E+16
   -0.549982    0.94633  0.1679E-11  0.1219E-13  0.7603E-17  0.1000E-09  0.0000E+00  0.5879E+16
   -0.618732    1.06634  0.1679E-11  0.1219E-13  0.7603E-17  0.1000E-09  0.0000E+00  0.5688E+16
   -0.687482    1.18759  0.1679E-11  0.1219E-13  0.7603E-17  0.1000E-09  0.0000E+00  0.5510E+16
   -0.756233    1.31053  0.1679E-11  0.1219E-13  0.7603E-17  0.1000E-09  0.0000E+00  0.5336E+16
   -0.824984    1.43550  0.1678E-11  0.1219E-13  0.7603E-17  0.1000E-09  0.0000E+00  0.5157E+16
   -0.893735    1.56264  0.1678E-11  0.1219E-13  0.7603E-17  0.1000E-09  0.0000E+00  0.4969E+16
   -0.962487    1.69209  0.1678E-11  0.1675E-13  0.7603E-17  0.1000E-09  0.0000E+00  0.4771E+16
   -1.031238    1.82395  0.1677E-11  0.6945E-13  0.1112E-16  0.1000E-09  0.0000E+00  0.4560E+16
   -1.099990    1.95828  0.1675E-11  0.1926E-12  0.2519E-16  0.1000E-09  0.0000E+00  0.4335E+16
   -1.168742    2.09511  0.1672E-11  0.4753E-12  0.5872E-16  0.1000E-09  0.0000E+00  0.4094E+16
   -1.237494    2.23445  0.1666E-11  0.1130E-11  0.1351E-15  0.1000E-09  0.0000E+00  0.3836E+16
   -1.306247    2.37625  0.1659E-11  0.2639E-11  0.3069E-15  0.1000E-09  0.0000E+00  0.3561E+16
   -1.374999    2.52045  0.1652E-11  0.6091E-11  0.6893E-15  0.1000E-09  0.0000E+00  0.3271E+16
   -1.443751    2.66710  0.1645E-11  0.1391E-10  0.1532E-14  0.1000E-09  0.0000E+00  0.2964E+16
   -1.512503    2.81611  0.1641E-11  0.3142E-10  0.3372E-14  0.1000E-09  0.0000E+00  0.2638E+16
   -1.581255    2.96730  0.1638E-11  0.7026E-10  0.7348E-14  0.1000E-09  0.0000E+00  0.2295E+16
   -1.650007    3.12046  0.1636E-11  0.1556E-09  0.1586E-13  0.1000E-09  0.0000E+00  0.1937E+16
   -1.718759    3.27535  0.1635E-11  0.3412E-09  0.3391E-13  0.1102E-09  0.0000E+00  0.1566E+16
   -1.787511    3.43179  0.1633E-11  0.7588E-09  0.7350E-13  0.3116E-09  0.0000E+00  0.1200E+16
   -1.856263    3.59209  0.1631E-11  0.1701E-08  0.1606E-12  0.1014E-08  0.0000E+00  0.8058E+15
   -1.925014    3.75599  0.1629E-11  0.3797E-08  0.3500E-12  0.4653E-08  0.0000E+00  0.3826E+15
   -1.993765    3.92055  0.1628E-11  0.7950E-08  0.7206E-12  0.1268E-06  0.0000E+00  0.2856E+14
   -2.062515    4.01240  0.1628E-11  0.8911E-08  0.8122E-12  0.4080E-04  0.0000E+00 -0.2482E+12
   -2.131266    4.01300  0.1628E-11  0.9311E-08  0.8602E-12  0.4103E-04  0.0000E+00 -0.2524E+12
   -2.200016    4.01359  0.1628E-11  0.9623E-08  0.9108E-12  0.4038E-04  0.0000E+00 -0.2623E+12
   -2.268765    4.01420  0.1628E-11  0.9851E-08  0.9677E-12  0.3881E-04  0.0000E+00 -0.2793E+12
   -2.337514    4.01483  0.1628E-11  0.1000E-07  0.1038E-11  0.3613E-04  0.0000E+00 -0.3073E+12
   -2.406263    4.01551  0.1628E-11  0.1007E-07  0.1133E-11  0.3217E-04  0.0000E+00 -0.3545E+12
   -2.475011    4.01628  0.1628E-11  0.1002E-07  0.1277E-11  0.2669E-04  0.0000E+00 -0.4409E+12
   -2.543759    4.01720  0.1628E-11  0.9803E-08  0.1533E-11  0.1944E-04  0.0000E+00 -0.6303E+12
   -2.612506    4.01848  0.1628E-11  0.9208E-08  0.2155E-11  0.1040E-04  0.0000E+00 -0.1259E+13
   -2.681252    4.02089  0.1628E-11  0.6640E-08  0.6009E-11  0.1355E-05  0.0000E+00 -0.1220E+14
   -2.749998    4.03879  0.1628E-11  0.0000E+00  0.0000E+00  0.0000E+00  0.0000E+00  0.0000E+00
