 1 - depth, m
 2 - temperature, C
 3 - salinity, kg/kg
 4 - turbulent kinetic energy, m**2/s**2
 5 - dissipation rate, m**2/s**3
 6 - kinematic heat conductance, m**2/s
 7 - modulus of horizontal velocity, m/s
 8 - Richardson number, n/d
   -0.000000   -0.00000  0.6411E-12  0.1219E-13  0.7603E-17  0.1000E-09  0.0000E+00  0.7189E+16
   -0.068746    0.10944  0.2170E-11  0.1219E-13  0.7603E-17  0.1000E-09  0.0000E+00  0.7089E+16
   -0.137493    0.22070  0.2931E-11  0.1219E-13  0.7603E-17  0.1000E-09  0.0000E+00  0.6971E+16
   -0.206240    0.33363  0.3090E-11  0.1219E-13  0.7603E-17  0.1000E-09  0.0000E+00  0.6834E+16
   -0.274988    0.44805  0.2957E-11  0.1219E-13  0.7603E-17  0.1000E-09  0.0000E+00  0.6678E+16
   -0.343736    0.56379  0.2733E-11  0.1219E-13  0.7603E-17  0.1000E-09  0.0000E+00  0.6506E+16
   -0.412485    0.68067  0.2529E-11  0.1219E-13  0.7603E-17  0.1000E-09  0.0000E+00  0.6318E+16
   -0.481234    0.79850  0.2383E-11  0.1219E-13  0.7603E-17  0.1000E-09  0.0000E+00  0.6116E+16
   -0.549984    0.91712  0.2295E-11  0.1219E-13  0.7603E-17  0.1000E-09  0.0000E+00  0.5902E+16
   -0.618734    1.03636  0.2248E-11  0.1219E-13  0.7603E-17  0.1000E-09  0.0000E+00  0.5679E+16
   -0.687485    1.15606  0.2225E-11  0.1219E-13  0.7603E-17  0.1000E-09  0.0000E+00  0.5448E+16
   -0.756236    1.27610  0.2215E-11  0.1219E-13  0.7603E-17  0.1000E-09  0.0000E+00  0.5211E+16
   -0.824987    1.39636  0.2210E-11  0.1219E-13  0.7603E-17  0.1000E-09  0.0000E+00  0.4969E+16
   -0.893738    1.51672  0.2208E-11  0.1219E-13  0.7603E-17  0.1000E-09  0.0000E+00  0.4723E+16
   -0.962490    1.63709  0.2206E-11  0.1219E-13  0.7603E-17  0.1000E-09  0.0000E+00  0.4475E+16
   -1.031242    1.75737  0.2204E-11  0.1219E-13  0.7603E-17  0.1000E-09  0.0000E+00  0.4226E+16
   -1.099994    1.87748  0.2201E-11  0.1219E-13  0.7603E-17  0.1000E-09  0.0000E+00  0.3976E+16
   -1.168747    1.99736  0.2197E-11  0.1219E-13  0.7603E-17  0.1000E-09  0.0000E+00  0.3727E+16
   -1.237499    2.11693  0.2192E-11  0.1219E-13  0.7603E-17  0.1000E-09  0.0000E+00  0.3480E+16
   -1.306251    2.23617  0.2187E-11  0.1219E-13  0.7603E-17  0.1000E-09  0.0000E+00  0.3234E+16
   -1.375004    2.35502  0.2180E-11  0.1219E-13  0.7603E-17  0.1000E-09  0.0000E+00  0.2992E+16
   -1.443756    2.47348  0.2174E-11  0.1219E-13  0.7603E-17  0.1000E-09  0.0000E+00  0.2752E+16
   -1.512509    2.59155  0.2168E-11  0.1219E-13  0.7603E-17  0.1000E-09  0.0000E+00  0.2515E+16
   -1.581261    2.70921  0.2163E-11  0.1219E-13  0.7603E-17  0.1000E-09  0.0000E+00  0.2282E+16
   -1.650014    2.82646  0.2158E-11  0.4824E-13  0.1069E-16  0.1000E-09  0.0000E+00  0.2052E+16
   -1.718766    2.94330  0.2155E-11  0.1521E-12  0.2782E-16  0.1000E-09  0.0000E+00  0.1824E+16
   -1.787518    3.05968  0.2152E-11  0.4444E-12  0.7710E-16  0.1000E-09  0.0000E+00  0.1579E+16
   -1.856269    3.17399  0.2149E-11  0.1275E-11  0.2138E-15  0.1000E-09  0.0000E+00  0.1341E+16
   -1.925021    3.28585  0.2147E-11  0.3616E-11  0.5875E-15  0.1000E-09  0.0000E+00  0.1113E+16
   -1.993772    3.39470  0.2146E-11  0.1017E-10  0.1602E-14  0.1000E-09  0.0000E+00  0.9004E+15
   -2.062523    3.50048  0.2144E-11  0.2770E-10  0.4235E-14  0.1000E-09  0.0000E+00  0.7189E+15
   -2.131274    3.60568  0.2143E-11  0.7432E-10  0.1103E-13  0.1034E-09  0.0000E+00  0.5422E+15
   -2.200024    3.71061  0.2143E-11  0.1973E-09  0.2844E-13  0.3933E-09  0.0000E+00  0.3671E+15
   -2.268774    3.81511  0.2143E-11  0.5225E-09  0.7318E-13  0.1914E-08  0.0000E+00  0.1938E+15
   -2.337523    3.91836  0.2143E-11  0.1376E-08  0.1877E-12  0.2805E-07  0.0000E+00  0.3332E+14
   -2.406272    4.00546  0.2143E-11  0.2337E-08  0.3218E-12  0.7760E-05  0.0000E+00 -0.5860E+12
   -2.475020    4.00733  0.2143E-11  0.2680E-08  0.3960E-12  0.7566E-05  0.0000E+00 -0.6521E+12
   -2.543768    4.00922  0.2143E-11  0.2841E-08  0.4903E-12  0.6234E-05  0.0000E+00 -0.8538E+12
   -2.612515    4.01149  0.2143E-11  0.2756E-08  0.6758E-12  0.3636E-05  0.0000E+00 -0.1589E+13
   -2.681262    4.01524  0.2143E-11  0.1992E-08  0.1539E-11  0.5605E-06  0.0000E+00 -0.1132E+14
   -2.750008    4.03408  0.2143E-11  0.0000E+00  0.0000E+00  0.0000E+00  0.0000E+00  0.0000E+00
