 1 - depth, m
 2 - temperature, C
 3 - salinity, kg/kg
 4 - turbulent kinetic energy, m**2/s**2
 5 - dissipation rate, m**2/s**3
 6 - kinematic heat conductance, m**2/s
 7 - modulus of horizontal velocity, m/s
 8 - Richardson number, n/d
   -0.000000   -0.00000  0.3083E-10  0.1219E-13  0.7603E-17  0.1000E-09  0.0000E+00  0.6648E+16
   -0.068746    0.10109  0.1830E-10  0.1219E-13  0.7603E-17  0.1000E-09  0.0000E+00  0.6397E+16
   -0.137492    0.20109  0.1342E-10  0.1219E-13  0.7603E-17  0.1000E-09  0.0000E+00  0.6176E+16
   -0.206239    0.30037  0.1188E-10  0.1219E-13  0.7603E-17  0.1000E-09  0.0000E+00  0.5982E+16
   -0.274986    0.39933  0.1147E-10  0.1219E-13  0.7603E-17  0.1000E-09  0.0000E+00  0.5811E+16
   -0.343735    0.49832  0.1138E-10  0.1219E-13  0.7603E-17  0.1000E-09  0.0000E+00  0.5661E+16
   -0.412483    0.59770  0.1136E-10  0.1219E-13  0.7603E-17  0.1000E-09  0.0000E+00  0.5528E+16
   -0.481232    0.69781  0.1136E-10  0.1219E-13  0.7603E-17  0.1000E-09  0.0000E+00  0.5409E+16
   -0.549982    0.79898  0.1136E-10  0.1219E-13  0.7603E-17  0.1000E-09  0.0000E+00  0.5300E+16
   -0.618732    0.90151  0.1136E-10  0.1219E-13  0.7603E-17  0.1000E-09  0.0000E+00  0.5199E+16
   -0.687482    1.00569  0.1136E-10  0.1219E-13  0.7603E-17  0.1000E-09  0.0000E+00  0.5113E+16
   -0.756233    1.11202  0.1136E-10  0.1219E-13  0.7603E-17  0.1000E-09  0.0000E+00  0.5033E+16
   -0.824984    1.22088  0.1136E-10  0.1219E-13  0.7603E-17  0.1000E-09  0.0000E+00  0.4949E+16
   -0.893735    1.33248  0.1136E-10  0.1219E-13  0.7603E-17  0.1000E-09  0.0000E+00  0.4857E+16
   -0.962486    1.44699  0.1136E-10  0.1219E-13  0.7603E-17  0.1000E-09  0.0000E+00  0.4755E+16
   -1.031238    1.56457  0.1135E-10  0.1219E-13  0.7603E-17  0.1000E-09  0.0000E+00  0.4640E+16
   -1.099990    1.68533  0.1135E-10  0.1219E-13  0.7603E-17  0.1000E-09  0.0000E+00  0.4509E+16
   -1.168742    1.80934  0.1134E-10  0.1219E-13  0.7603E-17  0.1000E-09  0.0000E+00  0.4360E+16
   -1.237494    1.93664  0.1132E-10  0.3587E-13  0.7605E-17  0.1000E-09  0.0000E+00  0.4190E+16
   -1.306246    2.06721  0.1128E-10  0.1077E-12  0.1710E-16  0.1000E-09  0.0000E+00  0.3999E+16
   -1.374998    2.20103  0.1124E-10  0.2878E-12  0.4260E-16  0.1000E-09  0.0000E+00  0.3791E+16
   -1.443751    2.33819  0.1119E-10  0.7373E-12  0.1053E-15  0.1000E-09  0.0000E+00  0.3560E+16
   -1.512503    2.47864  0.1115E-10  0.1853E-11  0.2568E-15  0.1000E-09  0.0000E+00  0.3304E+16
   -1.581255    2.62220  0.1113E-10  0.4593E-11  0.6185E-15  0.1000E-09  0.0000E+00  0.3023E+16
   -1.650007    2.76863  0.1112E-10  0.1124E-10  0.1472E-14  0.1000E-09  0.0000E+00  0.2718E+16
   -1.718759    2.91767  0.1111E-10  0.2720E-10  0.3462E-14  0.1000E-09  0.0000E+00  0.2392E+16
   -1.787511    3.06906  0.1110E-10  0.6671E-10  0.8253E-14  0.1000E-09  0.0000E+00  0.2067E+16
   -1.856262    3.22408  0.1110E-10  0.1645E-09  0.1980E-13  0.1000E-09  0.0000E+00  0.1717E+16
   -1.925013    3.38285  0.1109E-10  0.4042E-09  0.4733E-13  0.1795E-09  0.0000E+00  0.1342E+16
   -1.993764    3.54551  0.1108E-10  0.9884E-09  0.1127E-12  0.6133E-09  0.0000E+00  0.9347E+15
   -2.062515    3.71126  0.1106E-10  0.2348E-08  0.2608E-12  0.2666E-08  0.0000E+00  0.4975E+15
   -2.131265    3.87522  0.1104E-10  0.5411E-08  0.5871E-12  0.3232E-07  0.0000E+00  0.9198E+14
   -2.200015    4.01102  0.1104E-10  0.6546E-08  0.7157E-12  0.2555E-04  0.0000E+00 -0.3601E+12
   -2.268765    4.01194  0.1104E-10  0.6989E-08  0.7820E-12  0.2572E-04  0.0000E+00 -0.3720E+12
   -2.337514    4.01285  0.1104E-10  0.7320E-08  0.8563E-12  0.2485E-04  0.0000E+00 -0.4006E+12
   -2.406262    4.01379  0.1104E-10  0.7543E-08  0.9490E-12  0.2284E-04  0.0000E+00 -0.4549E+12
   -2.475010    4.01483  0.1104E-10  0.7644E-08  0.1081E-11  0.1949E-04  0.0000E+00 -0.5603E+12
   -2.543758    4.01606  0.1104E-10  0.7577E-08  0.1307E-11  0.1458E-04  0.0000E+00 -0.7985E+12
   -2.612505    4.01772  0.1104E-10  0.7178E-08  0.1843E-11  0.8016E-05  0.0000E+00 -0.1613E+13
   -2.681251    4.02085  0.1104E-10  0.5326E-08  0.4903E-11  0.1205E-05  0.0000E+00 -0.1520E+14
   -2.749997    4.04230  0.1104E-10  0.0000E+00  0.0000E+00  0.0000E+00  0.0000E+00  0.0000E+00
