 1 - depth, m
 2 - temperature, C
 3 - salinity, kg/kg
 4 - turbulent kinetic energy, m**2/s**2
 5 - dissipation rate, m**2/s**3
 6 - kinematic heat conductance, m**2/s
 7 - modulus of horizontal velocity, m/s
 8 - Richardson number, n/d
   -0.000000   -0.00000  0.3113E-12  0.1219E-13  0.7603E-17  0.1000E-09  0.0000E+00  0.7072E+16
   -0.068746    0.10764  0.1361E-11  0.1219E-13  0.7603E-17  0.1000E-09  0.0000E+00  0.6985E+16
   -0.137493    0.21718  0.2057E-11  0.1219E-13  0.7603E-17  0.1000E-09  0.0000E+00  0.6876E+16
   -0.206240    0.32842  0.2298E-11  0.1219E-13  0.7603E-17  0.1000E-09  0.0000E+00  0.6747E+16
   -0.274988    0.44119  0.2263E-11  0.1219E-13  0.7603E-17  0.1000E-09  0.0000E+00  0.6601E+16
   -0.343736    0.55531  0.2117E-11  0.1219E-13  0.7603E-17  0.1000E-09  0.0000E+00  0.6438E+16
   -0.412485    0.67064  0.1962E-11  0.1219E-13  0.7603E-17  0.1000E-09  0.0000E+00  0.6261E+16
   -0.481234    0.78701  0.1841E-11  0.1219E-13  0.7603E-17  0.1000E-09  0.0000E+00  0.6071E+16
   -0.549984    0.90428  0.1763E-11  0.1219E-13  0.7603E-17  0.1000E-09  0.0000E+00  0.5870E+16
   -0.618734    1.02230  0.1719E-11  0.1219E-13  0.7603E-17  0.1000E-09  0.0000E+00  0.5658E+16
   -0.687485    1.14094  0.1696E-11  0.1219E-13  0.7603E-17  0.1000E-09  0.0000E+00  0.5439E+16
   -0.756236    1.26008  0.1686E-11  0.1219E-13  0.7603E-17  0.1000E-09  0.0000E+00  0.5212E+16
   -0.824987    1.37961  0.1681E-11  0.1219E-13  0.7603E-17  0.1000E-09  0.0000E+00  0.4980E+16
   -0.893739    1.49940  0.1679E-11  0.1219E-13  0.7603E-17  0.1000E-09  0.0000E+00  0.4742E+16
   -0.962491    1.61935  0.1677E-11  0.1219E-13  0.7603E-17  0.1000E-09  0.0000E+00  0.4501E+16
   -1.031243    1.73937  0.1675E-11  0.1219E-13  0.7603E-17  0.1000E-09  0.0000E+00  0.4258E+16
   -1.099995    1.85937  0.1673E-11  0.1219E-13  0.7603E-17  0.1000E-09  0.0000E+00  0.4013E+16
   -1.168747    1.97927  0.1671E-11  0.1219E-13  0.7603E-17  0.1000E-09  0.0000E+00  0.3768E+16
   -1.237500    2.09902  0.1667E-11  0.1219E-13  0.7603E-17  0.1000E-09  0.0000E+00  0.3523E+16
   -1.306252    2.21855  0.1663E-11  0.1219E-13  0.7603E-17  0.1000E-09  0.0000E+00  0.3280E+16
   -1.375005    2.33781  0.1658E-11  0.1219E-13  0.7603E-17  0.1000E-09  0.0000E+00  0.3038E+16
   -1.443757    2.45678  0.1654E-11  0.1219E-13  0.7603E-17  0.1000E-09  0.0000E+00  0.2798E+16
   -1.512510    2.57545  0.1649E-11  0.1219E-13  0.7603E-17  0.1000E-09  0.0000E+00  0.2560E+16
   -1.581262    2.69380  0.1645E-11  0.1219E-13  0.7603E-17  0.1000E-09  0.0000E+00  0.2326E+16
   -1.650014    2.81181  0.1641E-11  0.4688E-13  0.1033E-16  0.1000E-09  0.0000E+00  0.2093E+16
   -1.718766    2.92948  0.1638E-11  0.1471E-12  0.2654E-16  0.1000E-09  0.0000E+00  0.1863E+16
   -1.787518    3.04676  0.1636E-11  0.4271E-12  0.7301E-16  0.1000E-09  0.0000E+00  0.1613E+16
   -1.856270    3.16191  0.1634E-11  0.1217E-11  0.2010E-15  0.1000E-09  0.0000E+00  0.1371E+16
   -1.925022    3.27450  0.1632E-11  0.3429E-11  0.5488E-15  0.1000E-09  0.0000E+00  0.1138E+16
   -1.993773    3.38395  0.1631E-11  0.9577E-11  0.1487E-14  0.1000E-09  0.0000E+00  0.9222E+15
   -2.062524    3.49020  0.1630E-11  0.2591E-10  0.3903E-14  0.1000E-09  0.0000E+00  0.7392E+15
   -2.131275    3.59592  0.1629E-11  0.6906E-10  0.1010E-13  0.1000E-09  0.0000E+00  0.5611E+15
   -2.200025    3.70144  0.1629E-11  0.1821E-09  0.2587E-13  0.3420E-09  0.0000E+00  0.3842E+15
   -2.268775    3.80665  0.1629E-11  0.4793E-09  0.6615E-13  0.1608E-08  0.0000E+00  0.2087E+15
   -2.337524    3.91089  0.1629E-11  0.1260E-08  0.1693E-12  0.2002E-07  0.0000E+00  0.4235E+14
   -2.406273    4.00321  0.1629E-11  0.2170E-08  0.2939E-12  0.7240E-05  0.0000E+00 -0.5644E+12
   -2.475021    4.00523  0.1629E-11  0.2501E-08  0.3643E-12  0.7128E-05  0.0000E+00 -0.6321E+12
   -2.543769    4.00725  0.1629E-11  0.2661E-08  0.4541E-12  0.5901E-05  0.0000E+00 -0.8344E+12
   -2.612516    4.00966  0.1629E-11  0.2588E-08  0.6302E-12  0.3446E-05  0.0000E+00 -0.1570E+13
   -2.681263    4.01361  0.1629E-11  0.1877E-08  0.1436E-11  0.5375E-06  0.0000E+00 -0.1119E+14
   -2.750009    4.03294  0.1629E-11  0.0000E+00  0.0000E+00  0.0000E+00  0.0000E+00  0.0000E+00
