 1 - depth, m
 2 - temperature, C
 3 - salinity, kg/kg
 4 - turbulent kinetic energy, m**2/s**2
 5 - dissipation rate, m**2/s**3
 6 - kinematic heat conductance, m**2/s
 7 - modulus of horizontal velocity, m/s
 8 - Richardson number, n/d
   -0.000000   -0.00000  0.1348E-10  0.1219E-13  0.7603E-17  0.1000E-09  0.2045E-60  0.4017E+16
   -0.068746    0.06076  0.7822E-11  0.1219E-13  0.7603E-17  0.1000E-09  0.1811E-60  0.3594E+16
   -0.137492    0.11598  0.6822E-11  0.1219E-13  0.7603E-17  0.1000E-09  0.1538E-60  0.3142E+16
   -0.206239    0.16495  0.6652E-11  0.1219E-13  0.7603E-17  0.1000E-09  0.1282E-60  0.2686E+16
   -0.274987    0.20736  0.6629E-11  0.1219E-13  0.7603E-17  0.1000E-09  0.1063E-60  0.2252E+16
   -0.343735    0.24330  0.6626E-11  0.1219E-13  0.7603E-17  0.1000E-09  0.8816E-61  0.1857E+16
   -0.412483    0.27323  0.6626E-11  0.1219E-13  0.7603E-17  0.1000E-09  0.7301E-61  0.1517E+16
   -0.481233    0.29786  0.6626E-11  0.1219E-13  0.7603E-17  0.1000E-09  0.6024E-61  0.1243E+16
   -0.549982    0.31818  0.6626E-11  0.1219E-13  0.7603E-17  0.1000E-09  0.4942E-61  0.1044E+16
   -0.618732    0.33534  0.6626E-11  0.1219E-13  0.7603E-17  0.1000E-09  0.4027E-61  0.9264E+15
   -0.687482    0.35063  0.6626E-11  0.1219E-13  0.7603E-17  0.1000E-09  0.3257E-61  0.9074E+15
   -0.756233    0.36568  0.6626E-11  0.1219E-13  0.7603E-17  0.1000E-09  0.2616E-61  0.9881E+15
   -0.824984    0.38215  0.6626E-11  0.1219E-13  0.7603E-17  0.1000E-09  0.2087E-61  0.1167E+16
   -0.893735    0.40170  0.6626E-11  0.1219E-13  0.7603E-17  0.1000E-09  0.1654E-61  0.1450E+16
   -0.962487    0.42615  0.6626E-11  0.1219E-13  0.7603E-17  0.1000E-09  0.1302E-61  0.1838E+16
   -1.031239    0.45739  0.6626E-11  0.1219E-13  0.7603E-17  0.1000E-09  0.1018E-61  0.2331E+16
   -1.099991    0.49745  0.6626E-11  0.1219E-13  0.7603E-17  0.1000E-09  0.7904E-62  0.2926E+16
   -1.168743    0.54843  0.6624E-11  0.1219E-13  0.7603E-17  0.1000E-09  0.6093E-62  0.3611E+16
   -1.237495    0.61247  0.6619E-11  0.1219E-13  0.7603E-17  0.1000E-09  0.4659E-62  0.4368E+16
   -1.306247    0.69169  0.6598E-11  0.1219E-13  0.7603E-17  0.1000E-09  0.3527E-62  0.5170E+16
   -1.374999    0.78813  0.6546E-11  0.1219E-13  0.7603E-17  0.1000E-09  0.2636E-62  0.6034E+16
   -1.443752    0.90472  0.6489E-11  0.1219E-13  0.7603E-17  0.1000E-09  0.1933E-62  0.6871E+16
   -1.512504    1.04340  0.6469E-11  0.1219E-13  0.7603E-17  0.1000E-09  0.1374E-62  0.7605E+16
   -1.581256    1.20535  0.6459E-11  0.4288E-13  0.1238E-16  0.1000E-09  0.9209E-63  0.8178E+16
   -1.650008    1.39132  0.6451E-11  0.1521E-12  0.3838E-16  0.1000E-09  0.5426E-63  0.8535E+16
   -1.718760    1.60153  0.6445E-11  0.5048E-12  0.1218E-15  0.1000E-09  0.2093E-63  0.8605E+16
   -1.787512    1.83502  0.6442E-11  0.1680E-11  0.3909E-15  0.1000E-09  0.1418E-64  0.7974E+16
   -1.856263    2.07773  0.6441E-11  0.5562E-11  0.1250E-14  0.1000E-09  0.8847E-66  0.7196E+16
   -1.925014    2.32801  0.6440E-11  0.1821E-10  0.3957E-14  0.1000E-09  0.5042E-67  0.6284E+16
   -1.993765    2.58378  0.6440E-11  0.5900E-10  0.1240E-13  0.1000E-09  0.3129E-68  0.5322E+16
   -2.062516    2.84554  0.6439E-11  0.1845E-09  0.3752E-13  0.1000E-09  0.2524E-69  0.4416E+16
   -2.131266    3.12225  0.6436E-11  0.5671E-09  0.1117E-12  0.1720E-09  0.1905E-70  0.3313E+16
   -2.200016    3.41313  0.6428E-11  0.1721E-08  0.3282E-12  0.8338E-09  0.1336E-71  0.2010E+16
   -2.268766    3.71481  0.6414E-11  0.5177E-08  0.9574E-12  0.8542E-08  0.6404E-73  0.5750E+15
   -2.337515    4.00999  0.6405E-11  0.7652E-08  0.1430E-11  0.1674E-04  0.2169E-74 -0.1033E+13
   -2.406264    4.01265  0.6405E-11  0.8603E-08  0.1697E-11  0.1722E-04  0.3889E-75 -0.1134E+13
   -2.475012    4.01529  0.6405E-11  0.9290E-08  0.2037E-11  0.1601E-04  0.6434E-76 -0.1376E+13
   -2.543759    4.01819  0.6405E-11  0.9696E-08  0.2571E-11  0.1296E-04  0.9070E-77 -0.1953E+13
   -2.612506    4.02190  0.6405E-11  0.9674E-08  0.3750E-11  0.7899E-05  0.8835E-78 -0.3923E+13
   -2.681253    4.02837  0.6405E-11  0.8278E-08  0.9670E-11  0.1790E-05  0.4161E-79 -0.3018E+14
   -2.749999    4.06133  0.6405E-11  0.0000E+00  0.0000E+00  0.0000E+00  0.4416E-79  0.0000E+00
