 1 - depth, m
 2 - temperature, C
 3 - salinity, kg/kg
 4 - turbulent kinetic energy, m**2/s**2
 5 - dissipation rate, m**2/s**3
 6 - kinematic heat conductance, m**2/s
 7 - modulus of horizontal velocity, m/s
 8 - Richardson number, n/d
   -0.000000   -0.00000  0.1475E-09  0.1219E-13  0.7603E-17  0.1000E-09  0.0000E+00  0.5647E+16
   -0.068746    0.08570  0.8883E-10  0.1219E-13  0.7603E-17  0.1000E-09  0.0000E+00  0.5459E+16
   -0.137492    0.17049  0.6527E-10  0.1219E-13  0.7603E-17  0.1000E-09  0.0000E+00  0.5294E+16
   -0.206239    0.25469  0.5839E-10  0.1219E-13  0.7603E-17  0.1000E-09  0.0000E+00  0.5150E+16
   -0.274987    0.33859  0.5670E-10  0.1219E-13  0.7603E-17  0.1000E-09  0.0000E+00  0.5025E+16
   -0.343735    0.42246  0.5633E-10  0.1219E-13  0.7603E-17  0.1000E-09  0.0000E+00  0.4915E+16
   -0.412483    0.50659  0.5626E-10  0.1219E-13  0.7603E-17  0.1000E-09  0.0000E+00  0.4820E+16
   -0.481232    0.59122  0.5624E-10  0.1219E-13  0.7603E-17  0.1000E-09  0.0000E+00  0.4736E+16
   -0.549982    0.67661  0.5624E-10  0.1219E-13  0.7603E-17  0.1000E-09  0.0000E+00  0.4662E+16
   -0.618732    0.76301  0.5624E-10  0.1219E-13  0.7603E-17  0.1000E-09  0.0000E+00  0.4596E+16
   -0.687482    0.85065  0.5624E-10  0.1219E-13  0.7603E-17  0.1000E-09  0.0000E+00  0.4548E+16
   -0.756233    0.93998  0.5624E-10  0.1219E-13  0.7603E-17  0.1000E-09  0.0000E+00  0.4508E+16
   -0.824984    1.03132  0.5624E-10  0.1219E-13  0.7603E-17  0.1000E-09  0.0000E+00  0.4466E+16
   -0.893735    1.12484  0.5624E-10  0.1219E-13  0.7603E-17  0.1000E-09  0.0000E+00  0.4421E+16
   -0.962487    1.22068  0.5624E-10  0.1219E-13  0.7603E-17  0.1000E-09  0.0000E+00  0.4369E+16
   -1.031238    1.31895  0.5623E-10  0.1219E-13  0.7603E-17  0.1000E-09  0.0000E+00  0.4309E+16
   -1.099990    1.41972  0.5622E-10  0.1219E-13  0.7603E-17  0.1000E-09  0.0000E+00  0.4238E+16
   -1.168742    1.52303  0.5619E-10  0.1219E-13  0.7603E-17  0.1000E-09  0.0000E+00  0.4155E+16
   -1.237494    1.62887  0.5611E-10  0.1219E-13  0.7603E-17  0.1000E-09  0.0000E+00  0.4056E+16
   -1.306247    1.73720  0.5598E-10  0.1219E-13  0.7603E-17  0.1000E-09  0.0000E+00  0.3943E+16
   -1.374999    1.84796  0.5579E-10  0.1219E-13  0.7603E-17  0.1000E-09  0.0000E+00  0.3820E+16
   -1.443751    1.96124  0.5556E-10  0.1219E-13  0.7603E-17  0.1000E-09  0.0000E+00  0.3680E+16
   -1.512503    2.07696  0.5535E-10  0.1219E-13  0.7603E-17  0.1000E-09  0.0000E+00  0.3522E+16
   -1.581255    2.19492  0.5521E-10  0.1219E-13  0.7603E-17  0.1000E-09  0.0000E+00  0.3346E+16
   -1.650007    2.31490  0.5513E-10  0.1219E-13  0.7603E-17  0.1000E-09  0.0000E+00  0.3151E+16
   -1.718759    2.43664  0.5509E-10  0.1219E-13  0.7603E-17  0.1000E-09  0.0000E+00  0.2941E+16
   -1.787511    2.55982  0.5506E-10  0.1219E-13  0.7603E-17  0.1000E-09  0.0000E+00  0.2723E+16
   -1.856262    2.68452  0.5505E-10  0.1219E-13  0.7603E-17  0.1000E-09  0.0000E+00  0.2494E+16
   -1.925014    2.81056  0.5503E-10  0.1219E-13  0.7603E-17  0.1000E-09  0.0000E+00  0.2256E+16
   -1.993765    2.93777  0.5501E-10  0.1219E-13  0.7603E-17  0.1000E-09  0.0000E+00  0.2006E+16
   -2.062515    3.06583  0.5498E-10  0.2487E-13  0.1152E-16  0.1000E-09  0.0000E+00  0.1751E+16
   -2.131266    3.19464  0.5491E-10  0.1135E-12  0.4830E-16  0.1000E-09  0.0000E+00  0.1491E+16
   -2.200016    3.32404  0.5482E-10  0.5238E-12  0.2135E-15  0.1000E-09  0.0000E+00  0.1226E+16
   -2.268765    3.45377  0.5470E-10  0.2390E-11  0.9356E-15  0.1000E-09  0.0000E+00  0.9623E+15
   -2.337514    3.58426  0.5458E-10  0.1088E-10  0.4097E-14  0.1000E-09  0.0000E+00  0.6966E+15
   -2.406263    3.71579  0.5449E-10  0.4912E-10  0.1781E-13  0.2099E-09  0.0000E+00  0.4260E+15
   -2.475011    3.84857  0.5446E-10  0.2210E-09  0.7731E-13  0.2559E-08  0.0000E+00  0.1486E+15
   -2.543758    3.98125  0.5445E-10  0.9090E-09  0.3123E-12  0.6789E-06  0.0000E+00 -0.2628E+13
   -2.612505    4.00543  0.5445E-10  0.1811E-08  0.8942E-12  0.1249E-05  0.0000E+00 -0.6628E+13
   -2.681252    4.02112  0.5445E-10  0.2395E-08  0.2605E-11  0.6771E-06  0.0000E+00 -0.3029E+14
   -2.749997    4.05760  0.5445E-10  0.0000E+00  0.0000E+00  0.0000E+00  0.0000E+00  0.0000E+00
