 1 - depth, m
 2 - temperature, C
 3 - salinity, kg/kg
 4 - turbulent kinetic energy, m**2/s**2
 5 - dissipation rate, m**2/s**3
 6 - kinematic heat conductance, m**2/s
 7 - modulus of horizontal velocity, m/s
 8 - Richardson number, n/d
   -0.000000   -0.00000  0.1601E-09  0.1219E-13  0.7603E-17  0.1000E-09  0.0000E+00  0.6452E+16
   -0.068746    0.09808  0.9561E-10  0.1219E-13  0.7603E-17  0.1000E-09  0.0000E+00  0.6227E+16
   -0.137492    0.19531  0.6909E-10  0.1219E-13  0.7603E-17  0.1000E-09  0.0000E+00  0.6017E+16
   -0.206239    0.29186  0.5991E-10  0.1219E-13  0.7603E-17  0.1000E-09  0.0000E+00  0.5821E+16
   -0.274987    0.38787  0.5717E-10  0.1219E-13  0.7603E-17  0.1000E-09  0.0000E+00  0.5636E+16
   -0.343735    0.48350  0.5645E-10  0.1219E-13  0.7603E-17  0.1000E-09  0.0000E+00  0.5464E+16
   -0.412483    0.57892  0.5628E-10  0.1219E-13  0.7603E-17  0.1000E-09  0.0000E+00  0.5300E+16
   -0.481232    0.67428  0.5625E-10  0.1219E-13  0.7603E-17  0.1000E-09  0.0000E+00  0.5146E+16
   -0.549982    0.76971  0.5624E-10  0.1219E-13  0.7603E-17  0.1000E-09  0.0000E+00  0.4998E+16
   -0.618732    0.86535  0.5624E-10  0.1219E-13  0.7603E-17  0.1000E-09  0.0000E+00  0.4856E+16
   -0.687482    0.96132  0.5624E-10  0.1219E-13  0.7603E-17  0.1000E-09  0.0000E+00  0.4728E+16
   -0.756233    1.05794  0.5624E-10  0.1219E-13  0.7603E-17  0.1000E-09  0.0000E+00  0.4607E+16
   -0.824984    1.15541  0.5624E-10  0.1219E-13  0.7603E-17  0.1000E-09  0.0000E+00  0.4485E+16
   -0.893735    1.25380  0.5624E-10  0.1219E-13  0.7603E-17  0.1000E-09  0.0000E+00  0.4361E+16
   -0.962487    1.35318  0.5623E-10  0.1219E-13  0.7603E-17  0.1000E-09  0.0000E+00  0.4235E+16
   -1.031238    1.45357  0.5622E-10  0.1219E-13  0.7603E-17  0.1000E-09  0.0000E+00  0.4104E+16
   -1.099990    1.55499  0.5619E-10  0.1219E-13  0.7603E-17  0.1000E-09  0.0000E+00  0.3968E+16
   -1.168742    1.65742  0.5614E-10  0.1219E-13  0.7603E-17  0.1000E-09  0.0000E+00  0.3827E+16
   -1.237495    1.76083  0.5604E-10  0.1219E-13  0.7603E-17  0.1000E-09  0.0000E+00  0.3678E+16
   -1.306247    1.86517  0.5590E-10  0.1219E-13  0.7603E-17  0.1000E-09  0.0000E+00  0.3523E+16
   -1.374999    1.97035  0.5571E-10  0.1219E-13  0.7603E-17  0.1000E-09  0.0000E+00  0.3366E+16
   -1.443751    2.07641  0.5551E-10  0.1219E-13  0.7603E-17  0.1000E-09  0.0000E+00  0.3202E+16
   -1.512503    2.18328  0.5533E-10  0.1219E-13  0.7603E-17  0.1000E-09  0.0000E+00  0.3030E+16
   -1.581256    2.29082  0.5521E-10  0.1219E-13  0.7603E-17  0.1000E-09  0.0000E+00  0.2852E+16
   -1.650008    2.39884  0.5513E-10  0.1219E-13  0.7603E-17  0.1000E-09  0.0000E+00  0.2667E+16
   -1.718759    2.50717  0.5508E-10  0.1219E-13  0.7603E-17  0.1000E-09  0.0000E+00  0.2477E+16
   -1.787511    2.61565  0.5506E-10  0.1219E-13  0.7603E-17  0.1000E-09  0.0000E+00  0.2304E+16
   -1.856263    2.72509  0.5504E-10  0.1219E-13  0.7603E-17  0.1000E-09  0.0000E+00  0.2125E+16
   -1.925014    2.83544  0.5502E-10  0.1219E-13  0.7603E-17  0.1000E-09  0.0000E+00  0.1943E+16
   -1.993765    2.94673  0.5499E-10  0.1219E-13  0.7603E-17  0.1000E-09  0.0000E+00  0.1752E+16
   -2.062516    3.05864  0.5495E-10  0.1219E-13  0.7603E-17  0.1000E-09  0.0000E+00  0.1551E+16
   -2.131266    3.17064  0.5487E-10  0.1219E-13  0.7603E-17  0.1000E-09  0.0000E+00  0.1349E+16
   -2.200016    3.28260  0.5478E-10  0.1219E-13  0.7603E-17  0.1000E-09  0.0000E+00  0.1146E+16
   -2.268765    3.39435  0.5467E-10  0.3491E-13  0.2557E-16  0.1000E-09  0.0000E+00  0.9487E+15
   -2.337515    3.50639  0.5457E-10  0.2334E-12  0.1659E-15  0.1000E-09  0.0000E+00  0.7529E+15
   -2.406263    3.61909  0.5450E-10  0.1601E-11  0.1098E-14  0.1000E-09  0.0000E+00  0.5559E+15
   -2.475011    3.73288  0.5447E-10  0.1093E-10  0.7256E-14  0.1022E-09  0.0000E+00  0.3557E+15
   -2.543759    3.84861  0.5446E-10  0.7441E-10  0.4815E-13  0.1492E-08  0.0000E+00  0.1457E+15
   -2.612506    3.96674  0.5446E-10  0.5016E-09  0.3259E-12  0.1745E-06  0.0000E+00 -0.8312E+13
   -2.681252    4.02436  0.5446E-10  0.1675E-08  0.1872E-11  0.5074E-06  0.0000E+00 -0.3385E+14
   -2.749998    4.06229  0.5446E-10  0.0000E+00  0.0000E+00  0.0000E+00  0.0000E+00  0.0000E+00
