 1 - depth, m
 2 - temperature, C
 3 - salinity, kg/kg
 4 - turbulent kinetic energy, m**2/s**2
 5 - dissipation rate, m**2/s**3
 6 - kinematic heat conductance, m**2/s
 7 - modulus of horizontal velocity, m/s
 8 - Richardson number, n/d
   -0.000000   -0.00000  0.1188E-09  0.1219E-13  0.7603E-17  0.1000E-09  0.0000E+00  0.7431E+16
   -0.068746    0.11318  0.8403E-10  0.1219E-13  0.7603E-17  0.1000E-09  0.0000E+00  0.7168E+16
   -0.137492    0.22581  0.6289E-10  0.1219E-13  0.7603E-17  0.1000E-09  0.0000E+00  0.6908E+16
   -0.206239    0.33787  0.5175E-10  0.1219E-13  0.7603E-17  0.1000E-09  0.0000E+00  0.6653E+16
   -0.274987    0.44935  0.4667E-10  0.1219E-13  0.7603E-17  0.1000E-09  0.0000E+00  0.6401E+16
   -0.343735    0.56025  0.4465E-10  0.1219E-13  0.7603E-17  0.1000E-09  0.0000E+00  0.6154E+16
   -0.412483    0.67056  0.4393E-10  0.1219E-13  0.7603E-17  0.1000E-09  0.0000E+00  0.5910E+16
   -0.481233    0.78028  0.4370E-10  0.1219E-13  0.7603E-17  0.1000E-09  0.0000E+00  0.5670E+16
   -0.549982    0.88940  0.4364E-10  0.1219E-13  0.7603E-17  0.1000E-09  0.0000E+00  0.5434E+16
   -0.618732    0.99791  0.4362E-10  0.1219E-13  0.7603E-17  0.1000E-09  0.0000E+00  0.5201E+16
   -0.687482    1.10581  0.4361E-10  0.1219E-13  0.7603E-17  0.1000E-09  0.0000E+00  0.4978E+16
   -0.756233    1.21320  0.4361E-10  0.1219E-13  0.7603E-17  0.1000E-09  0.0000E+00  0.4761E+16
   -0.824984    1.32014  0.4361E-10  0.1219E-13  0.7603E-17  0.1000E-09  0.0000E+00  0.4546E+16
   -0.893735    1.42661  0.4360E-10  0.1219E-13  0.7603E-17  0.1000E-09  0.0000E+00  0.4333E+16
   -0.962487    1.53260  0.4358E-10  0.1219E-13  0.7603E-17  0.1000E-09  0.0000E+00  0.4123E+16
   -1.031239    1.63806  0.4356E-10  0.1219E-13  0.7603E-17  0.1000E-09  0.0000E+00  0.3915E+16
   -1.099991    1.74297  0.4351E-10  0.1219E-13  0.7603E-17  0.1000E-09  0.0000E+00  0.3709E+16
   -1.168743    1.84730  0.4344E-10  0.1219E-13  0.7603E-17  0.1000E-09  0.0000E+00  0.3506E+16
   -1.237495    1.95099  0.4335E-10  0.1219E-13  0.7603E-17  0.1000E-09  0.0000E+00  0.3305E+16
   -1.306247    2.05399  0.4323E-10  0.1219E-13  0.7603E-17  0.1000E-09  0.0000E+00  0.3106E+16
   -1.374999    2.15627  0.4311E-10  0.1219E-13  0.7603E-17  0.1000E-09  0.0000E+00  0.2912E+16
   -1.443752    2.25782  0.4299E-10  0.1219E-13  0.7603E-17  0.1000E-09  0.0000E+00  0.2722E+16
   -1.512504    2.35862  0.4288E-10  0.1219E-13  0.7603E-17  0.1000E-09  0.0000E+00  0.2534E+16
   -1.581256    2.45859  0.4280E-10  0.1219E-13  0.7603E-17  0.1000E-09  0.0000E+00  0.2349E+16
   -1.650008    2.55766  0.4274E-10  0.1219E-13  0.7603E-17  0.1000E-09  0.0000E+00  0.2167E+16
   -1.718760    2.65576  0.4270E-10  0.1219E-13  0.7603E-17  0.1000E-09  0.0000E+00  0.1990E+16
   -1.787512    2.75285  0.4267E-10  0.1219E-13  0.7603E-17  0.1000E-09  0.0000E+00  0.1836E+16
   -1.856263    2.84993  0.4264E-10  0.1219E-13  0.7603E-17  0.1000E-09  0.0000E+00  0.1684E+16
   -1.925014    2.94703  0.4259E-10  0.1219E-13  0.7603E-17  0.1000E-09  0.0000E+00  0.1532E+16
   -1.993765    3.04422  0.4253E-10  0.1219E-13  0.7603E-17  0.1000E-09  0.0000E+00  0.1378E+16
   -2.062516    3.14128  0.4246E-10  0.1219E-13  0.7603E-17  0.1000E-09  0.0000E+00  0.1220E+16
   -2.131267    3.23778  0.4239E-10  0.1219E-13  0.7603E-17  0.1000E-09  0.0000E+00  0.1064E+16
   -2.200016    3.33367  0.4232E-10  0.1219E-13  0.7603E-17  0.1000E-09  0.0000E+00  0.9113E+15
   -2.268766    3.42891  0.4227E-10  0.1219E-13  0.7603E-17  0.1000E-09  0.0000E+00  0.7650E+15
   -2.337515    3.52392  0.4224E-10  0.2708E-13  0.2372E-16  0.1000E-09  0.0000E+00  0.6220E+15
   -2.406264    3.61902  0.4222E-10  0.2054E-12  0.1786E-15  0.1000E-09  0.0000E+00  0.4807E+15
   -2.475012    3.71457  0.4221E-10  0.1655E-11  0.1409E-14  0.1000E-09  0.0000E+00  0.3396E+15
   -2.543760    3.81129  0.4221E-10  0.1339E-10  0.1127E-13  0.2528E-09  0.0000E+00  0.1951E+15
   -2.612507    3.91030  0.4221E-10  0.1113E-09  0.9491E-13  0.6698E-08  0.0000E+00  0.4053E+14
   -2.681253    4.01093  0.4221E-10  0.9152E-09  0.9157E-12  0.3235E-06  0.0000E+00 -0.2776E+14
   -2.749999    4.05075  0.4221E-10  0.0000E+00  0.0000E+00  0.0000E+00  0.0000E+00  0.0000E+00
