 1 - depth, m
 2 - temperature, C
 3 - salinity, kg/kg
 4 - turbulent kinetic energy, m**2/s**2
 5 - dissipation rate, m**2/s**3
 6 - kinematic heat conductance, m**2/s
 7 - modulus of horizontal velocity, m/s
 8 - Richardson number, n/d
   -0.000000   -0.00000  0.6336E-10  0.2273E-09  0.1866E-12  0.1702E-09  0.3575E-25  0.5861E+16
   -0.068746    0.08899  0.3870E-10  0.1378E-08  0.1275E-12  0.1557E-09  0.3009E-25  0.4586E+16
   -0.137492    0.16016  0.3440E-10  0.3218E-08  0.1260E-12  0.2015E-09  0.2622E-25  0.3352E+16
   -0.206239    0.21308  0.3380E-10  0.5573E-08  0.1426E-12  0.3302E-09  0.2262E-25  0.2273E+16
   -0.274986    0.24942  0.3374E-10  0.8333E-08  0.1684E-12  0.6464E-09  0.1906E-25  0.1411E+16
   -0.343734    0.27217  0.3373E-10  0.1141E-07  0.1993E-12  0.1468E-08  0.1567E-25  0.7834E+15
   -0.412483    0.28486  0.3373E-10  0.1469E-07  0.2329E-12  0.4169E-08  0.1260E-25  0.3717E+15
   -0.481232    0.29091  0.3373E-10  0.1791E-07  0.2652E-12  0.2698E-07  0.9964E-26  0.1350E+15
   -0.549982    0.29310  0.3373E-10  0.1897E-07  0.2745E-12  0.1734E-03  0.8215E-26  0.3390E+14
   -0.618731    0.29366  0.3373E-10  0.1918E-07  0.2762E-12  0.3233E-03  0.8197E-26  0.4678E+13
   -0.687482    0.29373  0.3373E-10  0.1921E-07  0.2766E-12  0.3608E-03  0.8193E-26  0.5405E+12
   -0.756232    0.29374  0.3373E-10  0.1922E-07  0.2766E-12  0.3216E-03  0.8189E-26  0.3835E+13
   -0.824983    0.29381  0.3373E-10  0.1915E-07  0.2758E-12  0.1754E-03  0.8186E-26  0.2503E+14
   -0.893734    0.29421  0.3373E-10  0.1855E-07  0.2696E-12  0.4915E-07  0.8178E-26  0.9644E+14
   -0.962486    0.29579  0.3373E-10  0.1629E-07  0.2427E-12  0.6522E-08  0.7452E-26  0.2619E+15
   -1.031238    0.30006  0.3373E-10  0.1386E-07  0.2123E-12  0.2332E-08  0.6406E-26  0.5484E+15
   -1.099989    0.30902  0.3373E-10  0.1158E-07  0.1823E-12  0.1033E-08  0.5419E-26  0.9926E+15
   -1.168741    0.32529  0.3372E-10  0.9512E-08  0.1540E-12  0.5128E-09  0.4521E-26  0.1625E+16
   -1.237493    0.35210  0.3370E-10  0.7694E-08  0.1280E-12  0.2764E-09  0.3720E-26  0.2460E+16
   -1.306246    0.39308  0.3360E-10  0.6132E-08  0.1049E-12  0.1660E-09  0.3014E-26  0.3487E+16
   -1.374998    0.45203  0.3325E-10  0.4820E-08  0.8481E-13  0.1157E-09  0.2397E-26  0.4740E+16
   -1.443750    0.53387  0.3296E-10  0.3738E-08  0.6772E-13  0.1003E-09  0.1858E-26  0.6084E+16
   -1.512502    0.64202  0.3288E-10  0.2864E-08  0.5347E-13  0.1000E-09  0.1385E-26  0.7391E+16
   -1.581254    0.77858  0.3283E-10  0.2170E-08  0.4185E-13  0.1000E-09  0.9648E-27  0.8558E+16
   -1.650006    0.94477  0.3278E-10  0.1629E-08  0.3260E-13  0.1000E-09  0.5842E-27  0.9491E+16
   -1.718758    1.14102  0.3275E-10  0.1217E-08  0.2544E-13  0.1000E-09  0.2289E-27  0.1007E+17
   -1.787510    1.36605  0.3273E-10  0.8984E-09  0.1988E-13  0.1000E-09  0.1554E-28  0.9332E+16
   -1.856261    1.59435  0.3272E-10  0.6428E-09  0.1555E-13  0.1000E-09  0.9712E-30  0.8543E+16
   -1.925012    1.82532  0.3272E-10  0.4381E-09  0.1239E-13  0.1000E-09  0.5544E-31  0.7741E+16
   -1.993763    2.05930  0.3272E-10  0.2755E-09  0.1054E-13  0.1000E-09  0.3447E-32  0.7093E+16
   -2.062514    2.30301  0.3272E-10  0.1598E-09  0.1061E-13  0.1000E-09  0.2788E-33  0.6922E+16
   -2.131264    2.58220  0.3270E-10  0.9903E-10  0.1467E-13  0.1000E-09  0.2109E-34  0.6276E+16
   -2.200014    2.89703  0.3267E-10  0.1256E-09  0.3211E-13  0.1000E-09  0.1483E-35  0.5004E+16
   -2.268764    3.23967  0.3264E-10  0.3640E-09  0.1025E-12  0.1611E-09  0.7108E-37  0.3216E+16
   -2.337513    3.59814  0.3257E-10  0.1325E-08  0.3690E-12  0.1602E-08  0.2790E-38  0.1167E+16
   -2.406261    3.95108  0.3257E-10  0.3911E-08  0.1109E-11  0.1861E-05  0.8919E-40  0.1005E+14
   -2.475009    4.01436  0.3257E-10  0.6832E-08  0.2162E-11  0.8145E-05  0.6672E-41 -0.2776E+13
   -2.543757    4.02079  0.3257E-10  0.8320E-08  0.3166E-11  0.7800E-05  0.5474E-42 -0.3983E+13
   -2.612504    4.02802  0.3257E-10  0.9390E-08  0.5227E-11  0.5518E-05  0.3448E-43 -0.8261E+13
   -2.681250    4.03967  0.3257E-10  0.9853E-08  0.1423E-10  0.1974E-05  0.1173E-44 -0.5122E+14
   -2.749996    4.08351  0.3257E-10  0.0000E+00  0.0000E+00  0.0000E+00  0.1260E-44  0.0000E+00
