 1 - depth, m
 2 - temperature, C
 3 - salinity, kg/kg
 4 - turbulent kinetic energy, m**2/s**2
 5 - dissipation rate, m**2/s**3
 6 - kinematic heat conductance, m**2/s
 7 - modulus of horizontal velocity, m/s
 8 - Richardson number, n/d
   -0.000000   -0.00000  0.3411E-12  0.1219E-13  0.7603E-17  0.1000E-09  0.0000E+00  0.7283E+16
   -0.068746    0.11091  0.1217E-11  0.1219E-13  0.7603E-17  0.1000E-09  0.0000E+00  0.7178E+16
   -0.137493    0.22362  0.1684E-11  0.1219E-13  0.7603E-17  0.1000E-09  0.0000E+00  0.7054E+16
   -0.206240    0.33800  0.1797E-11  0.1219E-13  0.7603E-17  0.1000E-09  0.0000E+00  0.6911E+16
   -0.274988    0.45389  0.1730E-11  0.1219E-13  0.7603E-17  0.1000E-09  0.0000E+00  0.6751E+16
   -0.343736    0.57112  0.1603E-11  0.1219E-13  0.7603E-17  0.1000E-09  0.0000E+00  0.6573E+16
   -0.412485    0.68951  0.1484E-11  0.1219E-13  0.7603E-17  0.1000E-09  0.0000E+00  0.6381E+16
   -0.481234    0.80889  0.1397E-11  0.1219E-13  0.7603E-17  0.1000E-09  0.0000E+00  0.6175E+16
   -0.549984    0.92909  0.1344E-11  0.1219E-13  0.7603E-17  0.1000E-09  0.0000E+00  0.5956E+16
   -0.618734    1.04995  0.1315E-11  0.1219E-13  0.7603E-17  0.1000E-09  0.0000E+00  0.5728E+16
   -0.687485    1.17131  0.1301E-11  0.1219E-13  0.7603E-17  0.1000E-09  0.0000E+00  0.5491E+16
   -0.756236    1.29305  0.1294E-11  0.1219E-13  0.7603E-17  0.1000E-09  0.0000E+00  0.5248E+16
   -0.824987    1.41503  0.1292E-11  0.1219E-13  0.7603E-17  0.1000E-09  0.0000E+00  0.5000E+16
   -0.893738    1.53714  0.1290E-11  0.1219E-13  0.7603E-17  0.1000E-09  0.0000E+00  0.4748E+16
   -0.962490    1.65927  0.1289E-11  0.1219E-13  0.7603E-17  0.1000E-09  0.0000E+00  0.4493E+16
   -1.031242    1.78132  0.1288E-11  0.1219E-13  0.7603E-17  0.1000E-09  0.0000E+00  0.4237E+16
   -1.099994    1.90321  0.1286E-11  0.1219E-13  0.7603E-17  0.1000E-09  0.0000E+00  0.3981E+16
   -1.168747    2.02486  0.1284E-11  0.1219E-13  0.7603E-17  0.1000E-09  0.0000E+00  0.3725E+16
   -1.237499    2.14621  0.1281E-11  0.1219E-13  0.7603E-17  0.1000E-09  0.0000E+00  0.3471E+16
   -1.306251    2.26721  0.1277E-11  0.1219E-13  0.7603E-17  0.1000E-09  0.0000E+00  0.3218E+16
   -1.375004    2.38781  0.1274E-11  0.1219E-13  0.7603E-17  0.1000E-09  0.0000E+00  0.2969E+16
   -1.443756    2.50803  0.1270E-11  0.1219E-13  0.7603E-17  0.1000E-09  0.0000E+00  0.2723E+16
   -1.512509    2.62785  0.1267E-11  0.1219E-13  0.7603E-17  0.1000E-09  0.0000E+00  0.2480E+16
   -1.581261    2.74726  0.1264E-11  0.2495E-13  0.7615E-17  0.1000E-09  0.0000E+00  0.2241E+16
   -1.650013    2.86628  0.1261E-11  0.8534E-13  0.1442E-16  0.1000E-09  0.0000E+00  0.2005E+16
   -1.718766    2.98492  0.1259E-11  0.2358E-12  0.3560E-16  0.1000E-09  0.0000E+00  0.1771E+16
   -1.787518    3.10314  0.1257E-11  0.6254E-12  0.9064E-16  0.1000E-09  0.0000E+00  0.1521E+16
   -1.856269    3.21930  0.1256E-11  0.1646E-11  0.2316E-15  0.1000E-09  0.0000E+00  0.1279E+16
   -1.925021    3.33299  0.1255E-11  0.4300E-11  0.5889E-15  0.1000E-09  0.0000E+00  0.1046E+16
   -1.993772    3.44360  0.1254E-11  0.1118E-10  0.1491E-14  0.1000E-09  0.0000E+00  0.8290E+15
   -2.062523    3.55098  0.1253E-11  0.2827E-10  0.3673E-14  0.1000E-09  0.0000E+00  0.6417E+15
   -2.131274    3.65756  0.1253E-11  0.7062E-10  0.8942E-14  0.1060E-09  0.0000E+00  0.4593E+15
   -2.200024    3.76339  0.1252E-11  0.1751E-09  0.2161E-13  0.3917E-09  0.0000E+00  0.2804E+15
   -2.268774    3.86800  0.1252E-11  0.4342E-09  0.5229E-13  0.2463E-08  0.0000E+00  0.1074E+15
   -2.337523    3.96959  0.1252E-11  0.9882E-09  0.1176E-12  0.4158E-06  0.0000E+00  0.1348E+13
   -2.406272    3.99762  0.1252E-11  0.1609E-08  0.2026E-12  0.5549E-05  0.0000E+00 -0.4785E+12
   -2.475020    4.00011  0.1252E-11  0.1911E-08  0.2657E-12  0.5630E-05  0.0000E+00 -0.5715E+12
   -2.543768    4.00256  0.1252E-11  0.2082E-08  0.3483E-12  0.4726E-05  0.0000E+00 -0.8028E+12
   -2.612515    4.00548  0.1252E-11  0.2066E-08  0.5072E-12  0.2784E-05  0.0000E+00 -0.1615E+13
   -2.681262    4.01028  0.1252E-11  0.1558E-08  0.1174E-11  0.4785E-06  0.0000E+00 -0.1154E+14
   -2.750008    4.03158  0.1252E-11  0.0000E+00  0.0000E+00  0.0000E+00  0.0000E+00  0.0000E+00
