 1 - depth, m
 2 - temperature, C
 3 - salinity, kg/kg
 4 - turbulent kinetic energy, m**2/s**2
 5 - dissipation rate, m**2/s**3
 6 - kinematic heat conductance, m**2/s
 7 - modulus of horizontal velocity, m/s
 8 - Richardson number, n/d
   -0.000000   13.45115  0.1673E-11  0.2198E-04  0.1528E-05  0.3523E-04  0.3691E-01 -0.1249E-01
   -0.068746   13.47153  0.1673E-11  0.1927E-04  0.4570E-06  0.9116E-04  0.2334E-01 -0.3388E-01
   -0.137492   13.47821  0.1673E-11  0.1822E-04  0.2456E-06  0.1492E-03  0.1891E-01 -0.5339E-01
   -0.206239   13.48201  0.1673E-11  0.1754E-04  0.1631E-06  0.2106E-03  0.1624E-01 -0.7325E-01
   -0.274987   13.48451  0.1673E-11  0.1700E-04  0.1202E-06  0.2749E-03  0.1439E-01 -0.9310E-01
   -0.343735   13.48631  0.1673E-11  0.1657E-04  0.9432E-07  0.3455E-03  0.1300E-01 -0.9498E-01
   -0.412484   13.48767  0.1673E-11  0.1621E-04  0.7721E-07  0.4567E-03  0.1190E-01  0.1448E+02
   -0.481233   13.48869  0.1673E-11  0.1592E-04  0.6525E-07  0.5729E-03  0.1101E-01  0.1537E+02
   -0.549983   13.48950  0.1673E-11  0.1569E-04  0.5653E-07  0.6955E-03  0.1026E-01  0.1424E+02
   -0.618733   13.49015  0.1673E-11  0.1551E-04  0.5000E-07  0.9119E-03  0.9618E-02  0.1989E+02
   -0.687483   13.49065  0.1673E-11  0.1538E-04  0.4502E-07  0.1090E-02  0.9063E-02  0.8528E+01
   -0.756234   13.49105  0.1673E-11  0.1529E-04  0.4112E-07  0.1364E-02  0.8561E-02  0.7035E+02
   -0.824985   13.49136  0.1673E-11  0.1523E-04  0.3804E-07  0.1648E-02  0.8106E-02  0.4632E+02
   -0.893737   13.49160  0.1673E-11  0.1520E-04  0.3549E-07  0.1687E-02  0.7679E-02  0.1301E+02
   -0.962488   13.49184  0.1673E-11  0.1517E-04  0.3332E-07  0.1737E-02  0.7258E-02  0.1506E+02
   -1.031240   13.49207  0.1673E-11  0.1515E-04  0.3148E-07  0.1771E-02  0.6851E-02  0.1715E+02
   -1.099992   13.49229  0.1673E-11  0.1513E-04  0.2991E-07  0.1806E-02  0.6453E-02  0.1997E+02
   -1.168744   13.49252  0.1673E-11  0.1511E-04  0.2856E-07  0.1833E-02  0.6062E-02  0.2371E+02
   -1.237496   13.49274  0.1673E-11  0.1507E-04  0.2740E-07  0.1855E-02  0.5676E-02  0.2909E+02
   -1.306249   13.49297  0.1673E-11  0.1501E-04  0.2638E-07  0.1870E-02  0.5294E-02  0.3750E+02
   -1.375001   13.49320  0.1673E-11  0.1494E-04  0.2550E-07  0.1879E-02  0.4912E-02  0.5236E+02
   -1.443753   13.49343  0.1673E-11  0.1483E-04  0.2472E-07  0.1879E-02  0.4531E-02  0.8599E+02
   -1.512506   13.49366  0.1673E-11  0.1469E-04  0.2402E-07  0.1872E-02  0.4146E-02  0.2338E+03
   -1.581258   13.49390  0.1673E-11  0.1450E-04  0.2339E-07  0.1849E-02  0.3759E-02  0.4960E+05
   -1.650010   13.49416  0.1673E-11  0.1426E-04  0.2279E-07  0.1827E-02  0.3363E-02  0.3422E+05
   -1.718762   13.49442  0.1673E-11  0.1394E-04  0.2221E-07  0.1761E-02  0.2963E-02  0.1171E+05
   -1.787514   13.49469  0.1673E-11  0.1354E-04  0.2161E-07  0.1789E-02  0.2544E-02  0.5597E+02
   -1.856265   13.49496  0.1673E-11  0.1305E-04  0.2103E-07  0.1614E-02  0.2192E-02  0.9855E+01
   -1.925017   13.49527  0.1673E-11  0.1268E-04  0.2070E-07  0.2580E-02  0.1839E-02  0.2241E+01
   -1.993768   13.49546  0.1673E-11  0.1244E-04  0.2060E-07  0.2396E-02  0.1704E-02  0.1572E+01
   -2.062519   13.49567  0.1673E-11  0.1212E-04  0.2067E-07  0.1601E-02  0.1605E-02  0.1832E+01
   -2.131269   13.49599  0.1673E-11  0.1156E-04  0.2106E-07  0.1750E-02  0.1354E-02  0.1682E+01
   -2.200019   13.49628  0.1673E-11  0.1106E-04  0.2176E-07  0.1642E-02  0.1165E-02  0.1278E+01
   -2.268769   13.49660  0.1673E-11  0.1057E-04  0.2289E-07  0.1501E-02  0.9861E-03  0.9510E+00
   -2.337518   13.49696  0.1673E-11  0.1012E-04  0.2452E-07  0.1301E-02  0.8385E-03  0.6981E+00
   -2.406267   13.49737  0.1673E-11  0.9675E-05  0.2707E-07  0.1168E-02  0.7201E-03  0.5819E+01
   -2.475015   13.49785  0.1673E-11  0.9131E-05  0.3284E-07  0.8875E-03  0.6230E-03  0.1165E+03
   -2.543763   13.49872  0.1673E-11  0.8305E-05  0.4474E-07  0.7207E-03  0.5089E-03  0.1041E+04
   -2.612510   13.49972  0.1673E-11  0.6863E-05  0.7878E-07  0.3533E-03  0.4011E-03  0.8335E+03
   -2.681256   13.50356  0.1673E-11  0.4103E-05  0.2405E-06  0.1054E-03  0.2402E-03 -0.2599E+04
   -2.750002   13.51077  0.1673E-11  0.0000E+00  0.0000E+00  0.0000E+00  0.3277E-03  0.0000E+00
