 1 - depth, m
 2 - temperature, C
 3 - salinity, kg/kg
 4 - turbulent kinetic energy, m**2/s**2
 5 - dissipation rate, m**2/s**3
 6 - kinematic heat conductance, m**2/s
 7 - modulus of horizontal velocity, m/s
 8 - Richardson number, n/d
   -0.000000   -0.00000  0.6307E-12  0.1219E-13  0.7603E-17  0.1000E-09  0.0000E+00  0.7541E+16
   -0.068746    0.11489  0.1506E-11  0.1219E-13  0.7603E-17  0.1000E-09  0.0000E+00  0.7422E+16
   -0.137493    0.23163  0.1810E-11  0.1219E-13  0.7603E-17  0.1000E-09  0.0000E+00  0.7278E+16
   -0.206240    0.34998  0.1816E-11  0.1219E-13  0.7603E-17  0.1000E-09  0.0000E+00  0.7111E+16
   -0.274988    0.46971  0.1700E-11  0.1219E-13  0.7603E-17  0.1000E-09  0.0000E+00  0.6923E+16
   -0.343736    0.59059  0.1560E-11  0.1219E-13  0.7603E-17  0.1000E-09  0.0000E+00  0.6718E+16
   -0.412485    0.71240  0.1446E-11  0.1219E-13  0.7603E-17  0.1000E-09  0.0000E+00  0.6498E+16
   -0.481234    0.83494  0.1371E-11  0.1219E-13  0.7603E-17  0.1000E-09  0.0000E+00  0.6264E+16
   -0.549984    0.95803  0.1328E-11  0.1219E-13  0.7603E-17  0.1000E-09  0.0000E+00  0.6020E+16
   -0.618734    1.08148  0.1307E-11  0.1219E-13  0.7603E-17  0.1000E-09  0.0000E+00  0.5767E+16
   -0.687485    1.20516  0.1297E-11  0.1219E-13  0.7603E-17  0.1000E-09  0.0000E+00  0.5510E+16
   -0.756236    1.32895  0.1293E-11  0.1219E-13  0.7603E-17  0.1000E-09  0.0000E+00  0.5248E+16
   -0.824987    1.45274  0.1291E-11  0.1219E-13  0.7603E-17  0.1000E-09  0.0000E+00  0.4984E+16
   -0.893739    1.57643  0.1290E-11  0.1219E-13  0.7603E-17  0.1000E-09  0.0000E+00  0.4717E+16
   -0.962491    1.69992  0.1289E-11  0.1219E-13  0.7603E-17  0.1000E-09  0.0000E+00  0.4450E+16
   -1.031243    1.82312  0.1287E-11  0.1219E-13  0.7603E-17  0.1000E-09  0.0000E+00  0.4183E+16
   -1.099995    1.94597  0.1285E-11  0.1219E-13  0.7603E-17  0.1000E-09  0.0000E+00  0.3918E+16
   -1.168747    2.06839  0.1283E-11  0.1219E-13  0.7603E-17  0.1000E-09  0.0000E+00  0.3654E+16
   -1.237499    2.19033  0.1280E-11  0.1219E-13  0.7603E-17  0.1000E-09  0.0000E+00  0.3393E+16
   -1.306252    2.31174  0.1276E-11  0.1219E-13  0.7603E-17  0.1000E-09  0.0000E+00  0.3135E+16
   -1.375004    2.43259  0.1273E-11  0.1219E-13  0.7603E-17  0.1000E-09  0.0000E+00  0.2882E+16
   -1.443757    2.55285  0.1269E-11  0.1219E-13  0.7603E-17  0.1000E-09  0.0000E+00  0.2632E+16
   -1.512509    2.67252  0.1266E-11  0.5879E-13  0.1079E-16  0.1000E-09  0.0000E+00  0.2387E+16
   -1.581262    2.79158  0.1263E-11  0.1738E-12  0.2572E-16  0.1000E-09  0.0000E+00  0.2146E+16
   -1.650014    2.91005  0.1260E-11  0.4518E-12  0.6314E-16  0.1000E-09  0.0000E+00  0.1909E+16
   -1.718766    3.02792  0.1258E-11  0.1130E-11  0.1527E-15  0.1000E-09  0.0000E+00  0.1676E+16
   -1.787518    3.14517  0.1257E-11  0.2846E-11  0.3733E-15  0.1000E-09  0.0000E+00  0.1430E+16
   -1.856270    3.26025  0.1255E-11  0.7194E-11  0.9169E-15  0.1000E-09  0.0000E+00  0.1194E+16
   -1.925022    3.37281  0.1254E-11  0.1810E-10  0.2242E-14  0.1000E-09  0.0000E+00  0.9670E+15
   -1.993773    3.48232  0.1253E-11  0.4529E-10  0.5458E-14  0.1000E-09  0.0000E+00  0.7570E+15
   -2.062524    3.58875  0.1253E-11  0.1102E-09  0.1292E-13  0.1143E-09  0.0000E+00  0.5748E+15
   -2.131274    3.69464  0.1253E-11  0.2644E-09  0.3019E-13  0.3871E-09  0.0000E+00  0.3964E+15
   -2.200025    3.80016  0.1252E-11  0.6286E-09  0.6990E-13  0.1616E-08  0.0000E+00  0.2198E+15
   -2.268774    3.90475  0.1252E-11  0.1482E-08  0.1607E-12  0.1600E-07  0.0000E+00  0.5072E+14
   -2.337524    3.99984  0.1252E-11  0.2248E-08  0.2457E-12  0.9072E-05  0.0000E+00 -0.3642E+12
   -2.406273    4.00146  0.1252E-11  0.2552E-08  0.2933E-12  0.9259E-05  0.0000E+00 -0.3945E+12
   -2.475021    4.00304  0.1252E-11  0.2745E-08  0.3490E-12  0.8486E-05  0.0000E+00 -0.4710E+12
   -2.543769    4.00475  0.1252E-11  0.2816E-08  0.4314E-12  0.6652E-05  0.0000E+00 -0.6580E+12
   -2.612516    4.00691  0.1252E-11  0.2688E-08  0.6091E-12  0.3686E-05  0.0000E+00 -0.1325E+13
   -2.681263    4.01067  0.1252E-11  0.1935E-08  0.1464E-11  0.5501E-06  0.0000E+00 -0.1071E+14
   -2.750009    4.03060  0.1252E-11  0.0000E+00  0.0000E+00  0.0000E+00  0.0000E+00  0.0000E+00
