 1 - depth, m
 2 - temperature, C
 3 - salinity, kg/kg
 4 - turbulent kinetic energy, m**2/s**2
 5 - dissipation rate, m**2/s**3
 6 - kinematic heat conductance, m**2/s
 7 - modulus of horizontal velocity, m/s
 8 - Richardson number, n/d
   -0.000000   -0.00000  0.5506E-18  0.1218E-13  0.7603E-17  0.1000E-09  0.0000E+00  0.3940E+16
   -0.068747    0.05957  0.9711E-18  0.1218E-13  0.7603E-17  0.1000E-09  0.0000E+00  0.4167E+16
   -0.137494    0.12366  0.0000E+00  0.1218E-13  0.7603E-17  0.1000E-09  0.0000E+00  0.4371E+16
   -0.206242    0.19212  0.2912E-12  0.1218E-13  0.7603E-17  0.1000E-09  0.0000E+00  0.4546E+16
   -0.274991    0.26474  0.1257E-11  0.1218E-13  0.7603E-17  0.1000E-09  0.0000E+00  0.4689E+16
   -0.343740    0.34126  0.2548E-11  0.1218E-13  0.7603E-17  0.1000E-09  0.0000E+00  0.4804E+16
   -0.412490    0.42147  0.3700E-11  0.1218E-13  0.7603E-17  0.1000E-09  0.0000E+00  0.4892E+16
   -0.481240    0.50517  0.4436E-11  0.1218E-13  0.7603E-17  0.1000E-09  0.0000E+00  0.4956E+16
   -0.549991    0.59218  0.4731E-11  0.1218E-13  0.7603E-17  0.1000E-09  0.0000E+00  0.4996E+16
   -0.618742    0.68237  0.4709E-11  0.1218E-13  0.7603E-17  0.1000E-09  0.0000E+00  0.5015E+16
   -0.687494    0.77558  0.4531E-11  0.1218E-13  0.7603E-17  0.1000E-09  0.0000E+00  0.5006E+16
   -0.756245    0.87156  0.4316E-11  0.1218E-13  0.7603E-17  0.1000E-09  0.0000E+00  0.4973E+16
   -0.824998    0.97010  0.4131E-11  0.1218E-13  0.7603E-17  0.1000E-09  0.0000E+00  0.4920E+16
   -0.893750    1.07104  0.3997E-11  0.1218E-13  0.7603E-17  0.1000E-09  0.0000E+00  0.4849E+16
   -0.962503    1.17424  0.3910E-11  0.1218E-13  0.7603E-17  0.1000E-09  0.0000E+00  0.4761E+16
   -1.031255    1.27957  0.3860E-11  0.1218E-13  0.7603E-17  0.1000E-09  0.0000E+00  0.4657E+16
   -1.100008    1.38693  0.3832E-11  0.1218E-13  0.7603E-17  0.1000E-09  0.0000E+00  0.4539E+16
   -1.168762    1.49621  0.3817E-11  0.1218E-13  0.7603E-17  0.1000E-09  0.0000E+00  0.4408E+16
   -1.237515    1.60736  0.3809E-11  0.1218E-13  0.7603E-17  0.1000E-09  0.0000E+00  0.4267E+16
   -1.306268    1.72034  0.3803E-11  0.1218E-13  0.7603E-17  0.1000E-09  0.0000E+00  0.4116E+16
   -1.375022    1.83516  0.3797E-11  0.1218E-13  0.7603E-17  0.1000E-09  0.0000E+00  0.3959E+16
   -1.443775    1.95193  0.3791E-11  0.1218E-13  0.7603E-17  0.1000E-09  0.0000E+00  0.3795E+16
   -1.512528    2.07076  0.3783E-11  0.1218E-13  0.7603E-17  0.1000E-09  0.0000E+00  0.3626E+16
   -1.581281    2.19188  0.3774E-11  0.1218E-13  0.7603E-17  0.1000E-09  0.0000E+00  0.3452E+16
   -1.650035    2.31560  0.3764E-11  0.1218E-13  0.7603E-17  0.1000E-09  0.0000E+00  0.3276E+16
   -1.718788    2.44241  0.3754E-11  0.1218E-13  0.7603E-17  0.1000E-09  0.0000E+00  0.3091E+16
   -1.787541    2.57276  0.3744E-11  0.1218E-13  0.7603E-17  0.1000E-09  0.0000E+00  0.2758E+16
   -1.856293    2.70043  0.3735E-11  0.1218E-13  0.7603E-17  0.1000E-09  0.0000E+00  0.2427E+16
   -1.925046    2.82460  0.3726E-11  0.1218E-13  0.7603E-17  0.1000E-09  0.0000E+00  0.2094E+16
   -1.993798    2.94380  0.3720E-11  0.1218E-13  0.7603E-17  0.1000E-09  0.0000E+00  0.1792E+16
   -2.062549    3.05809  0.3714E-11  0.1218E-13  0.7603E-17  0.1000E-09  0.0000E+00  0.1595E+16
   -2.131301    3.17345  0.3709E-11  0.2443E-13  0.1278E-16  0.1000E-09  0.0000E+00  0.1401E+16
   -2.200052    3.29060  0.3705E-11  0.1221E-12  0.5979E-16  0.1000E-09  0.0000E+00  0.1202E+16
   -2.268803    3.41000  0.3702E-11  0.6315E-12  0.2964E-15  0.1000E-09  0.0000E+00  0.9856E+15
   -2.337553    3.53097  0.3699E-11  0.3258E-11  0.1469E-14  0.1000E-09  0.0000E+00  0.7610E+15
   -2.406303    3.65346  0.3697E-11  0.1663E-10  0.7215E-14  0.1000E-09  0.0000E+00  0.5297E+15
   -2.475052    3.77786  0.3696E-11  0.8462E-10  0.3537E-13  0.6072E-09  0.0000E+00  0.2884E+15
   -2.543801    3.90428  0.3694E-11  0.4268E-09  0.1729E-12  0.1723E-07  0.0000E+00  0.4373E+14
   -2.612549    4.02023  0.3694E-11  0.1774E-08  0.7390E-12  0.1869E-05  0.0000E+00 -0.5276E+13
   -2.681296    4.02902  0.3694E-11  0.1545E-08  0.1345E-11  0.4703E-06  0.0000E+00 -0.1743E+14
   -2.750043    4.04995  0.3694E-11  0.0000E+00  0.0000E+00  0.0000E+00  0.0000E+00  0.0000E+00
