 1 - depth, m
 2 - temperature, C
 3 - salinity, kg/kg
 4 - turbulent kinetic energy, m**2/s**2
 5 - dissipation rate, m**2/s**3
 6 - kinematic heat conductance, m**2/s
 7 - modulus of horizontal velocity, m/s
 8 - Richardson number, n/d
   -0.000000   -0.00000  0.1801E-10  0.1219E-13  0.7603E-17  0.1000E-09  0.0000E+00  0.5772E+16
   -0.068746    0.08762  0.9932E-11  0.1219E-13  0.7603E-17  0.1000E-09  0.0000E+00  0.5554E+16
   -0.137492    0.17396  0.7431E-11  0.1219E-13  0.7603E-17  0.1000E-09  0.0000E+00  0.5375E+16
   -0.206239    0.25954  0.6799E-11  0.1219E-13  0.7603E-17  0.1000E-09  0.0000E+00  0.5231E+16
   -0.274986    0.34489  0.6659E-11  0.1219E-13  0.7603E-17  0.1000E-09  0.0000E+00  0.5119E+16
   -0.343735    0.43052  0.6632E-11  0.1219E-13  0.7603E-17  0.1000E-09  0.0000E+00  0.5035E+16
   -0.412483    0.51693  0.6627E-11  0.1219E-13  0.7603E-17  0.1000E-09  0.0000E+00  0.4975E+16
   -0.481232    0.60462  0.6626E-11  0.1219E-13  0.7603E-17  0.1000E-09  0.0000E+00  0.4936E+16
   -0.549982    0.69406  0.6626E-11  0.1219E-13  0.7603E-17  0.1000E-09  0.0000E+00  0.4914E+16
   -0.618732    0.78572  0.6626E-11  0.1219E-13  0.7603E-17  0.1000E-09  0.0000E+00  0.4905E+16
   -0.687482    0.88007  0.6626E-11  0.1219E-13  0.7603E-17  0.1000E-09  0.0000E+00  0.4919E+16
   -0.756233    0.97780  0.6626E-11  0.1219E-13  0.7603E-17  0.1000E-09  0.0000E+00  0.4943E+16
   -0.824984    1.07950  0.6626E-11  0.1219E-13  0.7603E-17  0.1000E-09  0.0000E+00  0.4965E+16
   -0.893735    1.18554  0.6626E-11  0.1219E-13  0.7603E-17  0.1000E-09  0.0000E+00  0.4978E+16
   -0.962486    1.29628  0.6625E-11  0.1219E-13  0.7603E-17  0.1000E-09  0.0000E+00  0.4979E+16
   -1.031238    1.41200  0.6623E-11  0.1219E-13  0.7603E-17  0.1000E-09  0.0000E+00  0.4961E+16
   -1.099990    1.53299  0.6619E-11  0.1882E-13  0.7603E-17  0.1000E-09  0.0000E+00  0.4920E+16
   -1.168742    1.65944  0.6608E-11  0.7355E-13  0.1224E-16  0.1000E-09  0.0000E+00  0.4851E+16
   -1.237494    1.79152  0.6586E-11  0.2057E-12  0.2893E-16  0.1000E-09  0.0000E+00  0.4748E+16
   -1.306246    1.92932  0.6554E-11  0.5208E-12  0.6965E-16  0.1000E-09  0.0000E+00  0.4609E+16
   -1.374998    2.07287  0.6517E-11  0.1276E-11  0.1654E-15  0.1000E-09  0.0000E+00  0.4437E+16
   -1.443750    2.22245  0.6486E-11  0.3078E-11  0.3877E-15  0.1000E-09  0.0000E+00  0.4222E+16
   -1.512503    2.37805  0.6467E-11  0.7333E-11  0.8986E-15  0.1000E-09  0.0000E+00  0.3958E+16
   -1.581255    2.53946  0.6456E-11  0.1728E-10  0.2061E-14  0.1000E-09  0.0000E+00  0.3644E+16
   -1.650007    2.70639  0.6449E-11  0.4027E-10  0.4677E-14  0.1000E-09  0.0000E+00  0.3280E+16
   -1.718759    2.87845  0.6444E-11  0.9288E-10  0.1051E-13  0.1000E-09  0.0000E+00  0.2870E+16
   -1.787510    3.05526  0.6442E-11  0.2173E-09  0.2394E-13  0.1000E-09  0.0000E+00  0.2439E+16
   -1.856262    3.23826  0.6440E-11  0.5121E-09  0.5496E-13  0.1429E-09  0.0000E+00  0.1958E+16
   -1.925013    3.42756  0.6438E-11  0.1204E-08  0.1260E-12  0.4507E-09  0.0000E+00  0.1423E+16
   -1.993764    3.62310  0.6432E-11  0.2819E-08  0.2876E-12  0.1769E-08  0.0000E+00  0.8276E+15
   -2.062515    3.82283  0.6421E-11  0.6378E-08  0.6357E-12  0.1565E-07  0.0000E+00  0.2066E+15
   -2.131265    4.00606  0.6418E-11  0.7441E-08  0.7467E-12  0.3027E-04  0.0000E+00 -0.2981E+12
   -2.200015    4.00700  0.6418E-11  0.7876E-08  0.8054E-12  0.3085E-04  0.0000E+00 -0.3072E+12
   -2.268764    4.00792  0.6418E-11  0.8212E-08  0.8693E-12  0.3046E-04  0.0000E+00 -0.3264E+12
   -2.337513    4.00887  0.6418E-11  0.8465E-08  0.9463E-12  0.2899E-04  0.0000E+00 -0.3600E+12
   -2.406262    4.00986  0.6418E-11  0.8628E-08  0.1047E-11  0.2630E-04  0.0000E+00 -0.4178E+12
   -2.475010    4.01097  0.6418E-11  0.8682E-08  0.1196E-11  0.2217E-04  0.0000E+00 -0.5255E+12
   -2.543758    4.01230  0.6418E-11  0.8571E-08  0.1456E-11  0.1640E-04  0.0000E+00 -0.7654E+12
   -2.612504    4.01411  0.6418E-11  0.8118E-08  0.2078E-11  0.8927E-05  0.0000E+00 -0.1583E+13
   -2.681251    4.01754  0.6418E-11  0.6070E-08  0.5696E-11  0.1340E-05  0.0000E+00 -0.1567E+14
   -2.749996    4.04087  0.6418E-11  0.0000E+00  0.0000E+00  0.0000E+00  0.0000E+00  0.0000E+00
