 1 - depth, m
 2 - temperature, C
 3 - salinity, kg/kg
 4 - turbulent kinetic energy, m**2/s**2
 5 - dissipation rate, m**2/s**3
 6 - kinematic heat conductance, m**2/s
 7 - modulus of horizontal velocity, m/s
 8 - Richardson number, n/d
   -0.000000   -0.00000  0.1415E-10  0.1219E-13  0.7603E-17  0.1000E-09  0.0000E+00  0.8421E+16
   -0.068746    0.12854  0.9150E-11  0.1219E-13  0.7603E-17  0.1000E-09  0.0000E+00  0.8080E+16
   -0.137492    0.25632  0.6568E-11  0.1219E-13  0.7603E-17  0.1000E-09  0.0000E+00  0.7756E+16
   -0.206239    0.38352  0.5530E-11  0.1219E-13  0.7603E-17  0.1000E-09  0.0000E+00  0.7446E+16
   -0.274987    0.51029  0.5178E-11  0.1219E-13  0.7603E-17  0.1000E-09  0.0000E+00  0.7150E+16
   -0.343735    0.63681  0.5074E-11  0.1219E-13  0.7603E-17  0.1000E-09  0.0000E+00  0.6865E+16
   -0.412483    0.76322  0.5046E-11  0.1219E-13  0.7603E-17  0.1000E-09  0.0000E+00  0.6590E+16
   -0.481233    0.88970  0.5040E-11  0.1219E-13  0.7603E-17  0.1000E-09  0.0000E+00  0.6323E+16
   -0.549982    1.01638  0.5038E-11  0.1219E-13  0.7603E-17  0.1000E-09  0.0000E+00  0.6062E+16
   -0.618732    1.14340  0.5038E-11  0.1219E-13  0.7603E-17  0.1000E-09  0.0000E+00  0.5806E+16
   -0.687482    1.27090  0.5038E-11  0.1219E-13  0.7603E-17  0.1000E-09  0.0000E+00  0.5561E+16
   -0.756233    1.39918  0.5038E-11  0.1219E-13  0.7603E-17  0.1000E-09  0.0000E+00  0.5321E+16
   -0.824984    1.52847  0.5037E-11  0.1219E-13  0.7603E-17  0.1000E-09  0.0000E+00  0.5079E+16
   -0.893735    1.65885  0.5036E-11  0.1219E-13  0.7603E-17  0.1000E-09  0.0000E+00  0.4833E+16
   -0.962487    1.79039  0.5034E-11  0.2410E-13  0.7603E-17  0.1000E-09  0.0000E+00  0.4582E+16
   -1.031239    1.92311  0.5029E-11  0.8418E-13  0.1200E-16  0.1000E-09  0.0000E+00  0.4324E+16
   -1.099991    2.05704  0.5020E-11  0.2203E-12  0.2654E-16  0.1000E-09  0.0000E+00  0.4060E+16
   -1.168743    2.19218  0.5006E-11  0.5246E-12  0.5996E-16  0.1000E-09  0.0000E+00  0.3789E+16
   -1.237495    2.32849  0.4987E-11  0.1208E-11  0.1339E-15  0.1000E-09  0.0000E+00  0.3509E+16
   -1.306247    2.46592  0.4966E-11  0.2740E-11  0.2953E-15  0.1000E-09  0.0000E+00  0.3222E+16
   -1.374999    2.60441  0.4945E-11  0.6140E-11  0.6448E-15  0.1000E-09  0.0000E+00  0.2929E+16
   -1.443751    2.74396  0.4927E-11  0.1362E-10  0.1394E-14  0.1000E-09  0.0000E+00  0.2629E+16
   -1.512504    2.88448  0.4915E-11  0.2993E-10  0.2986E-14  0.1000E-09  0.0000E+00  0.2321E+16
   -1.581256    3.02584  0.4907E-11  0.6513E-10  0.6336E-14  0.1000E-09  0.0000E+00  0.2007E+16
   -1.650008    3.16786  0.4901E-11  0.1404E-09  0.1333E-13  0.1000E-09  0.0000E+00  0.1688E+16
   -1.718760    3.31035  0.4897E-11  0.3000E-09  0.2778E-13  0.1035E-09  0.0000E+00  0.1366E+16
   -1.787511    3.45321  0.4893E-11  0.6500E-09  0.5871E-13  0.2835E-09  0.0000E+00  0.1054E+16
   -1.856263    3.59817  0.4889E-11  0.1421E-08  0.1252E-12  0.8756E-09  0.0000E+00  0.7277E+15
   -1.925014    3.74503  0.4884E-11  0.3097E-08  0.2666E-12  0.3501E-08  0.0000E+00  0.3873E+15
   -1.993765    3.89197  0.4882E-11  0.6593E-08  0.5559E-12  0.4294E-07  0.0000E+00  0.6561E+14
   -2.062516    4.00931  0.4882E-11  0.7429E-08  0.6300E-12  0.3649E-04  0.0000E+00 -0.2147E+12
   -2.131266    4.00990  0.4882E-11  0.7775E-08  0.6686E-12  0.3675E-04  0.0000E+00 -0.2186E+12
   -2.200016    4.01048  0.4882E-11  0.8046E-08  0.7093E-12  0.3621E-04  0.0000E+00 -0.2274E+12
   -2.268766    4.01107  0.4882E-11  0.8245E-08  0.7551E-12  0.3481E-04  0.0000E+00 -0.2427E+12
   -2.337515    4.01169  0.4882E-11  0.8378E-08  0.8120E-12  0.3240E-04  0.0000E+00 -0.2679E+12
   -2.406264    4.01236  0.4882E-11  0.8437E-08  0.8886E-12  0.2883E-04  0.0000E+00 -0.3104E+12
   -2.475012    4.01311  0.4882E-11  0.8400E-08  0.1005E-11  0.2386E-04  0.0000E+00 -0.3886E+12
   -2.543759    4.01402  0.4882E-11  0.8212E-08  0.1212E-11  0.1729E-04  0.0000E+00 -0.5616E+12
   -2.612506    4.01528  0.4882E-11  0.7695E-08  0.1717E-11  0.9141E-05  0.0000E+00 -0.1147E+13
   -2.681253    4.01771  0.4882E-11  0.5498E-08  0.4811E-11  0.1176E-05  0.0000E+00 -0.1168E+14
   -2.749998    4.03608  0.4882E-11  0.0000E+00  0.0000E+00  0.0000E+00  0.0000E+00  0.0000E+00
