 1 - depth, m
 2 - temperature, C
 3 - salinity, kg/kg
 4 - turbulent kinetic energy, m**2/s**2
 5 - dissipation rate, m**2/s**3
 6 - kinematic heat conductance, m**2/s
 7 - modulus of horizontal velocity, m/s
 8 - Richardson number, n/d
   -0.000000   -0.00000  0.1853E-09  0.1219E-13  0.7603E-17  0.1000E-09  0.5651E-66  0.3472E+16
   -0.068746    0.05246  0.1100E-09  0.1219E-13  0.7603E-17  0.1000E-09  0.4534E-66  0.3131E+16
   -0.137492    0.10041  0.9776E-10  0.1219E-13  0.7603E-17  0.1000E-09  0.3687E-66  0.2761E+16
   -0.206239    0.14323  0.9580E-10  0.1219E-13  0.7603E-17  0.1000E-09  0.3055E-66  0.2384E+16
   -0.274987    0.18061  0.9553E-10  0.1219E-13  0.7603E-17  0.1000E-09  0.2561E-66  0.2019E+16
   -0.343735    0.21258  0.9550E-10  0.1219E-13  0.7603E-17  0.1000E-09  0.2150E-66  0.1683E+16
   -0.412483    0.23944  0.9549E-10  0.1219E-13  0.7603E-17  0.1000E-09  0.1795E-66  0.1387E+16
   -0.481233    0.26174  0.9549E-10  0.1219E-13  0.7603E-17  0.1000E-09  0.1487E-66  0.1142E+16
   -0.549982    0.28020  0.9549E-10  0.1219E-13  0.7603E-17  0.1000E-09  0.1221E-66  0.9546E+15
   -0.618732    0.29571  0.9549E-10  0.1219E-13  0.7603E-17  0.1000E-09  0.9942E-67  0.8319E+15
   -0.687482    0.30929  0.9549E-10  0.1219E-13  0.7603E-17  0.1000E-09  0.8036E-67  0.7929E+15
   -0.756233    0.32227  0.9549E-10  0.1219E-13  0.7603E-17  0.1000E-09  0.6451E-67  0.8363E+15
   -0.824984    0.33603  0.9549E-10  0.1219E-13  0.7603E-17  0.1000E-09  0.5144E-67  0.9573E+15
   -0.893735    0.35184  0.9549E-10  0.1219E-13  0.7603E-17  0.1000E-09  0.4075E-67  0.1159E+16
   -0.962487    0.37109  0.9549E-10  0.1219E-13  0.7603E-17  0.1000E-09  0.3208E-67  0.1445E+16
   -1.031239    0.39522  0.9549E-10  0.1219E-13  0.7603E-17  0.1000E-09  0.2509E-67  0.1813E+16
   -1.099991    0.42576  0.9549E-10  0.1219E-13  0.7603E-17  0.1000E-09  0.1948E-67  0.2262E+16
   -1.168743    0.46425  0.9549E-10  0.1219E-13  0.7603E-17  0.1000E-09  0.1502E-67  0.2785E+16
   -1.237495    0.51227  0.9548E-10  0.1219E-13  0.7603E-17  0.1000E-09  0.1149E-67  0.3371E+16
   -1.306247    0.57135  0.9545E-10  0.1219E-13  0.7603E-17  0.1000E-09  0.8696E-68  0.4003E+16
   -1.374999    0.64294  0.9531E-10  0.1219E-13  0.7603E-17  0.1000E-09  0.6499E-68  0.4705E+16
   -1.443752    0.72919  0.9491E-10  0.1219E-13  0.7603E-17  0.1000E-09  0.4765E-68  0.5411E+16
   -1.512504    0.83148  0.9422E-10  0.1219E-13  0.7603E-17  0.1000E-09  0.3386E-68  0.6069E+16
   -1.581256    0.95052  0.9376E-10  0.1219E-13  0.7603E-17  0.1000E-09  0.2270E-68  0.6641E+16
   -1.650008    1.08667  0.9362E-10  0.1219E-13  0.7603E-17  0.1000E-09  0.1338E-68  0.7091E+16
   -1.718760    1.23984  0.9355E-10  0.1219E-13  0.7603E-17  0.1000E-09  0.5160E-69  0.7366E+16
   -1.787512    1.40904  0.9350E-10  0.1219E-13  0.7603E-17  0.1000E-09  0.3496E-70  0.7089E+16
   -1.856263    1.58362  0.9347E-10  0.1219E-13  0.7603E-17  0.1000E-09  0.2181E-71  0.6705E+16
   -1.925014    1.76187  0.9346E-10  0.1219E-13  0.7603E-17  0.1000E-09  0.1243E-72  0.6223E+16
   -1.993765    1.94169  0.9346E-10  0.1219E-13  0.7603E-17  0.1000E-09  0.7714E-74  0.5727E+16
   -2.062516    2.12302  0.9345E-10  0.1219E-13  0.7603E-17  0.1000E-09  0.6222E-75  0.5467E+16
   -2.131267    2.31495  0.9341E-10  0.1219E-13  0.7603E-17  0.1000E-09  0.4696E-76  0.5109E+16
   -2.200017    2.51753  0.9334E-10  0.1219E-13  0.7603E-17  0.1000E-09  0.3294E-77  0.4621E+16
   -2.268766    2.72931  0.9324E-10  0.1262E-13  0.1289E-16  0.1000E-09  0.1577E-78  0.4034E+16
   -2.337515    2.94979  0.9309E-10  0.8894E-13  0.1034E-15  0.1000E-09  0.6184E-80  0.3347E+16
   -2.406264    3.17804  0.9283E-10  0.8875E-12  0.9907E-15  0.1000E-09  0.2067E-81  0.2571E+16
   -2.475012    3.41298  0.9262E-10  0.8802E-11  0.9431E-14  0.1000E-09  0.5750E-83  0.1724E+16
   -2.543760    3.65436  0.9260E-10  0.8649E-10  0.8933E-13  0.5307E-09  0.1332E-84  0.8108E+15
   -2.612507    3.90264  0.9260E-10  0.8471E-09  0.8568E-12  0.9287E-07  0.2286E-86  0.5923E+13
   -2.681253    4.06590  0.9260E-10  0.5515E-08  0.8521E-11  0.1201E-05  0.2639E-88 -0.6448E+14
   -2.749999    4.10710  0.9260E-10  0.0000E+00  0.0000E+00  0.0000E+00  0.2857E-88  0.0000E+00
