 1 - depth, m
 2 - temperature, C
 3 - salinity, kg/kg
 4 - turbulent kinetic energy, m**2/s**2
 5 - dissipation rate, m**2/s**3
 6 - kinematic heat conductance, m**2/s
 7 - modulus of horizontal velocity, m/s
 8 - Richardson number, n/d
   -0.000000   -0.00000  0.2165E-11  0.1219E-13  0.7603E-17  0.1000E-09  0.0000E+00  0.8049E+16
   -0.068746    0.12276  0.1289E-11  0.1219E-13  0.7603E-17  0.1000E-09  0.0000E+00  0.7722E+16
   -0.137492    0.24457  0.9289E-12  0.1219E-13  0.7603E-17  0.1000E-09  0.0000E+00  0.7420E+16
   -0.206239    0.36573  0.8041E-12  0.1219E-13  0.7603E-17  0.1000E-09  0.0000E+00  0.7140E+16
   -0.274987    0.48654  0.7672E-12  0.1219E-13  0.7603E-17  0.1000E-09  0.0000E+00  0.6881E+16
   -0.343735    0.60730  0.7577E-12  0.1219E-13  0.7603E-17  0.1000E-09  0.0000E+00  0.6639E+16
   -0.412483    0.72829  0.7555E-12  0.1219E-13  0.7603E-17  0.1000E-09  0.0000E+00  0.6412E+16
   -0.481232    0.84983  0.7551E-12  0.1219E-13  0.7603E-17  0.1000E-09  0.0000E+00  0.6195E+16
   -0.549982    0.97217  0.7550E-12  0.1219E-13  0.7603E-17  0.1000E-09  0.0000E+00  0.5987E+16
   -0.618732    1.09559  0.7549E-12  0.1219E-13  0.7603E-17  0.1000E-09  0.0000E+00  0.5785E+16
   -0.687482    1.22030  0.7549E-12  0.1219E-13  0.7603E-17  0.1000E-09  0.0000E+00  0.5594E+16
   -0.756233    1.34678  0.7549E-12  0.1219E-13  0.7603E-17  0.1000E-09  0.0000E+00  0.5407E+16
   -0.824984    1.47535  0.7549E-12  0.1219E-13  0.7603E-17  0.1000E-09  0.0000E+00  0.5213E+16
   -0.893735    1.60617  0.7548E-12  0.5635E-13  0.8764E-17  0.1000E-09  0.0000E+00  0.5010E+16
   -0.962487    1.73937  0.7546E-12  0.1560E-12  0.1803E-16  0.1000E-09  0.0000E+00  0.4796E+16
   -1.031238    1.87504  0.7541E-12  0.3699E-12  0.3961E-16  0.1000E-09  0.0000E+00  0.4568E+16
   -1.099990    2.01323  0.7531E-12  0.8344E-12  0.8624E-16  0.1000E-09  0.0000E+00  0.4325E+16
   -1.168742    2.15398  0.7514E-12  0.1845E-11  0.1855E-15  0.1000E-09  0.0000E+00  0.4065E+16
   -1.237494    2.29727  0.7487E-12  0.4030E-11  0.3950E-15  0.1000E-09  0.0000E+00  0.3787E+16
   -1.306247    2.44303  0.7454E-12  0.8715E-11  0.8334E-15  0.1000E-09  0.0000E+00  0.3491E+16
   -1.374999    2.59118  0.7420E-12  0.1868E-10  0.1743E-14  0.1000E-09  0.0000E+00  0.3179E+16
   -1.443751    2.74172  0.7391E-12  0.3967E-10  0.3613E-14  0.1000E-09  0.0000E+00  0.2849E+16
   -1.512503    2.89455  0.7371E-12  0.8354E-10  0.7428E-14  0.1000E-09  0.0000E+00  0.2501E+16
   -1.581255    3.04943  0.7359E-12  0.1745E-09  0.1515E-13  0.1000E-09  0.0000E+00  0.2136E+16
   -1.650008    3.20614  0.7351E-12  0.3613E-09  0.3064E-13  0.1000E-09  0.0000E+00  0.1757E+16
   -1.718759    3.36438  0.7345E-12  0.7421E-09  0.6149E-13  0.2291E-09  0.0000E+00  0.1366E+16
   -1.787511    3.52383  0.7338E-12  0.1546E-08  0.1251E-12  0.6509E-09  0.0000E+00  0.9782E+15
   -1.856263    3.68672  0.7329E-12  0.3249E-08  0.2570E-12  0.2321E-08  0.0000E+00  0.5635E+15
   -1.925014    3.85190  0.7321E-12  0.6766E-08  0.5240E-12  0.1912E-07  0.0000E+00  0.1393E+15
   -1.993765    4.00392  0.7319E-12  0.7541E-08  0.5871E-12  0.3906E-04  0.0000E+00 -0.1786E+12
   -2.062516    4.00455  0.7319E-12  0.7875E-08  0.6207E-12  0.3980E-04  0.0000E+00 -0.1821E+12
   -2.131266    4.00518  0.7319E-12  0.8150E-08  0.6564E-12  0.3970E-04  0.0000E+00 -0.1889E+12
   -2.200016    4.00581  0.7319E-12  0.8366E-08  0.6958E-12  0.3881E-04  0.0000E+00 -0.1999E+12
   -2.268765    4.00645  0.7319E-12  0.8525E-08  0.7414E-12  0.3706E-04  0.0000E+00 -0.2166E+12
   -2.337515    4.00713  0.7319E-12  0.8629E-08  0.7994E-12  0.3429E-04  0.0000E+00 -0.2427E+12
   -2.406263    4.00786  0.7319E-12  0.8667E-08  0.8787E-12  0.3032E-04  0.0000E+00 -0.2854E+12
   -2.475011    4.00869  0.7319E-12  0.8616E-08  0.9996E-12  0.2492E-04  0.0000E+00 -0.3632E+12
   -2.543759    4.00970  0.7319E-12  0.8420E-08  0.1216E-11  0.1793E-04  0.0000E+00 -0.5348E+12
   -2.612506    4.01112  0.7319E-12  0.7898E-08  0.1746E-11  0.9395E-05  0.0000E+00 -0.1119E+13
   -2.681252    4.01385  0.7319E-12  0.5681E-08  0.5002E-11  0.1217E-05  0.0000E+00 -0.1198E+14
   -2.749998    4.03415  0.7319E-12  0.0000E+00  0.0000E+00  0.0000E+00  0.0000E+00  0.0000E+00
