 1 - depth, m
 2 - temperature, C
 3 - salinity, kg/kg
 4 - turbulent kinetic energy, m**2/s**2
 5 - dissipation rate, m**2/s**3
 6 - kinematic heat conductance, m**2/s
 7 - modulus of horizontal velocity, m/s
 8 - Richardson number, n/d
   -0.000000   -0.00000  0.6591E-10  0.1269E-11  0.3088E-15  0.1000E-09  0.6832E-39  0.4760E+16
   -0.068746    0.07211  0.3910E-10  0.3046E-11  0.2523E-15  0.1000E-09  0.6422E-39  0.4043E+16
   -0.137492    0.13448  0.3448E-10  0.5956E-11  0.2789E-15  0.1000E-09  0.5774E-39  0.3310E+16
   -0.206239    0.18636  0.3381E-10  0.9693E-11  0.3390E-15  0.1000E-09  0.5005E-39  0.2604E+16
   -0.274986    0.22771  0.3374E-10  0.1403E-10  0.4170E-15  0.1000E-09  0.4235E-39  0.1962E+16
   -0.343734    0.25918  0.3373E-10  0.1876E-10  0.5046E-15  0.1000E-09  0.3534E-39  0.1412E+16
   -0.412483    0.28201  0.3373E-10  0.2367E-10  0.5961E-15  0.1000E-09  0.2927E-39  0.9676E+15
   -0.481232    0.29774  0.3373E-10  0.2857E-10  0.6866E-15  0.1000E-09  0.2411E-39  0.6324E+15
   -0.549981    0.30806  0.3373E-10  0.3326E-10  0.7722E-15  0.1000E-09  0.1977E-39  0.3996E+15
   -0.618731    0.31460  0.3373E-10  0.3755E-10  0.8494E-15  0.1000E-09  0.1614E-39  0.2590E+15
   -0.687482    0.31884  0.3373E-10  0.4128E-10  0.9152E-15  0.1012E-09  0.1310E-39  0.2094E+15
   -0.756232    0.32228  0.3373E-10  0.4433E-10  0.9674E-15  0.1003E-09  0.1058E-39  0.2430E+15
   -0.824983    0.32627  0.3373E-10  0.4658E-10  0.1004E-14  0.1000E-09  0.8502E-40  0.3573E+15
   -0.893734    0.33215  0.3373E-10  0.4798E-10  0.1025E-14  0.1000E-09  0.6796E-40  0.5607E+15
   -0.962486    0.34139  0.3373E-10  0.4850E-10  0.1030E-14  0.1000E-09  0.5404E-40  0.8664E+15
   -1.031237    0.35572  0.3373E-10  0.4815E-10  0.1019E-14  0.1000E-09  0.4277E-40  0.1289E+16
   -1.099989    0.37715  0.3373E-10  0.4697E-10  0.9924E-15  0.1000E-09  0.3367E-40  0.1839E+16
   -1.168741    0.40797  0.3372E-10  0.4502E-10  0.9527E-15  0.1000E-09  0.2636E-40  0.2522E+16
   -1.237493    0.45069  0.3370E-10  0.4240E-10  0.9013E-15  0.1000E-09  0.2049E-40  0.3330E+16
   -1.306245    0.50794  0.3357E-10  0.3921E-10  0.8403E-15  0.1000E-09  0.1579E-40  0.4242E+16
   -1.374998    0.58235  0.3324E-10  0.3558E-10  0.7723E-15  0.1000E-09  0.1202E-40  0.5287E+16
   -1.443750    0.67757  0.3296E-10  0.3162E-10  0.6996E-15  0.1000E-09  0.8970E-41  0.6362E+16
   -1.512502    0.79613  0.3288E-10  0.2746E-10  0.6250E-15  0.1000E-09  0.6479E-41  0.7380E+16
   -1.581254    0.93975  0.3283E-10  0.2323E-10  0.5514E-15  0.1000E-09  0.4405E-41  0.8267E+16
   -1.650006    1.10961  0.3278E-10  0.1905E-10  0.4821E-15  0.1000E-09  0.2622E-41  0.8955E+16
   -1.718758    1.30631  0.3275E-10  0.1507E-10  0.4215E-15  0.1000E-09  0.1018E-41  0.9341E+16
   -1.787509    1.52903  0.3273E-10  0.1128E-10  0.3736E-15  0.1000E-09  0.6900E-43  0.8749E+16
   -1.856261    1.75861  0.3272E-10  0.7743E-11  0.3500E-15  0.1000E-09  0.4308E-44  0.8020E+16
   -1.925012    1.99309  0.3272E-10  0.4815E-11  0.3881E-15  0.1000E-09  0.2457E-45  0.7164E+16
   -1.993763    2.22978  0.3272E-10  0.3283E-11  0.6365E-15  0.1000E-09  0.1526E-46  0.6320E+16
   -2.062513    2.46991  0.3272E-10  0.5395E-11  0.1736E-14  0.1000E-09  0.1232E-47  0.5758E+16
   -2.131264    2.72912  0.3270E-10  0.1903E-10  0.6354E-14  0.1000E-09  0.9308E-49  0.4962E+16
   -2.200014    3.00734  0.3267E-10  0.7603E-10  0.2448E-13  0.1000E-09  0.6535E-50  0.3896E+16
   -2.268763    3.30251  0.3263E-10  0.3040E-09  0.9397E-13  0.1838E-09  0.3131E-51  0.2597E+16
   -2.337512    3.61368  0.3257E-10  0.1211E-08  0.3596E-12  0.1694E-08  0.1228E-52  0.1075E+16
   -2.406261    3.94080  0.3257E-10  0.4054E-08  0.1182E-11  0.6502E-06  0.4102E-54  0.9148E+13
   -2.475009    4.01876  0.3257E-10  0.7510E-08  0.2358E-11  0.9629E-05  0.1201E-55 -0.2870E+13
   -2.543756    4.02416  0.3257E-10  0.8926E-08  0.3262E-11  0.8953E-05  0.1390E-56 -0.3744E+13
   -2.612503    4.03014  0.3257E-10  0.9700E-08  0.5011E-11  0.6162E-05  0.1226E-57 -0.7091E+13
   -2.681249    4.03959  0.3257E-10  0.9412E-08  0.1285E-10  0.1920E-05  0.5716E-59 -0.4453E+14
   -2.749995    4.07873  0.3257E-10  0.0000E+00  0.0000E+00  0.0000E+00  0.6084E-59  0.0000E+00
