 1 - depth, m
 2 - temperature, C
 3 - salinity, kg/kg
 4 - turbulent kinetic energy, m**2/s**2
 5 - dissipation rate, m**2/s**3
 6 - kinematic heat conductance, m**2/s
 7 - modulus of horizontal velocity, m/s
 8 - Richardson number, n/d
   -0.000000   -0.00000  0.8124E-11  0.1219E-13  0.7603E-17  0.1000E-09  0.0000E+00  0.6237E+16
   -0.068746    0.09477  0.4428E-11  0.1219E-13  0.7603E-17  0.1000E-09  0.0000E+00  0.6002E+16
   -0.137492    0.18836  0.3280E-11  0.1219E-13  0.7603E-17  0.1000E-09  0.0000E+00  0.5803E+16
   -0.206239    0.28124  0.2979E-11  0.1219E-13  0.7603E-17  0.1000E-09  0.0000E+00  0.5637E+16
   -0.274987    0.37389  0.2911E-11  0.1219E-13  0.7603E-17  0.1000E-09  0.0000E+00  0.5502E+16
   -0.343735    0.46683  0.2897E-11  0.1219E-13  0.7603E-17  0.1000E-09  0.0000E+00  0.5394E+16
   -0.412483    0.56052  0.2894E-11  0.1219E-13  0.7603E-17  0.1000E-09  0.0000E+00  0.5308E+16
   -0.481232    0.65546  0.2894E-11  0.1219E-13  0.7603E-17  0.1000E-09  0.0000E+00  0.5242E+16
   -0.549982    0.75212  0.2894E-11  0.1219E-13  0.7603E-17  0.1000E-09  0.0000E+00  0.5192E+16
   -0.618732    0.85093  0.2894E-11  0.1219E-13  0.7603E-17  0.1000E-09  0.0000E+00  0.5151E+16
   -0.687482    0.95234  0.2894E-11  0.1219E-13  0.7603E-17  0.1000E-09  0.0000E+00  0.5131E+16
   -0.756233    1.05700  0.2894E-11  0.1219E-13  0.7603E-17  0.1000E-09  0.0000E+00  0.5118E+16
   -0.824984    1.16547  0.2894E-11  0.1219E-13  0.7603E-17  0.1000E-09  0.0000E+00  0.5100E+16
   -0.893735    1.27809  0.2894E-11  0.1219E-13  0.7603E-17  0.1000E-09  0.0000E+00  0.5071E+16
   -0.962487    1.39515  0.2893E-11  0.1219E-13  0.7603E-17  0.1000E-09  0.0000E+00  0.5028E+16
   -1.031238    1.51692  0.2892E-11  0.4989E-13  0.8028E-17  0.1000E-09  0.0000E+00  0.4964E+16
   -1.099990    1.64362  0.2889E-11  0.1386E-12  0.1615E-16  0.1000E-09  0.0000E+00  0.4876E+16
   -1.168742    1.77543  0.2883E-11  0.3299E-12  0.3544E-16  0.1000E-09  0.0000E+00  0.4760E+16
   -1.237494    1.91248  0.2872E-11  0.7465E-12  0.7731E-16  0.1000E-09  0.0000E+00  0.4612E+16
   -1.306247    2.05485  0.2857E-11  0.1654E-11  0.1667E-15  0.1000E-09  0.0000E+00  0.4429E+16
   -1.374999    2.20258  0.2842E-11  0.3621E-11  0.3556E-15  0.1000E-09  0.0000E+00  0.4215E+16
   -1.443751    2.35596  0.2829E-11  0.7848E-11  0.7519E-15  0.1000E-09  0.0000E+00  0.3961E+16
   -1.512503    2.51502  0.2821E-11  0.1686E-10  0.1576E-14  0.1000E-09  0.0000E+00  0.3662E+16
   -1.581255    2.67961  0.2817E-11  0.3588E-10  0.3274E-14  0.1000E-09  0.0000E+00  0.3316E+16
   -1.650007    2.84952  0.2814E-11  0.7574E-10  0.6747E-14  0.1000E-09  0.0000E+00  0.2923E+16
   -1.718759    3.02440  0.2812E-11  0.1585E-09  0.1379E-13  0.1000E-09  0.0000E+00  0.2487E+16
   -1.787511    3.20395  0.2811E-11  0.3366E-09  0.2859E-13  0.1000E-09  0.0000E+00  0.2040E+16
   -1.856262    3.39097  0.2809E-11  0.7217E-09  0.5987E-13  0.1991E-09  0.0000E+00  0.1531E+16
   -1.925014    3.58558  0.2807E-11  0.1547E-08  0.1254E-12  0.6700E-09  0.0000E+00  0.9531E+15
   -1.993765    3.78758  0.2804E-11  0.3306E-08  0.2621E-12  0.4307E-08  0.0000E+00  0.3098E+15
   -2.062515    3.99130  0.2802E-11  0.4063E-08  0.3245E-12  0.1622E-04  0.0000E+00 -0.1671E+12
   -2.131266    3.99311  0.2802E-11  0.4436E-08  0.3637E-12  0.1889E-04  0.0000E+00 -0.1852E+12
   -2.200016    3.99467  0.2802E-11  0.4760E-08  0.4070E-12  0.2038E-04  0.0000E+00 -0.2062E+12
   -2.268765    3.99612  0.2802E-11  0.5037E-08  0.4563E-12  0.2085E-04  0.0000E+00 -0.2341E+12
   -2.337514    3.99754  0.2802E-11  0.5273E-08  0.5167E-12  0.2027E-04  0.0000E+00 -0.2746E+12
   -2.406263    3.99900  0.2802E-11  0.5458E-08  0.5960E-12  0.1861E-04  0.0000E+00 -0.3390E+12
   -2.475011    4.00060  0.2802E-11  0.5576E-08  0.7113E-12  0.1574E-04  0.0000E+00 -0.4553E+12
   -2.543759    4.00251  0.2802E-11  0.5585E-08  0.9087E-12  0.1158E-04  0.0000E+00 -0.7162E+12
   -2.612505    4.00512  0.2802E-11  0.5357E-08  0.1373E-11  0.6197E-05  0.0000E+00 -0.1646E+13
   -2.681252    4.01006  0.2802E-11  0.4163E-08  0.3823E-11  0.1042E-05  0.0000E+00 -0.1702E+14
   -2.749998    4.03863  0.2802E-11  0.0000E+00  0.0000E+00  0.0000E+00  0.0000E+00  0.0000E+00
