 1 - depth, m
 2 - temperature, C
 3 - salinity, kg/kg
 4 - turbulent kinetic energy, m**2/s**2
 5 - dissipation rate, m**2/s**3
 6 - kinematic heat conductance, m**2/s
 7 - modulus of horizontal velocity, m/s
 8 - Richardson number, n/d
   -0.000000    0.10593  0.2140E-11  0.1371E-04  0.6191E-06  0.2944E-04  0.3955E-01  0.3372E-01
   -0.068746    0.15806  0.2140E-11  0.1221E-04  0.2307E-06  0.5942E-04  0.3052E-01  0.3332E-01
   -0.137492    0.17486  0.2140E-11  0.1111E-04  0.1357E-06  0.7896E-04  0.2667E-01  0.5808E-01
   -0.206239    0.18610  0.2140E-11  0.1013E-04  0.9353E-07  0.9054E-04  0.2407E-01  0.7902E-01
   -0.274987    0.19539  0.2140E-11  0.9220E-05  0.6970E-07  0.9620E-04  0.2206E-01  0.1005E+00
   -0.343735    0.20367  0.2140E-11  0.8369E-05  0.5433E-07  0.9732E-04  0.2039E-01  0.1227E+00
   -0.412484    0.21142  0.2140E-11  0.7565E-05  0.4356E-07  0.9498E-04  0.1894E-01  0.1460E+00
   -0.481233    0.21892  0.2140E-11  0.6804E-05  0.3557E-07  0.9004E-04  0.1763E-01  0.1706E+00
   -0.549983    0.22639  0.2140E-11  0.6081E-05  0.2939E-07  0.8319E-04  0.1643E-01  0.1971E+00
   -0.618733    0.23399  0.2140E-11  0.5393E-05  0.2446E-07  0.7502E-04  0.1530E-01  0.2258E+00
   -0.687484    0.24191  0.2140E-11  0.4740E-05  0.2042E-07  0.6604E-04  0.1423E-01  0.2573E+00
   -0.756234    0.25035  0.2140E-11  0.4121E-05  0.1706E-07  0.5669E-04  0.1318E-01  0.2925E+00
   -0.824985    0.25958  0.2140E-11  0.3535E-05  0.1421E-07  0.4739E-04  0.1216E-01  0.3323E+00
   -0.893737    0.27000  0.2140E-11  0.2983E-05  0.1177E-07  0.3853E-04  0.1113E-01  0.3781E+00
   -0.962489    0.28232  0.2140E-11  0.2468E-05  0.9639E-08  0.3052E-04  0.1006E-01  0.4311E+00
   -1.031240    0.29810  0.2140E-11  0.1989E-05  0.7752E-08  0.2380E-04  0.8928E-02  0.4909E+00
   -1.099992    0.32248  0.2141E-11  0.1544E-05  0.5946E-08  0.1897E-04  0.7609E-02  0.6429E+00
   -1.168745    0.39365  0.2141E-11  0.1239E-05  0.4535E-08  0.1618E-04  0.5835E-02  0.1414E+01
   -1.237497    0.49885  0.2141E-11  0.1059E-05  0.3739E-08  0.1420E-04  0.4320E-02  0.3963E+01
   -1.306249    0.56793  0.2141E-11  0.9220E-06  0.3166E-08  0.1261E-04  0.3345E-02  0.1455E+02
   -1.375001    0.61811  0.2141E-11  0.8127E-06  0.2724E-08  0.1137E-04  0.2656E-02  0.6473E+02
   -1.443754    0.66197  0.2141E-11  0.7267E-06  0.2387E-08  0.1043E-04  0.2116E-02  0.3196E+03
   -1.512506    0.70338  0.2141E-11  0.6603E-06  0.2140E-08  0.9737E-05  0.1668E-02  0.1843E+04
   -1.581258    0.74568  0.2141E-11  0.6092E-06  0.1967E-08  0.9187E-05  0.1285E-02  0.1371E+05
   -1.650011    0.79843  0.2141E-11  0.5671E-06  0.1847E-08  0.8525E-05  0.9468E-03  0.1063E+06
   -1.718763    0.88543  0.2141E-11  0.5131E-06  0.1707E-08  0.5559E-05  0.6250E-03  0.1001E+07
   -1.787514    1.04737  0.2141E-11  0.3677E-06  0.1128E-08  0.6210E-05  0.2831E-03  0.1385E+09
   -1.856266    1.14836  0.2141E-11  0.2593E-06  0.7381E-09  0.4671E-05  0.1619E-03  0.1864E+11
   -1.925017    1.20811  0.2141E-11  0.1760E-06  0.4648E-09  0.3304E-05  0.9372E-04  0.3301E+12
   -1.993769    1.21694  0.2141E-11  0.1153E-06  0.2832E-09  0.2223E-05  0.5577E-04 -0.9668E+15
   -2.062519    1.17358  0.2141E-11  0.7078E-07  0.1643E-09  0.1094E-05  0.3483E-04  0.6612E+15
   -2.131270    1.19955  0.2141E-11  0.3785E-07  0.8439E-10  0.3975E-06  0.1926E-04  0.3707E+16
   -2.200020    1.29933  0.2141E-11  0.1343E-07  0.3001E-10  0.3975E-07  0.8624E-05  0.7477E+16
   -2.268770    1.50852  0.2141E-11  0.1902E-08  0.5074E-11  0.2497E-08  0.1191E-05  0.9435E+16
   -2.337519    1.80607  0.2141E-11  0.1534E-09  0.1288E-11  0.2461E-09  0.5625E-07  0.1052E+17
   -2.406268    2.19577  0.2142E-11  0.6845E-11  0.1000E-11  0.1034E-09  0.1960E-08  0.1061E+17
   -2.475016    2.70686  0.2142E-11  0.4419E-11  0.1000E-11  0.1000E-09  0.5582E-10  0.8336E+16
   -2.543764    3.33068  0.2142E-11  0.4419E-11  0.1000E-11  0.1000E-09  0.1317E-11  0.2502E+16
   -2.612511    4.13342  0.2142E-11  0.4419E-11  0.1000E-11  0.1000E-09  0.2285E-13 -0.9773E+16
   -2.681257    5.07400  0.2142E-11  0.4419E-11  0.1000E-11  0.1000E-09  0.2550E-15 -0.4953E+16
   -2.750003    5.34330  0.2142E-11  0.0000E+00  0.0000E+00  0.0000E+00  0.3161E-15  0.0000E+00
