 1 - depth, m
 2 - temperature, C
 3 - salinity, kg/kg
 4 - turbulent kinetic energy, m**2/s**2
 5 - dissipation rate, m**2/s**3
 6 - kinematic heat conductance, m**2/s
 7 - modulus of horizontal velocity, m/s
 8 - Richardson number, n/d
   -0.000000   -0.00000  0.1819E-10  0.1219E-13  0.7603E-17  0.1000E-09  0.0000E+00  0.6362E+16
   -0.068746    0.09669  0.1045E-10  0.1219E-13  0.7603E-17  0.1000E-09  0.0000E+00  0.6139E+16
   -0.137492    0.19248  0.7640E-11  0.1219E-13  0.7603E-17  0.1000E-09  0.0000E+00  0.5943E+16
   -0.206239    0.28775  0.6861E-11  0.1219E-13  0.7603E-17  0.1000E-09  0.0000E+00  0.5774E+16
   -0.274987    0.38286  0.6675E-11  0.1219E-13  0.7603E-17  0.1000E-09  0.0000E+00  0.5629E+16
   -0.343735    0.47823  0.6635E-11  0.1219E-13  0.7603E-17  0.1000E-09  0.0000E+00  0.5506E+16
   -0.412483    0.57425  0.6627E-11  0.1219E-13  0.7603E-17  0.1000E-09  0.0000E+00  0.5403E+16
   -0.481233    0.67134  0.6626E-11  0.1219E-13  0.7603E-17  0.1000E-09  0.0000E+00  0.5316E+16
   -0.549982    0.76989  0.6626E-11  0.1219E-13  0.7603E-17  0.1000E-09  0.0000E+00  0.5243E+16
   -0.618732    0.87029  0.6626E-11  0.1219E-13  0.7603E-17  0.1000E-09  0.0000E+00  0.5178E+16
   -0.687483    0.97292  0.6626E-11  0.1219E-13  0.7603E-17  0.1000E-09  0.0000E+00  0.5132E+16
   -0.756233    1.07838  0.6626E-11  0.1219E-13  0.7603E-17  0.1000E-09  0.0000E+00  0.5092E+16
   -0.824984    1.18716  0.6626E-11  0.1219E-13  0.7603E-17  0.1000E-09  0.0000E+00  0.5048E+16
   -0.893736    1.29954  0.6625E-11  0.1219E-13  0.7603E-17  0.1000E-09  0.0000E+00  0.4994E+16
   -0.962487    1.41578  0.6625E-11  0.1219E-13  0.7603E-17  0.1000E-09  0.0000E+00  0.4927E+16
   -1.031239    1.53610  0.6622E-11  0.1219E-13  0.7603E-17  0.1000E-09  0.0000E+00  0.4842E+16
   -1.099991    1.66067  0.6616E-11  0.1724E-13  0.7603E-17  0.1000E-09  0.0000E+00  0.4736E+16
   -1.168743    1.78959  0.6603E-11  0.7043E-13  0.1236E-16  0.1000E-09  0.0000E+00  0.4605E+16
   -1.237495    1.92296  0.6581E-11  0.2018E-12  0.2995E-16  0.1000E-09  0.0000E+00  0.4446E+16
   -1.306247    2.06079  0.6549E-11  0.5228E-12  0.7379E-16  0.1000E-09  0.0000E+00  0.4257E+16
   -1.374999    2.20303  0.6514E-11  0.1311E-11  0.1791E-15  0.1000E-09  0.0000E+00  0.4042E+16
   -1.443752    2.34987  0.6485E-11  0.3232E-11  0.4290E-15  0.1000E-09  0.0000E+00  0.3794E+16
   -1.512504    2.50124  0.6467E-11  0.7868E-11  0.1015E-14  0.1000E-09  0.0000E+00  0.3510E+16
   -1.581256    2.65693  0.6455E-11  0.1893E-10  0.2376E-14  0.1000E-09  0.0000E+00  0.3190E+16
   -1.650008    2.81670  0.6448E-11  0.4502E-10  0.5497E-14  0.1000E-09  0.0000E+00  0.2835E+16
   -1.718760    2.98023  0.6444E-11  0.1059E-09  0.1258E-13  0.1000E-09  0.0000E+00  0.2450E+16
   -1.787512    3.14725  0.6442E-11  0.2526E-09  0.2920E-13  0.1000E-09  0.0000E+00  0.2055E+16
   -1.856263    3.31936  0.6440E-11  0.6064E-09  0.6824E-13  0.2142E-09  0.0000E+00  0.1621E+16
   -1.925015    3.49668  0.6436E-11  0.1451E-08  0.1590E-12  0.7060E-09  0.0000E+00  0.1146E+16
   -1.993766    3.67914  0.6428E-11  0.3452E-08  0.3688E-12  0.3006E-08  0.0000E+00  0.6241E+15
   -2.062516    3.86401  0.6420E-11  0.7839E-08  0.8185E-12  0.3735E-07  0.0000E+00  0.1112E+15
   -2.131267    4.01432  0.6419E-11  0.9003E-08  0.9460E-12  0.3588E-04  0.0000E+00 -0.3303E+12
   -2.200017    4.01506  0.6419E-11  0.9467E-08  0.1012E-11  0.3607E-04  0.0000E+00 -0.3378E+12
   -2.268766    4.01580  0.6419E-11  0.9817E-08  0.1083E-11  0.3526E-04  0.0000E+00 -0.3555E+12
   -2.337515    4.01656  0.6419E-11  0.1007E-07  0.1168E-11  0.3331E-04  0.0000E+00 -0.3877E+12
   -2.406264    4.01737  0.6419E-11  0.1022E-07  0.1279E-11  0.3007E-04  0.0000E+00 -0.4438E+12
   -2.475012    4.01827  0.6419E-11  0.1024E-07  0.1445E-11  0.2529E-04  0.0000E+00 -0.5486E+12
   -2.543760    4.01935  0.6419E-11  0.1007E-07  0.1735E-11  0.1871E-04  0.0000E+00 -0.7801E+12
   -2.612507    4.02082  0.6419E-11  0.9506E-08  0.2430E-11  0.1023E-04  0.0000E+00 -0.1551E+13
   -2.681253    4.02358  0.6419E-11  0.7015E-08  0.6607E-11  0.1459E-05  0.0000E+00 -0.1458E+14
   -2.749999    4.04333  0.6419E-11  0.0000E+00  0.0000E+00  0.0000E+00  0.0000E+00  0.0000E+00
