 1 - depth, m
 2 - temperature, C
 3 - salinity, kg/kg
 4 - turbulent kinetic energy, m**2/s**2
 5 - dissipation rate, m**2/s**3
 6 - kinematic heat conductance, m**2/s
 7 - modulus of horizontal velocity, m/s
 8 - Richardson number, n/d
   -0.000000   11.65022  0.8617E-11  0.5198E-05  0.1199E-06  0.1873E-04  0.3352E-01  0.6317E-01
   -0.068746   11.62481  0.8617E-11  0.4056E-05  0.5823E-07  0.1971E-04  0.2850E-01  0.1573E+00
   -0.137492   11.58478  0.8619E-11  0.2853E-05  0.3613E-07  0.1354E-04  0.2493E-01  0.3436E+00
   -0.206239   11.34726  0.8634E-11  0.1820E-05  0.2406E-07  0.7093E-05  0.2052E-01  0.6879E+00
   -0.274987   11.00570  0.8647E-11  0.1137E-05  0.1571E-07  0.2581E-05  0.1571E-01  0.1176E+01
   -0.343735   10.68749  0.8655E-11  0.8495E-06  0.7095E-08  0.9467E-06  0.1076E-01  0.4943E+01
   -0.412484   10.21658  0.8666E-11  0.1165E-05  0.2407E-08  0.9862E-05  0.4942E-02  0.3417E+02
   -0.481233    9.73155  0.8682E-11  0.2045E-05  0.2024E-08  0.3249E-04  0.1757E-02  0.5675E+02
   -0.549983    9.51112  0.8687E-11  0.2896E-05  0.2219E-08  0.7437E-04  0.3419E-03  0.7158E+02
   -0.618733    9.49295  0.8687E-11  0.3094E-05  0.2325E-08  0.1732E-03  0.1480E-03  0.1557E+03
   -0.687484    9.49219  0.8687E-11  0.3249E-05  0.2429E-08  0.2921E-03  0.1276E-03  0.1373E+03
   -0.756235    9.49192  0.8687E-11  0.3401E-05  0.2546E-08  0.4302E-03  0.1139E-03  0.8396E+03
   -0.824986    9.49182  0.8687E-11  0.3542E-05  0.2667E-08  0.8152E-03  0.1031E-03  0.1730E+03
   -0.893737    9.49181  0.8687E-11  0.3658E-05  0.2778E-08  0.1312E-02  0.9501E-04  0.2734E+03
   -0.962489    9.49184  0.8687E-11  0.3750E-05  0.2874E-08  0.1618E-02  0.8976E-04  0.1485E+02
   -1.031241    9.49189  0.8687E-11  0.3840E-05  0.2973E-08  0.1598E-02  0.8581E-04  0.1651E+02
   -1.099993    9.49197  0.8687E-11  0.3937E-05  0.3087E-08  0.1599E-02  0.8184E-04  0.2114E+02
   -1.168745    9.49208  0.8687E-11  0.4038E-05  0.3212E-08  0.1603E-02  0.7788E-04  0.2581E+02
   -1.237497    9.49222  0.8687E-11  0.4142E-05  0.3349E-08  0.1608E-02  0.7396E-04  0.3053E+02
   -1.306249    9.49239  0.8687E-11  0.4247E-05  0.3496E-08  0.1612E-02  0.7007E-04  0.3554E+02
   -1.375002    9.49259  0.8687E-11  0.4352E-05  0.3651E-08  0.1615E-02  0.6621E-04  0.4065E+02
   -1.443754    9.49282  0.8687E-11  0.4454E-05  0.3813E-08  0.1615E-02  0.6237E-04  0.4619E+02
   -1.512506    9.49309  0.8687E-11  0.4553E-05  0.3983E-08  0.1611E-02  0.5855E-04  0.5187E+02
   -1.581259    9.49340  0.8687E-11  0.4646E-05  0.4158E-08  0.1604E-02  0.5475E-04  0.5816E+02
   -1.650011    9.49374  0.8687E-11  0.4732E-05  0.4337E-08  0.1592E-02  0.5094E-04  0.6495E+02
   -1.718763    9.49412  0.8687E-11  0.4809E-05  0.4520E-08  0.1575E-02  0.4712E-04  0.7430E+02
   -1.787515    9.49454  0.8687E-11  0.4879E-05  0.4715E-08  0.1554E-02  0.4329E-04  0.8559E+02
   -1.856266    9.49498  0.8687E-11  0.4943E-05  0.4931E-08  0.1526E-02  0.3971E-04  0.1091E+03
   -1.925018    9.49545  0.8687E-11  0.5002E-05  0.5176E-08  0.1489E-02  0.3637E-04  0.1466E+03
   -1.993769    9.49593  0.8687E-11  0.5056E-05  0.5453E-08  0.1573E-02  0.3328E-04  0.4842E+03
   -2.062520    9.49641  0.8687E-11  0.5101E-05  0.5767E-08  0.1337E-02  0.3066E-04  0.2211E+04
   -2.131270    9.49700  0.8687E-11  0.5137E-05  0.6120E-08  0.1326E-02  0.2781E-04  0.3496E+03
   -2.200020    9.49762  0.8687E-11  0.5163E-05  0.6534E-08  0.1261E-02  0.2505E-04  0.4247E+03
   -2.268770    9.49831  0.8687E-11  0.5176E-05  0.7028E-08  0.1181E-02  0.2235E-04  0.5770E+03
   -2.337519    9.49907  0.8687E-11  0.5172E-05  0.7659E-08  0.1086E-02  0.1974E-04  0.8496E+03
   -2.406268    9.49992  0.8687E-11  0.5149E-05  0.8513E-08  0.9740E-03  0.1723E-04  0.1369E+04
   -2.475016    9.50091  0.8687E-11  0.5096E-05  0.9768E-08  0.8422E-03  0.1480E-04  0.2509E+04
   -2.543764    9.50208  0.8687E-11  0.4998E-05  0.1184E-07  0.6732E-03  0.1244E-04  0.5669E+04
   -2.612511    9.50360  0.8687E-11  0.4811E-05  0.1605E-07  0.5271E-03  0.1008E-04  0.1602E+05
   -2.681258    9.50561  0.8687E-11  0.3302E-05  0.6083E-07  0.3051E-04  0.7972E-05 -0.1239E+07
   -2.750003    9.54163  0.8687E-11  0.0000E+00  0.0000E+00  0.0000E+00  0.7972E-05  0.0000E+00
