 1 - depth, m
 2 - temperature, C
 3 - salinity, kg/kg
 4 - turbulent kinetic energy, m**2/s**2
 5 - dissipation rate, m**2/s**3
 6 - kinematic heat conductance, m**2/s
 7 - modulus of horizontal velocity, m/s
 8 - Richardson number, n/d
   -0.000000   -0.00000  0.1083E-10  0.1219E-13  0.7603E-17  0.1000E-09  0.0000E+00  0.7192E+16
   -0.068746    0.10949  0.6282E-11  0.1219E-13  0.7603E-17  0.1000E-09  0.0000E+00  0.6912E+16
   -0.137492    0.21792  0.4563E-11  0.1219E-13  0.7603E-17  0.1000E-09  0.0000E+00  0.6659E+16
   -0.206239    0.32563  0.4006E-11  0.1219E-13  0.7603E-17  0.1000E-09  0.0000E+00  0.6432E+16
   -0.274987    0.43296  0.3854E-11  0.1219E-13  0.7603E-17  0.1000E-09  0.0000E+00  0.6229E+16
   -0.343735    0.54027  0.3818E-11  0.1219E-13  0.7603E-17  0.1000E-09  0.0000E+00  0.6045E+16
   -0.412483    0.64792  0.3810E-11  0.1219E-13  0.7603E-17  0.1000E-09  0.0000E+00  0.5878E+16
   -0.481232    0.75623  0.3808E-11  0.1219E-13  0.7603E-17  0.1000E-09  0.0000E+00  0.5725E+16
   -0.549982    0.86553  0.3808E-11  0.1219E-13  0.7603E-17  0.1000E-09  0.0000E+00  0.5582E+16
   -0.618732    0.97613  0.3808E-11  0.1219E-13  0.7603E-17  0.1000E-09  0.0000E+00  0.5446E+16
   -0.687482    1.08831  0.3808E-11  0.1219E-13  0.7603E-17  0.1000E-09  0.0000E+00  0.5324E+16
   -0.756233    1.20256  0.3808E-11  0.1219E-13  0.7603E-17  0.1000E-09  0.0000E+00  0.5207E+16
   -0.824984    1.31926  0.3808E-11  0.1219E-13  0.7603E-17  0.1000E-09  0.0000E+00  0.5085E+16
   -0.893735    1.43862  0.3808E-11  0.1219E-13  0.7603E-17  0.1000E-09  0.0000E+00  0.4954E+16
   -0.962487    1.56081  0.3807E-11  0.1219E-13  0.7603E-17  0.1000E-09  0.0000E+00  0.4813E+16
   -1.031238    1.68597  0.3805E-11  0.2494E-13  0.7794E-17  0.1000E-09  0.0000E+00  0.4657E+16
   -1.099990    1.81422  0.3801E-11  0.7477E-13  0.1138E-16  0.1000E-09  0.0000E+00  0.4485E+16
   -1.168742    1.94563  0.3793E-11  0.2023E-12  0.2508E-16  0.1000E-09  0.0000E+00  0.4295E+16
   -1.237494    2.08025  0.3781E-11  0.5009E-12  0.5860E-16  0.1000E-09  0.0000E+00  0.4086E+16
   -1.306247    2.21810  0.3764E-11  0.1196E-11  0.1353E-15  0.1000E-09  0.0000E+00  0.3855E+16
   -1.374999    2.35915  0.3746E-11  0.2799E-11  0.3078E-15  0.1000E-09  0.0000E+00  0.3606E+16
   -1.443751    2.50356  0.3731E-11  0.6452E-11  0.6901E-15  0.1000E-09  0.0000E+00  0.3334E+16
   -1.512503    2.65128  0.3720E-11  0.1467E-10  0.1527E-14  0.1000E-09  0.0000E+00  0.3036E+16
   -1.581255    2.80210  0.3713E-11  0.3289E-10  0.3334E-14  0.1000E-09  0.0000E+00  0.2712E+16
   -1.650007    2.95567  0.3709E-11  0.7283E-10  0.7189E-14  0.1000E-09  0.0000E+00  0.2362E+16
   -1.718759    3.11153  0.3707E-11  0.1592E-09  0.1531E-13  0.1000E-09  0.0000E+00  0.1992E+16
   -1.787511    3.26928  0.3705E-11  0.3518E-09  0.3296E-13  0.1102E-09  0.0000E+00  0.1636E+16
   -1.856262    3.43186  0.3703E-11  0.7814E-09  0.7133E-13  0.2895E-09  0.0000E+00  0.1256E+16
   -1.925014    3.60130  0.3700E-11  0.1728E-08  0.1537E-12  0.9316E-09  0.0000E+00  0.8380E+15
   -1.993765    3.78230  0.3694E-11  0.3788E-08  0.3288E-12  0.5085E-08  0.0000E+00  0.3235E+15
   -2.062515    3.97724  0.3692E-11  0.5357E-08  0.4745E-12  0.1214E-04  0.0000E+00  0.3160E+13
   -2.131266    3.99766  0.3692E-11  0.5925E-08  0.5339E-12  0.2450E-04  0.0000E+00 -0.2148E+12
   -2.200016    3.99900  0.3692E-11  0.6270E-08  0.5795E-12  0.2549E-04  0.0000E+00 -0.2286E+12
   -2.268765    4.00023  0.3692E-11  0.6542E-08  0.6291E-12  0.2549E-04  0.0000E+00 -0.2487E+12
   -2.337514    4.00143  0.3692E-11  0.6750E-08  0.6885E-12  0.2443E-04  0.0000E+00 -0.2797E+12
   -2.406263    4.00266  0.3692E-11  0.6886E-08  0.7658E-12  0.2222E-04  0.0000E+00 -0.3306E+12
   -2.475011    4.00399  0.3692E-11  0.6932E-08  0.8792E-12  0.1872E-04  0.0000E+00 -0.4240E+12
   -2.543759    4.00555  0.3692E-11  0.6840E-08  0.1077E-11  0.1374E-04  0.0000E+00 -0.6330E+12
   -2.612506    4.00764  0.3692E-11  0.6456E-08  0.1550E-11  0.7366E-05  0.0000E+00 -0.1363E+13
   -2.681252    4.01154  0.3692E-11  0.4761E-08  0.4263E-11  0.1086E-05  0.0000E+00 -0.1402E+14
   -2.749998    4.03577  0.3692E-11  0.0000E+00  0.0000E+00  0.0000E+00  0.0000E+00  0.0000E+00
