 1 - depth, m
 2 - temperature, C
 3 - salinity, kg/kg
 4 - turbulent kinetic energy, m**2/s**2
 5 - dissipation rate, m**2/s**3
 6 - kinematic heat conductance, m**2/s
 7 - modulus of horizontal velocity, m/s
 8 - Richardson number, n/d
   -0.000000   -0.00000  0.2021E-12  0.1219E-13  0.7603E-17  0.1000E-09  0.0000E+00  0.7091E+16
   -0.068746    0.10793  0.8824E-12  0.1219E-13  0.7603E-17  0.1000E-09  0.0000E+00  0.7002E+16
   -0.137493    0.21775  0.1300E-11  0.1219E-13  0.7603E-17  0.1000E-09  0.0000E+00  0.6894E+16
   -0.206240    0.32931  0.1415E-11  0.1219E-13  0.7603E-17  0.1000E-09  0.0000E+00  0.6766E+16
   -0.274988    0.44242  0.1361E-11  0.1219E-13  0.7603E-17  0.1000E-09  0.0000E+00  0.6620E+16
   -0.343736    0.55693  0.1251E-11  0.1219E-13  0.7603E-17  0.1000E-09  0.0000E+00  0.6457E+16
   -0.412485    0.67265  0.1148E-11  0.1219E-13  0.7603E-17  0.1000E-09  0.0000E+00  0.6279E+16
   -0.481234    0.78944  0.1074E-11  0.1219E-13  0.7603E-17  0.1000E-09  0.0000E+00  0.6088E+16
   -0.549984    0.90714  0.1029E-11  0.1219E-13  0.7603E-17  0.1000E-09  0.0000E+00  0.5885E+16
   -0.618734    1.02558  0.1005E-11  0.1219E-13  0.7603E-17  0.1000E-09  0.0000E+00  0.5671E+16
   -0.687485    1.14464  0.9937E-12  0.1219E-13  0.7603E-17  0.1000E-09  0.0000E+00  0.5449E+16
   -0.756236    1.26419  0.9885E-12  0.1219E-13  0.7603E-17  0.1000E-09  0.0000E+00  0.5220E+16
   -0.824987    1.38410  0.9861E-12  0.1219E-13  0.7603E-17  0.1000E-09  0.0000E+00  0.4986E+16
   -0.893739    1.50427  0.9848E-12  0.1219E-13  0.7603E-17  0.1000E-09  0.0000E+00  0.4746E+16
   -0.962491    1.62458  0.9837E-12  0.1219E-13  0.7603E-17  0.1000E-09  0.0000E+00  0.4503E+16
   -1.031243    1.74493  0.9825E-12  0.1219E-13  0.7603E-17  0.1000E-09  0.0000E+00  0.4258E+16
   -1.099995    1.86525  0.9809E-12  0.1219E-13  0.7603E-17  0.1000E-09  0.0000E+00  0.4012E+16
   -1.168747    1.98547  0.9788E-12  0.1219E-13  0.7603E-17  0.1000E-09  0.0000E+00  0.3765E+16
   -1.237499    2.10550  0.9763E-12  0.1219E-13  0.7603E-17  0.1000E-09  0.0000E+00  0.3519E+16
   -1.306252    2.22531  0.9734E-12  0.1219E-13  0.7603E-17  0.1000E-09  0.0000E+00  0.3273E+16
   -1.375004    2.34484  0.9704E-12  0.1219E-13  0.7603E-17  0.1000E-09  0.0000E+00  0.3031E+16
   -1.443757    2.46409  0.9675E-12  0.1219E-13  0.7603E-17  0.1000E-09  0.0000E+00  0.2790E+16
   -1.512509    2.58304  0.9648E-12  0.1219E-13  0.7603E-17  0.1000E-09  0.0000E+00  0.2552E+16
   -1.581262    2.70167  0.9624E-12  0.1219E-13  0.7603E-17  0.1000E-09  0.0000E+00  0.2316E+16
   -1.650014    2.81997  0.9605E-12  0.4905E-13  0.1086E-16  0.1000E-09  0.0000E+00  0.2083E+16
   -1.718766    2.93794  0.9589E-12  0.1548E-12  0.2837E-16  0.1000E-09  0.0000E+00  0.1852E+16
   -1.787518    3.05553  0.9577E-12  0.4527E-12  0.7873E-16  0.1000E-09  0.0000E+00  0.1601E+16
   -1.856270    3.17094  0.9567E-12  0.1301E-11  0.2185E-15  0.1000E-09  0.0000E+00  0.1357E+16
   -1.925022    3.28373  0.9559E-12  0.3693E-11  0.6013E-15  0.1000E-09  0.0000E+00  0.1123E+16
   -1.993773    3.39331  0.9553E-12  0.1040E-10  0.1642E-14  0.1000E-09  0.0000E+00  0.9066E+15
   -2.062524    3.49960  0.9548E-12  0.2835E-10  0.4345E-14  0.1000E-09  0.0000E+00  0.7233E+15
   -2.131274    3.60530  0.9545E-12  0.7616E-10  0.1133E-13  0.1056E-09  0.0000E+00  0.5450E+15
   -2.200025    3.71072  0.9543E-12  0.2024E-09  0.2924E-13  0.4032E-09  0.0000E+00  0.3683E+15
   -2.268775    3.81574  0.9542E-12  0.5366E-09  0.7533E-13  0.1976E-08  0.0000E+00  0.1933E+15
   -2.337524    3.91946  0.9541E-12  0.1413E-08  0.1933E-12  0.3004E-07  0.0000E+00  0.3200E+14
   -2.406273    4.00598  0.9541E-12  0.2388E-08  0.3298E-12  0.7938E-05  0.0000E+00 -0.5901E+12
   -2.475021    4.00781  0.9541E-12  0.2734E-08  0.4047E-12  0.7725E-05  0.0000E+00 -0.6553E+12
   -2.543769    4.00967  0.9541E-12  0.2894E-08  0.4995E-12  0.6362E-05  0.0000E+00 -0.8548E+12
   -2.612516    4.01190  0.9541E-12  0.2805E-08  0.6858E-12  0.3710E-05  0.0000E+00 -0.1581E+13
   -2.681263    4.01558  0.9541E-12  0.2017E-08  0.1558E-11  0.5638E-06  0.0000E+00 -0.1120E+14
   -2.750009    4.03413  0.9541E-12  0.0000E+00  0.0000E+00  0.0000E+00  0.0000E+00  0.0000E+00
