 1 - depth, m
 2 - temperature, C
 3 - salinity, kg/kg
 4 - turbulent kinetic energy, m**2/s**2
 5 - dissipation rate, m**2/s**3
 6 - kinematic heat conductance, m**2/s
 7 - modulus of horizontal velocity, m/s
 8 - Richardson number, n/d
   -0.000000   -0.00000  0.5314E-11  0.1219E-13  0.7603E-17  0.1000E-09  0.0000E+00  0.4160E+16
   -0.068746    0.06294  0.2931E-11  0.1219E-13  0.7603E-17  0.1000E-09  0.0000E+00  0.3975E+16
   -0.137492    0.12410  0.2359E-11  0.1219E-13  0.7603E-17  0.1000E-09  0.0000E+00  0.3829E+16
   -0.206239    0.18401  0.2237E-11  0.1219E-13  0.7603E-17  0.1000E-09  0.0000E+00  0.3719E+16
   -0.274987    0.24317  0.2213E-11  0.1219E-13  0.7603E-17  0.1000E-09  0.0000E+00  0.3647E+16
   -0.343735    0.30218  0.2209E-11  0.1219E-13  0.7603E-17  0.1000E-09  0.0000E+00  0.3612E+16
   -0.412483    0.36162  0.2209E-11  0.1219E-13  0.7603E-17  0.1000E-09  0.0000E+00  0.3614E+16
   -0.481232    0.42214  0.2209E-11  0.1219E-13  0.7603E-17  0.1000E-09  0.0000E+00  0.3652E+16
   -0.549982    0.48443  0.2209E-11  0.1219E-13  0.7603E-17  0.1000E-09  0.0000E+00  0.3725E+16
   -0.618732    0.54919  0.2209E-11  0.1219E-13  0.7603E-17  0.1000E-09  0.0000E+00  0.3830E+16
   -0.687482    0.61718  0.2209E-11  0.1219E-13  0.7603E-17  0.1000E-09  0.0000E+00  0.3983E+16
   -0.756233    0.68943  0.2209E-11  0.1219E-13  0.7603E-17  0.1000E-09  0.0000E+00  0.4169E+16
   -0.824984    0.76690  0.2209E-11  0.1219E-13  0.7603E-17  0.1000E-09  0.0000E+00  0.4374E+16
   -0.893735    0.85036  0.2209E-11  0.1219E-13  0.7603E-17  0.1000E-09  0.0000E+00  0.4592E+16
   -0.962486    0.94056  0.2209E-11  0.1219E-13  0.7603E-17  0.1000E-09  0.0000E+00  0.4813E+16
   -1.031238    1.03822  0.2209E-11  0.1219E-13  0.7603E-17  0.1000E-09  0.0000E+00  0.5029E+16
   -1.099990    1.14403  0.2208E-11  0.1219E-13  0.7603E-17  0.1000E-09  0.0000E+00  0.5228E+16
   -1.168742    1.25859  0.2207E-11  0.3970E-13  0.7775E-17  0.1000E-09  0.0000E+00  0.5400E+16
   -1.237494    1.38246  0.2203E-11  0.1167E-12  0.1671E-16  0.1000E-09  0.0000E+00  0.5532E+16
   -1.306246    1.51607  0.2194E-11  0.3003E-12  0.3987E-16  0.1000E-09  0.0000E+00  0.5612E+16
   -1.374999    1.65980  0.2181E-11  0.7379E-12  0.9452E-16  0.1000E-09  0.0000E+00  0.5651E+16
   -1.443751    1.81449  0.2167E-11  0.1778E-11  0.2213E-15  0.1000E-09  0.0000E+00  0.5618E+16
   -1.512503    1.98050  0.2159E-11  0.4229E-11  0.5120E-15  0.1000E-09  0.0000E+00  0.5494E+16
   -1.581255    2.15791  0.2155E-11  0.9948E-11  0.1172E-14  0.1000E-09  0.0000E+00  0.5273E+16
   -1.650007    2.34673  0.2153E-11  0.2315E-10  0.2657E-14  0.1000E-09  0.0000E+00  0.4948E+16
   -1.718759    2.54693  0.2151E-11  0.5333E-10  0.5961E-14  0.1000E-09  0.0000E+00  0.4515E+16
   -1.787511    2.75848  0.2151E-11  0.1246E-09  0.1357E-13  0.1000E-09  0.0000E+00  0.3984E+16
   -1.856262    2.98239  0.2150E-11  0.2934E-09  0.3113E-13  0.1000E-09  0.0000E+00  0.3334E+16
   -1.925013    3.21939  0.2150E-11  0.6894E-09  0.7129E-13  0.1428E-09  0.0000E+00  0.2544E+16
   -1.993764    3.46981  0.2148E-11  0.1615E-08  0.1628E-12  0.5218E-09  0.0000E+00  0.1591E+16
   -2.062515    3.73153  0.2144E-11  0.3680E-08  0.3622E-12  0.3628E-08  0.0000E+00  0.5097E+15
   -2.131265    3.99160  0.2139E-11  0.4723E-08  0.4687E-12  0.1493E-04  0.0000E+00 -0.2549E+12
   -2.200015    3.99411  0.2139E-11  0.5236E-08  0.5373E-12  0.1788E-04  0.0000E+00 -0.2905E+12
   -2.268765    3.99622  0.2139E-11  0.5677E-08  0.6147E-12  0.1935E-04  0.0000E+00 -0.3320E+12
   -2.337514    3.99817  0.2139E-11  0.6061E-08  0.7082E-12  0.1952E-04  0.0000E+00 -0.3902E+12
   -2.406262    4.00011  0.2139E-11  0.6379E-08  0.8285E-12  0.1842E-04  0.0000E+00 -0.4814E+12
   -2.475011    4.00218  0.2139E-11  0.6613E-08  0.1000E-11  0.1597E-04  0.0000E+00 -0.6447E+12
   -2.543758    4.00459  0.2139E-11  0.6716E-08  0.1288E-11  0.1207E-04  0.0000E+00 -0.1006E+13
   -2.612505    4.00782  0.2139E-11  0.6548E-08  0.1948E-11  0.6733E-05  0.0000E+00 -0.2263E+13
   -2.681251    4.01373  0.2139E-11  0.5322E-08  0.5341E-11  0.1279E-05  0.0000E+00 -0.2134E+14
   -2.749997    4.04528  0.2139E-11  0.0000E+00  0.0000E+00  0.0000E+00  0.0000E+00  0.0000E+00
