 1 - depth, m
 2 - temperature, C
 3 - salinity, kg/kg
 4 - turbulent kinetic energy, m**2/s**2
 5 - dissipation rate, m**2/s**3
 6 - kinematic heat conductance, m**2/s
 7 - modulus of horizontal velocity, m/s
 8 - Richardson number, n/d
   -0.000000   -0.00000  0.2853E-11  0.1219E-13  0.7603E-17  0.1000E-09  0.0000E+00  0.7663E+16
   -0.068746    0.11678  0.1674E-11  0.1219E-13  0.7603E-17  0.1000E-09  0.0000E+00  0.7355E+16
   -0.137492    0.23251  0.1205E-11  0.1219E-13  0.7603E-17  0.1000E-09  0.0000E+00  0.7074E+16
   -0.206239    0.34752  0.1046E-11  0.1219E-13  0.7603E-17  0.1000E-09  0.0000E+00  0.6818E+16
   -0.274987    0.46215  0.1000E-11  0.1219E-13  0.7603E-17  0.1000E-09  0.0000E+00  0.6584E+16
   -0.343735    0.57672  0.9885E-12  0.1219E-13  0.7603E-17  0.1000E-09  0.0000E+00  0.6368E+16
   -0.412483    0.69154  0.9860E-12  0.1219E-13  0.7603E-17  0.1000E-09  0.0000E+00  0.6166E+16
   -0.481232    0.80691  0.9855E-12  0.1219E-13  0.7603E-17  0.1000E-09  0.0000E+00  0.5977E+16
   -0.549982    0.92311  0.9854E-12  0.1219E-13  0.7603E-17  0.1000E-09  0.0000E+00  0.5796E+16
   -0.618732    1.04039  0.9853E-12  0.1219E-13  0.7603E-17  0.1000E-09  0.0000E+00  0.5620E+16
   -0.687482    1.15901  0.9853E-12  0.1219E-13  0.7603E-17  0.1000E-09  0.0000E+00  0.5458E+16
   -0.756233    1.27941  0.9853E-12  0.1219E-13  0.7603E-17  0.1000E-09  0.0000E+00  0.5300E+16
   -0.824984    1.40194  0.9853E-12  0.1219E-13  0.7603E-17  0.1000E-09  0.0000E+00  0.5136E+16
   -0.893735    1.52676  0.9851E-12  0.1219E-13  0.7603E-17  0.1000E-09  0.0000E+00  0.4964E+16
   -0.962487    1.65402  0.9848E-12  0.1784E-13  0.7603E-17  0.1000E-09  0.0000E+00  0.4781E+16
   -1.031238    1.78381  0.9840E-12  0.7161E-13  0.1106E-16  0.1000E-09  0.0000E+00  0.4586E+16
   -1.099990    1.91622  0.9824E-12  0.1954E-12  0.2463E-16  0.1000E-09  0.0000E+00  0.4375E+16
   -1.168742    2.05129  0.9797E-12  0.4751E-12  0.5654E-16  0.1000E-09  0.0000E+00  0.4148E+16
   -1.237494    2.18901  0.9757E-12  0.1112E-11  0.1282E-15  0.1000E-09  0.0000E+00  0.3904E+16
   -1.306246    2.32936  0.9710E-12  0.2561E-11  0.2871E-15  0.1000E-09  0.0000E+00  0.3640E+16
   -1.374999    2.47227  0.9665E-12  0.5826E-11  0.6360E-15  0.1000E-09  0.0000E+00  0.3362E+16
   -1.443751    2.61777  0.9628E-12  0.1311E-10  0.1395E-14  0.1000E-09  0.0000E+00  0.3064E+16
   -1.512503    2.76578  0.9604E-12  0.2923E-10  0.3030E-14  0.1000E-09  0.0000E+00  0.2747E+16
   -1.581255    2.91612  0.9588E-12  0.6452E-10  0.6521E-14  0.1000E-09  0.0000E+00  0.2411E+16
   -1.650007    3.06855  0.9578E-12  0.1411E-09  0.1390E-13  0.1000E-09  0.0000E+00  0.2059E+16
   -1.718759    3.22282  0.9572E-12  0.3056E-09  0.2938E-13  0.1000E-09  0.0000E+00  0.1693E+16
   -1.787511    3.37873  0.9566E-12  0.6715E-09  0.6296E-13  0.2409E-09  0.0000E+00  0.1330E+16
   -1.856262    3.53824  0.9559E-12  0.1488E-08  0.1361E-12  0.7358E-09  0.0000E+00  0.9413E+15
   -1.925014    3.70119  0.9547E-12  0.3289E-08  0.2938E-12  0.2845E-08  0.0000E+00  0.5253E+15
   -1.993765    3.86608  0.9539E-12  0.7146E-08  0.6245E-12  0.2900E-07  0.0000E+00  0.1093E+15
   -2.062515    4.00893  0.9538E-12  0.8042E-08  0.7068E-12  0.3777E-04  0.0000E+00 -0.2298E+12
   -2.131266    4.00957  0.9538E-12  0.8413E-08  0.7498E-12  0.3813E-04  0.0000E+00 -0.2342E+12
   -2.200016    4.01020  0.9538E-12  0.8704E-08  0.7955E-12  0.3764E-04  0.0000E+00 -0.2440E+12
   -2.268765    4.01084  0.9538E-12  0.8920E-08  0.8470E-12  0.3625E-04  0.0000E+00 -0.2607E+12
   -2.337514    4.01151  0.9538E-12  0.9066E-08  0.9110E-12  0.3380E-04  0.0000E+00 -0.2880E+12
   -2.406263    4.01223  0.9538E-12  0.9133E-08  0.9974E-12  0.3012E-04  0.0000E+00 -0.3338E+12
   -2.475011    4.01304  0.9538E-12  0.9099E-08  0.1128E-11  0.2499E-04  0.0000E+00 -0.4180E+12
   -2.543758    4.01402  0.9538E-12  0.8904E-08  0.1360E-11  0.1817E-04  0.0000E+00 -0.6033E+12
   -2.612505    4.01538  0.9538E-12  0.8360E-08  0.1925E-11  0.9671E-05  0.0000E+00 -0.1226E+13
   -2.681252    4.01796  0.9538E-12  0.6025E-08  0.5386E-11  0.1269E-05  0.0000E+00 -0.1231E+14
   -2.749997    4.03704  0.9538E-12  0.0000E+00  0.0000E+00  0.0000E+00  0.0000E+00  0.0000E+00
