 1 - depth, m
 2 - temperature, C
 3 - salinity, kg/kg
 4 - turbulent kinetic energy, m**2/s**2
 5 - dissipation rate, m**2/s**3
 6 - kinematic heat conductance, m**2/s
 7 - modulus of horizontal velocity, m/s
 8 - Richardson number, n/d
   -0.000000   -0.00000  0.2332E-11  0.1219E-13  0.7603E-17  0.1000E-09  0.0000E+00  0.7060E+16
   -0.068746    0.10745  0.7051E-11  0.1219E-13  0.7603E-17  0.1000E-09  0.0000E+00  0.6971E+16
   -0.137493    0.21676  0.9076E-11  0.1219E-13  0.7603E-17  0.1000E-09  0.0000E+00  0.6861E+16
   -0.206240    0.32774  0.9352E-11  0.1219E-13  0.7603E-17  0.1000E-09  0.0000E+00  0.6730E+16
   -0.274988    0.44020  0.8846E-11  0.1219E-13  0.7603E-17  0.1000E-09  0.0000E+00  0.6580E+16
   -0.343736    0.55393  0.8138E-11  0.1219E-13  0.7603E-17  0.1000E-09  0.0000E+00  0.6412E+16
   -0.412485    0.66873  0.7525E-11  0.1219E-13  0.7603E-17  0.1000E-09  0.0000E+00  0.6228E+16
   -0.481234    0.78439  0.7105E-11  0.1219E-13  0.7603E-17  0.1000E-09  0.0000E+00  0.6030E+16
   -0.549984    0.90073  0.6857E-11  0.1219E-13  0.7603E-17  0.1000E-09  0.0000E+00  0.5820E+16
   -0.618734    1.01759  0.6729E-11  0.1219E-13  0.7603E-17  0.1000E-09  0.0000E+00  0.5602E+16
   -0.687485    1.13482  0.6668E-11  0.1219E-13  0.7603E-17  0.1000E-09  0.0000E+00  0.5377E+16
   -0.756236    1.25230  0.6641E-11  0.1219E-13  0.7603E-17  0.1000E-09  0.0000E+00  0.5147E+16
   -0.824987    1.36992  0.6629E-11  0.1219E-13  0.7603E-17  0.1000E-09  0.0000E+00  0.4912E+16
   -0.893739    1.48758  0.6622E-11  0.1219E-13  0.7603E-17  0.1000E-09  0.0000E+00  0.4675E+16
   -0.962490    1.60518  0.6616E-11  0.1219E-13  0.7603E-17  0.1000E-09  0.0000E+00  0.4436E+16
   -1.031242    1.72263  0.6608E-11  0.1219E-13  0.7603E-17  0.1000E-09  0.0000E+00  0.4196E+16
   -1.099994    1.83987  0.6598E-11  0.1219E-13  0.7603E-17  0.1000E-09  0.0000E+00  0.3956E+16
   -1.168747    1.95682  0.6585E-11  0.1219E-13  0.7603E-17  0.1000E-09  0.0000E+00  0.3717E+16
   -1.237499    2.07345  0.6569E-11  0.1219E-13  0.7603E-17  0.1000E-09  0.0000E+00  0.3480E+16
   -1.306252    2.18970  0.6550E-11  0.1219E-13  0.7603E-17  0.1000E-09  0.0000E+00  0.3244E+16
   -1.375004    2.30555  0.6530E-11  0.1219E-13  0.7603E-17  0.1000E-09  0.0000E+00  0.3013E+16
   -1.443757    2.42102  0.6511E-11  0.1219E-13  0.7603E-17  0.1000E-09  0.0000E+00  0.2784E+16
   -1.512509    2.53609  0.6493E-11  0.1219E-13  0.7603E-17  0.1000E-09  0.0000E+00  0.2559E+16
   -1.581261    2.65079  0.6478E-11  0.1219E-13  0.7603E-17  0.1000E-09  0.0000E+00  0.2336E+16
   -1.650014    2.76510  0.6465E-11  0.1219E-13  0.7603E-17  0.1000E-09  0.0000E+00  0.2117E+16
   -1.718766    2.87906  0.6455E-11  0.1219E-13  0.7603E-17  0.1000E-09  0.0000E+00  0.1900E+16
   -1.787518    2.99262  0.6448E-11  0.3504E-13  0.9650E-17  0.1000E-09  0.0000E+00  0.1668E+16
   -1.856269    3.10447  0.6441E-11  0.1240E-12  0.2838E-16  0.1000E-09  0.0000E+00  0.1441E+16
   -1.925021    3.21427  0.6436E-11  0.4112E-12  0.8948E-16  0.1000E-09  0.0000E+00  0.1221E+16
   -1.993772    3.32153  0.6432E-11  0.1332E-11  0.2797E-15  0.1000E-09  0.0000E+00  0.1014E+16
   -2.062523    3.42617  0.6429E-11  0.4150E-11  0.8432E-15  0.1000E-09  0.0000E+00  0.8348E+15
   -2.131274    3.53020  0.6426E-11  0.1271E-10  0.2500E-14  0.1000E-09  0.0000E+00  0.6604E+15
   -2.200024    3.63381  0.6424E-11  0.3843E-10  0.7318E-14  0.1000E-09  0.0000E+00  0.4887E+15
   -2.268774    3.73698  0.6423E-11  0.1158E-09  0.2136E-13  0.3391E-09  0.0000E+00  0.3191E+15
   -2.337523    3.83948  0.6423E-11  0.3511E-09  0.6281E-13  0.2078E-08  0.0000E+00  0.1524E+15
   -2.406272    3.94020  0.6423E-11  0.1033E-08  0.1801E-12  0.6605E-07  0.0000E+00  0.1259E+14
   -2.475020    4.00915  0.6423E-11  0.2089E-08  0.3716E-12  0.5371E-05  0.0000E+00 -0.9786E+12
   -2.543768    4.01173  0.6423E-11  0.2434E-08  0.4887E-12  0.4876E-05  0.0000E+00 -0.1187E+13
   -2.612515    4.01456  0.6423E-11  0.2472E-08  0.6789E-12  0.3081E-05  0.0000E+00 -0.2058E+13
   -2.681262    4.01888  0.6423E-11  0.1851E-08  0.1467E-11  0.5377E-06  0.0000E+00 -0.1268E+14
   -2.750008    4.03808  0.6423E-11  0.0000E+00  0.0000E+00  0.0000E+00  0.0000E+00  0.0000E+00
