 1 - depth, m
 2 - temperature, C
 3 - salinity, kg/kg
 4 - turbulent kinetic energy, m**2/s**2
 5 - dissipation rate, m**2/s**3
 6 - kinematic heat conductance, m**2/s
 7 - modulus of horizontal velocity, m/s
 8 - Richardson number, n/d
   -0.000000    8.00168  0.2558E-10  0.8108E-04  0.1913E-04  0.9278E-04  0.8550E-01 -0.6578E-01
   -0.068746    8.04777  0.2558E-10  0.4797E-04  0.4139E-05  0.1140E-03  0.4049E-01 -0.3115E+00
   -0.137492    8.05757  0.2558E-10  0.3936E-04  0.1642E-05  0.1510E-03  0.3253E-01 -0.1295E-01
   -0.206239    8.06404  0.2558E-10  0.3503E-04  0.8376E-06  0.1970E-03  0.2780E-01 -0.1774E-01
   -0.274987    8.06889  0.2558E-10  0.3253E-04  0.5108E-06  0.2498E-03  0.2435E-01 -0.2304E-01
   -0.343735    8.07266  0.2558E-10  0.3093E-04  0.3527E-06  0.3071E-03  0.2169E-01 -0.2882E-01
   -0.412484    8.07565  0.2558E-10  0.2978E-04  0.2646E-06  0.3673E-03  0.1957E-01 -0.3496E-01
   -0.481233    8.07809  0.2558E-10  0.2889E-04  0.2099E-06  0.4294E-03  0.1784E-01 -0.4133E-01
   -0.549983    8.08012  0.2558E-10  0.2815E-04  0.1731E-06  0.4922E-03  0.1639E-01 -0.4779E-01
   -0.618733    8.08184  0.2558E-10  0.2752E-04  0.1469E-06  0.5551E-03  0.1514E-01 -0.5425E-01
   -0.687483    8.08333  0.2558E-10  0.2696E-04  0.1274E-06  0.6173E-03  0.1406E-01 -0.6060E-01
   -0.756234    8.08463  0.2558E-10  0.2646E-04  0.1123E-06  0.6784E-03  0.1310E-01 -0.6666E-01
   -0.824985    8.08578  0.2558E-10  0.2601E-04  0.1004E-06  0.7384E-03  0.1223E-01 -0.7121E-01
   -0.893737    8.08681  0.2558E-10  0.2558E-04  0.9084E-07  0.8011E-03  0.1145E-01 -0.6317E-01
   -0.962488    8.08774  0.2558E-10  0.2519E-04  0.8298E-07  0.8874E-03  0.1073E-01  0.5369E+02
   -1.031240    8.08856  0.2558E-10  0.2482E-04  0.7645E-07  0.1023E-02  0.1007E-01  0.5074E+02
   -1.099992    8.08929  0.2558E-10  0.2447E-04  0.7096E-07  0.1139E-02  0.9453E-02  0.1768E+02
   -1.168744    8.08993  0.2558E-10  0.2414E-04  0.6630E-07  0.1264E-02  0.8872E-02  0.1642E+04
   -1.237496    8.09051  0.2558E-10  0.2381E-04  0.6229E-07  0.1416E-02  0.8319E-02  0.4713E+02
   -1.306249    8.09102  0.2558E-10  0.2349E-04  0.5882E-07  0.1606E-02  0.7790E-02  0.2582E+03
   -1.375001    8.09146  0.2558E-10  0.2317E-04  0.5578E-07  0.1755E-02  0.7281E-02  0.2580E+04
   -1.443753    8.09185  0.2558E-10  0.2284E-04  0.5310E-07  0.1906E-02  0.6785E-02  0.1016E+05
   -1.512506    8.09220  0.2558E-10  0.2249E-04  0.5071E-07  0.2078E-02  0.6301E-02  0.3071E+05
   -1.581258    8.09250  0.2558E-10  0.2213E-04  0.4856E-07  0.2211E-02  0.5825E-02  0.5561E+05
   -1.650010    8.09277  0.2558E-10  0.2175E-04  0.4660E-07  0.2316E-02  0.5354E-02  0.5675E+04
   -1.718762    8.09302  0.2558E-10  0.2133E-04  0.4479E-07  0.2371E-02  0.4887E-02  0.3723E+03
   -1.787514    8.09325  0.2558E-10  0.2086E-04  0.4303E-07  0.2463E-02  0.4420E-02  0.7323E+02
   -1.856265    8.09346  0.2558E-10  0.2034E-04  0.4133E-07  0.2505E-02  0.3999E-02  0.3908E+03
   -1.925017    8.09367  0.2558E-10  0.1978E-04  0.3974E-07  0.2499E-02  0.3615E-02  0.1130E+02
   -1.993768    8.09387  0.2558E-10  0.1919E-04  0.3828E-07  0.2473E-02  0.3265E-02  0.2102E+01
   -2.062519    8.09407  0.2558E-10  0.1860E-04  0.3709E-07  0.2432E-02  0.2943E-02  0.1652E+01
   -2.131269    8.09427  0.2558E-10  0.1801E-04  0.3620E-07  0.2369E-02  0.2639E-02  0.5278E+02
   -2.200019    8.09448  0.2558E-10  0.1745E-04  0.3567E-07  0.2217E-02  0.2351E-02  0.2269E+03
   -2.268769    8.09469  0.2558E-10  0.1690E-04  0.3558E-07  0.1889E-02  0.2080E-02  0.6284E+03
   -2.337518    8.09495  0.2558E-10  0.1635E-04  0.3604E-07  0.1550E-02  0.1831E-02  0.5186E+03
   -2.406267    8.09527  0.2558E-10  0.1579E-04  0.3732E-07  0.1175E-02  0.1603E-02  0.6305E+02
   -2.475015    8.09567  0.2558E-10  0.1516E-04  0.4004E-07  0.8404E-03  0.1390E-02  0.3081E+03
   -2.543763    8.09620  0.2558E-10  0.1440E-04  0.4587E-07  0.5976E-03  0.1180E-02  0.1915E+02
   -2.612510    8.09691  0.2558E-10  0.1330E-04  0.6101E-07  0.3713E-03  0.9663E-03 -0.9886E+00
   -2.681256    8.09802  0.2558E-10  0.7935E-05  0.2105E-06  0.3661E-04  0.7397E-03 -0.5255E+05
   -2.750002    8.10917  0.2558E-10  0.0000E+00  0.0000E+00  0.0000E+00  0.7380E-03  0.0000E+00
