 1 - depth, m
 2 - temperature, C
 3 - salinity, kg/kg
 4 - turbulent kinetic energy, m**2/s**2
 5 - dissipation rate, m**2/s**3
 6 - kinematic heat conductance, m**2/s
 7 - modulus of horizontal velocity, m/s
 8 - Richardson number, n/d
   -0.000000   -0.00000  0.1797E-10  0.1219E-13  0.7603E-17  0.1000E-09  0.0000E+00  0.6714E+16
   -0.068746    0.10212  0.1074E-10  0.1219E-13  0.7603E-17  0.1000E-09  0.0000E+00  0.6460E+16
   -0.137492    0.20316  0.7806E-11  0.1219E-13  0.7603E-17  0.1000E-09  0.0000E+00  0.6240E+16
   -0.206239    0.30355  0.6915E-11  0.1219E-13  0.7603E-17  0.1000E-09  0.0000E+00  0.6049E+16
   -0.274987    0.40373  0.6689E-11  0.1219E-13  0.7603E-17  0.1000E-09  0.0000E+00  0.5883E+16
   -0.343735    0.50410  0.6638E-11  0.1219E-13  0.7603E-17  0.1000E-09  0.0000E+00  0.5739E+16
   -0.412483    0.60505  0.6628E-11  0.1219E-13  0.7603E-17  0.1000E-09  0.0000E+00  0.5612E+16
   -0.481232    0.70695  0.6626E-11  0.1219E-13  0.7603E-17  0.1000E-09  0.0000E+00  0.5499E+16
   -0.549982    0.81015  0.6626E-11  0.1219E-13  0.7603E-17  0.1000E-09  0.0000E+00  0.5397E+16
   -0.618732    0.91499  0.6626E-11  0.1219E-13  0.7603E-17  0.1000E-09  0.0000E+00  0.5302E+16
   -0.687482    1.02179  0.6626E-11  0.1219E-13  0.7603E-17  0.1000E-09  0.0000E+00  0.5223E+16
   -0.756233    1.13109  0.6626E-11  0.1219E-13  0.7603E-17  0.1000E-09  0.0000E+00  0.5149E+16
   -0.824984    1.24331  0.6626E-11  0.1219E-13  0.7603E-17  0.1000E-09  0.0000E+00  0.5069E+16
   -0.893735    1.35869  0.6625E-11  0.1219E-13  0.7603E-17  0.1000E-09  0.0000E+00  0.4980E+16
   -0.962486    1.47745  0.6624E-11  0.1219E-13  0.7603E-17  0.1000E-09  0.0000E+00  0.4878E+16
   -1.031238    1.59974  0.6621E-11  0.1219E-13  0.7603E-17  0.1000E-09  0.0000E+00  0.4760E+16
   -1.099990    1.72571  0.6614E-11  0.1920E-13  0.7603E-17  0.1000E-09  0.0000E+00  0.4623E+16
   -1.168742    1.85545  0.6601E-11  0.7436E-13  0.1279E-16  0.1000E-09  0.0000E+00  0.4464E+16
   -1.237494    1.98900  0.6578E-11  0.2105E-12  0.3098E-16  0.1000E-09  0.0000E+00  0.4281E+16
   -1.306246    2.12637  0.6546E-11  0.5426E-12  0.7610E-16  0.1000E-09  0.0000E+00  0.4071E+16
   -1.374999    2.26752  0.6513E-11  0.1356E-11  0.1842E-15  0.1000E-09  0.0000E+00  0.3841E+16
   -1.443751    2.41259  0.6485E-11  0.3335E-11  0.4401E-15  0.1000E-09  0.0000E+00  0.3582E+16
   -1.512503    2.56151  0.6467E-11  0.8097E-11  0.1039E-14  0.1000E-09  0.0000E+00  0.3293E+16
   -1.581255    2.71409  0.6455E-11  0.1943E-10  0.2424E-14  0.1000E-09  0.0000E+00  0.2975E+16
   -1.650007    2.87009  0.6448E-11  0.4610E-10  0.5595E-14  0.1000E-09  0.0000E+00  0.2627E+16
   -1.718759    3.02923  0.6444E-11  0.1082E-09  0.1277E-13  0.1000E-09  0.0000E+00  0.2255E+16
   -1.787511    3.19124  0.6442E-11  0.2573E-09  0.2957E-13  0.1000E-09  0.0000E+00  0.1879E+16
   -1.856262    3.35791  0.6439E-11  0.6160E-09  0.6892E-13  0.2386E-09  0.0000E+00  0.1470E+16
   -1.925013    3.52931  0.6435E-11  0.1470E-08  0.1602E-12  0.7962E-09  0.0000E+00  0.1024E+16
   -1.993764    3.70534  0.6426E-11  0.3487E-08  0.3704E-12  0.3513E-08  0.0000E+00  0.5363E+15
   -2.062515    3.88287  0.6420E-11  0.7831E-08  0.8138E-12  0.5337E-07  0.0000E+00  0.7721E+14
   -2.131265    4.01552  0.6420E-11  0.8985E-08  0.9396E-12  0.3616E-04  0.0000E+00 -0.3278E+12
   -2.200015    4.01622  0.6420E-11  0.9445E-08  0.1004E-11  0.3629E-04  0.0000E+00 -0.3350E+12
   -2.268765    4.01693  0.6420E-11  0.9790E-08  0.1074E-11  0.3543E-04  0.0000E+00 -0.3521E+12
   -2.337514    4.01766  0.6420E-11  0.1004E-07  0.1157E-11  0.3344E-04  0.0000E+00 -0.3834E+12
   -2.406262    4.01843  0.6420E-11  0.1018E-07  0.1266E-11  0.3016E-04  0.0000E+00 -0.4382E+12
   -2.475011    4.01929  0.6420E-11  0.1019E-07  0.1428E-11  0.2535E-04  0.0000E+00 -0.5405E+12
   -2.543758    4.02032  0.6420E-11  0.1002E-07  0.1712E-11  0.1874E-04  0.0000E+00 -0.7664E+12
   -2.612505    4.02173  0.6420E-11  0.9453E-08  0.2393E-11  0.1024E-04  0.0000E+00 -0.1518E+13
   -2.681251    4.02436  0.6420E-11  0.6945E-08  0.6502E-11  0.1440E-05  0.0000E+00 -0.1419E+14
   -2.749997    4.04341  0.6420E-11  0.0000E+00  0.0000E+00  0.0000E+00  0.0000E+00  0.0000E+00
