 1 - depth, m
 2 - temperature, C
 3 - salinity, kg/kg
 4 - turbulent kinetic energy, m**2/s**2
 5 - dissipation rate, m**2/s**3
 6 - kinematic heat conductance, m**2/s
 7 - modulus of horizontal velocity, m/s
 8 - Richardson number, n/d
   -0.000000   14.57098  0.4321E-10  0.1466E-04  0.6323E-06  0.3494E-04  0.2624E-01 -0.3062E-01
   -0.068746   14.59693  0.4321E-10  0.1400E-04  0.2272E-06  0.9547E-04  0.1713E-01 -0.8062E-01
   -0.137492   14.60583  0.4321E-10  0.1356E-04  0.1318E-06  0.1673E-03  0.1386E-01 -0.1361E+00
   -0.206239   14.61065  0.4321E-10  0.1329E-04  0.9103E-07  0.2516E-03  0.1200E-01 -0.1954E+00
   -0.274987   14.61370  0.4321E-10  0.1312E-04  0.6924E-07  0.3715E-03  0.1078E-01 -0.1154E+00
   -0.343735   14.61569  0.4321E-10  0.1304E-04  0.5666E-07  0.7327E-03  0.9909E-02  0.6621E+02
   -0.412484   14.61669  0.4321E-10  0.1306E-04  0.4901E-07  0.1153E-02  0.9300E-02  0.6567E+01
   -0.481233   14.61728  0.4321E-10  0.1315E-04  0.4349E-07  0.1186E-02  0.8802E-02  0.7291E+01
   -0.549983   14.61784  0.4321E-10  0.1327E-04  0.3905E-07  0.1275E-02  0.8309E-02  0.8013E+01
   -0.618733   14.61835  0.4321E-10  0.1341E-04  0.3554E-07  0.1337E-02  0.7855E-02  0.8311E+01
   -0.687483   14.61883  0.4321E-10  0.1356E-04  0.3268E-07  0.1406E-02  0.7424E-02  0.8653E+01
   -0.756234   14.61927  0.4321E-10  0.1371E-04  0.3033E-07  0.1471E-02  0.7016E-02  0.8949E+01
   -0.824985   14.61968  0.4321E-10  0.1385E-04  0.2836E-07  0.1535E-02  0.6624E-02  0.9249E+01
   -0.893736   14.62008  0.4321E-10  0.1397E-04  0.2670E-07  0.1597E-02  0.6247E-02  0.9546E+01
   -0.962488   14.62045  0.4321E-10  0.1409E-04  0.2528E-07  0.1658E-02  0.5881E-02  0.9850E+01
   -1.031240   14.62081  0.4321E-10  0.1418E-04  0.2406E-07  0.1716E-02  0.5524E-02  0.1016E+02
   -1.099992   14.62115  0.4321E-10  0.1425E-04  0.2301E-07  0.1772E-02  0.5175E-02  0.1048E+02
   -1.168744   14.62148  0.4321E-10  0.1429E-04  0.2210E-07  0.1823E-02  0.4833E-02  0.1082E+02
   -1.237496   14.62180  0.4321E-10  0.1430E-04  0.2132E-07  0.1868E-02  0.4495E-02  0.1119E+02
   -1.306248   14.62211  0.4321E-10  0.1428E-04  0.2064E-07  0.1905E-02  0.4161E-02  0.1160E+02
   -1.375001   14.62241  0.4321E-10  0.1422E-04  0.2005E-07  0.1932E-02  0.3830E-02  0.1207E+02
   -1.443753   14.62271  0.4321E-10  0.1412E-04  0.1955E-07  0.1945E-02  0.3500E-02  0.1264E+02
   -1.512505   14.62301  0.4321E-10  0.1397E-04  0.1912E-07  0.1944E-02  0.3172E-02  0.1337E+02
   -1.581257   14.62331  0.4321E-10  0.1378E-04  0.1876E-07  0.1925E-02  0.2845E-02  0.1431E+02
   -1.650010   14.62361  0.4321E-10  0.1353E-04  0.1845E-07  0.1890E-02  0.2516E-02  0.1559E+02
   -1.718762   14.62392  0.4321E-10  0.1323E-04  0.1821E-07  0.1831E-02  0.2187E-02  0.1621E+02
   -1.787513   14.62424  0.4321E-10  0.1286E-04  0.1801E-07  0.1792E-02  0.1856E-02  0.6413E+01
   -1.856265   14.62457  0.4321E-10  0.1244E-04  0.1791E-07  0.1770E-02  0.1576E-02  0.3551E+01
   -1.925016   14.62490  0.4321E-10  0.1200E-04  0.1796E-07  0.1777E-02  0.1342E-02  0.2286E+01
   -1.993767   14.62523  0.4321E-10  0.1155E-04  0.1820E-07  0.1816E-02  0.1150E-02  0.1689E+01
   -2.062518   14.62555  0.4321E-10  0.1112E-04  0.1864E-07  0.1857E-02  0.9925E-03  0.1406E+01
   -2.131269   14.62587  0.4321E-10  0.1071E-04  0.1931E-07  0.1790E-02  0.8572E-03  0.1174E+01
   -2.200019   14.62620  0.4321E-10  0.1033E-04  0.2022E-07  0.1608E-02  0.7403E-03  0.9754E+00
   -2.268768   14.62657  0.4321E-10  0.9984E-05  0.2142E-07  0.1423E-02  0.6403E-03  0.7874E+00
   -2.337517   14.62699  0.4321E-10  0.9660E-05  0.2304E-07  0.1260E-02  0.5584E-03  0.7049E+00
   -2.406266   14.62747  0.4321E-10  0.9319E-05  0.2550E-07  0.1156E-02  0.4917E-03  0.1199E+01
   -2.475014   14.62799  0.4321E-10  0.8869E-05  0.3070E-07  0.9052E-03  0.4318E-03  0.1489E+03
   -2.543762   14.62885  0.4321E-10  0.8154E-05  0.4209E-07  0.7378E-03  0.3582E-03  0.1592E+04
   -2.612509   14.62985  0.4321E-10  0.6811E-05  0.7602E-07  0.3710E-03  0.2871E-03  0.1440E+03
   -2.681256   14.63386  0.4321E-10  0.4153E-05  0.2398E-06  0.1090E-03  0.1735E-03 -0.5388E+04
   -2.750001   14.64141  0.4321E-10  0.0000E+00  0.0000E+00  0.0000E+00  0.2320E-03  0.0000E+00
