 1 - depth, m
 2 - temperature, C
 3 - salinity, kg/kg
 4 - turbulent kinetic energy, m**2/s**2
 5 - dissipation rate, m**2/s**3
 6 - kinematic heat conductance, m**2/s
 7 - modulus of horizontal velocity, m/s
 8 - Richardson number, n/d
   -0.000000   -0.00000  0.4744E-10  0.1219E-13  0.7603E-17  0.1000E-09  0.0000E+00  0.4007E+16
   -0.068746    0.06061  0.2606E-10  0.1219E-13  0.7603E-17  0.1000E-09  0.0000E+00  0.3826E+16
   -0.137492    0.11942  0.2110E-10  0.1219E-13  0.7603E-17  0.1000E-09  0.0000E+00  0.3680E+16
   -0.206239    0.17691  0.2004E-10  0.1219E-13  0.7603E-17  0.1000E-09  0.0000E+00  0.3570E+16
   -0.274987    0.23357  0.1984E-10  0.1219E-13  0.7603E-17  0.1000E-09  0.0000E+00  0.3496E+16
   -0.343735    0.28995  0.1981E-10  0.1219E-13  0.7603E-17  0.1000E-09  0.0000E+00  0.3457E+16
   -0.412483    0.34662  0.1981E-10  0.1219E-13  0.7603E-17  0.1000E-09  0.0000E+00  0.3455E+16
   -0.481232    0.40421  0.1980E-10  0.1219E-13  0.7603E-17  0.1000E-09  0.0000E+00  0.3489E+16
   -0.549982    0.46337  0.1980E-10  0.1219E-13  0.7603E-17  0.1000E-09  0.0000E+00  0.3557E+16
   -0.618732    0.52480  0.1980E-10  0.1219E-13  0.7603E-17  0.1000E-09  0.0000E+00  0.3659E+16
   -0.687482    0.58921  0.1980E-10  0.1219E-13  0.7603E-17  0.1000E-09  0.0000E+00  0.3808E+16
   -0.756233    0.65765  0.1980E-10  0.1219E-13  0.7603E-17  0.1000E-09  0.0000E+00  0.3993E+16
   -0.824984    0.73105  0.1980E-10  0.1219E-13  0.7603E-17  0.1000E-09  0.0000E+00  0.4198E+16
   -0.893735    0.81016  0.1980E-10  0.1219E-13  0.7603E-17  0.1000E-09  0.0000E+00  0.4417E+16
   -0.962486    0.89569  0.1980E-10  0.1219E-13  0.7603E-17  0.1000E-09  0.0000E+00  0.4642E+16
   -1.031238    0.98835  0.1980E-10  0.1219E-13  0.7603E-17  0.1000E-09  0.0000E+00  0.4864E+16
   -1.099990    1.08877  0.1980E-10  0.1219E-13  0.7603E-17  0.1000E-09  0.0000E+00  0.5072E+16
   -1.168742    1.19754  0.1979E-10  0.1219E-13  0.7603E-17  0.1000E-09  0.0000E+00  0.5256E+16
   -1.237494    1.31514  0.1976E-10  0.1219E-13  0.7603E-17  0.1000E-09  0.0000E+00  0.5404E+16
   -1.306246    1.44196  0.1969E-10  0.2662E-13  0.8165E-17  0.1000E-09  0.0000E+00  0.5504E+16
   -1.374999    1.57831  0.1957E-10  0.7742E-13  0.1476E-16  0.1000E-09  0.0000E+00  0.5567E+16
   -1.443751    1.72490  0.1944E-10  0.2262E-12  0.3735E-16  0.1000E-09  0.0000E+00  0.5563E+16
   -1.512503    1.88198  0.1937E-10  0.6221E-12  0.9871E-16  0.1000E-09  0.0000E+00  0.5475E+16
   -1.581255    2.04944  0.1933E-10  0.1667E-11  0.2574E-15  0.1000E-09  0.0000E+00  0.5297E+16
   -1.650007    2.22706  0.1931E-10  0.4396E-11  0.6616E-15  0.1000E-09  0.0000E+00  0.5023E+16
   -1.718759    2.41454  0.1929E-10  0.1143E-10  0.1677E-14  0.1000E-09  0.0000E+00  0.4651E+16
   -1.787511    2.61136  0.1929E-10  0.3010E-10  0.4308E-14  0.1000E-09  0.0000E+00  0.4175E+16
   -1.856262    2.81665  0.1928E-10  0.7954E-10  0.1110E-13  0.1000E-09  0.0000E+00  0.3619E+16
   -1.925013    3.03034  0.1928E-10  0.2088E-09  0.2845E-13  0.1000E-09  0.0000E+00  0.2981E+16
   -1.993764    3.25254  0.1927E-10  0.5448E-09  0.7241E-13  0.1630E-09  0.0000E+00  0.2261E+16
   -2.062515    3.48374  0.1924E-10  0.1378E-08  0.1788E-12  0.6264E-09  0.0000E+00  0.1446E+16
   -2.131265    3.72386  0.1919E-10  0.3425E-08  0.4339E-12  0.4003E-08  0.0000E+00  0.5363E+15
   -2.200015    3.97538  0.1916E-10  0.5449E-08  0.7089E-12  0.8711E-05  0.0000E+00  0.4646E+13
   -2.268765    4.00025  0.1916E-10  0.6383E-08  0.8583E-12  0.1802E-04  0.0000E+00 -0.4695E+12
   -2.337514    4.00263  0.1916E-10  0.6950E-08  0.9808E-12  0.1879E-04  0.0000E+00 -0.5270E+12
   -2.406263    4.00482  0.1916E-10  0.7389E-08  0.1128E-11  0.1813E-04  0.0000E+00 -0.6214E+12
   -2.475011    4.00706  0.1916E-10  0.7692E-08  0.1329E-11  0.1602E-04  0.0000E+00 -0.7968E+12
   -2.543758    4.00957  0.1916E-10  0.7814E-08  0.1663E-11  0.1234E-04  0.0000E+00 -0.1193E+13
   -2.612505    4.01285  0.1916E-10  0.7606E-08  0.2432E-11  0.7074E-05  0.0000E+00 -0.2576E+13
   -2.681251    4.01873  0.1916E-10  0.6159E-08  0.6476E-11  0.1383E-05  0.0000E+00 -0.2291E+14
   -2.749997    4.04968  0.1916E-10  0.0000E+00  0.0000E+00  0.0000E+00  0.0000E+00  0.0000E+00
