 1 - depth, m
 2 - temperature, C
 3 - salinity, kg/kg
 4 - turbulent kinetic energy, m**2/s**2
 5 - dissipation rate, m**2/s**3
 6 - kinematic heat conductance, m**2/s
 7 - modulus of horizontal velocity, m/s
 8 - Richardson number, n/d
   -0.000000   -0.00000  0.2001E-11  0.1219E-13  0.7603E-17  0.1000E-09  0.0000E+00  0.5397E+16
   -0.068746    0.08187  0.1082E-11  0.1219E-13  0.7603E-17  0.1000E-09  0.0000E+00  0.5194E+16
   -0.137492    0.16242  0.8287E-12  0.1219E-13  0.7603E-17  0.1000E-09  0.0000E+00  0.5033E+16
   -0.206239    0.24224  0.7699E-12  0.1219E-13  0.7603E-17  0.1000E-09  0.0000E+00  0.4911E+16
   -0.274987    0.32191  0.7577E-12  0.1219E-13  0.7603E-17  0.1000E-09  0.0000E+00  0.4825E+16
   -0.343735    0.40201  0.7554E-12  0.1219E-13  0.7603E-17  0.1000E-09  0.0000E+00  0.4771E+16
   -0.412483    0.48313  0.7550E-12  0.1219E-13  0.7603E-17  0.1000E-09  0.0000E+00  0.4748E+16
   -0.481232    0.56588  0.7550E-12  0.1219E-13  0.7603E-17  0.1000E-09  0.0000E+00  0.4750E+16
   -0.549982    0.65085  0.7549E-12  0.1219E-13  0.7603E-17  0.1000E-09  0.0000E+00  0.4775E+16
   -0.618732    0.73864  0.7549E-12  0.1219E-13  0.7603E-17  0.1000E-09  0.0000E+00  0.4818E+16
   -0.687482    0.82982  0.7549E-12  0.1219E-13  0.7603E-17  0.1000E-09  0.0000E+00  0.4889E+16
   -0.756233    0.92528  0.7549E-12  0.1219E-13  0.7603E-17  0.1000E-09  0.0000E+00  0.4975E+16
   -0.824984    1.02573  0.7549E-12  0.1219E-13  0.7603E-17  0.1000E-09  0.0000E+00  0.5059E+16
   -0.893735    1.13169  0.7549E-12  0.1219E-13  0.7603E-17  0.1000E-09  0.0000E+00  0.5136E+16
   -0.962486    1.24366  0.7549E-12  0.1219E-13  0.7603E-17  0.1000E-09  0.0000E+00  0.5198E+16
   -1.031238    1.36206  0.7548E-12  0.4169E-13  0.8219E-17  0.1000E-09  0.0000E+00  0.5237E+16
   -1.099990    1.48728  0.7544E-12  0.1232E-12  0.1845E-16  0.1000E-09  0.0000E+00  0.5247E+16
   -1.168742    1.61966  0.7534E-12  0.3212E-12  0.4499E-16  0.1000E-09  0.0000E+00  0.5219E+16
   -1.237494    1.75945  0.7513E-12  0.8034E-12  0.1087E-15  0.1000E-09  0.0000E+00  0.5146E+16
   -1.306246    1.90684  0.7478E-12  0.1972E-11  0.2592E-15  0.1000E-09  0.0000E+00  0.5022E+16
   -1.374999    2.06191  0.7434E-12  0.4780E-11  0.6109E-15  0.1000E-09  0.0000E+00  0.4851E+16
   -1.443751    2.22506  0.7396E-12  0.1145E-10  0.1424E-14  0.1000E-09  0.0000E+00  0.4617E+16
   -1.512503    2.39632  0.7373E-12  0.2713E-10  0.3283E-14  0.1000E-09  0.0000E+00  0.4312E+16
   -1.581255    2.57543  0.7360E-12  0.6359E-10  0.7494E-14  0.1000E-09  0.0000E+00  0.3933E+16
   -1.650007    2.76203  0.7352E-12  0.1475E-09  0.1693E-13  0.1000E-09  0.0000E+00  0.3481E+16
   -1.718759    2.95563  0.7347E-12  0.3387E-09  0.3787E-13  0.1000E-09  0.0000E+00  0.2961E+16
   -1.787511    3.15571  0.7344E-12  0.7889E-09  0.8592E-13  0.1821E-09  0.0000E+00  0.2402E+16
   -1.856262    3.36444  0.7341E-12  0.1851E-08  0.1964E-12  0.5680E-09  0.0000E+00  0.1761E+16
   -1.925013    3.58161  0.7333E-12  0.4327E-08  0.4480E-12  0.2209E-08  0.0000E+00  0.1032E+16
   -1.993764    3.80570  0.7319E-12  0.9976E-08  0.1009E-11  0.2048E-07  0.0000E+00  0.2509E+15
   -2.062515    4.01200  0.7315E-12  0.1115E-07  0.1134E-11  0.4446E-04  0.0000E+00 -0.3052E+12
   -2.131265    4.01275  0.7315E-12  0.1164E-07  0.1200E-11  0.4496E-04  0.0000E+00 -0.3115E+12
   -2.200015    4.01349  0.7315E-12  0.1203E-07  0.1272E-11  0.4447E-04  0.0000E+00 -0.3250E+12
   -2.268765    4.01425  0.7315E-12  0.1232E-07  0.1353E-11  0.4291E-04  0.0000E+00 -0.3476E+12
   -2.337514    4.01503  0.7315E-12  0.1251E-07  0.1455E-11  0.4011E-04  0.0000E+00 -0.3845E+12
   -2.406263    4.01587  0.7315E-12  0.1261E-07  0.1593E-11  0.3587E-04  0.0000E+00 -0.4459E+12
   -2.475011    4.01682  0.7315E-12  0.1258E-07  0.1802E-11  0.2990E-04  0.0000E+00 -0.5581E+12
   -2.543758    4.01797  0.7315E-12  0.1234E-07  0.2172E-11  0.2194E-04  0.0000E+00 -0.8032E+12
   -2.612505    4.01955  0.7315E-12  0.1165E-07  0.3064E-11  0.1193E-04  0.0000E+00 -0.1615E+13
   -2.681251    4.02252  0.7315E-12  0.8582E-08  0.8615E-11  0.1646E-05  0.0000E+00 -0.1612E+14
   -2.749997    4.04436  0.7315E-12  0.0000E+00  0.0000E+00  0.0000E+00  0.0000E+00  0.0000E+00
