 1 - depth, m
 2 - temperature, C
 3 - salinity, kg/kg
 4 - turbulent kinetic energy, m**2/s**2
 5 - dissipation rate, m**2/s**3
 6 - kinematic heat conductance, m**2/s
 7 - modulus of horizontal velocity, m/s
 8 - Richardson number, n/d
   -0.000000   -0.00000  0.2469E-10  0.1219E-13  0.7603E-17  0.1000E-09  0.0000E+00  0.8107E+16
   -0.068746    0.12367  0.1526E-10  0.1219E-13  0.7603E-17  0.1000E-09  0.0000E+00  0.7783E+16
   -0.137492    0.24650  0.1094E-10  0.1219E-13  0.7603E-17  0.1000E-09  0.0000E+00  0.7479E+16
   -0.206239    0.36872  0.9357E-11  0.1219E-13  0.7603E-17  0.1000E-09  0.0000E+00  0.7192E+16
   -0.274987    0.49054  0.8859E-11  0.1219E-13  0.7603E-17  0.1000E-09  0.0000E+00  0.6921E+16
   -0.343735    0.61217  0.8722E-11  0.1219E-13  0.7603E-17  0.1000E-09  0.0000E+00  0.6664E+16
   -0.412483    0.73383  0.8688E-11  0.1219E-13  0.7603E-17  0.1000E-09  0.0000E+00  0.6418E+16
   -0.481232    0.85571  0.8681E-11  0.1219E-13  0.7603E-17  0.1000E-09  0.0000E+00  0.6181E+16
   -0.549982    0.97802  0.8679E-11  0.1219E-13  0.7603E-17  0.1000E-09  0.0000E+00  0.5952E+16
   -0.618732    1.10094  0.8679E-11  0.1219E-13  0.7603E-17  0.1000E-09  0.0000E+00  0.5727E+16
   -0.687482    1.22463  0.8679E-11  0.1219E-13  0.7603E-17  0.1000E-09  0.0000E+00  0.5514E+16
   -0.756233    1.34948  0.8679E-11  0.1219E-13  0.7603E-17  0.1000E-09  0.0000E+00  0.5306E+16
   -0.824984    1.47573  0.8679E-11  0.1219E-13  0.7603E-17  0.1000E-09  0.0000E+00  0.5094E+16
   -0.893735    1.60351  0.8677E-11  0.1219E-13  0.7603E-17  0.1000E-09  0.0000E+00  0.4877E+16
   -0.962487    1.73290  0.8675E-11  0.2633E-13  0.7603E-17  0.1000E-09  0.0000E+00  0.4652E+16
   -1.031239    1.86395  0.8669E-11  0.8865E-13  0.1196E-16  0.1000E-09  0.0000E+00  0.4419E+16
   -1.099990    1.99670  0.8657E-11  0.2267E-12  0.2585E-16  0.1000E-09  0.0000E+00  0.4176E+16
   -1.168742    2.13115  0.8636E-11  0.5286E-12  0.5714E-16  0.1000E-09  0.0000E+00  0.3921E+16
   -1.237495    2.26727  0.8607E-11  0.1192E-11  0.1249E-15  0.1000E-09  0.0000E+00  0.3656E+16
   -1.306247    2.40502  0.8570E-11  0.2647E-11  0.2700E-15  0.1000E-09  0.0000E+00  0.3379E+16
   -1.374999    2.54430  0.8533E-11  0.5811E-11  0.5778E-15  0.1000E-09  0.0000E+00  0.3093E+16
   -1.443751    2.68514  0.8501E-11  0.1263E-10  0.1225E-14  0.1000E-09  0.0000E+00  0.2796E+16
   -1.512504    2.82744  0.8478E-11  0.2720E-10  0.2573E-14  0.1000E-09  0.0000E+00  0.2488E+16
   -1.581256    2.97103  0.8463E-11  0.5805E-10  0.5356E-14  0.1000E-09  0.0000E+00  0.2170E+16
   -1.650008    3.11572  0.8454E-11  0.1228E-09  0.1106E-13  0.1000E-09  0.0000E+00  0.1842E+16
   -1.718760    3.26129  0.8448E-11  0.2575E-09  0.2263E-13  0.1000E-09  0.0000E+00  0.1510E+16
   -1.787511    3.40759  0.8442E-11  0.5475E-09  0.4697E-13  0.2014E-09  0.0000E+00  0.1187E+16
   -1.856263    3.55667  0.8434E-11  0.1175E-08  0.9841E-13  0.5920E-09  0.0000E+00  0.8459E+15
   -1.925014    3.70844  0.8425E-11  0.2518E-08  0.2061E-12  0.2160E-08  0.0000E+00  0.4853E+15
   -1.993765    3.86201  0.8420E-11  0.5340E-08  0.4275E-12  0.1825E-07  0.0000E+00  0.1190E+15
   -2.062516    4.00284  0.8419E-11  0.6097E-08  0.4910E-12  0.3076E-04  0.0000E+00 -0.1917E+12
   -2.131266    4.00356  0.8419E-11  0.6416E-08  0.5248E-12  0.3134E-04  0.0000E+00 -0.1963E+12
   -2.200016    4.00427  0.8419E-11  0.6671E-08  0.5607E-12  0.3113E-04  0.0000E+00 -0.2057E+12
   -2.268766    4.00499  0.8419E-11  0.6864E-08  0.6013E-12  0.3012E-04  0.0000E+00 -0.2215E+12
   -2.337515    4.00573  0.8419E-11  0.7001E-08  0.6517E-12  0.2816E-04  0.0000E+00 -0.2471E+12
   -2.406263    4.00653  0.8419E-11  0.7074E-08  0.7195E-12  0.2513E-04  0.0000E+00 -0.2899E+12
   -2.475012    4.00742  0.8419E-11  0.7065E-08  0.8218E-12  0.2081E-04  0.0000E+00 -0.3692E+12
   -2.543759    4.00851  0.8419E-11  0.6925E-08  0.1004E-11  0.1505E-04  0.0000E+00 -0.5466E+12
   -2.612506    4.01003  0.8419E-11  0.6497E-08  0.1448E-11  0.7900E-05  0.0000E+00 -0.1164E+13
   -2.681252    4.01298  0.8419E-11  0.4696E-08  0.4073E-11  0.1072E-05  0.0000E+00 -0.1257E+14
   -2.749998    4.03444  0.8419E-11  0.0000E+00  0.0000E+00  0.0000E+00  0.0000E+00  0.0000E+00
