 1 - depth, m
 2 - temperature, C
 3 - salinity, kg/kg
 4 - turbulent kinetic energy, m**2/s**2
 5 - dissipation rate, m**2/s**3
 6 - kinematic heat conductance, m**2/s
 7 - modulus of horizontal velocity, m/s
 8 - Richardson number, n/d
   -0.000000   -0.00000  0.6780E-18  0.1218E-13  0.7603E-17  0.1000E-09  0.0000E+00  0.4443E+16
   -0.068747    0.06725  0.0000E+00  0.1218E-13  0.7603E-17  0.1000E-09  0.0000E+00  0.4607E+16
   -0.137494    0.13832  0.2968E-13  0.1218E-13  0.7603E-17  0.1000E-09  0.0000E+00  0.4748E+16
   -0.206242    0.21306  0.3515E-12  0.1218E-13  0.7603E-17  0.1000E-09  0.0000E+00  0.4871E+16
   -0.274990    0.29141  0.9101E-12  0.1218E-13  0.7603E-17  0.1000E-09  0.0000E+00  0.4977E+16
   -0.343739    0.37331  0.1480E-11  0.1218E-13  0.7603E-17  0.1000E-09  0.0000E+00  0.5064E+16
   -0.412488    0.45874  0.1886E-11  0.1218E-13  0.7603E-17  0.1000E-09  0.0000E+00  0.5132E+16
   -0.481238    0.54761  0.2078E-11  0.1218E-13  0.7603E-17  0.1000E-09  0.0000E+00  0.5179E+16
   -0.549989    0.63983  0.2101E-11  0.1218E-13  0.7603E-17  0.1000E-09  0.0000E+00  0.5203E+16
   -0.618739    0.73525  0.2032E-11  0.1218E-13  0.7603E-17  0.1000E-09  0.0000E+00  0.5202E+16
   -0.687491    0.83370  0.1933E-11  0.1218E-13  0.7603E-17  0.1000E-09  0.0000E+00  0.5171E+16
   -0.756242    0.93489  0.1843E-11  0.1218E-13  0.7603E-17  0.1000E-09  0.0000E+00  0.5113E+16
   -0.824994    1.03855  0.1776E-11  0.1218E-13  0.7603E-17  0.1000E-09  0.0000E+00  0.5033E+16
   -0.893746    1.14447  0.1732E-11  0.1218E-13  0.7603E-17  0.1000E-09  0.0000E+00  0.4933E+16
   -0.962498    1.25244  0.1706E-11  0.1218E-13  0.7603E-17  0.1000E-09  0.0000E+00  0.4814E+16
   -1.031251    1.36229  0.1691E-11  0.1218E-13  0.7603E-17  0.1000E-09  0.0000E+00  0.4679E+16
   -1.100004    1.47388  0.1684E-11  0.1218E-13  0.7603E-17  0.1000E-09  0.0000E+00  0.4532E+16
   -1.168757    1.58711  0.1680E-11  0.1218E-13  0.7603E-17  0.1000E-09  0.0000E+00  0.4373E+16
   -1.237510    1.70190  0.1677E-11  0.1218E-13  0.7603E-17  0.1000E-09  0.0000E+00  0.4204E+16
   -1.306263    1.81822  0.1675E-11  0.1218E-13  0.7603E-17  0.1000E-09  0.0000E+00  0.4028E+16
   -1.375016    1.93608  0.1672E-11  0.1218E-13  0.7603E-17  0.1000E-09  0.0000E+00  0.3847E+16
   -1.443769    2.05558  0.1669E-11  0.1218E-13  0.7603E-17  0.1000E-09  0.0000E+00  0.3659E+16
   -1.512522    2.17680  0.1666E-11  0.1218E-13  0.7603E-17  0.1000E-09  0.0000E+00  0.3465E+16
   -1.581275    2.29987  0.1661E-11  0.1218E-13  0.7603E-17  0.1000E-09  0.0000E+00  0.3265E+16
   -1.650028    2.42495  0.1657E-11  0.1218E-13  0.7603E-17  0.1000E-09  0.0000E+00  0.3059E+16
   -1.718780    2.55223  0.1652E-11  0.1218E-13  0.7603E-17  0.1000E-09  0.0000E+00  0.2840E+16
   -1.787533    2.68178  0.1648E-11  0.1218E-13  0.7603E-17  0.1000E-09  0.0000E+00  0.2517E+16
   -1.856285    2.80874  0.1644E-11  0.1218E-13  0.7603E-17  0.1000E-09  0.0000E+00  0.2197E+16
   -1.925037    2.93223  0.1641E-11  0.1218E-13  0.7603E-17  0.1000E-09  0.0000E+00  0.1880E+16
   -1.993789    3.05102  0.1638E-11  0.3855E-13  0.1302E-16  0.1000E-09  0.0000E+00  0.1592E+16
   -2.062541    3.16514  0.1636E-11  0.1519E-12  0.4569E-16  0.1000E-09  0.0000E+00  0.1390E+16
   -2.131292    3.27991  0.1634E-11  0.5729E-12  0.1649E-15  0.1000E-09  0.0000E+00  0.1192E+16
   -2.200043    3.39602  0.1632E-11  0.2110E-11  0.5849E-15  0.1000E-09  0.0000E+00  0.9886E+15
   -2.268793    3.51378  0.1631E-11  0.7710E-11  0.2060E-14  0.1000E-09  0.0000E+00  0.7756E+15
   -2.337543    3.63289  0.1630E-11  0.2826E-10  0.7283E-14  0.1000E-09  0.0000E+00  0.5559E+15
   -2.406292    3.75337  0.1629E-11  0.1031E-09  0.2567E-13  0.3944E-09  0.0000E+00  0.3292E+15
   -2.475041    3.87516  0.1629E-11  0.3764E-09  0.9062E-13  0.4694E-08  0.0000E+00  0.9629E+14
   -2.543790    3.99506  0.1629E-11  0.1145E-08  0.2729E-12  0.1938E-05  0.0000E+00 -0.1674E+13
   -2.612538    4.00340  0.1629E-11  0.1450E-08  0.4536E-12  0.1765E-05  0.0000E+00 -0.2815E+13
   -2.681285    4.01185  0.1629E-11  0.1201E-08  0.9268E-12  0.3954E-06  0.0000E+00 -0.1326E+14
   -2.750031    4.03474  0.1629E-11  0.0000E+00  0.0000E+00  0.0000E+00  0.0000E+00  0.0000E+00
