 1 - depth, m
 2 - temperature, C
 3 - salinity, kg/kg
 4 - turbulent kinetic energy, m**2/s**2
 5 - dissipation rate, m**2/s**3
 6 - kinematic heat conductance, m**2/s
 7 - modulus of horizontal velocity, m/s
 8 - Richardson number, n/d
   -0.000000   -0.00000  0.2857E-11  0.1219E-13  0.7603E-17  0.1000E-09  0.0000E+00  0.7888E+16
   -0.068746    0.12027  0.1711E-11  0.1219E-13  0.7603E-17  0.1000E-09  0.0000E+00  0.7575E+16
   -0.137492    0.23964  0.1225E-11  0.1219E-13  0.7603E-17  0.1000E-09  0.0000E+00  0.7284E+16
   -0.206239    0.35838  0.1054E-11  0.1219E-13  0.7603E-17  0.1000E-09  0.0000E+00  0.7013E+16
   -0.274987    0.47673  0.1003E-11  0.1219E-13  0.7603E-17  0.1000E-09  0.0000E+00  0.6761E+16
   -0.343735    0.59498  0.9893E-12  0.1219E-13  0.7603E-17  0.1000E-09  0.0000E+00  0.6524E+16
   -0.412483    0.71336  0.9862E-12  0.1219E-13  0.7603E-17  0.1000E-09  0.0000E+00  0.6300E+16
   -0.481232    0.83213  0.9855E-12  0.1219E-13  0.7603E-17  0.1000E-09  0.0000E+00  0.6086E+16
   -0.549982    0.95153  0.9854E-12  0.1219E-13  0.7603E-17  0.1000E-09  0.0000E+00  0.5880E+16
   -0.618732    1.07179  0.9853E-12  0.1219E-13  0.7603E-17  0.1000E-09  0.0000E+00  0.5680E+16
   -0.687482    1.19311  0.9853E-12  0.1219E-13  0.7603E-17  0.1000E-09  0.0000E+00  0.5492E+16
   -0.756233    1.31591  0.9853E-12  0.1219E-13  0.7603E-17  0.1000E-09  0.0000E+00  0.5309E+16
   -0.824984    1.44049  0.9853E-12  0.1219E-13  0.7603E-17  0.1000E-09  0.0000E+00  0.5121E+16
   -0.893735    1.56700  0.9851E-12  0.1219E-13  0.7603E-17  0.1000E-09  0.0000E+00  0.4926E+16
   -0.962487    1.69555  0.9847E-12  0.1925E-13  0.7603E-17  0.1000E-09  0.0000E+00  0.4722E+16
   -1.031239    1.82623  0.9838E-12  0.7445E-13  0.1130E-16  0.1000E-09  0.0000E+00  0.4507E+16
   -1.099990    1.95911  0.9821E-12  0.2012E-12  0.2517E-16  0.1000E-09  0.0000E+00  0.4279E+16
   -1.168742    2.09419  0.9793E-12  0.4874E-12  0.5763E-16  0.1000E-09  0.0000E+00  0.4038E+16
   -1.237495    2.23149  0.9753E-12  0.1138E-11  0.1303E-15  0.1000E-09  0.0000E+00  0.3782E+16
   -1.306247    2.37096  0.9707E-12  0.2614E-11  0.2911E-15  0.1000E-09  0.0000E+00  0.3511E+16
   -1.374999    2.51253  0.9663E-12  0.5932E-11  0.6435E-15  0.1000E-09  0.0000E+00  0.3227E+16
   -1.443751    2.65624  0.9628E-12  0.1332E-10  0.1408E-14  0.1000E-09  0.0000E+00  0.2929E+16
   -1.512503    2.80200  0.9604E-12  0.2962E-10  0.3052E-14  0.1000E-09  0.0000E+00  0.2614E+16
   -1.581256    2.94964  0.9588E-12  0.6524E-10  0.6552E-14  0.1000E-09  0.0000E+00  0.2285E+16
   -1.650008    3.09897  0.9578E-12  0.1423E-09  0.1394E-13  0.1000E-09  0.0000E+00  0.1943E+16
   -1.718759    3.24975  0.9571E-12  0.3076E-09  0.2938E-13  0.1000E-09  0.0000E+00  0.1590E+16
   -1.787511    3.40184  0.9565E-12  0.6742E-09  0.6281E-13  0.2572E-09  0.0000E+00  0.1243E+16
   -1.856263    3.55709  0.9557E-12  0.1490E-08  0.1355E-12  0.7899E-09  0.0000E+00  0.8727E+15
   -1.925014    3.71532  0.9546E-12  0.3286E-08  0.2917E-12  0.3094E-08  0.0000E+00  0.4795E+15
   -1.993765    3.87493  0.9539E-12  0.7105E-08  0.6172E-12  0.3366E-07  0.0000E+00  0.9304E+14
   -2.062516    4.00953  0.9538E-12  0.7991E-08  0.6981E-12  0.3791E-04  0.0000E+00 -0.2274E+12
   -2.131266    4.01014  0.9538E-12  0.8357E-08  0.7402E-12  0.3822E-04  0.0000E+00 -0.2316E+12
   -2.200016    4.01076  0.9538E-12  0.8644E-08  0.7849E-12  0.3769E-04  0.0000E+00 -0.2411E+12
   -2.268766    4.01138  0.9538E-12  0.8855E-08  0.8352E-12  0.3626E-04  0.0000E+00 -0.2573E+12
   -2.337515    4.01202  0.9538E-12  0.8997E-08  0.8977E-12  0.3379E-04  0.0000E+00 -0.2840E+12
   -2.406263    4.01272  0.9538E-12  0.9060E-08  0.9820E-12  0.3009E-04  0.0000E+00 -0.3287E+12
   -2.475011    4.01350  0.9538E-12  0.9022E-08  0.1110E-11  0.2495E-04  0.0000E+00 -0.4110E+12
   -2.543759    4.01445  0.9538E-12  0.8825E-08  0.1336E-11  0.1813E-04  0.0000E+00 -0.5921E+12
   -2.612506    4.01576  0.9538E-12  0.8280E-08  0.1888E-11  0.9633E-05  0.0000E+00 -0.1200E+13
   -2.681252    4.01826  0.9538E-12  0.5946E-08  0.5284E-11  0.1250E-05  0.0000E+00 -0.1201E+14
   -2.749998    4.03685  0.9538E-12  0.0000E+00  0.0000E+00  0.0000E+00  0.0000E+00  0.0000E+00
