 1 - depth, m
 2 - temperature, C
 3 - salinity, kg/kg
 4 - turbulent kinetic energy, m**2/s**2
 5 - dissipation rate, m**2/s**3
 6 - kinematic heat conductance, m**2/s
 7 - modulus of horizontal velocity, m/s
 8 - Richardson number, n/d
   -0.000000   -0.00000  0.2151E-10  0.3799E-06  0.4626E-08  0.2592E-05  0.5573E-02  0.9366E+04
   -0.068745    0.02915  0.2050E-10  0.2827E-06  0.1695E-08  0.3440E-05  0.3635E-02  0.2948E+04
   -0.137490    0.04201  0.2038E-10  0.1923E-06  0.8120E-09  0.2977E-05  0.2605E-02  0.1263E+04
   -0.206236    0.05093  0.2028E-10  0.1213E-06  0.4099E-09  0.2098E-05  0.1890E-02  0.9810E+03
   -0.274982    0.05907  0.2019E-10  0.6991E-07  0.2002E-09  0.1238E-05  0.1346E-02  0.1184E+04
   -0.343729    0.06722  0.2011E-10  0.3695E-07  0.8764E-10  0.5860E-06  0.9204E-03  0.1684E+04
   -0.412477    0.07554  0.2002E-10  0.2183E-07  0.3060E-10  0.1998E-06  0.5891E-03  0.2297E+04
   -0.481225    0.08405  0.1992E-10  0.2145E-07  0.7141E-11  0.9804E-05  0.3412E-03  0.4959E+04
   -0.549973    0.09239  0.1982E-10  0.2668E-07  0.2057E-11  0.7982E-04  0.1750E-03  0.2553E+05
   -0.618722    0.09961  0.1972E-10  0.3190E-07  0.1874E-11  0.1351E-03  0.8419E-04  0.5733E+05
   -0.687471    0.10490  0.1963E-10  0.3516E-07  0.2120E-11  0.1738E-03  0.3986E-04  0.8815E+07
   -0.756221    0.10817  0.1957E-10  0.3679E-07  0.2306E-11  0.1956E-03  0.1868E-04  0.1424E+08
   -0.824971    0.10986  0.1954E-10  0.3756E-07  0.2424E-11  0.2143E-03  0.8771E-05  0.5863E+07
   -0.893721    0.11061  0.1952E-10  0.3802E-07  0.2516E-11  0.2898E-03  0.4311E-05 -0.5381E+07
   -0.962471    0.11092  0.1951E-10  0.3818E-07  0.2571E-11  0.2248E-03  0.2315E-05  0.2051E+08
   -1.031222    0.11104  0.1951E-10  0.3804E-07  0.2563E-11  0.2185E-03  0.1377E-05  0.2691E+08
   -1.099973    0.11109  0.1950E-10  0.3760E-07  0.2485E-11  0.2101E-03  0.9259E-06  0.1414E+08
   -1.168724    0.11121  0.1949E-10  0.3672E-07  0.2348E-11  0.1863E-03  0.6968E-06  0.9191E+07
   -1.237475    0.11169  0.1948E-10  0.3488E-07  0.2119E-11  0.3889E-07  0.5034E-06  0.6444E+07
   -1.306226    0.11547  0.1943E-10  0.1699E-07  0.1051E-11  0.6168E-08  0.2235E-06  0.8033E+08
   -1.374977    0.12572  0.1940E-10  0.7737E-08  0.4936E-12  0.1419E-08  0.9373E-07  0.9937E+09
   -1.443728    0.14794  0.1939E-10  0.3429E-08  0.2264E-12  0.4076E-09  0.3889E-07  0.1060E+11
   -1.512479    0.18914  0.1937E-10  0.1487E-08  0.1019E-12  0.1615E-09  0.1609E-07  0.1019E+12
   -1.581230    0.25846  0.1935E-10  0.6322E-09  0.4496E-13  0.1047E-09  0.6638E-08  0.8847E+12
   -1.649981    0.36726  0.1932E-10  0.2636E-09  0.1951E-13  0.1000E-09  0.2651E-08  0.6031E+13
   -1.718732    0.52823  0.1930E-10  0.1088E-09  0.8454E-14  0.1000E-09  0.8029E-09  0.4822E+14
   -1.787482    0.74871  0.1929E-10  0.4439E-10  0.3778E-14  0.1000E-09  0.5190E-10  0.4158E+16
   -1.856233    0.92244  0.1928E-10  0.1720E-10  0.2047E-14  0.1000E-09  0.3101E-11  0.6704E+16
   -1.924983    1.05933  0.1928E-10  0.8332E-11  0.2564E-14  0.1000E-09  0.1698E-12  0.5154E+16
   -1.993733    1.16987  0.1928E-10  0.1868E-10  0.9363E-14  0.1000E-09  0.1010E-13  0.5828E+16
   -2.062483    1.30092  0.1928E-10  0.9401E-10  0.4760E-13  0.1000E-09  0.7711E-15  0.1107E+17
   -2.131232    1.56883  0.1927E-10  0.4976E-09  0.2453E-12  0.1288E-09  0.5527E-16  0.1559E+17
   -2.199981    2.00844  0.1925E-10  0.2592E-08  0.1243E-11  0.4005E-09  0.3696E-17  0.1702E+17
   -2.268729    2.65272  0.1922E-10  0.1332E-07  0.6226E-11  0.3525E-08  0.1712E-18  0.1206E+17
   -2.337477    3.51719  0.1915E-10  0.3880E-07  0.1903E-10  0.9936E-05  0.5851E-20  0.2512E+16
   -2.406225    4.11615  0.1909E-10  0.5288E-07  0.2670E-10  0.4381E-04  0.6833E-21 -0.7289E+13
   -2.474972    4.11987  0.1909E-10  0.5770E-07  0.3114E-10  0.4220E-04  0.2150E-21 -0.8110E+13
   -2.543718    4.12389  0.1909E-10  0.6034E-07  0.3753E-10  0.3570E-04  0.6098E-22 -0.1045E+14
   -2.612464    4.12890  0.1909E-10  0.6001E-07  0.5096E-10  0.2313E-04  0.1339E-22 -0.1852E+14
   -2.681209    4.13738  0.1909E-10  0.4730E-07  0.1328E-09  0.4089E-05  0.1661E-23 -0.1616E+15
   -2.749954    4.19617  0.1909E-10  0.0000E+00  0.0000E+00  0.0000E+00  0.1667E-23  0.0000E+00
