 1 - depth, m
 2 - temperature, C
 3 - salinity, kg/kg
 4 - turbulent kinetic energy, m**2/s**2
 5 - dissipation rate, m**2/s**3
 6 - kinematic heat conductance, m**2/s
 7 - modulus of horizontal velocity, m/s
 8 - Richardson number, n/d
   -0.000000   -0.00000  0.5852E-11  0.1219E-13  0.7603E-17  0.1000E-09  0.0000E+00  0.5366E+16
   -0.068746    0.08138  0.3183E-11  0.1219E-13  0.7603E-17  0.1000E-09  0.0000E+00  0.5165E+16
   -0.137492    0.16147  0.2431E-11  0.1219E-13  0.7603E-17  0.1000E-09  0.0000E+00  0.5005E+16
   -0.206239    0.24080  0.2255E-11  0.1219E-13  0.7603E-17  0.1000E-09  0.0000E+00  0.4882E+16
   -0.274987    0.31996  0.2217E-11  0.1219E-13  0.7603E-17  0.1000E-09  0.0000E+00  0.4794E+16
   -0.343735    0.39950  0.2210E-11  0.1219E-13  0.7603E-17  0.1000E-09  0.0000E+00  0.4737E+16
   -0.412483    0.47998  0.2209E-11  0.1219E-13  0.7603E-17  0.1000E-09  0.0000E+00  0.4709E+16
   -0.481232    0.56197  0.2209E-11  0.1219E-13  0.7603E-17  0.1000E-09  0.0000E+00  0.4706E+16
   -0.549982    0.64603  0.2209E-11  0.1219E-13  0.7603E-17  0.1000E-09  0.0000E+00  0.4724E+16
   -0.618732    0.73271  0.2209E-11  0.1219E-13  0.7603E-17  0.1000E-09  0.0000E+00  0.4758E+16
   -0.687482    0.82257  0.2209E-11  0.1219E-13  0.7603E-17  0.1000E-09  0.0000E+00  0.4819E+16
   -0.756233    0.91640  0.2209E-11  0.1219E-13  0.7603E-17  0.1000E-09  0.0000E+00  0.4895E+16
   -0.824984    1.01490  0.2209E-11  0.1219E-13  0.7603E-17  0.1000E-09  0.0000E+00  0.4969E+16
   -0.893735    1.11852  0.2209E-11  0.1219E-13  0.7603E-17  0.1000E-09  0.0000E+00  0.5036E+16
   -0.962486    1.22771  0.2209E-11  0.1219E-13  0.7603E-17  0.1000E-09  0.0000E+00  0.5089E+16
   -1.031238    1.34284  0.2208E-11  0.1219E-13  0.7603E-17  0.1000E-09  0.0000E+00  0.5121E+16
   -1.099990    1.46426  0.2207E-11  0.1219E-13  0.7603E-17  0.1000E-09  0.0000E+00  0.5127E+16
   -1.168742    1.59223  0.2205E-11  0.4995E-13  0.1045E-16  0.1000E-09  0.0000E+00  0.5098E+16
   -1.237494    1.72695  0.2200E-11  0.1540E-12  0.2629E-16  0.1000E-09  0.0000E+00  0.5029E+16
   -1.306246    1.86858  0.2190E-11  0.4247E-12  0.6866E-16  0.1000E-09  0.0000E+00  0.4915E+16
   -1.374999    2.01715  0.2178E-11  0.1131E-11  0.1766E-15  0.1000E-09  0.0000E+00  0.4760E+16
   -1.443751    2.17304  0.2166E-11  0.2955E-11  0.4477E-15  0.1000E-09  0.0000E+00  0.4552E+16
   -1.512503    2.33626  0.2159E-11  0.7616E-11  0.1119E-14  0.1000E-09  0.0000E+00  0.4282E+16
   -1.581255    2.50662  0.2155E-11  0.1937E-10  0.2763E-14  0.1000E-09  0.0000E+00  0.3949E+16
   -1.650007    2.68385  0.2153E-11  0.4861E-10  0.6735E-14  0.1000E-09  0.0000E+00  0.3552E+16
   -1.718759    2.86758  0.2151E-11  0.1205E-09  0.1621E-13  0.1000E-09  0.0000E+00  0.3096E+16
   -1.787511    3.05749  0.2150E-11  0.3026E-09  0.3955E-13  0.1000E-09  0.0000E+00  0.2608E+16
   -1.856262    3.25551  0.2150E-11  0.7636E-09  0.9698E-13  0.2406E-09  0.0000E+00  0.2051E+16
   -1.925013    3.46212  0.2148E-11  0.1916E-08  0.2367E-12  0.8502E-09  0.0000E+00  0.1416E+16
   -1.993764    3.67783  0.2144E-11  0.4773E-08  0.5735E-12  0.4242E-08  0.0000E+00  0.6879E+15
   -2.062515    3.89898  0.2140E-11  0.1081E-07  0.1275E-11  0.1300E-06  0.0000E+00  0.5025E+14
   -2.131265    4.02165  0.2140E-11  0.1228E-07  0.1456E-11  0.4361E-04  0.0000E+00 -0.4213E+12
   -2.200015    4.02241  0.2140E-11  0.1286E-07  0.1550E-11  0.4359E-04  0.0000E+00 -0.4296E+12
   -2.268765    4.02316  0.2140E-11  0.1330E-07  0.1650E-11  0.4244E-04  0.0000E+00 -0.4501E+12
   -2.337514    4.02393  0.2140E-11  0.1360E-07  0.1771E-11  0.4001E-04  0.0000E+00 -0.4881E+12
   -2.406262    4.02475  0.2140E-11  0.1377E-07  0.1930E-11  0.3608E-04  0.0000E+00 -0.5545E+12
   -2.475011    4.02566  0.2140E-11  0.1377E-07  0.2166E-11  0.3037E-04  0.0000E+00 -0.6784E+12
   -2.543758    4.02675  0.2140E-11  0.1353E-07  0.2579E-11  0.2256E-04  0.0000E+00 -0.9499E+12
   -2.612505    4.02822  0.2140E-11  0.1278E-07  0.3571E-11  0.1246E-04  0.0000E+00 -0.1838E+13
   -2.681251    4.03093  0.2140E-11  0.9341E-08  0.9782E-11  0.1700E-05  0.0000E+00 -0.1724E+14
   -2.749997    4.05107  0.2140E-11  0.0000E+00  0.0000E+00  0.0000E+00  0.0000E+00  0.0000E+00
