 1 - depth, m
 2 - temperature, C
 3 - salinity, kg/kg
 4 - turbulent kinetic energy, m**2/s**2
 5 - dissipation rate, m**2/s**3
 6 - kinematic heat conductance, m**2/s
 7 - modulus of horizontal velocity, m/s
 8 - Richardson number, n/d
   -0.000000   -0.00000  0.8116E-11  0.1219E-13  0.7603E-17  0.1000E-09  0.0000E+00  0.6308E+16
   -0.068746    0.09585  0.4460E-11  0.1219E-13  0.7603E-17  0.1000E-09  0.0000E+00  0.6075E+16
   -0.137492    0.19062  0.3292E-11  0.1219E-13  0.7603E-17  0.1000E-09  0.0000E+00  0.5875E+16
   -0.206239    0.28473  0.2983E-11  0.1219E-13  0.7603E-17  0.1000E-09  0.0000E+00  0.5707E+16
   -0.274987    0.37864  0.2911E-11  0.1219E-13  0.7603E-17  0.1000E-09  0.0000E+00  0.5567E+16
   -0.343735    0.47282  0.2897E-11  0.1219E-13  0.7603E-17  0.1000E-09  0.0000E+00  0.5454E+16
   -0.412483    0.56775  0.2894E-11  0.1219E-13  0.7603E-17  0.1000E-09  0.0000E+00  0.5363E+16
   -0.481232    0.66390  0.2894E-11  0.1219E-13  0.7603E-17  0.1000E-09  0.0000E+00  0.5290E+16
   -0.549982    0.76171  0.2894E-11  0.1219E-13  0.7603E-17  0.1000E-09  0.0000E+00  0.5232E+16
   -0.618732    0.86163  0.2894E-11  0.1219E-13  0.7603E-17  0.1000E-09  0.0000E+00  0.5184E+16
   -0.687482    0.96408  0.2894E-11  0.1219E-13  0.7603E-17  0.1000E-09  0.0000E+00  0.5156E+16
   -0.756233    1.06971  0.2894E-11  0.1219E-13  0.7603E-17  0.1000E-09  0.0000E+00  0.5135E+16
   -0.824984    1.17907  0.2894E-11  0.1219E-13  0.7603E-17  0.1000E-09  0.0000E+00  0.5109E+16
   -0.893735    1.29247  0.2894E-11  0.1219E-13  0.7603E-17  0.1000E-09  0.0000E+00  0.5072E+16
   -0.962487    1.41023  0.2893E-11  0.1219E-13  0.7603E-17  0.1000E-09  0.0000E+00  0.5020E+16
   -1.031238    1.53258  0.2892E-11  0.5349E-13  0.8452E-17  0.1000E-09  0.0000E+00  0.4949E+16
   -1.099990    1.65976  0.2889E-11  0.1485E-12  0.1727E-16  0.1000E-09  0.0000E+00  0.4853E+16
   -1.168742    1.79192  0.2883E-11  0.3532E-12  0.3798E-16  0.1000E-09  0.0000E+00  0.4730E+16
   -1.237495    1.92920  0.2872E-11  0.7993E-12  0.8293E-16  0.1000E-09  0.0000E+00  0.4576E+16
   -1.306247    2.07168  0.2857E-11  0.1773E-11  0.1789E-15  0.1000E-09  0.0000E+00  0.4386E+16
   -1.374999    2.21938  0.2841E-11  0.3883E-11  0.3822E-15  0.1000E-09  0.0000E+00  0.4167E+16
   -1.443751    2.37256  0.2829E-11  0.8424E-11  0.8088E-15  0.1000E-09  0.0000E+00  0.3908E+16
   -1.512503    2.53123  0.2821E-11  0.1811E-10  0.1697E-14  0.1000E-09  0.0000E+00  0.3605E+16
   -1.581256    2.69520  0.2817E-11  0.3858E-10  0.3528E-14  0.1000E-09  0.0000E+00  0.3257E+16
   -1.650008    2.86422  0.2814E-11  0.8151E-10  0.7278E-14  0.1000E-09  0.0000E+00  0.2864E+16
   -1.718759    3.03792  0.2812E-11  0.1708E-09  0.1489E-13  0.1000E-09  0.0000E+00  0.2430E+16
   -1.787511    3.21597  0.2810E-11  0.3629E-09  0.3090E-13  0.1000E-09  0.0000E+00  0.1986E+16
   -1.856263    3.40103  0.2809E-11  0.7789E-09  0.6477E-13  0.2221E-09  0.0000E+00  0.1484E+16
   -1.925014    3.59322  0.2807E-11  0.1671E-08  0.1358E-12  0.7515E-09  0.0000E+00  0.9201E+15
   -1.993765    3.79237  0.2804E-11  0.3574E-08  0.2840E-12  0.4902E-08  0.0000E+00  0.2949E+15
   -2.062516    3.99244  0.2802E-11  0.4331E-08  0.3467E-12  0.1818E-04  0.0000E+00 -0.1730E+12
   -2.131266    3.99403  0.2802E-11  0.4693E-08  0.3849E-12  0.2048E-04  0.0000E+00 -0.1876E+12
   -2.200016    3.99545  0.2802E-11  0.5006E-08  0.4269E-12  0.2173E-04  0.0000E+00 -0.2063E+12
   -2.268765    3.99680  0.2802E-11  0.5270E-08  0.4750E-12  0.2200E-04  0.0000E+00 -0.2322E+12
   -2.337515    3.99812  0.2802E-11  0.5491E-08  0.5341E-12  0.2125E-04  0.0000E+00 -0.2705E+12
   -2.406263    3.99950  0.2802E-11  0.5661E-08  0.6119E-12  0.1942E-04  0.0000E+00 -0.3317E+12
   -2.475011    4.00102  0.2802E-11  0.5761E-08  0.7258E-12  0.1637E-04  0.0000E+00 -0.4430E+12
   -2.543759    4.00283  0.2802E-11  0.5751E-08  0.9220E-12  0.1201E-04  0.0000E+00 -0.6926E+12
   -2.612506    4.00532  0.2802E-11  0.5497E-08  0.1386E-11  0.6405E-05  0.0000E+00 -0.1582E+13
   -2.681252    4.01005  0.2802E-11  0.4237E-08  0.3870E-11  0.1052E-05  0.0000E+00 -0.1658E+14
   -2.749998    4.03809  0.2802E-11  0.0000E+00  0.0000E+00  0.0000E+00  0.0000E+00  0.0000E+00
