 1 - depth, m
 2 - temperature, C
 3 - salinity, kg/kg
 4 - turbulent kinetic energy, m**2/s**2
 5 - dissipation rate, m**2/s**3
 6 - kinematic heat conductance, m**2/s
 7 - modulus of horizontal velocity, m/s
 8 - Richardson number, n/d
   -0.000000    7.63328  0.7204E-10  0.6407E-04  0.6977E-03  0.5786E-04  0.6975E-01 -0.6044E-02
   -0.068746    7.67720  0.7205E-10  0.4038E-04  0.4723E-03  0.9738E-04  0.3546E-01 -0.9114E-02
   -0.137492    7.68811  0.7205E-10  0.3459E-04  0.3377E-03  0.1388E-03  0.2862E-01 -0.1575E-01
   -0.206239    7.69522  0.7205E-10  0.3064E-04  0.1694E-03  0.1886E-03  0.2438E-01 -0.2202E-01
   -0.274987    7.70045  0.7205E-10  0.2762E-04  0.4904E-04  0.2435E-03  0.2131E-01 -0.2891E-01
   -0.343735    7.70448  0.7205E-10  0.2581E-04  0.8631E-05  0.3015E-03  0.1894E-01 -0.3639E-01
   -0.412484    7.70767  0.7205E-10  0.2480E-04  0.1383E-05  0.3612E-03  0.1706E-01 -0.4427E-01
   -0.481233    7.71026  0.7205E-10  0.2410E-04  0.3553E-06  0.4219E-03  0.1553E-01 -0.5229E-01
   -0.549983    7.71238  0.7205E-10  0.2350E-04  0.1737E-06  0.4834E-03  0.1426E-01 -0.6057E-01
   -0.618733    7.71417  0.7205E-10  0.2298E-04  0.1221E-06  0.5444E-03  0.1318E-01 -0.6881E-01
   -0.687483    7.71571  0.7205E-10  0.2252E-04  0.9898E-07  0.6043E-03  0.1224E-01 -0.7684E-01
   -0.756234    7.71707  0.7205E-10  0.2210E-04  0.8523E-07  0.6629E-03  0.1141E-01 -0.8451E-01
   -0.824985    7.71827  0.7205E-10  0.2172E-04  0.7563E-07  0.7206E-03  0.1066E-01 -0.9007E-01
   -0.893736    7.71935  0.7205E-10  0.2137E-04  0.6830E-07  0.7843E-03  0.9982E-02 -0.7885E-01
   -0.962488    7.72031  0.7205E-10  0.2105E-04  0.6240E-07  0.8927E-03  0.9361E-02  0.1606E+00
   -1.031240    7.72115  0.7205E-10  0.2075E-04  0.5757E-07  0.1185E-02  0.8787E-02  0.7313E+02
   -1.099992    7.72182  0.7205E-10  0.2047E-04  0.5356E-07  0.1501E-02  0.8257E-02  0.5990E+02
   -1.168744    7.72235  0.7205E-10  0.2020E-04  0.5015E-07  0.1711E-02  0.7758E-02  0.1066E+03
   -1.237496    7.72279  0.7205E-10  0.1994E-04  0.4721E-07  0.1909E-02  0.7276E-02  0.3495E+03
   -1.306248    7.72317  0.7205E-10  0.1969E-04  0.4465E-07  0.2019E-02  0.6811E-02  0.1382E+04
   -1.375001    7.72352  0.7205E-10  0.1942E-04  0.4239E-07  0.2072E-02  0.6356E-02  0.1630E+03
   -1.443753    7.72384  0.7205E-10  0.1915E-04  0.4037E-07  0.2104E-02  0.5910E-02  0.1973E+05
   -1.512505    7.72414  0.7205E-10  0.1887E-04  0.3856E-07  0.2144E-02  0.5470E-02  0.4525E+05
   -1.581258    7.72443  0.7205E-10  0.1856E-04  0.3692E-07  0.2172E-02  0.5037E-02  0.4996E+05
   -1.650010    7.72470  0.7205E-10  0.1824E-04  0.3542E-07  0.2191E-02  0.4606E-02  0.6905E+03
   -1.718762    7.72496  0.7205E-10  0.1788E-04  0.3402E-07  0.2171E-02  0.4179E-02  0.1776E+03
   -1.787514    7.72522  0.7205E-10  0.1747E-04  0.3265E-07  0.2203E-02  0.3750E-02  0.5454E+02
   -1.856265    7.72547  0.7205E-10  0.1702E-04  0.3134E-07  0.2207E-02  0.3367E-02  0.1336E+02
   -1.925016    7.72571  0.7205E-10  0.1654E-04  0.3012E-07  0.2209E-02  0.3022E-02  0.8337E+01
   -1.993768    7.72594  0.7205E-10  0.1603E-04  0.2901E-07  0.2190E-02  0.2711E-02  0.8403E+01
   -2.062518    7.72618  0.7205E-10  0.1552E-04  0.2812E-07  0.2144E-02  0.2429E-02  0.6817E+03
   -2.131269    7.72642  0.7205E-10  0.1503E-04  0.2747E-07  0.2084E-02  0.2165E-02  0.1322E+02
   -2.200019    7.72665  0.7205E-10  0.1455E-04  0.2710E-07  0.2004E-02  0.1915E-02  0.2506E+02
   -2.268768    7.72690  0.7205E-10  0.1409E-04  0.2707E-07  0.1938E-02  0.1680E-02  0.1487E+02
   -2.337518    7.72715  0.7205E-10  0.1363E-04  0.2748E-07  0.1767E-02  0.1466E-02  0.1154E+02
   -2.406266    7.72742  0.7205E-10  0.1317E-04  0.2849E-07  0.1423E-02  0.1273E-02  0.8543E+02
   -2.475015    7.72776  0.7205E-10  0.1268E-04  0.3054E-07  0.1064E-02  0.1099E-02  0.7010E+02
   -2.543762    7.72820  0.7205E-10  0.1208E-04  0.3496E-07  0.6084E-03  0.9329E-03  0.2102E+03
   -2.612509    7.72890  0.7205E-10  0.1117E-04  0.4666E-07  0.3513E-03  0.7572E-03 -0.1444E+01
   -2.681256    7.73010  0.7205E-10  0.6688E-05  0.1631E-06  0.3376E-04  0.5703E-03 -0.4675E+05
   -2.750002    7.74265  0.7205E-10  0.0000E+00  0.0000E+00  0.0000E+00  0.5691E-03  0.0000E+00
