 1 - depth, m
 2 - temperature, C
 3 - salinity, kg/kg
 4 - turbulent kinetic energy, m**2/s**2
 5 - dissipation rate, m**2/s**3
 6 - kinematic heat conductance, m**2/s
 7 - modulus of horizontal velocity, m/s
 8 - Richardson number, n/d
   -0.000000   12.00004  0.9723E-12  0.1105E-04  0.3987E-06  0.2875E-04  0.5003E-01  0.1344E-01
   -0.068746   11.99036  0.9723E-12  0.9194E-05  0.1590E-06  0.4584E-04  0.4266E-01  0.4948E-01
   -0.137492   11.98043  0.9724E-12  0.7495E-05  0.9288E-07  0.4650E-04  0.3898E-01  0.1156E+00
   -0.206239   11.96574  0.9724E-12  0.5861E-05  0.6377E-07  0.3627E-04  0.3617E-01  0.2157E+00
   -0.274987   11.93233  0.9725E-12  0.4053E-05  0.4660E-07  0.2266E-04  0.3329E-01  0.3444E+00
   -0.343735   11.46997  0.9744E-12  0.2474E-05  0.3069E-07  0.1145E-04  0.2758E-01  0.6343E+00
   -0.412484   10.50048  0.9773E-12  0.1392E-05  0.1921E-07  0.4329E-05  0.2027E-01  0.9862E+00
   -0.481233    9.47607  0.9798E-12  0.1081E-05  0.1077E-07  0.1192E-05  0.1291E-01  0.1485E+01
   -0.549983    8.64842  0.9817E-12  0.1209E-05  0.4273E-08  0.6583E-05  0.6665E-02  0.1282E+02
   -0.618733    8.10804  0.9830E-12  0.1575E-05  0.1425E-08  0.4636E-04  0.2466E-02  0.3396E+02
   -0.687484    7.92058  0.9834E-12  0.1859E-05  0.1314E-08  0.1109E-03  0.7296E-03  0.3955E+02
   -0.756234    7.88699  0.9834E-12  0.2016E-05  0.1259E-08  0.1973E-03  0.2458E-03  0.3402E+02
   -0.824986    7.88168  0.9834E-12  0.2108E-05  0.1298E-08  0.3022E-03  0.1268E-03  0.2849E+02
   -0.893737    7.88146  0.9834E-12  0.2194E-05  0.1352E-08  0.5067E-03  0.1103E-03  0.4843E+03
   -0.962489    7.88142  0.9834E-12  0.2265E-05  0.1403E-08  0.9569E-03  0.9869E-04  0.2523E+03
   -1.031240    7.88143  0.9834E-12  0.2324E-05  0.1449E-08  0.1139E-02  0.9094E-04  0.2303E+03
   -1.099992    7.88148  0.9834E-12  0.2380E-05  0.1498E-08  0.1211E-02  0.8518E-04  0.3925E+03
   -1.168745    7.88155  0.9834E-12  0.2437E-05  0.1552E-08  0.1229E-02  0.8032E-04  0.1079E+02
   -1.237497    7.88165  0.9834E-12  0.2496E-05  0.1612E-08  0.1229E-02  0.7578E-04  0.1300E+02
   -1.306249    7.88178  0.9834E-12  0.2557E-05  0.1678E-08  0.1231E-02  0.7127E-04  0.1538E+02
   -1.375002    7.88194  0.9834E-12  0.2618E-05  0.1749E-08  0.1232E-02  0.6680E-04  0.1792E+02
   -1.443754    7.88213  0.9834E-12  0.2679E-05  0.1824E-08  0.1232E-02  0.6237E-04  0.2049E+02
   -1.512506    7.88235  0.9834E-12  0.2738E-05  0.1903E-08  0.1230E-02  0.5797E-04  0.2331E+02
   -1.581258    7.88260  0.9834E-12  0.2794E-05  0.1985E-08  0.1224E-02  0.5359E-04  0.2620E+02
   -1.650011    7.88288  0.9834E-12  0.2847E-05  0.2069E-08  0.1216E-02  0.4922E-04  0.2959E+02
   -1.718763    7.88320  0.9834E-12  0.2894E-05  0.2156E-08  0.1204E-02  0.4485E-04  0.3420E+02
   -1.787515    7.88356  0.9834E-12  0.2936E-05  0.2248E-08  0.1189E-02  0.4047E-04  0.4022E+02
   -1.856266    7.88393  0.9834E-12  0.2976E-05  0.2351E-08  0.1169E-02  0.3646E-04  0.5259E+02
   -1.925018    7.88433  0.9834E-12  0.3013E-05  0.2468E-08  0.1142E-02  0.3280E-04  0.7002E+02
   -1.993769    7.88474  0.9834E-12  0.3047E-05  0.2604E-08  0.1108E-02  0.2950E-04  0.9514E+02
   -2.062519    7.88518  0.9834E-12  0.3076E-05  0.2756E-08  0.1068E-02  0.2646E-04  0.1318E+03
   -2.131270    7.88567  0.9834E-12  0.3100E-05  0.2928E-08  0.1022E-02  0.2357E-04  0.1747E+03
   -2.200020    7.88620  0.9834E-12  0.3116E-05  0.3127E-08  0.9691E-03  0.2079E-04  0.2400E+03
   -2.268770    7.88679  0.9834E-12  0.3125E-05  0.3363E-08  0.9086E-03  0.1810E-04  0.3373E+03
   -2.337519    7.88745  0.9834E-12  0.3124E-05  0.3666E-08  0.8371E-03  0.1556E-04  0.5164E+03
   -2.406268    7.88818  0.9834E-12  0.3110E-05  0.4074E-08  0.7523E-03  0.1318E-04  0.8723E+03
   -2.475016    7.88903  0.9834E-12  0.3079E-05  0.4673E-08  0.6519E-03  0.1094E-04  0.1687E+04
   -2.543764    7.89004  0.9834E-12  0.3020E-05  0.5661E-08  0.5253E-03  0.8835E-05  0.4101E+04
   -2.612511    7.89133  0.9834E-12  0.2908E-05  0.7677E-08  0.4056E-03  0.6809E-05  0.1276E+05
   -2.681257    7.89307  0.9834E-12  0.2014E-05  0.2867E-07  0.2333E-04  0.5035E-05 -0.8879E+06
   -2.750003    7.92457  0.9834E-12  0.0000E+00  0.0000E+00  0.0000E+00  0.5034E-05  0.0000E+00
