 1 - depth, m
 2 - temperature, C
 3 - salinity, kg/kg
 4 - turbulent kinetic energy, m**2/s**2
 5 - dissipation rate, m**2/s**3
 6 - kinematic heat conductance, m**2/s
 7 - modulus of horizontal velocity, m/s
 8 - Richardson number, n/d
   -0.000000   -0.00000  0.2310E-10  0.1219E-13  0.7603E-17  0.1000E-09  0.0000E+00  0.5497E+16
   -0.068746    0.08339  0.1260E-10  0.1219E-13  0.7603E-17  0.1000E-09  0.0000E+00  0.5291E+16
   -0.137492    0.16550  0.9584E-11  0.1219E-13  0.7603E-17  0.1000E-09  0.0000E+00  0.5125E+16
   -0.206239    0.24687  0.8866E-11  0.1219E-13  0.7603E-17  0.1000E-09  0.0000E+00  0.4998E+16
   -0.274987    0.32806  0.8714E-11  0.1219E-13  0.7603E-17  0.1000E-09  0.0000E+00  0.4904E+16
   -0.343735    0.40965  0.8685E-11  0.1219E-13  0.7603E-17  0.1000E-09  0.0000E+00  0.4842E+16
   -0.412483    0.49219  0.8680E-11  0.1219E-13  0.7603E-17  0.1000E-09  0.0000E+00  0.4808E+16
   -0.481232    0.57623  0.8679E-11  0.1219E-13  0.7603E-17  0.1000E-09  0.0000E+00  0.4797E+16
   -0.549982    0.66234  0.8679E-11  0.1219E-13  0.7603E-17  0.1000E-09  0.0000E+00  0.4807E+16
   -0.618732    0.75105  0.8679E-11  0.1219E-13  0.7603E-17  0.1000E-09  0.0000E+00  0.4832E+16
   -0.687482    0.84289  0.8679E-11  0.1219E-13  0.7603E-17  0.1000E-09  0.0000E+00  0.4883E+16
   -0.756233    0.93867  0.8679E-11  0.1219E-13  0.7603E-17  0.1000E-09  0.0000E+00  0.4947E+16
   -0.824984    1.03903  0.8679E-11  0.1219E-13  0.7603E-17  0.1000E-09  0.0000E+00  0.5009E+16
   -0.893735    1.14444  0.8679E-11  0.1219E-13  0.7603E-17  0.1000E-09  0.0000E+00  0.5062E+16
   -0.962486    1.25529  0.8679E-11  0.1219E-13  0.7603E-17  0.1000E-09  0.0000E+00  0.5099E+16
   -1.031238    1.37194  0.8677E-11  0.3544E-13  0.7612E-17  0.1000E-09  0.0000E+00  0.5116E+16
   -1.099990    1.49469  0.8673E-11  0.1064E-12  0.1385E-16  0.1000E-09  0.0000E+00  0.5104E+16
   -1.168742    1.62378  0.8662E-11  0.2638E-12  0.3056E-16  0.1000E-09  0.0000E+00  0.5058E+16
   -1.237494    1.75939  0.8639E-11  0.6108E-12  0.6765E-16  0.1000E-09  0.0000E+00  0.4972E+16
   -1.306246    1.90161  0.8600E-11  0.1375E-11  0.1475E-15  0.1000E-09  0.0000E+00  0.4842E+16
   -1.374999    2.05049  0.8551E-11  0.3041E-11  0.3170E-15  0.1000E-09  0.0000E+00  0.4675E+16
   -1.443751    2.20641  0.8507E-11  0.6632E-11  0.6725E-15  0.1000E-09  0.0000E+00  0.4457E+16
   -1.512503    2.36943  0.8480E-11  0.1428E-10  0.1409E-14  0.1000E-09  0.0000E+00  0.4180E+16
   -1.581255    2.53941  0.8464E-11  0.3036E-10  0.2916E-14  0.1000E-09  0.0000E+00  0.3846E+16
   -1.650007    2.71625  0.8455E-11  0.6378E-10  0.5968E-14  0.1000E-09  0.0000E+00  0.3455E+16
   -1.718759    2.89996  0.8450E-11  0.1325E-09  0.1208E-13  0.1000E-09  0.0000E+00  0.3013E+16
   -1.787511    3.09104  0.8446E-11  0.2785E-09  0.2475E-13  0.1000E-09  0.0000E+00  0.2561E+16
   -1.856262    3.29447  0.8443E-11  0.5898E-09  0.5113E-13  0.1318E-09  0.0000E+00  0.2007E+16
   -1.925013    3.51219  0.8438E-11  0.1248E-08  0.1056E-12  0.4078E-09  0.0000E+00  0.1309E+16
   -1.993764    3.74416  0.8425E-11  0.2632E-08  0.2179E-12  0.2411E-08  0.0000E+00  0.4583E+15
   -2.062515    3.97936  0.8415E-11  0.3623E-08  0.3030E-12  0.7550E-05  0.0000E+00  0.1800E+13
   -2.131265    3.99216  0.8415E-11  0.4179E-08  0.3614E-12  0.1526E-04  0.0000E+00 -0.1951E+12
   -2.200015    3.99419  0.8415E-11  0.4589E-08  0.4161E-12  0.1771E-04  0.0000E+00 -0.2274E+12
   -2.268765    3.99595  0.8415E-11  0.4945E-08  0.4778E-12  0.1882E-04  0.0000E+00 -0.2646E+12
   -2.337514    3.99762  0.8415E-11  0.5257E-08  0.5525E-12  0.1874E-04  0.0000E+00 -0.3161E+12
   -2.406263    3.99932  0.8415E-11  0.5516E-08  0.6493E-12  0.1750E-04  0.0000E+00 -0.3960E+12
   -2.475011    4.00116  0.8415E-11  0.5704E-08  0.7881E-12  0.1502E-04  0.0000E+00 -0.5387E+12
   -2.543758    4.00334  0.8415E-11  0.5780E-08  0.1022E-11  0.1121E-04  0.0000E+00 -0.8561E+12
   -2.612505    4.00631  0.8415E-11  0.5614E-08  0.1562E-11  0.6133E-05  0.0000E+00 -0.1976E+13
   -2.681251    4.01187  0.8415E-11  0.4503E-08  0.4324E-11  0.1119E-05  0.0000E+00 -0.1936E+14
   -2.749997    4.04224  0.8415E-11  0.0000E+00  0.0000E+00  0.0000E+00  0.0000E+00  0.0000E+00
