 1 - depth, m
 2 - temperature, C
 3 - salinity, kg/kg
 4 - turbulent kinetic energy, m**2/s**2
 5 - dissipation rate, m**2/s**3
 6 - kinematic heat conductance, m**2/s
 7 - modulus of horizontal velocity, m/s
 8 - Richardson number, n/d
   -0.000000   -0.00000  0.4463E-11  0.1219E-13  0.7603E-17  0.1000E-09  0.0000E+00  0.5515E+16
   -0.068746    0.08367  0.2436E-11  0.1219E-13  0.7603E-17  0.1000E-09  0.0000E+00  0.5309E+16
   -0.137492    0.16607  0.1854E-11  0.1219E-13  0.7603E-17  0.1000E-09  0.0000E+00  0.5144E+16
   -0.206239    0.24774  0.1715E-11  0.1219E-13  0.7603E-17  0.1000E-09  0.0000E+00  0.5017E+16
   -0.274987    0.32928  0.1685E-11  0.1219E-13  0.7603E-17  0.1000E-09  0.0000E+00  0.4924E+16
   -0.343735    0.41123  0.1680E-11  0.1219E-13  0.7603E-17  0.1000E-09  0.0000E+00  0.4863E+16
   -0.412483    0.49417  0.1679E-11  0.1219E-13  0.7603E-17  0.1000E-09  0.0000E+00  0.4830E+16
   -0.481232    0.57867  0.1679E-11  0.1219E-13  0.7603E-17  0.1000E-09  0.0000E+00  0.4821E+16
   -0.549982    0.66527  0.1679E-11  0.1219E-13  0.7603E-17  0.1000E-09  0.0000E+00  0.4832E+16
   -0.618732    0.75453  0.1679E-11  0.1219E-13  0.7603E-17  0.1000E-09  0.0000E+00  0.4858E+16
   -0.687482    0.84698  0.1679E-11  0.1219E-13  0.7603E-17  0.1000E-09  0.0000E+00  0.4910E+16
   -0.756233    0.94342  0.1679E-11  0.1219E-13  0.7603E-17  0.1000E-09  0.0000E+00  0.4975E+16
   -0.824984    1.04452  0.1679E-11  0.1219E-13  0.7603E-17  0.1000E-09  0.0000E+00  0.5036E+16
   -0.893735    1.15073  0.1679E-11  0.1219E-13  0.7603E-17  0.1000E-09  0.0000E+00  0.5090E+16
   -0.962486    1.26248  0.1678E-11  0.1219E-13  0.7603E-17  0.1000E-09  0.0000E+00  0.5128E+16
   -1.031238    1.38014  0.1678E-11  0.4177E-13  0.7643E-17  0.1000E-09  0.0000E+00  0.5145E+16
   -1.099990    1.50404  0.1677E-11  0.1202E-12  0.1489E-16  0.1000E-09  0.0000E+00  0.5135E+16
   -1.168742    1.63448  0.1676E-11  0.2939E-12  0.3313E-16  0.1000E-09  0.0000E+00  0.5091E+16
   -1.237494    1.77170  0.1671E-11  0.6793E-12  0.7365E-16  0.1000E-09  0.0000E+00  0.5008E+16
   -1.306246    1.91587  0.1664E-11  0.1535E-11  0.1618E-15  0.1000E-09  0.0000E+00  0.4880E+16
   -1.374999    2.06712  0.1655E-11  0.3426E-11  0.3519E-15  0.1000E-09  0.0000E+00  0.4713E+16
   -1.443751    2.22591  0.1647E-11  0.7566E-11  0.7579E-15  0.1000E-09  0.0000E+00  0.4492E+16
   -1.512503    2.39234  0.1641E-11  0.1655E-10  0.1618E-14  0.1000E-09  0.0000E+00  0.4206E+16
   -1.581255    2.56628  0.1638E-11  0.3590E-10  0.3423E-14  0.1000E-09  0.0000E+00  0.3854E+16
   -1.650007    2.74747  0.1636E-11  0.7716E-10  0.7182E-14  0.1000E-09  0.0000E+00  0.3434E+16
   -1.718759    2.93550  0.1635E-11  0.1644E-09  0.1494E-13  0.1000E-09  0.0000E+00  0.2949E+16
   -1.787511    3.12993  0.1635E-11  0.3556E-09  0.3155E-13  0.1000E-09  0.0000E+00  0.2434E+16
   -1.856262    3.33337  0.1634E-11  0.7762E-09  0.6725E-13  0.1865E-09  0.0000E+00  0.1836E+16
   -1.925013    3.54595  0.1632E-11  0.1694E-08  0.1434E-12  0.6353E-09  0.0000E+00  0.1150E+16
   -1.993764    3.76739  0.1629E-11  0.3684E-08  0.3049E-12  0.4132E-08  0.0000E+00  0.3761E+15
   -2.062515    3.99159  0.1627E-11  0.4511E-08  0.3762E-12  0.1728E-04  0.0000E+00 -0.1822E+12
   -2.131265    3.99348  0.1627E-11  0.4918E-08  0.4209E-12  0.2009E-04  0.0000E+00 -0.2019E+12
   -2.200015    3.99510  0.1627E-11  0.5273E-08  0.4704E-12  0.2167E-04  0.0000E+00 -0.2248E+12
   -2.268765    3.99660  0.1627E-11  0.5577E-08  0.5269E-12  0.2217E-04  0.0000E+00 -0.2550E+12
   -2.337514    3.99808  0.1627E-11  0.5836E-08  0.5962E-12  0.2158E-04  0.0000E+00 -0.2988E+12
   -2.406263    3.99960  0.1627E-11  0.6041E-08  0.6868E-12  0.1983E-04  0.0000E+00 -0.3682E+12
   -2.475011    4.00127  0.1627E-11  0.6173E-08  0.8185E-12  0.1681E-04  0.0000E+00 -0.4930E+12
   -2.543758    4.00324  0.1627E-11  0.6187E-08  0.1043E-11  0.1242E-04  0.0000E+00 -0.7710E+12
   -2.612505    4.00593  0.1627E-11  0.5945E-08  0.1569E-11  0.6705E-05  0.0000E+00 -0.1751E+13
   -2.681251    4.01098  0.1627E-11  0.4643E-08  0.4365E-11  0.1135E-05  0.0000E+00 -0.1784E+14
   -2.749997    4.04004  0.1627E-11  0.0000E+00  0.0000E+00  0.0000E+00  0.0000E+00  0.0000E+00
