 1 - depth, m
 2 - temperature, C
 3 - salinity, kg/kg
 4 - turbulent kinetic energy, m**2/s**2
 5 - dissipation rate, m**2/s**3
 6 - kinematic heat conductance, m**2/s
 7 - modulus of horizontal velocity, m/s
 8 - Richardson number, n/d
   -0.000000    4.95093  0.3298E-10  0.8216E-04  0.2140E-04  0.9134E-04  0.8668E-01 -0.2979E-01
   -0.068746    5.03782  0.3298E-10  0.4876E-04  0.5714E-05  0.1123E-03  0.4139E-01 -0.8281E-02
   -0.137492    5.05593  0.3298E-10  0.3985E-04  0.2423E-05  0.1469E-03  0.3345E-01 -0.6719E-02
   -0.206239    5.06840  0.3298E-10  0.3512E-04  0.1050E-05  0.1910E-03  0.2861E-01 -0.9285E-02
   -0.274987    5.07795  0.3298E-10  0.3249E-04  0.5603E-06  0.2410E-03  0.2501E-01 -0.1216E-01
   -0.343735    5.08538  0.3298E-10  0.3083E-04  0.3657E-06  0.2955E-03  0.2224E-01 -0.1544E-01
   -0.412484    5.09125  0.3298E-10  0.2966E-04  0.2687E-06  0.3522E-03  0.2006E-01 -0.1896E-01
   -0.481233    5.09605  0.3298E-10  0.2874E-04  0.2115E-06  0.4095E-03  0.1828E-01 -0.2247E-01
   -0.549983    5.10005  0.3298E-10  0.2799E-04  0.1738E-06  0.4670E-03  0.1679E-01 -0.2603E-01
   -0.618733    5.10347  0.3298E-10  0.2734E-04  0.1472E-06  0.5241E-03  0.1551E-01 -0.2958E-01
   -0.687483    5.10644  0.3298E-10  0.2676E-04  0.1273E-06  0.5802E-03  0.1439E-01 -0.3307E-01
   -0.756234    5.10904  0.3298E-10  0.2623E-04  0.1121E-06  0.6347E-03  0.1339E-01 -0.3643E-01
   -0.824985    5.11136  0.3298E-10  0.2575E-04  0.1000E-06  0.6872E-03  0.1250E-01 -0.3964E-01
   -0.893736    5.11344  0.3298E-10  0.2531E-04  0.9032E-07  0.7373E-03  0.1169E-01 -0.4264E-01
   -0.962488    5.11533  0.3298E-10  0.2489E-04  0.8234E-07  0.7846E-03  0.1094E-01 -0.4538E-01
   -1.031240    5.11706  0.3298E-10  0.2450E-04  0.7570E-07  0.8289E-03  0.1025E-01 -0.4783E-01
   -1.099992    5.11865  0.3298E-10  0.2412E-04  0.7011E-07  0.8695E-03  0.9598E-02 -0.4995E-01
   -1.168744    5.12012  0.3298E-10  0.2376E-04  0.6536E-07  0.9063E-03  0.8988E-02 -0.5166E-01
   -1.237496    5.12149  0.3298E-10  0.2340E-04  0.6128E-07  0.9388E-03  0.8409E-02 -0.5279E-01
   -1.306248    5.12277  0.3298E-10  0.2305E-04  0.5774E-07  0.9672E-03  0.7856E-02 -0.5260E-01
   -1.375001    5.12398  0.3298E-10  0.2270E-04  0.5464E-07  0.9922E-03  0.7323E-02 -0.4876E-01
   -1.443753    5.12512  0.3298E-10  0.2235E-04  0.5189E-07  0.1017E-02  0.6807E-02 -0.2150E-01
   -1.512505    5.12620  0.3298E-10  0.2197E-04  0.4944E-07  0.1046E-02  0.6302E-02  0.5140E+02
   -1.581257    5.12722  0.3298E-10  0.2158E-04  0.4721E-07  0.1063E-02  0.5805E-02  0.8742E+03
   -1.650009    5.12820  0.3298E-10  0.2116E-04  0.4514E-07  0.1073E-02  0.5312E-02  0.1973E+03
   -1.718761    5.12914  0.3298E-10  0.2069E-04  0.4318E-07  0.1074E-02  0.4818E-02  0.8970E+01
   -1.787513    5.13006  0.3298E-10  0.2016E-04  0.4125E-07  0.1133E-02  0.4319E-02  0.1233E+02
   -1.856265    5.13092  0.3298E-10  0.1961E-04  0.3947E-07  0.1171E-02  0.3892E-02  0.1530E+02
   -1.925016    5.13174  0.3298E-10  0.1905E-04  0.3785E-07  0.1201E-02  0.3518E-02  0.4198E+01
   -1.993767    5.13253  0.3298E-10  0.1847E-04  0.3641E-07  0.1204E-02  0.3189E-02  0.2018E+01
   -2.062518    5.13331  0.3298E-10  0.1791E-04  0.3524E-07  0.1167E-02  0.2892E-02  0.6526E+01
   -2.131268    5.13408  0.3298E-10  0.1737E-04  0.3435E-07  0.1122E-02  0.2611E-02  0.5401E+02
   -2.200019    5.13486  0.3298E-10  0.1684E-04  0.3378E-07  0.1038E-02  0.2342E-02  0.5469E+01
   -2.268768    5.13567  0.3298E-10  0.1632E-04  0.3360E-07  0.9690E-03  0.2083E-02  0.5515E+02
   -2.337517    5.13650  0.3298E-10  0.1578E-04  0.3393E-07  0.8993E-03  0.1837E-02 -0.1352E+00
   -2.406266    5.13737  0.3298E-10  0.1521E-04  0.3505E-07  0.8136E-03  0.1604E-02 -0.2465E+00
   -2.475014    5.13832  0.3298E-10  0.1458E-04  0.3754E-07  0.7011E-03  0.1382E-02 -0.3053E+00
   -2.543762    5.13939  0.3298E-10  0.1383E-04  0.4293E-07  0.5514E-03  0.1166E-02 -0.3756E+00
   -2.612509    5.14073  0.3298E-10  0.1274E-04  0.5702E-07  0.3510E-03  0.9478E-03 -0.5295E+00
   -2.681255    5.14277  0.3298E-10  0.7568E-05  0.1957E-06  0.3546E-04  0.7192E-03 -0.4305E+05
   -2.750001    5.16249  0.3298E-10  0.0000E+00  0.0000E+00  0.0000E+00  0.7175E-03  0.0000E+00
