 1 - depth, m
 2 - temperature, C
 3 - salinity, kg/kg
 4 - turbulent kinetic energy, m**2/s**2
 5 - dissipation rate, m**2/s**3
 6 - kinematic heat conductance, m**2/s
 7 - modulus of horizontal velocity, m/s
 8 - Richardson number, n/d
   -0.000000   -0.00000  0.3360E-11  0.1219E-13  0.7603E-17  0.1000E-09  0.0000E+00  0.4872E+16
   -0.068746    0.07381  0.1776E-11  0.1219E-13  0.7603E-17  0.1000E-09  0.0000E+00  0.4672E+16
   -0.137492    0.14601  0.1396E-11  0.1219E-13  0.7603E-17  0.1000E-09  0.0000E+00  0.4515E+16
   -0.206239    0.21719  0.1311E-11  0.1219E-13  0.7603E-17  0.1000E-09  0.0000E+00  0.4399E+16
   -0.274986    0.28796  0.1294E-11  0.1219E-13  0.7603E-17  0.1000E-09  0.0000E+00  0.4323E+16
   -0.343735    0.35894  0.1291E-11  0.1219E-13  0.7603E-17  0.1000E-09  0.0000E+00  0.4284E+16
   -0.412483    0.43076  0.1291E-11  0.1219E-13  0.7603E-17  0.1000E-09  0.0000E+00  0.4279E+16
   -0.481232    0.50406  0.1290E-11  0.1219E-13  0.7603E-17  0.1000E-09  0.0000E+00  0.4305E+16
   -0.549982    0.57950  0.1290E-11  0.1219E-13  0.7603E-17  0.1000E-09  0.0000E+00  0.4359E+16
   -0.618732    0.65772  0.1290E-11  0.1219E-13  0.7603E-17  0.1000E-09  0.0000E+00  0.4435E+16
   -0.687482    0.73936  0.1290E-11  0.1219E-13  0.7603E-17  0.1000E-09  0.0000E+00  0.4547E+16
   -0.756233    0.82535  0.1290E-11  0.1219E-13  0.7603E-17  0.1000E-09  0.0000E+00  0.4680E+16
   -0.824984    0.91652  0.1290E-11  0.1219E-13  0.7603E-17  0.1000E-09  0.0000E+00  0.4818E+16
   -0.893735    1.01345  0.1290E-11  0.1219E-13  0.7603E-17  0.1000E-09  0.0000E+00  0.4955E+16
   -0.962486    1.11672  0.1290E-11  0.1219E-13  0.7603E-17  0.1000E-09  0.0000E+00  0.5082E+16
   -1.031238    1.22686  0.1290E-11  0.1219E-13  0.7603E-17  0.1000E-09  0.0000E+00  0.5192E+16
   -1.099990    1.34436  0.1290E-11  0.1219E-13  0.7603E-17  0.1000E-09  0.0000E+00  0.5276E+16
   -1.168742    1.46961  0.1289E-11  0.4215E-13  0.9473E-17  0.1000E-09  0.0000E+00  0.5325E+16
   -1.237494    1.60299  0.1286E-11  0.1323E-12  0.2399E-16  0.1000E-09  0.0000E+00  0.5330E+16
   -1.306246    1.74474  0.1280E-11  0.3746E-12  0.6428E-16  0.1000E-09  0.0000E+00  0.5281E+16
   -1.374998    1.89503  0.1273E-11  0.1025E-11  0.1698E-15  0.1000E-09  0.0000E+00  0.5187E+16
   -1.443751    2.05442  0.1266E-11  0.2752E-11  0.4419E-15  0.1000E-09  0.0000E+00  0.5026E+16
   -1.512503    2.22300  0.1261E-11  0.7283E-11  0.1134E-14  0.1000E-09  0.0000E+00  0.4786E+16
   -1.581255    2.40063  0.1259E-11  0.1900E-10  0.2869E-14  0.1000E-09  0.0000E+00  0.4462E+16
   -1.650007    2.58699  0.1258E-11  0.4892E-10  0.7165E-14  0.1000E-09  0.0000E+00  0.4055E+16
   -1.718759    2.78171  0.1257E-11  0.1243E-09  0.1767E-13  0.1000E-09  0.0000E+00  0.3565E+16
   -1.787510    2.98438  0.1256E-11  0.3198E-09  0.4413E-13  0.1000E-09  0.0000E+00  0.3023E+16
   -1.856262    3.19673  0.1256E-11  0.8262E-09  0.1107E-12  0.2355E-09  0.0000E+00  0.2392E+16
   -1.925013    3.41948  0.1255E-11  0.2122E-08  0.2762E-12  0.8457E-09  0.0000E+00  0.1662E+16
   -1.993764    3.65370  0.1253E-11  0.5404E-08  0.6839E-12  0.4319E-08  0.0000E+00  0.8062E+15
   -2.062515    3.89675  0.1251E-11  0.1235E-07  0.1534E-11  0.1580E-06  0.0000E+00  0.5265E+14
   -2.131265    4.02406  0.1251E-11  0.1397E-07  0.1745E-11  0.4717E-04  0.0000E+00 -0.4683E+12
   -2.200015    4.02485  0.1251E-11  0.1461E-07  0.1854E-11  0.4702E-04  0.0000E+00 -0.4768E+12
   -2.268764    4.02563  0.1251E-11  0.1508E-07  0.1971E-11  0.4570E-04  0.0000E+00 -0.4989E+12
   -2.337514    4.02643  0.1251E-11  0.1542E-07  0.2111E-11  0.4303E-04  0.0000E+00 -0.5399E+12
   -2.406262    4.02729  0.1251E-11  0.1559E-07  0.2297E-11  0.3877E-04  0.0000E+00 -0.6120E+12
   -2.475010    4.02823  0.1251E-11  0.1559E-07  0.2572E-11  0.3263E-04  0.0000E+00 -0.7465E+12
   -2.543758    4.02935  0.1251E-11  0.1530E-07  0.3057E-11  0.2426E-04  0.0000E+00 -0.1041E+13
   -2.612505    4.03087  0.1251E-11  0.1445E-07  0.4218E-11  0.1344E-04  0.0000E+00 -0.2000E+13
   -2.681251    4.03365  0.1251E-11  0.1050E-07  0.1164E-10  0.1794E-05  0.0000E+00 -0.1912E+14
   -2.749997    4.05476  0.1251E-11  0.0000E+00  0.0000E+00  0.0000E+00  0.0000E+00  0.0000E+00
