 1 - depth, m
 2 - temperature, C
 3 - salinity, kg/kg
 4 - turbulent kinetic energy, m**2/s**2
 5 - dissipation rate, m**2/s**3
 6 - kinematic heat conductance, m**2/s
 7 - modulus of horizontal velocity, m/s
 8 - Richardson number, n/d
   -0.000000   -0.00000  0.5562E-10  0.1219E-13  0.7603E-17  0.1000E-09  0.0000E+00  0.6941E+16
   -0.068746    0.10562  0.3241E-10  0.1219E-13  0.7603E-17  0.1000E-09  0.0000E+00  0.6671E+16
   -0.137492    0.21011  0.2360E-10  0.1219E-13  0.7603E-17  0.1000E-09  0.0000E+00  0.6431E+16
   -0.206239    0.31383  0.2078E-10  0.1219E-13  0.7603E-17  0.1000E-09  0.0000E+00  0.6216E+16
   -0.274986    0.41713  0.2003E-10  0.1219E-13  0.7603E-17  0.1000E-09  0.0000E+00  0.6025E+16
   -0.343735    0.52038  0.1985E-10  0.1219E-13  0.7603E-17  0.1000E-09  0.0000E+00  0.5852E+16
   -0.412483    0.62388  0.1981E-10  0.1219E-13  0.7603E-17  0.1000E-09  0.0000E+00  0.5696E+16
   -0.481232    0.72797  0.1981E-10  0.1219E-13  0.7603E-17  0.1000E-09  0.0000E+00  0.5553E+16
   -0.549982    0.83293  0.1980E-10  0.1219E-13  0.7603E-17  0.1000E-09  0.0000E+00  0.5419E+16
   -0.618732    0.93904  0.1980E-10  0.1219E-13  0.7603E-17  0.1000E-09  0.0000E+00  0.5292E+16
   -0.687482    1.04655  0.1980E-10  0.1219E-13  0.7603E-17  0.1000E-09  0.0000E+00  0.5180E+16
   -0.756233    1.15592  0.1980E-10  0.1219E-13  0.7603E-17  0.1000E-09  0.0000E+00  0.5073E+16
   -0.824984    1.26752  0.1980E-10  0.1219E-13  0.7603E-17  0.1000E-09  0.0000E+00  0.4961E+16
   -0.893735    1.38149  0.1980E-10  0.1219E-13  0.7603E-17  0.1000E-09  0.0000E+00  0.4842E+16
   -0.962486    1.49799  0.1980E-10  0.1219E-13  0.7603E-17  0.1000E-09  0.0000E+00  0.4713E+16
   -1.031238    1.61712  0.1979E-10  0.1219E-13  0.7603E-17  0.1000E-09  0.0000E+00  0.4572E+16
   -1.099990    1.73895  0.1978E-10  0.1219E-13  0.7603E-17  0.1000E-09  0.0000E+00  0.4416E+16
   -1.168742    1.86350  0.1974E-10  0.1219E-13  0.7603E-17  0.1000E-09  0.0000E+00  0.4244E+16
   -1.237494    1.99078  0.1968E-10  0.3906E-13  0.7735E-17  0.1000E-09  0.0000E+00  0.4054E+16
   -1.306246    2.12075  0.1960E-10  0.1150E-12  0.1697E-16  0.1000E-09  0.0000E+00  0.3846E+16
   -1.374998    2.25331  0.1950E-10  0.2982E-12  0.4098E-16  0.1000E-09  0.0000E+00  0.3623E+16
   -1.443751    2.38853  0.1942E-10  0.7407E-12  0.9823E-16  0.1000E-09  0.0000E+00  0.3381E+16
   -1.512503    2.52631  0.1936E-10  0.1804E-11  0.2323E-15  0.1000E-09  0.0000E+00  0.3119E+16
   -1.581255    2.66643  0.1932E-10  0.4337E-11  0.5429E-15  0.1000E-09  0.0000E+00  0.2838E+16
   -1.650007    2.80864  0.1930E-10  0.1030E-10  0.1254E-14  0.1000E-09  0.0000E+00  0.2539E+16
   -1.718759    2.95266  0.1929E-10  0.2419E-10  0.2866E-14  0.1000E-09  0.0000E+00  0.2225E+16
   -1.787511    3.09823  0.1928E-10  0.5761E-10  0.6638E-14  0.1000E-09  0.0000E+00  0.1919E+16
   -1.856262    3.24682  0.1927E-10  0.1380E-09  0.1548E-13  0.1000E-09  0.0000E+00  0.1594E+16
   -1.925013    3.39850  0.1926E-10  0.3297E-09  0.3600E-13  0.1467E-09  0.0000E+00  0.1249E+16
   -1.993764    3.55339  0.1923E-10  0.7843E-09  0.8343E-13  0.4834E-09  0.0000E+00  0.8781E+15
   -2.062515    3.71073  0.1919E-10  0.1815E-08  0.1882E-12  0.1979E-08  0.0000E+00  0.4837E+15
   -2.131265    3.86635  0.1918E-10  0.4105E-08  0.4156E-12  0.1912E-07  0.0000E+00  0.1102E+15
   -2.200015    4.00465  0.1917E-10  0.5080E-08  0.5184E-12  0.2081E-04  0.0000E+00 -0.3113E+12
   -2.268765    4.00570  0.1917E-10  0.5470E-08  0.5728E-12  0.2119E-04  0.0000E+00 -0.3239E+12
   -2.337514    4.00674  0.1917E-10  0.5768E-08  0.6342E-12  0.2062E-04  0.0000E+00 -0.3524E+12
   -2.406262    4.00782  0.1917E-10  0.5977E-08  0.7113E-12  0.1902E-04  0.0000E+00 -0.4059E+12
   -2.475010    4.00899  0.1917E-10  0.6086E-08  0.8215E-12  0.1623E-04  0.0000E+00 -0.5098E+12
   -2.543758    4.01038  0.1917E-10  0.6057E-08  0.1011E-11  0.1209E-04  0.0000E+00 -0.7479E+12
   -2.612505    4.01229  0.1917E-10  0.5753E-08  0.1461E-11  0.6567E-05  0.0000E+00 -0.1590E+13
   -2.681251    4.01594  0.1917E-10  0.4340E-08  0.3932E-11  0.1051E-05  0.0000E+00 -0.1573E+14
   -2.749997    4.04004  0.1917E-10  0.0000E+00  0.0000E+00  0.0000E+00  0.0000E+00  0.0000E+00
