 1 - depth, m
 2 - temperature, C
 3 - salinity, kg/kg
 4 - turbulent kinetic energy, m**2/s**2
 5 - dissipation rate, m**2/s**3
 6 - kinematic heat conductance, m**2/s
 7 - modulus of horizontal velocity, m/s
 8 - Richardson number, n/d
   -0.000000    2.14251  0.1466E-10  0.4376E-04  0.7630E-05  0.5122E-04  0.6836E-01  0.3822E-02
   -0.068746    2.19860  0.1466E-10  0.2973E-04  0.1735E-05  0.8443E-04  0.4247E-01  0.1354E-01
   -0.137492    2.21609  0.1466E-10  0.2551E-04  0.7117E-06  0.1198E-03  0.3617E-01  0.1467E-01
   -0.206239    2.22788  0.1466E-10  0.2302E-04  0.3876E-06  0.1529E-03  0.3222E-01  0.2042E-01
   -0.274987    2.23691  0.1466E-10  0.2125E-04  0.2517E-06  0.1824E-03  0.2934E-01  0.2685E-01
   -0.343735    2.24428  0.1466E-10  0.1981E-04  0.1814E-06  0.2074E-03  0.2709E-01  0.3383E-01
   -0.412484    2.25060  0.1466E-10  0.1857E-04  0.1393E-06  0.2279E-03  0.2526E-01  0.4135E-01
   -0.481233    2.25619  0.1466E-10  0.1743E-04  0.1114E-06  0.2439E-03  0.2371E-01  0.4941E-01
   -0.549983    2.26128  0.1466E-10  0.1638E-04  0.9154E-07  0.2557E-03  0.2236E-01  0.5807E-01
   -0.618733    2.26600  0.1466E-10  0.1540E-04  0.7666E-07  0.2638E-03  0.2117E-01  0.6741E-01
   -0.687483    2.27046  0.1466E-10  0.1447E-04  0.6510E-07  0.2684E-03  0.2010E-01  0.7758E-01
   -0.756234    2.27474  0.1466E-10  0.1359E-04  0.5586E-07  0.2700E-03  0.1912E-01  0.8874E-01
   -0.824985    2.27888  0.1466E-10  0.1275E-04  0.4832E-07  0.2691E-03  0.1822E-01  0.1011E+00
   -0.893737    2.28293  0.1466E-10  0.1196E-04  0.4208E-07  0.2662E-03  0.1739E-01  0.1152E+00
   -0.962488    2.28692  0.1466E-10  0.1121E-04  0.3685E-07  0.2617E-03  0.1662E-01  0.1314E+00
   -1.031240    2.29088  0.1466E-10  0.1051E-04  0.3246E-07  0.2563E-03  0.1589E-01  0.1507E+00
   -1.099992    2.29482  0.1466E-10  0.9870E-05  0.2879E-07  0.2509E-03  0.1522E-01  0.1743E+00
   -1.168744    2.29875  0.1466E-10  0.9298E-05  0.2577E-07  0.2463E-03  0.1458E-01  0.2045E+00
   -1.237496    2.30266  0.1466E-10  0.8811E-05  0.2338E-07  0.2435E-03  0.1400E-01  0.2446E+00
   -1.306249    2.30653  0.1466E-10  0.8427E-05  0.2164E-07  0.2437E-03  0.1345E-01  0.3013E+00
   -1.375001    2.31034  0.1466E-10  0.8170E-05  0.2057E-07  0.2475E-03  0.1296E-01  0.3837E+00
   -1.443753    2.31405  0.1466E-10  0.8070E-05  0.2027E-07  0.2559E-03  0.1251E-01  0.6614E+00
   -1.512506    2.31769  0.1466E-10  0.8213E-05  0.2118E-07  0.2173E-03  0.1210E-01  0.5086E+00
   -1.581258    2.32648  0.1466E-10  0.7944E-05  0.2047E-07  0.2443E-03  0.9681E-02  0.1012E+01
   -1.650010    2.33182  0.1466E-10  0.7798E-05  0.2047E-07  0.2333E-03  0.8463E-02  0.1072E+01
   -1.718762    2.33845  0.1466E-10  0.7508E-05  0.2018E-07  0.1507E-03  0.6369E-02  0.7720E+00
   -1.787514    2.35619  0.1466E-10  0.6190E-05  0.1541E-07  0.2151E-03  0.1225E-02  0.4405E+01
   -1.856265    2.36017  0.1466E-10  0.5344E-05  0.1265E-07  0.1819E-03  0.9813E-03  0.2948E+01
   -1.925017    2.36449  0.1466E-10  0.4565E-05  0.1031E-07  0.1498E-03  0.7848E-03  0.4978E+01
   -1.993768    2.36940  0.1466E-10  0.3838E-05  0.8304E-08  0.1166E-03  0.6294E-03  0.9471E+01
   -2.062519    2.37540  0.1466E-10  0.3177E-05  0.6627E-08  0.8270E-04  0.5052E-03  0.1608E+02
   -2.131269    2.38363  0.1466E-10  0.2572E-05  0.5219E-08  0.5041E-04  0.3941E-03  0.3273E+02
   -2.200019    2.39704  0.1466E-10  0.1964E-05  0.3926E-08  0.1891E-04  0.2942E-03  0.7934E+02
   -2.268769    2.44042  0.1466E-10  0.1164E-05  0.2335E-08  0.1704E-05  0.1784E-03  0.2031E+04
   -2.337518    2.97918  0.1466E-10  0.3348E-06  0.5841E-09  0.3299E-06  0.3473E-04  0.4095E+06
   -2.406267    4.12524  0.1467E-10  0.2819E-06  0.3801E-09  0.5035E-04  0.1403E-05 -0.3195E+07
   -2.475015    4.13739  0.1467E-10  0.2594E-06  0.3178E-09  0.5508E-04  0.6312E-06 -0.3649E+08
   -2.543763    4.14804  0.1467E-10  0.2399E-06  0.2917E-09  0.5237E-04  0.2691E-06 -0.6651E+09
   -2.612510    4.15889  0.1467E-10  0.2165E-06  0.3109E-09  0.3793E-04  0.1005E-06 -0.2978E+11
   -2.681256    4.17319  0.1467E-10  0.1410E-06  0.6471E-09  0.6012E-05  0.2761E-07 -0.5599E+14
   -2.750002    4.25108  0.1467E-10  0.0000E+00  0.0000E+00  0.0000E+00  0.2756E-07  0.0000E+00
