 1 - depth, m
 2 - temperature, C
 3 - salinity, kg/kg
 4 - turbulent kinetic energy, m**2/s**2
 5 - dissipation rate, m**2/s**3
 6 - kinematic heat conductance, m**2/s
 7 - modulus of horizontal velocity, m/s
 8 - Richardson number, n/d
   -0.000000   -0.00000  0.8284E-11  0.1219E-13  0.7603E-17  0.1000E-09  0.0000E+00  0.8056E+16
   -0.068746    0.12287  0.5107E-11  0.1219E-13  0.7603E-17  0.1000E-09  0.0000E+00  0.7736E+16
   -0.137492    0.24491  0.3654E-11  0.1219E-13  0.7603E-17  0.1000E-09  0.0000E+00  0.7436E+16
   -0.206239    0.36634  0.3120E-11  0.1219E-13  0.7603E-17  0.1000E-09  0.0000E+00  0.7153E+16
   -0.274987    0.48740  0.2954E-11  0.1219E-13  0.7603E-17  0.1000E-09  0.0000E+00  0.6887E+16
   -0.343735    0.60830  0.2908E-11  0.1219E-13  0.7603E-17  0.1000E-09  0.0000E+00  0.6635E+16
   -0.412483    0.72927  0.2897E-11  0.1219E-13  0.7603E-17  0.1000E-09  0.0000E+00  0.6394E+16
   -0.481232    0.85050  0.2894E-11  0.1219E-13  0.7603E-17  0.1000E-09  0.0000E+00  0.6163E+16
   -0.549982    0.97222  0.2894E-11  0.1219E-13  0.7603E-17  0.1000E-09  0.0000E+00  0.5939E+16
   -0.618732    1.09461  0.2894E-11  0.1219E-13  0.7603E-17  0.1000E-09  0.0000E+00  0.5719E+16
   -0.687482    1.21784  0.2894E-11  0.1219E-13  0.7603E-17  0.1000E-09  0.0000E+00  0.5512E+16
   -0.756233    1.34230  0.2894E-11  0.1219E-13  0.7603E-17  0.1000E-09  0.0000E+00  0.5309E+16
   -0.824984    1.46826  0.2894E-11  0.1219E-13  0.7603E-17  0.1000E-09  0.0000E+00  0.5103E+16
   -0.893735    1.59584  0.2893E-11  0.1219E-13  0.7603E-17  0.1000E-09  0.0000E+00  0.4890E+16
   -0.962487    1.72512  0.2892E-11  0.2347E-13  0.7603E-17  0.1000E-09  0.0000E+00  0.4670E+16
   -1.031239    1.85619  0.2889E-11  0.8291E-13  0.1180E-16  0.1000E-09  0.0000E+00  0.4441E+16
   -1.099990    1.98908  0.2884E-11  0.2171E-12  0.2594E-16  0.1000E-09  0.0000E+00  0.4201E+16
   -1.168742    2.12380  0.2876E-11  0.5156E-12  0.5838E-16  0.1000E-09  0.0000E+00  0.3950E+16
   -1.237495    2.26034  0.2864E-11  0.1184E-11  0.1299E-15  0.1000E-09  0.0000E+00  0.3686E+16
   -1.306247    2.39866  0.2851E-11  0.2674E-11  0.2856E-15  0.1000E-09  0.0000E+00  0.3411E+16
   -1.374999    2.53869  0.2838E-11  0.5972E-11  0.6213E-15  0.1000E-09  0.0000E+00  0.3125E+16
   -1.443751    2.68044  0.2828E-11  0.1320E-10  0.1339E-14  0.1000E-09  0.0000E+00  0.2827E+16
   -1.512504    2.82384  0.2821E-11  0.2891E-10  0.2858E-14  0.1000E-09  0.0000E+00  0.2517E+16
   -1.581256    2.96872  0.2816E-11  0.6270E-10  0.6046E-14  0.1000E-09  0.0000E+00  0.2196E+16
   -1.650008    3.11491  0.2813E-11  0.1348E-09  0.1268E-13  0.1000E-09  0.0000E+00  0.1864E+16
   -1.718760    3.26218  0.2811E-11  0.2870E-09  0.2635E-13  0.1000E-09  0.0000E+00  0.1525E+16
   -1.787511    3.41040  0.2810E-11  0.6200E-09  0.5553E-13  0.2367E-09  0.0000E+00  0.1194E+16
   -1.856263    3.56147  0.2807E-11  0.1351E-08  0.1181E-12  0.7130E-09  0.0000E+00  0.8430E+15
   -1.925014    3.71527  0.2805E-11  0.2939E-08  0.2509E-12  0.2705E-08  0.0000E+00  0.4719E+15
   -1.993765    3.87049  0.2803E-11  0.6296E-08  0.5260E-12  0.2620E-07  0.0000E+00  0.1019E+15
   -2.062516    4.00667  0.2803E-11  0.7118E-08  0.5981E-12  0.3493E-04  0.0000E+00 -0.2100E+12
   -2.131266    4.00731  0.2803E-11  0.7460E-08  0.6359E-12  0.3533E-04  0.0000E+00 -0.2142E+12
   -2.200016    4.00796  0.2803E-11  0.7729E-08  0.6760E-12  0.3492E-04  0.0000E+00 -0.2234E+12
   -2.268766    4.00860  0.2803E-11  0.7930E-08  0.7211E-12  0.3366E-04  0.0000E+00 -0.2391E+12
   -2.337515    4.00928  0.2803E-11  0.8067E-08  0.7771E-12  0.3139E-04  0.0000E+00 -0.2648E+12
   -2.406263    4.01000  0.2803E-11  0.8132E-08  0.8527E-12  0.2797E-04  0.0000E+00 -0.3079E+12
   -2.475012    4.01082  0.2803E-11  0.8104E-08  0.9667E-12  0.2317E-04  0.0000E+00 -0.3873E+12
   -2.543759    4.01181  0.2803E-11  0.7930E-08  0.1170E-11  0.1680E-04  0.0000E+00 -0.5631E+12
   -2.612506    4.01318  0.2803E-11  0.7436E-08  0.1664E-11  0.8873E-05  0.0000E+00 -0.1161E+13
   -2.681252    4.01581  0.2803E-11  0.5333E-08  0.4667E-11  0.1159E-05  0.0000E+00 -0.1200E+14
   -2.749998    4.03533  0.2803E-11  0.0000E+00  0.0000E+00  0.0000E+00  0.0000E+00  0.0000E+00
