 1 - depth, m
 2 - temperature, C
 3 - salinity, kg/kg
 4 - turbulent kinetic energy, m**2/s**2
 5 - dissipation rate, m**2/s**3
 6 - kinematic heat conductance, m**2/s
 7 - modulus of horizontal velocity, m/s
 8 - Richardson number, n/d
   -0.000000   -0.00000  0.1179E-09  0.1219E-13  0.7603E-17  0.1000E-09  0.0000E+00  0.7414E+16
   -0.068746    0.11293  0.8448E-10  0.1219E-13  0.7603E-17  0.1000E-09  0.0000E+00  0.7158E+16
   -0.137492    0.22539  0.6334E-10  0.1219E-13  0.7603E-17  0.1000E-09  0.0000E+00  0.6902E+16
   -0.206239    0.33733  0.5206E-10  0.1219E-13  0.7603E-17  0.1000E-09  0.0000E+00  0.6649E+16
   -0.274987    0.44873  0.4684E-10  0.1219E-13  0.7603E-17  0.1000E-09  0.0000E+00  0.6399E+16
   -0.343735    0.55957  0.4472E-10  0.1219E-13  0.7603E-17  0.1000E-09  0.0000E+00  0.6152E+16
   -0.412484    0.66982  0.4396E-10  0.1219E-13  0.7603E-17  0.1000E-09  0.0000E+00  0.5908E+16
   -0.481233    0.77948  0.4371E-10  0.1219E-13  0.7603E-17  0.1000E-09  0.0000E+00  0.5668E+16
   -0.549982    0.88854  0.4364E-10  0.1219E-13  0.7603E-17  0.1000E-09  0.0000E+00  0.5431E+16
   -0.618732    0.99697  0.4362E-10  0.1219E-13  0.7603E-17  0.1000E-09  0.0000E+00  0.5198E+16
   -0.687483    1.10477  0.4361E-10  0.1219E-13  0.7603E-17  0.1000E-09  0.0000E+00  0.4974E+16
   -0.756233    1.21204  0.4361E-10  0.1219E-13  0.7603E-17  0.1000E-09  0.0000E+00  0.4756E+16
   -0.824984    1.31883  0.4361E-10  0.1219E-13  0.7603E-17  0.1000E-09  0.0000E+00  0.4541E+16
   -0.893736    1.42512  0.4360E-10  0.1219E-13  0.7603E-17  0.1000E-09  0.0000E+00  0.4327E+16
   -0.962487    1.53089  0.4358E-10  0.1219E-13  0.7603E-17  0.1000E-09  0.0000E+00  0.4116E+16
   -1.031239    1.63610  0.4356E-10  0.1219E-13  0.7603E-17  0.1000E-09  0.0000E+00  0.3908E+16
   -1.099991    1.74072  0.4351E-10  0.1219E-13  0.7603E-17  0.1000E-09  0.0000E+00  0.3702E+16
   -1.168743    1.84472  0.4344E-10  0.1219E-13  0.7603E-17  0.1000E-09  0.0000E+00  0.3498E+16
   -1.237495    1.94805  0.4335E-10  0.1219E-13  0.7603E-17  0.1000E-09  0.0000E+00  0.3297E+16
   -1.306247    2.05066  0.4323E-10  0.1219E-13  0.7603E-17  0.1000E-09  0.0000E+00  0.3099E+16
   -1.375000    2.15250  0.4311E-10  0.1219E-13  0.7603E-17  0.1000E-09  0.0000E+00  0.2906E+16
   -1.443752    2.25359  0.4299E-10  0.1219E-13  0.7603E-17  0.1000E-09  0.0000E+00  0.2716E+16
   -1.512504    2.35388  0.4288E-10  0.1219E-13  0.7603E-17  0.1000E-09  0.0000E+00  0.2529E+16
   -1.581256    2.45332  0.4280E-10  0.1219E-13  0.7603E-17  0.1000E-09  0.0000E+00  0.2345E+16
   -1.650008    2.55185  0.4274E-10  0.1219E-13  0.7603E-17  0.1000E-09  0.0000E+00  0.2164E+16
   -1.718760    2.64938  0.4270E-10  0.1219E-13  0.7603E-17  0.1000E-09  0.0000E+00  0.1989E+16
   -1.787512    2.74590  0.4267E-10  0.1219E-13  0.7603E-17  0.1000E-09  0.0000E+00  0.1836E+16
   -1.856263    2.84238  0.4263E-10  0.1219E-13  0.7603E-17  0.1000E-09  0.0000E+00  0.1685E+16
   -1.925015    2.93887  0.4259E-10  0.1219E-13  0.7603E-17  0.1000E-09  0.0000E+00  0.1536E+16
   -1.993766    3.03544  0.4253E-10  0.1219E-13  0.7603E-17  0.1000E-09  0.0000E+00  0.1383E+16
   -2.062517    3.13188  0.4246E-10  0.1219E-13  0.7603E-17  0.1000E-09  0.0000E+00  0.1227E+16
   -2.131267    3.22779  0.4239E-10  0.1219E-13  0.7603E-17  0.1000E-09  0.0000E+00  0.1073E+16
   -2.200017    3.32310  0.4232E-10  0.1219E-13  0.7603E-17  0.1000E-09  0.0000E+00  0.9225E+15
   -2.268766    3.41780  0.4227E-10  0.1219E-13  0.7603E-17  0.1000E-09  0.0000E+00  0.7780E+15
   -2.337516    3.51230  0.4224E-10  0.2086E-13  0.1820E-16  0.1000E-09  0.0000E+00  0.6368E+15
   -2.406264    3.60693  0.4222E-10  0.1546E-12  0.1345E-15  0.1000E-09  0.0000E+00  0.4971E+15
   -2.475012    3.70206  0.4221E-10  0.1247E-11  0.1062E-14  0.1000E-09  0.0000E+00  0.3577E+15
   -2.543760    3.79842  0.4221E-10  0.1010E-10  0.8488E-14  0.1752E-09  0.0000E+00  0.2148E+15
   -2.612507    3.89721  0.4221E-10  0.8430E-10  0.7136E-13  0.3940E-08  0.0000E+00  0.6084E+14
   -2.681253    3.99961  0.4221E-10  0.7216E-09  0.6828E-12  0.2724E-06  0.0000E+00 -0.2495E+14
   -2.749999    4.04431  0.4221E-10  0.0000E+00  0.0000E+00  0.0000E+00  0.0000E+00  0.0000E+00
