 1 - depth, m
 2 - temperature, C
 3 - salinity, kg/kg
 4 - turbulent kinetic energy, m**2/s**2
 5 - dissipation rate, m**2/s**3
 6 - kinematic heat conductance, m**2/s
 7 - modulus of horizontal velocity, m/s
 8 - Richardson number, n/d
   -0.000000   -0.00000  0.1039E-11  0.1219E-13  0.7603E-17  0.1000E-09  0.0000E+00  0.6775E+16
   -0.068746    0.10306  0.5144E-11  0.1219E-13  0.7603E-17  0.1000E-09  0.0000E+00  0.6708E+16
   -0.137493    0.20806  0.8002E-11  0.1219E-13  0.7603E-17  0.1000E-09  0.0000E+00  0.6619E+16
   -0.206240    0.31480  0.9061E-11  0.1219E-13  0.7603E-17  0.1000E-09  0.0000E+00  0.6510E+16
   -0.274988    0.42310  0.8974E-11  0.1219E-13  0.7603E-17  0.1000E-09  0.0000E+00  0.6383E+16
   -0.343736    0.53278  0.8412E-11  0.1219E-13  0.7603E-17  0.1000E-09  0.0000E+00  0.6239E+16
   -0.412485    0.64367  0.7791E-11  0.1219E-13  0.7603E-17  0.1000E-09  0.0000E+00  0.6080E+16
   -0.481234    0.75562  0.7300E-11  0.1219E-13  0.7603E-17  0.1000E-09  0.0000E+00  0.5909E+16
   -0.549984    0.86848  0.6979E-11  0.1219E-13  0.7603E-17  0.1000E-09  0.0000E+00  0.5726E+16
   -0.618734    0.98212  0.6795E-11  0.1219E-13  0.7603E-17  0.1000E-09  0.0000E+00  0.5534E+16
   -0.687485    1.09639  0.6701E-11  0.1219E-13  0.7603E-17  0.1000E-09  0.0000E+00  0.5333E+16
   -0.756236    1.21120  0.6656E-11  0.1219E-13  0.7603E-17  0.1000E-09  0.0000E+00  0.5125E+16
   -0.824987    1.32642  0.6635E-11  0.1219E-13  0.7603E-17  0.1000E-09  0.0000E+00  0.4912E+16
   -0.893739    1.44196  0.6625E-11  0.1219E-13  0.7603E-17  0.1000E-09  0.0000E+00  0.4693E+16
   -0.962491    1.55771  0.6619E-11  0.1219E-13  0.7603E-17  0.1000E-09  0.0000E+00  0.4471E+16
   -1.031243    1.67359  0.6611E-11  0.1219E-13  0.7603E-17  0.1000E-09  0.0000E+00  0.4245E+16
   -1.099995    1.78950  0.6602E-11  0.1219E-13  0.7603E-17  0.1000E-09  0.0000E+00  0.4018E+16
   -1.168747    1.90539  0.6590E-11  0.1219E-13  0.7603E-17  0.1000E-09  0.0000E+00  0.3791E+16
   -1.237499    2.02118  0.6575E-11  0.1219E-13  0.7603E-17  0.1000E-09  0.0000E+00  0.3563E+16
   -1.306252    2.13682  0.6558E-11  0.1219E-13  0.7603E-17  0.1000E-09  0.0000E+00  0.3335E+16
   -1.375004    2.25228  0.6538E-11  0.1219E-13  0.7603E-17  0.1000E-09  0.0000E+00  0.3109E+16
   -1.443757    2.36755  0.6519E-11  0.1219E-13  0.7603E-17  0.1000E-09  0.0000E+00  0.2885E+16
   -1.512509    2.48262  0.6501E-11  0.1219E-13  0.7603E-17  0.1000E-09  0.0000E+00  0.2663E+16
   -1.581262    2.59747  0.6484E-11  0.1219E-13  0.7603E-17  0.1000E-09  0.0000E+00  0.2443E+16
   -1.650014    2.71212  0.6471E-11  0.1219E-13  0.7603E-17  0.1000E-09  0.0000E+00  0.2225E+16
   -1.718766    2.82657  0.6460E-11  0.1219E-13  0.7603E-17  0.1000E-09  0.0000E+00  0.2008E+16
   -1.787518    2.94079  0.6451E-11  0.2304E-13  0.7603E-17  0.1000E-09  0.0000E+00  0.1771E+16
   -1.856270    3.05331  0.6444E-11  0.8516E-13  0.1962E-16  0.1000E-09  0.0000E+00  0.1540E+16
   -1.925022    3.16379  0.6439E-11  0.2841E-12  0.6096E-16  0.1000E-09  0.0000E+00  0.1316E+16
   -1.993773    3.27175  0.6434E-11  0.9140E-12  0.1888E-15  0.1000E-09  0.0000E+00  0.1105E+16
   -2.062524    3.37719  0.6430E-11  0.2823E-11  0.5638E-15  0.1000E-09  0.0000E+00  0.9243E+15
   -2.131274    3.48226  0.6427E-11  0.8565E-11  0.1655E-14  0.1000E-09  0.0000E+00  0.7480E+15
   -2.200025    3.58725  0.6425E-11  0.2564E-10  0.4796E-14  0.1000E-09  0.0000E+00  0.5730E+15
   -2.268774    3.69221  0.6424E-11  0.7647E-10  0.1385E-13  0.1762E-09  0.0000E+00  0.3987E+15
   -2.337524    3.79713  0.6423E-11  0.2297E-09  0.4033E-13  0.9087E-09  0.0000E+00  0.2246E+15
   -2.406273    3.90160  0.6423E-11  0.6864E-09  0.1170E-12  0.1062E-07  0.0000E+00  0.5489E+14
   -2.475021    3.99951  0.6423E-11  0.1527E-08  0.2605E-12  0.3831E-05  0.0000E+00 -0.8777E+12
   -2.543769    4.00323  0.6423E-11  0.1845E-08  0.3609E-12  0.3710E-05  0.0000E+00 -0.1116E+13
   -2.612516    4.00702  0.6423E-11  0.1922E-08  0.5259E-12  0.2416E-05  0.0000E+00 -0.2048E+13
   -2.681263    4.01259  0.6423E-11  0.1497E-08  0.1157E-11  0.4659E-06  0.0000E+00 -0.1262E+14
   -2.750009    4.03430  0.6423E-11  0.0000E+00  0.0000E+00  0.0000E+00  0.0000E+00  0.0000E+00
