 1 - depth, m
 2 - temperature, C
 3 - salinity, kg/kg
 4 - turbulent kinetic energy, m**2/s**2
 5 - dissipation rate, m**2/s**3
 6 - kinematic heat conductance, m**2/s
 7 - modulus of horizontal velocity, m/s
 8 - Richardson number, n/d
   -0.000000   -0.00000  0.8082E-11  0.1219E-13  0.7603E-17  0.1000E-09  0.0000E+00  0.6375E+16
   -0.068746    0.09689  0.4496E-11  0.1219E-13  0.7603E-17  0.1000E-09  0.0000E+00  0.6143E+16
   -0.137492    0.19276  0.3306E-11  0.1219E-13  0.7603E-17  0.1000E-09  0.0000E+00  0.5943E+16
   -0.206239    0.28803  0.2987E-11  0.1219E-13  0.7603E-17  0.1000E-09  0.0000E+00  0.5773E+16
   -0.274987    0.38313  0.2913E-11  0.1219E-13  0.7603E-17  0.1000E-09  0.0000E+00  0.5630E+16
   -0.343735    0.47852  0.2897E-11  0.1219E-13  0.7603E-17  0.1000E-09  0.0000E+00  0.5512E+16
   -0.412483    0.57464  0.2894E-11  0.1219E-13  0.7603E-17  0.1000E-09  0.0000E+00  0.5415E+16
   -0.481232    0.67196  0.2894E-11  0.1219E-13  0.7603E-17  0.1000E-09  0.0000E+00  0.5336E+16
   -0.549982    0.77090  0.2894E-11  0.1219E-13  0.7603E-17  0.1000E-09  0.0000E+00  0.5271E+16
   -0.618732    0.87189  0.2894E-11  0.1219E-13  0.7603E-17  0.1000E-09  0.0000E+00  0.5216E+16
   -0.687482    0.97534  0.2894E-11  0.1219E-13  0.7603E-17  0.1000E-09  0.0000E+00  0.5180E+16
   -0.756233    1.08192  0.2894E-11  0.1219E-13  0.7603E-17  0.1000E-09  0.0000E+00  0.5151E+16
   -0.824984    1.19213  0.2894E-11  0.1219E-13  0.7603E-17  0.1000E-09  0.0000E+00  0.5117E+16
   -0.893735    1.30629  0.2894E-11  0.1219E-13  0.7603E-17  0.1000E-09  0.0000E+00  0.5072E+16
   -0.962487    1.42471  0.2893E-11  0.1219E-13  0.7603E-17  0.1000E-09  0.0000E+00  0.5012E+16
   -1.031239    1.54763  0.2892E-11  0.5694E-13  0.8871E-17  0.1000E-09  0.0000E+00  0.4933E+16
   -1.099990    1.67525  0.2889E-11  0.1580E-12  0.1837E-16  0.1000E-09  0.0000E+00  0.4830E+16
   -1.168743    1.80774  0.2883E-11  0.3758E-12  0.4054E-16  0.1000E-09  0.0000E+00  0.4700E+16
   -1.237495    1.94522  0.2872E-11  0.8511E-12  0.8863E-16  0.1000E-09  0.0000E+00  0.4540E+16
   -1.306247    2.08776  0.2857E-11  0.1889E-11  0.1915E-15  0.1000E-09  0.0000E+00  0.4344E+16
   -1.374999    2.23537  0.2841E-11  0.4144E-11  0.4094E-15  0.1000E-09  0.0000E+00  0.4120E+16
   -1.443751    2.38828  0.2829E-11  0.9001E-11  0.8675E-15  0.1000E-09  0.0000E+00  0.3856E+16
   -1.512504    2.54647  0.2821E-11  0.1937E-10  0.1822E-14  0.1000E-09  0.0000E+00  0.3550E+16
   -1.581256    2.70974  0.2817E-11  0.4133E-10  0.3794E-14  0.1000E-09  0.0000E+00  0.3200E+16
   -1.650008    2.87782  0.2814E-11  0.8741E-10  0.7834E-14  0.1000E-09  0.0000E+00  0.2808E+16
   -1.718760    3.05032  0.2812E-11  0.1833E-09  0.1605E-13  0.1000E-09  0.0000E+00  0.2377E+16
   -1.787511    3.22692  0.2810E-11  0.3901E-09  0.3334E-13  0.1000E-09  0.0000E+00  0.1938E+16
   -1.856263    3.41019  0.2809E-11  0.8382E-09  0.6996E-13  0.2467E-09  0.0000E+00  0.1443E+16
   -1.925014    3.60025  0.2807E-11  0.1800E-08  0.1469E-12  0.8395E-09  0.0000E+00  0.8906E+15
   -1.993765    3.79689  0.2803E-11  0.3853E-08  0.3073E-12  0.5564E-08  0.0000E+00  0.2812E+15
   -2.062516    3.99358  0.2802E-11  0.4613E-08  0.3707E-12  0.2010E-04  0.0000E+00 -0.1781E+12
   -2.131266    3.99500  0.2802E-11  0.4969E-08  0.4082E-12  0.2210E-04  0.0000E+00 -0.1903E+12
   -2.200016    3.99630  0.2802E-11  0.5272E-08  0.4495E-12  0.2312E-04  0.0000E+00 -0.2072E+12
   -2.268766    3.99755  0.2802E-11  0.5525E-08  0.4966E-12  0.2321E-04  0.0000E+00 -0.2313E+12
   -2.337515    3.99879  0.2802E-11  0.5733E-08  0.5548E-12  0.2229E-04  0.0000E+00 -0.2676E+12
   -2.406263    4.00009  0.2802E-11  0.5889E-08  0.6317E-12  0.2029E-04  0.0000E+00 -0.3261E+12
   -2.475012    4.00153  0.2802E-11  0.5973E-08  0.7448E-12  0.1705E-04  0.0000E+00 -0.4327E+12
   -2.543759    4.00324  0.2802E-11  0.5944E-08  0.9406E-12  0.1248E-04  0.0000E+00 -0.6720E+12
   -2.612506    4.00561  0.2802E-11  0.5665E-08  0.1406E-11  0.6638E-05  0.0000E+00 -0.1523E+13
   -2.681252    4.01012  0.2802E-11  0.4330E-08  0.3935E-11  0.1064E-05  0.0000E+00 -0.1614E+14
   -2.749998    4.03758  0.2802E-11  0.0000E+00  0.0000E+00  0.0000E+00  0.0000E+00  0.0000E+00
