 1 - depth, m
 2 - temperature, C
 3 - salinity, kg/kg
 4 - turbulent kinetic energy, m**2/s**2
 5 - dissipation rate, m**2/s**3
 6 - kinematic heat conductance, m**2/s
 7 - modulus of horizontal velocity, m/s
 8 - Richardson number, n/d
   -0.000000   -0.00000  0.8245E-11  0.1219E-13  0.7603E-17  0.1000E-09  0.0000E+00  0.7449E+16
   -0.068746    0.11347  0.4840E-11  0.1219E-13  0.7603E-17  0.1000E-09  0.0000E+00  0.7163E+16
   -0.137492    0.22603  0.3497E-11  0.1219E-13  0.7603E-17  0.1000E-09  0.0000E+00  0.6900E+16
   -0.206239    0.33796  0.3055E-11  0.1219E-13  0.7603E-17  0.1000E-09  0.0000E+00  0.6661E+16
   -0.274987    0.44958  0.2932E-11  0.1219E-13  0.7603E-17  0.1000E-09  0.0000E+00  0.6443E+16
   -0.343735    0.56122  0.2902E-11  0.1219E-13  0.7603E-17  0.1000E-09  0.0000E+00  0.6243E+16
   -0.412483    0.67320  0.2895E-11  0.1219E-13  0.7603E-17  0.1000E-09  0.0000E+00  0.6059E+16
   -0.481232    0.78583  0.2894E-11  0.1219E-13  0.7603E-17  0.1000E-09  0.0000E+00  0.5887E+16
   -0.549982    0.89942  0.2894E-11  0.1219E-13  0.7603E-17  0.1000E-09  0.0000E+00  0.5725E+16
   -0.618732    1.01427  0.2894E-11  0.1219E-13  0.7603E-17  0.1000E-09  0.0000E+00  0.5568E+16
   -0.687482    1.13064  0.2894E-11  0.1219E-13  0.7603E-17  0.1000E-09  0.0000E+00  0.5426E+16
   -0.756233    1.24902  0.2894E-11  0.1219E-13  0.7603E-17  0.1000E-09  0.0000E+00  0.5288E+16
   -0.824984    1.36980  0.2894E-11  0.1219E-13  0.7603E-17  0.1000E-09  0.0000E+00  0.5144E+16
   -0.893735    1.49314  0.2893E-11  0.1219E-13  0.7603E-17  0.1000E-09  0.0000E+00  0.4991E+16
   -0.962487    1.61922  0.2893E-11  0.1838E-13  0.7603E-17  0.1000E-09  0.0000E+00  0.4826E+16
   -1.031239    1.74816  0.2891E-11  0.7270E-13  0.1101E-16  0.1000E-09  0.0000E+00  0.4647E+16
   -1.099990    1.88003  0.2886E-11  0.1968E-12  0.2431E-16  0.1000E-09  0.0000E+00  0.4450E+16
   -1.168742    2.01488  0.2879E-11  0.4747E-12  0.5534E-16  0.1000E-09  0.0000E+00  0.4235E+16
   -1.237495    2.15273  0.2867E-11  0.1103E-11  0.1245E-15  0.1000E-09  0.0000E+00  0.4000E+16
   -1.306247    2.29352  0.2853E-11  0.2519E-11  0.2766E-15  0.1000E-09  0.0000E+00  0.3744E+16
   -1.374999    2.43719  0.2839E-11  0.5685E-11  0.6081E-15  0.1000E-09  0.0000E+00  0.3470E+16
   -1.443751    2.58378  0.2828E-11  0.1270E-10  0.1324E-14  0.1000E-09  0.0000E+00  0.3174E+16
   -1.512503    2.73319  0.2821E-11  0.2810E-10  0.2855E-14  0.1000E-09  0.0000E+00  0.2856E+16
   -1.581256    2.88521  0.2816E-11  0.6157E-10  0.6101E-14  0.1000E-09  0.0000E+00  0.2517E+16
   -1.650008    3.03961  0.2813E-11  0.1337E-09  0.1292E-13  0.1000E-09  0.0000E+00  0.2158E+16
   -1.718760    3.19608  0.2812E-11  0.2876E-09  0.2712E-13  0.1000E-09  0.0000E+00  0.1784E+16
   -1.787511    3.35444  0.2810E-11  0.6274E-09  0.5771E-13  0.2079E-09  0.0000E+00  0.1413E+16
   -1.856263    3.51681  0.2808E-11  0.1381E-08  0.1240E-12  0.6228E-09  0.0000E+00  0.1013E+16
   -1.925014    3.68312  0.2805E-11  0.3034E-08  0.2659E-12  0.2327E-08  0.0000E+00  0.5814E+15
   -1.993765    3.85226  0.2803E-11  0.6580E-08  0.5642E-12  0.2079E-07  0.0000E+00  0.1379E+15
   -2.062516    4.00600  0.2802E-11  0.7444E-08  0.6419E-12  0.3527E-04  0.0000E+00 -0.2203E+12
   -2.131266    4.00670  0.2802E-11  0.7805E-08  0.6830E-12  0.3577E-04  0.0000E+00 -0.2251E+12
   -2.200016    4.00739  0.2802E-11  0.8091E-08  0.7267E-12  0.3543E-04  0.0000E+00 -0.2352E+12
   -2.268766    4.00809  0.2802E-11  0.8305E-08  0.7761E-12  0.3422E-04  0.0000E+00 -0.2522E+12
   -2.337515    4.00882  0.2802E-11  0.8455E-08  0.8376E-12  0.3197E-04  0.0000E+00 -0.2799E+12
   -2.406263    4.00960  0.2802E-11  0.8530E-08  0.9204E-12  0.2853E-04  0.0000E+00 -0.3262E+12
   -2.475011    4.01047  0.2802E-11  0.8509E-08  0.1045E-11  0.2367E-04  0.0000E+00 -0.4114E+12
   -2.543759    4.01154  0.2802E-11  0.8337E-08  0.1267E-11  0.1721E-04  0.0000E+00 -0.5998E+12
   -2.612506    4.01301  0.2802E-11  0.7834E-08  0.1807E-11  0.9141E-05  0.0000E+00 -0.1241E+13
   -2.681252    4.01583  0.2802E-11  0.5677E-08  0.5067E-11  0.1229E-05  0.0000E+00 -0.1281E+14
   -2.749998    4.03639  0.2802E-11  0.0000E+00  0.0000E+00  0.0000E+00  0.0000E+00  0.0000E+00
