 1 - depth, m
 2 - temperature, C
 3 - salinity, kg/kg
 4 - turbulent kinetic energy, m**2/s**2
 5 - dissipation rate, m**2/s**3
 6 - kinematic heat conductance, m**2/s
 7 - modulus of horizontal velocity, m/s
 8 - Richardson number, n/d
   -0.000000   -0.00000  0.1238E-09  0.1219E-13  0.7603E-17  0.1000E-09  0.0000E+00  0.6784E+16
   -0.068746    0.10319  0.7322E-10  0.1219E-13  0.7603E-17  0.1000E-09  0.0000E+00  0.6536E+16
   -0.137492    0.20546  0.5312E-10  0.1219E-13  0.7603E-17  0.1000E-09  0.0000E+00  0.6306E+16
   -0.206239    0.30700  0.4627E-10  0.1219E-13  0.7603E-17  0.1000E-09  0.0000E+00  0.6093E+16
   -0.274987    0.40802  0.4427E-10  0.1219E-13  0.7603E-17  0.1000E-09  0.0000E+00  0.5894E+16
   -0.343735    0.50871  0.4376E-10  0.1219E-13  0.7603E-17  0.1000E-09  0.0000E+00  0.5709E+16
   -0.412483    0.60926  0.4364E-10  0.1219E-13  0.7603E-17  0.1000E-09  0.0000E+00  0.5535E+16
   -0.481232    0.70988  0.4362E-10  0.1219E-13  0.7603E-17  0.1000E-09  0.0000E+00  0.5371E+16
   -0.549982    0.81075  0.4361E-10  0.1219E-13  0.7603E-17  0.1000E-09  0.0000E+00  0.5215E+16
   -0.618732    0.91202  0.4361E-10  0.1219E-13  0.7603E-17  0.1000E-09  0.0000E+00  0.5065E+16
   -0.687482    1.01386  0.4361E-10  0.1219E-13  0.7603E-17  0.1000E-09  0.0000E+00  0.4929E+16
   -0.756233    1.11660  0.4361E-10  0.1219E-13  0.7603E-17  0.1000E-09  0.0000E+00  0.4800E+16
   -0.824984    1.22049  0.4361E-10  0.1219E-13  0.7603E-17  0.1000E-09  0.0000E+00  0.4669E+16
   -0.893735    1.32562  0.4361E-10  0.1219E-13  0.7603E-17  0.1000E-09  0.0000E+00  0.4535E+16
   -0.962487    1.43206  0.4361E-10  0.1219E-13  0.7603E-17  0.1000E-09  0.0000E+00  0.4396E+16
   -1.031238    1.53985  0.4360E-10  0.1219E-13  0.7603E-17  0.1000E-09  0.0000E+00  0.4251E+16
   -1.099990    1.64901  0.4358E-10  0.1219E-13  0.7603E-17  0.1000E-09  0.0000E+00  0.4099E+16
   -1.168742    1.75954  0.4354E-10  0.1219E-13  0.7603E-17  0.1000E-09  0.0000E+00  0.3939E+16
   -1.237494    1.87139  0.4346E-10  0.1219E-13  0.7603E-17  0.1000E-09  0.0000E+00  0.3770E+16
   -1.306247    1.98450  0.4334E-10  0.1219E-13  0.7603E-17  0.1000E-09  0.0000E+00  0.3592E+16
   -1.374999    2.09878  0.4319E-10  0.1219E-13  0.7603E-17  0.1000E-09  0.0000E+00  0.3408E+16
   -1.443751    2.21425  0.4303E-10  0.1219E-13  0.7603E-17  0.1000E-09  0.0000E+00  0.3216E+16
   -1.512503    2.33082  0.4290E-10  0.1219E-13  0.7603E-17  0.1000E-09  0.0000E+00  0.3015E+16
   -1.581255    2.44830  0.4280E-10  0.1219E-13  0.7603E-17  0.1000E-09  0.0000E+00  0.2804E+16
   -1.650007    2.56651  0.4274E-10  0.1219E-13  0.7603E-17  0.1000E-09  0.0000E+00  0.2585E+16
   -1.718759    2.68522  0.4271E-10  0.1219E-13  0.7603E-17  0.1000E-09  0.0000E+00  0.2361E+16
   -1.787511    2.80423  0.4268E-10  0.1219E-13  0.7603E-17  0.1000E-09  0.0000E+00  0.2149E+16
   -1.856263    2.92430  0.4266E-10  0.5197E-13  0.1560E-16  0.1000E-09  0.0000E+00  0.1930E+16
   -1.925014    3.04537  0.4264E-10  0.1994E-12  0.5350E-16  0.1000E-09  0.0000E+00  0.1706E+16
   -1.993765    3.16740  0.4259E-10  0.7212E-12  0.1853E-15  0.1000E-09  0.0000E+00  0.1473E+16
   -2.062516    3.29006  0.4252E-10  0.2489E-11  0.6167E-15  0.1000E-09  0.0000E+00  0.1231E+16
   -2.131266    3.41261  0.4243E-10  0.8417E-11  0.2012E-14  0.1000E-09  0.0000E+00  0.9896E+15
   -2.200016    3.53486  0.4233E-10  0.2801E-10  0.6467E-14  0.1000E-09  0.0000E+00  0.7494E+15
   -2.268765    3.65658  0.4225E-10  0.9268E-10  0.2067E-13  0.2038E-09  0.0000E+00  0.5140E+15
   -2.337514    3.77803  0.4222E-10  0.3080E-09  0.6642E-13  0.1197E-08  0.0000E+00  0.2803E+15
   -2.406263    3.89869  0.4221E-10  0.1011E-08  0.2113E-12  0.1830E-07  0.0000E+00  0.5691E+14
   -2.475011    4.00674  0.4221E-10  0.2326E-08  0.4889E-12  0.4540E-05  0.0000E+00 -0.1310E+13
   -2.543759    4.01049  0.4221E-10  0.2823E-08  0.6918E-12  0.4270E-05  0.0000E+00 -0.1705E+13
   -2.612506    4.01464  0.4221E-10  0.3037E-08  0.1078E-11  0.2809E-05  0.0000E+00 -0.3356E+13
   -2.681252    4.02140  0.4221E-10  0.2765E-08  0.2695E-11  0.7671E-06  0.0000E+00 -0.2224E+14
   -2.749998    4.05012  0.4221E-10  0.0000E+00  0.0000E+00  0.0000E+00  0.0000E+00  0.0000E+00
