 1 - depth, m
 2 - temperature, C
 3 - salinity, kg/kg
 4 - turbulent kinetic energy, m**2/s**2
 5 - dissipation rate, m**2/s**3
 6 - kinematic heat conductance, m**2/s
 7 - modulus of horizontal velocity, m/s
 8 - Richardson number, n/d
   -0.000000   -0.00000  0.3635E-11  0.1219E-13  0.7603E-17  0.1000E-09  0.0000E+00  0.8437E+16
   -0.068746    0.12878  0.2315E-11  0.1219E-13  0.7603E-17  0.1000E-09  0.0000E+00  0.8093E+16
   -0.137492    0.25678  0.1662E-11  0.1219E-13  0.7603E-17  0.1000E-09  0.0000E+00  0.7768E+16
   -0.206239    0.38419  0.1407E-11  0.1219E-13  0.7603E-17  0.1000E-09  0.0000E+00  0.7459E+16
   -0.274987    0.51120  0.1323E-11  0.1219E-13  0.7603E-17  0.1000E-09  0.0000E+00  0.7165E+16
   -0.343735    0.63802  0.1299E-11  0.1219E-13  0.7603E-17  0.1000E-09  0.0000E+00  0.6884E+16
   -0.412483    0.76484  0.1292E-11  0.1219E-13  0.7603E-17  0.1000E-09  0.0000E+00  0.6614E+16
   -0.481233    0.89185  0.1291E-11  0.1219E-13  0.7603E-17  0.1000E-09  0.0000E+00  0.6352E+16
   -0.549982    1.01923  0.1291E-11  0.1219E-13  0.7603E-17  0.1000E-09  0.0000E+00  0.6097E+16
   -0.618732    1.14715  0.1290E-11  0.1219E-13  0.7603E-17  0.1000E-09  0.0000E+00  0.5847E+16
   -0.687482    1.27576  0.1290E-11  0.1219E-13  0.7603E-17  0.1000E-09  0.0000E+00  0.5608E+16
   -0.756233    1.40541  0.1290E-11  0.1219E-13  0.7603E-17  0.1000E-09  0.0000E+00  0.5374E+16
   -0.824984    1.53636  0.1290E-11  0.1219E-13  0.7603E-17  0.1000E-09  0.0000E+00  0.5136E+16
   -0.893735    1.66871  0.1290E-11  0.1833E-13  0.7603E-17  0.1000E-09  0.0000E+00  0.4892E+16
   -0.962487    1.80254  0.1290E-11  0.6347E-13  0.8730E-17  0.1000E-09  0.0000E+00  0.4642E+16
   -1.031239    1.93791  0.1289E-11  0.1614E-12  0.1564E-16  0.1000E-09  0.0000E+00  0.4384E+16
   -1.099991    2.07484  0.1287E-11  0.3535E-12  0.3130E-16  0.1000E-09  0.0000E+00  0.4117E+16
   -1.168743    2.21335  0.1284E-11  0.7343E-12  0.6283E-16  0.1000E-09  0.0000E+00  0.3839E+16
   -1.237495    2.35340  0.1279E-11  0.1496E-11  0.1253E-15  0.1000E-09  0.0000E+00  0.3552E+16
   -1.306247    2.49495  0.1274E-11  0.3020E-11  0.2487E-15  0.1000E-09  0.0000E+00  0.3253E+16
   -1.374999    2.63794  0.1269E-11  0.6068E-11  0.4918E-15  0.1000E-09  0.0000E+00  0.2946E+16
   -1.443751    2.78234  0.1264E-11  0.1215E-10  0.9702E-15  0.1000E-09  0.0000E+00  0.2629E+16
   -1.512504    2.92805  0.1261E-11  0.2426E-10  0.1911E-14  0.1000E-09  0.0000E+00  0.2302E+16
   -1.581256    3.07491  0.1259E-11  0.4835E-10  0.3758E-14  0.1000E-09  0.0000E+00  0.1965E+16
   -1.650008    3.22275  0.1257E-11  0.9624E-10  0.7388E-14  0.1000E-09  0.0000E+00  0.1622E+16
   -1.718760    3.37132  0.1256E-11  0.1914E-09  0.1452E-13  0.1000E-09  0.0000E+00  0.1272E+16
   -1.787511    3.52031  0.1255E-11  0.3888E-09  0.2916E-13  0.1614E-09  0.0000E+00  0.9226E+15
   -1.856263    3.66994  0.1254E-11  0.8040E-09  0.5965E-13  0.5439E-09  0.0000E+00  0.5608E+15
   -1.925014    3.81691  0.1252E-11  0.1674E-08  0.1229E-12  0.2888E-08  0.0000E+00  0.2131E+15
   -1.993765    3.95232  0.1252E-11  0.3176E-08  0.2343E-12  0.7568E-06  0.0000E+00  0.1107E+14
   -2.062516    3.99852  0.1252E-11  0.3769E-08  0.2816E-12  0.1972E-04  0.0000E+00 -0.1538E+12
   -2.131266    3.99952  0.1252E-11  0.4074E-08  0.3115E-12  0.2124E-04  0.0000E+00 -0.1648E+12
   -2.200016    4.00045  0.1252E-11  0.4333E-08  0.3439E-12  0.2195E-04  0.0000E+00 -0.1798E+12
   -2.268766    4.00135  0.1252E-11  0.4549E-08  0.3803E-12  0.2181E-04  0.0000E+00 -0.2008E+12
   -2.337515    4.00227  0.1252E-11  0.4725E-08  0.4248E-12  0.2078E-04  0.0000E+00 -0.2324E+12
   -2.406264    4.00326  0.1252E-11  0.4856E-08  0.4833E-12  0.1878E-04  0.0000E+00 -0.2833E+12
   -2.475012    4.00438  0.1252E-11  0.4925E-08  0.5688E-12  0.1568E-04  0.0000E+00 -0.3760E+12
   -2.543759    4.00574  0.1252E-11  0.4894E-08  0.7164E-12  0.1137E-04  0.0000E+00 -0.5848E+12
   -2.612506    4.00766  0.1252E-11  0.4643E-08  0.1066E-11  0.5939E-05  0.0000E+00 -0.1330E+13
   -2.681253    4.01144  0.1252E-11  0.3461E-08  0.2952E-11  0.8812E-06  0.0000E+00 -0.1382E+14
   -2.749998    4.03537  0.1252E-11  0.0000E+00  0.0000E+00  0.0000E+00  0.0000E+00  0.0000E+00
