 1 - depth, m
 2 - temperature, C
 3 - salinity, kg/kg
 4 - turbulent kinetic energy, m**2/s**2
 5 - dissipation rate, m**2/s**3
 6 - kinematic heat conductance, m**2/s
 7 - modulus of horizontal velocity, m/s
 8 - Richardson number, n/d
   -0.000000    0.16404  0.3537E-10  0.6141E-04  0.4576E-04  0.7208E-04  0.8213E-01  0.2563E-01
   -0.068746    0.15993  0.3542E-10  0.4056E-04  0.1363E-04  0.1094E-03  0.5403E-01  0.1822E-01
   -0.137492    0.16846  0.3546E-10  0.3320E-04  0.4269E-05  0.1351E-03  0.4770E-01  0.2922E-01
   -0.206240    0.17494  0.3550E-10  0.2859E-04  0.1183E-05  0.1565E-03  0.4366E-01  0.4100E-01
   -0.274987    0.18056  0.3555E-10  0.2543E-04  0.4835E-06  0.1753E-03  0.4056E-01  0.5443E-01
   -0.343736    0.18617  0.3561E-10  0.2304E-04  0.2990E-06  0.1888E-03  0.3803E-01  0.6982E-01
   -0.412485    0.19194  0.3568E-10  0.2107E-04  0.2160E-06  0.1973E-03  0.3593E-01  0.8762E-01
   -0.481234    0.19819  0.3577E-10  0.1933E-04  0.1666E-06  0.2013E-03  0.3408E-01  0.1081E+00
   -0.549984    0.20528  0.3590E-10  0.1774E-04  0.1335E-06  0.2010E-03  0.3242E-01  0.1314E+00
   -0.618734    0.21389  0.3609E-10  0.1626E-04  0.1100E-06  0.1968E-03  0.3086E-01  0.1569E+00
   -0.687484    0.22531  0.3639E-10  0.1485E-04  0.9235E-07  0.1890E-03  0.2934E-01  0.1834E+00
   -0.756235    0.24280  0.3701E-10  0.1349E-04  0.7851E-07  0.1781E-03  0.2780E-01  0.2110E+00
   -0.824987    0.27514  0.3873E-10  0.1220E-04  0.6725E-07  0.1648E-03  0.2612E-01  0.2427E+00
   -0.893738    0.31816  0.4083E-10  0.1099E-04  0.5811E-07  0.1493E-03  0.2435E-01  0.3183E+00
   -0.962490    0.36686  0.4240E-10  0.9860E-05  0.5064E-07  0.1324E-03  0.2258E-01  0.1114E+01
   -1.031242    0.42135  0.4355E-10  0.8804E-05  0.4446E-07  0.1146E-03  0.2084E-01  0.1250E+02
   -1.099994    0.48213  0.4449E-10  0.7819E-05  0.3935E-07  0.9651E-04  0.1913E-01  0.1756E+03
   -1.168746    0.54958  0.4535E-10  0.6905E-05  0.3512E-07  0.7887E-04  0.1745E-01  0.2494E+04
   -1.237498    0.62405  0.4620E-10  0.6059E-05  0.3167E-07  0.6243E-04  0.1579E-01  0.3540E+05
   -1.306251    0.70636  0.4708E-10  0.5280E-05  0.2890E-07  0.4793E-04  0.1414E-01  0.5009E+06
   -1.375003    0.79754  0.4799E-10  0.4566E-05  0.2682E-07  0.3605E-04  0.1249E-01  0.7619E+07
   -1.443756    0.90087  0.4890E-10  0.3912E-05  0.2536E-07  0.2719E-04  0.1083E-01  0.1181E+09
   -1.512508    1.02405  0.4980E-10  0.3316E-05  0.2441E-07  0.2132E-04  0.9130E-02  0.1762E+10
   -1.581261    1.18996  0.5079E-10  0.2799E-05  0.2383E-07  0.1779E-04  0.7297E-02  0.2376E+11
   -1.650013    1.44986  0.5201E-10  0.2440E-05  0.2312E-07  0.1582E-04  0.5229E-02  0.2487E+12
   -1.718765    1.89969  0.5323E-10  0.2243E-05  0.2075E-07  0.9713E-05  0.3079E-02  0.2534E+13
   -1.787517    2.72320  0.5377E-10  0.1545E-05  0.1084E-07  0.2617E-04  0.1231E-02  0.4271E+15
   -1.856269    3.48144  0.5426E-10  0.1103E-05  0.6047E-08  0.1296E-03  0.6268E-03  0.1322E+16
   -1.925020    3.91190  0.5465E-10  0.7805E-06  0.3126E-08  0.1933E-03  0.2948E-03  0.3304E+15
   -1.993771    4.07318  0.5483E-10  0.5417E-06  0.1431E-08  0.2277E-03  0.1516E-03 -0.1577E+13
   -2.062522    4.12731  0.5503E-10  0.4006E-06  0.5176E-09  0.2330E-03  0.6176E-04 -0.1759E+13
   -2.131273    4.17124  0.5519E-10  0.3662E-06  0.2655E-09  0.2363E-03  0.1859E-04 -0.1887E+13
   -2.200023    4.18955  0.5525E-10  0.3626E-06  0.2150E-09  0.2365E-03  0.6107E-05 -0.2038E+13
   -2.268773    4.19717  0.5526E-10  0.3648E-06  0.2101E-09  0.2332E-03  0.2506E-05 -0.2200E+13
   -2.337522    4.20119  0.5527E-10  0.3665E-06  0.2157E-09  0.2260E-03  0.1385E-05 -0.2375E+13
   -2.406271    4.20459  0.5527E-10  0.3665E-06  0.2270E-09  0.2137E-03  0.8341E-06 -0.2536E+13
   -2.475019    4.20790  0.5528E-10  0.3641E-06  0.2459E-09  0.1939E-03  0.5069E-06 -0.2891E+13
   -2.543767    4.21139  0.5528E-10  0.3581E-06  0.2798E-09  0.1642E-03  0.2995E-06 -0.3775E+13
   -2.612514    4.21546  0.5528E-10  0.3428E-06  0.3660E-09  0.9516E-04  0.1536E-06 -0.6954E+13
   -2.681261    4.22244  0.5528E-10  0.2325E-06  0.1204E-08  0.7903E-05  0.5378E-07 -0.1472E+15
   -2.750007    4.30106  0.5528E-10  0.0000E+00  0.0000E+00  0.0000E+00  0.5412E-07  0.0000E+00
