 1 - depth, m
 2 - temperature, C
 3 - salinity, kg/kg
 4 - turbulent kinetic energy, m**2/s**2
 5 - dissipation rate, m**2/s**3
 6 - kinematic heat conductance, m**2/s
 7 - modulus of horizontal velocity, m/s
 8 - Richardson number, n/d
   -0.000000   -0.00000  0.5299E-10  0.1219E-13  0.7603E-17  0.1000E-09  0.0000E+00  0.6470E+16
   -0.068746    0.09835  0.3182E-10  0.1219E-13  0.7603E-17  0.1000E-09  0.0000E+00  0.6239E+16
   -0.137492    0.19578  0.2317E-10  0.1219E-13  0.7603E-17  0.1000E-09  0.0000E+00  0.6038E+16
   -0.206239    0.29268  0.2062E-10  0.1219E-13  0.7603E-17  0.1000E-09  0.0000E+00  0.5863E+16
   -0.274987    0.38943  0.1998E-10  0.1219E-13  0.7603E-17  0.1000E-09  0.0000E+00  0.5710E+16
   -0.343735    0.48638  0.1984E-10  0.1219E-13  0.7603E-17  0.1000E-09  0.0000E+00  0.5576E+16
   -0.412483    0.58387  0.1981E-10  0.1219E-13  0.7603E-17  0.1000E-09  0.0000E+00  0.5457E+16
   -0.481232    0.68224  0.1981E-10  0.1219E-13  0.7603E-17  0.1000E-09  0.0000E+00  0.5352E+16
   -0.549982    0.78183  0.1980E-10  0.1219E-13  0.7603E-17  0.1000E-09  0.0000E+00  0.5257E+16
   -0.618732    0.88293  0.1980E-10  0.1219E-13  0.7603E-17  0.1000E-09  0.0000E+00  0.5170E+16
   -0.687482    0.98584  0.1980E-10  0.1219E-13  0.7603E-17  0.1000E-09  0.0000E+00  0.5098E+16
   -0.756233    1.09110  0.1980E-10  0.1219E-13  0.7603E-17  0.1000E-09  0.0000E+00  0.5033E+16
   -0.824984    1.19910  0.1980E-10  0.1219E-13  0.7603E-17  0.1000E-09  0.0000E+00  0.4963E+16
   -0.893735    1.31007  0.1980E-10  0.1219E-13  0.7603E-17  0.1000E-09  0.0000E+00  0.4884E+16
   -0.962487    1.42418  0.1980E-10  0.1219E-13  0.7603E-17  0.1000E-09  0.0000E+00  0.4794E+16
   -1.031238    1.54158  0.1980E-10  0.1219E-13  0.7603E-17  0.1000E-09  0.0000E+00  0.4689E+16
   -1.099990    1.66238  0.1978E-10  0.1219E-13  0.7603E-17  0.1000E-09  0.0000E+00  0.4566E+16
   -1.168742    1.78664  0.1975E-10  0.1219E-13  0.7603E-17  0.1000E-09  0.0000E+00  0.4423E+16
   -1.237494    1.91438  0.1969E-10  0.3402E-13  0.7603E-17  0.1000E-09  0.0000E+00  0.4258E+16
   -1.306247    2.04557  0.1961E-10  0.1040E-12  0.1645E-16  0.1000E-09  0.0000E+00  0.4070E+16
   -1.374999    2.18015  0.1951E-10  0.2782E-12  0.4064E-16  0.1000E-09  0.0000E+00  0.3863E+16
   -1.443751    2.31821  0.1942E-10  0.7095E-12  0.9987E-16  0.1000E-09  0.0000E+00  0.3631E+16
   -1.512503    2.45966  0.1936E-10  0.1773E-11  0.2421E-15  0.1000E-09  0.0000E+00  0.3372E+16
   -1.581255    2.60429  0.1932E-10  0.4367E-11  0.5794E-15  0.1000E-09  0.0000E+00  0.3088E+16
   -1.650007    2.75184  0.1930E-10  0.1063E-10  0.1370E-14  0.1000E-09  0.0000E+00  0.2778E+16
   -1.718759    2.90200  0.1929E-10  0.2555E-10  0.3204E-14  0.1000E-09  0.0000E+00  0.2447E+16
   -1.787511    3.05449  0.1928E-10  0.6228E-10  0.7592E-14  0.1000E-09  0.0000E+00  0.2116E+16
   -1.856262    3.21056  0.1927E-10  0.1527E-09  0.1810E-13  0.1000E-09  0.0000E+00  0.1761E+16
   -1.925014    3.37029  0.1926E-10  0.3728E-09  0.4302E-13  0.1586E-09  0.0000E+00  0.1380E+16
   -1.993765    3.53379  0.1923E-10  0.9063E-09  0.1018E-12  0.5347E-09  0.0000E+00  0.9687E+15
   -2.062515    3.70027  0.1920E-10  0.2141E-08  0.2344E-12  0.2258E-08  0.0000E+00  0.5278E+15
   -2.131266    3.86521  0.1917E-10  0.4929E-08  0.5266E-12  0.2399E-07  0.0000E+00  0.1112E+15
   -2.200016    4.00819  0.1917E-10  0.6022E-08  0.6485E-12  0.2358E-04  0.0000E+00 -0.3478E+12
   -2.268765    4.00918  0.1917E-10  0.6453E-08  0.7121E-12  0.2385E-04  0.0000E+00 -0.3604E+12
   -2.337514    4.01017  0.1917E-10  0.6779E-08  0.7839E-12  0.2312E-04  0.0000E+00 -0.3901E+12
   -2.406263    4.01119  0.1917E-10  0.7004E-08  0.8738E-12  0.2128E-04  0.0000E+00 -0.4462E+12
   -2.475011    4.01231  0.1917E-10  0.7116E-08  0.1003E-11  0.1816E-04  0.0000E+00 -0.5552E+12
   -2.543758    4.01364  0.1917E-10  0.7070E-08  0.1224E-11  0.1357E-04  0.0000E+00 -0.8033E+12
   -2.612505    4.01545  0.1917E-10  0.6715E-08  0.1749E-11  0.7444E-05  0.0000E+00 -0.1666E+13
   -2.681252    4.01890  0.1917E-10  0.5058E-08  0.4690E-11  0.1177E-05  0.0000E+00 -0.1613E+14
   -2.749997    4.04219  0.1917E-10  0.0000E+00  0.0000E+00  0.0000E+00  0.0000E+00  0.0000E+00
