 1 - depth, m
 2 - temperature, C
 3 - salinity, kg/kg
 4 - turbulent kinetic energy, m**2/s**2
 5 - dissipation rate, m**2/s**3
 6 - kinematic heat conductance, m**2/s
 7 - modulus of horizontal velocity, m/s
 8 - Richardson number, n/d
   -0.000000   -0.00000  0.2152E-11  0.1219E-13  0.7603E-17  0.1000E-09  0.0000E+00  0.8267E+16
   -0.068746    0.12615  0.1317E-11  0.1219E-13  0.7603E-17  0.1000E-09  0.0000E+00  0.7932E+16
   -0.137492    0.25145  0.9456E-12  0.1219E-13  0.7603E-17  0.1000E-09  0.0000E+00  0.7618E+16
   -0.206239    0.37616  0.8112E-12  0.1219E-13  0.7603E-17  0.1000E-09  0.0000E+00  0.7324E+16
   -0.274987    0.50052  0.7696E-12  0.1219E-13  0.7603E-17  0.1000E-09  0.0000E+00  0.7047E+16
   -0.343735    0.62478  0.7584E-12  0.1219E-13  0.7603E-17  0.1000E-09  0.0000E+00  0.6785E+16
   -0.412483    0.74920  0.7557E-12  0.1219E-13  0.7603E-17  0.1000E-09  0.0000E+00  0.6535E+16
   -0.481232    0.87400  0.7551E-12  0.1219E-13  0.7603E-17  0.1000E-09  0.0000E+00  0.6295E+16
   -0.549982    0.99941  0.7550E-12  0.1219E-13  0.7603E-17  0.1000E-09  0.0000E+00  0.6063E+16
   -0.618732    1.12566  0.7550E-12  0.1219E-13  0.7603E-17  0.1000E-09  0.0000E+00  0.5835E+16
   -0.687482    1.25294  0.7549E-12  0.1219E-13  0.7603E-17  0.1000E-09  0.0000E+00  0.5619E+16
   -0.756233    1.38166  0.7549E-12  0.1219E-13  0.7603E-17  0.1000E-09  0.0000E+00  0.5406E+16
   -0.824984    1.51212  0.7549E-12  0.1219E-13  0.7603E-17  0.1000E-09  0.0000E+00  0.5189E+16
   -0.893735    1.64444  0.7548E-12  0.5776E-13  0.8915E-17  0.1000E-09  0.0000E+00  0.4964E+16
   -0.962487    1.77873  0.7546E-12  0.1598E-12  0.1841E-16  0.1000E-09  0.0000E+00  0.4729E+16
   -1.031239    1.91506  0.7540E-12  0.3785E-12  0.4044E-16  0.1000E-09  0.0000E+00  0.4483E+16
   -1.099990    2.05347  0.7529E-12  0.8532E-12  0.8798E-16  0.1000E-09  0.0000E+00  0.4224E+16
   -1.168742    2.19399  0.7511E-12  0.1885E-11  0.1891E-15  0.1000E-09  0.0000E+00  0.3951E+16
   -1.237495    2.33657  0.7484E-12  0.4114E-11  0.4024E-15  0.1000E-09  0.0000E+00  0.3664E+16
   -1.306247    2.48117  0.7451E-12  0.8890E-11  0.8482E-15  0.1000E-09  0.0000E+00  0.3363E+16
   -1.374999    2.62770  0.7418E-12  0.1904E-10  0.1772E-14  0.1000E-09  0.0000E+00  0.3049E+16
   -1.443751    2.77616  0.7391E-12  0.4040E-10  0.3671E-14  0.1000E-09  0.0000E+00  0.2721E+16
   -1.512503    2.92645  0.7371E-12  0.8501E-10  0.7539E-14  0.1000E-09  0.0000E+00  0.2379E+16
   -1.581256    3.07838  0.7359E-12  0.1774E-09  0.1536E-13  0.1000E-09  0.0000E+00  0.2024E+16
   -1.650008    3.23174  0.7351E-12  0.3669E-09  0.3104E-13  0.1000E-09  0.0000E+00  0.1657E+16
   -1.718760    3.38629  0.7344E-12  0.7529E-09  0.6222E-13  0.2470E-09  0.0000E+00  0.1282E+16
   -1.787511    3.54170  0.7337E-12  0.1567E-08  0.1265E-12  0.7057E-09  0.0000E+00  0.9119E+15
   -1.856263    3.70007  0.7328E-12  0.3289E-08  0.2594E-12  0.2544E-08  0.0000E+00  0.5188E+15
   -1.925014    3.86013  0.7321E-12  0.6830E-08  0.5275E-12  0.2194E-07  0.0000E+00  0.1222E+15
   -1.993765    4.00480  0.7320E-12  0.7600E-08  0.5901E-12  0.3972E-04  0.0000E+00 -0.1781E+12
   -2.062516    4.00541  0.7320E-12  0.7931E-08  0.6233E-12  0.4038E-04  0.0000E+00 -0.1814E+12
   -2.131266    4.00600  0.7320E-12  0.8202E-08  0.6585E-12  0.4020E-04  0.0000E+00 -0.1879E+12
   -2.200016    4.00660  0.7320E-12  0.8414E-08  0.6972E-12  0.3923E-04  0.0000E+00 -0.1986E+12
   -2.268766    4.00722  0.7320E-12  0.8569E-08  0.7420E-12  0.3742E-04  0.0000E+00 -0.2148E+12
   -2.337515    4.00786  0.7320E-12  0.8668E-08  0.7990E-12  0.3458E-04  0.0000E+00 -0.2402E+12
   -2.406263    4.00856  0.7320E-12  0.8701E-08  0.8770E-12  0.3055E-04  0.0000E+00 -0.2819E+12
   -2.475011    4.00936  0.7320E-12  0.8644E-08  0.9961E-12  0.2509E-04  0.0000E+00 -0.3578E+12
   -2.543759    4.01033  0.7320E-12  0.8441E-08  0.1210E-11  0.1804E-04  0.0000E+00 -0.5251E+12
   -2.612506    4.01169  0.7320E-12  0.7912E-08  0.1733E-11  0.9442E-05  0.0000E+00 -0.1093E+13
   -2.681252    4.01430  0.7320E-12  0.5667E-08  0.4966E-11  0.1206E-05  0.0000E+00 -0.1164E+14
   -2.749998    4.03395  0.7320E-12  0.0000E+00  0.0000E+00  0.0000E+00  0.0000E+00  0.0000E+00
