 1 - depth, m
 2 - temperature, C
 3 - salinity, kg/kg
 4 - turbulent kinetic energy, m**2/s**2
 5 - dissipation rate, m**2/s**3
 6 - kinematic heat conductance, m**2/s
 7 - modulus of horizontal velocity, m/s
 8 - Richardson number, n/d
   -0.000000   -0.00000  0.2037E-11  0.1219E-13  0.7603E-17  0.1000E-09  0.0000E+00  0.7097E+16
   -0.068746    0.10802  0.1223E-11  0.1219E-13  0.7603E-17  0.1000E-09  0.0000E+00  0.6821E+16
   -0.137492    0.21497  0.8899E-12  0.1219E-13  0.7603E-17  0.1000E-09  0.0000E+00  0.6582E+16
   -0.206239    0.32132  0.7882E-12  0.1219E-13  0.7603E-17  0.1000E-09  0.0000E+00  0.6375E+16
   -0.274987    0.42753  0.7622E-12  0.1219E-13  0.7603E-17  0.1000E-09  0.0000E+00  0.6194E+16
   -0.343735    0.53406  0.7564E-12  0.1219E-13  0.7603E-17  0.1000E-09  0.0000E+00  0.6035E+16
   -0.412483    0.64131  0.7552E-12  0.1219E-13  0.7603E-17  0.1000E-09  0.0000E+00  0.5894E+16
   -0.481232    0.74970  0.7550E-12  0.1219E-13  0.7603E-17  0.1000E-09  0.0000E+00  0.5768E+16
   -0.549982    0.85960  0.7550E-12  0.1219E-13  0.7603E-17  0.1000E-09  0.0000E+00  0.5652E+16
   -0.618732    0.97138  0.7549E-12  0.1219E-13  0.7603E-17  0.1000E-09  0.0000E+00  0.5542E+16
   -0.687482    1.08538  0.7549E-12  0.1219E-13  0.7603E-17  0.1000E-09  0.0000E+00  0.5447E+16
   -0.756233    1.20220  0.7549E-12  0.1219E-13  0.7603E-17  0.1000E-09  0.0000E+00  0.5356E+16
   -0.824984    1.32230  0.7549E-12  0.1219E-13  0.7603E-17  0.1000E-09  0.0000E+00  0.5257E+16
   -0.893735    1.44595  0.7549E-12  0.4153E-13  0.7603E-17  0.1000E-09  0.0000E+00  0.5145E+16
   -0.962486    1.57339  0.7548E-12  0.1193E-12  0.1331E-16  0.1000E-09  0.0000E+00  0.5019E+16
   -1.031238    1.70481  0.7545E-12  0.2819E-12  0.2783E-16  0.1000E-09  0.0000E+00  0.4872E+16
   -1.099990    1.84040  0.7538E-12  0.6218E-12  0.5867E-16  0.1000E-09  0.0000E+00  0.4703E+16
   -1.168742    1.98026  0.7523E-12  0.1335E-11  0.1225E-15  0.1000E-09  0.0000E+00  0.4507E+16
   -1.237494    2.12449  0.7498E-12  0.2829E-11  0.2530E-15  0.1000E-09  0.0000E+00  0.4282E+16
   -1.306246    2.27310  0.7463E-12  0.5934E-11  0.5184E-15  0.1000E-09  0.0000E+00  0.4026E+16
   -1.374999    2.42608  0.7425E-12  0.1234E-10  0.1053E-14  0.1000E-09  0.0000E+00  0.3742E+16
   -1.443751    2.58356  0.7394E-12  0.2547E-10  0.2123E-14  0.1000E-09  0.0000E+00  0.3424E+16
   -1.512503    2.74546  0.7372E-12  0.5214E-10  0.4249E-14  0.1000E-09  0.0000E+00  0.3068E+16
   -1.581255    2.91154  0.7359E-12  0.1059E-09  0.8438E-14  0.1000E-09  0.0000E+00  0.2677E+16
   -1.650007    3.08148  0.7351E-12  0.2135E-09  0.1664E-13  0.1000E-09  0.0000E+00  0.2251E+16
   -1.718759    3.25486  0.7346E-12  0.4274E-09  0.3256E-13  0.1000E-09  0.0000E+00  0.1796E+16
   -1.787511    3.43133  0.7341E-12  0.8677E-09  0.6465E-13  0.2464E-09  0.0000E+00  0.1336E+16
   -1.856262    3.61384  0.7334E-12  0.1781E-08  0.1298E-12  0.8013E-09  0.0000E+00  0.8247E+15
   -1.925013    3.80212  0.7323E-12  0.3650E-08  0.2605E-12  0.4986E-08  0.0000E+00  0.2660E+15
   -1.993764    3.99170  0.7318E-12  0.4337E-08  0.3116E-12  0.1973E-04  0.0000E+00 -0.1372E+12
   -2.062515    3.99313  0.7318E-12  0.4673E-08  0.3428E-12  0.2238E-04  0.0000E+00 -0.1488E+12
   -2.131265    3.99441  0.7318E-12  0.4970E-08  0.3770E-12  0.2397E-04  0.0000E+00 -0.1622E+12
   -2.200015    3.99560  0.7318E-12  0.5228E-08  0.4150E-12  0.2465E-04  0.0000E+00 -0.1796E+12
   -2.268765    3.99676  0.7318E-12  0.5446E-08  0.4587E-12  0.2442E-04  0.0000E+00 -0.2031E+12
   -2.337514    3.99793  0.7318E-12  0.5626E-08  0.5130E-12  0.2322E-04  0.0000E+00 -0.2377E+12
   -2.406263    3.99917  0.7318E-12  0.5758E-08  0.5852E-12  0.2094E-04  0.0000E+00 -0.2927E+12
   -2.475011    4.00055  0.7318E-12  0.5826E-08  0.6917E-12  0.1745E-04  0.0000E+00 -0.3922E+12
   -2.543758    4.00221  0.7318E-12  0.5785E-08  0.8766E-12  0.1265E-04  0.0000E+00 -0.6153E+12
   -2.612505    4.00451  0.7318E-12  0.5502E-08  0.1317E-11  0.6646E-05  0.0000E+00 -0.1412E+13
   -2.681251    4.00893  0.7318E-12  0.4170E-08  0.3724E-11  0.1030E-05  0.0000E+00 -0.1536E+14
   -2.749997    4.03604  0.7318E-12  0.0000E+00  0.0000E+00  0.0000E+00  0.0000E+00  0.0000E+00
