 1 - depth, m
 2 - temperature, C
 3 - salinity, kg/kg
 4 - turbulent kinetic energy, m**2/s**2
 5 - dissipation rate, m**2/s**3
 6 - kinematic heat conductance, m**2/s
 7 - modulus of horizontal velocity, m/s
 8 - Richardson number, n/d
   -0.000000   -0.00000  0.1524E-11  0.1219E-13  0.7603E-17  0.1000E-09  0.0000E+00  0.5025E+16
   -0.068746    0.07616  0.8050E-12  0.1219E-13  0.7603E-17  0.1000E-09  0.0000E+00  0.4828E+16
   -0.137492    0.15085  0.6266E-12  0.1219E-13  0.7603E-17  0.1000E-09  0.0000E+00  0.4671E+16
   -0.206239    0.22463  0.5863E-12  0.1219E-13  0.7603E-17  0.1000E-09  0.0000E+00  0.4555E+16
   -0.274987    0.29807  0.5781E-12  0.1219E-13  0.7603E-17  0.1000E-09  0.0000E+00  0.4475E+16
   -0.343735    0.37178  0.5767E-12  0.1219E-13  0.7603E-17  0.1000E-09  0.0000E+00  0.4431E+16
   -0.412483    0.44637  0.5764E-12  0.1219E-13  0.7603E-17  0.1000E-09  0.0000E+00  0.4418E+16
   -0.481232    0.52244  0.5764E-12  0.1219E-13  0.7603E-17  0.1000E-09  0.0000E+00  0.4435E+16
   -0.549982    0.60062  0.5764E-12  0.1219E-13  0.7603E-17  0.1000E-09  0.0000E+00  0.4476E+16
   -0.618732    0.68151  0.5764E-12  0.1219E-13  0.7603E-17  0.1000E-09  0.0000E+00  0.4539E+16
   -0.687482    0.76574  0.5764E-12  0.1219E-13  0.7603E-17  0.1000E-09  0.0000E+00  0.4634E+16
   -0.756233    0.85419  0.5764E-12  0.1219E-13  0.7603E-17  0.1000E-09  0.0000E+00  0.4748E+16
   -0.824984    0.94763  0.5764E-12  0.1219E-13  0.7603E-17  0.1000E-09  0.0000E+00  0.4864E+16
   -0.893735    1.04659  0.5764E-12  0.1219E-13  0.7603E-17  0.1000E-09  0.0000E+00  0.4977E+16
   -0.962487    1.15162  0.5764E-12  0.1219E-13  0.7603E-17  0.1000E-09  0.0000E+00  0.5080E+16
   -1.031238    1.26319  0.5763E-12  0.1219E-13  0.7603E-17  0.1000E-09  0.0000E+00  0.5164E+16
   -1.099990    1.38173  0.5761E-12  0.1219E-13  0.7603E-17  0.1000E-09  0.0000E+00  0.5222E+16
   -1.168742    1.50760  0.5754E-12  0.4352E-13  0.9595E-17  0.1000E-09  0.0000E+00  0.5244E+16
   -1.237494    1.64112  0.5739E-12  0.1356E-12  0.2413E-16  0.1000E-09  0.0000E+00  0.5225E+16
   -1.306246    1.78249  0.5712E-12  0.3804E-12  0.6403E-16  0.1000E-09  0.0000E+00  0.5155E+16
   -1.374999    1.93184  0.5678E-12  0.1030E-11  0.1675E-15  0.1000E-09  0.0000E+00  0.5041E+16
   -1.443751    2.08966  0.5648E-12  0.2740E-11  0.4319E-15  0.1000E-09  0.0000E+00  0.4865E+16
   -1.512503    2.25600  0.5630E-12  0.7183E-11  0.1098E-14  0.1000E-09  0.0000E+00  0.4616E+16
   -1.581255    2.43068  0.5620E-12  0.1857E-10  0.2756E-14  0.1000E-09  0.0000E+00  0.4291E+16
   -1.650007    2.61341  0.5614E-12  0.4740E-10  0.6829E-14  0.1000E-09  0.0000E+00  0.3889E+16
   -1.718759    2.80379  0.5610E-12  0.1194E-09  0.1671E-13  0.1000E-09  0.0000E+00  0.3413E+16
   -1.787511    3.00139  0.5608E-12  0.3050E-09  0.4144E-13  0.1000E-09  0.0000E+00  0.2888E+16
   -1.856262    3.20749  0.5606E-12  0.7822E-09  0.1032E-12  0.2300E-09  0.0000E+00  0.2285E+16
   -1.925013    3.42242  0.5604E-12  0.1995E-08  0.2560E-12  0.8158E-09  0.0000E+00  0.1597E+16
   -1.993764    3.64635  0.5596E-12  0.5049E-08  0.6303E-12  0.3951E-08  0.0000E+00  0.8121E+15
   -2.062515    3.87544  0.5586E-12  0.1185E-07  0.1448E-11  0.8716E-07  0.0000E+00  0.8489E+14
   -2.131265    4.02499  0.5585E-12  0.1342E-07  0.1650E-11  0.4580E-04  0.0000E+00 -0.4520E+12
   -2.200015    4.02573  0.5585E-12  0.1404E-07  0.1753E-11  0.4579E-04  0.0000E+00 -0.4610E+12
   -2.268765    4.02647  0.5585E-12  0.1450E-07  0.1865E-11  0.4459E-04  0.0000E+00 -0.4830E+12
   -2.337514    4.02723  0.5585E-12  0.1483E-07  0.2000E-11  0.4204E-04  0.0000E+00 -0.5236E+12
   -2.406263    4.02804  0.5585E-12  0.1500E-07  0.2177E-11  0.3793E-04  0.0000E+00 -0.5946E+12
   -2.475011    4.02894  0.5585E-12  0.1500E-07  0.2441E-11  0.3196E-04  0.0000E+00 -0.7269E+12
   -2.543758    4.03002  0.5585E-12  0.1474E-07  0.2905E-11  0.2377E-04  0.0000E+00 -0.1016E+13
   -2.612505    4.03148  0.5585E-12  0.1392E-07  0.4014E-11  0.1317E-04  0.0000E+00 -0.1958E+13
   -2.681252    4.03417  0.5585E-12  0.1014E-07  0.1105E-10  0.1767E-05  0.0000E+00 -0.1858E+14
   -2.749997    4.05461  0.5585E-12  0.0000E+00  0.0000E+00  0.0000E+00  0.0000E+00  0.0000E+00
