 1 - depth, m
 2 - temperature, C
 3 - salinity, kg/kg
 4 - turbulent kinetic energy, m**2/s**2
 5 - dissipation rate, m**2/s**3
 6 - kinematic heat conductance, m**2/s
 7 - modulus of horizontal velocity, m/s
 8 - Richardson number, n/d
   -0.000000   11.68114  0.2176E-11  0.1487E-04  0.6822E-06  0.3466E-04  0.2608E-01 -0.3524E-01
   -0.068746   11.71597  0.2176E-11  0.1414E-04  0.2399E-06  0.9766E-04  0.1689E-01 -0.9824E-01
   -0.137492   11.72774  0.2176E-11  0.1373E-04  0.1383E-06  0.1764E-03  0.1368E-01 -0.1668E+00
   -0.206239   11.73407  0.2176E-11  0.1347E-04  0.9569E-07  0.2986E-03  0.1187E-01  0.3474E+02
   -0.274987   11.73792  0.2176E-11  0.1332E-04  0.7327E-07  0.4753E-03  0.1069E-01  0.2409E+02
   -0.343735   11.74036  0.2176E-11  0.1325E-04  0.6007E-07  0.7444E-03  0.9856E-02  0.6184E+02
   -0.412484   11.74187  0.2176E-11  0.1327E-04  0.5167E-07  0.1047E-02  0.9229E-02  0.8688E+02
   -0.481233   11.74283  0.2176E-11  0.1335E-04  0.4571E-07  0.1202E-02  0.8705E-02  0.7903E+01
   -0.549983   11.74363  0.2176E-11  0.1346E-04  0.4104E-07  0.1258E-02  0.8217E-02  0.8861E+01
   -0.618733   11.74436  0.2176E-11  0.1358E-04  0.3727E-07  0.1327E-02  0.7753E-02  0.9584E+01
   -0.687483   11.74504  0.2176E-11  0.1369E-04  0.3418E-07  0.1392E-02  0.7317E-02  0.1014E+02
   -0.756234   11.74567  0.2176E-11  0.1380E-04  0.3160E-07  0.1457E-02  0.6901E-02  0.1069E+02
   -0.824985   11.74625  0.2176E-11  0.1389E-04  0.2942E-07  0.1519E-02  0.6503E-02  0.1121E+02
   -0.893737   11.74679  0.2176E-11  0.1396E-04  0.2755E-07  0.1581E-02  0.6120E-02  0.1173E+02
   -0.962488   11.74730  0.2176E-11  0.1400E-04  0.2592E-07  0.1641E-02  0.5750E-02  0.1225E+02
   -1.031240   11.74777  0.2176E-11  0.1403E-04  0.2450E-07  0.1698E-02  0.5391E-02  0.1280E+02
   -1.099992   11.74822  0.2176E-11  0.1402E-04  0.2325E-07  0.1751E-02  0.5041E-02  0.1338E+02
   -1.168744   11.74864  0.2176E-11  0.1398E-04  0.2215E-07  0.1800E-02  0.4700E-02  0.1401E+02
   -1.237496   11.74903  0.2176E-11  0.1392E-04  0.2116E-07  0.1843E-02  0.4366E-02  0.1474E+02
   -1.306249   11.74941  0.2176E-11  0.1382E-04  0.2028E-07  0.1879E-02  0.4038E-02  0.1559E+02
   -1.375001   11.74976  0.2176E-11  0.1369E-04  0.1949E-07  0.1906E-02  0.3716E-02  0.1663E+02
   -1.443753   11.75010  0.2176E-11  0.1352E-04  0.1879E-07  0.1922E-02  0.3399E-02  0.1796E+02
   -1.512506   11.75043  0.2176E-11  0.1332E-04  0.1816E-07  0.1928E-02  0.3087E-02  0.1976E+02
   -1.581258   11.75075  0.2176E-11  0.1309E-04  0.1760E-07  0.1920E-02  0.2777E-02  0.2233E+02
   -1.650010   11.75105  0.2176E-11  0.1283E-04  0.1711E-07  0.1904E-02  0.2471E-02  0.2633E+02
   -1.718762   11.75135  0.2176E-11  0.1253E-04  0.1667E-07  0.1867E-02  0.2168E-02  0.3045E+02
   -1.787514   11.75165  0.2176E-11  0.1219E-04  0.1627E-07  0.1862E-02  0.1866E-02  0.7551E+01
   -1.856265   11.75194  0.2176E-11  0.1181E-04  0.1595E-07  0.1861E-02  0.1607E-02  0.3769E+01
   -1.925017   11.75222  0.2176E-11  0.1142E-04  0.1574E-07  0.1876E-02  0.1386E-02  0.2315E+01
   -1.993768   11.75250  0.2176E-11  0.1101E-04  0.1566E-07  0.1901E-02  0.1199E-02  0.1662E+01
   -2.062519   11.75278  0.2176E-11  0.1062E-04  0.1574E-07  0.1896E-02  0.1041E-02  0.1347E+01
   -2.131269   11.75304  0.2176E-11  0.1025E-04  0.1600E-07  0.1860E-02  0.9026E-03  0.1098E+01
   -2.200019   11.75331  0.2176E-11  0.9906E-05  0.1646E-07  0.1783E-02  0.7795E-03  0.8986E+00
   -2.268769   11.75358  0.2176E-11  0.9592E-05  0.1716E-07  0.1659E-02  0.6711E-03  0.7060E+00
   -2.337518   11.75386  0.2176E-11  0.9300E-05  0.1817E-07  0.1489E-02  0.5796E-03  0.5837E+00
   -2.406267   11.75418  0.2176E-11  0.9025E-05  0.1961E-07  0.1343E-02  0.5038E-03  0.5951E+00
   -2.475015   11.75451  0.2176E-11  0.8736E-05  0.2204E-07  0.1138E-02  0.4414E-03  0.1197E+03
   -2.543762   11.75494  0.2176E-11  0.8363E-05  0.2675E-07  0.1025E-02  0.3819E-03  0.1477E+03
   -2.612510   11.75545  0.2176E-11  0.7687E-05  0.4034E-07  0.5462E-03  0.3263E-03  0.2588E+03
   -2.681256   11.75702  0.2176E-11  0.4697E-05  0.1518E-06  0.5743E-04  0.2357E-03 -0.1223E+05
   -2.750002   11.76533  0.2176E-11  0.0000E+00  0.0000E+00  0.0000E+00  0.2554E-03  0.0000E+00
