 1 - depth, m
 2 - temperature, C
 3 - salinity, kg/kg
 4 - turbulent kinetic energy, m**2/s**2
 5 - dissipation rate, m**2/s**3
 6 - kinematic heat conductance, m**2/s
 7 - modulus of horizontal velocity, m/s
 8 - Richardson number, n/d
   -0.000000    4.81934  0.9355E-10  0.8202E-04  0.1945E-04  0.9317E-04  0.8657E-01 -0.1314E+01
   -0.068746    4.90481  0.9355E-10  0.4841E-04  0.4338E-05  0.1124E-03  0.4141E-01 -0.2572E-01
   -0.137492    4.92237  0.9355E-10  0.3955E-04  0.1692E-05  0.1473E-03  0.3339E-01 -0.5772E-02
   -0.206239    4.93442  0.9355E-10  0.3506E-04  0.8460E-06  0.1914E-03  0.2856E-01 -0.8056E-02
   -0.274987    4.94361  0.9355E-10  0.3248E-04  0.5121E-06  0.2414E-03  0.2503E-01 -0.1064E-01
   -0.343735    4.95079  0.9355E-10  0.3083E-04  0.3528E-06  0.2947E-03  0.2231E-01 -0.1340E-01
   -0.412484    4.95654  0.9355E-10  0.2966E-04  0.2644E-06  0.3502E-03  0.2014E-01 -0.1632E-01
   -0.481233    4.96127  0.9355E-10  0.2873E-04  0.2096E-06  0.4067E-03  0.1836E-01 -0.1935E-01
   -0.549983    4.96523  0.9355E-10  0.2797E-04  0.1727E-06  0.4633E-03  0.1687E-01 -0.2243E-01
   -0.618733    4.96861  0.9355E-10  0.2731E-04  0.1463E-06  0.5194E-03  0.1558E-01 -0.2550E-01
   -0.687483    4.97154  0.9355E-10  0.2672E-04  0.1267E-06  0.5744E-03  0.1445E-01 -0.2851E-01
   -0.756234    4.97412  0.9355E-10  0.2619E-04  0.1116E-06  0.6278E-03  0.1345E-01 -0.3143E-01
   -0.824985    4.97641  0.9355E-10  0.2571E-04  0.9958E-07  0.6792E-03  0.1255E-01 -0.3421E-01
   -0.893736    4.97847  0.9355E-10  0.2526E-04  0.8991E-07  0.7283E-03  0.1173E-01 -0.3682E-01
   -0.962488    4.98034  0.9355E-10  0.2484E-04  0.8198E-07  0.7747E-03  0.1098E-01 -0.3921E-01
   -1.031240    4.98205  0.9355E-10  0.2445E-04  0.7538E-07  0.8180E-03  0.1029E-01 -0.4134E-01
   -1.099992    4.98362  0.9355E-10  0.2407E-04  0.6982E-07  0.8578E-03  0.9635E-02 -0.4319E-01
   -1.168744    4.98507  0.9355E-10  0.2371E-04  0.6508E-07  0.8937E-03  0.9021E-02 -0.4472E-01
   -1.237496    4.98642  0.9355E-10  0.2335E-04  0.6102E-07  0.9253E-03  0.8439E-02 -0.4588E-01
   -1.306248    4.98769  0.9355E-10  0.2300E-04  0.5749E-07  0.9523E-03  0.7882E-02 -0.4665E-01
   -1.375001    4.98888  0.9355E-10  0.2265E-04  0.5440E-07  0.9741E-03  0.7346E-02 -0.4699E-01
   -1.443753    4.99001  0.9355E-10  0.2229E-04  0.5167E-07  0.9901E-03  0.6826E-02 -0.4688E-01
   -1.512505    4.99109  0.9355E-10  0.2192E-04  0.4922E-07  0.9998E-03  0.6318E-02 -0.4627E-01
   -1.581257    4.99211  0.9355E-10  0.2153E-04  0.4699E-07  0.1002E-02  0.5818E-02 -0.4513E-01
   -1.650009    4.99310  0.9355E-10  0.2110E-04  0.4492E-07  0.9966E-03  0.5320E-02 -0.4339E-01
   -1.718761    4.99406  0.9355E-10  0.2062E-04  0.4294E-07  0.9849E-03  0.4820E-02 -0.4168E-01
   -1.787513    4.99499  0.9355E-10  0.2009E-04  0.4100E-07  0.1032E-02  0.4316E-02 -0.5361E-01
   -1.856265    4.99587  0.9355E-10  0.1953E-04  0.3920E-07  0.1061E-02  0.3885E-02 -0.6749E-01
   -1.925016    4.99671  0.9355E-10  0.1896E-04  0.3757E-07  0.1079E-02  0.3509E-02 -0.8506E-01
   -1.993767    4.99752  0.9355E-10  0.1838E-04  0.3612E-07  0.1079E-02  0.3181E-02 -0.1022E+00
   -2.062518    4.99832  0.9355E-10  0.1782E-04  0.3494E-07  0.1059E-02  0.2884E-02 -0.1139E+00
   -2.131268    4.99911  0.9355E-10  0.1727E-04  0.3404E-07  0.1031E-02  0.2603E-02 -0.1260E+00
   -2.200019    4.99991  0.9355E-10  0.1674E-04  0.3346E-07  0.9918E-03  0.2334E-02 -0.1373E+00
   -2.268768    5.00071  0.9355E-10  0.1622E-04  0.3326E-07  0.9460E-03  0.2074E-02 -0.1579E+00
   -2.337517    5.00153  0.9355E-10  0.1568E-04  0.3358E-07  0.8849E-03  0.1828E-02 -0.1855E+00
   -2.406266    5.00238  0.9355E-10  0.1511E-04  0.3466E-07  0.8026E-03  0.1595E-02 -0.2201E+00
   -2.475014    5.00331  0.9355E-10  0.1448E-04  0.3711E-07  0.6924E-03  0.1373E-02 -0.2664E+00
   -2.543762    5.00435  0.9355E-10  0.1372E-04  0.4243E-07  0.5453E-03  0.1157E-02 -0.3281E+00
   -2.612509    5.00565  0.9355E-10  0.1264E-04  0.5634E-07  0.3478E-03  0.9397E-03 -0.4657E+00
   -2.681255    5.00765  0.9355E-10  0.7505E-05  0.1932E-06  0.3526E-04  0.7120E-03 -0.3946E+05
   -2.750001    5.02726  0.9355E-10  0.0000E+00  0.0000E+00  0.0000E+00  0.7103E-03  0.0000E+00
