 1 - depth, m
 2 - temperature, C
 3 - salinity, kg/kg
 4 - turbulent kinetic energy, m**2/s**2
 5 - dissipation rate, m**2/s**3
 6 - kinematic heat conductance, m**2/s
 7 - modulus of horizontal velocity, m/s
 8 - Richardson number, n/d
   -0.000000   -0.00000  0.2487E-10  0.1219E-13  0.7603E-17  0.1000E-09  0.0000E+00  0.7959E+16
   -0.068746    0.12137  0.1500E-10  0.1219E-13  0.7603E-17  0.1000E-09  0.0000E+00  0.7641E+16
   -0.137492    0.24184  0.1078E-10  0.1219E-13  0.7603E-17  0.1000E-09  0.0000E+00  0.7345E+16
   -0.206239    0.36167  0.9288E-11  0.1219E-13  0.7603E-17  0.1000E-09  0.0000E+00  0.7069E+16
   -0.274987    0.48109  0.8835E-11  0.1219E-13  0.7603E-17  0.1000E-09  0.0000E+00  0.6809E+16
   -0.343735    0.60037  0.8715E-11  0.1219E-13  0.7603E-17  0.1000E-09  0.0000E+00  0.6566E+16
   -0.412483    0.71973  0.8687E-11  0.1219E-13  0.7603E-17  0.1000E-09  0.0000E+00  0.6334E+16
   -0.481232    0.83943  0.8681E-11  0.1219E-13  0.7603E-17  0.1000E-09  0.0000E+00  0.6113E+16
   -0.549982    0.95969  0.8679E-11  0.1219E-13  0.7603E-17  0.1000E-09  0.0000E+00  0.5900E+16
   -0.618732    1.08071  0.8679E-11  0.1219E-13  0.7603E-17  0.1000E-09  0.0000E+00  0.5692E+16
   -0.687482    1.20270  0.8679E-11  0.1219E-13  0.7603E-17  0.1000E-09  0.0000E+00  0.5497E+16
   -0.756233    1.32606  0.8679E-11  0.1219E-13  0.7603E-17  0.1000E-09  0.0000E+00  0.5306E+16
   -0.824984    1.45108  0.8679E-11  0.1219E-13  0.7603E-17  0.1000E-09  0.0000E+00  0.5110E+16
   -0.893735    1.57790  0.8678E-11  0.1219E-13  0.7603E-17  0.1000E-09  0.0000E+00  0.4908E+16
   -0.962487    1.70661  0.8675E-11  0.2328E-13  0.7603E-17  0.1000E-09  0.0000E+00  0.4697E+16
   -1.031239    1.83728  0.8670E-11  0.8255E-13  0.1163E-16  0.1000E-09  0.0000E+00  0.4476E+16
   -1.099990    1.96996  0.8658E-11  0.2155E-12  0.2535E-16  0.1000E-09  0.0000E+00  0.4243E+16
   -1.168742    2.10465  0.8639E-11  0.5090E-12  0.5669E-16  0.1000E-09  0.0000E+00  0.3997E+16
   -1.237495    2.24134  0.8609E-11  0.1161E-11  0.1253E-15  0.1000E-09  0.0000E+00  0.3738E+16
   -1.306247    2.37996  0.8572E-11  0.2607E-11  0.2738E-15  0.1000E-09  0.0000E+00  0.3464E+16
   -1.374999    2.52042  0.8534E-11  0.5786E-11  0.5921E-15  0.1000E-09  0.0000E+00  0.3180E+16
   -1.443751    2.66277  0.8501E-11  0.1271E-10  0.1268E-14  0.1000E-09  0.0000E+00  0.2882E+16
   -1.512503    2.80688  0.8478E-11  0.2767E-10  0.2691E-14  0.1000E-09  0.0000E+00  0.2570E+16
   -1.581256    2.95257  0.8463E-11  0.5965E-10  0.5660E-14  0.1000E-09  0.0000E+00  0.2246E+16
   -1.650008    3.09964  0.8454E-11  0.1274E-09  0.1180E-13  0.1000E-09  0.0000E+00  0.1911E+16
   -1.718759    3.24784  0.8448E-11  0.2699E-09  0.2439E-13  0.1000E-09  0.0000E+00  0.1568E+16
   -1.787511    3.39701  0.8443E-11  0.5796E-09  0.5110E-13  0.2107E-09  0.0000E+00  0.1234E+16
   -1.856263    3.54926  0.8435E-11  0.1256E-08  0.1081E-12  0.6256E-09  0.0000E+00  0.8792E+15
   -1.925014    3.70451  0.8425E-11  0.2718E-08  0.2284E-12  0.2315E-08  0.0000E+00  0.5021E+15
   -1.993765    3.86172  0.8419E-11  0.5809E-08  0.4777E-12  0.2036E-07  0.0000E+00  0.1192E+15
   -2.062516    4.00437  0.8419E-11  0.6605E-08  0.5464E-12  0.3258E-04  0.0000E+00 -0.2026E+12
   -2.131266    4.00507  0.8419E-11  0.6940E-08  0.5828E-12  0.3310E-04  0.0000E+00 -0.2071E+12
   -2.200016    4.00577  0.8419E-11  0.7205E-08  0.6215E-12  0.3282E-04  0.0000E+00 -0.2167E+12
   -2.268766    4.00646  0.8419E-11  0.7405E-08  0.6652E-12  0.3170E-04  0.0000E+00 -0.2329E+12
   -2.337515    4.00719  0.8419E-11  0.7546E-08  0.7195E-12  0.2962E-04  0.0000E+00 -0.2592E+12
   -2.406263    4.00797  0.8419E-11  0.7619E-08  0.7927E-12  0.2641E-04  0.0000E+00 -0.3032E+12
   -2.475011    4.00884  0.8419E-11  0.7604E-08  0.9033E-12  0.2189E-04  0.0000E+00 -0.3846E+12
   -2.543759    4.00991  0.8419E-11  0.7451E-08  0.1100E-11  0.1586E-04  0.0000E+00 -0.5661E+12
   -2.612506    4.01139  0.8419E-11  0.6995E-08  0.1580E-11  0.8361E-05  0.0000E+00 -0.1193E+13
   -2.681252    4.01426  0.8419E-11  0.5062E-08  0.4443E-11  0.1132E-05  0.0000E+00 -0.1271E+14
   -2.749998    4.03534  0.8419E-11  0.0000E+00  0.0000E+00  0.0000E+00  0.0000E+00  0.0000E+00
