 1 - depth, m
 2 - temperature, C
 3 - salinity, kg/kg
 4 - turbulent kinetic energy, m**2/s**2
 5 - dissipation rate, m**2/s**3
 6 - kinematic heat conductance, m**2/s
 7 - modulus of horizontal velocity, m/s
 8 - Richardson number, n/d
   -0.000000    0.00000  0.0000E+00  0.1219E-13  0.7603E-17  0.1000E-09  0.0000E+00  0.5306E+16
   -0.068746    0.08047  0.1236E-12  0.1219E-13  0.7603E-17  0.1000E-09  0.0000E+00  0.5468E+16
   -0.137493    0.16529  0.5152E-12  0.1219E-13  0.7603E-17  0.1000E-09  0.0000E+00  0.5658E+16
   -0.206240    0.25522  0.9384E-12  0.1219E-13  0.7603E-17  0.1000E-09  0.0000E+00  0.5818E+16
   -0.274988    0.35015  0.1215E-11  0.1219E-13  0.7603E-17  0.1000E-09  0.0000E+00  0.5917E+16
   -0.343737    0.44949  0.1314E-11  0.1219E-13  0.7603E-17  0.1000E-09  0.0000E+00  0.5949E+16
   -0.412486    0.55242  0.1292E-11  0.1219E-13  0.7603E-17  0.1000E-09  0.0000E+00  0.5920E+16
   -0.481236    0.65822  0.1217E-11  0.1219E-13  0.7603E-17  0.1000E-09  0.0000E+00  0.5844E+16
   -0.549986    0.76625  0.1137E-11  0.1219E-13  0.7603E-17  0.1000E-09  0.0000E+00  0.5732E+16
   -0.618736    0.87607  0.1075E-11  0.1219E-13  0.7603E-17  0.1000E-09  0.0000E+00  0.5595E+16
   -0.687487    0.98734  0.1034E-11  0.1219E-13  0.7603E-17  0.1000E-09  0.0000E+00  0.5436E+16
   -0.756238    1.09977  0.1009E-11  0.1219E-13  0.7603E-17  0.1000E-09  0.0000E+00  0.5262E+16
   -0.824990    1.21317  0.9963E-12  0.1219E-13  0.7603E-17  0.1000E-09  0.0000E+00  0.5078E+16
   -0.893741    1.32739  0.9899E-12  0.1219E-13  0.7603E-17  0.1000E-09  0.0000E+00  0.4885E+16
   -0.962493    1.44234  0.9866E-12  0.1219E-13  0.7603E-17  0.1000E-09  0.0000E+00  0.4685E+16
   -1.031245    1.55791  0.9848E-12  0.1219E-13  0.7603E-17  0.1000E-09  0.0000E+00  0.4479E+16
   -1.099998    1.67402  0.9835E-12  0.1219E-13  0.7603E-17  0.1000E-09  0.0000E+00  0.4269E+16
   -1.168750    1.79061  0.9820E-12  0.1219E-13  0.7603E-17  0.1000E-09  0.0000E+00  0.4054E+16
   -1.237503    1.90761  0.9802E-12  0.1219E-13  0.7603E-17  0.1000E-09  0.0000E+00  0.3837E+16
   -1.306256    2.02498  0.9780E-12  0.1219E-13  0.7603E-17  0.1000E-09  0.0000E+00  0.3618E+16
   -1.375008    2.14273  0.9754E-12  0.1219E-13  0.7603E-17  0.1000E-09  0.0000E+00  0.3400E+16
   -1.443761    2.26093  0.9726E-12  0.1219E-13  0.7603E-17  0.1000E-09  0.0000E+00  0.3184E+16
   -1.512514    2.37973  0.9697E-12  0.1219E-13  0.7603E-17  0.1000E-09  0.0000E+00  0.2970E+16
   -1.581266    2.49932  0.9669E-12  0.1219E-13  0.7603E-17  0.1000E-09  0.0000E+00  0.2759E+16
   -1.650019    2.62000  0.9643E-12  0.1219E-13  0.7603E-17  0.1000E-09  0.0000E+00  0.2549E+16
   -1.718771    2.74209  0.9621E-12  0.1219E-13  0.7603E-17  0.1000E-09  0.0000E+00  0.2332E+16
   -1.787523    2.86562  0.9603E-12  0.2446E-13  0.7688E-17  0.1000E-09  0.0000E+00  0.2039E+16
   -1.856275    2.98633  0.9588E-12  0.8856E-13  0.2027E-16  0.1000E-09  0.0000E+00  0.1751E+16
   -1.925027    3.10330  0.9576E-12  0.2937E-12  0.6289E-16  0.1000E-09  0.0000E+00  0.1472E+16
   -1.993778    3.21543  0.9567E-12  0.9423E-12  0.1943E-15  0.1000E-09  0.0000E+00  0.1222E+16
   -2.062530    3.32294  0.9559E-12  0.2903E-11  0.5786E-15  0.1000E-09  0.0000E+00  0.1042E+16
   -2.131280    3.43102  0.9553E-12  0.8783E-11  0.1693E-14  0.1000E-09  0.0000E+00  0.8668E+15
   -2.200031    3.54071  0.9548E-12  0.2621E-10  0.4888E-14  0.1000E-09  0.0000E+00  0.6877E+15
   -2.268781    3.65269  0.9545E-12  0.7789E-10  0.1406E-13  0.1434E-09  0.0000E+00  0.4976E+15
   -2.337530    3.76711  0.9543E-12  0.2331E-09  0.4077E-13  0.7008E-09  0.0000E+00  0.2947E+15
   -2.406280    3.88373  0.9542E-12  0.6953E-09  0.1179E-12  0.7263E-08  0.0000E+00  0.8155E+14
   -2.475028    3.99725  0.9541E-12  0.1541E-08  0.2611E-12  0.3827E-05  0.0000E+00 -0.8586E+12
   -2.543776    4.00148  0.9541E-12  0.1871E-08  0.3629E-12  0.3832E-05  0.0000E+00 -0.1100E+13
   -2.612524    4.00557  0.9541E-12  0.1951E-08  0.5239E-12  0.2540E-05  0.0000E+00 -0.1988E+13
   -2.681270    4.01131  0.9541E-12  0.1481E-08  0.1124E-11  0.4560E-06  0.0000E+00 -0.1184E+14
   -2.750017    4.03255  0.9541E-12  0.0000E+00  0.0000E+00  0.0000E+00  0.0000E+00  0.0000E+00
