 1 - depth, m
 2 - temperature, C
 3 - salinity, kg/kg
 4 - turbulent kinetic energy, m**2/s**2
 5 - dissipation rate, m**2/s**3
 6 - kinematic heat conductance, m**2/s
 7 - modulus of horizontal velocity, m/s
 8 - Richardson number, n/d
   -0.000000   -0.00000  0.9747E-10  0.1219E-13  0.7603E-17  0.1000E-09  0.0000E+00  0.6705E+16
   -0.068746    0.10198  0.5650E-10  0.1219E-13  0.7603E-17  0.1000E-09  0.0000E+00  0.6461E+16
   -0.137492    0.20302  0.4070E-10  0.1219E-13  0.7603E-17  0.1000E-09  0.0000E+00  0.6236E+16
   -0.206239    0.30335  0.3557E-10  0.1219E-13  0.7603E-17  0.1000E-09  0.0000E+00  0.6031E+16
   -0.274987    0.40322  0.3415E-10  0.1219E-13  0.7603E-17  0.1000E-09  0.0000E+00  0.5843E+16
   -0.343735    0.50287  0.3382E-10  0.1219E-13  0.7603E-17  0.1000E-09  0.0000E+00  0.5670E+16
   -0.412483    0.60255  0.3375E-10  0.1219E-13  0.7603E-17  0.1000E-09  0.0000E+00  0.5511E+16
   -0.481232    0.70252  0.3373E-10  0.1219E-13  0.7603E-17  0.1000E-09  0.0000E+00  0.5364E+16
   -0.549982    0.80300  0.3373E-10  0.1219E-13  0.7603E-17  0.1000E-09  0.0000E+00  0.5227E+16
   -0.618732    0.90423  0.3373E-10  0.1219E-13  0.7603E-17  0.1000E-09  0.0000E+00  0.5096E+16
   -0.687482    1.00641  0.3373E-10  0.1219E-13  0.7603E-17  0.1000E-09  0.0000E+00  0.4980E+16
   -0.756233    1.10996  0.3373E-10  0.1219E-13  0.7603E-17  0.1000E-09  0.0000E+00  0.4872E+16
   -0.824984    1.21518  0.3373E-10  0.1219E-13  0.7603E-17  0.1000E-09  0.0000E+00  0.4761E+16
   -0.893735    1.32221  0.3372E-10  0.1219E-13  0.7603E-17  0.1000E-09  0.0000E+00  0.4646E+16
   -0.962487    1.43116  0.3371E-10  0.1219E-13  0.7603E-17  0.1000E-09  0.0000E+00  0.4524E+16
   -1.031238    1.54212  0.3369E-10  0.1219E-13  0.7603E-17  0.1000E-09  0.0000E+00  0.4393E+16
   -1.099990    1.65515  0.3364E-10  0.1219E-13  0.7603E-17  0.1000E-09  0.0000E+00  0.4253E+16
   -1.168742    1.77027  0.3354E-10  0.1219E-13  0.7603E-17  0.1000E-09  0.0000E+00  0.4101E+16
   -1.237495    1.88747  0.3340E-10  0.1219E-13  0.7603E-17  0.1000E-09  0.0000E+00  0.3936E+16
   -1.306247    2.00670  0.3323E-10  0.1219E-13  0.7603E-17  0.1000E-09  0.0000E+00  0.3757E+16
   -1.374999    2.12791  0.3307E-10  0.1219E-13  0.7603E-17  0.1000E-09  0.0000E+00  0.3570E+16
   -1.443751    2.25114  0.3294E-10  0.1219E-13  0.7603E-17  0.1000E-09  0.0000E+00  0.3369E+16
   -1.512503    2.37633  0.3285E-10  0.1219E-13  0.7603E-17  0.1000E-09  0.0000E+00  0.3153E+16
   -1.581256    2.50330  0.3280E-10  0.2327E-13  0.7603E-17  0.1000E-09  0.0000E+00  0.2922E+16
   -1.650008    2.63184  0.3276E-10  0.8197E-13  0.1500E-16  0.1000E-09  0.0000E+00  0.2678E+16
   -1.718759    2.76172  0.3274E-10  0.2345E-12  0.3848E-16  0.1000E-09  0.0000E+00  0.2423E+16
   -1.787511    2.89272  0.3273E-10  0.6454E-12  0.1016E-15  0.1000E-09  0.0000E+00  0.2173E+16
   -1.856263    3.02557  0.3272E-10  0.1760E-11  0.2683E-15  0.1000E-09  0.0000E+00  0.1912E+16
   -1.925014    3.16023  0.3271E-10  0.4759E-11  0.7042E-15  0.1000E-09  0.0000E+00  0.1640E+16
   -1.993765    3.29671  0.3270E-10  0.1278E-10  0.1837E-14  0.1000E-09  0.0000E+00  0.1354E+16
   -2.062516    3.43460  0.3268E-10  0.3329E-10  0.4650E-14  0.1000E-09  0.0000E+00  0.1052E+16
   -2.131266    3.57263  0.3265E-10  0.8552E-10  0.1162E-13  0.1000E-09  0.0000E+00  0.7478E+15
   -2.200016    3.71031  0.3262E-10  0.2176E-09  0.2876E-13  0.3277E-09  0.0000E+00  0.4459E+15
   -2.268766    3.84690  0.3260E-10  0.5531E-09  0.7114E-13  0.2371E-08  0.0000E+00  0.1521E+15
   -2.337515    3.98037  0.3260E-10  0.1190E-08  0.1518E-12  0.1360E-05  0.0000E+00 -0.9550E+11
   -2.406263    3.99343  0.3260E-10  0.1801E-08  0.2611E-12  0.4527E-05  0.0000E+00 -0.5914E+12
   -2.475011    3.99755  0.3260E-10  0.2235E-08  0.3796E-12  0.4856E-05  0.0000E+00 -0.8168E+12
   -2.543759    4.00150  0.3260E-10  0.2564E-08  0.5572E-12  0.4171E-05  0.0000E+00 -0.1310E+13
   -2.612506    4.00626  0.3260E-10  0.2740E-08  0.9321E-12  0.2593E-05  0.0000E+00 -0.3049E+13
   -2.681252    4.01437  0.3260E-10  0.2575E-08  0.2486E-11  0.7335E-06  0.0000E+00 -0.2213E+14
   -2.749998    4.04642  0.3260E-10  0.0000E+00  0.0000E+00  0.0000E+00  0.0000E+00  0.0000E+00
