 1 - depth, m
 2 - temperature, C
 3 - salinity, kg/kg
 4 - turbulent kinetic energy, m**2/s**2
 5 - dissipation rate, m**2/s**3
 6 - kinematic heat conductance, m**2/s
 7 - modulus of horizontal velocity, m/s
 8 - Richardson number, n/d
   -0.000000    7.99345  0.5493E-10  0.8110E-04  0.1881E-04  0.8639E-04  0.8579E-01 -0.8020E-01
   -0.068746    8.03795  0.5493E-10  0.4777E-04  0.4182E-05  0.1124E-03  0.4055E-01 -0.8931E-02
   -0.137492    8.04782  0.5493E-10  0.3919E-04  0.1672E-05  0.1494E-03  0.3265E-01 -0.1286E-01
   -0.206239    8.05432  0.5493E-10  0.3488E-04  0.8472E-06  0.1954E-03  0.2789E-01 -0.1760E-01
   -0.274987    8.05920  0.5493E-10  0.3241E-04  0.5134E-06  0.2481E-03  0.2441E-01 -0.2284E-01
   -0.343735    8.06298  0.5493E-10  0.3083E-04  0.3532E-06  0.3052E-03  0.2173E-01 -0.2855E-01
   -0.412484    8.06598  0.5493E-10  0.2970E-04  0.2645E-06  0.3654E-03  0.1960E-01 -0.3465E-01
   -0.481233    8.06842  0.5493E-10  0.2883E-04  0.2097E-06  0.4274E-03  0.1785E-01 -0.4099E-01
   -0.549983    8.07046  0.5493E-10  0.2810E-04  0.1729E-06  0.4903E-03  0.1639E-01 -0.4744E-01
   -0.618733    8.07218  0.5493E-10  0.2747E-04  0.1467E-06  0.5531E-03  0.1514E-01 -0.5387E-01
   -0.687483    8.07367  0.5493E-10  0.2692E-04  0.1272E-06  0.6154E-03  0.1406E-01 -0.6020E-01
   -0.756234    8.07497  0.5493E-10  0.2642E-04  0.1121E-06  0.6764E-03  0.1309E-01 -0.6624E-01
   -0.824985    8.07612  0.5493E-10  0.2596E-04  0.1003E-06  0.7363E-03  0.1223E-01 -0.7080E-01
   -0.893737    8.07715  0.5493E-10  0.2554E-04  0.9069E-07  0.7985E-03  0.1145E-01 -0.6329E-01
   -0.962488    8.07807  0.5493E-10  0.2515E-04  0.8284E-07  0.8838E-03  0.1073E-01  0.1029E+02
   -1.031240    8.07890  0.5493E-10  0.2478E-04  0.7632E-07  0.1015E-02  0.1006E-01  0.2813E+02
   -1.099992    8.07963  0.5493E-10  0.2443E-04  0.7084E-07  0.1135E-02  0.9446E-02  0.3142E+02
   -1.168744    8.08027  0.5493E-10  0.2410E-04  0.6617E-07  0.1243E-02  0.8864E-02  0.1049E+02
   -1.237496    8.08086  0.5493E-10  0.2377E-04  0.6216E-07  0.1396E-02  0.8311E-02  0.6256E+02
   -1.306249    8.08137  0.5493E-10  0.2345E-04  0.5869E-07  0.1562E-02  0.7782E-02  0.8379E+03
   -1.375001    8.08182  0.5493E-10  0.2312E-04  0.5566E-07  0.1725E-02  0.7272E-02  0.1307E+04
   -1.443753    8.08221  0.5493E-10  0.2279E-04  0.5298E-07  0.1892E-02  0.6777E-02  0.2376E+05
   -1.512506    8.08256  0.5493E-10  0.2245E-04  0.5059E-07  0.2061E-02  0.6293E-02  0.1518E+05
   -1.581258    8.08287  0.5493E-10  0.2209E-04  0.4845E-07  0.2198E-02  0.5817E-02  0.4088E+05
   -1.650010    8.08314  0.5493E-10  0.2170E-04  0.4649E-07  0.2284E-02  0.5347E-02  0.3244E+04
   -1.718762    8.08339  0.5493E-10  0.2129E-04  0.4468E-07  0.2342E-02  0.4880E-02  0.3264E+03
   -1.787514    8.08362  0.5493E-10  0.2082E-04  0.4292E-07  0.2433E-02  0.4413E-02  0.1301E+03
   -1.856265    8.08384  0.5493E-10  0.2030E-04  0.4122E-07  0.2486E-02  0.3992E-02  0.2564E+02
   -1.925017    8.08405  0.5493E-10  0.1974E-04  0.3963E-07  0.2489E-02  0.3609E-02  0.4298E+01
   -1.993768    8.08425  0.5493E-10  0.1915E-04  0.3818E-07  0.2465E-02  0.3260E-02  0.2935E+01
   -2.062519    8.08445  0.5493E-10  0.1856E-04  0.3699E-07  0.2426E-02  0.2939E-02  0.3326E+01
   -2.131269    8.08465  0.5493E-10  0.1798E-04  0.3610E-07  0.2362E-02  0.2636E-02  0.4784E+02
   -2.200019    8.08485  0.5493E-10  0.1741E-04  0.3557E-07  0.2203E-02  0.2349E-02  0.3423E+02
   -2.268769    8.08507  0.5493E-10  0.1687E-04  0.3548E-07  0.1834E-02  0.2079E-02  0.1663E+03
   -2.337518    8.08533  0.5493E-10  0.1632E-04  0.3594E-07  0.1528E-02  0.1830E-02  0.3776E+03
   -2.406267    8.08565  0.5493E-10  0.1576E-04  0.3721E-07  0.1159E-02  0.1602E-02  0.2051E+03
   -2.475015    8.08606  0.5493E-10  0.1513E-04  0.3993E-07  0.8293E-03  0.1389E-02  0.6980E+03
   -2.543763    8.08659  0.5493E-10  0.1437E-04  0.4574E-07  0.5953E-03  0.1179E-02  0.7135E+02
   -2.612510    8.08729  0.5493E-10  0.1327E-04  0.6084E-07  0.3707E-03  0.9650E-03 -0.9864E+00
   -2.681256    8.08841  0.5493E-10  0.7918E-05  0.2098E-06  0.3658E-04  0.7385E-03 -0.5425E+05
   -2.750002    8.09971  0.5493E-10  0.0000E+00  0.0000E+00  0.0000E+00  0.7368E-03  0.0000E+00
