 1 - depth, m
 2 - temperature, C
 3 - salinity, kg/kg
 4 - turbulent kinetic energy, m**2/s**2
 5 - dissipation rate, m**2/s**3
 6 - kinematic heat conductance, m**2/s
 7 - modulus of horizontal velocity, m/s
 8 - Richardson number, n/d
   -0.000000    0.10068  0.2817E-11  0.1391E-04  0.6696E-06  0.2908E-04  0.3990E-01  0.3356E-01
   -0.068746    0.15381  0.2817E-11  0.1224E-04  0.2384E-06  0.5896E-04  0.3056E-01  0.3290E-01
   -0.137492    0.17064  0.2817E-11  0.1111E-04  0.1379E-06  0.7846E-04  0.2668E-01  0.5748E-01
   -0.206239    0.18188  0.2817E-11  0.1012E-04  0.9435E-07  0.9012E-04  0.2407E-01  0.7824E-01
   -0.274987    0.19114  0.2817E-11  0.9205E-05  0.7004E-07  0.9590E-04  0.2205E-01  0.9955E-01
   -0.343735    0.19938  0.2817E-11  0.8353E-05  0.5447E-07  0.9712E-04  0.2038E-01  0.1216E+00
   -0.412484    0.20708  0.2817E-11  0.7549E-05  0.4360E-07  0.9486E-04  0.1892E-01  0.1448E+00
   -0.481233    0.21452  0.2817E-11  0.6787E-05  0.3555E-07  0.8998E-04  0.1762E-01  0.1693E+00
   -0.549983    0.22191  0.2817E-11  0.6064E-05  0.2934E-07  0.8317E-04  0.1642E-01  0.1956E+00
   -0.618733    0.22943  0.2817E-11  0.5376E-05  0.2439E-07  0.7502E-04  0.1529E-01  0.2241E+00
   -0.687484    0.23725  0.2817E-11  0.4722E-05  0.2034E-07  0.6603E-04  0.1422E-01  0.2555E+00
   -0.756234    0.24558  0.2817E-11  0.4102E-05  0.1697E-07  0.5665E-04  0.1318E-01  0.2906E+00
   -0.824985    0.25466  0.2817E-11  0.3514E-05  0.1412E-07  0.4729E-04  0.1216E-01  0.3302E+00
   -0.893737    0.26489  0.2817E-11  0.2961E-05  0.1167E-07  0.3835E-04  0.1113E-01  0.3758E+00
   -0.962489    0.27694  0.2817E-11  0.2444E-05  0.9536E-08  0.3024E-04  0.1008E-01  0.4287E+00
   -1.031240    0.29223  0.2817E-11  0.1963E-05  0.7651E-08  0.2338E-04  0.8960E-02  0.4884E+00
   -1.099992    0.31528  0.2818E-11  0.1514E-05  0.5856E-08  0.1835E-04  0.7670E-02  0.6183E+00
   -1.168745    0.37987  0.2818E-11  0.1195E-05  0.4399E-08  0.1544E-04  0.5928E-02  0.1329E+01
   -1.237497    0.48761  0.2818E-11  0.1009E-05  0.3578E-08  0.1344E-04  0.4360E-02  0.3631E+01
   -1.306249    0.55994  0.2818E-11  0.8720E-06  0.3003E-08  0.1184E-04  0.3352E-02  0.1304E+02
   -1.375001    0.61138  0.2818E-11  0.7622E-06  0.2559E-08  0.1059E-04  0.2648E-02  0.5760E+02
   -1.443754    0.65596  0.2818E-11  0.6758E-06  0.2221E-08  0.9638E-05  0.2103E-02  0.2846E+03
   -1.512506    0.69812  0.2818E-11  0.6094E-06  0.1974E-08  0.8938E-05  0.1651E-02  0.1642E+04
   -1.581258    0.74136  0.2818E-11  0.5589E-06  0.1802E-08  0.8393E-05  0.1266E-02  0.1216E+05
   -1.650011    0.79519  0.2818E-11  0.5180E-06  0.1684E-08  0.7759E-05  0.9265E-03  0.9393E+05
   -1.718763    0.88349  0.2819E-11  0.4666E-06  0.1551E-08  0.5052E-05  0.6041E-03  0.8836E+06
   -1.787514    1.04710  0.2819E-11  0.3288E-06  0.1003E-08  0.5556E-05  0.2653E-03  0.1221E+09
   -1.856266    1.14972  0.2819E-11  0.2280E-06  0.6419E-09  0.4114E-05  0.1474E-03  0.1636E+11
   -1.925017    1.21027  0.2819E-11  0.1519E-06  0.3952E-09  0.2878E-05  0.8300E-04  0.2182E+12
   -1.993769    1.21855  0.2819E-11  0.9795E-07  0.2356E-09  0.1947E-05  0.4799E-04 -0.1019E+16
   -2.062519    1.17157  0.2819E-11  0.5925E-07  0.1340E-09  0.9586E-06  0.2928E-04  0.5409E+15
   -2.131270    1.19352  0.2819E-11  0.3138E-07  0.6792E-10  0.3591E-06  0.1571E-04  0.3457E+16
   -2.200020    1.28558  0.2819E-11  0.1214E-07  0.2613E-10  0.5745E-07  0.6780E-05  0.7144E+16
   -2.268770    1.48010  0.2819E-11  0.2303E-08  0.5745E-11  0.2973E-08  0.1217E-05  0.9197E+16
   -2.337519    1.76351  0.2819E-11  0.2246E-09  0.1436E-11  0.2770E-09  0.6498E-07  0.1039E+17
   -2.406268    2.13819  0.2819E-11  0.1942E-10  0.1015E-11  0.1124E-09  0.2386E-08  0.1036E+17
   -2.475016    2.60558  0.2819E-11  0.4419E-11  0.1000E-11  0.1000E-09  0.7070E-10  0.8462E+16
   -2.543764    3.16303  0.2819E-11  0.4419E-11  0.1000E-11  0.1000E-09  0.1721E-11  0.4462E+16
   -2.612511    3.86787  0.2819E-11  0.4419E-11  0.1000E-11  0.1000E-09  0.3051E-13 -0.5175E+16
   -2.681257    4.74402  0.2819E-11  0.4419E-11  0.1000E-11  0.1000E-09  0.3455E-15 -0.3602E+16
   -2.750003    5.01397  0.2819E-11  0.0000E+00  0.0000E+00  0.0000E+00  0.6449E-15  0.0000E+00
