 1 - depth, m
 2 - temperature, C
 3 - salinity, kg/kg
 4 - turbulent kinetic energy, m**2/s**2
 5 - dissipation rate, m**2/s**3
 6 - kinematic heat conductance, m**2/s
 7 - modulus of horizontal velocity, m/s
 8 - Richardson number, n/d
   -0.000000   -0.00000  0.2626E-11  0.1219E-13  0.7603E-17  0.1000E-09  0.0000E+00  0.4975E+16
   -0.068746    0.07539  0.1381E-11  0.1219E-13  0.7603E-17  0.1000E-09  0.0000E+00  0.4779E+16
   -0.137492    0.14929  0.1071E-11  0.1219E-13  0.7603E-17  0.1000E-09  0.0000E+00  0.4623E+16
   -0.206239    0.22227  0.1002E-11  0.1219E-13  0.7603E-17  0.1000E-09  0.0000E+00  0.4506E+16
   -0.274987    0.29488  0.9881E-12  0.1219E-13  0.7603E-17  0.1000E-09  0.0000E+00  0.4426E+16
   -0.343735    0.36771  0.9858E-12  0.1219E-13  0.7603E-17  0.1000E-09  0.0000E+00  0.4381E+16
   -0.412483    0.44135  0.9854E-12  0.1219E-13  0.7603E-17  0.1000E-09  0.0000E+00  0.4366E+16
   -0.481232    0.51641  0.9853E-12  0.1219E-13  0.7603E-17  0.1000E-09  0.0000E+00  0.4380E+16
   -0.549982    0.59347  0.9853E-12  0.1219E-13  0.7603E-17  0.1000E-09  0.0000E+00  0.4420E+16
   -0.618732    0.67315  0.9853E-12  0.1219E-13  0.7603E-17  0.1000E-09  0.0000E+00  0.4480E+16
   -0.687482    0.75604  0.9853E-12  0.1219E-13  0.7603E-17  0.1000E-09  0.0000E+00  0.4572E+16
   -0.756233    0.84301  0.9853E-12  0.1219E-13  0.7603E-17  0.1000E-09  0.0000E+00  0.4684E+16
   -0.824984    0.93482  0.9853E-12  0.1219E-13  0.7603E-17  0.1000E-09  0.0000E+00  0.4799E+16
   -0.893735    1.03199  0.9853E-12  0.1219E-13  0.7603E-17  0.1000E-09  0.0000E+00  0.4912E+16
   -0.962487    1.13506  0.9853E-12  0.1219E-13  0.7603E-17  0.1000E-09  0.0000E+00  0.5016E+16
   -1.031238    1.24450  0.9851E-12  0.1219E-13  0.7603E-17  0.1000E-09  0.0000E+00  0.5104E+16
   -1.099990    1.36075  0.9845E-12  0.1219E-13  0.7603E-17  0.1000E-09  0.0000E+00  0.5167E+16
   -1.168742    1.48419  0.9830E-12  0.5502E-13  0.1072E-16  0.1000E-09  0.0000E+00  0.5199E+16
   -1.237494    1.61516  0.9797E-12  0.1656E-12  0.2623E-16  0.1000E-09  0.0000E+00  0.5191E+16
   -1.306246    1.75390  0.9743E-12  0.4419E-12  0.6625E-16  0.1000E-09  0.0000E+00  0.5136E+16
   -1.374999    1.90059  0.9681E-12  0.1137E-11  0.1649E-15  0.1000E-09  0.0000E+00  0.5040E+16
   -1.443751    2.05573  0.9633E-12  0.2873E-11  0.4047E-15  0.1000E-09  0.0000E+00  0.4884E+16
   -1.512503    2.21945  0.9606E-12  0.7168E-11  0.9811E-15  0.1000E-09  0.0000E+00  0.4656E+16
   -1.581255    2.39159  0.9590E-12  0.1767E-10  0.2351E-14  0.1000E-09  0.0000E+00  0.4352E+16
   -1.650007    2.57186  0.9580E-12  0.4305E-10  0.5572E-14  0.1000E-09  0.0000E+00  0.3971E+16
   -1.718759    2.75984  0.9573E-12  0.1037E-09  0.1306E-13  0.1000E-09  0.0000E+00  0.3515E+16
   -1.787511    2.95505  0.9569E-12  0.2534E-09  0.3104E-13  0.1000E-09  0.0000E+00  0.3003E+16
   -1.856262    3.15825  0.9567E-12  0.6230E-09  0.7428E-13  0.1564E-09  0.0000E+00  0.2418E+16
   -1.925013    3.36947  0.9564E-12  0.1526E-08  0.1772E-12  0.5140E-09  0.0000E+00  0.1755E+16
   -1.993764    3.58849  0.9556E-12  0.3719E-08  0.4207E-12  0.2125E-08  0.0000E+00  0.1008E+16
   -2.062515    3.81266  0.9537E-12  0.8718E-08  0.9629E-12  0.2122E-07  0.0000E+00  0.2311E+15
   -2.131265    4.01284  0.9531E-12  0.1002E-07  0.1113E-11  0.3714E-04  0.0000E+00 -0.3673E+12
   -2.200015    4.01371  0.9531E-12  0.1054E-07  0.1192E-11  0.3754E-04  0.0000E+00 -0.3768E+12
   -2.268765    4.01457  0.9531E-12  0.1094E-07  0.1277E-11  0.3685E-04  0.0000E+00 -0.3979E+12
   -2.337514    4.01546  0.9531E-12  0.1123E-07  0.1380E-11  0.3495E-04  0.0000E+00 -0.4354E+12
   -2.406263    4.01640  0.9531E-12  0.1141E-07  0.1516E-11  0.3165E-04  0.0000E+00 -0.5004E+12
   -2.475011    4.01744  0.9531E-12  0.1145E-07  0.1717E-11  0.2672E-04  0.0000E+00 -0.6210E+12
   -2.543758    4.01869  0.9531E-12  0.1128E-07  0.2068E-11  0.1986E-04  0.0000E+00 -0.8865E+12
   -2.612505    4.02039  0.9531E-12  0.1069E-07  0.2904E-11  0.1096E-04  0.0000E+00 -0.1767E+13
   -2.681252    4.02356  0.9531E-12  0.7997E-08  0.7912E-11  0.1619E-05  0.0000E+00 -0.1663E+14
   -2.749997    4.04557  0.9531E-12  0.0000E+00  0.0000E+00  0.0000E+00  0.0000E+00  0.0000E+00
