 1 - depth, m
 2 - temperature, C
 3 - salinity, kg/kg
 4 - turbulent kinetic energy, m**2/s**2
 5 - dissipation rate, m**2/s**3
 6 - kinematic heat conductance, m**2/s
 7 - modulus of horizontal velocity, m/s
 8 - Richardson number, n/d
   -0.000000   -0.00000  0.7972E-13  0.1219E-13  0.7603E-17  0.1000E-09  0.0000E+00  0.6808E+16
   -0.068746    0.10357  0.6165E-12  0.1219E-13  0.7603E-17  0.1000E-09  0.0000E+00  0.6729E+16
   -0.137493    0.20890  0.1207E-11  0.1219E-13  0.7603E-17  0.1000E-09  0.0000E+00  0.6632E+16
   -0.206240    0.31589  0.1580E-11  0.1219E-13  0.7603E-17  0.1000E-09  0.0000E+00  0.6521E+16
   -0.274988    0.42441  0.1706E-11  0.1219E-13  0.7603E-17  0.1000E-09  0.0000E+00  0.6396E+16
   -0.343736    0.53438  0.1675E-11  0.1219E-13  0.7603E-17  0.1000E-09  0.0000E+00  0.6258E+16
   -0.412485    0.64568  0.1579E-11  0.1219E-13  0.7603E-17  0.1000E-09  0.0000E+00  0.6107E+16
   -0.481234    0.75820  0.1478E-11  0.1219E-13  0.7603E-17  0.1000E-09  0.0000E+00  0.5944E+16
   -0.549984    0.87184  0.1400E-11  0.1219E-13  0.7603E-17  0.1000E-09  0.0000E+00  0.5769E+16
   -0.618734    0.98649  0.1349E-11  0.1219E-13  0.7603E-17  0.1000E-09  0.0000E+00  0.5584E+16
   -0.687485    1.10201  0.1319E-11  0.1219E-13  0.7603E-17  0.1000E-09  0.0000E+00  0.5390E+16
   -0.756236    1.21832  0.1303E-11  0.1219E-13  0.7603E-17  0.1000E-09  0.0000E+00  0.5187E+16
   -0.824987    1.33529  0.1296E-11  0.1219E-13  0.7603E-17  0.1000E-09  0.0000E+00  0.4977E+16
   -0.893739    1.45284  0.1292E-11  0.1219E-13  0.7603E-17  0.1000E-09  0.0000E+00  0.4761E+16
   -0.962491    1.57085  0.1290E-11  0.1219E-13  0.7603E-17  0.1000E-09  0.0000E+00  0.4539E+16
   -1.031242    1.68924  0.1289E-11  0.1219E-13  0.7603E-17  0.1000E-09  0.0000E+00  0.4313E+16
   -1.099995    1.80793  0.1287E-11  0.1219E-13  0.7603E-17  0.1000E-09  0.0000E+00  0.4084E+16
   -1.168747    1.92684  0.1285E-11  0.1219E-13  0.7603E-17  0.1000E-09  0.0000E+00  0.3852E+16
   -1.237499    2.04591  0.1283E-11  0.1219E-13  0.7603E-17  0.1000E-09  0.0000E+00  0.3618E+16
   -1.306252    2.16506  0.1280E-11  0.1219E-13  0.7603E-17  0.1000E-09  0.0000E+00  0.3383E+16
   -1.375004    2.28426  0.1277E-11  0.1219E-13  0.7603E-17  0.1000E-09  0.0000E+00  0.3149E+16
   -1.443757    2.40347  0.1273E-11  0.1219E-13  0.7603E-17  0.1000E-09  0.0000E+00  0.2914E+16
   -1.512509    2.52265  0.1270E-11  0.1219E-13  0.7603E-17  0.1000E-09  0.0000E+00  0.2680E+16
   -1.581262    2.64179  0.1266E-11  0.1219E-13  0.7603E-17  0.1000E-09  0.0000E+00  0.2446E+16
   -1.650014    2.76086  0.1263E-11  0.1219E-13  0.7603E-17  0.1000E-09  0.0000E+00  0.2214E+16
   -1.718766    2.87985  0.1261E-11  0.4342E-13  0.9240E-17  0.1000E-09  0.0000E+00  0.1982E+16
   -1.787518    2.99869  0.1259E-11  0.1364E-12  0.2301E-16  0.1000E-09  0.0000E+00  0.1725E+16
   -1.856270    3.11548  0.1257E-11  0.3882E-12  0.6172E-16  0.1000E-09  0.0000E+00  0.1476E+16
   -1.925021    3.22977  0.1256E-11  0.1071E-11  0.1646E-15  0.1000E-09  0.0000E+00  0.1235E+16
   -1.993773    3.34096  0.1255E-11  0.2920E-11  0.4354E-15  0.1000E-09  0.0000E+00  0.1010E+16
   -2.062524    3.44898  0.1254E-11  0.7713E-11  0.1117E-14  0.1000E-09  0.0000E+00  0.8214E+15
   -2.131274    3.55660  0.1253E-11  0.2009E-10  0.2827E-14  0.1000E-09  0.0000E+00  0.6369E+15
   -2.200025    3.66409  0.1253E-11  0.5182E-10  0.7090E-14  0.1000E-09  0.0000E+00  0.4535E+15
   -2.268774    3.77142  0.1252E-11  0.1336E-09  0.1778E-13  0.3334E-09  0.0000E+00  0.2709E+15
   -2.337524    3.87823  0.1252E-11  0.3479E-09  0.4505E-13  0.2496E-08  0.0000E+00  0.9147E+14
   -2.406273    3.98273  0.1252E-11  0.7849E-09  0.1006E-12  0.1290E-05  0.0000E+00 -0.2755E+12
   -2.475021    3.99354  0.1252E-11  0.1203E-08  0.1779E-12  0.3215E-05  0.0000E+00 -0.6393E+12
   -2.543769    3.99788  0.1252E-11  0.1465E-08  0.2650E-12  0.3141E-05  0.0000E+00 -0.9474E+12
   -2.612516    4.00227  0.1252E-11  0.1558E-08  0.4127E-12  0.2046E-05  0.0000E+00 -0.1930E+13
   -2.681263    4.00870  0.1252E-11  0.1249E-08  0.9347E-12  0.4121E-06  0.0000E+00 -0.1214E+14
   -2.750009    4.03161  0.1252E-11  0.0000E+00  0.0000E+00  0.0000E+00  0.0000E+00  0.0000E+00
