 1 - depth, m
 2 - temperature, C
 3 - salinity, kg/kg
 4 - turbulent kinetic energy, m**2/s**2
 5 - dissipation rate, m**2/s**3
 6 - kinematic heat conductance, m**2/s
 7 - modulus of horizontal velocity, m/s
 8 - Richardson number, n/d
   -0.000000   10.14611  0.5537E-10  0.6404E-06  0.1550E-07  0.2273E-05  0.1618E-01  0.1051E+03
   -0.068746    9.42568  0.5566E-10  0.2658E-06  0.3065E-08  0.1970E-05  0.9738E-02  0.1626E+03
   -0.137492    8.64013  0.5590E-10  0.2766E-06  0.1608E-08  0.2367E-05  0.4809E-02  0.5387E+03
   -0.206239    8.19467  0.5599E-10  0.5218E-06  0.1306E-08  0.2556E-05  0.2581E-02  0.5194E+04
   -0.274987    7.94347  0.5606E-10  0.1160E-05  0.1432E-08  0.3202E-05  0.1503E-02  0.3557E+05
   -0.343735    7.86940  0.5608E-10  0.1543E-05  0.1504E-08  0.1179E-04  0.1078E-02  0.3311E+06
   -0.412484    7.85566  0.5610E-10  0.1752E-05  0.1523E-08  0.4003E-04  0.9033E-03  0.9884E+06
   -0.481233    7.85034  0.5610E-10  0.1905E-05  0.1538E-08  0.8659E-04  0.7706E-03  0.1354E+07
   -0.549983    7.84743  0.5611E-10  0.2039E-05  0.1559E-08  0.1513E-03  0.6611E-03  0.1399E+07
   -0.618733    7.84562  0.5611E-10  0.2163E-05  0.1592E-08  0.2324E-03  0.5693E-03  0.1157E+07
   -0.687484    7.84440  0.5612E-10  0.2286E-05  0.1637E-08  0.3243E-03  0.4920E-03  0.6890E+06
   -0.756235    7.84345  0.5612E-10  0.2401E-05  0.1680E-08  0.4471E-03  0.4158E-03  0.8381E+08
   -0.824986    7.84281  0.5612E-10  0.2489E-05  0.1721E-08  0.1064E-02  0.3589E-03  0.2356E+06
   -0.893737    7.84232  0.5612E-10  0.2567E-05  0.1766E-08  0.1223E-02  0.3119E-03  0.2106E+06
   -0.962489    7.84200  0.5613E-10  0.2642E-05  0.1815E-08  0.1238E-02  0.2617E-03  0.3065E+06
   -1.031241    7.84168  0.5613E-10  0.2721E-05  0.1877E-08  0.1254E-02  0.2240E-03  0.4106E+06
   -1.099993    7.84141  0.5613E-10  0.2804E-05  0.1950E-08  0.1271E-02  0.1900E-03  0.5255E+06
   -1.168745    7.84121  0.5613E-10  0.2890E-05  0.2033E-08  0.1283E-02  0.1590E-03  0.6521E+06
   -1.237497    7.84108  0.5613E-10  0.2973E-05  0.2120E-08  0.1298E-02  0.1334E-03  0.7911E+06
   -1.306249    7.84103  0.5613E-10  0.3054E-05  0.2212E-08  0.1305E-02  0.1144E-03  0.9426E+06
   -1.375002    7.84110  0.5613E-10  0.3132E-05  0.2310E-08  0.1312E-02  0.1002E-03  0.1106E+07
   -1.443754    7.84130  0.5613E-10  0.3207E-05  0.2413E-08  0.1319E-02  0.9095E-04  0.1282E+07
   -1.512506    7.84155  0.5613E-10  0.3278E-05  0.2517E-08  0.1323E-02  0.8326E-04  0.1470E+07
   -1.581259    7.84184  0.5613E-10  0.3345E-05  0.2625E-08  0.1316E-02  0.7622E-04  0.1671E+07
   -1.650011    7.84218  0.5613E-10  0.3407E-05  0.2739E-08  0.1303E-02  0.6932E-04  0.1893E+07
   -1.718763    7.84257  0.5613E-10  0.3464E-05  0.2859E-08  0.1288E-02  0.6222E-04  0.2187E+07
   -1.787515    7.84761  0.5615E-10  0.3512E-05  0.2983E-08  0.1279E-02  0.4133E-04  0.2777E+07
   -1.856266    7.84805  0.5615E-10  0.3554E-05  0.3116E-08  0.1330E-02  0.3562E-04  0.8389E+07
   -1.925018    7.84847  0.5615E-10  0.3591E-05  0.3266E-08  0.1217E-02  0.3154E-04  0.4298E+08
   -1.993769    7.84895  0.5615E-10  0.3625E-05  0.3440E-08  0.1189E-02  0.2790E-04  0.6493E+07
   -2.062520    7.84945  0.5615E-10  0.3653E-05  0.3634E-08  0.1250E-02  0.2452E-04  0.2004E+08
   -2.131270    7.84995  0.5615E-10  0.3674E-05  0.3858E-08  0.1066E-02  0.2163E-04  0.1011E+09
   -2.200020    7.85057  0.5615E-10  0.3687E-05  0.4118E-08  0.1038E-02  0.1878E-04  0.1484E+08
   -2.268770    7.85125  0.5615E-10  0.3691E-05  0.4440E-08  0.9771E-03  0.1606E-04  0.1840E+08
   -2.337519    7.85199  0.5616E-10  0.3682E-05  0.4873E-08  0.9006E-03  0.1356E-04  0.2733E+08
   -2.406268    7.85283  0.5616E-10  0.3657E-05  0.5469E-08  0.8075E-03  0.1124E-04  0.4473E+08
   -2.475016    7.85379  0.5615E-10  0.3610E-05  0.6363E-08  0.6990E-03  0.9137E-05  0.8316E+08
   -2.543764    7.85500  0.5616E-10  0.3531E-05  0.7878E-08  0.5622E-03  0.7164E-05  0.1917E+09
   -2.612511    7.85646  0.5616E-10  0.3390E-05  0.1116E-07  0.4350E-03  0.5369E-05  0.5527E+09
   -2.681258    7.85859  0.5616E-10  0.2340E-05  0.4021E-07  0.2625E-04  0.3778E-05 -0.4202E+11
   -2.750004    7.89478  0.5616E-10  0.0000E+00  0.0000E+00  0.0000E+00  0.3971E-05  0.0000E+00
