 1 - depth, m
 2 - temperature, C
 3 - salinity, kg/kg
 4 - turbulent kinetic energy, m**2/s**2
 5 - dissipation rate, m**2/s**3
 6 - kinematic heat conductance, m**2/s
 7 - modulus of horizontal velocity, m/s
 8 - Richardson number, n/d
   -0.000000   -0.00000  0.1430E-10  0.1219E-13  0.7603E-17  0.1000E-09  0.0000E+00  0.7638E+16
   -0.068746    0.11639  0.8491E-11  0.1219E-13  0.7603E-17  0.1000E-09  0.0000E+00  0.7334E+16
   -0.137492    0.23178  0.6129E-11  0.1219E-13  0.7603E-17  0.1000E-09  0.0000E+00  0.7060E+16
   -0.206239    0.34654  0.5335E-11  0.1219E-13  0.7603E-17  0.1000E-09  0.0000E+00  0.6809E+16
   -0.274987    0.46098  0.5109E-11  0.1219E-13  0.7603E-17  0.1000E-09  0.0000E+00  0.6579E+16
   -0.343735    0.57543  0.5053E-11  0.1219E-13  0.7603E-17  0.1000E-09  0.0000E+00  0.6366E+16
   -0.412483    0.69018  0.5041E-11  0.1219E-13  0.7603E-17  0.1000E-09  0.0000E+00  0.6168E+16
   -0.481232    0.80554  0.5038E-11  0.1219E-13  0.7603E-17  0.1000E-09  0.0000E+00  0.5982E+16
   -0.549982    0.92178  0.5038E-11  0.1219E-13  0.7603E-17  0.1000E-09  0.0000E+00  0.5804E+16
   -0.618732    1.03917  0.5038E-11  0.1219E-13  0.7603E-17  0.1000E-09  0.0000E+00  0.5631E+16
   -0.687482    1.15797  0.5038E-11  0.1219E-13  0.7603E-17  0.1000E-09  0.0000E+00  0.5472E+16
   -0.756233    1.27863  0.5038E-11  0.1219E-13  0.7603E-17  0.1000E-09  0.0000E+00  0.5317E+16
   -0.824984    1.40152  0.5038E-11  0.1219E-13  0.7603E-17  0.1000E-09  0.0000E+00  0.5155E+16
   -0.893735    1.52680  0.5037E-11  0.1219E-13  0.7603E-17  0.1000E-09  0.0000E+00  0.4985E+16
   -0.962486    1.65462  0.5036E-11  0.1235E-13  0.7603E-17  0.1000E-09  0.0000E+00  0.4804E+16
   -1.031238    1.78507  0.5032E-11  0.6059E-13  0.1029E-16  0.1000E-09  0.0000E+00  0.4608E+16
   -1.099990    1.91824  0.5025E-11  0.1740E-12  0.2335E-16  0.1000E-09  0.0000E+00  0.4397E+16
   -1.168742    2.05416  0.5013E-11  0.4352E-12  0.5490E-16  0.1000E-09  0.0000E+00  0.4169E+16
   -1.237494    2.19282  0.4994E-11  0.1044E-11  0.1274E-15  0.1000E-09  0.0000E+00  0.3922E+16
   -1.306246    2.33418  0.4971E-11  0.2458E-11  0.2916E-15  0.1000E-09  0.0000E+00  0.3655E+16
   -1.374999    2.47816  0.4947E-11  0.5717E-11  0.6599E-15  0.1000E-09  0.0000E+00  0.3373E+16
   -1.443751    2.62481  0.4928E-11  0.1315E-10  0.1478E-14  0.1000E-09  0.0000E+00  0.3071E+16
   -1.512503    2.77404  0.4915E-11  0.2994E-10  0.3277E-14  0.1000E-09  0.0000E+00  0.2748E+16
   -1.581255    2.92564  0.4907E-11  0.6745E-10  0.7193E-14  0.1000E-09  0.0000E+00  0.2407E+16
   -1.650007    3.07939  0.4902E-11  0.1505E-09  0.1564E-13  0.1000E-09  0.0000E+00  0.2048E+16
   -1.718759    3.23502  0.4898E-11  0.3324E-09  0.3367E-13  0.1023E-09  0.0000E+00  0.1675E+16
   -1.787511    3.39234  0.4895E-11  0.7446E-09  0.7352E-13  0.2862E-09  0.0000E+00  0.1307E+16
   -1.856262    3.55357  0.4891E-11  0.1681E-08  0.1618E-12  0.9047E-09  0.0000E+00  0.9102E+15
   -1.925013    3.71851  0.4885E-11  0.3782E-08  0.3553E-12  0.3743E-08  0.0000E+00  0.4829E+15
   -1.993764    3.88501  0.4882E-11  0.8260E-08  0.7599E-12  0.5156E-07  0.0000E+00  0.7468E+14
   -2.062515    4.01345  0.4882E-11  0.9246E-08  0.8553E-12  0.4149E-04  0.0000E+00 -0.2551E+12
   -2.131265    4.01405  0.4882E-11  0.9652E-08  0.9049E-12  0.4171E-04  0.0000E+00 -0.2595E+12
   -2.200015    4.01464  0.4882E-11  0.9968E-08  0.9575E-12  0.4104E-04  0.0000E+00 -0.2696E+12
   -2.268765    4.01524  0.4882E-11  0.1020E-07  0.1017E-11  0.3942E-04  0.0000E+00 -0.2872E+12
   -2.337514    4.01587  0.4882E-11  0.1035E-07  0.1091E-11  0.3670E-04  0.0000E+00 -0.3162E+12
   -2.406263    4.01654  0.4882E-11  0.1042E-07  0.1191E-11  0.3268E-04  0.0000E+00 -0.3650E+12
   -2.475011    4.01730  0.4882E-11  0.1037E-07  0.1343E-11  0.2711E-04  0.0000E+00 -0.4546E+12
   -2.543758    4.01823  0.4882E-11  0.1015E-07  0.1614E-11  0.1977E-04  0.0000E+00 -0.6510E+12
   -2.612505    4.01950  0.4882E-11  0.9540E-08  0.2271E-11  0.1061E-04  0.0000E+00 -0.1304E+13
   -2.681251    4.02192  0.4882E-11  0.6922E-08  0.6338E-11  0.1409E-05  0.0000E+00 -0.1269E+14
   -2.749997    4.04006  0.4882E-11  0.0000E+00  0.0000E+00  0.0000E+00  0.0000E+00  0.0000E+00
