 1 - depth, m
 2 - temperature, C
 3 - salinity, kg/kg
 4 - turbulent kinetic energy, m**2/s**2
 5 - dissipation rate, m**2/s**3
 6 - kinematic heat conductance, m**2/s
 7 - modulus of horizontal velocity, m/s
 8 - Richardson number, n/d
   -0.000000   -0.00000  0.9893E-10  0.1219E-13  0.7603E-17  0.1000E-09  0.0000E+00  0.7054E+16
   -0.068746    0.10736  0.5865E-10  0.1219E-13  0.7603E-17  0.1000E-09  0.0000E+00  0.6792E+16
   -0.137492    0.21381  0.4188E-10  0.1219E-13  0.7603E-17  0.1000E-09  0.0000E+00  0.6548E+16
   -0.206239    0.31956  0.3605E-10  0.1219E-13  0.7603E-17  0.1000E-09  0.0000E+00  0.6320E+16
   -0.274987    0.42480  0.3431E-10  0.1219E-13  0.7603E-17  0.1000E-09  0.0000E+00  0.6106E+16
   -0.343735    0.52971  0.3386E-10  0.1219E-13  0.7603E-17  0.1000E-09  0.0000E+00  0.5906E+16
   -0.412483    0.63449  0.3376E-10  0.1219E-13  0.7603E-17  0.1000E-09  0.0000E+00  0.5717E+16
   -0.481232    0.73932  0.3373E-10  0.1219E-13  0.7603E-17  0.1000E-09  0.0000E+00  0.5538E+16
   -0.549982    0.84439  0.3373E-10  0.1219E-13  0.7603E-17  0.1000E-09  0.0000E+00  0.5366E+16
   -0.618732    0.94986  0.3373E-10  0.1219E-13  0.7603E-17  0.1000E-09  0.0000E+00  0.5200E+16
   -0.687482    1.05588  0.3373E-10  0.1219E-13  0.7603E-17  0.1000E-09  0.0000E+00  0.5048E+16
   -0.756233    1.16280  0.3373E-10  0.1219E-13  0.7603E-17  0.1000E-09  0.0000E+00  0.4903E+16
   -0.824984    1.27087  0.3373E-10  0.1219E-13  0.7603E-17  0.1000E-09  0.0000E+00  0.4756E+16
   -0.893735    1.38018  0.3372E-10  0.1219E-13  0.7603E-17  0.1000E-09  0.0000E+00  0.4607E+16
   -0.962487    1.49082  0.3371E-10  0.1219E-13  0.7603E-17  0.1000E-09  0.0000E+00  0.4452E+16
   -1.031238    1.60284  0.3367E-10  0.1219E-13  0.7603E-17  0.1000E-09  0.0000E+00  0.4292E+16
   -1.099990    1.71627  0.3361E-10  0.1219E-13  0.7603E-17  0.1000E-09  0.0000E+00  0.4125E+16
   -1.168742    1.83111  0.3352E-10  0.1219E-13  0.7603E-17  0.1000E-09  0.0000E+00  0.3949E+16
   -1.237495    1.94734  0.3338E-10  0.1219E-13  0.7603E-17  0.1000E-09  0.0000E+00  0.3765E+16
   -1.306247    2.06490  0.3321E-10  0.1219E-13  0.7603E-17  0.1000E-09  0.0000E+00  0.3571E+16
   -1.374999    2.18372  0.3306E-10  0.1219E-13  0.7603E-17  0.1000E-09  0.0000E+00  0.3371E+16
   -1.443751    2.30384  0.3294E-10  0.1219E-13  0.7603E-17  0.1000E-09  0.0000E+00  0.3163E+16
   -1.512503    2.42516  0.3285E-10  0.1219E-13  0.7603E-17  0.1000E-09  0.0000E+00  0.2945E+16
   -1.581256    2.54752  0.3280E-10  0.1219E-13  0.7603E-17  0.1000E-09  0.0000E+00  0.2717E+16
   -1.650008    2.67073  0.3276E-10  0.2959E-13  0.8143E-17  0.1000E-09  0.0000E+00  0.2481E+16
   -1.718759    2.79457  0.3274E-10  0.9852E-13  0.2196E-16  0.1000E-09  0.0000E+00  0.2239E+16
   -1.787511    2.91884  0.3273E-10  0.3152E-12  0.6653E-16  0.1000E-09  0.0000E+00  0.2005E+16
   -1.856263    3.04423  0.3272E-10  0.9920E-12  0.2019E-15  0.1000E-09  0.0000E+00  0.1765E+16
   -1.925014    3.17065  0.3271E-10  0.3081E-11  0.6064E-15  0.1000E-09  0.0000E+00  0.1519E+16
   -1.993765    3.29804  0.3269E-10  0.9469E-11  0.1804E-14  0.1000E-09  0.0000E+00  0.1264E+16
   -2.062516    3.42603  0.3267E-10  0.2811E-10  0.5185E-14  0.1000E-09  0.0000E+00  0.1001E+16
   -2.131266    3.55374  0.3264E-10  0.8209E-10  0.1467E-13  0.1008E-09  0.0000E+00  0.7392E+15
   -2.200016    3.68086  0.3262E-10  0.2367E-09  0.4100E-13  0.4333E-09  0.0000E+00  0.4803E+15
   -2.268765    3.80682  0.3260E-10  0.6798E-09  0.1142E-12  0.2534E-08  0.0000E+00  0.2281E+15
   -2.337515    3.93017  0.3260E-10  0.1895E-08  0.3103E-12  0.7554E-07  0.0000E+00  0.1974E+14
   -2.406263    4.01147  0.3260E-10  0.3262E-08  0.5426E-12  0.8554E-05  0.0000E+00 -0.8407E+12
   -2.475011    4.01352  0.3260E-10  0.3774E-08  0.6807E-12  0.8338E-05  0.0000E+00 -0.9539E+12
   -2.543759    4.01567  0.3260E-10  0.4059E-08  0.8719E-12  0.6884E-05  0.0000E+00 -0.1299E+13
   -2.612506    4.01837  0.3260E-10  0.4060E-08  0.1275E-11  0.4133E-05  0.0000E+00 -0.2585E+13
   -2.681252    4.02316  0.3260E-10  0.3339E-08  0.3165E-11  0.8805E-06  0.0000E+00 -0.1969E+14
   -2.749998    4.04854  0.3260E-10  0.0000E+00  0.0000E+00  0.0000E+00  0.0000E+00  0.0000E+00
