 1 - depth, m
 2 - temperature, C
 3 - salinity, kg/kg
 4 - turbulent kinetic energy, m**2/s**2
 5 - dissipation rate, m**2/s**3
 6 - kinematic heat conductance, m**2/s
 7 - modulus of horizontal velocity, m/s
 8 - Richardson number, n/d
   -0.000000    6.79016  0.1119E-10  0.4438E-04  0.8600E-05  0.5202E-04  0.5394E-01 -0.5289E-01
   -0.068746    6.84071  0.1119E-10  0.2945E-04  0.1957E-05  0.9740E-04  0.2859E-01 -0.2339E-01
   -0.137492    6.85447  0.1119E-10  0.2539E-04  0.8215E-06  0.1446E-03  0.2307E-01 -0.3823E-01
   -0.206239    6.86310  0.1119E-10  0.2325E-04  0.4396E-06  0.1974E-03  0.1977E-01 -0.5443E-01
   -0.274987    6.86925  0.1119E-10  0.2196E-04  0.2775E-06  0.2549E-03  0.1741E-01 -0.7181E-01
   -0.343735    6.87390  0.1119E-10  0.2109E-04  0.1964E-06  0.3164E-03  0.1561E-01 -0.8849E-01
   -0.412484    6.87756  0.1119E-10  0.2046E-04  0.1500E-06  0.3887E-03  0.1417E-01 -0.6079E-01
   -0.481233    6.88047  0.1119E-10  0.1996E-04  0.1208E-06  0.5214E-03  0.1300E-01  0.5804E+02
   -0.549983    6.88273  0.1119E-10  0.1955E-04  0.1010E-06  0.6579E-03  0.1202E-01  0.2377E+02
   -0.618733    6.88455  0.1119E-10  0.1921E-04  0.8669E-07  0.7608E-03  0.1118E-01  0.1375E+02
   -0.687483    6.88608  0.1119E-10  0.1892E-04  0.7597E-07  0.8674E-03  0.1043E-01  0.1862E+02
   -0.756234    6.88739  0.1119E-10  0.1866E-04  0.6766E-07  0.9705E-03  0.9771E-02  0.1137E+02
   -0.824985    6.88853  0.1119E-10  0.1843E-04  0.6106E-07  0.1074E-02  0.9168E-02  0.1615E+02
   -0.893737    6.88952  0.1119E-10  0.1821E-04  0.5570E-07  0.1171E-02  0.8613E-02  0.1488E+02
   -0.962488    6.89041  0.1119E-10  0.1802E-04  0.5129E-07  0.1275E-02  0.8095E-02  0.7995E+02
   -1.031240    6.89119  0.1119E-10  0.1783E-04  0.4759E-07  0.1363E-02  0.7609E-02  0.2038E+03
   -1.099992    6.89190  0.1119E-10  0.1765E-04  0.4447E-07  0.1460E-02  0.7148E-02  0.3910E+02
   -1.168744    6.89255  0.1119E-10  0.1747E-04  0.4179E-07  0.1507E-02  0.6707E-02  0.2016E+02
   -1.237497    6.89316  0.1119E-10  0.1728E-04  0.3946E-07  0.1544E-02  0.6280E-02  0.2873E+02
   -1.306249    6.89373  0.1119E-10  0.1709E-04  0.3743E-07  0.1574E-02  0.5867E-02  0.3402E+02
   -1.375001    6.89427  0.1119E-10  0.1689E-04  0.3564E-07  0.1598E-02  0.5465E-02  0.5091E+02
   -1.443754    6.89479  0.1119E-10  0.1668E-04  0.3406E-07  0.1616E-02  0.5070E-02  0.9910E+02
   -1.512506    6.89528  0.1119E-10  0.1645E-04  0.3263E-07  0.1628E-02  0.4683E-02  0.1153E+04
   -1.581258    6.89576  0.1119E-10  0.1620E-04  0.3133E-07  0.1631E-02  0.4299E-02  0.6594E+05
   -1.650010    6.89622  0.1119E-10  0.1592E-04  0.3014E-07  0.1631E-02  0.3917E-02  0.5466E+04
   -1.718762    6.89666  0.1119E-10  0.1561E-04  0.2901E-07  0.1610E-02  0.3537E-02  0.2802E+04
   -1.787514    6.89710  0.1119E-10  0.1525E-04  0.2792E-07  0.1643E-02  0.3153E-02  0.2000E+02
   -1.856266    6.89752  0.1119E-10  0.1486E-04  0.2689E-07  0.1657E-02  0.2818E-02  0.4341E+01
   -1.925017    6.89793  0.1119E-10  0.1445E-04  0.2596E-07  0.1669E-02  0.2522E-02  0.1998E+01
   -1.993768    6.89832  0.1119E-10  0.1403E-04  0.2516E-07  0.1677E-02  0.2262E-02  0.1468E+01
   -2.062519    6.89871  0.1119E-10  0.1361E-04  0.2454E-07  0.1672E-02  0.2030E-02  0.1079E+01
   -2.131269    6.89910  0.1119E-10  0.1321E-04  0.2412E-07  0.1652E-02  0.1813E-02  0.7612E+00
   -2.200019    6.89948  0.1119E-10  0.1281E-04  0.2395E-07  0.1604E-02  0.1610E-02  0.5960E+00
   -2.268769    6.89986  0.1119E-10  0.1243E-04  0.2406E-07  0.1541E-02  0.1418E-02  0.4487E+00
   -2.337518    6.90025  0.1119E-10  0.1206E-04  0.2455E-07  0.1451E-02  0.1242E-02  0.2917E+00
   -2.406267    6.90066  0.1119E-10  0.1168E-04  0.2556E-07  0.1322E-02  0.1083E-02  0.2251E+00
   -2.475015    6.90111  0.1119E-10  0.1128E-04  0.2745E-07  0.1109E-02  0.9410E-03  0.1101E+01
   -2.543763    6.90162  0.1119E-10  0.1080E-04  0.3130E-07  0.8563E-03  0.8083E-03  0.2998E+03
   -2.612510    6.90229  0.1119E-10  0.1007E-04  0.4151E-07  0.4162E-03  0.6714E-03  0.1042E+03
   -2.681257    6.90356  0.1119E-10  0.6086E-05  0.1484E-06  0.3205E-04  0.5142E-03 -0.1685E+05
   -2.750002    6.91982  0.1119E-10  0.0000E+00  0.0000E+00  0.0000E+00  0.5134E-03  0.0000E+00
