 1 - depth, m
 2 - temperature, C
 3 - salinity, kg/kg
 4 - turbulent kinetic energy, m**2/s**2
 5 - dissipation rate, m**2/s**3
 6 - kinematic heat conductance, m**2/s
 7 - modulus of horizontal velocity, m/s
 8 - Richardson number, n/d
   -0.000000    6.32549  0.7197E-10  0.9962E-05  0.3298E-06  0.2985E-04  0.2109E-01 -0.2274E-01
   -0.068746    6.37255  0.7197E-10  0.9586E-05  0.1271E-06  0.7630E-04  0.1393E-01 -0.5768E-01
   -0.137492    6.39033  0.7197E-10  0.9221E-05  0.7547E-07  0.1270E-03  0.1115E-01 -0.9705E-01
   -0.206239    6.40066  0.7197E-10  0.8917E-05  0.5247E-07  0.1823E-03  0.9502E-02 -0.1405E+00
   -0.274987    6.40763  0.7197E-10  0.8671E-05  0.3967E-07  0.2430E-03  0.8373E-02 -0.1855E+00
   -0.343735    6.41270  0.7197E-10  0.8472E-05  0.3166E-07  0.3211E-03  0.7535E-02 -0.1439E+00
   -0.412484    6.41646  0.7197E-10  0.8313E-05  0.2634E-07  0.4856E-03  0.6887E-02  0.4641E+02
   -0.481233    6.41903  0.7197E-10  0.8199E-05  0.2277E-07  0.7770E-03  0.6381E-02  0.7312E+02
   -0.549983    6.42064  0.7197E-10  0.8126E-05  0.2024E-07  0.9991E-03  0.5988E-02  0.9948E+02
   -0.618733    6.42177  0.7197E-10  0.8081E-05  0.1827E-07  0.1135E-02  0.5635E-02  0.9115E+01
   -0.687483    6.42272  0.7197E-10  0.8050E-05  0.1666E-07  0.1163E-02  0.5307E-02  0.9959E+01
   -0.756234    6.42363  0.7197E-10  0.8027E-05  0.1531E-07  0.1207E-02  0.4991E-02  0.1061E+02
   -0.824985    6.42447  0.7197E-10  0.8006E-05  0.1417E-07  0.1244E-02  0.4692E-02  0.1109E+02
   -0.893737    6.42528  0.7197E-10  0.7985E-05  0.1319E-07  0.1281E-02  0.4404E-02  0.1159E+02
   -0.962488    6.42603  0.7197E-10  0.7960E-05  0.1235E-07  0.1315E-02  0.4128E-02  0.1207E+02
   -1.031240    6.42676  0.7197E-10  0.7930E-05  0.1162E-07  0.1347E-02  0.3862E-02  0.1259E+02
   -1.099992    6.42744  0.7197E-10  0.7893E-05  0.1098E-07  0.1376E-02  0.3603E-02  0.1316E+02
   -1.168744    6.42809  0.7197E-10  0.7848E-05  0.1042E-07  0.1402E-02  0.3352E-02  0.1381E+02
   -1.237496    6.42872  0.7197E-10  0.7793E-05  0.9917E-08  0.1424E-02  0.3107E-02  0.1457E+02
   -1.306249    6.42932  0.7197E-10  0.7727E-05  0.9472E-08  0.1443E-02  0.2868E-02  0.1550E+02
   -1.375001    6.42989  0.7197E-10  0.7650E-05  0.9076E-08  0.1457E-02  0.2632E-02  0.1665E+02
   -1.443753    6.43045  0.7197E-10  0.7560E-05  0.8722E-08  0.1466E-02  0.2401E-02  0.1816E+02
   -1.512506    6.43098  0.7197E-10  0.7458E-05  0.8405E-08  0.1471E-02  0.2172E-02  0.2022E+02
   -1.581258    6.43150  0.7197E-10  0.7341E-05  0.8121E-08  0.1468E-02  0.1946E-02  0.2324E+02
   -1.650010    6.43200  0.7197E-10  0.7210E-05  0.7867E-08  0.1464E-02  0.1722E-02  0.2792E+02
   -1.718762    6.43250  0.7197E-10  0.7063E-05  0.7638E-08  0.1439E-02  0.1499E-02  0.3305E+02
   -1.787514    6.43298  0.7197E-10  0.6894E-05  0.7429E-08  0.1475E-02  0.1275E-02  0.7455E+01
   -1.856266    6.43345  0.7197E-10  0.6713E-05  0.7251E-08  0.1507E-02  0.1086E-02  0.3586E+01
   -1.925017    6.43390  0.7197E-10  0.6524E-05  0.7119E-08  0.1557E-02  0.9258E-03  0.2165E+01
   -1.993768    6.43433  0.7197E-10  0.6334E-05  0.7042E-08  0.1620E-02  0.7933E-03  0.1555E+01
   -2.062519    6.43474  0.7197E-10  0.6155E-05  0.7032E-08  0.1654E-02  0.6826E-03  0.1275E+01
   -2.131269    6.43513  0.7197E-10  0.5988E-05  0.7092E-08  0.1594E-02  0.5863E-03  0.1046E+01
   -2.200019    6.43553  0.7197E-10  0.5836E-05  0.7229E-08  0.1489E-02  0.5019E-03  0.8622E+00
   -2.268769    6.43594  0.7197E-10  0.5699E-05  0.7448E-08  0.1378E-02  0.4284E-03  0.6799E+00
   -2.337518    6.43638  0.7197E-10  0.5576E-05  0.7765E-08  0.1269E-02  0.3671E-03  0.5346E+00
   -2.406267    6.43686  0.7197E-10  0.5465E-05  0.8202E-08  0.1175E-02  0.3176E-03  0.4870E+00
   -2.475015    6.43736  0.7197E-10  0.5352E-05  0.8867E-08  0.1064E-02  0.2772E-03  0.6641E+00
   -2.543763    6.43790  0.7197E-10  0.5220E-05  0.1001E-07  0.9694E-03  0.2396E-03  0.1221E+01
   -2.612510    6.43848  0.7197E-10  0.4993E-05  0.1302E-07  0.5170E-03  0.2055E-03  0.1137E+02
   -2.681256    6.43957  0.7197E-10  0.3178E-05  0.5317E-07  0.2474E-04  0.1553E-03 -0.7736E+03
   -2.750002    6.46205  0.7197E-10  0.0000E+00  0.0000E+00  0.0000E+00  0.1552E-03  0.0000E+00
