 1 - depth, m
 2 - temperature, C
 3 - salinity, kg/kg
 4 - turbulent kinetic energy, m**2/s**2
 5 - dissipation rate, m**2/s**3
 6 - kinematic heat conductance, m**2/s
 7 - modulus of horizontal velocity, m/s
 8 - Richardson number, n/d
   -0.000000   -0.00000  0.2122E-13  0.1219E-13  0.7603E-17  0.1000E-09  0.0000E+00  0.6513E+16
   -0.068747    0.09902  0.3955E-12  0.1219E-13  0.7603E-17  0.1000E-09  0.0000E+00  0.6512E+16
   -0.137495    0.20078  0.8683E-12  0.1219E-13  0.7603E-17  0.1000E-09  0.0000E+00  0.6450E+16
   -0.206243    0.30454  0.1201E-11  0.1219E-13  0.7603E-17  0.1000E-09  0.0000E+00  0.6362E+16
   -0.274992    0.41001  0.1331E-11  0.1219E-13  0.7603E-17  0.1000E-09  0.0000E+00  0.6257E+16
   -0.343742    0.51707  0.1316E-11  0.1219E-13  0.7603E-17  0.1000E-09  0.0000E+00  0.6137E+16
   -0.412492    0.62558  0.1236E-11  0.1219E-13  0.7603E-17  0.1000E-09  0.0000E+00  0.6003E+16
   -0.481242    0.73543  0.1150E-11  0.1219E-13  0.7603E-17  0.1000E-09  0.0000E+00  0.5856E+16
   -0.549993    0.84651  0.1082E-11  0.1219E-13  0.7603E-17  0.1000E-09  0.0000E+00  0.5697E+16
   -0.618745    0.95869  0.1037E-11  0.1219E-13  0.7603E-17  0.1000E-09  0.0000E+00  0.5528E+16
   -0.687497    1.07188  0.1010E-11  0.1219E-13  0.7603E-17  0.1000E-09  0.0000E+00  0.5348E+16
   -0.756249    1.18596  0.9967E-12  0.1219E-13  0.7603E-17  0.1000E-09  0.0000E+00  0.5159E+16
   -0.825001    1.30082  0.9900E-12  0.1219E-13  0.7603E-17  0.1000E-09  0.0000E+00  0.4962E+16
   -0.893754    1.41636  0.9867E-12  0.1219E-13  0.7603E-17  0.1000E-09  0.0000E+00  0.4759E+16
   -0.962507    1.53249  0.9849E-12  0.1219E-13  0.7603E-17  0.1000E-09  0.0000E+00  0.4549E+16
   -1.031260    1.64913  0.9836E-12  0.1219E-13  0.7603E-17  0.1000E-09  0.0000E+00  0.4335E+16
   -1.100013    1.76619  0.9823E-12  0.1219E-13  0.7603E-17  0.1000E-09  0.0000E+00  0.4116E+16
   -1.168767    1.88360  0.9806E-12  0.1219E-13  0.7603E-17  0.1000E-09  0.0000E+00  0.3894E+16
   -1.237520    2.00130  0.9784E-12  0.1219E-13  0.7603E-17  0.1000E-09  0.0000E+00  0.3670E+16
   -1.306274    2.11923  0.9759E-12  0.1219E-13  0.7603E-17  0.1000E-09  0.0000E+00  0.3443E+16
   -1.375027    2.23734  0.9731E-12  0.1219E-13  0.7603E-17  0.1000E-09  0.0000E+00  0.3216E+16
   -1.443781    2.35560  0.9702E-12  0.1219E-13  0.7603E-17  0.1000E-09  0.0000E+00  0.2988E+16
   -1.512535    2.47398  0.9673E-12  0.1219E-13  0.7603E-17  0.1000E-09  0.0000E+00  0.2760E+16
   -1.581288    2.59246  0.9647E-12  0.1219E-13  0.7603E-17  0.1000E-09  0.0000E+00  0.2532E+16
   -1.650042    2.71102  0.9624E-12  0.1219E-13  0.7603E-17  0.1000E-09  0.0000E+00  0.2304E+16
   -1.718795    2.82967  0.9605E-12  0.1219E-13  0.7603E-17  0.1000E-09  0.0000E+00  0.2076E+16
   -1.787548    2.94836  0.9590E-12  0.3450E-13  0.9599E-17  0.1000E-09  0.0000E+00  0.1817E+16
   -1.856301    3.06492  0.9578E-12  0.1227E-12  0.2839E-16  0.1000E-09  0.0000E+00  0.1565E+16
   -1.925054    3.17889  0.9568E-12  0.4097E-12  0.9008E-16  0.1000E-09  0.0000E+00  0.1320E+16
   -1.993806    3.28957  0.9560E-12  0.1336E-11  0.2834E-15  0.1000E-09  0.0000E+00  0.1092E+16
   -2.062558    3.39684  0.9553E-12  0.4191E-11  0.8601E-15  0.1000E-09  0.0000E+00  0.9045E+15
   -2.131310    3.50363  0.9548E-12  0.1292E-10  0.2566E-14  0.1000E-09  0.0000E+00  0.7218E+15
   -2.200062    3.61022  0.9545E-12  0.3933E-10  0.7560E-14  0.1000E-09  0.0000E+00  0.5410E+15
   -2.268813    3.71663  0.9543E-12  0.1193E-09  0.2221E-13  0.3118E-09  0.0000E+00  0.3610E+15
   -2.337563    3.82262  0.9542E-12  0.3641E-09  0.6573E-13  0.1816E-08  0.0000E+00  0.1830E+15
   -2.406313    3.92731  0.9541E-12  0.1089E-08  0.1914E-12  0.4027E-07  0.0000E+00  0.2307E+14
   -2.475063    4.00964  0.9541E-12  0.2207E-08  0.3928E-12  0.5736E-05  0.0000E+00 -0.9831E+12
   -2.543812    4.01219  0.9541E-12  0.2553E-08  0.5094E-12  0.5203E-05  0.0000E+00 -0.1177E+13
   -2.612560    4.01495  0.9541E-12  0.2575E-08  0.6947E-12  0.3287E-05  0.0000E+00 -0.1991E+13
   -2.681308    4.01908  0.9541E-12  0.1882E-08  0.1472E-11  0.5367E-06  0.0000E+00 -0.1194E+14
   -2.750055    4.03729  0.9541E-12  0.0000E+00  0.0000E+00  0.0000E+00  0.0000E+00  0.0000E+00
