 1 - depth, m
 2 - temperature, C
 3 - salinity, kg/kg
 4 - turbulent kinetic energy, m**2/s**2
 5 - dissipation rate, m**2/s**3
 6 - kinematic heat conductance, m**2/s
 7 - modulus of horizontal velocity, m/s
 8 - Richardson number, n/d
   -0.000000   -0.00000  0.1382E-10  0.4072E-07  0.2889E-09  0.2011E-06  0.1572E-02  0.7122E+12
   -0.068745    0.07473  0.1211E-10  0.1322E-06  0.8158E-10  0.1439E-06  0.8912E-03  0.2496E+12
   -0.137490    0.10819  0.1171E-10  0.3851E-06  0.2702E-10  0.1594E-06  0.4962E-03  0.1145E+12
   -0.206236    0.12200  0.1150E-10  0.4291E-06  0.2091E-10  0.2229E-02  0.2543E-03 -0.4852E+08
   -0.274982    0.12940  0.1142E-10  0.4599E-06  0.2187E-10  0.2637E-02  0.1232E-03 -0.3424E+10
   -0.343729    0.13467  0.1136E-10  0.4820E-06  0.2311E-10  0.2907E-02  0.5668E-04 -0.6012E+10
   -0.412477    0.13786  0.1132E-10  0.4955E-06  0.2408E-10  0.3086E-02  0.2408E-04 -0.5827E+10
   -0.481225    0.13936  0.1129E-10  0.5020E-06  0.2469E-10  0.3176E-02  0.9570E-05 -0.7659E+10
   -0.549974    0.13983  0.1128E-10  0.5042E-06  0.2492E-10  0.3212E-02  0.4293E-05 -0.6147E+10
   -0.618722    0.13987  0.1128E-10  0.5046E-06  0.2495E-10  0.3220E-02  0.3367E-05 -0.7589E+10
   -0.687472    0.13987  0.1128E-10  0.5049E-06  0.2497E-10  0.3222E-02  0.3299E-05 -0.5604E+10
   -0.756221    0.13986  0.1128E-10  0.5051E-06  0.2498E-10  0.3223E-02  0.3240E-05 -0.6755E+10
   -0.824971    0.13986  0.1128E-10  0.5050E-06  0.2498E-10  0.3227E-02  0.3188E-05 -0.4746E+10
   -0.893722    0.13985  0.1128E-10  0.5048E-06  0.2496E-10  0.3227E-02  0.3143E-05 -0.5472E+10
   -0.962472    0.13985  0.1128E-10  0.5045E-06  0.2493E-10  0.3230E-02  0.3105E-05 -0.3628E+10
   -1.031223    0.13984  0.1128E-10  0.5041E-06  0.2489E-10  0.3232E-02  0.3071E-05 -0.3717E+10
   -1.099974    0.13984  0.1128E-10  0.5035E-06  0.2484E-10  0.3241E-02  0.3043E-05 -0.2073E+10
   -1.168725    0.13984  0.1128E-10  0.5030E-06  0.2480E-10  0.3265E-02  0.3021E-05 -0.1178E+10
   -1.237476    0.13984  0.1128E-10  0.5023E-06  0.2474E-10  0.3174E-02  0.3003E-05  0.1875E+10
   -1.306227    0.13987  0.1127E-10  0.4996E-06  0.2446E-10  0.1222E-05  0.2902E-05  0.4760E+12
   -1.374978    0.14330  0.1124E-10  0.3742E-06  0.1808E-10  0.6177E-07  0.1567E-05  0.2600E+12
   -1.443729    0.16496  0.1117E-10  0.2122E-06  0.1025E-10  0.1684E-07  0.6942E-06  0.5171E+12
   -1.512480    0.20908  0.1114E-10  0.1155E-06  0.5601E-11  0.5696E-08  0.2968E-06  0.1010E+13
   -1.581231    0.28230  0.1113E-10  0.6182E-07  0.3013E-11  0.2099E-08  0.1249E-06  0.1906E+13
   -1.649982    0.39476  0.1112E-10  0.3287E-07  0.1611E-11  0.8362E-09  0.5040E-07  0.3261E+13
   -1.718733    0.55805  0.1111E-10  0.1758E-07  0.8674E-12  0.3818E-09  0.1532E-07  0.1210E+14
   -1.787484    0.77801  0.1111E-10  0.9491E-08  0.4722E-12  0.3002E-09  0.9909E-09  0.9197E+15
   -1.856234    0.94380  0.1110E-10  0.5064E-08  0.2558E-12  0.2450E-09  0.5922E-10  0.2804E+16
   -1.924984    1.06087  0.1110E-10  0.2638E-08  0.1384E-12  0.2122E-09  0.3244E-11  0.3379E+16
   -1.993734    1.13290  0.1110E-10  0.1291E-08  0.7706E-13  0.1498E-09  0.1929E-12  0.3029E+16
   -2.062484    1.19954  0.1110E-10  0.5761E-09  0.5345E-13  0.1020E-09  0.1473E-13  0.7708E+16
   -2.131233    1.37551  0.1110E-10  0.2689E-09  0.6993E-13  0.1000E-09  0.1055E-14  0.1250E+17
   -2.199982    1.68998  0.1109E-10  0.4448E-09  0.2229E-12  0.1216E-09  0.7052E-16  0.1588E+17
   -2.268731    2.16969  0.1108E-10  0.2170E-08  0.1138E-11  0.4073E-09  0.3264E-17  0.1554E+17
   -2.337479    2.82812  0.1105E-10  0.1200E-07  0.6178E-11  0.4895E-08  0.1245E-18  0.9606E+16
   -2.406226    3.67903  0.1100E-10  0.3141E-07  0.1769E-10  0.1240E-04  0.3908E-20  0.1472E+16
   -2.474973    4.12344  0.1098E-10  0.4645E-07  0.2796E-10  0.3219E-04  0.2309E-21 -0.1039E+14
   -2.543720    4.12842  0.1098E-10  0.5101E-07  0.3453E-10  0.2891E-04  0.5348E-22 -0.1262E+14
   -2.612466    4.13426  0.1098E-10  0.5213E-07  0.4698E-10  0.1967E-04  0.9905E-23 -0.2125E+14
   -2.681211    4.14365  0.1098E-10  0.4256E-07  0.1169E-09  0.3907E-05  0.1062E-23 -0.1611E+15
   -2.749956    4.20086  0.1098E-10  0.0000E+00  0.0000E+00  0.0000E+00  0.1070E-23  0.0000E+00
