 1 - depth, m
 2 - temperature, C
 3 - salinity, kg/kg
 4 - turbulent kinetic energy, m**2/s**2
 5 - dissipation rate, m**2/s**3
 6 - kinematic heat conductance, m**2/s
 7 - modulus of horizontal velocity, m/s
 8 - Richardson number, n/d
   -0.000000   -0.00000  0.2394E-10  0.1219E-13  0.7603E-17  0.1000E-09  0.0000E+00  0.6142E+16
   -0.068746    0.09330  0.1309E-10  0.1219E-13  0.7603E-17  0.1000E-09  0.0000E+00  0.5904E+16
   -0.137492    0.18530  0.9778E-11  0.1219E-13  0.7603E-17  0.1000E-09  0.0000E+00  0.5708E+16
   -0.206239    0.27655  0.8920E-11  0.1219E-13  0.7603E-17  0.1000E-09  0.0000E+00  0.5547E+16
   -0.274986    0.36758  0.8727E-11  0.1219E-13  0.7603E-17  0.1000E-09  0.0000E+00  0.5420E+16
   -0.343735    0.45892  0.8688E-11  0.1219E-13  0.7603E-17  0.1000E-09  0.0000E+00  0.5320E+16
   -0.412483    0.55110  0.8681E-11  0.1219E-13  0.7603E-17  0.1000E-09  0.0000E+00  0.5245E+16
   -0.481232    0.64462  0.8679E-11  0.1219E-13  0.7603E-17  0.1000E-09  0.0000E+00  0.5190E+16
   -0.549982    0.73995  0.8679E-11  0.1219E-13  0.7603E-17  0.1000E-09  0.0000E+00  0.5150E+16
   -0.618732    0.83757  0.8679E-11  0.1219E-13  0.7603E-17  0.1000E-09  0.0000E+00  0.5122E+16
   -0.687482    0.93793  0.8679E-11  0.1219E-13  0.7603E-17  0.1000E-09  0.0000E+00  0.5114E+16
   -0.756233    1.04171  0.8679E-11  0.1219E-13  0.7603E-17  0.1000E-09  0.0000E+00  0.5115E+16
   -0.824984    1.14951  0.8679E-11  0.1219E-13  0.7603E-17  0.1000E-09  0.0000E+00  0.5110E+16
   -0.893735    1.26166  0.8679E-11  0.1219E-13  0.7603E-17  0.1000E-09  0.0000E+00  0.5094E+16
   -0.962486    1.37848  0.8678E-11  0.1219E-13  0.7603E-17  0.1000E-09  0.0000E+00  0.5063E+16
   -1.031238    1.50026  0.8676E-11  0.5120E-13  0.8285E-17  0.1000E-09  0.0000E+00  0.5010E+16
   -1.099990    1.62723  0.8671E-11  0.1429E-12  0.1696E-16  0.1000E-09  0.0000E+00  0.4932E+16
   -1.168742    1.75957  0.8657E-11  0.3423E-12  0.3758E-16  0.1000E-09  0.0000E+00  0.4824E+16
   -1.237494    1.89742  0.8632E-11  0.7807E-12  0.8269E-16  0.1000E-09  0.0000E+00  0.4682E+16
   -1.306246    2.04086  0.8593E-11  0.1745E-11  0.1798E-15  0.1000E-09  0.0000E+00  0.4501E+16
   -1.374998    2.18991  0.8546E-11  0.3852E-11  0.3870E-15  0.1000E-09  0.0000E+00  0.4288E+16
   -1.443751    2.34485  0.8506E-11  0.8421E-11  0.8251E-15  0.1000E-09  0.0000E+00  0.4032E+16
   -1.512503    2.50565  0.8479E-11  0.1824E-10  0.1744E-14  0.1000E-09  0.0000E+00  0.3726E+16
   -1.581255    2.67211  0.8464E-11  0.3916E-10  0.3653E-14  0.1000E-09  0.0000E+00  0.3371E+16
   -1.650007    2.84390  0.8455E-11  0.8334E-10  0.7590E-14  0.1000E-09  0.0000E+00  0.2967E+16
   -1.718759    3.02058  0.8450E-11  0.1759E-09  0.1564E-13  0.1000E-09  0.0000E+00  0.2519E+16
   -1.787510    3.20176  0.8446E-11  0.3765E-09  0.3269E-13  0.1000E-09  0.0000E+00  0.2061E+16
   -1.856262    3.39027  0.8442E-11  0.8138E-09  0.6901E-13  0.2280E-09  0.0000E+00  0.1541E+16
   -1.925013    3.58620  0.8435E-11  0.1759E-08  0.1457E-12  0.7772E-09  0.0000E+00  0.9545E+15
   -1.993764    3.78929  0.8422E-11  0.3786E-08  0.3067E-12  0.5132E-08  0.0000E+00  0.3043E+15
   -2.062515    3.99302  0.8416E-11  0.4569E-08  0.3729E-12  0.1911E-04  0.0000E+00 -0.1813E+12
   -2.131265    3.99457  0.8416E-11  0.4940E-08  0.4128E-12  0.2130E-04  0.0000E+00 -0.1954E+12
   -2.200015    3.99596  0.8416E-11  0.5260E-08  0.4569E-12  0.2246E-04  0.0000E+00 -0.2142E+12
   -2.268764    3.99729  0.8416E-11  0.5529E-08  0.5073E-12  0.2265E-04  0.0000E+00 -0.2405E+12
   -2.337514    3.99861  0.8416E-11  0.5754E-08  0.5696E-12  0.2182E-04  0.0000E+00 -0.2798E+12
   -2.406262    3.99998  0.8416E-11  0.5926E-08  0.6520E-12  0.1990E-04  0.0000E+00 -0.3430E+12
   -2.475010    4.00150  0.8416E-11  0.6028E-08  0.7731E-12  0.1676E-04  0.0000E+00 -0.4581E+12
   -2.543758    4.00332  0.8416E-11  0.6016E-08  0.9825E-12  0.1228E-04  0.0000E+00 -0.7172E+12
   -2.612505    4.00582  0.8416E-11  0.5756E-08  0.1480E-11  0.6565E-05  0.0000E+00 -0.1642E+13
   -2.681251    4.01061  0.8416E-11  0.4470E-08  0.4149E-11  0.1100E-05  0.0000E+00 -0.1726E+14
   -2.749997    4.03918  0.8416E-11  0.0000E+00  0.0000E+00  0.0000E+00  0.0000E+00  0.0000E+00
