 1 - depth, m
 2 - temperature, C
 3 - salinity, kg/kg
 4 - turbulent kinetic energy, m**2/s**2
 5 - dissipation rate, m**2/s**3
 6 - kinematic heat conductance, m**2/s
 7 - modulus of horizontal velocity, m/s
 8 - Richardson number, n/d
   -0.000000   -0.00000  0.3763E-10  0.1219E-13  0.7603E-17  0.1000E-09  0.0000E+00  0.4422E+16
   -0.068746    0.06694  0.2041E-10  0.1219E-13  0.7603E-17  0.1000E-09  0.0000E+00  0.4236E+16
   -0.137492    0.13223  0.1620E-10  0.1219E-13  0.7603E-17  0.1000E-09  0.0000E+00  0.4090E+16
   -0.206239    0.19641  0.1527E-10  0.1219E-13  0.7603E-17  0.1000E-09  0.0000E+00  0.3983E+16
   -0.274986    0.26004  0.1508E-10  0.1219E-13  0.7603E-17  0.1000E-09  0.0000E+00  0.3914E+16
   -0.343734    0.32370  0.1505E-10  0.1219E-13  0.7603E-17  0.1000E-09  0.0000E+00  0.3879E+16
   -0.412483    0.38799  0.1504E-10  0.1219E-13  0.7603E-17  0.1000E-09  0.0000E+00  0.3878E+16
   -0.481232    0.45350  0.1504E-10  0.1219E-13  0.7603E-17  0.1000E-09  0.0000E+00  0.3909E+16
   -0.549982    0.52086  0.1504E-10  0.1219E-13  0.7603E-17  0.1000E-09  0.0000E+00  0.3968E+16
   -0.618732    0.59067  0.1504E-10  0.1219E-13  0.7603E-17  0.1000E-09  0.0000E+00  0.4052E+16
   -0.687482    0.66359  0.1504E-10  0.1219E-13  0.7603E-17  0.1000E-09  0.0000E+00  0.4175E+16
   -0.756233    0.74053  0.1504E-10  0.1219E-13  0.7603E-17  0.1000E-09  0.0000E+00  0.4324E+16
   -0.824983    0.82229  0.1504E-10  0.1219E-13  0.7603E-17  0.1000E-09  0.0000E+00  0.4483E+16
   -0.893735    0.90948  0.1504E-10  0.1219E-13  0.7603E-17  0.1000E-09  0.0000E+00  0.4647E+16
   -0.962486    1.00269  0.1504E-10  0.1219E-13  0.7603E-17  0.1000E-09  0.0000E+00  0.4808E+16
   -1.031238    1.10246  0.1504E-10  0.1219E-13  0.7603E-17  0.1000E-09  0.0000E+00  0.4959E+16
   -1.099990    1.20930  0.1504E-10  0.1219E-13  0.7603E-17  0.1000E-09  0.0000E+00  0.5091E+16
   -1.168742    1.32365  0.1503E-10  0.1219E-13  0.7603E-17  0.1000E-09  0.0000E+00  0.5196E+16
   -1.237494    1.44590  0.1500E-10  0.1669E-13  0.7603E-17  0.1000E-09  0.0000E+00  0.5264E+16
   -1.306246    1.57636  0.1494E-10  0.6931E-13  0.1310E-16  0.1000E-09  0.0000E+00  0.5287E+16
   -1.374998    1.71523  0.1486E-10  0.2049E-12  0.3327E-16  0.1000E-09  0.0000E+00  0.5274E+16
   -1.443750    1.86313  0.1477E-10  0.5509E-12  0.8536E-16  0.1000E-09  0.0000E+00  0.5200E+16
   -1.512502    2.02023  0.1471E-10  0.1437E-11  0.2156E-15  0.1000E-09  0.0000E+00  0.5052E+16
   -1.581255    2.18640  0.1468E-10  0.3688E-11  0.5372E-15  0.1000E-09  0.0000E+00  0.4824E+16
   -1.650007    2.36135  0.1467E-10  0.9340E-11  0.1322E-14  0.1000E-09  0.0000E+00  0.4513E+16
   -1.718758    2.54468  0.1466E-10  0.2336E-10  0.3213E-14  0.1000E-09  0.0000E+00  0.4118E+16
   -1.787510    2.73581  0.1465E-10  0.5926E-10  0.7918E-14  0.1000E-09  0.0000E+00  0.3652E+16
   -1.856261    2.93464  0.1465E-10  0.1510E-09  0.1962E-13  0.1000E-09  0.0000E+00  0.3114E+16
   -1.925013    3.14110  0.1465E-10  0.3833E-09  0.4844E-13  0.1009E-09  0.0000E+00  0.2505E+16
   -1.993764    3.35519  0.1464E-10  0.9681E-09  0.1191E-12  0.3339E-09  0.0000E+00  0.1815E+16
   -2.062514    3.57585  0.1462E-10  0.2375E-08  0.2845E-12  0.1383E-08  0.0000E+00  0.1047E+16
   -2.131265    3.79798  0.1459E-10  0.5714E-08  0.6672E-12  0.1233E-07  0.0000E+00  0.2754E+15
   -2.200015    4.00579  0.1457E-10  0.7019E-08  0.8261E-12  0.2434E-04  0.0000E+00 -0.4100E+12
   -2.268764    4.00709  0.1457E-10  0.7543E-08  0.9114E-12  0.2496E-04  0.0000E+00 -0.4284E+12
   -2.337513    4.00837  0.1457E-10  0.7952E-08  0.1009E-11  0.2445E-04  0.0000E+00 -0.4679E+12
   -2.406262    4.00968  0.1457E-10  0.8248E-08  0.1133E-11  0.2269E-04  0.0000E+00 -0.5404E+12
   -2.475010    4.01112  0.1457E-10  0.8419E-08  0.1310E-11  0.1953E-04  0.0000E+00 -0.6790E+12
   -2.543757    4.01281  0.1457E-10  0.8414E-08  0.1613E-11  0.1473E-04  0.0000E+00 -0.9916E+12
   -2.612504    4.01510  0.1457E-10  0.8066E-08  0.2324E-11  0.8240E-05  0.0000E+00 -0.2067E+13
   -2.681251    4.01937  0.1457E-10  0.6291E-08  0.6247E-11  0.1423E-05  0.0000E+00 -0.1941E+14
   -2.749996    4.04607  0.1457E-10  0.0000E+00  0.0000E+00  0.0000E+00  0.0000E+00  0.0000E+00
