 1 - depth, m
 2 - temperature, C
 3 - salinity, kg/kg
 4 - turbulent kinetic energy, m**2/s**2
 5 - dissipation rate, m**2/s**3
 6 - kinematic heat conductance, m**2/s
 7 - modulus of horizontal velocity, m/s
 8 - Richardson number, n/d
   -0.000000   -0.00000  0.1781E-10  0.1219E-13  0.7603E-17  0.1000E-09  0.0000E+00  0.5512E+16
   -0.068746    0.08363  0.9758E-11  0.1219E-13  0.7603E-17  0.1000E-09  0.0000E+00  0.5307E+16
   -0.137492    0.16600  0.7363E-11  0.1219E-13  0.7603E-17  0.1000E-09  0.0000E+00  0.5140E+16
   -0.206239    0.24761  0.6780E-11  0.1219E-13  0.7603E-17  0.1000E-09  0.0000E+00  0.5008E+16
   -0.274987    0.32898  0.6655E-11  0.1219E-13  0.7603E-17  0.1000E-09  0.0000E+00  0.4907E+16
   -0.343735    0.41064  0.6631E-11  0.1219E-13  0.7603E-17  0.1000E-09  0.0000E+00  0.4837E+16
   -0.412483    0.49311  0.6626E-11  0.1219E-13  0.7603E-17  0.1000E-09  0.0000E+00  0.4792E+16
   -0.481232    0.57690  0.6626E-11  0.1219E-13  0.7603E-17  0.1000E-09  0.0000E+00  0.4770E+16
   -0.549982    0.66252  0.6626E-11  0.1219E-13  0.7603E-17  0.1000E-09  0.0000E+00  0.4766E+16
   -0.618732    0.75047  0.6626E-11  0.1219E-13  0.7603E-17  0.1000E-09  0.0000E+00  0.4778E+16
   -0.687482    0.84124  0.6626E-11  0.1219E-13  0.7603E-17  0.1000E-09  0.0000E+00  0.4814E+16
   -0.756233    0.93557  0.6626E-11  0.1219E-13  0.7603E-17  0.1000E-09  0.0000E+00  0.4863E+16
   -0.824984    1.03408  0.6626E-11  0.1219E-13  0.7603E-17  0.1000E-09  0.0000E+00  0.4910E+16
   -0.893735    1.13718  0.6626E-11  0.1219E-13  0.7603E-17  0.1000E-09  0.0000E+00  0.4951E+16
   -0.962487    1.24527  0.6625E-11  0.1219E-13  0.7603E-17  0.1000E-09  0.0000E+00  0.4980E+16
   -1.031238    1.35868  0.6624E-11  0.1219E-13  0.7603E-17  0.1000E-09  0.0000E+00  0.4992E+16
   -1.099990    1.47773  0.6620E-11  0.1799E-13  0.7603E-17  0.1000E-09  0.0000E+00  0.4980E+16
   -1.168742    1.60267  0.6609E-11  0.7194E-13  0.1169E-16  0.1000E-09  0.0000E+00  0.4939E+16
   -1.237494    1.73370  0.6589E-11  0.2000E-12  0.2703E-16  0.1000E-09  0.0000E+00  0.4864E+16
   -1.306246    1.87096  0.6556E-11  0.4991E-12  0.6397E-16  0.1000E-09  0.0000E+00  0.4750E+16
   -1.374999    2.01454  0.6518E-11  0.1204E-11  0.1494E-15  0.1000E-09  0.0000E+00  0.4602E+16
   -1.443751    2.16480  0.6487E-11  0.2855E-11  0.3447E-15  0.1000E-09  0.0000E+00  0.4407E+16
   -1.512503    2.32176  0.6467E-11  0.6691E-11  0.7865E-15  0.1000E-09  0.0000E+00  0.4158E+16
   -1.581255    2.48526  0.6456E-11  0.1552E-10  0.1776E-14  0.1000E-09  0.0000E+00  0.3852E+16
   -1.650007    2.65502  0.6449E-11  0.3561E-10  0.3972E-14  0.1000E-09  0.0000E+00  0.3490E+16
   -1.718759    2.83066  0.6444E-11  0.8092E-10  0.8794E-14  0.1000E-09  0.0000E+00  0.3074E+16
   -1.787511    3.01177  0.6442E-11  0.1865E-09  0.1975E-13  0.1000E-09  0.0000E+00  0.2629E+16
   -1.856262    3.19971  0.6440E-11  0.4334E-09  0.4473E-13  0.1070E-09  0.0000E+00  0.2128E+16
   -1.925014    3.39464  0.6438E-11  0.1005E-08  0.1012E-12  0.3292E-09  0.0000E+00  0.1564E+16
   -1.993764    3.59653  0.6433E-11  0.2322E-08  0.2281E-12  0.1244E-08  0.0000E+00  0.9332E+15
   -2.062515    3.80369  0.6423E-11  0.5206E-08  0.4995E-12  0.9776E-08  0.0000E+00  0.2601E+15
   -2.131265    4.00064  0.6418E-11  0.6192E-08  0.5985E-12  0.2526E-04  0.0000E+00 -0.2726E+12
   -2.200015    4.00180  0.6418E-11  0.6608E-08  0.6525E-12  0.2624E-04  0.0000E+00 -0.2838E+12
   -2.268765    4.00293  0.6418E-11  0.6939E-08  0.7120E-12  0.2626E-04  0.0000E+00 -0.3051E+12
   -2.337514    4.00407  0.6418E-11  0.7198E-08  0.7838E-12  0.2522E-04  0.0000E+00 -0.3410E+12
   -2.406263    4.00525  0.6418E-11  0.7380E-08  0.8779E-12  0.2303E-04  0.0000E+00 -0.4019E+12
   -2.475011    4.00656  0.6418E-11  0.7466E-08  0.1016E-11  0.1948E-04  0.0000E+00 -0.5148E+12
   -2.543758    4.00813  0.6418E-11  0.7408E-08  0.1255E-11  0.1442E-04  0.0000E+00 -0.7677E+12
   -2.612505    4.01027  0.6418E-11  0.7046E-08  0.1826E-11  0.7826E-05  0.0000E+00 -0.1647E+13
   -2.681252    4.01431  0.6418E-11  0.5358E-08  0.5028E-11  0.1242E-05  0.0000E+00 -0.1669E+14
   -2.749997    4.04031  0.6418E-11  0.0000E+00  0.0000E+00  0.0000E+00  0.0000E+00  0.0000E+00
