 1 - depth, m
 2 - temperature, C
 3 - salinity, kg/kg
 4 - turbulent kinetic energy, m**2/s**2
 5 - dissipation rate, m**2/s**3
 6 - kinematic heat conductance, m**2/s
 7 - modulus of horizontal velocity, m/s
 8 - Richardson number, n/d
   -0.000000   -0.00000  0.4206E-10  0.3230E-08  0.5517E-11  0.3341E-08  0.4203E-13  0.7605E+16
   -0.068746    0.11590  0.3006E-10  0.3000E-07  0.4000E-11  0.4181E-08  0.3365E-13  0.4892E+16
   -0.137492    0.19244  0.2674E-10  0.8031E-07  0.4274E-11  0.1148E-07  0.2824E-13  0.2501E+16
   -0.206239    0.23220  0.2614E-10  0.1330E-06  0.4865E-11  0.8121E-07  0.2437E-13  0.9968E+15
   -0.274986    0.24819  0.2608E-10  0.1622E-06  0.5301E-11  0.4222E-04  0.2242E-13  0.2755E+15
   -0.343734    0.25262  0.2607E-10  0.1731E-06  0.5459E-11  0.7443E-03  0.2236E-13  0.3107E+14
   -0.412482    0.25312  0.2607E-10  0.1732E-06  0.5461E-11  0.1812E-02  0.2235E-13 -0.8465E+10
   -0.481231    0.25312  0.2607E-10  0.1733E-06  0.5462E-11  0.1824E-02  0.2235E-13 -0.2009E+11
   -0.549981    0.25312  0.2607E-10  0.1734E-06  0.5463E-11  0.1817E-02  0.2234E-13 -0.2721E+11
   -0.618730    0.25312  0.2607E-10  0.1734E-06  0.5463E-11  0.1815E-02  0.2234E-13 -0.3060E+11
   -0.687481    0.25312  0.2607E-10  0.1734E-06  0.5463E-11  0.1815E-02  0.2234E-13 -0.3079E+11
   -0.756231    0.25312  0.2607E-10  0.1734E-06  0.5463E-11  0.1815E-02  0.2233E-13 -0.2835E+11
   -0.824982    0.25312  0.2607E-10  0.1734E-06  0.5462E-11  0.1818E-02  0.2233E-13 -0.2329E+11
   -0.893733    0.25312  0.2607E-10  0.1733E-06  0.5460E-11  0.1788E-02  0.2233E-13 -0.1609E+11
   -0.962484    0.25312  0.2607E-10  0.1733E-06  0.5459E-11  0.1718E-02  0.2232E-13 -0.6466E+10
   -1.031236    0.25312  0.2607E-10  0.1732E-06  0.5457E-11  0.1054E-02  0.2232E-13  0.1944E+13
   -1.099988    0.25315  0.2607E-10  0.1712E-06  0.5422E-11  0.1127E-03  0.2231E-13  0.6235E+14
   -1.168739    0.25416  0.2607E-10  0.1578E-06  0.5171E-11  0.5237E-05  0.2230E-13  0.2949E+15
   -1.237491    0.25892  0.2607E-10  0.1336E-06  0.4666E-11  0.7000E-07  0.2212E-13  0.8473E+15
   -1.306243    0.27263  0.2605E-10  0.1046E-06  0.3940E-11  0.1357E-07  0.2042E-13  0.1892E+16
   -1.374995    0.30341  0.2591E-10  0.7781E-07  0.3127E-11  0.4940E-08  0.1739E-13  0.3500E+16
   -1.443747    0.36106  0.2561E-10  0.5562E-07  0.2357E-11  0.2308E-08  0.1403E-13  0.5408E+16
   -1.512499    0.45208  0.2549E-10  0.3832E-07  0.1697E-11  0.1183E-08  0.1068E-13  0.7436E+16
   -1.581251    0.58142  0.2545E-10  0.2556E-07  0.1179E-11  0.6354E-09  0.7515E-14  0.9418E+16
   -1.650003    0.75305  0.2541E-10  0.1662E-07  0.7974E-12  0.3633E-09  0.4565E-14  0.1108E+17
   -1.718755    0.96819  0.2539E-10  0.1064E-07  0.5340E-12  0.2358E-09  0.1788E-14  0.1204E+17
   -1.787507    1.22185  0.2538E-10  0.6667E-08  0.3570E-12  0.1863E-09  0.1213E-15  0.1123E+17
   -1.856258    1.48261  0.2537E-10  0.3995E-08  0.2419E-12  0.1527E-09  0.7573E-17  0.1046E+17
   -1.925009    1.75432  0.2537E-10  0.2277E-08  0.1813E-12  0.1314E-09  0.4316E-18  0.1010E+17
   -1.993760    2.05429  0.2537E-10  0.1380E-08  0.1867E-12  0.1293E-09  0.2679E-19  0.1016E+17
   -2.062510    2.41480  0.2536E-10  0.1536E-08  0.3316E-12  0.1824E-09  0.2162E-20  0.9966E+16
   -2.131260    2.87858  0.2534E-10  0.3744E-08  0.8969E-12  0.5539E-09  0.1633E-21  0.7322E+16
   -2.200010    3.42986  0.2529E-10  0.1151E-07  0.2704E-11  0.5577E-08  0.1145E-22  0.2375E+16
   -2.268760    3.96408  0.2521E-10  0.1550E-07  0.3617E-11  0.2211E-04  0.3429E-24  0.4850E+14
   -2.337509    4.02803  0.2521E-10  0.1764E-07  0.4207E-11  0.2829E-04  0.1450E-24 -0.1457E+13
   -2.406257    4.03063  0.2521E-10  0.1879E-07  0.4748E-11  0.2725E-04  0.5727E-25 -0.1644E+13
   -2.475005    4.03330  0.2521E-10  0.1958E-07  0.5509E-11  0.2422E-04  0.2034E-25 -0.2045E+13
   -2.543752    4.03636  0.2521E-10  0.1995E-07  0.6812E-11  0.1899E-04  0.6207E-26 -0.2997E+13
   -2.612499    4.04047  0.2521E-10  0.1964E-07  0.9905E-11  0.1143E-04  0.1390E-26 -0.6364E+13
   -2.681245    4.04815  0.2521E-10  0.1642E-07  0.2788E-10  0.2440E-05  0.1618E-27 -0.5879E+14
   -2.749991    4.09330  0.2521E-10  0.0000E+00  0.0000E+00  0.0000E+00  0.1707E-27  0.0000E+00
