 1 - depth, m
 2 - temperature, C
 3 - salinity, kg/kg
 4 - turbulent kinetic energy, m**2/s**2
 5 - dissipation rate, m**2/s**3
 6 - kinematic heat conductance, m**2/s
 7 - modulus of horizontal velocity, m/s
 8 - Richardson number, n/d
   -0.000000    9.40612  0.1949E-10  0.2037E-04  0.1330E-05  0.3450E-04  0.3446E-01 -0.1492E-01
   -0.068746    9.44123  0.1949E-10  0.1806E-04  0.4068E-06  0.9048E-04  0.2172E-01 -0.4194E-01
   -0.137492    9.45332  0.1949E-10  0.1712E-04  0.2206E-06  0.1505E-03  0.1751E-01 -0.6991E-01
   -0.206239    9.46039  0.1949E-10  0.1650E-04  0.1469E-06  0.2163E-03  0.1501E-01 -0.1009E+00
   -0.274987    9.46515  0.1949E-10  0.1603E-04  0.1085E-06  0.2895E-03  0.1330E-01 -0.1259E+00
   -0.343735    9.46860  0.1949E-10  0.1566E-04  0.8542E-07  0.3955E-03  0.1203E-01  0.2093E+02
   -0.412484    9.47114  0.1949E-10  0.1538E-04  0.7032E-07  0.5518E-03  0.1105E-01  0.2389E+02
   -0.481233    9.47302  0.1949E-10  0.1517E-04  0.5992E-07  0.7684E-03  0.1027E-01  0.8390E+02
   -0.549983    9.47437  0.1949E-10  0.1503E-04  0.5247E-07  0.1015E-02  0.9619E-02  0.5069E+02
   -0.618733    9.47535  0.1949E-10  0.1493E-04  0.4691E-07  0.1242E-02  0.9059E-02  0.3727E+02
   -0.687483    9.47609  0.1949E-10  0.1488E-04  0.4258E-07  0.1447E-02  0.8554E-02  0.7150E+02
   -0.756234    9.47669  0.1949E-10  0.1485E-04  0.3906E-07  0.1509E-02  0.8087E-02  0.1350E+02
   -0.824985    9.47724  0.1949E-10  0.1483E-04  0.3609E-07  0.1567E-02  0.7634E-02  0.1516E+02
   -0.893737    9.47777  0.1949E-10  0.1481E-04  0.3359E-07  0.1619E-02  0.7201E-02  0.1660E+02
   -0.962488    9.47826  0.1949E-10  0.1480E-04  0.3145E-07  0.1670E-02  0.6784E-02  0.1823E+02
   -1.031240    9.47873  0.1949E-10  0.1477E-04  0.2960E-07  0.1717E-02  0.6380E-02  0.2004E+02
   -1.099992    9.47918  0.1949E-10  0.1473E-04  0.2799E-07  0.1761E-02  0.5987E-02  0.2219E+02
   -1.168744    9.47961  0.1949E-10  0.1468E-04  0.2658E-07  0.1801E-02  0.5605E-02  0.2483E+02
   -1.237496    9.48002  0.1949E-10  0.1461E-04  0.2534E-07  0.1837E-02  0.5230E-02  0.2826E+02
   -1.306249    9.48042  0.1949E-10  0.1452E-04  0.2424E-07  0.1867E-02  0.4862E-02  0.3297E+02
   -1.375001    9.48080  0.1949E-10  0.1440E-04  0.2326E-07  0.1890E-02  0.4500E-02  0.3995E+02
   -1.443753    9.48117  0.1949E-10  0.1426E-04  0.2238E-07  0.1906E-02  0.4142E-02  0.5154E+02
   -1.512506    9.48153  0.1949E-10  0.1409E-04  0.2158E-07  0.1915E-02  0.3787E-02  0.7456E+02
   -1.581258    9.48188  0.1949E-10  0.1389E-04  0.2086E-07  0.1912E-02  0.3434E-02  0.1406E+03
   -1.650010    9.48223  0.1949E-10  0.1365E-04  0.2020E-07  0.1905E-02  0.3082E-02  0.9964E+03
   -1.718762    9.48257  0.1949E-10  0.1337E-04  0.1958E-07  0.1873E-02  0.2730E-02  0.1232E+05
   -1.787514    9.48291  0.1949E-10  0.1303E-04  0.1898E-07  0.1878E-02  0.2375E-02  0.1807E+02
   -1.856265    9.48325  0.1949E-10  0.1266E-04  0.1843E-07  0.1869E-02  0.2066E-02  0.6023E+01
   -1.925017    9.48358  0.1949E-10  0.1225E-04  0.1798E-07  0.1866E-02  0.1796E-02  0.3102E+01
   -1.993768    9.48392  0.1949E-10  0.1182E-04  0.1765E-07  0.1869E-02  0.1564E-02  0.2051E+01
   -2.062519    9.48425  0.1949E-10  0.1140E-04  0.1750E-07  0.1867E-02  0.1362E-02  0.1621E+01
   -2.131269    9.48458  0.1949E-10  0.1099E-04  0.1756E-07  0.1844E-02  0.1180E-02  0.1303E+01
   -2.200019    9.48490  0.1949E-10  0.1060E-04  0.1786E-07  0.1808E-02  0.1016E-02  0.1057E+01
   -2.268769    9.48523  0.1949E-10  0.1023E-04  0.1845E-07  0.1745E-02  0.8669E-03  0.8084E+00
   -2.337518    9.48557  0.1949E-10  0.9893E-05  0.1939E-07  0.1582E-02  0.7388E-03  0.6039E+00
   -2.406267    9.48594  0.1949E-10  0.9582E-05  0.2076E-07  0.1391E-02  0.6320E-03  0.4640E+00
   -2.475015    9.48635  0.1949E-10  0.9297E-05  0.2273E-07  0.1206E-02  0.5457E-03  0.4369E+00
   -2.543763    9.48682  0.1949E-10  0.9004E-05  0.2592E-07  0.1166E-02  0.4760E-03  0.6717E+00
   -2.612510    9.48731  0.1949E-10  0.8513E-05  0.3518E-07  0.6113E-03  0.4181E-03  0.1882E+04
   -2.681256    9.48870  0.1949E-10  0.5238E-05  0.1455E-06  0.4437E-04  0.3160E-03 -0.1406E+05
   -2.750002    9.50164  0.1949E-10  0.0000E+00  0.0000E+00  0.0000E+00  0.3234E-03  0.0000E+00
