 1 - depth, m
 2 - temperature, C
 3 - salinity, kg/kg
 4 - turbulent kinetic energy, m**2/s**2
 5 - dissipation rate, m**2/s**3
 6 - kinematic heat conductance, m**2/s
 7 - modulus of horizontal velocity, m/s
 8 - Richardson number, n/d
   -0.000000   -0.02756  0.2139E-11  0.5150E-04  0.1024E-04  0.6627E-04  0.7458E-01  0.1742E-01
   -0.068746    0.01200  0.2139E-11  0.3166E-04  0.2265E-05  0.8455E-04  0.4517E-01  0.2977E-01
   -0.137492    0.02110  0.2139E-11  0.2611E-04  0.9110E-06  0.1111E-03  0.3891E-01  0.1758E-01
   -0.206239    0.02688  0.2139E-11  0.2287E-04  0.4682E-06  0.1372E-03  0.3496E-01  0.2471E-01
   -0.274987    0.03158  0.2139E-11  0.2069E-04  0.2886E-06  0.1600E-03  0.3200E-01  0.3281E-01
   -0.343735    0.03560  0.2139E-11  0.1902E-04  0.2008E-06  0.1786E-03  0.2966E-01  0.4213E-01
   -0.412484    0.03917  0.2139E-11  0.1762E-04  0.1508E-06  0.1926E-03  0.2774E-01  0.5290E-01
   -0.481233    0.04245  0.2139E-11  0.1636E-04  0.1188E-06  0.2018E-03  0.2611E-01  0.6538E-01
   -0.549983    0.04557  0.2139E-11  0.1520E-04  0.9662E-07  0.2062E-03  0.2468E-01  0.7993E-01
   -0.618733    0.04860  0.2139E-11  0.1411E-04  0.8040E-07  0.2060E-03  0.2342E-01  0.9701E-01
   -0.687483    0.05164  0.2139E-11  0.1308E-04  0.6803E-07  0.2015E-03  0.2227E-01  0.1173E+00
   -0.756234    0.05475  0.2139E-11  0.1210E-04  0.5832E-07  0.1932E-03  0.2121E-01  0.1418E+00
   -0.824985    0.05802  0.2139E-11  0.1117E-04  0.5052E-07  0.1814E-03  0.2022E-01  0.1719E+00
   -0.893737    0.06155  0.2139E-11  0.1027E-04  0.4415E-07  0.1666E-03  0.1927E-01  0.2098E+00
   -0.962488    0.06550  0.2139E-11  0.9403E-05  0.3890E-07  0.1496E-03  0.1837E-01  0.2585E+00
   -1.031240    0.07014  0.2139E-11  0.8569E-05  0.3454E-07  0.1310E-03  0.1747E-01  0.3216E+00
   -1.099992    0.07606  0.2139E-11  0.7757E-05  0.3091E-07  0.1118E-03  0.1657E-01  0.3952E+00
   -1.168744    0.08539  0.2139E-11  0.6949E-05  0.2788E-07  0.9358E-04  0.1560E-01  0.4713E+00
   -1.237497    0.11468  0.2139E-11  0.6158E-05  0.2516E-07  0.7727E-04  0.1435E-01  0.6643E+00
   -1.306249    0.18233  0.2139E-11  0.5438E-05  0.2289E-07  0.6318E-04  0.1285E-01  0.1204E+01
   -1.375001    0.25733  0.2139E-11  0.4790E-05  0.2104E-07  0.5146E-04  0.1132E-01  0.3701E+01
   -1.443754    0.33138  0.2140E-11  0.4208E-05  0.1956E-07  0.4233E-04  0.9823E-02  0.2061E+02
   -1.512506    0.40965  0.2140E-11  0.3692E-05  0.1842E-07  0.3589E-04  0.8334E-02  0.1662E+03
   -1.581258    0.50518  0.2140E-11  0.3254E-05  0.1760E-07  0.3187E-04  0.6810E-02  0.1620E+04
   -1.650010    0.63529  0.2140E-11  0.2921E-05  0.1697E-07  0.2945E-04  0.5212E-02  0.1444E+05
   -1.718762    0.83234  0.2140E-11  0.2687E-05  0.1627E-07  0.1401E-04  0.3449E-02  0.1421E+06
   -1.787514    1.11955  0.2141E-11  0.1787E-05  0.9398E-08  0.1750E-04  0.1389E-02  0.2166E+08
   -1.856266    1.37782  0.2141E-11  0.1180E-05  0.5667E-08  0.9683E-05  0.7784E-03  0.3157E+10
   -1.925017    1.58771  0.2141E-11  0.6827E-06  0.3056E-08  0.3550E-05  0.4215E-03  0.1637E+12
   -1.993768    1.72548  0.2141E-11  0.2825E-06  0.1210E-08  0.2882E-06  0.1951E-03 -0.1438E+15
   -2.062519    1.80541  0.2141E-11  0.4021E-07  0.1685E-09  0.2560E-07  0.5238E-04  0.5748E+15
   -2.131270    1.92884  0.2141E-11  0.2640E-08  0.1168E-10  0.4440E-08  0.5510E-05  0.2689E+16
   -2.200020    2.11077  0.2141E-11  0.1088E-09  0.1365E-11  0.3489E-09  0.3901E-06  0.5867E+16
   -2.268769    2.41095  0.2141E-11  0.4459E-11  0.1000E-11  0.1000E-09  0.1733E-07  0.7333E+16
   -2.337518    2.81551  0.2141E-11  0.4419E-11  0.1000E-11  0.1000E-09  0.6344E-09  0.6589E+16
   -2.406267    3.30734  0.2142E-11  0.4419E-11  0.1000E-11  0.1000E-09  0.2001E-10  0.3560E+16
   -2.475015    3.82896  0.2142E-11  0.4419E-11  0.1000E-11  0.1000E-09  0.5311E-12 -0.2349E+16
   -2.543763    4.51190  0.2142E-11  0.4419E-11  0.1000E-11  0.1000E-09  0.1185E-13 -0.1357E+17
   -2.612510    5.42314  0.2142E-11  0.4419E-11  0.1000E-11  0.1000E-09  0.1982E-15 -0.2496E+17
   -2.681257    6.30174  0.2142E-11  0.4419E-11  0.1000E-11  0.1000E-09  0.2165E-17 -0.1051E+17
   -2.750003    6.58316  0.2142E-11  0.0000E+00  0.0000E+00  0.0000E+00  0.1833E-17  0.0000E+00
