 1 - depth, m
 2 - temperature, C
 3 - salinity, kg/kg
 4 - turbulent kinetic energy, m**2/s**2
 5 - dissipation rate, m**2/s**3
 6 - kinematic heat conductance, m**2/s
 7 - modulus of horizontal velocity, m/s
 8 - Richardson number, n/d
   -0.000000   -0.00000  0.7229E-11  0.1219E-13  0.7603E-17  0.1000E-09  0.0000E+00  0.4425E+16
   -0.068746    0.06698  0.3923E-11  0.1219E-13  0.7603E-17  0.1000E-09  0.0000E+00  0.4233E+16
   -0.137492    0.13221  0.3109E-11  0.1219E-13  0.7603E-17  0.1000E-09  0.0000E+00  0.4084E+16
   -0.206239    0.19629  0.2933E-11  0.1219E-13  0.7603E-17  0.1000E-09  0.0000E+00  0.3976E+16
   -0.274986    0.25979  0.2900E-11  0.1219E-13  0.7603E-17  0.1000E-09  0.0000E+00  0.3906E+16
   -0.343734    0.32333  0.2895E-11  0.1219E-13  0.7603E-17  0.1000E-09  0.0000E+00  0.3874E+16
   -0.412483    0.38752  0.2894E-11  0.1219E-13  0.7603E-17  0.1000E-09  0.0000E+00  0.3876E+16
   -0.481232    0.45298  0.2894E-11  0.1219E-13  0.7603E-17  0.1000E-09  0.0000E+00  0.3911E+16
   -0.549982    0.52038  0.2894E-11  0.1219E-13  0.7603E-17  0.1000E-09  0.0000E+00  0.3978E+16
   -0.618732    0.59037  0.2894E-11  0.1219E-13  0.7603E-17  0.1000E-09  0.0000E+00  0.4072E+16
   -0.687482    0.66364  0.2894E-11  0.1219E-13  0.7603E-17  0.1000E-09  0.0000E+00  0.4207E+16
   -0.756232    0.74118  0.2894E-11  0.1219E-13  0.7603E-17  0.1000E-09  0.0000E+00  0.4370E+16
   -0.824983    0.82384  0.2894E-11  0.1219E-13  0.7603E-17  0.1000E-09  0.0000E+00  0.4545E+16
   -0.893735    0.91230  0.2894E-11  0.1219E-13  0.7603E-17  0.1000E-09  0.0000E+00  0.4726E+16
   -0.962486    1.00721  0.2894E-11  0.1219E-13  0.7603E-17  0.1000E-09  0.0000E+00  0.4905E+16
   -1.031238    1.10919  0.2893E-11  0.1219E-13  0.7603E-17  0.1000E-09  0.0000E+00  0.5073E+16
   -1.099990    1.21881  0.2892E-11  0.1219E-13  0.7603E-17  0.1000E-09  0.0000E+00  0.5221E+16
   -1.168742    1.33659  0.2889E-11  0.5110E-13  0.9369E-17  0.1000E-09  0.0000E+00  0.5340E+16
   -1.237494    1.46300  0.2881E-11  0.1496E-12  0.2137E-16  0.1000E-09  0.0000E+00  0.5419E+16
   -1.306246    1.59841  0.2865E-11  0.3840E-12  0.5154E-16  0.1000E-09  0.0000E+00  0.5449E+16
   -1.374998    1.74314  0.2846E-11  0.9465E-12  0.1229E-15  0.1000E-09  0.0000E+00  0.5439E+16
   -1.443750    1.89799  0.2830E-11  0.2291E-11  0.2891E-15  0.1000E-09  0.0000E+00  0.5363E+16
   -1.512502    2.06327  0.2822E-11  0.5479E-11  0.6727E-15  0.1000E-09  0.0000E+00  0.5204E+16
   -1.581255    2.23904  0.2817E-11  0.1296E-10  0.1549E-14  0.1000E-09  0.0000E+00  0.4954E+16
   -1.650006    2.42520  0.2814E-11  0.3032E-10  0.3531E-14  0.1000E-09  0.0000E+00  0.4606E+16
   -1.718758    2.62152  0.2812E-11  0.7023E-10  0.7968E-14  0.1000E-09  0.0000E+00  0.4156E+16
   -1.787510    2.82760  0.2811E-11  0.1651E-09  0.1824E-13  0.1000E-09  0.0000E+00  0.3626E+16
   -1.856261    3.04428  0.2810E-11  0.3909E-09  0.4211E-13  0.1000E-09  0.0000E+00  0.2991E+16
   -1.925013    3.27174  0.2810E-11  0.9236E-09  0.9702E-13  0.2204E-09  0.0000E+00  0.2243E+16
   -1.993764    3.50986  0.2808E-11  0.2175E-08  0.2229E-12  0.8279E-09  0.0000E+00  0.1373E+16
   -2.062514    3.75657  0.2804E-11  0.4978E-08  0.4981E-12  0.6148E-08  0.0000E+00  0.4136E+15
   -2.131265    3.99718  0.2800E-11  0.6049E-08  0.6100E-12  0.2224E-04  0.0000E+00 -0.2883E+12
   -2.200015    3.99877  0.2800E-11  0.6522E-08  0.6743E-12  0.2387E-04  0.0000E+00 -0.3061E+12
   -2.268764    4.00025  0.2800E-11  0.6912E-08  0.7463E-12  0.2441E-04  0.0000E+00 -0.3351E+12
   -2.337513    4.00172  0.2800E-11  0.7233E-08  0.8338E-12  0.2381E-04  0.0000E+00 -0.3812E+12
   -2.406262    4.00323  0.2800E-11  0.7479E-08  0.9481E-12  0.2198E-04  0.0000E+00 -0.4572E+12
   -2.475010    4.00487  0.2800E-11  0.7630E-08  0.1115E-11  0.1876E-04  0.0000E+00 -0.5966E+12
   -2.543757    4.00682  0.2800E-11  0.7638E-08  0.1400E-11  0.1401E-04  0.0000E+00 -0.9078E+12
   -2.612504    4.00948  0.2800E-11  0.7343E-08  0.2070E-11  0.7714E-05  0.0000E+00 -0.1990E+13
   -2.681251    4.01444  0.2800E-11  0.5789E-08  0.5706E-11  0.1349E-05  0.0000E+00 -0.1959E+14
   -2.749996    4.04370  0.2800E-11  0.0000E+00  0.0000E+00  0.0000E+00  0.0000E+00  0.0000E+00
