 1 - depth, m
 2 - temperature, C
 3 - salinity, kg/kg
 4 - turbulent kinetic energy, m**2/s**2
 5 - dissipation rate, m**2/s**3
 6 - kinematic heat conductance, m**2/s
 7 - modulus of horizontal velocity, m/s
 8 - Richardson number, n/d
   -0.000000   -0.00000  0.3653E-11  0.1219E-13  0.7603E-17  0.1000E-09  0.0000E+00  0.7492E+16
   -0.068746    0.11413  0.2127E-11  0.1219E-13  0.7603E-17  0.1000E-09  0.0000E+00  0.7194E+16
   -0.137492    0.22721  0.1547E-11  0.1219E-13  0.7603E-17  0.1000E-09  0.0000E+00  0.6924E+16
   -0.206239    0.33957  0.1358E-11  0.1219E-13  0.7603E-17  0.1000E-09  0.0000E+00  0.6682E+16
   -0.274987    0.45160  0.1306E-11  0.1219E-13  0.7603E-17  0.1000E-09  0.0000E+00  0.6463E+16
   -0.343735    0.56367  0.1294E-11  0.1219E-13  0.7603E-17  0.1000E-09  0.0000E+00  0.6265E+16
   -0.412483    0.67615  0.1291E-11  0.1219E-13  0.7603E-17  0.1000E-09  0.0000E+00  0.6085E+16
   -0.481232    0.78939  0.1291E-11  0.1219E-13  0.7603E-17  0.1000E-09  0.0000E+00  0.5918E+16
   -0.549982    0.90372  0.1290E-11  0.1219E-13  0.7603E-17  0.1000E-09  0.0000E+00  0.5760E+16
   -0.618732    1.01948  0.1290E-11  0.1219E-13  0.7603E-17  0.1000E-09  0.0000E+00  0.5609E+16
   -0.687482    1.13694  0.1290E-11  0.1219E-13  0.7603E-17  0.1000E-09  0.0000E+00  0.5472E+16
   -0.756233    1.25664  0.1290E-11  0.1219E-13  0.7603E-17  0.1000E-09  0.0000E+00  0.5339E+16
   -0.824984    1.37896  0.1290E-11  0.1219E-13  0.7603E-17  0.1000E-09  0.0000E+00  0.5199E+16
   -0.893735    1.50413  0.1290E-11  0.2483E-13  0.7603E-17  0.1000E-09  0.0000E+00  0.5049E+16
   -0.962487    1.63233  0.1290E-11  0.7558E-13  0.9945E-17  0.1000E-09  0.0000E+00  0.4886E+16
   -1.031238    1.76371  0.1290E-11  0.1851E-12  0.1856E-16  0.1000E-09  0.0000E+00  0.4707E+16
   -1.099990    1.89837  0.1288E-11  0.4037E-12  0.3764E-16  0.1000E-09  0.0000E+00  0.4509E+16
   -1.168742    2.03641  0.1286E-11  0.8439E-12  0.7621E-16  0.1000E-09  0.0000E+00  0.4291E+16
   -1.237494    2.17785  0.1281E-11  0.1734E-11  0.1531E-15  0.1000E-09  0.0000E+00  0.4050E+16
   -1.306247    2.32270  0.1276E-11  0.3529E-11  0.3057E-15  0.1000E-09  0.0000E+00  0.3785E+16
   -1.374999    2.47091  0.1270E-11  0.7139E-11  0.6076E-15  0.1000E-09  0.0000E+00  0.3501E+16
   -1.443751    2.62262  0.1265E-11  0.1437E-10  0.1203E-14  0.1000E-09  0.0000E+00  0.3192E+16
   -1.512503    2.77782  0.1261E-11  0.2884E-10  0.2378E-14  0.1000E-09  0.0000E+00  0.2858E+16
   -1.581255    2.93651  0.1259E-11  0.5771E-10  0.4695E-14  0.1000E-09  0.0000E+00  0.2500E+16
   -1.650007    3.09872  0.1257E-11  0.1153E-09  0.9265E-14  0.1000E-09  0.0000E+00  0.2117E+16
   -1.718759    3.26453  0.1257E-11  0.2302E-09  0.1830E-13  0.1000E-09  0.0000E+00  0.1708E+16
   -1.787511    3.43391  0.1256E-11  0.4699E-09  0.3697E-13  0.1473E-09  0.0000E+00  0.1281E+16
   -1.856262    3.60846  0.1254E-11  0.9775E-09  0.7621E-13  0.4878E-09  0.0000E+00  0.8004E+15
   -1.925014    3.78393  0.1253E-11  0.2051E-08  0.1587E-12  0.2617E-08  0.0000E+00  0.3044E+15
   -1.993765    3.94826  0.1252E-11  0.3805E-08  0.2987E-12  0.1700E-05  0.0000E+00  0.1605E+14
   -2.062515    3.99899  0.1252E-11  0.4461E-08  0.3555E-12  0.2116E-04  0.0000E+00 -0.1700E+12
   -2.131266    4.00014  0.1252E-11  0.4812E-08  0.3930E-12  0.2305E-04  0.0000E+00 -0.1846E+12
   -2.200016    4.00118  0.1252E-11  0.5112E-08  0.4337E-12  0.2398E-04  0.0000E+00 -0.2029E+12
   -2.268765    4.00219  0.1252E-11  0.5365E-08  0.4797E-12  0.2393E-04  0.0000E+00 -0.2277E+12
   -2.337514    4.00321  0.1252E-11  0.5574E-08  0.5360E-12  0.2287E-04  0.0000E+00 -0.2642E+12
   -2.406263    4.00429  0.1252E-11  0.5731E-08  0.6099E-12  0.2075E-04  0.0000E+00 -0.3225E+12
   -2.475011    4.00551  0.1252E-11  0.5819E-08  0.7178E-12  0.1740E-04  0.0000E+00 -0.4277E+12
   -2.543759    4.00699  0.1252E-11  0.5795E-08  0.9026E-12  0.1272E-04  0.0000E+00 -0.6618E+12
   -2.612506    4.00906  0.1252E-11  0.5523E-08  0.1338E-11  0.6745E-05  0.0000E+00 -0.1484E+13
   -2.681252    4.01305  0.1252E-11  0.4166E-08  0.3708E-11  0.1020E-05  0.0000E+00 -0.1513E+14
   -2.749998    4.03792  0.1252E-11  0.0000E+00  0.0000E+00  0.0000E+00  0.0000E+00  0.0000E+00
