 1 - depth, m
 2 - temperature, C
 3 - salinity, kg/kg
 4 - turbulent kinetic energy, m**2/s**2
 5 - dissipation rate, m**2/s**3
 6 - kinematic heat conductance, m**2/s
 7 - modulus of horizontal velocity, m/s
 8 - Richardson number, n/d
   -0.000000   14.70535  0.6555E-11  0.2710E-04  0.2387E-05  0.3541E-04  0.4259E-01 -0.1349E-01
   -0.068746   14.73867  0.6555E-11  0.2229E-04  0.6359E-06  0.9359E-04  0.2543E-01 -0.4344E-01
   -0.137492   14.74883  0.6555E-11  0.2085E-04  0.3201E-06  0.1578E-03  0.2050E-01 -0.7123E-01
   -0.206239   14.75470  0.6555E-11  0.2005E-04  0.2048E-06  0.2315E-03  0.1758E-01 -0.1024E+00
   -0.274987   14.75853  0.6555E-11  0.1953E-04  0.1481E-06  0.3152E-03  0.1562E-01 -0.1327E+00
   -0.343735   14.76123  0.6555E-11  0.1917E-04  0.1154E-06  0.4310E-03  0.1420E-01  0.1564E-01
   -0.412484   14.76317  0.6555E-11  0.1893E-04  0.9478E-07  0.6674E-03  0.1312E-01  0.2382E+02
   -0.481233   14.76450  0.6555E-11  0.1881E-04  0.8119E-07  0.1009E-02  0.1227E-01  0.1192E+03
   -0.549983   14.76533  0.6555E-11  0.1878E-04  0.7185E-07  0.1484E-02  0.1158E-01  0.9722E+01
   -0.618733   14.76584  0.6555E-11  0.1883E-04  0.6477E-07  0.1475E-02  0.1099E-01  0.1143E+02
   -0.687483   14.76633  0.6555E-11  0.1891E-04  0.5894E-07  0.1573E-02  0.1040E-01  0.1269E+02
   -0.756234   14.76679  0.6555E-11  0.1901E-04  0.5423E-07  0.1637E-02  0.9854E-02  0.1344E+02
   -0.824985   14.76722  0.6555E-11  0.1911E-04  0.5031E-07  0.1710E-02  0.9326E-02  0.1454E+02
   -0.893736   14.76762  0.6555E-11  0.1921E-04  0.4703E-07  0.1777E-02  0.8820E-02  0.1563E+02
   -0.962488   14.76801  0.6555E-11  0.1930E-04  0.4425E-07  0.1842E-02  0.8331E-02  0.1688E+02
   -1.031240   14.76837  0.6555E-11  0.1937E-04  0.4187E-07  0.1905E-02  0.7854E-02  0.1827E+02
   -1.099992   14.76872  0.6555E-11  0.1942E-04  0.3982E-07  0.1964E-02  0.7389E-02  0.1989E+02
   -1.168744   14.76906  0.6555E-11  0.1944E-04  0.3804E-07  0.2018E-02  0.6932E-02  0.2180E+02
   -1.237496   14.76939  0.6555E-11  0.1943E-04  0.3649E-07  0.2067E-02  0.6482E-02  0.2416E+02
   -1.306248   14.76971  0.6555E-11  0.1938E-04  0.3513E-07  0.2109E-02  0.6037E-02  0.2719E+02
   -1.375000   14.77002  0.6555E-11  0.1928E-04  0.3392E-07  0.2142E-02  0.5595E-02  0.3128E+02
   -1.443753   14.77033  0.6555E-11  0.1914E-04  0.3286E-07  0.2163E-02  0.5155E-02  0.3724E+02
   -1.512505   14.77063  0.6555E-11  0.1893E-04  0.3190E-07  0.2171E-02  0.4715E-02  0.4686E+02
   -1.581257   14.77093  0.6555E-11  0.1866E-04  0.3104E-07  0.2162E-02  0.4275E-02  0.6467E+02
   -1.650009   14.77123  0.6555E-11  0.1832E-04  0.3024E-07  0.2136E-02  0.3830E-02  0.1067E+03
   -1.718761   14.77154  0.6555E-11  0.1789E-04  0.2950E-07  0.2084E-02  0.3383E-02  0.1981E+03
   -1.787513   14.77185  0.6555E-11  0.1735E-04  0.2876E-07  0.2031E-02  0.2928E-02  0.1654E+02
   -1.856265   14.77217  0.6555E-11  0.1673E-04  0.2812E-07  0.1971E-02  0.2533E-02  0.6261E+01
   -1.925016   14.77250  0.6555E-11  0.1604E-04  0.2766E-07  0.1917E-02  0.2190E-02  0.3312E+01
   -1.993767   14.77284  0.6555E-11  0.1531E-04  0.2747E-07  0.1877E-02  0.1898E-02  0.2192E+01
   -2.062518   14.77319  0.6555E-11  0.1458E-04  0.2764E-07  0.1841E-02  0.1647E-02  0.1724E+01
   -2.131268   14.77355  0.6555E-11  0.1386E-04  0.2823E-07  0.1810E-02  0.1423E-02  0.1379E+01
   -2.200018   14.77391  0.6555E-11  0.1318E-04  0.2931E-07  0.1746E-02  0.1223E-02  0.1112E+01
   -2.268768   14.77428  0.6555E-11  0.1255E-04  0.3097E-07  0.1561E-02  0.1046E-02  0.8464E+00
   -2.337517   14.77471  0.6555E-11  0.1196E-04  0.3349E-07  0.1337E-02  0.8997E-03  0.1377E+01
   -2.406266   14.77522  0.6555E-11  0.1134E-04  0.3793E-07  0.1194E-02  0.7801E-03  0.9712E+02
   -2.475014   14.77582  0.6555E-11  0.1051E-04  0.4855E-07  0.8917E-03  0.6755E-03  0.4077E+02
   -2.543762   14.77705  0.6555E-11  0.9258E-05  0.6968E-07  0.7126E-03  0.5441E-03  0.8685E+03
   -2.612509   14.77820  0.6555E-11  0.7286E-05  0.1337E-06  0.3449E-03  0.4234E-03  0.3003E+04
   -2.681255   14.78353  0.6555E-11  0.4491E-05  0.3863E-06  0.1449E-03  0.2439E-03  0.3510E+03
   -2.750001   14.78962  0.6555E-11  0.0000E+00  0.0000E+00  0.0000E+00  0.3704E-03  0.0000E+00
