 1 - depth, m
 2 - temperature, C
 3 - salinity, kg/kg
 4 - turbulent kinetic energy, m**2/s**2
 5 - dissipation rate, m**2/s**3
 6 - kinematic heat conductance, m**2/s
 7 - modulus of horizontal velocity, m/s
 8 - Richardson number, n/d
   -0.000000   -0.00000  0.9902E-10  0.1219E-13  0.7603E-17  0.1000E-09  0.0000E+00  0.6989E+16
   -0.068746    0.10636  0.5812E-10  0.1219E-13  0.7603E-17  0.1000E-09  0.0000E+00  0.6730E+16
   -0.137492    0.21180  0.4158E-10  0.1219E-13  0.7603E-17  0.1000E-09  0.0000E+00  0.6488E+16
   -0.206239    0.31651  0.3593E-10  0.1219E-13  0.7603E-17  0.1000E-09  0.0000E+00  0.6264E+16
   -0.274987    0.42070  0.3427E-10  0.1219E-13  0.7603E-17  0.1000E-09  0.0000E+00  0.6055E+16
   -0.343735    0.52458  0.3385E-10  0.1219E-13  0.7603E-17  0.1000E-09  0.0000E+00  0.5860E+16
   -0.412483    0.62835  0.3375E-10  0.1219E-13  0.7603E-17  0.1000E-09  0.0000E+00  0.5676E+16
   -0.481232    0.73222  0.3373E-10  0.1219E-13  0.7603E-17  0.1000E-09  0.0000E+00  0.5504E+16
   -0.549982    0.83638  0.3373E-10  0.1219E-13  0.7603E-17  0.1000E-09  0.0000E+00  0.5339E+16
   -0.618732    0.94101  0.3373E-10  0.1219E-13  0.7603E-17  0.1000E-09  0.0000E+00  0.5180E+16
   -0.687482    1.04627  0.3373E-10  0.1219E-13  0.7603E-17  0.1000E-09  0.0000E+00  0.5036E+16
   -0.756233    1.15253  0.3373E-10  0.1219E-13  0.7603E-17  0.1000E-09  0.0000E+00  0.4898E+16
   -0.824984    1.26005  0.3373E-10  0.1219E-13  0.7603E-17  0.1000E-09  0.0000E+00  0.4758E+16
   -0.893735    1.36894  0.3372E-10  0.1219E-13  0.7603E-17  0.1000E-09  0.0000E+00  0.4615E+16
   -0.962487    1.47927  0.3371E-10  0.1219E-13  0.7603E-17  0.1000E-09  0.0000E+00  0.4468E+16
   -1.031238    1.59111  0.3368E-10  0.1219E-13  0.7603E-17  0.1000E-09  0.0000E+00  0.4313E+16
   -1.099990    1.70450  0.3362E-10  0.1219E-13  0.7603E-17  0.1000E-09  0.0000E+00  0.4151E+16
   -1.168742    1.81945  0.3352E-10  0.1219E-13  0.7603E-17  0.1000E-09  0.0000E+00  0.3980E+16
   -1.237494    1.93592  0.3338E-10  0.1219E-13  0.7603E-17  0.1000E-09  0.0000E+00  0.3799E+16
   -1.306247    2.05388  0.3322E-10  0.1219E-13  0.7603E-17  0.1000E-09  0.0000E+00  0.3608E+16
   -1.374999    2.17325  0.3306E-10  0.1219E-13  0.7603E-17  0.1000E-09  0.0000E+00  0.3411E+16
   -1.443751    2.29406  0.3294E-10  0.1219E-13  0.7603E-17  0.1000E-09  0.0000E+00  0.3204E+16
   -1.512503    2.41623  0.3285E-10  0.1219E-13  0.7603E-17  0.1000E-09  0.0000E+00  0.2986E+16
   -1.581255    2.53959  0.3280E-10  0.1219E-13  0.7603E-17  0.1000E-09  0.0000E+00  0.2757E+16
   -1.650007    2.66394  0.3276E-10  0.3057E-13  0.8310E-17  0.1000E-09  0.0000E+00  0.2519E+16
   -1.718759    2.78906  0.3274E-10  0.1015E-12  0.2240E-16  0.1000E-09  0.0000E+00  0.2274E+16
   -1.787511    2.91472  0.3273E-10  0.3233E-12  0.6753E-16  0.1000E-09  0.0000E+00  0.2036E+16
   -1.856263    3.04163  0.3272E-10  0.1012E-11  0.2040E-15  0.1000E-09  0.0000E+00  0.1791E+16
   -1.925014    3.16967  0.3271E-10  0.3128E-11  0.6097E-15  0.1000E-09  0.0000E+00  0.1539E+16
   -1.993765    3.29878  0.3269E-10  0.9569E-11  0.1805E-14  0.1000E-09  0.0000E+00  0.1278E+16
   -2.062515    3.42855  0.3267E-10  0.2828E-10  0.5168E-14  0.1000E-09  0.0000E+00  0.1008E+16
   -2.131266    3.55801  0.3264E-10  0.8224E-10  0.1456E-13  0.1003E-09  0.0000E+00  0.7385E+15
   -2.200016    3.68681  0.3262E-10  0.2362E-09  0.4054E-13  0.4354E-09  0.0000E+00  0.4726E+15
   -2.268765    3.81430  0.3260E-10  0.6756E-09  0.1125E-12  0.2654E-08  0.0000E+00  0.2145E+15
   -2.337514    3.93888  0.3260E-10  0.1853E-08  0.3013E-12  0.1076E-06  0.0000E+00  0.1311E+14
   -2.406263    4.01034  0.3260E-10  0.3180E-08  0.5271E-12  0.8344E-05  0.0000E+00 -0.8341E+12
   -2.475011    4.01246  0.3260E-10  0.3691E-08  0.6650E-12  0.8151E-05  0.0000E+00 -0.9511E+12
   -2.543759    4.01469  0.3260E-10  0.3981E-08  0.8564E-12  0.6736E-05  0.0000E+00 -0.1302E+13
   -2.612506    4.01748  0.3260E-10  0.3992E-08  0.1259E-11  0.4046E-05  0.0000E+00 -0.2612E+13
   -2.681252    4.02244  0.3260E-10  0.3305E-08  0.3140E-11  0.8753E-06  0.0000E+00 -0.1989E+14
   -2.749998    4.04833  0.3260E-10  0.0000E+00  0.0000E+00  0.0000E+00  0.0000E+00  0.0000E+00
