 1 - depth, m
 2 - temperature, C
 3 - salinity, kg/kg
 4 - turbulent kinetic energy, m**2/s**2
 5 - dissipation rate, m**2/s**3
 6 - kinematic heat conductance, m**2/s
 7 - modulus of horizontal velocity, m/s
 8 - Richardson number, n/d
   -0.000000    4.32734  0.6446E-11  0.7375E-04  0.2252E-04  0.7784E-04  0.8249E-01 -0.9387E-01
   -0.068746    4.40866  0.6446E-11  0.4360E-04  0.4284E-05  0.1014E-03  0.4060E-01 -0.1905E-02
   -0.137492    4.42803  0.6446E-11  0.3592E-04  0.1505E-05  0.1393E-03  0.3253E-01 -0.2848E-02
   -0.206239    4.44093  0.6446E-11  0.3215E-04  0.7418E-06  0.1835E-03  0.2770E-01 -0.3994E-02
   -0.274987    4.45057  0.6446E-11  0.2999E-04  0.4476E-06  0.2322E-03  0.2422E-01 -0.5290E-02
   -0.343735    4.45803  0.6446E-11  0.2858E-04  0.3083E-06  0.2840E-03  0.2158E-01 -0.6733E-02
   -0.412484    4.46397  0.6446E-11  0.2756E-04  0.2316E-06  0.3374E-03  0.1948E-01 -0.8287E-02
   -0.481233    4.46884  0.6446E-11  0.2674E-04  0.1842E-06  0.3912E-03  0.1777E-01 -0.9911E-02
   -0.549983    4.47293  0.6446E-11  0.2604E-04  0.1522E-06  0.4447E-03  0.1632E-01 -0.1157E-01
   -0.618733    4.47644  0.6446E-11  0.2544E-04  0.1293E-06  0.4971E-03  0.1508E-01 -0.1322E-01
   -0.687483    4.47949  0.6446E-11  0.2490E-04  0.1122E-06  0.5481E-03  0.1400E-01 -0.1485E-01
   -0.756234    4.48219  0.6446E-11  0.2440E-04  0.9894E-07  0.5973E-03  0.1303E-01 -0.1643E-01
   -0.824985    4.48460  0.6446E-11  0.2395E-04  0.8842E-07  0.6444E-03  0.1216E-01 -0.1794E-01
   -0.893736    4.48678  0.6446E-11  0.2353E-04  0.7990E-07  0.6892E-03  0.1136E-01 -0.1936E-01
   -0.962488    4.48876  0.6446E-11  0.2314E-04  0.7289E-07  0.7312E-03  0.1063E-01 -0.2066E-01
   -1.031240    4.49058  0.6446E-11  0.2277E-04  0.6705E-07  0.7703E-03  0.9952E-02 -0.2184E-01
   -1.099992    4.49225  0.6446E-11  0.2241E-04  0.6212E-07  0.8061E-03  0.9316E-02 -0.2286E-01
   -1.168744    4.49381  0.6446E-11  0.2207E-04  0.5792E-07  0.8383E-03  0.8717E-02 -0.2371E-01
   -1.237496    4.49526  0.6446E-11  0.2174E-04  0.5431E-07  0.8665E-03  0.8147E-02 -0.2437E-01
   -1.306249    4.49663  0.6446E-11  0.2141E-04  0.5117E-07  0.8902E-03  0.7601E-02 -0.2481E-01
   -1.375001    4.49791  0.6446E-11  0.2107E-04  0.4842E-07  0.9091E-03  0.7075E-02 -0.2503E-01
   -1.443753    4.49914  0.6446E-11  0.2073E-04  0.4598E-07  0.9227E-03  0.6564E-02 -0.2500E-01
   -1.512505    4.50030  0.6446E-11  0.2038E-04  0.4379E-07  0.9301E-03  0.6064E-02 -0.2469E-01
   -1.581258    4.50142  0.6446E-11  0.2000E-04  0.4178E-07  0.9307E-03  0.5571E-02 -0.2408E-01
   -1.650010    4.50250  0.6446E-11  0.1959E-04  0.3990E-07  0.9229E-03  0.5080E-02 -0.2313E-01
   -1.718762    4.50355  0.6446E-11  0.1913E-04  0.3809E-07  0.9090E-03  0.4585E-02 -0.2218E-01
   -1.787514    4.50458  0.6446E-11  0.1861E-04  0.3630E-07  0.9576E-03  0.4083E-02 -0.2901E-01
   -1.856265    4.50555  0.6446E-11  0.1807E-04  0.3465E-07  0.9875E-03  0.3660E-02 -0.3706E-01
   -1.925017    4.50647  0.6446E-11  0.1752E-04  0.3315E-07  0.1005E-02  0.3293E-02 -0.4745E-01
   -1.993768    4.50736  0.6446E-11  0.1697E-04  0.3181E-07  0.1005E-02  0.2974E-02 -0.5785E-01
   -2.062518    4.50823  0.6446E-11  0.1643E-04  0.3072E-07  0.9874E-03  0.2688E-02 -0.6444E-01
   -2.131269    4.50910  0.6446E-11  0.1591E-04  0.2988E-07  0.9611E-03  0.2417E-02 -0.7107E-01
   -2.200019    4.50997  0.6446E-11  0.1540E-04  0.2932E-07  0.9254E-03  0.2159E-02 -0.7730E-01
   -2.268769    4.51085  0.6446E-11  0.1490E-04  0.2910E-07  0.8836E-03  0.1910E-02 -0.8918E-01
   -2.337518    4.51175  0.6446E-11  0.1440E-04  0.2934E-07  0.8275E-03  0.1675E-02 -0.1052E+00
   -2.406266    4.51269  0.6446E-11  0.1386E-04  0.3025E-07  0.7518E-03  0.1454E-02 -0.1254E+00
   -2.475015    4.51370  0.6446E-11  0.1327E-04  0.3236E-07  0.6500E-03  0.1244E-02 -0.1525E+00
   -2.543762    4.51484  0.6446E-11  0.1257E-04  0.3697E-07  0.5134E-03  0.1042E-02 -0.1884E+00
   -2.612509    4.51624  0.6446E-11  0.1157E-04  0.4907E-07  0.3288E-03  0.8384E-03 -0.2672E+00
   -2.681256    4.51838  0.6446E-11  0.6860E-05  0.1683E-06  0.3360E-04  0.6275E-03 -0.2338E+05
   -2.750002    4.53862  0.6446E-11  0.0000E+00  0.0000E+00  0.0000E+00  0.6263E-03  0.0000E+00
