 1 - depth, m
 2 - temperature, C
 3 - salinity, kg/kg
 4 - turbulent kinetic energy, m**2/s**2
 5 - dissipation rate, m**2/s**3
 6 - kinematic heat conductance, m**2/s
 7 - modulus of horizontal velocity, m/s
 8 - Richardson number, n/d
   -0.000000   -0.00000  0.9441E-18  0.1219E-13  0.7603E-17  0.1000E-09  0.0000E+00  0.4497E+16
   -0.068746    0.06808  0.0000E+00  0.1219E-13  0.7603E-17  0.1000E-09  0.0000E+00  0.4605E+16
   -0.137493    0.13912  0.7996E-13  0.1219E-13  0.7603E-17  0.1000E-09  0.0000E+00  0.4765E+16
   -0.206240    0.21415  0.3850E-12  0.1219E-13  0.7603E-17  0.1000E-09  0.0000E+00  0.4949E+16
   -0.274988    0.29380  0.7749E-12  0.1219E-13  0.7603E-17  0.1000E-09  0.0000E+00  0.5126E+16
   -0.343737    0.37825  0.1087E-11  0.1219E-13  0.7603E-17  0.1000E-09  0.0000E+00  0.5272E+16
   -0.412486    0.46737  0.1251E-11  0.1219E-13  0.7603E-17  0.1000E-09  0.0000E+00  0.5376E+16
   -0.481235    0.56077  0.1284E-11  0.1219E-13  0.7603E-17  0.1000E-09  0.0000E+00  0.5434E+16
   -0.549985    0.65800  0.1240E-11  0.1219E-13  0.7603E-17  0.1000E-09  0.0000E+00  0.5447E+16
   -0.618736    0.75857  0.1169E-11  0.1219E-13  0.7603E-17  0.1000E-09  0.0000E+00  0.5421E+16
   -0.687487    0.86206  0.1103E-11  0.1219E-13  0.7603E-17  0.1000E-09  0.0000E+00  0.5355E+16
   -0.756238    0.96795  0.1054E-11  0.1219E-13  0.7603E-17  0.1000E-09  0.0000E+00  0.5258E+16
   -0.824989    1.07587  0.1022E-11  0.1219E-13  0.7603E-17  0.1000E-09  0.0000E+00  0.5137E+16
   -0.893741    1.18551  0.1004E-11  0.1219E-13  0.7603E-17  0.1000E-09  0.0000E+00  0.4997E+16
   -0.962493    1.29666  0.9938E-12  0.1219E-13  0.7603E-17  0.1000E-09  0.0000E+00  0.4841E+16
   -1.031245    1.40913  0.9887E-12  0.1219E-13  0.7603E-17  0.1000E-09  0.0000E+00  0.4673E+16
   -1.099997    1.52276  0.9860E-12  0.1219E-13  0.7603E-17  0.1000E-09  0.0000E+00  0.4494E+16
   -1.168750    1.63746  0.9843E-12  0.1219E-13  0.7603E-17  0.1000E-09  0.0000E+00  0.4309E+16
   -1.237502    1.75318  0.9827E-12  0.1219E-13  0.7603E-17  0.1000E-09  0.0000E+00  0.4119E+16
   -1.306255    1.86994  0.9811E-12  0.1219E-13  0.7603E-17  0.1000E-09  0.0000E+00  0.3926E+16
   -1.375007    1.98780  0.9790E-12  0.1219E-13  0.7603E-17  0.1000E-09  0.0000E+00  0.3734E+16
   -1.443760    2.10699  0.9766E-12  0.1219E-13  0.7603E-17  0.1000E-09  0.0000E+00  0.3543E+16
   -1.512513    2.22775  0.9739E-12  0.1219E-13  0.7603E-17  0.1000E-09  0.0000E+00  0.3350E+16
   -1.581265    2.35038  0.9710E-12  0.1219E-13  0.7603E-17  0.1000E-09  0.0000E+00  0.3154E+16
   -1.650018    2.47514  0.9682E-12  0.1219E-13  0.7603E-17  0.1000E-09  0.0000E+00  0.2950E+16
   -1.718770    2.60225  0.9655E-12  0.1219E-13  0.7603E-17  0.1000E-09  0.0000E+00  0.2729E+16
   -1.787522    2.73153  0.9632E-12  0.1219E-13  0.7603E-17  0.1000E-09  0.0000E+00  0.2404E+16
   -1.856274    2.85788  0.9612E-12  0.1219E-13  0.7603E-17  0.1000E-09  0.0000E+00  0.2080E+16
   -1.925026    2.98016  0.9596E-12  0.1742E-13  0.7603E-17  0.1000E-09  0.0000E+00  0.1762E+16
   -1.993777    3.09706  0.9582E-12  0.7413E-13  0.2423E-16  0.1000E-09  0.0000E+00  0.1478E+16
   -2.062528    3.20882  0.9571E-12  0.2934E-12  0.9047E-16  0.1000E-09  0.0000E+00  0.1286E+16
   -2.131279    3.32131  0.9563E-12  0.1122E-11  0.3326E-15  0.1000E-09  0.0000E+00  0.1098E+16
   -2.200030    3.43556  0.9556E-12  0.4204E-11  0.1201E-14  0.1000E-09  0.0000E+00  0.9055E+15
   -2.268779    3.55201  0.9550E-12  0.1563E-10  0.4302E-14  0.1000E-09  0.0000E+00  0.6999E+15
   -2.337529    3.67041  0.9547E-12  0.5825E-10  0.1546E-13  0.1618E-09  0.0000E+00  0.4831E+15
   -2.406278    3.79043  0.9544E-12  0.2161E-09  0.5539E-13  0.1087E-08  0.0000E+00  0.2563E+15
   -2.475027    3.91073  0.9542E-12  0.7923E-09  0.1968E-12  0.2417E-07  0.0000E+00  0.3883E+14
   -2.543775    4.01387  0.9542E-12  0.2107E-08  0.5290E-12  0.3834E-05  0.0000E+00 -0.1947E+13
   -2.612522    4.01807  0.9542E-12  0.2366E-08  0.7443E-12  0.2831E-05  0.0000E+00 -0.2827E+13
   -2.681269    4.02332  0.9542E-12  0.1776E-08  0.1431E-11  0.5123E-06  0.0000E+00 -0.1327E+14
   -2.750015    4.04167  0.9542E-12  0.0000E+00  0.0000E+00  0.0000E+00  0.0000E+00  0.0000E+00
