 1 - depth, m
 2 - temperature, C
 3 - salinity, kg/kg
 4 - turbulent kinetic energy, m**2/s**2
 5 - dissipation rate, m**2/s**3
 6 - kinematic heat conductance, m**2/s
 7 - modulus of horizontal velocity, m/s
 8 - Richardson number, n/d
   -0.000000   11.37668  0.4332E-10  0.2565E-04  0.2118E-05  0.3261E-04  0.5591E-01 -0.4317E-03
   -0.068746   11.37744  0.4332E-10  0.2054E-04  0.5826E-06  0.7656E-04  0.3971E-01  0.8074E-03
   -0.137492   11.37701  0.4332E-10  0.1840E-04  0.2955E-06  0.1129E-03  0.3469E-01  0.3931E-02
   -0.206239   11.37630  0.4332E-10  0.1686E-04  0.1886E-06  0.1432E-03  0.3153E-01  0.9145E-02
   -0.274987   11.37546  0.4332E-10  0.1553E-04  0.1344E-06  0.1665E-03  0.2926E-01  0.1664E-01
   -0.343735   11.37452  0.4332E-10  0.1432E-04  0.1019E-06  0.1826E-03  0.2747E-01  0.2654E-01
   -0.412484   11.37350  0.4332E-10  0.1318E-04  0.8034E-07  0.1918E-03  0.2600E-01  0.3903E-01
   -0.481233   11.37238  0.4332E-10  0.1211E-04  0.6495E-07  0.1946E-03  0.2473E-01  0.5441E-01
   -0.549983   11.37117  0.4332E-10  0.1108E-04  0.5346E-07  0.1916E-03  0.2361E-01  0.7315E-01
   -0.618733   11.36984  0.4332E-10  0.1009E-04  0.4455E-07  0.1835E-03  0.2260E-01  0.9594E-01
   -0.687484   11.36835  0.4332E-10  0.9133E-05  0.3746E-07  0.1709E-03  0.2167E-01  0.1236E+00
   -0.756234   11.36667  0.4332E-10  0.8209E-05  0.3170E-07  0.1546E-03  0.2079E-01  0.1574E+00
   -0.824985   11.36473  0.4333E-10  0.7311E-05  0.2695E-07  0.1351E-03  0.1996E-01  0.1994E+00
   -0.893737   11.36240  0.4333E-10  0.6436E-05  0.2298E-07  0.1134E-03  0.1916E-01  0.2518E+00
   -0.962489   11.35949  0.4333E-10  0.5579E-05  0.1965E-07  0.9041E-04  0.1836E-01  0.3174E+00
   -1.031240   11.35560  0.4333E-10  0.4733E-05  0.1689E-07  0.6748E-04  0.1755E-01  0.3971E+00
   -1.099992   11.34972  0.4333E-10  0.3884E-05  0.1466E-07  0.4622E-04  0.1668E-01  0.4849E+00
   -1.168745   11.33893  0.4333E-10  0.3001E-05  0.1296E-07  0.2832E-04  0.1566E-01  0.5629E+00
   -1.237497   11.31135  0.4334E-10  0.2052E-05  0.1067E-07  0.1486E-04  0.1424E-01  0.6279E+00
   -1.306249   11.18932  0.4336E-10  0.1221E-05  0.7677E-08  0.6227E-05  0.1171E-01  0.7163E+00
   -1.375001   11.00315  0.4340E-10  0.7382E-06  0.4972E-08  0.1868E-05  0.8372E-02  0.9090E+00
   -1.443754   10.81717  0.4345E-10  0.6379E-06  0.2194E-08  0.6894E-05  0.4962E-02  0.2175E+01
   -1.512506   10.60681  0.4351E-10  0.9387E-06  0.1088E-08  0.4517E-04  0.1836E-02  0.3791E+01
   -1.581258   10.49517  0.4355E-10  0.1145E-05  0.1006E-08  0.1563E-03  0.3109E-03  0.3531E+03
   -1.650011   10.48868  0.4355E-10  0.1211E-05  0.1031E-08  0.3629E-03  0.1050E-03  0.1254E+04
   -1.718763   10.48873  0.4355E-10  0.1258E-05  0.1068E-08  0.4885E-03  0.8286E-04  0.4503E+03
   -1.787514   10.48886  0.4355E-10  0.1300E-05  0.1112E-08  0.5301E-03  0.6879E-04  0.3821E+03
   -1.856266   10.48900  0.4355E-10  0.1345E-05  0.1168E-08  0.5328E-03  0.5786E-04  0.3933E+05
   -1.925017   10.48918  0.4355E-10  0.1394E-05  0.1239E-08  0.5164E-03  0.4883E-04  0.9572E+02
   -1.993769   10.48938  0.4355E-10  0.1447E-05  0.1328E-08  0.5156E-03  0.4117E-04  0.1539E+03
   -2.062519   10.48962  0.4355E-10  0.1500E-05  0.1431E-08  0.5114E-03  0.3477E-04  0.2640E+03
   -2.131270   10.48992  0.4355E-10  0.1551E-05  0.1548E-08  0.5030E-03  0.2910E-04  0.4146E+03
   -2.200020   10.49026  0.4355E-10  0.1597E-05  0.1682E-08  0.4901E-03  0.2403E-04  0.6801E+03
   -2.268770   10.49067  0.4355E-10  0.1637E-05  0.1835E-08  0.4718E-03  0.1946E-04  0.1124E+04
   -2.337519   10.49115  0.4355E-10  0.1668E-05  0.2023E-08  0.4463E-03  0.1548E-04  0.2111E+04
   -2.406268   10.49170  0.4355E-10  0.1690E-05  0.2266E-08  0.4121E-03  0.1207E-04  0.4681E+04
   -2.475016   10.49234  0.4355E-10  0.1698E-05  0.2605E-08  0.3668E-03  0.9150E-05  0.1355E+05
   -2.543764   10.49312  0.4355E-10  0.1685E-05  0.3140E-08  0.3062E-03  0.6671E-05  0.1050E+06
   -2.612511   10.49413  0.4355E-10  0.1631E-05  0.4200E-08  0.2344E-03  0.4546E-05  0.2961E+07
   -2.681257   10.49556  0.4355E-10  0.1162E-05  0.1353E-07  0.1888E-04  0.2847E-05 -0.5027E+07
   -2.750003   10.51539  0.4355E-10  0.0000E+00  0.0000E+00  0.0000E+00  0.2848E-05  0.0000E+00
