 1 - depth, m
 2 - temperature, C
 3 - salinity, kg/kg
 4 - turbulent kinetic energy, m**2/s**2
 5 - dissipation rate, m**2/s**3
 6 - kinematic heat conductance, m**2/s
 7 - modulus of horizontal velocity, m/s
 8 - Richardson number, n/d
   -0.000000   -0.00000  0.4484E-12  0.1219E-13  0.7603E-17  0.1000E-09  0.0000E+00  0.7214E+16
   -0.068746    0.10983  0.1589E-11  0.1219E-13  0.7603E-17  0.1000E-09  0.0000E+00  0.7111E+16
   -0.137493    0.22144  0.2194E-11  0.1219E-13  0.7603E-17  0.1000E-09  0.0000E+00  0.6990E+16
   -0.206240    0.33470  0.2339E-11  0.1219E-13  0.7603E-17  0.1000E-09  0.0000E+00  0.6851E+16
   -0.274988    0.44944  0.2251E-11  0.1219E-13  0.7603E-17  0.1000E-09  0.0000E+00  0.6694E+16
   -0.343736    0.56550  0.2085E-11  0.1219E-13  0.7603E-17  0.1000E-09  0.0000E+00  0.6521E+16
   -0.412485    0.68272  0.1930E-11  0.1219E-13  0.7603E-17  0.1000E-09  0.0000E+00  0.6333E+16
   -0.481234    0.80091  0.1817E-11  0.1219E-13  0.7603E-17  0.1000E-09  0.0000E+00  0.6131E+16
   -0.549984    0.91992  0.1748E-11  0.1219E-13  0.7603E-17  0.1000E-09  0.0000E+00  0.5917E+16
   -0.618734    1.03958  0.1710E-11  0.1219E-13  0.7603E-17  0.1000E-09  0.0000E+00  0.5693E+16
   -0.687485    1.15974  0.1692E-11  0.1219E-13  0.7603E-17  0.1000E-09  0.0000E+00  0.5462E+16
   -0.756236    1.28027  0.1684E-11  0.1219E-13  0.7603E-17  0.1000E-09  0.0000E+00  0.5224E+16
   -0.824987    1.40105  0.1680E-11  0.1219E-13  0.7603E-17  0.1000E-09  0.0000E+00  0.4981E+16
   -0.893738    1.52196  0.1678E-11  0.1219E-13  0.7603E-17  0.1000E-09  0.0000E+00  0.4734E+16
   -0.962490    1.64290  0.1677E-11  0.1219E-13  0.7603E-17  0.1000E-09  0.0000E+00  0.4485E+16
   -1.031242    1.76378  0.1675E-11  0.1219E-13  0.7603E-17  0.1000E-09  0.0000E+00  0.4234E+16
   -1.099994    1.88450  0.1673E-11  0.1219E-13  0.7603E-17  0.1000E-09  0.0000E+00  0.3982E+16
   -1.168747    2.00501  0.1670E-11  0.1219E-13  0.7603E-17  0.1000E-09  0.0000E+00  0.3731E+16
   -1.237499    2.12523  0.1666E-11  0.1219E-13  0.7603E-17  0.1000E-09  0.0000E+00  0.3482E+16
   -1.306251    2.24513  0.1662E-11  0.1219E-13  0.7603E-17  0.1000E-09  0.0000E+00  0.3234E+16
   -1.375004    2.36466  0.1657E-11  0.1219E-13  0.7603E-17  0.1000E-09  0.0000E+00  0.2989E+16
   -1.443756    2.48381  0.1653E-11  0.1219E-13  0.7603E-17  0.1000E-09  0.0000E+00  0.2747E+16
   -1.512509    2.60258  0.1648E-11  0.1219E-13  0.7603E-17  0.1000E-09  0.0000E+00  0.2508E+16
   -1.581261    2.72094  0.1644E-11  0.1219E-13  0.7603E-17  0.1000E-09  0.0000E+00  0.2272E+16
   -1.650013    2.83889  0.1641E-11  0.5102E-13  0.1125E-16  0.1000E-09  0.0000E+00  0.2039E+16
   -1.718766    2.95642  0.1638E-11  0.1611E-12  0.2959E-16  0.1000E-09  0.0000E+00  0.1809E+16
   -1.787518    3.07346  0.1635E-11  0.4718E-12  0.8229E-16  0.1000E-09  0.0000E+00  0.1560E+16
   -1.856269    3.18834  0.1634E-11  0.1357E-11  0.2288E-15  0.1000E-09  0.0000E+00  0.1320E+16
   -1.925021    3.30061  0.1632E-11  0.3859E-11  0.6305E-15  0.1000E-09  0.0000E+00  0.1089E+16
   -1.993772    3.40966  0.1631E-11  0.1088E-10  0.1725E-14  0.1000E-09  0.0000E+00  0.8747E+15
   -2.062523    3.51538  0.1630E-11  0.2973E-10  0.4572E-14  0.1000E-09  0.0000E+00  0.6927E+15
   -2.131274    3.62036  0.1629E-11  0.8000E-10  0.1195E-13  0.1176E-09  0.0000E+00  0.5161E+15
   -2.200024    3.72486  0.1629E-11  0.2130E-09  0.3090E-13  0.4587E-09  0.0000E+00  0.3419E+15
   -2.268774    3.82868  0.1629E-11  0.5657E-09  0.7975E-13  0.2366E-08  0.0000E+00  0.1707E+15
   -2.337523    3.93068  0.1629E-11  0.1480E-08  0.2035E-12  0.4816E-07  0.0000E+00  0.2074E+14
   -2.406272    4.00751  0.1629E-11  0.2473E-08  0.3442E-12  0.8221E-05  0.0000E+00 -0.6008E+12
   -2.475020    4.00925  0.1629E-11  0.2826E-08  0.4212E-12  0.7959E-05  0.0000E+00 -0.6656E+12
   -2.543768    4.01103  0.1629E-11  0.2987E-08  0.5185E-12  0.6539E-05  0.0000E+00 -0.8651E+12
   -2.612515    4.01317  0.1629E-11  0.2892E-08  0.7096E-12  0.3811E-05  0.0000E+00 -0.1591E+13
   -2.681262    4.01672  0.1629E-11  0.2076E-08  0.1611E-11  0.5753E-06  0.0000E+00 -0.1125E+14
   -2.750008    4.03491  0.1629E-11  0.0000E+00  0.0000E+00  0.0000E+00  0.0000E+00  0.0000E+00
