 1 - depth, m
 2 - temperature, C
 3 - salinity, kg/kg
 4 - turbulent kinetic energy, m**2/s**2
 5 - dissipation rate, m**2/s**3
 6 - kinematic heat conductance, m**2/s
 7 - modulus of horizontal velocity, m/s
 8 - Richardson number, n/d
   -0.000000   -0.00000  0.8256E-11  0.1219E-13  0.7603E-17  0.1000E-09  0.0000E+00  0.8129E+16
   -0.068746    0.12401  0.5145E-11  0.1219E-13  0.7603E-17  0.1000E-09  0.0000E+00  0.7804E+16
   -0.137492    0.24719  0.3681E-11  0.1219E-13  0.7603E-17  0.1000E-09  0.0000E+00  0.7499E+16
   -0.206239    0.36976  0.3132E-11  0.1219E-13  0.7603E-17  0.1000E-09  0.0000E+00  0.7211E+16
   -0.274987    0.49195  0.2958E-11  0.1219E-13  0.7603E-17  0.1000E-09  0.0000E+00  0.6939E+16
   -0.343735    0.61395  0.2909E-11  0.1219E-13  0.7603E-17  0.1000E-09  0.0000E+00  0.6680E+16
   -0.412483    0.73598  0.2897E-11  0.1219E-13  0.7603E-17  0.1000E-09  0.0000E+00  0.6433E+16
   -0.481232    0.85825  0.2894E-11  0.1219E-13  0.7603E-17  0.1000E-09  0.0000E+00  0.6194E+16
   -0.549982    0.98093  0.2894E-11  0.1219E-13  0.7603E-17  0.1000E-09  0.0000E+00  0.5963E+16
   -0.618732    1.10421  0.2894E-11  0.1219E-13  0.7603E-17  0.1000E-09  0.0000E+00  0.5736E+16
   -0.687482    1.22825  0.2894E-11  0.1219E-13  0.7603E-17  0.1000E-09  0.0000E+00  0.5520E+16
   -0.756233    1.35342  0.2894E-11  0.1219E-13  0.7603E-17  0.1000E-09  0.0000E+00  0.5310E+16
   -0.824984    1.47997  0.2894E-11  0.1219E-13  0.7603E-17  0.1000E-09  0.0000E+00  0.5096E+16
   -0.893735    1.60801  0.2893E-11  0.1219E-13  0.7603E-17  0.1000E-09  0.0000E+00  0.4876E+16
   -0.962487    1.73764  0.2892E-11  0.2475E-13  0.7603E-17  0.1000E-09  0.0000E+00  0.4649E+16
   -1.031239    1.86891  0.2889E-11  0.8547E-13  0.1196E-16  0.1000E-09  0.0000E+00  0.4414E+16
   -1.099990    2.00187  0.2884E-11  0.2220E-12  0.2623E-16  0.1000E-09  0.0000E+00  0.4170E+16
   -1.168742    2.13651  0.2875E-11  0.5246E-12  0.5880E-16  0.1000E-09  0.0000E+00  0.3915E+16
   -1.237495    2.27283  0.2864E-11  0.1200E-11  0.1303E-15  0.1000E-09  0.0000E+00  0.3648E+16
   -1.306247    2.41078  0.2851E-11  0.2699E-11  0.2854E-15  0.1000E-09  0.0000E+00  0.3371E+16
   -1.374999    2.55029  0.2838E-11  0.6005E-11  0.6186E-15  0.1000E-09  0.0000E+00  0.3084E+16
   -1.443751    2.69139  0.2828E-11  0.1323E-10  0.1328E-14  0.1000E-09  0.0000E+00  0.2787E+16
   -1.512503    2.83399  0.2821E-11  0.2885E-10  0.2825E-14  0.1000E-09  0.0000E+00  0.2478E+16
   -1.581256    2.97793  0.2816E-11  0.6237E-10  0.5956E-14  0.1000E-09  0.0000E+00  0.2159E+16
   -1.650008    3.12304  0.2813E-11  0.1336E-09  0.1245E-13  0.1000E-09  0.0000E+00  0.1831E+16
   -1.718760    3.26912  0.2811E-11  0.2835E-09  0.2578E-13  0.1000E-09  0.0000E+00  0.1497E+16
   -1.787511    3.41603  0.2809E-11  0.6103E-09  0.5415E-13  0.2355E-09  0.0000E+00  0.1170E+16
   -1.856263    3.56563  0.2807E-11  0.1326E-08  0.1148E-12  0.7072E-09  0.0000E+00  0.8260E+15
   -1.925014    3.71781  0.2804E-11  0.2874E-08  0.2431E-12  0.2674E-08  0.0000E+00  0.4625E+15
   -1.993765    3.87129  0.2803E-11  0.6139E-08  0.5082E-12  0.2564E-07  0.0000E+00  0.1006E+15
   -2.062516    4.00624  0.2803E-11  0.6947E-08  0.5784E-12  0.3440E-04  0.0000E+00 -0.2062E+12
   -2.131266    4.00689  0.2803E-11  0.7284E-08  0.6153E-12  0.3481E-04  0.0000E+00 -0.2103E+12
   -2.200016    4.00753  0.2803E-11  0.7548E-08  0.6543E-12  0.3441E-04  0.0000E+00 -0.2195E+12
   -2.268766    4.00818  0.2803E-11  0.7746E-08  0.6982E-12  0.3318E-04  0.0000E+00 -0.2349E+12
   -2.337515    4.00885  0.2803E-11  0.7881E-08  0.7528E-12  0.3095E-04  0.0000E+00 -0.2603E+12
   -2.406263    4.00958  0.2803E-11  0.7946E-08  0.8262E-12  0.2757E-04  0.0000E+00 -0.3028E+12
   -2.475011    4.01039  0.2803E-11  0.7919E-08  0.9371E-12  0.2284E-04  0.0000E+00 -0.3812E+12
   -2.543759    4.01138  0.2803E-11  0.7749E-08  0.1134E-11  0.1655E-04  0.0000E+00 -0.5550E+12
   -2.612506    4.01276  0.2803E-11  0.7264E-08  0.1616E-11  0.8725E-05  0.0000E+00 -0.1148E+13
   -2.681252    4.01540  0.2803E-11  0.5202E-08  0.4532E-11  0.1137E-05  0.0000E+00 -0.1191E+14
   -2.749998    4.03496  0.2803E-11  0.0000E+00  0.0000E+00  0.0000E+00  0.0000E+00  0.0000E+00
