 1 - depth, m
 2 - temperature, C
 3 - salinity, kg/kg
 4 - turbulent kinetic energy, m**2/s**2
 5 - dissipation rate, m**2/s**3
 6 - kinematic heat conductance, m**2/s
 7 - modulus of horizontal velocity, m/s
 8 - Richardson number, n/d
   -0.000000   -0.00000  0.1886E-10  0.1219E-13  0.7603E-17  0.1000E-09  0.0000E+00  0.7277E+16
   -0.068746    0.11081  0.1106E-10  0.1219E-13  0.7603E-17  0.1000E-09  0.0000E+00  0.7000E+16
   -0.137492    0.22068  0.8000E-11  0.1219E-13  0.7603E-17  0.1000E-09  0.0000E+00  0.6747E+16
   -0.206239    0.32991  0.6993E-11  0.1219E-13  0.7603E-17  0.1000E-09  0.0000E+00  0.6516E+16
   -0.274987    0.43880  0.6712E-11  0.1219E-13  0.7603E-17  0.1000E-09  0.0000E+00  0.6305E+16
   -0.343735    0.54764  0.6644E-11  0.1219E-13  0.7603E-17  0.1000E-09  0.0000E+00  0.6112E+16
   -0.412483    0.65676  0.6629E-11  0.1219E-13  0.7603E-17  0.1000E-09  0.0000E+00  0.5935E+16
   -0.481232    0.76645  0.6626E-11  0.1219E-13  0.7603E-17  0.1000E-09  0.0000E+00  0.5770E+16
   -0.549982    0.87702  0.6626E-11  0.1219E-13  0.7603E-17  0.1000E-09  0.0000E+00  0.5615E+16
   -0.618732    0.98874  0.6626E-11  0.1219E-13  0.7603E-17  0.1000E-09  0.0000E+00  0.5467E+16
   -0.687482    1.10187  0.6626E-11  0.1219E-13  0.7603E-17  0.1000E-09  0.0000E+00  0.5332E+16
   -0.756233    1.21690  0.6626E-11  0.1219E-13  0.7603E-17  0.1000E-09  0.0000E+00  0.5203E+16
   -0.824984    1.33417  0.6625E-11  0.1219E-13  0.7603E-17  0.1000E-09  0.0000E+00  0.5069E+16
   -0.893735    1.45387  0.6625E-11  0.1219E-13  0.7603E-17  0.1000E-09  0.0000E+00  0.4927E+16
   -0.962487    1.57616  0.6623E-11  0.1219E-13  0.7603E-17  0.1000E-09  0.0000E+00  0.4774E+16
   -1.031239    1.70116  0.6619E-11  0.1219E-13  0.7603E-17  0.1000E-09  0.0000E+00  0.4608E+16
   -1.099990    1.82896  0.6611E-11  0.2596E-13  0.7603E-17  0.1000E-09  0.0000E+00  0.4428E+16
   -1.168742    1.95960  0.6596E-11  0.8792E-13  0.1398E-16  0.1000E-09  0.0000E+00  0.4230E+16
   -1.237495    2.09311  0.6572E-11  0.2384E-12  0.3348E-16  0.1000E-09  0.0000E+00  0.4014E+16
   -1.306247    2.22945  0.6541E-11  0.6008E-12  0.8076E-16  0.1000E-09  0.0000E+00  0.3778E+16
   -1.374999    2.36858  0.6510E-11  0.1474E-11  0.1922E-15  0.1000E-09  0.0000E+00  0.3526E+16
   -1.443751    2.51057  0.6484E-11  0.3564E-11  0.4514E-15  0.1000E-09  0.0000E+00  0.3255E+16
   -1.512503    2.65535  0.6466E-11  0.8509E-11  0.1048E-14  0.1000E-09  0.0000E+00  0.2962E+16
   -1.581256    2.80274  0.6455E-11  0.2009E-10  0.2407E-14  0.1000E-09  0.0000E+00  0.2648E+16
   -1.650008    2.95254  0.6448E-11  0.4690E-10  0.5470E-14  0.1000E-09  0.0000E+00  0.2315E+16
   -1.718759    3.10449  0.6444E-11  0.1083E-09  0.1230E-13  0.1000E-09  0.0000E+00  0.1966E+16
   -1.787511    3.25842  0.6441E-11  0.2536E-09  0.2803E-13  0.1000E-09  0.0000E+00  0.1621E+16
   -1.856263    3.41624  0.6438E-11  0.5980E-09  0.6436E-13  0.2621E-09  0.0000E+00  0.1250E+16
   -1.925014    3.57805  0.6432E-11  0.1405E-08  0.1474E-12  0.8834E-09  0.0000E+00  0.8489E+15
   -1.993765    3.74368  0.6425E-11  0.3285E-08  0.3359E-12  0.4103E-08  0.0000E+00  0.4162E+15
   -2.062516    3.90970  0.6421E-11  0.7144E-08  0.7164E-12  0.9024E-07  0.0000E+00  0.3997E+14
   -2.131266    4.01404  0.6421E-11  0.8221E-08  0.8298E-12  0.3446E-04  0.0000E+00 -0.3060E+12
   -2.200016    4.01473  0.6421E-11  0.8654E-08  0.8883E-12  0.3459E-04  0.0000E+00 -0.3126E+12
   -2.268766    4.01543  0.6421E-11  0.8978E-08  0.9509E-12  0.3377E-04  0.0000E+00 -0.3287E+12
   -2.337515    4.01614  0.6421E-11  0.9210E-08  0.1025E-11  0.3187E-04  0.0000E+00 -0.3580E+12
   -2.406263    4.01690  0.6421E-11  0.9344E-08  0.1123E-11  0.2873E-04  0.0000E+00 -0.4094E+12
   -2.475011    4.01774  0.6421E-11  0.9358E-08  0.1268E-11  0.2411E-04  0.0000E+00 -0.5055E+12
   -2.543759    4.01875  0.6421E-11  0.9194E-08  0.1521E-11  0.1779E-04  0.0000E+00 -0.7183E+12
   -2.612506    4.02013  0.6421E-11  0.8662E-08  0.2129E-11  0.9655E-05  0.0000E+00 -0.1430E+13
   -2.681252    4.02273  0.6421E-11  0.6316E-08  0.5794E-11  0.1333E-05  0.0000E+00 -0.1358E+14
   -2.749998    4.04163  0.6421E-11  0.0000E+00  0.0000E+00  0.0000E+00  0.0000E+00  0.0000E+00
