 1 - depth, m
 2 - temperature, C
 3 - salinity, kg/kg
 4 - turbulent kinetic energy, m**2/s**2
 5 - dissipation rate, m**2/s**3
 6 - kinematic heat conductance, m**2/s
 7 - modulus of horizontal velocity, m/s
 8 - Richardson number, n/d
   -0.000000   -0.00000  0.2085E-12  0.1219E-13  0.7603E-17  0.1000E-09  0.0000E+00  0.7092E+16
   -0.068746    0.10796  0.9959E-12  0.1219E-13  0.7603E-17  0.1000E-09  0.0000E+00  0.7009E+16
   -0.137493    0.21789  0.1547E-11  0.1219E-13  0.7603E-17  0.1000E-09  0.0000E+00  0.6904E+16
   -0.206240    0.32962  0.1754E-11  0.1219E-13  0.7603E-17  0.1000E-09  0.0000E+00  0.6777E+16
   -0.274988    0.44294  0.1740E-11  0.1219E-13  0.7603E-17  0.1000E-09  0.0000E+00  0.6632E+16
   -0.343736    0.55767  0.1634E-11  0.1219E-13  0.7603E-17  0.1000E-09  0.0000E+00  0.6469E+16
   -0.412485    0.67366  0.1516E-11  0.1219E-13  0.7603E-17  0.1000E-09  0.0000E+00  0.6292E+16
   -0.481234    0.79073  0.1421E-11  0.1219E-13  0.7603E-17  0.1000E-09  0.0000E+00  0.6101E+16
   -0.549984    0.90873  0.1359E-11  0.1219E-13  0.7603E-17  0.1000E-09  0.0000E+00  0.5898E+16
   -0.618734    1.02752  0.1324E-11  0.1219E-13  0.7603E-17  0.1000E-09  0.0000E+00  0.5685E+16
   -0.687485    1.14696  0.1305E-11  0.1219E-13  0.7603E-17  0.1000E-09  0.0000E+00  0.5463E+16
   -0.756236    1.26692  0.1296E-11  0.1219E-13  0.7603E-17  0.1000E-09  0.0000E+00  0.5235E+16
   -0.824987    1.38730  0.1292E-11  0.1219E-13  0.7603E-17  0.1000E-09  0.0000E+00  0.5000E+16
   -0.893739    1.50798  0.1291E-11  0.1219E-13  0.7603E-17  0.1000E-09  0.0000E+00  0.4760E+16
   -0.962490    1.62884  0.1289E-11  0.1219E-13  0.7603E-17  0.1000E-09  0.0000E+00  0.4516E+16
   -1.031242    1.74979  0.1288E-11  0.1219E-13  0.7603E-17  0.1000E-09  0.0000E+00  0.4270E+16
   -1.099995    1.87075  0.1286E-11  0.1219E-13  0.7603E-17  0.1000E-09  0.0000E+00  0.4022E+16
   -1.168747    1.99164  0.1284E-11  0.1219E-13  0.7603E-17  0.1000E-09  0.0000E+00  0.3774E+16
   -1.237499    2.11239  0.1282E-11  0.1219E-13  0.7603E-17  0.1000E-09  0.0000E+00  0.3526E+16
   -1.306252    2.23295  0.1278E-11  0.1219E-13  0.7603E-17  0.1000E-09  0.0000E+00  0.3279E+16
   -1.375004    2.35327  0.1275E-11  0.1219E-13  0.7603E-17  0.1000E-09  0.0000E+00  0.3034E+16
   -1.443757    2.47332  0.1271E-11  0.1219E-13  0.7603E-17  0.1000E-09  0.0000E+00  0.2790E+16
   -1.512509    2.59310  0.1268E-11  0.1219E-13  0.7603E-17  0.1000E-09  0.0000E+00  0.2549E+16
   -1.581262    2.71257  0.1264E-11  0.1219E-13  0.7603E-17  0.1000E-09  0.0000E+00  0.2311E+16
   -1.650014    2.83173  0.1262E-11  0.5153E-13  0.1135E-16  0.1000E-09  0.0000E+00  0.2075E+16
   -1.718766    2.95056  0.1259E-11  0.1629E-12  0.2994E-16  0.1000E-09  0.0000E+00  0.1840E+16
   -1.787518    3.06900  0.1258E-11  0.4771E-12  0.8332E-16  0.1000E-09  0.0000E+00  0.1585E+16
   -1.856270    3.18515  0.1256E-11  0.1373E-11  0.2318E-15  0.1000E-09  0.0000E+00  0.1338E+16
   -1.925021    3.29850  0.1255E-11  0.3909E-11  0.6395E-15  0.1000E-09  0.0000E+00  0.1100E+16
   -1.993773    3.40840  0.1254E-11  0.1103E-10  0.1751E-14  0.1000E-09  0.0000E+00  0.8811E+15
   -2.062524    3.51469  0.1253E-11  0.3016E-10  0.4645E-14  0.1000E-09  0.0000E+00  0.6971E+15
   -2.131274    3.62023  0.1253E-11  0.8123E-10  0.1215E-13  0.1190E-09  0.0000E+00  0.5186E+15
   -2.200024    3.72530  0.1253E-11  0.2165E-09  0.3144E-13  0.4659E-09  0.0000E+00  0.3426E+15
   -2.268774    3.82968  0.1252E-11  0.5754E-09  0.8123E-13  0.2427E-08  0.0000E+00  0.1695E+15
   -2.337524    3.93222  0.1252E-11  0.1504E-08  0.2071E-12  0.5243E-07  0.0000E+00  0.1934E+14
   -2.406272    4.00776  0.1252E-11  0.2505E-08  0.3493E-12  0.8321E-05  0.0000E+00 -0.6040E+12
   -2.475021    4.00949  0.1252E-11  0.2859E-08  0.4271E-12  0.8052E-05  0.0000E+00 -0.6686E+12
   -2.543769    4.01126  0.1252E-11  0.3021E-08  0.5251E-12  0.6615E-05  0.0000E+00 -0.8676E+12
   -2.612516    4.01339  0.1252E-11  0.2924E-08  0.7173E-12  0.3857E-05  0.0000E+00 -0.1590E+13
   -2.681263    4.01691  0.1252E-11  0.2095E-08  0.1626E-11  0.5784E-06  0.0000E+00 -0.1121E+14
   -2.750009    4.03497  0.1252E-11  0.0000E+00  0.0000E+00  0.0000E+00  0.0000E+00  0.0000E+00
