 1 - depth, m
 2 - temperature, C
 3 - salinity, kg/kg
 4 - turbulent kinetic energy, m**2/s**2
 5 - dissipation rate, m**2/s**3
 6 - kinematic heat conductance, m**2/s
 7 - modulus of horizontal velocity, m/s
 8 - Richardson number, n/d
   -0.000000   -0.00000  0.1191E-09  0.1219E-13  0.7603E-17  0.1000E-09  0.0000E+00  0.7437E+16
   -0.068746    0.11328  0.8325E-10  0.1219E-13  0.7603E-17  0.1000E-09  0.0000E+00  0.7170E+16
   -0.137492    0.22595  0.6211E-10  0.1219E-13  0.7603E-17  0.1000E-09  0.0000E+00  0.6909E+16
   -0.206239    0.33802  0.5119E-10  0.1219E-13  0.7603E-17  0.1000E-09  0.0000E+00  0.6652E+16
   -0.274987    0.44948  0.4636E-10  0.1219E-13  0.7603E-17  0.1000E-09  0.0000E+00  0.6399E+16
   -0.343735    0.56035  0.4451E-10  0.1219E-13  0.7603E-17  0.1000E-09  0.0000E+00  0.6152E+16
   -0.412483    0.67064  0.4388E-10  0.1219E-13  0.7603E-17  0.1000E-09  0.0000E+00  0.5909E+16
   -0.481233    0.78035  0.4369E-10  0.1219E-13  0.7603E-17  0.1000E-09  0.0000E+00  0.5671E+16
   -0.549982    0.88949  0.4363E-10  0.1219E-13  0.7603E-17  0.1000E-09  0.0000E+00  0.5436E+16
   -0.618732    0.99806  0.4362E-10  0.1219E-13  0.7603E-17  0.1000E-09  0.0000E+00  0.5206E+16
   -0.687482    1.10606  0.4361E-10  0.1219E-13  0.7603E-17  0.1000E-09  0.0000E+00  0.4985E+16
   -0.756233    1.21362  0.4361E-10  0.1219E-13  0.7603E-17  0.1000E-09  0.0000E+00  0.4771E+16
   -0.824984    1.32081  0.4361E-10  0.1219E-13  0.7603E-17  0.1000E-09  0.0000E+00  0.4558E+16
   -0.893735    1.42761  0.4360E-10  0.1219E-13  0.7603E-17  0.1000E-09  0.0000E+00  0.4348E+16
   -0.962487    1.53400  0.4359E-10  0.1219E-13  0.7603E-17  0.1000E-09  0.0000E+00  0.4139E+16
   -1.031239    1.63995  0.4356E-10  0.1219E-13  0.7603E-17  0.1000E-09  0.0000E+00  0.3933E+16
   -1.099991    1.74544  0.4352E-10  0.1219E-13  0.7603E-17  0.1000E-09  0.0000E+00  0.3728E+16
   -1.168743    1.85043  0.4345E-10  0.1219E-13  0.7603E-17  0.1000E-09  0.0000E+00  0.3525E+16
   -1.237495    1.95487  0.4336E-10  0.1219E-13  0.7603E-17  0.1000E-09  0.0000E+00  0.3324E+16
   -1.306247    2.05871  0.4324E-10  0.1219E-13  0.7603E-17  0.1000E-09  0.0000E+00  0.3125E+16
   -1.374999    2.16190  0.4311E-10  0.1219E-13  0.7603E-17  0.1000E-09  0.0000E+00  0.2930E+16
   -1.443751    2.26445  0.4299E-10  0.1219E-13  0.7603E-17  0.1000E-09  0.0000E+00  0.2739E+16
   -1.512504    2.36632  0.4288E-10  0.1219E-13  0.7603E-17  0.1000E-09  0.0000E+00  0.2549E+16
   -1.581256    2.46744  0.4280E-10  0.1219E-13  0.7603E-17  0.1000E-09  0.0000E+00  0.2362E+16
   -1.650008    2.56773  0.4274E-10  0.1219E-13  0.7603E-17  0.1000E-09  0.0000E+00  0.2178E+16
   -1.718760    2.66710  0.4270E-10  0.1219E-13  0.7603E-17  0.1000E-09  0.0000E+00  0.1998E+16
   -1.787511    2.76552  0.4267E-10  0.1219E-13  0.7603E-17  0.1000E-09  0.0000E+00  0.1841E+16
   -1.856263    2.86397  0.4264E-10  0.1219E-13  0.7603E-17  0.1000E-09  0.0000E+00  0.1684E+16
   -1.925014    2.96248  0.4260E-10  0.1219E-13  0.7603E-17  0.1000E-09  0.0000E+00  0.1529E+16
   -1.993765    3.06110  0.4254E-10  0.1219E-13  0.7603E-17  0.1000E-09  0.0000E+00  0.1371E+16
   -2.062516    3.15962  0.4247E-10  0.1219E-13  0.7603E-17  0.1000E-09  0.0000E+00  0.1208E+16
   -2.131266    3.25755  0.4239E-10  0.1219E-13  0.7603E-17  0.1000E-09  0.0000E+00  0.1048E+16
   -2.200016    3.35484  0.4232E-10  0.1219E-13  0.7603E-17  0.1000E-09  0.0000E+00  0.8903E+15
   -2.268766    3.45139  0.4227E-10  0.1219E-13  0.8396E-17  0.1000E-09  0.0000E+00  0.7394E+15
   -2.337515    3.54761  0.4224E-10  0.5804E-13  0.4643E-16  0.1000E-09  0.0000E+00  0.5920E+15
   -2.406264    3.64375  0.4222E-10  0.4275E-12  0.3337E-15  0.1000E-09  0.0000E+00  0.4465E+15
   -2.475012    3.74014  0.4221E-10  0.3188E-11  0.2429E-14  0.1000E-09  0.0000E+00  0.3018E+15
   -2.543759    3.83737  0.4221E-10  0.2381E-10  0.1788E-13  0.5066E-09  0.0000E+00  0.1544E+15
   -2.612506    3.93624  0.4221E-10  0.1813E-09  0.1380E-12  0.2217E-07  0.0000E+00  0.6898E+13
   -2.681253    4.02666  0.4221E-10  0.1185E-08  0.1253E-11  0.3916E-06  0.0000E+00 -0.3077E+14
   -2.749998    4.06087  0.4221E-10  0.0000E+00  0.0000E+00  0.0000E+00  0.0000E+00  0.0000E+00
