 1 - depth, m
 2 - temperature, C
 3 - salinity, kg/kg
 4 - turbulent kinetic energy, m**2/s**2
 5 - dissipation rate, m**2/s**3
 6 - kinematic heat conductance, m**2/s
 7 - modulus of horizontal velocity, m/s
 8 - Richardson number, n/d
   -0.000000   -0.00000  0.1383E-10  0.1219E-13  0.7603E-17  0.1000E-09  0.0000E+00  0.7087E+16
   -0.068746    0.10787  0.8212E-11  0.1219E-13  0.7603E-17  0.1000E-09  0.0000E+00  0.6812E+16
   -0.137492    0.21466  0.5971E-11  0.1219E-13  0.7603E-17  0.1000E-09  0.0000E+00  0.6570E+16
   -0.206239    0.32079  0.5272E-11  0.1219E-13  0.7603E-17  0.1000E-09  0.0000E+00  0.6357E+16
   -0.274987    0.42669  0.5090E-11  0.1219E-13  0.7603E-17  0.1000E-09  0.0000E+00  0.6170E+16
   -0.343735    0.53277  0.5048E-11  0.1219E-13  0.7603E-17  0.1000E-09  0.0000E+00  0.6005E+16
   -0.412483    0.63944  0.5040E-11  0.1219E-13  0.7603E-17  0.1000E-09  0.0000E+00  0.5858E+16
   -0.481232    0.74707  0.5038E-11  0.1219E-13  0.7603E-17  0.1000E-09  0.0000E+00  0.5724E+16
   -0.549982    0.85602  0.5038E-11  0.1219E-13  0.7603E-17  0.1000E-09  0.0000E+00  0.5601E+16
   -0.618732    0.96665  0.5038E-11  0.1219E-13  0.7603E-17  0.1000E-09  0.0000E+00  0.5484E+16
   -0.687482    1.07926  0.5038E-11  0.1219E-13  0.7603E-17  0.1000E-09  0.0000E+00  0.5382E+16
   -0.756233    1.19440  0.5038E-11  0.1219E-13  0.7603E-17  0.1000E-09  0.0000E+00  0.5284E+16
   -0.824984    1.31249  0.5038E-11  0.1219E-13  0.7603E-17  0.1000E-09  0.0000E+00  0.5179E+16
   -0.893735    1.43377  0.5037E-11  0.1219E-13  0.7603E-17  0.1000E-09  0.0000E+00  0.5062E+16
   -0.962486    1.55843  0.5036E-11  0.1219E-13  0.7603E-17  0.1000E-09  0.0000E+00  0.4931E+16
   -1.031238    1.68662  0.5034E-11  0.5660E-13  0.9843E-17  0.1000E-09  0.0000E+00  0.4782E+16
   -1.099990    1.81846  0.5028E-11  0.1633E-12  0.2224E-16  0.1000E-09  0.0000E+00  0.4612E+16
   -1.168742    1.95402  0.5017E-11  0.4108E-12  0.5253E-16  0.1000E-09  0.0000E+00  0.4420E+16
   -1.237494    2.09332  0.4999E-11  0.9905E-12  0.1225E-15  0.1000E-09  0.0000E+00  0.4202E+16
   -1.306246    2.23634  0.4975E-11  0.2345E-11  0.2818E-15  0.1000E-09  0.0000E+00  0.3957E+16
   -1.374999    2.38302  0.4950E-11  0.5482E-11  0.6411E-15  0.1000E-09  0.0000E+00  0.3690E+16
   -1.443751    2.53345  0.4929E-11  0.1267E-10  0.1443E-14  0.1000E-09  0.0000E+00  0.3394E+16
   -1.512503    2.68752  0.4915E-11  0.2900E-10  0.3216E-14  0.1000E-09  0.0000E+00  0.3069E+16
   -1.581255    2.84501  0.4907E-11  0.6567E-10  0.7095E-14  0.1000E-09  0.0000E+00  0.2715E+16
   -1.650007    3.00563  0.4902E-11  0.1472E-09  0.1550E-13  0.1000E-09  0.0000E+00  0.2335E+16
   -1.718759    3.16906  0.4898E-11  0.3269E-09  0.3355E-13  0.1000E-09  0.0000E+00  0.1932E+16
   -1.787511    3.33504  0.4896E-11  0.7360E-09  0.7361E-13  0.2452E-09  0.0000E+00  0.1528E+16
   -1.856262    3.50586  0.4892E-11  0.1670E-08  0.1629E-12  0.7628E-09  0.0000E+00  0.1087E+16
   -1.925013    3.68139  0.4887E-11  0.3778E-08  0.3595E-12  0.3022E-08  0.0000E+00  0.6052E+15
   -1.993764    3.85990  0.4882E-11  0.8375E-08  0.7795E-12  0.3295E-07  0.0000E+00  0.1201E+15
   -2.062515    4.01204  0.4881E-11  0.9383E-08  0.8781E-12  0.4129E-04  0.0000E+00 -0.2603E+12
   -2.131265    4.01268  0.4881E-11  0.9798E-08  0.9297E-12  0.4161E-04  0.0000E+00 -0.2651E+12
   -2.200015    4.01331  0.4881E-11  0.1012E-07  0.9846E-12  0.4101E-04  0.0000E+00 -0.2759E+12
   -2.268765    4.01395  0.4881E-11  0.1036E-07  0.1047E-11  0.3946E-04  0.0000E+00 -0.2944E+12
   -2.337514    4.01463  0.4881E-11  0.1053E-07  0.1124E-11  0.3678E-04  0.0000E+00 -0.3248E+12
   -2.406263    4.01535  0.4881E-11  0.1060E-07  0.1229E-11  0.3279E-04  0.0000E+00 -0.3758E+12
   -2.475011    4.01616  0.4881E-11  0.1056E-07  0.1388E-11  0.2724E-04  0.0000E+00 -0.4692E+12
   -2.543758    4.01715  0.4881E-11  0.1034E-07  0.1671E-11  0.1989E-04  0.0000E+00 -0.6742E+12
   -2.612505    4.01852  0.4881E-11  0.9732E-08  0.2357E-11  0.1070E-04  0.0000E+00 -0.1356E+13
   -2.681251    4.02110  0.4881E-11  0.7109E-08  0.6580E-11  0.1451E-05  0.0000E+00 -0.1328E+14
   -2.749997    4.04022  0.4881E-11  0.0000E+00  0.0000E+00  0.0000E+00  0.0000E+00  0.0000E+00
