 1 - depth, m
 2 - temperature, C
 3 - salinity, kg/kg
 4 - turbulent kinetic energy, m**2/s**2
 5 - dissipation rate, m**2/s**3
 6 - kinematic heat conductance, m**2/s
 7 - modulus of horizontal velocity, m/s
 8 - Richardson number, n/d
   -0.000000   -0.00000  0.1642E-11  0.1219E-13  0.7603E-17  0.1000E-09  0.0000E+00  0.7710E+16
   -0.068746    0.11751  0.9727E-12  0.1219E-13  0.7603E-17  0.1000E-09  0.0000E+00  0.7399E+16
   -0.137492    0.23397  0.7026E-12  0.1219E-13  0.7603E-17  0.1000E-09  0.0000E+00  0.7117E+16
   -0.206239    0.34973  0.6111E-12  0.1219E-13  0.7603E-17  0.1000E-09  0.0000E+00  0.6860E+16
   -0.274987    0.46516  0.5848E-12  0.1219E-13  0.7603E-17  0.1000E-09  0.0000E+00  0.6625E+16
   -0.343735    0.58058  0.5782E-12  0.1219E-13  0.7603E-17  0.1000E-09  0.0000E+00  0.6408E+16
   -0.412483    0.69629  0.5768E-12  0.1219E-13  0.7603E-17  0.1000E-09  0.0000E+00  0.6206E+16
   -0.481232    0.81261  0.5765E-12  0.1219E-13  0.7603E-17  0.1000E-09  0.0000E+00  0.6016E+16
   -0.549982    0.92981  0.5764E-12  0.1219E-13  0.7603E-17  0.1000E-09  0.0000E+00  0.5834E+16
   -0.618732    1.04816  0.5764E-12  0.1219E-13  0.7603E-17  0.1000E-09  0.0000E+00  0.5657E+16
   -0.687482    1.16791  0.5764E-12  0.1219E-13  0.7603E-17  0.1000E-09  0.0000E+00  0.5493E+16
   -0.756233    1.28953  0.5764E-12  0.1219E-13  0.7603E-17  0.1000E-09  0.0000E+00  0.5333E+16
   -0.824984    1.41336  0.5764E-12  0.1219E-13  0.7603E-17  0.1000E-09  0.0000E+00  0.5168E+16
   -0.893735    1.53958  0.5763E-12  0.1219E-13  0.7603E-17  0.1000E-09  0.0000E+00  0.4993E+16
   -0.962487    1.66834  0.5762E-12  0.1614E-13  0.7603E-17  0.1000E-09  0.0000E+00  0.4807E+16
   -1.031238    1.79975  0.5758E-12  0.6827E-13  0.1106E-16  0.1000E-09  0.0000E+00  0.4608E+16
   -1.099990    1.93389  0.5751E-12  0.1905E-12  0.2512E-16  0.1000E-09  0.0000E+00  0.4393E+16
   -1.168742    2.07081  0.5738E-12  0.4720E-12  0.5877E-16  0.1000E-09  0.0000E+00  0.4161E+16
   -1.237494    2.21053  0.5718E-12  0.1126E-11  0.1357E-15  0.1000E-09  0.0000E+00  0.3910E+16
   -1.306246    2.35302  0.5693E-12  0.2639E-11  0.3091E-15  0.1000E-09  0.0000E+00  0.3640E+16
   -1.374999    2.49822  0.5666E-12  0.6109E-11  0.6964E-15  0.1000E-09  0.0000E+00  0.3353E+16
   -1.443751    2.64622  0.5644E-12  0.1399E-10  0.1553E-14  0.1000E-09  0.0000E+00  0.3047E+16
   -1.512503    2.79693  0.5629E-12  0.3169E-10  0.3426E-14  0.1000E-09  0.0000E+00  0.2719E+16
   -1.581255    2.95020  0.5619E-12  0.7108E-10  0.7484E-14  0.1000E-09  0.0000E+00  0.2372E+16
   -1.650007    3.10582  0.5613E-12  0.1578E-09  0.1619E-13  0.1000E-09  0.0000E+00  0.2006E+16
   -1.718759    3.26357  0.5609E-12  0.3469E-09  0.3470E-13  0.1086E-09  0.0000E+00  0.1625E+16
   -1.787511    3.42330  0.5605E-12  0.7733E-09  0.7537E-13  0.3077E-09  0.0000E+00  0.1246E+16
   -1.856262    3.58747  0.5600E-12  0.1737E-08  0.1650E-12  0.1006E-08  0.0000E+00  0.8346E+15
   -1.925013    3.75597  0.5593E-12  0.3885E-08  0.3603E-12  0.4723E-08  0.0000E+00  0.3880E+15
   -1.993764    3.92593  0.5589E-12  0.8044E-08  0.7342E-12  0.1570E-06  0.0000E+00  0.2347E+14
   -2.062515    4.01184  0.5589E-12  0.9018E-08  0.8278E-12  0.4098E-04  0.0000E+00 -0.2516E+12
   -2.131265    4.01246  0.5589E-12  0.9426E-08  0.8769E-12  0.4123E-04  0.0000E+00 -0.2559E+12
   -2.200015    4.01308  0.5589E-12  0.9743E-08  0.9287E-12  0.4058E-04  0.0000E+00 -0.2659E+12
   -2.268765    4.01371  0.5589E-12  0.9976E-08  0.9869E-12  0.3900E-04  0.0000E+00 -0.2832E+12
   -2.337514    4.01436  0.5589E-12  0.1013E-07  0.1059E-11  0.3632E-04  0.0000E+00 -0.3117E+12
   -2.406263    4.01506  0.5589E-12  0.1020E-07  0.1156E-11  0.3235E-04  0.0000E+00 -0.3595E+12
   -2.475011    4.01585  0.5589E-12  0.1015E-07  0.1303E-11  0.2685E-04  0.0000E+00 -0.4472E+12
   -2.543758    4.01680  0.5589E-12  0.9934E-08  0.1565E-11  0.1957E-04  0.0000E+00 -0.6392E+12
   -2.612505    4.01811  0.5589E-12  0.9334E-08  0.2199E-11  0.1048E-04  0.0000E+00 -0.1276E+13
   -2.681252    4.02058  0.5589E-12  0.6744E-08  0.6129E-11  0.1374E-05  0.0000E+00 -0.1235E+14
   -2.749997    4.03877  0.5589E-12  0.0000E+00  0.0000E+00  0.0000E+00  0.0000E+00  0.0000E+00
