 1 - depth, m
 2 - temperature, C
 3 - salinity, kg/kg
 4 - turbulent kinetic energy, m**2/s**2
 5 - dissipation rate, m**2/s**3
 6 - kinematic heat conductance, m**2/s
 7 - modulus of horizontal velocity, m/s
 8 - Richardson number, n/d
   -0.000000   12.73731  0.1123E-10  0.2862E-05  0.7162E-07  0.9010E-05  0.3695E-01  0.1646E+00
   -0.068746   12.35359  0.1126E-10  0.1642E-05  0.3120E-07  0.5900E-05  0.2752E-01  0.7565E+00
   -0.137492   11.35605  0.1131E-10  0.6562E-06  0.1423E-07  0.1715E-05  0.1926E-01  0.2813E+01
   -0.206239    9.84350  0.1140E-10  0.9426E-07  0.3003E-08  0.4008E-07  0.1136E-01  0.8663E+01
   -0.274987    8.13115  0.1145E-10  0.2066E-06  0.2219E-09  0.1744E-07  0.4802E-02  0.1968E+02
   -0.343735    6.99918  0.1146E-10  0.9374E-06  0.5464E-09  0.2250E-06  0.1717E-02  0.3362E+02
   -0.412484    6.57964  0.1147E-10  0.1541E-05  0.8330E-09  0.6235E-05  0.3860E-03  0.3079E+03
   -0.481233    6.53225  0.1147E-10  0.1700E-05  0.9134E-09  0.5842E-04  0.7512E-04  0.1011E+04
   -0.549983    6.52957  0.1147E-10  0.1795E-05  0.9669E-09  0.1340E-03  0.5147E-04  0.1048E+04
   -0.618733    6.52892  0.1147E-10  0.1882E-05  0.1019E-08  0.2238E-03  0.4412E-04  0.8231E+03
   -0.687484    6.52864  0.1147E-10  0.1968E-05  0.1074E-08  0.3225E-03  0.3906E-04  0.4720E+03
   -0.756234    6.52853  0.1147E-10  0.2054E-05  0.1134E-08  0.4357E-03  0.3508E-04  0.3909E+04
   -0.824986    6.52852  0.1147E-10  0.2129E-05  0.1190E-08  0.9422E-03  0.3177E-04  0.2237E+04
   -0.893737    6.52855  0.1147E-10  0.2186E-05  0.1235E-08  0.1283E-02  0.2929E-04  0.1575E+03
   -0.962489    6.52860  0.1147E-10  0.2237E-05  0.1278E-08  0.1279E-02  0.2779E-04  0.1755E+03
   -1.031241    6.52868  0.1147E-10  0.2290E-05  0.1326E-08  0.1274E-02  0.2643E-04  0.2260E+03
   -1.099993    6.52879  0.1147E-10  0.2347E-05  0.1379E-08  0.1273E-02  0.2508E-04  0.2764E+03
   -1.168745    6.52893  0.1147E-10  0.2405E-05  0.1437E-08  0.1275E-02  0.2374E-04  0.3294E+03
   -1.237497    6.52911  0.1147E-10  0.2465E-05  0.1499E-08  0.1277E-02  0.2242E-04  0.3837E+03
   -1.306249    6.52933  0.1147E-10  0.2525E-05  0.1565E-08  0.1278E-02  0.2110E-04  0.4419E+03
   -1.375002    6.52958  0.1147E-10  0.2585E-05  0.1635E-08  0.1277E-02  0.1980E-04  0.5019E+03
   -1.443754    6.52987  0.1147E-10  0.2643E-05  0.1708E-08  0.1275E-02  0.1851E-04  0.5671E+03
   -1.512506    6.53020  0.1147E-10  0.2698E-05  0.1783E-08  0.1270E-02  0.1722E-04  0.6347E+03
   -1.581259    6.53057  0.1147E-10  0.2751E-05  0.1861E-08  0.1262E-02  0.1594E-04  0.7093E+03
   -1.650011    6.53099  0.1147E-10  0.2799E-05  0.1941E-08  0.1251E-02  0.1467E-04  0.7915E+03
   -1.718763    6.53145  0.1147E-10  0.2842E-05  0.2022E-08  0.1237E-02  0.1338E-04  0.9141E+03
   -1.787515    6.53195  0.1147E-10  0.2881E-05  0.2109E-08  0.1219E-02  0.1210E-04  0.1068E+04
   -1.856266    6.53248  0.1147E-10  0.2917E-05  0.2205E-08  0.1196E-02  0.1092E-04  0.1400E+04
   -1.925018    6.53304  0.1147E-10  0.2950E-05  0.2314E-08  0.1166E-02  0.9837E-05  0.1854E+04
   -1.993769    6.53362  0.1147E-10  0.2980E-05  0.2441E-08  0.1129E-02  0.8856E-05  0.2524E+04
   -2.062520    6.53425  0.1147E-10  0.3006E-05  0.2584E-08  0.1087E-02  0.7954E-05  0.3478E+04
   -2.131270    6.53493  0.1147E-10  0.3026E-05  0.2745E-08  0.1038E-02  0.7090E-05  0.4617E+04
   -2.200020    6.53567  0.1147E-10  0.3039E-05  0.2931E-08  0.9827E-03  0.6262E-05  0.6318E+04
   -2.268770    6.53649  0.1147E-10  0.3045E-05  0.3154E-08  0.9199E-03  0.5457E-05  0.8901E+04
   -2.337519    6.53741  0.1147E-10  0.3042E-05  0.3438E-08  0.8461E-03  0.4696E-05  0.1359E+05
   -2.406268    6.53843  0.1147E-10  0.3027E-05  0.3824E-08  0.7593E-03  0.3980E-05  0.2303E+05
   -2.475016    6.53960  0.1147E-10  0.2995E-05  0.4391E-08  0.6569E-03  0.3306E-05  0.4446E+05
   -2.543764    6.54100  0.1147E-10  0.2937E-05  0.5326E-08  0.5283E-03  0.2669E-05  0.1083E+06
   -2.612511    6.54280  0.1147E-10  0.2828E-05  0.7238E-08  0.4074E-03  0.2057E-05  0.3347E+06
   -2.681258    6.54522  0.1147E-10  0.1960E-05  0.2732E-07  0.2293E-04  0.1520E-05 -0.2405E+08
   -2.750003    6.58984  0.1147E-10  0.0000E+00  0.0000E+00  0.0000E+00  0.1519E-05  0.0000E+00
