 1 - depth, m
 2 - temperature, C
 3 - salinity, kg/kg
 4 - turbulent kinetic energy, m**2/s**2
 5 - dissipation rate, m**2/s**3
 6 - kinematic heat conductance, m**2/s
 7 - modulus of horizontal velocity, m/s
 8 - Richardson number, n/d
   -0.000000    0.00000  0.0000E+00  0.1219E-13  0.7603E-17  0.1000E-09  0.0000E+00  0.4796E+16
   -0.068746    0.07265  0.1860E-11  0.1219E-13  0.7603E-17  0.1000E-09  0.0000E+00  0.4919E+16
   -0.137493    0.14870  0.8786E-11  0.1219E-13  0.7603E-17  0.1000E-09  0.0000E+00  0.5043E+16
   -0.206241    0.22836  0.1694E-10  0.1219E-13  0.7603E-17  0.1000E-09  0.0000E+00  0.5158E+16
   -0.274989    0.31174  0.2281E-10  0.1219E-13  0.7603E-17  0.1000E-09  0.0000E+00  0.5250E+16
   -0.343738    0.39873  0.2543E-10  0.1219E-13  0.7603E-17  0.1000E-09  0.0000E+00  0.5309E+16
   -0.412487    0.48904  0.2556E-10  0.1219E-13  0.7603E-17  0.1000E-09  0.0000E+00  0.5330E+16
   -0.481237    0.58224  0.2444E-10  0.1219E-13  0.7603E-17  0.1000E-09  0.0000E+00  0.5311E+16
   -0.549987    0.67790  0.2301E-10  0.1219E-13  0.7603E-17  0.1000E-09  0.0000E+00  0.5258E+16
   -0.618737    0.77556  0.2179E-10  0.1219E-13  0.7603E-17  0.1000E-09  0.0000E+00  0.5176E+16
   -0.687488    0.87485  0.2092E-10  0.1219E-13  0.7603E-17  0.1000E-09  0.0000E+00  0.5069E+16
   -0.756240    0.97544  0.2038E-10  0.1219E-13  0.7603E-17  0.1000E-09  0.0000E+00  0.4943E+16
   -0.824991    1.07705  0.2008E-10  0.1219E-13  0.7603E-17  0.1000E-09  0.0000E+00  0.4804E+16
   -0.893743    1.17949  0.1993E-10  0.1219E-13  0.7603E-17  0.1000E-09  0.0000E+00  0.4654E+16
   -0.962495    1.28262  0.1985E-10  0.1219E-13  0.7603E-17  0.1000E-09  0.0000E+00  0.4497E+16
   -1.031248    1.38633  0.1981E-10  0.1219E-13  0.7603E-17  0.1000E-09  0.0000E+00  0.4334E+16
   -1.100000    1.49053  0.1979E-10  0.1219E-13  0.7603E-17  0.1000E-09  0.0000E+00  0.4166E+16
   -1.168753    1.59518  0.1976E-10  0.1219E-13  0.7603E-17  0.1000E-09  0.0000E+00  0.3996E+16
   -1.237506    1.70022  0.1974E-10  0.1219E-13  0.7603E-17  0.1000E-09  0.0000E+00  0.3824E+16
   -1.306258    1.80565  0.1970E-10  0.1219E-13  0.7603E-17  0.1000E-09  0.0000E+00  0.3651E+16
   -1.375011    1.91152  0.1966E-10  0.1219E-13  0.7603E-17  0.1000E-09  0.0000E+00  0.3481E+16
   -1.443764    2.01794  0.1961E-10  0.1219E-13  0.7603E-17  0.1000E-09  0.0000E+00  0.3314E+16
   -1.512517    2.12507  0.1956E-10  0.1219E-13  0.7603E-17  0.1000E-09  0.0000E+00  0.3147E+16
   -1.581270    2.23306  0.1950E-10  0.1219E-13  0.7603E-17  0.1000E-09  0.0000E+00  0.2981E+16
   -1.650022    2.34207  0.1945E-10  0.1219E-13  0.7603E-17  0.1000E-09  0.0000E+00  0.2814E+16
   -1.718775    2.45228  0.1941E-10  0.1219E-13  0.7603E-17  0.1000E-09  0.0000E+00  0.2642E+16
   -1.787527    2.56370  0.1937E-10  0.1219E-13  0.7603E-17  0.1000E-09  0.0000E+00  0.2405E+16
   -1.856279    2.67351  0.1934E-10  0.1219E-13  0.7603E-17  0.1000E-09  0.0000E+00  0.2168E+16
   -1.925031    2.78125  0.1931E-10  0.1219E-13  0.7603E-17  0.1000E-09  0.0000E+00  0.1931E+16
   -1.993783    2.88628  0.1929E-10  0.1219E-13  0.7603E-17  0.1000E-09  0.0000E+00  0.1713E+16
   -2.062534    2.98883  0.1927E-10  0.1219E-13  0.7603E-17  0.1000E-09  0.0000E+00  0.1550E+16
   -2.131285    3.09188  0.1925E-10  0.1219E-13  0.7603E-17  0.1000E-09  0.0000E+00  0.1392E+16
   -2.200035    3.19594  0.1923E-10  0.1219E-13  0.7603E-17  0.1000E-09  0.0000E+00  0.1232E+16
   -2.268786    3.30132  0.1922E-10  0.1219E-13  0.7603E-17  0.1000E-09  0.0000E+00  0.1064E+16
   -2.337535    3.40777  0.1920E-10  0.1219E-13  0.7603E-17  0.1000E-09  0.0000E+00  0.8901E+15
   -2.406285    3.51513  0.1919E-10  0.1219E-13  0.7603E-17  0.1000E-09  0.0000E+00  0.7111E+15
   -2.475033    3.62324  0.1919E-10  0.1926E-13  0.9035E-17  0.1000E-09  0.0000E+00  0.5268E+15
   -2.543781    3.73158  0.1918E-10  0.5840E-13  0.1976E-16  0.1000E-09  0.0000E+00  0.3399E+15
   -2.612529    3.83923  0.1918E-10  0.2246E-12  0.6543E-16  0.1000E-09  0.0000E+00  0.1553E+15
   -2.681276    3.94341  0.1918E-10  0.1001E-11  0.2731E-15  0.1775E-08  0.0000E+00 -0.3980E+12
   -2.750022    4.02985  0.1918E-10  0.0000E+00  0.0000E+00  0.0000E+00  0.0000E+00  0.0000E+00
