 1 - depth, m
 2 - temperature, C
 3 - salinity, kg/kg
 4 - turbulent kinetic energy, m**2/s**2
 5 - dissipation rate, m**2/s**3
 6 - kinematic heat conductance, m**2/s
 7 - modulus of horizontal velocity, m/s
 8 - Richardson number, n/d
   -0.000000   -0.00000  0.2374E-10  0.1219E-13  0.7603E-17  0.1000E-09  0.0000E+00  0.7083E+16
   -0.068746    0.10781  0.1412E-10  0.1219E-13  0.7603E-17  0.1000E-09  0.0000E+00  0.6808E+16
   -0.137492    0.21453  0.1028E-10  0.1219E-13  0.7603E-17  0.1000E-09  0.0000E+00  0.6565E+16
   -0.206239    0.32059  0.9081E-11  0.1219E-13  0.7603E-17  0.1000E-09  0.0000E+00  0.6352E+16
   -0.274987    0.42640  0.8769E-11  0.1219E-13  0.7603E-17  0.1000E-09  0.0000E+00  0.6164E+16
   -0.343735    0.53238  0.8697E-11  0.1219E-13  0.7603E-17  0.1000E-09  0.0000E+00  0.5998E+16
   -0.412483    0.63891  0.8682E-11  0.1219E-13  0.7603E-17  0.1000E-09  0.0000E+00  0.5849E+16
   -0.481232    0.74637  0.8680E-11  0.1219E-13  0.7603E-17  0.1000E-09  0.0000E+00  0.5715E+16
   -0.549982    0.85511  0.8679E-11  0.1219E-13  0.7603E-17  0.1000E-09  0.0000E+00  0.5590E+16
   -0.618732    0.96548  0.8679E-11  0.1219E-13  0.7603E-17  0.1000E-09  0.0000E+00  0.5472E+16
   -0.687482    1.07779  0.8679E-11  0.1219E-13  0.7603E-17  0.1000E-09  0.0000E+00  0.5369E+16
   -0.756233    1.19258  0.8679E-11  0.1219E-13  0.7603E-17  0.1000E-09  0.0000E+00  0.5270E+16
   -0.824984    1.31026  0.8679E-11  0.1219E-13  0.7603E-17  0.1000E-09  0.0000E+00  0.5163E+16
   -0.893735    1.43107  0.8679E-11  0.1219E-13  0.7603E-17  0.1000E-09  0.0000E+00  0.5046E+16
   -0.962486    1.55519  0.8677E-11  0.1644E-13  0.7603E-17  0.1000E-09  0.0000E+00  0.4915E+16
   -1.031238    1.68276  0.8674E-11  0.6880E-13  0.1057E-16  0.1000E-09  0.0000E+00  0.4766E+16
   -1.099990    1.81391  0.8666E-11  0.1881E-12  0.2315E-16  0.1000E-09  0.0000E+00  0.4597E+16
   -1.168742    1.94869  0.8649E-11  0.4539E-12  0.5257E-16  0.1000E-09  0.0000E+00  0.4406E+16
   -1.237494    2.08713  0.8622E-11  0.1052E-11  0.1179E-15  0.1000E-09  0.0000E+00  0.4189E+16
   -1.306246    2.22919  0.8583E-11  0.2397E-11  0.2614E-15  0.1000E-09  0.0000E+00  0.3947E+16
   -1.374999    2.37481  0.8541E-11  0.5396E-11  0.5732E-15  0.1000E-09  0.0000E+00  0.3682E+16
   -1.443751    2.52405  0.8504E-11  0.1202E-10  0.1245E-14  0.1000E-09  0.0000E+00  0.3391E+16
   -1.512503    2.67681  0.8479E-11  0.2653E-10  0.2678E-14  0.1000E-09  0.0000E+00  0.3070E+16
   -1.581255    2.83286  0.8464E-11  0.5799E-10  0.5709E-14  0.1000E-09  0.0000E+00  0.2722E+16
   -1.650007    2.99189  0.8455E-11  0.1256E-09  0.1206E-13  0.1000E-09  0.0000E+00  0.2348E+16
   -1.718759    3.15357  0.8449E-11  0.2696E-09  0.2526E-13  0.1000E-09  0.0000E+00  0.1952E+16
   -1.787511    3.31760  0.8445E-11  0.5869E-09  0.5365E-13  0.1751E-09  0.0000E+00  0.1559E+16
   -1.856262    3.48636  0.8439E-11  0.1289E-08  0.1150E-12  0.5179E-09  0.0000E+00  0.1130E+16
   -1.925013    3.65980  0.8429E-11  0.2827E-08  0.2463E-12  0.1890E-08  0.0000E+00  0.6631E+15
   -1.993764    3.83703  0.8419E-11  0.6139E-08  0.5231E-12  0.1541E-07  0.0000E+00  0.1725E+15
   -2.062515    4.00340  0.8417E-11  0.6992E-08  0.5994E-12  0.3279E-04  0.0000E+00 -0.2162E+12
   -2.131265    4.00419  0.8417E-11  0.7353E-08  0.6402E-12  0.3348E-04  0.0000E+00 -0.2217E+12
   -2.200015    4.00496  0.8417E-11  0.7642E-08  0.6839E-12  0.3333E-04  0.0000E+00 -0.2327E+12
   -2.268765    4.00574  0.8417E-11  0.7864E-08  0.7336E-12  0.3230E-04  0.0000E+00 -0.2508E+12
   -2.337514    4.00655  0.8417E-11  0.8023E-08  0.7954E-12  0.3027E-04  0.0000E+00 -0.2801E+12
   -2.406263    4.00742  0.8417E-11  0.8112E-08  0.8788E-12  0.2706E-04  0.0000E+00 -0.3290E+12
   -2.475011    4.00839  0.8417E-11  0.8110E-08  0.1004E-11  0.2248E-04  0.0000E+00 -0.4190E+12
   -2.543758    4.00957  0.8417E-11  0.7963E-08  0.1227E-11  0.1635E-04  0.0000E+00 -0.6194E+12
   -2.612505    4.01121  0.8417E-11  0.7500E-08  0.1767E-11  0.8691E-05  0.0000E+00 -0.1310E+13
   -2.681251    4.01437  0.8417E-11  0.5509E-08  0.4972E-11  0.1226E-05  0.0000E+00 -0.1389E+14
   -2.749997    4.03692  0.8417E-11  0.0000E+00  0.0000E+00  0.0000E+00  0.0000E+00  0.0000E+00
