 1 - depth, m
 2 - temperature, C
 3 - salinity, kg/kg
 4 - turbulent kinetic energy, m**2/s**2
 5 - dissipation rate, m**2/s**3
 6 - kinematic heat conductance, m**2/s
 7 - modulus of horizontal velocity, m/s
 8 - Richardson number, n/d
   -0.000000    2.07456  0.7164E-10  0.4376E-04  0.7000E-05  0.5171E-04  0.6829E-01  0.4280E-02
   -0.068746    2.13043  0.7165E-10  0.2987E-04  0.1604E-05  0.8377E-04  0.4241E-01  0.9282E-02
   -0.137492    2.14778  0.7165E-10  0.2564E-04  0.6900E-06  0.1191E-03  0.3613E-01  0.1427E-01
   -0.206239    2.15945  0.7165E-10  0.2313E-04  0.3864E-06  0.1524E-03  0.3218E-01  0.2105E-01
   -0.274987    2.16837  0.7165E-10  0.2132E-04  0.2535E-06  0.1818E-03  0.2931E-01  0.2752E-01
   -0.343735    2.17565  0.7165E-10  0.1986E-04  0.1829E-06  0.2067E-03  0.2707E-01  0.3461E-01
   -0.412484    2.18188  0.7165E-10  0.1858E-04  0.1402E-06  0.2269E-03  0.2524E-01  0.4219E-01
   -0.481233    2.18739  0.7165E-10  0.1743E-04  0.1119E-06  0.2426E-03  0.2368E-01  0.5029E-01
   -0.549983    2.19240  0.7165E-10  0.1637E-04  0.9182E-07  0.2542E-03  0.2233E-01  0.5894E-01
   -0.618733    2.19705  0.7165E-10  0.1538E-04  0.7680E-07  0.2619E-03  0.2113E-01  0.6823E-01
   -0.687483    2.20144  0.7165E-10  0.1444E-04  0.6515E-07  0.2662E-03  0.2005E-01  0.7824E-01
   -0.756234    2.20564  0.7165E-10  0.1355E-04  0.5584E-07  0.2675E-03  0.1907E-01  0.8912E-01
   -0.824985    2.20970  0.7165E-10  0.1270E-04  0.4824E-07  0.2661E-03  0.1816E-01  0.1010E+00
   -0.893737    2.21367  0.7165E-10  0.1189E-04  0.4193E-07  0.2624E-03  0.1732E-01  0.1142E+00
   -0.962488    2.21758  0.7165E-10  0.1112E-04  0.3662E-07  0.2569E-03  0.1654E-01  0.1291E+00
   -1.031240    2.22146  0.7165E-10  0.1039E-04  0.3211E-07  0.2501E-03  0.1581E-01  0.1461E+00
   -1.099992    2.22534  0.7165E-10  0.9715E-05  0.2829E-07  0.2429E-03  0.1512E-01  0.1663E+00
   -1.168744    2.22922  0.7165E-10  0.9094E-05  0.2508E-07  0.2360E-03  0.1447E-01  0.1909E+00
   -1.237496    2.23310  0.7165E-10  0.8545E-05  0.2245E-07  0.2306E-03  0.1386E-01  0.2225E+00
   -1.306249    2.23698  0.7165E-10  0.8086E-05  0.2040E-07  0.2281E-03  0.1330E-01  0.2645E+00
   -1.375001    2.24080  0.7165E-10  0.7743E-05  0.1898E-07  0.2298E-03  0.1279E-01  0.3231E+00
   -1.443753    2.24451  0.7165E-10  0.7542E-05  0.1825E-07  0.2365E-03  0.1232E-01  0.4087E+00
   -1.512506    2.24804  0.7165E-10  0.7508E-05  0.1827E-07  0.2487E-03  0.1191E-01  0.5508E+00
   -1.581258    2.25138  0.7165E-10  0.7668E-05  0.1916E-07  0.2655E-03  0.1156E-01  0.1170E+01
   -1.650010    2.25462  0.7165E-10  0.8221E-05  0.2198E-07  0.1650E-03  0.1122E-01  0.5990E+00
   -1.718762    2.27482  0.7165E-10  0.7568E-05  0.2003E-07  0.1822E-03  0.5277E-02  0.1157E+01
   -1.787514    2.28503  0.7165E-10  0.6317E-05  0.1559E-07  0.2271E-03  0.1172E-02  0.4732E+01
   -1.856265    2.28850  0.7165E-10  0.5468E-05  0.1281E-07  0.1943E-03  0.9332E-03  0.2841E+01
   -1.925017    2.29216  0.7165E-10  0.4693E-05  0.1048E-07  0.1631E-03  0.7490E-03  0.5158E+01
   -1.993768    2.29624  0.7165E-10  0.3969E-05  0.8469E-08  0.1308E-03  0.6023E-03  0.8605E+01
   -2.062519    2.30108  0.7165E-10  0.3313E-05  0.6791E-08  0.9766E-04  0.4837E-03  0.1365E+02
   -2.131269    2.30734  0.7165E-10  0.2717E-05  0.5386E-08  0.6594E-04  0.3770E-03  0.2424E+02
   -2.200019    2.31637  0.7165E-10  0.2168E-05  0.4199E-08  0.3648E-04  0.2808E-03  0.4964E+02
   -2.268769    2.33277  0.7165E-10  0.1559E-05  0.2983E-08  0.8588E-05  0.1896E-03  0.2694E+03
   -2.337518    2.42865  0.7165E-10  0.6628E-06  0.1225E-08  0.6238E-06  0.8065E-04  0.3732E+05
   -2.406267    3.35958  0.7167E-10  0.2749E-06  0.4463E-09  0.1031E-04  0.7766E-05  0.1290E+08
   -2.475015    3.96498  0.7167E-10  0.2137E-06  0.2992E-09  0.2917E-04  0.7746E-06 -0.5609E+08
   -2.543763    4.06528  0.7167E-10  0.1916E-06  0.2591E-09  0.3330E-04  0.2873E-06 -0.1705E+11
   -2.612510    4.09454  0.7167E-10  0.1713E-06  0.2699E-09  0.2658E-04  0.1141E-06 -0.9048E+12
   -2.681256    4.11913  0.7167E-10  0.1124E-06  0.5534E-09  0.5181E-05  0.3789E-07 -0.1022E+15
   -2.750002    4.20755  0.7167E-10  0.0000E+00  0.0000E+00  0.0000E+00  0.3873E-07  0.0000E+00
