 1 - depth, m
 2 - temperature, C
 3 - salinity, kg/kg
 4 - turbulent kinetic energy, m**2/s**2
 5 - dissipation rate, m**2/s**3
 6 - kinematic heat conductance, m**2/s
 7 - modulus of horizontal velocity, m/s
 8 - Richardson number, n/d
   -0.000000   -0.00000  0.1088E-10  0.1219E-13  0.7603E-17  0.1000E-09  0.0000E+00  0.7882E+16
   -0.068746    0.12018  0.6700E-11  0.1219E-13  0.7603E-17  0.1000E-09  0.0000E+00  0.7573E+16
   -0.137492    0.23952  0.4799E-11  0.1219E-13  0.7603E-17  0.1000E-09  0.0000E+00  0.7284E+16
   -0.206239    0.35826  0.4104E-11  0.1219E-13  0.7603E-17  0.1000E-09  0.0000E+00  0.7013E+16
   -0.274987    0.47661  0.3886E-11  0.1219E-13  0.7603E-17  0.1000E-09  0.0000E+00  0.6758E+16
   -0.343735    0.59479  0.3827E-11  0.1219E-13  0.7603E-17  0.1000E-09  0.0000E+00  0.6516E+16
   -0.412483    0.71303  0.3812E-11  0.1219E-13  0.7603E-17  0.1000E-09  0.0000E+00  0.6287E+16
   -0.481232    0.83155  0.3809E-11  0.1219E-13  0.7603E-17  0.1000E-09  0.0000E+00  0.6067E+16
   -0.549982    0.95054  0.3808E-11  0.1219E-13  0.7603E-17  0.1000E-09  0.0000E+00  0.5854E+16
   -0.618732    1.07020  0.3808E-11  0.1219E-13  0.7603E-17  0.1000E-09  0.0000E+00  0.5647E+16
   -0.687482    1.19071  0.3808E-11  0.1219E-13  0.7603E-17  0.1000E-09  0.0000E+00  0.5451E+16
   -0.756233    1.31246  0.3808E-11  0.1219E-13  0.7603E-17  0.1000E-09  0.0000E+00  0.5261E+16
   -0.824984    1.43573  0.3808E-11  0.1219E-13  0.7603E-17  0.1000E-09  0.0000E+00  0.5068E+16
   -0.893735    1.56063  0.3807E-11  0.1219E-13  0.7603E-17  0.1000E-09  0.0000E+00  0.4869E+16
   -0.962487    1.68728  0.3806E-11  0.1282E-13  0.7603E-17  0.1000E-09  0.0000E+00  0.4662E+16
   -1.031239    1.81576  0.3803E-11  0.3453E-13  0.8134E-17  0.1000E-09  0.0000E+00  0.4447E+16
   -1.099990    1.94611  0.3798E-11  0.1038E-12  0.1322E-16  0.1000E-09  0.0000E+00  0.4222E+16
   -1.168742    2.07837  0.3789E-11  0.2628E-12  0.2923E-16  0.1000E-09  0.0000E+00  0.3985E+16
   -1.237495    2.21254  0.3776E-11  0.6194E-12  0.6577E-16  0.1000E-09  0.0000E+00  0.3736E+16
   -1.306247    2.34858  0.3760E-11  0.1418E-11  0.1460E-15  0.1000E-09  0.0000E+00  0.3474E+16
   -1.374999    2.48644  0.3744E-11  0.3189E-11  0.3196E-15  0.1000E-09  0.0000E+00  0.3202E+16
   -1.443751    2.62616  0.3730E-11  0.7075E-11  0.6906E-15  0.1000E-09  0.0000E+00  0.2917E+16
   -1.512504    2.76766  0.3720E-11  0.1550E-10  0.1474E-14  0.1000E-09  0.0000E+00  0.2618E+16
   -1.581256    2.91073  0.3713E-11  0.3354E-10  0.3108E-14  0.1000E-09  0.0000E+00  0.2305E+16
   -1.650008    3.05507  0.3709E-11  0.7172E-10  0.6477E-14  0.1000E-09  0.0000E+00  0.1980E+16
   -1.718760    3.20026  0.3707E-11  0.1515E-09  0.1334E-13  0.1000E-09  0.0000E+00  0.1646E+16
   -1.787511    3.34596  0.3705E-11  0.3237E-09  0.2777E-13  0.1134E-09  0.0000E+00  0.1330E+16
   -1.856263    3.49462  0.3702E-11  0.6957E-09  0.5816E-13  0.2957E-09  0.0000E+00  0.1004E+16
   -1.925014    3.64801  0.3698E-11  0.1489E-08  0.1214E-12  0.9396E-09  0.0000E+00  0.6559E+15
   -1.993765    3.81032  0.3694E-11  0.3163E-08  0.2514E-12  0.5169E-08  0.0000E+00  0.2419E+15
   -2.062516    3.98352  0.3693E-11  0.4226E-08  0.3409E-12  0.1219E-04  0.0000E+00  0.1140E+13
   -2.131266    3.99467  0.3693E-11  0.4662E-08  0.3835E-12  0.2037E-04  0.0000E+00 -0.1762E+12
   -2.200016    3.99606  0.3693E-11  0.4959E-08  0.4199E-12  0.2155E-04  0.0000E+00 -0.1907E+12
   -2.268766    3.99734  0.3693E-11  0.5197E-08  0.4597E-12  0.2175E-04  0.0000E+00 -0.2103E+12
   -2.337515    3.99857  0.3693E-11  0.5383E-08  0.5074E-12  0.2097E-04  0.0000E+00 -0.2396E+12
   -2.406263    3.99982  0.3693E-11  0.5510E-08  0.5692E-12  0.1913E-04  0.0000E+00 -0.2870E+12
   -2.475012    4.00117  0.3693E-11  0.5562E-08  0.6596E-12  0.1610E-04  0.0000E+00 -0.3739E+12
   -2.543759    4.00276  0.3693E-11  0.5498E-08  0.8166E-12  0.1177E-04  0.0000E+00 -0.5698E+12
   -2.612506    4.00490  0.3693E-11  0.5186E-08  0.1193E-11  0.6227E-05  0.0000E+00 -0.1268E+13
   -2.681252    4.00894  0.3693E-11  0.3813E-08  0.3285E-11  0.9216E-06  0.0000E+00 -0.1332E+14
   -2.749998    4.03345  0.3693E-11  0.0000E+00  0.0000E+00  0.0000E+00  0.0000E+00  0.0000E+00
