 1 - depth, m
 2 - temperature, C
 3 - salinity, kg/kg
 4 - turbulent kinetic energy, m**2/s**2
 5 - dissipation rate, m**2/s**3
 6 - kinematic heat conductance, m**2/s
 7 - modulus of horizontal velocity, m/s
 8 - Richardson number, n/d
   -0.000000   11.67317  0.3788E-11  0.1487E-04  0.6821E-06  0.3466E-04  0.2609E-01 -0.3516E-01
   -0.068746   11.70795  0.3788E-11  0.1414E-04  0.2399E-06  0.9758E-04  0.1690E-01 -0.9796E-01
   -0.137492   11.71971  0.3788E-11  0.1373E-04  0.1383E-06  0.1762E-03  0.1368E-01 -0.1664E+00
   -0.206239   11.72605  0.3788E-11  0.1347E-04  0.9569E-07  0.2977E-03  0.1187E-01  0.4177E+02
   -0.274987   11.72990  0.3788E-11  0.1331E-04  0.7325E-07  0.4736E-03  0.1069E-01  0.1343E+02
   -0.343735   11.73234  0.3788E-11  0.1325E-04  0.6005E-07  0.7420E-03  0.9857E-02  0.6160E+02
   -0.412484   11.73386  0.3788E-11  0.1326E-04  0.5164E-07  0.1044E-02  0.9230E-02  0.7351E+02
   -0.481233   11.73482  0.3788E-11  0.1334E-04  0.4568E-07  0.1202E-02  0.8706E-02  0.7919E+01
   -0.549983   11.73561  0.3788E-11  0.1345E-04  0.4101E-07  0.1257E-02  0.8217E-02  0.8880E+01
   -0.618733   11.73635  0.3788E-11  0.1356E-04  0.3723E-07  0.1326E-02  0.7754E-02  0.9611E+01
   -0.687483   11.73702  0.3788E-11  0.1368E-04  0.3415E-07  0.1391E-02  0.7317E-02  0.1017E+02
   -0.756234   11.73765  0.3788E-11  0.1378E-04  0.3157E-07  0.1455E-02  0.6902E-02  0.1072E+02
   -0.824985   11.73823  0.3788E-11  0.1387E-04  0.2939E-07  0.1518E-02  0.6504E-02  0.1124E+02
   -0.893737   11.73877  0.3788E-11  0.1394E-04  0.2752E-07  0.1579E-02  0.6121E-02  0.1177E+02
   -0.962488   11.73928  0.3788E-11  0.1398E-04  0.2590E-07  0.1638E-02  0.5751E-02  0.1229E+02
   -1.031240   11.73975  0.3788E-11  0.1400E-04  0.2448E-07  0.1695E-02  0.5392E-02  0.1284E+02
   -1.099992   11.74020  0.3788E-11  0.1399E-04  0.2323E-07  0.1748E-02  0.5042E-02  0.1343E+02
   -1.168744   11.74062  0.3788E-11  0.1395E-04  0.2212E-07  0.1797E-02  0.4701E-02  0.1407E+02
   -1.237496   11.74102  0.3788E-11  0.1389E-04  0.2113E-07  0.1839E-02  0.4367E-02  0.1481E+02
   -1.306249   11.74139  0.3788E-11  0.1379E-04  0.2025E-07  0.1874E-02  0.4039E-02  0.1567E+02
   -1.375001   11.74175  0.3788E-11  0.1365E-04  0.1947E-07  0.1901E-02  0.3717E-02  0.1673E+02
   -1.443753   11.74209  0.3788E-11  0.1349E-04  0.1877E-07  0.1917E-02  0.3400E-02  0.1808E+02
   -1.512506   11.74242  0.3788E-11  0.1329E-04  0.1814E-07  0.1922E-02  0.3087E-02  0.1991E+02
   -1.581258   11.74273  0.3788E-11  0.1306E-04  0.1758E-07  0.1914E-02  0.2778E-02  0.2253E+02
   -1.650010   11.74304  0.3788E-11  0.1279E-04  0.1708E-07  0.1898E-02  0.2472E-02  0.2662E+02
   -1.718762   11.74334  0.3788E-11  0.1249E-04  0.1664E-07  0.1860E-02  0.2169E-02  0.3088E+02
   -1.787514   11.74364  0.3788E-11  0.1215E-04  0.1625E-07  0.1856E-02  0.1866E-02  0.7585E+01
   -1.856265   11.74393  0.3788E-11  0.1177E-04  0.1593E-07  0.1855E-02  0.1607E-02  0.3776E+01
   -1.925017   11.74421  0.3788E-11  0.1138E-04  0.1571E-07  0.1870E-02  0.1386E-02  0.2316E+01
   -1.993768   11.74449  0.3788E-11  0.1097E-04  0.1563E-07  0.1896E-02  0.1199E-02  0.1661E+01
   -2.062519   11.74477  0.3788E-11  0.1058E-04  0.1571E-07  0.1887E-02  0.1042E-02  0.1346E+01
   -2.131269   11.74503  0.3788E-11  0.1021E-04  0.1597E-07  0.1848E-02  0.9027E-03  0.1096E+01
   -2.200019   11.74530  0.3788E-11  0.9859E-05  0.1644E-07  0.1770E-02  0.7796E-03  0.8969E+00
   -2.268769   11.74557  0.3788E-11  0.9543E-05  0.1714E-07  0.1646E-02  0.6713E-03  0.7039E+00
   -2.337518   11.74586  0.3788E-11  0.9249E-05  0.1815E-07  0.1476E-02  0.5799E-03  0.5884E+00
   -2.406267   11.74618  0.3788E-11  0.8971E-05  0.1962E-07  0.1331E-02  0.5040E-03  0.6718E+00
   -2.475015   11.74652  0.3788E-11  0.8674E-05  0.2214E-07  0.1120E-02  0.4414E-03  0.1885E+03
   -2.543762   11.74696  0.3788E-11  0.8284E-05  0.2711E-07  0.1012E-02  0.3808E-03  0.3679E+02
   -2.612510   11.74749  0.3788E-11  0.7569E-05  0.4165E-07  0.5344E-03  0.3245E-03  0.2612E+03
   -2.681256   11.74917  0.3788E-11  0.4608E-05  0.1545E-06  0.6004E-04  0.2322E-03 -0.5610E+04
   -2.750002   11.75722  0.3788E-11  0.0000E+00  0.0000E+00  0.0000E+00  0.2546E-03  0.0000E+00
