 1 - depth, m
 2 - temperature, C
 3 - salinity, kg/kg
 4 - turbulent kinetic energy, m**2/s**2
 5 - dissipation rate, m**2/s**3
 6 - kinematic heat conductance, m**2/s
 7 - modulus of horizontal velocity, m/s
 8 - Richardson number, n/d
   -0.000000    7.57729  0.9376E-10  0.5669E-04  0.1054E-04  0.5611E-04  0.6940E-01 -0.4746E-02
   -0.068746    7.62020  0.9377E-10  0.3555E-04  0.2291E-05  0.9219E-04  0.3549E-01 -0.9537E-02
   -0.137492    7.63109  0.9377E-10  0.3056E-04  0.9419E-06  0.1367E-03  0.2849E-01 -0.1520E-01
   -0.206239    7.63820  0.9377E-10  0.2808E-04  0.5090E-06  0.1879E-03  0.2419E-01 -0.2134E-01
   -0.274987    7.64335  0.9377E-10  0.2660E-04  0.3282E-06  0.2435E-03  0.2112E-01 -0.2813E-01
   -0.343735    7.64725  0.9377E-10  0.2556E-04  0.2364E-06  0.3020E-03  0.1881E-01 -0.3544E-01
   -0.412484    7.65032  0.9377E-10  0.2475E-04  0.1827E-06  0.3621E-03  0.1699E-01 -0.4306E-01
   -0.481233    7.65280  0.9377E-10  0.2409E-04  0.1480E-06  0.4230E-03  0.1550E-01 -0.5084E-01
   -0.549983    7.65487  0.9377E-10  0.2351E-04  0.1239E-06  0.4838E-03  0.1425E-01 -0.5866E-01
   -0.618733    7.65662  0.9377E-10  0.2300E-04  0.1063E-06  0.5442E-03  0.1318E-01 -0.6641E-01
   -0.687483    7.65814  0.9377E-10  0.2255E-04  0.9292E-07  0.6036E-03  0.1224E-01 -0.7401E-01
   -0.756234    7.65947  0.9377E-10  0.2213E-04  0.8246E-07  0.6617E-03  0.1141E-01 -0.8135E-01
   -0.824985    7.66066  0.9377E-10  0.2175E-04  0.7410E-07  0.7184E-03  0.1066E-01 -0.8765E-01
   -0.893736    7.66171  0.9377E-10  0.2140E-04  0.6730E-07  0.7769E-03  0.9983E-02 -0.8605E-01
   -0.962488    7.66267  0.9377E-10  0.2107E-04  0.6169E-07  0.8582E-03  0.9360E-02 -0.4670E-02
   -1.031240    7.66351  0.9377E-10  0.2077E-04  0.5701E-07  0.1064E-02  0.8783E-02  0.1020E+03
   -1.099992    7.66421  0.9377E-10  0.2048E-04  0.5309E-07  0.1377E-02  0.8248E-02  0.2187E+03
   -1.168744    7.66478  0.9377E-10  0.2021E-04  0.4976E-07  0.1617E-02  0.7747E-02  0.6428E+02
   -1.237496    7.66524  0.9377E-10  0.1995E-04  0.4688E-07  0.1812E-02  0.7267E-02  0.1849E+03
   -1.306248    7.66563  0.9377E-10  0.1969E-04  0.4437E-07  0.1972E-02  0.6803E-02  0.2194E+03
   -1.375001    7.66598  0.9377E-10  0.1942E-04  0.4215E-07  0.2058E-02  0.6351E-02  0.2582E+03
   -1.443753    7.66630  0.9377E-10  0.1915E-04  0.4018E-07  0.2096E-02  0.5907E-02  0.9529E+03
   -1.512505    7.66660  0.9377E-10  0.1887E-04  0.3840E-07  0.2112E-02  0.5470E-02  0.4835E+05
   -1.581258    7.66688  0.9377E-10  0.1856E-04  0.3679E-07  0.2119E-02  0.5038E-02  0.6095E+05
   -1.650010    7.66716  0.9377E-10  0.1824E-04  0.3531E-07  0.2130E-02  0.4610E-02  0.3907E+03
   -1.718762    7.66743  0.9377E-10  0.1788E-04  0.3392E-07  0.2119E-02  0.4184E-02  0.1019E+03
   -1.787514    7.66768  0.9377E-10  0.1747E-04  0.3257E-07  0.2165E-02  0.3756E-02  0.1413E+04
   -1.856265    7.66793  0.9377E-10  0.1702E-04  0.3128E-07  0.2170E-02  0.3376E-02  0.9483E+01
   -1.925017    7.66817  0.9377E-10  0.1654E-04  0.3007E-07  0.2167E-02  0.3032E-02  0.2860E+02
   -1.993768    7.66840  0.9377E-10  0.1604E-04  0.2898E-07  0.2148E-02  0.2723E-02  0.4289E+01
   -2.062518    7.66864  0.9377E-10  0.1554E-04  0.2810E-07  0.2109E-02  0.2443E-02  0.7262E+02
   -2.131269    7.66887  0.9377E-10  0.1505E-04  0.2746E-07  0.2055E-02  0.2179E-02  0.4557E+01
   -2.200019    7.66911  0.9377E-10  0.1458E-04  0.2710E-07  0.1981E-02  0.1931E-02  0.7150E+01
   -2.268769    7.66935  0.9377E-10  0.1412E-04  0.2707E-07  0.1886E-02  0.1696E-02  0.6488E+02
   -2.337518    7.66960  0.9377E-10  0.1367E-04  0.2747E-07  0.1660E-02  0.1482E-02  0.1821E+03
   -2.406266    7.66988  0.9377E-10  0.1321E-04  0.2848E-07  0.1385E-02  0.1287E-02  0.1458E+03
   -2.475015    7.67022  0.9377E-10  0.1271E-04  0.3055E-07  0.9908E-03  0.1113E-02  0.1599E+03
   -2.543762    7.67068  0.9377E-10  0.1210E-04  0.3502E-07  0.5891E-03  0.9418E-03  0.7335E+03
   -2.612509    7.67138  0.9377E-10  0.1118E-04  0.4674E-07  0.3493E-03  0.7635E-03 -0.1386E+01
   -2.681256    7.67255  0.9377E-10  0.6693E-05  0.1631E-06  0.3376E-04  0.5746E-03 -0.4840E+05
   -2.750002    7.68502  0.9377E-10  0.0000E+00  0.0000E+00  0.0000E+00  0.5734E-03  0.0000E+00
