 1 - depth, m
 2 - temperature, C
 3 - salinity, kg/kg
 4 - turbulent kinetic energy, m**2/s**2
 5 - dissipation rate, m**2/s**3
 6 - kinematic heat conductance, m**2/s
 7 - modulus of horizontal velocity, m/s
 8 - Richardson number, n/d
   -0.000000   -0.00000  0.1500E-10  0.1793E-05  0.2708E-07  0.1065E-04  0.1154E-01  0.3027E-01
   -0.068745    0.00754  0.1498E-10  0.1529E-05  0.1104E-07  0.1763E-04  0.8254E-02  0.6258E-01
   -0.137490    0.01145  0.1497E-10  0.1273E-05  0.6222E-08  0.2041E-04  0.6633E-02  0.9690E-01
   -0.206236    0.01433  0.1496E-10  0.1045E-05  0.3937E-08  0.2054E-04  0.5525E-02  0.1338E+00
   -0.274983    0.01676  0.1496E-10  0.8450E-06  0.2624E-08  0.1907E-04  0.4664E-02  0.1748E+00
   -0.343730    0.01898  0.1495E-10  0.6702E-06  0.1788E-08  0.1670E-04  0.3948E-02  0.2224E+00
   -0.412478    0.02115  0.1494E-10  0.5189E-06  0.1223E-08  0.1393E-04  0.3326E-02  0.2814E+00
   -0.481226    0.02343  0.1493E-10  0.3901E-06  0.8280E-09  0.1113E-04  0.2765E-02  0.3723E+00
   -0.549974    0.02616  0.1492E-10  0.2852E-06  0.5511E-09  0.8628E-05  0.2243E-02  0.6355E+00
   -0.618723    0.02994  0.1491E-10  0.2053E-06  0.3635E-09  0.6559E-05  0.1762E-02  0.1609E+01
   -0.687473    0.03454  0.1489E-10  0.1467E-06  0.2396E-09  0.4900E-05  0.1351E-02  0.4554E+01
   -0.756223    0.03886  0.1486E-10  0.1036E-06  0.1571E-09  0.3565E-05  0.1026E-02  0.1268E+02
   -0.824973    0.04236  0.1485E-10  0.7139E-07  0.1013E-09  0.2499E-05  0.7761E-03  0.3559E+02
   -0.893723    0.04517  0.1483E-10  0.4750E-07  0.6338E-10  0.1668E-05  0.5836E-03  0.1044E+03
   -0.962473    0.04748  0.1481E-10  0.3012E-07  0.3800E-10  0.1045E-05  0.4339E-03  0.3282E+03
   -1.031224    0.04947  0.1480E-10  0.1786E-07  0.2143E-10  0.6017E-06  0.3170E-03  0.1165E+04
   -1.099975    0.05125  0.1479E-10  0.9624E-08  0.1105E-10  0.3081E-06  0.2257E-03  0.5173E+04
   -1.168726    0.05295  0.1478E-10  0.4506E-08  0.4983E-11  0.1336E-06  0.1551E-03  0.3220E+05
   -1.237477    0.05471  0.1477E-10  0.1708E-08  0.1829E-11  0.4592E-07  0.1017E-03  0.2752E+06
   -1.306229    0.05686  0.1475E-10  0.4861E-09  0.5030E-12  0.1204E-07  0.6309E-04  0.2761E+07
   -1.374980    0.06008  0.1474E-10  0.1027E-09  0.1007E-12  0.1893E-08  0.3717E-04  0.3197E+08
   -1.443731    0.06734  0.1473E-10  0.3811E-10  0.2171E-13  0.2915E-09  0.2112E-04  0.3149E+09
   -1.512482    0.08314  0.1472E-10  0.7720E-10  0.1709E-13  0.1434E-09  0.1181E-04  0.2736E+10
   -1.581234    0.11538  0.1470E-10  0.2132E-09  0.3408E-13  0.1344E-09  0.6455E-05  0.2070E+11
   -1.649985    0.17710  0.1468E-10  0.5298E-09  0.7602E-13  0.1403E-09  0.3265E-05  0.1142E+12
   -1.718736    0.28628  0.1467E-10  0.1215E-08  0.1641E-12  0.1581E-09  0.1151E-05  0.7606E+12
   -1.787486    0.45654  0.1466E-10  0.2691E-08  0.3454E-12  0.3992E-09  0.7660E-07  0.1179E+15
   -1.856237    0.56891  0.1465E-10  0.5737E-08  0.7015E-12  0.1657E-08  0.4706E-08  0.1465E+16
   -1.924987    0.63225  0.1465E-10  0.7309E-08  0.8884E-12  0.5768E-05  0.1919E-09  0.9565E+15
   -1.993737    0.65149  0.1465E-10  0.7524E-08  0.9165E-12  0.3602E-04  0.7229E-10  0.7619E+15
   -2.062487    0.66601  0.1465E-10  0.7318E-08  0.8941E-12  0.1330E-08  0.6483E-10  0.5588E+16
   -2.131237    0.78046  0.1465E-10  0.3520E-08  0.4706E-12  0.2698E-09  0.4967E-11  0.1281E+17
   -2.199986    1.04648  0.1464E-10  0.1610E-08  0.2938E-12  0.1290E-09  0.3476E-12  0.2047E+17
   -2.268734    1.51145  0.1462E-10  0.1106E-08  0.4875E-12  0.1127E-09  0.1657E-13  0.2367E+17
   -2.337482    2.19664  0.1461E-10  0.3710E-08  0.2315E-11  0.6692E-09  0.6466E-15  0.1974E+17
   -2.406230    3.11237  0.1456E-10  0.2245E-07  0.1374E-10  0.1775E-07  0.2152E-16  0.6263E+16
   -2.474977    4.11793  0.1451E-10  0.4199E-07  0.2606E-10  0.2820E-04  0.5177E-18 -0.1120E+14
   -2.543724    4.12378  0.1451E-10  0.4724E-07  0.3266E-10  0.2625E-04  0.8841E-19 -0.1347E+14
   -2.612470    4.13042  0.1451E-10  0.4902E-07  0.4493E-10  0.1833E-04  0.1218E-19 -0.2254E+14
   -2.681215    4.14078  0.1451E-10  0.4090E-07  0.1113E-09  0.3854E-05  0.9281E-21 -0.1630E+15
   -2.749960    4.19929  0.1451E-10  0.0000E+00  0.0000E+00  0.0000E+00  0.9638E-21  0.0000E+00
