 1 - depth, m
 2 - temperature, C
 3 - salinity, kg/kg
 4 - turbulent kinetic energy, m**2/s**2
 5 - dissipation rate, m**2/s**3
 6 - kinematic heat conductance, m**2/s
 7 - modulus of horizontal velocity, m/s
 8 - Richardson number, n/d
   -0.000000   -0.00000  0.5002E-11  0.2157E-05  0.3486E-07  0.1209E-04  0.1251E-01  0.2552E-01
   -0.068745    0.00724  0.4996E-11  0.1866E-05  0.1424E-07  0.2075E-04  0.8990E-02  0.5297E-01
   -0.137490    0.01090  0.4993E-11  0.1585E-05  0.8117E-08  0.2490E-04  0.7282E-02  0.8171E-01
   -0.206236    0.01353  0.4991E-11  0.1333E-05  0.5226E-08  0.2604E-04  0.6125E-02  0.1121E+00
   -0.274983    0.01569  0.4989E-11  0.1109E-05  0.3562E-08  0.2521E-04  0.5235E-02  0.1450E+00
   -0.343730    0.01761  0.4988E-11  0.9116E-06  0.2499E-08  0.2314E-04  0.4502E-02  0.1818E+00
   -0.412478    0.01939  0.4986E-11  0.7371E-06  0.1774E-08  0.2034E-04  0.3873E-02  0.2244E+00
   -0.481226    0.02114  0.4984E-11  0.5842E-06  0.1260E-08  0.1718E-04  0.3316E-02  0.2760E+00
   -0.549974    0.02294  0.4982E-11  0.4517E-06  0.8865E-09  0.1399E-04  0.2811E-02  0.3437E+00
   -0.618723    0.02493  0.4979E-11  0.3392E-06  0.6121E-09  0.1102E-04  0.2341E-02  0.4652E+00
   -0.687473    0.02751  0.4976E-11  0.2491E-06  0.4152E-09  0.8502E-05  0.1892E-02  0.8765E+00
   -0.756222    0.03113  0.4971E-11  0.1815E-06  0.2806E-09  0.6478E-05  0.1482E-02  0.2310E+01
   -0.824972    0.03514  0.4965E-11  0.1316E-06  0.1899E-09  0.4843E-05  0.1143E-02  0.6492E+01
   -0.893723    0.03860  0.4959E-11  0.9396E-07  0.1274E-09  0.3515E-05  0.8779E-03  0.1864E+02
   -0.962473    0.04140  0.4954E-11  0.6535E-07  0.8367E-10  0.2451E-05  0.6731E-03  0.5724E+02
   -1.031224    0.04373  0.4949E-11  0.4377E-07  0.5321E-10  0.1621E-05  0.5127E-03  0.1949E+03
   -1.099975    0.04578  0.4945E-11  0.2784E-07  0.3231E-10  0.1001E-05  0.3854E-03  0.7716E+03
   -1.168726    0.04768  0.4941E-11  0.1647E-07  0.1836E-10  0.5624E-06  0.2840E-03  0.3915E+04
   -1.237477    0.04958  0.4937E-11  0.8764E-08  0.9447E-11  0.2774E-06  0.2033E-03  0.2793E+05
   -1.306229    0.05176  0.4934E-11  0.3985E-08  0.4181E-11  0.1151E-06  0.1398E-03  0.2610E+06
   -1.374980    0.05485  0.4930E-11  0.1370E-08  0.1426E-11  0.3034E-07  0.9137E-04  0.3050E+07
   -1.443731    0.06164  0.4926E-11  0.3114E-09  0.3158E-12  0.3916E-08  0.5534E-04  0.3087E+08
   -1.512482    0.07657  0.4922E-11  0.1156E-09  0.6580E-13  0.4046E-09  0.3105E-04  0.2768E+09
   -1.581233    0.10766  0.4916E-11  0.2449E-09  0.5292E-13  0.1684E-09  0.1670E-04  0.2166E+10
   -1.649985    0.16835  0.4909E-11  0.6768E-09  0.1066E-12  0.1620E-09  0.8320E-05  0.1239E+11
   -1.718735    0.27724  0.4902E-11  0.1675E-08  0.2382E-12  0.1901E-09  0.2904E-05  0.8465E+11
   -1.787486    0.44856  0.4899E-11  0.3931E-08  0.5263E-12  0.5668E-09  0.1930E-06  0.1303E+14
   -1.856237    0.56038  0.4897E-11  0.8817E-08  0.1121E-11  0.2733E-08  0.1185E-07  0.9246E+15
   -1.924987    0.62160  0.4895E-11  0.1083E-07  0.1367E-11  0.1264E-04  0.4369E-09  0.7605E+15
   -1.993737    0.63762  0.4896E-11  0.1112E-07  0.1406E-11  0.5234E-04  0.2225E-09  0.5154E+15
   -2.062487    0.64743  0.4895E-11  0.1083E-07  0.1372E-11  0.2466E-08  0.2027E-09  0.4699E+16
   -2.131236    0.74733  0.4895E-11  0.5038E-08  0.6897E-12  0.3871E-09  0.1561E-10  0.1116E+17
   -2.199985    0.99095  0.4892E-11  0.2203E-08  0.3831E-12  0.1503E-09  0.1086E-11  0.1965E+17
   -2.268734    1.42625  0.4888E-11  0.1226E-08  0.4822E-12  0.1135E-09  0.5155E-13  0.2352E+17
   -2.337482    2.07781  0.4882E-11  0.3248E-08  0.2029E-11  0.5453E-09  0.2004E-14  0.2116E+17
   -2.406230    2.97772  0.4870E-11  0.1954E-07  0.1210E-10  0.1187E-07  0.6651E-16  0.8528E+16
   -2.474977    4.07315  0.4858E-11  0.3964E-07  0.2567E-10  0.2446E-04  0.1733E-17  0.1161E+14
   -2.543723    4.11144  0.4857E-11  0.4730E-07  0.3507E-10  0.2527E-04  0.1404E-18 -0.1464E+14
   -2.612469    4.11948  0.4857E-11  0.4953E-07  0.4812E-10  0.1777E-04  0.2072E-19 -0.2408E+14
   -2.681215    4.13160  0.4857E-11  0.4172E-07  0.1175E-09  0.3865E-05  0.1951E-20 -0.1698E+15
   -2.749960    4.19524  0.4857E-11  0.0000E+00  0.0000E+00  0.0000E+00  0.2004E-20  0.0000E+00
