 1 - depth, m
 2 - temperature, C
 3 - salinity, kg/kg
 4 - turbulent kinetic energy, m**2/s**2
 5 - dissipation rate, m**2/s**3
 6 - kinematic heat conductance, m**2/s
 7 - modulus of horizontal velocity, m/s
 8 - Richardson number, n/d
   -0.000000   -0.00000  0.7744E-12  0.1219E-13  0.7603E-17  0.1000E-09  0.0000E+00  0.7253E+16
   -0.068746    0.11044  0.2332E-11  0.1219E-13  0.7603E-17  0.1000E-09  0.0000E+00  0.7155E+16
   -0.137493    0.22278  0.3007E-11  0.1219E-13  0.7603E-17  0.1000E-09  0.0000E+00  0.7036E+16
   -0.206240    0.33684  0.3105E-11  0.1219E-13  0.7603E-17  0.1000E-09  0.0000E+00  0.6896E+16
   -0.274988    0.45243  0.2942E-11  0.1219E-13  0.7603E-17  0.1000E-09  0.0000E+00  0.6735E+16
   -0.343736    0.56933  0.2710E-11  0.1219E-13  0.7603E-17  0.1000E-09  0.0000E+00  0.6555E+16
   -0.412485    0.68731  0.2508E-11  0.1219E-13  0.7603E-17  0.1000E-09  0.0000E+00  0.6359E+16
   -0.481234    0.80618  0.2368E-11  0.1219E-13  0.7603E-17  0.1000E-09  0.0000E+00  0.6148E+16
   -0.549984    0.92575  0.2286E-11  0.1219E-13  0.7603E-17  0.1000E-09  0.0000E+00  0.5926E+16
   -0.618734    1.04585  0.2243E-11  0.1219E-13  0.7603E-17  0.1000E-09  0.0000E+00  0.5695E+16
   -0.687485    1.16632  0.2223E-11  0.1219E-13  0.7603E-17  0.1000E-09  0.0000E+00  0.5457E+16
   -0.756236    1.28704  0.2214E-11  0.1219E-13  0.7603E-17  0.1000E-09  0.0000E+00  0.5214E+16
   -0.824987    1.40790  0.2210E-11  0.1219E-13  0.7603E-17  0.1000E-09  0.0000E+00  0.4966E+16
   -0.893738    1.52879  0.2208E-11  0.1219E-13  0.7603E-17  0.1000E-09  0.0000E+00  0.4715E+16
   -0.962490    1.64961  0.2206E-11  0.1219E-13  0.7603E-17  0.1000E-09  0.0000E+00  0.4463E+16
   -1.031242    1.77027  0.2204E-11  0.1219E-13  0.7603E-17  0.1000E-09  0.0000E+00  0.4210E+16
   -1.099994    1.89069  0.2201E-11  0.1219E-13  0.7603E-17  0.1000E-09  0.0000E+00  0.3958E+16
   -1.168747    2.01081  0.2197E-11  0.1219E-13  0.7603E-17  0.1000E-09  0.0000E+00  0.3706E+16
   -1.237499    2.13058  0.2192E-11  0.1219E-13  0.7603E-17  0.1000E-09  0.0000E+00  0.3456E+16
   -1.306251    2.24994  0.2186E-11  0.1219E-13  0.7603E-17  0.1000E-09  0.0000E+00  0.3209E+16
   -1.375004    2.36888  0.2180E-11  0.1219E-13  0.7603E-17  0.1000E-09  0.0000E+00  0.2965E+16
   -1.443756    2.48738  0.2173E-11  0.1219E-13  0.7603E-17  0.1000E-09  0.0000E+00  0.2725E+16
   -1.512509    2.60543  0.2167E-11  0.1219E-13  0.7603E-17  0.1000E-09  0.0000E+00  0.2488E+16
   -1.581261    2.72304  0.2162E-11  0.1219E-13  0.7603E-17  0.1000E-09  0.0000E+00  0.2254E+16
   -1.650014    2.84021  0.2158E-11  0.5013E-13  0.1110E-16  0.1000E-09  0.0000E+00  0.2024E+16
   -1.718766    2.95693  0.2154E-11  0.1584E-12  0.2916E-16  0.1000E-09  0.0000E+00  0.1796E+16
   -1.787518    3.07317  0.2151E-11  0.4644E-12  0.8116E-16  0.1000E-09  0.0000E+00  0.1552E+16
   -1.856269    3.18733  0.2149E-11  0.1337E-11  0.2258E-15  0.1000E-09  0.0000E+00  0.1315E+16
   -1.925021    3.29901  0.2147E-11  0.3806E-11  0.6230E-15  0.1000E-09  0.0000E+00  0.1088E+16
   -1.993772    3.40764  0.2145E-11  0.1074E-10  0.1705E-14  0.1000E-09  0.0000E+00  0.8764E+15
   -2.062523    3.51313  0.2144E-11  0.2936E-10  0.4525E-14  0.1000E-09  0.0000E+00  0.6955E+15
   -2.131274    3.61794  0.2143E-11  0.7909E-10  0.1183E-13  0.1157E-09  0.0000E+00  0.5197E+15
   -2.200024    3.72234  0.2143E-11  0.2107E-09  0.3061E-13  0.4491E-09  0.0000E+00  0.3460E+15
   -2.268774    3.82615  0.2143E-11  0.5600E-09  0.7907E-13  0.2290E-08  0.0000E+00  0.1749E+15
   -2.337523    3.92831  0.2143E-11  0.1469E-08  0.2023E-12  0.4346E-07  0.0000E+00  0.2292E+14
   -2.406272    4.00730  0.2143E-11  0.2463E-08  0.3430E-12  0.8162E-05  0.0000E+00 -0.6012E+12
   -2.475020    4.00905  0.2143E-11  0.2815E-08  0.4201E-12  0.7909E-05  0.0000E+00 -0.6664E+12
   -2.543768    4.01085  0.2143E-11  0.2977E-08  0.5176E-12  0.6500E-05  0.0000E+00 -0.8673E+12
   -2.612515    4.01301  0.2143E-11  0.2884E-08  0.7096E-12  0.3790E-05  0.0000E+00 -0.1599E+13
   -2.681262    4.01659  0.2143E-11  0.2076E-08  0.1614E-11  0.5764E-06  0.0000E+00 -0.1135E+14
   -2.750008    4.03495  0.2143E-11  0.0000E+00  0.0000E+00  0.0000E+00  0.0000E+00  0.0000E+00
