 1 - depth, m
 2 - temperature, C
 3 - salinity, kg/kg
 4 - turbulent kinetic energy, m**2/s**2
 5 - dissipation rate, m**2/s**3
 6 - kinematic heat conductance, m**2/s
 7 - modulus of horizontal velocity, m/s
 8 - Richardson number, n/d
   -0.000000   -0.00000  0.8336E-11  0.1219E-13  0.7603E-17  0.1000E-09  0.0000E+00  0.7680E+16
   -0.068746    0.11705  0.4913E-11  0.1219E-13  0.7603E-17  0.1000E-09  0.0000E+00  0.7371E+16
   -0.137492    0.23305  0.3540E-11  0.1219E-13  0.7603E-17  0.1000E-09  0.0000E+00  0.7090E+16
   -0.206239    0.34835  0.3072E-11  0.1219E-13  0.7603E-17  0.1000E-09  0.0000E+00  0.6833E+16
   -0.274987    0.46326  0.2937E-11  0.1219E-13  0.7603E-17  0.1000E-09  0.0000E+00  0.6597E+16
   -0.343735    0.57811  0.2903E-11  0.1219E-13  0.7603E-17  0.1000E-09  0.0000E+00  0.6379E+16
   -0.412483    0.69320  0.2896E-11  0.1219E-13  0.7603E-17  0.1000E-09  0.0000E+00  0.6176E+16
   -0.481232    0.80882  0.2894E-11  0.1219E-13  0.7603E-17  0.1000E-09  0.0000E+00  0.5985E+16
   -0.549982    0.92526  0.2894E-11  0.1219E-13  0.7603E-17  0.1000E-09  0.0000E+00  0.5802E+16
   -0.618732    1.04276  0.2894E-11  0.1219E-13  0.7603E-17  0.1000E-09  0.0000E+00  0.5624E+16
   -0.687482    1.16156  0.2894E-11  0.1219E-13  0.7603E-17  0.1000E-09  0.0000E+00  0.5459E+16
   -0.756233    1.28211  0.2894E-11  0.1219E-13  0.7603E-17  0.1000E-09  0.0000E+00  0.5299E+16
   -0.824984    1.40476  0.2894E-11  0.1219E-13  0.7603E-17  0.1000E-09  0.0000E+00  0.5133E+16
   -0.893735    1.52965  0.2893E-11  0.1219E-13  0.7603E-17  0.1000E-09  0.0000E+00  0.4959E+16
   -0.962487    1.65694  0.2892E-11  0.1944E-13  0.7603E-17  0.1000E-09  0.0000E+00  0.4774E+16
   -1.031238    1.78671  0.2890E-11  0.7481E-13  0.1122E-16  0.1000E-09  0.0000E+00  0.4577E+16
   -1.099990    1.91903  0.2886E-11  0.2012E-12  0.2480E-16  0.1000E-09  0.0000E+00  0.4364E+16
   -1.168742    2.05395  0.2878E-11  0.4846E-12  0.5641E-16  0.1000E-09  0.0000E+00  0.4136E+16
   -1.237494    2.19144  0.2866E-11  0.1125E-11  0.1268E-15  0.1000E-09  0.0000E+00  0.3890E+16
   -1.306247    2.33149  0.2852E-11  0.2568E-11  0.2816E-15  0.1000E-09  0.0000E+00  0.3626E+16
   -1.374999    2.47399  0.2839E-11  0.5792E-11  0.6189E-15  0.1000E-09  0.0000E+00  0.3347E+16
   -1.443751    2.61901  0.2828E-11  0.1293E-10  0.1347E-14  0.1000E-09  0.0000E+00  0.3050E+16
   -1.512503    2.76644  0.2821E-11  0.2860E-10  0.2903E-14  0.1000E-09  0.0000E+00  0.2734E+16
   -1.581255    2.91609  0.2816E-11  0.6263E-10  0.6199E-14  0.1000E-09  0.0000E+00  0.2400E+16
   -1.650007    3.06772  0.2813E-11  0.1359E-09  0.1312E-13  0.1000E-09  0.0000E+00  0.2050E+16
   -1.718759    3.22108  0.2811E-11  0.2922E-09  0.2752E-13  0.1000E-09  0.0000E+00  0.1687E+16
   -1.787511    3.37597  0.2810E-11  0.6371E-09  0.5854E-13  0.2240E-09  0.0000E+00  0.1330E+16
   -1.856262    3.53448  0.2808E-11  0.1401E-08  0.1257E-12  0.6754E-09  0.0000E+00  0.9467E+15
   -1.925014    3.69648  0.2805E-11  0.3076E-08  0.2694E-12  0.2556E-08  0.0000E+00  0.5362E+15
   -1.993765    3.86072  0.2803E-11  0.6656E-08  0.5702E-12  0.2406E-07  0.0000E+00  0.1204E+15
   -2.062515    4.00697  0.2802E-11  0.7518E-08  0.6477E-12  0.3584E-04  0.0000E+00 -0.2203E+12
   -2.131266    4.00764  0.2802E-11  0.7878E-08  0.6885E-12  0.3628E-04  0.0000E+00 -0.2249E+12
   -2.200016    4.00831  0.2802E-11  0.8160E-08  0.7318E-12  0.3588E-04  0.0000E+00 -0.2347E+12
   -2.268765    4.00898  0.2802E-11  0.8372E-08  0.7807E-12  0.3460E-04  0.0000E+00 -0.2513E+12
   -2.337514    4.00967  0.2802E-11  0.8517E-08  0.8415E-12  0.3230E-04  0.0000E+00 -0.2784E+12
   -2.406263    4.01042  0.2802E-11  0.8588E-08  0.9235E-12  0.2880E-04  0.0000E+00 -0.3238E+12
   -2.475011    4.01126  0.2802E-11  0.8562E-08  0.1047E-11  0.2388E-04  0.0000E+00 -0.4074E+12
   -2.543758    4.01229  0.2802E-11  0.8383E-08  0.1267E-11  0.1735E-04  0.0000E+00 -0.5922E+12
   -2.612505    4.01370  0.2802E-11  0.7872E-08  0.1803E-11  0.9210E-05  0.0000E+00 -0.1219E+13
   -2.681252    4.01641  0.2802E-11  0.5684E-08  0.5054E-11  0.1223E-05  0.0000E+00 -0.1252E+14
   -2.749997    4.03635  0.2802E-11  0.0000E+00  0.0000E+00  0.0000E+00  0.0000E+00  0.0000E+00
