 1 - depth, m
 2 - temperature, C
 3 - salinity, kg/kg
 4 - turbulent kinetic energy, m**2/s**2
 5 - dissipation rate, m**2/s**3
 6 - kinematic heat conductance, m**2/s
 7 - modulus of horizontal velocity, m/s
 8 - Richardson number, n/d
   -0.000000   -0.00000  0.4909E-10  0.7987E-12  0.1745E-15  0.1000E-09  0.1285E-40  0.4639E+16
   -0.068746    0.07025  0.3033E-10  0.1791E-11  0.1445E-15  0.1000E-09  0.1203E-40  0.3961E+16
   -0.137492    0.13131  0.2680E-10  0.3422E-11  0.1600E-15  0.1000E-09  0.1064E-40  0.3267E+16
   -0.206239    0.18247  0.2617E-10  0.5523E-11  0.1946E-15  0.1000E-09  0.9086E-41  0.2596E+16
   -0.274986    0.22364  0.2608E-10  0.7966E-11  0.2396E-15  0.1000E-09  0.7616E-41  0.1980E+16
   -0.343734    0.25538  0.2607E-10  0.1063E-10  0.2902E-15  0.1000E-09  0.6326E-41  0.1448E+16
   -0.412483    0.27877  0.2607E-10  0.1341E-10  0.3431E-15  0.1000E-09  0.5231E-41  0.1013E+16
   -0.481232    0.29522  0.2607E-10  0.1617E-10  0.3957E-15  0.1000E-09  0.4309E-41  0.6791E+15
   -0.549981    0.30630  0.2607E-10  0.1881E-10  0.4455E-15  0.1000E-09  0.3533E-41  0.4432E+15
   -0.618731    0.31355  0.2607E-10  0.2121E-10  0.4903E-15  0.1000E-09  0.2882E-41  0.2976E+15
   -0.687482    0.31842  0.2607E-10  0.2327E-10  0.5284E-15  0.1000E-09  0.2338E-41  0.2431E+15
   -0.756232    0.32241  0.2607E-10  0.2491E-10  0.5582E-15  0.1000E-09  0.1884E-41  0.2737E+15
   -0.824983    0.32691  0.2607E-10  0.2605E-10  0.5785E-15  0.1000E-09  0.1510E-41  0.3882E+15
   -0.893734    0.33330  0.2607E-10  0.2664E-10  0.5887E-15  0.1000E-09  0.1203E-41  0.5962E+15
   -0.962486    0.34313  0.2607E-10  0.2666E-10  0.5884E-15  0.1000E-09  0.9530E-42  0.9119E+15
   -1.031237    0.35823  0.2607E-10  0.2610E-10  0.5776E-15  0.1000E-09  0.7509E-42  0.1352E+16
   -1.099989    0.38073  0.2607E-10  0.2497E-10  0.5569E-15  0.1000E-09  0.5882E-42  0.1931E+16
   -1.168741    0.41313  0.2607E-10  0.2332E-10  0.5272E-15  0.1000E-09  0.4580E-42  0.2658E+16
   -1.237493    0.45824  0.2606E-10  0.2120E-10  0.4898E-15  0.1000E-09  0.3540E-42  0.3530E+16
   -1.306245    0.51911  0.2602E-10  0.1870E-10  0.4465E-15  0.1000E-09  0.2712E-42  0.4527E+16
   -1.374997    0.59887  0.2587E-10  0.1592E-10  0.3996E-15  0.1000E-09  0.2051E-42  0.5685E+16
   -1.443750    0.70192  0.2561E-10  0.1298E-10  0.3522E-15  0.1000E-09  0.1522E-42  0.6885E+16
   -1.512502    0.83148  0.2548E-10  0.1002E-10  0.3087E-15  0.1000E-09  0.1093E-42  0.8019E+16
   -1.581254    0.98982  0.2544E-10  0.7225E-11  0.2763E-15  0.1000E-09  0.7401E-43  0.8990E+16
   -1.650006    1.17848  0.2541E-10  0.4830E-11  0.2699E-15  0.1000E-09  0.4391E-43  0.9697E+16
   -1.718758    1.39811  0.2539E-10  0.3202E-11  0.3339E-15  0.1000E-09  0.1701E-43  0.1002E+17
   -1.787509    1.64775  0.2538E-10  0.3081E-11  0.6379E-15  0.1000E-09  0.1153E-44  0.9548E+16
   -1.856261    1.91449  0.2537E-10  0.6822E-11  0.1820E-14  0.1000E-09  0.7197E-46  0.8793E+16
   -1.925012    2.19630  0.2537E-10  0.2288E-10  0.6124E-14  0.1000E-09  0.4103E-47  0.7764E+16
   -1.993763    2.49007  0.2537E-10  0.8171E-10  0.2115E-13  0.1000E-09  0.2548E-48  0.6535E+16
   -2.062513    2.79373  0.2536E-10  0.2830E-09  0.7062E-13  0.1000E-09  0.2056E-49  0.5235E+16
   -2.131264    3.11167  0.2533E-10  0.9613E-09  0.2314E-12  0.3187E-09  0.1553E-50  0.3695E+16
   -2.200014    3.43977  0.2527E-10  0.3209E-08  0.7455E-12  0.1908E-08  0.1090E-51  0.1987E+16
   -2.268763    3.77029  0.2521E-10  0.1042E-07  0.2342E-11  0.3464E-07  0.5231E-53  0.3423E+15
   -2.337512    4.04178  0.2521E-10  0.1425E-07  0.3239E-11  0.2696E-04  0.1647E-54 -0.1561E+13
   -2.406261    4.04355  0.2521E-10  0.1560E-07  0.3702E-11  0.2658E-04  0.4362E-55 -0.1662E+13
   -2.475009    4.04538  0.2521E-10  0.1648E-07  0.4282E-11  0.2414E-04  0.1047E-55 -0.1939E+13
   -2.543756    4.04744  0.2521E-10  0.1687E-07  0.5190E-11  0.1933E-04  0.2144E-56 -0.2619E+13
   -2.612503    4.05011  0.2521E-10  0.1651E-07  0.7219E-11  0.1175E-04  0.3117E-57 -0.4940E+13
   -2.681249    4.05488  0.2521E-10  0.1317E-07  0.1864E-10  0.2192E-05  0.2242E-58 -0.4145E+14
   -2.749995    4.08631  0.2521E-10  0.0000E+00  0.0000E+00  0.0000E+00  0.2367E-58  0.0000E+00
