 1 - depth, m
 2 - temperature, C
 3 - salinity, kg/kg
 4 - turbulent kinetic energy, m**2/s**2
 5 - dissipation rate, m**2/s**3
 6 - kinematic heat conductance, m**2/s
 7 - modulus of horizontal velocity, m/s
 8 - Richardson number, n/d
   -0.000000   -0.00000  0.6039E-11  0.1219E-13  0.7603E-17  0.1000E-09  0.0000E+00  0.7046E+16
   -0.068746    0.10723  0.3590E-11  0.1219E-13  0.7603E-17  0.1000E-09  0.0000E+00  0.6773E+16
   -0.137492    0.21339  0.2615E-11  0.1219E-13  0.7603E-17  0.1000E-09  0.0000E+00  0.6534E+16
   -0.206239    0.31889  0.2311E-11  0.1219E-13  0.7603E-17  0.1000E-09  0.0000E+00  0.6323E+16
   -0.274987    0.42416  0.2232E-11  0.1219E-13  0.7603E-17  0.1000E-09  0.0000E+00  0.6138E+16
   -0.343735    0.52961  0.2213E-11  0.1219E-13  0.7603E-17  0.1000E-09  0.0000E+00  0.5976E+16
   -0.412483    0.63564  0.2210E-11  0.1219E-13  0.7603E-17  0.1000E-09  0.0000E+00  0.5830E+16
   -0.481232    0.74263  0.2209E-11  0.1219E-13  0.7603E-17  0.1000E-09  0.0000E+00  0.5699E+16
   -0.549982    0.85095  0.2209E-11  0.1219E-13  0.7603E-17  0.1000E-09  0.0000E+00  0.5579E+16
   -0.618732    0.96092  0.2209E-11  0.1219E-13  0.7603E-17  0.1000E-09  0.0000E+00  0.5464E+16
   -0.687482    1.07288  0.2209E-11  0.1219E-13  0.7603E-17  0.1000E-09  0.0000E+00  0.5365E+16
   -0.756233    1.18737  0.2209E-11  0.1219E-13  0.7603E-17  0.1000E-09  0.0000E+00  0.5269E+16
   -0.824984    1.30481  0.2209E-11  0.1219E-13  0.7603E-17  0.1000E-09  0.0000E+00  0.5167E+16
   -0.893735    1.42543  0.2209E-11  0.1219E-13  0.7603E-17  0.1000E-09  0.0000E+00  0.5054E+16
   -0.962486    1.54943  0.2208E-11  0.1456E-13  0.7603E-17  0.1000E-09  0.0000E+00  0.4926E+16
   -1.031238    1.67698  0.2208E-11  0.6501E-13  0.1047E-16  0.1000E-09  0.0000E+00  0.4781E+16
   -1.099990    1.80820  0.2206E-11  0.1817E-12  0.2332E-16  0.1000E-09  0.0000E+00  0.4616E+16
   -1.168742    1.94316  0.2202E-11  0.4460E-12  0.5385E-16  0.1000E-09  0.0000E+00  0.4428E+16
   -1.237494    2.08190  0.2195E-11  0.1051E-11  0.1228E-15  0.1000E-09  0.0000E+00  0.4214E+16
   -1.306246    2.22440  0.2185E-11  0.2432E-11  0.2764E-15  0.1000E-09  0.0000E+00  0.3974E+16
   -1.374999    2.37061  0.2175E-11  0.5563E-11  0.6156E-15  0.1000E-09  0.0000E+00  0.3710E+16
   -1.443751    2.52060  0.2165E-11  0.1259E-10  0.1357E-14  0.1000E-09  0.0000E+00  0.3419E+16
   -1.512503    2.67428  0.2159E-11  0.2820E-10  0.2963E-14  0.1000E-09  0.0000E+00  0.3097E+16
   -1.581255    2.83143  0.2155E-11  0.6258E-10  0.6410E-14  0.1000E-09  0.0000E+00  0.2746E+16
   -1.650007    2.99177  0.2153E-11  0.1375E-09  0.1374E-13  0.1000E-09  0.0000E+00  0.2368E+16
   -1.718759    3.15495  0.2151E-11  0.2995E-09  0.2918E-13  0.1000E-09  0.0000E+00  0.1967E+16
   -1.787511    3.32071  0.2150E-11  0.6614E-09  0.6284E-13  0.2044E-09  0.0000E+00  0.1565E+16
   -1.856262    3.49123  0.2148E-11  0.1473E-08  0.1366E-12  0.6175E-09  0.0000E+00  0.1125E+16
   -1.925013    3.66637  0.2145E-11  0.3274E-08  0.2963E-12  0.2328E-08  0.0000E+00  0.6476E+15
   -1.993764    3.84492  0.2142E-11  0.7181E-08  0.6355E-12  0.2106E-07  0.0000E+00  0.1534E+15
   -2.062515    4.00723  0.2141E-11  0.8098E-08  0.7209E-12  0.3716E-04  0.0000E+00 -0.2347E+12
   -2.131265    4.00793  0.2141E-11  0.8481E-08  0.7659E-12  0.3765E-04  0.0000E+00 -0.2397E+12
   -2.200015    4.00863  0.2141E-11  0.8784E-08  0.8139E-12  0.3728E-04  0.0000E+00 -0.2503E+12
   -2.268765    4.00933  0.2141E-11  0.9010E-08  0.8683E-12  0.3599E-04  0.0000E+00 -0.2681E+12
   -2.337514    4.01006  0.2141E-11  0.9168E-08  0.9359E-12  0.3362E-04  0.0000E+00 -0.2972E+12
   -2.406263    4.01085  0.2141E-11  0.9245E-08  0.1027E-11  0.3002E-04  0.0000E+00 -0.3457E+12
   -2.475011    4.01173  0.2141E-11  0.9221E-08  0.1165E-11  0.2494E-04  0.0000E+00 -0.4347E+12
   -2.543758    4.01280  0.2141E-11  0.9035E-08  0.1409E-11  0.1817E-04  0.0000E+00 -0.6309E+12
   -2.612505    4.01428  0.2141E-11  0.8499E-08  0.2001E-11  0.9702E-05  0.0000E+00 -0.1292E+13
   -2.681251    4.01709  0.2141E-11  0.6183E-08  0.5603E-11  0.1311E-05  0.0000E+00 -0.1309E+14
   -2.749997    4.03749  0.2141E-11  0.0000E+00  0.0000E+00  0.0000E+00  0.0000E+00  0.0000E+00
