 1 - depth, m
 2 - temperature, C
 3 - salinity, kg/kg
 4 - turbulent kinetic energy, m**2/s**2
 5 - dissipation rate, m**2/s**3
 6 - kinematic heat conductance, m**2/s
 7 - modulus of horizontal velocity, m/s
 8 - Richardson number, n/d
   -0.000000   -0.00000  0.3194E-10  0.1219E-13  0.7603E-17  0.1000E-09  0.0000E+00  0.7138E+16
   -0.068746    0.10866  0.1894E-10  0.1219E-13  0.7603E-17  0.1000E-09  0.0000E+00  0.6863E+16
   -0.137492    0.21628  0.1376E-10  0.1219E-13  0.7603E-17  0.1000E-09  0.0000E+00  0.6614E+16
   -0.206239    0.32319  0.1202E-10  0.1219E-13  0.7603E-17  0.1000E-09  0.0000E+00  0.6388E+16
   -0.274987    0.42969  0.1152E-10  0.1219E-13  0.7603E-17  0.1000E-09  0.0000E+00  0.6182E+16
   -0.343735    0.53609  0.1139E-10  0.1219E-13  0.7603E-17  0.1000E-09  0.0000E+00  0.5993E+16
   -0.412483    0.64265  0.1136E-10  0.1219E-13  0.7603E-17  0.1000E-09  0.0000E+00  0.5818E+16
   -0.481232    0.74965  0.1136E-10  0.1219E-13  0.7603E-17  0.1000E-09  0.0000E+00  0.5654E+16
   -0.549982    0.85734  0.1136E-10  0.1219E-13  0.7603E-17  0.1000E-09  0.0000E+00  0.5499E+16
   -0.618732    0.96596  0.1136E-10  0.1219E-13  0.7603E-17  0.1000E-09  0.0000E+00  0.5351E+16
   -0.687482    1.07575  0.1136E-10  0.1219E-13  0.7603E-17  0.1000E-09  0.0000E+00  0.5216E+16
   -0.756233    1.18711  0.1136E-10  0.1219E-13  0.7603E-17  0.1000E-09  0.0000E+00  0.5087E+16
   -0.824984    1.30039  0.1136E-10  0.1219E-13  0.7603E-17  0.1000E-09  0.0000E+00  0.4954E+16
   -0.893735    1.41572  0.1136E-10  0.1219E-13  0.7603E-17  0.1000E-09  0.0000E+00  0.4816E+16
   -0.962486    1.53326  0.1135E-10  0.1219E-13  0.7603E-17  0.1000E-09  0.0000E+00  0.4669E+16
   -1.031238    1.65309  0.1135E-10  0.1219E-13  0.7603E-17  0.1000E-09  0.0000E+00  0.4512E+16
   -1.099990    1.77530  0.1135E-10  0.1219E-13  0.7603E-17  0.1000E-09  0.0000E+00  0.4342E+16
   -1.168742    1.89993  0.1133E-10  0.1219E-13  0.7603E-17  0.1000E-09  0.0000E+00  0.4159E+16
   -1.237494    2.02698  0.1131E-10  0.3979E-13  0.8013E-17  0.1000E-09  0.0000E+00  0.3960E+16
   -1.306246    2.15643  0.1127E-10  0.1181E-12  0.1801E-16  0.1000E-09  0.0000E+00  0.3746E+16
   -1.374999    2.28821  0.1123E-10  0.3105E-12  0.4420E-16  0.1000E-09  0.0000E+00  0.3519E+16
   -1.443751    2.42241  0.1119E-10  0.7824E-12  0.1075E-15  0.1000E-09  0.0000E+00  0.3276E+16
   -1.512503    2.55895  0.1115E-10  0.1934E-11  0.2581E-15  0.1000E-09  0.0000E+00  0.3015E+16
   -1.581255    2.69766  0.1113E-10  0.4719E-11  0.6119E-15  0.1000E-09  0.0000E+00  0.2738E+16
   -1.650007    2.83835  0.1112E-10  0.1137E-10  0.1434E-14  0.1000E-09  0.0000E+00  0.2444E+16
   -1.718759    2.98078  0.1111E-10  0.2710E-10  0.3323E-14  0.1000E-09  0.0000E+00  0.2137E+16
   -1.787511    3.12476  0.1110E-10  0.6544E-10  0.7805E-14  0.1000E-09  0.0000E+00  0.1837E+16
   -1.856262    3.27167  0.1110E-10  0.1590E-09  0.1846E-13  0.1000E-09  0.0000E+00  0.1518E+16
   -1.925013    3.42164  0.1109E-10  0.3850E-09  0.4350E-13  0.1875E-09  0.0000E+00  0.1180E+16
   -1.993764    3.57482  0.1107E-10  0.9283E-09  0.1021E-12  0.6353E-09  0.0000E+00  0.8178E+15
   -2.062515    3.73044  0.1105E-10  0.2175E-08  0.2332E-12  0.2746E-08  0.0000E+00  0.4319E+15
   -2.131265    3.88390  0.1104E-10  0.4942E-08  0.5179E-12  0.3364E-07  0.0000E+00  0.7789E+14
   -2.200015    4.00981  0.1104E-10  0.6000E-08  0.6335E-12  0.2431E-04  0.0000E+00 -0.3363E+12
   -2.268765    4.01071  0.1104E-10  0.6414E-08  0.6933E-12  0.2448E-04  0.0000E+00 -0.3475E+12
   -2.337514    4.01160  0.1104E-10  0.6723E-08  0.7600E-12  0.2366E-04  0.0000E+00 -0.3744E+12
   -2.406263    4.01253  0.1104E-10  0.6930E-08  0.8430E-12  0.2173E-04  0.0000E+00 -0.4255E+12
   -2.475011    4.01355  0.1104E-10  0.7024E-08  0.9613E-12  0.1852E-04  0.0000E+00 -0.5248E+12
   -2.543758    4.01475  0.1104E-10  0.6959E-08  0.1164E-11  0.1382E-04  0.0000E+00 -0.7499E+12
   -2.612505    4.01639  0.1104E-10  0.6582E-08  0.1644E-11  0.7549E-05  0.0000E+00 -0.1525E+13
   -2.681251    4.01947  0.1104E-10  0.4853E-08  0.4376E-11  0.1118E-05  0.0000E+00 -0.1454E+14
   -2.749997    4.04069  0.1104E-10  0.0000E+00  0.0000E+00  0.0000E+00  0.0000E+00  0.0000E+00
