 1 - depth, m
 2 - temperature, C
 3 - salinity, kg/kg
 4 - turbulent kinetic energy, m**2/s**2
 5 - dissipation rate, m**2/s**3
 6 - kinematic heat conductance, m**2/s
 7 - modulus of horizontal velocity, m/s
 8 - Richardson number, n/d
   -0.000000    7.76826  0.5621E-12  0.5724E-04  0.1063E-04  0.5689E-04  0.6949E-01 -0.5662E-02
   -0.068746    7.81305  0.5621E-12  0.3591E-04  0.2334E-05  0.9385E-04  0.3538E-01 -0.1032E-01
   -0.137492    7.82428  0.5621E-12  0.3082E-04  0.9633E-06  0.1386E-03  0.2840E-01 -0.1674E-01
   -0.206239    7.83166  0.5621E-12  0.2825E-04  0.5201E-06  0.1900E-03  0.2412E-01 -0.2356E-01
   -0.274987    7.83701  0.5621E-12  0.2671E-04  0.3339E-06  0.2460E-03  0.2108E-01 -0.3109E-01
   -0.343735    7.84108  0.5621E-12  0.2565E-04  0.2396E-06  0.3052E-03  0.1878E-01 -0.3919E-01
   -0.412484    7.84427  0.5621E-12  0.2483E-04  0.1846E-06  0.3663E-03  0.1696E-01 -0.4767E-01
   -0.481233    7.84686  0.5621E-12  0.2416E-04  0.1493E-06  0.4285E-03  0.1548E-01 -0.5639E-01
   -0.549983    7.84902  0.5622E-12  0.2359E-04  0.1248E-06  0.4911E-03  0.1424E-01 -0.6520E-01
   -0.618733    7.85084  0.5622E-12  0.2308E-04  0.1069E-06  0.5535E-03  0.1317E-01 -0.7402E-01
   -0.687483    7.85242  0.5622E-12  0.2263E-04  0.9340E-07  0.6154E-03  0.1224E-01 -0.8270E-01
   -0.756234    7.85381  0.5622E-12  0.2223E-04  0.8287E-07  0.6766E-03  0.1142E-01 -0.9023E-01
   -0.824985    7.85503  0.5622E-12  0.2186E-04  0.7448E-07  0.7415E-03  0.1068E-01 -0.8693E-01
   -0.893736    7.85612  0.5622E-12  0.2153E-04  0.6768E-07  0.8394E-03  0.1002E-01  0.5495E-01
   -0.962488    7.85707  0.5622E-12  0.2122E-04  0.6212E-07  0.1108E-02  0.9404E-02  0.3202E+03
   -1.031240    7.85783  0.5622E-12  0.2094E-04  0.5753E-07  0.1445E-02  0.8844E-02  0.2398E+03
   -1.099992    7.85842  0.5622E-12  0.2068E-04  0.5367E-07  0.1693E-02  0.8322E-02  0.6575E+02
   -1.168744    7.85890  0.5622E-12  0.2044E-04  0.5037E-07  0.1898E-02  0.7822E-02  0.9822E+02
   -1.237496    7.85931  0.5622E-12  0.2020E-04  0.4751E-07  0.2001E-02  0.7341E-02  0.7128E+02
   -1.306248    7.85968  0.5622E-12  0.1995E-04  0.4499E-07  0.2062E-02  0.6871E-02  0.1125E+03
   -1.375001    7.86002  0.5622E-12  0.1970E-04  0.4277E-07  0.2124E-02  0.6412E-02  0.4775E+03
   -1.443753    7.86034  0.5622E-12  0.1944E-04  0.4079E-07  0.2172E-02  0.5962E-02  0.3184E+04
   -1.512505    7.86064  0.5622E-12  0.1917E-04  0.3901E-07  0.2194E-02  0.5519E-02  0.2910E+05
   -1.581258    7.86093  0.5622E-12  0.1887E-04  0.3739E-07  0.2204E-02  0.5082E-02  0.9792E+05
   -1.650010    7.86121  0.5622E-12  0.1854E-04  0.3591E-07  0.2221E-02  0.4647E-02  0.8734E+03
   -1.718762    7.86148  0.5622E-12  0.1819E-04  0.3452E-07  0.2216E-02  0.4215E-02  0.1368E+03
   -1.787513    7.86173  0.5622E-12  0.1778E-04  0.3317E-07  0.2262E-02  0.3782E-02  0.1491E+03
   -1.856265    7.86198  0.5622E-12  0.1732E-04  0.3186E-07  0.2266E-02  0.3395E-02  0.6352E+02
   -1.925016    7.86222  0.5622E-12  0.1683E-04  0.3064E-07  0.2259E-02  0.3044E-02  0.6675E+01
   -1.993768    7.86246  0.5622E-12  0.1631E-04  0.2954E-07  0.2237E-02  0.2729E-02  0.2135E+02
   -2.062518    7.86270  0.5622E-12  0.1580E-04  0.2865E-07  0.2193E-02  0.2443E-02  0.6577E+01
   -2.131269    7.86294  0.5622E-12  0.1529E-04  0.2801E-07  0.2131E-02  0.2174E-02  0.6124E+01
   -2.200019    7.86318  0.5622E-12  0.1480E-04  0.2767E-07  0.2057E-02  0.1921E-02  0.5481E+01
   -2.268768    7.86343  0.5622E-12  0.1432E-04  0.2768E-07  0.1982E-02  0.1683E-02  0.1741E+03
   -2.337518    7.86368  0.5622E-12  0.1385E-04  0.2813E-07  0.1928E-02  0.1465E-02  0.2691E+02
   -2.406266    7.86395  0.5622E-12  0.1339E-04  0.2921E-07  0.1565E-02  0.1272E-02  0.5124E+02
   -2.475015    7.86427  0.5622E-12  0.1290E-04  0.3132E-07  0.1184E-02  0.1099E-02  0.3457E+03
   -2.543762    7.86469  0.5622E-12  0.1231E-04  0.3580E-07  0.6655E-03  0.9391E-03  0.1746E+03
   -2.612509    7.86538  0.5622E-12  0.1139E-04  0.4781E-07  0.3603E-03  0.7658E-03 -0.1363E+01
   -2.681256    7.86660  0.5622E-12  0.6828E-05  0.1679E-06  0.3416E-04  0.5792E-03 -0.3034E+05
   -2.750001    7.87920  0.5622E-12  0.0000E+00  0.0000E+00  0.0000E+00  0.5780E-03  0.0000E+00
