 1 - depth, m
 2 - temperature, C
 3 - salinity, kg/kg
 4 - turbulent kinetic energy, m**2/s**2
 5 - dissipation rate, m**2/s**3
 6 - kinematic heat conductance, m**2/s
 7 - modulus of horizontal velocity, m/s
 8 - Richardson number, n/d
   -0.000000   -0.00000  0.5975E-17  0.1219E-13  0.7603E-17  0.1000E-09  0.0000E+00  0.4437E+16
   -0.068746    0.06717  0.0000E+00  0.1219E-13  0.7603E-17  0.1000E-09  0.0000E+00  0.4553E+16
   -0.137493    0.13740  0.5417E-12  0.1219E-13  0.7603E-17  0.1000E-09  0.0000E+00  0.4683E+16
   -0.206241    0.21108  0.2881E-11  0.1219E-13  0.7603E-17  0.1000E-09  0.0000E+00  0.4821E+16
   -0.274989    0.28856  0.6081E-11  0.1219E-13  0.7603E-17  0.1000E-09  0.0000E+00  0.4955E+16
   -0.343738    0.37005  0.8832E-11  0.1219E-13  0.7603E-17  0.1000E-09  0.0000E+00  0.5074E+16
   -0.412487    0.45556  0.1046E-10  0.1219E-13  0.7603E-17  0.1000E-09  0.0000E+00  0.5167E+16
   -0.481237    0.54495  0.1099E-10  0.1219E-13  0.7603E-17  0.1000E-09  0.0000E+00  0.5227E+16
   -0.549987    0.63795  0.1080E-10  0.1219E-13  0.7603E-17  0.1000E-09  0.0000E+00  0.5252E+16
   -0.618737    0.73423  0.1030E-10  0.1219E-13  0.7603E-17  0.1000E-09  0.0000E+00  0.5243E+16
   -0.687488    0.83345  0.9770E-11  0.1219E-13  0.7603E-17  0.1000E-09  0.0000E+00  0.5198E+16
   -0.756239    0.93517  0.9345E-11  0.1219E-13  0.7603E-17  0.1000E-09  0.0000E+00  0.5122E+16
   -0.824991    1.03901  0.9053E-11  0.1219E-13  0.7603E-17  0.1000E-09  0.0000E+00  0.5022E+16
   -0.893743    1.14470  0.8873E-11  0.1219E-13  0.7603E-17  0.1000E-09  0.0000E+00  0.4902E+16
   -0.962495    1.25199  0.8773E-11  0.1219E-13  0.7603E-17  0.1000E-09  0.0000E+00  0.4765E+16
   -1.031247    1.36069  0.8720E-11  0.1219E-13  0.7603E-17  0.1000E-09  0.0000E+00  0.4615E+16
   -1.100000    1.47064  0.8693E-11  0.1219E-13  0.7603E-17  0.1000E-09  0.0000E+00  0.4455E+16
   -1.168752    1.58176  0.8677E-11  0.1219E-13  0.7603E-17  0.1000E-09  0.0000E+00  0.4288E+16
   -1.237505    1.69398  0.8665E-11  0.1219E-13  0.7603E-17  0.1000E-09  0.0000E+00  0.4115E+16
   -1.306258    1.80732  0.8653E-11  0.1219E-13  0.7603E-17  0.1000E-09  0.0000E+00  0.3938E+16
   -1.375011    1.92184  0.8638E-11  0.1219E-13  0.7603E-17  0.1000E-09  0.0000E+00  0.3761E+16
   -1.443764    2.03771  0.8620E-11  0.1219E-13  0.7603E-17  0.1000E-09  0.0000E+00  0.3582E+16
   -1.512516    2.15511  0.8599E-11  0.1219E-13  0.7603E-17  0.1000E-09  0.0000E+00  0.3401E+16
   -1.581269    2.27421  0.8576E-11  0.1219E-13  0.7603E-17  0.1000E-09  0.0000E+00  0.3214E+16
   -1.650022    2.39520  0.8553E-11  0.1219E-13  0.7603E-17  0.1000E-09  0.0000E+00  0.3020E+16
   -1.718774    2.51820  0.8529E-11  0.1219E-13  0.7603E-17  0.1000E-09  0.0000E+00  0.2813E+16
   -1.787527    2.64314  0.8508E-11  0.1219E-13  0.7603E-17  0.1000E-09  0.0000E+00  0.2511E+16
   -1.856279    2.76567  0.8490E-11  0.1219E-13  0.7603E-17  0.1000E-09  0.0000E+00  0.2210E+16
   -1.925030    2.88495  0.8475E-11  0.1219E-13  0.7603E-17  0.1000E-09  0.0000E+00  0.1911E+16
   -1.993782    2.99987  0.8462E-11  0.1219E-13  0.7603E-17  0.1000E-09  0.0000E+00  0.1639E+16
   -2.062533    3.11062  0.8452E-11  0.1219E-13  0.7603E-17  0.1000E-09  0.0000E+00  0.1449E+16
   -2.131284    3.22200  0.8443E-11  0.2443E-13  0.1241E-16  0.1000E-09  0.0000E+00  0.1264E+16
   -2.200035    3.33473  0.8436E-11  0.1192E-12  0.5647E-16  0.1000E-09  0.0000E+00  0.1075E+16
   -2.268785    3.44909  0.8431E-11  0.6005E-12  0.2727E-15  0.1000E-09  0.0000E+00  0.8751E+15
   -2.337535    3.56473  0.8427E-11  0.3018E-11  0.1317E-14  0.1000E-09  0.0000E+00  0.6676E+15
   -2.406284    3.68139  0.8424E-11  0.1501E-10  0.6299E-14  0.1000E-09  0.0000E+00  0.4543E+15
   -2.475033    3.79870  0.8422E-11  0.7435E-10  0.3010E-13  0.6269E-09  0.0000E+00  0.2370E+15
   -2.543781    3.91556  0.8421E-11  0.3651E-09  0.1434E-12  0.1913E-07  0.0000E+00  0.3154E+14
   -2.612528    4.01770  0.8421E-11  0.1502E-08  0.6129E-12  0.1593E-05  0.0000E+00 -0.5040E+13
   -2.681275    4.02668  0.8421E-11  0.1351E-08  0.1150E-11  0.4277E-06  0.0000E+00 -0.1692E+14
   -2.750022    4.04788  0.8421E-11  0.0000E+00  0.0000E+00  0.0000E+00  0.0000E+00  0.0000E+00
