 1 - depth, m
 2 - temperature, C
 3 - salinity, kg/kg
 4 - turbulent kinetic energy, m**2/s**2
 5 - dissipation rate, m**2/s**3
 6 - kinematic heat conductance, m**2/s
 7 - modulus of horizontal velocity, m/s
 8 - Richardson number, n/d
   -0.000000    6.69489  0.7200E-10  0.4442E-04  0.8389E-05  0.5315E-04  0.5405E-01 -0.1158E-01
   -0.068746    6.74475  0.7200E-10  0.2953E-04  0.1929E-05  0.9832E-04  0.2855E-01 -0.2766E-01
   -0.137492    6.75849  0.7200E-10  0.2545E-04  0.8193E-06  0.1447E-03  0.2308E-01 -0.3636E-01
   -0.206239    6.76700  0.7200E-10  0.2329E-04  0.4405E-06  0.1967E-03  0.1980E-01 -0.5157E-01
   -0.274987    6.77306  0.7200E-10  0.2197E-04  0.2785E-06  0.2531E-03  0.1744E-01 -0.6782E-01
   -0.343735    6.77765  0.7200E-10  0.2108E-04  0.1971E-06  0.3129E-03  0.1564E-01 -0.8426E-01
   -0.412484    6.78127  0.7200E-10  0.2043E-04  0.1505E-06  0.3794E-03  0.1420E-01 -0.8173E-01
   -0.481233    6.78418  0.7200E-10  0.1992E-04  0.1210E-06  0.4883E-03  0.1301E-01  0.7171E+02
   -0.549983    6.78648  0.7200E-10  0.1950E-04  0.1010E-06  0.6337E-03  0.1202E-01  0.3973E+02
   -0.618733    6.78830  0.7200E-10  0.1915E-04  0.8668E-07  0.7394E-03  0.1118E-01  0.3944E+02
   -0.687483    6.78984  0.7200E-10  0.1885E-04  0.7589E-07  0.8422E-03  0.1043E-01  0.1091E+02
   -0.756234    6.79115  0.7200E-10  0.1858E-04  0.6753E-07  0.9407E-03  0.9763E-02  0.9883E+01
   -0.824985    6.79229  0.7200E-10  0.1833E-04  0.6089E-07  0.1042E-02  0.9157E-02  0.1455E+02
   -0.893737    6.79329  0.7200E-10  0.1811E-04  0.5551E-07  0.1134E-02  0.8599E-02  0.9057E+01
   -0.962488    6.79417  0.7200E-10  0.1790E-04  0.5107E-07  0.1238E-02  0.8080E-02  0.1078E+02
   -1.031240    6.79496  0.7200E-10  0.1771E-04  0.4736E-07  0.1325E-02  0.7593E-02  0.1602E+02
   -1.099992    6.79568  0.7200E-10  0.1751E-04  0.4421E-07  0.1414E-02  0.7130E-02  0.1786E+02
   -1.168744    6.79633  0.7200E-10  0.1733E-04  0.4152E-07  0.1476E-02  0.6689E-02  0.1981E+02
   -1.237497    6.79693  0.7200E-10  0.1714E-04  0.3919E-07  0.1511E-02  0.6263E-02  0.2425E+02
   -1.306249    6.79750  0.7200E-10  0.1694E-04  0.3716E-07  0.1541E-02  0.5850E-02  0.3265E+02
   -1.375001    6.79804  0.7200E-10  0.1674E-04  0.3537E-07  0.1565E-02  0.5449E-02  0.4892E+02
   -1.443754    6.79855  0.7200E-10  0.1652E-04  0.3378E-07  0.1583E-02  0.5056E-02  0.1063E+03
   -1.512506    6.79904  0.7200E-10  0.1629E-04  0.3235E-07  0.1595E-02  0.4669E-02  0.2034E+04
   -1.581258    6.79951  0.7200E-10  0.1603E-04  0.3105E-07  0.1598E-02  0.4287E-02  0.1663E+05
   -1.650010    6.79997  0.7200E-10  0.1576E-04  0.2985E-07  0.1598E-02  0.3907E-02  0.5386E+04
   -1.718762    6.80041  0.7200E-10  0.1544E-04  0.2872E-07  0.1577E-02  0.3527E-02  0.3622E+04
   -1.787514    6.80083  0.7200E-10  0.1509E-04  0.2762E-07  0.1613E-02  0.3145E-02  0.1836E+02
   -1.856266    6.80125  0.7200E-10  0.1470E-04  0.2659E-07  0.1626E-02  0.2811E-02  0.4131E+01
   -1.925017    6.80165  0.7200E-10  0.1430E-04  0.2566E-07  0.1640E-02  0.2517E-02  0.1933E+01
   -1.993768    6.80204  0.7200E-10  0.1388E-04  0.2485E-07  0.1648E-02  0.2258E-02  0.1205E+01
   -2.062519    6.80242  0.7200E-10  0.1347E-04  0.2422E-07  0.1644E-02  0.2027E-02  0.9311E+00
   -2.131269    6.80280  0.7200E-10  0.1307E-04  0.2380E-07  0.1622E-02  0.1811E-02  0.8259E+00
   -2.200019    6.80317  0.7200E-10  0.1268E-04  0.2361E-07  0.1574E-02  0.1609E-02  0.5872E+00
   -2.268769    6.80354  0.7200E-10  0.1230E-04  0.2369E-07  0.1512E-02  0.1417E-02  0.5485E+00
   -2.337518    6.80393  0.7200E-10  0.1193E-04  0.2415E-07  0.1424E-02  0.1242E-02  0.2805E+00
   -2.406267    6.80433  0.7200E-10  0.1155E-04  0.2512E-07  0.1291E-02  0.1083E-02  0.1926E+00
   -2.475015    6.80476  0.7200E-10  0.1116E-04  0.2697E-07  0.1070E-02  0.9403E-03  0.6819E+00
   -2.543763    6.80528  0.7200E-10  0.1068E-04  0.3077E-07  0.8298E-03  0.8059E-03  0.1080E+04
   -2.612510    6.80594  0.7200E-10  0.9943E-05  0.4083E-07  0.4004E-03  0.6674E-03  0.1052E+03
   -2.681257    6.80722  0.7200E-10  0.6002E-05  0.1456E-06  0.3176E-04  0.5092E-03 -0.2130E+05
   -2.750002    6.82349  0.7200E-10  0.0000E+00  0.0000E+00  0.0000E+00  0.5085E-03  0.0000E+00
