 1 - depth, m
 2 - temperature, C
 3 - salinity, kg/kg
 4 - turbulent kinetic energy, m**2/s**2
 5 - dissipation rate, m**2/s**3
 6 - kinematic heat conductance, m**2/s
 7 - modulus of horizontal velocity, m/s
 8 - Richardson number, n/d
   -0.000000   -0.00000  0.6981E-10  0.1219E-13  0.7603E-17  0.1000E-09  0.0000E+00  0.6298E+16
   -0.068746    0.09570  0.4187E-10  0.1219E-13  0.7603E-17  0.1000E-09  0.0000E+00  0.6078E+16
   -0.137492    0.19051  0.3048E-10  0.1219E-13  0.7603E-17  0.1000E-09  0.0000E+00  0.5887E+16
   -0.206239    0.28481  0.2714E-10  0.1219E-13  0.7603E-17  0.1000E-09  0.0000E+00  0.5719E+16
   -0.274987    0.37892  0.2630E-10  0.1219E-13  0.7603E-17  0.1000E-09  0.0000E+00  0.5572E+16
   -0.343735    0.47320  0.2612E-10  0.1219E-13  0.7603E-17  0.1000E-09  0.0000E+00  0.5444E+16
   -0.412483    0.56797  0.2608E-10  0.1219E-13  0.7603E-17  0.1000E-09  0.0000E+00  0.5330E+16
   -0.481232    0.66353  0.2607E-10  0.1219E-13  0.7603E-17  0.1000E-09  0.0000E+00  0.5229E+16
   -0.549982    0.76019  0.2607E-10  0.1219E-13  0.7603E-17  0.1000E-09  0.0000E+00  0.5138E+16
   -0.618732    0.85823  0.2607E-10  0.1219E-13  0.7603E-17  0.1000E-09  0.0000E+00  0.5054E+16
   -0.687482    0.95794  0.2607E-10  0.1219E-13  0.7603E-17  0.1000E-09  0.0000E+00  0.4986E+16
   -0.756233    1.05980  0.2607E-10  0.1219E-13  0.7603E-17  0.1000E-09  0.0000E+00  0.4924E+16
   -0.824984    1.16419  0.2607E-10  0.1219E-13  0.7603E-17  0.1000E-09  0.0000E+00  0.4858E+16
   -0.893735    1.27131  0.2607E-10  0.1219E-13  0.7603E-17  0.1000E-09  0.0000E+00  0.4785E+16
   -0.962487    1.38131  0.2607E-10  0.1219E-13  0.7603E-17  0.1000E-09  0.0000E+00  0.4702E+16
   -1.031238    1.49434  0.2606E-10  0.1219E-13  0.7603E-17  0.1000E-09  0.0000E+00  0.4605E+16
   -1.099990    1.61047  0.2604E-10  0.1219E-13  0.7603E-17  0.1000E-09  0.0000E+00  0.4493E+16
   -1.168742    1.72976  0.2600E-10  0.1219E-13  0.7603E-17  0.1000E-09  0.0000E+00  0.4363E+16
   -1.237494    1.85222  0.2592E-10  0.1219E-13  0.7603E-17  0.1000E-09  0.0000E+00  0.4213E+16
   -1.306246    1.97782  0.2581E-10  0.1219E-13  0.7603E-17  0.1000E-09  0.0000E+00  0.4042E+16
   -1.374999    2.10646  0.2568E-10  0.3491E-13  0.7603E-17  0.1000E-09  0.0000E+00  0.3855E+16
   -1.443751    2.23825  0.2556E-10  0.1058E-12  0.1707E-16  0.1000E-09  0.0000E+00  0.3646E+16
   -1.512503    2.37307  0.2548E-10  0.2845E-12  0.4277E-16  0.1000E-09  0.0000E+00  0.3413E+16
   -1.581255    2.51072  0.2543E-10  0.7335E-12  0.1064E-15  0.1000E-09  0.0000E+00  0.3157E+16
   -1.650007    2.65096  0.2540E-10  0.1854E-11  0.2608E-15  0.1000E-09  0.0000E+00  0.2880E+16
   -1.718759    2.79347  0.2539E-10  0.4622E-11  0.6313E-15  0.1000E-09  0.0000E+00  0.2582E+16
   -1.787511    2.93798  0.2538E-10  0.1167E-10  0.1548E-14  0.1000E-09  0.0000E+00  0.2286E+16
   -1.856262    3.08538  0.2537E-10  0.2960E-10  0.3815E-14  0.1000E-09  0.0000E+00  0.1970E+16
   -1.925014    3.23568  0.2535E-10  0.7472E-10  0.9360E-14  0.1000E-09  0.0000E+00  0.1636E+16
   -1.993765    3.38894  0.2533E-10  0.1876E-09  0.2286E-13  0.1000E-09  0.0000E+00  0.1279E+16
   -2.062515    3.54478  0.2530E-10  0.4577E-09  0.5426E-13  0.3087E-09  0.0000E+00  0.8940E+15
   -2.131266    3.70087  0.2526E-10  0.1101E-08  0.1271E-12  0.1276E-08  0.0000E+00  0.5065E+15
   -2.200016    3.85580  0.2524E-10  0.2611E-08  0.2936E-12  0.1127E-07  0.0000E+00  0.1321E+15
   -2.268765    4.00003  0.2524E-10  0.3611E-08  0.4095E-12  0.1300E-04  0.0000E+00 -0.3806E+12
   -2.337514    4.00170  0.2524E-10  0.4030E-08  0.4761E-12  0.1356E-04  0.0000E+00 -0.4087E+12
   -2.406263    4.00331  0.2524E-10  0.4345E-08  0.5545E-12  0.1310E-04  0.0000E+00 -0.4703E+12
   -2.475011    4.00499  0.2524E-10  0.4558E-08  0.6615E-12  0.1156E-04  0.0000E+00 -0.5956E+12
   -2.543758    4.00693  0.2524E-10  0.4644E-08  0.8385E-12  0.8825E-05  0.0000E+00 -0.8904E+12
   -2.612505    4.00952  0.2524E-10  0.4498E-08  0.1249E-11  0.4906E-05  0.0000E+00 -0.1959E+13
   -2.681252    4.01439  0.2524E-10  0.3586E-08  0.3316E-11  0.9322E-06  0.0000E+00 -0.1807E+14
   -2.749997    4.04196  0.2524E-10  0.0000E+00  0.0000E+00  0.0000E+00  0.0000E+00  0.0000E+00
