 1 - depth, m
 2 - temperature, C
 3 - salinity, kg/kg
 4 - turbulent kinetic energy, m**2/s**2
 5 - dissipation rate, m**2/s**3
 6 - kinematic heat conductance, m**2/s
 7 - modulus of horizontal velocity, m/s
 8 - Richardson number, n/d
   -0.000000   -0.00000  0.9549E-11  0.1897E-07  0.4946E-10  0.2777E-07  0.9242E-05  0.2612E+16
   -0.068745    0.11973  0.7156E-11  0.1515E-06  0.2927E-10  0.3963E-07  0.7429E-05  0.1113E+16
   -0.137490    0.16988  0.6794E-11  0.4785E-06  0.2346E-10  0.1910E-06  0.5699E-05  0.2125E+15
   -0.206236    0.18053  0.6683E-11  0.4871E-06  0.2388E-10  0.3030E-02  0.4155E-05 -0.3945E+10
   -0.274982    0.18207  0.6662E-11  0.4912E-06  0.2408E-10  0.3047E-02  0.2869E-05 -0.2856E+11
   -0.343729    0.18306  0.6648E-11  0.4952E-06  0.2429E-10  0.3061E-02  0.1871E-05 -0.4516E+11
   -0.412477    0.18390  0.6636E-11  0.4998E-06  0.2454E-10  0.3076E-02  0.1150E-05 -0.5826E+11
   -0.481225    0.18464  0.6625E-11  0.5045E-06  0.2480E-10  0.3100E-02  0.6629E-06 -0.6474E+11
   -0.549973    0.18527  0.6614E-11  0.5089E-06  0.2505E-10  0.3126E-02  0.3523E-06 -0.6999E+11
   -0.618722    0.18571  0.6604E-11  0.5120E-06  0.2524E-10  0.3155E-02  0.1664E-06 -0.6922E+11
   -0.687471    0.18589  0.6597E-11  0.5126E-06  0.2528E-10  0.3180E-02  0.7401E-07 -0.6832E+11
   -0.756221    0.18590  0.6595E-11  0.5126E-06  0.2527E-10  0.3189E-02  0.6221E-07 -0.6264E+11
   -0.824971    0.18589  0.6595E-11  0.5125E-06  0.2526E-10  0.3192E-02  0.6116E-07 -0.5712E+11
   -0.893721    0.18589  0.6595E-11  0.5123E-06  0.2524E-10  0.3196E-02  0.6029E-07 -0.4740E+11
   -0.962471    0.18589  0.6595E-11  0.5120E-06  0.2522E-10  0.3198E-02  0.5957E-07 -0.3782E+11
   -1.031222    0.18588  0.6595E-11  0.5116E-06  0.2519E-10  0.3205E-02  0.5899E-07 -0.2516E+11
   -1.099973    0.18588  0.6595E-11  0.5112E-06  0.2517E-10  0.3231E-02  0.5852E-07 -0.1204E+11
   -1.168723    0.18588  0.6595E-11  0.5108E-06  0.2514E-10  0.3283E-02  0.5821E-07  0.3538E+10
   -1.237474    0.18607  0.6590E-11  0.5030E-06  0.2469E-10  0.1122E-05  0.4245E-07  0.2865E+14
   -1.306226    0.19055  0.6560E-11  0.3767E-06  0.1837E-10  0.6517E-07  0.2085E-07  0.4135E+15
   -1.374977    0.21217  0.6505E-11  0.2146E-06  0.1059E-10  0.1835E-07  0.9558E-08  0.8920E+15
   -1.443728    0.25535  0.6479E-11  0.1168E-06  0.5853E-11  0.6428E-08  0.4292E-08  0.1443E+16
   -1.512479    0.32521  0.6471E-11  0.6235E-07  0.3175E-11  0.2444E-08  0.1909E-08  0.2126E+16
   -1.581230    0.42928  0.6463E-11  0.3287E-07  0.1702E-11  0.9958E-09  0.8392E-09  0.2960E+16
   -1.649981    0.57643  0.6453E-11  0.1721E-07  0.9066E-12  0.4434E-09  0.3526E-09  0.3890E+16
   -1.718732    0.77547  0.6446E-11  0.9053E-08  0.4862E-12  0.2299E-09  0.1101E-09  0.5213E+16
   -1.787482    1.02906  0.6443E-11  0.4787E-08  0.2639E-12  0.1806E-09  0.7153E-11  0.9580E+16
   -1.856233    1.23400  0.6441E-11  0.2474E-08  0.1442E-12  0.1473E-09  0.4293E-12  0.7049E+16
   -1.924983    1.39598  0.6440E-11  0.1216E-08  0.8401E-13  0.1268E-09  0.2360E-13  0.5154E+16
   -1.993733    1.52200  0.6440E-11  0.5490E-09  0.6540E-13  0.1117E-09  0.1410E-14  0.5113E+16
   -2.062482    1.65465  0.6440E-11  0.3410E-09  0.1049E-12  0.1081E-09  0.1083E-15  0.8878E+16
   -2.131231    1.90500  0.6438E-11  0.8447E-09  0.3686E-12  0.1826E-09  0.7801E-17  0.1218E+17
   -2.199980    2.31106  0.6434E-11  0.3864E-08  0.1692E-11  0.7097E-09  0.5240E-18  0.1305E+17
   -2.268729    2.91401  0.6427E-11  0.1851E-07  0.7919E-11  0.7627E-08  0.2434E-19  0.8303E+16
   -2.337477    3.71599  0.6410E-11  0.4066E-07  0.1869E-10  0.1924E-04  0.9136E-21  0.1324E+16
   -2.406224    4.11446  0.6400E-11  0.5219E-07  0.2501E-10  0.4527E-04  0.3725E-22 -0.6649E+13
   -2.474971    4.11784  0.6400E-11  0.5647E-07  0.2908E-10  0.4311E-04  0.1165E-22 -0.7452E+13
   -2.543718    4.12153  0.6400E-11  0.5875E-07  0.3500E-10  0.3616E-04  0.3338E-23 -0.9657E+13
   -2.612463    4.12617  0.6400E-11  0.5822E-07  0.4754E-10  0.2324E-04  0.7540E-24 -0.1718E+14
   -2.681209    4.13408  0.6400E-11  0.4560E-07  0.1243E-09  0.4014E-05  0.9856E-25 -0.1522E+15
   -2.749953    4.19055  0.6400E-11  0.0000E+00  0.0000E+00  0.0000E+00  0.9980E-25  0.0000E+00
