 1 - depth, m
 2 - temperature, C
 3 - salinity, kg/kg
 4 - turbulent kinetic energy, m**2/s**2
 5 - dissipation rate, m**2/s**3
 6 - kinematic heat conductance, m**2/s
 7 - modulus of horizontal velocity, m/s
 8 - Richardson number, n/d
   -0.000000    0.00000  0.0000E+00  0.1219E-13  0.7603E-17  0.1000E-09  0.0000E+00  0.5369E+16
   -0.068746    0.08144  0.1150E-12  0.1219E-13  0.7603E-17  0.1000E-09  0.0000E+00  0.5494E+16
   -0.137493    0.16669  0.5545E-12  0.1219E-13  0.7603E-17  0.1000E-09  0.0000E+00  0.5617E+16
   -0.206241    0.25599  0.1079E-11  0.1219E-13  0.7603E-17  0.1000E-09  0.0000E+00  0.5728E+16
   -0.274989    0.34946  0.1464E-11  0.1219E-13  0.7603E-17  0.1000E-09  0.0000E+00  0.5812E+16
   -0.343738    0.44698  0.1642E-11  0.1219E-13  0.7603E-17  0.1000E-09  0.0000E+00  0.5856E+16
   -0.412487    0.54822  0.1659E-11  0.1219E-13  0.7603E-17  0.1000E-09  0.0000E+00  0.5856E+16
   -0.481237    0.65271  0.1591E-11  0.1219E-13  0.7603E-17  0.1000E-09  0.0000E+00  0.5811E+16
   -0.549987    0.75994  0.1501E-11  0.1219E-13  0.7603E-17  0.1000E-09  0.0000E+00  0.5727E+16
   -0.618737    0.86943  0.1421E-11  0.1219E-13  0.7603E-17  0.1000E-09  0.0000E+00  0.5611E+16
   -0.687488    0.98077  0.1365E-11  0.1219E-13  0.7603E-17  0.1000E-09  0.0000E+00  0.5466E+16
   -0.756240    1.09355  0.1329E-11  0.1219E-13  0.7603E-17  0.1000E-09  0.0000E+00  0.5299E+16
   -0.824991    1.20749  0.1309E-11  0.1219E-13  0.7603E-17  0.1000E-09  0.0000E+00  0.5117E+16
   -0.893743    1.32236  0.1299E-11  0.1219E-13  0.7603E-17  0.1000E-09  0.0000E+00  0.4924E+16
   -0.962495    1.43801  0.1294E-11  0.1219E-13  0.7603E-17  0.1000E-09  0.0000E+00  0.4723E+16
   -1.031248    1.55432  0.1291E-11  0.1219E-13  0.7603E-17  0.1000E-09  0.0000E+00  0.4515E+16
   -1.100000    1.67119  0.1289E-11  0.1219E-13  0.7603E-17  0.1000E-09  0.0000E+00  0.4302E+16
   -1.168753    1.78855  0.1288E-11  0.1219E-13  0.7603E-17  0.1000E-09  0.0000E+00  0.4085E+16
   -1.237506    1.90637  0.1286E-11  0.1219E-13  0.7603E-17  0.1000E-09  0.0000E+00  0.3867E+16
   -1.306258    2.02463  0.1284E-11  0.1219E-13  0.7603E-17  0.1000E-09  0.0000E+00  0.3648E+16
   -1.375011    2.14338  0.1281E-11  0.1219E-13  0.7603E-17  0.1000E-09  0.0000E+00  0.3431E+16
   -1.443764    2.26273  0.1278E-11  0.1219E-13  0.7603E-17  0.1000E-09  0.0000E+00  0.3214E+16
   -1.512517    2.38283  0.1274E-11  0.1219E-13  0.7603E-17  0.1000E-09  0.0000E+00  0.2998E+16
   -1.581270    2.50385  0.1270E-11  0.1219E-13  0.7603E-17  0.1000E-09  0.0000E+00  0.2781E+16
   -1.650022    2.62597  0.1267E-11  0.1219E-13  0.7603E-17  0.1000E-09  0.0000E+00  0.2562E+16
   -1.718775    2.74934  0.1264E-11  0.1219E-13  0.7603E-17  0.1000E-09  0.0000E+00  0.2336E+16
   -1.787527    2.87393  0.1261E-11  0.2961E-13  0.8394E-17  0.1000E-09  0.0000E+00  0.2039E+16
   -1.856279    2.99566  0.1259E-11  0.1044E-12  0.2404E-16  0.1000E-09  0.0000E+00  0.1748E+16
   -1.925031    3.11368  0.1258E-11  0.3474E-12  0.7575E-16  0.1000E-09  0.0000E+00  0.1466E+16
   -1.993783    3.22693  0.1256E-11  0.1127E-11  0.2370E-15  0.1000E-09  0.0000E+00  0.1213E+16
   -2.062534    3.33555  0.1255E-11  0.3516E-11  0.7146E-15  0.1000E-09  0.0000E+00  0.1028E+16
   -2.131285    3.44458  0.1254E-11  0.1077E-10  0.2118E-14  0.1000E-09  0.0000E+00  0.8474E+15
   -2.200035    3.55489  0.1253E-11  0.3256E-10  0.6195E-14  0.1000E-09  0.0000E+00  0.6625E+15
   -2.268786    3.66688  0.1253E-11  0.9805E-10  0.1806E-13  0.1953E-09  0.0000E+00  0.4691E+15
   -2.337535    3.78041  0.1253E-11  0.2972E-09  0.5302E-13  0.1005E-08  0.0000E+00  0.2673E+15
   -2.406285    3.89495  0.1252E-11  0.8951E-09  0.1549E-12  0.1225E-07  0.0000E+00  0.6338E+14
   -2.475033    4.00258  0.1252E-11  0.1898E-08  0.3297E-12  0.4865E-05  0.0000E+00 -0.9231E+12
   -2.543781    4.00588  0.1252E-11  0.2234E-08  0.4381E-12  0.4581E-05  0.0000E+00 -0.1132E+13
   -2.612529    4.00928  0.1252E-11  0.2280E-08  0.6102E-12  0.2949E-05  0.0000E+00 -0.1966E+13
   -2.681276    4.01421  0.1252E-11  0.1687E-08  0.1298E-11  0.4971E-06  0.0000E+00 -0.1177E+14
   -2.750022    4.03409  0.1252E-11  0.0000E+00  0.0000E+00  0.0000E+00  0.0000E+00  0.0000E+00
