 1 - depth, m
 2 - temperature, C
 3 - salinity, kg/kg
 4 - turbulent kinetic energy, m**2/s**2
 5 - dissipation rate, m**2/s**3
 6 - kinematic heat conductance, m**2/s
 7 - modulus of horizontal velocity, m/s
 8 - Richardson number, n/d
   -0.000000   -0.00000  0.5276E-15  0.1218E-13  0.7602E-17  0.1000E-09  0.0000E+00  0.5998E+16
   -0.068749    0.09150  0.1077E-17  0.1218E-13  0.7602E-17  0.1000E-09  0.0000E+00  0.4039E+16
   -0.137499    0.15428  0.1256E-13  0.1218E-13  0.7602E-17  0.1000E-09  0.0000E+00  0.3678E+16
   -0.206250    0.21222  0.3294E-13  0.1218E-13  0.7602E-17  0.1000E-09  0.0000E+00  0.3750E+16
   -0.275001    0.27225  0.7288E-12  0.1218E-13  0.7602E-17  0.1000E-09  0.0000E+00  0.3924E+16
   -0.343753    0.33622  0.2844E-11  0.1218E-13  0.7602E-17  0.1000E-09  0.0000E+00  0.4110E+16
   -0.412506    0.40454  0.5621E-11  0.1218E-13  0.7602E-17  0.1000E-09  0.0000E+00  0.4280E+16
   -0.481258    0.47722  0.8139E-11  0.1218E-13  0.7602E-17  0.1000E-09  0.0000E+00  0.4425E+16
   -0.550012    0.55411  0.9824E-11  0.1218E-13  0.7602E-17  0.1000E-09  0.0000E+00  0.4544E+16
   -0.618765    0.63502  0.1058E-10  0.1218E-13  0.7602E-17  0.1000E-09  0.0000E+00  0.4639E+16
   -0.687519    0.71982  0.1064E-10  0.1218E-13  0.7602E-17  0.1000E-09  0.0000E+00  0.4694E+16
   -0.756274    0.80806  0.1031E-10  0.1218E-13  0.7602E-17  0.1000E-09  0.0000E+00  0.4716E+16
   -0.825029    0.89939  0.9870E-11  0.1218E-13  0.7602E-17  0.1000E-09  0.0000E+00  0.4714E+16
   -0.893784    0.99363  0.9462E-11  0.1218E-13  0.7602E-17  0.1000E-09  0.0000E+00  0.4690E+16
   -0.962539    1.09059  0.9153E-11  0.1218E-13  0.7602E-17  0.1000E-09  0.0000E+00  0.4646E+16
   -1.031294    1.19012  0.8945E-11  0.1218E-13  0.7602E-17  0.1000E-09  0.0000E+00  0.4582E+16
   -1.100050    1.29206  0.8819E-11  0.1218E-13  0.7602E-17  0.1000E-09  0.0000E+00  0.4501E+16
   -1.168805    1.39629  0.8747E-11  0.1218E-13  0.7602E-17  0.1000E-09  0.0000E+00  0.4405E+16
   -1.237561    1.50271  0.8707E-11  0.1218E-13  0.7602E-17  0.1000E-09  0.0000E+00  0.4294E+16
   -1.306317    1.61122  0.8685E-11  0.1218E-13  0.7602E-17  0.1000E-09  0.0000E+00  0.4169E+16
   -1.375073    1.72175  0.8670E-11  0.1218E-13  0.7602E-17  0.1000E-09  0.0000E+00  0.4044E+16
   -1.443829    1.83460  0.8656E-11  0.1218E-13  0.7602E-17  0.1000E-09  0.0000E+00  0.3917E+16
   -1.512585    1.95009  0.8642E-11  0.1218E-13  0.7602E-17  0.1000E-09  0.0000E+00  0.3800E+16
   -1.581341    2.06897  0.8624E-11  0.1218E-13  0.7611E-17  0.1000E-09  0.0000E+00  0.3733E+16
   -1.650097    2.19365  0.8604E-11  0.1437E-13  0.9334E-17  0.1000E-09  0.0000E+00  0.3849E+16
   -1.718852    2.33229  0.8581E-11  0.3527E-13  0.2421E-16  0.1000E-09  0.0000E+00  0.4405E+16
   -1.787608    2.50796  0.8558E-11  0.2010E-12  0.1361E-15  0.1000E-09  0.0000E+00  0.3382E+16
   -1.856363    2.65927  0.8535E-11  0.1462E-11  0.9506E-15  0.1000E-09  0.0000E+00  0.2758E+16
   -1.925118    2.79700  0.8514E-11  0.1124E-10  0.7022E-14  0.1106E-09  0.0000E+00  0.2115E+16
   -1.993873    2.91398  0.8495E-11  0.9166E-10  0.5552E-13  0.4096E-09  0.0000E+00  0.1599E+16
   -2.062627    3.01103  0.8479E-11  0.7342E-09  0.4377E-12  0.1428E-08  0.0000E+00  0.1657E+16
   -2.131381    3.12475  0.8466E-11  0.5049E-08  0.2976E-11  0.5550E-08  0.0000E+00  0.1693E+16
   -2.200135    3.26961  0.8454E-11  0.1551E-07  0.8831E-11  0.1347E-05  0.0000E+00  0.1533E+16
   -2.268888    3.46225  0.8444E-11  0.2384E-07  0.1383E-10  0.1094E-04  0.0000E+00  0.1103E+16
   -2.337641    3.62261  0.8437E-11  0.3016E-07  0.1813E-10  0.1690E-04  0.0000E+00  0.7860E+15
   -2.406393    3.76314  0.8433E-11  0.3535E-07  0.2228E-10  0.2022E-04  0.0000E+00  0.5213E+15
   -2.475145    3.90999  0.8429E-11  0.4013E-07  0.2709E-10  0.2194E-04  0.0000E+00  0.1897E+15
   -2.543896    4.04542  0.8427E-11  0.4437E-07  0.3377E-10  0.2283E-04  0.0000E+00 -0.6860E+13
   -2.612647    4.07157  0.8426E-11  0.4546E-07  0.4607E-10  0.1634E-04  0.0000E+00 -0.1619E+14
   -2.681397    4.08336  0.8426E-11  0.3547E-07  0.1227E-09  0.2946E-05  0.0000E+00 -0.1184E+15
   -2.750146    4.13446  0.8426E-11  0.0000E+00  0.0000E+00  0.0000E+00  0.0000E+00  0.0000E+00
