 1 - depth, m
 2 - temperature, C
 3 - salinity, kg/kg
 4 - turbulent kinetic energy, m**2/s**2
 5 - dissipation rate, m**2/s**3
 6 - kinematic heat conductance, m**2/s
 7 - modulus of horizontal velocity, m/s
 8 - Richardson number, n/d
   -0.000000    0.08606  0.1928E-10  0.1375E-04  0.6283E-06  0.2936E-04  0.3945E-01  0.3379E-01
   -0.068746    0.13827  0.1928E-10  0.1223E-04  0.2319E-06  0.5966E-04  0.3035E-01  0.3174E-01
   -0.137492    0.15455  0.1928E-10  0.1113E-04  0.1359E-06  0.7959E-04  0.2651E-01  0.5605E-01
   -0.206239    0.16533  0.1928E-10  0.1015E-04  0.9353E-07  0.9160E-04  0.2392E-01  0.7631E-01
   -0.274987    0.17420  0.1928E-10  0.9247E-05  0.6964E-07  0.9768E-04  0.2192E-01  0.9707E-01
   -0.343735    0.18208  0.1928E-10  0.8402E-05  0.5427E-07  0.9918E-04  0.2027E-01  0.1186E+00
   -0.412484    0.18943  0.1928E-10  0.7605E-05  0.4351E-07  0.9715E-04  0.1883E-01  0.1411E+00
   -0.481233    0.19652  0.1928E-10  0.6850E-05  0.3554E-07  0.9246E-04  0.1754E-01  0.1649E+00
   -0.549983    0.20354  0.1928E-10  0.6132E-05  0.2938E-07  0.8578E-04  0.1636E-01  0.1905E+00
   -0.618733    0.21067  0.1928E-10  0.5450E-05  0.2447E-07  0.7770E-04  0.1525E-01  0.2183E+00
   -0.687484    0.21805  0.1928E-10  0.4801E-05  0.2046E-07  0.6871E-04  0.1420E-01  0.2488E+00
   -0.756234    0.22586  0.1928E-10  0.4185E-05  0.1711E-07  0.5925E-04  0.1318E-01  0.2828E+00
   -0.824985    0.23433  0.1928E-10  0.3601E-05  0.1429E-07  0.4973E-04  0.1219E-01  0.3213E+00
   -0.893737    0.24377  0.1928E-10  0.3050E-05  0.1186E-07  0.4053E-04  0.1119E-01  0.3655E+00
   -0.962489    0.25473  0.1928E-10  0.2533E-05  0.9752E-08  0.3204E-04  0.1018E-01  0.4169E+00
   -1.031240    0.26824  0.1928E-10  0.2052E-05  0.7899E-08  0.2469E-04  0.9111E-02  0.4768E+00
   -1.099992    0.28711  0.1928E-10  0.1605E-05  0.6196E-08  0.1890E-04  0.7922E-02  0.5570E+00
   -1.168745    0.32657  0.1928E-10  0.1231E-05  0.4604E-08  0.1539E-04  0.6398E-02  0.9977E+00
   -1.237497    0.43274  0.1929E-10  0.1020E-05  0.3653E-08  0.1335E-04  0.4643E-02  0.2494E+01
   -1.306249    0.51991  0.1929E-10  0.8818E-06  0.3071E-08  0.1177E-04  0.3467E-02  0.7995E+01
   -1.375001    0.57648  0.1929E-10  0.7728E-06  0.2630E-08  0.1054E-04  0.2694E-02  0.3309E+02
   -1.443754    0.62207  0.1929E-10  0.6870E-06  0.2293E-08  0.9610E-05  0.2121E-02  0.1587E+03
   -1.512506    0.66405  0.1929E-10  0.6210E-06  0.2046E-08  0.8927E-05  0.1659E-02  0.8967E+03
   -1.581258    0.70670  0.1929E-10  0.5705E-06  0.1872E-08  0.8394E-05  0.1270E-02  0.6576E+04
   -1.650011    0.75968  0.1929E-10  0.5291E-06  0.1753E-08  0.7756E-05  0.9300E-03  0.5135E+05
   -1.718763    0.84665  0.1929E-10  0.4761E-06  0.1611E-08  0.5168E-05  0.6078E-03  0.4935E+06
   -1.787514    1.00799  0.1929E-10  0.3360E-06  0.1047E-08  0.5552E-05  0.2710E-03  0.6794E+08
   -1.856266    1.10888  0.1929E-10  0.2317E-06  0.6680E-09  0.4066E-05  0.1517E-03  0.9182E+10
   -1.925017    1.16880  0.1929E-10  0.1527E-06  0.4071E-09  0.2786E-05  0.8535E-04  0.1455E+12
   -1.993769    1.17789  0.1929E-10  0.9657E-07  0.2384E-09  0.1829E-05  0.4899E-04 -0.7269E+15
   -2.062519    1.13450  0.1929E-10  0.5650E-07  0.1313E-09  0.8479E-06  0.2953E-04  0.6862E+15
   -2.131270    1.16091  0.1929E-10  0.2776E-07  0.6185E-10  0.2750E-06  0.1539E-04  0.3821E+16
   -2.200020    1.26207  0.1929E-10  0.8411E-08  0.1894E-10  0.2634E-07  0.6055E-05  0.7687E+16
   -2.268770    1.47271  0.1929E-10  0.1004E-08  0.3118E-11  0.1067E-08  0.6824E-06  0.9708E+16
   -2.337519    1.77631  0.1929E-10  0.7949E-10  0.1128E-11  0.1615E-09  0.2976E-07  0.1053E+17
   -2.406268    2.15814  0.1929E-10  0.4927E-11  0.1000E-11  0.1009E-09  0.1039E-08  0.1017E+17
   -2.475016    2.61983  0.1929E-10  0.4419E-11  0.1000E-11  0.1000E-09  0.2983E-10  0.8293E+16
   -2.543764    3.17091  0.1929E-10  0.4419E-11  0.1000E-11  0.1000E-09  0.7090E-12  0.4654E+16
   -2.612511    3.86834  0.1929E-10  0.4419E-11  0.1000E-11  0.1000E-09  0.1237E-13 -0.4945E+16
   -2.681257    4.72826  0.1929E-10  0.4419E-11  0.1000E-11  0.1000E-09  0.1388E-15 -0.3269E+16
   -2.750003    4.97566  0.1929E-10  0.0000E+00  0.0000E+00  0.0000E+00  0.2187E-15  0.0000E+00
