 1 - depth, m
 2 - temperature, C
 3 - salinity, kg/kg
 4 - turbulent kinetic energy, m**2/s**2
 5 - dissipation rate, m**2/s**3
 6 - kinematic heat conductance, m**2/s
 7 - modulus of horizontal velocity, m/s
 8 - Richardson number, n/d
   -0.000000    8.88349  0.1650E-11  0.3429E-04  0.4541E-05  0.4252E-04  0.4859E-01 -0.7532E-02
   -0.068746    8.91339  0.1650E-11  0.2539E-04  0.1081E-05  0.9152E-04  0.2787E-01 -0.1781E-01
   -0.137492    8.92245  0.1650E-11  0.2293E-04  0.4892E-06  0.1434E-03  0.2247E-01 -0.2886E-01
   -0.206239    8.92806  0.1650E-11  0.2155E-04  0.2860E-06  0.1991E-03  0.1919E-01 -0.4076E-01
   -0.274987    8.93200  0.1650E-11  0.2062E-04  0.1948E-06  0.2575E-03  0.1688E-01 -0.5343E-01
   -0.343735    8.93498  0.1650E-11  0.1992E-04  0.1455E-06  0.3179E-03  0.1512E-01 -0.6679E-01
   -0.412484    8.93732  0.1650E-11  0.1936E-04  0.1153E-06  0.3800E-03  0.1373E-01 -0.8077E-01
   -0.481233    8.93923  0.1650E-11  0.1889E-04  0.9501E-07  0.4434E-03  0.1259E-01 -0.9525E-01
   -0.549983    8.94082  0.1650E-11  0.1848E-04  0.8058E-07  0.5085E-03  0.1163E-01 -0.1077E+00
   -0.618733    8.94218  0.1650E-11  0.1813E-04  0.6987E-07  0.5866E-03  0.1081E-01 -0.8233E-01
   -0.687483    8.94333  0.1650E-11  0.1783E-04  0.6170E-07  0.7599E-03  0.1009E-01  0.2996E+01
   -0.756234    8.94423  0.1650E-11  0.1757E-04  0.5538E-07  0.1150E-02  0.9465E-02  0.2858E+02
   -0.824985    8.94489  0.1650E-11  0.1735E-04  0.5036E-07  0.1318E-02  0.8914E-02  0.5510E+02
   -0.893737    8.94544  0.1650E-11  0.1716E-04  0.4623E-07  0.1465E-02  0.8394E-02  0.2940E+02
   -0.962488    8.94591  0.1650E-11  0.1699E-04  0.4278E-07  0.1558E-02  0.7907E-02  0.3329E+02
   -1.031240    8.94633  0.1650E-11  0.1683E-04  0.3986E-07  0.1669E-02  0.7441E-02  0.2286E+02
   -1.099992    8.94671  0.1650E-11  0.1667E-04  0.3737E-07  0.1748E-02  0.6997E-02  0.2677E+02
   -1.168744    8.94706  0.1650E-11  0.1652E-04  0.3521E-07  0.1835E-02  0.6567E-02  0.3418E+02
   -1.237496    8.94738  0.1650E-11  0.1637E-04  0.3334E-07  0.1915E-02  0.6149E-02  0.6006E+02
   -1.306249    8.94768  0.1650E-11  0.1621E-04  0.3169E-07  0.1963E-02  0.5742E-02  0.9245E+02
   -1.375001    8.94797  0.1650E-11  0.1604E-04  0.3023E-07  0.2014E-02  0.5342E-02  0.1237E+03
   -1.443753    8.94824  0.1650E-11  0.1585E-04  0.2892E-07  0.2041E-02  0.4948E-02  0.6286E+03
   -1.512506    8.94850  0.1650E-11  0.1565E-04  0.2774E-07  0.2059E-02  0.4558E-02  0.1173E+05
   -1.581258    8.94876  0.1650E-11  0.1542E-04  0.2667E-07  0.2056E-02  0.4172E-02  0.2472E+05
   -1.650010    8.94901  0.1650E-11  0.1516E-04  0.2568E-07  0.2056E-02  0.3786E-02  0.4677E+05
   -1.718762    8.94926  0.1650E-11  0.1487E-04  0.2475E-07  0.2025E-02  0.3401E-02  0.1749E+05
   -1.787514    8.94951  0.1650E-11  0.1452E-04  0.2384E-07  0.2044E-02  0.3012E-02  0.4222E+02
   -1.856265    8.94975  0.1650E-11  0.1414E-04  0.2296E-07  0.2035E-02  0.2668E-02  0.8252E+01
   -1.925017    8.95000  0.1650E-11  0.1372E-04  0.2216E-07  0.2026E-02  0.2361E-02  0.3561E+01
   -1.993768    8.95024  0.1650E-11  0.1328E-04  0.2147E-07  0.2013E-02  0.2089E-02  0.2184E+01
   -2.062519    8.95048  0.1650E-11  0.1284E-04  0.2095E-07  0.1991E-02  0.1847E-02  0.1689E+01
   -2.131269    8.95072  0.1650E-11  0.1241E-04  0.2065E-07  0.1963E-02  0.1622E-02  0.1337E+01
   -2.200019    8.95097  0.1650E-11  0.1199E-04  0.2058E-07  0.1939E-02  0.1413E-02  0.1073E+01
   -2.268769    8.95121  0.1650E-11  0.1160E-04  0.2081E-07  0.1932E-02  0.1220E-02  0.8012E+00
   -2.337518    8.95145  0.1650E-11  0.1121E-04  0.2141E-07  0.1836E-02  0.1047E-02  0.6073E+00
   -2.406267    8.95170  0.1650E-11  0.1085E-04  0.2247E-07  0.1592E-02  0.8979E-03  0.5436E+02
   -2.475015    8.95199  0.1650E-11  0.1051E-04  0.2420E-07  0.1309E-02  0.7724E-03  0.2078E+03
   -2.543763    8.95235  0.1650E-11  0.1013E-04  0.2734E-07  0.1079E-02  0.6672E-03  0.2258E+02
   -2.612510    8.95278  0.1650E-11  0.9525E-05  0.3582E-07  0.4847E-03  0.5644E-03  0.2255E+03
   -2.681256    8.95371  0.1650E-11  0.5832E-05  0.1330E-06  0.3232E-04  0.4332E-03 -0.7140E+04
   -2.750002    8.96717  0.1650E-11  0.0000E+00  0.0000E+00  0.0000E+00  0.4324E-03  0.0000E+00
