 1 - depth, m
 2 - temperature, C
 3 - salinity, kg/kg
 4 - turbulent kinetic energy, m**2/s**2
 5 - dissipation rate, m**2/s**3
 6 - kinematic heat conductance, m**2/s
 7 - modulus of horizontal velocity, m/s
 8 - Richardson number, n/d
   -0.000000    0.07761  0.1634E-11  0.1377E-04  0.6292E-06  0.2939E-04  0.3935E-01  0.3380E-01
   -0.068746    0.12971  0.1634E-11  0.1223E-04  0.2318E-06  0.5982E-04  0.3025E-01  0.3109E-01
   -0.137492    0.14575  0.1634E-11  0.1113E-04  0.1358E-06  0.7995E-04  0.2642E-01  0.5520E-01
   -0.206239    0.15632  0.1634E-11  0.1016E-04  0.9345E-07  0.9215E-04  0.2383E-01  0.7514E-01
   -0.274987    0.16500  0.1634E-11  0.9263E-05  0.6960E-07  0.9842E-04  0.2185E-01  0.9558E-01
   -0.343735    0.17270  0.1634E-11  0.8422E-05  0.5425E-07  0.1001E-03  0.2020E-01  0.1167E+00
   -0.412484    0.17986  0.1634E-11  0.7627E-05  0.4350E-07  0.9823E-04  0.1877E-01  0.1389E+00
   -0.481233    0.18676  0.1634E-11  0.6874E-05  0.3553E-07  0.9366E-04  0.1749E-01  0.1624E+00
   -0.549983    0.19358  0.1634E-11  0.6159E-05  0.2937E-07  0.8707E-04  0.1631E-01  0.1875E+00
   -0.618733    0.20049  0.1634E-11  0.5478E-05  0.2447E-07  0.7904E-04  0.1521E-01  0.2148E+00
   -0.687484    0.20763  0.1634E-11  0.4831E-05  0.2046E-07  0.7006E-04  0.1417E-01  0.2448E+00
   -0.756234    0.21516  0.1634E-11  0.4215E-05  0.1713E-07  0.6057E-04  0.1316E-01  0.2782E+00
   -0.824985    0.22329  0.1634E-11  0.3632E-05  0.1430E-07  0.5096E-04  0.1218E-01  0.3160E+00
   -0.893737    0.23231  0.1634E-11  0.3082E-05  0.1188E-07  0.4162E-04  0.1120E-01  0.3595E+00
   -0.962489    0.24268  0.1634E-11  0.2565E-05  0.9783E-08  0.3293E-04  0.1021E-01  0.4105E+00
   -1.031240    0.25528  0.1634E-11  0.2083E-05  0.7940E-08  0.2529E-04  0.9174E-02  0.4711E+00
   -1.099992    0.27222  0.1634E-11  0.1637E-05  0.6275E-08  0.1912E-04  0.8038E-02  0.5439E+00
   -1.168745    0.30247  0.1635E-11  0.1236E-05  0.4654E-08  0.1518E-04  0.6645E-02  0.8437E+00
   -1.237497    0.39767  0.1635E-11  0.1001E-05  0.3593E-08  0.1307E-04  0.4837E-02  0.2056E+01
   -1.306249    0.49470  0.1635E-11  0.8609E-06  0.2998E-08  0.1148E-04  0.3545E-02  0.6178E+01
   -1.375001    0.55606  0.1635E-11  0.7518E-06  0.2556E-08  0.1024E-04  0.2719E-02  0.2434E+02
   -1.443754    0.60334  0.1635E-11  0.6663E-06  0.2221E-08  0.9309E-05  0.2125E-02  0.1142E+03
   -1.512506    0.64608  0.1635E-11  0.6007E-06  0.1976E-08  0.8620E-05  0.1655E-02  0.6390E+03
   -1.581258    0.68944  0.1635E-11  0.5507E-06  0.1806E-08  0.8084E-05  0.1263E-02  0.4667E+04
   -1.650011    0.74361  0.1635E-11  0.5102E-06  0.1689E-08  0.7455E-05  0.9221E-03  0.3648E+05
   -1.718763    0.83302  0.1635E-11  0.4589E-06  0.1554E-08  0.4926E-05  0.5997E-03  0.3525E+06
   -1.787514    0.99922  0.1635E-11  0.3218E-06  0.1001E-08  0.5291E-05  0.2639E-03  0.4822E+08
   -1.856266    1.10308  0.1635E-11  0.2206E-06  0.6335E-09  0.3851E-05  0.1463E-03  0.6512E+10
   -1.925017    1.16462  0.1635E-11  0.1447E-06  0.3835E-09  0.2634E-05  0.8144E-04  0.1106E+12
   -1.993769    1.17384  0.1635E-11  0.9157E-07  0.2243E-09  0.1748E-05  0.4632E-04 -0.4834E+15
   -2.062519    1.13063  0.1635E-11  0.5401E-07  0.1246E-09  0.8139E-06  0.2791E-04  0.9672E+15
   -2.131270    1.16372  0.1635E-11  0.2725E-07  0.6048E-10  0.2713E-06  0.1466E-04  0.4819E+16
   -2.200020    1.29104  0.1635E-11  0.9139E-08  0.1993E-10  0.2326E-07  0.6039E-05  0.1024E+17
   -2.268770    1.58289  0.1635E-11  0.4291E-08  0.5228E-11  0.1714E-08  0.7221E-06  0.1452E+17
   -2.337519    2.11008  0.1635E-11  0.2279E-07  0.1655E-10  0.9090E-08  0.3305E-07  0.1415E+17
   -2.406268    2.98104  0.1635E-11  0.5221E-07  0.4252E-10  0.1822E-04  0.1178E-08  0.8804E+16
   -2.475016    3.70379  0.1635E-11  0.8354E-07  0.7708E-10  0.3382E-04  0.3430E-10  0.2608E+16
   -2.543764    4.20643  0.1635E-11  0.1099E-06  0.1157E-09  0.4245E-04  0.7744E-12 -0.3101E+14
   -2.612511    4.21842  0.1635E-11  0.1147E-06  0.1544E-09  0.3053E-04  0.6423E-13 -0.4793E+14
   -2.681257    4.23235  0.1635E-11  0.8995E-07  0.3598E-09  0.5529E-05  0.5727E-14 -0.3239E+15
   -2.750003    4.30846  0.1635E-11  0.0000E+00  0.0000E+00  0.0000E+00  0.6174E-14  0.0000E+00
