 1 - depth, m
 2 - temperature, C
 3 - salinity, kg/kg
 4 - turbulent kinetic energy, m**2/s**2
 5 - dissipation rate, m**2/s**3
 6 - kinematic heat conductance, m**2/s
 7 - modulus of horizontal velocity, m/s
 8 - Richardson number, n/d
   -0.000000   -0.00000  0.9829E-11  0.1219E-13  0.7603E-17  0.1000E-09  0.0000E+00  0.4642E+16
   -0.068746    0.07030  0.5215E-11  0.1219E-13  0.7603E-17  0.1000E-09  0.0000E+00  0.4445E+16
   -0.137492    0.13891  0.4112E-11  0.1219E-13  0.7603E-17  0.1000E-09  0.0000E+00  0.4291E+16
   -0.206239    0.20640  0.3867E-11  0.1219E-13  0.7603E-17  0.1000E-09  0.0000E+00  0.4178E+16
   -0.274986    0.27336  0.3818E-11  0.1219E-13  0.7603E-17  0.1000E-09  0.0000E+00  0.4102E+16
   -0.343734    0.34038  0.3809E-11  0.1219E-13  0.7603E-17  0.1000E-09  0.0000E+00  0.4062E+16
   -0.412483    0.40806  0.3808E-11  0.1219E-13  0.7603E-17  0.1000E-09  0.0000E+00  0.4055E+16
   -0.481232    0.47700  0.3808E-11  0.1219E-13  0.7603E-17  0.1000E-09  0.0000E+00  0.4079E+16
   -0.549982    0.54783  0.3808E-11  0.1219E-13  0.7603E-17  0.1000E-09  0.0000E+00  0.4130E+16
   -0.618732    0.62115  0.3808E-11  0.1219E-13  0.7603E-17  0.1000E-09  0.0000E+00  0.4205E+16
   -0.687482    0.69759  0.3808E-11  0.1219E-13  0.7603E-17  0.1000E-09  0.0000E+00  0.4316E+16
   -0.756232    0.77806  0.3808E-11  0.1219E-13  0.7603E-17  0.1000E-09  0.0000E+00  0.4451E+16
   -0.824983    0.86332  0.3808E-11  0.1219E-13  0.7603E-17  0.1000E-09  0.0000E+00  0.4594E+16
   -0.893735    0.95397  0.3808E-11  0.1219E-13  0.7603E-17  0.1000E-09  0.0000E+00  0.4740E+16
   -0.962486    1.05058  0.3808E-11  0.1219E-13  0.7603E-17  0.1000E-09  0.0000E+00  0.4881E+16
   -1.031238    1.15368  0.3807E-11  0.1219E-13  0.7603E-17  0.1000E-09  0.0000E+00  0.5010E+16
   -1.099990    1.26376  0.3806E-11  0.1219E-13  0.7603E-17  0.1000E-09  0.0000E+00  0.5118E+16
   -1.168742    1.38126  0.3803E-11  0.1219E-13  0.7603E-17  0.1000E-09  0.0000E+00  0.5198E+16
   -1.237494    1.50653  0.3794E-11  0.1219E-13  0.7603E-17  0.1000E-09  0.0000E+00  0.5241E+16
   -1.306246    1.63988  0.3778E-11  0.5752E-13  0.1287E-16  0.1000E-09  0.0000E+00  0.5237E+16
   -1.374998    1.78150  0.3755E-11  0.1844E-12  0.3519E-16  0.1000E-09  0.0000E+00  0.5195E+16
   -1.443750    1.93199  0.3734E-11  0.5344E-12  0.9722E-16  0.1000E-09  0.0000E+00  0.5093E+16
   -1.512502    2.09150  0.3721E-11  0.1501E-11  0.2638E-15  0.1000E-09  0.0000E+00  0.4917E+16
   -1.581255    2.25990  0.3714E-11  0.4138E-11  0.7045E-15  0.1000E-09  0.0000E+00  0.4664E+16
   -1.650006    2.43697  0.3710E-11  0.1124E-10  0.1854E-14  0.1000E-09  0.0000E+00  0.4329E+16
   -1.718758    2.62233  0.3707E-11  0.3008E-10  0.4809E-14  0.1000E-09  0.0000E+00  0.3914E+16
   -1.787510    2.81553  0.3706E-11  0.8153E-10  0.1263E-13  0.1000E-09  0.0000E+00  0.3427E+16
   -1.856261    3.01649  0.3705E-11  0.2215E-09  0.3327E-13  0.1000E-09  0.0000E+00  0.2873E+16
   -1.925013    3.22553  0.3704E-11  0.5974E-09  0.8708E-13  0.1972E-09  0.0000E+00  0.2247E+16
   -1.993764    3.44327  0.3703E-11  0.1600E-08  0.2263E-12  0.7502E-09  0.0000E+00  0.1535E+16
   -2.062514    3.66970  0.3697E-11  0.4143E-08  0.5696E-12  0.3985E-08  0.0000E+00  0.7275E+15
   -2.131265    3.89882  0.3690E-11  0.9844E-08  0.1326E-11  0.1408E-06  0.0000E+00  0.4973E+14
   -2.200015    4.02365  0.3689E-11  0.1159E-07  0.1572E-11  0.3663E-04  0.0000E+00 -0.5559E+12
   -2.268764    4.02459  0.3689E-11  0.1226E-07  0.1698E-11  0.3650E-04  0.0000E+00 -0.5708E+12
   -2.337513    4.02553  0.3689E-11  0.1275E-07  0.1839E-11  0.3506E-04  0.0000E+00 -0.6090E+12
   -2.406262    4.02651  0.3689E-11  0.1307E-07  0.2016E-11  0.3214E-04  0.0000E+00 -0.6828E+12
   -2.475010    4.02758  0.3689E-11  0.1319E-07  0.2269E-11  0.2748E-04  0.0000E+00 -0.8256E+12
   -2.543757    4.02884  0.3689E-11  0.1305E-07  0.2702E-11  0.2075E-04  0.0000E+00 -0.1144E+13
   -2.612504    4.03052  0.3689E-11  0.1239E-07  0.3722E-11  0.1171E-04  0.0000E+00 -0.2191E+13
   -2.681251    4.03358  0.3689E-11  0.9227E-08  0.9886E-11  0.1732E-05  0.0000E+00 -0.1962E+14
   -2.749996    4.05517  0.3689E-11  0.0000E+00  0.0000E+00  0.0000E+00  0.0000E+00  0.0000E+00
