 1 - depth, m
 2 - temperature, C
 3 - salinity, kg/kg
 4 - turbulent kinetic energy, m**2/s**2
 5 - dissipation rate, m**2/s**3
 6 - kinematic heat conductance, m**2/s
 7 - modulus of horizontal velocity, m/s
 8 - Richardson number, n/d
   -0.000000   -0.00000  0.1668E-17  0.1218E-13  0.7603E-17  0.1000E-09  0.0000E+00  0.4097E+16
   -0.068747    0.06198  0.0000E+00  0.1218E-13  0.7603E-17  0.1000E-09  0.0000E+00  0.4542E+16
   -0.137495    0.13193  0.3143E-12  0.1218E-13  0.7603E-17  0.1000E-09  0.0000E+00  0.4910E+16
   -0.206243    0.20910  0.1079E-11  0.1218E-13  0.7603E-17  0.1000E-09  0.0000E+00  0.5186E+16
   -0.274992    0.29248  0.1910E-11  0.1218E-13  0.7603E-17  0.1000E-09  0.0000E+00  0.5377E+16
   -0.343742    0.38109  0.2505E-11  0.1218E-13  0.7603E-17  0.1000E-09  0.0000E+00  0.5495E+16
   -0.412492    0.47411  0.2780E-11  0.1218E-13  0.7603E-17  0.1000E-09  0.0000E+00  0.5554E+16
   -0.481242    0.57085  0.2807E-11  0.1218E-13  0.7603E-17  0.1000E-09  0.0000E+00  0.5566E+16
   -0.549993    0.67080  0.2700E-11  0.1218E-13  0.7603E-17  0.1000E-09  0.0000E+00  0.5540E+16
   -0.618744    0.77355  0.2557E-11  0.1218E-13  0.7603E-17  0.1000E-09  0.0000E+00  0.5483E+16
   -0.687496    0.87876  0.2429E-11  0.1218E-13  0.7603E-17  0.1000E-09  0.0000E+00  0.5392E+16
   -0.756248    0.98603  0.2336E-11  0.1218E-13  0.7603E-17  0.1000E-09  0.0000E+00  0.5275E+16
   -0.825001    1.09501  0.2277E-11  0.1218E-13  0.7603E-17  0.1000E-09  0.0000E+00  0.5138E+16
   -0.893753    1.20547  0.2242E-11  0.1218E-13  0.7603E-17  0.1000E-09  0.0000E+00  0.4984E+16
   -0.962506    1.31719  0.2224E-11  0.1218E-13  0.7603E-17  0.1000E-09  0.0000E+00  0.4816E+16
   -1.031259    1.42999  0.2215E-11  0.1218E-13  0.7603E-17  0.1000E-09  0.0000E+00  0.4636E+16
   -1.100012    1.54373  0.2210E-11  0.1218E-13  0.7603E-17  0.1000E-09  0.0000E+00  0.4449E+16
   -1.168766    1.65830  0.2207E-11  0.1218E-13  0.7603E-17  0.1000E-09  0.0000E+00  0.4255E+16
   -1.237519    1.77364  0.2204E-11  0.1218E-13  0.7603E-17  0.1000E-09  0.0000E+00  0.4056E+16
   -1.306273    1.88971  0.2201E-11  0.1218E-13  0.7603E-17  0.1000E-09  0.0000E+00  0.3854E+16
   -1.375027    2.00653  0.2197E-11  0.1218E-13  0.7603E-17  0.1000E-09  0.0000E+00  0.3653E+16
   -1.443780    2.12423  0.2192E-11  0.1218E-13  0.7603E-17  0.1000E-09  0.0000E+00  0.3452E+16
   -1.512534    2.24300  0.2187E-11  0.1218E-13  0.7603E-17  0.1000E-09  0.0000E+00  0.3254E+16
   -1.581287    2.36315  0.2181E-11  0.1218E-13  0.7603E-17  0.1000E-09  0.0000E+00  0.3061E+16
   -1.650041    2.48515  0.2175E-11  0.1218E-13  0.7603E-17  0.1000E-09  0.0000E+00  0.2875E+16
   -1.718794    2.60979  0.2169E-11  0.1218E-13  0.7603E-17  0.1000E-09  0.0000E+00  0.2688E+16
   -1.787547    2.73784  0.2164E-11  0.1218E-13  0.7603E-17  0.1000E-09  0.0000E+00  0.2365E+16
   -1.856300    2.86277  0.2159E-11  0.1218E-13  0.7603E-17  0.1000E-09  0.0000E+00  0.2047E+16
   -1.925053    2.98360  0.2156E-11  0.1747E-13  0.7603E-17  0.1000E-09  0.0000E+00  0.1729E+16
   -1.993805    3.09862  0.2153E-11  0.7461E-13  0.2462E-16  0.1000E-09  0.0000E+00  0.1442E+16
   -2.062557    3.20768  0.2150E-11  0.2987E-12  0.9310E-16  0.1000E-09  0.0000E+00  0.1260E+16
   -2.131309    3.31753  0.2148E-11  0.1157E-11  0.3466E-15  0.1000E-09  0.0000E+00  0.1082E+16
   -2.200060    3.42914  0.2146E-11  0.4389E-11  0.1267E-14  0.1000E-09  0.0000E+00  0.9006E+15
   -2.268811    3.54317  0.2145E-11  0.1653E-10  0.4599E-14  0.1000E-09  0.0000E+00  0.7053E+15
   -2.337562    3.65938  0.2144E-11  0.6240E-10  0.1675E-13  0.1694E-09  0.0000E+00  0.5009E+15
   -2.406312    3.77842  0.2143E-11  0.2345E-09  0.6076E-13  0.1087E-08  0.0000E+00  0.2826E+15
   -2.475061    3.90125  0.2143E-11  0.8721E-09  0.2189E-12  0.2119E-07  0.0000E+00  0.5086E+14
   -2.543810    4.01403  0.2143E-11  0.2302E-08  0.5829E-12  0.4201E-05  0.0000E+00 -0.1989E+13
   -2.612558    4.01829  0.2143E-11  0.2568E-08  0.8069E-12  0.3106E-05  0.0000E+00 -0.2834E+13
   -2.681306    4.02352  0.2143E-11  0.1888E-08  0.1522E-11  0.5301E-06  0.0000E+00 -0.1291E+14
   -2.750053    4.04140  0.2143E-11  0.0000E+00  0.0000E+00  0.0000E+00  0.0000E+00  0.0000E+00
