 1 - depth, m
 2 - temperature, C
 3 - salinity, kg/kg
 4 - turbulent kinetic energy, m**2/s**2
 5 - dissipation rate, m**2/s**3
 6 - kinematic heat conductance, m**2/s
 7 - modulus of horizontal velocity, m/s
 8 - Richardson number, n/d
   -0.000000   -0.00000  0.1860E-10  0.1219E-13  0.7603E-17  0.1000E-09  0.0000E+00  0.8192E+16
   -0.068746    0.12498  0.1211E-10  0.1219E-13  0.7603E-17  0.1000E-09  0.0000E+00  0.7868E+16
   -0.137492    0.24922  0.8695E-11  0.1219E-13  0.7603E-17  0.1000E-09  0.0000E+00  0.7559E+16
   -0.206239    0.37287  0.7301E-11  0.1219E-13  0.7603E-17  0.1000E-09  0.0000E+00  0.7264E+16
   -0.274987    0.49608  0.6821E-11  0.1219E-13  0.7603E-17  0.1000E-09  0.0000E+00  0.6982E+16
   -0.343735    0.61900  0.6676E-11  0.1219E-13  0.7603E-17  0.1000E-09  0.0000E+00  0.6710E+16
   -0.412483    0.74179  0.6638E-11  0.1219E-13  0.7603E-17  0.1000E-09  0.0000E+00  0.6448E+16
   -0.481233    0.86457  0.6628E-11  0.1219E-13  0.7603E-17  0.1000E-09  0.0000E+00  0.6193E+16
   -0.549982    0.98750  0.6626E-11  0.1219E-13  0.7603E-17  0.1000E-09  0.0000E+00  0.5945E+16
   -0.618732    1.11070  0.6626E-11  0.1219E-13  0.7603E-17  0.1000E-09  0.0000E+00  0.5701E+16
   -0.687482    1.23429  0.6626E-11  0.1219E-13  0.7603E-17  0.1000E-09  0.0000E+00  0.5469E+16
   -0.756233    1.35856  0.6625E-11  0.1219E-13  0.7603E-17  0.1000E-09  0.0000E+00  0.5242E+16
   -0.824984    1.48372  0.6625E-11  0.1219E-13  0.7603E-17  0.1000E-09  0.0000E+00  0.5014E+16
   -0.893735    1.60986  0.6623E-11  0.1219E-13  0.7603E-17  0.1000E-09  0.0000E+00  0.4782E+16
   -0.962487    1.73703  0.6620E-11  0.1219E-13  0.7603E-17  0.1000E-09  0.0000E+00  0.4546E+16
   -1.031239    1.86526  0.6614E-11  0.1219E-13  0.7603E-17  0.1000E-09  0.0000E+00  0.4306E+16
   -1.099991    1.99458  0.6602E-11  0.4076E-13  0.7603E-17  0.1000E-09  0.0000E+00  0.4059E+16
   -1.168743    2.12499  0.6584E-11  0.1175E-12  0.1591E-16  0.1000E-09  0.0000E+00  0.3806E+16
   -1.237495    2.25647  0.6560E-11  0.2951E-12  0.3693E-16  0.1000E-09  0.0000E+00  0.3546E+16
   -1.306247    2.38897  0.6532E-11  0.7064E-12  0.8524E-16  0.1000E-09  0.0000E+00  0.3279E+16
   -1.374999    2.52243  0.6505E-11  0.1657E-11  0.1943E-15  0.1000E-09  0.0000E+00  0.3007E+16
   -1.443751    2.65686  0.6482E-11  0.3838E-11  0.4379E-15  0.1000E-09  0.0000E+00  0.2729E+16
   -1.512504    2.79219  0.6466E-11  0.8789E-11  0.9766E-15  0.1000E-09  0.0000E+00  0.2444E+16
   -1.581256    2.92830  0.6455E-11  0.1992E-10  0.2156E-14  0.1000E-09  0.0000E+00  0.2153E+16
   -1.650008    3.06503  0.6448E-11  0.4469E-10  0.4713E-14  0.1000E-09  0.0000E+00  0.1857E+16
   -1.718760    3.20222  0.6444E-11  0.9928E-10  0.1020E-13  0.1000E-09  0.0000E+00  0.1559E+16
   -1.787511    3.33974  0.6440E-11  0.2237E-09  0.2240E-13  0.1000E-09  0.0000E+00  0.1271E+16
   -1.856263    3.47909  0.6435E-11  0.5079E-09  0.4958E-13  0.2595E-09  0.0000E+00  0.9723E+15
   -1.925014    3.62025  0.6429E-11  0.1151E-08  0.1096E-12  0.8420E-09  0.0000E+00  0.6621E+15
   -1.993765    3.76300  0.6424E-11  0.2596E-08  0.2413E-12  0.3615E-08  0.0000E+00  0.3394E+15
   -2.062516    3.90481  0.6422E-11  0.5558E-08  0.5061E-12  0.5355E-07  0.0000E+00  0.4776E+14
   -2.131266    4.00974  0.6422E-11  0.6451E-08  0.5912E-12  0.2987E-04  0.0000E+00 -0.2526E+12
   -2.200016    4.01042  0.6422E-11  0.6810E-08  0.6352E-12  0.3005E-04  0.0000E+00 -0.2584E+12
   -2.268766    4.01109  0.6422E-11  0.7081E-08  0.6819E-12  0.2937E-04  0.0000E+00 -0.2722E+12
   -2.337515    4.01179  0.6422E-11  0.7274E-08  0.7374E-12  0.2773E-04  0.0000E+00 -0.2973E+12
   -2.406264    4.01252  0.6422E-11  0.7386E-08  0.8098E-12  0.2497E-04  0.0000E+00 -0.3412E+12
   -2.475012    4.01334  0.6422E-11  0.7399E-08  0.9168E-12  0.2091E-04  0.0000E+00 -0.4237E+12
   -2.543759    4.01432  0.6422E-11  0.7264E-08  0.1105E-11  0.1532E-04  0.0000E+00 -0.6080E+12
   -2.612506    4.01567  0.6422E-11  0.6817E-08  0.1558E-11  0.8174E-05  0.0000E+00 -0.1237E+13
   -2.681253    4.01825  0.6422E-11  0.4889E-08  0.4255E-11  0.1090E-05  0.0000E+00 -0.1225E+14
   -2.749998    4.03716  0.6422E-11  0.0000E+00  0.0000E+00  0.0000E+00  0.0000E+00  0.0000E+00
