 1 - depth, m
 2 - temperature, C
 3 - salinity, kg/kg
 4 - turbulent kinetic energy, m**2/s**2
 5 - dissipation rate, m**2/s**3
 6 - kinematic heat conductance, m**2/s
 7 - modulus of horizontal velocity, m/s
 8 - Richardson number, n/d
   -0.000000   -0.00000  0.7704E-20  0.1218E-13  0.7603E-17  0.1000E-09  0.0000E+00  0.4202E+16
   -0.068747    0.06359  0.1471E-16  0.1218E-13  0.7603E-17  0.1000E-09  0.0000E+00  0.3967E+16
   -0.137494    0.12464  0.0000E+00  0.1218E-13  0.7603E-17  0.1000E-09  0.0000E+00  0.3953E+16
   -0.206242    0.18652  0.2105E-12  0.1218E-13  0.7603E-17  0.1000E-09  0.0000E+00  0.4029E+16
   -0.274991    0.25070  0.2552E-11  0.1218E-13  0.7603E-17  0.1000E-09  0.0000E+00  0.4138E+16
   -0.343740    0.31786  0.6574E-11  0.1218E-13  0.7603E-17  0.1000E-09  0.0000E+00  0.4254E+16
   -0.412490    0.38830  0.1062E-10  0.1218E-13  0.7603E-17  0.1000E-09  0.0000E+00  0.4366E+16
   -0.481240    0.46215  0.1341E-10  0.1218E-13  0.7603E-17  0.1000E-09  0.0000E+00  0.4469E+16
   -0.549991    0.53947  0.1461E-10  0.1218E-13  0.7603E-17  0.1000E-09  0.0000E+00  0.4557E+16
   -0.618742    0.62026  0.1460E-10  0.1218E-13  0.7603E-17  0.1000E-09  0.0000E+00  0.4629E+16
   -0.687494    0.70448  0.1397E-10  0.1218E-13  0.7603E-17  0.1000E-09  0.0000E+00  0.4674E+16
   -0.756246    0.79190  0.1319E-10  0.1218E-13  0.7603E-17  0.1000E-09  0.0000E+00  0.4694E+16
   -0.824998    0.88232  0.1251E-10  0.1218E-13  0.7603E-17  0.1000E-09  0.0000E+00  0.4694E+16
   -0.893750    0.97558  0.1202E-10  0.1218E-13  0.7603E-17  0.1000E-09  0.0000E+00  0.4672E+16
   -0.962503    1.07154  0.1172E-10  0.1218E-13  0.7603E-17  0.1000E-09  0.0000E+00  0.4631E+16
   -1.031256    1.17003  0.1154E-10  0.1218E-13  0.7603E-17  0.1000E-09  0.0000E+00  0.4572E+16
   -1.100009    1.27093  0.1144E-10  0.1218E-13  0.7603E-17  0.1000E-09  0.0000E+00  0.4495E+16
   -1.168762    1.37412  0.1139E-10  0.1218E-13  0.7603E-17  0.1000E-09  0.0000E+00  0.4404E+16
   -1.237515    1.47953  0.1137E-10  0.1218E-13  0.7603E-17  0.1000E-09  0.0000E+00  0.4300E+16
   -1.306269    1.58710  0.1135E-10  0.1218E-13  0.7603E-17  0.1000E-09  0.0000E+00  0.4185E+16
   -1.375022    1.69684  0.1134E-10  0.1218E-13  0.7603E-17  0.1000E-09  0.0000E+00  0.4065E+16
   -1.443775    1.80893  0.1133E-10  0.1218E-13  0.7603E-17  0.1000E-09  0.0000E+00  0.3940E+16
   -1.512529    1.92360  0.1131E-10  0.1218E-13  0.7603E-17  0.1000E-09  0.0000E+00  0.3813E+16
   -1.581282    2.04124  0.1129E-10  0.1218E-13  0.7603E-17  0.1000E-09  0.0000E+00  0.3693E+16
   -1.650035    2.16262  0.1127E-10  0.1218E-13  0.7603E-17  0.1000E-09  0.0000E+00  0.3594E+16
   -1.718788    2.28932  0.1124E-10  0.1218E-13  0.7603E-17  0.1000E-09  0.0000E+00  0.3523E+16
   -1.787541    2.42378  0.1122E-10  0.1218E-13  0.7603E-17  0.1000E-09  0.0000E+00  0.3106E+16
   -1.856294    2.55305  0.1119E-10  0.1218E-13  0.7603E-17  0.1000E-09  0.0000E+00  0.2729E+16
   -1.925046    2.67736  0.1117E-10  0.1218E-13  0.7603E-17  0.1000E-09  0.0000E+00  0.2346E+16
   -1.993798    2.79477  0.1115E-10  0.1218E-13  0.7603E-17  0.1000E-09  0.0000E+00  0.2014E+16
   -2.062550    2.90592  0.1113E-10  0.1218E-13  0.7603E-17  0.1000E-09  0.0000E+00  0.1870E+16
   -2.131302    3.02072  0.1112E-10  0.1255E-13  0.8116E-17  0.1000E-09  0.0000E+00  0.1712E+16
   -2.200053    3.13962  0.1110E-10  0.3031E-13  0.2126E-16  0.1000E-09  0.0000E+00  0.1545E+16
   -2.268803    3.26379  0.1109E-10  0.1717E-12  0.1200E-15  0.1000E-09  0.0000E+00  0.1324E+16
   -2.337554    3.39074  0.1108E-10  0.1186E-11  0.8020E-15  0.1000E-09  0.0000E+00  0.1087E+16
   -2.406304    3.52050  0.1107E-10  0.8267E-11  0.5384E-14  0.1028E-09  0.0000E+00  0.8448E+15
   -2.475053    3.65529  0.1107E-10  0.5739E-10  0.3608E-13  0.3464E-09  0.0000E+00  0.5848E+15
   -2.543801    3.80082  0.1106E-10  0.3914E-09  0.2390E-12  0.1122E-07  0.0000E+00  0.2510E+15
   -2.612550    3.96627  0.1105E-10  0.1991E-08  0.1268E-11  0.1187E-05  0.0000E+00  0.2592E+13
   -2.681297    4.04241  0.1105E-10  0.3058E-08  0.3779E-11  0.7862E-06  0.0000E+00 -0.3793E+14
   -2.750044    4.07617  0.1105E-10  0.0000E+00  0.0000E+00  0.0000E+00  0.0000E+00  0.0000E+00
