 1 - depth, m
 2 - temperature, C
 3 - salinity, kg/kg
 4 - turbulent kinetic energy, m**2/s**2
 5 - dissipation rate, m**2/s**3
 6 - kinematic heat conductance, m**2/s
 7 - modulus of horizontal velocity, m/s
 8 - Richardson number, n/d
   -0.000000   -0.00000  0.1050E-12  0.1219E-13  0.7603E-17  0.1000E-09  0.0000E+00  0.7117E+16
   -0.068746    0.10834  0.5527E-12  0.1219E-13  0.7603E-17  0.1000E-09  0.0000E+00  0.7029E+16
   -0.137493    0.21860  0.8837E-12  0.1219E-13  0.7603E-17  0.1000E-09  0.0000E+00  0.6923E+16
   -0.206240    0.33066  0.1018E-11  0.1219E-13  0.7603E-17  0.1000E-09  0.0000E+00  0.6798E+16
   -0.274988    0.44437  0.1019E-11  0.1219E-13  0.7603E-17  0.1000E-09  0.0000E+00  0.6654E+16
   -0.343736    0.55956  0.9602E-12  0.1219E-13  0.7603E-17  0.1000E-09  0.0000E+00  0.6493E+16
   -0.412485    0.67605  0.8913E-12  0.1219E-13  0.7603E-17  0.1000E-09  0.0000E+00  0.6316E+16
   -0.481234    0.79368  0.8352E-12  0.1219E-13  0.7603E-17  0.1000E-09  0.0000E+00  0.6125E+16
   -0.549984    0.91228  0.7976E-12  0.1219E-13  0.7603E-17  0.1000E-09  0.0000E+00  0.5922E+16
   -0.618734    1.03172  0.7758E-12  0.1219E-13  0.7603E-17  0.1000E-09  0.0000E+00  0.5708E+16
   -0.687485    1.15184  0.7643E-12  0.1219E-13  0.7603E-17  0.1000E-09  0.0000E+00  0.5485E+16
   -0.756236    1.27252  0.7588E-12  0.1219E-13  0.7603E-17  0.1000E-09  0.0000E+00  0.5254E+16
   -0.824987    1.39364  0.7563E-12  0.1219E-13  0.7603E-17  0.1000E-09  0.0000E+00  0.5017E+16
   -0.893739    1.51507  0.7550E-12  0.1219E-13  0.7603E-17  0.1000E-09  0.0000E+00  0.4775E+16
   -0.962490    1.63671  0.7542E-12  0.1219E-13  0.7603E-17  0.1000E-09  0.0000E+00  0.4529E+16
   -1.031242    1.75845  0.7535E-12  0.1219E-13  0.7603E-17  0.1000E-09  0.0000E+00  0.4280E+16
   -1.099994    1.88022  0.7525E-12  0.1219E-13  0.7603E-17  0.1000E-09  0.0000E+00  0.4029E+16
   -1.168747    2.00193  0.7512E-12  0.1219E-13  0.7603E-17  0.1000E-09  0.0000E+00  0.3778E+16
   -1.237499    2.12350  0.7496E-12  0.1219E-13  0.7603E-17  0.1000E-09  0.0000E+00  0.3527E+16
   -1.306252    2.24489  0.7476E-12  0.1219E-13  0.7603E-17  0.1000E-09  0.0000E+00  0.3277E+16
   -1.375004    2.36604  0.7455E-12  0.1219E-13  0.7603E-17  0.1000E-09  0.0000E+00  0.3029E+16
   -1.443757    2.48694  0.7433E-12  0.1219E-13  0.7603E-17  0.1000E-09  0.0000E+00  0.2783E+16
   -1.512509    2.60758  0.7412E-12  0.1219E-13  0.7603E-17  0.1000E-09  0.0000E+00  0.2539E+16
   -1.581261    2.72794  0.7393E-12  0.1219E-13  0.7603E-17  0.1000E-09  0.0000E+00  0.2298E+16
   -1.650014    2.84803  0.7376E-12  0.5766E-13  0.1206E-16  0.1000E-09  0.0000E+00  0.2059E+16
   -1.718766    2.96784  0.7362E-12  0.1795E-12  0.3146E-16  0.1000E-09  0.0000E+00  0.1822E+16
   -1.787518    3.08729  0.7352E-12  0.5143E-12  0.8571E-16  0.1000E-09  0.0000E+00  0.1563E+16
   -1.856270    3.20444  0.7343E-12  0.1448E-11  0.2334E-15  0.1000E-09  0.0000E+00  0.1313E+16
   -1.925021    3.31873  0.7336E-12  0.4033E-11  0.6307E-15  0.1000E-09  0.0000E+00  0.1072E+16
   -1.993772    3.42943  0.7331E-12  0.1115E-10  0.1693E-14  0.1000E-09  0.0000E+00  0.8494E+15
   -2.062523    3.53627  0.7327E-12  0.2988E-10  0.4407E-14  0.1000E-09  0.0000E+00  0.6626E+15
   -2.131274    3.64211  0.7324E-12  0.7896E-10  0.1132E-13  0.1193E-09  0.0000E+00  0.4820E+15
   -2.200024    3.74711  0.7323E-12  0.2066E-09  0.2879E-13  0.4780E-09  0.0000E+00  0.3056E+15
   -2.268774    3.85098  0.7322E-12  0.5395E-09  0.7313E-13  0.2750E-08  0.0000E+00  0.1345E+15
   -2.337523    3.95223  0.7322E-12  0.1349E-08  0.1791E-12  0.1295E-06  0.0000E+00  0.6380E+13
   -2.406272    4.00506  0.7322E-12  0.2234E-08  0.3031E-12  0.7587E-05  0.0000E+00 -0.5702E+12
   -2.475021    4.00691  0.7322E-12  0.2574E-08  0.3762E-12  0.7395E-05  0.0000E+00 -0.6393E+12
   -2.543768    4.00880  0.7322E-12  0.2737E-08  0.4687E-12  0.6095E-05  0.0000E+00 -0.8427E+12
   -2.612516    4.01108  0.7322E-12  0.2662E-08  0.6491E-12  0.3554E-05  0.0000E+00 -0.1578E+13
   -2.681262    4.01486  0.7322E-12  0.1925E-08  0.1478E-11  0.5473E-06  0.0000E+00 -0.1121E+14
   -2.750008    4.03371  0.7322E-12  0.0000E+00  0.0000E+00  0.0000E+00  0.0000E+00  0.0000E+00
