 1 - depth, m
 2 - temperature, C
 3 - salinity, kg/kg
 4 - turbulent kinetic energy, m**2/s**2
 5 - dissipation rate, m**2/s**3
 6 - kinematic heat conductance, m**2/s
 7 - modulus of horizontal velocity, m/s
 8 - Richardson number, n/d
   -0.000000    9.46960  0.7395E-12  0.2046E-04  0.1357E-05  0.3454E-04  0.3453E-01 -0.1525E-01
   -0.068746    9.50519  0.7395E-12  0.1808E-04  0.4107E-06  0.9061E-04  0.2171E-01 -0.4292E-01
   -0.137492    9.51740  0.7395E-12  0.1713E-04  0.2217E-06  0.1510E-03  0.1750E-01 -0.7167E-01
   -0.206239    9.52453  0.7395E-12  0.1651E-04  0.1473E-06  0.2175E-03  0.1500E-01 -0.1035E+00
   -0.274987    9.52933  0.7395E-12  0.1605E-04  0.1087E-06  0.2924E-03  0.1330E-01 -0.1260E+00
   -0.343735    9.53279  0.7395E-12  0.1569E-04  0.8555E-07  0.4055E-03  0.1203E-01  0.1893E+02
   -0.412484    9.53533  0.7395E-12  0.1542E-04  0.7045E-07  0.5652E-03  0.1106E-01  0.2358E+02
   -0.481233    9.53720  0.7395E-12  0.1522E-04  0.6009E-07  0.7948E-03  0.1028E-01  0.7251E+02
   -0.549983    9.53853  0.7395E-12  0.1508E-04  0.5266E-07  0.1036E-02  0.9637E-02  0.4885E+02
   -0.618733    9.53950  0.7395E-12  0.1500E-04  0.4711E-07  0.1271E-02  0.9079E-02  0.9410E+02
   -0.687483    9.54023  0.7395E-12  0.1496E-04  0.4280E-07  0.1460E-02  0.8576E-02  0.1614E+03
   -0.756234    9.54082  0.7395E-12  0.1494E-04  0.3927E-07  0.1509E-02  0.8107E-02  0.1347E+02
   -0.824985    9.54139  0.7395E-12  0.1493E-04  0.3630E-07  0.1570E-02  0.7653E-02  0.1506E+02
   -0.893737    9.54192  0.7395E-12  0.1492E-04  0.3379E-07  0.1622E-02  0.7219E-02  0.1641E+02
   -0.962488    9.54242  0.7395E-12  0.1490E-04  0.3164E-07  0.1674E-02  0.6801E-02  0.1798E+02
   -1.031240    9.54290  0.7395E-12  0.1488E-04  0.2979E-07  0.1721E-02  0.6396E-02  0.1972E+02
   -1.099992    9.54335  0.7395E-12  0.1485E-04  0.2818E-07  0.1766E-02  0.6003E-02  0.2178E+02
   -1.168744    9.54379  0.7395E-12  0.1480E-04  0.2677E-07  0.1807E-02  0.5619E-02  0.2429E+02
   -1.237496    9.54420  0.7395E-12  0.1473E-04  0.2553E-07  0.1843E-02  0.5243E-02  0.2753E+02
   -1.306249    9.54461  0.7395E-12  0.1464E-04  0.2443E-07  0.1873E-02  0.4874E-02  0.3194E+02
   -1.375001    9.54499  0.7395E-12  0.1453E-04  0.2344E-07  0.1898E-02  0.4510E-02  0.3842E+02
   -1.443753    9.54537  0.7395E-12  0.1439E-04  0.2256E-07  0.1914E-02  0.4151E-02  0.4901E+02
   -1.512506    9.54573  0.7395E-12  0.1422E-04  0.2177E-07  0.1923E-02  0.3794E-02  0.6941E+02
   -1.581258    9.54609  0.7395E-12  0.1401E-04  0.2105E-07  0.1920E-02  0.3440E-02  0.1239E+03
   -1.650010    9.54644  0.7395E-12  0.1377E-04  0.2038E-07  0.1912E-02  0.3086E-02  0.5224E+03
   -1.718762    9.54679  0.7395E-12  0.1349E-04  0.1977E-07  0.1879E-02  0.2733E-02  0.1540E+05
   -1.787514    9.54713  0.7395E-12  0.1315E-04  0.1917E-07  0.1883E-02  0.2376E-02  0.1754E+02
   -1.856265    9.54748  0.7395E-12  0.1277E-04  0.1862E-07  0.1873E-02  0.2066E-02  0.5961E+01
   -1.925017    9.54782  0.7395E-12  0.1235E-04  0.1817E-07  0.1869E-02  0.1796E-02  0.3090E+01
   -1.993768    9.54816  0.7395E-12  0.1192E-04  0.1785E-07  0.1872E-02  0.1563E-02  0.2048E+01
   -2.062519    9.54849  0.7395E-12  0.1149E-04  0.1771E-07  0.1870E-02  0.1361E-02  0.1620E+01
   -2.131269    9.54883  0.7395E-12  0.1108E-04  0.1779E-07  0.1846E-02  0.1179E-02  0.1303E+01
   -2.200019    9.54916  0.7395E-12  0.1068E-04  0.1811E-07  0.1808E-02  0.1014E-02  0.1057E+01
   -2.268769    9.54949  0.7395E-12  0.1031E-04  0.1872E-07  0.1740E-02  0.8658E-03  0.8089E+00
   -2.337518    9.54984  0.7395E-12  0.9966E-05  0.1969E-07  0.1578E-02  0.7382E-03  0.6049E+00
   -2.406267    9.55021  0.7395E-12  0.9652E-05  0.2109E-07  0.1391E-02  0.6321E-03  0.4700E+00
   -2.475015    9.55064  0.7395E-12  0.9360E-05  0.2316E-07  0.1203E-02  0.5464E-03  0.5295E+00
   -2.543763    9.55113  0.7395E-12  0.9049E-05  0.2661E-07  0.1143E-02  0.4759E-03  0.2458E+01
   -2.612510    9.55164  0.7395E-12  0.8528E-05  0.3652E-07  0.6066E-03  0.4155E-03  0.1672E+04
   -2.681256    9.55312  0.7395E-12  0.5250E-05  0.1486E-06  0.4614E-04  0.3131E-03 -0.7758E+04
   -2.750002    9.56595  0.7395E-12  0.0000E+00  0.0000E+00  0.0000E+00  0.3225E-03  0.0000E+00
