 1 - depth, m
 2 - temperature, C
 3 - salinity, kg/kg
 4 - turbulent kinetic energy, m**2/s**2
 5 - dissipation rate, m**2/s**3
 6 - kinematic heat conductance, m**2/s
 7 - modulus of horizontal velocity, m/s
 8 - Richardson number, n/d
   -0.000000   -0.00000  0.1756E-10  0.1219E-13  0.7603E-17  0.1000E-09  0.5458E-61  0.4015E+16
   -0.068746    0.06072  0.1024E-10  0.1219E-13  0.7603E-17  0.1000E-09  0.5106E-61  0.3593E+16
   -0.137492    0.11592  0.8942E-11  0.1219E-13  0.7603E-17  0.1000E-09  0.4600E-61  0.3142E+16
   -0.206239    0.16489  0.8715E-11  0.1219E-13  0.7603E-17  0.1000E-09  0.3998E-61  0.2689E+16
   -0.274987    0.20735  0.8683E-11  0.1219E-13  0.7603E-17  0.1000E-09  0.3390E-61  0.2257E+16
   -0.343735    0.24338  0.8680E-11  0.1219E-13  0.7603E-17  0.1000E-09  0.2831E-61  0.1865E+16
   -0.412483    0.27344  0.8679E-11  0.1219E-13  0.7603E-17  0.1000E-09  0.2342E-61  0.1528E+16
   -0.481233    0.29825  0.8679E-11  0.1219E-13  0.7603E-17  0.1000E-09  0.1926E-61  0.1256E+16
   -0.549982    0.31879  0.8679E-11  0.1219E-13  0.7603E-17  0.1000E-09  0.1575E-61  0.1060E+16
   -0.618732    0.33621  0.8679E-11  0.1219E-13  0.7603E-17  0.1000E-09  0.1281E-61  0.9463E+15
   -0.687482    0.35184  0.8679E-11  0.1219E-13  0.7603E-17  0.1000E-09  0.1036E-61  0.9334E+15
   -0.756233    0.36733  0.8679E-11  0.1219E-13  0.7603E-17  0.1000E-09  0.8319E-62  0.1023E+16
   -0.824984    0.38439  0.8679E-11  0.1219E-13  0.7603E-17  0.1000E-09  0.6637E-62  0.1215E+16
   -0.893735    0.40475  0.8679E-11  0.1219E-13  0.7603E-17  0.1000E-09  0.5260E-62  0.1514E+16
   -0.962487    0.43031  0.8679E-11  0.1219E-13  0.7603E-17  0.1000E-09  0.4141E-62  0.1924E+16
   -1.031239    0.46307  0.8679E-11  0.1219E-13  0.7603E-17  0.1000E-09  0.3238E-62  0.2446E+16
   -1.099991    0.50519  0.8679E-11  0.1219E-13  0.7603E-17  0.1000E-09  0.2515E-62  0.3076E+16
   -1.168743    0.55893  0.8678E-11  0.1219E-13  0.7603E-17  0.1000E-09  0.1939E-62  0.3802E+16
   -1.237495    0.62661  0.8672E-11  0.1219E-13  0.7603E-17  0.1000E-09  0.1482E-62  0.4604E+16
   -1.306247    0.71055  0.8650E-11  0.1219E-13  0.7603E-17  0.1000E-09  0.1122E-62  0.5452E+16
   -1.374999    0.81298  0.8590E-11  0.1219E-13  0.7603E-17  0.1000E-09  0.8388E-63  0.6363E+16
   -1.443752    0.93713  0.8513E-11  0.3857E-13  0.1054E-16  0.1000E-09  0.6150E-63  0.7237E+16
   -1.512504    1.08511  0.8481E-11  0.1317E-12  0.3055E-16  0.1000E-09  0.4370E-63  0.7989E+16
   -1.581256    1.25824  0.8467E-11  0.4181E-12  0.9248E-16  0.1000E-09  0.2930E-63  0.8552E+16
   -1.650008    1.45730  0.8457E-11  0.1290E-11  0.2754E-15  0.1000E-09  0.1726E-63  0.8861E+16
   -1.718760    1.68244  0.8450E-11  0.3906E-11  0.8066E-15  0.1000E-09  0.6660E-64  0.8847E+16
   -1.787512    1.93272  0.8447E-11  0.1197E-10  0.2391E-14  0.1000E-09  0.4512E-65  0.8217E+16
   -1.856263    2.19744  0.8445E-11  0.3667E-10  0.7088E-14  0.1000E-09  0.2815E-66  0.7375E+16
   -1.925014    2.47531  0.8444E-11  0.1113E-09  0.2083E-13  0.1000E-09  0.1604E-67  0.6329E+16
   -1.993765    2.76456  0.8443E-11  0.3348E-09  0.6071E-13  0.1000E-09  0.9957E-69  0.5124E+16
   -2.062516    3.06457  0.8441E-11  0.9739E-09  0.1712E-12  0.2294E-09  0.8032E-70  0.3806E+16
   -2.131266    3.37828  0.8432E-11  0.2788E-08  0.4755E-12  0.1065E-08  0.6063E-71  0.2279E+16
   -2.200016    3.70189  0.8412E-11  0.7841E-08  0.1299E-11  0.1055E-07  0.4254E-72  0.6301E+15
   -2.268766    4.01337  0.8400E-11  0.1017E-07  0.1699E-11  0.2499E-04  0.1578E-73 -0.8287E+12
   -2.337515    4.01527  0.8400E-11  0.1108E-07  0.1919E-11  0.2552E-04  0.4167E-74 -0.8788E+12
   -2.406264    4.01715  0.8400E-11  0.1177E-07  0.2182E-11  0.2448E-04  0.1031E-74 -0.9928E+12
   -2.475012    4.01915  0.8400E-11  0.1223E-07  0.2544E-11  0.2169E-04  0.2251E-75 -0.1224E+13
   -2.543759    4.02146  0.8400E-11  0.1241E-07  0.3142E-11  0.1691E-04  0.4086E-76 -0.1754E+13
   -2.612506    4.02452  0.8400E-11  0.1211E-07  0.4516E-11  0.9918E-05  0.5069E-77 -0.3555E+13
   -2.681253    4.03007  0.8400E-11  0.9849E-08  0.1204E-10  0.1922E-05  0.2971E-78 -0.3134E+14
   -2.749999    4.06326  0.8400E-11  0.0000E+00  0.0000E+00  0.0000E+00  0.3145E-78  0.0000E+00
