 1 - depth, m
 2 - temperature, C
 3 - salinity, kg/kg
 4 - turbulent kinetic energy, m**2/s**2
 5 - dissipation rate, m**2/s**3
 6 - kinematic heat conductance, m**2/s
 7 - modulus of horizontal velocity, m/s
 8 - Richardson number, n/d
   -0.000000   -0.00000  0.1149E-09  0.1219E-13  0.7603E-17  0.1000E-09  0.0000E+00  0.7376E+16
   -0.068746    0.11235  0.8514E-10  0.1219E-13  0.7603E-17  0.1000E-09  0.0000E+00  0.7128E+16
   -0.137492    0.22431  0.6410E-10  0.1219E-13  0.7603E-17  0.1000E-09  0.0000E+00  0.6880E+16
   -0.206239    0.33586  0.5257E-10  0.1219E-13  0.7603E-17  0.1000E-09  0.0000E+00  0.6633E+16
   -0.274987    0.44694  0.4712E-10  0.1219E-13  0.7603E-17  0.1000E-09  0.0000E+00  0.6388E+16
   -0.343735    0.55752  0.4485E-10  0.1219E-13  0.7603E-17  0.1000E-09  0.0000E+00  0.6144E+16
   -0.412484    0.66756  0.4401E-10  0.1219E-13  0.7603E-17  0.1000E-09  0.0000E+00  0.5903E+16
   -0.481233    0.77704  0.4373E-10  0.1219E-13  0.7603E-17  0.1000E-09  0.0000E+00  0.5664E+16
   -0.549982    0.88592  0.4364E-10  0.1219E-13  0.7603E-17  0.1000E-09  0.0000E+00  0.5428E+16
   -0.618732    0.99419  0.4362E-10  0.1219E-13  0.7603E-17  0.1000E-09  0.0000E+00  0.5195E+16
   -0.687483    1.10181  0.4361E-10  0.1219E-13  0.7603E-17  0.1000E-09  0.0000E+00  0.4971E+16
   -0.756233    1.20888  0.4361E-10  0.1219E-13  0.7603E-17  0.1000E-09  0.0000E+00  0.4752E+16
   -0.824984    1.31544  0.4361E-10  0.1219E-13  0.7603E-17  0.1000E-09  0.0000E+00  0.4536E+16
   -0.893736    1.42147  0.4360E-10  0.1219E-13  0.7603E-17  0.1000E-09  0.0000E+00  0.4322E+16
   -0.962487    1.52694  0.4358E-10  0.1219E-13  0.7603E-17  0.1000E-09  0.0000E+00  0.4111E+16
   -1.031239    1.63181  0.4355E-10  0.1219E-13  0.7603E-17  0.1000E-09  0.0000E+00  0.3902E+16
   -1.099991    1.73606  0.4351E-10  0.1219E-13  0.7603E-17  0.1000E-09  0.0000E+00  0.3695E+16
   -1.168743    1.83963  0.4344E-10  0.1219E-13  0.7603E-17  0.1000E-09  0.0000E+00  0.3492E+16
   -1.237495    1.94250  0.4334E-10  0.1219E-13  0.7603E-17  0.1000E-09  0.0000E+00  0.3291E+16
   -1.306247    2.04461  0.4323E-10  0.1219E-13  0.7603E-17  0.1000E-09  0.0000E+00  0.3093E+16
   -1.375000    2.14591  0.4310E-10  0.1219E-13  0.7603E-17  0.1000E-09  0.0000E+00  0.2901E+16
   -1.443752    2.24642  0.4298E-10  0.1219E-13  0.7603E-17  0.1000E-09  0.0000E+00  0.2712E+16
   -1.512504    2.34611  0.4288E-10  0.1219E-13  0.7603E-17  0.1000E-09  0.0000E+00  0.2526E+16
   -1.581256    2.44493  0.4280E-10  0.1219E-13  0.7603E-17  0.1000E-09  0.0000E+00  0.2343E+16
   -1.650008    2.54281  0.4274E-10  0.1219E-13  0.7603E-17  0.1000E-09  0.0000E+00  0.2165E+16
   -1.718760    2.63969  0.4270E-10  0.1219E-13  0.7603E-17  0.1000E-09  0.0000E+00  0.1991E+16
   -1.787512    2.73555  0.4267E-10  0.1219E-13  0.7603E-17  0.1000E-09  0.0000E+00  0.1840E+16
   -1.856264    2.83135  0.4263E-10  0.1219E-13  0.7603E-17  0.1000E-09  0.0000E+00  0.1691E+16
   -1.925015    2.92714  0.4259E-10  0.1219E-13  0.7603E-17  0.1000E-09  0.0000E+00  0.1543E+16
   -1.993766    3.02298  0.4253E-10  0.1219E-13  0.7603E-17  0.1000E-09  0.0000E+00  0.1393E+16
   -2.062517    3.11870  0.4246E-10  0.1219E-13  0.7603E-17  0.1000E-09  0.0000E+00  0.1239E+16
   -2.131267    3.21389  0.4239E-10  0.1219E-13  0.7603E-17  0.1000E-09  0.0000E+00  0.1087E+16
   -2.200017    3.30853  0.4233E-10  0.1219E-13  0.7603E-17  0.1000E-09  0.0000E+00  0.9387E+15
   -2.268767    3.40258  0.4228E-10  0.1219E-13  0.7603E-17  0.1000E-09  0.0000E+00  0.7962E+15
   -2.337516    3.49647  0.4224E-10  0.1514E-13  0.1259E-16  0.1000E-09  0.0000E+00  0.6569E+15
   -2.406264    3.59051  0.4222E-10  0.1043E-12  0.8676E-16  0.1000E-09  0.0000E+00  0.5192E+15
   -2.475013    3.68508  0.4221E-10  0.8143E-12  0.6610E-15  0.1000E-09  0.0000E+00  0.3817E+15
   -2.543760    3.78087  0.4221E-10  0.6391E-11  0.5093E-14  0.1006E-09  0.0000E+00  0.2412E+15
   -2.612507    3.87910  0.4221E-10  0.5169E-10  0.4107E-13  0.1774E-08  0.0000E+00  0.8999E+14
   -2.681254    3.98227  0.4221E-10  0.4441E-09  0.3746E-12  0.1921E-06  0.0000E+00 -0.2001E+14
   -2.749999    4.03703  0.4221E-10  0.0000E+00  0.0000E+00  0.0000E+00  0.0000E+00  0.0000E+00
