 1 - depth, m
 2 - temperature, C
 3 - salinity, kg/kg
 4 - turbulent kinetic energy, m**2/s**2
 5 - dissipation rate, m**2/s**3
 6 - kinematic heat conductance, m**2/s
 7 - modulus of horizontal velocity, m/s
 8 - Richardson number, n/d
   -0.000000   -0.00000  0.9173E-13  0.1219E-13  0.7603E-17  0.1000E-09  0.0000E+00  0.6696E+16
   -0.068746    0.10184  0.7409E-12  0.1219E-13  0.7603E-17  0.1000E-09  0.0000E+00  0.6621E+16
   -0.137493    0.20543  0.1499E-11  0.1219E-13  0.7603E-17  0.1000E-09  0.0000E+00  0.6532E+16
   -0.206240    0.31066  0.2008E-11  0.1219E-13  0.7603E-17  0.1000E-09  0.0000E+00  0.6428E+16
   -0.274988    0.41745  0.2203E-11  0.1219E-13  0.7603E-17  0.1000E-09  0.0000E+00  0.6310E+16
   -0.343737    0.52568  0.2182E-11  0.1219E-13  0.7603E-17  0.1000E-09  0.0000E+00  0.6179E+16
   -0.412486    0.63524  0.2065E-11  0.1219E-13  0.7603E-17  0.1000E-09  0.0000E+00  0.6034E+16
   -0.481235    0.74602  0.1935E-11  0.1219E-13  0.7603E-17  0.1000E-09  0.0000E+00  0.5878E+16
   -0.549985    0.85791  0.1831E-11  0.1219E-13  0.7603E-17  0.1000E-09  0.0000E+00  0.5710E+16
   -0.618736    0.97081  0.1761E-11  0.1219E-13  0.7603E-17  0.1000E-09  0.0000E+00  0.5533E+16
   -0.687486    1.08460  0.1720E-11  0.1219E-13  0.7603E-17  0.1000E-09  0.0000E+00  0.5347E+16
   -0.756237    1.19920  0.1697E-11  0.1219E-13  0.7603E-17  0.1000E-09  0.0000E+00  0.5152E+16
   -0.824989    1.31449  0.1686E-11  0.1219E-13  0.7603E-17  0.1000E-09  0.0000E+00  0.4950E+16
   -0.893740    1.43039  0.1681E-11  0.1219E-13  0.7603E-17  0.1000E-09  0.0000E+00  0.4742E+16
   -0.962492    1.54679  0.1678E-11  0.1219E-13  0.7603E-17  0.1000E-09  0.0000E+00  0.4528E+16
   -1.031244    1.66363  0.1677E-11  0.1219E-13  0.7603E-17  0.1000E-09  0.0000E+00  0.4310E+16
   -1.099997    1.78081  0.1675E-11  0.1219E-13  0.7603E-17  0.1000E-09  0.0000E+00  0.4089E+16
   -1.168749    1.89828  0.1672E-11  0.1219E-13  0.7603E-17  0.1000E-09  0.0000E+00  0.3864E+16
   -1.237502    2.01595  0.1669E-11  0.1219E-13  0.7603E-17  0.1000E-09  0.0000E+00  0.3638E+16
   -1.306254    2.13377  0.1666E-11  0.1219E-13  0.7603E-17  0.1000E-09  0.0000E+00  0.3410E+16
   -1.375007    2.25170  0.1662E-11  0.1219E-13  0.7603E-17  0.1000E-09  0.0000E+00  0.3181E+16
   -1.443760    2.36970  0.1657E-11  0.1219E-13  0.7603E-17  0.1000E-09  0.0000E+00  0.2952E+16
   -1.512512    2.48772  0.1652E-11  0.1219E-13  0.7603E-17  0.1000E-09  0.0000E+00  0.2724E+16
   -1.581265    2.60575  0.1648E-11  0.1219E-13  0.7603E-17  0.1000E-09  0.0000E+00  0.2495E+16
   -1.650017    2.72376  0.1644E-11  0.1219E-13  0.7603E-17  0.1000E-09  0.0000E+00  0.2267E+16
   -1.718769    2.84172  0.1641E-11  0.1219E-13  0.7603E-17  0.1000E-09  0.0000E+00  0.2039E+16
   -1.787522    2.95954  0.1638E-11  0.3531E-13  0.9752E-17  0.1000E-09  0.0000E+00  0.1784E+16
   -1.856273    3.07531  0.1636E-11  0.1253E-12  0.2882E-16  0.1000E-09  0.0000E+00  0.1536E+16
   -1.925025    3.18856  0.1634E-11  0.4165E-12  0.9112E-16  0.1000E-09  0.0000E+00  0.1296E+16
   -1.993776    3.29863  0.1632E-11  0.1352E-11  0.2855E-15  0.1000E-09  0.0000E+00  0.1072E+16
   -2.062528    3.40543  0.1631E-11  0.4226E-11  0.8629E-15  0.1000E-09  0.0000E+00  0.8855E+15
   -2.131278    3.51164  0.1630E-11  0.1298E-10  0.2564E-14  0.1000E-09  0.0000E+00  0.7042E+15
   -2.200029    3.61753  0.1629E-11  0.3931E-10  0.7519E-14  0.1000E-09  0.0000E+00  0.5252E+15
   -2.268779    3.72309  0.1629E-11  0.1187E-09  0.2198E-13  0.3204E-09  0.0000E+00  0.3477E+15
   -2.337528    3.82808  0.1629E-11  0.3606E-09  0.6476E-13  0.1892E-08  0.0000E+00  0.1728E+15
   -2.406277    3.93144  0.1629E-11  0.1071E-08  0.1872E-12  0.4619E-07  0.0000E+00  0.1932E+14
   -2.475026    4.00970  0.1629E-11  0.2164E-08  0.3839E-12  0.5629E-05  0.0000E+00 -0.9756E+12
   -2.543774    4.01222  0.1629E-11  0.2507E-08  0.4991E-12  0.5103E-05  0.0000E+00 -0.1170E+13
   -2.612521    4.01496  0.1629E-11  0.2530E-08  0.6828E-12  0.3221E-05  0.0000E+00 -0.1990E+13
   -2.681268    4.01910  0.1629E-11  0.1856E-08  0.1451E-11  0.5319E-06  0.0000E+00 -0.1200E+14
   -2.750014    4.03738  0.1629E-11  0.0000E+00  0.0000E+00  0.0000E+00  0.0000E+00  0.0000E+00
