 1 - depth, m
 2 - temperature, C
 3 - salinity, kg/kg
 4 - turbulent kinetic energy, m**2/s**2
 5 - dissipation rate, m**2/s**3
 6 - kinematic heat conductance, m**2/s
 7 - modulus of horizontal velocity, m/s
 8 - Richardson number, n/d
   -0.000000   -0.00000  0.5592E-12  0.1219E-13  0.7603E-17  0.1000E-09  0.0000E+00  0.7015E+16
   -0.068746    0.10675  0.2434E-11  0.1219E-13  0.7603E-17  0.1000E-09  0.0000E+00  0.6929E+16
   -0.137493    0.21537  0.3618E-11  0.1219E-13  0.7603E-17  0.1000E-09  0.0000E+00  0.6824E+16
   -0.206240    0.32570  0.3999E-11  0.1219E-13  0.7603E-17  0.1000E-09  0.0000E+00  0.6699E+16
   -0.274988    0.43756  0.3912E-11  0.1219E-13  0.7603E-17  0.1000E-09  0.0000E+00  0.6557E+16
   -0.343736    0.55080  0.3648E-11  0.1219E-13  0.7603E-17  0.1000E-09  0.0000E+00  0.6399E+16
   -0.412485    0.66524  0.3375E-11  0.1219E-13  0.7603E-17  0.1000E-09  0.0000E+00  0.6225E+16
   -0.481234    0.78073  0.3167E-11  0.1219E-13  0.7603E-17  0.1000E-09  0.0000E+00  0.6039E+16
   -0.549984    0.89711  0.3035E-11  0.1219E-13  0.7603E-17  0.1000E-09  0.0000E+00  0.5841E+16
   -0.618734    1.01424  0.2960E-11  0.1219E-13  0.7603E-17  0.1000E-09  0.0000E+00  0.5632E+16
   -0.687485    1.13197  0.2923E-11  0.1219E-13  0.7603E-17  0.1000E-09  0.0000E+00  0.5416E+16
   -0.756236    1.25018  0.2905E-11  0.1219E-13  0.7603E-17  0.1000E-09  0.0000E+00  0.5192E+16
   -0.824987    1.36876  0.2897E-11  0.1219E-13  0.7603E-17  0.1000E-09  0.0000E+00  0.4963E+16
   -0.893739    1.48760  0.2893E-11  0.1219E-13  0.7603E-17  0.1000E-09  0.0000E+00  0.4728E+16
   -0.962491    1.60657  0.2890E-11  0.1219E-13  0.7603E-17  0.1000E-09  0.0000E+00  0.4491E+16
   -1.031243    1.72560  0.2887E-11  0.1219E-13  0.7603E-17  0.1000E-09  0.0000E+00  0.4251E+16
   -1.099995    1.84460  0.2882E-11  0.1219E-13  0.7603E-17  0.1000E-09  0.0000E+00  0.4010E+16
   -1.168747    1.96348  0.2876E-11  0.1219E-13  0.7603E-17  0.1000E-09  0.0000E+00  0.3768E+16
   -1.237499    2.08220  0.2869E-11  0.1219E-13  0.7603E-17  0.1000E-09  0.0000E+00  0.3527E+16
   -1.306252    2.20068  0.2861E-11  0.1219E-13  0.7603E-17  0.1000E-09  0.0000E+00  0.3287E+16
   -1.375004    2.31891  0.2852E-11  0.1219E-13  0.7603E-17  0.1000E-09  0.0000E+00  0.3049E+16
   -1.443757    2.43686  0.2844E-11  0.1219E-13  0.7603E-17  0.1000E-09  0.0000E+00  0.2814E+16
   -1.512509    2.55452  0.2835E-11  0.1219E-13  0.7603E-17  0.1000E-09  0.0000E+00  0.2581E+16
   -1.581262    2.67189  0.2828E-11  0.1219E-13  0.7603E-17  0.1000E-09  0.0000E+00  0.2350E+16
   -1.650014    2.78898  0.2822E-11  0.3054E-13  0.7642E-17  0.1000E-09  0.0000E+00  0.2122E+16
   -1.718766    2.90578  0.2818E-11  0.9695E-13  0.1704E-16  0.1000E-09  0.0000E+00  0.1896E+16
   -1.787518    3.02227  0.2814E-11  0.2781E-12  0.4520E-16  0.1000E-09  0.0000E+00  0.1651E+16
   -1.856270    3.13685  0.2811E-11  0.7736E-12  0.1211E-15  0.1000E-09  0.0000E+00  0.1413E+16
   -1.925022    3.24916  0.2809E-11  0.2122E-11  0.3219E-15  0.1000E-09  0.0000E+00  0.1184E+16
   -1.993773    3.35869  0.2807E-11  0.5768E-11  0.8491E-15  0.1000E-09  0.0000E+00  0.9689E+15
   -2.062524    3.46543  0.2805E-11  0.1520E-10  0.2172E-14  0.1000E-09  0.0000E+00  0.7851E+15
   -2.131274    3.57179  0.2804E-11  0.3947E-10  0.5479E-14  0.1000E-09  0.0000E+00  0.6052E+15
   -2.200025    3.67810  0.2804E-11  0.1014E-09  0.1368E-13  0.1631E-09  0.0000E+00  0.4264E+15
   -2.268774    3.78438  0.2803E-11  0.2604E-09  0.3415E-13  0.6997E-09  0.0000E+00  0.2478E+15
   -2.337524    3.89034  0.2803E-11  0.6734E-09  0.8590E-13  0.6039E-08  0.0000E+00  0.7189E+14
   -2.406273    3.99261  0.2803E-11  0.1302E-08  0.1661E-12  0.3929E-05  0.0000E+00 -0.4691E+12
   -2.475021    3.99631  0.2803E-11  0.1612E-08  0.2273E-12  0.4503E-05  0.0000E+00 -0.5792E+12
   -2.543769    3.99951  0.2803E-11  0.1804E-08  0.3078E-12  0.3979E-05  0.0000E+00 -0.8317E+12
   -2.612516    4.00305  0.2803E-11  0.1825E-08  0.4592E-12  0.2423E-05  0.0000E+00 -0.1704E+13
   -2.681263    4.00862  0.2803E-11  0.1413E-08  0.1061E-11  0.4484E-06  0.0000E+00 -0.1180E+14
   -2.750009    4.03109  0.2803E-11  0.0000E+00  0.0000E+00  0.0000E+00  0.0000E+00  0.0000E+00
