 1 - depth, m
 2 - temperature, C
 3 - salinity, kg/kg
 4 - turbulent kinetic energy, m**2/s**2
 5 - dissipation rate, m**2/s**3
 6 - kinematic heat conductance, m**2/s
 7 - modulus of horizontal velocity, m/s
 8 - Richardson number, n/d
   -0.000000   -0.03452  0.1447E-10  0.2213E-04  0.2272E-05  0.3478E-04  0.4450E-01  0.1703E-01
   -0.068746   -0.00129  0.1447E-10  0.1724E-04  0.5754E-06  0.7129E-04  0.3083E-01  0.1136E-01
   -0.137492    0.00597  0.1447E-10  0.1548E-04  0.2729E-06  0.1020E-03  0.2646E-01  0.2310E-01
   -0.206239    0.00999  0.1447E-10  0.1425E-04  0.1659E-06  0.1273E-03  0.2364E-01  0.3165E-01
   -0.274987    0.01308  0.1447E-10  0.1325E-04  0.1158E-06  0.1477E-03  0.2156E-01  0.4057E-01
   -0.343735    0.01563  0.1447E-10  0.1237E-04  0.8734E-07  0.1635E-03  0.1991E-01  0.4997E-01
   -0.412484    0.01783  0.1447E-10  0.1158E-04  0.6905E-07  0.1752E-03  0.1854E-01  0.5994E-01
   -0.481233    0.01981  0.1448E-10  0.1083E-04  0.5630E-07  0.1831E-03  0.1736E-01  0.7062E-01
   -0.549983    0.02163  0.1448E-10  0.1014E-04  0.4689E-07  0.1877E-03  0.1633E-01  0.8215E-01
   -0.618733    0.02334  0.1448E-10  0.9480E-05  0.3967E-07  0.1894E-03  0.1540E-01  0.9471E-01
   -0.687483    0.02498  0.1448E-10  0.8858E-05  0.3398E-07  0.1883E-03  0.1455E-01  0.1085E+00
   -0.756234    0.02658  0.1448E-10  0.8268E-05  0.2938E-07  0.1849E-03  0.1378E-01  0.1237E+00
   -0.824985    0.02816  0.1448E-10  0.7708E-05  0.2561E-07  0.1794E-03  0.1305E-01  0.1405E+00
   -0.893737    0.02974  0.1448E-10  0.7176E-05  0.2247E-07  0.1721E-03  0.1237E-01  0.1594E+00
   -0.962488    0.03134  0.1448E-10  0.6673E-05  0.1985E-07  0.1633E-03  0.1173E-01  0.1807E+00
   -1.031240    0.03298  0.1448E-10  0.6199E-05  0.1764E-07  0.1534E-03  0.1112E-01  0.2048E+00
   -1.099992    0.03469  0.1448E-10  0.5753E-05  0.1579E-07  0.1427E-03  0.1053E-01  0.2324E+00
   -1.168744    0.03650  0.1448E-10  0.5339E-05  0.1426E-07  0.1316E-03  0.9960E-02  0.2644E+00
   -1.237497    0.03843  0.1448E-10  0.4959E-05  0.1301E-07  0.1207E-03  0.9405E-02  0.3018E+00
   -1.306249    0.04053  0.1448E-10  0.4621E-05  0.1207E-07  0.1107E-03  0.8860E-02  0.3463E+00
   -1.375001    0.04285  0.1448E-10  0.4333E-05  0.1143E-07  0.1022E-03  0.8320E-02  0.4005E+00
   -1.443754    0.04549  0.1448E-10  0.4106E-05  0.1115E-07  0.9578E-04  0.7781E-02  0.4677E+00
   -1.512506    0.04860  0.1448E-10  0.3955E-05  0.1131E-07  0.9213E-04  0.7233E-02  0.5530E+00
   -1.581258    0.05251  0.1448E-10  0.3898E-05  0.1201E-07  0.9115E-04  0.6660E-02  0.7344E+00
   -1.650010    0.05822  0.1448E-10  0.4061E-05  0.1428E-07  0.5448E-04  0.6006E-02  0.8986E+00
   -1.718762    0.07317  0.1448E-10  0.3549E-05  0.1233E-07  0.7139E-04  0.3206E-02  0.1620E+01
   -1.787514    0.12305  0.1448E-10  0.2675E-05  0.8539E-08  0.6771E-04  0.1045E-02  0.1326E+03
   -1.856266    0.17772  0.1448E-10  0.2119E-05  0.6261E-08  0.5524E-04  0.6270E-03  0.1454E+05
   -1.925017    0.22022  0.1448E-10  0.1674E-05  0.4593E-08  0.8031E-04  0.3926E-03 -0.2150E+06
   -1.993768    0.23413  0.1448E-10  0.1342E-05  0.3443E-08  0.9446E-04  0.2786E-03 -0.3910E+07
   -2.062519    0.23646  0.1448E-10  0.1059E-05  0.2571E-08  0.3710E-04  0.2109E-03  0.1725E+07
   -2.131270    0.24001  0.1448E-10  0.8094E-06  0.1883E-08  0.1654E-04  0.1538E-03  0.1866E+10
   -2.200020    0.27801  0.1448E-10  0.5770E-06  0.1318E-08  0.9116E-05  0.1048E-03  0.1071E+13
   -2.268769    0.38418  0.1448E-10  0.3857E-06  0.8647E-09  0.4612E-05  0.5824E-04  0.5541E+15
   -2.337519    0.55340  0.1448E-10  0.2418E-06  0.5322E-09  0.2084E-05  0.2866E-04  0.9239E+16
   -2.406267    0.80150  0.1448E-10  0.1462E-06  0.3148E-09  0.6088E-06  0.1299E-04  0.1219E+17
   -2.475016    1.17043  0.1448E-10  0.7248E-07  0.1522E-09  0.4881E-07  0.4979E-05  0.1446E+17
   -2.543763    1.76399  0.1448E-10  0.1173E-07  0.2549E-10  0.2640E-08  0.4640E-06  0.1616E+17
   -2.612510    2.73914  0.1449E-10  0.1073E-08  0.3257E-11  0.3705E-09  0.9083E-08  0.8964E+16
   -2.681257    3.87159  0.1450E-10  0.1094E-09  0.1212E-11  0.2370E-09  0.1013E-09 -0.4093E+16
   -2.750003    4.64566  0.1451E-10  0.0000E+00  0.0000E+00  0.0000E+00  0.1052E-09  0.0000E+00
