 1 - depth, m
 2 - temperature, C
 3 - salinity, kg/kg
 4 - turbulent kinetic energy, m**2/s**2
 5 - dissipation rate, m**2/s**3
 6 - kinematic heat conductance, m**2/s
 7 - modulus of horizontal velocity, m/s
 8 - Richardson number, n/d
   -0.000000   -0.00000  0.7665E-13  0.1219E-13  0.7603E-17  0.1000E-09  0.0000E+00  0.6797E+16
   -0.068746    0.10339  0.6075E-12  0.1219E-13  0.7603E-17  0.1000E-09  0.0000E+00  0.6737E+16
   -0.137493    0.20886  0.1094E-11  0.1219E-13  0.7603E-17  0.1000E-09  0.0000E+00  0.6655E+16
   -0.206240    0.31621  0.1335E-11  0.1219E-13  0.7603E-17  0.1000E-09  0.0000E+00  0.6551E+16
   -0.274988    0.42525  0.1367E-11  0.1219E-13  0.7603E-17  0.1000E-09  0.0000E+00  0.6429E+16
   -0.343736    0.53581  0.1293E-11  0.1219E-13  0.7603E-17  0.1000E-09  0.0000E+00  0.6290E+16
   -0.412485    0.64775  0.1194E-11  0.1219E-13  0.7603E-17  0.1000E-09  0.0000E+00  0.6137E+16
   -0.481235    0.76091  0.1110E-11  0.1219E-13  0.7603E-17  0.1000E-09  0.0000E+00  0.5970E+16
   -0.549984    0.87517  0.1052E-11  0.1219E-13  0.7603E-17  0.1000E-09  0.0000E+00  0.5791E+16
   -0.618735    0.99038  0.1018E-11  0.1219E-13  0.7603E-17  0.1000E-09  0.0000E+00  0.5601E+16
   -0.687485    1.10643  0.1000E-11  0.1219E-13  0.7603E-17  0.1000E-09  0.0000E+00  0.5402E+16
   -0.756236    1.22319  0.9916E-12  0.1219E-13  0.7603E-17  0.1000E-09  0.0000E+00  0.5194E+16
   -0.824988    1.34054  0.9875E-12  0.1219E-13  0.7603E-17  0.1000E-09  0.0000E+00  0.4979E+16
   -0.893739    1.45839  0.9855E-12  0.1219E-13  0.7603E-17  0.1000E-09  0.0000E+00  0.4758E+16
   -0.962491    1.57663  0.9843E-12  0.1219E-13  0.7603E-17  0.1000E-09  0.0000E+00  0.4532E+16
   -1.031243    1.69515  0.9831E-12  0.1219E-13  0.7603E-17  0.1000E-09  0.0000E+00  0.4303E+16
   -1.099995    1.81389  0.9816E-12  0.1219E-13  0.7603E-17  0.1000E-09  0.0000E+00  0.4070E+16
   -1.168747    1.93275  0.9797E-12  0.1219E-13  0.7603E-17  0.1000E-09  0.0000E+00  0.3836E+16
   -1.237500    2.05168  0.9774E-12  0.1219E-13  0.7603E-17  0.1000E-09  0.0000E+00  0.3600E+16
   -1.306252    2.17061  0.9747E-12  0.1219E-13  0.7603E-17  0.1000E-09  0.0000E+00  0.3364E+16
   -1.375005    2.28950  0.9718E-12  0.1219E-13  0.7603E-17  0.1000E-09  0.0000E+00  0.3129E+16
   -1.443757    2.40834  0.9688E-12  0.1219E-13  0.7603E-17  0.1000E-09  0.0000E+00  0.2894E+16
   -1.512510    2.52709  0.9660E-12  0.1219E-13  0.7603E-17  0.1000E-09  0.0000E+00  0.2661E+16
   -1.581262    2.64576  0.9635E-12  0.1219E-13  0.7603E-17  0.1000E-09  0.0000E+00  0.2429E+16
   -1.650015    2.76433  0.9614E-12  0.1226E-13  0.7603E-17  0.1000E-09  0.0000E+00  0.2199E+16
   -1.718767    2.88283  0.9596E-12  0.4932E-13  0.1019E-16  0.1000E-09  0.0000E+00  0.1969E+16
   -1.787519    3.00120  0.9583E-12  0.1545E-12  0.2578E-16  0.1000E-09  0.0000E+00  0.1714E+16
   -1.856271    3.11754  0.9572E-12  0.4375E-12  0.6903E-16  0.1000E-09  0.0000E+00  0.1467E+16
   -1.925022    3.23143  0.9563E-12  0.1202E-11  0.1833E-15  0.1000E-09  0.0000E+00  0.1228E+16
   -1.993774    3.34228  0.9556E-12  0.3264E-11  0.4831E-15  0.1000E-09  0.0000E+00  0.1006E+16
   -2.062525    3.45005  0.9550E-12  0.8588E-11  0.1235E-14  0.1000E-09  0.0000E+00  0.8184E+15
   -2.131275    3.55749  0.9546E-12  0.2227E-10  0.3112E-14  0.1000E-09  0.0000E+00  0.6350E+15
   -2.200025    3.66491  0.9544E-12  0.5722E-10  0.7772E-14  0.1005E-09  0.0000E+00  0.4524E+15
   -2.268775    3.77233  0.9542E-12  0.1469E-09  0.1940E-13  0.3653E-09  0.0000E+00  0.2699E+15
   -2.337525    3.87946  0.9541E-12  0.3808E-09  0.4894E-13  0.2774E-08  0.0000E+00  0.8947E+14
   -2.406274    3.98448  0.9541E-12  0.8370E-09  0.1066E-12  0.1616E-05  0.0000E+00 -0.3348E+12
   -2.475022    3.99337  0.9541E-12  0.1226E-08  0.1792E-12  0.3277E-05  0.0000E+00 -0.6212E+12
   -2.543770    3.99767  0.9541E-12  0.1480E-08  0.2649E-12  0.3184E-05  0.0000E+00 -0.9267E+12
   -2.612517    4.00204  0.9541E-12  0.1566E-08  0.4120E-12  0.2063E-05  0.0000E+00 -0.1901E+13
   -2.681264    4.00844  0.9541E-12  0.1253E-08  0.9361E-12  0.4130E-06  0.0000E+00 -0.1208E+14
   -2.750010    4.03139  0.9541E-12  0.0000E+00  0.0000E+00  0.0000E+00  0.0000E+00  0.0000E+00
