 1 - depth, m
 2 - temperature, C
 3 - salinity, kg/kg
 4 - turbulent kinetic energy, m**2/s**2
 5 - dissipation rate, m**2/s**3
 6 - kinematic heat conductance, m**2/s
 7 - modulus of horizontal velocity, m/s
 8 - Richardson number, n/d
   -0.000000   -0.00000  0.5974E-11  0.1219E-13  0.7603E-17  0.1000E-09  0.0000E+00  0.5913E+16
   -0.068746    0.08978  0.3304E-11  0.1219E-13  0.7603E-17  0.1000E-09  0.0000E+00  0.5689E+16
   -0.137492    0.17830  0.2477E-11  0.1219E-13  0.7603E-17  0.1000E-09  0.0000E+00  0.5506E+16
   -0.206239    0.26611  0.2267E-11  0.1219E-13  0.7603E-17  0.1000E-09  0.0000E+00  0.5360E+16
   -0.274986    0.35376  0.2220E-11  0.1219E-13  0.7603E-17  0.1000E-09  0.0000E+00  0.5247E+16
   -0.343735    0.44179  0.2211E-11  0.1219E-13  0.7603E-17  0.1000E-09  0.0000E+00  0.5162E+16
   -0.412483    0.53071  0.2209E-11  0.1219E-13  0.7603E-17  0.1000E-09  0.0000E+00  0.5101E+16
   -0.481232    0.62104  0.2209E-11  0.1219E-13  0.7603E-17  0.1000E-09  0.0000E+00  0.5062E+16
   -0.549982    0.71328  0.2209E-11  0.1219E-13  0.7603E-17  0.1000E-09  0.0000E+00  0.5039E+16
   -0.618732    0.80792  0.2209E-11  0.1219E-13  0.7603E-17  0.1000E-09  0.0000E+00  0.5029E+16
   -0.687482    0.90540  0.2209E-11  0.1219E-13  0.7603E-17  0.1000E-09  0.0000E+00  0.5040E+16
   -0.756233    1.00648  0.2209E-11  0.1219E-13  0.7603E-17  0.1000E-09  0.0000E+00  0.5060E+16
   -0.824984    1.11171  0.2209E-11  0.1219E-13  0.7603E-17  0.1000E-09  0.0000E+00  0.5076E+16
   -0.893735    1.22150  0.2209E-11  0.1219E-13  0.7603E-17  0.1000E-09  0.0000E+00  0.5081E+16
   -0.962486    1.33618  0.2209E-11  0.1219E-13  0.7603E-17  0.1000E-09  0.0000E+00  0.5072E+16
   -1.031238    1.45606  0.2208E-11  0.4965E-13  0.8103E-17  0.1000E-09  0.0000E+00  0.5042E+16
   -1.099990    1.58140  0.2207E-11  0.1384E-12  0.1646E-16  0.1000E-09  0.0000E+00  0.4986E+16
   -1.168742    1.71242  0.2204E-11  0.3313E-12  0.3637E-16  0.1000E-09  0.0000E+00  0.4899E+16
   -1.237494    1.84928  0.2198E-11  0.7540E-12  0.7981E-16  0.1000E-09  0.0000E+00  0.4777E+16
   -1.306246    1.99209  0.2188E-11  0.1681E-11  0.1730E-15  0.1000E-09  0.0000E+00  0.4615E+16
   -1.374998    2.14090  0.2177E-11  0.3702E-11  0.3712E-15  0.1000E-09  0.0000E+00  0.4420E+16
   -1.443750    2.29604  0.2166E-11  0.8068E-11  0.7889E-15  0.1000E-09  0.0000E+00  0.4178E+16
   -1.512503    2.45754  0.2159E-11  0.1742E-10  0.1661E-14  0.1000E-09  0.0000E+00  0.3886E+16
   -1.581255    2.62529  0.2155E-11  0.3727E-10  0.3467E-14  0.1000E-09  0.0000E+00  0.3541E+16
   -1.650007    2.79913  0.2153E-11  0.7903E-10  0.7175E-14  0.1000E-09  0.0000E+00  0.3144E+16
   -1.718759    2.97888  0.2151E-11  0.1662E-09  0.1472E-13  0.1000E-09  0.0000E+00  0.2698E+16
   -1.787510    3.16444  0.2150E-11  0.3543E-09  0.3064E-13  0.1000E-09  0.0000E+00  0.2235E+16
   -1.856262    3.35904  0.2149E-11  0.7627E-09  0.6440E-13  0.1937E-09  0.0000E+00  0.1693E+16
   -1.925013    3.56299  0.2147E-11  0.1641E-08  0.1354E-12  0.6486E-09  0.0000E+00  0.1062E+16
   -1.993764    3.77593  0.2143E-11  0.3521E-08  0.2838E-12  0.4160E-08  0.0000E+00  0.3473E+15
   -2.062515    3.99137  0.2141E-11  0.4306E-08  0.3496E-12  0.1683E-04  0.0000E+00 -0.1723E+12
   -2.131265    3.99321  0.2141E-11  0.4691E-08  0.3909E-12  0.1959E-04  0.0000E+00 -0.1909E+12
   -2.200015    3.99479  0.2141E-11  0.5026E-08  0.4365E-12  0.2113E-04  0.0000E+00 -0.2124E+12
   -2.268764    3.99626  0.2141E-11  0.5313E-08  0.4884E-12  0.2162E-04  0.0000E+00 -0.2409E+12
   -2.337513    3.99770  0.2141E-11  0.5555E-08  0.5521E-12  0.2103E-04  0.0000E+00 -0.2822E+12
   -2.406262    3.99918  0.2141E-11  0.5746E-08  0.6355E-12  0.1932E-04  0.0000E+00 -0.3477E+12
   -2.475010    4.00081  0.2141E-11  0.5866E-08  0.7568E-12  0.1636E-04  0.0000E+00 -0.4656E+12
   -2.543758    4.00273  0.2141E-11  0.5873E-08  0.9642E-12  0.1206E-04  0.0000E+00 -0.7291E+12
   -2.612504    4.00535  0.2141E-11  0.5631E-08  0.1451E-11  0.6476E-05  0.0000E+00 -0.1662E+13
   -2.681251    4.01028  0.2141E-11  0.4368E-08  0.4037E-11  0.1079E-05  0.0000E+00 -0.1712E+14
   -2.749996    4.03885  0.2141E-11  0.0000E+00  0.0000E+00  0.0000E+00  0.0000E+00  0.0000E+00
