 1 - depth, m
 2 - temperature, C
 3 - salinity, kg/kg
 4 - turbulent kinetic energy, m**2/s**2
 5 - dissipation rate, m**2/s**3
 6 - kinematic heat conductance, m**2/s
 7 - modulus of horizontal velocity, m/s
 8 - Richardson number, n/d
   -0.000000   -0.00000  0.3616E-12  0.1218E-13  0.7603E-17  0.1000E-09  0.0000E+00  0.5630E+16
   -0.068747    0.08543  0.7719E-11  0.1218E-13  0.7603E-17  0.1000E-09  0.0000E+00  0.5824E+16
   -0.137495    0.17596  0.1675E-10  0.1218E-13  0.7603E-17  0.1000E-09  0.0000E+00  0.5864E+16
   -0.206243    0.26950  0.2320E-10  0.1218E-13  0.7603E-17  0.1000E-09  0.0000E+00  0.5828E+16
   -0.274992    0.36501  0.2592E-10  0.1218E-13  0.7603E-17  0.1000E-09  0.0000E+00  0.5755E+16
   -0.343742    0.46201  0.2591E-10  0.1218E-13  0.7603E-17  0.1000E-09  0.0000E+00  0.5661E+16
   -0.412492    0.56028  0.2460E-10  0.1218E-13  0.7603E-17  0.1000E-09  0.0000E+00  0.5553E+16
   -0.481242    0.65966  0.2304E-10  0.1218E-13  0.7603E-17  0.1000E-09  0.0000E+00  0.5434E+16
   -0.549993    0.76004  0.2175E-10  0.1218E-13  0.7603E-17  0.1000E-09  0.0000E+00  0.5306E+16
   -0.618744    0.86134  0.2087E-10  0.1218E-13  0.7603E-17  0.1000E-09  0.0000E+00  0.5168E+16
   -0.687496    0.96345  0.2034E-10  0.1218E-13  0.7603E-17  0.1000E-09  0.0000E+00  0.5023E+16
   -0.756248    1.06628  0.2006E-10  0.1218E-13  0.7603E-17  0.1000E-09  0.0000E+00  0.4870E+16
   -0.825001    1.16974  0.1991E-10  0.1218E-13  0.7603E-17  0.1000E-09  0.0000E+00  0.4711E+16
   -0.893753    1.27377  0.1984E-10  0.1218E-13  0.7603E-17  0.1000E-09  0.0000E+00  0.4546E+16
   -0.962506    1.37827  0.1981E-10  0.1218E-13  0.7603E-17  0.1000E-09  0.0000E+00  0.4376E+16
   -1.031259    1.48316  0.1979E-10  0.1218E-13  0.7603E-17  0.1000E-09  0.0000E+00  0.4202E+16
   -1.100013    1.58839  0.1976E-10  0.1218E-13  0.7603E-17  0.1000E-09  0.0000E+00  0.4024E+16
   -1.168766    1.69388  0.1974E-10  0.1218E-13  0.7603E-17  0.1000E-09  0.0000E+00  0.3844E+16
   -1.237520    1.79957  0.1970E-10  0.1218E-13  0.7603E-17  0.1000E-09  0.0000E+00  0.3661E+16
   -1.306273    1.90541  0.1966E-10  0.1218E-13  0.7603E-17  0.1000E-09  0.0000E+00  0.3477E+16
   -1.375027    2.01136  0.1961E-10  0.1218E-13  0.7603E-17  0.1000E-09  0.0000E+00  0.3293E+16
   -1.443780    2.11741  0.1956E-10  0.1218E-13  0.7603E-17  0.1000E-09  0.0000E+00  0.3108E+16
   -1.512534    2.22355  0.1950E-10  0.1218E-13  0.7603E-17  0.1000E-09  0.0000E+00  0.2924E+16
   -1.581288    2.32977  0.1945E-10  0.1218E-13  0.7603E-17  0.1000E-09  0.0000E+00  0.2740E+16
   -1.650041    2.43610  0.1941E-10  0.1218E-13  0.7603E-17  0.1000E-09  0.0000E+00  0.2559E+16
   -1.718794    2.54265  0.1937E-10  0.1218E-13  0.7603E-17  0.1000E-09  0.0000E+00  0.2383E+16
   -1.787547    2.64967  0.1933E-10  0.1218E-13  0.7603E-17  0.1000E-09  0.0000E+00  0.2171E+16
   -1.856300    2.75546  0.1931E-10  0.1218E-13  0.7603E-17  0.1000E-09  0.0000E+00  0.1966E+16
   -1.925053    2.85994  0.1929E-10  0.1218E-13  0.7603E-17  0.1000E-09  0.0000E+00  0.1761E+16
   -1.993805    2.96274  0.1927E-10  0.1218E-13  0.7603E-17  0.1000E-09  0.0000E+00  0.1565E+16
   -2.062557    3.06383  0.1925E-10  0.1218E-13  0.7603E-17  0.1000E-09  0.0000E+00  0.1400E+16
   -2.131309    3.16496  0.1923E-10  0.1218E-13  0.7603E-17  0.1000E-09  0.0000E+00  0.1238E+16
   -2.200060    3.26621  0.1922E-10  0.1218E-13  0.7603E-17  0.1000E-09  0.0000E+00  0.1075E+16
   -2.268811    3.36769  0.1920E-10  0.1218E-13  0.7603E-17  0.1000E-09  0.0000E+00  0.9108E+15
   -2.337562    3.46915  0.1919E-10  0.1218E-13  0.8259E-17  0.1000E-09  0.0000E+00  0.7464E+15
   -2.406312    3.57054  0.1919E-10  0.6360E-13  0.4580E-16  0.1000E-09  0.0000E+00  0.5832E+15
   -2.475061    3.67192  0.1918E-10  0.4489E-12  0.3136E-15  0.1000E-09  0.0000E+00  0.4206E+15
   -2.543810    3.77330  0.1918E-10  0.3198E-11  0.2173E-14  0.1000E-09  0.0000E+00  0.2589E+15
   -2.612559    3.87491  0.1918E-10  0.2343E-10  0.1566E-13  0.6910E-09  0.0000E+00  0.9656E+14
   -2.681306    3.97594  0.1918E-10  0.1855E-09  0.1274E-12  0.1029E-06  0.0000E+00 -0.1347E+14
   -2.750054    4.02911  0.1918E-10  0.0000E+00  0.0000E+00  0.0000E+00  0.0000E+00  0.0000E+00
