 1 - depth, m
 2 - temperature, C
 3 - salinity, kg/kg
 4 - turbulent kinetic energy, m**2/s**2
 5 - dissipation rate, m**2/s**3
 6 - kinematic heat conductance, m**2/s
 7 - modulus of horizontal velocity, m/s
 8 - Richardson number, n/d
   -0.000000   -0.00000  0.1043E-10  0.1219E-13  0.7603E-17  0.1000E-09  0.0000E+00  0.5860E+16
   -0.068746    0.08897  0.5722E-11  0.1219E-13  0.7603E-17  0.1000E-09  0.0000E+00  0.5636E+16
   -0.137492    0.17663  0.4279E-11  0.1219E-13  0.7603E-17  0.1000E-09  0.0000E+00  0.5451E+16
   -0.206239    0.26352  0.3911E-11  0.1219E-13  0.7603E-17  0.1000E-09  0.0000E+00  0.5303E+16
   -0.274986    0.35015  0.3828E-11  0.1219E-13  0.7603E-17  0.1000E-09  0.0000E+00  0.5186E+16
   -0.343735    0.43705  0.3811E-11  0.1219E-13  0.7603E-17  0.1000E-09  0.0000E+00  0.5097E+16
   -0.412483    0.52473  0.3808E-11  0.1219E-13  0.7603E-17  0.1000E-09  0.0000E+00  0.5033E+16
   -0.481232    0.61367  0.3808E-11  0.1219E-13  0.7603E-17  0.1000E-09  0.0000E+00  0.4990E+16
   -0.549982    0.70435  0.3808E-11  0.1219E-13  0.7603E-17  0.1000E-09  0.0000E+00  0.4963E+16
   -0.618732    0.79725  0.3808E-11  0.1219E-13  0.7603E-17  0.1000E-09  0.0000E+00  0.4948E+16
   -0.687482    0.89282  0.3808E-11  0.1219E-13  0.7603E-17  0.1000E-09  0.0000E+00  0.4956E+16
   -0.756233    0.99174  0.3808E-11  0.1219E-13  0.7603E-17  0.1000E-09  0.0000E+00  0.4974E+16
   -0.824984    1.09459  0.3808E-11  0.1219E-13  0.7603E-17  0.1000E-09  0.0000E+00  0.4988E+16
   -0.893735    1.20175  0.3808E-11  0.1219E-13  0.7603E-17  0.1000E-09  0.0000E+00  0.4994E+16
   -0.962486    1.31355  0.3808E-11  0.1219E-13  0.7603E-17  0.1000E-09  0.0000E+00  0.4987E+16
   -1.031238    1.43028  0.3807E-11  0.1219E-13  0.7603E-17  0.1000E-09  0.0000E+00  0.4961E+16
   -1.099990    1.55220  0.3804E-11  0.1487E-13  0.7603E-17  0.1000E-09  0.0000E+00  0.4911E+16
   -1.168742    1.67952  0.3799E-11  0.6561E-13  0.1186E-16  0.1000E-09  0.0000E+00  0.4834E+16
   -1.237494    1.81237  0.3788E-11  0.1913E-12  0.2880E-16  0.1000E-09  0.0000E+00  0.4722E+16
   -1.306246    1.95084  0.3771E-11  0.4990E-12  0.7132E-16  0.1000E-09  0.0000E+00  0.4574E+16
   -1.374998    2.09496  0.3750E-11  0.1257E-11  0.1740E-15  0.1000E-09  0.0000E+00  0.4395E+16
   -1.443750    2.24498  0.3732E-11  0.3116E-11  0.4187E-15  0.1000E-09  0.0000E+00  0.4172E+16
   -1.512503    2.40088  0.3720E-11  0.7621E-11  0.9957E-15  0.1000E-09  0.0000E+00  0.3901E+16
   -1.581255    2.56246  0.3713E-11  0.1842E-10  0.2341E-14  0.1000E-09  0.0000E+00  0.3582E+16
   -1.650007    2.72943  0.3709E-11  0.4404E-10  0.5444E-14  0.1000E-09  0.0000E+00  0.3214E+16
   -1.718759    2.90140  0.3707E-11  0.1041E-09  0.1252E-13  0.1000E-09  0.0000E+00  0.2801E+16
   -1.787510    3.07801  0.3706E-11  0.2495E-09  0.2921E-13  0.1000E-09  0.0000E+00  0.2368E+16
   -1.856262    3.26069  0.3705E-11  0.6021E-09  0.6862E-13  0.1852E-09  0.0000E+00  0.1886E+16
   -1.925013    3.44950  0.3703E-11  0.1448E-08  0.1607E-12  0.6056E-09  0.0000E+00  0.1351E+16
   -1.993764    3.64434  0.3698E-11  0.3464E-08  0.3748E-12  0.2519E-08  0.0000E+00  0.7572E+15
   -2.062515    3.84259  0.3692E-11  0.7950E-08  0.8403E-12  0.2730E-07  0.0000E+00  0.1565E+15
   -2.131265    4.01295  0.3691E-11  0.9143E-08  0.9726E-12  0.3574E-04  0.0000E+00 -0.3376E+12
   -2.200015    4.01375  0.3691E-11  0.9620E-08  0.1041E-11  0.3603E-04  0.0000E+00 -0.3458E+12
   -2.268764    4.01454  0.3691E-11  0.9983E-08  0.1115E-11  0.3530E-04  0.0000E+00 -0.3646E+12
   -2.337513    4.01536  0.3691E-11  0.1025E-07  0.1205E-11  0.3341E-04  0.0000E+00 -0.3984E+12
   -2.406262    4.01622  0.3691E-11  0.1040E-07  0.1322E-11  0.3021E-04  0.0000E+00 -0.4571E+12
   -2.475010    4.01718  0.3691E-11  0.1043E-07  0.1495E-11  0.2544E-04  0.0000E+00 -0.5665E+12
   -2.543758    4.01833  0.3691E-11  0.1027E-07  0.1799E-11  0.1886E-04  0.0000E+00 -0.8078E+12
   -2.612504    4.01990  0.3691E-11  0.9712E-08  0.2525E-11  0.1034E-04  0.0000E+00 -0.1611E+13
   -2.681251    4.02284  0.3691E-11  0.7212E-08  0.6864E-11  0.1501E-05  0.0000E+00 -0.1514E+14
   -2.749996    4.04348  0.3691E-11  0.0000E+00  0.0000E+00  0.0000E+00  0.0000E+00  0.0000E+00
