 1 - depth, m
 2 - temperature, C
 3 - salinity, kg/kg
 4 - turbulent kinetic energy, m**2/s**2
 5 - dissipation rate, m**2/s**3
 6 - kinematic heat conductance, m**2/s
 7 - modulus of horizontal velocity, m/s
 8 - Richardson number, n/d
   -0.000000   -0.00000  0.5523E-10  0.1219E-13  0.7603E-17  0.1000E-09  0.0000E+00  0.6052E+16
   -0.068746    0.09192  0.3016E-10  0.1219E-13  0.7603E-17  0.1000E-09  0.0000E+00  0.5828E+16
   -0.137492    0.18268  0.2242E-10  0.1219E-13  0.7603E-17  0.1000E-09  0.0000E+00  0.5637E+16
   -0.206239    0.27271  0.2039E-10  0.1219E-13  0.7603E-17  0.1000E-09  0.0000E+00  0.5477E+16
   -0.274987    0.36246  0.1992E-10  0.1219E-13  0.7603E-17  0.1000E-09  0.0000E+00  0.5345E+16
   -0.343735    0.45239  0.1983E-10  0.1219E-13  0.7603E-17  0.1000E-09  0.0000E+00  0.5238E+16
   -0.412483    0.54294  0.1981E-10  0.1219E-13  0.7603E-17  0.1000E-09  0.0000E+00  0.5153E+16
   -0.481232    0.63454  0.1981E-10  0.1219E-13  0.7603E-17  0.1000E-09  0.0000E+00  0.5086E+16
   -0.549982    0.72762  0.1980E-10  0.1219E-13  0.7603E-17  0.1000E-09  0.0000E+00  0.5033E+16
   -0.618732    0.82259  0.1980E-10  0.1219E-13  0.7603E-17  0.1000E-09  0.0000E+00  0.4990E+16
   -0.687482    0.91981  0.1980E-10  0.1219E-13  0.7603E-17  0.1000E-09  0.0000E+00  0.4967E+16
   -0.756233    1.01990  0.1980E-10  0.1219E-13  0.7603E-17  0.1000E-09  0.0000E+00  0.4952E+16
   -0.824984    1.12337  0.1980E-10  0.1219E-13  0.7603E-17  0.1000E-09  0.0000E+00  0.4933E+16
   -0.893735    1.23047  0.1980E-10  0.1219E-13  0.7603E-17  0.1000E-09  0.0000E+00  0.4905E+16
   -0.962487    1.34147  0.1980E-10  0.1219E-13  0.7603E-17  0.1000E-09  0.0000E+00  0.4863E+16
   -1.031238    1.45655  0.1980E-10  0.1219E-13  0.7603E-17  0.1000E-09  0.0000E+00  0.4805E+16
   -1.099990    1.57587  0.1979E-10  0.1219E-13  0.7603E-17  0.1000E-09  0.0000E+00  0.4725E+16
   -1.168742    1.69953  0.1976E-10  0.1219E-13  0.7603E-17  0.1000E-09  0.0000E+00  0.4621E+16
   -1.237494    1.82759  0.1971E-10  0.2832E-13  0.7603E-17  0.1000E-09  0.0000E+00  0.4490E+16
   -1.306247    1.96003  0.1962E-10  0.9263E-13  0.1569E-16  0.1000E-09  0.0000E+00  0.4328E+16
   -1.374999    2.09679  0.1952E-10  0.2562E-12  0.3947E-16  0.1000E-09  0.0000E+00  0.4143E+16
   -1.443751    2.23802  0.1942E-10  0.6695E-12  0.9915E-16  0.1000E-09  0.0000E+00  0.3925E+16
   -1.512503    2.38361  0.1936E-10  0.1710E-11  0.2455E-15  0.1000E-09  0.0000E+00  0.3672E+16
   -1.581255    2.53332  0.1932E-10  0.4303E-11  0.5998E-15  0.1000E-09  0.0000E+00  0.3383E+16
   -1.650007    2.68684  0.1930E-10  0.1069E-10  0.1448E-14  0.1000E-09  0.0000E+00  0.3061E+16
   -1.718759    2.84380  0.1929E-10  0.2623E-10  0.3452E-14  0.1000E-09  0.0000E+00  0.2709E+16
   -1.787511    3.00384  0.1928E-10  0.6524E-10  0.8344E-14  0.1000E-09  0.0000E+00  0.2351E+16
   -1.856262    3.16819  0.1928E-10  0.1631E-09  0.2028E-13  0.1000E-09  0.0000E+00  0.1962E+16
   -1.925014    3.33692  0.1926E-10  0.4061E-09  0.4912E-13  0.1622E-09  0.0000E+00  0.1541E+16
   -1.993765    3.51011  0.1924E-10  0.1006E-08  0.1184E-12  0.5575E-09  0.0000E+00  0.1080E+16
   -2.062515    3.68684  0.1920E-10  0.2419E-08  0.2774E-12  0.2418E-08  0.0000E+00  0.5835E+15
   -2.131266    3.86201  0.1917E-10  0.5659E-08  0.6332E-12  0.2757E-07  0.0000E+00  0.1164E+15
   -2.200016    4.01098  0.1917E-10  0.6862E-08  0.7736E-12  0.2572E-04  0.0000E+00 -0.3816E+12
   -2.268765    4.01194  0.1917E-10  0.7332E-08  0.8466E-12  0.2593E-04  0.0000E+00 -0.3948E+12
   -2.337514    4.01291  0.1917E-10  0.7686E-08  0.9289E-12  0.2509E-04  0.0000E+00 -0.4262E+12
   -2.406263    4.01391  0.1917E-10  0.7929E-08  0.1032E-11  0.2308E-04  0.0000E+00 -0.4858E+12
   -2.475011    4.01501  0.1917E-10  0.8047E-08  0.1180E-11  0.1972E-04  0.0000E+00 -0.6014E+12
   -2.543759    4.01632  0.1917E-10  0.7992E-08  0.1434E-11  0.1478E-04  0.0000E+00 -0.8633E+12
   -2.612506    4.01811  0.1917E-10  0.7597E-08  0.2036E-11  0.8172E-05  0.0000E+00 -0.1764E+13
   -2.681252    4.02147  0.1917E-10  0.5741E-08  0.5445E-11  0.1296E-05  0.0000E+00 -0.1672E+14
   -2.749998    4.04438  0.1917E-10  0.0000E+00  0.0000E+00  0.0000E+00  0.0000E+00  0.0000E+00
