 1 - depth, m
 2 - temperature, C
 3 - salinity, kg/kg
 4 - turbulent kinetic energy, m**2/s**2
 5 - dissipation rate, m**2/s**3
 6 - kinematic heat conductance, m**2/s
 7 - modulus of horizontal velocity, m/s
 8 - Richardson number, n/d
   -0.000000   12.77389  0.2192E-11  0.1368E-04  0.5751E-06  0.3231E-04  0.2739E-01 -0.9700E-02
   -0.068746   12.78270  0.2192E-11  0.1291E-04  0.2119E-06  0.7876E-04  0.1849E-01 -0.2047E-01
   -0.137492   12.78556  0.2192E-11  0.1233E-04  0.1243E-06  0.1233E-03  0.1502E-01 -0.2773E-01
   -0.206239   12.78701  0.2192E-11  0.1184E-04  0.8584E-07  0.1660E-03  0.1288E-01 -0.3255E-01
   -0.274987   12.78787  0.2192E-11  0.1142E-04  0.6440E-07  0.2074E-03  0.1135E-01 -0.3591E-01
   -0.343735   12.78843  0.2192E-11  0.1106E-04  0.5083E-07  0.2484E-03  0.1017E-01 -0.3886E-01
   -0.412484   12.78881  0.2192E-11  0.1075E-04  0.4155E-07  0.2900E-03  0.9218E-02 -0.4246E-01
   -0.481233   12.78909  0.2192E-11  0.1049E-04  0.3489E-07  0.3339E-03  0.8423E-02 -0.4691E-01
   -0.549983   12.78931  0.2192E-11  0.1028E-04  0.2996E-07  0.3853E-03  0.7750E-02 -0.3783E-01
   -0.618733   12.78949  0.2192E-11  0.1011E-04  0.2625E-07  0.4755E-03  0.7171E-02  0.1014E+01
   -0.687483   12.78961  0.2192E-11  0.9983E-05  0.2344E-07  0.5939E-03  0.6671E-02  0.3724E+01
   -0.756234   12.78970  0.2192E-11  0.9891E-05  0.2127E-07  0.7059E-03  0.6231E-02  0.1806E+02
   -0.824985   12.78976  0.2192E-11  0.9832E-05  0.1958E-07  0.8365E-03  0.5839E-02  0.1617E+02
   -0.893737   12.78980  0.2192E-11  0.9801E-05  0.1825E-07  0.1024E-02  0.5484E-02  0.3432E+02
   -0.962488   12.78982  0.2192E-11  0.9792E-05  0.1720E-07  0.1365E-02  0.5159E-02  0.1294E+03
   -1.031240   12.78982  0.2192E-11  0.9804E-05  0.1634E-07  0.1585E-02  0.4860E-02  0.6612E+01
   -1.099992   12.78983  0.2192E-11  0.9832E-05  0.1563E-07  0.1558E-02  0.4568E-02  0.8506E+01
   -1.168744   12.78992  0.2192E-11  0.9876E-05  0.1504E-07  0.1570E-02  0.4284E-02  0.1038E+02
   -1.237496   12.79005  0.2192E-11  0.9928E-05  0.1457E-07  0.1570E-02  0.4008E-02  0.1343E+02
   -1.306249   12.79021  0.2192E-11  0.9982E-05  0.1420E-07  0.1577E-02  0.3733E-02  0.1617E+02
   -1.375001   12.79039  0.2192E-11  0.1003E-04  0.1390E-07  0.1596E-02  0.3458E-02  0.3300E+02
   -1.443753   12.79059  0.2192E-11  0.1007E-04  0.1367E-07  0.1595E-02  0.3181E-02  0.2725E+02
   -1.512506   12.79081  0.2192E-11  0.1008E-04  0.1349E-07  0.1586E-02  0.2899E-02  0.3800E+02
   -1.581258   12.79104  0.2192E-11  0.1007E-04  0.1335E-07  0.1570E-02  0.2610E-02  0.5976E+02
   -1.650010   12.79130  0.2192E-11  0.1002E-04  0.1324E-07  0.1549E-02  0.2314E-02  0.1221E+03
   -1.718762   12.79159  0.2192E-11  0.9919E-05  0.1314E-07  0.1513E-02  0.2010E-02  0.2960E+03
   -1.787514   12.79190  0.2192E-11  0.9753E-05  0.1305E-07  0.1523E-02  0.1698E-02  0.1317E+02
   -1.856265   12.79222  0.2192E-11  0.9544E-05  0.1300E-07  0.1537E-02  0.1435E-02  0.5057E+01
   -1.925017   12.79255  0.2192E-11  0.9307E-05  0.1304E-07  0.1571E-02  0.1215E-02  0.2850E+01
   -1.993768   12.79287  0.2192E-11  0.9057E-05  0.1320E-07  0.1622E-02  0.1036E-02  0.2041E+01
   -2.062519   12.79319  0.2192E-11  0.8811E-05  0.1349E-07  0.1632E-02  0.8879E-03  0.1745E+01
   -2.131269   12.79352  0.2192E-11  0.8572E-05  0.1394E-07  0.1610E-02  0.7602E-03  0.1540E+01
   -2.200019   12.79387  0.2192E-11  0.8347E-05  0.1455E-07  0.1482E-02  0.6491E-03  0.1413E+01
   -2.268769   12.79427  0.2192E-11  0.8138E-05  0.1535E-07  0.1334E-02  0.5537E-03  0.1300E+01
   -2.337518   12.79472  0.2192E-11  0.7943E-05  0.1637E-07  0.1202E-02  0.4756E-03  0.1387E+01
   -2.406267   12.79524  0.2192E-11  0.7748E-05  0.1779E-07  0.1096E-02  0.4137E-03  0.1932E+01
   -2.475015   12.79582  0.2192E-11  0.7518E-05  0.2015E-07  0.9416E-03  0.3602E-03  0.3764E+01
   -2.543763   12.79652  0.2192E-11  0.7191E-05  0.2485E-07  0.7599E-03  0.3067E-03  0.1253E+02
   -2.612510   12.79749  0.2192E-11  0.6571E-05  0.3865E-07  0.5095E-03  0.2509E-03  0.1673E+02
   -2.681256   12.80000  0.2192E-11  0.4211E-05  0.1348E-06  0.5923E-04  0.1754E-03 -0.2766E+04
   -2.750002   12.81564  0.2192E-11  0.0000E+00  0.0000E+00  0.0000E+00  0.1963E-03  0.0000E+00
