 1 - depth, m
 2 - temperature, C
 3 - salinity, kg/kg
 4 - turbulent kinetic energy, m**2/s**2
 5 - dissipation rate, m**2/s**3
 6 - kinematic heat conductance, m**2/s
 7 - modulus of horizontal velocity, m/s
 8 - Richardson number, n/d
   -0.000000   10.98312  0.1498E-10  0.2703E-04  0.2287E-05  0.3342E-04  0.6726E-01  0.9842E-03
   -0.068746   10.97925  0.1498E-10  0.2115E-04  0.6282E-06  0.7337E-04  0.5083E-01  0.7055E-02
   -0.137492   10.97616  0.1498E-10  0.1843E-04  0.3159E-06  0.1019E-03  0.4558E-01  0.1761E-01
   -0.206239   10.97285  0.1498E-10  0.1636E-04  0.1995E-06  0.1202E-03  0.4221E-01  0.3472E-01
   -0.274987   10.96912  0.1498E-10  0.1455E-04  0.1408E-06  0.1278E-03  0.3969E-01  0.6040E-01
   -0.343735   10.96464  0.1498E-10  0.1286E-04  0.1058E-06  0.1254E-03  0.3765E-01  0.9691E-01
   -0.412484   10.95883  0.1498E-10  0.1125E-04  0.8298E-07  0.1147E-03  0.3585E-01  0.1461E+00
   -0.481233   10.95023  0.1498E-10  0.9681E-05  0.6744E-07  0.9847E-04  0.3416E-01  0.2060E+00
   -0.549983   10.93418  0.1498E-10  0.8101E-05  0.5683E-07  0.7984E-04  0.3239E-01  0.2649E+00
   -0.618733   10.88498  0.1499E-10  0.6453E-05  0.4665E-07  0.6132E-04  0.3014E-01  0.3278E+00
   -0.687484   10.61886  0.1500E-10  0.4989E-05  0.3661E-07  0.4459E-04  0.2639E-01  0.3980E+00
   -0.756234   10.28398  0.1501E-10  0.3823E-05  0.2860E-07  0.3030E-04  0.2204E-01  0.5285E+00
   -0.824985    9.98929  0.1503E-10  0.2954E-05  0.2195E-07  0.1915E-04  0.1789E-01  0.1078E+01
   -0.893737    9.74633  0.1504E-10  0.2273E-05  0.1634E-07  0.1876E-04  0.1419E-01  0.3739E+01
   -0.962489    9.53679  0.1505E-10  0.1709E-05  0.1136E-07  0.3656E-04  0.1085E-01  0.5606E+01
   -1.031240    9.31742  0.1506E-10  0.1313E-05  0.7147E-08  0.7078E-04  0.7599E-02  0.5083E+01
   -1.099992    9.08698  0.1507E-10  0.1162E-05  0.3681E-08  0.1257E-03  0.4508E-02  0.5468E+02
   -1.168745    8.87214  0.1508E-10  0.1291E-05  0.1373E-08  0.2965E-03  0.1926E-02  0.1733E+03
   -1.237497    8.76114  0.1509E-10  0.1474E-05  0.1172E-08  0.4204E-03  0.5885E-03  0.8961E+02
   -1.306249    8.74244  0.1509E-10  0.1583E-05  0.1120E-08  0.5222E-03  0.2044E-03  0.1341E+03
   -1.375001    8.74060  0.1509E-10  0.1646E-05  0.1147E-08  0.6377E-03  0.1269E-03  0.1183E+03
   -1.443754    8.74063  0.1509E-10  0.1700E-05  0.1186E-08  0.7469E-03  0.1108E-03  0.2208E+03
   -1.512506    8.74073  0.1509E-10  0.1750E-05  0.1230E-08  0.8052E-03  0.9934E-04  0.1372E+04
   -1.581258    8.74086  0.1509E-10  0.1798E-05  0.1278E-08  0.8098E-03  0.8990E-04  0.1275E+02
   -1.650011    8.74104  0.1509E-10  0.1846E-05  0.1332E-08  0.8117E-03  0.8077E-04  0.1505E+02
   -1.718763    8.74125  0.1509E-10  0.1890E-05  0.1389E-08  0.8124E-03  0.7173E-04  0.1832E+02
   -1.787514    8.74150  0.1509E-10  0.1932E-05  0.1450E-08  0.8109E-03  0.6280E-04  0.2225E+02
   -1.856266    8.74177  0.1509E-10  0.1972E-05  0.1520E-08  0.8060E-03  0.5492E-04  0.3085E+02
   -1.925017    8.74205  0.1509E-10  0.2011E-05  0.1599E-08  0.7961E-03  0.4801E-04  0.4355E+02
   -1.993769    8.74236  0.1509E-10  0.2049E-05  0.1692E-08  0.7811E-03  0.4202E-04  0.6319E+02
   -2.062519    8.74268  0.1509E-10  0.2083E-05  0.1795E-08  0.7609E-03  0.3674E-04  0.9336E+02
   -2.131270    8.74305  0.1509E-10  0.2113E-05  0.1912E-08  0.7354E-03  0.3185E-04  0.1309E+03
   -2.200020    8.74345  0.1509E-10  0.2137E-05  0.2046E-08  0.7042E-03  0.2730E-04  0.1907E+03
   -2.268770    8.74391  0.1509E-10  0.2154E-05  0.2203E-08  0.6665E-03  0.2303E-04  0.2851E+03
   -2.337519    8.74442  0.1509E-10  0.2164E-05  0.2401E-08  0.6199E-03  0.1913E-04  0.4697E+03
   -2.406268    8.74499  0.1509E-10  0.2163E-05  0.2665E-08  0.5628E-03  0.1561E-04  0.8723E+03
   -2.475016    8.74565  0.1509E-10  0.2149E-05  0.3049E-08  0.4925E-03  0.1244E-04  0.1903E+04
   -2.543764    8.74644  0.1509E-10  0.2113E-05  0.3674E-08  0.4029E-03  0.9583E-05  0.5703E+04
   -2.612511    8.74745  0.1509E-10  0.2035E-05  0.4945E-08  0.3083E-03  0.6975E-05  0.3235E+05
   -2.681257    8.74884  0.1509E-10  0.1424E-05  0.1736E-07  0.1997E-04  0.4773E-05 -0.9717E+06
   -2.750003    8.77176  0.1509E-10  0.0000E+00  0.0000E+00  0.0000E+00  0.4774E-05  0.0000E+00
