 1 - depth, m
 2 - temperature, C
 3 - salinity, kg/kg
 4 - turbulent kinetic energy, m**2/s**2
 5 - dissipation rate, m**2/s**3
 6 - kinematic heat conductance, m**2/s
 7 - modulus of horizontal velocity, m/s
 8 - Richardson number, n/d
   -0.000000   -0.00000  0.1011E-09  0.1219E-13  0.7603E-17  0.1000E-09  0.0000E+00  0.3738E+16
   -0.068746    0.05651  0.5622E-10  0.1219E-13  0.7603E-17  0.1000E-09  0.0000E+00  0.3565E+16
   -0.137492    0.11121  0.4612E-10  0.1219E-13  0.7603E-17  0.1000E-09  0.0000E+00  0.3423E+16
   -0.206239    0.16452  0.4405E-10  0.1219E-13  0.7603E-17  0.1000E-09  0.0000E+00  0.3312E+16
   -0.274986    0.21687  0.4368E-10  0.1219E-13  0.7603E-17  0.1000E-09  0.0000E+00  0.3233E+16
   -0.343735    0.26874  0.4362E-10  0.1219E-13  0.7603E-17  0.1000E-09  0.0000E+00  0.3188E+16
   -0.412483    0.32065  0.4361E-10  0.1219E-13  0.7603E-17  0.1000E-09  0.0000E+00  0.3178E+16
   -0.481232    0.37317  0.4361E-10  0.1219E-13  0.7603E-17  0.1000E-09  0.0000E+00  0.3201E+16
   -0.549982    0.42692  0.4361E-10  0.1219E-13  0.7603E-17  0.1000E-09  0.0000E+00  0.3259E+16
   -0.618732    0.48253  0.4361E-10  0.1219E-13  0.7603E-17  0.1000E-09  0.0000E+00  0.3350E+16
   -0.687482    0.54069  0.4361E-10  0.1219E-13  0.7603E-17  0.1000E-09  0.0000E+00  0.3489E+16
   -0.756233    0.60238  0.4361E-10  0.1219E-13  0.7603E-17  0.1000E-09  0.0000E+00  0.3665E+16
   -0.824984    0.66850  0.4361E-10  0.1219E-13  0.7603E-17  0.1000E-09  0.0000E+00  0.3864E+16
   -0.893735    0.73974  0.4361E-10  0.1219E-13  0.7603E-17  0.1000E-09  0.0000E+00  0.4080E+16
   -0.962486    0.81681  0.4361E-10  0.1219E-13  0.7603E-17  0.1000E-09  0.0000E+00  0.4307E+16
   -1.031238    0.90035  0.4361E-10  0.1219E-13  0.7603E-17  0.1000E-09  0.0000E+00  0.4536E+16
   -1.099990    0.99100  0.4361E-10  0.1219E-13  0.7603E-17  0.1000E-09  0.0000E+00  0.4758E+16
   -1.168742    1.08929  0.4360E-10  0.1219E-13  0.7603E-17  0.1000E-09  0.0000E+00  0.4964E+16
   -1.237494    1.19572  0.4358E-10  0.1219E-13  0.7603E-17  0.1000E-09  0.0000E+00  0.5143E+16
   -1.306246    1.31064  0.4352E-10  0.1219E-13  0.7603E-17  0.1000E-09  0.0000E+00  0.5283E+16
   -1.374998    1.43434  0.4339E-10  0.1219E-13  0.7603E-17  0.1000E-09  0.0000E+00  0.5396E+16
   -1.443751    1.56750  0.4317E-10  0.1219E-13  0.7603E-17  0.1000E-09  0.0000E+00  0.5454E+16
   -1.512503    1.71030  0.4294E-10  0.1219E-13  0.7603E-17  0.1000E-09  0.0000E+00  0.5438E+16
   -1.581255    1.86261  0.4280E-10  0.1219E-13  0.7603E-17  0.1000E-09  0.0000E+00  0.5341E+16
   -1.650007    2.02411  0.4274E-10  0.2320E-13  0.7681E-17  0.1000E-09  0.0000E+00  0.5159E+16
   -1.718759    2.19435  0.4271E-10  0.8292E-13  0.2179E-16  0.1000E-09  0.0000E+00  0.4887E+16
   -1.787510    2.37262  0.4269E-10  0.2893E-12  0.7185E-16  0.1000E-09  0.0000E+00  0.4484E+16
   -1.856262    2.55618  0.4268E-10  0.9911E-12  0.2370E-15  0.1000E-09  0.0000E+00  0.4026E+16
   -1.925013    2.74448  0.4267E-10  0.3345E-11  0.7718E-15  0.1000E-09  0.0000E+00  0.3517E+16
   -1.993764    2.93689  0.4266E-10  0.1115E-10  0.2484E-14  0.1000E-09  0.0000E+00  0.2967E+16
   -2.062515    3.13295  0.4263E-10  0.3582E-10  0.7707E-14  0.1000E-09  0.0000E+00  0.2390E+16
   -2.131265    3.33308  0.4255E-10  0.1130E-09  0.2349E-13  0.1000E-09  0.0000E+00  0.1774E+16
   -2.200015    3.53659  0.4242E-10  0.3513E-09  0.7059E-13  0.3194E-09  0.0000E+00  0.1124E+16
   -2.268765    3.74225  0.4225E-10  0.1086E-08  0.2110E-12  0.2348E-08  0.0000E+00  0.4558E+15
   -2.337514    3.94761  0.4218E-10  0.2983E-08  0.5686E-12  0.3513E-06  0.0000E+00  0.7159E+13
   -2.406262    4.01080  0.4218E-10  0.4881E-08  0.9642E-12  0.1046E-04  0.0000E+00 -0.1172E+13
   -2.475010    4.01370  0.4218E-10  0.5671E-08  0.1224E-11  0.1030E-04  0.0000E+00 -0.1356E+13
   -2.543758    4.01670  0.4218E-10  0.6161E-08  0.1592E-11  0.8616E-05  0.0000E+00 -0.1873E+13
   -2.612505    4.02042  0.4218E-10  0.6287E-08  0.2371E-11  0.5352E-05  0.0000E+00 -0.3743E+13
   -2.681251    4.02683  0.4218E-10  0.5510E-08  0.6049E-11  0.1311E-05  0.0000E+00 -0.2745E+14
   -2.749997    4.05807  0.4218E-10  0.0000E+00  0.0000E+00  0.0000E+00  0.0000E+00  0.0000E+00
