 1 - depth, m
 2 - temperature, C
 3 - salinity, kg/kg
 4 - turbulent kinetic energy, m**2/s**2
 5 - dissipation rate, m**2/s**3
 6 - kinematic heat conductance, m**2/s
 7 - modulus of horizontal velocity, m/s
 8 - Richardson number, n/d
   -0.000000   -0.00000  0.4066E-10  0.1219E-13  0.7603E-17  0.1000E-09  0.0000E+00  0.6624E+16
   -0.068746    0.10072  0.2432E-10  0.1219E-13  0.7603E-17  0.1000E-09  0.0000E+00  0.6376E+16
   -0.137492    0.20038  0.1771E-10  0.1219E-13  0.7603E-17  0.1000E-09  0.0000E+00  0.6160E+16
   -0.206239    0.29939  0.1570E-10  0.1219E-13  0.7603E-17  0.1000E-09  0.0000E+00  0.5972E+16
   -0.274987    0.39816  0.1519E-10  0.1219E-13  0.7603E-17  0.1000E-09  0.0000E+00  0.5809E+16
   -0.343735    0.49707  0.1507E-10  0.1219E-13  0.7603E-17  0.1000E-09  0.0000E+00  0.5665E+16
   -0.412483    0.59649  0.1505E-10  0.1219E-13  0.7603E-17  0.1000E-09  0.0000E+00  0.5539E+16
   -0.481232    0.69677  0.1504E-10  0.1219E-13  0.7603E-17  0.1000E-09  0.0000E+00  0.5426E+16
   -0.549982    0.79823  0.1504E-10  0.1219E-13  0.7603E-17  0.1000E-09  0.0000E+00  0.5323E+16
   -0.618732    0.90119  0.1504E-10  0.1219E-13  0.7603E-17  0.1000E-09  0.0000E+00  0.5227E+16
   -0.687482    1.00593  0.1504E-10  0.1219E-13  0.7603E-17  0.1000E-09  0.0000E+00  0.5147E+16
   -0.756233    1.11299  0.1504E-10  0.1219E-13  0.7603E-17  0.1000E-09  0.0000E+00  0.5072E+16
   -0.824984    1.22275  0.1504E-10  0.1219E-13  0.7603E-17  0.1000E-09  0.0000E+00  0.4992E+16
   -0.893735    1.33542  0.1504E-10  0.1219E-13  0.7603E-17  0.1000E-09  0.0000E+00  0.4904E+16
   -0.962486    1.45121  0.1504E-10  0.1219E-13  0.7603E-17  0.1000E-09  0.0000E+00  0.4804E+16
   -1.031238    1.57025  0.1504E-10  0.1219E-13  0.7603E-17  0.1000E-09  0.0000E+00  0.4690E+16
   -1.099990    1.69265  0.1503E-10  0.1219E-13  0.7603E-17  0.1000E-09  0.0000E+00  0.4558E+16
   -1.168742    1.81849  0.1500E-10  0.1219E-13  0.7603E-17  0.1000E-09  0.0000E+00  0.4407E+16
   -1.237494    1.94781  0.1496E-10  0.3610E-13  0.7717E-17  0.1000E-09  0.0000E+00  0.4233E+16
   -1.306246    2.08057  0.1490E-10  0.1089E-12  0.1763E-16  0.1000E-09  0.0000E+00  0.4037E+16
   -1.374999    2.21674  0.1482E-10  0.2933E-12  0.4438E-16  0.1000E-09  0.0000E+00  0.3822E+16
   -1.443751    2.35642  0.1476E-10  0.7584E-12  0.1108E-15  0.1000E-09  0.0000E+00  0.3581E+16
   -1.512503    2.49952  0.1471E-10  0.1924E-11  0.2726E-15  0.1000E-09  0.0000E+00  0.3314E+16
   -1.581255    2.64586  0.1468E-10  0.4814E-11  0.6625E-15  0.1000E-09  0.0000E+00  0.3021E+16
   -1.650007    2.79516  0.1467E-10  0.1189E-10  0.1590E-14  0.1000E-09  0.0000E+00  0.2702E+16
   -1.718759    2.94713  0.1466E-10  0.2903E-10  0.3772E-14  0.1000E-09  0.0000E+00  0.2362E+16
   -1.787511    3.10150  0.1465E-10  0.7181E-10  0.9069E-14  0.1000E-09  0.0000E+00  0.2024E+16
   -1.856262    3.25980  0.1465E-10  0.1786E-09  0.2193E-13  0.1000E-09  0.0000E+00  0.1659E+16
   -1.925013    3.42220  0.1464E-10  0.4423E-09  0.5284E-13  0.2126E-09  0.0000E+00  0.1265E+16
   -1.993764    3.58883  0.1462E-10  0.1090E-08  0.1267E-12  0.7712E-09  0.0000E+00  0.8359E+15
   -2.062515    3.75869  0.1459E-10  0.2606E-08  0.2952E-12  0.3975E-08  0.0000E+00  0.3775E+15
   -2.131265    3.92522  0.1458E-10  0.5761E-08  0.6406E-12  0.1341E-06  0.0000E+00  0.2375E+14
   -2.200015    4.01279  0.1458E-10  0.6946E-08  0.7787E-12  0.2659E-04  0.0000E+00 -0.3797E+12
   -2.268765    4.01369  0.1458E-10  0.7416E-08  0.8510E-12  0.2671E-04  0.0000E+00 -0.3919E+12
   -2.337514    4.01459  0.1458E-10  0.7767E-08  0.9316E-12  0.2578E-04  0.0000E+00 -0.4215E+12
   -2.406262    4.01553  0.1458E-10  0.8004E-08  0.1032E-11  0.2368E-04  0.0000E+00 -0.4780E+12
   -2.475011    4.01655  0.1458E-10  0.8112E-08  0.1175E-11  0.2020E-04  0.0000E+00 -0.5875E+12
   -2.543758    4.01777  0.1458E-10  0.8043E-08  0.1419E-11  0.1513E-04  0.0000E+00 -0.8349E+12
   -2.612505    4.01942  0.1458E-10  0.7627E-08  0.1997E-11  0.8356E-05  0.0000E+00 -0.1678E+13
   -2.681251    4.02251  0.1458E-10  0.5684E-08  0.5307E-11  0.1268E-05  0.0000E+00 -0.1565E+14
   -2.749997    4.04384  0.1458E-10  0.0000E+00  0.0000E+00  0.0000E+00  0.0000E+00  0.0000E+00
