 1 - depth, m
 2 - temperature, C
 3 - salinity, kg/kg
 4 - turbulent kinetic energy, m**2/s**2
 5 - dissipation rate, m**2/s**3
 6 - kinematic heat conductance, m**2/s
 7 - modulus of horizontal velocity, m/s
 8 - Richardson number, n/d
   -0.000000   -0.00000  0.8682E-09  0.6854E-12  0.1208E-15  0.1000E-09  0.6788E-18  0.1351E+15
   -0.068744    0.00204  0.0000E+00  0.1465E-11  0.1024E-15  0.1000E-09  0.6288E-18  0.9970E+14
   -0.137488    0.00353  0.1409E-09  0.2959E-11  0.1324E-15  0.1000E-09  0.5647E-18  0.7135E+14
   -0.206234    0.00461  0.9308E-10  0.5431E-11  0.2037E-15  0.1000E-09  0.4902E-18  0.5128E+14
   -0.274979    0.00538  0.1034E-09  0.9447E-11  0.3287E-15  0.1000E-09  0.4153E-18  0.3834E+14
   -0.343726    0.00595  0.1016E-09  0.1596E-10  0.5332E-15  0.1020E-09  0.3467E-18  0.3123E+14
   -0.412472    0.00642  0.1018E-09  0.2651E-10  0.8602E-15  0.1520E-09  0.2871E-18  0.2841E+14
   -0.481220    0.00685  0.1018E-09  0.4347E-10  0.1376E-14  0.2435E-09  0.2366E-18  0.2846E+14
   -0.549967    0.00728  0.1017E-09  0.7058E-10  0.2182E-14  0.3660E-09  0.1943E-18  0.3016E+14
   -0.618716    0.00773  0.1017E-09  0.1135E-09  0.3430E-14  0.5348E-09  0.1590E-18  0.3255E+14
   -0.687464    0.00822  0.1017E-09  0.1810E-09  0.5344E-14  0.9221E-09  0.1296E-18  0.2940E+14
   -0.756213    0.00866  0.1017E-09  0.2860E-09  0.8251E-14  0.1735E-08  0.1053E-18  0.2410E+14
   -0.824962    0.00902  0.1017E-09  0.4475E-09  0.1262E-13  0.3058E-08  0.8522E-19  0.2095E+14
   -0.893712    0.00934  0.1016E-09  0.6937E-09  0.1911E-13  0.4841E-08  0.6874E-19  0.2020E+14
   -0.962461    0.00964  0.1016E-09  0.1065E-08  0.2867E-13  0.6671E-08  0.5529E-19  0.2230E+14
   -1.031211    0.00998  0.1016E-09  0.1619E-08  0.4261E-13  0.7974E-08  0.4434E-19  0.2819E+14
   -1.099961    0.01040  0.1016E-09  0.2442E-08  0.6277E-13  0.8483E-08  0.3546E-19  0.3948E+14
   -1.168711    0.01100  0.1016E-09  0.3654E-08  0.9174E-13  0.8384E-08  0.2823E-19  0.5841E+14
   -1.237462    0.01187  0.1016E-09  0.5425E-08  0.1330E-12  0.8046E-08  0.2232E-19  0.8753E+14
   -1.306212    0.01319  0.1016E-09  0.7991E-08  0.1913E-12  0.7769E-08  0.1749E-19  0.1289E+15
   -1.374963    0.01513  0.1015E-09  0.1168E-07  0.2729E-12  0.7605E-08  0.1351E-19  0.1857E+15
   -1.443713    0.01793  0.1015E-09  0.1693E-07  0.3861E-12  0.7850E-08  0.1020E-19  0.2522E+15
   -1.512463    0.02174  0.1015E-09  0.2432E-07  0.5415E-12  0.8619E-08  0.7439E-20  0.3203E+15
   -1.581214    0.02657  0.1015E-09  0.3464E-07  0.7527E-12  0.1008E-07  0.5086E-20  0.3793E+15
   -1.649964    0.03231  0.1015E-09  0.4886E-07  0.1037E-11  0.1257E-07  0.3032E-20  0.4180E+15
   -1.718714    0.03864  0.1015E-09  0.6823E-07  0.1414E-11  0.1715E-07  0.1178E-20  0.4174E+15
   -1.787464    0.04497  0.1015E-09  0.9398E-07  0.1905E-11  0.7149E-07  0.8170E-22  0.1381E+15
   -1.856213    0.04707  0.1015E-09  0.9407E-07  0.1907E-11  0.1455E-02  0.1723E-23 -0.4893E+10
   -1.924963    0.04707  0.1015E-09  0.9412E-07  0.1908E-11  0.1432E-02  0.1638E-23 -0.3589E+11
   -1.993712    0.04707  0.1015E-09  0.9416E-07  0.1909E-11  0.1428E-02  0.1568E-23 -0.6631E+11
   -2.062461    0.04707  0.1015E-09  0.9414E-07  0.1909E-11  0.1435E-02  0.1518E-23 -0.2868E+11
   -2.131209    0.04707  0.1015E-09  0.9408E-07  0.1907E-11  0.2988E-03  0.1481E-23  0.1386E+15
   -2.199958    0.04918  0.1015E-09  0.7885E-07  0.1640E-11  0.1173E-07  0.1415E-23  0.8080E+15
   -2.268705    0.06149  0.1015E-09  0.5997E-07  0.1301E-11  0.3587E-08  0.7162E-25  0.1933E+16
   -2.337453    0.09110  0.1014E-09  0.4492E-07  0.1036E-11  0.1538E-08  0.2830E-26  0.3505E+16
   -2.406199    0.14542  0.1014E-09  0.3291E-07  0.8373E-12  0.7711E-09  0.9442E-28  0.5585E+16
   -2.474946    0.23370  0.1014E-09  0.2311E-07  0.7044E-12  0.4308E-09  0.2612E-29  0.8354E+16
   -2.543691    0.37000  0.1014E-09  0.1492E-07  0.6542E-12  0.2777E-09  0.6009E-31  0.1199E+17
   -2.612437    0.57577  0.1013E-09  0.7908E-08  0.7665E-12  0.2172E-09  0.1023E-32  0.1794E+17
   -2.681181    0.91074  0.1013E-09  0.2036E-08  0.1537E-11  0.2365E-09  0.1126E-34  0.3303E+17
   -2.749925    1.65751  0.1013E-09  0.0000E+00  0.0000E+00  0.0000E+00  0.1287E-34  0.0000E+00
