 1 - depth, m
 2 - temperature, C
 3 - salinity, kg/kg
 4 - turbulent kinetic energy, m**2/s**2
 5 - dissipation rate, m**2/s**3
 6 - kinematic heat conductance, m**2/s
 7 - modulus of horizontal velocity, m/s
 8 - Richardson number, n/d
   -0.000000   -0.00000  0.2100E-11  0.1219E-13  0.7603E-17  0.1000E-09  0.0000E+00  0.8708E+16
   -0.068746    0.13300  0.1377E-11  0.1219E-13  0.7603E-17  0.1000E-09  0.0000E+00  0.8348E+16
   -0.137492    0.26527  0.9913E-12  0.1219E-13  0.7603E-17  0.1000E-09  0.0000E+00  0.8005E+16
   -0.206239    0.39697  0.8325E-12  0.1219E-13  0.7603E-17  0.1000E-09  0.0000E+00  0.7676E+16
   -0.274987    0.52827  0.7775E-12  0.1219E-13  0.7603E-17  0.1000E-09  0.0000E+00  0.7360E+16
   -0.343735    0.65933  0.7608E-12  0.1219E-13  0.7603E-17  0.1000E-09  0.0000E+00  0.7056E+16
   -0.412483    0.79030  0.7563E-12  0.1219E-13  0.7603E-17  0.1000E-09  0.0000E+00  0.6761E+16
   -0.481233    0.92134  0.7553E-12  0.1219E-13  0.7603E-17  0.1000E-09  0.0000E+00  0.6474E+16
   -0.549982    1.05260  0.7550E-12  0.1219E-13  0.7603E-17  0.1000E-09  0.0000E+00  0.6193E+16
   -0.618732    1.18421  0.7550E-12  0.1219E-13  0.7603E-17  0.1000E-09  0.0000E+00  0.5917E+16
   -0.687482    1.31629  0.7549E-12  0.1219E-13  0.7603E-17  0.1000E-09  0.0000E+00  0.5651E+16
   -0.756233    1.44915  0.7549E-12  0.1219E-13  0.7603E-17  0.1000E-09  0.0000E+00  0.5390E+16
   -0.824984    1.58301  0.7549E-12  0.1677E-13  0.7603E-17  0.1000E-09  0.0000E+00  0.5127E+16
   -0.893735    1.71796  0.7547E-12  0.6949E-13  0.9703E-17  0.1000E-09  0.0000E+00  0.4859E+16
   -0.962487    1.85403  0.7544E-12  0.1837E-12  0.1985E-16  0.1000E-09  0.0000E+00  0.4586E+16
   -1.031239    1.99128  0.7537E-12  0.4238E-12  0.4266E-16  0.1000E-09  0.0000E+00  0.4307E+16
   -1.099991    2.12971  0.7524E-12  0.9341E-12  0.9085E-16  0.1000E-09  0.0000E+00  0.4021E+16
   -1.168743    2.26931  0.7505E-12  0.2020E-11  0.1912E-15  0.1000E-09  0.0000E+00  0.3727E+16
   -1.237495    2.41006  0.7478E-12  0.4317E-11  0.3986E-15  0.1000E-09  0.0000E+00  0.3426E+16
   -1.306247    2.55189  0.7447E-12  0.9137E-11  0.8234E-15  0.1000E-09  0.0000E+00  0.3117E+16
   -1.374999    2.69474  0.7416E-12  0.1917E-10  0.1686E-14  0.1000E-09  0.0000E+00  0.2802E+16
   -1.443751    2.83860  0.7390E-12  0.3988E-10  0.3425E-14  0.1000E-09  0.0000E+00  0.2481E+16
   -1.512504    2.98338  0.7371E-12  0.8227E-10  0.6901E-14  0.1000E-09  0.0000E+00  0.2153E+16
   -1.581256    3.12894  0.7359E-12  0.1683E-09  0.1379E-13  0.1000E-09  0.0000E+00  0.1818E+16
   -1.650008    3.27511  0.7350E-12  0.3417E-09  0.2736E-13  0.1000E-09  0.0000E+00  0.1480E+16
   -1.718760    3.42170  0.7343E-12  0.6881E-09  0.5385E-13  0.2408E-09  0.0000E+00  0.1138E+16
   -1.787512    3.56847  0.7335E-12  0.1405E-08  0.1074E-12  0.6794E-09  0.0000E+00  0.8047E+15
   -1.856263    3.71721  0.7326E-12  0.2895E-08  0.2165E-12  0.2411E-08  0.0000E+00  0.4568E+15
   -1.925014    3.86680  0.7321E-12  0.5912E-08  0.4329E-12  0.2002E-07  0.0000E+00  0.1099E+15
   -1.993765    4.00274  0.7321E-12  0.6609E-08  0.4865E-12  0.3641E-04  0.0000E+00 -0.1600E+12
   -2.062516    4.00335  0.7321E-12  0.6911E-08  0.5150E-12  0.3709E-04  0.0000E+00 -0.1631E+12
   -2.131266    4.00395  0.7321E-12  0.7157E-08  0.5452E-12  0.3698E-04  0.0000E+00 -0.1692E+12
   -2.200016    4.00455  0.7321E-12  0.7351E-08  0.5783E-12  0.3614E-04  0.0000E+00 -0.1790E+12
   -2.268766    4.00517  0.7321E-12  0.7494E-08  0.6166E-12  0.3450E-04  0.0000E+00 -0.1940E+12
   -2.337515    4.00581  0.7321E-12  0.7586E-08  0.6650E-12  0.3189E-04  0.0000E+00 -0.2175E+12
   -2.406264    4.00651  0.7321E-12  0.7619E-08  0.7313E-12  0.2816E-04  0.0000E+00 -0.2559E+12
   -2.475012    4.00730  0.7321E-12  0.7570E-08  0.8324E-12  0.2310E-04  0.0000E+00 -0.3262E+12
   -2.543759    4.00827  0.7321E-12  0.7390E-08  0.1014E-11  0.1654E-04  0.0000E+00 -0.4819E+12
   -2.612506    4.00963  0.7321E-12  0.6913E-08  0.1459E-11  0.8577E-05  0.0000E+00 -0.1017E+13
   -2.681253    4.01227  0.7321E-12  0.4910E-08  0.4184E-11  0.1079E-05  0.0000E+00 -0.1109E+14
   -2.749998    4.03202  0.7321E-12  0.0000E+00  0.0000E+00  0.0000E+00  0.0000E+00  0.0000E+00
