 1 - depth, m
 2 - temperature, C
 3 - salinity, kg/kg
 4 - turbulent kinetic energy, m**2/s**2
 5 - dissipation rate, m**2/s**3
 6 - kinematic heat conductance, m**2/s
 7 - modulus of horizontal velocity, m/s
 8 - Richardson number, n/d
   -0.000000   -0.00000  0.1190E-09  0.1219E-13  0.7603E-17  0.1000E-09  0.0000E+00  0.6337E+16
   -0.068746    0.09630  0.7015E-10  0.1219E-13  0.7603E-17  0.1000E-09  0.0000E+00  0.6104E+16
   -0.137492    0.19153  0.5150E-10  0.1219E-13  0.7603E-17  0.1000E-09  0.0000E+00  0.5896E+16
   -0.206239    0.28601  0.4562E-10  0.1219E-13  0.7603E-17  0.1000E-09  0.0000E+00  0.5712E+16
   -0.274986    0.38004  0.4406E-10  0.1219E-13  0.7603E-17  0.1000E-09  0.0000E+00  0.5547E+16
   -0.343735    0.47392  0.4370E-10  0.1219E-13  0.7603E-17  0.1000E-09  0.0000E+00  0.5400E+16
   -0.412483    0.56793  0.4363E-10  0.1219E-13  0.7603E-17  0.1000E-09  0.0000E+00  0.5268E+16
   -0.481232    0.66236  0.4361E-10  0.1219E-13  0.7603E-17  0.1000E-09  0.0000E+00  0.5147E+16
   -0.549982    0.75744  0.4361E-10  0.1219E-13  0.7603E-17  0.1000E-09  0.0000E+00  0.5036E+16
   -0.618732    0.85342  0.4361E-10  0.1219E-13  0.7603E-17  0.1000E-09  0.0000E+00  0.4932E+16
   -0.687482    0.95052  0.4361E-10  0.1219E-13  0.7603E-17  0.1000E-09  0.0000E+00  0.4843E+16
   -0.756233    1.04915  0.4361E-10  0.1219E-13  0.7603E-17  0.1000E-09  0.0000E+00  0.4761E+16
   -0.824984    1.14962  0.4361E-10  0.1219E-13  0.7603E-17  0.1000E-09  0.0000E+00  0.4677E+16
   -0.893735    1.25207  0.4361E-10  0.1219E-13  0.7603E-17  0.1000E-09  0.0000E+00  0.4587E+16
   -0.962486    1.35663  0.4361E-10  0.1219E-13  0.7603E-17  0.1000E-09  0.0000E+00  0.4490E+16
   -1.031238    1.46336  0.4360E-10  0.1219E-13  0.7603E-17  0.1000E-09  0.0000E+00  0.4384E+16
   -1.099990    1.57232  0.4359E-10  0.1219E-13  0.7603E-17  0.1000E-09  0.0000E+00  0.4267E+16
   -1.168742    1.68352  0.4356E-10  0.1219E-13  0.7603E-17  0.1000E-09  0.0000E+00  0.4138E+16
   -1.237494    1.79695  0.4349E-10  0.1219E-13  0.7603E-17  0.1000E-09  0.0000E+00  0.3995E+16
   -1.306246    1.91255  0.4338E-10  0.1219E-13  0.7603E-17  0.1000E-09  0.0000E+00  0.3837E+16
   -1.374998    2.03023  0.4323E-10  0.1219E-13  0.7603E-17  0.1000E-09  0.0000E+00  0.3669E+16
   -1.443751    2.15006  0.4305E-10  0.1219E-13  0.7603E-17  0.1000E-09  0.0000E+00  0.3487E+16
   -1.512503    2.27193  0.4290E-10  0.1219E-13  0.7603E-17  0.1000E-09  0.0000E+00  0.3288E+16
   -1.581255    2.39563  0.4280E-10  0.1219E-13  0.7603E-17  0.1000E-09  0.0000E+00  0.3074E+16
   -1.650007    2.52095  0.4274E-10  0.1219E-13  0.7603E-17  0.1000E-09  0.0000E+00  0.2844E+16
   -1.718759    2.64759  0.4271E-10  0.1219E-13  0.7603E-17  0.1000E-09  0.0000E+00  0.2603E+16
   -1.787510    2.77529  0.4269E-10  0.2532E-13  0.7968E-17  0.1000E-09  0.0000E+00  0.2366E+16
   -1.856262    2.90468  0.4267E-10  0.9225E-13  0.2388E-16  0.1000E-09  0.0000E+00  0.2119E+16
   -1.925013    3.03564  0.4265E-10  0.3241E-12  0.7970E-16  0.1000E-09  0.0000E+00  0.1861E+16
   -1.993764    3.16807  0.4261E-10  0.1114E-11  0.2642E-15  0.1000E-09  0.0000E+00  0.1589E+16
   -2.062515    3.30146  0.4254E-10  0.3682E-11  0.8438E-15  0.1000E-09  0.0000E+00  0.1304E+16
   -2.131265    3.43484  0.4245E-10  0.1195E-10  0.2649E-14  0.1000E-09  0.0000E+00  0.1018E+16
   -2.200015    3.56774  0.4233E-10  0.3827E-10  0.8204E-14  0.1000E-09  0.0000E+00  0.7327E+15
   -2.268765    3.69966  0.4225E-10  0.1220E-09  0.2532E-13  0.2821E-09  0.0000E+00  0.4548E+15
   -2.337514    3.83039  0.4221E-10  0.3913E-09  0.7867E-13  0.2149E-08  0.0000E+00  0.1845E+15
   -2.406262    3.95816  0.4221E-10  0.1168E-08  0.2297E-12  0.2396E-06  0.0000E+00  0.3246E+13
   -2.475010    4.00582  0.4221E-10  0.2368E-08  0.4993E-12  0.4617E-05  0.0000E+00 -0.1320E+13
   -2.543758    4.00975  0.4221E-10  0.2899E-08  0.7241E-12  0.4311E-05  0.0000E+00 -0.1771E+13
   -2.612505    4.01416  0.4221E-10  0.3153E-08  0.1151E-11  0.2844E-05  0.0000E+00 -0.3560E+13
   -2.681251    4.02139  0.4221E-10  0.2930E-08  0.2922E-11  0.8034E-06  0.0000E+00 -0.2351E+14
   -2.749997    4.05138  0.4221E-10  0.0000E+00  0.0000E+00  0.0000E+00  0.0000E+00  0.0000E+00
