 1 - depth, m
 2 - temperature, C
 3 - salinity, kg/kg
 4 - turbulent kinetic energy, m**2/s**2
 5 - dissipation rate, m**2/s**3
 6 - kinematic heat conductance, m**2/s
 7 - modulus of horizontal velocity, m/s
 8 - Richardson number, n/d
   -0.000000    8.90760  0.7383E-12  0.3434E-04  0.4636E-05  0.4298E-04  0.4875E-01 -0.4235E-02
   -0.068746    8.93721  0.7384E-12  0.2539E-04  0.1103E-05  0.9114E-04  0.2793E-01 -0.1798E-01
   -0.137492    8.94639  0.7384E-12  0.2291E-04  0.4951E-06  0.1430E-03  0.2251E-01 -0.2915E-01
   -0.206239    8.95205  0.7384E-12  0.2154E-04  0.2877E-06  0.1988E-03  0.1922E-01 -0.4117E-01
   -0.274987    8.95603  0.7384E-12  0.2062E-04  0.1955E-06  0.2573E-03  0.1689E-01 -0.5398E-01
   -0.343735    8.95903  0.7384E-12  0.1992E-04  0.1459E-06  0.3178E-03  0.1513E-01 -0.6751E-01
   -0.412484    8.96139  0.7384E-12  0.1936E-04  0.1155E-06  0.3801E-03  0.1374E-01 -0.8170E-01
   -0.481233    8.96331  0.7384E-12  0.1889E-04  0.9519E-07  0.4437E-03  0.1260E-01 -0.9637E-01
   -0.549983    8.96492  0.7384E-12  0.1849E-04  0.8072E-07  0.5095E-03  0.1164E-01 -0.1085E+00
   -0.618733    8.96628  0.7384E-12  0.1814E-04  0.6997E-07  0.5906E-03  0.1082E-01 -0.7239E-01
   -0.687483    8.96743  0.7384E-12  0.1784E-04  0.6179E-07  0.7843E-03  0.1010E-01  0.2011E+03
   -0.756234    8.96832  0.7384E-12  0.1758E-04  0.5546E-07  0.1162E-02  0.9473E-02  0.2801E+02
   -0.824985    8.96898  0.7384E-12  0.1736E-04  0.5043E-07  0.1329E-02  0.8921E-02  0.8021E+02
   -0.893737    8.96953  0.7384E-12  0.1717E-04  0.4629E-07  0.1471E-02  0.8401E-02  0.2207E+02
   -0.962488    8.97000  0.7384E-12  0.1700E-04  0.4283E-07  0.1564E-02  0.7913E-02  0.3663E+02
   -1.031240    8.97043  0.7384E-12  0.1684E-04  0.3991E-07  0.1671E-02  0.7448E-02  0.2137E+02
   -1.099992    8.97081  0.7384E-12  0.1669E-04  0.3741E-07  0.1756E-02  0.7002E-02  0.3165E+02
   -1.168744    8.97116  0.7384E-12  0.1654E-04  0.3525E-07  0.1835E-02  0.6572E-02  0.3687E+02
   -1.237496    8.97148  0.7384E-12  0.1639E-04  0.3338E-07  0.1904E-02  0.6154E-02  0.4600E+02
   -1.306249    8.97179  0.7384E-12  0.1623E-04  0.3172E-07  0.1981E-02  0.5745E-02  0.4707E+03
   -1.375001    8.97207  0.7384E-12  0.1606E-04  0.3026E-07  0.2025E-02  0.5346E-02  0.1386E+03
   -1.443753    8.97234  0.7384E-12  0.1587E-04  0.2896E-07  0.2047E-02  0.4951E-02  0.1578E+04
   -1.512506    8.97261  0.7384E-12  0.1567E-04  0.2778E-07  0.2056E-02  0.4560E-02  0.2353E+05
   -1.581258    8.97287  0.7384E-12  0.1544E-04  0.2670E-07  0.2054E-02  0.4173E-02  0.6914E+05
   -1.650010    8.97312  0.7384E-12  0.1518E-04  0.2571E-07  0.2053E-02  0.3786E-02  0.4894E+05
   -1.718762    8.97337  0.7384E-12  0.1489E-04  0.2478E-07  0.2023E-02  0.3400E-02  0.1734E+05
   -1.787514    8.97362  0.7384E-12  0.1454E-04  0.2386E-07  0.2042E-02  0.3011E-02  0.4224E+02
   -1.856265    8.97387  0.7384E-12  0.1416E-04  0.2299E-07  0.2033E-02  0.2666E-02  0.8269E+01
   -1.925017    8.97411  0.7384E-12  0.1374E-04  0.2218E-07  0.2023E-02  0.2358E-02  0.3573E+01
   -1.993768    8.97436  0.7384E-12  0.1329E-04  0.2149E-07  0.2010E-02  0.2086E-02  0.2193E+01
   -2.062519    8.97460  0.7384E-12  0.1285E-04  0.2098E-07  0.1989E-02  0.1843E-02  0.1696E+01
   -2.131269    8.97485  0.7384E-12  0.1242E-04  0.2067E-07  0.1960E-02  0.1619E-02  0.1342E+01
   -2.200019    8.97509  0.7384E-12  0.1200E-04  0.2061E-07  0.1937E-02  0.1410E-02  0.1077E+01
   -2.268769    8.97534  0.7384E-12  0.1160E-04  0.2085E-07  0.1929E-02  0.1217E-02  0.8048E+00
   -2.337518    8.97558  0.7384E-12  0.1122E-04  0.2145E-07  0.1844E-02  0.1044E-02  0.5912E+00
   -2.406267    8.97584  0.7384E-12  0.1086E-04  0.2252E-07  0.1601E-02  0.8949E-03  0.6075E+00
   -2.475015    8.97613  0.7384E-12  0.1052E-04  0.2425E-07  0.1315E-02  0.7698E-03  0.1625E+02
   -2.543763    8.97648  0.7384E-12  0.1014E-04  0.2740E-07  0.1088E-02  0.6651E-03  0.2900E+02
   -2.612510    8.97692  0.7384E-12  0.9537E-05  0.3588E-07  0.4902E-03  0.5632E-03  0.6348E+03
   -2.681256    8.97785  0.7384E-12  0.5842E-05  0.1334E-06  0.3237E-04  0.4327E-03 -0.6502E+04
   -2.750002    8.99138  0.7384E-12  0.0000E+00  0.0000E+00  0.0000E+00  0.4320E-03  0.0000E+00
