 1 - depth, m
 2 - temperature, C
 3 - salinity, kg/kg
 4 - turbulent kinetic energy, m**2/s**2
 5 - dissipation rate, m**2/s**3
 6 - kinematic heat conductance, m**2/s
 7 - modulus of horizontal velocity, m/s
 8 - Richardson number, n/d
   -0.000000    9.39655  0.3319E-10  0.2051E-04  0.1377E-05  0.3443E-04  0.3467E-01 -0.1483E-01
   -0.068746    9.43187  0.3319E-10  0.1807E-04  0.4138E-06  0.9012E-04  0.2176E-01 -0.4176E-01
   -0.137492    9.44398  0.3319E-10  0.1711E-04  0.2226E-06  0.1498E-03  0.1754E-01 -0.6959E-01
   -0.206239    9.45106  0.3319E-10  0.1648E-04  0.1477E-06  0.2154E-03  0.1503E-01 -0.1004E+00
   -0.274987    9.45584  0.3319E-10  0.1601E-04  0.1089E-06  0.2883E-03  0.1331E-01 -0.1257E+00
   -0.343735    9.45930  0.3319E-10  0.1564E-04  0.8559E-07  0.3930E-03  0.1204E-01  0.2044E+02
   -0.412484    9.46185  0.3319E-10  0.1536E-04  0.7039E-07  0.5490E-03  0.1105E-01  0.2135E+02
   -0.481233    9.46373  0.3319E-10  0.1515E-04  0.5994E-07  0.7640E-03  0.1027E-01  0.3141E+02
   -0.549983    9.46509  0.3319E-10  0.1500E-04  0.5246E-07  0.1011E-02  0.9615E-02  0.4575E+02
   -0.618733    9.46608  0.3319E-10  0.1490E-04  0.4687E-07  0.1233E-02  0.9054E-02  0.5054E+02
   -0.687483    9.46683  0.3319E-10  0.1485E-04  0.4253E-07  0.1436E-02  0.8548E-02  0.4661E+02
   -0.756234    9.46743  0.3319E-10  0.1482E-04  0.3900E-07  0.1509E-02  0.8080E-02  0.1349E+02
   -0.824985    9.46798  0.3319E-10  0.1480E-04  0.3604E-07  0.1564E-02  0.7628E-02  0.1516E+02
   -0.893737    9.46851  0.3319E-10  0.1478E-04  0.3353E-07  0.1617E-02  0.7195E-02  0.1663E+02
   -0.962488    9.46900  0.3319E-10  0.1476E-04  0.3139E-07  0.1668E-02  0.6777E-02  0.1825E+02
   -1.031240    9.46947  0.3319E-10  0.1473E-04  0.2954E-07  0.1715E-02  0.6374E-02  0.2008E+02
   -1.099992    9.46992  0.3319E-10  0.1469E-04  0.2793E-07  0.1759E-02  0.5982E-02  0.2223E+02
   -1.168744    9.47035  0.3319E-10  0.1464E-04  0.2652E-07  0.1799E-02  0.5599E-02  0.2489E+02
   -1.237496    9.47076  0.3319E-10  0.1457E-04  0.2528E-07  0.1834E-02  0.5225E-02  0.2833E+02
   -1.306249    9.47115  0.3319E-10  0.1448E-04  0.2418E-07  0.1864E-02  0.4857E-02  0.3307E+02
   -1.375001    9.47154  0.3319E-10  0.1436E-04  0.2320E-07  0.1887E-02  0.4495E-02  0.4009E+02
   -1.443753    9.47191  0.3319E-10  0.1422E-04  0.2232E-07  0.1903E-02  0.4137E-02  0.5177E+02
   -1.512506    9.47227  0.3319E-10  0.1405E-04  0.2152E-07  0.1912E-02  0.3783E-02  0.7500E+02
   -1.581258    9.47262  0.3319E-10  0.1385E-04  0.2080E-07  0.1909E-02  0.3430E-02  0.1420E+03
   -1.650010    9.47296  0.3319E-10  0.1361E-04  0.2014E-07  0.1902E-02  0.3078E-02  0.1112E+04
   -1.718762    9.47330  0.3319E-10  0.1333E-04  0.1952E-07  0.1870E-02  0.2727E-02  0.1478E+05
   -1.787514    9.47364  0.3319E-10  0.1300E-04  0.1892E-07  0.1875E-02  0.2372E-02  0.1811E+02
   -1.856265    9.47398  0.3319E-10  0.1262E-04  0.1837E-07  0.1866E-02  0.2064E-02  0.6026E+01
   -1.925017    9.47431  0.3319E-10  0.1222E-04  0.1792E-07  0.1864E-02  0.1794E-02  0.3101E+01
   -1.993768    9.47465  0.3319E-10  0.1179E-04  0.1759E-07  0.1867E-02  0.1562E-02  0.2049E+01
   -2.062519    9.47498  0.3319E-10  0.1137E-04  0.1744E-07  0.1865E-02  0.1361E-02  0.1620E+01
   -2.131269    9.47530  0.3319E-10  0.1096E-04  0.1750E-07  0.1842E-02  0.1179E-02  0.1301E+01
   -2.200019    9.47563  0.3319E-10  0.1057E-04  0.1779E-07  0.1806E-02  0.1014E-02  0.1056E+01
   -2.268769    9.47596  0.3319E-10  0.1021E-04  0.1838E-07  0.1744E-02  0.8656E-03  0.8077E+00
   -2.337518    9.47629  0.3319E-10  0.9865E-05  0.1931E-07  0.1580E-02  0.7376E-03  0.6038E+00
   -2.406267    9.47666  0.3319E-10  0.9556E-05  0.2067E-07  0.1390E-02  0.6310E-03  0.4630E+00
   -2.475015    9.47707  0.3319E-10  0.9272E-05  0.2263E-07  0.1205E-02  0.5447E-03  0.4359E+00
   -2.543763    9.47755  0.3319E-10  0.8980E-05  0.2580E-07  0.1165E-02  0.4751E-03  0.6676E+00
   -2.612510    9.47803  0.3319E-10  0.8492E-05  0.3500E-07  0.6114E-03  0.4174E-03  0.2247E+04
   -2.681256    9.47942  0.3319E-10  0.5226E-05  0.1448E-06  0.4422E-04  0.3155E-03 -0.1503E+05
   -2.750002    9.49243  0.3319E-10  0.0000E+00  0.0000E+00  0.0000E+00  0.3228E-03  0.0000E+00
