 1 - depth, m
 2 - temperature, C
 3 - salinity, kg/kg
 4 - turbulent kinetic energy, m**2/s**2
 5 - dissipation rate, m**2/s**3
 6 - kinematic heat conductance, m**2/s
 7 - modulus of horizontal velocity, m/s
 8 - Richardson number, n/d
   -0.000000   -0.00000  0.8359E-12  0.2145E-07  0.5621E-10  0.3146E-07  0.3114E-05  0.3211E+16
   -0.068745    0.12410  0.6273E-12  0.1706E-06  0.3316E-10  0.4432E-07  0.2737E-05  0.1395E+16
   -0.137490    0.17733  0.5911E-12  0.5410E-06  0.2582E-10  0.1880E-06  0.2219E-05  0.2854E+15
   -0.206236    0.18896  0.5802E-12  0.5540E-06  0.2634E-10  0.3413E-02  0.1678E-05  0.3101E+12
   -0.274982    0.19021  0.5785E-12  0.5609E-06  0.2667E-10  0.3475E-02  0.1197E-05 -0.2383E+11
   -0.343729    0.19096  0.5774E-12  0.5675E-06  0.2699E-10  0.3517E-02  0.8024E-06 -0.4529E+11
   -0.412477    0.19156  0.5765E-12  0.5739E-06  0.2731E-10  0.3557E-02  0.4971E-06 -0.5898E+11
   -0.481225    0.19203  0.5756E-12  0.5794E-06  0.2759E-10  0.3601E-02  0.2740E-06 -0.6738E+11
   -0.549973    0.19232  0.5748E-12  0.5824E-06  0.2775E-10  0.3644E-02  0.1272E-06 -0.7180E+11
   -0.618722    0.19240  0.5744E-12  0.5826E-06  0.2775E-10  0.3676E-02  0.6659E-07 -0.7224E+11
   -0.687471    0.19239  0.5743E-12  0.5827E-06  0.2775E-10  0.3678E-02  0.6586E-07 -0.6987E+11
   -0.756221    0.19239  0.5743E-12  0.5826E-06  0.2774E-10  0.3677E-02  0.6519E-07 -0.6552E+11
   -0.824971    0.19239  0.5743E-12  0.5825E-06  0.2773E-10  0.3677E-02  0.6460E-07 -0.5781E+11
   -0.893721    0.19239  0.5743E-12  0.5823E-06  0.2771E-10  0.3678E-02  0.6407E-07 -0.4891E+11
   -0.962471    0.19238  0.5743E-12  0.5820E-06  0.2769E-10  0.3677E-02  0.6361E-07 -0.3734E+11
   -1.031222    0.19238  0.5743E-12  0.5816E-06  0.2766E-10  0.3683E-02  0.6323E-07 -0.2385E+11
   -1.099972    0.19238  0.5743E-12  0.5812E-06  0.2764E-10  0.3706E-02  0.6293E-07 -0.6956E+10
   -1.168723    0.19238  0.5743E-12  0.5809E-06  0.2762E-10  0.3823E-02  0.6270E-07  0.2183E+11
   -1.237474    0.19238  0.5743E-12  0.5800E-06  0.2757E-10  0.2445E-05  0.6189E-07  0.1920E+14
   -1.306225    0.19537  0.5720E-12  0.4684E-06  0.2220E-10  0.8360E-07  0.3230E-07  0.4723E+15
   -1.374977    0.21630  0.5670E-12  0.2735E-06  0.1310E-10  0.2281E-07  0.1517E-07  0.1074E+16
   -1.443728    0.26033  0.5641E-12  0.1521E-06  0.7392E-11  0.8052E-08  0.6917E-08  0.1747E+16
   -1.512479    0.33206  0.5632E-12  0.8291E-07  0.4093E-11  0.3105E-08  0.3107E-08  0.2557E+16
   -1.581230    0.43889  0.5625E-12  0.4469E-07  0.2242E-11  0.1272E-08  0.1374E-08  0.3526E+16
   -1.649981    0.58990  0.5617E-12  0.2395E-07  0.1222E-11  0.5626E-09  0.5791E-09  0.4582E+16
   -1.718731    0.79436  0.5612E-12  0.1290E-07  0.6716E-12  0.2848E-09  0.1810E-09  0.5926E+16
   -1.787482    1.05571  0.5609E-12  0.6974E-08  0.3746E-12  0.2172E-09  0.1176E-10  0.9937E+16
   -1.856232    1.27400  0.5607E-12  0.3665E-08  0.2128E-12  0.1698E-09  0.7059E-12  0.7814E+16
   -1.924983    1.45723  0.5606E-12  0.1809E-08  0.1352E-12  0.1413E-09  0.3881E-13  0.6286E+16
   -1.993732    1.61604  0.5606E-12  0.8368E-09  0.1305E-12  0.1301E-09  0.2319E-14  0.6619E+16
   -2.062482    1.79695  0.5606E-12  0.7377E-09  0.2822E-12  0.1587E-09  0.1780E-15  0.1024E+17
   -2.131231    2.11164  0.5604E-12  0.2576E-08  0.1151E-11  0.4839E-09  0.1283E-16  0.1272E+17
   -2.199980    2.60420  0.5599E-12  0.1231E-07  0.5338E-11  0.2970E-08  0.8622E-18  0.1141E+17
   -2.268728    3.32943  0.5588E-12  0.4158E-07  0.1788E-10  0.4309E-05  0.4008E-19  0.4096E+16
   -2.337476    4.04905  0.5570E-12  0.5779E-07  0.2573E-10  0.4844E-04  0.1195E-20  0.7886E+14
   -2.406224    4.11651  0.5569E-12  0.6430E-07  0.2994E-10  0.5591E-04  0.2961E-21 -0.6106E+13
   -2.474971    4.11965  0.5569E-12  0.6763E-07  0.3404E-10  0.5176E-04  0.9644E-22 -0.6912E+13
   -2.543717    4.12310  0.5569E-12  0.6905E-07  0.4033E-10  0.4218E-04  0.2811E-22 -0.9028E+13
   -2.612463    4.12747  0.5569E-12  0.6745E-07  0.5415E-10  0.2645E-04  0.6304E-23 -0.1613E+14
   -2.681208    4.13494  0.5569E-12  0.5113E-07  0.1438E-09  0.4172E-05  0.7876E-24 -0.1530E+15
   -2.749953    4.19161  0.5569E-12  0.0000E+00  0.0000E+00  0.0000E+00  0.7930E-24  0.0000E+00
