 1 - depth, m
 2 - temperature, C
 3 - salinity, kg/kg
 4 - turbulent kinetic energy, m**2/s**2
 5 - dissipation rate, m**2/s**3
 6 - kinematic heat conductance, m**2/s
 7 - modulus of horizontal velocity, m/s
 8 - Richardson number, n/d
   -0.000000   14.65197  0.8636E-11  0.1584E-04  0.8206E-06  0.3388E-04  0.2822E-01 -0.2745E-01
   -0.068746   14.67746  0.8636E-11  0.1472E-04  0.2699E-06  0.9306E-04  0.1805E-01 -0.7394E-01
   -0.137492   14.68600  0.8636E-11  0.1418E-04  0.1514E-06  0.1623E-03  0.1459E-01 -0.1248E+00
   -0.206239   14.69069  0.8636E-11  0.1385E-04  0.1029E-06  0.2436E-03  0.1260E-01 -0.1774E+00
   -0.274987   14.69368  0.8636E-11  0.1364E-04  0.7744E-07  0.3643E-03  0.1129E-01  0.1077E-01
   -0.343735   14.69566  0.8636E-11  0.1352E-04  0.6255E-07  0.6400E-03  0.1035E-01  0.8305E+02
   -0.412484   14.69685  0.8636E-11  0.1349E-04  0.5323E-07  0.9683E-03  0.9660E-02  0.5213E+02
   -0.481233   14.69759  0.8636E-11  0.1353E-04  0.4687E-07  0.1228E-02  0.9108E-02  0.1380E+02
   -0.549983   14.69810  0.8636E-11  0.1362E-04  0.4205E-07  0.1273E-02  0.8617E-02  0.8320E+01
   -0.618733   14.69859  0.8636E-11  0.1373E-04  0.3816E-07  0.1348E-02  0.8144E-02  0.9143E+01
   -0.687483   14.69903  0.8636E-11  0.1385E-04  0.3501E-07  0.1412E-02  0.7700E-02  0.9610E+01
   -0.756234   14.69945  0.8636E-11  0.1397E-04  0.3241E-07  0.1477E-02  0.7277E-02  0.1014E+02
   -0.824985   14.69984  0.8636E-11  0.1409E-04  0.3023E-07  0.1540E-02  0.6873E-02  0.1065E+02
   -0.893737   14.70021  0.8636E-11  0.1419E-04  0.2839E-07  0.1601E-02  0.6484E-02  0.1117E+02
   -0.962488   14.70056  0.8636E-11  0.1428E-04  0.2682E-07  0.1659E-02  0.6107E-02  0.1172E+02
   -1.031240   14.70090  0.8636E-11  0.1435E-04  0.2547E-07  0.1716E-02  0.5740E-02  0.1231E+02
   -1.099992   14.70122  0.8636E-11  0.1440E-04  0.2430E-07  0.1769E-02  0.5381E-02  0.1295E+02
   -1.168744   14.70152  0.8636E-11  0.1442E-04  0.2328E-07  0.1817E-02  0.5030E-02  0.1368E+02
   -1.237496   14.70182  0.8636E-11  0.1442E-04  0.2239E-07  0.1860E-02  0.4684E-02  0.1451E+02
   -1.306249   14.70211  0.8636E-11  0.1438E-04  0.2161E-07  0.1895E-02  0.4342E-02  0.1553E+02
   -1.375001   14.70239  0.8636E-11  0.1431E-04  0.2092E-07  0.1920E-02  0.4004E-02  0.1680E+02
   -1.443753   14.70266  0.8636E-11  0.1420E-04  0.2033E-07  0.1935E-02  0.3668E-02  0.1850E+02
   -1.512506   14.70293  0.8636E-11  0.1405E-04  0.1980E-07  0.1936E-02  0.3334E-02  0.2090E+02
   -1.581258   14.70320  0.8636E-11  0.1386E-04  0.1935E-07  0.1923E-02  0.3000E-02  0.2464E+02
   -1.650010   14.70347  0.8636E-11  0.1361E-04  0.1895E-07  0.1895E-02  0.2666E-02  0.3105E+02
   -1.718762   14.70375  0.8636E-11  0.1332E-04  0.1860E-07  0.1845E-02  0.2332E-02  0.3897E+02
   -1.787514   14.70403  0.8636E-11  0.1296E-04  0.1829E-07  0.1820E-02  0.1995E-02  0.8411E+01
   -1.856265   14.70431  0.8636E-11  0.1255E-04  0.1807E-07  0.1803E-02  0.1708E-02  0.4084E+01
   -1.925017   14.70460  0.8636E-11  0.1212E-04  0.1797E-07  0.1807E-02  0.1465E-02  0.2477E+01
   -1.993768   14.70489  0.8636E-11  0.1167E-04  0.1805E-07  0.1836E-02  0.1262E-02  0.1777E+01
   -2.062519   14.70516  0.8636E-11  0.1124E-04  0.1832E-07  0.1868E-02  0.1093E-02  0.1457E+01
   -2.131269   14.70544  0.8636E-11  0.1082E-04  0.1882E-07  0.1801E-02  0.9449E-03  0.1202E+01
   -2.200019   14.70572  0.8636E-11  0.1043E-04  0.1957E-07  0.1658E-02  0.8151E-03  0.9905E+00
   -2.268769   14.70603  0.8636E-11  0.1008E-04  0.2060E-07  0.1503E-02  0.7020E-03  0.7825E+00
   -2.337518   14.70638  0.8636E-11  0.9747E-05  0.2201E-07  0.1338E-02  0.6081E-03  0.6527E+00
   -2.406267   14.70677  0.8636E-11  0.9416E-05  0.2412E-07  0.1219E-02  0.5317E-03  0.8902E+00
   -2.475015   14.70720  0.8636E-11  0.9014E-05  0.2829E-07  0.9801E-03  0.4656E-03  0.2540E+02
   -2.543762   14.70783  0.8636E-11  0.8418E-05  0.3717E-07  0.8114E-03  0.3924E-03  0.4460E+02
   -2.612510   14.70863  0.8636E-11  0.7288E-05  0.6360E-07  0.4212E-03  0.3205E-03  0.5116E+03
   -2.681256   14.71152  0.8636E-11  0.4407E-05  0.2128E-06  0.9062E-04  0.2069E-03 -0.6523E+04
   -2.750002   14.71878  0.8636E-11  0.0000E+00  0.0000E+00  0.0000E+00  0.2553E-03  0.0000E+00
