 1 - depth, m
 2 - temperature, C
 3 - salinity, kg/kg
 4 - turbulent kinetic energy, m**2/s**2
 5 - dissipation rate, m**2/s**3
 6 - kinematic heat conductance, m**2/s
 7 - modulus of horizontal velocity, m/s
 8 - Richardson number, n/d
   -0.000000   -0.00000  0.1238E-09  0.1219E-13  0.7603E-17  0.1000E-09  0.0000E+00  0.6813E+16
   -0.068746    0.10364  0.7356E-10  0.1219E-13  0.7603E-17  0.1000E-09  0.0000E+00  0.6566E+16
   -0.137492    0.20639  0.5330E-10  0.1219E-13  0.7603E-17  0.1000E-09  0.0000E+00  0.6335E+16
   -0.206239    0.30843  0.4634E-10  0.1219E-13  0.7603E-17  0.1000E-09  0.0000E+00  0.6120E+16
   -0.274987    0.40995  0.4429E-10  0.1219E-13  0.7603E-17  0.1000E-09  0.0000E+00  0.5919E+16
   -0.343735    0.51114  0.4377E-10  0.1219E-13  0.7603E-17  0.1000E-09  0.0000E+00  0.5732E+16
   -0.412483    0.61218  0.4364E-10  0.1219E-13  0.7603E-17  0.1000E-09  0.0000E+00  0.5555E+16
   -0.481232    0.71327  0.4362E-10  0.1219E-13  0.7603E-17  0.1000E-09  0.0000E+00  0.5388E+16
   -0.549982    0.81456  0.4361E-10  0.1219E-13  0.7603E-17  0.1000E-09  0.0000E+00  0.5229E+16
   -0.618732    0.91622  0.4361E-10  0.1219E-13  0.7603E-17  0.1000E-09  0.0000E+00  0.5075E+16
   -0.687482    1.01840  0.4361E-10  0.1219E-13  0.7603E-17  0.1000E-09  0.0000E+00  0.4935E+16
   -0.756233    1.12144  0.4361E-10  0.1219E-13  0.7603E-17  0.1000E-09  0.0000E+00  0.4802E+16
   -0.824984    1.22556  0.4361E-10  0.1219E-13  0.7603E-17  0.1000E-09  0.0000E+00  0.4667E+16
   -0.893735    1.33087  0.4361E-10  0.1219E-13  0.7603E-17  0.1000E-09  0.0000E+00  0.4530E+16
   -0.962487    1.43743  0.4361E-10  0.1219E-13  0.7603E-17  0.1000E-09  0.0000E+00  0.4388E+16
   -1.031238    1.54527  0.4360E-10  0.1219E-13  0.7603E-17  0.1000E-09  0.0000E+00  0.4240E+16
   -1.099990    1.65441  0.4358E-10  0.1219E-13  0.7603E-17  0.1000E-09  0.0000E+00  0.4086E+16
   -1.168742    1.76484  0.4353E-10  0.1219E-13  0.7603E-17  0.1000E-09  0.0000E+00  0.3923E+16
   -1.237494    1.87653  0.4346E-10  0.1219E-13  0.7603E-17  0.1000E-09  0.0000E+00  0.3753E+16
   -1.306247    1.98941  0.4334E-10  0.1219E-13  0.7603E-17  0.1000E-09  0.0000E+00  0.3573E+16
   -1.374999    2.10339  0.4319E-10  0.1219E-13  0.7603E-17  0.1000E-09  0.0000E+00  0.3389E+16
   -1.443751    2.21849  0.4303E-10  0.1219E-13  0.7603E-17  0.1000E-09  0.0000E+00  0.3197E+16
   -1.512503    2.33462  0.4289E-10  0.1219E-13  0.7603E-17  0.1000E-09  0.0000E+00  0.2995E+16
   -1.581255    2.45161  0.4280E-10  0.1219E-13  0.7603E-17  0.1000E-09  0.0000E+00  0.2785E+16
   -1.650007    2.56926  0.4274E-10  0.1219E-13  0.7603E-17  0.1000E-09  0.0000E+00  0.2567E+16
   -1.718759    2.68736  0.4271E-10  0.1219E-13  0.7603E-17  0.1000E-09  0.0000E+00  0.2345E+16
   -1.787511    2.80572  0.4268E-10  0.1219E-13  0.7603E-17  0.1000E-09  0.0000E+00  0.2134E+16
   -1.856263    2.92511  0.4266E-10  0.4847E-13  0.1454E-16  0.1000E-09  0.0000E+00  0.1918E+16
   -1.925014    3.04548  0.4264E-10  0.1850E-12  0.4926E-16  0.1000E-09  0.0000E+00  0.1696E+16
   -1.993765    3.16679  0.4259E-10  0.6661E-12  0.1698E-15  0.1000E-09  0.0000E+00  0.1466E+16
   -2.062516    3.28872  0.4252E-10  0.2288E-11  0.5624E-15  0.1000E-09  0.0000E+00  0.1228E+16
   -2.131266    3.41056  0.4243E-10  0.7703E-11  0.1827E-14  0.1000E-09  0.0000E+00  0.9885E+15
   -2.200016    3.53211  0.4233E-10  0.2552E-10  0.5846E-14  0.1000E-09  0.0000E+00  0.7512E+15
   -2.268765    3.65315  0.4225E-10  0.8408E-10  0.1861E-13  0.1819E-09  0.0000E+00  0.5185E+15
   -2.337514    3.77399  0.4222E-10  0.2783E-09  0.5955E-13  0.1048E-08  0.0000E+00  0.2873E+15
   -2.406263    3.89418  0.4221E-10  0.9115E-09  0.1891E-12  0.1462E-07  0.0000E+00  0.6400E+14
   -2.475011    4.00430  0.4221E-10  0.2140E-08  0.4452E-12  0.4153E-05  0.0000E+00 -0.1275E+13
   -2.543759    4.00837  0.4221E-10  0.2625E-08  0.6406E-12  0.3962E-05  0.0000E+00 -0.1684E+13
   -2.612506    4.01280  0.4221E-10  0.2851E-08  0.1014E-11  0.2625E-05  0.0000E+00 -0.3372E+13
   -2.681252    4.01996  0.4221E-10  0.2637E-08  0.2560E-11  0.7405E-06  0.0000E+00 -0.2224E+14
   -2.749998    4.04934  0.4221E-10  0.0000E+00  0.0000E+00  0.0000E+00  0.0000E+00  0.0000E+00
