 1 - depth, m
 2 - temperature, C
 3 - salinity, kg/kg
 4 - turbulent kinetic energy, m**2/s**2
 5 - dissipation rate, m**2/s**3
 6 - kinematic heat conductance, m**2/s
 7 - modulus of horizontal velocity, m/s
 8 - Richardson number, n/d
   -0.000000   -0.00000  0.4335E-13  0.1219E-13  0.7603E-17  0.1000E-09  0.0000E+00  0.6869E+16
   -0.068746    0.10450  0.3670E-12  0.1219E-13  0.7603E-17  0.1000E-09  0.0000E+00  0.6786E+16
   -0.137493    0.21078  0.7161E-12  0.1219E-13  0.7603E-17  0.1000E-09  0.0000E+00  0.6690E+16
   -0.206240    0.31876  0.9314E-12  0.1219E-13  0.7603E-17  0.1000E-09  0.0000E+00  0.6579E+16
   -0.274988    0.42835  0.1001E-11  0.1219E-13  0.7603E-17  0.1000E-09  0.0000E+00  0.6453E+16
   -0.343736    0.53944  0.9798E-12  0.1219E-13  0.7603E-17  0.1000E-09  0.0000E+00  0.6313E+16
   -0.412485    0.65192  0.9223E-12  0.1219E-13  0.7603E-17  0.1000E-09  0.0000E+00  0.6160E+16
   -0.481234    0.76567  0.8633E-12  0.1219E-13  0.7603E-17  0.1000E-09  0.0000E+00  0.5993E+16
   -0.549984    0.88056  0.8178E-12  0.1219E-13  0.7603E-17  0.1000E-09  0.0000E+00  0.5814E+16
   -0.618734    0.99647  0.7882E-12  0.1219E-13  0.7603E-17  0.1000E-09  0.0000E+00  0.5625E+16
   -0.687485    1.11327  0.7712E-12  0.1219E-13  0.7603E-17  0.1000E-09  0.0000E+00  0.5425E+16
   -0.756236    1.23085  0.7622E-12  0.1219E-13  0.7603E-17  0.1000E-09  0.0000E+00  0.5217E+16
   -0.824987    1.34909  0.7579E-12  0.1219E-13  0.7603E-17  0.1000E-09  0.0000E+00  0.5001E+16
   -0.893739    1.46788  0.7558E-12  0.1219E-13  0.7603E-17  0.1000E-09  0.0000E+00  0.4779E+16
   -0.962490    1.58713  0.7547E-12  0.1219E-13  0.7603E-17  0.1000E-09  0.0000E+00  0.4551E+16
   -1.031242    1.70673  0.7539E-12  0.1219E-13  0.7603E-17  0.1000E-09  0.0000E+00  0.4320E+16
   -1.099994    1.82660  0.7529E-12  0.1219E-13  0.7603E-17  0.1000E-09  0.0000E+00  0.4085E+16
   -1.168747    1.94667  0.7518E-12  0.1219E-13  0.7603E-17  0.1000E-09  0.0000E+00  0.3847E+16
   -1.237499    2.06685  0.7503E-12  0.1219E-13  0.7603E-17  0.1000E-09  0.0000E+00  0.3608E+16
   -1.306252    2.18709  0.7485E-12  0.1219E-13  0.7603E-17  0.1000E-09  0.0000E+00  0.3368E+16
   -1.375004    2.30734  0.7465E-12  0.1219E-13  0.7603E-17  0.1000E-09  0.0000E+00  0.3128E+16
   -1.443757    2.42755  0.7443E-12  0.1219E-13  0.7603E-17  0.1000E-09  0.0000E+00  0.2889E+16
   -1.512509    2.54769  0.7422E-12  0.1219E-13  0.7603E-17  0.1000E-09  0.0000E+00  0.2650E+16
   -1.581261    2.66773  0.7402E-12  0.1219E-13  0.7603E-17  0.1000E-09  0.0000E+00  0.2412E+16
   -1.650014    2.78765  0.7384E-12  0.4475E-13  0.9821E-17  0.1000E-09  0.0000E+00  0.2176E+16
   -1.718766    2.90742  0.7369E-12  0.1395E-12  0.2482E-16  0.1000E-09  0.0000E+00  0.1940E+16
   -1.787518    3.02696  0.7357E-12  0.4025E-12  0.6768E-16  0.1000E-09  0.0000E+00  0.1678E+16
   -1.856270    3.14419  0.7348E-12  0.1138E-11  0.1849E-15  0.1000E-09  0.0000E+00  0.1425E+16
   -1.925021    3.25862  0.7340E-12  0.3180E-11  0.5007E-15  0.1000E-09  0.0000E+00  0.1181E+16
   -1.993772    3.36957  0.7333E-12  0.8814E-11  0.1346E-14  0.1000E-09  0.0000E+00  0.9559E+15
   -2.062523    3.47699  0.7329E-12  0.2366E-10  0.3506E-14  0.1000E-09  0.0000E+00  0.7692E+15
   -2.131274    3.58393  0.7326E-12  0.6258E-10  0.9005E-14  0.1000E-09  0.0000E+00  0.5873E+15
   -2.200024    3.69077  0.7324E-12  0.1638E-09  0.2289E-13  0.2862E-09  0.0000E+00  0.4063E+15
   -2.268774    3.79744  0.7323E-12  0.4278E-09  0.5810E-13  0.1304E-08  0.0000E+00  0.2260E+15
   -2.337523    3.90337  0.7322E-12  0.1120E-08  0.1480E-12  0.1421E-07  0.0000E+00  0.5234E+14
   -2.406272    4.00053  0.7322E-12  0.1967E-08  0.2616E-12  0.6551E-05  0.0000E+00 -0.5403E+12
   -2.475021    4.00278  0.7322E-12  0.2288E-08  0.3284E-12  0.6560E-05  0.0000E+00 -0.6119E+12
   -2.543768    4.00500  0.7322E-12  0.2450E-08  0.4142E-12  0.5476E-05  0.0000E+00 -0.8187E+12
   -2.612516    4.00762  0.7322E-12  0.2394E-08  0.5813E-12  0.3212E-05  0.0000E+00 -0.1566E+13
   -2.681262    4.01188  0.7322E-12  0.1750E-08  0.1327E-11  0.5127E-06  0.0000E+00 -0.1115E+14
   -2.750008    4.03189  0.7322E-12  0.0000E+00  0.0000E+00  0.0000E+00  0.0000E+00  0.0000E+00
