 1 - depth, m
 2 - temperature, C
 3 - salinity, kg/kg
 4 - turbulent kinetic energy, m**2/s**2
 5 - dissipation rate, m**2/s**3
 6 - kinematic heat conductance, m**2/s
 7 - modulus of horizontal velocity, m/s
 8 - Richardson number, n/d
   -0.000000   -0.00000  0.4983E-12  0.1219E-13  0.7603E-17  0.1000E-09  0.0000E+00  0.6970E+16
   -0.068746    0.10606  0.2331E-11  0.1219E-13  0.7603E-17  0.1000E-09  0.0000E+00  0.6893E+16
   -0.137493    0.21410  0.3551E-11  0.1219E-13  0.7603E-17  0.1000E-09  0.0000E+00  0.6793E+16
   -0.206240    0.32388  0.3976E-11  0.1219E-13  0.7603E-17  0.1000E-09  0.0000E+00  0.6672E+16
   -0.274988    0.43522  0.3917E-11  0.1219E-13  0.7603E-17  0.1000E-09  0.0000E+00  0.6533E+16
   -0.343736    0.54795  0.3662E-11  0.1219E-13  0.7603E-17  0.1000E-09  0.0000E+00  0.6378E+16
   -0.412485    0.66191  0.3390E-11  0.1219E-13  0.7603E-17  0.1000E-09  0.0000E+00  0.6208E+16
   -0.481234    0.77694  0.3179E-11  0.1219E-13  0.7603E-17  0.1000E-09  0.0000E+00  0.6025E+16
   -0.549984    0.89289  0.3042E-11  0.1219E-13  0.7603E-17  0.1000E-09  0.0000E+00  0.5829E+16
   -0.618735    1.00961  0.2964E-11  0.1219E-13  0.7603E-17  0.1000E-09  0.0000E+00  0.5624E+16
   -0.687485    1.12697  0.2925E-11  0.1219E-13  0.7603E-17  0.1000E-09  0.0000E+00  0.5410E+16
   -0.756236    1.24484  0.2906E-11  0.1219E-13  0.7603E-17  0.1000E-09  0.0000E+00  0.5189E+16
   -0.824988    1.36310  0.2898E-11  0.1219E-13  0.7603E-17  0.1000E-09  0.0000E+00  0.4963E+16
   -0.893739    1.48165  0.2893E-11  0.1219E-13  0.7603E-17  0.1000E-09  0.0000E+00  0.4731E+16
   -0.962491    1.60038  0.2890E-11  0.1219E-13  0.7603E-17  0.1000E-09  0.0000E+00  0.4495E+16
   -1.031243    1.71919  0.2887E-11  0.1219E-13  0.7603E-17  0.1000E-09  0.0000E+00  0.4257E+16
   -1.099995    1.83799  0.2882E-11  0.1219E-13  0.7603E-17  0.1000E-09  0.0000E+00  0.4018E+16
   -1.168747    1.95672  0.2877E-11  0.1219E-13  0.7603E-17  0.1000E-09  0.0000E+00  0.3778E+16
   -1.237500    2.07532  0.2870E-11  0.1219E-13  0.7603E-17  0.1000E-09  0.0000E+00  0.3538E+16
   -1.306252    2.19371  0.2861E-11  0.1219E-13  0.7603E-17  0.1000E-09  0.0000E+00  0.3299E+16
   -1.375005    2.31187  0.2853E-11  0.1219E-13  0.7603E-17  0.1000E-09  0.0000E+00  0.3062E+16
   -1.443757    2.42979  0.2844E-11  0.1219E-13  0.7603E-17  0.1000E-09  0.0000E+00  0.2827E+16
   -1.512510    2.54745  0.2836E-11  0.1219E-13  0.7603E-17  0.1000E-09  0.0000E+00  0.2595E+16
   -1.581262    2.66485  0.2829E-11  0.1219E-13  0.7603E-17  0.1000E-09  0.0000E+00  0.2364E+16
   -1.650015    2.78199  0.2823E-11  0.1712E-13  0.7603E-17  0.1000E-09  0.0000E+00  0.2137E+16
   -1.718767    2.89889  0.2818E-11  0.6893E-13  0.1314E-16  0.1000E-09  0.0000E+00  0.1911E+16
   -1.787519    3.01550  0.2814E-11  0.2087E-12  0.3424E-16  0.1000E-09  0.0000E+00  0.1666E+16
   -1.856271    3.13023  0.2811E-11  0.5857E-12  0.9163E-16  0.1000E-09  0.0000E+00  0.1427E+16
   -1.925022    3.24269  0.2809E-11  0.1604E-11  0.2430E-15  0.1000E-09  0.0000E+00  0.1197E+16
   -1.993773    3.35239  0.2807E-11  0.4350E-11  0.6391E-15  0.1000E-09  0.0000E+00  0.9811E+15
   -2.062524    3.45930  0.2805E-11  0.1143E-10  0.1630E-14  0.1000E-09  0.0000E+00  0.7967E+15
   -2.131275    3.56585  0.2804E-11  0.2958E-10  0.4101E-14  0.1000E-09  0.0000E+00  0.6162E+15
   -2.200025    3.67235  0.2804E-11  0.7582E-10  0.1022E-13  0.1190E-09  0.0000E+00  0.4367E+15
   -2.268775    3.77885  0.2803E-11  0.1942E-09  0.2543E-13  0.5018E-09  0.0000E+00  0.2575E+15
   -2.337525    3.88508  0.2803E-11  0.5014E-09  0.6390E-13  0.4032E-08  0.0000E+00  0.8030E+14
   -2.406274    3.98878  0.2803E-11  0.1032E-08  0.1310E-12  0.2674E-05  0.0000E+00 -0.4267E+12
   -2.475022    3.99418  0.2803E-11  0.1366E-08  0.1951E-12  0.3696E-05  0.0000E+00 -0.5902E+12
   -2.543770    3.99803  0.2803E-11  0.1588E-08  0.2776E-12  0.3438E-05  0.0000E+00 -0.8768E+12
   -2.612517    4.00210  0.2803E-11  0.1648E-08  0.4267E-12  0.2166E-05  0.0000E+00 -0.1822E+13
   -2.681264    4.00826  0.2803E-11  0.1310E-08  0.9831E-12  0.4268E-06  0.0000E+00 -0.1211E+14
   -2.750010    4.03134  0.2803E-11  0.0000E+00  0.0000E+00  0.0000E+00  0.0000E+00  0.0000E+00
