 1 - depth, m
 2 - temperature, C
 3 - salinity, kg/kg
 4 - turbulent kinetic energy, m**2/s**2
 5 - dissipation rate, m**2/s**3
 6 - kinematic heat conductance, m**2/s
 7 - modulus of horizontal velocity, m/s
 8 - Richardson number, n/d
   -0.000000   -0.00000  0.8090E-11  0.1219E-13  0.7603E-17  0.1000E-09  0.0000E+00  0.7159E+16
   -0.068746    0.10898  0.4748E-11  0.1219E-13  0.7603E-17  0.1000E-09  0.0000E+00  0.6876E+16
   -0.137492    0.21682  0.3448E-11  0.1219E-13  0.7603E-17  0.1000E-09  0.0000E+00  0.6626E+16
   -0.206239    0.32395  0.3035E-11  0.1219E-13  0.7603E-17  0.1000E-09  0.0000E+00  0.6406E+16
   -0.274986    0.43079  0.2925E-11  0.1219E-13  0.7603E-17  0.1000E-09  0.0000E+00  0.6211E+16
   -0.343735    0.53773  0.2900E-11  0.1219E-13  0.7603E-17  0.1000E-09  0.0000E+00  0.6038E+16
   -0.412483    0.64516  0.2895E-11  0.1219E-13  0.7603E-17  0.1000E-09  0.0000E+00  0.5882E+16
   -0.481232    0.75345  0.2894E-11  0.1219E-13  0.7603E-17  0.1000E-09  0.0000E+00  0.5740E+16
   -0.549982    0.86294  0.2894E-11  0.1219E-13  0.7603E-17  0.1000E-09  0.0000E+00  0.5608E+16
   -0.618732    0.97397  0.2894E-11  0.1219E-13  0.7603E-17  0.1000E-09  0.0000E+00  0.5483E+16
   -0.687482    1.08684  0.2894E-11  0.1219E-13  0.7603E-17  0.1000E-09  0.0000E+00  0.5372E+16
   -0.756233    1.20209  0.2894E-11  0.1219E-13  0.7603E-17  0.1000E-09  0.0000E+00  0.5266E+16
   -0.824984    1.32012  0.2894E-11  0.1219E-13  0.7603E-17  0.1000E-09  0.0000E+00  0.5153E+16
   -0.893735    1.44116  0.2893E-11  0.1219E-13  0.7603E-17  0.1000E-09  0.0000E+00  0.5030E+16
   -0.962486    1.56539  0.2893E-11  0.1817E-13  0.7603E-17  0.1000E-09  0.0000E+00  0.4893E+16
   -1.031238    1.69297  0.2891E-11  0.7226E-13  0.1085E-16  0.1000E-09  0.0000E+00  0.4740E+16
   -1.099990    1.82401  0.2887E-11  0.1950E-12  0.2376E-16  0.1000E-09  0.0000E+00  0.4568E+16
   -1.168742    1.95858  0.2880E-11  0.4682E-12  0.5376E-16  0.1000E-09  0.0000E+00  0.4373E+16
   -1.237494    2.09671  0.2869E-11  0.1081E-11  0.1202E-15  0.1000E-09  0.0000E+00  0.4156E+16
   -1.306246    2.23837  0.2854E-11  0.2455E-11  0.2656E-15  0.1000E-09  0.0000E+00  0.3913E+16
   -1.374998    2.38351  0.2840E-11  0.5510E-11  0.5808E-15  0.1000E-09  0.0000E+00  0.3648E+16
   -1.443751    2.53220  0.2829E-11  0.1224E-10  0.1258E-14  0.1000E-09  0.0000E+00  0.3357E+16
   -1.512503    2.68433  0.2821E-11  0.2693E-10  0.2699E-14  0.1000E-09  0.0000E+00  0.3038E+16
   -1.581255    2.83970  0.2816E-11  0.5871E-10  0.5738E-14  0.1000E-09  0.0000E+00  0.2693E+16
   -1.650007    2.99801  0.2813E-11  0.1268E-09  0.1209E-13  0.1000E-09  0.0000E+00  0.2322E+16
   -1.718759    3.15893  0.2812E-11  0.2716E-09  0.2527E-13  0.1000E-09  0.0000E+00  0.1930E+16
   -1.787510    3.32222  0.2810E-11  0.5897E-09  0.5355E-13  0.1770E-09  0.0000E+00  0.1540E+16
   -1.856262    3.49010  0.2809E-11  0.1292E-08  0.1145E-12  0.5230E-09  0.0000E+00  0.1115E+16
   -1.925013    3.66249  0.2806E-11  0.2828E-08  0.2448E-12  0.1908E-08  0.0000E+00  0.6527E+15
   -1.993764    3.83851  0.2803E-11  0.6127E-08  0.5188E-12  0.1560E-07  0.0000E+00  0.1691E+15
   -2.062515    4.00345  0.2802E-11  0.6972E-08  0.5938E-12  0.3301E-04  0.0000E+00 -0.2137E+12
   -2.131265    4.00423  0.2802E-11  0.7329E-08  0.6339E-12  0.3369E-04  0.0000E+00 -0.2191E+12
   -2.200015    4.00500  0.2802E-11  0.7614E-08  0.6767E-12  0.3353E-04  0.0000E+00 -0.2298E+12
   -2.268765    4.00576  0.2802E-11  0.7832E-08  0.7253E-12  0.3250E-04  0.0000E+00 -0.2475E+12
   -2.337514    4.00656  0.2802E-11  0.7988E-08  0.7856E-12  0.3045E-04  0.0000E+00 -0.2760E+12
   -2.406262    4.00741  0.2802E-11  0.8073E-08  0.8669E-12  0.2722E-04  0.0000E+00 -0.3236E+12
   -2.475010    4.00837  0.2802E-11  0.8067E-08  0.9891E-12  0.2262E-04  0.0000E+00 -0.4110E+12
   -2.543758    4.00953  0.2802E-11  0.7916E-08  0.1205E-11  0.1645E-04  0.0000E+00 -0.6051E+12
   -2.612505    4.01114  0.2802E-11  0.7448E-08  0.1730E-11  0.8730E-05  0.0000E+00 -0.1271E+13
   -2.681251    4.01421  0.2802E-11  0.5434E-08  0.4858E-11  0.1203E-05  0.0000E+00 -0.1335E+14
   -2.749997    4.03615  0.2802E-11  0.0000E+00  0.0000E+00  0.0000E+00  0.0000E+00  0.0000E+00
