 1 - depth, m
 2 - temperature, C
 3 - salinity, kg/kg
 4 - turbulent kinetic energy, m**2/s**2
 5 - dissipation rate, m**2/s**3
 6 - kinematic heat conductance, m**2/s
 7 - modulus of horizontal velocity, m/s
 8 - Richardson number, n/d
   -0.000000    9.26798  0.1124E-10  0.1540E-04  0.7388E-06  0.3465E-04  0.2744E-01 -0.2292E-01
   -0.068746    9.30362  0.1124E-10  0.1441E-04  0.2556E-06  0.9079E-04  0.1792E-01 -0.5986E-01
   -0.137492    9.31647  0.1124E-10  0.1383E-04  0.1458E-06  0.1538E-03  0.1446E-01 -0.1006E+00
   -0.206239    9.32379  0.1124E-10  0.1342E-04  0.9962E-07  0.2245E-03  0.1245E-01 -0.1462E+00
   -0.274987    9.32864  0.1124E-10  0.1311E-04  0.7478E-07  0.3054E-03  0.1108E-01 -0.1854E+00
   -0.343735    9.33210  0.1124E-10  0.1290E-04  0.5966E-07  0.4468E-03  0.1008E-01  0.2432E+00
   -0.412484    9.33446  0.1124E-10  0.1275E-04  0.5012E-07  0.8447E-03  0.9320E-02  0.6935E+02
   -0.481233    9.33581  0.1124E-10  0.1268E-04  0.4373E-07  0.1076E-02  0.8760E-02  0.2758E+02
   -0.549983    9.33678  0.1124E-10  0.1267E-04  0.3893E-07  0.1213E-02  0.8257E-02  0.3547E+02
   -0.618733    9.33758  0.1124E-10  0.1269E-04  0.3518E-07  0.1306E-02  0.7795E-02  0.2132E+02
   -0.687483    9.33828  0.1124E-10  0.1273E-04  0.3213E-07  0.1365E-02  0.7361E-02  0.1069E+02
   -0.756234    9.33895  0.1124E-10  0.1277E-04  0.2960E-07  0.1422E-02  0.6947E-02  0.1145E+02
   -0.824985    9.33957  0.1124E-10  0.1282E-04  0.2749E-07  0.1476E-02  0.6552E-02  0.1212E+02
   -0.893736    9.34016  0.1124E-10  0.1286E-04  0.2569E-07  0.1529E-02  0.6173E-02  0.1281E+02
   -0.962488    9.34072  0.1124E-10  0.1289E-04  0.2415E-07  0.1579E-02  0.5807E-02  0.1354E+02
   -1.031240    9.34125  0.1124E-10  0.1290E-04  0.2282E-07  0.1626E-02  0.5452E-02  0.1432E+02
   -1.099992    9.34176  0.1124E-10  0.1290E-04  0.2166E-07  0.1670E-02  0.5106E-02  0.1520E+02
   -1.168744    9.34225  0.1124E-10  0.1288E-04  0.2065E-07  0.1710E-02  0.4768E-02  0.1621E+02
   -1.237496    9.34272  0.1124E-10  0.1284E-04  0.1976E-07  0.1745E-02  0.4437E-02  0.1744E+02
   -1.306248    9.34318  0.1124E-10  0.1278E-04  0.1897E-07  0.1773E-02  0.4111E-02  0.1897E+02
   -1.375001    9.34362  0.1124E-10  0.1269E-04  0.1827E-07  0.1795E-02  0.3789E-02  0.2101E+02
   -1.443753    9.34405  0.1124E-10  0.1257E-04  0.1765E-07  0.1808E-02  0.3471E-02  0.2389E+02
   -1.512505    9.34447  0.1124E-10  0.1242E-04  0.1710E-07  0.1811E-02  0.3155E-02  0.2845E+02
   -1.581258    9.34489  0.1124E-10  0.1224E-04  0.1662E-07  0.1802E-02  0.2841E-02  0.3674E+02
   -1.650010    9.34530  0.1124E-10  0.1202E-04  0.1618E-07  0.1786E-02  0.2528E-02  0.5735E+02
   -1.718762    9.34571  0.1124E-10  0.1176E-04  0.1579E-07  0.1746E-02  0.2215E-02  0.1225E+03
   -1.787514    9.34613  0.1124E-10  0.1145E-04  0.1543E-07  0.1745E-02  0.1900E-02  0.9663E+01
   -1.856265    9.34655  0.1124E-10  0.1111E-04  0.1514E-07  0.1742E-02  0.1630E-02  0.4339E+01
   -1.925017    9.34696  0.1124E-10  0.1074E-04  0.1494E-07  0.1756E-02  0.1400E-02  0.2543E+01
   -1.993768    9.34737  0.1124E-10  0.1036E-04  0.1488E-07  0.1788E-02  0.1208E-02  0.1792E+01
   -2.062518    9.34776  0.1124E-10  0.9995E-05  0.1498E-07  0.1816E-02  0.1045E-02  0.1457E+01
   -2.131269    9.34815  0.1124E-10  0.9647E-05  0.1525E-07  0.1763E-02  0.9023E-03  0.1192E+01
   -2.200019    9.34855  0.1124E-10  0.9321E-05  0.1572E-07  0.1663E-02  0.7760E-03  0.9793E+00
   -2.268769    9.34897  0.1124E-10  0.9024E-05  0.1641E-07  0.1526E-02  0.6652E-03  0.7648E+00
   -2.337518    9.34943  0.1124E-10  0.8749E-05  0.1738E-07  0.1368E-02  0.5724E-03  0.6110E+00
   -2.406266    9.34994  0.1124E-10  0.8487E-05  0.1879E-07  0.1235E-02  0.4966E-03  0.6428E+00
   -2.475015    9.35050  0.1124E-10  0.8206E-05  0.2114E-07  0.1043E-02  0.4331E-03  0.3101E+02
   -2.543762    9.35120  0.1124E-10  0.7839E-05  0.2577E-07  0.9252E-03  0.3726E-03  0.5334E+02
   -2.612509    9.35207  0.1124E-10  0.7148E-05  0.4014E-07  0.4778E-03  0.3151E-03  0.1048E+04
   -2.681256    9.35507  0.1124E-10  0.4330E-05  0.1490E-06  0.6493E-04  0.2182E-03 -0.9016E+04
   -2.750002    9.36679  0.1124E-10  0.0000E+00  0.0000E+00  0.0000E+00  0.2417E-03  0.0000E+00
