 1 - depth, m
 2 - temperature, C
 3 - salinity, kg/kg
 4 - turbulent kinetic energy, m**2/s**2
 5 - dissipation rate, m**2/s**3
 6 - kinematic heat conductance, m**2/s
 7 - modulus of horizontal velocity, m/s
 8 - Richardson number, n/d
   -0.000000   -0.00000  0.2183E-13  0.1218E-13  0.7600E-17  0.1000E-09  0.0000E+00  0.5428E+16
   -0.068749    0.08289  0.8350E-18  0.1218E-13  0.7600E-17  0.1000E-09  0.0000E+00  0.3288E+16
   -0.137499    0.13390  0.4630E-13  0.1218E-13  0.7600E-17  0.1000E-09  0.0000E+00  0.3113E+16
   -0.206250    0.18254  0.3114E-13  0.1218E-13  0.7600E-17  0.1000E-09  0.0000E+00  0.3364E+16
   -0.275001    0.23585  0.3679E-12  0.1218E-13  0.7600E-17  0.1000E-09  0.0000E+00  0.3645E+16
   -0.343753    0.29459  0.1194E-11  0.1218E-13  0.7600E-17  0.1000E-09  0.0000E+00  0.3888E+16
   -0.412505    0.35842  0.2923E-11  0.1218E-13  0.7600E-17  0.1000E-09  0.0000E+00  0.4094E+16
   -0.481258    0.42698  0.4889E-11  0.1218E-13  0.7600E-17  0.1000E-09  0.0000E+00  0.4268E+16
   -0.550011    0.50001  0.6529E-11  0.1218E-13  0.7600E-17  0.1000E-09  0.0000E+00  0.4414E+16
   -0.618764    0.57730  0.7563E-11  0.1218E-13  0.7600E-17  0.1000E-09  0.0000E+00  0.4537E+16
   -0.687518    0.65874  0.7993E-11  0.1218E-13  0.7600E-17  0.1000E-09  0.0000E+00  0.4618E+16
   -0.756273    0.74386  0.7987E-11  0.1218E-13  0.7600E-17  0.1000E-09  0.0000E+00  0.4662E+16
   -0.825027    0.83224  0.7750E-11  0.1218E-13  0.7600E-17  0.1000E-09  0.0000E+00  0.4682E+16
   -0.893782    0.92373  0.7445E-11  0.1218E-13  0.7600E-17  0.1000E-09  0.0000E+00  0.4679E+16
   -0.962537    1.01812  0.7169E-11  0.1218E-13  0.7600E-17  0.1000E-09  0.0000E+00  0.4653E+16
   -1.031293    1.11522  0.6958E-11  0.1218E-13  0.7600E-17  0.1000E-09  0.0000E+00  0.4607E+16
   -1.100048    1.21489  0.6815E-11  0.1218E-13  0.7600E-17  0.1000E-09  0.0000E+00  0.4543E+16
   -1.168804    1.31697  0.6726E-11  0.1218E-13  0.7600E-17  0.1000E-09  0.0000E+00  0.4461E+16
   -1.237559    1.42135  0.6675E-11  0.1218E-13  0.7600E-17  0.1000E-09  0.0000E+00  0.4364E+16
   -1.306315    1.52793  0.6645E-11  0.1218E-13  0.7600E-17  0.1000E-09  0.0000E+00  0.4249E+16
   -1.375071    1.63656  0.6627E-11  0.1218E-13  0.7600E-17  0.1000E-09  0.0000E+00  0.4134E+16
   -1.443827    1.74750  0.6615E-11  0.1218E-13  0.7600E-17  0.1000E-09  0.0000E+00  0.4015E+16
   -1.512583    1.86099  0.6603E-11  0.1218E-13  0.7600E-17  0.1000E-09  0.0000E+00  0.3906E+16
   -1.581338    1.97777  0.6590E-11  0.1218E-13  0.7603E-17  0.1000E-09  0.0000E+00  0.3867E+16
   -1.650094    2.10069  0.6575E-11  0.1387E-13  0.9074E-17  0.1000E-09  0.0000E+00  0.4073E+16
   -1.718850    2.23957  0.6558E-11  0.3185E-13  0.2268E-16  0.1000E-09  0.0000E+00  0.4931E+16
   -1.787605    2.42483  0.6541E-11  0.1794E-12  0.1284E-15  0.1000E-09  0.0000E+00  0.3739E+16
   -1.856360    2.58271  0.6523E-11  0.1320E-11  0.9095E-15  0.1000E-09  0.0000E+00  0.3054E+16
   -1.925115    2.72646  0.6506E-11  0.1009E-10  0.6671E-14  0.1080E-09  0.0000E+00  0.2317E+16
   -1.993869    2.84689  0.6490E-11  0.8088E-10  0.5167E-13  0.3949E-09  0.0000E+00  0.1686E+16
   -2.062624    2.94270  0.6477E-11  0.6638E-09  0.4174E-12  0.1286E-08  0.0000E+00  0.1790E+16
   -2.131378    3.05687  0.6465E-11  0.4964E-08  0.3106E-11  0.4982E-08  0.0000E+00  0.1866E+16
   -2.200131    3.20321  0.6455E-11  0.1697E-07  0.1023E-10  0.1107E-05  0.0000E+00  0.1755E+16
   -2.268884    3.40802  0.6447E-11  0.2669E-07  0.1644E-10  0.1141E-04  0.0000E+00  0.1265E+16
   -2.337637    3.57728  0.6441E-11  0.3418E-07  0.2189E-10  0.1795E-04  0.0000E+00  0.9098E+15
   -2.406389    3.72240  0.6436E-11  0.4031E-07  0.2733E-10  0.2170E-04  0.0000E+00  0.6079E+15
   -2.475141    3.85454  0.6433E-11  0.4579E-07  0.3365E-10  0.2283E-04  0.0000E+00  0.3689E+15
   -2.543892    4.02742  0.6430E-11  0.5093E-07  0.4224E-10  0.2347E-04  0.0000E+00  0.1359E+14
   -2.612643    4.08275  0.6430E-11  0.5310E-07  0.5810E-10  0.1773E-04  0.0000E+00 -0.1956E+14
   -2.681393    4.09559  0.6430E-11  0.4142E-07  0.1536E-09  0.3173E-05  0.0000E+00 -0.1389E+15
   -2.750142    4.14931  0.6430E-11  0.0000E+00  0.0000E+00  0.0000E+00  0.0000E+00  0.0000E+00
