 1 - depth, m
 2 - temperature, C
 3 - salinity, kg/kg
 4 - turbulent kinetic energy, m**2/s**2
 5 - dissipation rate, m**2/s**3
 6 - kinematic heat conductance, m**2/s
 7 - modulus of horizontal velocity, m/s
 8 - Richardson number, n/d
   -0.000000   -0.00000  0.2148E-10  0.1219E-13  0.7603E-17  0.1000E-09  0.0000E+00  0.4463E+16
   -0.068746    0.06757  0.1173E-10  0.1219E-13  0.7603E-17  0.1000E-09  0.0000E+00  0.4270E+16
   -0.137492    0.13340  0.9328E-11  0.1219E-13  0.7603E-17  0.1000E-09  0.0000E+00  0.4121E+16
   -0.206239    0.19809  0.8802E-11  0.1219E-13  0.7603E-17  0.1000E-09  0.0000E+00  0.4013E+16
   -0.274986    0.26224  0.8700E-11  0.1219E-13  0.7603E-17  0.1000E-09  0.0000E+00  0.3945E+16
   -0.343734    0.32646  0.8682E-11  0.1219E-13  0.7603E-17  0.1000E-09  0.0000E+00  0.3914E+16
   -0.412483    0.39138  0.8680E-11  0.1219E-13  0.7603E-17  0.1000E-09  0.0000E+00  0.3918E+16
   -0.481232    0.45764  0.8679E-11  0.1219E-13  0.7603E-17  0.1000E-09  0.0000E+00  0.3956E+16
   -0.549982    0.52591  0.8679E-11  0.1219E-13  0.7603E-17  0.1000E-09  0.0000E+00  0.4025E+16
   -0.618732    0.59686  0.8679E-11  0.1219E-13  0.7603E-17  0.1000E-09  0.0000E+00  0.4122E+16
   -0.687482    0.67119  0.8679E-11  0.1219E-13  0.7603E-17  0.1000E-09  0.0000E+00  0.4260E+16
   -0.756232    0.74989  0.8679E-11  0.1219E-13  0.7603E-17  0.1000E-09  0.0000E+00  0.4425E+16
   -0.824983    0.83386  0.8679E-11  0.1219E-13  0.7603E-17  0.1000E-09  0.0000E+00  0.4603E+16
   -0.893735    0.92375  0.8679E-11  0.1219E-13  0.7603E-17  0.1000E-09  0.0000E+00  0.4785E+16
   -0.962486    1.02025  0.8679E-11  0.1219E-13  0.7603E-17  0.1000E-09  0.0000E+00  0.4964E+16
   -1.031238    1.12398  0.8678E-11  0.1219E-13  0.7603E-17  0.1000E-09  0.0000E+00  0.5131E+16
   -1.099990    1.23552  0.8676E-11  0.1219E-13  0.7603E-17  0.1000E-09  0.0000E+00  0.5278E+16
   -1.168742    1.35540  0.8669E-11  0.5018E-13  0.1003E-16  0.1000E-09  0.0000E+00  0.5393E+16
   -1.237494    1.48408  0.8651E-11  0.1516E-12  0.2435E-16  0.1000E-09  0.0000E+00  0.5465E+16
   -1.306246    1.62195  0.8614E-11  0.4067E-12  0.6173E-16  0.1000E-09  0.0000E+00  0.5486E+16
   -1.374998    1.76929  0.8561E-11  0.1052E-11  0.1544E-15  0.1000E-09  0.0000E+00  0.5461E+16
   -1.443750    1.92682  0.8511E-11  0.2673E-11  0.3810E-15  0.1000E-09  0.0000E+00  0.5364E+16
   -1.512502    2.09476  0.8481E-11  0.6703E-11  0.9287E-15  0.1000E-09  0.0000E+00  0.5180E+16
   -1.581255    2.27299  0.8465E-11  0.1661E-10  0.2237E-14  0.1000E-09  0.0000E+00  0.4900E+16
   -1.650006    2.46122  0.8456E-11  0.4068E-10  0.5329E-14  0.1000E-09  0.0000E+00  0.4520E+16
   -1.718758    2.65899  0.8450E-11  0.9850E-10  0.1255E-13  0.1000E-09  0.0000E+00  0.4041E+16
   -1.787510    2.86566  0.8447E-11  0.2419E-09  0.3000E-13  0.1000E-09  0.0000E+00  0.3489E+16
   -1.856261    3.08212  0.8445E-11  0.5978E-09  0.7214E-13  0.1294E-09  0.0000E+00  0.2839E+16
   -1.925013    3.30838  0.8442E-11  0.1472E-08  0.1730E-12  0.4220E-09  0.0000E+00  0.2087E+16
   -1.993764    3.54413  0.8435E-11  0.3607E-08  0.4130E-12  0.1716E-08  0.0000E+00  0.1226E+16
   -2.062514    3.78670  0.8418E-11  0.8527E-08  0.9527E-12  0.1575E-07  0.0000E+00  0.3083E+15
   -2.131265    4.01021  0.8412E-11  0.9852E-08  0.1108E-11  0.3560E-04  0.0000E+00 -0.3738E+12
   -2.200015    4.01119  0.8412E-11  0.1039E-07  0.1190E-11  0.3618E-04  0.0000E+00 -0.3847E+12
   -2.268764    4.01216  0.8412E-11  0.1080E-07  0.1280E-11  0.3565E-04  0.0000E+00 -0.4080E+12
   -2.337513    4.01315  0.8412E-11  0.1112E-07  0.1389E-11  0.3391E-04  0.0000E+00 -0.4490E+12
   -2.406262    4.01420  0.8412E-11  0.1132E-07  0.1533E-11  0.3078E-04  0.0000E+00 -0.5195E+12
   -2.475010    4.01536  0.8412E-11  0.1138E-07  0.1747E-11  0.2602E-04  0.0000E+00 -0.6504E+12
   -2.543757    4.01676  0.8412E-11  0.1125E-07  0.2119E-11  0.1937E-04  0.0000E+00 -0.9398E+12
   -2.612504    4.01867  0.8412E-11  0.1069E-07  0.3005E-11  0.1072E-04  0.0000E+00 -0.1910E+13
   -2.681251    4.02224  0.8412E-11  0.8114E-08  0.8238E-11  0.1661E-05  0.0000E+00 -0.1843E+14
   -2.749996    4.04669  0.8412E-11  0.0000E+00  0.0000E+00  0.0000E+00  0.0000E+00  0.0000E+00
