 1 - depth, m
 2 - temperature, C
 3 - salinity, kg/kg
 4 - turbulent kinetic energy, m**2/s**2
 5 - dissipation rate, m**2/s**3
 6 - kinematic heat conductance, m**2/s
 7 - modulus of horizontal velocity, m/s
 8 - Richardson number, n/d
   -0.000000   -0.00000  0.1701E-09  0.1219E-13  0.7603E-17  0.1000E-09  0.0000E+00  0.3486E+16
   -0.068746    0.05267  0.9456E-10  0.1219E-13  0.7603E-17  0.1000E-09  0.0000E+00  0.3327E+16
   -0.137492    0.10364  0.7761E-10  0.1219E-13  0.7603E-17  0.1000E-09  0.0000E+00  0.3193E+16
   -0.206239    0.15324  0.7414E-10  0.1219E-13  0.7603E-17  0.1000E-09  0.0000E+00  0.3084E+16
   -0.274986    0.20181  0.7351E-10  0.1219E-13  0.7603E-17  0.1000E-09  0.0000E+00  0.3002E+16
   -0.343735    0.24974  0.7341E-10  0.1219E-13  0.7603E-17  0.1000E-09  0.0000E+00  0.2949E+16
   -0.412483    0.29746  0.7339E-10  0.1219E-13  0.7603E-17  0.1000E-09  0.0000E+00  0.2925E+16
   -0.481232    0.34545  0.7339E-10  0.1219E-13  0.7603E-17  0.1000E-09  0.0000E+00  0.2931E+16
   -0.549982    0.39422  0.7339E-10  0.1219E-13  0.7603E-17  0.1000E-09  0.0000E+00  0.2967E+16
   -0.618732    0.44432  0.7339E-10  0.1219E-13  0.7603E-17  0.1000E-09  0.0000E+00  0.3032E+16
   -0.687482    0.49631  0.7339E-10  0.1219E-13  0.7603E-17  0.1000E-09  0.0000E+00  0.3143E+16
   -0.756233    0.55107  0.7339E-10  0.1219E-13  0.7603E-17  0.1000E-09  0.0000E+00  0.3288E+16
   -0.824984    0.60937  0.7339E-10  0.1219E-13  0.7603E-17  0.1000E-09  0.0000E+00  0.3456E+16
   -0.893735    0.67182  0.7339E-10  0.1219E-13  0.7603E-17  0.1000E-09  0.0000E+00  0.3642E+16
   -0.962486    0.73900  0.7339E-10  0.1219E-13  0.7603E-17  0.1000E-09  0.0000E+00  0.3841E+16
   -1.031238    0.81147  0.7339E-10  0.1219E-13  0.7603E-17  0.1000E-09  0.0000E+00  0.4046E+16
   -1.099990    0.88976  0.7339E-10  0.1219E-13  0.7603E-17  0.1000E-09  0.0000E+00  0.4252E+16
   -1.168742    0.97433  0.7338E-10  0.1219E-13  0.7603E-17  0.1000E-09  0.0000E+00  0.4448E+16
   -1.237494    1.06556  0.7335E-10  0.1219E-13  0.7603E-17  0.1000E-09  0.0000E+00  0.4628E+16
   -1.306246    1.16377  0.7325E-10  0.1219E-13  0.7603E-17  0.1000E-09  0.0000E+00  0.4782E+16
   -1.374998    1.26915  0.7303E-10  0.1219E-13  0.7603E-17  0.1000E-09  0.0000E+00  0.4922E+16
   -1.443751    1.38229  0.7266E-10  0.1219E-13  0.7603E-17  0.1000E-09  0.0000E+00  0.5024E+16
   -1.512503    1.50330  0.7226E-10  0.1219E-13  0.7603E-17  0.1000E-09  0.0000E+00  0.5071E+16
   -1.581255    1.63203  0.7201E-10  0.1219E-13  0.7603E-17  0.1000E-09  0.0000E+00  0.5058E+16
   -1.650007    1.76816  0.7190E-10  0.1219E-13  0.7603E-17  0.1000E-09  0.0000E+00  0.4980E+16
   -1.718759    1.91125  0.7184E-10  0.1219E-13  0.7603E-17  0.1000E-09  0.0000E+00  0.4832E+16
   -1.787510    2.06057  0.7181E-10  0.1219E-13  0.7603E-17  0.1000E-09  0.0000E+00  0.4539E+16
   -1.856262    2.21266  0.7179E-10  0.1219E-13  0.7603E-17  0.1000E-09  0.0000E+00  0.4207E+16
   -1.925013    2.36670  0.7178E-10  0.1219E-13  0.7603E-17  0.1000E-09  0.0000E+00  0.3840E+16
   -1.993764    2.52178  0.7177E-10  0.1219E-13  0.7603E-17  0.1000E-09  0.0000E+00  0.3458E+16
   -2.062515    2.67750  0.7175E-10  0.1219E-13  0.7603E-17  0.1000E-09  0.0000E+00  0.3124E+16
   -2.131265    2.83660  0.7169E-10  0.1219E-13  0.7872E-17  0.1000E-09  0.0000E+00  0.2764E+16
   -2.200015    2.99897  0.7159E-10  0.5402E-13  0.3945E-16  0.1000E-09  0.0000E+00  0.2374E+16
   -2.268765    3.16410  0.7143E-10  0.3623E-12  0.2540E-15  0.1000E-09  0.0000E+00  0.1968E+16
   -2.337514    3.33230  0.7120E-10  0.2442E-11  0.1638E-14  0.1000E-09  0.0000E+00  0.1541E+16
   -2.406262    3.50389  0.7099E-10  0.1619E-10  0.1040E-13  0.1000E-09  0.0000E+00  0.1092E+16
   -2.475010    3.67942  0.7091E-10  0.1063E-09  0.6547E-13  0.5273E-09  0.0000E+00  0.6146E+15
   -2.543758    3.85985  0.7090E-10  0.6866E-09  0.4082E-12  0.1646E-07  0.0000E+00  0.1106E+15
   -2.612505    4.02975  0.7090E-10  0.3499E-08  0.2134E-11  0.2092E-05  0.0000E+00 -0.1047E+14
   -2.681251    4.04310  0.7090E-10  0.4391E-08  0.5544E-11  0.1056E-05  0.0000E+00 -0.4054E+14
   -2.749997    4.07800  0.7090E-10  0.0000E+00  0.0000E+00  0.0000E+00  0.0000E+00  0.0000E+00
