 1 - depth, m
 2 - temperature, C
 3 - salinity, kg/kg
 4 - turbulent kinetic energy, m**2/s**2
 5 - dissipation rate, m**2/s**3
 6 - kinematic heat conductance, m**2/s
 7 - modulus of horizontal velocity, m/s
 8 - Richardson number, n/d
   -0.000000   -0.00000  0.1180E-09  0.1219E-13  0.7603E-17  0.1000E-09  0.0000E+00  0.5562E+16
   -0.068746    0.08440  0.6512E-10  0.1219E-13  0.7603E-17  0.1000E-09  0.0000E+00  0.5360E+16
   -0.137492    0.16761  0.4898E-10  0.1219E-13  0.7603E-17  0.1000E-09  0.0000E+00  0.5189E+16
   -0.206239    0.25004  0.4479E-10  0.1219E-13  0.7603E-17  0.1000E-09  0.0000E+00  0.5046E+16
   -0.274987    0.33212  0.4384E-10  0.1219E-13  0.7603E-17  0.1000E-09  0.0000E+00  0.4930E+16
   -0.343735    0.41424  0.4365E-10  0.1219E-13  0.7603E-17  0.1000E-09  0.0000E+00  0.4838E+16
   -0.412483    0.49681  0.4362E-10  0.1219E-13  0.7603E-17  0.1000E-09  0.0000E+00  0.4766E+16
   -0.481232    0.58023  0.4361E-10  0.1219E-13  0.7603E-17  0.1000E-09  0.0000E+00  0.4711E+16
   -0.549982    0.66487  0.4361E-10  0.1219E-13  0.7603E-17  0.1000E-09  0.0000E+00  0.4670E+16
   -0.618732    0.75108  0.4361E-10  0.1219E-13  0.7603E-17  0.1000E-09  0.0000E+00  0.4640E+16
   -0.687482    0.83921  0.4361E-10  0.1219E-13  0.7603E-17  0.1000E-09  0.0000E+00  0.4630E+16
   -0.756233    0.92981  0.4361E-10  0.1219E-13  0.7603E-17  0.1000E-09  0.0000E+00  0.4630E+16
   -0.824984    1.02334  0.4361E-10  0.1219E-13  0.7603E-17  0.1000E-09  0.0000E+00  0.4628E+16
   -0.893735    1.12002  0.4361E-10  0.1219E-13  0.7603E-17  0.1000E-09  0.0000E+00  0.4620E+16
   -0.962486    1.22007  0.4361E-10  0.1219E-13  0.7603E-17  0.1000E-09  0.0000E+00  0.4602E+16
   -1.031238    1.32366  0.4361E-10  0.1219E-13  0.7603E-17  0.1000E-09  0.0000E+00  0.4572E+16
   -1.099990    1.43091  0.4360E-10  0.1219E-13  0.7603E-17  0.1000E-09  0.0000E+00  0.4525E+16
   -1.168742    1.54189  0.4358E-10  0.1219E-13  0.7603E-17  0.1000E-09  0.0000E+00  0.4459E+16
   -1.237494    1.65665  0.4353E-10  0.1219E-13  0.7603E-17  0.1000E-09  0.0000E+00  0.4371E+16
   -1.306246    1.77514  0.4343E-10  0.1219E-13  0.7603E-17  0.1000E-09  0.0000E+00  0.4259E+16
   -1.374999    1.89729  0.4327E-10  0.1219E-13  0.7603E-17  0.1000E-09  0.0000E+00  0.4129E+16
   -1.443751    2.02323  0.4308E-10  0.1219E-13  0.7603E-17  0.1000E-09  0.0000E+00  0.3973E+16
   -1.512503    2.15284  0.4291E-10  0.1219E-13  0.7603E-17  0.1000E-09  0.0000E+00  0.3788E+16
   -1.581255    2.28589  0.4280E-10  0.1219E-13  0.7603E-17  0.1000E-09  0.0000E+00  0.3574E+16
   -1.650007    2.42205  0.4274E-10  0.1925E-13  0.7603E-17  0.1000E-09  0.0000E+00  0.3332E+16
   -1.718759    2.56098  0.4271E-10  0.7441E-13  0.1895E-16  0.1000E-09  0.0000E+00  0.3064E+16
   -1.787511    2.70227  0.4269E-10  0.2569E-12  0.6049E-16  0.1000E-09  0.0000E+00  0.2783E+16
   -1.856262    2.84605  0.4267E-10  0.8561E-12  0.1938E-15  0.1000E-09  0.0000E+00  0.2484E+16
   -1.925013    2.99212  0.4266E-10  0.2805E-11  0.6128E-15  0.1000E-09  0.0000E+00  0.2167E+16
   -1.993764    3.14031  0.4263E-10  0.9076E-11  0.1916E-14  0.1000E-09  0.0000E+00  0.1832E+16
   -2.062515    3.29014  0.4257E-10  0.2832E-10  0.5780E-14  0.1000E-09  0.0000E+00  0.1479E+16
   -2.131265    3.44075  0.4247E-10  0.8680E-10  0.1714E-13  0.1000E-09  0.0000E+00  0.1120E+16
   -2.200015    3.59170  0.4235E-10  0.2624E-09  0.5013E-13  0.3363E-09  0.0000E+00  0.7571E+15
   -2.268765    3.74229  0.4224E-10  0.7893E-09  0.1460E-12  0.1866E-08  0.0000E+00  0.3967E+15
   -2.337514    3.89124  0.4220E-10  0.2346E-08  0.4215E-12  0.3239E-07  0.0000E+00  0.6484E+14
   -2.406262    4.01400  0.4220E-10  0.4066E-08  0.7384E-12  0.9609E-05  0.0000E+00 -0.9961E+12
   -2.475011    4.01621  0.4220E-10  0.4684E-08  0.9214E-12  0.9385E-05  0.0000E+00 -0.1129E+13
   -2.543758    4.01853  0.4220E-10  0.5039E-08  0.1179E-11  0.7787E-05  0.0000E+00 -0.1535E+13
   -2.612505    4.02144  0.4220E-10  0.5071E-08  0.1728E-11  0.4746E-05  0.0000E+00 -0.3044E+13
   -2.681251    4.02660  0.4220E-10  0.4275E-08  0.4341E-11  0.1070E-05  0.0000E+00 -0.2294E+14
   -2.749997    4.05379  0.4220E-10  0.0000E+00  0.0000E+00  0.0000E+00  0.0000E+00  0.0000E+00
