 1 - depth, m
 2 - temperature, C
 3 - salinity, kg/kg
 4 - turbulent kinetic energy, m**2/s**2
 5 - dissipation rate, m**2/s**3
 6 - kinematic heat conductance, m**2/s
 7 - modulus of horizontal velocity, m/s
 8 - Richardson number, n/d
   -0.000000   -0.00000  0.3604E-10  0.1219E-13  0.7603E-17  0.1000E-09  0.0000E+00  0.3999E+16
   -0.068746    0.06048  0.1979E-10  0.1219E-13  0.7603E-17  0.1000E-09  0.0000E+00  0.3816E+16
   -0.137492    0.11914  0.1603E-10  0.1219E-13  0.7603E-17  0.1000E-09  0.0000E+00  0.3669E+16
   -0.206239    0.17643  0.1522E-10  0.1219E-13  0.7603E-17  0.1000E-09  0.0000E+00  0.3556E+16
   -0.274987    0.23287  0.1507E-10  0.1219E-13  0.7603E-17  0.1000E-09  0.0000E+00  0.3480E+16
   -0.343735    0.28897  0.1505E-10  0.1219E-13  0.7603E-17  0.1000E-09  0.0000E+00  0.3439E+16
   -0.412483    0.34532  0.1504E-10  0.1219E-13  0.7603E-17  0.1000E-09  0.0000E+00  0.3434E+16
   -0.481232    0.40253  0.1504E-10  0.1219E-13  0.7603E-17  0.1000E-09  0.0000E+00  0.3465E+16
   -0.549982    0.46125  0.1504E-10  0.1219E-13  0.7603E-17  0.1000E-09  0.0000E+00  0.3531E+16
   -0.618732    0.52218  0.1504E-10  0.1219E-13  0.7603E-17  0.1000E-09  0.0000E+00  0.3631E+16
   -0.687482    0.58604  0.1504E-10  0.1219E-13  0.7603E-17  0.1000E-09  0.0000E+00  0.3778E+16
   -0.756233    0.65386  0.1504E-10  0.1219E-13  0.7603E-17  0.1000E-09  0.0000E+00  0.3962E+16
   -0.824984    0.72659  0.1504E-10  0.1219E-13  0.7603E-17  0.1000E-09  0.0000E+00  0.4167E+16
   -0.893735    0.80497  0.1504E-10  0.1219E-13  0.7603E-17  0.1000E-09  0.0000E+00  0.4387E+16
   -0.962486    0.88975  0.1504E-10  0.1219E-13  0.7603E-17  0.1000E-09  0.0000E+00  0.4614E+16
   -1.031238    0.98164  0.1504E-10  0.1219E-13  0.7603E-17  0.1000E-09  0.0000E+00  0.4840E+16
   -1.099990    1.08132  0.1504E-10  0.1219E-13  0.7603E-17  0.1000E-09  0.0000E+00  0.5054E+16
   -1.168742    1.18938  0.1503E-10  0.1219E-13  0.7603E-17  0.1000E-09  0.0000E+00  0.5245E+16
   -1.237494    1.30635  0.1501E-10  0.1219E-13  0.7603E-17  0.1000E-09  0.0000E+00  0.5402E+16
   -1.306246    1.43269  0.1496E-10  0.4438E-13  0.8864E-17  0.1000E-09  0.0000E+00  0.5513E+16
   -1.374999    1.56872  0.1487E-10  0.1325E-12  0.2060E-16  0.1000E-09  0.0000E+00  0.5589E+16
   -1.443751    1.71527  0.1477E-10  0.3504E-12  0.5113E-16  0.1000E-09  0.0000E+00  0.5598E+16
   -1.512503    1.87264  0.1471E-10  0.8902E-12  0.1255E-15  0.1000E-09  0.0000E+00  0.5524E+16
   -1.581255    2.04080  0.1468E-10  0.2220E-11  0.3037E-15  0.1000E-09  0.0000E+00  0.5356E+16
   -1.650007    2.21961  0.1467E-10  0.5464E-11  0.7260E-15  0.1000E-09  0.0000E+00  0.5090E+16
   -1.718759    2.40878  0.1466E-10  0.1328E-10  0.1715E-14  0.1000E-09  0.0000E+00  0.4720E+16
   -1.787511    2.60788  0.1465E-10  0.3274E-10  0.4109E-14  0.1000E-09  0.0000E+00  0.4244E+16
   -1.856262    2.81621  0.1465E-10  0.8114E-10  0.9903E-14  0.1000E-09  0.0000E+00  0.3686E+16
   -1.925013    3.03424  0.1465E-10  0.2004E-09  0.2379E-13  0.1000E-09  0.0000E+00  0.3040E+16
   -1.993764    3.26277  0.1464E-10  0.4927E-09  0.5694E-13  0.1269E-09  0.0000E+00  0.2285E+16
   -2.062515    3.50193  0.1463E-10  0.1179E-08  0.1327E-12  0.4832E-09  0.0000E+00  0.1398E+16
   -2.131265    3.74721  0.1460E-10  0.2780E-08  0.3049E-12  0.3460E-08  0.0000E+00  0.4488E+15
   -2.200015    3.99086  0.1457E-10  0.3877E-08  0.4286E-12  0.1073E-04  0.0000E+00 -0.3123E+12
   -2.268765    3.99410  0.1457E-10  0.4430E-08  0.5133E-12  0.1342E-04  0.0000E+00 -0.3708E+12
   -2.337514    3.99670  0.1457E-10  0.4912E-08  0.6132E-12  0.1451E-04  0.0000E+00 -0.4414E+12
   -2.406263    3.99913  0.1457E-10  0.5321E-08  0.7393E-12  0.1426E-04  0.0000E+00 -0.5492E+12
   -2.475011    4.00162  0.1457E-10  0.5646E-08  0.9161E-12  0.1272E-04  0.0000E+00 -0.7423E+12
   -2.543758    4.00445  0.1457E-10  0.5847E-08  0.1208E-11  0.9817E-05  0.0000E+00 -0.1173E+13
   -2.612505    4.00819  0.1457E-10  0.5806E-08  0.1871E-11  0.5612E-05  0.0000E+00 -0.2685E+13
   -2.681251    4.01497  0.1457E-10  0.4938E-08  0.5103E-11  0.1215E-05  0.0000E+00 -0.2377E+14
   -2.749997    4.04843  0.1457E-10  0.0000E+00  0.0000E+00  0.0000E+00  0.0000E+00  0.0000E+00
