 1 - depth, m
 2 - temperature, C
 3 - salinity, kg/kg
 4 - turbulent kinetic energy, m**2/s**2
 5 - dissipation rate, m**2/s**3
 6 - kinematic heat conductance, m**2/s
 7 - modulus of horizontal velocity, m/s
 8 - Richardson number, n/d
   -0.000000    6.78479  0.1940E-10  0.4467E-04  0.8640E-05  0.5715E-04  0.5430E-01 -0.8920E-02
   -0.068746    6.83384  0.1940E-10  0.2935E-04  0.2001E-05  0.9650E-04  0.2870E-01 -0.2406E-01
   -0.137492    6.84776  0.1940E-10  0.2525E-04  0.8449E-06  0.1430E-03  0.2317E-01 -0.3814E-01
   -0.206239    6.85642  0.1940E-10  0.2312E-04  0.4482E-06  0.1956E-03  0.1985E-01 -0.5419E-01
   -0.274987    6.86259  0.1940E-10  0.2185E-04  0.2802E-06  0.2529E-03  0.1746E-01 -0.7141E-01
   -0.343735    6.86727  0.1940E-10  0.2100E-04  0.1971E-06  0.3141E-03  0.1564E-01 -0.8805E-01
   -0.412484    6.87094  0.1940E-10  0.2038E-04  0.1501E-06  0.3858E-03  0.1419E-01 -0.6290E-01
   -0.481233    6.87386  0.1940E-10  0.1989E-04  0.1207E-06  0.5170E-03  0.1300E-01  0.5455E+02
   -0.549983    6.87613  0.1940E-10  0.1949E-04  0.1008E-06  0.6542E-03  0.1202E-01  0.2731E+02
   -0.618733    6.87795  0.1940E-10  0.1916E-04  0.8652E-07  0.7572E-03  0.1118E-01  0.1050E+02
   -0.687483    6.87949  0.1940E-10  0.1887E-04  0.7580E-07  0.8640E-03  0.1043E-01  0.1479E+02
   -0.756234    6.88080  0.1940E-10  0.1861E-04  0.6750E-07  0.9666E-03  0.9767E-02  0.1112E+02
   -0.824985    6.88194  0.1940E-10  0.1838E-04  0.6090E-07  0.1070E-02  0.9163E-02  0.5008E+02
   -0.893737    6.88294  0.1940E-10  0.1817E-04  0.5556E-07  0.1166E-02  0.8608E-02  0.1113E+03
   -0.962488    6.88382  0.1940E-10  0.1797E-04  0.5115E-07  0.1267E-02  0.8090E-02  0.1038E+02
   -1.031240    6.88461  0.1940E-10  0.1779E-04  0.4746E-07  0.1364E-02  0.7604E-02  0.1513E+02
   -1.099992    6.88533  0.1940E-10  0.1761E-04  0.4434E-07  0.1446E-02  0.7143E-02  0.2441E+02
   -1.168744    6.88597  0.1940E-10  0.1743E-04  0.4167E-07  0.1506E-02  0.6701E-02  0.1966E+02
   -1.237497    6.88658  0.1940E-10  0.1724E-04  0.3935E-07  0.1540E-02  0.6276E-02  0.2515E+02
   -1.306249    6.88715  0.1940E-10  0.1705E-04  0.3733E-07  0.1571E-02  0.5863E-02  0.3397E+02
   -1.375001    6.88770  0.1940E-10  0.1685E-04  0.3555E-07  0.1595E-02  0.5460E-02  0.5149E+02
   -1.443754    6.88821  0.1940E-10  0.1664E-04  0.3396E-07  0.1614E-02  0.5066E-02  0.1708E+03
   -1.512506    6.88871  0.1940E-10  0.1641E-04  0.3254E-07  0.1626E-02  0.4679E-02  0.3869E+04
   -1.581258    6.88918  0.1940E-10  0.1616E-04  0.3125E-07  0.1629E-02  0.4295E-02  0.1745E+05
   -1.650010    6.88964  0.1940E-10  0.1588E-04  0.3006E-07  0.1629E-02  0.3914E-02  0.5324E+04
   -1.718762    6.89009  0.1940E-10  0.1557E-04  0.2894E-07  0.1608E-02  0.3533E-02  0.2778E+04
   -1.787514    6.89052  0.1940E-10  0.1522E-04  0.2784E-07  0.1641E-02  0.3150E-02  0.1943E+02
   -1.856266    6.89094  0.1940E-10  0.1483E-04  0.2682E-07  0.1654E-02  0.2815E-02  0.4368E+01
   -1.925017    6.89135  0.1940E-10  0.1442E-04  0.2589E-07  0.1667E-02  0.2519E-02  0.2033E+01
   -1.993768    6.89174  0.1940E-10  0.1400E-04  0.2509E-07  0.1675E-02  0.2260E-02  0.1255E+01
   -2.062519    6.89213  0.1940E-10  0.1358E-04  0.2447E-07  0.1670E-02  0.2027E-02  0.1092E+01
   -2.131269    6.89251  0.1940E-10  0.1318E-04  0.2405E-07  0.1650E-02  0.1811E-02  0.7625E+00
   -2.200019    6.89289  0.1940E-10  0.1279E-04  0.2388E-07  0.1602E-02  0.1608E-02  0.5937E+00
   -2.268769    6.89328  0.1940E-10  0.1241E-04  0.2399E-07  0.1539E-02  0.1416E-02  0.1271E+01
   -2.337518    6.89367  0.1940E-10  0.1203E-04  0.2447E-07  0.1449E-02  0.1241E-02  0.3277E+00
   -2.406267    6.89408  0.1940E-10  0.1165E-04  0.2548E-07  0.1321E-02  0.1081E-02  0.9822E+00
   -2.475015    6.89452  0.1940E-10  0.1126E-04  0.2736E-07  0.1106E-02  0.9395E-03  0.8659E+00
   -2.543763    6.89503  0.1940E-10  0.1078E-04  0.3120E-07  0.8538E-03  0.8068E-03  0.7003E+02
   -2.612510    6.89570  0.1940E-10  0.1005E-04  0.4137E-07  0.4148E-03  0.6700E-03  0.1103E+03
   -2.681257    6.89698  0.1940E-10  0.6072E-05  0.1479E-06  0.3201E-04  0.5128E-03 -0.1953E+05
   -2.750002    6.91326  0.1940E-10  0.0000E+00  0.0000E+00  0.0000E+00  0.5120E-03  0.0000E+00
