 1 - depth, m
 2 - temperature, C
 3 - salinity, kg/kg
 4 - turbulent kinetic energy, m**2/s**2
 5 - dissipation rate, m**2/s**3
 6 - kinematic heat conductance, m**2/s
 7 - modulus of horizontal velocity, m/s
 8 - Richardson number, n/d
   -0.000000   -0.00000  0.1018E-10  0.1219E-13  0.7603E-17  0.1000E-09  0.0000E+00  0.5421E+16
   -0.068746    0.08223  0.5564E-11  0.1219E-13  0.7603E-17  0.1000E-09  0.0000E+00  0.5218E+16
   -0.137492    0.16317  0.4217E-11  0.1219E-13  0.7603E-17  0.1000E-09  0.0000E+00  0.5054E+16
   -0.206239    0.24334  0.3893E-11  0.1219E-13  0.7603E-17  0.1000E-09  0.0000E+00  0.4925E+16
   -0.274987    0.32326  0.3824E-11  0.1219E-13  0.7603E-17  0.1000E-09  0.0000E+00  0.4830E+16
   -0.343735    0.40348  0.3811E-11  0.1219E-13  0.7603E-17  0.1000E-09  0.0000E+00  0.4764E+16
   -0.412483    0.48451  0.3808E-11  0.1219E-13  0.7603E-17  0.1000E-09  0.0000E+00  0.4725E+16
   -0.481232    0.56689  0.3808E-11  0.1219E-13  0.7603E-17  0.1000E-09  0.0000E+00  0.4709E+16
   -0.549982    0.65114  0.3808E-11  0.1219E-13  0.7603E-17  0.1000E-09  0.0000E+00  0.4713E+16
   -0.618732    0.73777  0.3808E-11  0.1219E-13  0.7603E-17  0.1000E-09  0.0000E+00  0.4732E+16
   -0.687482    0.82729  0.3808E-11  0.1219E-13  0.7603E-17  0.1000E-09  0.0000E+00  0.4778E+16
   -0.756233    0.92045  0.3808E-11  0.1219E-13  0.7603E-17  0.1000E-09  0.0000E+00  0.4836E+16
   -0.824984    1.01789  0.3808E-11  0.1219E-13  0.7603E-17  0.1000E-09  0.0000E+00  0.4894E+16
   -0.893735    1.12004  0.3808E-11  0.1219E-13  0.7603E-17  0.1000E-09  0.0000E+00  0.4947E+16
   -0.962486    1.22733  0.3808E-11  0.1219E-13  0.7603E-17  0.1000E-09  0.0000E+00  0.4988E+16
   -1.031238    1.34010  0.3807E-11  0.1219E-13  0.7603E-17  0.1000E-09  0.0000E+00  0.5011E+16
   -1.099990    1.45870  0.3805E-11  0.1714E-13  0.7603E-17  0.1000E-09  0.0000E+00  0.5011E+16
   -1.168742    1.58339  0.3800E-11  0.7020E-13  0.1180E-16  0.1000E-09  0.0000E+00  0.4982E+16
   -1.237494    1.71442  0.3790E-11  0.1979E-12  0.2773E-16  0.1000E-09  0.0000E+00  0.4917E+16
   -1.306246    1.85194  0.3773E-11  0.5011E-12  0.6663E-16  0.1000E-09  0.0000E+00  0.4812E+16
   -1.374999    1.99604  0.3752E-11  0.1226E-11  0.1579E-15  0.1000E-09  0.0000E+00  0.4673E+16
   -1.443751    2.14713  0.3733E-11  0.2950E-11  0.3695E-15  0.1000E-09  0.0000E+00  0.4484E+16
   -1.512503    2.30525  0.3720E-11  0.7015E-11  0.8550E-15  0.1000E-09  0.0000E+00  0.4239E+16
   -1.581255    2.47025  0.3714E-11  0.1650E-10  0.1957E-14  0.1000E-09  0.0000E+00  0.3934E+16
   -1.650007    2.64185  0.3709E-11  0.3839E-10  0.4436E-14  0.1000E-09  0.0000E+00  0.3568E+16
   -1.718759    2.81968  0.3707E-11  0.8841E-10  0.9952E-14  0.1000E-09  0.0000E+00  0.3145E+16
   -1.787511    3.00333  0.3706E-11  0.2066E-09  0.2265E-13  0.1000E-09  0.0000E+00  0.2689E+16
   -1.856262    3.19399  0.3705E-11  0.4863E-09  0.5195E-13  0.1217E-09  0.0000E+00  0.2173E+16
   -1.925013    3.39179  0.3704E-11  0.1142E-08  0.1190E-12  0.3804E-09  0.0000E+00  0.1592E+16
   -1.993764    3.59665  0.3700E-11  0.2672E-08  0.2715E-12  0.1469E-08  0.0000E+00  0.9409E+15
   -2.062515    3.80668  0.3693E-11  0.6054E-08  0.6008E-12  0.1219E-07  0.0000E+00  0.2509E+15
   -2.131265    4.00370  0.3690E-11  0.7109E-08  0.7105E-12  0.2862E-04  0.0000E+00 -0.2940E+12
   -2.200015    4.00475  0.3690E-11  0.7546E-08  0.7692E-12  0.2939E-04  0.0000E+00 -0.3041E+12
   -2.268765    4.00577  0.3690E-11  0.7888E-08  0.8336E-12  0.2918E-04  0.0000E+00 -0.3246E+12
   -2.337514    4.00681  0.3690E-11  0.8149E-08  0.9111E-12  0.2788E-04  0.0000E+00 -0.3599E+12
   -2.406263    4.00790  0.3690E-11  0.8325E-08  0.1013E-11  0.2537E-04  0.0000E+00 -0.4201E+12
   -2.475011    4.00911  0.3690E-11  0.8395E-08  0.1163E-11  0.2143E-04  0.0000E+00 -0.5320E+12
   -2.543758    4.01056  0.3690E-11  0.8305E-08  0.1423E-11  0.1587E-04  0.0000E+00 -0.7812E+12
   -2.612505    4.01253  0.3690E-11  0.7883E-08  0.2043E-11  0.8649E-05  0.0000E+00 -0.1635E+13
   -2.681251    4.01625  0.3690E-11  0.5942E-08  0.5607E-11  0.1330E-05  0.0000E+00 -0.1628E+14
   -2.749997    4.04086  0.3690E-11  0.0000E+00  0.0000E+00  0.0000E+00  0.0000E+00  0.0000E+00
