 1 - depth, m
 2 - temperature, C
 3 - salinity, kg/kg
 4 - turbulent kinetic energy, m**2/s**2
 5 - dissipation rate, m**2/s**3
 6 - kinematic heat conductance, m**2/s
 7 - modulus of horizontal velocity, m/s
 8 - Richardson number, n/d
   -0.000000   -0.00000  0.1560E-12  0.1219E-13  0.7603E-17  0.1000E-09  0.0000E+00  0.6993E+16
   -0.068746    0.10643  0.8055E-12  0.1219E-13  0.7603E-17  0.1000E-09  0.0000E+00  0.6922E+16
   -0.137493    0.21492  0.1251E-11  0.1219E-13  0.7603E-17  0.1000E-09  0.0000E+00  0.6826E+16
   -0.206240    0.32527  0.1401E-11  0.1219E-13  0.7603E-17  0.1000E-09  0.0000E+00  0.6708E+16
   -0.274988    0.43727  0.1366E-11  0.1219E-13  0.7603E-17  0.1000E-09  0.0000E+00  0.6570E+16
   -0.343736    0.55073  0.1263E-11  0.1219E-13  0.7603E-17  0.1000E-09  0.0000E+00  0.6415E+16
   -0.412485    0.66547  0.1160E-11  0.1219E-13  0.7603E-17  0.1000E-09  0.0000E+00  0.6244E+16
   -0.481234    0.78133  0.1083E-11  0.1219E-13  0.7603E-17  0.1000E-09  0.0000E+00  0.6060E+16
   -0.549984    0.89814  0.1035E-11  0.1219E-13  0.7603E-17  0.1000E-09  0.0000E+00  0.5863E+16
   -0.618734    1.01577  0.1008E-11  0.1219E-13  0.7603E-17  0.1000E-09  0.0000E+00  0.5656E+16
   -0.687485    1.13406  0.9951E-12  0.1219E-13  0.7603E-17  0.1000E-09  0.0000E+00  0.5440E+16
   -0.756236    1.25291  0.9891E-12  0.1219E-13  0.7603E-17  0.1000E-09  0.0000E+00  0.5216E+16
   -0.824987    1.37218  0.9864E-12  0.1219E-13  0.7603E-17  0.1000E-09  0.0000E+00  0.4987E+16
   -0.893739    1.49177  0.9849E-12  0.1219E-13  0.7603E-17  0.1000E-09  0.0000E+00  0.4752E+16
   -0.962491    1.61157  0.9839E-12  0.1219E-13  0.7603E-17  0.1000E-09  0.0000E+00  0.4513E+16
   -1.031243    1.73149  0.9827E-12  0.1219E-13  0.7603E-17  0.1000E-09  0.0000E+00  0.4272E+16
   -1.099995    1.85143  0.9811E-12  0.1219E-13  0.7603E-17  0.1000E-09  0.0000E+00  0.4029E+16
   -1.168747    1.97132  0.9791E-12  0.1219E-13  0.7603E-17  0.1000E-09  0.0000E+00  0.3785E+16
   -1.237500    2.09110  0.9766E-12  0.1219E-13  0.7603E-17  0.1000E-09  0.0000E+00  0.3542E+16
   -1.306252    2.21071  0.9738E-12  0.1219E-13  0.7603E-17  0.1000E-09  0.0000E+00  0.3298E+16
   -1.375005    2.33010  0.9708E-12  0.1219E-13  0.7603E-17  0.1000E-09  0.0000E+00  0.3057E+16
   -1.443757    2.44926  0.9678E-12  0.1219E-13  0.7603E-17  0.1000E-09  0.0000E+00  0.2818E+16
   -1.512510    2.56817  0.9651E-12  0.1219E-13  0.7603E-17  0.1000E-09  0.0000E+00  0.2581E+16
   -1.581262    2.68681  0.9627E-12  0.1219E-13  0.7603E-17  0.1000E-09  0.0000E+00  0.2346E+16
   -1.650014    2.80518  0.9607E-12  0.4671E-13  0.1029E-16  0.1000E-09  0.0000E+00  0.2114E+16
   -1.718766    2.92330  0.9591E-12  0.1465E-12  0.2644E-16  0.1000E-09  0.0000E+00  0.1883E+16
   -1.787518    3.04112  0.9578E-12  0.4255E-12  0.7272E-16  0.1000E-09  0.0000E+00  0.1630E+16
   -1.856270    3.15677  0.9568E-12  0.1213E-11  0.2002E-15  0.1000E-09  0.0000E+00  0.1386E+16
   -1.925022    3.26982  0.9560E-12  0.3416E-11  0.5465E-15  0.1000E-09  0.0000E+00  0.1150E+16
   -1.993773    3.37968  0.9554E-12  0.9539E-11  0.1480E-14  0.1000E-09  0.0000E+00  0.9322E+15
   -2.062524    3.48629  0.9549E-12  0.2580E-10  0.3886E-14  0.1000E-09  0.0000E+00  0.7484E+15
   -2.131275    3.59243  0.9545E-12  0.6876E-10  0.1005E-13  0.1000E-09  0.0000E+00  0.5692E+15
   -2.200025    3.69845  0.9543E-12  0.1813E-09  0.2574E-13  0.3344E-09  0.0000E+00  0.3910E+15
   -2.268775    3.80429  0.9542E-12  0.4770E-09  0.6581E-13  0.1563E-08  0.0000E+00  0.2135E+15
   -2.337524    3.90929  0.9541E-12  0.1254E-08  0.1685E-12  0.1904E-07  0.0000E+00  0.4434E+14
   -2.406273    4.00294  0.9541E-12  0.2163E-08  0.2927E-12  0.7210E-05  0.0000E+00 -0.5632E+12
   -2.475021    4.00498  0.9541E-12  0.2494E-08  0.3630E-12  0.7109E-05  0.0000E+00 -0.6312E+12
   -2.543769    4.00702  0.9541E-12  0.2654E-08  0.4527E-12  0.5891E-05  0.0000E+00 -0.8336E+12
   -2.612516    4.00945  0.9541E-12  0.2582E-08  0.6283E-12  0.3443E-05  0.0000E+00 -0.1568E+13
   -2.681263    4.01344  0.9541E-12  0.1872E-08  0.1431E-11  0.5363E-06  0.0000E+00 -0.1116E+14
   -2.750009    4.03280  0.9541E-12  0.0000E+00  0.0000E+00  0.0000E+00  0.0000E+00  0.0000E+00
