 1 - depth, m
 2 - temperature, C
 3 - salinity, kg/kg
 4 - turbulent kinetic energy, m**2/s**2
 5 - dissipation rate, m**2/s**3
 6 - kinematic heat conductance, m**2/s
 7 - modulus of horizontal velocity, m/s
 8 - Richardson number, n/d
   -0.000000   -0.00000  0.2239E-17  0.1219E-13  0.7603E-17  0.1000E-09  0.0000E+00  0.4557E+16
   -0.068746    0.06900  0.2651E-19  0.1219E-13  0.7603E-17  0.1000E-09  0.0000E+00  0.4654E+16
   -0.137493    0.14084  0.1869E-12  0.1219E-13  0.7603E-17  0.1000E-09  0.0000E+00  0.4773E+16
   -0.206241    0.21603  0.9761E-12  0.1219E-13  0.7603E-17  0.1000E-09  0.0000E+00  0.4905E+16
   -0.274989    0.29500  0.2048E-11  0.1219E-13  0.7603E-17  0.1000E-09  0.0000E+00  0.5037E+16
   -0.343737    0.37801  0.2965E-11  0.1219E-13  0.7603E-17  0.1000E-09  0.0000E+00  0.5155E+16
   -0.412487    0.46510  0.3502E-11  0.1219E-13  0.7603E-17  0.1000E-09  0.0000E+00  0.5246E+16
   -0.481236    0.55615  0.3672E-11  0.1219E-13  0.7603E-17  0.1000E-09  0.0000E+00  0.5305E+16
   -0.549986    0.65089  0.3604E-11  0.1219E-13  0.7603E-17  0.1000E-09  0.0000E+00  0.5327E+16
   -0.618737    0.74899  0.3435E-11  0.1219E-13  0.7603E-17  0.1000E-09  0.0000E+00  0.5314E+16
   -0.687488    0.85007  0.3258E-11  0.1219E-13  0.7603E-17  0.1000E-09  0.0000E+00  0.5264E+16
   -0.756239    0.95370  0.3115E-11  0.1219E-13  0.7603E-17  0.1000E-09  0.0000E+00  0.5182E+16
   -0.824990    1.05949  0.3018E-11  0.1219E-13  0.7603E-17  0.1000E-09  0.0000E+00  0.5076E+16
   -0.893742    1.16716  0.2958E-11  0.1219E-13  0.7603E-17  0.1000E-09  0.0000E+00  0.4949E+16
   -0.962494    1.27645  0.2925E-11  0.1219E-13  0.7603E-17  0.1000E-09  0.0000E+00  0.4806E+16
   -1.031247    1.38718  0.2907E-11  0.1219E-13  0.7603E-17  0.1000E-09  0.0000E+00  0.4650E+16
   -1.099999    1.49921  0.2898E-11  0.1219E-13  0.7603E-17  0.1000E-09  0.0000E+00  0.4483E+16
   -1.168752    1.61245  0.2892E-11  0.1219E-13  0.7603E-17  0.1000E-09  0.0000E+00  0.4309E+16
   -1.237504    1.72684  0.2888E-11  0.1219E-13  0.7603E-17  0.1000E-09  0.0000E+00  0.4130E+16
   -1.306257    1.84242  0.2883E-11  0.1219E-13  0.7603E-17  0.1000E-09  0.0000E+00  0.3947E+16
   -1.375010    1.95925  0.2877E-11  0.1219E-13  0.7603E-17  0.1000E-09  0.0000E+00  0.3762E+16
   -1.443762    2.07750  0.2871E-11  0.1219E-13  0.7603E-17  0.1000E-09  0.0000E+00  0.3576E+16
   -1.512515    2.19737  0.2863E-11  0.1219E-13  0.7603E-17  0.1000E-09  0.0000E+00  0.3385E+16
   -1.581268    2.31902  0.2855E-11  0.1219E-13  0.7603E-17  0.1000E-09  0.0000E+00  0.3189E+16
   -1.650020    2.44261  0.2846E-11  0.1219E-13  0.7603E-17  0.1000E-09  0.0000E+00  0.2985E+16
   -1.718773    2.56826  0.2838E-11  0.1219E-13  0.7603E-17  0.1000E-09  0.0000E+00  0.2765E+16
   -1.787525    2.69583  0.2831E-11  0.1219E-13  0.7603E-17  0.1000E-09  0.0000E+00  0.2452E+16
   -1.856277    2.82084  0.2825E-11  0.1219E-13  0.7603E-17  0.1000E-09  0.0000E+00  0.2141E+16
   -1.925029    2.94238  0.2820E-11  0.1219E-13  0.7603E-17  0.1000E-09  0.0000E+00  0.1834E+16
   -1.993780    3.05935  0.2816E-11  0.3484E-13  0.1191E-16  0.1000E-09  0.0000E+00  0.1557E+16
   -2.062532    3.17196  0.2813E-11  0.1368E-12  0.4140E-16  0.1000E-09  0.0000E+00  0.1362E+16
   -2.131283    3.28534  0.2810E-11  0.5164E-12  0.1495E-15  0.1000E-09  0.0000E+00  0.1171E+16
   -2.200033    3.40030  0.2808E-11  0.1905E-11  0.5309E-15  0.1000E-09  0.0000E+00  0.9740E+15
   -2.268783    3.51716  0.2806E-11  0.6967E-11  0.1872E-14  0.1000E-09  0.0000E+00  0.7658E+15
   -2.337533    3.63566  0.2805E-11  0.2556E-10  0.6625E-14  0.1000E-09  0.0000E+00  0.5484E+15
   -2.406282    3.75553  0.2804E-11  0.9342E-10  0.2338E-13  0.3654E-09  0.0000E+00  0.3230E+15
   -2.475031    3.87617  0.2804E-11  0.3414E-09  0.8264E-13  0.4340E-08  0.0000E+00  0.9466E+14
   -2.543779    3.99383  0.2803E-11  0.1056E-08  0.2529E-12  0.1737E-05  0.0000E+00 -0.1672E+13
   -2.612526    4.00280  0.2803E-11  0.1370E-08  0.4341E-12  0.1643E-05  0.0000E+00 -0.2883E+13
   -2.681273    4.01162  0.2803E-11  0.1162E-08  0.9008E-12  0.3881E-06  0.0000E+00 -0.1357E+14
   -2.750019    4.03503  0.2803E-11  0.0000E+00  0.0000E+00  0.0000E+00  0.0000E+00  0.0000E+00
