 1 - depth, m
 2 - temperature, C
 3 - salinity, kg/kg
 4 - turbulent kinetic energy, m**2/s**2
 5 - dissipation rate, m**2/s**3
 6 - kinematic heat conductance, m**2/s
 7 - modulus of horizontal velocity, m/s
 8 - Richardson number, n/d
   -0.000000   -0.00000  0.2350E-11  0.1421E-09  0.1052E-12  0.1232E-09  0.5211E-27  0.5696E+16
   -0.068746    0.08644  0.1487E-11  0.7894E-09  0.7251E-13  0.1161E-09  0.4532E-27  0.4530E+16
   -0.137492    0.15669  0.1324E-11  0.1818E-08  0.7166E-13  0.1352E-09  0.4011E-27  0.3386E+16
   -0.206239    0.21010  0.1294E-11  0.3115E-08  0.8042E-13  0.1923E-09  0.3482E-27  0.2368E+16
   -0.274986    0.24794  0.1291E-11  0.4595E-08  0.9352E-13  0.3319E-09  0.2943E-27  0.1535E+16
   -0.343734    0.27269  0.1290E-11  0.6174E-08  0.1085E-12  0.6726E-09  0.2429E-27  0.9083E+15
   -0.412483    0.28741  0.1290E-11  0.7758E-08  0.1235E-12  0.1595E-08  0.1964E-27  0.4768E+15
   -0.481232    0.29517  0.1290E-11  0.9239E-08  0.1371E-12  0.4968E-08  0.1566E-27  0.2113E+15
   -0.549982    0.29862  0.1290E-11  0.1040E-07  0.1471E-12  0.5454E-07  0.1247E-27  0.7180E+14
   -0.618731    0.29979  0.1290E-11  0.1070E-07  0.1497E-12  0.1111E-03  0.1101E-27  0.1733E+14
   -0.687482    0.30007  0.1290E-11  0.1078E-07  0.1504E-12  0.1601E-03  0.1099E-27  0.4851E+13
   -0.756232    0.30015  0.1290E-11  0.1081E-07  0.1506E-12  0.1277E-03  0.1099E-27  0.1112E+14
   -0.824983    0.30033  0.1290E-11  0.1076E-07  0.1500E-12  0.9583E-06  0.1098E-27  0.4514E+14
   -0.893735    0.30107  0.1290E-11  0.1027E-07  0.1451E-12  0.9375E-08  0.1069E-27  0.1374E+15
   -0.962486    0.30331  0.1290E-11  0.9335E-08  0.1347E-12  0.2799E-08  0.9250E-28  0.3183E+15
   -1.031238    0.30852  0.1290E-11  0.8278E-08  0.1222E-12  0.1166E-08  0.7847E-28  0.6221E+15
   -1.099989    0.31871  0.1290E-11  0.7185E-08  0.1086E-12  0.5619E-09  0.6580E-28  0.1085E+16
   -1.168741    0.33656  0.1290E-11  0.6116E-08  0.9473E-13  0.2987E-09  0.5459E-28  0.1740E+16
   -1.237494    0.36537  0.1290E-11  0.5113E-08  0.8121E-13  0.1778E-09  0.4476E-28  0.2607E+16
   -1.306246    0.40898  0.1288E-11  0.4200E-08  0.6852E-13  0.1231E-09  0.3619E-28  0.3681E+16
   -1.374998    0.47154  0.1279E-11  0.3390E-08  0.5698E-13  0.1020E-09  0.2872E-28  0.5015E+16
   -1.443750    0.55872  0.1266E-11  0.2688E-08  0.4676E-13  0.1000E-09  0.2222E-28  0.6478E+16
   -1.512502    0.67492  0.1261E-11  0.2090E-08  0.3795E-13  0.1000E-09  0.1653E-28  0.7941E+16
   -1.581254    0.82352  0.1260E-11  0.1589E-08  0.3060E-13  0.1000E-09  0.1150E-28  0.9288E+16
   -1.650006    1.00722  0.1258E-11  0.1178E-08  0.2472E-13  0.1000E-09  0.6953E-29  0.1039E+17
   -1.718758    1.22793  0.1257E-11  0.8484E-09  0.2038E-13  0.1000E-09  0.2721E-29  0.1107E+17
   -1.787510    1.48552  0.1256E-11  0.5821E-09  0.1763E-13  0.1000E-09  0.1848E-30  0.1048E+17
   -1.856261    1.75798  0.1256E-11  0.3692E-09  0.1697E-13  0.1000E-09  0.1155E-31  0.9677E+16
   -1.925012    2.04448  0.1256E-11  0.2220E-09  0.2037E-13  0.1000E-09  0.6593E-33  0.8641E+16
   -1.993763    2.34349  0.1256E-11  0.1794E-09  0.3559E-13  0.1000E-09  0.4099E-34  0.7475E+16
   -2.062514    2.65700  0.1256E-11  0.3591E-09  0.9491E-13  0.1000E-09  0.3315E-35  0.6342E+16
   -2.131264    3.00011  0.1255E-11  0.1170E-08  0.3111E-12  0.3373E-09  0.2508E-36  0.4695E+16
   -2.200014    3.36896  0.1253E-11  0.4078E-08  0.1049E-11  0.2074E-08  0.1764E-37  0.2574E+16
   -2.268764    3.75172  0.1248E-11  0.1386E-07  0.3446E-11  0.4416E-07  0.8471E-39  0.3957E+15
   -2.337513    4.05496  0.1248E-11  0.1858E-07  0.4670E-11  0.3190E-04  0.2589E-40 -0.1911E+13
   -2.406261    4.05671  0.1248E-11  0.2021E-07  0.5294E-11  0.3130E-04  0.7629E-41 -0.2025E+13
   -2.475009    4.05853  0.1248E-11  0.2126E-07  0.6071E-11  0.2838E-04  0.2045E-41 -0.2343E+13
   -2.543757    4.06057  0.1248E-11  0.2169E-07  0.7288E-11  0.2275E-04  0.4717E-42 -0.3125E+13
   -2.612504    4.06321  0.1248E-11  0.2114E-07  0.9998E-11  0.1389E-04  0.7849E-43 -0.5769E+13
   -2.681250    4.06786  0.1248E-11  0.1650E-07  0.2586E-10  0.2423E-05  0.6600E-44 -0.4955E+14
   -2.749996    4.10026  0.1248E-11  0.0000E+00  0.0000E+00  0.0000E+00  0.6957E-44  0.0000E+00
