 1 - depth, m
 2 - temperature, C
 3 - salinity, kg/kg
 4 - turbulent kinetic energy, m**2/s**2
 5 - dissipation rate, m**2/s**3
 6 - kinematic heat conductance, m**2/s
 7 - modulus of horizontal velocity, m/s
 8 - Richardson number, n/d
   -0.000000   -0.00000  0.1454E-09  0.1219E-13  0.7603E-17  0.1000E-09  0.0000E+00  0.4727E+16
   -0.068746    0.07160  0.8030E-10  0.1219E-13  0.7603E-17  0.1000E-09  0.0000E+00  0.4557E+16
   -0.137492    0.14197  0.6172E-10  0.1219E-13  0.7603E-17  0.1000E-09  0.0000E+00  0.4418E+16
   -0.206239    0.21153  0.5735E-10  0.1219E-13  0.7603E-17  0.1000E-09  0.0000E+00  0.4308E+16
   -0.274987    0.28070  0.5644E-10  0.1219E-13  0.7603E-17  0.1000E-09  0.0000E+00  0.4225E+16
   -0.343735    0.34990  0.5627E-10  0.1219E-13  0.7603E-17  0.1000E-09  0.0000E+00  0.4167E+16
   -0.412483    0.41954  0.5624E-10  0.1219E-13  0.7603E-17  0.1000E-09  0.0000E+00  0.4131E+16
   -0.481232    0.49004  0.5624E-10  0.1219E-13  0.7603E-17  0.1000E-09  0.0000E+00  0.4116E+16
   -0.549982    0.56181  0.5624E-10  0.1219E-13  0.7603E-17  0.1000E-09  0.0000E+00  0.4118E+16
   -0.618732    0.63525  0.5624E-10  0.1219E-13  0.7603E-17  0.1000E-09  0.0000E+00  0.4135E+16
   -0.687482    0.71074  0.5624E-10  0.1219E-13  0.7603E-17  0.1000E-09  0.0000E+00  0.4178E+16
   -0.756233    0.78893  0.5624E-10  0.1219E-13  0.7603E-17  0.1000E-09  0.0000E+00  0.4237E+16
   -0.824984    0.87033  0.5624E-10  0.1219E-13  0.7603E-17  0.1000E-09  0.0000E+00  0.4297E+16
   -0.893735    0.95524  0.5624E-10  0.1219E-13  0.7603E-17  0.1000E-09  0.0000E+00  0.4357E+16
   -0.962486    1.04397  0.5624E-10  0.1219E-13  0.7603E-17  0.1000E-09  0.0000E+00  0.4411E+16
   -1.031238    1.13674  0.5624E-10  0.1219E-13  0.7603E-17  0.1000E-09  0.0000E+00  0.4455E+16
   -1.099990    1.23377  0.5623E-10  0.1219E-13  0.7603E-17  0.1000E-09  0.0000E+00  0.4485E+16
   -1.168742    1.33520  0.5621E-10  0.1219E-13  0.7603E-17  0.1000E-09  0.0000E+00  0.4496E+16
   -1.237494    1.44114  0.5616E-10  0.1219E-13  0.7603E-17  0.1000E-09  0.0000E+00  0.4486E+16
   -1.306246    1.55162  0.5605E-10  0.1219E-13  0.7603E-17  0.1000E-09  0.0000E+00  0.4450E+16
   -1.374999    1.66662  0.5586E-10  0.1219E-13  0.7603E-17  0.1000E-09  0.0000E+00  0.4396E+16
   -1.443751    1.78637  0.5561E-10  0.1219E-13  0.7603E-17  0.1000E-09  0.0000E+00  0.4314E+16
   -1.512503    1.91084  0.5537E-10  0.1219E-13  0.7603E-17  0.1000E-09  0.0000E+00  0.4195E+16
   -1.581255    2.03978  0.5521E-10  0.1219E-13  0.7603E-17  0.1000E-09  0.0000E+00  0.4040E+16
   -1.650007    2.17291  0.5513E-10  0.1219E-13  0.7603E-17  0.1000E-09  0.0000E+00  0.3849E+16
   -1.718759    2.30985  0.5509E-10  0.1219E-13  0.7603E-17  0.1000E-09  0.0000E+00  0.3621E+16
   -1.787511    2.45012  0.5506E-10  0.1219E-13  0.7603E-17  0.1000E-09  0.0000E+00  0.3348E+16
   -1.856262    2.59265  0.5505E-10  0.1219E-13  0.7603E-17  0.1000E-09  0.0000E+00  0.3053E+16
   -1.925013    2.73704  0.5504E-10  0.1219E-13  0.7603E-17  0.1000E-09  0.0000E+00  0.2738E+16
   -1.993764    2.88284  0.5502E-10  0.4356E-13  0.1856E-16  0.1000E-09  0.0000E+00  0.2408E+16
   -2.062515    3.02963  0.5500E-10  0.1982E-12  0.7854E-16  0.1000E-09  0.0000E+00  0.2080E+16
   -2.131265    3.17796  0.5494E-10  0.8773E-12  0.3331E-15  0.1000E-09  0.0000E+00  0.1739E+16
   -2.200015    3.32753  0.5486E-10  0.3794E-11  0.1384E-14  0.1000E-09  0.0000E+00  0.1387E+16
   -2.268765    3.47789  0.5473E-10  0.1623E-10  0.5690E-14  0.1000E-09  0.0000E+00  0.1033E+16
   -2.337514    3.62926  0.5458E-10  0.6938E-10  0.2340E-13  0.1755E-09  0.0000E+00  0.6735E+15
   -2.406263    3.78165  0.5448E-10  0.2940E-09  0.9554E-13  0.1559E-08  0.0000E+00  0.3072E+15
   -2.475011    3.93381  0.5445E-10  0.1192E-08  0.3762E-12  0.1134E-06  0.0000E+00  0.1257E+14
   -2.543758    4.02029  0.5445E-10  0.3250E-08  0.1096E-11  0.3859E-05  0.0000E+00 -0.3344E+13
   -2.612505    4.02608  0.5445E-10  0.3962E-08  0.1800E-11  0.2999E-05  0.0000E+00 -0.5642E+13
   -2.681251    4.03429  0.5445E-10  0.3961E-08  0.4445E-11  0.1000E-05  0.0000E+00 -0.3055E+14
   -2.749997    4.06508  0.5445E-10  0.0000E+00  0.0000E+00  0.0000E+00  0.0000E+00  0.0000E+00
