 1 - depth, m
 2 - temperature, C
 3 - salinity, kg/kg
 4 - turbulent kinetic energy, m**2/s**2
 5 - dissipation rate, m**2/s**3
 6 - kinematic heat conductance, m**2/s
 7 - modulus of horizontal velocity, m/s
 8 - Richardson number, n/d
   -0.000000   -0.00000  0.7007E-10  0.1219E-13  0.7603E-17  0.1000E-09  0.0000E+00  0.6368E+16
   -0.068746    0.09678  0.4201E-10  0.1219E-13  0.7603E-17  0.1000E-09  0.0000E+00  0.6139E+16
   -0.137492    0.19259  0.3059E-10  0.1219E-13  0.7603E-17  0.1000E-09  0.0000E+00  0.5940E+16
   -0.206239    0.28780  0.2717E-10  0.1219E-13  0.7603E-17  0.1000E-09  0.0000E+00  0.5767E+16
   -0.274987    0.38280  0.2631E-10  0.1219E-13  0.7603E-17  0.1000E-09  0.0000E+00  0.5615E+16
   -0.343735    0.47793  0.2612E-10  0.1219E-13  0.7603E-17  0.1000E-09  0.0000E+00  0.5482E+16
   -0.412483    0.57351  0.2608E-10  0.1219E-13  0.7603E-17  0.1000E-09  0.0000E+00  0.5364E+16
   -0.481232    0.66985  0.2607E-10  0.1219E-13  0.7603E-17  0.1000E-09  0.0000E+00  0.5258E+16
   -0.549982    0.76726  0.2607E-10  0.1219E-13  0.7603E-17  0.1000E-09  0.0000E+00  0.5162E+16
   -0.618732    0.86601  0.2607E-10  0.1219E-13  0.7603E-17  0.1000E-09  0.0000E+00  0.5073E+16
   -0.687482    0.96637  0.2607E-10  0.1219E-13  0.7603E-17  0.1000E-09  0.0000E+00  0.4999E+16
   -0.756233    1.06882  0.2607E-10  0.1219E-13  0.7603E-17  0.1000E-09  0.0000E+00  0.4932E+16
   -0.824984    1.17372  0.2607E-10  0.1219E-13  0.7603E-17  0.1000E-09  0.0000E+00  0.4860E+16
   -0.893735    1.28126  0.2607E-10  0.1219E-13  0.7603E-17  0.1000E-09  0.0000E+00  0.4781E+16
   -0.962486    1.39161  0.2607E-10  0.1219E-13  0.7603E-17  0.1000E-09  0.0000E+00  0.4692E+16
   -1.031238    1.50488  0.2606E-10  0.1219E-13  0.7603E-17  0.1000E-09  0.0000E+00  0.4590E+16
   -1.099990    1.62115  0.2604E-10  0.1219E-13  0.7603E-17  0.1000E-09  0.0000E+00  0.4472E+16
   -1.168742    1.74048  0.2600E-10  0.1219E-13  0.7603E-17  0.1000E-09  0.0000E+00  0.4338E+16
   -1.237494    1.86286  0.2592E-10  0.1219E-13  0.7603E-17  0.1000E-09  0.0000E+00  0.4185E+16
   -1.306246    1.98827  0.2581E-10  0.1219E-13  0.7603E-17  0.1000E-09  0.0000E+00  0.4011E+16
   -1.374999    2.11663  0.2568E-10  0.3379E-13  0.7603E-17  0.1000E-09  0.0000E+00  0.3821E+16
   -1.443751    2.24800  0.2556E-10  0.1035E-12  0.1658E-16  0.1000E-09  0.0000E+00  0.3611E+16
   -1.512503    2.38230  0.2548E-10  0.2780E-12  0.4122E-16  0.1000E-09  0.0000E+00  0.3378E+16
   -1.581255    2.51932  0.2543E-10  0.7128E-12  0.1019E-15  0.1000E-09  0.0000E+00  0.3122E+16
   -1.650007    2.65880  0.2540E-10  0.1791E-11  0.2483E-15  0.1000E-09  0.0000E+00  0.2845E+16
   -1.718759    2.80045  0.2539E-10  0.4436E-11  0.5973E-15  0.1000E-09  0.0000E+00  0.2550E+16
   -1.787511    2.94398  0.2538E-10  0.1113E-10  0.1456E-14  0.1000E-09  0.0000E+00  0.2257E+16
   -1.856262    3.09035  0.2537E-10  0.2806E-10  0.3566E-14  0.1000E-09  0.0000E+00  0.1945E+16
   -1.925013    3.23956  0.2535E-10  0.7040E-10  0.8698E-14  0.1000E-09  0.0000E+00  0.1615E+16
   -1.993764    3.39169  0.2533E-10  0.1757E-09  0.2112E-13  0.1000E-09  0.0000E+00  0.1263E+16
   -2.062515    3.54633  0.2530E-10  0.4264E-09  0.4987E-13  0.2868E-09  0.0000E+00  0.8844E+15
   -2.131265    3.70114  0.2526E-10  0.1020E-08  0.1162E-12  0.1174E-08  0.0000E+00  0.5031E+15
   -2.200015    3.85476  0.2524E-10  0.2408E-08  0.2671E-12  0.1007E-07  0.0000E+00  0.1345E+15
   -2.268765    3.99870  0.2524E-10  0.3369E-08  0.3769E-12  0.1211E-04  0.0000E+00 -0.3682E+12
   -2.337514    4.00047  0.2524E-10  0.3778E-08  0.4411E-12  0.1276E-04  0.0000E+00 -0.3978E+12
   -2.406263    4.00216  0.2524E-10  0.4089E-08  0.5171E-12  0.1240E-04  0.0000E+00 -0.4609E+12
   -2.475011    4.00392  0.2524E-10  0.4305E-08  0.6210E-12  0.1097E-04  0.0000E+00 -0.5881E+12
   -2.543758    4.00593  0.2524E-10  0.4399E-08  0.7927E-12  0.8382E-05  0.0000E+00 -0.8872E+12
   -2.612505    4.00863  0.2524E-10  0.4273E-08  0.1191E-11  0.4659E-05  0.0000E+00 -0.1976E+13
   -2.681251    4.01371  0.2524E-10  0.3433E-08  0.3168E-11  0.9039E-06  0.0000E+00 -0.1817E+14
   -2.749997    4.04173  0.2524E-10  0.0000E+00  0.0000E+00  0.0000E+00  0.0000E+00  0.0000E+00
