 1 - depth, m
 2 - temperature, C
 3 - salinity, kg/kg
 4 - turbulent kinetic energy, m**2/s**2
 5 - dissipation rate, m**2/s**3
 6 - kinematic heat conductance, m**2/s
 7 - modulus of horizontal velocity, m/s
 8 - Richardson number, n/d
   -0.000000   -0.00000  0.1085E-10  0.1219E-13  0.7603E-17  0.1000E-09  0.0000E+00  0.7918E+16
   -0.068746    0.12074  0.6726E-11  0.1219E-13  0.7603E-17  0.1000E-09  0.0000E+00  0.7608E+16
   -0.137492    0.24065  0.4817E-11  0.1219E-13  0.7603E-17  0.1000E-09  0.0000E+00  0.7316E+16
   -0.206239    0.35995  0.4112E-11  0.1219E-13  0.7603E-17  0.1000E-09  0.0000E+00  0.7043E+16
   -0.274987    0.47887  0.3889E-11  0.1219E-13  0.7603E-17  0.1000E-09  0.0000E+00  0.6785E+16
   -0.343735    0.59762  0.3827E-11  0.1219E-13  0.7603E-17  0.1000E-09  0.0000E+00  0.6540E+16
   -0.412483    0.71641  0.3812E-11  0.1219E-13  0.7603E-17  0.1000E-09  0.0000E+00  0.6307E+16
   -0.481232    0.83545  0.3809E-11  0.1219E-13  0.7603E-17  0.1000E-09  0.0000E+00  0.6084E+16
   -0.549982    0.95494  0.3808E-11  0.1219E-13  0.7603E-17  0.1000E-09  0.0000E+00  0.5867E+16
   -0.618732    1.07507  0.3808E-11  0.1219E-13  0.7603E-17  0.1000E-09  0.0000E+00  0.5656E+16
   -0.687482    1.19601  0.3808E-11  0.1219E-13  0.7603E-17  0.1000E-09  0.0000E+00  0.5457E+16
   -0.756233    1.31815  0.3808E-11  0.1219E-13  0.7603E-17  0.1000E-09  0.0000E+00  0.5263E+16
   -0.824984    1.44173  0.3808E-11  0.1219E-13  0.7603E-17  0.1000E-09  0.0000E+00  0.5065E+16
   -0.893735    1.56691  0.3807E-11  0.1219E-13  0.7603E-17  0.1000E-09  0.0000E+00  0.4863E+16
   -0.962487    1.69376  0.3806E-11  0.1335E-13  0.7603E-17  0.1000E-09  0.0000E+00  0.4653E+16
   -1.031239    1.82237  0.3803E-11  0.4670E-13  0.8160E-17  0.1000E-09  0.0000E+00  0.4435E+16
   -1.099990    1.95279  0.3798E-11  0.1278E-12  0.1377E-16  0.1000E-09  0.0000E+00  0.4207E+16
   -1.168742    2.08505  0.3789E-11  0.2901E-12  0.2780E-16  0.1000E-09  0.0000E+00  0.3967E+16
   -1.237495    2.21913  0.3776E-11  0.6160E-12  0.5655E-16  0.1000E-09  0.0000E+00  0.3716E+16
   -1.306247    2.35499  0.3760E-11  0.1274E-11  0.1139E-15  0.1000E-09  0.0000E+00  0.3453E+16
   -1.374999    2.49257  0.3744E-11  0.2601E-11  0.2273E-15  0.1000E-09  0.0000E+00  0.3179E+16
   -1.443751    2.63189  0.3730E-11  0.5262E-11  0.4505E-15  0.1000E-09  0.0000E+00  0.2894E+16
   -1.512503    2.77286  0.3720E-11  0.1057E-10  0.8878E-15  0.1000E-09  0.0000E+00  0.2595E+16
   -1.581256    2.91530  0.3713E-11  0.2113E-10  0.1742E-14  0.1000E-09  0.0000E+00  0.2286E+16
   -1.650008    3.05907  0.3709E-11  0.4203E-10  0.3409E-14  0.1000E-09  0.0000E+00  0.1969E+16
   -1.718760    3.20416  0.3707E-11  0.8333E-10  0.6657E-14  0.1000E-09  0.0000E+00  0.1647E+16
   -1.787511    3.35083  0.3705E-11  0.1684E-09  0.1327E-13  0.1000E-09  0.0000E+00  0.1335E+16
   -1.856263    3.50165  0.3702E-11  0.3463E-09  0.2695E-13  0.1379E-09  0.0000E+00  0.9949E+15
   -1.925014    3.65662  0.3698E-11  0.7182E-09  0.5530E-13  0.4561E-09  0.0000E+00  0.6183E+15
   -1.993765    3.81306  0.3694E-11  0.1499E-08  0.1144E-12  0.2553E-08  0.0000E+00  0.2264E+15
   -2.062516    3.96053  0.3693E-11  0.2617E-08  0.2034E-12  0.2180E-05  0.0000E+00  0.8483E+13
   -2.131266    3.99620  0.3693E-11  0.3174E-08  0.2527E-12  0.1482E-04  0.0000E+00 -0.1714E+12
   -2.200016    3.99758  0.3693E-11  0.3487E-08  0.2875E-12  0.1647E-04  0.0000E+00 -0.1906E+12
   -2.268766    3.99881  0.3693E-11  0.3751E-08  0.3259E-12  0.1709E-04  0.0000E+00 -0.2152E+12
   -2.337515    4.00001  0.3693E-11  0.3974E-08  0.3720E-12  0.1678E-04  0.0000E+00 -0.2512E+12
   -2.406263    4.00125  0.3693E-11  0.4151E-08  0.4312E-12  0.1551E-04  0.0000E+00 -0.3089E+12
   -2.475011    4.00262  0.3693E-11  0.4268E-08  0.5161E-12  0.1318E-04  0.0000E+00 -0.4137E+12
   -2.543759    4.00426  0.3693E-11  0.4290E-08  0.6594E-12  0.9709E-05  0.0000E+00 -0.6496E+12
   -2.612506    4.00654  0.3693E-11  0.4109E-08  0.9926E-12  0.5154E-05  0.0000E+00 -0.1494E+13
   -2.681252    4.01093  0.3693E-11  0.3135E-08  0.2694E-11  0.8297E-06  0.0000E+00 -0.1478E+14
   -2.749998    4.03635  0.3693E-11  0.0000E+00  0.0000E+00  0.0000E+00  0.0000E+00  0.0000E+00
