 1 - depth, m
 2 - temperature, C
 3 - salinity, kg/kg
 4 - turbulent kinetic energy, m**2/s**2
 5 - dissipation rate, m**2/s**3
 6 - kinematic heat conductance, m**2/s
 7 - modulus of horizontal velocity, m/s
 8 - Richardson number, n/d
   -0.000000   -0.00000  0.2547E-12  0.1219E-13  0.7603E-17  0.1000E-09  0.0000E+00  0.6625E+16
   -0.068746    0.10075  0.1983E-11  0.1219E-13  0.7603E-17  0.1000E-09  0.0000E+00  0.6553E+16
   -0.137493    0.20322  0.3757E-11  0.1219E-13  0.7603E-17  0.1000E-09  0.0000E+00  0.6468E+16
   -0.206240    0.30734  0.4795E-11  0.1219E-13  0.7603E-17  0.1000E-09  0.0000E+00  0.6369E+16
   -0.274988    0.41301  0.5091E-11  0.1219E-13  0.7603E-17  0.1000E-09  0.0000E+00  0.6255E+16
   -0.343736    0.52014  0.4944E-11  0.1219E-13  0.7603E-17  0.1000E-09  0.0000E+00  0.6128E+16
   -0.412485    0.62860  0.4636E-11  0.1219E-13  0.7603E-17  0.1000E-09  0.0000E+00  0.5988E+16
   -0.481234    0.73828  0.4335E-11  0.1219E-13  0.7603E-17  0.1000E-09  0.0000E+00  0.5835E+16
   -0.549984    0.84904  0.4109E-11  0.1219E-13  0.7603E-17  0.1000E-09  0.0000E+00  0.5670E+16
   -0.618734    0.96079  0.3965E-11  0.1219E-13  0.7603E-17  0.1000E-09  0.0000E+00  0.5496E+16
   -0.687485    1.07339  0.3883E-11  0.1219E-13  0.7603E-17  0.1000E-09  0.0000E+00  0.5312E+16
   -0.756236    1.18674  0.3841E-11  0.1219E-13  0.7603E-17  0.1000E-09  0.0000E+00  0.5120E+16
   -0.824987    1.30074  0.3821E-11  0.1219E-13  0.7603E-17  0.1000E-09  0.0000E+00  0.4921E+16
   -0.893739    1.41529  0.3812E-11  0.1219E-13  0.7603E-17  0.1000E-09  0.0000E+00  0.4716E+16
   -0.962490    1.53030  0.3806E-11  0.1219E-13  0.7603E-17  0.1000E-09  0.0000E+00  0.4506E+16
   -1.031242    1.64568  0.3802E-11  0.1219E-13  0.7603E-17  0.1000E-09  0.0000E+00  0.4292E+16
   -1.099994    1.76137  0.3798E-11  0.1219E-13  0.7603E-17  0.1000E-09  0.0000E+00  0.4074E+16
   -1.168747    1.87727  0.3792E-11  0.1219E-13  0.7603E-17  0.1000E-09  0.0000E+00  0.3854E+16
   -1.237499    1.99334  0.3785E-11  0.1219E-13  0.7603E-17  0.1000E-09  0.0000E+00  0.3632E+16
   -1.306251    2.10952  0.3776E-11  0.1219E-13  0.7603E-17  0.1000E-09  0.0000E+00  0.3409E+16
   -1.375004    2.22576  0.3766E-11  0.1219E-13  0.7603E-17  0.1000E-09  0.0000E+00  0.3187E+16
   -1.443756    2.34204  0.3755E-11  0.1219E-13  0.7603E-17  0.1000E-09  0.0000E+00  0.2964E+16
   -1.512509    2.45835  0.3745E-11  0.1219E-13  0.7603E-17  0.1000E-09  0.0000E+00  0.2742E+16
   -1.581261    2.57466  0.3735E-11  0.1219E-13  0.7603E-17  0.1000E-09  0.0000E+00  0.2520E+16
   -1.650014    2.69096  0.3726E-11  0.1219E-13  0.7603E-17  0.1000E-09  0.0000E+00  0.2298E+16
   -1.718766    2.80724  0.3719E-11  0.1219E-13  0.7603E-17  0.1000E-09  0.0000E+00  0.2077E+16
   -1.787518    2.92343  0.3713E-11  0.2301E-13  0.7603E-17  0.1000E-09  0.0000E+00  0.1832E+16
   -1.856269    3.03786  0.3709E-11  0.8506E-13  0.1948E-16  0.1000E-09  0.0000E+00  0.1592E+16
   -1.925021    3.15015  0.3705E-11  0.2829E-12  0.6025E-16  0.1000E-09  0.0000E+00  0.1358E+16
   -1.993772    3.25977  0.3702E-11  0.9067E-12  0.1859E-15  0.1000E-09  0.0000E+00  0.1139E+16
   -2.062523    3.36669  0.3699E-11  0.2790E-11  0.5530E-15  0.1000E-09  0.0000E+00  0.9542E+15
   -2.131274    3.47329  0.3697E-11  0.8431E-11  0.1617E-14  0.1000E-09  0.0000E+00  0.7730E+15
   -2.200024    3.57985  0.3696E-11  0.2514E-10  0.4669E-14  0.1000E-09  0.0000E+00  0.5929E+15
   -2.268774    3.68641  0.3695E-11  0.7471E-10  0.1344E-13  0.1650E-09  0.0000E+00  0.4131E+15
   -2.337523    3.79292  0.3694E-11  0.2236E-09  0.3898E-13  0.8446E-09  0.0000E+00  0.2336E+15
   -2.406272    3.89892  0.3694E-11  0.6663E-09  0.1128E-12  0.9592E-08  0.0000E+00  0.5866E+14
   -2.475020    3.99871  0.3694E-11  0.1486E-08  0.2516E-12  0.3741E-05  0.0000E+00 -0.8623E+12
   -2.543768    4.00256  0.3694E-11  0.1802E-08  0.3498E-12  0.3658E-05  0.0000E+00 -0.1100E+13
   -2.612515    4.00642  0.3694E-11  0.1879E-08  0.5098E-12  0.2393E-05  0.0000E+00 -0.2018E+13
   -2.681262    4.01204  0.3694E-11  0.1456E-08  0.1115E-11  0.4552E-06  0.0000E+00 -0.1232E+14
   -2.750008    4.03360  0.3694E-11  0.0000E+00  0.0000E+00  0.0000E+00  0.0000E+00  0.0000E+00
