 1 - depth, m
 2 - temperature, C
 3 - salinity, kg/kg
 4 - turbulent kinetic energy, m**2/s**2
 5 - dissipation rate, m**2/s**3
 6 - kinematic heat conductance, m**2/s
 7 - modulus of horizontal velocity, m/s
 8 - Richardson number, n/d
   -0.000000   -0.00000  0.1097E-10  0.1219E-13  0.7603E-17  0.1000E-09  0.0000E+00  0.7560E+16
   -0.068746    0.11519  0.6469E-11  0.1219E-13  0.7603E-17  0.1000E-09  0.0000E+00  0.7261E+16
   -0.137492    0.22938  0.4664E-11  0.1219E-13  0.7603E-17  0.1000E-09  0.0000E+00  0.6987E+16
   -0.206239    0.34285  0.4047E-11  0.1219E-13  0.7603E-17  0.1000E-09  0.0000E+00  0.6736E+16
   -0.274987    0.45592  0.3867E-11  0.1219E-13  0.7603E-17  0.1000E-09  0.0000E+00  0.6505E+16
   -0.343735    0.56887  0.3821E-11  0.1219E-13  0.7603E-17  0.1000E-09  0.0000E+00  0.6291E+16
   -0.412483    0.68201  0.3811E-11  0.1219E-13  0.7603E-17  0.1000E-09  0.0000E+00  0.6092E+16
   -0.481232    0.79560  0.3808E-11  0.1219E-13  0.7603E-17  0.1000E-09  0.0000E+00  0.5905E+16
   -0.549982    0.90992  0.3808E-11  0.1219E-13  0.7603E-17  0.1000E-09  0.0000E+00  0.5726E+16
   -0.618732    1.02522  0.3808E-11  0.1219E-13  0.7603E-17  0.1000E-09  0.0000E+00  0.5553E+16
   -0.687482    1.14174  0.3808E-11  0.1219E-13  0.7603E-17  0.1000E-09  0.0000E+00  0.5394E+16
   -0.756233    1.25992  0.3808E-11  0.1219E-13  0.7603E-17  0.1000E-09  0.0000E+00  0.5240E+16
   -0.824984    1.38008  0.3808E-11  0.1219E-13  0.7603E-17  0.1000E-09  0.0000E+00  0.5081E+16
   -0.893735    1.50240  0.3807E-11  0.1219E-13  0.7603E-17  0.1000E-09  0.0000E+00  0.4915E+16
   -0.962487    1.62702  0.3806E-11  0.1253E-13  0.7603E-17  0.1000E-09  0.0000E+00  0.4740E+16
   -1.031238    1.75405  0.3804E-11  0.4714E-13  0.8004E-17  0.1000E-09  0.0000E+00  0.4554E+16
   -1.099990    1.88358  0.3800E-11  0.1302E-12  0.1415E-16  0.1000E-09  0.0000E+00  0.4354E+16
   -1.168742    2.01566  0.3791E-11  0.2978E-12  0.2900E-16  0.1000E-09  0.0000E+00  0.4139E+16
   -1.237494    2.15031  0.3779E-11  0.6384E-12  0.5960E-16  0.1000E-09  0.0000E+00  0.3907E+16
   -1.306247    2.28750  0.3762E-11  0.1333E-11  0.1211E-15  0.1000E-09  0.0000E+00  0.3658E+16
   -1.374999    2.42717  0.3745E-11  0.2746E-11  0.2435E-15  0.1000E-09  0.0000E+00  0.3395E+16
   -1.443751    2.56940  0.3730E-11  0.5601E-11  0.4853E-15  0.1000E-09  0.0000E+00  0.3114E+16
   -1.512503    2.71409  0.3720E-11  0.1132E-10  0.9599E-15  0.1000E-09  0.0000E+00  0.2813E+16
   -1.581255    2.86108  0.3713E-11  0.2273E-10  0.1886E-14  0.1000E-09  0.0000E+00  0.2496E+16
   -1.650007    3.01022  0.3709E-11  0.4530E-10  0.3684E-14  0.1000E-09  0.0000E+00  0.2164E+16
   -1.718759    3.16146  0.3707E-11  0.8976E-10  0.7160E-14  0.1000E-09  0.0000E+00  0.1821E+16
   -1.787511    3.31503  0.3705E-11  0.1808E-09  0.1416E-13  0.1000E-09  0.0000E+00  0.1487E+16
   -1.856263    3.47396  0.3703E-11  0.3695E-09  0.2845E-13  0.1296E-09  0.0000E+00  0.1117E+16
   -1.925014    3.63855  0.3699E-11  0.7593E-09  0.5756E-13  0.4191E-09  0.0000E+00  0.6980E+15
   -1.993765    3.80693  0.3694E-11  0.1567E-08  0.1172E-12  0.2412E-08  0.0000E+00  0.2471E+15
   -2.062515    3.96931  0.3692E-11  0.2507E-08  0.1908E-12  0.3209E-05  0.0000E+00  0.4920E+13
   -2.131266    3.99376  0.3692E-11  0.3024E-08  0.2375E-12  0.1330E-04  0.0000E+00 -0.1650E+12
   -2.200016    3.99540  0.3692E-11  0.3349E-08  0.2744E-12  0.1527E-04  0.0000E+00 -0.1883E+12
   -2.268765    3.99682  0.3692E-11  0.3627E-08  0.3154E-12  0.1612E-04  0.0000E+00 -0.2163E+12
   -2.337514    3.99819  0.3692E-11  0.3867E-08  0.3646E-12  0.1598E-04  0.0000E+00 -0.2560E+12
   -2.406263    3.99959  0.3692E-11  0.4063E-08  0.4278E-12  0.1487E-04  0.0000E+00 -0.3185E+12
   -2.475011    4.00112  0.3692E-11  0.4200E-08  0.5179E-12  0.1269E-04  0.0000E+00 -0.4311E+12
   -2.543759    4.00294  0.3692E-11  0.4244E-08  0.6691E-12  0.9387E-05  0.0000E+00 -0.6840E+12
   -2.612506    4.00545  0.3692E-11  0.4087E-08  0.1018E-11  0.5013E-05  0.0000E+00 -0.1589E+13
   -2.681252    4.01025  0.3692E-11  0.3169E-08  0.2770E-11  0.8447E-06  0.0000E+00 -0.1565E+14
   -2.749998    4.03708  0.3692E-11  0.0000E+00  0.0000E+00  0.0000E+00  0.0000E+00  0.0000E+00
