 1 - depth, m
 2 - temperature, C
 3 - salinity, kg/kg
 4 - turbulent kinetic energy, m**2/s**2
 5 - dissipation rate, m**2/s**3
 6 - kinematic heat conductance, m**2/s
 7 - modulus of horizontal velocity, m/s
 8 - Richardson number, n/d
   -0.000000   -0.00000  0.6233E-11  0.1219E-13  0.7603E-17  0.1000E-09  0.0000E+00  0.8297E+16
   -0.068746    0.12661  0.3962E-11  0.1219E-13  0.7603E-17  0.1000E-09  0.0000E+00  0.7963E+16
   -0.137492    0.25244  0.2844E-11  0.1219E-13  0.7603E-17  0.1000E-09  0.0000E+00  0.7647E+16
   -0.206239    0.37767  0.2408E-11  0.1219E-13  0.7603E-17  0.1000E-09  0.0000E+00  0.7346E+16
   -0.274987    0.50249  0.2264E-11  0.1219E-13  0.7603E-17  0.1000E-09  0.0000E+00  0.7060E+16
   -0.343735    0.62708  0.2223E-11  0.1219E-13  0.7603E-17  0.1000E-09  0.0000E+00  0.6786E+16
   -0.412483    0.75162  0.2212E-11  0.1219E-13  0.7603E-17  0.1000E-09  0.0000E+00  0.6523E+16
   -0.481233    0.87629  0.2209E-11  0.1219E-13  0.7603E-17  0.1000E-09  0.0000E+00  0.6269E+16
   -0.549982    1.00126  0.2209E-11  0.1219E-13  0.7603E-17  0.1000E-09  0.0000E+00  0.6020E+16
   -0.618732    1.12670  0.2209E-11  0.1219E-13  0.7603E-17  0.1000E-09  0.0000E+00  0.5777E+16
   -0.687482    1.25273  0.2209E-11  0.1219E-13  0.7603E-17  0.1000E-09  0.0000E+00  0.5545E+16
   -0.756233    1.37970  0.2209E-11  0.1219E-13  0.7603E-17  0.1000E-09  0.0000E+00  0.5318E+16
   -0.824984    1.50785  0.2209E-11  0.1219E-13  0.7603E-17  0.1000E-09  0.0000E+00  0.5087E+16
   -0.893735    1.63726  0.2208E-11  0.1219E-13  0.7603E-17  0.1000E-09  0.0000E+00  0.4853E+16
   -0.962487    1.76802  0.2208E-11  0.2414E-13  0.7603E-17  0.1000E-09  0.0000E+00  0.4612E+16
   -1.031239    1.90016  0.2206E-11  0.8426E-13  0.1201E-16  0.1000E-09  0.0000E+00  0.4364E+16
   -1.099991    2.03373  0.2203E-11  0.2205E-12  0.2653E-16  0.1000E-09  0.0000E+00  0.4109E+16
   -1.168743    2.16872  0.2198E-11  0.5247E-12  0.5992E-16  0.1000E-09  0.0000E+00  0.3844E+16
   -1.237495    2.30512  0.2190E-11  0.1208E-11  0.1337E-15  0.1000E-09  0.0000E+00  0.3570E+16
   -1.306247    2.44287  0.2181E-11  0.2739E-11  0.2950E-15  0.1000E-09  0.0000E+00  0.3287E+16
   -1.374999    2.58192  0.2172E-11  0.6136E-11  0.6439E-15  0.1000E-09  0.0000E+00  0.2996E+16
   -1.443751    2.72226  0.2164E-11  0.1361E-10  0.1392E-14  0.1000E-09  0.0000E+00  0.2697E+16
   -1.512504    2.86383  0.2159E-11  0.2989E-10  0.2980E-14  0.1000E-09  0.0000E+00  0.2388E+16
   -1.581256    3.00647  0.2155E-11  0.6504E-10  0.6323E-14  0.1000E-09  0.0000E+00  0.2072E+16
   -1.650008    3.15001  0.2152E-11  0.1402E-09  0.1330E-13  0.1000E-09  0.0000E+00  0.1748E+16
   -1.718760    3.29427  0.2151E-11  0.2995E-09  0.2771E-13  0.1000E-09  0.0000E+00  0.1420E+16
   -1.787511    3.43912  0.2149E-11  0.6488E-09  0.5857E-13  0.2709E-09  0.0000E+00  0.1100E+16
   -1.856263    3.58631  0.2146E-11  0.1418E-08  0.1249E-12  0.8307E-09  0.0000E+00  0.7650E+15
   -1.925014    3.73562  0.2143E-11  0.3091E-08  0.2659E-12  0.3270E-08  0.0000E+00  0.4137E+15
   -1.993765    3.88540  0.2142E-11  0.6598E-08  0.5559E-12  0.3716E-07  0.0000E+00  0.7586E+14
   -2.062516    4.00883  0.2142E-11  0.7433E-08  0.6298E-12  0.3650E-04  0.0000E+00 -0.2142E+12
   -2.131266    4.00943  0.2142E-11  0.7780E-08  0.6684E-12  0.3679E-04  0.0000E+00 -0.2181E+12
   -2.200016    4.01002  0.2142E-11  0.8050E-08  0.7090E-12  0.3626E-04  0.0000E+00 -0.2270E+12
   -2.268766    4.01063  0.2142E-11  0.8249E-08  0.7547E-12  0.3488E-04  0.0000E+00 -0.2423E+12
   -2.337515    4.01126  0.2142E-11  0.8382E-08  0.8114E-12  0.3248E-04  0.0000E+00 -0.2674E+12
   -2.406264    4.01193  0.2142E-11  0.8441E-08  0.8879E-12  0.2891E-04  0.0000E+00 -0.3097E+12
   -2.475012    4.01269  0.2142E-11  0.8403E-08  0.1003E-11  0.2393E-04  0.0000E+00 -0.3875E+12
   -2.543759    4.01361  0.2142E-11  0.8215E-08  0.1209E-11  0.1735E-04  0.0000E+00 -0.5592E+12
   -2.612506    4.01489  0.2142E-11  0.7697E-08  0.1711E-11  0.9167E-05  0.0000E+00 -0.1139E+13
   -2.681253    4.01733  0.2142E-11  0.5490E-08  0.4793E-11  0.1171E-05  0.0000E+00 -0.1153E+14
   -2.749998    4.03565  0.2142E-11  0.0000E+00  0.0000E+00  0.0000E+00  0.0000E+00  0.0000E+00
