 1 - depth, m
 2 - temperature, C
 3 - salinity, kg/kg
 4 - turbulent kinetic energy, m**2/s**2
 5 - dissipation rate, m**2/s**3
 6 - kinematic heat conductance, m**2/s
 7 - modulus of horizontal velocity, m/s
 8 - Richardson number, n/d
   -0.000000   -0.00000  0.1000E-11  0.1219E-13  0.7603E-17  0.1000E-09  0.0000E+00  0.6755E+16
   -0.068746    0.10275  0.5701E-11  0.1219E-13  0.7603E-17  0.1000E-09  0.0000E+00  0.6676E+16
   -0.137493    0.20722  0.9645E-11  0.1219E-13  0.7603E-17  0.1000E-09  0.0000E+00  0.6580E+16
   -0.206240    0.31329  0.1149E-10  0.1219E-13  0.7603E-17  0.1000E-09  0.0000E+00  0.6468E+16
   -0.274988    0.42083  0.1171E-10  0.1219E-13  0.7603E-17  0.1000E-09  0.0000E+00  0.6342E+16
   -0.343736    0.52973  0.1113E-10  0.1219E-13  0.7603E-17  0.1000E-09  0.0000E+00  0.6202E+16
   -0.412485    0.63985  0.1036E-10  0.1219E-13  0.7603E-17  0.1000E-09  0.0000E+00  0.6049E+16
   -0.481234    0.75107  0.9691E-11  0.1219E-13  0.7603E-17  0.1000E-09  0.0000E+00  0.5883E+16
   -0.549984    0.86325  0.9231E-11  0.1219E-13  0.7603E-17  0.1000E-09  0.0000E+00  0.5706E+16
   -0.618734    0.97627  0.8954E-11  0.1219E-13  0.7603E-17  0.1000E-09  0.0000E+00  0.5519E+16
   -0.687485    1.08999  0.8806E-11  0.1219E-13  0.7603E-17  0.1000E-09  0.0000E+00  0.5323E+16
   -0.756236    1.20431  0.8733E-11  0.1219E-13  0.7603E-17  0.1000E-09  0.0000E+00  0.5120E+16
   -0.824987    1.31911  0.8699E-11  0.1219E-13  0.7603E-17  0.1000E-09  0.0000E+00  0.4911E+16
   -0.893739    1.43428  0.8682E-11  0.1219E-13  0.7603E-17  0.1000E-09  0.0000E+00  0.4696E+16
   -0.962490    1.54973  0.8673E-11  0.1219E-13  0.7603E-17  0.1000E-09  0.0000E+00  0.4477E+16
   -1.031242    1.66535  0.8664E-11  0.1219E-13  0.7603E-17  0.1000E-09  0.0000E+00  0.4254E+16
   -1.099995    1.78106  0.8654E-11  0.1219E-13  0.7603E-17  0.1000E-09  0.0000E+00  0.4030E+16
   -1.168747    1.89678  0.8640E-11  0.1219E-13  0.7603E-17  0.1000E-09  0.0000E+00  0.3803E+16
   -1.237499    2.01245  0.8622E-11  0.1219E-13  0.7603E-17  0.1000E-09  0.0000E+00  0.3577E+16
   -1.306252    2.12801  0.8600E-11  0.1219E-13  0.7603E-17  0.1000E-09  0.0000E+00  0.3350E+16
   -1.375004    2.24341  0.8577E-11  0.1219E-13  0.7603E-17  0.1000E-09  0.0000E+00  0.3125E+16
   -1.443757    2.35864  0.8552E-11  0.1219E-13  0.7603E-17  0.1000E-09  0.0000E+00  0.2901E+16
   -1.512509    2.47368  0.8528E-11  0.1219E-13  0.7603E-17  0.1000E-09  0.0000E+00  0.2679E+16
   -1.581262    2.58851  0.8506E-11  0.1219E-13  0.7603E-17  0.1000E-09  0.0000E+00  0.2458E+16
   -1.650014    2.70311  0.8487E-11  0.1219E-13  0.7603E-17  0.1000E-09  0.0000E+00  0.2240E+16
   -1.718766    2.81748  0.8472E-11  0.1219E-13  0.7603E-17  0.1000E-09  0.0000E+00  0.2022E+16
   -1.787518    2.93157  0.8460E-11  0.1219E-13  0.7603E-17  0.1000E-09  0.0000E+00  0.1786E+16
   -1.856270    3.04392  0.8450E-11  0.4530E-13  0.1157E-16  0.1000E-09  0.0000E+00  0.1554E+16
   -1.925021    3.15417  0.8442E-11  0.1584E-12  0.3426E-16  0.1000E-09  0.0000E+00  0.1329E+16
   -1.993773    3.26186  0.8435E-11  0.5123E-12  0.1056E-15  0.1000E-09  0.0000E+00  0.1118E+16
   -2.062524    3.36694  0.8430E-11  0.1577E-11  0.3139E-15  0.1000E-09  0.0000E+00  0.9382E+15
   -2.131274    3.47163  0.8426E-11  0.4761E-11  0.9171E-15  0.1000E-09  0.0000E+00  0.7629E+15
   -2.200024    3.57618  0.8423E-11  0.1418E-10  0.2646E-14  0.1000E-09  0.0000E+00  0.5890E+15
   -2.268774    3.68063  0.8422E-11  0.4212E-10  0.7610E-14  0.1009E-09  0.0000E+00  0.4161E+15
   -2.337524    3.78500  0.8421E-11  0.1260E-09  0.2207E-13  0.4585E-09  0.0000E+00  0.2438E+15
   -2.406272    3.88901  0.8420E-11  0.3767E-09  0.6403E-13  0.4336E-08  0.0000E+00  0.7410E+14
   -2.475021    3.99010  0.8420E-11  0.9400E-09  0.1584E-12  0.1967E-05  0.0000E+00 -0.7852E+12
   -2.543769    3.99707  0.8420E-11  0.1286E-08  0.2584E-12  0.2465E-05  0.0000E+00 -0.1166E+13
   -2.612516    4.00258  0.8420E-11  0.1446E-08  0.4163E-12  0.1770E-05  0.0000E+00 -0.2297E+13
   -2.681262    4.00993  0.8420E-11  0.1218E-08  0.9375E-12  0.4072E-06  0.0000E+00 -0.1331E+14
   -2.750008    4.03383  0.8420E-11  0.0000E+00  0.0000E+00  0.0000E+00  0.0000E+00  0.0000E+00
