 1 - depth, m
 2 - temperature, C
 3 - salinity, kg/kg
 4 - turbulent kinetic energy, m**2/s**2
 5 - dissipation rate, m**2/s**3
 6 - kinematic heat conductance, m**2/s
 7 - modulus of horizontal velocity, m/s
 8 - Richardson number, n/d
   -0.000000   -0.00000  0.1920E-11  0.1219E-13  0.7603E-17  0.1000E-09  0.0000E+00  0.6994E+16
   -0.068746    0.10644  0.6556E-11  0.1219E-13  0.7603E-17  0.1000E-09  0.0000E+00  0.6905E+16
   -0.137493    0.21466  0.8845E-11  0.1219E-13  0.7603E-17  0.1000E-09  0.0000E+00  0.6796E+16
   -0.206240    0.32452  0.9311E-11  0.1219E-13  0.7603E-17  0.1000E-09  0.0000E+00  0.6670E+16
   -0.274988    0.43584  0.8894E-11  0.1219E-13  0.7603E-17  0.1000E-09  0.0000E+00  0.6525E+16
   -0.343736    0.54844  0.8210E-11  0.1219E-13  0.7603E-17  0.1000E-09  0.0000E+00  0.6364E+16
   -0.412485    0.66216  0.7590E-11  0.1219E-13  0.7603E-17  0.1000E-09  0.0000E+00  0.6187E+16
   -0.481234    0.77682  0.7150E-11  0.1219E-13  0.7603E-17  0.1000E-09  0.0000E+00  0.5998E+16
   -0.549984    0.89223  0.6885E-11  0.1219E-13  0.7603E-17  0.1000E-09  0.0000E+00  0.5797E+16
   -0.618734    1.00826  0.6743E-11  0.1219E-13  0.7603E-17  0.1000E-09  0.0000E+00  0.5586E+16
   -0.687485    1.12473  0.6675E-11  0.1219E-13  0.7603E-17  0.1000E-09  0.0000E+00  0.5367E+16
   -0.756236    1.24155  0.6644E-11  0.1219E-13  0.7603E-17  0.1000E-09  0.0000E+00  0.5143E+16
   -0.824987    1.35859  0.6630E-11  0.1219E-13  0.7603E-17  0.1000E-09  0.0000E+00  0.4914E+16
   -0.893739    1.47574  0.6623E-11  0.1219E-13  0.7603E-17  0.1000E-09  0.0000E+00  0.4682E+16
   -0.962490    1.59291  0.6617E-11  0.1219E-13  0.7603E-17  0.1000E-09  0.0000E+00  0.4447E+16
   -1.031242    1.71000  0.6609E-11  0.1219E-13  0.7603E-17  0.1000E-09  0.0000E+00  0.4210E+16
   -1.099994    1.82694  0.6599E-11  0.1219E-13  0.7603E-17  0.1000E-09  0.0000E+00  0.3973E+16
   -1.168747    1.94366  0.6586E-11  0.1219E-13  0.7603E-17  0.1000E-09  0.0000E+00  0.3737E+16
   -1.237499    2.06011  0.6570E-11  0.1219E-13  0.7603E-17  0.1000E-09  0.0000E+00  0.3502E+16
   -1.306252    2.17625  0.6552E-11  0.1219E-13  0.7603E-17  0.1000E-09  0.0000E+00  0.3269E+16
   -1.375004    2.29204  0.6532E-11  0.1219E-13  0.7603E-17  0.1000E-09  0.0000E+00  0.3038E+16
   -1.443756    2.40750  0.6513E-11  0.1219E-13  0.7603E-17  0.1000E-09  0.0000E+00  0.2811E+16
   -1.512509    2.52261  0.6495E-11  0.1219E-13  0.7603E-17  0.1000E-09  0.0000E+00  0.2586E+16
   -1.581261    2.63738  0.6479E-11  0.1219E-13  0.7603E-17  0.1000E-09  0.0000E+00  0.2363E+16
   -1.650014    2.75180  0.6466E-11  0.1219E-13  0.7603E-17  0.1000E-09  0.0000E+00  0.2144E+16
   -1.718766    2.86588  0.6456E-11  0.1219E-13  0.7603E-17  0.1000E-09  0.0000E+00  0.1927E+16
   -1.787518    2.97959  0.6448E-11  0.3265E-13  0.9180E-17  0.1000E-09  0.0000E+00  0.1693E+16
   -1.856269    3.09156  0.6442E-11  0.1159E-12  0.2693E-16  0.1000E-09  0.0000E+00  0.1465E+16
   -1.925021    3.20145  0.6437E-11  0.3871E-12  0.8542E-16  0.1000E-09  0.0000E+00  0.1244E+16
   -1.993772    3.30880  0.6432E-11  0.1262E-11  0.2687E-15  0.1000E-09  0.0000E+00  0.1036E+16
   -2.062523    3.41352  0.6429E-11  0.3961E-11  0.8153E-15  0.1000E-09  0.0000E+00  0.8568E+15
   -2.131274    3.51769  0.6426E-11  0.1221E-10  0.2432E-14  0.1000E-09  0.0000E+00  0.6823E+15
   -2.200024    3.62154  0.6424E-11  0.3713E-10  0.7159E-14  0.1000E-09  0.0000E+00  0.5102E+15
   -2.268774    3.72508  0.6423E-11  0.1125E-09  0.2101E-13  0.3133E-09  0.0000E+00  0.3397E+15
   -2.337523    3.82813  0.6423E-11  0.3431E-09  0.6210E-13  0.1830E-08  0.0000E+00  0.1712E+15
   -2.406272    3.92977  0.6423E-11  0.1025E-08  0.1805E-12  0.4114E-07  0.0000E+00  0.2101E+14
   -2.475020    4.00904  0.6423E-11  0.2104E-08  0.3755E-12  0.5376E-05  0.0000E+00 -0.9839E+12
   -2.543768    4.01166  0.6423E-11  0.2449E-08  0.4926E-12  0.4888E-05  0.0000E+00 -0.1190E+13
   -2.612515    4.01450  0.6423E-11  0.2485E-08  0.6831E-12  0.3092E-05  0.0000E+00 -0.2060E+13
   -2.681262    4.01883  0.6423E-11  0.1860E-08  0.1475E-11  0.5393E-06  0.0000E+00 -0.1269E+14
   -2.750008    4.03806  0.6423E-11  0.0000E+00  0.0000E+00  0.0000E+00  0.0000E+00  0.0000E+00
