 1 - depth, m
 2 - temperature, C
 3 - salinity, kg/kg
 4 - turbulent kinetic energy, m**2/s**2
 5 - dissipation rate, m**2/s**3
 6 - kinematic heat conductance, m**2/s
 7 - modulus of horizontal velocity, m/s
 8 - Richardson number, n/d
   -0.000000    0.03650  0.9311E-10  0.1392E-04  0.6658E-06  0.2913E-04  0.3910E-01  0.3386E-01
   -0.068746    0.08907  0.9312E-10  0.1228E-04  0.2367E-06  0.6034E-04  0.2977E-01  0.2721E-01
   -0.137492    0.10390  0.9312E-10  0.1118E-04  0.1369E-06  0.8152E-04  0.2594E-01  0.5016E-01
   -0.206239    0.11339  0.9312E-10  0.1022E-04  0.9364E-07  0.9493E-04  0.2338E-01  0.6837E-01
   -0.274987    0.12111  0.9312E-10  0.9341E-05  0.6954E-07  0.1024E-03  0.2142E-01  0.8706E-01
   -0.343735    0.12788  0.9312E-10  0.8518E-05  0.5413E-07  0.1053E-03  0.1980E-01  0.1064E+00
   -0.412484    0.13411  0.9312E-10  0.7743E-05  0.4339E-07  0.1044E-03  0.1841E-01  0.1266E+00
   -0.481233    0.14006  0.9312E-10  0.7008E-05  0.3546E-07  0.1007E-03  0.1717E-01  0.1481E+00
   -0.549983    0.14589  0.9312E-10  0.6311E-05  0.2936E-07  0.9483E-04  0.1603E-01  0.1710E+00
   -0.618733    0.15172  0.9312E-10  0.5647E-05  0.2451E-07  0.8728E-04  0.1498E-01  0.1959E+00
   -0.687484    0.15767  0.9312E-10  0.5015E-05  0.2056E-07  0.7855E-04  0.1399E-01  0.2231E+00
   -0.756234    0.16386  0.9312E-10  0.4414E-05  0.1728E-07  0.6906E-04  0.1305E-01  0.2534E+00
   -0.824985    0.17043  0.9312E-10  0.3842E-05  0.1451E-07  0.5919E-04  0.1213E-01  0.2875E+00
   -0.893737    0.17753  0.9312E-10  0.3300E-05  0.1215E-07  0.4928E-04  0.1123E-01  0.3267E+00
   -0.962489    0.18543  0.9312E-10  0.2788E-05  0.1010E-07  0.3969E-04  0.1033E-01  0.3728E+00
   -1.031240    0.19450  0.9313E-10  0.2307E-05  0.8307E-08  0.3078E-04  0.9422E-02  0.4282E+00
   -1.099992    0.20544  0.9313E-10  0.1858E-05  0.6729E-08  0.2293E-04  0.8473E-02  0.4961E+00
   -1.168745    0.21986  0.9313E-10  0.1442E-05  0.5309E-08  0.1658E-04  0.7440E-02  0.5752E+00
   -1.237497    0.24350  0.9313E-10  0.1053E-05  0.3901E-08  0.1249E-04  0.6203E-02  0.7777E+00
   -1.306249    0.31974  0.9314E-10  0.8154E-06  0.2870E-08  0.1066E-04  0.4447E-02  0.1933E+01
   -1.375001    0.42835  0.9315E-10  0.6991E-06  0.2389E-08  0.9459E-05  0.3063E-02  0.5507E+01
   -1.443754    0.49684  0.9315E-10  0.6156E-06  0.2057E-08  0.8571E-05  0.2230E-02  0.2016E+02
   -1.512506    0.54587  0.9316E-10  0.5523E-06  0.1816E-08  0.7924E-05  0.1668E-02  0.9724E+02
   -1.581258    0.59027  0.9316E-10  0.5046E-06  0.1650E-08  0.7426E-05  0.1244E-02  0.6497E+03
   -1.650011    0.64315  0.9316E-10  0.4663E-06  0.1537E-08  0.6846E-05  0.8936E-03  0.4957E+04
   -1.718763    0.72852  0.9316E-10  0.4181E-06  0.1407E-08  0.4546E-05  0.5715E-03  0.4922E+05
   -1.787514    0.88554  0.9316E-10  0.2916E-06  0.8989E-09  0.4845E-05  0.2446E-03  0.6705E+07
   -1.856266    0.98413  0.9316E-10  0.1992E-06  0.5663E-09  0.3520E-05  0.1334E-03  0.9170E+09
   -1.925017    1.04222  0.9316E-10  0.1305E-06  0.3424E-09  0.2408E-05  0.7362E-04  0.1023E+11
   -1.993769    1.05031  0.9316E-10  0.8268E-07  0.2004E-09  0.1596E-05  0.4172E-04 -0.7958E+14
   -2.062519    1.00621  0.9316E-10  0.4891E-07  0.1117E-09  0.7505E-06  0.2507E-04  0.6049E+15
   -2.131270    1.02849  0.9316E-10  0.2499E-07  0.5491E-10  0.2573E-06  0.1317E-04  0.3673E+16
   -2.200020    1.11981  0.9316E-10  0.8459E-08  0.1891E-10  0.2523E-07  0.5503E-05  0.7567E+16
   -2.268770    1.31260  0.9317E-10  0.1220E-08  0.3579E-11  0.1546E-08  0.7166E-06  0.9778E+16
   -2.337519    1.58845  0.9317E-10  0.1082E-09  0.1197E-11  0.1953E-09  0.3474E-07  0.1122E+17
   -2.406268    1.94881  0.9317E-10  0.9136E-11  0.1001E-11  0.1036E-09  0.1262E-08  0.1186E+17
   -2.475016    2.41556  0.9318E-10  0.4419E-11  0.1000E-11  0.1000E-09  0.3721E-10  0.1056E+17
   -2.543764    2.99762  0.9318E-10  0.4419E-11  0.1000E-11  0.1000E-09  0.9026E-12  0.6864E+16
   -2.612511    3.66521  0.9318E-10  0.4419E-11  0.1000E-11  0.1000E-09  0.1596E-13 -0.2343E+16
   -2.681257    4.52926  0.9318E-10  0.4419E-11  0.1000E-11  0.1000E-09  0.1804E-15 -0.3810E+16
   -2.750003    4.85643  0.9318E-10  0.0000E+00  0.0000E+00  0.0000E+00  0.3072E-15  0.0000E+00
