 1 - depth, m
 2 - temperature, C
 3 - salinity, kg/kg
 4 - turbulent kinetic energy, m**2/s**2
 5 - dissipation rate, m**2/s**3
 6 - kinematic heat conductance, m**2/s
 7 - modulus of horizontal velocity, m/s
 8 - Richardson number, n/d
   -0.000000   -0.00000  0.6582E-11  0.2113E-05  0.3386E-07  0.1194E-04  0.1239E-01  0.2604E-01
   -0.068745    0.00726  0.6575E-11  0.1825E-05  0.1383E-07  0.2039E-04  0.8903E-02  0.5400E-01
   -0.137490    0.01095  0.6571E-11  0.1547E-05  0.7878E-08  0.2437E-04  0.7206E-02  0.8333E-01
   -0.206236    0.01360  0.6568E-11  0.1298E-05  0.5063E-08  0.2538E-04  0.6055E-02  0.1143E+00
   -0.274983    0.01579  0.6565E-11  0.1077E-05  0.3444E-08  0.2447E-04  0.5169E-02  0.1481E+00
   -0.343730    0.01774  0.6563E-11  0.8817E-06  0.2409E-08  0.2235E-04  0.4439E-02  0.1859E+00
   -0.412478    0.01956  0.6560E-11  0.7098E-06  0.1704E-08  0.1953E-04  0.3811E-02  0.2299E+00
   -0.481226    0.02135  0.6558E-11  0.5596E-06  0.1204E-08  0.1640E-04  0.3254E-02  0.2837E+00
   -0.549974    0.02321  0.6555E-11  0.4298E-06  0.8421E-09  0.1326E-04  0.2748E-02  0.3563E+00
   -0.618723    0.02531  0.6552E-11  0.3206E-06  0.5774E-09  0.1039E-04  0.2275E-02  0.5038E+00
   -0.687473    0.02813  0.6547E-11  0.2344E-06  0.3898E-09  0.7988E-05  0.1825E-02  0.1040E+01
   -0.756222    0.03199  0.6540E-11  0.1703E-06  0.2627E-09  0.6063E-05  0.1422E-02  0.2824E+01
   -0.824972    0.03601  0.6531E-11  0.1230E-06  0.1771E-09  0.4506E-05  0.1093E-02  0.7936E+01
   -0.893723    0.03939  0.6523E-11  0.8728E-07  0.1181E-09  0.3244E-05  0.8382E-03  0.2286E+02
   -0.962473    0.04212  0.6516E-11  0.6017E-07  0.7690E-10  0.2238E-05  0.6410E-03  0.7068E+02
   -1.031224    0.04441  0.6511E-11  0.3985E-07  0.4836E-10  0.1461E-05  0.4863E-03  0.2429E+03
   -1.099975    0.04643  0.6505E-11  0.2496E-07  0.2894E-10  0.8861E-06  0.3637E-03  0.9760E+03
   -1.168726    0.04831  0.6500E-11  0.1446E-07  0.1611E-10  0.4863E-06  0.2661E-03  0.5077E+04
   -1.237477    0.05020  0.6495E-11  0.7474E-08  0.8053E-11  0.2320E-06  0.1888E-03  0.3709E+05
   -1.306229    0.05240  0.6490E-11  0.3262E-08  0.3415E-11  0.9190E-07  0.1284E-03  0.3500E+06
   -1.374980    0.05554  0.6486E-11  0.1076E-08  0.1094E-11  0.2250E-07  0.8276E-04  0.4066E+07
   -1.443731    0.06245  0.6481E-11  0.3094E-09  0.2403E-12  0.2816E-08  0.4946E-04  0.4093E+08
   -1.512482    0.07756  0.6475E-11  0.3179E-09  0.8273E-13  0.4088E-09  0.2764E-04  0.3651E+09
   -1.581234    0.10890  0.6467E-11  0.7821E-09  0.1199E-12  0.2525E-09  0.1489E-04  0.2841E+10
   -1.649985    0.16975  0.6458E-11  0.1954E-08  0.2607E-12  0.2691E-09  0.7433E-05  0.1615E+11
   -1.718736    0.27846  0.6449E-11  0.4598E-08  0.5785E-12  0.3449E-09  0.2598E-05  0.1097E+12
   -1.787486    0.44882  0.6445E-11  0.1061E-07  0.1279E-11  0.1240E-08  0.1728E-06  0.1661E+14
   -1.856237    0.55820  0.6442E-11  0.2389E-07  0.2767E-11  0.6871E-08  0.1063E-07  0.9208E+15
   -1.924987    0.61403  0.6440E-11  0.2747E-07  0.3165E-11  0.5448E-04  0.3293E-09  0.4944E+15
   -1.993737    0.62356  0.6440E-11  0.2786E-07  0.3214E-11  0.1467E-03  0.2592E-09  0.1238E+15
   -2.062487    0.62593  0.6440E-11  0.2744E-07  0.3166E-11  0.9843E-08  0.2454E-09  0.3046E+16
   -2.131236    0.69248  0.6440E-11  0.1301E-07  0.1573E-11  0.9642E-09  0.2006E-10  0.8762E+16
   -2.199985    0.88204  0.6436E-11  0.5830E-08  0.7717E-12  0.2708E-09  0.1393E-11  0.1677E+17
   -2.268734    1.23330  0.6432E-11  0.2431E-08  0.4514E-12  0.1319E-09  0.6591E-13  0.2134E+17
   -2.337482    1.76179  0.6425E-11  0.1338E-08  0.6866E-12  0.1634E-09  0.2556E-14  0.2206E+17
   -2.406230    2.50135  0.6418E-11  0.4771E-08  0.3472E-11  0.1441E-08  0.8462E-16  0.1535E+17
   -2.474977    3.48805  0.6397E-11  0.2285E-07  0.1861E-10  0.3756E-05  0.2334E-17  0.2524E+16
   -2.543723    4.17774  0.6386E-11  0.4884E-07  0.4304E-10  0.2320E-04  0.4765E-19 -0.2200E+14
   -2.612469    4.18574  0.6386E-11  0.5336E-07  0.5814E-10  0.1765E-04  0.7117E-20 -0.3178E+14
   -2.681215    4.19684  0.6386E-11  0.4476E-07  0.1307E-09  0.3977E-05  0.6622E-21 -0.1863E+15
   -2.749960    4.25042  0.6386E-11  0.0000E+00  0.0000E+00  0.0000E+00  0.6788E-21  0.0000E+00
