 1 - depth, m
 2 - temperature, C
 3 - salinity, kg/kg
 4 - turbulent kinetic energy, m**2/s**2
 5 - dissipation rate, m**2/s**3
 6 - kinematic heat conductance, m**2/s
 7 - modulus of horizontal velocity, m/s
 8 - Richardson number, n/d
   -0.000000   -0.00000  0.1839E-09  0.1219E-13  0.7603E-17  0.1000E-09  0.6582E-73  0.3327E+16
   -0.068746    0.05024  0.1113E-09  0.1219E-13  0.7603E-17  0.1000E-09  0.6174E-73  0.3026E+16
   -0.137492    0.09655  0.9798E-10  0.1219E-13  0.7603E-17  0.1000E-09  0.5475E-73  0.2705E+16
   -0.206239    0.13844  0.9584E-10  0.1219E-13  0.7603E-17  0.1000E-09  0.4684E-73  0.2376E+16
   -0.274987    0.17565  0.9553E-10  0.1219E-13  0.7603E-17  0.1000E-09  0.3929E-73  0.2056E+16
   -0.343735    0.20816  0.9550E-10  0.1219E-13  0.7603E-17  0.1000E-09  0.3264E-73  0.1757E+16
   -0.412483    0.23618  0.9549E-10  0.1219E-13  0.7603E-17  0.1000E-09  0.2697E-73  0.1493E+16
   -0.481233    0.26016  0.9549E-10  0.1219E-13  0.7603E-17  0.1000E-09  0.2219E-73  0.1273E+16
   -0.549982    0.28073  0.9549E-10  0.1219E-13  0.7603E-17  0.1000E-09  0.1817E-73  0.1106E+16
   -0.618732    0.29872  0.9549E-10  0.1219E-13  0.7603E-17  0.1000E-09  0.1479E-73  0.1000E+16
   -0.687482    0.31506  0.9549E-10  0.1219E-13  0.7603E-17  0.1000E-09  0.1197E-73  0.9758E+15
   -0.756233    0.33108  0.9549E-10  0.1219E-13  0.7603E-17  0.1000E-09  0.9614E-74  0.1032E+16
   -0.824984    0.34810  0.9549E-10  0.1219E-13  0.7603E-17  0.1000E-09  0.7671E-74  0.1163E+16
   -0.893735    0.36739  0.9549E-10  0.1219E-13  0.7603E-17  0.1000E-09  0.6081E-74  0.1373E+16
   -0.962487    0.39029  0.9549E-10  0.1219E-13  0.7603E-17  0.1000E-09  0.4787E-74  0.1661E+16
   -1.031239    0.41822  0.9549E-10  0.1219E-13  0.7603E-17  0.1000E-09  0.3744E-74  0.2028E+16
   -1.099991    0.45262  0.9549E-10  0.1219E-13  0.7603E-17  0.1000E-09  0.2908E-74  0.2468E+16
   -1.168743    0.49498  0.9549E-10  0.1219E-13  0.7603E-17  0.1000E-09  0.2242E-74  0.2973E+16
   -1.237495    0.54674  0.9548E-10  0.1219E-13  0.7603E-17  0.1000E-09  0.1715E-74  0.3531E+16
   -1.306247    0.60930  0.9544E-10  0.1219E-13  0.7603E-17  0.1000E-09  0.1298E-74  0.4124E+16
   -1.374999    0.68396  0.9530E-10  0.1219E-13  0.7603E-17  0.1000E-09  0.9704E-75  0.4773E+16
   -1.443752    0.77266  0.9490E-10  0.1219E-13  0.7603E-17  0.1000E-09  0.7116E-75  0.5419E+16
   -1.512504    0.87659  0.9422E-10  0.1219E-13  0.7603E-17  0.1000E-09  0.5057E-75  0.6011E+16
   -1.581256    0.99634  0.9377E-10  0.1219E-13  0.7603E-17  0.1000E-09  0.3391E-75  0.6518E+16
   -1.650008    1.13214  0.9362E-10  0.1219E-13  0.7603E-17  0.1000E-09  0.1998E-75  0.6907E+16
   -1.718760    1.28386  0.9355E-10  0.1219E-13  0.7603E-17  0.1000E-09  0.7709E-76  0.7134E+16
   -1.787512    1.45053  0.9351E-10  0.1219E-13  0.7603E-17  0.1000E-09  0.5223E-77  0.6858E+16
   -1.856263    1.62232  0.9347E-10  0.1219E-13  0.7603E-17  0.1000E-09  0.3259E-78  0.6483E+16
   -1.925014    1.79757  0.9346E-10  0.1219E-13  0.7603E-17  0.1000E-09  0.1858E-79  0.6013E+16
   -1.993765    1.97427  0.9346E-10  0.1219E-13  0.7603E-17  0.1000E-09  0.1153E-80  0.5529E+16
   -2.062516    2.15221  0.9345E-10  0.1219E-13  0.7603E-17  0.1000E-09  0.9301E-82  0.5254E+16
   -2.131266    2.33962  0.9341E-10  0.1219E-13  0.7603E-17  0.1000E-09  0.7021E-83  0.4893E+16
   -2.200016    2.53640  0.9333E-10  0.1219E-13  0.7603E-17  0.1000E-09  0.4925E-84  0.4418E+16
   -2.268766    2.74124  0.9324E-10  0.1219E-13  0.9799E-17  0.1000E-09  0.2358E-85  0.3859E+16
   -2.337515    2.95365  0.9308E-10  0.4687E-13  0.6273E-16  0.1000E-09  0.9247E-87  0.3218E+16
   -2.406264    3.17297  0.9283E-10  0.5172E-12  0.6702E-15  0.1000E-09  0.3092E-88  0.2505E+16
   -2.475012    3.39869  0.9263E-10  0.5778E-11  0.7191E-14  0.1000E-09  0.8600E-90  0.1732E+16
   -2.543759    3.63159  0.9260E-10  0.6389E-10  0.7674E-13  0.4089E-09  0.1993E-91  0.8906E+15
   -2.612506    3.87424  0.9260E-10  0.7092E-09  0.8357E-12  0.4577E-07  0.3419E-93  0.3489E+14
   -2.681253    4.07665  0.9260E-10  0.5858E-08  0.9242E-11  0.1250E-05  0.3874E-95 -0.6725E+14
   -2.749999    4.11577  0.9260E-10  0.0000E+00  0.0000E+00  0.0000E+00  0.4183E-95  0.0000E+00
