 1 - depth, m
 2 - temperature, C
 3 - salinity, kg/kg
 4 - turbulent kinetic energy, m**2/s**2
 5 - dissipation rate, m**2/s**3
 6 - kinematic heat conductance, m**2/s
 7 - modulus of horizontal velocity, m/s
 8 - Richardson number, n/d
   -0.000000   16.18471  0.1966E-10  0.1075E-04  0.3967E-06  0.2995E-04  0.2181E-01 -0.2399E-01
   -0.068746   16.19571  0.1966E-10  0.1026E-04  0.1480E-06  0.7691E-04  0.1426E-01 -0.5630E-01
   -0.137492   16.19916  0.1966E-10  0.9871E-05  0.8666E-07  0.1277E-03  0.1137E-01 -0.8831E-01
   -0.206239   16.20087  0.1966E-10  0.9566E-05  0.5961E-07  0.1864E-03  0.9648E-02 -0.9497E-01
   -0.274987   16.20187  0.1966E-10  0.9334E-05  0.4474E-07  0.2836E-03  0.8463E-02  0.3390E+02
   -0.343735   16.20248  0.1966E-10  0.9172E-05  0.3554E-07  0.3622E-03  0.7596E-02  0.1586E+01
   -0.412484   16.20291  0.1966E-10  0.9073E-05  0.2941E-07  0.4413E-03  0.6920E-02  0.7369E+01
   -0.481233   16.20325  0.1966E-10  0.9029E-05  0.2513E-07  0.5404E-03  0.6374E-02  0.4737E+01
   -0.549983   16.20352  0.1966E-10  0.9031E-05  0.2212E-07  0.7172E-03  0.5925E-02  0.5415E+02
   -0.618733   16.20373  0.1966E-10  0.9074E-05  0.1997E-07  0.8864E-03  0.5555E-02  0.1362E+02
   -0.687483   16.20390  0.1966E-10  0.9149E-05  0.1837E-07  0.1060E-02  0.5237E-02  0.3078E+02
   -0.756234   16.20407  0.1966E-10  0.9248E-05  0.1716E-07  0.1374E-02  0.4953E-02  0.8846E+02
   -0.824985   16.20421  0.1966E-10  0.9369E-05  0.1623E-07  0.1527E-02  0.4699E-02  0.4335E+01
   -0.893737   16.20435  0.1966E-10  0.9512E-05  0.1548E-07  0.1534E-02  0.4451E-02  0.4899E+01
   -0.962488   16.20451  0.1966E-10  0.9671E-05  0.1489E-07  0.1562E-02  0.4205E-02  0.5501E+01
   -1.031240   16.20467  0.1966E-10  0.9841E-05  0.1444E-07  0.1584E-02  0.3962E-02  0.6118E+01
   -1.099992   16.20485  0.1966E-10  0.1002E-04  0.1410E-07  0.1609E-02  0.3721E-02  0.6754E+01
   -1.168744   16.20503  0.1966E-10  0.1020E-04  0.1386E-07  0.1633E-02  0.3480E-02  0.7375E+01
   -1.237496   16.20524  0.1966E-10  0.1037E-04  0.1371E-07  0.1657E-02  0.3239E-02  0.7986E+01
   -1.306249   16.20545  0.1966E-10  0.1053E-04  0.1364E-07  0.1678E-02  0.2997E-02  0.8581E+01
   -1.375001   16.20568  0.1966E-10  0.1067E-04  0.1364E-07  0.1694E-02  0.2755E-02  0.9206E+01
   -1.443753   16.20593  0.1966E-10  0.1078E-04  0.1371E-07  0.1703E-02  0.2512E-02  0.9916E+01
   -1.512506   16.20620  0.1966E-10  0.1086E-04  0.1383E-07  0.1703E-02  0.2268E-02  0.1087E+02
   -1.581258   16.20648  0.1966E-10  0.1090E-04  0.1400E-07  0.1691E-02  0.2023E-02  0.1230E+02
   -1.650010   16.20679  0.1966E-10  0.1090E-04  0.1422E-07  0.1670E-02  0.1777E-02  0.1484E+02
   -1.718762   16.20712  0.1966E-10  0.1084E-04  0.1448E-07  0.1640E-02  0.1531E-02  0.1729E+02
   -1.787514   16.20747  0.1966E-10  0.1071E-04  0.1477E-07  0.1680E-02  0.1285E-02  0.4991E+01
   -1.856265   16.20783  0.1966E-10  0.1055E-04  0.1512E-07  0.1766E-02  0.1083E-02  0.2867E+01
   -1.925017   16.20817  0.1966E-10  0.1037E-04  0.1555E-07  0.1842E-02  0.9204E-03  0.2002E+01
   -1.993768   16.20850  0.1966E-10  0.1017E-04  0.1609E-07  0.1825E-02  0.7915E-03  0.1586E+01
   -2.062519   16.20885  0.1966E-10  0.9979E-05  0.1674E-07  0.1754E-02  0.6881E-03  0.1383E+01
   -2.131269   16.20922  0.1966E-10  0.9790E-05  0.1750E-07  0.1650E-02  0.6007E-03  0.1216E+01
   -2.200019   16.20962  0.1966E-10  0.9607E-05  0.1840E-07  0.1522E-02  0.5259E-03  0.1081E+01
   -2.268769   16.21008  0.1966E-10  0.9428E-05  0.1950E-07  0.1397E-02  0.4621E-03  0.1083E+01
   -2.337518   16.21059  0.1966E-10  0.9238E-05  0.2097E-07  0.1264E-02  0.4079E-03  0.1364E+01
   -2.406267   16.21117  0.1966E-10  0.9016E-05  0.2314E-07  0.1122E-02  0.3598E-03  0.2150E+01
   -2.475015   16.21184  0.1966E-10  0.8726E-05  0.2677E-07  0.8979E-03  0.3143E-03  0.4151E+01
   -2.543763   16.21271  0.1966E-10  0.8317E-05  0.3363E-07  0.8200E-03  0.2667E-03  0.8571E+01
   -2.612510   16.21367  0.1966E-10  0.7483E-05  0.5625E-07  0.3520E-03  0.2246E-03 -0.3030E+02
   -2.681256   16.21793  0.1966E-10  0.4689E-05  0.1882E-06  0.9733E-04  0.1434E-03 -0.1342E+04
   -2.750002   16.22686  0.1966E-10  0.0000E+00  0.0000E+00  0.0000E+00  0.1635E-03  0.0000E+00
