 1 - depth, m
 2 - temperature, C
 3 - salinity, kg/kg
 4 - turbulent kinetic energy, m**2/s**2
 5 - dissipation rate, m**2/s**3
 6 - kinematic heat conductance, m**2/s
 7 - modulus of horizontal velocity, m/s
 8 - Richardson number, n/d
   -0.000000   -0.00000  0.4524E-18  0.1219E-13  0.7603E-17  0.1000E-09  0.0000E+00  0.4651E+16
   -0.068746    0.07044  0.3132E-20  0.1219E-13  0.7603E-17  0.1000E-09  0.0000E+00  0.4771E+16
   -0.137493    0.14413  0.3484E-13  0.1219E-13  0.7603E-17  0.1000E-09  0.0000E+00  0.4895E+16
   -0.206241    0.22134  0.2189E-12  0.1219E-13  0.7603E-17  0.1000E-09  0.0000E+00  0.5017E+16
   -0.274989    0.30226  0.4894E-12  0.1219E-13  0.7603E-17  0.1000E-09  0.0000E+00  0.5132E+16
   -0.343738    0.38702  0.7352E-12  0.1219E-13  0.7603E-17  0.1000E-09  0.0000E+00  0.5231E+16
   -0.412487    0.47567  0.8903E-12  0.1219E-13  0.7603E-17  0.1000E-09  0.0000E+00  0.5308E+16
   -0.481237    0.56811  0.9492E-12  0.1219E-13  0.7603E-17  0.1000E-09  0.0000E+00  0.5359E+16
   -0.549987    0.66419  0.9412E-12  0.1219E-13  0.7603E-17  0.1000E-09  0.0000E+00  0.5378E+16
   -0.618737    0.76368  0.9015E-12  0.1219E-13  0.7603E-17  0.1000E-09  0.0000E+00  0.5366E+16
   -0.687488    0.86627  0.8559E-12  0.1219E-13  0.7603E-17  0.1000E-09  0.0000E+00  0.5318E+16
   -0.756240    0.97157  0.8178E-12  0.1219E-13  0.7603E-17  0.1000E-09  0.0000E+00  0.5239E+16
   -0.824991    1.07923  0.7908E-12  0.1219E-13  0.7603E-17  0.1000E-09  0.0000E+00  0.5134E+16
   -0.893743    1.18895  0.7739E-12  0.1219E-13  0.7603E-17  0.1000E-09  0.0000E+00  0.5008E+16
   -0.962495    1.30049  0.7643E-12  0.1219E-13  0.7603E-17  0.1000E-09  0.0000E+00  0.4863E+16
   -1.031248    1.41366  0.7591E-12  0.1219E-13  0.7603E-17  0.1000E-09  0.0000E+00  0.4704E+16
   -1.100000    1.52830  0.7564E-12  0.1219E-13  0.7603E-17  0.1000E-09  0.0000E+00  0.4533E+16
   -1.168753    1.64429  0.7549E-12  0.1219E-13  0.7603E-17  0.1000E-09  0.0000E+00  0.4353E+16
   -1.237505    1.76159  0.7538E-12  0.1219E-13  0.7603E-17  0.1000E-09  0.0000E+00  0.4166E+16
   -1.306258    1.88020  0.7527E-12  0.1219E-13  0.7603E-17  0.1000E-09  0.0000E+00  0.3973E+16
   -1.375011    2.00015  0.7514E-12  0.1219E-13  0.7603E-17  0.1000E-09  0.0000E+00  0.3778E+16
   -1.443764    2.12159  0.7499E-12  0.1219E-13  0.7603E-17  0.1000E-09  0.0000E+00  0.3578E+16
   -1.512517    2.24464  0.7481E-12  0.1219E-13  0.7603E-17  0.1000E-09  0.0000E+00  0.3372E+16
   -1.581269    2.36944  0.7460E-12  0.1219E-13  0.7603E-17  0.1000E-09  0.0000E+00  0.3161E+16
   -1.650022    2.49615  0.7439E-12  0.1219E-13  0.7603E-17  0.1000E-09  0.0000E+00  0.2942E+16
   -1.718774    2.62492  0.7419E-12  0.1219E-13  0.7603E-17  0.1000E-09  0.0000E+00  0.2710E+16
   -1.787527    2.75567  0.7400E-12  0.1219E-13  0.7603E-17  0.1000E-09  0.0000E+00  0.2381E+16
   -1.856279    2.88354  0.7383E-12  0.1219E-13  0.7603E-17  0.1000E-09  0.0000E+00  0.2056E+16
   -1.925031    3.00757  0.7369E-12  0.2420E-13  0.8697E-17  0.1000E-09  0.0000E+00  0.1737E+16
   -1.993782    3.12645  0.7357E-12  0.9597E-13  0.2955E-16  0.1000E-09  0.0000E+00  0.1449E+16
   -2.062534    3.24021  0.7347E-12  0.3665E-12  0.1077E-15  0.1000E-09  0.0000E+00  0.1246E+16
   -2.131285    3.35444  0.7339E-12  0.1364E-11  0.3860E-15  0.1000E-09  0.0000E+00  0.1047E+16
   -2.200035    3.46982  0.7333E-12  0.4986E-11  0.1360E-14  0.1000E-09  0.0000E+00  0.8430E+15
   -2.268785    3.58642  0.7329E-12  0.1810E-10  0.4766E-14  0.1000E-09  0.0000E+00  0.6309E+15
   -2.337535    3.70381  0.7326E-12  0.6596E-10  0.1677E-13  0.2047E-09  0.0000E+00  0.4140E+15
   -2.406284    3.82158  0.7324E-12  0.2394E-09  0.5885E-13  0.1516E-08  0.0000E+00  0.1949E+15
   -2.475033    3.93840  0.7323E-12  0.8449E-09  0.2020E-12  0.7372E-07  0.0000E+00  0.1156E+14
   -2.543781    4.01503  0.7323E-12  0.2111E-08  0.5254E-12  0.3919E-05  0.0000E+00 -0.1921E+13
   -2.612529    4.01902  0.7323E-12  0.2370E-08  0.7407E-12  0.2868E-05  0.0000E+00 -0.2799E+13
   -2.681276    4.02409  0.7323E-12  0.1773E-08  0.1424E-11  0.5115E-06  0.0000E+00 -0.1313E+14
   -2.750022    4.04204  0.7323E-12  0.0000E+00  0.0000E+00  0.0000E+00  0.0000E+00  0.0000E+00
