 1 - depth, m
 2 - temperature, C
 3 - salinity, kg/kg
 4 - turbulent kinetic energy, m**2/s**2
 5 - dissipation rate, m**2/s**3
 6 - kinematic heat conductance, m**2/s
 7 - modulus of horizontal velocity, m/s
 8 - Richardson number, n/d
   -0.000000   -0.00000  0.2929E-17  0.1218E-13  0.7603E-17  0.1000E-09  0.0000E+00  0.4031E+16
   -0.068747    0.06097  0.0000E+00  0.1218E-13  0.7603E-17  0.1000E-09  0.0000E+00  0.4476E+16
   -0.137495    0.12988  0.5468E-12  0.1218E-13  0.7603E-17  0.1000E-09  0.0000E+00  0.4844E+16
   -0.206243    0.20596  0.1873E-11  0.1218E-13  0.7603E-17  0.1000E-09  0.0000E+00  0.5121E+16
   -0.274992    0.28822  0.3310E-11  0.1218E-13  0.7603E-17  0.1000E-09  0.0000E+00  0.5313E+16
   -0.343742    0.37565  0.4336E-11  0.1218E-13  0.7603E-17  0.1000E-09  0.0000E+00  0.5432E+16
   -0.412492    0.46743  0.4807E-11  0.1218E-13  0.7603E-17  0.1000E-09  0.0000E+00  0.5492E+16
   -0.481242    0.56288  0.4847E-11  0.1218E-13  0.7603E-17  0.1000E-09  0.0000E+00  0.5506E+16
   -0.549993    0.66149  0.4659E-11  0.1218E-13  0.7603E-17  0.1000E-09  0.0000E+00  0.5483E+16
   -0.618744    0.76285  0.4409E-11  0.1218E-13  0.7603E-17  0.1000E-09  0.0000E+00  0.5428E+16
   -0.687496    0.86662  0.4187E-11  0.1218E-13  0.7603E-17  0.1000E-09  0.0000E+00  0.5342E+16
   -0.756248    0.97242  0.4027E-11  0.1218E-13  0.7603E-17  0.1000E-09  0.0000E+00  0.5229E+16
   -0.825001    1.07990  0.3924E-11  0.1218E-13  0.7603E-17  0.1000E-09  0.0000E+00  0.5097E+16
   -0.893753    1.18884  0.3865E-11  0.1218E-13  0.7603E-17  0.1000E-09  0.0000E+00  0.4948E+16
   -0.962506    1.29903  0.3834E-11  0.1218E-13  0.7603E-17  0.1000E-09  0.0000E+00  0.4786E+16
   -1.031259    1.41030  0.3818E-11  0.1218E-13  0.7603E-17  0.1000E-09  0.0000E+00  0.4613E+16
   -1.100013    1.52251  0.3810E-11  0.1218E-13  0.7603E-17  0.1000E-09  0.0000E+00  0.4432E+16
   -1.168766    1.63557  0.3804E-11  0.1218E-13  0.7603E-17  0.1000E-09  0.0000E+00  0.4244E+16
   -1.237520    1.74940  0.3799E-11  0.1218E-13  0.7603E-17  0.1000E-09  0.0000E+00  0.4052E+16
   -1.306273    1.86399  0.3794E-11  0.1218E-13  0.7603E-17  0.1000E-09  0.0000E+00  0.3856E+16
   -1.375027    1.97933  0.3787E-11  0.1218E-13  0.7603E-17  0.1000E-09  0.0000E+00  0.3662E+16
   -1.443780    2.09558  0.3778E-11  0.1218E-13  0.7603E-17  0.1000E-09  0.0000E+00  0.3468E+16
   -1.512534    2.21291  0.3768E-11  0.1218E-13  0.7603E-17  0.1000E-09  0.0000E+00  0.3276E+16
   -1.581288    2.33163  0.3758E-11  0.1218E-13  0.7603E-17  0.1000E-09  0.0000E+00  0.3090E+16
   -1.650041    2.45223  0.3748E-11  0.1218E-13  0.7603E-17  0.1000E-09  0.0000E+00  0.2910E+16
   -1.718794    2.57547  0.3738E-11  0.1218E-13  0.7603E-17  0.1000E-09  0.0000E+00  0.2732E+16
   -1.787547    2.70215  0.3729E-11  0.1218E-13  0.7603E-17  0.1000E-09  0.0000E+00  0.2415E+16
   -1.856300    2.82586  0.3722E-11  0.1218E-13  0.7603E-17  0.1000E-09  0.0000E+00  0.2103E+16
   -1.925053    2.94570  0.3716E-11  0.1218E-13  0.7603E-17  0.1000E-09  0.0000E+00  0.1790E+16
   -1.993805    3.06006  0.3711E-11  0.4355E-13  0.1469E-16  0.1000E-09  0.0000E+00  0.1507E+16
   -2.062557    3.16888  0.3706E-11  0.1737E-12  0.5270E-16  0.1000E-09  0.0000E+00  0.1327E+16
   -2.131309    3.27863  0.3703E-11  0.6603E-12  0.1919E-15  0.1000E-09  0.0000E+00  0.1152E+16
   -2.200061    3.39034  0.3700E-11  0.2452E-11  0.6860E-15  0.1000E-09  0.0000E+00  0.9742E+15
   -2.268811    3.50478  0.3698E-11  0.9029E-11  0.2434E-14  0.1000E-09  0.0000E+00  0.7807E+15
   -2.337562    3.62180  0.3696E-11  0.3334E-10  0.8668E-14  0.1000E-09  0.0000E+00  0.5769E+15
   -2.406312    3.74222  0.3695E-11  0.1226E-09  0.3076E-13  0.4378E-09  0.0000E+00  0.3574E+15
   -2.475061    3.86759  0.3694E-11  0.4502E-09  0.1092E-12  0.5044E-08  0.0000E+00  0.1098E+15
   -2.543810    3.99646  0.3694E-11  0.1336E-08  0.3215E-12  0.2293E-05  0.0000E+00 -0.1717E+13
   -2.612559    4.00443  0.3694E-11  0.1648E-08  0.5143E-12  0.2018E-05  0.0000E+00 -0.2807E+13
   -2.681307    4.01255  0.3694E-11  0.1324E-08  0.1031E-11  0.4214E-06  0.0000E+00 -0.1318E+14
   -2.750054    4.03502  0.3694E-11  0.0000E+00  0.0000E+00  0.0000E+00  0.0000E+00  0.0000E+00
