 1 - depth, m
 2 - temperature, C
 3 - salinity, kg/kg
 4 - turbulent kinetic energy, m**2/s**2
 5 - dissipation rate, m**2/s**3
 6 - kinematic heat conductance, m**2/s
 7 - modulus of horizontal velocity, m/s
 8 - Richardson number, n/d
   -0.000000   -0.00000  0.8469E-10  0.1219E-13  0.7603E-17  0.1000E-09  0.0000E+00  0.4200E+16
   -0.068746    0.06355  0.4576E-10  0.1219E-13  0.7603E-17  0.1000E-09  0.0000E+00  0.4017E+16
   -0.137492    0.12537  0.3620E-10  0.1219E-13  0.7603E-17  0.1000E-09  0.0000E+00  0.3872E+16
   -0.206239    0.18598  0.3417E-10  0.1219E-13  0.7603E-17  0.1000E-09  0.0000E+00  0.3763E+16
   -0.274986    0.24588  0.3380E-10  0.1219E-13  0.7603E-17  0.1000E-09  0.0000E+00  0.3688E+16
   -0.343734    0.30559  0.3374E-10  0.1219E-13  0.7603E-17  0.1000E-09  0.0000E+00  0.3645E+16
   -0.412483    0.36565  0.3373E-10  0.1219E-13  0.7603E-17  0.1000E-09  0.0000E+00  0.3635E+16
   -0.481232    0.42660  0.3373E-10  0.1219E-13  0.7603E-17  0.1000E-09  0.0000E+00  0.3654E+16
   -0.549982    0.48901  0.3373E-10  0.1219E-13  0.7603E-17  0.1000E-09  0.0000E+00  0.3701E+16
   -0.618732    0.55346  0.3373E-10  0.1219E-13  0.7603E-17  0.1000E-09  0.0000E+00  0.3775E+16
   -0.687482    0.62052  0.3373E-10  0.1219E-13  0.7603E-17  0.1000E-09  0.0000E+00  0.3887E+16
   -0.756232    0.69109  0.3373E-10  0.1219E-13  0.7603E-17  0.1000E-09  0.0000E+00  0.4027E+16
   -0.824983    0.76593  0.3373E-10  0.1219E-13  0.7603E-17  0.1000E-09  0.0000E+00  0.4180E+16
   -0.893735    0.84561  0.3373E-10  0.1219E-13  0.7603E-17  0.1000E-09  0.0000E+00  0.4342E+16
   -0.962486    0.93069  0.3373E-10  0.1219E-13  0.7603E-17  0.1000E-09  0.0000E+00  0.4505E+16
   -1.031238    1.02168  0.3372E-10  0.1219E-13  0.7603E-17  0.1000E-09  0.0000E+00  0.4663E+16
   -1.099990    1.11907  0.3371E-10  0.1219E-13  0.7603E-17  0.1000E-09  0.0000E+00  0.4809E+16
   -1.168742    1.22327  0.3367E-10  0.1219E-13  0.7603E-17  0.1000E-09  0.0000E+00  0.4934E+16
   -1.237494    1.33463  0.3356E-10  0.1219E-13  0.7603E-17  0.1000E-09  0.0000E+00  0.5031E+16
   -1.306246    1.45345  0.3338E-10  0.1219E-13  0.7603E-17  0.1000E-09  0.0000E+00  0.5091E+16
   -1.374998    1.57989  0.3314E-10  0.1219E-13  0.7603E-17  0.1000E-09  0.0000E+00  0.5123E+16
   -1.443750    1.71454  0.3296E-10  0.1219E-13  0.7603E-17  0.1000E-09  0.0000E+00  0.5106E+16
   -1.512502    1.85754  0.3287E-10  0.1569E-13  0.7603E-17  0.1000E-09  0.0000E+00  0.5026E+16
   -1.581255    2.00873  0.3281E-10  0.6732E-13  0.1617E-16  0.1000E-09  0.0000E+00  0.4877E+16
   -1.650006    2.16786  0.3277E-10  0.2212E-12  0.4767E-16  0.1000E-09  0.0000E+00  0.4658E+16
   -1.718758    2.33452  0.3274E-10  0.6764E-12  0.1398E-15  0.1000E-09  0.0000E+00  0.4363E+16
   -1.787510    2.50810  0.3273E-10  0.2074E-11  0.4139E-15  0.1000E-09  0.0000E+00  0.3966E+16
   -1.856261    2.68634  0.3272E-10  0.6340E-11  0.1224E-14  0.1000E-09  0.0000E+00  0.3522E+16
   -1.925013    2.86881  0.3272E-10  0.1919E-10  0.3586E-14  0.1000E-09  0.0000E+00  0.3038E+16
   -1.993764    3.05503  0.3271E-10  0.5756E-10  0.1041E-13  0.1000E-09  0.0000E+00  0.2518E+16
   -2.062514    3.24469  0.3270E-10  0.1669E-09  0.2925E-13  0.1000E-09  0.0000E+00  0.1973E+16
   -2.131265    3.43795  0.3268E-10  0.4760E-09  0.8087E-13  0.2953E-09  0.0000E+00  0.1393E+16
   -2.200015    3.63402  0.3264E-10  0.1341E-08  0.2209E-12  0.1428E-08  0.0000E+00  0.7862E+15
   -2.268764    3.83089  0.3260E-10  0.3731E-08  0.5969E-12  0.1636E-07  0.0000E+00  0.1848E+15
   -2.337513    4.01093  0.3259E-10  0.5535E-08  0.8947E-12  0.1445E-04  0.0000E+00 -0.7838E+12
   -2.406262    4.01288  0.3259E-10  0.6218E-08  0.1059E-11  0.1458E-04  0.0000E+00 -0.8513E+12
   -2.475010    4.01486  0.3259E-10  0.6690E-08  0.1266E-11  0.1336E-04  0.0000E+00 -0.1026E+13
   -2.543757    4.01706  0.3259E-10  0.6940E-08  0.1592E-11  0.1062E-04  0.0000E+00 -0.1455E+13
   -2.612504    4.01995  0.3259E-10  0.6853E-08  0.2325E-11  0.6290E-05  0.0000E+00 -0.2975E+13
   -2.681251    4.02519  0.3259E-10  0.5708E-08  0.6019E-11  0.1345E-05  0.0000E+00 -0.2424E+14
   -2.749996    4.05420  0.3259E-10  0.0000E+00  0.0000E+00  0.0000E+00  0.0000E+00  0.0000E+00
