 1 - depth, m
 2 - temperature, C
 3 - salinity, kg/kg
 4 - turbulent kinetic energy, m**2/s**2
 5 - dissipation rate, m**2/s**3
 6 - kinematic heat conductance, m**2/s
 7 - modulus of horizontal velocity, m/s
 8 - Richardson number, n/d
   -0.000000   -0.00000  0.2113E-17  0.1218E-13  0.7603E-17  0.1000E-09  0.0000E+00  0.4047E+16
   -0.068747    0.06121  0.1002E-17  0.1218E-13  0.7603E-17  0.1000E-09  0.0000E+00  0.4279E+16
   -0.137494    0.12705  0.0000E+00  0.1218E-13  0.7603E-17  0.1000E-09  0.0000E+00  0.4470E+16
   -0.206242    0.19713  0.1035E-11  0.1218E-13  0.7603E-17  0.1000E-09  0.0000E+00  0.4625E+16
   -0.274991    0.27114  0.3531E-11  0.1218E-13  0.7603E-17  0.1000E-09  0.0000E+00  0.4751E+16
   -0.343740    0.34883  0.6521E-11  0.1218E-13  0.7603E-17  0.1000E-09  0.0000E+00  0.4851E+16
   -0.412490    0.43002  0.8973E-11  0.1218E-13  0.7603E-17  0.1000E-09  0.0000E+00  0.4927E+16
   -0.481240    0.51455  0.1039E-10  0.1218E-13  0.7603E-17  0.1000E-09  0.0000E+00  0.4982E+16
   -0.549991    0.60229  0.1084E-10  0.1218E-13  0.7603E-17  0.1000E-09  0.0000E+00  0.5014E+16
   -0.618742    0.69309  0.1066E-10  0.1218E-13  0.7603E-17  0.1000E-09  0.0000E+00  0.5025E+16
   -0.687493    0.78684  0.1020E-10  0.1218E-13  0.7603E-17  0.1000E-09  0.0000E+00  0.5010E+16
   -0.756245    0.88326  0.9716E-11  0.1218E-13  0.7603E-17  0.1000E-09  0.0000E+00  0.4970E+16
   -0.824997    0.98214  0.9320E-11  0.1218E-13  0.7603E-17  0.1000E-09  0.0000E+00  0.4911E+16
   -0.893749    1.08331  0.9044E-11  0.1218E-13  0.7603E-17  0.1000E-09  0.0000E+00  0.4832E+16
   -0.962502    1.18662  0.8873E-11  0.1218E-13  0.7603E-17  0.1000E-09  0.0000E+00  0.4737E+16
   -1.031255    1.29193  0.8774E-11  0.1218E-13  0.7603E-17  0.1000E-09  0.0000E+00  0.4626E+16
   -1.100008    1.39909  0.8721E-11  0.1218E-13  0.7603E-17  0.1000E-09  0.0000E+00  0.4502E+16
   -1.168761    1.50802  0.8693E-11  0.1218E-13  0.7603E-17  0.1000E-09  0.0000E+00  0.4366E+16
   -1.237514    1.61863  0.8677E-11  0.1218E-13  0.7603E-17  0.1000E-09  0.0000E+00  0.4219E+16
   -1.306267    1.73090  0.8664E-11  0.1218E-13  0.7603E-17  0.1000E-09  0.0000E+00  0.4064E+16
   -1.375021    1.84480  0.8651E-11  0.1218E-13  0.7603E-17  0.1000E-09  0.0000E+00  0.3903E+16
   -1.443774    1.96043  0.8636E-11  0.1218E-13  0.7603E-17  0.1000E-09  0.0000E+00  0.3736E+16
   -1.512527    2.07789  0.8617E-11  0.1218E-13  0.7603E-17  0.1000E-09  0.0000E+00  0.3563E+16
   -1.581281    2.19734  0.8596E-11  0.1218E-13  0.7603E-17  0.1000E-09  0.0000E+00  0.3386E+16
   -1.650034    2.31900  0.8573E-11  0.1218E-13  0.7603E-17  0.1000E-09  0.0000E+00  0.3205E+16
   -1.718787    2.44323  0.8550E-11  0.1218E-13  0.7603E-17  0.1000E-09  0.0000E+00  0.3015E+16
   -1.787540    2.57028  0.8527E-11  0.1218E-13  0.7603E-17  0.1000E-09  0.0000E+00  0.2702E+16
   -1.856292    2.69497  0.8506E-11  0.1218E-13  0.7603E-17  0.1000E-09  0.0000E+00  0.2389E+16
   -1.925045    2.81651  0.8489E-11  0.1218E-13  0.7603E-17  0.1000E-09  0.0000E+00  0.2075E+16
   -1.993797    2.93364  0.8474E-11  0.1218E-13  0.7603E-17  0.1000E-09  0.0000E+00  0.1788E+16
   -2.062548    3.04642  0.8461E-11  0.1218E-13  0.7603E-17  0.1000E-09  0.0000E+00  0.1594E+16
   -2.131300    3.16003  0.8451E-11  0.1218E-13  0.7603E-17  0.1000E-09  0.0000E+00  0.1403E+16
   -2.200051    3.27515  0.8443E-11  0.4954E-13  0.2481E-16  0.1000E-09  0.0000E+00  0.1209E+16
   -2.268802    3.39214  0.8436E-11  0.2567E-12  0.1218E-15  0.1000E-09  0.0000E+00  0.1000E+16
   -2.337552    3.51050  0.8431E-11  0.1329E-11  0.6053E-15  0.1000E-09  0.0000E+00  0.7848E+15
   -2.406301    3.63014  0.8427E-11  0.6805E-11  0.2979E-14  0.1000E-09  0.0000E+00  0.5635E+15
   -2.475051    3.75124  0.8424E-11  0.3471E-10  0.1464E-13  0.2178E-09  0.0000E+00  0.3347E+15
   -2.543799    3.87382  0.8422E-11  0.1767E-09  0.7204E-13  0.3475E-08  0.0000E+00  0.9861E+14
   -2.612547    3.99539  0.8421E-11  0.8365E-09  0.3387E-12  0.8294E-06  0.0000E+00 -0.4821E+13
   -2.681295    4.01278  0.8421E-11  0.9228E-09  0.7572E-12  0.3305E-06  0.0000E+00 -0.1676E+14
   -2.750042    4.03962  0.8421E-11  0.0000E+00  0.0000E+00  0.0000E+00  0.0000E+00  0.0000E+00
