 1 - depth, m
 2 - temperature, C
 3 - salinity, kg/kg
 4 - turbulent kinetic energy, m**2/s**2
 5 - dissipation rate, m**2/s**3
 6 - kinematic heat conductance, m**2/s
 7 - modulus of horizontal velocity, m/s
 8 - Richardson number, n/d
   -0.000000   11.61578  0.5545E-10  0.1486E-04  0.6811E-06  0.3462E-04  0.2612E-01 -0.3454E-01
   -0.068746   11.65020  0.5545E-10  0.1413E-04  0.2399E-06  0.9704E-04  0.1694E-01 -0.9580E-01
   -0.137492   11.66188  0.5545E-10  0.1370E-04  0.1384E-06  0.1743E-03  0.1370E-01 -0.1634E+00
   -0.206239   11.66820  0.5545E-10  0.1343E-04  0.9565E-07  0.2918E-03  0.1188E-01  0.3474E+02
   -0.274987   11.67206  0.5545E-10  0.1327E-04  0.7313E-07  0.4622E-03  0.1069E-01  0.1273E+02
   -0.343735   11.67452  0.5545E-10  0.1319E-04  0.5985E-07  0.7252E-03  0.9848E-02  0.6993E+02
   -0.412484   11.67605  0.5545E-10  0.1319E-04  0.5139E-07  0.1022E-02  0.9214E-02  0.6377E+02
   -0.481233   11.67703  0.5545E-10  0.1325E-04  0.4541E-07  0.1203E-02  0.8686E-02  0.7987E+01
   -0.549983   11.67781  0.5545E-10  0.1335E-04  0.4076E-07  0.1252E-02  0.8200E-02  0.8967E+01
   -0.618733   11.67854  0.5545E-10  0.1346E-04  0.3699E-07  0.1322E-02  0.7736E-02  0.9763E+01
   -0.687483   11.67921  0.5545E-10  0.1356E-04  0.3390E-07  0.1385E-02  0.7300E-02  0.1033E+02
   -0.756234   11.67983  0.5545E-10  0.1366E-04  0.3133E-07  0.1449E-02  0.6884E-02  0.1091E+02
   -0.824985   11.68040  0.5545E-10  0.1374E-04  0.2915E-07  0.1511E-02  0.6486E-02  0.1145E+02
   -0.893737   11.68093  0.5545E-10  0.1380E-04  0.2728E-07  0.1572E-02  0.6104E-02  0.1200E+02
   -0.962488   11.68143  0.5545E-10  0.1384E-04  0.2566E-07  0.1630E-02  0.5734E-02  0.1255E+02
   -1.031240   11.68190  0.5545E-10  0.1386E-04  0.2424E-07  0.1686E-02  0.5376E-02  0.1313E+02
   -1.099992   11.68234  0.5545E-10  0.1384E-04  0.2300E-07  0.1738E-02  0.5027E-02  0.1374E+02
   -1.168744   11.68276  0.5545E-10  0.1381E-04  0.2189E-07  0.1786E-02  0.4687E-02  0.1443E+02
   -1.237496   11.68315  0.5545E-10  0.1374E-04  0.2090E-07  0.1828E-02  0.4354E-02  0.1520E+02
   -1.306249   11.68351  0.5545E-10  0.1364E-04  0.2002E-07  0.1863E-02  0.4027E-02  0.1613E+02
   -1.375001   11.68387  0.5545E-10  0.1350E-04  0.1924E-07  0.1890E-02  0.3706E-02  0.1725E+02
   -1.443753   11.68420  0.5545E-10  0.1334E-04  0.1853E-07  0.1906E-02  0.3391E-02  0.1870E+02
   -1.512506   11.68452  0.5545E-10  0.1315E-04  0.1790E-07  0.1912E-02  0.3079E-02  0.2067E+02
   -1.581258   11.68483  0.5545E-10  0.1292E-04  0.1734E-07  0.1906E-02  0.2771E-02  0.2350E+02
   -1.650010   11.68514  0.5545E-10  0.1266E-04  0.1684E-07  0.1892E-02  0.2467E-02  0.2793E+02
   -1.718762   11.68543  0.5545E-10  0.1237E-04  0.1640E-07  0.1856E-02  0.2165E-02  0.3264E+02
   -1.787514   11.68572  0.5545E-10  0.1203E-04  0.1600E-07  0.1854E-02  0.1864E-02  0.7723E+01
   -1.856265   11.68600  0.5545E-10  0.1167E-04  0.1567E-07  0.1855E-02  0.1607E-02  0.3811E+01
   -1.925017   11.68628  0.5545E-10  0.1128E-04  0.1545E-07  0.1870E-02  0.1386E-02  0.2327E+01
   -1.993768   11.68655  0.5545E-10  0.1088E-04  0.1535E-07  0.1896E-02  0.1200E-02  0.1665E+01
   -2.062519   11.68681  0.5545E-10  0.1050E-04  0.1541E-07  0.1893E-02  0.1042E-02  0.1348E+01
   -2.131269   11.68707  0.5545E-10  0.1014E-04  0.1565E-07  0.1858E-02  0.9030E-03  0.1098E+01
   -2.200019   11.68733  0.5545E-10  0.9801E-05  0.1608E-07  0.1786E-02  0.7796E-03  0.8980E+00
   -2.268769   11.68759  0.5545E-10  0.9493E-05  0.1675E-07  0.1667E-02  0.6708E-03  0.7028E+00
   -2.337518   11.68786  0.5545E-10  0.9208E-05  0.1770E-07  0.1498E-02  0.5788E-03  0.5758E+00
   -2.406267   11.68816  0.5545E-10  0.8941E-05  0.1907E-07  0.1347E-02  0.5025E-03  0.5702E+00
   -2.475015   11.68849  0.5545E-10  0.8667E-05  0.2128E-07  0.1152E-02  0.4397E-03  0.2073E+01
   -2.543762   11.68889  0.5545E-10  0.8327E-05  0.2547E-07  0.1050E-02  0.3820E-03  0.1144E+02
   -2.612510   11.68935  0.5545E-10  0.7713E-05  0.3773E-07  0.5597E-03  0.3285E-03  0.8811E+03
   -2.681256   11.69079  0.5545E-10  0.4722E-05  0.1455E-06  0.5397E-04  0.2399E-03 -0.9724E+04
   -2.750002   11.69946  0.5545E-10  0.0000E+00  0.0000E+00  0.0000E+00  0.2562E-03  0.0000E+00
