 1 - depth, m
 2 - temperature, C
 3 - salinity, kg/kg
 4 - turbulent kinetic energy, m**2/s**2
 5 - dissipation rate, m**2/s**3
 6 - kinematic heat conductance, m**2/s
 7 - modulus of horizontal velocity, m/s
 8 - Richardson number, n/d
   -0.000000   -0.00000  0.1428E-12  0.1219E-13  0.7603E-17  0.1000E-09  0.0000E+00  0.6649E+16
   -0.068746    0.10111  0.1439E-11  0.1219E-13  0.7603E-17  0.1000E-09  0.0000E+00  0.6583E+16
   -0.137493    0.20407  0.2804E-11  0.1219E-13  0.7603E-17  0.1000E-09  0.0000E+00  0.6503E+16
   -0.206240    0.30879  0.3621E-11  0.1219E-13  0.7603E-17  0.1000E-09  0.0000E+00  0.6408E+16
   -0.274988    0.41517  0.3868E-11  0.1219E-13  0.7603E-17  0.1000E-09  0.0000E+00  0.6297E+16
   -0.343736    0.52309  0.3768E-11  0.1219E-13  0.7603E-17  0.1000E-09  0.0000E+00  0.6171E+16
   -0.412485    0.63243  0.3536E-11  0.1219E-13  0.7603E-17  0.1000E-09  0.0000E+00  0.6031E+16
   -0.481234    0.74305  0.3306E-11  0.1219E-13  0.7603E-17  0.1000E-09  0.0000E+00  0.5877E+16
   -0.549984    0.85482  0.3131E-11  0.1219E-13  0.7603E-17  0.1000E-09  0.0000E+00  0.5711E+16
   -0.618734    0.96761  0.3018E-11  0.1219E-13  0.7603E-17  0.1000E-09  0.0000E+00  0.5534E+16
   -0.687485    1.08130  0.2954E-11  0.1219E-13  0.7603E-17  0.1000E-09  0.0000E+00  0.5347E+16
   -0.756236    1.19577  0.2920E-11  0.1219E-13  0.7603E-17  0.1000E-09  0.0000E+00  0.5152E+16
   -0.824987    1.31091  0.2904E-11  0.1219E-13  0.7603E-17  0.1000E-09  0.0000E+00  0.4949E+16
   -0.893739    1.42661  0.2896E-11  0.1219E-13  0.7603E-17  0.1000E-09  0.0000E+00  0.4740E+16
   -0.962490    1.54277  0.2892E-11  0.1219E-13  0.7603E-17  0.1000E-09  0.0000E+00  0.4525E+16
   -1.031242    1.65931  0.2889E-11  0.1219E-13  0.7603E-17  0.1000E-09  0.0000E+00  0.4306E+16
   -1.099995    1.77615  0.2885E-11  0.1219E-13  0.7603E-17  0.1000E-09  0.0000E+00  0.4084E+16
   -1.168747    1.89321  0.2880E-11  0.1219E-13  0.7603E-17  0.1000E-09  0.0000E+00  0.3860E+16
   -1.237499    2.01043  0.2873E-11  0.1219E-13  0.7603E-17  0.1000E-09  0.0000E+00  0.3633E+16
   -1.306252    2.12774  0.2866E-11  0.1219E-13  0.7603E-17  0.1000E-09  0.0000E+00  0.3406E+16
   -1.375004    2.24511  0.2858E-11  0.1219E-13  0.7603E-17  0.1000E-09  0.0000E+00  0.3179E+16
   -1.443757    2.36252  0.2849E-11  0.1219E-13  0.7603E-17  0.1000E-09  0.0000E+00  0.2952E+16
   -1.512509    2.47994  0.2841E-11  0.1219E-13  0.7603E-17  0.1000E-09  0.0000E+00  0.2725E+16
   -1.581262    2.59735  0.2833E-11  0.1219E-13  0.7603E-17  0.1000E-09  0.0000E+00  0.2499E+16
   -1.650014    2.71474  0.2826E-11  0.1219E-13  0.7603E-17  0.1000E-09  0.0000E+00  0.2273E+16
   -1.718766    2.83210  0.2821E-11  0.1219E-13  0.7603E-17  0.1000E-09  0.0000E+00  0.2047E+16
   -1.787518    2.94934  0.2817E-11  0.3280E-13  0.9203E-17  0.1000E-09  0.0000E+00  0.1796E+16
   -1.856270    3.06460  0.2813E-11  0.1164E-12  0.2698E-16  0.1000E-09  0.0000E+00  0.1551E+16
   -1.925021    3.17744  0.2810E-11  0.3883E-12  0.8552E-16  0.1000E-09  0.0000E+00  0.1313E+16
   -1.993773    3.28724  0.2808E-11  0.1265E-11  0.2688E-15  0.1000E-09  0.0000E+00  0.1091E+16
   -2.062524    3.39396  0.2806E-11  0.3966E-11  0.8147E-15  0.1000E-09  0.0000E+00  0.9051E+15
   -2.131274    3.50020  0.2805E-11  0.1221E-10  0.2427E-14  0.1000E-09  0.0000E+00  0.7245E+15
   -2.200024    3.60625  0.2804E-11  0.3710E-10  0.7137E-14  0.1000E-09  0.0000E+00  0.5455E+15
   -2.268774    3.71217  0.2804E-11  0.1123E-09  0.2092E-13  0.2886E-09  0.0000E+00  0.3674E+15
   -2.337524    3.81775  0.2803E-11  0.3420E-09  0.6175E-13  0.1637E-08  0.0000E+00  0.1906E+15
   -2.406272    3.92213  0.2803E-11  0.1025E-08  0.1800E-12  0.3078E-07  0.0000E+00  0.2845E+14
   -2.475021    4.00844  0.2803E-11  0.2108E-08  0.3739E-12  0.5436E-05  0.0000E+00 -0.9721E+12
   -2.543769    4.01109  0.2803E-11  0.2449E-08  0.4884E-12  0.4954E-05  0.0000E+00 -0.1171E+13
   -2.612516    4.01394  0.2803E-11  0.2479E-08  0.6724E-12  0.3135E-05  0.0000E+00 -0.2009E+13
   -2.681263    4.01825  0.2803E-11  0.1833E-08  0.1437E-11  0.5296E-06  0.0000E+00 -0.1221E+14
   -2.750008    4.03709  0.2803E-11  0.0000E+00  0.0000E+00  0.0000E+00  0.0000E+00  0.0000E+00
