 1 - depth, m
 2 - temperature, C
 3 - salinity, kg/kg
 4 - turbulent kinetic energy, m**2/s**2
 5 - dissipation rate, m**2/s**3
 6 - kinematic heat conductance, m**2/s
 7 - modulus of horizontal velocity, m/s
 8 - Richardson number, n/d
   -0.000000   -0.00000  0.2040E-11  0.1219E-13  0.7603E-17  0.1000E-09  0.0000E+00  0.6776E+16
   -0.068746    0.10308  0.1200E-11  0.1219E-13  0.7603E-17  0.1000E-09  0.0000E+00  0.6536E+16
   -0.137492    0.20534  0.8757E-12  0.1219E-13  0.7603E-17  0.1000E-09  0.0000E+00  0.6324E+16
   -0.206239    0.30718  0.7834E-12  0.1219E-13  0.7603E-17  0.1000E-09  0.0000E+00  0.6140E+16
   -0.274987    0.40900  0.7610E-12  0.1219E-13  0.7603E-17  0.1000E-09  0.0000E+00  0.5981E+16
   -0.343735    0.51122  0.7561E-12  0.1219E-13  0.7603E-17  0.1000E-09  0.0000E+00  0.5843E+16
   -0.412483    0.61426  0.7551E-12  0.1219E-13  0.7603E-17  0.1000E-09  0.0000E+00  0.5724E+16
   -0.481233    0.71855  0.7550E-12  0.1219E-13  0.7603E-17  0.1000E-09  0.0000E+00  0.5621E+16
   -0.549982    0.82449  0.7550E-12  0.1219E-13  0.7603E-17  0.1000E-09  0.0000E+00  0.5530E+16
   -0.618732    0.93249  0.7549E-12  0.1219E-13  0.7603E-17  0.1000E-09  0.0000E+00  0.5446E+16
   -0.687482    1.04293  0.7549E-12  0.1219E-13  0.7603E-17  0.1000E-09  0.0000E+00  0.5379E+16
   -0.756233    1.15646  0.7549E-12  0.1219E-13  0.7603E-17  0.1000E-09  0.0000E+00  0.5317E+16
   -0.824984    1.27357  0.7549E-12  0.1219E-13  0.7603E-17  0.1000E-09  0.0000E+00  0.5247E+16
   -0.893735    1.39456  0.7549E-12  0.2328E-13  0.7603E-17  0.1000E-09  0.0000E+00  0.5165E+16
   -0.962487    1.51971  0.7548E-12  0.8241E-13  0.1041E-16  0.1000E-09  0.0000E+00  0.5066E+16
   -1.031239    1.64924  0.7546E-12  0.2073E-12  0.2098E-16  0.1000E-09  0.0000E+00  0.4946E+16
   -1.099991    1.78334  0.7539E-12  0.4647E-12  0.4407E-16  0.1000E-09  0.0000E+00  0.4801E+16
   -1.168743    1.92216  0.7525E-12  0.1000E-11  0.9177E-16  0.1000E-09  0.0000E+00  0.4628E+16
   -1.237495    2.06579  0.7500E-12  0.2116E-11  0.1891E-15  0.1000E-09  0.0000E+00  0.4424E+16
   -1.306247    2.21430  0.7465E-12  0.4425E-11  0.3858E-15  0.1000E-09  0.0000E+00  0.4186E+16
   -1.374999    2.36770  0.7427E-12  0.9172E-11  0.7808E-15  0.1000E-09  0.0000E+00  0.3919E+16
   -1.443752    2.52629  0.7394E-12  0.1885E-10  0.1567E-14  0.1000E-09  0.0000E+00  0.3615E+16
   -1.512504    2.69011  0.7372E-12  0.3843E-10  0.3122E-14  0.1000E-09  0.0000E+00  0.3270E+16
   -1.581256    2.85906  0.7359E-12  0.7775E-10  0.6172E-14  0.1000E-09  0.0000E+00  0.2882E+16
   -1.650008    3.03299  0.7352E-12  0.1561E-09  0.1211E-13  0.1000E-09  0.0000E+00  0.2451E+16
   -1.718760    3.21160  0.7347E-12  0.3109E-09  0.2359E-13  0.1000E-09  0.0000E+00  0.1980E+16
   -1.787512    3.39457  0.7342E-12  0.6284E-09  0.4660E-13  0.1586E-09  0.0000E+00  0.1495E+16
   -1.856263    3.58537  0.7335E-12  0.1283E-08  0.9307E-13  0.5026E-09  0.0000E+00  0.9424E+15
   -1.925014    3.78376  0.7324E-12  0.2621E-08  0.1860E-12  0.2940E-08  0.0000E+00  0.3220E+15
   -1.993766    3.98693  0.7318E-12  0.3352E-08  0.2396E-12  0.1015E-04  0.0000E+00 -0.9624E+11
   -2.062516    3.98986  0.7318E-12  0.3762E-08  0.2776E-12  0.1544E-04  0.0000E+00 -0.1381E+12
   -2.131267    3.99181  0.7318E-12  0.4123E-08  0.3179E-12  0.1836E-04  0.0000E+00 -0.1624E+12
   -2.200017    3.99345  0.7318E-12  0.4442E-08  0.3619E-12  0.1993E-04  0.0000E+00 -0.1871E+12
   -2.268766    3.99496  0.7318E-12  0.4721E-08  0.4117E-12  0.2041E-04  0.0000E+00 -0.2176E+12
   -2.337515    3.99644  0.7318E-12  0.4962E-08  0.4721E-12  0.1984E-04  0.0000E+00 -0.2600E+12
   -2.406264    3.99796  0.7318E-12  0.5157E-08  0.5505E-12  0.1818E-04  0.0000E+00 -0.3258E+12
   -2.475012    3.99962  0.7318E-12  0.5288E-08  0.6636E-12  0.1536E-04  0.0000E+00 -0.4433E+12
   -2.543760    4.00160  0.7318E-12  0.5315E-08  0.8551E-12  0.1127E-04  0.0000E+00 -0.7049E+12
   -2.612507    4.00430  0.7318E-12  0.5111E-08  0.1301E-11  0.6017E-05  0.0000E+00 -0.1635E+13
   -2.681253    4.00939  0.7318E-12  0.3975E-08  0.3621E-11  0.1006E-05  0.0000E+00 -0.1680E+14
   -2.749999    4.03805  0.7318E-12  0.0000E+00  0.0000E+00  0.0000E+00  0.0000E+00  0.0000E+00
