 1 - depth, m
 2 - temperature, C
 3 - salinity, kg/kg
 4 - turbulent kinetic energy, m**2/s**2
 5 - dissipation rate, m**2/s**3
 6 - kinematic heat conductance, m**2/s
 7 - modulus of horizontal velocity, m/s
 8 - Richardson number, n/d
   -0.000000   -0.00000  0.8285E-10  0.1219E-13  0.7603E-17  0.1000E-09  0.0000E+00  0.4037E+16
   -0.068746    0.06106  0.4529E-10  0.1219E-13  0.7603E-17  0.1000E-09  0.0000E+00  0.3860E+16
   -0.137492    0.12041  0.3606E-10  0.1219E-13  0.7603E-17  0.1000E-09  0.0000E+00  0.3717E+16
   -0.206239    0.17850  0.3414E-10  0.1219E-13  0.7603E-17  0.1000E-09  0.0000E+00  0.3607E+16
   -0.274986    0.23578  0.3379E-10  0.1219E-13  0.7603E-17  0.1000E-09  0.0000E+00  0.3530E+16
   -0.343735    0.29275  0.3374E-10  0.1219E-13  0.7603E-17  0.1000E-09  0.0000E+00  0.3486E+16
   -0.412483    0.34994  0.3373E-10  0.1219E-13  0.7603E-17  0.1000E-09  0.0000E+00  0.3473E+16
   -0.481232    0.40789  0.3373E-10  0.1219E-13  0.7603E-17  0.1000E-09  0.0000E+00  0.3492E+16
   -0.549982    0.46718  0.3373E-10  0.1219E-13  0.7603E-17  0.1000E-09  0.0000E+00  0.3542E+16
   -0.618732    0.52842  0.3373E-10  0.1219E-13  0.7603E-17  0.1000E-09  0.0000E+00  0.3621E+16
   -0.687482    0.59223  0.3373E-10  0.1219E-13  0.7603E-17  0.1000E-09  0.0000E+00  0.3742E+16
   -0.756233    0.65953  0.3373E-10  0.1219E-13  0.7603E-17  0.1000E-09  0.0000E+00  0.3894E+16
   -0.824984    0.73113  0.3373E-10  0.1219E-13  0.7603E-17  0.1000E-09  0.0000E+00  0.4064E+16
   -0.893735    0.80766  0.3373E-10  0.1219E-13  0.7603E-17  0.1000E-09  0.0000E+00  0.4245E+16
   -0.962486    0.88975  0.3373E-10  0.1219E-13  0.7603E-17  0.1000E-09  0.0000E+00  0.4432E+16
   -1.031238    0.97796  0.3372E-10  0.1219E-13  0.7603E-17  0.1000E-09  0.0000E+00  0.4617E+16
   -1.099990    1.07283  0.3371E-10  0.1219E-13  0.7603E-17  0.1000E-09  0.0000E+00  0.4792E+16
   -1.168742    1.17486  0.3367E-10  0.1219E-13  0.7603E-17  0.1000E-09  0.0000E+00  0.4948E+16
   -1.237494    1.28446  0.3358E-10  0.1219E-13  0.7603E-17  0.1000E-09  0.0000E+00  0.5077E+16
   -1.306246    1.40196  0.3339E-10  0.1219E-13  0.7603E-17  0.1000E-09  0.0000E+00  0.5169E+16
   -1.374998    1.52760  0.3315E-10  0.1219E-13  0.7603E-17  0.1000E-09  0.0000E+00  0.5234E+16
   -1.443751    1.66204  0.3296E-10  0.1219E-13  0.7603E-17  0.1000E-09  0.0000E+00  0.5248E+16
   -1.512503    1.80547  0.3287E-10  0.1331E-13  0.7603E-17  0.1000E-09  0.0000E+00  0.5194E+16
   -1.581255    1.95777  0.3281E-10  0.6258E-13  0.1515E-16  0.1000E-09  0.0000E+00  0.5067E+16
   -1.650007    2.11872  0.3277E-10  0.2077E-12  0.4439E-16  0.1000E-09  0.0000E+00  0.4863E+16
   -1.718759    2.28792  0.3274E-10  0.6337E-12  0.1297E-15  0.1000E-09  0.0000E+00  0.4576E+16
   -1.787510    2.46477  0.3273E-10  0.1934E-11  0.3823E-15  0.1000E-09  0.0000E+00  0.4167E+16
   -1.856262    2.64649  0.3272E-10  0.5888E-11  0.1125E-14  0.1000E-09  0.0000E+00  0.3708E+16
   -1.925013    2.83259  0.3272E-10  0.1775E-10  0.3283E-14  0.1000E-09  0.0000E+00  0.3204E+16
   -1.993764    3.02255  0.3272E-10  0.5300E-10  0.9496E-14  0.1000E-09  0.0000E+00  0.2665E+16
   -2.062515    3.21606  0.3270E-10  0.1530E-09  0.2657E-13  0.1000E-09  0.0000E+00  0.2101E+16
   -2.131265    3.41367  0.3268E-10  0.4348E-09  0.7318E-13  0.2485E-09  0.0000E+00  0.1498E+16
   -2.200015    3.61468  0.3264E-10  0.1220E-08  0.1992E-12  0.1176E-08  0.0000E+00  0.8618E+15
   -2.268764    3.81727  0.3260E-10  0.3392E-08  0.5377E-12  0.1236E-07  0.0000E+00  0.2207E+15
   -2.337513    4.00744  0.3259E-10  0.5130E-08  0.8211E-12  0.1327E-04  0.0000E+00 -0.7631E+12
   -2.406262    4.00964  0.3259E-10  0.5803E-08  0.9819E-12  0.1355E-04  0.0000E+00 -0.8363E+12
   -2.475010    4.01182  0.3259E-10  0.6279E-08  0.1186E-11  0.1249E-04  0.0000E+00 -0.1020E+13
   -2.543758    4.01426  0.3259E-10  0.6550E-08  0.1510E-11  0.9960E-05  0.0000E+00 -0.1468E+13
   -2.612505    4.01743  0.3259E-10  0.6506E-08  0.2238E-11  0.5904E-05  0.0000E+00 -0.3063E+13
   -2.681251    4.02319  0.3259E-10  0.5512E-08  0.5852E-11  0.1314E-05  0.0000E+00 -0.2499E+14
   -2.749997    4.05378  0.3259E-10  0.0000E+00  0.0000E+00  0.0000E+00  0.0000E+00  0.0000E+00
