 1 - depth, m
 2 - temperature, C
 3 - salinity, kg/kg
 4 - turbulent kinetic energy, m**2/s**2
 5 - dissipation rate, m**2/s**3
 6 - kinematic heat conductance, m**2/s
 7 - modulus of horizontal velocity, m/s
 8 - Richardson number, n/d
   -0.000000   -0.00000  0.2927E-11  0.1219E-13  0.7603E-17  0.1000E-09  0.0000E+00  0.6536E+16
   -0.068746    0.09937  0.1248E-10  0.1219E-13  0.7603E-17  0.1000E-09  0.0000E+00  0.6470E+16
   -0.137493    0.20047  0.1869E-10  0.1219E-13  0.7603E-17  0.1000E-09  0.0000E+00  0.6383E+16
   -0.206240    0.30312  0.2075E-10  0.1219E-13  0.7603E-17  0.1000E-09  0.0000E+00  0.6279E+16
   -0.274988    0.40715  0.2034E-10  0.1219E-13  0.7603E-17  0.1000E-09  0.0000E+00  0.6159E+16
   -0.343736    0.51241  0.1898E-10  0.1219E-13  0.7603E-17  0.1000E-09  0.0000E+00  0.6025E+16
   -0.412485    0.61875  0.1756E-10  0.1219E-13  0.7603E-17  0.1000E-09  0.0000E+00  0.5878E+16
   -0.481234    0.72603  0.1648E-10  0.1219E-13  0.7603E-17  0.1000E-09  0.0000E+00  0.5719E+16
   -0.549984    0.83412  0.1578E-10  0.1219E-13  0.7603E-17  0.1000E-09  0.0000E+00  0.5550E+16
   -0.618734    0.94288  0.1539E-10  0.1219E-13  0.7603E-17  0.1000E-09  0.0000E+00  0.5372E+16
   -0.687485    1.05219  0.1520E-10  0.1219E-13  0.7603E-17  0.1000E-09  0.0000E+00  0.5187E+16
   -0.756236    1.16195  0.1510E-10  0.1219E-13  0.7603E-17  0.1000E-09  0.0000E+00  0.4995E+16
   -0.824987    1.27205  0.1506E-10  0.1219E-13  0.7603E-17  0.1000E-09  0.0000E+00  0.4798E+16
   -0.893739    1.38238  0.1504E-10  0.1219E-13  0.7603E-17  0.1000E-09  0.0000E+00  0.4596E+16
   -0.962491    1.49287  0.1503E-10  0.1219E-13  0.7603E-17  0.1000E-09  0.0000E+00  0.4391E+16
   -1.031243    1.60341  0.1502E-10  0.1219E-13  0.7603E-17  0.1000E-09  0.0000E+00  0.4184E+16
   -1.099995    1.71392  0.1500E-10  0.1219E-13  0.7603E-17  0.1000E-09  0.0000E+00  0.3975E+16
   -1.168747    1.82436  0.1497E-10  0.1219E-13  0.7603E-17  0.1000E-09  0.0000E+00  0.3765E+16
   -1.237500    1.93464  0.1494E-10  0.1219E-13  0.7603E-17  0.1000E-09  0.0000E+00  0.3555E+16
   -1.306252    2.04473  0.1491E-10  0.1219E-13  0.7603E-17  0.1000E-09  0.0000E+00  0.3346E+16
   -1.375004    2.15458  0.1487E-10  0.1219E-13  0.7603E-17  0.1000E-09  0.0000E+00  0.3140E+16
   -1.443757    2.26421  0.1482E-10  0.1219E-13  0.7603E-17  0.1000E-09  0.0000E+00  0.2935E+16
   -1.512509    2.37360  0.1478E-10  0.1219E-13  0.7603E-17  0.1000E-09  0.0000E+00  0.2731E+16
   -1.581262    2.48275  0.1475E-10  0.1219E-13  0.7603E-17  0.1000E-09  0.0000E+00  0.2530E+16
   -1.650014    2.59166  0.1472E-10  0.1219E-13  0.7603E-17  0.1000E-09  0.0000E+00  0.2331E+16
   -1.718766    2.70032  0.1469E-10  0.1219E-13  0.7603E-17  0.1000E-09  0.0000E+00  0.2133E+16
   -1.787518    2.80871  0.1467E-10  0.1219E-13  0.7603E-17  0.1000E-09  0.0000E+00  0.1920E+16
   -1.856270    2.91583  0.1466E-10  0.1219E-13  0.7603E-17  0.1000E-09  0.0000E+00  0.1711E+16
   -1.925022    3.02143  0.1464E-10  0.1219E-13  0.7603E-17  0.1000E-09  0.0000E+00  0.1505E+16
   -1.993773    3.12516  0.1463E-10  0.1219E-13  0.7603E-17  0.1000E-09  0.0000E+00  0.1309E+16
   -2.062524    3.22700  0.1462E-10  0.1219E-13  0.7603E-17  0.1000E-09  0.0000E+00  0.1139E+16
   -2.131275    3.32843  0.1461E-10  0.2287E-13  0.1136E-16  0.1000E-09  0.0000E+00  0.9719E+15
   -2.200025    3.42961  0.1460E-10  0.1088E-12  0.5017E-16  0.1000E-09  0.0000E+00  0.8070E+15
   -2.268775    3.53056  0.1460E-10  0.5374E-12  0.2376E-15  0.1000E-09  0.0000E+00  0.6434E+15
   -2.337524    3.63122  0.1459E-10  0.2649E-11  0.1127E-14  0.1000E-09  0.0000E+00  0.4815E+15
   -2.406273    3.73154  0.1459E-10  0.1293E-10  0.5303E-14  0.1000E-09  0.0000E+00  0.3216E+15
   -2.475021    3.83146  0.1459E-10  0.6295E-10  0.2496E-13  0.7439E-09  0.0000E+00  0.1636E+15
   -2.543769    3.93039  0.1459E-10  0.3035E-09  0.1173E-12  0.2409E-07  0.0000E+00  0.1827E+14
   -2.612516    4.01452  0.1459E-10  0.1242E-08  0.5123E-12  0.1250E-05  0.0000E+00 -0.5079E+13
   -2.681263    4.02432  0.1459E-10  0.1232E-08  0.1057E-11  0.4055E-06  0.0000E+00 -0.1782E+14
   -2.750009    4.04731  0.1459E-10  0.0000E+00  0.0000E+00  0.0000E+00  0.0000E+00  0.0000E+00
