 1 - depth, m
 2 - temperature, C
 3 - salinity, kg/kg
 4 - turbulent kinetic energy, m**2/s**2
 5 - dissipation rate, m**2/s**3
 6 - kinematic heat conductance, m**2/s
 7 - modulus of horizontal velocity, m/s
 8 - Richardson number, n/d
   -0.000000   -0.00000  0.6935E-10  0.1219E-13  0.7603E-17  0.1000E-09  0.0000E+00  0.5197E+16
   -0.068746    0.07879  0.3777E-10  0.1219E-13  0.7603E-17  0.1000E-09  0.0000E+00  0.5009E+16
   -0.137492    0.15637  0.2877E-10  0.1219E-13  0.7603E-17  0.1000E-09  0.0000E+00  0.4857E+16
   -0.206239    0.23324  0.2663E-10  0.1219E-13  0.7603E-17  0.1000E-09  0.0000E+00  0.4739E+16
   -0.274987    0.30988  0.2618E-10  0.1219E-13  0.7603E-17  0.1000E-09  0.0000E+00  0.4652E+16
   -0.343735    0.38681  0.2609E-10  0.1219E-13  0.7603E-17  0.1000E-09  0.0000E+00  0.4593E+16
   -0.412483    0.46451  0.2608E-10  0.1219E-13  0.7603E-17  0.1000E-09  0.0000E+00  0.4559E+16
   -0.481232    0.54347  0.2607E-10  0.1219E-13  0.7603E-17  0.1000E-09  0.0000E+00  0.4546E+16
   -0.549982    0.62416  0.2607E-10  0.1219E-13  0.7603E-17  0.1000E-09  0.0000E+00  0.4552E+16
   -0.618732    0.70707  0.2607E-10  0.1219E-13  0.7603E-17  0.1000E-09  0.0000E+00  0.4572E+16
   -0.687482    0.79262  0.2607E-10  0.1219E-13  0.7603E-17  0.1000E-09  0.0000E+00  0.4617E+16
   -0.756233    0.88154  0.2607E-10  0.1219E-13  0.7603E-17  0.1000E-09  0.0000E+00  0.4674E+16
   -0.824984    0.97439  0.2607E-10  0.1219E-13  0.7603E-17  0.1000E-09  0.0000E+00  0.4731E+16
   -0.893735    1.07152  0.2607E-10  0.1219E-13  0.7603E-17  0.1000E-09  0.0000E+00  0.4781E+16
   -0.962486    1.17326  0.2607E-10  0.1219E-13  0.7603E-17  0.1000E-09  0.0000E+00  0.4820E+16
   -1.031238    1.27990  0.2607E-10  0.1219E-13  0.7603E-17  0.1000E-09  0.0000E+00  0.4843E+16
   -1.099990    1.39165  0.2606E-10  0.1219E-13  0.7603E-17  0.1000E-09  0.0000E+00  0.4844E+16
   -1.168742    1.50869  0.2603E-10  0.1219E-13  0.7603E-17  0.1000E-09  0.0000E+00  0.4818E+16
   -1.237494    1.63111  0.2597E-10  0.1219E-13  0.7603E-17  0.1000E-09  0.0000E+00  0.4762E+16
   -1.306246    1.75897  0.2586E-10  0.1219E-13  0.7603E-17  0.1000E-09  0.0000E+00  0.4670E+16
   -1.374999    1.89223  0.2571E-10  0.2757E-13  0.7603E-17  0.1000E-09  0.0000E+00  0.4550E+16
   -1.443751    2.03111  0.2557E-10  0.9112E-13  0.1749E-16  0.1000E-09  0.0000E+00  0.4391E+16
   -1.512503    2.17553  0.2548E-10  0.2653E-12  0.4718E-16  0.1000E-09  0.0000E+00  0.4186E+16
   -1.581255    2.32525  0.2543E-10  0.7378E-12  0.1264E-15  0.1000E-09  0.0000E+00  0.3936E+16
   -1.650007    2.47992  0.2540E-10  0.2009E-11  0.3333E-15  0.1000E-09  0.0000E+00  0.3641E+16
   -1.718759    2.63914  0.2539E-10  0.5388E-11  0.8663E-15  0.1000E-09  0.0000E+00  0.3303E+16
   -1.787511    2.80244  0.2538E-10  0.1463E-10  0.2280E-14  0.1000E-09  0.0000E+00  0.2941E+16
   -1.856262    2.97015  0.2537E-10  0.3982E-10  0.6020E-14  0.1000E-09  0.0000E+00  0.2544E+16
   -1.925013    3.14218  0.2536E-10  0.1077E-09  0.1580E-13  0.1000E-09  0.0000E+00  0.2113E+16
   -1.993764    3.31850  0.2535E-10  0.2891E-09  0.4118E-13  0.1274E-09  0.0000E+00  0.1645E+16
   -2.062515    3.49855  0.2531E-10  0.7527E-09  0.1042E-12  0.4674E-09  0.0000E+00  0.1134E+16
   -2.131265    3.67959  0.2527E-10  0.1930E-08  0.2596E-12  0.2156E-08  0.0000E+00  0.6123E+15
   -2.200015    3.85911  0.2524E-10  0.4827E-08  0.6325E-12  0.2635E-07  0.0000E+00  0.1214E+15
   -2.268765    4.01265  0.2523E-10  0.6275E-08  0.8296E-12  0.2041E-04  0.0000E+00 -0.5284E+12
   -2.337514    4.01390  0.2523E-10  0.6836E-08  0.9343E-12  0.2052E-04  0.0000E+00 -0.5542E+12
   -2.406262    4.01516  0.2523E-10  0.7238E-08  0.1055E-11  0.1943E-04  0.0000E+00 -0.6187E+12
   -2.475011    4.01650  0.2523E-10  0.7484E-08  0.1220E-11  0.1702E-04  0.0000E+00 -0.7536E+12
   -2.543758    4.01805  0.2523E-10  0.7536E-08  0.1491E-11  0.1305E-04  0.0000E+00 -0.1067E+13
   -2.612505    4.02013  0.2523E-10  0.7243E-08  0.2118E-11  0.7417E-05  0.0000E+00 -0.2154E+13
   -2.681251    4.02398  0.2523E-10  0.5626E-08  0.5515E-11  0.1298E-05  0.0000E+00 -0.1905E+14
   -2.749997    4.04838  0.2523E-10  0.0000E+00  0.0000E+00  0.0000E+00  0.0000E+00  0.0000E+00
