 1 - depth, m
 2 - temperature, C
 3 - salinity, kg/kg
 4 - turbulent kinetic energy, m**2/s**2
 5 - dissipation rate, m**2/s**3
 6 - kinematic heat conductance, m**2/s
 7 - modulus of horizontal velocity, m/s
 8 - Richardson number, n/d
   -0.000000    0.00000  0.0000E+00  0.1218E-13  0.7603E-17  0.1000E-09  0.0000E+00  0.5213E+16
   -0.068747    0.07903  0.1090E-12  0.1218E-13  0.7603E-17  0.1000E-09  0.0000E+00  0.5393E+16
   -0.137496    0.16263  0.6305E-12  0.1218E-13  0.7603E-17  0.1000E-09  0.0000E+00  0.5520E+16
   -0.206244    0.25027  0.1308E-11  0.1218E-13  0.7603E-17  0.1000E-09  0.0000E+00  0.5618E+16
   -0.274994    0.34176  0.1839E-11  0.1218E-13  0.7603E-17  0.1000E-09  0.0000E+00  0.5688E+16
   -0.343744    0.43695  0.2109E-11  0.1218E-13  0.7603E-17  0.1000E-09  0.0000E+00  0.5727E+16
   -0.412494    0.53560  0.2159E-11  0.1218E-13  0.7603E-17  0.1000E-09  0.0000E+00  0.5731E+16
   -0.481245    0.63743  0.2084E-11  0.1218E-13  0.7603E-17  0.1000E-09  0.0000E+00  0.5700E+16
   -0.549996    0.74205  0.1970E-11  0.1218E-13  0.7603E-17  0.1000E-09  0.0000E+00  0.5635E+16
   -0.618748    0.84909  0.1864E-11  0.1218E-13  0.7603E-17  0.1000E-09  0.0000E+00  0.5538E+16
   -0.687500    0.95819  0.1786E-11  0.1218E-13  0.7603E-17  0.1000E-09  0.0000E+00  0.5412E+16
   -0.756253    1.06894  0.1736E-11  0.1218E-13  0.7603E-17  0.1000E-09  0.0000E+00  0.5262E+16
   -0.825006    1.18103  0.1707E-11  0.1218E-13  0.7603E-17  0.1000E-09  0.0000E+00  0.5095E+16
   -0.893759    1.29423  0.1691E-11  0.1218E-13  0.7603E-17  0.1000E-09  0.0000E+00  0.4915E+16
   -0.962512    1.40833  0.1684E-11  0.1218E-13  0.7603E-17  0.1000E-09  0.0000E+00  0.4724E+16
   -1.031265    1.52320  0.1680E-11  0.1218E-13  0.7603E-17  0.1000E-09  0.0000E+00  0.4525E+16
   -1.100019    1.63873  0.1677E-11  0.1218E-13  0.7603E-17  0.1000E-09  0.0000E+00  0.4321E+16
   -1.168773    1.75484  0.1675E-11  0.1218E-13  0.7603E-17  0.1000E-09  0.0000E+00  0.4113E+16
   -1.237527    1.87150  0.1673E-11  0.1218E-13  0.7603E-17  0.1000E-09  0.0000E+00  0.3902E+16
   -1.306281    1.98871  0.1670E-11  0.1218E-13  0.7603E-17  0.1000E-09  0.0000E+00  0.3690E+16
   -1.375035    2.10650  0.1667E-11  0.1218E-13  0.7603E-17  0.1000E-09  0.0000E+00  0.3479E+16
   -1.443789    2.22498  0.1663E-11  0.1218E-13  0.7603E-17  0.1000E-09  0.0000E+00  0.3268E+16
   -1.512543    2.34428  0.1658E-11  0.1218E-13  0.7603E-17  0.1000E-09  0.0000E+00  0.3056E+16
   -1.581297    2.46452  0.1654E-11  0.1218E-13  0.7603E-17  0.1000E-09  0.0000E+00  0.2843E+16
   -1.650051    2.58587  0.1649E-11  0.1218E-13  0.7603E-17  0.1000E-09  0.0000E+00  0.2628E+16
   -1.718804    2.70852  0.1645E-11  0.1218E-13  0.7603E-17  0.1000E-09  0.0000E+00  0.2409E+16
   -1.787558    2.83256  0.1642E-11  0.1218E-13  0.7603E-17  0.1000E-09  0.0000E+00  0.2115E+16
   -1.856311    2.95395  0.1639E-11  0.1410E-13  0.7603E-17  0.1000E-09  0.0000E+00  0.1828E+16
   -1.925064    3.07200  0.1636E-11  0.5728E-13  0.1489E-16  0.1000E-09  0.0000E+00  0.1548E+16
   -1.993817    3.18570  0.1634E-11  0.2038E-12  0.4721E-16  0.1000E-09  0.0000E+00  0.1294E+16
   -2.062569    3.29510  0.1633E-11  0.6658E-12  0.1484E-15  0.1000E-09  0.0000E+00  0.1107E+16
   -2.131322    3.40504  0.1631E-11  0.2125E-11  0.4597E-15  0.1000E-09  0.0000E+00  0.9229E+15
   -2.200073    3.51618  0.1630E-11  0.6701E-11  0.1409E-14  0.1000E-09  0.0000E+00  0.7342E+15
   -2.268825    3.62868  0.1630E-11  0.2113E-10  0.4322E-14  0.1000E-09  0.0000E+00  0.5374E+15
   -2.337576    3.74215  0.1629E-11  0.6738E-10  0.1342E-13  0.2030E-09  0.0000E+00  0.3347E+15
   -2.406326    3.85593  0.1629E-11  0.2157E-09  0.4189E-13  0.1616E-08  0.0000E+00  0.1306E+15
   -2.475076    3.96784  0.1629E-11  0.6545E-09  0.1253E-12  0.3342E-06  0.0000E+00  0.8977E+12
   -2.543825    4.00241  0.1629E-11  0.1399E-08  0.3132E-12  0.2768E-05  0.0000E+00 -0.1522E+13
   -2.612574    4.00768  0.1629E-11  0.1637E-08  0.4868E-12  0.2088E-05  0.0000E+00 -0.2532E+13
   -2.681322    4.01429  0.1629E-11  0.1298E-08  0.9932E-12  0.4172E-06  0.0000E+00 -0.1264E+14
   -2.750070    4.03531  0.1629E-11  0.0000E+00  0.0000E+00  0.0000E+00  0.0000E+00  0.0000E+00
