 1 - depth, m
 2 - temperature, C
 3 - salinity, kg/kg
 4 - turbulent kinetic energy, m**2/s**2
 5 - dissipation rate, m**2/s**3
 6 - kinematic heat conductance, m**2/s
 7 - modulus of horizontal velocity, m/s
 8 - Richardson number, n/d
   -0.000000   16.04734  0.7302E-10  0.1070E-04  0.3931E-06  0.2983E-04  0.2198E-01 -0.2189E-01
   -0.068746   16.05741  0.7302E-10  0.1020E-04  0.1472E-06  0.7547E-04  0.1444E-01 -0.4996E-01
   -0.137492   16.06055  0.7302E-10  0.9793E-05  0.8638E-07  0.1236E-03  0.1153E-01 -0.7661E-01
   -0.206239   16.06209  0.7302E-10  0.9468E-05  0.5948E-07  0.1758E-03  0.9778E-02 -0.9369E-01
   -0.274987   16.06297  0.7302E-10  0.9214E-05  0.4457E-07  0.2569E-03  0.8563E-02  0.3093E+02
   -0.343735   16.06349  0.7302E-10  0.9024E-05  0.3532E-07  0.3454E-03  0.7658E-02  0.1598E+01
   -0.412484   16.06384  0.7302E-10  0.8896E-05  0.2911E-07  0.4136E-03  0.6956E-02  0.1114E+02
   -0.481233   16.06412  0.7302E-10  0.8821E-05  0.2475E-07  0.4964E-03  0.6384E-02  0.5099E+01
   -0.549983   16.06434  0.7302E-10  0.8794E-05  0.2162E-07  0.6076E-03  0.5912E-02  0.4789E+01
   -0.618733   16.06453  0.7302E-10  0.8807E-05  0.1938E-07  0.8109E-03  0.5517E-02  0.1984E+02
   -0.687483   16.06468  0.7302E-10  0.8857E-05  0.1775E-07  0.9392E-03  0.5189E-02  0.1640E+02
   -0.756234   16.06483  0.7302E-10  0.8932E-05  0.1650E-07  0.1144E-02  0.4896E-02  0.3379E+02
   -0.824985   16.06497  0.7302E-10  0.9028E-05  0.1557E-07  0.1523E-02  0.4634E-02  0.5556E+01
   -0.893737   16.06510  0.7302E-10  0.9145E-05  0.1484E-07  0.1528E-02  0.4398E-02  0.4601E+01
   -0.962488   16.06523  0.7302E-10  0.9283E-05  0.1425E-07  0.1555E-02  0.4157E-02  0.5300E+01
   -1.031240   16.06538  0.7302E-10  0.9435E-05  0.1380E-07  0.1568E-02  0.3921E-02  0.5991E+01
   -1.099992   16.06553  0.7302E-10  0.9595E-05  0.1346E-07  0.1587E-02  0.3684E-02  0.6739E+01
   -1.168744   16.06571  0.7302E-10  0.9759E-05  0.1322E-07  0.1605E-02  0.3448E-02  0.7490E+01
   -1.237496   16.06589  0.7302E-10  0.9920E-05  0.1307E-07  0.1624E-02  0.3212E-02  0.8255E+01
   -1.306249   16.06610  0.7302E-10  0.1007E-04  0.1299E-07  0.1641E-02  0.2974E-02  0.9026E+01
   -1.375001   16.06632  0.7302E-10  0.1021E-04  0.1299E-07  0.1654E-02  0.2735E-02  0.9868E+01
   -1.443753   16.06655  0.7302E-10  0.1032E-04  0.1304E-07  0.1661E-02  0.2495E-02  0.1086E+02
   -1.512506   16.06680  0.7302E-10  0.1041E-04  0.1315E-07  0.1660E-02  0.2254E-02  0.1224E+02
   -1.581258   16.06708  0.7302E-10  0.1045E-04  0.1331E-07  0.1649E-02  0.2011E-02  0.1447E+02
   -1.650010   16.06737  0.7302E-10  0.1045E-04  0.1351E-07  0.1629E-02  0.1767E-02  0.1887E+02
   -1.718762   16.06769  0.7302E-10  0.1040E-04  0.1375E-07  0.1600E-02  0.1522E-02  0.2479E+02
   -1.787514   16.06804  0.7302E-10  0.1029E-04  0.1401E-07  0.1644E-02  0.1276E-02  0.5398E+01
   -1.856266   16.06838  0.7302E-10  0.1014E-04  0.1433E-07  0.1731E-02  0.1075E-02  0.2973E+01
   -1.925017   16.06871  0.7302E-10  0.9962E-05  0.1473E-07  0.1806E-02  0.9133E-03  0.2042E+01
   -1.993768   16.06904  0.7302E-10  0.9777E-05  0.1523E-07  0.1788E-02  0.7848E-03  0.1606E+01
   -2.062519   16.06937  0.7302E-10  0.9595E-05  0.1583E-07  0.1720E-02  0.6816E-03  0.1398E+01
   -2.131269   16.06973  0.7302E-10  0.9416E-05  0.1654E-07  0.1619E-02  0.5944E-03  0.1228E+01
   -2.200019   16.07012  0.7302E-10  0.9243E-05  0.1739E-07  0.1495E-02  0.5196E-03  0.1092E+01
   -2.268769   16.07057  0.7302E-10  0.9073E-05  0.1841E-07  0.1372E-02  0.4558E-03  0.1098E+01
   -2.337518   16.07107  0.7302E-10  0.8893E-05  0.1979E-07  0.1242E-02  0.4016E-03  0.1386E+01
   -2.406267   16.07163  0.7302E-10  0.8683E-05  0.2182E-07  0.1104E-02  0.3536E-03  0.2182E+01
   -2.475015   16.07228  0.7302E-10  0.8408E-05  0.2522E-07  0.8867E-03  0.3085E-03  0.5454E+01
   -2.543763   16.07312  0.7302E-10  0.8019E-05  0.3164E-07  0.8058E-03  0.2612E-03  0.8558E+01
   -2.612510   16.07407  0.7302E-10  0.7225E-05  0.5278E-07  0.3481E-03  0.2192E-03 -0.1976E+02
   -2.681256   16.07819  0.7302E-10  0.4531E-05  0.1770E-06  0.9410E-04  0.1396E-03 -0.1326E+04
   -2.750002   16.08732  0.7302E-10  0.0000E+00  0.0000E+00  0.0000E+00  0.1593E-03  0.0000E+00
