 1 - depth, m
 2 - temperature, C
 3 - salinity, kg/kg
 4 - turbulent kinetic energy, m**2/s**2
 5 - dissipation rate, m**2/s**3
 6 - kinematic heat conductance, m**2/s
 7 - modulus of horizontal velocity, m/s
 8 - Richardson number, n/d
   -0.000000   -0.00000  0.3626E-11  0.1219E-13  0.7603E-17  0.1000E-09  0.0000E+00  0.8466E+16
   -0.068746    0.12924  0.2323E-11  0.1219E-13  0.7603E-17  0.1000E-09  0.0000E+00  0.8122E+16
   -0.137492    0.25772  0.1668E-11  0.1219E-13  0.7603E-17  0.1000E-09  0.0000E+00  0.7795E+16
   -0.206239    0.38563  0.1410E-11  0.1219E-13  0.7603E-17  0.1000E-09  0.0000E+00  0.7485E+16
   -0.274987    0.51315  0.1324E-11  0.1219E-13  0.7603E-17  0.1000E-09  0.0000E+00  0.7188E+16
   -0.343735    0.64046  0.1299E-11  0.1219E-13  0.7603E-17  0.1000E-09  0.0000E+00  0.6904E+16
   -0.412483    0.76776  0.1292E-11  0.1219E-13  0.7603E-17  0.1000E-09  0.0000E+00  0.6631E+16
   -0.481233    0.89523  0.1291E-11  0.1219E-13  0.7603E-17  0.1000E-09  0.0000E+00  0.6366E+16
   -0.549982    1.02304  0.1291E-11  0.1219E-13  0.7603E-17  0.1000E-09  0.0000E+00  0.6107E+16
   -0.618732    1.15136  0.1290E-11  0.1219E-13  0.7603E-17  0.1000E-09  0.0000E+00  0.5854E+16
   -0.687482    1.28032  0.1290E-11  0.1219E-13  0.7603E-17  0.1000E-09  0.0000E+00  0.5611E+16
   -0.756233    1.41029  0.1290E-11  0.1219E-13  0.7603E-17  0.1000E-09  0.0000E+00  0.5373E+16
   -0.824984    1.54150  0.1290E-11  0.1219E-13  0.7603E-17  0.1000E-09  0.0000E+00  0.5132E+16
   -0.893735    1.67405  0.1290E-11  0.1275E-13  0.7603E-17  0.1000E-09  0.0000E+00  0.4885E+16
   -0.962487    1.80802  0.1290E-11  0.3852E-13  0.8029E-17  0.1000E-09  0.0000E+00  0.4632E+16
   -1.031239    1.94346  0.1289E-11  0.1176E-12  0.1470E-16  0.1000E-09  0.0000E+00  0.4372E+16
   -1.099991    2.08041  0.1287E-11  0.2957E-12  0.3287E-16  0.1000E-09  0.0000E+00  0.4102E+16
   -1.168743    2.21886  0.1284E-11  0.6961E-12  0.7409E-16  0.1000E-09  0.0000E+00  0.3823E+16
   -1.237495    2.35879  0.1279E-11  0.1598E-11  0.1652E-15  0.1000E-09  0.0000E+00  0.3535E+16
   -1.306247    2.50017  0.1274E-11  0.3622E-11  0.3645E-15  0.1000E-09  0.0000E+00  0.3235E+16
   -1.374999    2.64289  0.1269E-11  0.8119E-11  0.7956E-15  0.1000E-09  0.0000E+00  0.2928E+16
   -1.443751    2.78694  0.1264E-11  0.1801E-10  0.1718E-14  0.1000E-09  0.0000E+00  0.2610E+16
   -1.512504    2.93216  0.1261E-11  0.3952E-10  0.3671E-14  0.1000E-09  0.0000E+00  0.2281E+16
   -1.581256    3.07830  0.1259E-11  0.8577E-10  0.7758E-14  0.1000E-09  0.0000E+00  0.1943E+16
   -1.650008    3.22490  0.1257E-11  0.1841E-09  0.1621E-13  0.1000E-09  0.0000E+00  0.1595E+16
   -1.718760    3.37124  0.1256E-11  0.3905E-09  0.3349E-13  0.1380E-09  0.0000E+00  0.1244E+16
   -1.787511    3.51631  0.1255E-11  0.8376E-09  0.6994E-13  0.3910E-09  0.0000E+00  0.9081E+15
   -1.856263    3.66122  0.1254E-11  0.1807E-08  0.1470E-12  0.1281E-08  0.0000E+00  0.5801E+15
   -1.925014    3.80788  0.1252E-11  0.3870E-08  0.3070E-12  0.6567E-08  0.0000E+00  0.2394E+15
   -1.993765    3.96096  0.1252E-11  0.6006E-08  0.4808E-12  0.1021E-04  0.0000E+00  0.8788E+13
   -2.062516    4.00259  0.1252E-11  0.6631E-08  0.5365E-12  0.3281E-04  0.0000E+00 -0.1900E+12
   -2.131266    4.00339  0.1252E-11  0.6952E-08  0.5723E-12  0.3334E-04  0.0000E+00 -0.1954E+12
   -2.200016    4.00417  0.1252E-11  0.7205E-08  0.6100E-12  0.3301E-04  0.0000E+00 -0.2049E+12
   -2.268766    4.00494  0.1252E-11  0.7394E-08  0.6522E-12  0.3187E-04  0.0000E+00 -0.2201E+12
   -2.337515    4.00572  0.1252E-11  0.7523E-08  0.7041E-12  0.2976E-04  0.0000E+00 -0.2447E+12
   -2.406264    4.00655  0.1252E-11  0.7585E-08  0.7737E-12  0.2652E-04  0.0000E+00 -0.2855E+12
   -2.475012    4.00747  0.1252E-11  0.7558E-08  0.8786E-12  0.2195E-04  0.0000E+00 -0.3606E+12
   -2.543759    4.00858  0.1252E-11  0.7392E-08  0.1065E-11  0.1585E-04  0.0000E+00 -0.5282E+12
   -2.612506    4.01009  0.1252E-11  0.6921E-08  0.1521E-11  0.8319E-05  0.0000E+00 -0.1104E+13
   -2.681253    4.01296  0.1252E-11  0.4946E-08  0.4275E-11  0.1089E-05  0.0000E+00 -0.1168E+14
   -2.749998    4.03336  0.1252E-11  0.0000E+00  0.0000E+00  0.0000E+00  0.0000E+00  0.0000E+00
