 1 - depth, m
 2 - temperature, C
 3 - salinity, kg/kg
 4 - turbulent kinetic energy, m**2/s**2
 5 - dissipation rate, m**2/s**3
 6 - kinematic heat conductance, m**2/s
 7 - modulus of horizontal velocity, m/s
 8 - Richardson number, n/d
   -0.000000   -0.00000  0.2994E-10  0.1219E-13  0.7603E-17  0.1000E-09  0.0000E+00  0.6227E+16
   -0.068746    0.09462  0.1795E-10  0.1219E-13  0.7603E-17  0.1000E-09  0.0000E+00  0.6013E+16
   -0.137492    0.18837  0.1317E-10  0.1219E-13  0.7603E-17  0.1000E-09  0.0000E+00  0.5826E+16
   -0.206239    0.28162  0.1179E-10  0.1219E-13  0.7603E-17  0.1000E-09  0.0000E+00  0.5664E+16
   -0.274987    0.37473  0.1145E-10  0.1219E-13  0.7603E-17  0.1000E-09  0.0000E+00  0.5523E+16
   -0.343735    0.46805  0.1137E-10  0.1219E-13  0.7603E-17  0.1000E-09  0.0000E+00  0.5403E+16
   -0.412483    0.56195  0.1136E-10  0.1219E-13  0.7603E-17  0.1000E-09  0.0000E+00  0.5300E+16
   -0.481232    0.65678  0.1136E-10  0.1219E-13  0.7603E-17  0.1000E-09  0.0000E+00  0.5211E+16
   -0.549982    0.75289  0.1136E-10  0.1219E-13  0.7603E-17  0.1000E-09  0.0000E+00  0.5135E+16
   -0.618732    0.85063  0.1136E-10  0.1219E-13  0.7603E-17  0.1000E-09  0.0000E+00  0.5067E+16
   -0.687482    0.95033  0.1136E-10  0.1219E-13  0.7603E-17  0.1000E-09  0.0000E+00  0.5016E+16
   -0.756233    1.05255  0.1136E-10  0.1219E-13  0.7603E-17  0.1000E-09  0.0000E+00  0.4973E+16
   -0.824984    1.15771  0.1136E-10  0.1219E-13  0.7603E-17  0.1000E-09  0.0000E+00  0.4926E+16
   -0.893735    1.26609  0.1136E-10  0.1219E-13  0.7603E-17  0.1000E-09  0.0000E+00  0.4872E+16
   -0.962487    1.37791  0.1136E-10  0.1219E-13  0.7603E-17  0.1000E-09  0.0000E+00  0.4806E+16
   -1.031239    1.49335  0.1135E-10  0.1219E-13  0.7603E-17  0.1000E-09  0.0000E+00  0.4726E+16
   -1.099990    1.61257  0.1135E-10  0.1219E-13  0.7603E-17  0.1000E-09  0.0000E+00  0.4628E+16
   -1.168742    1.73567  0.1134E-10  0.1219E-13  0.7603E-17  0.1000E-09  0.0000E+00  0.4509E+16
   -1.237495    1.86272  0.1132E-10  0.3241E-13  0.7603E-17  0.1000E-09  0.0000E+00  0.4366E+16
   -1.306247    1.99374  0.1129E-10  0.1008E-12  0.1644E-16  0.1000E-09  0.0000E+00  0.4197E+16
   -1.374999    2.12870  0.1124E-10  0.2733E-12  0.4110E-16  0.1000E-09  0.0000E+00  0.4008E+16
   -1.443751    2.26776  0.1120E-10  0.7058E-12  0.1022E-15  0.1000E-09  0.0000E+00  0.3791E+16
   -1.512503    2.41086  0.1116E-10  0.1785E-11  0.2508E-15  0.1000E-09  0.0000E+00  0.3542E+16
   -1.581256    2.55784  0.1113E-10  0.4452E-11  0.6076E-15  0.1000E-09  0.0000E+00  0.3262E+16
   -1.650008    2.70847  0.1112E-10  0.1096E-10  0.1454E-14  0.1000E-09  0.0000E+00  0.2953E+16
   -1.718759    2.86246  0.1111E-10  0.2667E-10  0.3439E-14  0.1000E-09  0.0000E+00  0.2616E+16
   -1.787511    3.01956  0.1110E-10  0.6579E-10  0.8245E-14  0.1000E-09  0.0000E+00  0.2269E+16
   -1.856263    3.18074  0.1110E-10  0.1631E-09  0.1988E-13  0.1000E-09  0.0000E+00  0.1895E+16
   -1.925014    3.34616  0.1110E-10  0.4030E-09  0.4779E-13  0.1632E-09  0.0000E+00  0.1490E+16
   -1.993765    3.51597  0.1108E-10  0.9906E-09  0.1144E-12  0.5547E-09  0.0000E+00  0.1049E+16
   -2.062516    3.68945  0.1106E-10  0.2366E-08  0.2661E-12  0.2370E-08  0.0000E+00  0.5710E+15
   -2.131266    3.86192  0.1104E-10  0.5499E-08  0.6036E-12  0.2618E-07  0.0000E+00  0.1169E+15
   -2.200016    4.01020  0.1104E-10  0.6660E-08  0.7368E-12  0.2554E-04  0.0000E+00 -0.3679E+12
   -2.268766    4.01116  0.1104E-10  0.7115E-08  0.8057E-12  0.2576E-04  0.0000E+00 -0.3805E+12
   -2.337515    4.01212  0.1104E-10  0.7456E-08  0.8832E-12  0.2493E-04  0.0000E+00 -0.4104E+12
   -2.406263    4.01312  0.1104E-10  0.7687E-08  0.9800E-12  0.2294E-04  0.0000E+00 -0.4669E+12
   -2.475011    4.01420  0.1104E-10  0.7796E-08  0.1118E-11  0.1960E-04  0.0000E+00 -0.5762E+12
   -2.543759    4.01549  0.1104E-10  0.7735E-08  0.1355E-11  0.1468E-04  0.0000E+00 -0.8232E+12
   -2.612506    4.01724  0.1104E-10  0.7338E-08  0.1914E-11  0.8092E-05  0.0000E+00 -0.1668E+13
   -2.681252    4.02051  0.1104E-10  0.5479E-08  0.5098E-11  0.1238E-05  0.0000E+00 -0.1572E+14
   -2.749998    4.04268  0.1104E-10  0.0000E+00  0.0000E+00  0.0000E+00  0.0000E+00  0.0000E+00
