 1 - depth, m
 2 - temperature, C
 3 - salinity, kg/kg
 4 - turbulent kinetic energy, m**2/s**2
 5 - dissipation rate, m**2/s**3
 6 - kinematic heat conductance, m**2/s
 7 - modulus of horizontal velocity, m/s
 8 - Richardson number, n/d
   -0.000000   -0.00000  0.4808E-11  0.1219E-13  0.7603E-17  0.1000E-09  0.0000E+00  0.7980E+16
   -0.068746    0.12170  0.2887E-11  0.1219E-13  0.7603E-17  0.1000E-09  0.0000E+00  0.7660E+16
   -0.137492    0.24249  0.2078E-11  0.1219E-13  0.7603E-17  0.1000E-09  0.0000E+00  0.7364E+16
   -0.206239    0.36264  0.1793E-11  0.1219E-13  0.7603E-17  0.1000E-09  0.0000E+00  0.7087E+16
   -0.274987    0.48242  0.1708E-11  0.1219E-13  0.7603E-17  0.1000E-09  0.0000E+00  0.6829E+16
   -0.343735    0.60209  0.1685E-11  0.1219E-13  0.7603E-17  0.1000E-09  0.0000E+00  0.6586E+16
   -0.412483    0.72191  0.1680E-11  0.1219E-13  0.7603E-17  0.1000E-09  0.0000E+00  0.6357E+16
   -0.481232    0.84213  0.1679E-11  0.1219E-13  0.7603E-17  0.1000E-09  0.0000E+00  0.6138E+16
   -0.549982    0.96300  0.1679E-11  0.1219E-13  0.7603E-17  0.1000E-09  0.0000E+00  0.5927E+16
   -0.618732    1.08474  0.1679E-11  0.1219E-13  0.7603E-17  0.1000E-09  0.0000E+00  0.5722E+16
   -0.687482    1.20757  0.1679E-11  0.1219E-13  0.7603E-17  0.1000E-09  0.0000E+00  0.5529E+16
   -0.756233    1.33190  0.1678E-11  0.1219E-13  0.7603E-17  0.1000E-09  0.0000E+00  0.5340E+16
   -0.824984    1.45805  0.1678E-11  0.1219E-13  0.7603E-17  0.1000E-09  0.0000E+00  0.5146E+16
   -0.893735    1.58617  0.1678E-11  0.1219E-13  0.7603E-17  0.1000E-09  0.0000E+00  0.4945E+16
   -0.962487    1.71636  0.1678E-11  0.1929E-13  0.7603E-17  0.1000E-09  0.0000E+00  0.4734E+16
   -1.031238    1.84871  0.1677E-11  0.7455E-13  0.1151E-16  0.1000E-09  0.0000E+00  0.4512E+16
   -1.099990    1.98329  0.1675E-11  0.2027E-12  0.2593E-16  0.1000E-09  0.0000E+00  0.4277E+16
   -1.168742    2.12012  0.1671E-11  0.4951E-12  0.5994E-16  0.1000E-09  0.0000E+00  0.4028E+16
   -1.237495    2.25919  0.1666E-11  0.1167E-11  0.1368E-15  0.1000E-09  0.0000E+00  0.3764E+16
   -1.306247    2.40047  0.1659E-11  0.2705E-11  0.3084E-15  0.1000E-09  0.0000E+00  0.3485E+16
   -1.374999    2.54389  0.1652E-11  0.6194E-11  0.6877E-15  0.1000E-09  0.0000E+00  0.3193E+16
   -1.443751    2.68948  0.1645E-11  0.1404E-10  0.1518E-14  0.1000E-09  0.0000E+00  0.2885E+16
   -1.512503    2.83716  0.1641E-11  0.3148E-10  0.3317E-14  0.1000E-09  0.0000E+00  0.2561E+16
   -1.581256    2.98674  0.1638E-11  0.6992E-10  0.7179E-14  0.1000E-09  0.0000E+00  0.2222E+16
   -1.650008    3.13804  0.1636E-11  0.1538E-09  0.1539E-13  0.1000E-09  0.0000E+00  0.1870E+16
   -1.718759    3.29080  0.1635E-11  0.3350E-09  0.3270E-13  0.1104E-09  0.0000E+00  0.1507E+16
   -1.787511    3.44485  0.1633E-11  0.7401E-09  0.7043E-13  0.3116E-09  0.0000E+00  0.1150E+16
   -1.856263    3.60236  0.1631E-11  0.1648E-08  0.1530E-12  0.1014E-08  0.0000E+00  0.7679E+15
   -1.925014    3.76303  0.1629E-11  0.3657E-08  0.3314E-12  0.4670E-08  0.0000E+00  0.3609E+15
   -1.993765    3.92393  0.1628E-11  0.7593E-08  0.6768E-12  0.1331E-06  0.0000E+00  0.2553E+14
   -2.062516    4.01147  0.1628E-11  0.8524E-08  0.7642E-12  0.3971E-04  0.0000E+00 -0.2402E+12
   -2.131266    4.01208  0.1628E-11  0.8913E-08  0.8100E-12  0.3997E-04  0.0000E+00 -0.2443E+12
   -2.200016    4.01267  0.1628E-11  0.9217E-08  0.8583E-12  0.3935E-04  0.0000E+00 -0.2540E+12
   -2.268765    4.01328  0.1628E-11  0.9440E-08  0.9125E-12  0.3783E-04  0.0000E+00 -0.2706E+12
   -2.337515    4.01391  0.1628E-11  0.9589E-08  0.9797E-12  0.3523E-04  0.0000E+00 -0.2980E+12
   -2.406263    4.01460  0.1628E-11  0.9654E-08  0.1070E-11  0.3137E-04  0.0000E+00 -0.3440E+12
   -2.475011    4.01536  0.1628E-11  0.9611E-08  0.1207E-11  0.2601E-04  0.0000E+00 -0.4285E+12
   -2.543759    4.01629  0.1628E-11  0.9400E-08  0.1450E-11  0.1893E-04  0.0000E+00 -0.6138E+12
   -2.612506    4.01757  0.1628E-11  0.8825E-08  0.2041E-11  0.1010E-04  0.0000E+00 -0.1231E+13
   -2.681252    4.01999  0.1628E-11  0.6347E-08  0.5697E-11  0.1309E-05  0.0000E+00 -0.1205E+14
   -2.749998    4.03802  0.1628E-11  0.0000E+00  0.0000E+00  0.0000E+00  0.0000E+00  0.0000E+00
