 1 - depth, m
 2 - temperature, C
 3 - salinity, kg/kg
 4 - turbulent kinetic energy, m**2/s**2
 5 - dissipation rate, m**2/s**3
 6 - kinematic heat conductance, m**2/s
 7 - modulus of horizontal velocity, m/s
 8 - Richardson number, n/d
   -0.000000   -0.00000  0.2598E-12  0.1219E-13  0.7603E-17  0.1000E-09  0.0000E+00  0.7444E+16
   -0.068746    0.11339  0.7912E-12  0.1219E-13  0.7603E-17  0.1000E-09  0.0000E+00  0.7338E+16
   -0.137493    0.22875  0.1024E-11  0.1219E-13  0.7603E-17  0.1000E-09  0.0000E+00  0.7210E+16
   -0.206240    0.34589  0.1059E-11  0.1219E-13  0.7603E-17  0.1000E-09  0.0000E+00  0.7060E+16
   -0.274988    0.46460  0.1005E-11  0.1219E-13  0.7603E-17  0.1000E-09  0.0000E+00  0.6888E+16
   -0.343736    0.58465  0.9269E-12  0.1219E-13  0.7603E-17  0.1000E-09  0.0000E+00  0.6696E+16
   -0.412485    0.70582  0.8579E-12  0.1219E-13  0.7603E-17  0.1000E-09  0.0000E+00  0.6488E+16
   -0.481234    0.82790  0.8101E-12  0.1219E-13  0.7603E-17  0.1000E-09  0.0000E+00  0.6264E+16
   -0.549984    0.95069  0.7818E-12  0.1219E-13  0.7603E-17  0.1000E-09  0.0000E+00  0.6029E+16
   -0.618734    1.07402  0.7670E-12  0.1219E-13  0.7603E-17  0.1000E-09  0.0000E+00  0.5784E+16
   -0.687485    1.19771  0.7599E-12  0.1219E-13  0.7603E-17  0.1000E-09  0.0000E+00  0.5532E+16
   -0.756236    1.32165  0.7567E-12  0.1219E-13  0.7603E-17  0.1000E-09  0.0000E+00  0.5275E+16
   -0.824987    1.44570  0.7553E-12  0.1219E-13  0.7603E-17  0.1000E-09  0.0000E+00  0.5013E+16
   -0.893739    1.56975  0.7546E-12  0.1219E-13  0.7603E-17  0.1000E-09  0.0000E+00  0.4748E+16
   -0.962490    1.69369  0.7539E-12  0.1219E-13  0.7603E-17  0.1000E-09  0.0000E+00  0.4482E+16
   -1.031242    1.81743  0.7531E-12  0.1219E-13  0.7603E-17  0.1000E-09  0.0000E+00  0.4215E+16
   -1.099994    1.94089  0.7520E-12  0.1219E-13  0.7603E-17  0.1000E-09  0.0000E+00  0.3949E+16
   -1.168747    2.06399  0.7505E-12  0.1219E-13  0.7603E-17  0.1000E-09  0.0000E+00  0.3685E+16
   -1.237499    2.18667  0.7487E-12  0.1219E-13  0.7603E-17  0.1000E-09  0.0000E+00  0.3422E+16
   -1.306252    2.30889  0.7467E-12  0.1219E-13  0.7603E-17  0.1000E-09  0.0000E+00  0.3163E+16
   -1.375004    2.43059  0.7444E-12  0.1219E-13  0.7603E-17  0.1000E-09  0.0000E+00  0.2907E+16
   -1.443756    2.55177  0.7422E-12  0.1252E-13  0.7603E-17  0.1000E-09  0.0000E+00  0.2655E+16
   -1.512509    2.67240  0.7402E-12  0.6089E-13  0.1123E-16  0.1000E-09  0.0000E+00  0.2406E+16
   -1.581261    2.79249  0.7384E-12  0.1805E-12  0.2716E-16  0.1000E-09  0.0000E+00  0.2162E+16
   -1.650014    2.91203  0.7369E-12  0.4723E-12  0.6724E-16  0.1000E-09  0.0000E+00  0.1922E+16
   -1.718766    3.03103  0.7356E-12  0.1190E-11  0.1639E-15  0.1000E-09  0.0000E+00  0.1686E+16
   -1.787518    3.14944  0.7346E-12  0.3023E-11  0.4040E-15  0.1000E-09  0.0000E+00  0.1433E+16
   -1.856269    3.26547  0.7339E-12  0.7706E-11  0.1001E-14  0.1000E-09  0.0000E+00  0.1190E+16
   -1.925021    3.37868  0.7333E-12  0.1954E-10  0.2466E-14  0.1000E-09  0.0000E+00  0.9590E+15
   -1.993772    3.48847  0.7328E-12  0.4929E-10  0.6050E-14  0.1000E-09  0.0000E+00  0.7459E+15
   -2.062523    3.59480  0.7325E-12  0.1208E-09  0.1443E-13  0.1301E-09  0.0000E+00  0.5640E+15
   -2.131274    3.70054  0.7323E-12  0.2922E-09  0.3397E-13  0.4473E-09  0.0000E+00  0.3861E+15
   -2.200024    3.80588  0.7322E-12  0.6999E-09  0.7924E-13  0.1917E-08  0.0000E+00  0.2100E+15
   -2.268774    3.91013  0.7322E-12  0.1658E-08  0.1830E-12  0.2118E-07  0.0000E+00  0.4355E+14
   -2.337523    4.00205  0.7322E-12  0.2474E-08  0.2755E-12  0.9969E-05  0.0000E+00 -0.3808E+12
   -2.406272    4.00352  0.7322E-12  0.2788E-08  0.3258E-12  0.1005E-04  0.0000E+00 -0.4093E+12
   -2.475020    4.00498  0.7322E-12  0.2984E-08  0.3843E-12  0.9148E-05  0.0000E+00 -0.4840E+12
   -2.543768    4.00657  0.7322E-12  0.3050E-08  0.4706E-12  0.7148E-05  0.0000E+00 -0.6678E+12
   -2.612515    4.00857  0.7322E-12  0.2902E-08  0.6577E-12  0.3959E-05  0.0000E+00 -0.1321E+13
   -2.681262    4.01208  0.7322E-12  0.2071E-08  0.1579E-11  0.5747E-06  0.0000E+00 -0.1064E+14
   -2.750008    4.03129  0.7322E-12  0.0000E+00  0.0000E+00  0.0000E+00  0.0000E+00  0.0000E+00
