 1 - depth, m
 2 - temperature, C
 3 - salinity, kg/kg
 4 - turbulent kinetic energy, m**2/s**2
 5 - dissipation rate, m**2/s**3
 6 - kinematic heat conductance, m**2/s
 7 - modulus of horizontal velocity, m/s
 8 - Richardson number, n/d
   -0.000000   -0.00000  0.2591E-11  0.1219E-13  0.7603E-17  0.1000E-09  0.0000E+00  0.7094E+16
   -0.068746    0.10798  0.7307E-11  0.1219E-13  0.7603E-17  0.1000E-09  0.0000E+00  0.7009E+16
   -0.137493    0.21792  0.9182E-11  0.1219E-13  0.7603E-17  0.1000E-09  0.0000E+00  0.6900E+16
   -0.206240    0.32958  0.9364E-11  0.1219E-13  0.7603E-17  0.1000E-09  0.0000E+00  0.6766E+16
   -0.274988    0.44270  0.8818E-11  0.1219E-13  0.7603E-17  0.1000E-09  0.0000E+00  0.6611E+16
   -0.343736    0.55705  0.8099E-11  0.1219E-13  0.7603E-17  0.1000E-09  0.0000E+00  0.6437E+16
   -0.412485    0.67242  0.7492E-11  0.1219E-13  0.7603E-17  0.1000E-09  0.0000E+00  0.6247E+16
   -0.481234    0.78860  0.7082E-11  0.1219E-13  0.7603E-17  0.1000E-09  0.0000E+00  0.6045E+16
   -0.549984    0.90541  0.6844E-11  0.1219E-13  0.7603E-17  0.1000E-09  0.0000E+00  0.5831E+16
   -0.618734    1.02268  0.6722E-11  0.1219E-13  0.7603E-17  0.1000E-09  0.0000E+00  0.5609E+16
   -0.687485    1.14027  0.6665E-11  0.1219E-13  0.7603E-17  0.1000E-09  0.0000E+00  0.5380E+16
   -0.756236    1.25807  0.6639E-11  0.1219E-13  0.7603E-17  0.1000E-09  0.0000E+00  0.5147E+16
   -0.824987    1.37597  0.6628E-11  0.1219E-13  0.7603E-17  0.1000E-09  0.0000E+00  0.4910E+16
   -0.893739    1.49387  0.6622E-11  0.1219E-13  0.7603E-17  0.1000E-09  0.0000E+00  0.4670E+16
   -0.962490    1.61168  0.6616E-11  0.1219E-13  0.7603E-17  0.1000E-09  0.0000E+00  0.4429E+16
   -1.031242    1.72930  0.6608E-11  0.1219E-13  0.7603E-17  0.1000E-09  0.0000E+00  0.4187E+16
   -1.099995    1.84668  0.6598E-11  0.1219E-13  0.7603E-17  0.1000E-09  0.0000E+00  0.3946E+16
   -1.168747    1.96374  0.6584E-11  0.1219E-13  0.7603E-17  0.1000E-09  0.0000E+00  0.3706E+16
   -1.237499    2.08044  0.6568E-11  0.1219E-13  0.7603E-17  0.1000E-09  0.0000E+00  0.3467E+16
   -1.306252    2.19675  0.6549E-11  0.1219E-13  0.7603E-17  0.1000E-09  0.0000E+00  0.3231E+16
   -1.375004    2.31262  0.6529E-11  0.1219E-13  0.7603E-17  0.1000E-09  0.0000E+00  0.2999E+16
   -1.443757    2.42808  0.6510E-11  0.1219E-13  0.7603E-17  0.1000E-09  0.0000E+00  0.2770E+16
   -1.512509    2.54312  0.6492E-11  0.1219E-13  0.7603E-17  0.1000E-09  0.0000E+00  0.2544E+16
   -1.581262    2.65775  0.6477E-11  0.1219E-13  0.7603E-17  0.1000E-09  0.0000E+00  0.2322E+16
   -1.650014    2.77199  0.6464E-11  0.1219E-13  0.7603E-17  0.1000E-09  0.0000E+00  0.2103E+16
   -1.718766    2.88586  0.6455E-11  0.1219E-13  0.7603E-17  0.1000E-09  0.0000E+00  0.1886E+16
   -1.787518    2.99933  0.6447E-11  0.3671E-13  0.9924E-17  0.1000E-09  0.0000E+00  0.1655E+16
   -1.856270    3.11111  0.6441E-11  0.1293E-12  0.2912E-16  0.1000E-09  0.0000E+00  0.1429E+16
   -1.925021    3.22088  0.6436E-11  0.4254E-12  0.9109E-16  0.1000E-09  0.0000E+00  0.1210E+16
   -1.993773    3.32816  0.6432E-11  0.1366E-11  0.2825E-15  0.1000E-09  0.0000E+00  0.1003E+16
   -2.062524    3.43282  0.6428E-11  0.4226E-11  0.8456E-15  0.1000E-09  0.0000E+00  0.8238E+15
   -2.131274    3.53686  0.6426E-11  0.1285E-10  0.2489E-14  0.1000E-09  0.0000E+00  0.6492E+15
   -2.200024    3.64042  0.6424E-11  0.3857E-10  0.7237E-14  0.1000E-09  0.0000E+00  0.4773E+15
   -2.268774    3.74344  0.6423E-11  0.1154E-09  0.2099E-13  0.3451E-09  0.0000E+00  0.3080E+15
   -2.337524    3.84567  0.6423E-11  0.3477E-09  0.6133E-13  0.2172E-08  0.0000E+00  0.1424E+15
   -2.406273    3.94592  0.6423E-11  0.1010E-08  0.1738E-12  0.8632E-07  0.0000E+00  0.9000E+13
   -2.475021    4.00833  0.6423E-11  0.2026E-08  0.3578E-12  0.5243E-05  0.0000E+00 -0.9637E+12
   -2.543769    4.01096  0.6423E-11  0.2368E-08  0.4731E-12  0.4767E-05  0.0000E+00 -0.1175E+13
   -2.612516    4.01384  0.6423E-11  0.2409E-08  0.6603E-12  0.3013E-05  0.0000E+00 -0.2050E+13
   -2.681263    4.01824  0.6423E-11  0.1811E-08  0.1430E-11  0.5299E-06  0.0000E+00 -0.1266E+14
   -2.750009    4.03766  0.6423E-11  0.0000E+00  0.0000E+00  0.0000E+00  0.0000E+00  0.0000E+00
