 1 - depth, m
 2 - temperature, C
 3 - salinity, kg/kg
 4 - turbulent kinetic energy, m**2/s**2
 5 - dissipation rate, m**2/s**3
 6 - kinematic heat conductance, m**2/s
 7 - modulus of horizontal velocity, m/s
 8 - Richardson number, n/d
   -0.000000   -0.00000  0.2133E-11  0.1219E-13  0.7603E-17  0.1000E-09  0.0000E+00  0.8499E+16
   -0.068746    0.12975  0.1347E-11  0.1219E-13  0.7603E-17  0.1000E-09  0.0000E+00  0.8149E+16
   -0.137492    0.25869  0.9664E-12  0.1219E-13  0.7603E-17  0.1000E-09  0.0000E+00  0.7818E+16
   -0.206239    0.38701  0.8205E-12  0.1219E-13  0.7603E-17  0.1000E-09  0.0000E+00  0.7506E+16
   -0.274987    0.51495  0.7729E-12  0.1219E-13  0.7603E-17  0.1000E-09  0.0000E+00  0.7209E+16
   -0.343735    0.64271  0.7594E-12  0.1219E-13  0.7603E-17  0.1000E-09  0.0000E+00  0.6925E+16
   -0.412483    0.77050  0.7559E-12  0.1219E-13  0.7603E-17  0.1000E-09  0.0000E+00  0.6653E+16
   -0.481232    0.89852  0.7552E-12  0.1219E-13  0.7603E-17  0.1000E-09  0.0000E+00  0.6389E+16
   -0.549982    1.02696  0.7550E-12  0.1219E-13  0.7603E-17  0.1000E-09  0.0000E+00  0.6132E+16
   -0.618732    1.15599  0.7550E-12  0.1219E-13  0.7603E-17  0.1000E-09  0.0000E+00  0.5879E+16
   -0.687482    1.28577  0.7549E-12  0.1219E-13  0.7603E-17  0.1000E-09  0.0000E+00  0.5638E+16
   -0.756233    1.41666  0.7549E-12  0.1219E-13  0.7603E-17  0.1000E-09  0.0000E+00  0.5401E+16
   -0.824984    1.54893  0.7549E-12  0.1275E-13  0.7603E-17  0.1000E-09  0.0000E+00  0.5159E+16
   -0.893735    1.68265  0.7548E-12  0.6141E-13  0.9205E-17  0.1000E-09  0.0000E+00  0.4912E+16
   -0.962487    1.81793  0.7545E-12  0.1684E-12  0.1901E-16  0.1000E-09  0.0000E+00  0.4657E+16
   -1.031239    1.95481  0.7539E-12  0.3959E-12  0.4149E-16  0.1000E-09  0.0000E+00  0.4394E+16
   -1.099990    2.09332  0.7527E-12  0.8861E-12  0.8967E-16  0.1000E-09  0.0000E+00  0.4120E+16
   -1.168742    2.23346  0.7508E-12  0.1944E-11  0.1915E-15  0.1000E-09  0.0000E+00  0.3836E+16
   -1.237495    2.37520  0.7481E-12  0.4214E-11  0.4046E-15  0.1000E-09  0.0000E+00  0.3542E+16
   -1.306247    2.51848  0.7449E-12  0.9046E-11  0.8473E-15  0.1000E-09  0.0000E+00  0.3236E+16
   -1.374999    2.66324  0.7417E-12  0.1924E-10  0.1759E-14  0.1000E-09  0.0000E+00  0.2921E+16
   -1.443751    2.80946  0.7391E-12  0.4057E-10  0.3620E-14  0.1000E-09  0.0000E+00  0.2596E+16
   -1.512504    2.95706  0.7371E-12  0.8482E-10  0.7389E-14  0.1000E-09  0.0000E+00  0.2260E+16
   -1.581256    3.10586  0.7359E-12  0.1758E-09  0.1496E-13  0.1000E-09  0.0000E+00  0.1915E+16
   -1.650008    3.25568  0.7350E-12  0.3615E-09  0.3004E-13  0.1000E-09  0.0000E+00  0.1562E+16
   -1.718760    3.40629  0.7343E-12  0.7373E-09  0.5987E-13  0.2531E-09  0.0000E+00  0.1204E+16
   -1.787511    3.55740  0.7336E-12  0.1525E-08  0.1209E-12  0.7224E-09  0.0000E+00  0.8518E+15
   -1.856263    3.71096  0.7327E-12  0.3181E-08  0.2466E-12  0.2606E-08  0.0000E+00  0.4814E+15
   -1.925014    3.86567  0.7321E-12  0.6564E-08  0.4983E-12  0.2270E-07  0.0000E+00  0.1115E+15
   -1.993765    4.00454  0.7320E-12  0.7310E-08  0.5579E-12  0.3896E-04  0.0000E+00 -0.1722E+12
   -2.062516    4.00513  0.7320E-12  0.7630E-08  0.5894E-12  0.3959E-04  0.0000E+00 -0.1754E+12
   -2.131266    4.00571  0.7320E-12  0.7892E-08  0.6228E-12  0.3941E-04  0.0000E+00 -0.1817E+12
   -2.200016    4.00630  0.7320E-12  0.8097E-08  0.6594E-12  0.3845E-04  0.0000E+00 -0.1919E+12
   -2.268766    4.00691  0.7320E-12  0.8247E-08  0.7019E-12  0.3667E-04  0.0000E+00 -0.2076E+12
   -2.337515    4.00754  0.7320E-12  0.8342E-08  0.7557E-12  0.3387E-04  0.0000E+00 -0.2321E+12
   -2.406263    4.00823  0.7320E-12  0.8372E-08  0.8295E-12  0.2991E-04  0.0000E+00 -0.2724E+12
   -2.475012    4.00901  0.7320E-12  0.8316E-08  0.9422E-12  0.2455E-04  0.0000E+00 -0.3458E+12
   -2.543759    4.00996  0.7320E-12  0.8118E-08  0.1144E-11  0.1762E-04  0.0000E+00 -0.5078E+12
   -2.612506    4.01129  0.7320E-12  0.7602E-08  0.1640E-11  0.9193E-05  0.0000E+00 -0.1059E+13
   -2.681252    4.01387  0.7320E-12  0.5422E-08  0.4702E-11  0.1162E-05  0.0000E+00 -0.1133E+14
   -2.749998    4.03328  0.7320E-12  0.0000E+00  0.0000E+00  0.0000E+00  0.0000E+00  0.0000E+00
