 1 - depth, m
 2 - temperature, C
 3 - salinity, kg/kg
 4 - turbulent kinetic energy, m**2/s**2
 5 - dissipation rate, m**2/s**3
 6 - kinematic heat conductance, m**2/s
 7 - modulus of horizontal velocity, m/s
 8 - Richardson number, n/d
   -0.000000    8.85288  0.1478E-10  0.3402E-04  0.4426E-05  0.4243E-04  0.4847E-01 -0.7976E-02
   -0.068746    8.88186  0.1478E-10  0.2523E-04  0.1057E-05  0.9090E-04  0.2789E-01 -0.1751E-01
   -0.137492    8.89092  0.1478E-10  0.2284E-04  0.4795E-06  0.1429E-03  0.2249E-01 -0.2848E-01
   -0.206239    8.89650  0.1478E-10  0.2150E-04  0.2819E-06  0.1987E-03  0.1920E-01 -0.4020E-01
   -0.274987    8.90043  0.1478E-10  0.2060E-04  0.1930E-06  0.2570E-03  0.1688E-01 -0.5266E-01
   -0.343735    8.90339  0.1478E-10  0.1991E-04  0.1447E-06  0.3172E-03  0.1513E-01 -0.6580E-01
   -0.412484    8.90572  0.1478E-10  0.1936E-04  0.1149E-06  0.3790E-03  0.1373E-01 -0.7953E-01
   -0.481233    8.90761  0.1478E-10  0.1889E-04  0.9480E-07  0.4421E-03  0.1259E-01 -0.9376E-01
   -0.549983    8.90920  0.1478E-10  0.1848E-04  0.8047E-07  0.5066E-03  0.1163E-01 -0.1066E+00
   -0.618733    8.91054  0.1478E-10  0.1813E-04  0.6981E-07  0.5814E-03  0.1081E-01 -0.9114E-01
   -0.687483    8.91169  0.1478E-10  0.1782E-04  0.6165E-07  0.7335E-03  0.1009E-01  0.7352E+00
   -0.756234    8.91261  0.1478E-10  0.1756E-04  0.5532E-07  0.1130E-02  0.9458E-02  0.7524E+02
   -0.824985    8.91327  0.1478E-10  0.1734E-04  0.5031E-07  0.1300E-02  0.8906E-02  0.4749E+02
   -0.893737    8.91382  0.1478E-10  0.1714E-04  0.4618E-07  0.1460E-02  0.8386E-02  0.1842E+02
   -0.962488    8.91430  0.1478E-10  0.1696E-04  0.4273E-07  0.1550E-02  0.7899E-02  0.2492E+02
   -1.031240    8.91472  0.1478E-10  0.1680E-04  0.3981E-07  0.1658E-02  0.7434E-02  0.8766E+02
   -1.099992    8.91510  0.1478E-10  0.1664E-04  0.3732E-07  0.1733E-02  0.6989E-02  0.2803E+02
   -1.168744    8.91545  0.1478E-10  0.1649E-04  0.3516E-07  0.1826E-02  0.6559E-02  0.4386E+02
   -1.237496    8.91577  0.1478E-10  0.1633E-04  0.3329E-07  0.1896E-02  0.6143E-02  0.4665E+02
   -1.306249    8.91607  0.1478E-10  0.1617E-04  0.3164E-07  0.1969E-02  0.5736E-02  0.9355E+02
   -1.375001    8.91635  0.1478E-10  0.1600E-04  0.3018E-07  0.2008E-02  0.5337E-02  0.2206E+03
   -1.443753    8.91662  0.1478E-10  0.1581E-04  0.2887E-07  0.2051E-02  0.4944E-02  0.1502E+04
   -1.512506    8.91688  0.1478E-10  0.1560E-04  0.2769E-07  0.2058E-02  0.4555E-02  0.1387E+05
   -1.581258    8.91713  0.1478E-10  0.1537E-04  0.2662E-07  0.2057E-02  0.4169E-02  0.3886E+05
   -1.650010    8.91738  0.1478E-10  0.1512E-04  0.2563E-07  0.2055E-02  0.3784E-02  0.5579E+05
   -1.718762    8.91763  0.1478E-10  0.1482E-04  0.2470E-07  0.2025E-02  0.3400E-02  0.1796E+05
   -1.787514    8.91787  0.1478E-10  0.1448E-04  0.2378E-07  0.2044E-02  0.3012E-02  0.4245E+02
   -1.856265    8.91812  0.1478E-10  0.1410E-04  0.2291E-07  0.2036E-02  0.2669E-02  0.8253E+01
   -1.925017    8.91836  0.1478E-10  0.1368E-04  0.2211E-07  0.2027E-02  0.2362E-02  0.3550E+01
   -1.993768    8.91860  0.1478E-10  0.1324E-04  0.2141E-07  0.2014E-02  0.2091E-02  0.2175E+01
   -2.062519    8.91884  0.1478E-10  0.1280E-04  0.2090E-07  0.1992E-02  0.1849E-02  0.1681E+01
   -2.131269    8.91908  0.1478E-10  0.1237E-04  0.2058E-07  0.1964E-02  0.1624E-02  0.1331E+01
   -2.200019    8.91932  0.1478E-10  0.1196E-04  0.2051E-07  0.1939E-02  0.1416E-02  0.1067E+01
   -2.268769    8.91956  0.1478E-10  0.1157E-04  0.2073E-07  0.1933E-02  0.1222E-02  0.7969E+00
   -2.337518    8.91980  0.1478E-10  0.1119E-04  0.2132E-07  0.1831E-02  0.1049E-02  0.6192E+00
   -2.406267    8.92005  0.1478E-10  0.1083E-04  0.2237E-07  0.1574E-02  0.9004E-03  0.2114E+02
   -2.475015    8.92034  0.1478E-10  0.1048E-04  0.2408E-07  0.1307E-02  0.7741E-03  0.1845E+02
   -2.543763    8.92069  0.1478E-10  0.1010E-04  0.2721E-07  0.1068E-02  0.6688E-03  0.6882E+02
   -2.612510    8.92112  0.1478E-10  0.9496E-05  0.3568E-07  0.4780E-03  0.5649E-03  0.1826E+03
   -2.681256    8.92206  0.1478E-10  0.5810E-05  0.1324E-06  0.3224E-04  0.4330E-03 -0.7634E+04
   -2.750002    8.93550  0.1478E-10  0.0000E+00  0.0000E+00  0.0000E+00  0.4322E-03  0.0000E+00
