 1 - depth, m
 2 - temperature, C
 3 - salinity, kg/kg
 4 - turbulent kinetic energy, m**2/s**2
 5 - dissipation rate, m**2/s**3
 6 - kinematic heat conductance, m**2/s
 7 - modulus of horizontal velocity, m/s
 8 - Richardson number, n/d
   -0.000000   -0.00000  0.3164E-10  0.1219E-13  0.7603E-17  0.1000E-09  0.0000E+00  0.7800E+16
   -0.068746    0.11891  0.2038E-10  0.1219E-13  0.7603E-17  0.1000E-09  0.0000E+00  0.7502E+16
   -0.137492    0.23706  0.1468E-10  0.1219E-13  0.7603E-17  0.1000E-09  0.0000E+00  0.7218E+16
   -0.206239    0.35461  0.1242E-10  0.1219E-13  0.7603E-17  0.1000E-09  0.0000E+00  0.6948E+16
   -0.274987    0.47172  0.1166E-10  0.1219E-13  0.7603E-17  0.1000E-09  0.0000E+00  0.6691E+16
   -0.343735    0.58853  0.1143E-10  0.1219E-13  0.7603E-17  0.1000E-09  0.0000E+00  0.6444E+16
   -0.412483    0.70519  0.1137E-10  0.1219E-13  0.7603E-17  0.1000E-09  0.0000E+00  0.6207E+16
   -0.481232    0.82186  0.1136E-10  0.1219E-13  0.7603E-17  0.1000E-09  0.0000E+00  0.5977E+16
   -0.549982    0.93867  0.1136E-10  0.1219E-13  0.7603E-17  0.1000E-09  0.0000E+00  0.5754E+16
   -0.618732    1.05575  0.1136E-10  0.1219E-13  0.7603E-17  0.1000E-09  0.0000E+00  0.5536E+16
   -0.687482    1.17323  0.1136E-10  0.1219E-13  0.7603E-17  0.1000E-09  0.0000E+00  0.5330E+16
   -0.756233    1.29140  0.1136E-10  0.1219E-13  0.7603E-17  0.1000E-09  0.0000E+00  0.5129E+16
   -0.824984    1.41048  0.1136E-10  0.1219E-13  0.7603E-17  0.1000E-09  0.0000E+00  0.4927E+16
   -0.893735    1.53054  0.1135E-10  0.1219E-13  0.7603E-17  0.1000E-09  0.0000E+00  0.4723E+16
   -0.962487    1.65164  0.1135E-10  0.1219E-13  0.7603E-17  0.1000E-09  0.0000E+00  0.4514E+16
   -1.031239    1.77384  0.1135E-10  0.1219E-13  0.7603E-17  0.1000E-09  0.0000E+00  0.4301E+16
   -1.099991    1.89716  0.1134E-10  0.1219E-13  0.7603E-17  0.1000E-09  0.0000E+00  0.4082E+16
   -1.168743    2.02159  0.1132E-10  0.1219E-13  0.7603E-17  0.1000E-09  0.0000E+00  0.3856E+16
   -1.237495    2.14714  0.1130E-10  0.4839E-13  0.8451E-17  0.1000E-09  0.0000E+00  0.3624E+16
   -1.306247    2.27375  0.1126E-10  0.1381E-12  0.1807E-16  0.1000E-09  0.0000E+00  0.3384E+16
   -1.374999    2.40138  0.1122E-10  0.3422E-12  0.4164E-16  0.1000E-09  0.0000E+00  0.3140E+16
   -1.443751    2.53006  0.1118E-10  0.8097E-12  0.9510E-16  0.1000E-09  0.0000E+00  0.2890E+16
   -1.512504    2.65973  0.1115E-10  0.1879E-11  0.2144E-15  0.1000E-09  0.0000E+00  0.2632E+16
   -1.581256    2.79027  0.1113E-10  0.4303E-11  0.4780E-15  0.1000E-09  0.0000E+00  0.2367E+16
   -1.650008    2.92155  0.1112E-10  0.9748E-11  0.1055E-14  0.1000E-09  0.0000E+00  0.2096E+16
   -1.718760    3.05339  0.1111E-10  0.2186E-10  0.2303E-14  0.1000E-09  0.0000E+00  0.1821E+16
   -1.787511    3.18571  0.1110E-10  0.4968E-10  0.5100E-14  0.1000E-09  0.0000E+00  0.1559E+16
   -1.856263    3.31980  0.1109E-10  0.1138E-09  0.1138E-13  0.1000E-09  0.0000E+00  0.1287E+16
   -1.925014    3.45580  0.1108E-10  0.2602E-09  0.2537E-13  0.1284E-09  0.0000E+00  0.1005E+16
   -1.993765    3.59387  0.1107E-10  0.5931E-09  0.5639E-13  0.4045E-09  0.0000E+00  0.7093E+15
   -2.062516    3.73350  0.1105E-10  0.1317E-08  0.1222E-12  0.1558E-08  0.0000E+00  0.3989E+15
   -2.131266    3.87172  0.1104E-10  0.2871E-08  0.2602E-12  0.1298E-07  0.0000E+00  0.1017E+15
   -2.200016    3.99902  0.1104E-10  0.3641E-08  0.3326E-12  0.1631E-04  0.0000E+00 -0.2474E+12
   -2.268766    4.00021  0.1104E-10  0.3960E-08  0.3722E-12  0.1692E-04  0.0000E+00 -0.2598E+12
   -2.337515    4.00136  0.1104E-10  0.4207E-08  0.4168E-12  0.1666E-04  0.0000E+00 -0.2858E+12
   -2.406264    4.00252  0.1104E-10  0.4386E-08  0.4725E-12  0.1547E-04  0.0000E+00 -0.3331E+12
   -2.475012    4.00379  0.1104E-10  0.4486E-08  0.5515E-12  0.1323E-04  0.0000E+00 -0.4243E+12
   -2.543759    4.00527  0.1104E-10  0.4475E-08  0.6860E-12  0.9807E-05  0.0000E+00 -0.6344E+12
   -2.612506    4.00730  0.1104E-10  0.4242E-08  0.1005E-11  0.5232E-05  0.0000E+00 -0.1391E+13
   -2.681253    4.01117  0.1104E-10  0.3168E-08  0.2689E-11  0.8243E-06  0.0000E+00 -0.1391E+14
   -2.749998    4.03524  0.1104E-10  0.0000E+00  0.0000E+00  0.0000E+00  0.0000E+00  0.0000E+00
