 1 - depth, m
 2 - temperature, C
 3 - salinity, kg/kg
 4 - turbulent kinetic energy, m**2/s**2
 5 - dissipation rate, m**2/s**3
 6 - kinematic heat conductance, m**2/s
 7 - modulus of horizontal velocity, m/s
 8 - Richardson number, n/d
   -0.000000    9.37204  0.4275E-10  0.2070E-04  0.1426E-05  0.3436E-04  0.3496E-01 -0.1470E-01
   -0.068746    9.40752  0.4275E-10  0.1809E-04  0.4213E-06  0.8968E-04  0.2182E-01 -0.4138E-01
   -0.137492    9.41960  0.4275E-10  0.1710E-04  0.2248E-06  0.1489E-03  0.1758E-01 -0.6884E-01
   -0.206239    9.42669  0.4275E-10  0.1646E-04  0.1486E-06  0.2140E-03  0.1506E-01 -0.9923E-01
   -0.274987    9.43147  0.4275E-10  0.1598E-04  0.1093E-06  0.2860E-03  0.1333E-01 -0.1253E+00
   -0.343735    9.43494  0.4275E-10  0.1561E-04  0.8577E-07  0.3879E-03  0.1204E-01  0.1732E+02
   -0.412484    9.43750  0.4275E-10  0.1532E-04  0.7045E-07  0.5432E-03  0.1105E-01  0.2349E+02
   -0.481233    9.43939  0.4275E-10  0.1510E-04  0.5994E-07  0.7621E-03  0.1026E-01  0.8200E+02
   -0.549983    9.44076  0.4275E-10  0.1495E-04  0.5240E-07  0.9884E-03  0.9607E-02  0.3146E+02
   -0.618733    9.44177  0.4275E-10  0.1485E-04  0.4676E-07  0.1211E-02  0.9041E-02  0.2824E+02
   -0.687483    9.44253  0.4275E-10  0.1479E-04  0.4240E-07  0.1418E-02  0.8534E-02  0.3515E+02
   -0.756234    9.44313  0.4275E-10  0.1475E-04  0.3887E-07  0.1508E-02  0.8065E-02  0.1348E+02
   -0.824985    9.44368  0.4275E-10  0.1473E-04  0.3591E-07  0.1560E-02  0.7614E-02  0.1516E+02
   -0.893737    9.44420  0.4275E-10  0.1471E-04  0.3340E-07  0.1614E-02  0.7182E-02  0.1668E+02
   -0.962488    9.44469  0.4275E-10  0.1469E-04  0.3125E-07  0.1664E-02  0.6765E-02  0.1830E+02
   -1.031240    9.44516  0.4275E-10  0.1466E-04  0.2941E-07  0.1711E-02  0.6362E-02  0.2015E+02
   -1.099992    9.44561  0.4275E-10  0.1462E-04  0.2780E-07  0.1754E-02  0.5970E-02  0.2234E+02
   -1.168744    9.44603  0.4275E-10  0.1456E-04  0.2639E-07  0.1794E-02  0.5588E-02  0.2503E+02
   -1.237496    9.44644  0.4275E-10  0.1449E-04  0.2515E-07  0.1829E-02  0.5214E-02  0.2853E+02
   -1.306249    9.44684  0.4275E-10  0.1440E-04  0.2405E-07  0.1858E-02  0.4848E-02  0.3334E+02
   -1.375001    9.44721  0.4275E-10  0.1428E-04  0.2307E-07  0.1882E-02  0.4486E-02  0.4051E+02
   -1.443753    9.44758  0.4275E-10  0.1414E-04  0.2219E-07  0.1898E-02  0.4129E-02  0.5247E+02
   -1.512506    9.44794  0.4275E-10  0.1397E-04  0.2140E-07  0.1906E-02  0.3775E-02  0.7640E+02
   -1.581258    9.44829  0.4275E-10  0.1377E-04  0.2068E-07  0.1903E-02  0.3424E-02  0.1461E+03
   -1.650010    9.44863  0.4275E-10  0.1353E-04  0.2001E-07  0.1896E-02  0.3072E-02  0.1022E+04
   -1.718762    9.44897  0.4275E-10  0.1326E-04  0.1940E-07  0.1864E-02  0.2722E-02  0.1355E+05
   -1.787514    9.44931  0.4275E-10  0.1292E-04  0.1880E-07  0.1871E-02  0.2368E-02  0.1829E+02
   -1.856265    9.44964  0.4275E-10  0.1255E-04  0.1825E-07  0.1862E-02  0.2061E-02  0.6043E+01
   -1.925017    9.44998  0.4275E-10  0.1215E-04  0.1779E-07  0.1860E-02  0.1791E-02  0.3103E+01
   -1.993768    9.45031  0.4275E-10  0.1172E-04  0.1746E-07  0.1864E-02  0.1560E-02  0.2048E+01
   -2.062519    9.45063  0.4275E-10  0.1130E-04  0.1730E-07  0.1862E-02  0.1358E-02  0.1619E+01
   -2.131269    9.45096  0.4275E-10  0.1090E-04  0.1735E-07  0.1840E-02  0.1177E-02  0.1301E+01
   -2.200019    9.45128  0.4275E-10  0.1051E-04  0.1764E-07  0.1805E-02  0.1012E-02  0.1055E+01
   -2.268769    9.45160  0.4275E-10  0.1015E-04  0.1821E-07  0.1746E-02  0.8641E-03  0.8075E+00
   -2.337518    9.45194  0.4275E-10  0.9815E-05  0.1913E-07  0.1579E-02  0.7362E-03  0.6030E+00
   -2.406267    9.45230  0.4275E-10  0.9508E-05  0.2047E-07  0.1390E-02  0.6296E-03  0.4616E+00
   -2.475015    9.45271  0.4275E-10  0.9227E-05  0.2240E-07  0.1206E-02  0.5433E-03  0.4293E+00
   -2.543763    9.45318  0.4275E-10  0.8938E-05  0.2551E-07  0.1166E-02  0.4739E-03  0.6538E+00
   -2.612510    9.45366  0.4275E-10  0.8458E-05  0.3451E-07  0.6124E-03  0.4165E-03  0.2350E+04
   -2.681256    9.45502  0.4275E-10  0.5209E-05  0.1429E-06  0.4336E-04  0.3152E-03 -0.2063E+05
   -2.750002    9.46818  0.4275E-10  0.0000E+00  0.0000E+00  0.0000E+00  0.3221E-03  0.0000E+00
