 1 - depth, m
 2 - temperature, C
 3 - salinity, kg/kg
 4 - turbulent kinetic energy, m**2/s**2
 5 - dissipation rate, m**2/s**3
 6 - kinematic heat conductance, m**2/s
 7 - modulus of horizontal velocity, m/s
 8 - Richardson number, n/d
   -0.000000   -0.00000  0.4275E-10  0.1219E-13  0.7603E-17  0.1000E-09  0.0000E+00  0.7843E+16
   -0.068746    0.11957  0.2691E-10  0.1219E-13  0.7603E-17  0.1000E-09  0.0000E+00  0.7538E+16
   -0.137492    0.23833  0.1928E-10  0.1219E-13  0.7603E-17  0.1000E-09  0.0000E+00  0.7250E+16
   -0.206239    0.35645  0.1636E-10  0.1219E-13  0.7603E-17  0.1000E-09  0.0000E+00  0.6976E+16
   -0.274987    0.47410  0.1541E-10  0.1219E-13  0.7603E-17  0.1000E-09  0.0000E+00  0.6716E+16
   -0.343735    0.59144  0.1513E-10  0.1219E-13  0.7603E-17  0.1000E-09  0.0000E+00  0.6467E+16
   -0.412483    0.70866  0.1506E-10  0.1219E-13  0.7603E-17  0.1000E-09  0.0000E+00  0.6229E+16
   -0.481232    0.82589  0.1505E-10  0.1219E-13  0.7603E-17  0.1000E-09  0.0000E+00  0.5999E+16
   -0.549982    0.94330  0.1504E-10  0.1219E-13  0.7603E-17  0.1000E-09  0.0000E+00  0.5776E+16
   -0.618732    1.06102  0.1504E-10  0.1219E-13  0.7603E-17  0.1000E-09  0.0000E+00  0.5557E+16
   -0.687482    1.17918  0.1504E-10  0.1219E-13  0.7603E-17  0.1000E-09  0.0000E+00  0.5351E+16
   -0.756233    1.29810  0.1504E-10  0.1219E-13  0.7603E-17  0.1000E-09  0.0000E+00  0.5150E+16
   -0.824984    1.41798  0.1504E-10  0.1219E-13  0.7603E-17  0.1000E-09  0.0000E+00  0.4947E+16
   -0.893735    1.53892  0.1504E-10  0.1219E-13  0.7603E-17  0.1000E-09  0.0000E+00  0.4741E+16
   -0.962487    1.66097  0.1504E-10  0.1219E-13  0.7603E-17  0.1000E-09  0.0000E+00  0.4531E+16
   -1.031239    1.78418  0.1503E-10  0.1219E-13  0.7603E-17  0.1000E-09  0.0000E+00  0.4315E+16
   -1.099990    1.90855  0.1501E-10  0.1219E-13  0.7603E-17  0.1000E-09  0.0000E+00  0.4093E+16
   -1.168743    2.03408  0.1497E-10  0.1219E-13  0.7603E-17  0.1000E-09  0.0000E+00  0.3863E+16
   -1.237495    2.16076  0.1493E-10  0.4623E-13  0.8599E-17  0.1000E-09  0.0000E+00  0.3627E+16
   -1.306247    2.28852  0.1487E-10  0.1347E-12  0.1910E-16  0.1000E-09  0.0000E+00  0.3382E+16
   -1.374999    2.41728  0.1480E-10  0.3442E-12  0.4557E-16  0.1000E-09  0.0000E+00  0.3133E+16
   -1.443751    2.54708  0.1475E-10  0.8420E-12  0.1077E-15  0.1000E-09  0.0000E+00  0.2876E+16
   -1.512504    2.67783  0.1471E-10  0.2021E-11  0.2510E-15  0.1000E-09  0.0000E+00  0.2612E+16
   -1.581256    2.80938  0.1468E-10  0.4788E-11  0.5784E-15  0.1000E-09  0.0000E+00  0.2341E+16
   -1.650008    2.94158  0.1467E-10  0.1121E-10  0.1318E-14  0.1000E-09  0.0000E+00  0.2065E+16
   -1.718760    3.07423  0.1466E-10  0.2597E-10  0.2971E-14  0.1000E-09  0.0000E+00  0.1785E+16
   -1.787511    3.20721  0.1465E-10  0.6099E-10  0.6791E-14  0.1000E-09  0.0000E+00  0.1519E+16
   -1.856263    3.34188  0.1464E-10  0.1442E-09  0.1563E-13  0.1000E-09  0.0000E+00  0.1243E+16
   -1.925014    3.47832  0.1463E-10  0.3400E-09  0.3590E-13  0.1908E-09  0.0000E+00  0.9574E+15
   -1.993765    3.61663  0.1461E-10  0.7986E-09  0.8218E-13  0.6347E-09  0.0000E+00  0.6585E+15
   -2.062516    3.75611  0.1459E-10  0.1824E-08  0.1831E-12  0.2675E-08  0.0000E+00  0.3479E+15
   -2.131266    3.89310  0.1459E-10  0.4050E-08  0.3974E-12  0.3101E-07  0.0000E+00  0.6483E+14
   -2.200016    4.00675  0.1459E-10  0.4971E-08  0.4915E-12  0.2149E-04  0.0000E+00 -0.2947E+12
   -2.268766    4.00765  0.1459E-10  0.5335E-08  0.5405E-12  0.2171E-04  0.0000E+00 -0.3051E+12
   -2.337515    4.00854  0.1459E-10  0.5608E-08  0.5951E-12  0.2101E-04  0.0000E+00 -0.3298E+12
   -2.406263    4.00947  0.1459E-10  0.5793E-08  0.6630E-12  0.1930E-04  0.0000E+00 -0.3766E+12
   -2.475012    4.01048  0.1459E-10  0.5879E-08  0.7597E-12  0.1642E-04  0.0000E+00 -0.4679E+12
   -2.543759    4.01169  0.1459E-10  0.5827E-08  0.9254E-12  0.1219E-04  0.0000E+00 -0.6767E+12
   -2.612506    4.01334  0.1459E-10  0.5502E-08  0.1321E-11  0.6573E-05  0.0000E+00 -0.1410E+13
   -2.681252    4.01648  0.1459E-10  0.4041E-08  0.3526E-11  0.9749E-06  0.0000E+00 -0.1384E+14
   -2.749998    4.03806  0.1459E-10  0.0000E+00  0.0000E+00  0.0000E+00  0.0000E+00  0.0000E+00
