 1 - depth, m
 2 - temperature, C
 3 - salinity, kg/kg
 4 - turbulent kinetic energy, m**2/s**2
 5 - dissipation rate, m**2/s**3
 6 - kinematic heat conductance, m**2/s
 7 - modulus of horizontal velocity, m/s
 8 - Richardson number, n/d
   -0.000000    8.89513  0.1256E-11  0.3455E-04  0.9044E-05  0.4099E-04  0.4877E-01 -0.1439E-01
   -0.068746    8.92495  0.1256E-11  0.2572E-04  0.3885E-05  0.8993E-04  0.2817E-01 -0.1774E-01
   -0.137492    8.93422  0.1256E-11  0.2315E-04  0.2109E-05  0.1414E-03  0.2270E-01 -0.2891E-01
   -0.206239    8.93998  0.1256E-11  0.2156E-04  0.7873E-06  0.1971E-03  0.1935E-01 -0.4083E-01
   -0.274987    8.94407  0.1256E-11  0.2057E-04  0.3109E-06  0.2555E-03  0.1696E-01 -0.5359E-01
   -0.343735    8.94714  0.1256E-11  0.1987E-04  0.1740E-06  0.3165E-03  0.1516E-01 -0.6701E-01
   -0.412484    8.94952  0.1256E-11  0.1931E-04  0.1230E-06  0.3790E-03  0.1374E-01 -0.8142E-01
   -0.481233    8.95144  0.1256E-11  0.1884E-04  0.9742E-07  0.4429E-03  0.1259E-01 -0.9622E-01
   -0.549983    8.95305  0.1256E-11  0.1844E-04  0.8148E-07  0.5084E-03  0.1163E-01 -0.1086E+00
   -0.618733    8.95441  0.1256E-11  0.1809E-04  0.7030E-07  0.5881E-03  0.1081E-01 -0.7767E-01
   -0.687483    8.95556  0.1256E-11  0.1779E-04  0.6194E-07  0.7720E-03  0.1009E-01  0.1207E+03
   -0.756234    8.95646  0.1256E-11  0.1754E-04  0.5553E-07  0.1155E-02  0.9464E-02  0.4491E+02
   -0.824985    8.95712  0.1256E-11  0.1733E-04  0.5047E-07  0.1319E-02  0.8912E-02  0.1448E+03
   -0.893737    8.95767  0.1256E-11  0.1714E-04  0.4630E-07  0.1469E-02  0.8393E-02  0.2766E+02
   -0.962488    8.95814  0.1256E-11  0.1697E-04  0.4283E-07  0.1555E-02  0.7906E-02  0.1842E+02
   -1.031240    8.95857  0.1256E-11  0.1681E-04  0.3990E-07  0.1666E-02  0.7440E-02  0.2259E+02
   -1.099992    8.95895  0.1256E-11  0.1666E-04  0.3740E-07  0.1758E-02  0.6995E-02  0.3362E+02
   -1.168744    8.95930  0.1256E-11  0.1651E-04  0.3524E-07  0.1833E-02  0.6565E-02  0.3394E+02
   -1.237496    8.95963  0.1256E-11  0.1635E-04  0.3336E-07  0.1894E-02  0.6147E-02  0.7808E+02
   -1.306249    8.95994  0.1256E-11  0.1619E-04  0.3170E-07  0.1950E-02  0.5739E-02  0.6993E+02
   -1.375001    8.96023  0.1256E-11  0.1602E-04  0.3023E-07  0.2010E-02  0.5338E-02  0.1614E+03
   -1.443753    8.96050  0.1256E-11  0.1584E-04  0.2892E-07  0.2034E-02  0.4944E-02  0.4504E+03
   -1.512506    8.96077  0.1256E-11  0.1563E-04  0.2774E-07  0.2049E-02  0.4554E-02  0.4436E+04
   -1.581258    8.96103  0.1256E-11  0.1540E-04  0.2667E-07  0.2052E-02  0.4167E-02  0.1333E+06
   -1.650010    8.96128  0.1256E-11  0.1515E-04  0.2568E-07  0.2051E-02  0.3781E-02  0.4173E+05
   -1.718762    8.96153  0.1256E-11  0.1485E-04  0.2475E-07  0.2020E-02  0.3396E-02  0.1743E+05
   -1.787514    8.96178  0.1256E-11  0.1451E-04  0.2383E-07  0.2039E-02  0.3007E-02  0.6846E+02
   -1.856265    8.96203  0.1256E-11  0.1412E-04  0.2295E-07  0.2030E-02  0.2663E-02  0.8308E+01
   -1.925017    8.96227  0.1256E-11  0.1370E-04  0.2215E-07  0.2021E-02  0.2355E-02  0.3574E+01
   -1.993768    8.96252  0.1256E-11  0.1326E-04  0.2146E-07  0.2008E-02  0.2084E-02  0.2191E+01
   -2.062519    8.96276  0.1256E-11  0.1282E-04  0.2094E-07  0.1986E-02  0.1841E-02  0.1694E+01
   -2.131269    8.96301  0.1256E-11  0.1239E-04  0.2064E-07  0.1959E-02  0.1617E-02  0.1341E+01
   -2.200019    8.96325  0.1256E-11  0.1197E-04  0.2057E-07  0.1935E-02  0.1408E-02  0.1076E+01
   -2.268769    8.96350  0.1256E-11  0.1158E-04  0.2080E-07  0.1929E-02  0.1215E-02  0.8044E+00
   -2.337518    8.96374  0.1256E-11  0.1119E-04  0.2140E-07  0.1828E-02  0.1043E-02  0.6015E+00
   -2.406267    8.96399  0.1256E-11  0.1084E-04  0.2247E-07  0.1594E-02  0.8938E-03  0.3693E+02
   -2.475015    8.96429  0.1256E-11  0.1049E-04  0.2419E-07  0.1321E-02  0.7687E-03  0.1422E+01
   -2.543763    8.96464  0.1256E-11  0.1012E-04  0.2732E-07  0.1089E-02  0.6646E-03  0.8566E+02
   -2.612510    8.96507  0.1256E-11  0.9515E-05  0.3579E-07  0.4879E-03  0.5628E-03  0.2549E+03
   -2.681256    8.96600  0.1256E-11  0.5829E-05  0.1330E-06  0.3232E-04  0.4323E-03 -0.7166E+04
   -2.750002    8.97952  0.1256E-11  0.0000E+00  0.0000E+00  0.0000E+00  0.4315E-03  0.0000E+00
