 1 - depth, m
 2 - temperature, C
 3 - salinity, kg/kg
 4 - turbulent kinetic energy, m**2/s**2
 5 - dissipation rate, m**2/s**3
 6 - kinematic heat conductance, m**2/s
 7 - modulus of horizontal velocity, m/s
 8 - Richardson number, n/d
   -0.000000   -0.00000  0.3041E-10  0.1219E-13  0.7603E-17  0.1000E-09  0.0000E+00  0.6516E+16
   -0.068746    0.09907  0.1820E-10  0.1219E-13  0.7603E-17  0.1000E-09  0.0000E+00  0.6273E+16
   -0.137492    0.19705  0.1335E-10  0.1219E-13  0.7603E-17  0.1000E-09  0.0000E+00  0.6061E+16
   -0.206239    0.29435  0.1185E-10  0.1219E-13  0.7603E-17  0.1000E-09  0.0000E+00  0.5876E+16
   -0.274987    0.39136  0.1147E-10  0.1219E-13  0.7603E-17  0.1000E-09  0.0000E+00  0.5716E+16
   -0.343735    0.48847  0.1138E-10  0.1219E-13  0.7603E-17  0.1000E-09  0.0000E+00  0.5576E+16
   -0.412483    0.58604  0.1136E-10  0.1219E-13  0.7603E-17  0.1000E-09  0.0000E+00  0.5454E+16
   -0.481232    0.68442  0.1136E-10  0.1219E-13  0.7603E-17  0.1000E-09  0.0000E+00  0.5346E+16
   -0.549982    0.78396  0.1136E-10  0.1219E-13  0.7603E-17  0.1000E-09  0.0000E+00  0.5248E+16
   -0.618732    0.88496  0.1136E-10  0.1219E-13  0.7603E-17  0.1000E-09  0.0000E+00  0.5158E+16
   -0.687482    0.98771  0.1136E-10  0.1219E-13  0.7603E-17  0.1000E-09  0.0000E+00  0.5084E+16
   -0.756233    1.09275  0.1136E-10  0.1219E-13  0.7603E-17  0.1000E-09  0.0000E+00  0.5016E+16
   -0.824984    1.20045  0.1136E-10  0.1219E-13  0.7603E-17  0.1000E-09  0.0000E+00  0.4944E+16
   -0.893735    1.31105  0.1136E-10  0.1219E-13  0.7603E-17  0.1000E-09  0.0000E+00  0.4864E+16
   -0.962486    1.42473  0.1136E-10  0.1219E-13  0.7603E-17  0.1000E-09  0.0000E+00  0.4774E+16
   -1.031238    1.54166  0.1135E-10  0.1219E-13  0.7603E-17  0.1000E-09  0.0000E+00  0.4669E+16
   -1.099990    1.66196  0.1135E-10  0.1219E-13  0.7603E-17  0.1000E-09  0.0000E+00  0.4548E+16
   -1.168742    1.78570  0.1134E-10  0.1219E-13  0.7603E-17  0.1000E-09  0.0000E+00  0.4408E+16
   -1.237494    1.91295  0.1132E-10  0.3473E-13  0.7603E-17  0.1000E-09  0.0000E+00  0.4247E+16
   -1.306246    2.04370  0.1129E-10  0.1054E-12  0.1689E-16  0.1000E-09  0.0000E+00  0.4063E+16
   -1.374999    2.17791  0.1124E-10  0.2830E-12  0.4214E-16  0.1000E-09  0.0000E+00  0.3861E+16
   -1.443751    2.31572  0.1119E-10  0.7271E-12  0.1044E-15  0.1000E-09  0.0000E+00  0.3634E+16
   -1.512503    2.45706  0.1115E-10  0.1832E-11  0.2552E-15  0.1000E-09  0.0000E+00  0.3380E+16
   -1.581255    2.60175  0.1113E-10  0.4550E-11  0.6159E-15  0.1000E-09  0.0000E+00  0.3099E+16
   -1.650007    2.74956  0.1112E-10  0.1116E-10  0.1469E-14  0.1000E-09  0.0000E+00  0.2792E+16
   -1.718759    2.90022  0.1111E-10  0.2707E-10  0.3462E-14  0.1000E-09  0.0000E+00  0.2463E+16
   -1.787511    3.05347  0.1110E-10  0.6652E-10  0.8271E-14  0.1000E-09  0.0000E+00  0.2130E+16
   -1.856262    3.21050  0.1110E-10  0.1644E-09  0.1988E-13  0.1000E-09  0.0000E+00  0.1773E+16
   -1.925013    3.37145  0.1109E-10  0.4047E-09  0.4763E-13  0.1746E-09  0.0000E+00  0.1388E+16
   -1.993764    3.53645  0.1108E-10  0.9917E-09  0.1136E-12  0.5961E-09  0.0000E+00  0.9697E+15
   -2.062515    3.70471  0.1106E-10  0.2360E-08  0.2635E-12  0.2580E-08  0.0000E+00  0.5193E+15
   -2.131265    3.87134  0.1104E-10  0.5456E-08  0.5947E-12  0.3045E-07  0.0000E+00  0.9891E+14
   -2.200015    4.01088  0.1104E-10  0.6602E-08  0.7251E-12  0.2560E-04  0.0000E+00 -0.3633E+12
   -2.268765    4.01180  0.1104E-10  0.7049E-08  0.7925E-12  0.2579E-04  0.0000E+00 -0.3754E+12
   -2.337514    4.01272  0.1104E-10  0.7384E-08  0.8680E-12  0.2493E-04  0.0000E+00 -0.4044E+12
   -2.406263    4.01368  0.1104E-10  0.7609E-08  0.9621E-12  0.2292E-04  0.0000E+00 -0.4594E+12
   -2.475011    4.01474  0.1104E-10  0.7713E-08  0.1097E-11  0.1957E-04  0.0000E+00 -0.5661E+12
   -2.543758    4.01598  0.1104E-10  0.7647E-08  0.1326E-11  0.1464E-04  0.0000E+00 -0.8072E+12
   -2.612505    4.01767  0.1104E-10  0.7248E-08  0.1871E-11  0.8058E-05  0.0000E+00 -0.1632E+13
   -2.681251    4.02083  0.1104E-10  0.5388E-08  0.4979E-11  0.1217E-05  0.0000E+00 -0.1537E+14
   -2.749997    4.04248  0.1104E-10  0.0000E+00  0.0000E+00  0.0000E+00  0.0000E+00  0.0000E+00
