 1 - depth, m
 2 - temperature, C
 3 - salinity, kg/kg
 4 - turbulent kinetic energy, m**2/s**2
 5 - dissipation rate, m**2/s**3
 6 - kinematic heat conductance, m**2/s
 7 - modulus of horizontal velocity, m/s
 8 - Richardson number, n/d
   -0.000000    0.00000  0.0000E+00  0.1218E-13  0.7603E-17  0.1000E-09  0.0000E+00  0.5650E+16
   -0.068747    0.08574  0.7868E-12  0.1218E-13  0.7603E-17  0.1000E-09  0.0000E+00  0.6029E+16
   -0.137495    0.17951  0.2068E-11  0.1218E-13  0.7603E-17  0.1000E-09  0.0000E+00  0.6194E+16
   -0.206244    0.27848  0.3131E-11  0.1218E-13  0.7603E-17  0.1000E-09  0.0000E+00  0.6223E+16
   -0.274993    0.38082  0.3683E-11  0.1218E-13  0.7603E-17  0.1000E-09  0.0000E+00  0.6174E+16
   -0.343743    0.48551  0.3791E-11  0.1218E-13  0.7603E-17  0.1000E-09  0.0000E+00  0.6082E+16
   -0.412493    0.59197  0.3652E-11  0.1218E-13  0.7603E-17  0.1000E-09  0.0000E+00  0.5963E+16
   -0.481244    0.69991  0.3434E-11  0.1218E-13  0.7603E-17  0.1000E-09  0.0000E+00  0.5828E+16
   -0.549995    0.80913  0.3234E-11  0.1218E-13  0.7603E-17  0.1000E-09  0.0000E+00  0.5679E+16
   -0.618747    0.91951  0.3088E-11  0.1218E-13  0.7603E-17  0.1000E-09  0.0000E+00  0.5518E+16
   -0.687499    1.03093  0.2995E-11  0.1218E-13  0.7603E-17  0.1000E-09  0.0000E+00  0.5347E+16
   -0.756251    1.14326  0.2943E-11  0.1218E-13  0.7603E-17  0.1000E-09  0.0000E+00  0.5166E+16
   -0.825004    1.25641  0.2915E-11  0.1218E-13  0.7603E-17  0.1000E-09  0.0000E+00  0.4978E+16
   -0.893757    1.37027  0.2902E-11  0.1218E-13  0.7603E-17  0.1000E-09  0.0000E+00  0.4782E+16
   -0.962510    1.48475  0.2895E-11  0.1218E-13  0.7603E-17  0.1000E-09  0.0000E+00  0.4581E+16
   -1.031263    1.59978  0.2891E-11  0.1218E-13  0.7603E-17  0.1000E-09  0.0000E+00  0.4374E+16
   -1.100017    1.71526  0.2887E-11  0.1218E-13  0.7603E-17  0.1000E-09  0.0000E+00  0.4163E+16
   -1.168770    1.83114  0.2883E-11  0.1218E-13  0.7603E-17  0.1000E-09  0.0000E+00  0.3948E+16
   -1.237524    1.94733  0.2877E-11  0.1218E-13  0.7603E-17  0.1000E-09  0.0000E+00  0.3730E+16
   -1.306278    2.06378  0.2870E-11  0.1218E-13  0.7603E-17  0.1000E-09  0.0000E+00  0.3510E+16
   -1.375032    2.18043  0.2862E-11  0.1218E-13  0.7603E-17  0.1000E-09  0.0000E+00  0.3289E+16
   -1.443786    2.29728  0.2854E-11  0.1218E-13  0.7603E-17  0.1000E-09  0.0000E+00  0.3068E+16
   -1.512539    2.41431  0.2845E-11  0.1218E-13  0.7603E-17  0.1000E-09  0.0000E+00  0.2847E+16
   -1.581293    2.53155  0.2837E-11  0.1218E-13  0.7603E-17  0.1000E-09  0.0000E+00  0.2629E+16
   -1.650047    2.64912  0.2830E-11  0.1218E-13  0.7603E-17  0.1000E-09  0.0000E+00  0.2416E+16
   -1.718800    2.76733  0.2824E-11  0.1218E-13  0.7603E-17  0.1000E-09  0.0000E+00  0.2208E+16
   -1.787554    2.88670  0.2819E-11  0.1513E-13  0.7603E-17  0.1000E-09  0.0000E+00  0.1939E+16
   -1.856307    3.00363  0.2815E-11  0.6588E-13  0.1579E-16  0.1000E-09  0.0000E+00  0.1680E+16
   -1.925060    3.11783  0.2812E-11  0.2273E-12  0.4845E-16  0.1000E-09  0.0000E+00  0.1427E+16
   -1.993813    3.22840  0.2810E-11  0.7331E-12  0.1497E-15  0.1000E-09  0.0000E+00  0.1191E+16
   -2.062565    3.33516  0.2807E-11  0.2257E-11  0.4453E-15  0.1000E-09  0.0000E+00  0.1011E+16
   -2.131317    3.44212  0.2806E-11  0.6817E-11  0.1301E-14  0.1000E-09  0.0000E+00  0.8325E+15
   -2.200068    3.54964  0.2805E-11  0.2031E-10  0.3754E-14  0.1000E-09  0.0000E+00  0.6536E+15
   -2.268820    3.65805  0.2804E-11  0.6032E-10  0.1079E-13  0.1201E-09  0.0000E+00  0.4714E+15
   -2.337570    3.76755  0.2804E-11  0.1804E-09  0.3128E-13  0.5615E-09  0.0000E+00  0.2859E+15
   -2.406321    3.87920  0.2803E-11  0.5386E-09  0.9060E-13  0.5229E-08  0.0000E+00  0.8988E+14
   -2.475070    3.99273  0.2803E-11  0.1256E-08  0.2103E-12  0.2903E-05  0.0000E+00 -0.8062E+12
   -2.543820    3.99854  0.2803E-11  0.1607E-08  0.3131E-12  0.3261E-05  0.0000E+00 -0.1111E+13
   -2.612568    4.00342  0.2803E-11  0.1730E-08  0.4715E-12  0.2254E-05  0.0000E+00 -0.2070E+13
   -2.681316    4.00992  0.2803E-11  0.1352E-08  0.1022E-11  0.4311E-06  0.0000E+00 -0.1209E+14
   -2.750064    4.03215  0.2803E-11  0.0000E+00  0.0000E+00  0.0000E+00  0.0000E+00  0.0000E+00
