 1 - depth, m
 2 - temperature, C
 3 - salinity, kg/kg
 4 - turbulent kinetic energy, m**2/s**2
 5 - dissipation rate, m**2/s**3
 6 - kinematic heat conductance, m**2/s
 7 - modulus of horizontal velocity, m/s
 8 - Richardson number, n/d
   -0.000000   -0.00000  0.2063E-11  0.1219E-13  0.7603E-17  0.1000E-09  0.0000E+00  0.6714E+16
   -0.068746    0.10211  0.1190E-11  0.1219E-13  0.7603E-17  0.1000E-09  0.0000E+00  0.6473E+16
   -0.137492    0.20335  0.8709E-12  0.1219E-13  0.7603E-17  0.1000E-09  0.0000E+00  0.6263E+16
   -0.206239    0.30412  0.7820E-12  0.1219E-13  0.7603E-17  0.1000E-09  0.0000E+00  0.6080E+16
   -0.274987    0.40484  0.7606E-12  0.1219E-13  0.7603E-17  0.1000E-09  0.0000E+00  0.5924E+16
   -0.343735    0.50594  0.7560E-12  0.1219E-13  0.7603E-17  0.1000E-09  0.0000E+00  0.5790E+16
   -0.412483    0.60787  0.7551E-12  0.1219E-13  0.7603E-17  0.1000E-09  0.0000E+00  0.5677E+16
   -0.481233    0.71106  0.7550E-12  0.1219E-13  0.7603E-17  0.1000E-09  0.0000E+00  0.5580E+16
   -0.549982    0.81595  0.7550E-12  0.1219E-13  0.7603E-17  0.1000E-09  0.0000E+00  0.5495E+16
   -0.618732    0.92295  0.7549E-12  0.1219E-13  0.7603E-17  0.1000E-09  0.0000E+00  0.5419E+16
   -0.687483    1.03245  0.7549E-12  0.1219E-13  0.7603E-17  0.1000E-09  0.0000E+00  0.5359E+16
   -0.756233    1.14510  0.7549E-12  0.1219E-13  0.7603E-17  0.1000E-09  0.0000E+00  0.5305E+16
   -0.824984    1.26143  0.7549E-12  0.1219E-13  0.7603E-17  0.1000E-09  0.0000E+00  0.5243E+16
   -0.893736    1.38174  0.7549E-12  0.2992E-13  0.7603E-17  0.1000E-09  0.0000E+00  0.5168E+16
   -0.962487    1.50630  0.7548E-12  0.9536E-13  0.1152E-16  0.1000E-09  0.0000E+00  0.5077E+16
   -1.031239    1.63536  0.7546E-12  0.2329E-12  0.2360E-16  0.1000E-09  0.0000E+00  0.4965E+16
   -1.099991    1.76911  0.7539E-12  0.5181E-12  0.4963E-16  0.1000E-09  0.0000E+00  0.4826E+16
   -1.168743    1.90768  0.7525E-12  0.1114E-11  0.1033E-15  0.1000E-09  0.0000E+00  0.4659E+16
   -1.237495    2.05119  0.7501E-12  0.2355E-11  0.2128E-15  0.1000E-09  0.0000E+00  0.4459E+16
   -1.306247    2.19967  0.7466E-12  0.4927E-11  0.4342E-15  0.1000E-09  0.0000E+00  0.4225E+16
   -1.374999    2.35313  0.7427E-12  0.1021E-10  0.8780E-15  0.1000E-09  0.0000E+00  0.3960E+16
   -1.443752    2.51183  0.7394E-12  0.2097E-10  0.1760E-14  0.1000E-09  0.0000E+00  0.3658E+16
   -1.512504    2.67582  0.7372E-12  0.4271E-10  0.3501E-14  0.1000E-09  0.0000E+00  0.3314E+16
   -1.581256    2.84506  0.7359E-12  0.8629E-10  0.6908E-14  0.1000E-09  0.0000E+00  0.2929E+16
   -1.650008    3.01953  0.7352E-12  0.1729E-09  0.1352E-13  0.1000E-09  0.0000E+00  0.2502E+16
   -1.718760    3.19915  0.7347E-12  0.3438E-09  0.2627E-13  0.1000E-09  0.0000E+00  0.2033E+16
   -1.787512    3.38388  0.7342E-12  0.6932E-09  0.5175E-13  0.1702E-09  0.0000E+00  0.1547E+16
   -1.856263    3.57764  0.7335E-12  0.1412E-08  0.1030E-12  0.5348E-09  0.0000E+00  0.9800E+15
   -1.925015    3.78008  0.7324E-12  0.2875E-08  0.2052E-12  0.3126E-08  0.0000E+00  0.3338E+15
   -1.993766    3.98764  0.7317E-12  0.3603E-08  0.2589E-12  0.1180E-04  0.0000E+00 -0.1063E+12
   -2.062516    3.99024  0.7317E-12  0.4002E-08  0.2961E-12  0.1665E-04  0.0000E+00 -0.1403E+12
   -2.131267    3.99209  0.7317E-12  0.4355E-08  0.3360E-12  0.1942E-04  0.0000E+00 -0.1628E+12
   -2.200017    3.99367  0.7317E-12  0.4666E-08  0.3797E-12  0.2090E-04  0.0000E+00 -0.1864E+12
   -2.268766    3.99514  0.7317E-12  0.4937E-08  0.4293E-12  0.2131E-04  0.0000E+00 -0.2159E+12
   -2.337515    3.99658  0.7317E-12  0.5170E-08  0.4898E-12  0.2065E-04  0.0000E+00 -0.2572E+12
   -2.406264    3.99807  0.7317E-12  0.5356E-08  0.5687E-12  0.1888E-04  0.0000E+00 -0.3215E+12
   -2.475012    3.99970  0.7317E-12  0.5477E-08  0.6828E-12  0.1592E-04  0.0000E+00 -0.4363E+12
   -2.543760    4.00164  0.7317E-12  0.5492E-08  0.8770E-12  0.1167E-04  0.0000E+00 -0.6922E+12
   -2.612507    4.00429  0.7317E-12  0.5272E-08  0.1331E-11  0.6219E-05  0.0000E+00 -0.1600E+13
   -2.681253    4.00928  0.7317E-12  0.4081E-08  0.3716E-11  0.1024E-05  0.0000E+00 -0.1662E+14
   -2.749999    4.03779  0.7317E-12  0.0000E+00  0.0000E+00  0.0000E+00  0.0000E+00  0.0000E+00
