 1 - depth, m
 2 - temperature, C
 3 - salinity, kg/kg
 4 - turbulent kinetic energy, m**2/s**2
 5 - dissipation rate, m**2/s**3
 6 - kinematic heat conductance, m**2/s
 7 - modulus of horizontal velocity, m/s
 8 - Richardson number, n/d
   -0.000000   -0.00000  0.3523E-11  0.1219E-13  0.7603E-17  0.1000E-09  0.0000E+00  0.6079E+16
   -0.068746    0.09233  0.1938E-11  0.1219E-13  0.7603E-17  0.1000E-09  0.0000E+00  0.5844E+16
   -0.137492    0.18335  0.1450E-11  0.1219E-13  0.7603E-17  0.1000E-09  0.0000E+00  0.5651E+16
   -0.206239    0.27363  0.1325E-11  0.1219E-13  0.7603E-17  0.1000E-09  0.0000E+00  0.5496E+16
   -0.274986    0.36373  0.1297E-11  0.1219E-13  0.7603E-17  0.1000E-09  0.0000E+00  0.5375E+16
   -0.343735    0.45421  0.1292E-11  0.1219E-13  0.7603E-17  0.1000E-09  0.0000E+00  0.5283E+16
   -0.412483    0.54559  0.1291E-11  0.1219E-13  0.7603E-17  0.1000E-09  0.0000E+00  0.5215E+16
   -0.481232    0.63840  0.1290E-11  0.1219E-13  0.7603E-17  0.1000E-09  0.0000E+00  0.5169E+16
   -0.549982    0.73316  0.1290E-11  0.1219E-13  0.7603E-17  0.1000E-09  0.0000E+00  0.5140E+16
   -0.618732    0.83035  0.1290E-11  0.1219E-13  0.7603E-17  0.1000E-09  0.0000E+00  0.5122E+16
   -0.687482    0.93045  0.1290E-11  0.1219E-13  0.7603E-17  0.1000E-09  0.0000E+00  0.5126E+16
   -0.756233    1.03420  0.1290E-11  0.1219E-13  0.7603E-17  0.1000E-09  0.0000E+00  0.5139E+16
   -0.824984    1.14220  0.1290E-11  0.1219E-13  0.7603E-17  0.1000E-09  0.0000E+00  0.5146E+16
   -0.893735    1.25484  0.1290E-11  0.1219E-13  0.7603E-17  0.1000E-09  0.0000E+00  0.5142E+16
   -0.962486    1.37247  0.1290E-11  0.1219E-13  0.7603E-17  0.1000E-09  0.0000E+00  0.5122E+16
   -1.031238    1.49540  0.1290E-11  0.4794E-13  0.8939E-17  0.1000E-09  0.0000E+00  0.5079E+16
   -1.099990    1.62388  0.1289E-11  0.1402E-12  0.2017E-16  0.1000E-09  0.0000E+00  0.5009E+16
   -1.168742    1.75813  0.1287E-11  0.3599E-12  0.4850E-16  0.1000E-09  0.0000E+00  0.4905E+16
   -1.237494    1.89828  0.1284E-11  0.8860E-12  0.1154E-15  0.1000E-09  0.0000E+00  0.4764E+16
   -1.306246    2.04441  0.1278E-11  0.2141E-11  0.2709E-15  0.1000E-09  0.0000E+00  0.4581E+16
   -1.374998    2.19650  0.1271E-11  0.5109E-11  0.6289E-15  0.1000E-09  0.0000E+00  0.4360E+16
   -1.443750    2.35481  0.1265E-11  0.1205E-10  0.1444E-14  0.1000E-09  0.0000E+00  0.4091E+16
   -1.512503    2.51927  0.1261E-11  0.2813E-10  0.3282E-14  0.1000E-09  0.0000E+00  0.3770E+16
   -1.581255    2.68962  0.1259E-11  0.6498E-10  0.7382E-14  0.1000E-09  0.0000E+00  0.3395E+16
   -1.650007    2.86552  0.1258E-11  0.1485E-09  0.1644E-13  0.1000E-09  0.0000E+00  0.2970E+16
   -1.718759    3.04653  0.1257E-11  0.3362E-09  0.3627E-13  0.1000E-09  0.0000E+00  0.2497E+16
   -1.787510    3.23223  0.1256E-11  0.7719E-09  0.8113E-13  0.2059E-09  0.0000E+00  0.2006E+16
   -1.856262    3.42486  0.1256E-11  0.1786E-08  0.1829E-12  0.6409E-09  0.0000E+00  0.1453E+16
   -1.925013    3.62422  0.1254E-11  0.4117E-08  0.4115E-12  0.2505E-08  0.0000E+00  0.8360E+15
   -1.993764    3.82872  0.1252E-11  0.9342E-08  0.9125E-12  0.2449E-07  0.0000E+00  0.1896E+15
   -2.062515    4.01216  0.1251E-11  0.1045E-07  0.1026E-11  0.4343E-04  0.0000E+00 -0.2857E+12
   -2.131265    4.01285  0.1251E-11  0.1090E-07  0.1086E-11  0.4385E-04  0.0000E+00 -0.2913E+12
   -2.200015    4.01354  0.1251E-11  0.1126E-07  0.1150E-11  0.4331E-04  0.0000E+00 -0.3035E+12
   -2.268764    4.01425  0.1251E-11  0.1153E-07  0.1222E-11  0.4175E-04  0.0000E+00 -0.3241E+12
   -2.337513    4.01498  0.1251E-11  0.1171E-07  0.1313E-11  0.3898E-04  0.0000E+00 -0.3579E+12
   -2.406262    4.01576  0.1251E-11  0.1180E-07  0.1436E-11  0.3481E-04  0.0000E+00 -0.4142E+12
   -2.475010    4.01665  0.1251E-11  0.1176E-07  0.1622E-11  0.2899E-04  0.0000E+00 -0.5172E+12
   -2.543758    4.01772  0.1251E-11  0.1152E-07  0.1951E-11  0.2124E-04  0.0000E+00 -0.7419E+12
   -2.612504    4.01919  0.1251E-11  0.1087E-07  0.2747E-11  0.1150E-04  0.0000E+00 -0.1484E+13
   -2.681251    4.02196  0.1251E-11  0.7984E-08  0.7672E-11  0.1577E-05  0.0000E+00 -0.1442E+14
   -2.749996    4.04210  0.1251E-11  0.0000E+00  0.0000E+00  0.0000E+00  0.0000E+00  0.0000E+00
