 1 - depth, m
 2 - temperature, C
 3 - salinity, kg/kg
 4 - turbulent kinetic energy, m**2/s**2
 5 - dissipation rate, m**2/s**3
 6 - kinematic heat conductance, m**2/s
 7 - modulus of horizontal velocity, m/s
 8 - Richardson number, n/d
   -0.000000   -0.00000  0.3841E-18  0.1219E-13  0.7603E-17  0.1000E-09  0.0000E+00  0.4625E+16
   -0.068746    0.07004  0.0000E+00  0.1219E-13  0.7603E-17  0.1000E-09  0.0000E+00  0.4764E+16
   -0.137494    0.14361  0.2469E-13  0.1219E-13  0.7603E-17  0.1000E-09  0.0000E+00  0.4888E+16
   -0.206241    0.22068  0.1908E-12  0.1219E-13  0.7603E-17  0.1000E-09  0.0000E+00  0.5001E+16
   -0.274989    0.30132  0.4531E-12  0.1219E-13  0.7603E-17  0.1000E-09  0.0000E+00  0.5104E+16
   -0.343738    0.38560  0.7044E-12  0.1219E-13  0.7603E-17  0.1000E-09  0.0000E+00  0.5192E+16
   -0.412488    0.47354  0.8719E-12  0.1219E-13  0.7603E-17  0.1000E-09  0.0000E+00  0.5261E+16
   -0.481237    0.56509  0.9431E-12  0.1219E-13  0.7603E-17  0.1000E-09  0.0000E+00  0.5306E+16
   -0.549988    0.66013  0.9432E-12  0.1219E-13  0.7603E-17  0.1000E-09  0.0000E+00  0.5325E+16
   -0.618738    0.75849  0.9071E-12  0.1219E-13  0.7603E-17  0.1000E-09  0.0000E+00  0.5317E+16
   -0.687490    0.85994  0.8620E-12  0.1219E-13  0.7603E-17  0.1000E-09  0.0000E+00  0.5275E+16
   -0.756241    0.96415  0.8227E-12  0.1219E-13  0.7603E-17  0.1000E-09  0.0000E+00  0.5204E+16
   -0.824993    1.07078  0.7942E-12  0.1219E-13  0.7603E-17  0.1000E-09  0.0000E+00  0.5108E+16
   -0.893745    1.17960  0.7761E-12  0.1219E-13  0.7603E-17  0.1000E-09  0.0000E+00  0.4991E+16
   -0.962497    1.29037  0.7655E-12  0.1219E-13  0.7603E-17  0.1000E-09  0.0000E+00  0.4856E+16
   -1.031249    1.40290  0.7598E-12  0.1219E-13  0.7603E-17  0.1000E-09  0.0000E+00  0.4705E+16
   -1.100002    1.51704  0.7568E-12  0.1219E-13  0.7603E-17  0.1000E-09  0.0000E+00  0.4541E+16
   -1.168755    1.63268  0.7551E-12  0.1219E-13  0.7603E-17  0.1000E-09  0.0000E+00  0.4367E+16
   -1.237508    1.74975  0.7540E-12  0.1219E-13  0.7603E-17  0.1000E-09  0.0000E+00  0.4185E+16
   -1.306260    1.86824  0.7529E-12  0.1219E-13  0.7603E-17  0.1000E-09  0.0000E+00  0.3996E+16
   -1.375013    1.98817  0.7516E-12  0.1219E-13  0.7603E-17  0.1000E-09  0.0000E+00  0.3803E+16
   -1.443766    2.10965  0.7501E-12  0.1219E-13  0.7603E-17  0.1000E-09  0.0000E+00  0.3604E+16
   -1.512519    2.23277  0.7483E-12  0.1219E-13  0.7603E-17  0.1000E-09  0.0000E+00  0.3399E+16
   -1.581272    2.35767  0.7463E-12  0.1219E-13  0.7603E-17  0.1000E-09  0.0000E+00  0.3188E+16
   -1.650025    2.48447  0.7442E-12  0.1219E-13  0.7603E-17  0.1000E-09  0.0000E+00  0.2969E+16
   -1.718778    2.61334  0.7422E-12  0.1219E-13  0.7603E-17  0.1000E-09  0.0000E+00  0.2738E+16
   -1.787530    2.74424  0.7402E-12  0.1219E-13  0.7603E-17  0.1000E-09  0.0000E+00  0.2408E+16
   -1.856282    2.87231  0.7385E-12  0.1219E-13  0.7603E-17  0.1000E-09  0.0000E+00  0.2082E+16
   -1.925034    2.99660  0.7371E-12  0.2182E-13  0.8099E-17  0.1000E-09  0.0000E+00  0.1762E+16
   -1.993786    3.11578  0.7359E-12  0.8700E-13  0.2755E-16  0.1000E-09  0.0000E+00  0.1472E+16
   -2.062537    3.22983  0.7349E-12  0.3376E-12  0.1020E-15  0.1000E-09  0.0000E+00  0.1268E+16
   -2.131288    3.34429  0.7341E-12  0.1277E-11  0.3713E-15  0.1000E-09  0.0000E+00  0.1067E+16
   -2.200039    3.45980  0.7334E-12  0.4742E-11  0.1329E-14  0.1000E-09  0.0000E+00  0.8621E+15
   -2.268789    3.57648  0.7330E-12  0.1748E-10  0.4724E-14  0.1000E-09  0.0000E+00  0.6498E+15
   -2.337539    3.69397  0.7326E-12  0.6466E-10  0.1686E-13  0.1969E-09  0.0000E+00  0.4330E+15
   -2.406289    3.81198  0.7324E-12  0.2381E-09  0.6002E-13  0.1415E-08  0.0000E+00  0.2132E+15
   -2.475037    3.92948  0.7323E-12  0.8579E-09  0.2101E-12  0.5129E-07  0.0000E+00  0.1842E+14
   -2.543786    4.01608  0.7323E-12  0.2192E-08  0.5517E-12  0.4025E-05  0.0000E+00 -0.1964E+13
   -2.612533    4.02003  0.7323E-12  0.2454E-08  0.7726E-12  0.2947E-05  0.0000E+00 -0.2837E+13
   -2.681280    4.02503  0.7323E-12  0.1831E-08  0.1480E-11  0.5230E-06  0.0000E+00 -0.1325E+14
   -2.750027    4.04281  0.7323E-12  0.0000E+00  0.0000E+00  0.0000E+00  0.0000E+00  0.0000E+00
