 1 - depth, m
 2 - temperature, C
 3 - salinity, kg/kg
 4 - turbulent kinetic energy, m**2/s**2
 5 - dissipation rate, m**2/s**3
 6 - kinematic heat conductance, m**2/s
 7 - modulus of horizontal velocity, m/s
 8 - Richardson number, n/d
   -0.000000   -0.00000  0.1432E-10  0.1219E-13  0.7603E-17  0.1000E-09  0.0000E+00  0.8205E+16
   -0.068746    0.12518  0.8942E-11  0.1219E-13  0.7603E-17  0.1000E-09  0.0000E+00  0.7874E+16
   -0.137492    0.24953  0.6405E-11  0.1219E-13  0.7603E-17  0.1000E-09  0.0000E+00  0.7564E+16
   -0.206239    0.37327  0.5453E-11  0.1219E-13  0.7603E-17  0.1000E-09  0.0000E+00  0.7271E+16
   -0.274987    0.49662  0.5150E-11  0.1219E-13  0.7603E-17  0.1000E-09  0.0000E+00  0.6993E+16
   -0.343735    0.61977  0.5065E-11  0.1219E-13  0.7603E-17  0.1000E-09  0.0000E+00  0.6729E+16
   -0.412483    0.74295  0.5044E-11  0.1219E-13  0.7603E-17  0.1000E-09  0.0000E+00  0.6476E+16
   -0.481232    0.86634  0.5039E-11  0.1219E-13  0.7603E-17  0.1000E-09  0.0000E+00  0.6232E+16
   -0.549982    0.99014  0.5038E-11  0.1219E-13  0.7603E-17  0.1000E-09  0.0000E+00  0.5995E+16
   -0.618732    1.11452  0.5038E-11  0.1219E-13  0.7603E-17  0.1000E-09  0.0000E+00  0.5762E+16
   -0.687482    1.23964  0.5038E-11  0.1219E-13  0.7603E-17  0.1000E-09  0.0000E+00  0.5542E+16
   -0.756233    1.36588  0.5038E-11  0.1219E-13  0.7603E-17  0.1000E-09  0.0000E+00  0.5326E+16
   -0.824984    1.49348  0.5037E-11  0.1219E-13  0.7603E-17  0.1000E-09  0.0000E+00  0.5106E+16
   -0.893735    1.62255  0.5036E-11  0.1219E-13  0.7603E-17  0.1000E-09  0.0000E+00  0.4881E+16
   -0.962487    1.75319  0.5034E-11  0.1953E-13  0.7603E-17  0.1000E-09  0.0000E+00  0.4649E+16
   -1.031239    1.88545  0.5030E-11  0.7502E-13  0.1141E-16  0.1000E-09  0.0000E+00  0.4408E+16
   -1.099990    2.01936  0.5022E-11  0.2028E-12  0.2549E-16  0.1000E-09  0.0000E+00  0.4158E+16
   -1.168742    2.15492  0.5008E-11  0.4920E-12  0.5850E-16  0.1000E-09  0.0000E+00  0.3897E+16
   -1.237495    2.29213  0.4989E-11  0.1151E-11  0.1326E-15  0.1000E-09  0.0000E+00  0.3626E+16
   -1.306247    2.43093  0.4967E-11  0.2650E-11  0.2968E-15  0.1000E-09  0.0000E+00  0.3343E+16
   -1.374999    2.57125  0.4945E-11  0.6027E-11  0.6574E-15  0.1000E-09  0.0000E+00  0.3052E+16
   -1.443751    2.71310  0.4927E-11  0.1356E-10  0.1441E-14  0.1000E-09  0.0000E+00  0.2749E+16
   -1.512503    2.85640  0.4915E-11  0.3022E-10  0.3129E-14  0.1000E-09  0.0000E+00  0.2436E+16
   -1.581256    3.00098  0.4907E-11  0.6668E-10  0.6731E-14  0.1000E-09  0.0000E+00  0.2113E+16
   -1.650008    3.14666  0.4901E-11  0.1457E-09  0.1434E-13  0.1000E-09  0.0000E+00  0.1781E+16
   -1.718760    3.29322  0.4898E-11  0.3155E-09  0.3029E-13  0.1068E-09  0.0000E+00  0.1443E+16
   -1.787511    3.44052  0.4894E-11  0.6927E-09  0.6484E-13  0.2961E-09  0.0000E+00  0.1114E+16
   -1.856263    3.59048  0.4889E-11  0.1533E-08  0.1400E-12  0.9291E-09  0.0000E+00  0.7669E+15
   -1.925014    3.74287  0.4884E-11  0.3385E-08  0.3018E-12  0.3829E-08  0.0000E+00  0.4008E+15
   -1.993765    3.89558  0.4882E-11  0.7251E-08  0.6335E-12  0.5380E-07  0.0000E+00  0.5962E+14
   -2.062516    4.01134  0.4882E-11  0.8146E-08  0.7157E-12  0.3863E-04  0.0000E+00 -0.2305E+12
   -2.131266    4.01192  0.4882E-11  0.8515E-08  0.7584E-12  0.3887E-04  0.0000E+00 -0.2345E+12
   -2.200016    4.01250  0.4882E-11  0.8803E-08  0.8036E-12  0.3825E-04  0.0000E+00 -0.2438E+12
   -2.268766    4.01309  0.4882E-11  0.9015E-08  0.8544E-12  0.3675E-04  0.0000E+00 -0.2598E+12
   -2.337515    4.01370  0.4882E-11  0.9155E-08  0.9176E-12  0.3420E-04  0.0000E+00 -0.2864E+12
   -2.406263    4.01436  0.4882E-11  0.9216E-08  0.1003E-11  0.3043E-04  0.0000E+00 -0.3311E+12
   -2.475011    4.01511  0.4882E-11  0.9174E-08  0.1132E-11  0.2521E-04  0.0000E+00 -0.4133E+12
   -2.543759    4.01601  0.4882E-11  0.8970E-08  0.1362E-11  0.1832E-04  0.0000E+00 -0.5944E+12
   -2.612506    4.01726  0.4882E-11  0.8416E-08  0.1923E-11  0.9740E-05  0.0000E+00 -0.1202E+13
   -2.681252    4.01965  0.4882E-11  0.6044E-08  0.5383E-11  0.1264E-05  0.0000E+00 -0.1200E+14
   -2.749998    4.03773  0.4882E-11  0.0000E+00  0.0000E+00  0.0000E+00  0.0000E+00  0.0000E+00
