 1 - depth, m
 2 - temperature, C
 3 - salinity, kg/kg
 4 - turbulent kinetic energy, m**2/s**2
 5 - dissipation rate, m**2/s**3
 6 - kinematic heat conductance, m**2/s
 7 - modulus of horizontal velocity, m/s
 8 - Richardson number, n/d
   -0.000000   -0.00000  0.3976E-10  0.1219E-13  0.7603E-17  0.1000E-09  0.0000E+00  0.5121E+16
   -0.068746    0.07763  0.2151E-10  0.1219E-13  0.7603E-17  0.1000E-09  0.0000E+00  0.4931E+16
   -0.137492    0.15397  0.1651E-10  0.1219E-13  0.7603E-17  0.1000E-09  0.0000E+00  0.4779E+16
   -0.206239    0.22953  0.1534E-10  0.1219E-13  0.7603E-17  0.1000E-09  0.0000E+00  0.4662E+16
   -0.274987    0.30484  0.1510E-10  0.1219E-13  0.7603E-17  0.1000E-09  0.0000E+00  0.4578E+16
   -0.343735    0.38042  0.1505E-10  0.1219E-13  0.7603E-17  0.1000E-09  0.0000E+00  0.4525E+16
   -0.412483    0.45680  0.1504E-10  0.1219E-13  0.7603E-17  0.1000E-09  0.0000E+00  0.4499E+16
   -0.481232    0.53453  0.1504E-10  0.1219E-13  0.7603E-17  0.1000E-09  0.0000E+00  0.4498E+16
   -0.549982    0.61413  0.1504E-10  0.1219E-13  0.7603E-17  0.1000E-09  0.0000E+00  0.4517E+16
   -0.618732    0.69613  0.1504E-10  0.1219E-13  0.7603E-17  0.1000E-09  0.0000E+00  0.4555E+16
   -0.687482    0.78106  0.1504E-10  0.1219E-13  0.7603E-17  0.1000E-09  0.0000E+00  0.4620E+16
   -0.756233    0.86970  0.1504E-10  0.1219E-13  0.7603E-17  0.1000E-09  0.0000E+00  0.4701E+16
   -0.824984    0.96270  0.1504E-10  0.1219E-13  0.7603E-17  0.1000E-09  0.0000E+00  0.4783E+16
   -0.893735    1.06051  0.1504E-10  0.1219E-13  0.7603E-17  0.1000E-09  0.0000E+00  0.4860E+16
   -0.962486    1.16354  0.1504E-10  0.1219E-13  0.7603E-17  0.1000E-09  0.0000E+00  0.4926E+16
   -1.031238    1.27215  0.1504E-10  0.1219E-13  0.7603E-17  0.1000E-09  0.0000E+00  0.4975E+16
   -1.099990    1.38667  0.1504E-10  0.1219E-13  0.7603E-17  0.1000E-09  0.0000E+00  0.5001E+16
   -1.168742    1.50734  0.1502E-10  0.1219E-13  0.7603E-17  0.1000E-09  0.0000E+00  0.4997E+16
   -1.237494    1.63435  0.1499E-10  0.1669E-13  0.7603E-17  0.1000E-09  0.0000E+00  0.4957E+16
   -1.306246    1.76783  0.1493E-10  0.6931E-13  0.1386E-16  0.1000E-09  0.0000E+00  0.4877E+16
   -1.374999    1.90781  0.1484E-10  0.2096E-12  0.3651E-16  0.1000E-09  0.0000E+00  0.4762E+16
   -1.443751    2.05463  0.1476E-10  0.5808E-12  0.9667E-16  0.1000E-09  0.0000E+00  0.4599E+16
   -1.512503    2.20828  0.1471E-10  0.1563E-11  0.2518E-15  0.1000E-09  0.0000E+00  0.4380E+16
   -1.581255    2.36855  0.1468E-10  0.4138E-11  0.6463E-15  0.1000E-09  0.0000E+00  0.4103E+16
   -1.650007    2.53512  0.1467E-10  0.1080E-10  0.1637E-14  0.1000E-09  0.0000E+00  0.3769E+16
   -1.718759    2.70758  0.1466E-10  0.2781E-10  0.4091E-14  0.1000E-09  0.0000E+00  0.3379E+16
   -1.787511    2.88549  0.1465E-10  0.7258E-10  0.1036E-13  0.1000E-09  0.0000E+00  0.2955E+16
   -1.856262    3.06949  0.1465E-10  0.1901E-09  0.2636E-13  0.1000E-09  0.0000E+00  0.2480E+16
   -1.925013    3.25966  0.1464E-10  0.4953E-09  0.6672E-13  0.1738E-09  0.0000E+00  0.1953E+16
   -1.993764    3.45610  0.1463E-10  0.1282E-08  0.1679E-12  0.6254E-09  0.0000E+00  0.1366E+16
   -2.062515    3.65784  0.1461E-10  0.3219E-08  0.4101E-12  0.2896E-08  0.0000E+00  0.7204E+15
   -2.131265    3.85874  0.1458E-10  0.7791E-08  0.9686E-12  0.4109E-07  0.0000E+00  0.1195E+15
   -2.200015    4.01863  0.1458E-10  0.9281E-08  0.1163E-11  0.3148E-04  0.0000E+00 -0.4719E+12
   -2.268765    4.01955  0.1458E-10  0.9856E-08  0.1262E-11  0.3155E-04  0.0000E+00 -0.4864E+12
   -2.337514    4.02047  0.1458E-10  0.1028E-07  0.1374E-11  0.3042E-04  0.0000E+00 -0.5218E+12
   -2.406262    4.02143  0.1458E-10  0.1057E-07  0.1515E-11  0.2796E-04  0.0000E+00 -0.5895E+12
   -2.475011    4.02249  0.1458E-10  0.1070E-07  0.1718E-11  0.2393E-04  0.0000E+00 -0.7203E+12
   -2.543758    4.02374  0.1458E-10  0.1061E-07  0.2064E-11  0.1805E-04  0.0000E+00 -0.1013E+13
   -2.612505    4.02543  0.1458E-10  0.1010E-07  0.2879E-11  0.1016E-04  0.0000E+00 -0.1989E+13
   -2.681251    4.02855  0.1458E-10  0.7667E-08  0.7603E-11  0.1608E-05  0.0000E+00 -0.1761E+14
   -2.749997    4.04982  0.1458E-10  0.0000E+00  0.0000E+00  0.0000E+00  0.0000E+00  0.0000E+00
