 1 - depth, m
 2 - temperature, C
 3 - salinity, kg/kg
 4 - turbulent kinetic energy, m**2/s**2
 5 - dissipation rate, m**2/s**3
 6 - kinematic heat conductance, m**2/s
 7 - modulus of horizontal velocity, m/s
 8 - Richardson number, n/d
   -0.000000   11.98443  0.3796E-11  0.1104E-04  0.3981E-06  0.2873E-04  0.5003E-01  0.1357E-01
   -0.068746   11.97464  0.3796E-11  0.9185E-05  0.1588E-06  0.4576E-04  0.4266E-01  0.4984E-01
   -0.137492   11.96461  0.3796E-11  0.7486E-05  0.9284E-07  0.4637E-04  0.3898E-01  0.1162E+00
   -0.206239   11.94974  0.3796E-11  0.5852E-05  0.6377E-07  0.3613E-04  0.3616E-01  0.2163E+00
   -0.274987   11.91580  0.3797E-11  0.4041E-05  0.4653E-07  0.2255E-04  0.3328E-01  0.3456E+00
   -0.343735   11.44560  0.3804E-11  0.2465E-05  0.3062E-07  0.1138E-04  0.2753E-01  0.6357E+00
   -0.412484   10.47379  0.3815E-11  0.1388E-05  0.1916E-07  0.4300E-05  0.2022E-01  0.9868E+00
   -0.481233    9.44951  0.3825E-11  0.1078E-05  0.1072E-07  0.1186E-05  0.1287E-01  0.1491E+01
   -0.549983    8.62295  0.3832E-11  0.1204E-05  0.4231E-08  0.6665E-05  0.6637E-02  0.1295E+02
   -0.618733    8.08341  0.3838E-11  0.1568E-05  0.1415E-08  0.4635E-04  0.2453E-02  0.3390E+02
   -0.687484    7.89705  0.3839E-11  0.1849E-05  0.1304E-08  0.1106E-03  0.7263E-03  0.3943E+02
   -0.756234    7.86361  0.3839E-11  0.2005E-05  0.1250E-08  0.1967E-03  0.2449E-03  0.3389E+02
   -0.824986    7.85834  0.3839E-11  0.2097E-05  0.1289E-08  0.3013E-03  0.1266E-03  0.2819E+02
   -0.893737    7.85811  0.3839E-11  0.2182E-05  0.1342E-08  0.5042E-03  0.1101E-03  0.5078E+03
   -0.962489    7.85807  0.3839E-11  0.2254E-05  0.1392E-08  0.9524E-03  0.9850E-04  0.2529E+03
   -1.031240    7.85808  0.3839E-11  0.2312E-05  0.1439E-08  0.1135E-02  0.9074E-04  0.2354E+03
   -1.099992    7.85813  0.3839E-11  0.2368E-05  0.1487E-08  0.1207E-02  0.8499E-04  0.4066E+03
   -1.168745    7.85820  0.3839E-11  0.2425E-05  0.1541E-08  0.1226E-02  0.8012E-04  0.1086E+02
   -1.237497    7.85830  0.3839E-11  0.2484E-05  0.1601E-08  0.1226E-02  0.7559E-04  0.1308E+02
   -1.306249    7.85843  0.3839E-11  0.2544E-05  0.1666E-08  0.1227E-02  0.7109E-04  0.1548E+02
   -1.375002    7.85859  0.3839E-11  0.2605E-05  0.1736E-08  0.1229E-02  0.6663E-04  0.1804E+02
   -1.443754    7.85878  0.3839E-11  0.2666E-05  0.1811E-08  0.1228E-02  0.6221E-04  0.2062E+02
   -1.512506    7.85900  0.3839E-11  0.2725E-05  0.1889E-08  0.1226E-02  0.5781E-04  0.2346E+02
   -1.581258    7.85925  0.3839E-11  0.2781E-05  0.1971E-08  0.1221E-02  0.5344E-04  0.2638E+02
   -1.650011    7.85954  0.3839E-11  0.2833E-05  0.2055E-08  0.1213E-02  0.4907E-04  0.2979E+02
   -1.718763    7.85986  0.3839E-11  0.2880E-05  0.2141E-08  0.1201E-02  0.4470E-04  0.3443E+02
   -1.787515    7.86021  0.3839E-11  0.2922E-05  0.2233E-08  0.1186E-02  0.4033E-04  0.4051E+02
   -1.856266    7.86059  0.3839E-11  0.2962E-05  0.2335E-08  0.1165E-02  0.3633E-04  0.5299E+02
   -1.925018    7.86098  0.3839E-11  0.2998E-05  0.2451E-08  0.1139E-02  0.3268E-04  0.7060E+02
   -1.993769    7.86140  0.3839E-11  0.3032E-05  0.2586E-08  0.1105E-02  0.2938E-04  0.9598E+02
   -2.062519    7.86184  0.3839E-11  0.3061E-05  0.2737E-08  0.1065E-02  0.2635E-04  0.1330E+03
   -2.131270    7.86233  0.3839E-11  0.3085E-05  0.2908E-08  0.1019E-02  0.2347E-04  0.1764E+03
   -2.200020    7.86286  0.3839E-11  0.3101E-05  0.3106E-08  0.9664E-03  0.2070E-04  0.2425E+03
   -2.268770    7.86345  0.3839E-11  0.3110E-05  0.3341E-08  0.9061E-03  0.1802E-04  0.3410E+03
   -2.337519    7.86411  0.3839E-11  0.3109E-05  0.3641E-08  0.8348E-03  0.1549E-04  0.5224E+03
   -2.406268    7.86484  0.3839E-11  0.3095E-05  0.4047E-08  0.7503E-03  0.1311E-04  0.8831E+03
   -2.475016    7.86569  0.3839E-11  0.3064E-05  0.4642E-08  0.6502E-03  0.1088E-04  0.1710E+04
   -2.543764    7.86670  0.3839E-11  0.3006E-05  0.5624E-08  0.5239E-03  0.8782E-05  0.4163E+04
   -2.612511    7.86800  0.3839E-11  0.2894E-05  0.7626E-08  0.4045E-03  0.6765E-05  0.1298E+05
   -2.681257    7.86975  0.3839E-11  0.2005E-05  0.2848E-07  0.2328E-04  0.4998E-05 -0.9023E+06
   -2.750003    7.90136  0.3839E-11  0.0000E+00  0.0000E+00  0.0000E+00  0.4998E-05  0.0000E+00
