 1 - depth, m
 2 - temperature, C
 3 - salinity, kg/kg
 4 - turbulent kinetic energy, m**2/s**2
 5 - dissipation rate, m**2/s**3
 6 - kinematic heat conductance, m**2/s
 7 - modulus of horizontal velocity, m/s
 8 - Richardson number, n/d
   -0.000000    8.88483  0.4953E-11  0.3446E-04  0.4590E-05  0.4434E-04  0.4874E-01 -0.5590E-02
   -0.068746    8.91444  0.4953E-11  0.2540E-04  0.1095E-05  0.9139E-04  0.2790E-01 -0.1778E-01
   -0.137492    8.92357  0.4954E-11  0.2293E-04  0.4929E-06  0.1431E-03  0.2249E-01 -0.2886E-01
   -0.206239    8.92919  0.4954E-11  0.2155E-04  0.2876E-06  0.1988E-03  0.1920E-01 -0.4077E-01
   -0.274987    8.93315  0.4954E-11  0.2062E-04  0.1956E-06  0.2571E-03  0.1688E-01 -0.5346E-01
   -0.343735    8.93613  0.4954E-11  0.1992E-04  0.1459E-06  0.3176E-03  0.1512E-01 -0.6685E-01
   -0.412484    8.93848  0.4954E-11  0.1936E-04  0.1155E-06  0.3796E-03  0.1373E-01 -0.8087E-01
   -0.481233    8.94039  0.4954E-11  0.1888E-04  0.9509E-07  0.4430E-03  0.1259E-01 -0.9538E-01
   -0.549983    8.94199  0.4954E-11  0.1847E-04  0.8060E-07  0.5082E-03  0.1163E-01 -0.1078E+00
   -0.618733    8.94335  0.4954E-11  0.1812E-04  0.6986E-07  0.5867E-03  0.1081E-01 -0.8132E-01
   -0.687483    8.94450  0.4954E-11  0.1782E-04  0.6167E-07  0.7621E-03  0.1009E-01  0.3902E+01
   -0.756234    8.94540  0.4954E-11  0.1756E-04  0.5534E-07  0.1150E-02  0.9464E-02  0.1745E+02
   -0.824985    8.94606  0.4954E-11  0.1734E-04  0.5032E-07  0.1319E-02  0.8912E-02  0.2765E+02
   -0.893737    8.94661  0.4954E-11  0.1715E-04  0.4619E-07  0.1465E-02  0.8393E-02  0.4169E+02
   -0.962488    8.94708  0.4954E-11  0.1698E-04  0.4274E-07  0.1555E-02  0.7905E-02  0.2334E+02
   -1.031240    8.94751  0.4954E-11  0.1682E-04  0.3983E-07  0.1663E-02  0.7440E-02  0.2062E+02
   -1.099992    8.94789  0.4954E-11  0.1666E-04  0.3734E-07  0.1755E-02  0.6995E-02  0.4818E+02
   -1.168744    8.94824  0.4954E-11  0.1651E-04  0.3519E-07  0.1835E-02  0.6565E-02  0.4923E+02
   -1.237496    8.94856  0.4954E-11  0.1636E-04  0.3332E-07  0.1910E-02  0.6148E-02  0.5573E+02
   -1.306249    8.94886  0.4954E-11  0.1620E-04  0.3167E-07  0.1965E-02  0.5741E-02  0.8344E+02
   -1.375001    8.94914  0.4954E-11  0.1603E-04  0.3021E-07  0.2019E-02  0.5340E-02  0.1525E+03
   -1.443753    8.94941  0.4954E-11  0.1584E-04  0.2890E-07  0.2044E-02  0.4947E-02  0.5952E+03
   -1.512506    8.94968  0.4954E-11  0.1564E-04  0.2773E-07  0.2057E-02  0.4557E-02  0.2213E+05
   -1.581258    8.94993  0.4954E-11  0.1541E-04  0.2665E-07  0.2055E-02  0.4170E-02  0.3133E+05
   -1.650010    8.95019  0.4954E-11  0.1515E-04  0.2566E-07  0.2054E-02  0.3784E-02  0.5594E+05
   -1.718762    8.95044  0.4954E-11  0.1486E-04  0.2474E-07  0.2023E-02  0.3399E-02  0.1753E+05
   -1.787514    8.95068  0.4954E-11  0.1451E-04  0.2382E-07  0.2042E-02  0.3010E-02  0.4208E+02
   -1.856265    8.95093  0.4954E-11  0.1413E-04  0.2295E-07  0.2033E-02  0.2667E-02  0.8251E+01
   -1.925017    8.95117  0.4954E-11  0.1371E-04  0.2214E-07  0.2024E-02  0.2359E-02  0.3562E+01
   -1.993768    8.95142  0.4954E-11  0.1327E-04  0.2145E-07  0.2011E-02  0.2087E-02  0.2185E+01
   -2.062519    8.95166  0.4954E-11  0.1283E-04  0.2094E-07  0.1990E-02  0.1845E-02  0.1690E+01
   -2.131269    8.95190  0.4954E-11  0.1240E-04  0.2063E-07  0.1961E-02  0.1620E-02  0.1338E+01
   -2.200019    8.95215  0.4954E-11  0.1198E-04  0.2057E-07  0.1938E-02  0.1412E-02  0.1074E+01
   -2.268769    8.95239  0.4954E-11  0.1159E-04  0.2080E-07  0.1930E-02  0.1218E-02  0.8019E+00
   -2.337518    8.95263  0.4954E-11  0.1121E-04  0.2140E-07  0.1839E-02  0.1046E-02  0.5950E+00
   -2.406267    8.95289  0.4954E-11  0.1085E-04  0.2246E-07  0.1590E-02  0.8966E-03  0.7821E+00
   -2.475015    8.95318  0.4954E-11  0.1050E-04  0.2418E-07  0.1313E-02  0.7711E-03  0.7120E+01
   -2.543763    8.95353  0.4954E-11  0.1012E-04  0.2732E-07  0.1083E-02  0.6663E-03  0.3632E+02
   -2.612510    8.95397  0.4954E-11  0.9520E-05  0.3580E-07  0.4856E-03  0.5638E-03  0.2695E+03
   -2.681256    8.95490  0.4954E-11  0.5830E-05  0.1330E-06  0.3232E-04  0.4328E-03 -0.7258E+04
   -2.750002    8.96840  0.4954E-11  0.0000E+00  0.0000E+00  0.0000E+00  0.4320E-03  0.0000E+00
