 1 - depth, m
 2 - temperature, C
 3 - salinity, kg/kg
 4 - turbulent kinetic energy, m**2/s**2
 5 - dissipation rate, m**2/s**3
 6 - kinematic heat conductance, m**2/s
 7 - modulus of horizontal velocity, m/s
 8 - Richardson number, n/d
   -0.000000   -0.00000  0.1285E-11  0.1886E-05  0.2896E-07  0.1106E-04  0.1179E-01  0.2901E-01
   -0.068745    0.00745  0.1284E-11  0.1615E-05  0.1183E-07  0.1846E-04  0.8451E-02  0.5997E-01
   -0.137490    0.01129  0.1283E-11  0.1352E-05  0.6690E-08  0.2157E-04  0.6809E-02  0.9272E-01
   -0.206236    0.01410  0.1283E-11  0.1118E-05  0.4255E-08  0.2194E-04  0.5689E-02  0.1277E+00
   -0.274983    0.01646  0.1282E-11  0.9112E-06  0.2855E-08  0.2060E-04  0.4821E-02  0.1664E+00
   -0.343730    0.01859  0.1281E-11  0.7300E-06  0.1962E-08  0.1826E-04  0.4100E-02  0.2107E+00
   -0.412478    0.02065  0.1281E-11  0.5722E-06  0.1356E-08  0.1544E-04  0.3477E-02  0.2642E+00
   -0.481226    0.02275  0.1280E-11  0.4364E-06  0.9311E-09  0.1251E-04  0.2918E-02  0.3366E+00
   -0.549974    0.02512  0.1279E-11  0.3230E-06  0.6279E-09  0.9782E-05  0.2401E-02  0.4909E+00
   -0.618723    0.02829  0.1278E-11  0.2340E-06  0.4173E-09  0.7481E-05  0.1915E-02  0.1065E+01
   -0.687473    0.03256  0.1277E-11  0.1681E-06  0.2765E-09  0.5636E-05  0.1482E-02  0.2960E+01
   -0.756223    0.03702  0.1275E-11  0.1198E-06  0.1831E-09  0.4153E-05  0.1131E-02  0.8305E+01
   -0.824973    0.04077  0.1273E-11  0.8383E-07  0.1197E-09  0.2961E-05  0.8590E-03  0.2337E+02
   -0.893723    0.04376  0.1272E-11  0.5687E-07  0.7640E-10  0.2020E-05  0.6499E-03  0.6886E+02
   -0.962473    0.04623  0.1271E-11  0.3698E-07  0.4698E-10  0.1301E-05  0.4874E-03  0.2193E+03
   -1.031224    0.04834  0.1269E-11  0.2267E-07  0.2739E-10  0.7769E-06  0.3601E-03  0.7853E+03
   -1.099975    0.05024  0.1268E-11  0.1279E-07  0.1479E-10  0.4179E-06  0.2601E-03  0.3436E+04
   -1.168726    0.05204  0.1267E-11  0.6387E-08  0.7119E-11  0.1940E-06  0.1820E-03  0.2044E+05
   -1.237477    0.05393  0.1266E-11  0.2656E-08  0.2872E-11  0.7302E-07  0.1219E-03  0.1666E+06
   -1.306229    0.05621  0.1265E-11  0.8459E-09  0.8888E-12  0.2102E-07  0.7735E-04  0.1629E+07
   -1.374980    0.05963  0.1264E-11  0.1893E-09  0.1923E-12  0.3458E-08  0.4633E-04  0.1858E+08
   -1.443731    0.06721  0.1263E-11  0.5446E-10  0.3753E-13  0.4415E-09  0.2639E-04  0.1827E+09
   -1.512482    0.08361  0.1262E-11  0.8923E-10  0.2193E-13  0.1597E-09  0.1469E-04  0.1593E+10
   -1.581234    0.11700  0.1261E-11  0.2483E-09  0.4059E-13  0.1419E-09  0.7984E-05  0.1213E+11
   -1.649985    0.18076  0.1259E-11  0.6266E-09  0.9027E-13  0.1490E-09  0.4020E-05  0.6742E+11
   -1.718736    0.29331  0.1258E-11  0.1451E-08  0.1960E-12  0.1709E-09  0.1413E-05  0.4511E+12
   -1.787486    0.46846  0.1257E-11  0.3241E-08  0.4158E-12  0.4544E-09  0.9397E-07  0.6985E+14
   -1.856237    0.58399  0.1256E-11  0.6971E-08  0.8513E-12  0.1966E-08  0.5772E-08  0.1373E+16
   -1.924987    0.64874  0.1256E-11  0.8632E-08  0.1048E-11  0.8280E-05  0.2263E-09  0.9465E+15
   -1.993737    0.66808  0.1256E-11  0.8853E-08  0.1077E-11  0.4263E-04  0.9620E-10  0.7579E+15
   -2.062487    0.68263  0.1256E-11  0.8635E-08  0.1053E-11  0.1592E-08  0.8730E-10  0.5615E+16
   -2.131236    0.79945  0.1256E-11  0.4127E-08  0.5522E-12  0.2975E-09  0.6689E-11  0.1291E+17
   -2.199985    1.07404  0.1255E-11  0.1863E-08  0.3432E-12  0.1355E-09  0.4670E-12  0.2091E+17
   -2.268734    1.55516  0.1254E-11  0.1254E-08  0.5692E-12  0.1241E-09  0.2222E-13  0.2377E+17
   -2.337482    2.26044  0.1253E-11  0.4275E-08  0.2742E-11  0.8234E-09  0.8660E-15  0.1892E+17
   -2.406230    3.18636  0.1249E-11  0.2619E-07  0.1645E-10  0.2764E-07  0.2879E-16  0.5198E+16
   -2.474977    4.14276  0.1243E-11  0.4738E-07  0.3023E-10  0.3159E-04  0.6761E-18 -0.1200E+14
   -2.543724    4.14787  0.1243E-11  0.5286E-07  0.3731E-10  0.2912E-04  0.1323E-18 -0.1418E+14
   -2.612470    4.15367  0.1243E-11  0.5432E-07  0.5018E-10  0.2025E-04  0.2078E-19 -0.2300E+14
   -2.681215    4.16264  0.1243E-11  0.4385E-07  0.1211E-09  0.3956E-05  0.1827E-20 -0.1637E+15
   -2.749960    4.21553  0.1243E-11  0.0000E+00  0.0000E+00  0.0000E+00  0.1889E-20  0.0000E+00
