 1 - depth, m
 2 - temperature, C
 3 - salinity, kg/kg
 4 - turbulent kinetic energy, m**2/s**2
 5 - dissipation rate, m**2/s**3
 6 - kinematic heat conductance, m**2/s
 7 - modulus of horizontal velocity, m/s
 8 - Richardson number, n/d
   -0.000000   -0.00000  0.6963E-12  0.1219E-13  0.7603E-17  0.1000E-09  0.0000E+00  0.7626E+16
   -0.068746    0.11620  0.1347E-11  0.1219E-13  0.7603E-17  0.1000E-09  0.0000E+00  0.7496E+16
   -0.137493    0.23418  0.1494E-11  0.1219E-13  0.7603E-17  0.1000E-09  0.0000E+00  0.7338E+16
   -0.206240    0.35363  0.1430E-11  0.1219E-13  0.7603E-17  0.1000E-09  0.0000E+00  0.7157E+16
   -0.274988    0.47428  0.1298E-11  0.1219E-13  0.7603E-17  0.1000E-09  0.0000E+00  0.6956E+16
   -0.343736    0.59590  0.1173E-11  0.1219E-13  0.7603E-17  0.1000E-09  0.0000E+00  0.6738E+16
   -0.412485    0.71828  0.1085E-11  0.1219E-13  0.7603E-17  0.1000E-09  0.0000E+00  0.6505E+16
   -0.481234    0.84121  0.1033E-11  0.1219E-13  0.7603E-17  0.1000E-09  0.0000E+00  0.6261E+16
   -0.549984    0.96450  0.1006E-11  0.1219E-13  0.7603E-17  0.1000E-09  0.0000E+00  0.6008E+16
   -0.618734    1.08800  0.9938E-12  0.1219E-13  0.7603E-17  0.1000E-09  0.0000E+00  0.5748E+16
   -0.687485    1.21156  0.9884E-12  0.1219E-13  0.7603E-17  0.1000E-09  0.0000E+00  0.5485E+16
   -0.756236    1.33509  0.9861E-12  0.1219E-13  0.7603E-17  0.1000E-09  0.0000E+00  0.5220E+16
   -0.824987    1.45850  0.9850E-12  0.1219E-13  0.7603E-17  0.1000E-09  0.0000E+00  0.4953E+16
   -0.893739    1.58170  0.9841E-12  0.1219E-13  0.7603E-17  0.1000E-09  0.0000E+00  0.4685E+16
   -0.962491    1.70462  0.9831E-12  0.1219E-13  0.7603E-17  0.1000E-09  0.0000E+00  0.4418E+16
   -1.031243    1.82717  0.9817E-12  0.1219E-13  0.7603E-17  0.1000E-09  0.0000E+00  0.4151E+16
   -1.099995    1.94929  0.9798E-12  0.1219E-13  0.7603E-17  0.1000E-09  0.0000E+00  0.3887E+16
   -1.168747    2.07094  0.9774E-12  0.1219E-13  0.7603E-17  0.1000E-09  0.0000E+00  0.3625E+16
   -1.237499    2.19205  0.9746E-12  0.1219E-13  0.7603E-17  0.1000E-09  0.0000E+00  0.3366E+16
   -1.306252    2.31258  0.9715E-12  0.1219E-13  0.7603E-17  0.1000E-09  0.0000E+00  0.3111E+16
   -1.375004    2.43250  0.9685E-12  0.1219E-13  0.7603E-17  0.1000E-09  0.0000E+00  0.2860E+16
   -1.443757    2.55180  0.9656E-12  0.1219E-13  0.7603E-17  0.1000E-09  0.0000E+00  0.2613E+16
   -1.512509    2.67047  0.9631E-12  0.5434E-13  0.9934E-17  0.1000E-09  0.0000E+00  0.2371E+16
   -1.581262    2.78851  0.9610E-12  0.1594E-12  0.2304E-16  0.1000E-09  0.0000E+00  0.2133E+16
   -1.650014    2.90591  0.9593E-12  0.4102E-12  0.5577E-16  0.1000E-09  0.0000E+00  0.1900E+16
   -1.718766    3.02269  0.9580E-12  0.1013E-11  0.1332E-15  0.1000E-09  0.0000E+00  0.1672E+16
   -1.787518    3.13884  0.9570E-12  0.2521E-11  0.3216E-15  0.1000E-09  0.0000E+00  0.1432E+16
   -1.856270    3.25306  0.9561E-12  0.6295E-11  0.7803E-15  0.1000E-09  0.0000E+00  0.1201E+16
   -1.925022    3.36503  0.9554E-12  0.1564E-10  0.1885E-14  0.1000E-09  0.0000E+00  0.9788E+15
   -1.993773    3.47431  0.9549E-12  0.3868E-10  0.4535E-14  0.1000E-09  0.0000E+00  0.7714E+15
   -2.062524    3.58089  0.9545E-12  0.9298E-10  0.1061E-13  0.1000E-09  0.0000E+00  0.5889E+15
   -2.131274    3.68699  0.9543E-12  0.2206E-09  0.2452E-13  0.3041E-09  0.0000E+00  0.4100E+15
   -2.200025    3.79277  0.9542E-12  0.5187E-09  0.5614E-13  0.1227E-08  0.0000E+00  0.2326E+15
   -2.268774    3.89783  0.9541E-12  0.1213E-08  0.1280E-12  0.1070E-07  0.0000E+00  0.6057E+14
   -2.337524    3.99647  0.9541E-12  0.1900E-08  0.2018E-12  0.7562E-05  0.0000E+00 -0.3384E+12
   -2.406273    3.99841  0.9541E-12  0.2189E-08  0.2459E-12  0.7968E-05  0.0000E+00 -0.3737E+12
   -2.475021    4.00025  0.9541E-12  0.2382E-08  0.2983E-12  0.7425E-05  0.0000E+00 -0.4553E+12
   -2.543769    4.00220  0.9541E-12  0.2467E-08  0.3757E-12  0.5870E-05  0.0000E+00 -0.6512E+12
   -2.612516    4.00463  0.9541E-12  0.2372E-08  0.5406E-12  0.3269E-05  0.0000E+00 -0.1350E+13
   -2.681263    4.00885  0.9541E-12  0.1737E-08  0.1301E-11  0.5132E-06  0.0000E+00 -0.1086E+14
   -2.750009    4.02984  0.9541E-12  0.0000E+00  0.0000E+00  0.0000E+00  0.0000E+00  0.0000E+00
