 1 - depth, m
 2 - temperature, C
 3 - salinity, kg/kg
 4 - turbulent kinetic energy, m**2/s**2
 5 - dissipation rate, m**2/s**3
 6 - kinematic heat conductance, m**2/s
 7 - modulus of horizontal velocity, m/s
 8 - Richardson number, n/d
   -0.000000    7.72508  0.1941E-10  0.5791E-04  0.1106E-04  0.5901E-04  0.7041E-01 -0.5544E-01
   -0.068746    7.76961  0.1941E-10  0.3600E-04  0.2396E-05  0.9312E-04  0.3557E-01 -0.1120E-01
   -0.137492    7.78096  0.1941E-10  0.3075E-04  0.9774E-06  0.1367E-03  0.2852E-01 -0.1634E-01
   -0.206239    7.78835  0.1941E-10  0.2814E-04  0.5228E-06  0.1871E-03  0.2421E-01 -0.2292E-01
   -0.274987    7.79371  0.1941E-10  0.2659E-04  0.3342E-06  0.2425E-03  0.2113E-01 -0.3023E-01
   -0.343735    7.79778  0.1941E-10  0.2553E-04  0.2394E-06  0.3010E-03  0.1881E-01 -0.3814E-01
   -0.412484    7.80098  0.1941E-10  0.2472E-04  0.1844E-06  0.3616E-03  0.1698E-01 -0.4646E-01
   -0.481233    7.80357  0.1941E-10  0.2405E-04  0.1490E-06  0.4233E-03  0.1549E-01 -0.5502E-01
   -0.549983    7.80572  0.1941E-10  0.2348E-04  0.1245E-06  0.4854E-03  0.1424E-01 -0.6367E-01
   -0.618733    7.80755  0.1941E-10  0.2298E-04  0.1067E-06  0.5473E-03  0.1317E-01 -0.7232E-01
   -0.687483    7.80912  0.1941E-10  0.2253E-04  0.9319E-07  0.6086E-03  0.1223E-01 -0.8085E-01
   -0.756234    7.81050  0.1941E-10  0.2212E-04  0.8266E-07  0.6690E-03  0.1141E-01 -0.8871E-01
   -0.824985    7.81173  0.1941E-10  0.2176E-04  0.7426E-07  0.7306E-03  0.1067E-01 -0.9058E-01
   -0.893736    7.81282  0.1941E-10  0.2142E-04  0.6745E-07  0.8119E-03  0.9994E-02 -0.2708E-01
   -0.962488    7.81378  0.1941E-10  0.2111E-04  0.6187E-07  0.1013E-02  0.9379E-02  0.2220E+03
   -1.031240    7.81457  0.1941E-10  0.2082E-04  0.5725E-07  0.1365E-02  0.8814E-02  0.1176E+03
   -1.099992    7.81519  0.1941E-10  0.2056E-04  0.5339E-07  0.1641E-02  0.8291E-02  0.2127E+03
   -1.168744    7.81568  0.1941E-10  0.2031E-04  0.5009E-07  0.1841E-02  0.7792E-02  0.4592E+02
   -1.237496    7.81610  0.1941E-10  0.2006E-04  0.4722E-07  0.1962E-02  0.7311E-02  0.1015E+03
   -1.306248    7.81648  0.1941E-10  0.1982E-04  0.4471E-07  0.2053E-02  0.6843E-02  0.2299E+03
   -1.375001    7.81682  0.1941E-10  0.1957E-04  0.4249E-07  0.2121E-02  0.6386E-02  0.8599E+03
   -1.443753    7.81713  0.1941E-10  0.1931E-04  0.4052E-07  0.2168E-02  0.5938E-02  0.4197E+04
   -1.512505    7.81743  0.1941E-10  0.1903E-04  0.3874E-07  0.2195E-02  0.5497E-02  0.3560E+05
   -1.581258    7.81772  0.1941E-10  0.1873E-04  0.3712E-07  0.2217E-02  0.5061E-02  0.1670E+06
   -1.650010    7.81799  0.1941E-10  0.1841E-04  0.3564E-07  0.2238E-02  0.4628E-02  0.2413E+04
   -1.718762    7.81825  0.1941E-10  0.1805E-04  0.3427E-07  0.2217E-02  0.4198E-02  0.1391E+03
   -1.787514    7.81850  0.1941E-10  0.1764E-04  0.3291E-07  0.2248E-02  0.3767E-02  0.5864E+02
   -1.856265    7.81875  0.1941E-10  0.1719E-04  0.3161E-07  0.2242E-02  0.3381E-02  0.9093E+01
   -1.925016    7.81899  0.1941E-10  0.1670E-04  0.3039E-07  0.2232E-02  0.3032E-02  0.3937E+01
   -1.993768    7.81923  0.1941E-10  0.1619E-04  0.2929E-07  0.2211E-02  0.2719E-02  0.3106E+01
   -2.062518    7.81947  0.1941E-10  0.1568E-04  0.2841E-07  0.2177E-02  0.2434E-02  0.1986E+01
   -2.131269    7.81971  0.1941E-10  0.1518E-04  0.2777E-07  0.2128E-02  0.2167E-02  0.2797E+01
   -2.200019    7.81995  0.1941E-10  0.1469E-04  0.2742E-07  0.2041E-02  0.1915E-02  0.6035E+02
   -2.268768    7.82020  0.1941E-10  0.1422E-04  0.2742E-07  0.1966E-02  0.1678E-02  0.1598E+02
   -2.337518    7.82045  0.1941E-10  0.1376E-04  0.2785E-07  0.1889E-02  0.1461E-02  0.9358E+02
   -2.406266    7.82071  0.1941E-10  0.1329E-04  0.2891E-07  0.1523E-02  0.1269E-02  0.1528E+03
   -2.475015    7.82104  0.1941E-10  0.1281E-04  0.3099E-07  0.1147E-02  0.1096E-02  0.3467E+03
   -2.543762    7.82147  0.1941E-10  0.1221E-04  0.3543E-07  0.6514E-03  0.9350E-03  0.1691E+03
   -2.612509    7.82216  0.1941E-10  0.1130E-04  0.4731E-07  0.3576E-03  0.7614E-03 -0.1386E+01
   -2.681256    7.82338  0.1941E-10  0.6772E-05  0.1659E-06  0.3401E-04  0.5750E-03 -0.3373E+05
   -2.750002    7.83598  0.1941E-10  0.0000E+00  0.0000E+00  0.0000E+00  0.5738E-03  0.0000E+00
