 1 - depth, m
 2 - temperature, C
 3 - salinity, kg/kg
 4 - turbulent kinetic energy, m**2/s**2
 5 - dissipation rate, m**2/s**3
 6 - kinematic heat conductance, m**2/s
 7 - modulus of horizontal velocity, m/s
 8 - Richardson number, n/d
   -0.000000   -0.00000  0.2670E-11  0.1219E-13  0.7603E-17  0.1000E-09  0.0000E+00  0.6761E+16
   -0.068746    0.10285  0.1596E-11  0.1219E-13  0.7603E-17  0.1000E-09  0.0000E+00  0.6508E+16
   -0.137492    0.20465  0.1158E-11  0.1219E-13  0.7603E-17  0.1000E-09  0.0000E+00  0.6289E+16
   -0.206239    0.30589  0.1027E-11  0.1219E-13  0.7603E-17  0.1000E-09  0.0000E+00  0.6100E+16
   -0.274987    0.40699  0.9943E-12  0.1219E-13  0.7603E-17  0.1000E-09  0.0000E+00  0.5936E+16
   -0.343735    0.50837  0.9871E-12  0.1219E-13  0.7603E-17  0.1000E-09  0.0000E+00  0.5793E+16
   -0.412483    0.61043  0.9856E-12  0.1219E-13  0.7603E-17  0.1000E-09  0.0000E+00  0.5669E+16
   -0.481232    0.71356  0.9854E-12  0.1219E-13  0.7603E-17  0.1000E-09  0.0000E+00  0.5559E+16
   -0.549982    0.81814  0.9853E-12  0.1219E-13  0.7603E-17  0.1000E-09  0.0000E+00  0.5460E+16
   -0.618732    0.92451  0.9853E-12  0.1219E-13  0.7603E-17  0.1000E-09  0.0000E+00  0.5368E+16
   -0.687482    1.03302  0.9853E-12  0.1219E-13  0.7603E-17  0.1000E-09  0.0000E+00  0.5292E+16
   -0.756233    1.14426  0.9853E-12  0.1219E-13  0.7603E-17  0.1000E-09  0.0000E+00  0.5221E+16
   -0.824984    1.25867  0.9853E-12  0.1219E-13  0.7603E-17  0.1000E-09  0.0000E+00  0.5144E+16
   -0.893735    1.37653  0.9852E-12  0.1219E-13  0.7603E-17  0.1000E-09  0.0000E+00  0.5057E+16
   -0.962486    1.49808  0.9851E-12  0.1749E-13  0.7603E-17  0.1000E-09  0.0000E+00  0.4956E+16
   -1.031238    1.62352  0.9845E-12  0.7092E-13  0.1050E-16  0.1000E-09  0.0000E+00  0.4837E+16
   -1.099990    1.75302  0.9833E-12  0.1909E-12  0.2262E-16  0.1000E-09  0.0000E+00  0.4697E+16
   -1.168742    1.88669  0.9810E-12  0.4541E-12  0.5059E-16  0.1000E-09  0.0000E+00  0.4533E+16
   -1.237494    2.02463  0.9772E-12  0.1038E-11  0.1119E-15  0.1000E-09  0.0000E+00  0.4341E+16
   -1.306246    2.16684  0.9722E-12  0.2330E-11  0.2445E-15  0.1000E-09  0.0000E+00  0.4120E+16
   -1.374999    2.31331  0.9671E-12  0.5171E-11  0.5290E-15  0.1000E-09  0.0000E+00  0.3873E+16
   -1.443751    2.46418  0.9631E-12  0.1136E-10  0.1134E-14  0.1000E-09  0.0000E+00  0.3594E+16
   -1.512503    2.61939  0.9605E-12  0.2474E-10  0.2408E-14  0.1000E-09  0.0000E+00  0.3280E+16
   -1.581255    2.77874  0.9589E-12  0.5339E-10  0.5071E-14  0.1000E-09  0.0000E+00  0.2931E+16
   -1.650007    2.94194  0.9579E-12  0.1142E-09  0.1059E-13  0.1000E-09  0.0000E+00  0.2549E+16
   -1.718759    3.10867  0.9572E-12  0.2422E-09  0.2192E-13  0.1000E-09  0.0000E+00  0.2137E+16
   -1.787511    3.27862  0.9568E-12  0.5210E-09  0.4603E-13  0.1362E-09  0.0000E+00  0.1720E+16
   -1.856262    3.45395  0.9563E-12  0.1131E-08  0.9761E-13  0.3944E-09  0.0000E+00  0.1260E+16
   -1.925013    3.63460  0.9554E-12  0.2455E-08  0.2070E-12  0.1395E-08  0.0000E+00  0.7554E+15
   -1.993764    3.81997  0.9540E-12  0.5293E-08  0.4363E-12  0.1029E-07  0.0000E+00  0.2157E+15
   -2.062515    3.99945  0.9536E-12  0.6098E-08  0.5060E-12  0.2876E-04  0.0000E+00 -0.2002E+12
   -2.131265    4.00039  0.9536E-12  0.6447E-08  0.5440E-12  0.2980E-04  0.0000E+00 -0.2068E+12
   -2.200015    4.00130  0.9536E-12  0.6731E-08  0.5851E-12  0.3000E-04  0.0000E+00 -0.2188E+12
   -2.268765    4.00220  0.9536E-12  0.6955E-08  0.6319E-12  0.2932E-04  0.0000E+00 -0.2378E+12
   -2.337514    4.00313  0.9536E-12  0.7123E-08  0.6898E-12  0.2765E-04  0.0000E+00 -0.2679E+12
   -2.406262    4.00412  0.9536E-12  0.7227E-08  0.7673E-12  0.2484E-04  0.0000E+00 -0.3175E+12
   -2.475011    4.00522  0.9536E-12  0.7248E-08  0.8832E-12  0.2070E-04  0.0000E+00 -0.4085E+12
   -2.543758    4.00655  0.9536E-12  0.7135E-08  0.1087E-11  0.1507E-04  0.0000E+00 -0.6114E+12
   -2.612505    4.00840  0.9536E-12  0.6732E-08  0.1579E-11  0.7982E-05  0.0000E+00 -0.1317E+13
   -2.681251    4.01192  0.9536E-12  0.4963E-08  0.4433E-11  0.1142E-05  0.0000E+00 -0.1406E+14
   -2.749997    4.03583  0.9536E-12  0.0000E+00  0.0000E+00  0.0000E+00  0.0000E+00  0.0000E+00
