 1 - depth, m
 2 - temperature, C
 3 - salinity, kg/kg
 4 - turbulent kinetic energy, m**2/s**2
 5 - dissipation rate, m**2/s**3
 6 - kinematic heat conductance, m**2/s
 7 - modulus of horizontal velocity, m/s
 8 - Richardson number, n/d
   -0.000000   -0.00000  0.7630E-12  0.1219E-13  0.7603E-17  0.1000E-09  0.0000E+00  0.7638E+16
   -0.068746    0.11640  0.1595E-11  0.1219E-13  0.7603E-17  0.1000E-09  0.0000E+00  0.7513E+16
   -0.137493    0.23465  0.1839E-11  0.1219E-13  0.7603E-17  0.1000E-09  0.0000E+00  0.7360E+16
   -0.206240    0.35446  0.1816E-11  0.1219E-13  0.7603E-17  0.1000E-09  0.0000E+00  0.7182E+16
   -0.274988    0.47557  0.1688E-11  0.1219E-13  0.7603E-17  0.1000E-09  0.0000E+00  0.6982E+16
   -0.343736    0.59771  0.1546E-11  0.1219E-13  0.7603E-17  0.1000E-09  0.0000E+00  0.6765E+16
   -0.412485    0.72067  0.1435E-11  0.1219E-13  0.7603E-17  0.1000E-09  0.0000E+00  0.6533E+16
   -0.481234    0.84425  0.1363E-11  0.1219E-13  0.7603E-17  0.1000E-09  0.0000E+00  0.6289E+16
   -0.549984    0.96825  0.1324E-11  0.1219E-13  0.7603E-17  0.1000E-09  0.0000E+00  0.6036E+16
   -0.618734    1.09251  0.1305E-11  0.1219E-13  0.7603E-17  0.1000E-09  0.0000E+00  0.5776E+16
   -0.687485    1.21688  0.1296E-11  0.1219E-13  0.7603E-17  0.1000E-09  0.0000E+00  0.5511E+16
   -0.756236    1.34127  0.1292E-11  0.1219E-13  0.7603E-17  0.1000E-09  0.0000E+00  0.5244E+16
   -0.824987    1.46559  0.1291E-11  0.1219E-13  0.7603E-17  0.1000E-09  0.0000E+00  0.4974E+16
   -0.893739    1.58972  0.1290E-11  0.1219E-13  0.7603E-17  0.1000E-09  0.0000E+00  0.4704E+16
   -0.962490    1.71359  0.1289E-11  0.1219E-13  0.7603E-17  0.1000E-09  0.0000E+00  0.4433E+16
   -1.031242    1.83712  0.1287E-11  0.1219E-13  0.7603E-17  0.1000E-09  0.0000E+00  0.4163E+16
   -1.099994    1.96023  0.1285E-11  0.1219E-13  0.7603E-17  0.1000E-09  0.0000E+00  0.3896E+16
   -1.168747    2.08288  0.1283E-11  0.1219E-13  0.7603E-17  0.1000E-09  0.0000E+00  0.3630E+16
   -1.237499    2.20499  0.1280E-11  0.1219E-13  0.7603E-17  0.1000E-09  0.0000E+00  0.3367E+16
   -1.306252    2.32654  0.1276E-11  0.1219E-13  0.7603E-17  0.1000E-09  0.0000E+00  0.3108E+16
   -1.375004    2.44748  0.1272E-11  0.1219E-13  0.7603E-17  0.1000E-09  0.0000E+00  0.2853E+16
   -1.443756    2.56778  0.1269E-11  0.1295E-13  0.7603E-17  0.1000E-09  0.0000E+00  0.2603E+16
   -1.512509    2.68744  0.1265E-11  0.6178E-13  0.1141E-16  0.1000E-09  0.0000E+00  0.2356E+16
   -1.581261    2.80644  0.1262E-11  0.1830E-12  0.2774E-16  0.1000E-09  0.0000E+00  0.2115E+16
   -1.650014    2.92476  0.1260E-11  0.4802E-12  0.6895E-16  0.1000E-09  0.0000E+00  0.1878E+16
   -1.718766    3.04242  0.1258E-11  0.1214E-11  0.1687E-15  0.1000E-09  0.0000E+00  0.1645E+16
   -1.787518    3.15938  0.1256E-11  0.3097E-11  0.4175E-15  0.1000E-09  0.0000E+00  0.1400E+16
   -1.856269    3.27414  0.1255E-11  0.7923E-11  0.1038E-14  0.1000E-09  0.0000E+00  0.1165E+16
   -1.925021    3.38632  0.1254E-11  0.2017E-10  0.2568E-14  0.1000E-09  0.0000E+00  0.9402E+15
   -1.993772    3.49540  0.1253E-11  0.5106E-10  0.6322E-14  0.1000E-09  0.0000E+00  0.7318E+15
   -2.062523    3.60133  0.1253E-11  0.1256E-09  0.1513E-13  0.1397E-09  0.0000E+00  0.5508E+15
   -2.131274    3.70657  0.1253E-11  0.3050E-09  0.3576E-13  0.4857E-09  0.0000E+00  0.3742E+15
   -2.200024    3.81125  0.1252E-11  0.7330E-09  0.8371E-13  0.2124E-08  0.0000E+00  0.2001E+15
   -2.268774    3.91456  0.1252E-11  0.1738E-08  0.1937E-12  0.2557E-07  0.0000E+00  0.3811E+14
   -2.337523    4.00325  0.1252E-11  0.2577E-08  0.2897E-12  0.1036E-04  0.0000E+00 -0.3891E+12
   -2.406272    4.00466  0.1252E-11  0.2897E-08  0.3414E-12  0.1039E-04  0.0000E+00 -0.4170E+12
   -2.475020    4.00605  0.1252E-11  0.3095E-08  0.4013E-12  0.9433E-05  0.0000E+00 -0.4913E+12
   -2.543768    4.00758  0.1252E-11  0.3158E-08  0.4899E-12  0.7361E-05  0.0000E+00 -0.6748E+12
   -2.612515    4.00952  0.1252E-11  0.3002E-08  0.6822E-12  0.4077E-05  0.0000E+00 -0.1327E+13
   -2.681262    4.01292  0.1252E-11  0.2138E-08  0.1638E-11  0.5876E-06  0.0000E+00 -0.1068E+14
   -2.750008    4.03183  0.1252E-11  0.0000E+00  0.0000E+00  0.0000E+00  0.0000E+00  0.0000E+00
