 1 - depth, m
 2 - temperature, C
 3 - salinity, kg/kg
 4 - turbulent kinetic energy, m**2/s**2
 5 - dissipation rate, m**2/s**3
 6 - kinematic heat conductance, m**2/s
 7 - modulus of horizontal velocity, m/s
 8 - Richardson number, n/d
   -0.000000   -0.00000  0.1286E-17  0.1218E-13  0.7603E-17  0.1000E-09  0.0000E+00  0.4235E+16
   -0.068747    0.06409  0.9176E-20  0.1218E-13  0.7603E-17  0.1000E-09  0.0000E+00  0.4435E+16
   -0.137494    0.13242  0.1871E-13  0.1218E-13  0.7603E-17  0.1000E-09  0.0000E+00  0.4598E+16
   -0.206242    0.20465  0.6401E-12  0.1218E-13  0.7603E-17  0.1000E-09  0.0000E+00  0.4733E+16
   -0.274991    0.28056  0.1843E-11  0.1218E-13  0.7603E-17  0.1000E-09  0.0000E+00  0.4844E+16
   -0.343740    0.36000  0.3157E-11  0.1218E-13  0.7603E-17  0.1000E-09  0.0000E+00  0.4934E+16
   -0.412489    0.44287  0.4151E-11  0.1218E-13  0.7603E-17  0.1000E-09  0.0000E+00  0.5004E+16
   -0.481239    0.52908  0.4666E-11  0.1218E-13  0.7603E-17  0.1000E-09  0.0000E+00  0.5054E+16
   -0.549990    0.61851  0.4777E-11  0.1218E-13  0.7603E-17  0.1000E-09  0.0000E+00  0.5082E+16
   -0.618741    0.71104  0.4647E-11  0.1218E-13  0.7603E-17  0.1000E-09  0.0000E+00  0.5088E+16
   -0.687492    0.80653  0.4428E-11  0.1218E-13  0.7603E-17  0.1000E-09  0.0000E+00  0.5067E+16
   -0.756244    0.90472  0.4217E-11  0.1218E-13  0.7603E-17  0.1000E-09  0.0000E+00  0.5020E+16
   -0.824996    1.00538  0.4054E-11  0.1218E-13  0.7603E-17  0.1000E-09  0.0000E+00  0.4954E+16
   -0.893748    1.10832  0.3945E-11  0.1218E-13  0.7603E-17  0.1000E-09  0.0000E+00  0.4867E+16
   -0.962501    1.21338  0.3879E-11  0.1218E-13  0.7603E-17  0.1000E-09  0.0000E+00  0.4764E+16
   -1.031253    1.32040  0.3842E-11  0.1218E-13  0.7603E-17  0.1000E-09  0.0000E+00  0.4645E+16
   -1.100006    1.42924  0.3822E-11  0.1218E-13  0.7603E-17  0.1000E-09  0.0000E+00  0.4512E+16
   -1.168759    1.53982  0.3812E-11  0.1218E-13  0.7603E-17  0.1000E-09  0.0000E+00  0.4368E+16
   -1.237513    1.65206  0.3805E-11  0.1218E-13  0.7603E-17  0.1000E-09  0.0000E+00  0.4214E+16
   -1.306266    1.76594  0.3800E-11  0.1218E-13  0.7603E-17  0.1000E-09  0.0000E+00  0.4052E+16
   -1.375019    1.88145  0.3794E-11  0.1218E-13  0.7603E-17  0.1000E-09  0.0000E+00  0.3883E+16
   -1.443772    1.99868  0.3787E-11  0.1218E-13  0.7603E-17  0.1000E-09  0.0000E+00  0.3709E+16
   -1.512525    2.11773  0.3779E-11  0.1218E-13  0.7603E-17  0.1000E-09  0.0000E+00  0.3528E+16
   -1.581279    2.23875  0.3769E-11  0.1218E-13  0.7603E-17  0.1000E-09  0.0000E+00  0.3342E+16
   -1.650032    2.36191  0.3759E-11  0.1218E-13  0.7603E-17  0.1000E-09  0.0000E+00  0.3150E+16
   -1.718784    2.48749  0.3749E-11  0.1218E-13  0.7603E-17  0.1000E-09  0.0000E+00  0.2947E+16
   -1.787537    2.61563  0.3739E-11  0.1218E-13  0.7603E-17  0.1000E-09  0.0000E+00  0.2632E+16
   -1.856290    2.74145  0.3730E-11  0.1218E-13  0.7603E-17  0.1000E-09  0.0000E+00  0.2318E+16
   -1.925042    2.86413  0.3723E-11  0.1218E-13  0.7603E-17  0.1000E-09  0.0000E+00  0.2004E+16
   -1.993794    2.98244  0.3717E-11  0.1218E-13  0.7603E-17  0.1000E-09  0.0000E+00  0.1716E+16
   -2.062546    3.09642  0.3711E-11  0.1218E-13  0.7603E-17  0.1000E-09  0.0000E+00  0.1515E+16
   -2.131297    3.21109  0.3707E-11  0.3034E-13  0.1498E-16  0.1000E-09  0.0000E+00  0.1318E+16
   -2.200048    3.32704  0.3704E-11  0.1486E-12  0.6869E-16  0.1000E-09  0.0000E+00  0.1116E+16
   -2.268798    3.44450  0.3701E-11  0.7391E-12  0.3275E-15  0.1000E-09  0.0000E+00  0.9022E+15
   -2.337549    3.56293  0.3698E-11  0.3665E-11  0.1560E-14  0.1000E-09  0.0000E+00  0.6831E+15
   -2.406298    3.68211  0.3697E-11  0.1799E-10  0.7371E-14  0.1000E-09  0.0000E+00  0.4605E+15
   -2.475047    3.80197  0.3695E-11  0.8803E-10  0.3479E-13  0.7349E-09  0.0000E+00  0.2340E+15
   -2.543796    3.92177  0.3694E-11  0.4257E-09  0.1633E-12  0.2846E-07  0.0000E+00  0.2305E+14
   -2.612544    4.02143  0.3694E-11  0.1670E-08  0.6760E-12  0.1823E-05  0.0000E+00 -0.5007E+13
   -2.681291    4.02959  0.3694E-11  0.1430E-08  0.1212E-11  0.4417E-06  0.0000E+00 -0.1639E+14
   -2.750038    4.04929  0.3694E-11  0.0000E+00  0.0000E+00  0.0000E+00  0.0000E+00  0.0000E+00
