 1 - depth, m
 2 - temperature, C
 3 - salinity, kg/kg
 4 - turbulent kinetic energy, m**2/s**2
 5 - dissipation rate, m**2/s**3
 6 - kinematic heat conductance, m**2/s
 7 - modulus of horizontal velocity, m/s
 8 - Richardson number, n/d
   -0.000000   -0.00000  0.1808E-12  0.1219E-13  0.7603E-17  0.1000E-09  0.0000E+00  0.6532E+16
   -0.068746    0.09930  0.1650E-11  0.1219E-13  0.7603E-17  0.1000E-09  0.0000E+00  0.6465E+16
   -0.137493    0.20034  0.3385E-11  0.1219E-13  0.7603E-17  0.1000E-09  0.0000E+00  0.6385E+16
   -0.206240    0.30302  0.4559E-11  0.1219E-13  0.7603E-17  0.1000E-09  0.0000E+00  0.6291E+16
   -0.274988    0.40726  0.5010E-11  0.1219E-13  0.7603E-17  0.1000E-09  0.0000E+00  0.6183E+16
   -0.343736    0.51295  0.4963E-11  0.1219E-13  0.7603E-17  0.1000E-09  0.0000E+00  0.6062E+16
   -0.412485    0.61998  0.4696E-11  0.1219E-13  0.7603E-17  0.1000E-09  0.0000E+00  0.5928E+16
   -0.481234    0.72823  0.4398E-11  0.1219E-13  0.7603E-17  0.1000E-09  0.0000E+00  0.5782E+16
   -0.549984    0.83761  0.4158E-11  0.1219E-13  0.7603E-17  0.1000E-09  0.0000E+00  0.5625E+16
   -0.618734    0.94801  0.3997E-11  0.1219E-13  0.7603E-17  0.1000E-09  0.0000E+00  0.5459E+16
   -0.687485    1.05933  0.3902E-11  0.1219E-13  0.7603E-17  0.1000E-09  0.0000E+00  0.5283E+16
   -0.756236    1.17147  0.3851E-11  0.1219E-13  0.7603E-17  0.1000E-09  0.0000E+00  0.5099E+16
   -0.824987    1.28433  0.3826E-11  0.1219E-13  0.7603E-17  0.1000E-09  0.0000E+00  0.4908E+16
   -0.893739    1.39782  0.3814E-11  0.1219E-13  0.7603E-17  0.1000E-09  0.0000E+00  0.4711E+16
   -0.962490    1.51186  0.3808E-11  0.1219E-13  0.7603E-17  0.1000E-09  0.0000E+00  0.4508E+16
   -1.031242    1.62636  0.3803E-11  0.1219E-13  0.7603E-17  0.1000E-09  0.0000E+00  0.4300E+16
   -1.099995    1.74125  0.3799E-11  0.1219E-13  0.7603E-17  0.1000E-09  0.0000E+00  0.4089E+16
   -1.168747    1.85646  0.3793E-11  0.1219E-13  0.7603E-17  0.1000E-09  0.0000E+00  0.3875E+16
   -1.237499    1.97192  0.3786E-11  0.1219E-13  0.7603E-17  0.1000E-09  0.0000E+00  0.3658E+16
   -1.306252    2.08759  0.3778E-11  0.1219E-13  0.7603E-17  0.1000E-09  0.0000E+00  0.3440E+16
   -1.375004    2.20341  0.3768E-11  0.1219E-13  0.7603E-17  0.1000E-09  0.0000E+00  0.3221E+16
   -1.443757    2.31936  0.3757E-11  0.1219E-13  0.7603E-17  0.1000E-09  0.0000E+00  0.3001E+16
   -1.512509    2.43543  0.3747E-11  0.1219E-13  0.7603E-17  0.1000E-09  0.0000E+00  0.2782E+16
   -1.581262    2.55159  0.3737E-11  0.1219E-13  0.7603E-17  0.1000E-09  0.0000E+00  0.2562E+16
   -1.650014    2.66782  0.3728E-11  0.1219E-13  0.7603E-17  0.1000E-09  0.0000E+00  0.2343E+16
   -1.718766    2.78413  0.3721E-11  0.1219E-13  0.7603E-17  0.1000E-09  0.0000E+00  0.2123E+16
   -1.787518    2.90043  0.3715E-11  0.1219E-13  0.7603E-17  0.1000E-09  0.0000E+00  0.1878E+16
   -1.856270    3.01507  0.3710E-11  0.3004E-13  0.8386E-17  0.1000E-09  0.0000E+00  0.1637E+16
   -1.925021    3.12765  0.3706E-11  0.1051E-12  0.2335E-16  0.1000E-09  0.0000E+00  0.1403E+16
   -1.993773    3.23766  0.3703E-11  0.3435E-12  0.7220E-16  0.1000E-09  0.0000E+00  0.1182E+16
   -2.062524    3.34506  0.3700E-11  0.1067E-11  0.2164E-15  0.1000E-09  0.0000E+00  0.9954E+15
   -2.131274    3.45218  0.3698E-11  0.3247E-11  0.6375E-15  0.1000E-09  0.0000E+00  0.8124E+15
   -2.200024    3.55928  0.3696E-11  0.9754E-11  0.1854E-14  0.1000E-09  0.0000E+00  0.6302E+15
   -2.268774    3.66635  0.3695E-11  0.2921E-10  0.5379E-14  0.1000E-09  0.0000E+00  0.4484E+15
   -2.337524    3.77331  0.3694E-11  0.8816E-10  0.1574E-13  0.2984E-09  0.0000E+00  0.2673E+15
   -2.406272    3.87984  0.3694E-11  0.2661E-09  0.4611E-13  0.2610E-08  0.0000E+00  0.8883E+14
   -2.475021    3.98408  0.3694E-11  0.7128E-09  0.1218E-12  0.1120E-05  0.0000E+00 -0.6703E+12
   -2.543769    3.99595  0.3694E-11  0.1134E-08  0.2356E-12  0.2159E-05  0.0000E+00 -0.1260E+13
   -2.612516    4.00224  0.3694E-11  0.1338E-08  0.3933E-12  0.1654E-05  0.0000E+00 -0.2429E+13
   -2.681263    4.01005  0.3694E-11  0.1137E-08  0.8673E-12  0.3863E-06  0.0000E+00 -0.1315E+14
   -2.750008    4.03368  0.3694E-11  0.0000E+00  0.0000E+00  0.0000E+00  0.0000E+00  0.0000E+00
