 1 - depth, m
 2 - temperature, C
 3 - salinity, kg/kg
 4 - turbulent kinetic energy, m**2/s**2
 5 - dissipation rate, m**2/s**3
 6 - kinematic heat conductance, m**2/s
 7 - modulus of horizontal velocity, m/s
 8 - Richardson number, n/d
   -0.000000    8.06880  0.9613E-12  0.8009E-04  0.1835E-04  0.8603E-04  0.8499E-01 -0.5095E-01
   -0.068746    8.11460  0.9613E-12  0.4737E-04  0.4047E-05  0.1112E-03  0.4050E-01 -0.9928E-02
   -0.137492    8.12434  0.9613E-12  0.3905E-04  0.1613E-05  0.1494E-03  0.3257E-01 -0.1313E-01
   -0.206239    8.13091  0.9613E-12  0.3485E-04  0.8244E-06  0.1964E-03  0.2780E-01 -0.1817E-01
   -0.274987    8.13586  0.9613E-12  0.3245E-04  0.5044E-06  0.2499E-03  0.2433E-01 -0.2370E-01
   -0.343735    8.13970  0.9613E-12  0.3090E-04  0.3493E-06  0.3079E-03  0.2166E-01 -0.2972E-01
   -0.412484    8.14275  0.9613E-12  0.2978E-04  0.2627E-06  0.3689E-03  0.1954E-01 -0.3612E-01
   -0.481233    8.14523  0.9613E-12  0.2891E-04  0.2088E-06  0.4318E-03  0.1782E-01 -0.4277E-01
   -0.549983    8.14729  0.9613E-12  0.2819E-04  0.1725E-06  0.4955E-03  0.1637E-01 -0.4951E-01
   -0.618733    8.14903  0.9613E-12  0.2757E-04  0.1465E-06  0.5593E-03  0.1513E-01 -0.5625E-01
   -0.687483    8.15054  0.9613E-12  0.2702E-04  0.1272E-06  0.6224E-03  0.1404E-01 -0.6287E-01
   -0.756234    8.15185  0.9613E-12  0.2652E-04  0.1122E-06  0.6844E-03  0.1309E-01 -0.6906E-01
   -0.824985    8.15302  0.9613E-12  0.2607E-04  0.1004E-06  0.7461E-03  0.1223E-01 -0.7220E-01
   -0.893737    8.15406  0.9613E-12  0.2565E-04  0.9086E-07  0.8147E-03  0.1145E-01 -0.4147E-01
   -0.962488    8.15499  0.9613E-12  0.2527E-04  0.8304E-07  0.9258E-03  0.1074E-01  0.6386E+01
   -1.031240    8.15581  0.9613E-12  0.2491E-04  0.7656E-07  0.1066E-02  0.1008E-01  0.3121E+02
   -1.099992    8.15653  0.9613E-12  0.2456E-04  0.7110E-07  0.1185E-02  0.9466E-02  0.4639E+02
   -1.168744    8.15717  0.9613E-12  0.2423E-04  0.6646E-07  0.1327E-02  0.8887E-02  0.4793E+02
   -1.237496    8.15774  0.9613E-12  0.2391E-04  0.6248E-07  0.1537E-02  0.8337E-02  0.5397E+02
   -1.306249    8.15822  0.9613E-12  0.2360E-04  0.5903E-07  0.1709E-02  0.7812E-02  0.7151E+02
   -1.375001    8.15865  0.9613E-12  0.2328E-04  0.5601E-07  0.1894E-02  0.7304E-02  0.7475E+03
   -1.443753    8.15901  0.9613E-12  0.2296E-04  0.5335E-07  0.2099E-02  0.6809E-02  0.4562E+04
   -1.512506    8.15933  0.9613E-12  0.2262E-04  0.5097E-07  0.2254E-02  0.6326E-02  0.1620E+06
   -1.581258    8.15961  0.9613E-12  0.2227E-04  0.4883E-07  0.2361E-02  0.5849E-02  0.4123E+05
   -1.650010    8.15986  0.9613E-12  0.2189E-04  0.4689E-07  0.2492E-02  0.5377E-02  0.2883E+04
   -1.718762    8.16008  0.9613E-12  0.2147E-04  0.4509E-07  0.2500E-02  0.4910E-02  0.3133E+04
   -1.787514    8.16030  0.9613E-12  0.2100E-04  0.4333E-07  0.2531E-02  0.4440E-02  0.8053E+02
   -1.856265    8.16051  0.9613E-12  0.2048E-04  0.4162E-07  0.2519E-02  0.4016E-02  0.9712E+01
   -1.925017    8.16072  0.9613E-12  0.1992E-04  0.4002E-07  0.2500E-02  0.3627E-02  0.3653E+01
   -1.993768    8.16093  0.9613E-12  0.1932E-04  0.3856E-07  0.2471E-02  0.3275E-02  0.2130E+01
   -2.062519    8.16113  0.9613E-12  0.1872E-04  0.3736E-07  0.2433E-02  0.2952E-02  0.1624E+01
   -2.131269    8.16134  0.9613E-12  0.1813E-04  0.3647E-07  0.2382E-02  0.2646E-02  0.1263E+01
   -2.200019    8.16155  0.9613E-12  0.1756E-04  0.3595E-07  0.2312E-02  0.2355E-02  0.1315E+01
   -2.268769    8.16175  0.9613E-12  0.1700E-04  0.3586E-07  0.2083E-02  0.2081E-02  0.2420E+03
   -2.337518    8.16199  0.9613E-12  0.1644E-04  0.3634E-07  0.1666E-02  0.1830E-02  0.1629E+04
   -2.406267    8.16229  0.9613E-12  0.1588E-04  0.3764E-07  0.1254E-02  0.1601E-02  0.1913E+04
   -2.475015    8.16268  0.9613E-12  0.1525E-04  0.4039E-07  0.8757E-03  0.1389E-02  0.1225E+04
   -2.543763    8.16321  0.9613E-12  0.1449E-04  0.4628E-07  0.6058E-03  0.1181E-02  0.4529E+02
   -2.612510    8.16392  0.9613E-12  0.1338E-04  0.6157E-07  0.3737E-03  0.9677E-03 -0.1024E+01
   -2.681256    8.16506  0.9613E-12  0.7987E-05  0.2125E-06  0.3675E-04  0.7416E-03 -0.4841E+05
   -2.750002    8.17631  0.9613E-12  0.0000E+00  0.0000E+00  0.0000E+00  0.7399E-03  0.0000E+00
