 1 - depth, m
 2 - temperature, C
 3 - salinity, kg/kg
 4 - turbulent kinetic energy, m**2/s**2
 5 - dissipation rate, m**2/s**3
 6 - kinematic heat conductance, m**2/s
 7 - modulus of horizontal velocity, m/s
 8 - Richardson number, n/d
   -0.000000   14.58024  0.1496E-10  0.1466E-04  0.6322E-06  0.3495E-04  0.2623E-01 -0.3070E-01
   -0.068746   14.60624  0.1496E-10  0.1400E-04  0.2272E-06  0.9557E-04  0.1712E-01 -0.8090E-01
   -0.137492   14.61515  0.1496E-10  0.1357E-04  0.1317E-06  0.1676E-03  0.1385E-01 -0.1366E+00
   -0.206239   14.61997  0.1496E-10  0.1329E-04  0.9101E-07  0.2522E-03  0.1200E-01 -0.1963E+00
   -0.274987   14.62302  0.1496E-10  0.1313E-04  0.6924E-07  0.3739E-03  0.1078E-01 -0.1074E+00
   -0.343735   14.62501  0.1496E-10  0.1306E-04  0.5671E-07  0.7458E-03  0.9911E-02  0.9049E+02
   -0.412484   14.62599  0.1496E-10  0.1308E-04  0.4908E-07  0.1153E-02  0.9306E-02  0.6558E+01
   -0.481233   14.62659  0.1496E-10  0.1317E-04  0.4354E-07  0.1188E-02  0.8807E-02  0.7275E+01
   -0.549983   14.62715  0.1496E-10  0.1330E-04  0.3911E-07  0.1275E-02  0.8315E-02  0.7972E+01
   -0.618733   14.62766  0.1496E-10  0.1344E-04  0.3560E-07  0.1338E-02  0.7861E-02  0.8273E+01
   -0.687483   14.62814  0.1496E-10  0.1359E-04  0.3275E-07  0.1408E-02  0.7430E-02  0.8611E+01
   -0.756234   14.62858  0.1496E-10  0.1374E-04  0.3040E-07  0.1473E-02  0.7021E-02  0.8907E+01
   -0.824985   14.62900  0.1496E-10  0.1388E-04  0.2843E-07  0.1537E-02  0.6630E-02  0.9205E+01
   -0.893736   14.62939  0.1496E-10  0.1401E-04  0.2677E-07  0.1599E-02  0.6252E-02  0.9500E+01
   -0.962488   14.62977  0.1496E-10  0.1413E-04  0.2535E-07  0.1660E-02  0.5886E-02  0.9800E+01
   -1.031240   14.63013  0.1496E-10  0.1422E-04  0.2413E-07  0.1719E-02  0.5529E-02  0.1011E+02
   -1.099992   14.63047  0.1496E-10  0.1429E-04  0.2309E-07  0.1774E-02  0.5180E-02  0.1042E+02
   -1.168744   14.63080  0.1496E-10  0.1433E-04  0.2218E-07  0.1826E-02  0.4837E-02  0.1076E+02
   -1.237496   14.63112  0.1496E-10  0.1435E-04  0.2140E-07  0.1871E-02  0.4499E-02  0.1112E+02
   -1.306248   14.63144  0.1496E-10  0.1432E-04  0.2072E-07  0.1908E-02  0.4164E-02  0.1151E+02
   -1.375001   14.63174  0.1496E-10  0.1426E-04  0.2014E-07  0.1934E-02  0.3833E-02  0.1197E+02
   -1.443753   14.63205  0.1496E-10  0.1416E-04  0.1964E-07  0.1948E-02  0.3503E-02  0.1252E+02
   -1.512505   14.63235  0.1496E-10  0.1402E-04  0.1921E-07  0.1946E-02  0.3174E-02  0.1323E+02
   -1.581257   14.63265  0.1496E-10  0.1382E-04  0.1885E-07  0.1926E-02  0.2846E-02  0.1414E+02
   -1.650010   14.63295  0.1496E-10  0.1357E-04  0.1855E-07  0.1890E-02  0.2517E-02  0.1538E+02
   -1.718762   14.63327  0.1496E-10  0.1327E-04  0.1831E-07  0.1830E-02  0.2187E-02  0.1595E+02
   -1.787513   14.63359  0.1496E-10  0.1289E-04  0.1812E-07  0.1790E-02  0.1855E-02  0.6362E+01
   -1.856265   14.63392  0.1496E-10  0.1247E-04  0.1803E-07  0.1768E-02  0.1575E-02  0.3533E+01
   -1.925016   14.63426  0.1496E-10  0.1203E-04  0.1809E-07  0.1775E-02  0.1341E-02  0.2279E+01
   -1.993767   14.63459  0.1496E-10  0.1157E-04  0.1834E-07  0.1815E-02  0.1150E-02  0.1686E+01
   -2.062518   14.63492  0.1496E-10  0.1113E-04  0.1879E-07  0.1855E-02  0.9922E-03  0.1404E+01
   -2.131269   14.63524  0.1496E-10  0.1072E-04  0.1947E-07  0.1781E-02  0.8572E-03  0.1172E+01
   -2.200019   14.63558  0.1496E-10  0.1034E-04  0.2040E-07  0.1596E-02  0.7406E-03  0.9733E+00
   -2.268768   14.63595  0.1496E-10  0.9992E-05  0.2162E-07  0.1413E-02  0.6409E-03  0.7880E+00
   -2.337517   14.63638  0.1496E-10  0.9664E-05  0.2327E-07  0.1249E-02  0.5595E-03  0.7180E+00
   -2.406266   14.63687  0.1496E-10  0.9318E-05  0.2579E-07  0.1152E-02  0.4927E-03  0.1215E+01
   -2.475014   14.63740  0.1496E-10  0.8855E-05  0.3120E-07  0.8943E-03  0.4330E-03  0.7504E+02
   -2.543762   14.63830  0.1496E-10  0.8108E-05  0.4320E-07  0.7199E-03  0.3579E-03  0.8624E+03
   -2.612509   14.63935  0.1496E-10  0.6699E-05  0.7868E-07  0.3573E-03  0.2850E-03 -0.1055E+04
   -2.681256   14.64358  0.1496E-10  0.4048E-05  0.2467E-06  0.1115E-03  0.1688E-03 -0.7525E+04
   -2.750001   14.65092  0.1496E-10  0.0000E+00  0.0000E+00  0.0000E+00  0.2307E-03  0.0000E+00
