 1 - depth, m
 2 - temperature, C
 3 - salinity, kg/kg
 4 - turbulent kinetic energy, m**2/s**2
 5 - dissipation rate, m**2/s**3
 6 - kinematic heat conductance, m**2/s
 7 - modulus of horizontal velocity, m/s
 8 - Richardson number, n/d
   -0.000000   -0.00000  0.6336E-11  0.1219E-13  0.7603E-17  0.1000E-09  0.0000E+00  0.7851E+16
   -0.068746    0.11969  0.3782E-11  0.1219E-13  0.7603E-17  0.1000E-09  0.0000E+00  0.7539E+16
   -0.137492    0.23847  0.2724E-11  0.1219E-13  0.7603E-17  0.1000E-09  0.0000E+00  0.7250E+16
   -0.206239    0.35661  0.2355E-11  0.1219E-13  0.7603E-17  0.1000E-09  0.0000E+00  0.6982E+16
   -0.274987    0.47436  0.2246E-11  0.1219E-13  0.7603E-17  0.1000E-09  0.0000E+00  0.6732E+16
   -0.343735    0.59201  0.2217E-11  0.1219E-13  0.7603E-17  0.1000E-09  0.0000E+00  0.6499E+16
   -0.412483    0.70983  0.2211E-11  0.1219E-13  0.7603E-17  0.1000E-09  0.0000E+00  0.6280E+16
   -0.481232    0.82808  0.2209E-11  0.1219E-13  0.7603E-17  0.1000E-09  0.0000E+00  0.6071E+16
   -0.549982    0.94702  0.2209E-11  0.1219E-13  0.7603E-17  0.1000E-09  0.0000E+00  0.5870E+16
   -0.618732    1.06687  0.2209E-11  0.1219E-13  0.7603E-17  0.1000E-09  0.0000E+00  0.5675E+16
   -0.687482    1.18786  0.2209E-11  0.1219E-13  0.7603E-17  0.1000E-09  0.0000E+00  0.5493E+16
   -0.756233    1.31041  0.2209E-11  0.1219E-13  0.7603E-17  0.1000E-09  0.0000E+00  0.5314E+16
   -0.824984    1.43483  0.2209E-11  0.1219E-13  0.7603E-17  0.1000E-09  0.0000E+00  0.5131E+16
   -0.893735    1.56129  0.2208E-11  0.1219E-13  0.7603E-17  0.1000E-09  0.0000E+00  0.4940E+16
   -0.962487    1.68988  0.2208E-11  0.1718E-13  0.7603E-17  0.1000E-09  0.0000E+00  0.4739E+16
   -1.031238    1.82070  0.2207E-11  0.7030E-13  0.1103E-16  0.1000E-09  0.0000E+00  0.4527E+16
   -1.099990    1.95382  0.2204E-11  0.1933E-12  0.2472E-16  0.1000E-09  0.0000E+00  0.4302E+16
   -1.168742    2.08924  0.2199E-11  0.4728E-12  0.5708E-16  0.1000E-09  0.0000E+00  0.4062E+16
   -1.237495    2.22697  0.2192E-11  0.1114E-11  0.1301E-15  0.1000E-09  0.0000E+00  0.3806E+16
   -1.306247    2.36696  0.2183E-11  0.2578E-11  0.2930E-15  0.1000E-09  0.0000E+00  0.3535E+16
   -1.374999    2.50913  0.2173E-11  0.5896E-11  0.6524E-15  0.1000E-09  0.0000E+00  0.3250E+16
   -1.443751    2.65352  0.2165E-11  0.1334E-10  0.1438E-14  0.1000E-09  0.0000E+00  0.2949E+16
   -1.512503    2.80003  0.2159E-11  0.2989E-10  0.3139E-14  0.1000E-09  0.0000E+00  0.2632E+16
   -1.581255    2.94847  0.2155E-11  0.6631E-10  0.6788E-14  0.1000E-09  0.0000E+00  0.2300E+16
   -1.650008    3.09865  0.2152E-11  0.1457E-09  0.1454E-13  0.1000E-09  0.0000E+00  0.1954E+16
   -1.718759    3.25032  0.2151E-11  0.3170E-09  0.3086E-13  0.1000E-09  0.0000E+00  0.1597E+16
   -1.787511    3.40331  0.2149E-11  0.6997E-09  0.6641E-13  0.2712E-09  0.0000E+00  0.1246E+16
   -1.856263    3.55961  0.2147E-11  0.1557E-08  0.1442E-12  0.8417E-09  0.0000E+00  0.8715E+15
   -1.925014    3.71904  0.2144E-11  0.3455E-08  0.3122E-12  0.3364E-08  0.0000E+00  0.4721E+15
   -1.993765    3.87980  0.2142E-11  0.7491E-08  0.6628E-12  0.3994E-07  0.0000E+00  0.8416E+14
   -2.062516    4.01103  0.2142E-11  0.8407E-08  0.7480E-12  0.3923E-04  0.0000E+00 -0.2360E+12
   -2.131266    4.01163  0.2142E-11  0.8786E-08  0.7924E-12  0.3950E-04  0.0000E+00 -0.2402E+12
   -2.200016    4.01223  0.2142E-11  0.9081E-08  0.8394E-12  0.3891E-04  0.0000E+00 -0.2498E+12
   -2.268765    4.01283  0.2142E-11  0.9298E-08  0.8923E-12  0.3741E-04  0.0000E+00 -0.2663E+12
   -2.337515    4.01347  0.2142E-11  0.9442E-08  0.9581E-12  0.3484E-04  0.0000E+00 -0.2936E+12
   -2.406263    4.01415  0.2142E-11  0.9505E-08  0.1047E-11  0.3102E-04  0.0000E+00 -0.3393E+12
   -2.475011    4.01492  0.2142E-11  0.9462E-08  0.1182E-11  0.2572E-04  0.0000E+00 -0.4233E+12
   -2.543759    4.01585  0.2142E-11  0.9254E-08  0.1421E-11  0.1871E-04  0.0000E+00 -0.6079E+12
   -2.612506    4.01713  0.2142E-11  0.8687E-08  0.2004E-11  0.9968E-05  0.0000E+00 -0.1225E+13
   -2.681252    4.01957  0.2142E-11  0.6251E-08  0.5602E-11  0.1297E-05  0.0000E+00 -0.1211E+14
   -2.749998    4.03782  0.2142E-11  0.0000E+00  0.0000E+00  0.0000E+00  0.0000E+00  0.0000E+00
