 1 - depth, m
 2 - temperature, C
 3 - salinity, kg/kg
 4 - turbulent kinetic energy, m**2/s**2
 5 - dissipation rate, m**2/s**3
 6 - kinematic heat conductance, m**2/s
 7 - modulus of horizontal velocity, m/s
 8 - Richardson number, n/d
   -0.000000   -0.00000  0.3465E-11  0.1219E-13  0.7603E-17  0.1000E-09  0.0000E+00  0.5882E+16
   -0.068746    0.08931  0.1922E-11  0.1219E-13  0.7603E-17  0.1000E-09  0.0000E+00  0.5662E+16
   -0.137492    0.17740  0.1443E-11  0.1219E-13  0.7603E-17  0.1000E-09  0.0000E+00  0.5482E+16
   -0.206239    0.26480  0.1323E-11  0.1219E-13  0.7603E-17  0.1000E-09  0.0000E+00  0.5339E+16
   -0.274986    0.35207  0.1297E-11  0.1219E-13  0.7603E-17  0.1000E-09  0.0000E+00  0.5229E+16
   -0.343735    0.43975  0.1292E-11  0.1219E-13  0.7603E-17  0.1000E-09  0.0000E+00  0.5148E+16
   -0.412483    0.52837  0.1291E-11  0.1219E-13  0.7603E-17  0.1000E-09  0.0000E+00  0.5092E+16
   -0.481232    0.61846  0.1290E-11  0.1219E-13  0.7603E-17  0.1000E-09  0.0000E+00  0.5059E+16
   -0.549982    0.71056  0.1290E-11  0.1219E-13  0.7603E-17  0.1000E-09  0.0000E+00  0.5043E+16
   -0.618732    0.80518  0.1290E-11  0.1219E-13  0.7603E-17  0.1000E-09  0.0000E+00  0.5040E+16
   -0.687482    0.90281  0.1290E-11  0.1219E-13  0.7603E-17  0.1000E-09  0.0000E+00  0.5061E+16
   -0.756233    1.00421  0.1290E-11  0.1219E-13  0.7603E-17  0.1000E-09  0.0000E+00  0.5091E+16
   -0.824984    1.11002  0.1290E-11  0.1219E-13  0.7603E-17  0.1000E-09  0.0000E+00  0.5117E+16
   -0.893735    1.22066  0.1290E-11  0.1219E-13  0.7603E-17  0.1000E-09  0.0000E+00  0.5134E+16
   -0.962486    1.33650  0.1290E-11  0.1219E-13  0.7603E-17  0.1000E-09  0.0000E+00  0.5134E+16
   -1.031238    1.45790  0.1290E-11  0.5042E-13  0.9110E-17  0.1000E-09  0.0000E+00  0.5112E+16
   -1.099990    1.58514  0.1289E-11  0.1463E-12  0.2039E-16  0.1000E-09  0.0000E+00  0.5062E+16
   -1.168742    1.71845  0.1288E-11  0.3709E-12  0.4843E-16  0.1000E-09  0.0000E+00  0.4979E+16
   -1.237494    1.85802  0.1284E-11  0.9017E-12  0.1138E-15  0.1000E-09  0.0000E+00  0.4856E+16
   -1.306246    2.00395  0.1278E-11  0.2152E-11  0.2639E-15  0.1000E-09  0.0000E+00  0.4689E+16
   -1.374998    2.15627  0.1271E-11  0.5071E-11  0.6054E-15  0.1000E-09  0.0000E+00  0.4484E+16
   -1.443751    2.31527  0.1265E-11  0.1182E-10  0.1374E-14  0.1000E-09  0.0000E+00  0.4227E+16
   -1.512503    2.48090  0.1261E-11  0.2726E-10  0.3087E-14  0.1000E-09  0.0000E+00  0.3913E+16
   -1.581255    2.65294  0.1259E-11  0.6226E-10  0.6868E-14  0.1000E-09  0.0000E+00  0.3541E+16
   -1.650007    2.83102  0.1258E-11  0.1408E-09  0.1514E-13  0.1000E-09  0.0000E+00  0.3112E+16
   -1.718759    3.01471  0.1257E-11  0.3152E-09  0.3304E-13  0.1000E-09  0.0000E+00  0.2632E+16
   -1.787510    3.20357  0.1256E-11  0.7160E-09  0.7316E-13  0.1750E-09  0.0000E+00  0.2128E+16
   -1.856262    3.39980  0.1256E-11  0.1639E-08  0.1633E-12  0.5340E-09  0.0000E+00  0.1557E+16
   -1.925013    3.60328  0.1254E-11  0.3744E-08  0.3640E-12  0.2020E-08  0.0000E+00  0.9174E+15
   -1.993764    3.81275  0.1252E-11  0.8449E-08  0.8029E-12  0.1757E-07  0.0000E+00  0.2326E+15
   -2.062515    4.00830  0.1251E-11  0.9500E-08  0.9079E-12  0.4020E-04  0.0000E+00 -0.2694E+12
   -2.131265    4.00906  0.1251E-11  0.9938E-08  0.9636E-12  0.4079E-04  0.0000E+00 -0.2754E+12
   -2.200015    4.00982  0.1251E-11  0.1029E-07  0.1023E-11  0.4045E-04  0.0000E+00 -0.2879E+12
   -2.268765    4.01059  0.1251E-11  0.1055E-07  0.1092E-11  0.3911E-04  0.0000E+00 -0.3086E+12
   -2.337514    4.01139  0.1251E-11  0.1073E-07  0.1177E-11  0.3660E-04  0.0000E+00 -0.3423E+12
   -2.406262    4.01225  0.1251E-11  0.1083E-07  0.1291E-11  0.3274E-04  0.0000E+00 -0.3983E+12
   -2.475010    4.01321  0.1251E-11  0.1081E-07  0.1465E-11  0.2729E-04  0.0000E+00 -0.5006E+12
   -2.543758    4.01437  0.1251E-11  0.1061E-07  0.1771E-11  0.1999E-04  0.0000E+00 -0.7247E+12
   -2.612505    4.01598  0.1251E-11  0.1001E-07  0.2510E-11  0.1081E-04  0.0000E+00 -0.1472E+13
   -2.681251    4.01899  0.1251E-11  0.7413E-08  0.7002E-11  0.1526E-05  0.0000E+00 -0.1448E+14
   -2.749997    4.04033  0.1251E-11  0.0000E+00  0.0000E+00  0.0000E+00  0.0000E+00  0.0000E+00
