 1 - depth, m
 2 - temperature, C
 3 - salinity, kg/kg
 4 - turbulent kinetic energy, m**2/s**2
 5 - dissipation rate, m**2/s**3
 6 - kinematic heat conductance, m**2/s
 7 - modulus of horizontal velocity, m/s
 8 - Richardson number, n/d
   -0.000000   -0.00000  0.5421E-12  0.1219E-13  0.7603E-17  0.1000E-09  0.0000E+00  0.7133E+16
   -0.068746    0.10858  0.2018E-11  0.1219E-13  0.7603E-17  0.1000E-09  0.0000E+00  0.7033E+16
   -0.137493    0.21891  0.2849E-11  0.1219E-13  0.7603E-17  0.1000E-09  0.0000E+00  0.6915E+16
   -0.206240    0.33086  0.3070E-11  0.1219E-13  0.7603E-17  0.1000E-09  0.0000E+00  0.6780E+16
   -0.274988    0.44427  0.2968E-11  0.1219E-13  0.7603E-17  0.1000E-09  0.0000E+00  0.6628E+16
   -0.343736    0.55900  0.2755E-11  0.1219E-13  0.7603E-17  0.1000E-09  0.0000E+00  0.6461E+16
   -0.412485    0.67488  0.2550E-11  0.1219E-13  0.7603E-17  0.1000E-09  0.0000E+00  0.6279E+16
   -0.481234    0.79175  0.2398E-11  0.1219E-13  0.7603E-17  0.1000E-09  0.0000E+00  0.6084E+16
   -0.549984    0.90946  0.2304E-11  0.1219E-13  0.7603E-17  0.1000E-09  0.0000E+00  0.5877E+16
   -0.618734    1.02786  0.2253E-11  0.1219E-13  0.7603E-17  0.1000E-09  0.0000E+00  0.5661E+16
   -0.687485    1.14679  0.2228E-11  0.1219E-13  0.7603E-17  0.1000E-09  0.0000E+00  0.5436E+16
   -0.756236    1.26613  0.2216E-11  0.1219E-13  0.7603E-17  0.1000E-09  0.0000E+00  0.5205E+16
   -0.824987    1.38577  0.2211E-11  0.1219E-13  0.7603E-17  0.1000E-09  0.0000E+00  0.4968E+16
   -0.893739    1.50559  0.2208E-11  0.1219E-13  0.7603E-17  0.1000E-09  0.0000E+00  0.4727E+16
   -0.962490    1.62549  0.2206E-11  0.1219E-13  0.7603E-17  0.1000E-09  0.0000E+00  0.4484E+16
   -1.031242    1.74536  0.2204E-11  0.1219E-13  0.7603E-17  0.1000E-09  0.0000E+00  0.4238E+16
   -1.099994    1.86513  0.2201E-11  0.1219E-13  0.7603E-17  0.1000E-09  0.0000E+00  0.3992E+16
   -1.168747    1.98473  0.2198E-11  0.1219E-13  0.7603E-17  0.1000E-09  0.0000E+00  0.3746E+16
   -1.237499    2.10409  0.2193E-11  0.1219E-13  0.7603E-17  0.1000E-09  0.0000E+00  0.3500E+16
   -1.306252    2.22316  0.2187E-11  0.1219E-13  0.7603E-17  0.1000E-09  0.0000E+00  0.3257E+16
   -1.375004    2.34190  0.2181E-11  0.1219E-13  0.7603E-17  0.1000E-09  0.0000E+00  0.3016E+16
   -1.443757    2.46031  0.2175E-11  0.1219E-13  0.7603E-17  0.1000E-09  0.0000E+00  0.2777E+16
   -1.512509    2.57836  0.2169E-11  0.1219E-13  0.7603E-17  0.1000E-09  0.0000E+00  0.2541E+16
   -1.581261    2.69605  0.2163E-11  0.1219E-13  0.7603E-17  0.1000E-09  0.0000E+00  0.2308E+16
   -1.650014    2.81336  0.2159E-11  0.4586E-13  0.1011E-16  0.1000E-09  0.0000E+00  0.2078E+16
   -1.718766    2.93030  0.2155E-11  0.1436E-12  0.2584E-16  0.1000E-09  0.0000E+00  0.1850E+16
   -1.787518    3.04682  0.2152E-11  0.4164E-12  0.7091E-16  0.1000E-09  0.0000E+00  0.1605E+16
   -1.856270    3.16131  0.2150E-11  0.1185E-11  0.1948E-15  0.1000E-09  0.0000E+00  0.1367E+16
   -1.925021    3.27339  0.2147E-11  0.3330E-11  0.5308E-15  0.1000E-09  0.0000E+00  0.1137E+16
   -1.993772    3.38253  0.2146E-11  0.9282E-11  0.1435E-14  0.1000E-09  0.0000E+00  0.9238E+15
   -2.062523    3.48868  0.2144E-11  0.2506E-10  0.3761E-14  0.1000E-09  0.0000E+00  0.7413E+15
   -2.131274    3.59432  0.2144E-11  0.6666E-10  0.9713E-14  0.1000E-09  0.0000E+00  0.5634E+15
   -2.200024    3.69976  0.2143E-11  0.1755E-09  0.2483E-13  0.3260E-09  0.0000E+00  0.3868E+15
   -2.268774    3.80491  0.2143E-11  0.4609E-09  0.6337E-13  0.1519E-08  0.0000E+00  0.2115E+15
   -2.337523    3.90913  0.2143E-11  0.1210E-08  0.1620E-12  0.1818E-07  0.0000E+00  0.4466E+14
   -2.406272    4.00241  0.2143E-11  0.2100E-08  0.2832E-12  0.6992E-05  0.0000E+00 -0.5580E+12
   -2.475021    4.00449  0.2143E-11  0.2428E-08  0.3526E-12  0.6915E-05  0.0000E+00 -0.6273E+12
   -2.543768    4.00658  0.2143E-11  0.2589E-08  0.4415E-12  0.5736E-05  0.0000E+00 -0.8326E+12
   -2.612516    4.00905  0.2143E-11  0.2523E-08  0.6160E-12  0.3353E-05  0.0000E+00 -0.1579E+13
   -2.681262    4.01312  0.2143E-11  0.1840E-08  0.1408E-11  0.5316E-06  0.0000E+00 -0.1130E+14
   -2.750008    4.03280  0.2143E-11  0.0000E+00  0.0000E+00  0.0000E+00  0.0000E+00  0.0000E+00
