 1 - depth, m
 2 - temperature, C
 3 - salinity, kg/kg
 4 - turbulent kinetic energy, m**2/s**2
 5 - dissipation rate, m**2/s**3
 6 - kinematic heat conductance, m**2/s
 7 - modulus of horizontal velocity, m/s
 8 - Richardson number, n/d
   -0.000000   -0.00000  0.2094E-11  0.1219E-13  0.7603E-17  0.1000E-09  0.0000E+00  0.8733E+16
   -0.068746    0.13338  0.1381E-11  0.1219E-13  0.7603E-17  0.1000E-09  0.0000E+00  0.8372E+16
   -0.137492    0.26606  0.9950E-12  0.1219E-13  0.7603E-17  0.1000E-09  0.0000E+00  0.8028E+16
   -0.206239    0.39818  0.8344E-12  0.1219E-13  0.7603E-17  0.1000E-09  0.0000E+00  0.7697E+16
   -0.274987    0.52989  0.7782E-12  0.1219E-13  0.7603E-17  0.1000E-09  0.0000E+00  0.7379E+16
   -0.343735    0.66135  0.7611E-12  0.1219E-13  0.7603E-17  0.1000E-09  0.0000E+00  0.7072E+16
   -0.412483    0.79271  0.7564E-12  0.1219E-13  0.7603E-17  0.1000E-09  0.0000E+00  0.6774E+16
   -0.481233    0.92413  0.7553E-12  0.1219E-13  0.7603E-17  0.1000E-09  0.0000E+00  0.6485E+16
   -0.549982    1.05573  0.7550E-12  0.1219E-13  0.7603E-17  0.1000E-09  0.0000E+00  0.6201E+16
   -0.618732    1.18765  0.7550E-12  0.1219E-13  0.7603E-17  0.1000E-09  0.0000E+00  0.5921E+16
   -0.687482    1.32001  0.7549E-12  0.1219E-13  0.7603E-17  0.1000E-09  0.0000E+00  0.5653E+16
   -0.756233    1.45311  0.7549E-12  0.1219E-13  0.7603E-17  0.1000E-09  0.0000E+00  0.5389E+16
   -0.824984    1.58716  0.7549E-12  0.1746E-13  0.7603E-17  0.1000E-09  0.0000E+00  0.5123E+16
   -0.893735    1.72225  0.7547E-12  0.7088E-13  0.9780E-17  0.1000E-09  0.0000E+00  0.4852E+16
   -0.962487    1.85841  0.7544E-12  0.1863E-12  0.1997E-16  0.1000E-09  0.0000E+00  0.4577E+16
   -1.031239    1.99569  0.7537E-12  0.4283E-12  0.4279E-16  0.1000E-09  0.0000E+00  0.4296E+16
   -1.099991    2.13409  0.7524E-12  0.9414E-12  0.9089E-16  0.1000E-09  0.0000E+00  0.4009E+16
   -1.168743    2.27361  0.7504E-12  0.2030E-11  0.1908E-15  0.1000E-09  0.0000E+00  0.3714E+16
   -1.237495    2.41422  0.7478E-12  0.4328E-11  0.3967E-15  0.1000E-09  0.0000E+00  0.3412E+16
   -1.306247    2.55585  0.7447E-12  0.9137E-11  0.8175E-15  0.1000E-09  0.0000E+00  0.3102E+16
   -1.374999    2.69844  0.7416E-12  0.1912E-10  0.1670E-14  0.1000E-09  0.0000E+00  0.2788E+16
   -1.443752    2.84199  0.7390E-12  0.3968E-10  0.3384E-14  0.1000E-09  0.0000E+00  0.2467E+16
   -1.512504    2.98639  0.7371E-12  0.8166E-10  0.6802E-14  0.1000E-09  0.0000E+00  0.2140E+16
   -1.581256    3.13152  0.7359E-12  0.1667E-09  0.1356E-13  0.1000E-09  0.0000E+00  0.1807E+16
   -1.650008    3.27721  0.7350E-12  0.3375E-09  0.2684E-13  0.1000E-09  0.0000E+00  0.1470E+16
   -1.718760    3.42328  0.7342E-12  0.6781E-09  0.5271E-13  0.2372E-09  0.0000E+00  0.1131E+16
   -1.787512    3.56947  0.7334E-12  0.1381E-08  0.1049E-12  0.6677E-09  0.0000E+00  0.7997E+15
   -1.856263    3.71759  0.7326E-12  0.2840E-08  0.2109E-12  0.2360E-08  0.0000E+00  0.4547E+15
   -1.925014    3.86655  0.7321E-12  0.5789E-08  0.4210E-12  0.1937E-07  0.0000E+00  0.1105E+15
   -1.993765    4.00235  0.7321E-12  0.6478E-08  0.4736E-12  0.3588E-04  0.0000E+00 -0.1578E+12
   -2.062516    4.00296  0.7321E-12  0.6776E-08  0.5017E-12  0.3657E-04  0.0000E+00 -0.1609E+12
   -2.131266    4.00357  0.7321E-12  0.7020E-08  0.5313E-12  0.3649E-04  0.0000E+00 -0.1670E+12
   -2.200016    4.00418  0.7321E-12  0.7213E-08  0.5638E-12  0.3568E-04  0.0000E+00 -0.1768E+12
   -2.268766    4.00480  0.7321E-12  0.7354E-08  0.6013E-12  0.3407E-04  0.0000E+00 -0.1917E+12
   -2.337515    4.00545  0.7321E-12  0.7446E-08  0.6489E-12  0.3150E-04  0.0000E+00 -0.2150E+12
   -2.406264    4.00615  0.7321E-12  0.7480E-08  0.7139E-12  0.2782E-04  0.0000E+00 -0.2532E+12
   -2.475012    4.00695  0.7321E-12  0.7433E-08  0.8131E-12  0.2282E-04  0.0000E+00 -0.3230E+12
   -2.543759    4.00793  0.7321E-12  0.7256E-08  0.9909E-12  0.1633E-04  0.0000E+00 -0.4778E+12
   -2.612506    4.00929  0.7321E-12  0.6786E-08  0.1428E-11  0.8459E-05  0.0000E+00 -0.1011E+13
   -2.681253    4.01195  0.7321E-12  0.4818E-08  0.4093E-11  0.1065E-05  0.0000E+00 -0.1107E+14
   -2.749999    4.03181  0.7321E-12  0.0000E+00  0.0000E+00  0.0000E+00  0.0000E+00  0.0000E+00
