 1 - depth, m
 2 - temperature, C
 3 - salinity, kg/kg
 4 - turbulent kinetic energy, m**2/s**2
 5 - dissipation rate, m**2/s**3
 6 - kinematic heat conductance, m**2/s
 7 - modulus of horizontal velocity, m/s
 8 - Richardson number, n/d
   -0.000000    4.99536  0.2150E-11  0.8173E-04  0.2095E-04  0.8519E-04  0.8675E-01 -0.4227E+02
   -0.068746    5.08297  0.2150E-11  0.4847E-04  0.4860E-05  0.1121E-03  0.4143E-01 -0.1754E-01
   -0.137492    5.10132  0.2150E-11  0.3963E-04  0.1867E-05  0.1481E-03  0.3336E-01 -0.7012E-02
   -0.206239    5.11378  0.2150E-11  0.3511E-04  0.8872E-06  0.1925E-03  0.2850E-01 -0.9736E-02
   -0.274987    5.12322  0.2150E-11  0.3253E-04  0.5235E-06  0.2430E-03  0.2494E-01 -0.1282E-01
   -0.343735    5.13056  0.2150E-11  0.3088E-04  0.3570E-06  0.2971E-03  0.2221E-01 -0.1618E-01
   -0.412484    5.13642  0.2150E-11  0.2971E-04  0.2665E-06  0.3534E-03  0.2004E-01 -0.1970E-01
   -0.481233    5.14122  0.2150E-11  0.2879E-04  0.2109E-06  0.4109E-03  0.1827E-01 -0.2335E-01
   -0.549983    5.14524  0.2150E-11  0.2803E-04  0.1736E-06  0.4687E-03  0.1677E-01 -0.2706E-01
   -0.618733    5.14868  0.2150E-11  0.2737E-04  0.1471E-06  0.5259E-03  0.1549E-01 -0.3075E-01
   -0.687483    5.15166  0.2150E-11  0.2678E-04  0.1273E-06  0.5821E-03  0.1437E-01 -0.3438E-01
   -0.756234    5.15427  0.2150E-11  0.2626E-04  0.1121E-06  0.6367E-03  0.1338E-01 -0.3789E-01
   -0.824985    5.15660  0.2150E-11  0.2577E-04  0.1000E-06  0.6894E-03  0.1248E-01 -0.4123E-01
   -0.893736    5.15870  0.2150E-11  0.2533E-04  0.9032E-07  0.7397E-03  0.1167E-01 -0.4437E-01
   -0.962488    5.16060  0.2150E-11  0.2491E-04  0.8235E-07  0.7874E-03  0.1092E-01 -0.4725E-01
   -1.031240    5.16233  0.2150E-11  0.2451E-04  0.7572E-07  0.8318E-03  0.1023E-01 -0.4983E-01
   -1.099992    5.16392  0.2150E-11  0.2414E-04  0.7013E-07  0.8728E-03  0.9584E-02 -0.5204E-01
   -1.168744    5.16540  0.2150E-11  0.2377E-04  0.6538E-07  0.9099E-03  0.8974E-02 -0.5373E-01
   -1.237496    5.16678  0.2150E-11  0.2342E-04  0.6129E-07  0.9433E-03  0.8396E-02 -0.5416E-01
   -1.306248    5.16806  0.2150E-11  0.2307E-04  0.5775E-07  0.9738E-03  0.7843E-02 -0.5079E-01
   -1.375001    5.16927  0.2150E-11  0.2271E-04  0.5465E-07  0.1006E-02  0.7312E-02 -0.2232E-01
   -1.443753    5.17041  0.2150E-11  0.2236E-04  0.5191E-07  0.1048E-02  0.6796E-02  0.7089E+01
   -1.512505    5.17148  0.2150E-11  0.2198E-04  0.4946E-07  0.1086E-02  0.6293E-02  0.8094E+02
   -1.581257    5.17249  0.2150E-11  0.2159E-04  0.4723E-07  0.1103E-02  0.5798E-02  0.3529E+04
   -1.650009    5.17346  0.2150E-11  0.2117E-04  0.4517E-07  0.1117E-02  0.5307E-02  0.4793E+02
   -1.718761    5.17440  0.2150E-11  0.2070E-04  0.4320E-07  0.1112E-02  0.4814E-02  0.1021E+02
   -1.787513    5.17530  0.2150E-11  0.2018E-04  0.4129E-07  0.1167E-02  0.4318E-02  0.5831E+01
   -1.856265    5.17616  0.2150E-11  0.1963E-04  0.3951E-07  0.1206E-02  0.3891E-02  0.4138E+01
   -1.925016    5.17697  0.2150E-11  0.1906E-04  0.3789E-07  0.1230E-02  0.3518E-02  0.6490E+01
   -1.993767    5.17776  0.2150E-11  0.1849E-04  0.3646E-07  0.1229E-02  0.3189E-02  0.3120E+01
   -2.062518    5.17853  0.2150E-11  0.1793E-04  0.3529E-07  0.1197E-02  0.2892E-02  0.1202E+02
   -2.131268    5.17931  0.2150E-11  0.1739E-04  0.3440E-07  0.1149E-02  0.2611E-02  0.1181E+02
   -2.200018    5.18008  0.2150E-11  0.1686E-04  0.3384E-07  0.1068E-02  0.2343E-02  0.2639E+02
   -2.268768    5.18088  0.2150E-11  0.1634E-04  0.3367E-07  0.9826E-03  0.2083E-02  0.1090E+03
   -2.337517    5.18172  0.2150E-11  0.1580E-04  0.3400E-07  0.9057E-03  0.1838E-02  0.4236E+03
   -2.406266    5.18260  0.2150E-11  0.1523E-04  0.3513E-07  0.8174E-03  0.1605E-02 -0.2425E+00
   -2.475014    5.18355  0.2150E-11  0.1460E-04  0.3763E-07  0.7039E-03  0.1383E-02 -0.3173E+00
   -2.543762    5.18463  0.2150E-11  0.1385E-04  0.4304E-07  0.5533E-03  0.1167E-02 -0.3911E+00
   -2.612509    5.18597  0.2150E-11  0.1276E-04  0.5716E-07  0.3520E-03  0.9492E-03 -0.5499E+00
   -2.681255    5.18802  0.2150E-11  0.7583E-05  0.1962E-06  0.3551E-04  0.7205E-03 -0.4346E+05
   -2.750001    5.20772  0.2150E-11  0.0000E+00  0.0000E+00  0.0000E+00  0.7187E-03  0.0000E+00
