 1 - depth, m
 2 - temperature, C
 3 - salinity, kg/kg
 4 - turbulent kinetic energy, m**2/s**2
 5 - dissipation rate, m**2/s**3
 6 - kinematic heat conductance, m**2/s
 7 - modulus of horizontal velocity, m/s
 8 - Richardson number, n/d
   -0.000000   14.51981  0.2187E-11  0.1581E-04  0.8169E-06  0.3378E-04  0.2831E-01 -0.2614E-01
   -0.068746   14.54437  0.2187E-11  0.1468E-04  0.2695E-06  0.9200E-04  0.1814E-01 -0.6989E-01
   -0.137492   14.55265  0.2187E-11  0.1413E-04  0.1513E-06  0.1592E-03  0.1465E-01 -0.1171E+00
   -0.206239   14.55722  0.2187E-11  0.1377E-04  0.1029E-06  0.2368E-03  0.1264E-01 -0.1674E+00
   -0.274987   14.56017  0.2187E-11  0.1354E-04  0.7726E-07  0.3415E-03  0.1130E-01 -0.1098E+00
   -0.343735   14.56215  0.2187E-11  0.1339E-04  0.6213E-07  0.5753E-03  0.1034E-01  0.5679E+02
   -0.412484   14.56340  0.2187E-11  0.1332E-04  0.5261E-07  0.9055E-03  0.9625E-02  0.7345E+02
   -0.481233   14.56416  0.2187E-11  0.1333E-04  0.4620E-07  0.1213E-02  0.9063E-02  0.6399E+02
   -0.549983   14.56467  0.2187E-11  0.1339E-04  0.4142E-07  0.1268E-02  0.8575E-02  0.8370E+01
   -0.618733   14.56513  0.2187E-11  0.1348E-04  0.3754E-07  0.1340E-02  0.8103E-02  0.9318E+01
   -0.687483   14.56556  0.2187E-11  0.1358E-04  0.3440E-07  0.1402E-02  0.7661E-02  0.9834E+01
   -0.756234   14.56596  0.2187E-11  0.1368E-04  0.3181E-07  0.1466E-02  0.7240E-02  0.1040E+02
   -0.824985   14.56633  0.2187E-11  0.1378E-04  0.2965E-07  0.1526E-02  0.6837E-02  0.1094E+02
   -0.893737   14.56669  0.2187E-11  0.1387E-04  0.2782E-07  0.1585E-02  0.6450E-02  0.1151E+02
   -0.962488   14.56702  0.2187E-11  0.1395E-04  0.2626E-07  0.1641E-02  0.6075E-02  0.1211E+02
   -1.031240   14.56735  0.2187E-11  0.1401E-04  0.2492E-07  0.1695E-02  0.5710E-02  0.1276E+02
   -1.099992   14.56765  0.2187E-11  0.1405E-04  0.2376E-07  0.1745E-02  0.5355E-02  0.1348E+02
   -1.168744   14.56795  0.2187E-11  0.1407E-04  0.2275E-07  0.1790E-02  0.5006E-02  0.1431E+02
   -1.237496   14.56823  0.2187E-11  0.1406E-04  0.2186E-07  0.1830E-02  0.4662E-02  0.1527E+02
   -1.306249   14.56851  0.2187E-11  0.1402E-04  0.2109E-07  0.1863E-02  0.4323E-02  0.1645E+02
   -1.375001   14.56878  0.2187E-11  0.1395E-04  0.2041E-07  0.1888E-02  0.3988E-02  0.1795E+02
   -1.443753   14.56905  0.2187E-11  0.1385E-04  0.1982E-07  0.1902E-02  0.3655E-02  0.1998E+02
   -1.512506   14.56931  0.2187E-11  0.1370E-04  0.1929E-07  0.1904E-02  0.3323E-02  0.2289E+02
   -1.581258   14.56958  0.2187E-11  0.1352E-04  0.1884E-07  0.1891E-02  0.2992E-02  0.2753E+02
   -1.650010   14.56984  0.2187E-11  0.1329E-04  0.1843E-07  0.1867E-02  0.2660E-02  0.3581E+02
   -1.718762   14.57011  0.2187E-11  0.1300E-04  0.1808E-07  0.1819E-02  0.2328E-02  0.4690E+02
   -1.787514   14.57038  0.2187E-11  0.1266E-04  0.1776E-07  0.1800E-02  0.1993E-02  0.8907E+01
   -1.856265   14.57066  0.2187E-11  0.1227E-04  0.1752E-07  0.1786E-02  0.1707E-02  0.4212E+01
   -1.925017   14.57093  0.2187E-11  0.1185E-04  0.1740E-07  0.1792E-02  0.1465E-02  0.2523E+01
   -1.993768   14.57121  0.2187E-11  0.1141E-04  0.1745E-07  0.1821E-02  0.1262E-02  0.1798E+01
   -2.062519   14.57148  0.2187E-11  0.1100E-04  0.1768E-07  0.1853E-02  0.1093E-02  0.1472E+01
   -2.131269   14.57174  0.2187E-11  0.1059E-04  0.1813E-07  0.1786E-02  0.9444E-03  0.1211E+01
   -2.200019   14.57202  0.2187E-11  0.1022E-04  0.1882E-07  0.1649E-02  0.8140E-03  0.9975E+00
   -2.268769   14.57232  0.2187E-11  0.9876E-05  0.1978E-07  0.1501E-02  0.7002E-03  0.7847E+00
   -2.337518   14.57265  0.2187E-11  0.9556E-05  0.2110E-07  0.1341E-02  0.6055E-03  0.6447E+00
   -2.406267   14.57303  0.2187E-11  0.9239E-05  0.2305E-07  0.1220E-02  0.5285E-03  0.8121E+00
   -2.475015   14.57344  0.2187E-11  0.8865E-05  0.2676E-07  0.9883E-03  0.4623E-03  0.4263E+02
   -2.543763   14.57402  0.2187E-11  0.8321E-05  0.3464E-07  0.8310E-03  0.3915E-03  0.1172E+03
   -2.612510   14.57477  0.2187E-11  0.7280E-05  0.5829E-07  0.4243E-03  0.3221E-03  0.1323E+04
   -2.681256   14.57749  0.2187E-11  0.4390E-05  0.1979E-06  0.8613E-04  0.2103E-03 -0.8054E+04
   -2.750002   14.58454  0.2187E-11  0.0000E+00  0.0000E+00  0.0000E+00  0.2534E-03  0.0000E+00
