 1 - depth, m
 2 - temperature, C
 3 - salinity, kg/kg
 4 - turbulent kinetic energy, m**2/s**2
 5 - dissipation rate, m**2/s**3
 6 - kinematic heat conductance, m**2/s
 7 - modulus of horizontal velocity, m/s
 8 - Richardson number, n/d
   -0.000000   -0.00000  0.1478E-11  0.1527E-13  0.7603E-17  0.1000E-09  0.4426E-47  0.4503E+16
   -0.068746    0.06817  0.8812E-12  0.1869E-13  0.7603E-17  0.1000E-09  0.3974E-47  0.3883E+16
   -0.137492    0.12798  0.7759E-12  0.2633E-13  0.7613E-17  0.1000E-09  0.3566E-47  0.3263E+16
   -0.206239    0.17902  0.7576E-12  0.3807E-13  0.7694E-17  0.1000E-09  0.3122E-47  0.2666E+16
   -0.274986    0.22126  0.7552E-12  0.5314E-13  0.7871E-17  0.1000E-09  0.2669E-47  0.2114E+16
   -0.343734    0.25513  0.7550E-12  0.7048E-13  0.8133E-17  0.1000E-09  0.2241E-47  0.1626E+16
   -0.412483    0.28141  0.7549E-12  0.8888E-13  0.8453E-17  0.1000E-09  0.1860E-47  0.1216E+16
   -0.481232    0.30118  0.7549E-12  0.1071E-12  0.8802E-17  0.1000E-09  0.1531E-47  0.8914E+15
   -0.549981    0.31575  0.7549E-12  0.1240E-12  0.9148E-17  0.1000E-09  0.1252E-47  0.6562E+15
   -0.618731    0.32652  0.7549E-12  0.1384E-12  0.9461E-17  0.1000E-09  0.1018E-47  0.5113E+15
   -0.687481    0.33493  0.7549E-12  0.1492E-12  0.9713E-17  0.1000E-09  0.8229E-48  0.4653E+15
   -0.756232    0.34261  0.7549E-12  0.1558E-12  0.9883E-17  0.1000E-09  0.6611E-48  0.5172E+15
   -0.824983    0.35116  0.7549E-12  0.1574E-12  0.9956E-17  0.1000E-09  0.5277E-48  0.6675E+15
   -0.893734    0.36223  0.7549E-12  0.1537E-12  0.9924E-17  0.1000E-09  0.4185E-48  0.9244E+15
   -0.962486    0.37761  0.7549E-12  0.1449E-12  0.9788E-17  0.1000E-09  0.3298E-48  0.1298E+16
   -1.031237    0.39933  0.7549E-12  0.1313E-12  0.9560E-17  0.1000E-09  0.2582E-48  0.1797E+16
   -1.099989    0.42965  0.7549E-12  0.1139E-12  0.9265E-17  0.1000E-09  0.2007E-48  0.2430E+16
   -1.168741    0.47107  0.7549E-12  0.9402E-13  0.8938E-17  0.1000E-09  0.1549E-48  0.3195E+16
   -1.237493    0.52633  0.7544E-12  0.7339E-13  0.8632E-17  0.1000E-09  0.1186E-48  0.4082E+16
   -1.306245    0.59832  0.7524E-12  0.5435E-13  0.8418E-17  0.1000E-09  0.8996E-49  0.5065E+16
   -1.374997    0.68996  0.7468E-12  0.3985E-13  0.8449E-17  0.1000E-09  0.6734E-49  0.6172E+16
   -1.443749    0.80540  0.7399E-12  0.4862E-13  0.1100E-16  0.1000E-09  0.4945E-49  0.7287E+16
   -1.512501    0.94764  0.7374E-12  0.1207E-12  0.2930E-16  0.1000E-09  0.3520E-49  0.8306E+16
   -1.581253    1.11881  0.7363E-12  0.3744E-12  0.8941E-16  0.1000E-09  0.2363E-49  0.9137E+16
   -1.650005    1.32040  0.7354E-12  0.1192E-11  0.2754E-15  0.1000E-09  0.1393E-49  0.9684E+16
   -1.718757    1.55309  0.7348E-12  0.3750E-11  0.8379E-15  0.1000E-09  0.5376E-50  0.9839E+16
   -1.787509    1.81600  0.7345E-12  0.1195E-10  0.2581E-14  0.1000E-09  0.3642E-51  0.9183E+16
   -1.856260    2.09538  0.7343E-12  0.3803E-10  0.7943E-14  0.1000E-09  0.2272E-52  0.8263E+16
   -1.925011    2.38950  0.7342E-12  0.1198E-09  0.2421E-13  0.1000E-09  0.1294E-53  0.7090E+16
   -1.993762    2.69583  0.7342E-12  0.3738E-09  0.7313E-13  0.1000E-09  0.8030E-55  0.5735E+16
   -2.062513    3.01351  0.7339E-12  0.1127E-08  0.2135E-12  0.2552E-09  0.6476E-56  0.4270E+16
   -2.131263    3.34737  0.7330E-12  0.3339E-08  0.6133E-12  0.1233E-08  0.4888E-57  0.2543E+16
   -2.200013    3.69274  0.7309E-12  0.9697E-08  0.1729E-11  0.1330E-07  0.3429E-58  0.6690E+15
   -2.268763    4.02024  0.7299E-12  0.1240E-07  0.2230E-11  0.2855E-04  0.1242E-59 -0.9629E+12
   -2.337512    4.02201  0.7299E-12  0.1344E-07  0.2501E-11  0.2891E-04  0.3524E-60 -0.1016E+13
   -2.406260    4.02380  0.7299E-12  0.1421E-07  0.2826E-11  0.2759E-04  0.9353E-61 -0.1142E+13
   -2.475008    4.02570  0.7299E-12  0.1472E-07  0.3274E-11  0.2439E-04  0.2196E-61 -0.1398E+13
   -2.543756    4.02792  0.7299E-12  0.1490E-07  0.4019E-11  0.1901E-04  0.4303E-62 -0.1987E+13
   -2.612502    4.03087  0.7299E-12  0.1450E-07  0.5732E-11  0.1117E-04  0.5806E-63 -0.3984E+13
   -2.681249    4.03627  0.7299E-12  0.1165E-07  0.1541E-10  0.2077E-05  0.3726E-64 -0.3632E+14
   -2.749994    4.07082  0.7299E-12  0.0000E+00  0.0000E+00  0.0000E+00  0.3934E-64  0.0000E+00
