 1 - depth, m
 2 - temperature, C
 3 - salinity, kg/kg
 4 - turbulent kinetic energy, m**2/s**2
 5 - dissipation rate, m**2/s**3
 6 - kinematic heat conductance, m**2/s
 7 - modulus of horizontal velocity, m/s
 8 - Richardson number, n/d
   -0.000000   -0.00000  0.1282E-09  0.1219E-13  0.7603E-17  0.1000E-09  0.0000E+00  0.3522E+16
   -0.068746    0.05321  0.7128E-10  0.1219E-13  0.7603E-17  0.1000E-09  0.0000E+00  0.3339E+16
   -0.137492    0.10438  0.5919E-10  0.1219E-13  0.7603E-17  0.1000E-09  0.0000E+00  0.3183E+16
   -0.206239    0.15384  0.5675E-10  0.1219E-13  0.7603E-17  0.1000E-09  0.0000E+00  0.3057E+16
   -0.274986    0.20200  0.5632E-10  0.1219E-13  0.7603E-17  0.1000E-09  0.0000E+00  0.2962E+16
   -0.343735    0.24927  0.5625E-10  0.1219E-13  0.7603E-17  0.1000E-09  0.0000E+00  0.2898E+16
   -0.412483    0.29615  0.5624E-10  0.1219E-13  0.7603E-17  0.1000E-09  0.0000E+00  0.2867E+16
   -0.481232    0.34316  0.5624E-10  0.1219E-13  0.7603E-17  0.1000E-09  0.0000E+00  0.2870E+16
   -0.549982    0.39088  0.5624E-10  0.1219E-13  0.7603E-17  0.1000E-09  0.0000E+00  0.2908E+16
   -0.618732    0.43993  0.5624E-10  0.1219E-13  0.7603E-17  0.1000E-09  0.0000E+00  0.2981E+16
   -0.687482    0.49097  0.5624E-10  0.1219E-13  0.7603E-17  0.1000E-09  0.0000E+00  0.3105E+16
   -0.756233    0.54498  0.5624E-10  0.1219E-13  0.7603E-17  0.1000E-09  0.0000E+00  0.3270E+16
   -0.824984    0.60285  0.5624E-10  0.1219E-13  0.7603E-17  0.1000E-09  0.0000E+00  0.3464E+16
   -0.893735    0.66532  0.5624E-10  0.1219E-13  0.7603E-17  0.1000E-09  0.0000E+00  0.3682E+16
   -0.962486    0.73311  0.5624E-10  0.1219E-13  0.7603E-17  0.1000E-09  0.0000E+00  0.3919E+16
   -1.031238    0.80693  0.5624E-10  0.1219E-13  0.7603E-17  0.1000E-09  0.0000E+00  0.4167E+16
   -1.099990    0.88746  0.5624E-10  0.1219E-13  0.7603E-17  0.1000E-09  0.0000E+00  0.4418E+16
   -1.168742    0.97531  0.5623E-10  0.1219E-13  0.7603E-17  0.1000E-09  0.0000E+00  0.4662E+16
   -1.237494    1.07104  0.5621E-10  0.1219E-13  0.7603E-17  0.1000E-09  0.0000E+00  0.4889E+16
   -1.306246    1.17510  0.5614E-10  0.1219E-13  0.7603E-17  0.1000E-09  0.0000E+00  0.5087E+16
   -1.374998    1.28784  0.5599E-10  0.1219E-13  0.7603E-17  0.1000E-09  0.0000E+00  0.5268E+16
   -1.443750    1.41004  0.5571E-10  0.1219E-13  0.7603E-17  0.1000E-09  0.0000E+00  0.5402E+16
   -1.512503    1.54196  0.5540E-10  0.1219E-13  0.7603E-17  0.1000E-09  0.0000E+00  0.5468E+16
   -1.581255    1.68351  0.5521E-10  0.1219E-13  0.7603E-17  0.1000E-09  0.0000E+00  0.5458E+16
   -1.650007    1.83442  0.5513E-10  0.1219E-13  0.7603E-17  0.1000E-09  0.0000E+00  0.5364E+16
   -1.718759    1.99427  0.5509E-10  0.1219E-13  0.7603E-17  0.1000E-09  0.0000E+00  0.5178E+16
   -1.787510    2.16228  0.5506E-10  0.1219E-13  0.7603E-17  0.1000E-09  0.0000E+00  0.4806E+16
   -1.856262    2.33392  0.5505E-10  0.3051E-13  0.1123E-16  0.1000E-09  0.0000E+00  0.4384E+16
   -1.925013    2.50831  0.5504E-10  0.1254E-12  0.4095E-16  0.1000E-09  0.0000E+00  0.3921E+16
   -1.993764    2.68443  0.5504E-10  0.5051E-12  0.1575E-15  0.1000E-09  0.0000E+00  0.3441E+16
   -2.062515    2.86202  0.5502E-10  0.1941E-11  0.5821E-15  0.1000E-09  0.0000E+00  0.2996E+16
   -2.131265    3.04412  0.5498E-10  0.7291E-11  0.2105E-14  0.1000E-09  0.0000E+00  0.2513E+16
   -2.200015    3.23056  0.5491E-10  0.2689E-10  0.7476E-14  0.1000E-09  0.0000E+00  0.1989E+16
   -2.268764    3.42070  0.5479E-10  0.9839E-10  0.2635E-13  0.1000E-09  0.0000E+00  0.1434E+16
   -2.337513    3.61448  0.5461E-10  0.3608E-09  0.9316E-13  0.5582E-09  0.0000E+00  0.8465E+15
   -2.406262    3.81118  0.5446E-10  0.1312E-08  0.3270E-12  0.6899E-08  0.0000E+00  0.2385E+15
   -2.475010    4.00296  0.5443E-10  0.3214E-08  0.8018E-12  0.4864E-05  0.0000E+00 -0.1781E+13
   -2.543758    4.00877  0.5443E-10  0.4016E-08  0.1188E-11  0.4866E-05  0.0000E+00 -0.2443E+13
   -2.612504    4.01488  0.5443E-10  0.4509E-08  0.1956E-11  0.3396E-05  0.0000E+00 -0.5000E+13
   -2.681251    4.02445  0.5443E-10  0.4524E-08  0.5185E-11  0.1120E-05  0.0000E+00 -0.3190E+14
   -2.749996    4.06068  0.5443E-10  0.0000E+00  0.0000E+00  0.0000E+00  0.0000E+00  0.0000E+00
