 1 - depth, m
 2 - temperature, C
 3 - salinity, kg/kg
 4 - turbulent kinetic energy, m**2/s**2
 5 - dissipation rate, m**2/s**3
 6 - kinematic heat conductance, m**2/s
 7 - modulus of horizontal velocity, m/s
 8 - Richardson number, n/d
   -0.000000   -0.00000  0.3227E-10  0.1219E-13  0.7603E-17  0.1000E-09  0.0000E+00  0.7276E+16
   -0.068746    0.11080  0.1915E-10  0.1219E-13  0.7603E-17  0.1000E-09  0.0000E+00  0.6998E+16
   -0.137492    0.22064  0.1387E-10  0.1219E-13  0.7603E-17  0.1000E-09  0.0000E+00  0.6742E+16
   -0.206239    0.32979  0.1207E-10  0.1219E-13  0.7603E-17  0.1000E-09  0.0000E+00  0.6505E+16
   -0.274987    0.43849  0.1153E-10  0.1219E-13  0.7603E-17  0.1000E-09  0.0000E+00  0.6287E+16
   -0.343735    0.54703  0.1140E-10  0.1219E-13  0.7603E-17  0.1000E-09  0.0000E+00  0.6086E+16
   -0.412483    0.65564  0.1136E-10  0.1219E-13  0.7603E-17  0.1000E-09  0.0000E+00  0.5897E+16
   -0.481232    0.76459  0.1136E-10  0.1219E-13  0.7603E-17  0.1000E-09  0.0000E+00  0.5720E+16
   -0.549982    0.87412  0.1136E-10  0.1219E-13  0.7603E-17  0.1000E-09  0.0000E+00  0.5552E+16
   -0.618732    0.98445  0.1136E-10  0.1219E-13  0.7603E-17  0.1000E-09  0.0000E+00  0.5390E+16
   -0.687482    1.09579  0.1136E-10  0.1219E-13  0.7603E-17  0.1000E-09  0.0000E+00  0.5241E+16
   -0.756233    1.20854  0.1136E-10  0.1219E-13  0.7603E-17  0.1000E-09  0.0000E+00  0.5098E+16
   -0.824984    1.32302  0.1136E-10  0.1219E-13  0.7603E-17  0.1000E-09  0.0000E+00  0.4952E+16
   -0.893735    1.43936  0.1136E-10  0.1219E-13  0.7603E-17  0.1000E-09  0.0000E+00  0.4800E+16
   -0.962487    1.55769  0.1135E-10  0.1219E-13  0.7603E-17  0.1000E-09  0.0000E+00  0.4641E+16
   -1.031238    1.67809  0.1135E-10  0.1219E-13  0.7603E-17  0.1000E-09  0.0000E+00  0.4472E+16
   -1.099990    1.80062  0.1134E-10  0.1219E-13  0.7603E-17  0.1000E-09  0.0000E+00  0.4292E+16
   -1.168742    1.92533  0.1133E-10  0.1219E-13  0.7603E-17  0.1000E-09  0.0000E+00  0.4100E+16
   -1.237494    2.05221  0.1131E-10  0.4119E-13  0.8146E-17  0.1000E-09  0.0000E+00  0.3894E+16
   -1.306247    2.18123  0.1127E-10  0.1218E-12  0.1826E-16  0.1000E-09  0.0000E+00  0.3673E+16
   -1.374999    2.31233  0.1123E-10  0.3180E-12  0.4454E-16  0.1000E-09  0.0000E+00  0.3442E+16
   -1.443751    2.44558  0.1119E-10  0.7960E-12  0.1077E-15  0.1000E-09  0.0000E+00  0.3197E+16
   -1.512503    2.58090  0.1115E-10  0.1955E-11  0.2567E-15  0.1000E-09  0.0000E+00  0.2936E+16
   -1.581255    2.71812  0.1113E-10  0.4738E-11  0.6046E-15  0.1000E-09  0.0000E+00  0.2659E+16
   -1.650007    2.85707  0.1112E-10  0.1134E-10  0.1408E-14  0.1000E-09  0.0000E+00  0.2370E+16
   -1.718759    2.99752  0.1111E-10  0.2686E-10  0.3243E-14  0.1000E-09  0.0000E+00  0.2069E+16
   -1.787511    3.13930  0.1110E-10  0.6446E-10  0.7570E-14  0.1000E-09  0.0000E+00  0.1775E+16
   -1.856263    3.28378  0.1110E-10  0.1557E-09  0.1779E-13  0.1000E-09  0.0000E+00  0.1466E+16
   -1.925014    3.43112  0.1109E-10  0.3747E-09  0.4169E-13  0.1862E-09  0.0000E+00  0.1139E+16
   -1.993765    3.58144  0.1107E-10  0.8980E-09  0.9733E-13  0.6271E-09  0.0000E+00  0.7895E+15
   -2.062516    3.73402  0.1105E-10  0.2092E-08  0.2211E-12  0.2686E-08  0.0000E+00  0.4185E+15
   -2.131266    3.88445  0.1104E-10  0.4732E-08  0.4885E-12  0.3197E-07  0.0000E+00  0.7732E+14
   -2.200016    4.00896  0.1104E-10  0.5758E-08  0.5990E-12  0.2367E-04  0.0000E+00 -0.3264E+12
   -2.268765    4.00987  0.1104E-10  0.6160E-08  0.6562E-12  0.2386E-04  0.0000E+00 -0.3374E+12
   -2.337514    4.01076  0.1104E-10  0.6461E-08  0.7200E-12  0.2306E-04  0.0000E+00 -0.3638E+12
   -2.406263    4.01170  0.1104E-10  0.6663E-08  0.7993E-12  0.2119E-04  0.0000E+00 -0.4139E+12
   -2.475011    4.01272  0.1104E-10  0.6755E-08  0.9123E-12  0.1806E-04  0.0000E+00 -0.5111E+12
   -2.543759    4.01392  0.1104E-10  0.6693E-08  0.1106E-11  0.1346E-04  0.0000E+00 -0.7321E+12
   -2.612506    4.01557  0.1104E-10  0.6328E-08  0.1565E-11  0.7332E-05  0.0000E+00 -0.1495E+13
   -2.681252    4.01867  0.1104E-10  0.4658E-08  0.4167E-11  0.1084E-05  0.0000E+00 -0.1435E+14
   -2.749998    4.03997  0.1104E-10  0.0000E+00  0.0000E+00  0.0000E+00  0.0000E+00  0.0000E+00
