 1 - depth, m
 2 - temperature, C
 3 - salinity, kg/kg
 4 - turbulent kinetic energy, m**2/s**2
 5 - dissipation rate, m**2/s**3
 6 - kinematic heat conductance, m**2/s
 7 - modulus of horizontal velocity, m/s
 8 - Richardson number, n/d
   -0.000000   -0.00000  0.9057E-18  0.1218E-13  0.7603E-17  0.1000E-09  0.0000E+00  0.4417E+16
   -0.068747    0.06686  0.0000E+00  0.1218E-13  0.7603E-17  0.1000E-09  0.0000E+00  0.4582E+16
   -0.137494    0.13752  0.3995E-13  0.1218E-13  0.7603E-17  0.1000E-09  0.0000E+00  0.4723E+16
   -0.206242    0.21183  0.4657E-12  0.1218E-13  0.7603E-17  0.1000E-09  0.0000E+00  0.4845E+16
   -0.274990    0.28972  0.1203E-11  0.1218E-13  0.7603E-17  0.1000E-09  0.0000E+00  0.4950E+16
   -0.343739    0.37114  0.1953E-11  0.1218E-13  0.7603E-17  0.1000E-09  0.0000E+00  0.5037E+16
   -0.412488    0.45605  0.2486E-11  0.1218E-13  0.7603E-17  0.1000E-09  0.0000E+00  0.5106E+16
   -0.481238    0.54437  0.2737E-11  0.1218E-13  0.7603E-17  0.1000E-09  0.0000E+00  0.5153E+16
   -0.549989    0.63602  0.2766E-11  0.1218E-13  0.7603E-17  0.1000E-09  0.0000E+00  0.5177E+16
   -0.618739    0.73085  0.2674E-11  0.1218E-13  0.7603E-17  0.1000E-09  0.0000E+00  0.5178E+16
   -0.687491    0.82870  0.2543E-11  0.1218E-13  0.7603E-17  0.1000E-09  0.0000E+00  0.5148E+16
   -0.756242    0.92927  0.2425E-11  0.1218E-13  0.7603E-17  0.1000E-09  0.0000E+00  0.5093E+16
   -0.824994    1.03229  0.2336E-11  0.1218E-13  0.7603E-17  0.1000E-09  0.0000E+00  0.5014E+16
   -0.893746    1.13755  0.2278E-11  0.1218E-13  0.7603E-17  0.1000E-09  0.0000E+00  0.4916E+16
   -0.962498    1.24486  0.2244E-11  0.1218E-13  0.7603E-17  0.1000E-09  0.0000E+00  0.4799E+16
   -1.031251    1.35404  0.2225E-11  0.1218E-13  0.7603E-17  0.1000E-09  0.0000E+00  0.4667E+16
   -1.100004    1.46496  0.2216E-11  0.1218E-13  0.7603E-17  0.1000E-09  0.0000E+00  0.4522E+16
   -1.168757    1.57750  0.2210E-11  0.1218E-13  0.7603E-17  0.1000E-09  0.0000E+00  0.4366E+16
   -1.237510    1.69160  0.2207E-11  0.1218E-13  0.7603E-17  0.1000E-09  0.0000E+00  0.4200E+16
   -1.306263    1.80723  0.2204E-11  0.1218E-13  0.7603E-17  0.1000E-09  0.0000E+00  0.4027E+16
   -1.375016    1.92441  0.2200E-11  0.1218E-13  0.7603E-17  0.1000E-09  0.0000E+00  0.3849E+16
   -1.443769    2.04322  0.2196E-11  0.1218E-13  0.7603E-17  0.1000E-09  0.0000E+00  0.3664E+16
   -1.512522    2.16377  0.2192E-11  0.1218E-13  0.7603E-17  0.1000E-09  0.0000E+00  0.3474E+16
   -1.581275    2.28616  0.2186E-11  0.1218E-13  0.7603E-17  0.1000E-09  0.0000E+00  0.3277E+16
   -1.650028    2.41057  0.2180E-11  0.1218E-13  0.7603E-17  0.1000E-09  0.0000E+00  0.3074E+16
   -1.718780    2.53721  0.2174E-11  0.1218E-13  0.7603E-17  0.1000E-09  0.0000E+00  0.2859E+16
   -1.787533    2.66613  0.2169E-11  0.1218E-13  0.7603E-17  0.1000E-09  0.0000E+00  0.2540E+16
   -1.856285    2.79257  0.2164E-11  0.1218E-13  0.7603E-17  0.1000E-09  0.0000E+00  0.2224E+16
   -1.925037    2.91571  0.2159E-11  0.1218E-13  0.7603E-17  0.1000E-09  0.0000E+00  0.1910E+16
   -1.993789    3.03435  0.2156E-11  0.1254E-13  0.7603E-17  0.1000E-09  0.0000E+00  0.1624E+16
   -2.062541    3.14852  0.2153E-11  0.4914E-13  0.1686E-16  0.1000E-09  0.0000E+00  0.1422E+16
   -2.131292    3.26341  0.2150E-11  0.1981E-12  0.6209E-16  0.1000E-09  0.0000E+00  0.1224E+16
   -2.200043    3.37968  0.2148E-11  0.7638E-12  0.2299E-15  0.1000E-09  0.0000E+00  0.1020E+16
   -2.268793    3.49757  0.2146E-11  0.2913E-11  0.8450E-15  0.1000E-09  0.0000E+00  0.8065E+15
   -2.337543    3.61672  0.2145E-11  0.1114E-10  0.3118E-14  0.1000E-09  0.0000E+00  0.5859E+15
   -2.406293    3.73698  0.2144E-11  0.4243E-10  0.1147E-13  0.1614E-09  0.0000E+00  0.3593E+15
   -2.475041    3.85814  0.2143E-11  0.1619E-09  0.4237E-13  0.1652E-08  0.0000E+00  0.1283E+15
   -2.543790    3.97844  0.2143E-11  0.5770E-09  0.1480E-12  0.5797E-06  0.0000E+00 -0.1431E+13
   -2.612538    4.00227  0.2143E-11  0.1109E-08  0.3840E-12  0.1318E-05  0.0000E+00 -0.3561E+13
   -2.681285    4.01294  0.2143E-11  0.1013E-08  0.7902E-12  0.3523E-06  0.0000E+00 -0.1428E+14
   -2.750031    4.03665  0.2143E-11  0.0000E+00  0.0000E+00  0.0000E+00  0.0000E+00  0.0000E+00
