 1 - depth, m
 2 - temperature, C
 3 - salinity, kg/kg
 4 - turbulent kinetic energy, m**2/s**2
 5 - dissipation rate, m**2/s**3
 6 - kinematic heat conductance, m**2/s
 7 - modulus of horizontal velocity, m/s
 8 - Richardson number, n/d
   -0.000000   -0.00000  0.4288E-10  0.1219E-13  0.7603E-17  0.1000E-09  0.0000E+00  0.7720E+16
   -0.068746    0.11766  0.2654E-10  0.1219E-13  0.7603E-17  0.1000E-09  0.0000E+00  0.7422E+16
   -0.137492    0.23451  0.1902E-10  0.1219E-13  0.7603E-17  0.1000E-09  0.0000E+00  0.7142E+16
   -0.206239    0.35072  0.1624E-10  0.1219E-13  0.7603E-17  0.1000E-09  0.0000E+00  0.6878E+16
   -0.274987    0.46649  0.1536E-10  0.1219E-13  0.7603E-17  0.1000E-09  0.0000E+00  0.6629E+16
   -0.343735    0.58202  0.1512E-10  0.1219E-13  0.7603E-17  0.1000E-09  0.0000E+00  0.6391E+16
   -0.412483    0.69747  0.1506E-10  0.1219E-13  0.7603E-17  0.1000E-09  0.0000E+00  0.6165E+16
   -0.481232    0.81304  0.1505E-10  0.1219E-13  0.7603E-17  0.1000E-09  0.0000E+00  0.5947E+16
   -0.549982    0.92889  0.1504E-10  0.1219E-13  0.7603E-17  0.1000E-09  0.0000E+00  0.5736E+16
   -0.618732    1.04518  0.1504E-10  0.1219E-13  0.7603E-17  0.1000E-09  0.0000E+00  0.5530E+16
   -0.687482    1.16206  0.1504E-10  0.1219E-13  0.7603E-17  0.1000E-09  0.0000E+00  0.5337E+16
   -0.756233    1.27987  0.1504E-10  0.1219E-13  0.7603E-17  0.1000E-09  0.0000E+00  0.5149E+16
   -0.824984    1.39885  0.1504E-10  0.1219E-13  0.7603E-17  0.1000E-09  0.0000E+00  0.4959E+16
   -0.893735    1.51909  0.1504E-10  0.1219E-13  0.7603E-17  0.1000E-09  0.0000E+00  0.4764E+16
   -0.962487    1.64068  0.1504E-10  0.1219E-13  0.7603E-17  0.1000E-09  0.0000E+00  0.4565E+16
   -1.031239    1.76365  0.1503E-10  0.1219E-13  0.7603E-17  0.1000E-09  0.0000E+00  0.4358E+16
   -1.099990    1.88803  0.1501E-10  0.1219E-13  0.7603E-17  0.1000E-09  0.0000E+00  0.4144E+16
   -1.168742    2.01383  0.1498E-10  0.1219E-13  0.7603E-17  0.1000E-09  0.0000E+00  0.3922E+16
   -1.237495    2.14103  0.1493E-10  0.4402E-13  0.8453E-17  0.1000E-09  0.0000E+00  0.3690E+16
   -1.306247    2.26955  0.1487E-10  0.1294E-12  0.1894E-16  0.1000E-09  0.0000E+00  0.3448E+16
   -1.374999    2.39934  0.1481E-10  0.3347E-12  0.4581E-16  0.1000E-09  0.0000E+00  0.3201E+16
   -1.443751    2.53042  0.1475E-10  0.8299E-12  0.1097E-15  0.1000E-09  0.0000E+00  0.2944E+16
   -1.512503    2.66269  0.1471E-10  0.2019E-11  0.2592E-15  0.1000E-09  0.0000E+00  0.2678E+16
   -1.581256    2.79600  0.1468E-10  0.4848E-11  0.6049E-15  0.1000E-09  0.0000E+00  0.2403E+16
   -1.650008    2.93017  0.1467E-10  0.1150E-10  0.1396E-14  0.1000E-09  0.0000E+00  0.2122E+16
   -1.718760    3.06501  0.1466E-10  0.2699E-10  0.3187E-14  0.1000E-09  0.0000E+00  0.1835E+16
   -1.787511    3.20036  0.1465E-10  0.6420E-10  0.7376E-14  0.1000E-09  0.0000E+00  0.1560E+16
   -1.856263    3.33760  0.1464E-10  0.1537E-09  0.1719E-13  0.1000E-09  0.0000E+00  0.1275E+16
   -1.925014    3.47683  0.1463E-10  0.3668E-09  0.3995E-13  0.2078E-09  0.0000E+00  0.9780E+15
   -1.993765    3.61810  0.1461E-10  0.8718E-09  0.9251E-13  0.7062E-09  0.0000E+00  0.6663E+15
   -2.062516    3.76067  0.1459E-10  0.2014E-08  0.2084E-12  0.3099E-08  0.0000E+00  0.3418E+15
   -2.131266    3.90040  0.1459E-10  0.4494E-08  0.4548E-12  0.4274E-07  0.0000E+00  0.5373E+14
   -2.200016    4.00923  0.1459E-10  0.5478E-08  0.5586E-12  0.2308E-04  0.0000E+00 -0.3142E+12
   -2.268766    4.01009  0.1459E-10  0.5864E-08  0.6123E-12  0.2323E-04  0.0000E+00 -0.3246E+12
   -2.337515    4.01095  0.1459E-10  0.6152E-08  0.6721E-12  0.2243E-04  0.0000E+00 -0.3499E+12
   -2.406263    4.01184  0.1459E-10  0.6345E-08  0.7464E-12  0.2058E-04  0.0000E+00 -0.3980E+12
   -2.475011    4.01281  0.1459E-10  0.6431E-08  0.8523E-12  0.1751E-04  0.0000E+00 -0.4919E+12
   -2.543759    4.01397  0.1459E-10  0.6370E-08  0.1034E-11  0.1302E-04  0.0000E+00 -0.7059E+12
   -2.612506    4.01556  0.1459E-10  0.6016E-08  0.1466E-11  0.7064E-05  0.0000E+00 -0.1450E+13
   -2.681252    4.01857  0.1459E-10  0.4416E-08  0.3906E-11  0.1040E-05  0.0000E+00 -0.1403E+14
   -2.749998    4.03953  0.1459E-10  0.0000E+00  0.0000E+00  0.0000E+00  0.0000E+00  0.0000E+00
