 1 - depth, m
 2 - temperature, C
 3 - salinity, kg/kg
 4 - turbulent kinetic energy, m**2/s**2
 5 - dissipation rate, m**2/s**3
 6 - kinematic heat conductance, m**2/s
 7 - modulus of horizontal velocity, m/s
 8 - Richardson number, n/d
   -0.000000   -0.00000  0.6911E-10  0.1219E-13  0.7603E-17  0.1000E-09  0.0000E+00  0.5114E+16
   -0.068746    0.07752  0.3752E-10  0.1219E-13  0.7603E-17  0.1000E-09  0.0000E+00  0.4928E+16
   -0.137492    0.15381  0.2868E-10  0.1219E-13  0.7603E-17  0.1000E-09  0.0000E+00  0.4780E+16
   -0.206239    0.22938  0.2661E-10  0.1219E-13  0.7603E-17  0.1000E-09  0.0000E+00  0.4665E+16
   -0.274987    0.30474  0.2617E-10  0.1219E-13  0.7603E-17  0.1000E-09  0.0000E+00  0.4582E+16
   -0.343735    0.38037  0.2609E-10  0.1219E-13  0.7603E-17  0.1000E-09  0.0000E+00  0.4526E+16
   -0.412483    0.45678  0.2608E-10  0.1219E-13  0.7603E-17  0.1000E-09  0.0000E+00  0.4497E+16
   -0.481232    0.53447  0.2607E-10  0.1219E-13  0.7603E-17  0.1000E-09  0.0000E+00  0.4489E+16
   -0.549982    0.61392  0.2607E-10  0.1219E-13  0.7603E-17  0.1000E-09  0.0000E+00  0.4501E+16
   -0.618732    0.69562  0.2607E-10  0.1219E-13  0.7603E-17  0.1000E-09  0.0000E+00  0.4528E+16
   -0.687482    0.78003  0.2607E-10  0.1219E-13  0.7603E-17  0.1000E-09  0.0000E+00  0.4581E+16
   -0.756233    0.86786  0.2607E-10  0.1219E-13  0.7603E-17  0.1000E-09  0.0000E+00  0.4647E+16
   -0.824984    0.95971  0.2607E-10  0.1219E-13  0.7603E-17  0.1000E-09  0.0000E+00  0.4712E+16
   -0.893735    1.05595  0.2607E-10  0.1219E-13  0.7603E-17  0.1000E-09  0.0000E+00  0.4773E+16
   -0.962486    1.15692  0.2607E-10  0.1219E-13  0.7603E-17  0.1000E-09  0.0000E+00  0.4822E+16
   -1.031238    1.26292  0.2607E-10  0.1219E-13  0.7603E-17  0.1000E-09  0.0000E+00  0.4854E+16
   -1.099990    1.37418  0.2606E-10  0.1219E-13  0.7603E-17  0.1000E-09  0.0000E+00  0.4865E+16
   -1.168742    1.49088  0.2603E-10  0.1219E-13  0.7603E-17  0.1000E-09  0.0000E+00  0.4849E+16
   -1.237494    1.61315  0.2597E-10  0.1219E-13  0.7603E-17  0.1000E-09  0.0000E+00  0.4801E+16
   -1.306246    1.74103  0.2586E-10  0.1219E-13  0.7603E-17  0.1000E-09  0.0000E+00  0.4717E+16
   -1.374999    1.87450  0.2571E-10  0.2681E-13  0.7603E-17  0.1000E-09  0.0000E+00  0.4605E+16
   -1.443751    2.01379  0.2557E-10  0.8960E-13  0.1736E-16  0.1000E-09  0.0000E+00  0.4451E+16
   -1.512503    2.15884  0.2548E-10  0.2622E-12  0.4696E-16  0.1000E-09  0.0000E+00  0.4250E+16
   -1.581255    2.30939  0.2543E-10  0.7317E-12  0.1262E-15  0.1000E-09  0.0000E+00  0.4001E+16
   -1.650007    2.46510  0.2540E-10  0.1999E-11  0.3338E-15  0.1000E-09  0.0000E+00  0.3706E+16
   -1.718759    2.62555  0.2539E-10  0.5377E-11  0.8702E-15  0.1000E-09  0.0000E+00  0.3367E+16
   -1.787511    2.79028  0.2538E-10  0.1464E-10  0.2297E-14  0.1000E-09  0.0000E+00  0.2999E+16
   -1.856262    2.95953  0.2537E-10  0.3997E-10  0.6082E-14  0.1000E-09  0.0000E+00  0.2596E+16
   -1.925013    3.13320  0.2536E-10  0.1084E-09  0.1600E-13  0.1000E-09  0.0000E+00  0.2157E+16
   -1.993764    3.31124  0.2535E-10  0.2919E-09  0.4184E-13  0.1267E-09  0.0000E+00  0.1680E+16
   -2.062515    3.49312  0.2531E-10  0.7620E-09  0.1061E-12  0.4658E-09  0.0000E+00  0.1159E+16
   -2.131265    3.67610  0.2527E-10  0.1959E-08  0.2652E-12  0.2152E-08  0.0000E+00  0.6263E+15
   -2.200015    3.85763  0.2524E-10  0.4912E-08  0.6476E-12  0.2636E-07  0.0000E+00  0.1243E+15
   -2.268765    4.01294  0.2523E-10  0.6379E-08  0.8486E-12  0.2061E-04  0.0000E+00 -0.5348E+12
   -2.337514    4.01419  0.2523E-10  0.6947E-08  0.9552E-12  0.2072E-04  0.0000E+00 -0.5609E+12
   -2.406262    4.01545  0.2523E-10  0.7354E-08  0.1079E-11  0.1963E-04  0.0000E+00 -0.6260E+12
   -2.475011    4.01679  0.2523E-10  0.7603E-08  0.1246E-11  0.1719E-04  0.0000E+00 -0.7622E+12
   -2.543758    4.01835  0.2523E-10  0.7656E-08  0.1522E-11  0.1319E-04  0.0000E+00 -0.1079E+13
   -2.612505    4.02043  0.2523E-10  0.7360E-08  0.2161E-11  0.7504E-05  0.0000E+00 -0.2173E+13
   -2.681251    4.02428  0.2523E-10  0.5720E-08  0.5626E-11  0.1315E-05  0.0000E+00 -0.1917E+14
   -2.749997    4.04869  0.2523E-10  0.0000E+00  0.0000E+00  0.0000E+00  0.0000E+00  0.0000E+00
