 1 - depth, m
 2 - temperature, C
 3 - salinity, kg/kg
 4 - turbulent kinetic energy, m**2/s**2
 5 - dissipation rate, m**2/s**3
 6 - kinematic heat conductance, m**2/s
 7 - modulus of horizontal velocity, m/s
 8 - Richardson number, n/d
   -0.000000   -0.00000  0.6258E-11  0.1219E-13  0.7603E-17  0.1000E-09  0.0000E+00  0.7385E+16
   -0.068746    0.11248  0.3641E-11  0.1219E-13  0.7603E-17  0.1000E-09  0.0000E+00  0.7094E+16
   -0.137492    0.22391  0.2647E-11  0.1219E-13  0.7603E-17  0.1000E-09  0.0000E+00  0.6831E+16
   -0.206239    0.33463  0.2324E-11  0.1219E-13  0.7603E-17  0.1000E-09  0.0000E+00  0.6595E+16
   -0.274987    0.44502  0.2236E-11  0.1219E-13  0.7603E-17  0.1000E-09  0.0000E+00  0.6382E+16
   -0.343735    0.55544  0.2214E-11  0.1219E-13  0.7603E-17  0.1000E-09  0.0000E+00  0.6190E+16
   -0.412483    0.66624  0.2210E-11  0.1219E-13  0.7603E-17  0.1000E-09  0.0000E+00  0.6014E+16
   -0.481232    0.77777  0.2209E-11  0.1219E-13  0.7603E-17  0.1000E-09  0.0000E+00  0.5852E+16
   -0.549982    0.89037  0.2209E-11  0.1219E-13  0.7603E-17  0.1000E-09  0.0000E+00  0.5700E+16
   -0.618732    1.00433  0.2209E-11  0.1219E-13  0.7603E-17  0.1000E-09  0.0000E+00  0.5553E+16
   -0.687482    1.11996  0.2209E-11  0.1219E-13  0.7603E-17  0.1000E-09  0.0000E+00  0.5421E+16
   -0.756233    1.23775  0.2209E-11  0.1219E-13  0.7603E-17  0.1000E-09  0.0000E+00  0.5293E+16
   -0.824984    1.35809  0.2209E-11  0.1219E-13  0.7603E-17  0.1000E-09  0.0000E+00  0.5158E+16
   -0.893735    1.48117  0.2209E-11  0.1219E-13  0.7603E-17  0.1000E-09  0.0000E+00  0.5014E+16
   -0.962487    1.60717  0.2208E-11  0.1441E-13  0.7603E-17  0.1000E-09  0.0000E+00  0.4856E+16
   -1.031238    1.73621  0.2207E-11  0.6473E-13  0.1054E-16  0.1000E-09  0.0000E+00  0.4684E+16
   -1.099990    1.86838  0.2205E-11  0.1818E-12  0.2365E-16  0.1000E-09  0.0000E+00  0.4493E+16
   -1.168742    2.00374  0.2201E-11  0.4485E-12  0.5493E-16  0.1000E-09  0.0000E+00  0.4282E+16
   -1.237494    2.14228  0.2194E-11  0.1063E-11  0.1259E-15  0.1000E-09  0.0000E+00  0.4049E+16
   -1.306247    2.28399  0.2184E-11  0.2474E-11  0.2851E-15  0.1000E-09  0.0000E+00  0.3794E+16
   -1.374999    2.42877  0.2174E-11  0.5688E-11  0.6383E-15  0.1000E-09  0.0000E+00  0.3520E+16
   -1.443751    2.57669  0.2165E-11  0.1294E-10  0.1414E-14  0.1000E-09  0.0000E+00  0.3222E+16
   -1.512503    2.72763  0.2159E-11  0.2914E-10  0.3103E-14  0.1000E-09  0.0000E+00  0.2901E+16
   -1.581255    2.88139  0.2155E-11  0.6499E-10  0.6745E-14  0.1000E-09  0.0000E+00  0.2556E+16
   -1.650007    3.03770  0.2153E-11  0.1435E-09  0.1452E-13  0.1000E-09  0.0000E+00  0.2189E+16
   -1.718759    3.19625  0.2151E-11  0.3139E-09  0.3098E-13  0.1000E-09  0.0000E+00  0.1806E+16
   -1.787511    3.35684  0.2150E-11  0.6965E-09  0.6700E-13  0.2394E-09  0.0000E+00  0.1424E+16
   -1.856262    3.52158  0.2148E-11  0.1558E-08  0.1462E-12  0.7353E-09  0.0000E+00  0.1012E+16
   -1.925014    3.69035  0.2144E-11  0.3475E-08  0.3184E-12  0.2860E-08  0.0000E+00  0.5662E+15
   -1.993765    3.86160  0.2142E-11  0.7617E-08  0.6825E-12  0.2948E-07  0.0000E+00  0.1176E+15
   -2.062515    4.00996  0.2142E-11  0.8555E-08  0.7710E-12  0.3915E-04  0.0000E+00 -0.2414E+12
   -2.131266    4.01060  0.2142E-11  0.8944E-08  0.8172E-12  0.3950E-04  0.0000E+00 -0.2460E+12
   -2.200016    4.01124  0.2142E-11  0.9248E-08  0.8664E-12  0.3897E-04  0.0000E+00 -0.2562E+12
   -2.268765    4.01189  0.2142E-11  0.9474E-08  0.9219E-12  0.3752E-04  0.0000E+00 -0.2736E+12
   -2.337514    4.01256  0.2142E-11  0.9626E-08  0.9910E-12  0.3498E-04  0.0000E+00 -0.3021E+12
   -2.406263    4.01329  0.2142E-11  0.9696E-08  0.1084E-11  0.3119E-04  0.0000E+00 -0.3499E+12
   -2.475011    4.01410  0.2142E-11  0.9659E-08  0.1226E-11  0.2589E-04  0.0000E+00 -0.4375E+12
   -2.543759    4.01509  0.2142E-11  0.9454E-08  0.1477E-11  0.1886E-04  0.0000E+00 -0.6302E+12
   -2.612506    4.01645  0.2142E-11  0.8886E-08  0.2086E-11  0.1008E-04  0.0000E+00 -0.1275E+13
   -2.681252    4.01904  0.2142E-11  0.6436E-08  0.5832E-11  0.1338E-05  0.0000E+00 -0.1266E+14
   -2.749998    4.03816  0.2142E-11  0.0000E+00  0.0000E+00  0.0000E+00  0.0000E+00  0.0000E+00
