 1 - depth, m
 2 - temperature, C
 3 - salinity, kg/kg
 4 - turbulent kinetic energy, m**2/s**2
 5 - dissipation rate, m**2/s**3
 6 - kinematic heat conductance, m**2/s
 7 - modulus of horizontal velocity, m/s
 8 - Richardson number, n/d
   -0.000000   14.78747  0.7469E-12  0.2691E-04  0.2347E-05  0.3555E-04  0.4233E-01 -0.1396E-01
   -0.068746   14.82119  0.7469E-12  0.2226E-04  0.6295E-06  0.9426E-04  0.2534E-01 -0.4476E-01
   -0.137492   14.83149  0.7469E-12  0.2087E-04  0.3181E-06  0.1594E-03  0.2044E-01 -0.7364E-01
   -0.206239   14.83743  0.7469E-12  0.2009E-04  0.2040E-06  0.2345E-03  0.1754E-01 -0.1061E+00
   -0.274987   14.84130  0.7469E-12  0.1958E-04  0.1478E-06  0.3205E-03  0.1560E-01 -0.1358E+00
   -0.343735   14.84402  0.7469E-12  0.1924E-04  0.1153E-06  0.4474E-03  0.1420E-01  0.2301E+00
   -0.412484   14.84595  0.7469E-12  0.1903E-04  0.9492E-07  0.6947E-03  0.1313E-01  0.2615E+02
   -0.481233   14.84726  0.7469E-12  0.1893E-04  0.8156E-07  0.1089E-02  0.1230E-01  0.1818E+03
   -0.549983   14.84804  0.7469E-12  0.1893E-04  0.7231E-07  0.1466E-02  0.1162E-01  0.9805E+01
   -0.618733   14.84856  0.7469E-12  0.1899E-04  0.6518E-07  0.1484E-02  0.1102E-01  0.1156E+02
   -0.687483   14.84907  0.7469E-12  0.1909E-04  0.5936E-07  0.1576E-02  0.1044E-01  0.1255E+02
   -0.756234   14.84953  0.7469E-12  0.1920E-04  0.5464E-07  0.1644E-02  0.9884E-02  0.1333E+02
   -0.824985   14.84997  0.7469E-12  0.1932E-04  0.5072E-07  0.1717E-02  0.9356E-02  0.1436E+02
   -0.893736   14.85039  0.7469E-12  0.1943E-04  0.4744E-07  0.1786E-02  0.8848E-02  0.1541E+02
   -0.962488   14.85078  0.7469E-12  0.1953E-04  0.4465E-07  0.1853E-02  0.8357E-02  0.1659E+02
   -1.031240   14.85115  0.7469E-12  0.1961E-04  0.4227E-07  0.1917E-02  0.7879E-02  0.1791E+02
   -1.099992   14.85151  0.7469E-12  0.1967E-04  0.4022E-07  0.1978E-02  0.7412E-02  0.1942E+02
   -1.168744   14.85186  0.7469E-12  0.1969E-04  0.3843E-07  0.2035E-02  0.6953E-02  0.2120E+02
   -1.237496   14.85219  0.7469E-12  0.1968E-04  0.3688E-07  0.2086E-02  0.6501E-02  0.2338E+02
   -1.306248   14.85251  0.7469E-12  0.1964E-04  0.3551E-07  0.2130E-02  0.6053E-02  0.2613E+02
   -1.375000   14.85283  0.7469E-12  0.1954E-04  0.3430E-07  0.2165E-02  0.5609E-02  0.2984E+02
   -1.443753   14.85314  0.7469E-12  0.1939E-04  0.3323E-07  0.2187E-02  0.5167E-02  0.3513E+02
   -1.512505   14.85345  0.7469E-12  0.1919E-04  0.3228E-07  0.2196E-02  0.4725E-02  0.4354E+02
   -1.581257   14.85375  0.7469E-12  0.1891E-04  0.3141E-07  0.2187E-02  0.4282E-02  0.5862E+02
   -1.650009   14.85406  0.7469E-12  0.1856E-04  0.3062E-07  0.2160E-02  0.3836E-02  0.9226E+02
   -1.718761   14.85437  0.7469E-12  0.1813E-04  0.2988E-07  0.2107E-02  0.3387E-02  0.1558E+03
   -1.787513   14.85468  0.7469E-12  0.1758E-04  0.2914E-07  0.2049E-02  0.2930E-02  0.1579E+02
   -1.856265   14.85501  0.7469E-12  0.1695E-04  0.2851E-07  0.1985E-02  0.2534E-02  0.6128E+01
   -1.925016   14.85535  0.7469E-12  0.1625E-04  0.2807E-07  0.1929E-02  0.2189E-02  0.3275E+01
   -1.993767   14.85569  0.7469E-12  0.1550E-04  0.2790E-07  0.1887E-02  0.1896E-02  0.2177E+01
   -2.062518   14.85605  0.7469E-12  0.1476E-04  0.2810E-07  0.1851E-02  0.1645E-02  0.1715E+01
   -2.131268   14.85641  0.7469E-12  0.1404E-04  0.2872E-07  0.1820E-02  0.1422E-02  0.1374E+01
   -2.200018   14.85677  0.7469E-12  0.1335E-04  0.2985E-07  0.1756E-02  0.1222E-02  0.1109E+01
   -2.268768   14.85715  0.7469E-12  0.1271E-04  0.3156E-07  0.1570E-02  0.1046E-02  0.8460E+00
   -2.337517   14.85758  0.7469E-12  0.1211E-04  0.3413E-07  0.1344E-02  0.8998E-03  0.1002E+01
   -2.406266   14.85810  0.7469E-12  0.1150E-04  0.3862E-07  0.1204E-02  0.7808E-03  0.1422E+03
   -2.475014   14.85871  0.7469E-12  0.1067E-04  0.4941E-07  0.8987E-03  0.6771E-03  0.3961E+03
   -2.543762   14.85995  0.7469E-12  0.9406E-05  0.7071E-07  0.7238E-03  0.5458E-03  0.7831E+03
   -2.612509   14.86109  0.7469E-12  0.7426E-05  0.1348E-06  0.3506E-03  0.4270E-03  0.8749E+03
   -2.681255   14.86647  0.7469E-12  0.4574E-05  0.3928E-06  0.1446E-03  0.2468E-03  0.1641E+04
   -2.750001   14.87262  0.7469E-12  0.0000E+00  0.0000E+00  0.0000E+00  0.3717E-03  0.0000E+00
