 1 - depth, m
 2 - temperature, C
 3 - salinity, kg/kg
 4 - turbulent kinetic energy, m**2/s**2
 5 - dissipation rate, m**2/s**3
 6 - kinematic heat conductance, m**2/s
 7 - modulus of horizontal velocity, m/s
 8 - Richardson number, n/d
   -0.000000   -0.00000  0.5182E-11  0.1219E-13  0.7603E-17  0.1000E-09  0.0000E+00  0.7383E+16
   -0.068746    0.11245  0.1080E-10  0.1219E-13  0.7603E-17  0.1000E-09  0.0000E+00  0.7271E+16
   -0.137493    0.22669  0.1241E-10  0.1219E-13  0.7603E-17  0.1000E-09  0.0000E+00  0.7131E+16
   -0.206240    0.34244  0.1223E-10  0.1219E-13  0.7603E-17  0.1000E-09  0.0000E+00  0.6967E+16
   -0.274988    0.45943  0.1136E-10  0.1219E-13  0.7603E-17  0.1000E-09  0.0000E+00  0.6782E+16
   -0.343736    0.57742  0.1039E-10  0.1219E-13  0.7603E-17  0.1000E-09  0.0000E+00  0.6580E+16
   -0.412485    0.69617  0.9644E-11  0.1219E-13  0.7603E-17  0.1000E-09  0.0000E+00  0.6364E+16
   -0.481234    0.81548  0.9167E-11  0.1219E-13  0.7603E-17  0.1000E-09  0.0000E+00  0.6136E+16
   -0.549984    0.93519  0.8904E-11  0.1219E-13  0.7603E-17  0.1000E-09  0.0000E+00  0.5898E+16
   -0.618734    1.05511  0.8774E-11  0.1219E-13  0.7603E-17  0.1000E-09  0.0000E+00  0.5654E+16
   -0.687485    1.17511  0.8716E-11  0.1219E-13  0.7603E-17  0.1000E-09  0.0000E+00  0.5406E+16
   -0.756236    1.29510  0.8691E-11  0.1219E-13  0.7603E-17  0.1000E-09  0.0000E+00  0.5156E+16
   -0.824987    1.41497  0.8680E-11  0.1219E-13  0.7603E-17  0.1000E-09  0.0000E+00  0.4903E+16
   -0.893739    1.53464  0.8673E-11  0.1219E-13  0.7603E-17  0.1000E-09  0.0000E+00  0.4649E+16
   -0.962490    1.65401  0.8666E-11  0.1219E-13  0.7603E-17  0.1000E-09  0.0000E+00  0.4395E+16
   -1.031242    1.77301  0.8656E-11  0.1219E-13  0.7603E-17  0.1000E-09  0.0000E+00  0.4141E+16
   -1.099994    1.89158  0.8643E-11  0.1219E-13  0.7603E-17  0.1000E-09  0.0000E+00  0.3890E+16
   -1.168747    2.00964  0.8626E-11  0.1219E-13  0.7603E-17  0.1000E-09  0.0000E+00  0.3641E+16
   -1.237499    2.12715  0.8604E-11  0.1219E-13  0.7603E-17  0.1000E-09  0.0000E+00  0.3394E+16
   -1.306252    2.24407  0.8580E-11  0.1219E-13  0.7603E-17  0.1000E-09  0.0000E+00  0.3152E+16
   -1.375004    2.36035  0.8555E-11  0.1219E-13  0.7603E-17  0.1000E-09  0.0000E+00  0.2913E+16
   -1.443757    2.47601  0.8530E-11  0.1219E-13  0.7603E-17  0.1000E-09  0.0000E+00  0.2679E+16
   -1.512509    2.59104  0.8507E-11  0.1219E-13  0.7603E-17  0.1000E-09  0.0000E+00  0.2449E+16
   -1.581261    2.70543  0.8488E-11  0.1219E-13  0.7603E-17  0.1000E-09  0.0000E+00  0.2224E+16
   -1.650014    2.81919  0.8472E-11  0.1443E-13  0.7603E-17  0.1000E-09  0.0000E+00  0.2004E+16
   -1.718766    2.93234  0.8459E-11  0.6172E-13  0.1219E-16  0.1000E-09  0.0000E+00  0.1787E+16
   -1.787518    3.04488  0.8449E-11  0.1906E-12  0.3171E-16  0.1000E-09  0.0000E+00  0.1560E+16
   -1.856269    3.15571  0.8441E-11  0.5389E-12  0.8524E-16  0.1000E-09  0.0000E+00  0.1340E+16
   -1.925021    3.26457  0.8435E-11  0.1483E-11  0.2270E-15  0.1000E-09  0.0000E+00  0.1127E+16
   -1.993772    3.37109  0.8429E-11  0.4039E-11  0.5996E-15  0.1000E-09  0.0000E+00  0.9268E+15
   -2.062523    3.47522  0.8425E-11  0.1065E-10  0.1536E-14  0.1000E-09  0.0000E+00  0.7512E+15
   -2.131274    3.57887  0.8423E-11  0.2769E-10  0.3878E-14  0.1000E-09  0.0000E+00  0.5796E+15
   -2.200024    3.68229  0.8421E-11  0.7126E-10  0.9700E-14  0.1204E-09  0.0000E+00  0.4098E+15
   -2.268774    3.78551  0.8421E-11  0.1832E-09  0.2424E-13  0.5104E-09  0.0000E+00  0.2412E+15
   -2.337523    3.88835  0.8420E-11  0.4750E-09  0.6115E-13  0.4116E-08  0.0000E+00  0.7520E+14
   -2.406272    3.98857  0.8420E-11  0.9918E-09  0.1271E-12  0.2499E-05  0.0000E+00 -0.4302E+12
   -2.475020    3.99415  0.8420E-11  0.1327E-08  0.1921E-12  0.3505E-05  0.0000E+00 -0.6041E+12
   -2.543768    3.99809  0.8420E-11  0.1554E-08  0.2771E-12  0.3265E-05  0.0000E+00 -0.9081E+12
   -2.612515    4.00227  0.8420E-11  0.1626E-08  0.4330E-12  0.2063E-05  0.0000E+00 -0.1921E+13
   -2.681262    4.00867  0.8420E-11  0.1327E-08  0.1015E-11  0.4345E-06  0.0000E+00 -0.1285E+14
   -2.750008    4.03257  0.8420E-11  0.0000E+00  0.0000E+00  0.0000E+00  0.0000E+00  0.0000E+00
