 1 - depth, m
 2 - temperature, C
 3 - salinity, kg/kg
 4 - turbulent kinetic energy, m**2/s**2
 5 - dissipation rate, m**2/s**3
 6 - kinematic heat conductance, m**2/s
 7 - modulus of horizontal velocity, m/s
 8 - Richardson number, n/d
   -0.000000   -0.00000  0.5907E-11  0.1219E-13  0.7603E-17  0.1000E-09  0.0000E+00  0.5640E+16
   -0.068746    0.08559  0.3246E-11  0.1219E-13  0.7603E-17  0.1000E-09  0.0000E+00  0.5431E+16
   -0.137492    0.16994  0.2454E-11  0.1219E-13  0.7603E-17  0.1000E-09  0.0000E+00  0.5261E+16
   -0.206239    0.25359  0.2261E-11  0.1219E-13  0.7603E-17  0.1000E-09  0.0000E+00  0.5127E+16
   -0.274987    0.33708  0.2219E-11  0.1219E-13  0.7603E-17  0.1000E-09  0.0000E+00  0.5027E+16
   -0.343735    0.42096  0.2210E-11  0.1219E-13  0.7603E-17  0.1000E-09  0.0000E+00  0.4957E+16
   -0.412483    0.50577  0.2209E-11  0.1219E-13  0.7603E-17  0.1000E-09  0.0000E+00  0.4914E+16
   -0.481232    0.59205  0.2209E-11  0.1219E-13  0.7603E-17  0.1000E-09  0.0000E+00  0.4893E+16
   -0.549982    0.68034  0.2209E-11  0.1219E-13  0.7603E-17  0.1000E-09  0.0000E+00  0.4891E+16
   -0.618732    0.77115  0.2209E-11  0.1219E-13  0.7603E-17  0.1000E-09  0.0000E+00  0.4903E+16
   -0.687482    0.86499  0.2209E-11  0.1219E-13  0.7603E-17  0.1000E-09  0.0000E+00  0.4939E+16
   -0.756233    0.96261  0.2209E-11  0.1219E-13  0.7603E-17  0.1000E-09  0.0000E+00  0.4986E+16
   -0.824984    1.06466  0.2209E-11  0.1219E-13  0.7603E-17  0.1000E-09  0.0000E+00  0.5030E+16
   -0.893735    1.17153  0.2209E-11  0.1219E-13  0.7603E-17  0.1000E-09  0.0000E+00  0.5065E+16
   -0.962487    1.28363  0.2209E-11  0.1219E-13  0.7603E-17  0.1000E-09  0.0000E+00  0.5085E+16
   -1.031238    1.40127  0.2208E-11  0.1703E-13  0.7603E-17  0.1000E-09  0.0000E+00  0.5083E+16
   -1.099990    1.52474  0.2207E-11  0.4816E-13  0.9114E-17  0.1000E-09  0.0000E+00  0.5055E+16
   -1.168742    1.65428  0.2205E-11  0.1335E-12  0.1704E-16  0.1000E-09  0.0000E+00  0.4994E+16
   -1.237494    1.79004  0.2199E-11  0.3193E-12  0.3762E-16  0.1000E-09  0.0000E+00  0.4895E+16
   -1.306246    1.93215  0.2189E-11  0.7281E-12  0.8357E-16  0.1000E-09  0.0000E+00  0.4755E+16
   -1.374999    2.08068  0.2177E-11  0.1636E-11  0.1848E-15  0.1000E-09  0.0000E+00  0.4580E+16
   -1.443751    2.23600  0.2166E-11  0.3655E-11  0.4079E-15  0.1000E-09  0.0000E+00  0.4358E+16
   -1.512503    2.39826  0.2159E-11  0.8150E-11  0.8992E-15  0.1000E-09  0.0000E+00  0.4082E+16
   -1.581255    2.56747  0.2155E-11  0.1816E-10  0.1982E-14  0.1000E-09  0.0000E+00  0.3752E+16
   -1.650007    2.74367  0.2153E-11  0.4044E-10  0.4372E-14  0.1000E-09  0.0000E+00  0.3365E+16
   -1.718759    2.92692  0.2151E-11  0.9012E-10  0.9648E-14  0.1000E-09  0.0000E+00  0.2920E+16
   -1.787511    3.11726  0.2150E-11  0.2058E-09  0.2181E-13  0.1000E-09  0.0000E+00  0.2435E+16
   -1.856262    3.31690  0.2150E-11  0.4787E-09  0.5021E-13  0.1428E-09  0.0000E+00  0.1853E+16
   -1.925014    3.52403  0.2148E-11  0.1122E-08  0.1164E-12  0.5096E-09  0.0000E+00  0.1175E+16
   -1.993765    3.73258  0.2144E-11  0.2643E-08  0.2711E-12  0.2843E-08  0.0000E+00  0.4734E+15
   -2.062515    3.92752  0.2141E-11  0.5659E-08  0.5806E-12  0.5474E-06  0.0000E+00  0.2913E+14
   -2.131266    4.00771  0.2140E-11  0.6695E-08  0.6935E-12  0.2645E-04  0.0000E+00 -0.2965E+12
   -2.200015    4.00879  0.2140E-11  0.7170E-08  0.7592E-12  0.2772E-04  0.0000E+00 -0.3143E+12
   -2.268765    4.00982  0.2140E-11  0.7556E-08  0.8314E-12  0.2786E-04  0.0000E+00 -0.3420E+12
   -2.337514    4.01086  0.2140E-11  0.7867E-08  0.9182E-12  0.2684E-04  0.0000E+00 -0.3858E+12
   -2.406263    4.01196  0.2140E-11  0.8096E-08  0.1031E-11  0.2459E-04  0.0000E+00 -0.4579E+12
   -2.475011    4.01319  0.2140E-11  0.8223E-08  0.1194E-11  0.2089E-04  0.0000E+00 -0.5892E+12
   -2.543758    4.01467  0.2140E-11  0.8194E-08  0.1472E-11  0.1557E-04  0.0000E+00 -0.8785E+12
   -2.612505    4.01673  0.2140E-11  0.7837E-08  0.2121E-11  0.8555E-05  0.0000E+00 -0.1860E+13
   -2.681252    4.02062  0.2140E-11  0.5989E-08  0.5760E-11  0.1339E-05  0.0000E+00 -0.1744E+14
   -2.749997    4.04492  0.2140E-11  0.0000E+00  0.0000E+00  0.0000E+00  0.0000E+00  0.0000E+00
