 1 - depth, m
 2 - temperature, C
 3 - salinity, kg/kg
 4 - turbulent kinetic energy, m**2/s**2
 5 - dissipation rate, m**2/s**3
 6 - kinematic heat conductance, m**2/s
 7 - modulus of horizontal velocity, m/s
 8 - Richardson number, n/d
   -0.000000   -0.00000  0.6991E-10  0.1219E-13  0.7603E-17  0.1000E-09  0.0000E+00  0.5435E+16
   -0.068746    0.08244  0.3853E-10  0.1219E-13  0.7603E-17  0.1000E-09  0.0000E+00  0.5241E+16
   -0.137492    0.16374  0.2904E-10  0.1219E-13  0.7603E-17  0.1000E-09  0.0000E+00  0.5082E+16
   -0.206239    0.24437  0.2670E-10  0.1219E-13  0.7603E-17  0.1000E-09  0.0000E+00  0.4954E+16
   -0.274987    0.32479  0.2619E-10  0.1219E-13  0.7603E-17  0.1000E-09  0.0000E+00  0.4856E+16
   -0.343735    0.40548  0.2609E-10  0.1219E-13  0.7603E-17  0.1000E-09  0.0000E+00  0.4783E+16
   -0.412483    0.48689  0.2608E-10  0.1219E-13  0.7603E-17  0.1000E-09  0.0000E+00  0.4734E+16
   -0.481232    0.56950  0.2607E-10  0.1219E-13  0.7603E-17  0.1000E-09  0.0000E+00  0.4705E+16
   -0.549982    0.65374  0.2607E-10  0.1219E-13  0.7603E-17  0.1000E-09  0.0000E+00  0.4692E+16
   -0.618732    0.74005  0.2607E-10  0.1219E-13  0.7603E-17  0.1000E-09  0.0000E+00  0.4691E+16
   -0.687482    0.82883  0.2607E-10  0.1219E-13  0.7603E-17  0.1000E-09  0.0000E+00  0.4713E+16
   -0.756233    0.92076  0.2607E-10  0.1219E-13  0.7603E-17  0.1000E-09  0.0000E+00  0.4745E+16
   -0.824984    1.01635  0.2607E-10  0.1219E-13  0.7603E-17  0.1000E-09  0.0000E+00  0.4775E+16
   -0.893735    1.11592  0.2607E-10  0.1219E-13  0.7603E-17  0.1000E-09  0.0000E+00  0.4798E+16
   -0.962487    1.21975  0.2607E-10  0.1219E-13  0.7603E-17  0.1000E-09  0.0000E+00  0.4809E+16
   -1.031238    1.32809  0.2607E-10  0.1219E-13  0.7603E-17  0.1000E-09  0.0000E+00  0.4804E+16
   -1.099990    1.44111  0.2605E-10  0.1219E-13  0.7603E-17  0.1000E-09  0.0000E+00  0.4778E+16
   -1.168742    1.55896  0.2602E-10  0.1219E-13  0.7603E-17  0.1000E-09  0.0000E+00  0.4726E+16
   -1.237494    1.68172  0.2596E-10  0.1219E-13  0.7603E-17  0.1000E-09  0.0000E+00  0.4646E+16
   -1.306246    1.80939  0.2585E-10  0.1219E-13  0.7603E-17  0.1000E-09  0.0000E+00  0.4533E+16
   -1.374999    1.94193  0.2570E-10  0.2985E-13  0.7603E-17  0.1000E-09  0.0000E+00  0.4395E+16
   -1.443751    2.07952  0.2557E-10  0.9570E-13  0.1783E-16  0.1000E-09  0.0000E+00  0.4221E+16
   -1.512503    2.22207  0.2548E-10  0.2743E-12  0.4766E-16  0.1000E-09  0.0000E+00  0.4007E+16
   -1.581255    2.36933  0.2543E-10  0.7544E-12  0.1263E-15  0.1000E-09  0.0000E+00  0.3752E+16
   -1.650007    2.52098  0.2540E-10  0.2033E-11  0.3298E-15  0.1000E-09  0.0000E+00  0.3459E+16
   -1.718759    2.67662  0.2539E-10  0.5397E-11  0.8490E-15  0.1000E-09  0.0000E+00  0.3129E+16
   -1.787511    2.83585  0.2538E-10  0.1451E-10  0.2213E-14  0.1000E-09  0.0000E+00  0.2781E+16
   -1.856262    2.99916  0.2537E-10  0.3911E-10  0.5788E-14  0.1000E-09  0.0000E+00  0.2402E+16
   -1.925013    3.16647  0.2536E-10  0.1048E-09  0.1505E-13  0.1000E-09  0.0000E+00  0.1993E+16
   -1.993764    3.33779  0.2534E-10  0.2787E-09  0.3888E-13  0.1276E-09  0.0000E+00  0.1550E+16
   -2.062515    3.51257  0.2531E-10  0.7194E-09  0.9752E-13  0.4645E-09  0.0000E+00  0.1068E+16
   -2.131265    3.68810  0.2526E-10  0.1828E-08  0.2410E-12  0.2121E-08  0.0000E+00  0.5775E+15
   -2.200015    3.86200  0.2524E-10  0.4537E-08  0.5824E-12  0.2535E-07  0.0000E+00  0.1162E+15
   -2.268765    4.01144  0.2524E-10  0.5921E-08  0.7671E-12  0.1964E-04  0.0000E+00 -0.5071E+12
   -2.337514    4.01269  0.2524E-10  0.6460E-08  0.8654E-12  0.1977E-04  0.0000E+00 -0.5323E+12
   -2.406263    4.01395  0.2524E-10  0.6846E-08  0.9792E-12  0.1874E-04  0.0000E+00 -0.5951E+12
   -2.475011    4.01529  0.2524E-10  0.7083E-08  0.1133E-11  0.1640E-04  0.0000E+00 -0.7263E+12
   -2.543758    4.01685  0.2524E-10  0.7135E-08  0.1388E-11  0.1256E-04  0.0000E+00 -0.1032E+13
   -2.612505    4.01894  0.2524E-10  0.6855E-08  0.1977E-11  0.7115E-05  0.0000E+00 -0.2096E+13
   -2.681252    4.02281  0.2524E-10  0.5317E-08  0.5158E-11  0.1242E-05  0.0000E+00 -0.1870E+14
   -2.749997    4.04732  0.2524E-10  0.0000E+00  0.0000E+00  0.0000E+00  0.0000E+00  0.0000E+00
