 1 - depth, m
 2 - temperature, C
 3 - salinity, kg/kg
 4 - turbulent kinetic energy, m**2/s**2
 5 - dissipation rate, m**2/s**3
 6 - kinematic heat conductance, m**2/s
 7 - modulus of horizontal velocity, m/s
 8 - Richardson number, n/d
   -0.000000   -0.00000  0.2859E-11  0.1219E-13  0.7603E-17  0.1000E-09  0.0000E+00  0.7845E+16
   -0.068746    0.11961  0.1703E-11  0.1219E-13  0.7603E-17  0.1000E-09  0.0000E+00  0.7534E+16
   -0.137492    0.23830  0.1221E-11  0.1219E-13  0.7603E-17  0.1000E-09  0.0000E+00  0.7245E+16
   -0.206239    0.35635  0.1052E-11  0.1219E-13  0.7603E-17  0.1000E-09  0.0000E+00  0.6978E+16
   -0.274987    0.47402  0.1002E-11  0.1219E-13  0.7603E-17  0.1000E-09  0.0000E+00  0.6728E+16
   -0.343735    0.59158  0.9891E-12  0.1219E-13  0.7603E-17  0.1000E-09  0.0000E+00  0.6495E+16
   -0.412483    0.70930  0.9861E-12  0.1219E-13  0.7603E-17  0.1000E-09  0.0000E+00  0.6275E+16
   -0.481232    0.82744  0.9855E-12  0.1219E-13  0.7603E-17  0.1000E-09  0.0000E+00  0.6066E+16
   -0.549982    0.94624  0.9854E-12  0.1219E-13  0.7603E-17  0.1000E-09  0.0000E+00  0.5865E+16
   -0.618732    1.06594  0.9853E-12  0.1219E-13  0.7603E-17  0.1000E-09  0.0000E+00  0.5669E+16
   -0.687482    1.18675  0.9853E-12  0.1219E-13  0.7603E-17  0.1000E-09  0.0000E+00  0.5486E+16
   -0.756233    1.30911  0.9853E-12  0.1219E-13  0.7603E-17  0.1000E-09  0.0000E+00  0.5307E+16
   -0.824984    1.43331  0.9853E-12  0.1219E-13  0.7603E-17  0.1000E-09  0.0000E+00  0.5124E+16
   -0.893735    1.55950  0.9851E-12  0.1219E-13  0.7603E-17  0.1000E-09  0.0000E+00  0.4933E+16
   -0.962487    1.68782  0.9847E-12  0.1888E-13  0.7603E-17  0.1000E-09  0.0000E+00  0.4733E+16
   -1.031238    1.81834  0.9839E-12  0.7371E-13  0.1125E-16  0.1000E-09  0.0000E+00  0.4522E+16
   -1.099990    1.95114  0.9822E-12  0.1998E-12  0.2505E-16  0.1000E-09  0.0000E+00  0.4298E+16
   -1.168742    2.08623  0.9794E-12  0.4844E-12  0.5740E-16  0.1000E-09  0.0000E+00  0.4059E+16
   -1.237495    2.22362  0.9754E-12  0.1132E-11  0.1299E-15  0.1000E-09  0.0000E+00  0.3805E+16
   -1.306247    2.36327  0.9708E-12  0.2602E-11  0.2905E-15  0.1000E-09  0.0000E+00  0.3535E+16
   -1.374999    2.50510  0.9663E-12  0.5911E-11  0.6426E-15  0.1000E-09  0.0000E+00  0.3252E+16
   -1.443751    2.64916  0.9628E-12  0.1329E-10  0.1407E-14  0.1000E-09  0.0000E+00  0.2954E+16
   -1.512503    2.79535  0.9604E-12  0.2957E-10  0.3052E-14  0.1000E-09  0.0000E+00  0.2639E+16
   -1.581255    2.94350  0.9588E-12  0.6517E-10  0.6558E-14  0.1000E-09  0.0000E+00  0.2308E+16
   -1.650008    3.09342  0.9578E-12  0.1423E-09  0.1396E-13  0.1000E-09  0.0000E+00  0.1964E+16
   -1.718759    3.24486  0.9571E-12  0.3077E-09  0.2946E-13  0.1000E-09  0.0000E+00  0.1609E+16
   -1.787511    3.39768  0.9566E-12  0.6750E-09  0.6302E-13  0.2548E-09  0.0000E+00  0.1258E+16
   -1.856263    3.55373  0.9557E-12  0.1493E-08  0.1360E-12  0.7821E-09  0.0000E+00  0.8850E+15
   -1.925014    3.71287  0.9546E-12  0.3295E-08  0.2931E-12  0.3058E-08  0.0000E+00  0.4875E+15
   -1.993765    3.87348  0.9539E-12  0.7133E-08  0.6209E-12  0.3296E-07  0.0000E+00  0.9560E+14
   -2.062516    4.00949  0.9538E-12  0.8022E-08  0.7022E-12  0.3796E-04  0.0000E+00 -0.2282E+12
   -2.131266    4.01011  0.9538E-12  0.8390E-08  0.7446E-12  0.3827E-04  0.0000E+00 -0.2325E+12
   -2.200016    4.01073  0.9538E-12  0.8677E-08  0.7896E-12  0.3775E-04  0.0000E+00 -0.2420E+12
   -2.268765    4.01135  0.9538E-12  0.8890E-08  0.8402E-12  0.3632E-04  0.0000E+00 -0.2583E+12
   -2.337515    4.01200  0.9538E-12  0.9033E-08  0.9031E-12  0.3385E-04  0.0000E+00 -0.2852E+12
   -2.406263    4.01270  0.9538E-12  0.9097E-08  0.9881E-12  0.3015E-04  0.0000E+00 -0.3301E+12
   -2.475011    4.01349  0.9538E-12  0.9059E-08  0.1116E-11  0.2500E-04  0.0000E+00 -0.4128E+12
   -2.543759    4.01444  0.9538E-12  0.8861E-08  0.1345E-11  0.1817E-04  0.0000E+00 -0.5948E+12
   -2.612506    4.01576  0.9538E-12  0.8316E-08  0.1901E-11  0.9657E-05  0.0000E+00 -0.1206E+13
   -2.681252    4.01827  0.9538E-12  0.5976E-08  0.5318E-11  0.1256E-05  0.0000E+00 -0.1206E+14
   -2.749998    4.03693  0.9538E-12  0.0000E+00  0.0000E+00  0.0000E+00  0.0000E+00  0.0000E+00
