 1 - depth, m
 2 - temperature, C
 3 - salinity, kg/kg
 4 - turbulent kinetic energy, m**2/s**2
 5 - dissipation rate, m**2/s**3
 6 - kinematic heat conductance, m**2/s
 7 - modulus of horizontal velocity, m/s
 8 - Richardson number, n/d
   -0.000000   -0.00000  0.4492E-11  0.1219E-13  0.7603E-17  0.1000E-09  0.0000E+00  0.6732E+16
   -0.068746    0.10239  0.2685E-11  0.1219E-13  0.7603E-17  0.1000E-09  0.0000E+00  0.6493E+16
   -0.137492    0.20396  0.1956E-11  0.1219E-13  0.7603E-17  0.1000E-09  0.0000E+00  0.6284E+16
   -0.206239    0.30510  0.1745E-11  0.1219E-13  0.7603E-17  0.1000E-09  0.0000E+00  0.6102E+16
   -0.274987    0.40622  0.1693E-11  0.1219E-13  0.7603E-17  0.1000E-09  0.0000E+00  0.5944E+16
   -0.343735    0.50772  0.1681E-11  0.1219E-13  0.7603E-17  0.1000E-09  0.0000E+00  0.5807E+16
   -0.412483    0.61000  0.1679E-11  0.1219E-13  0.7603E-17  0.1000E-09  0.0000E+00  0.5687E+16
   -0.481232    0.71345  0.1679E-11  0.1219E-13  0.7603E-17  0.1000E-09  0.0000E+00  0.5582E+16
   -0.549982    0.81847  0.1679E-11  0.1219E-13  0.7603E-17  0.1000E-09  0.0000E+00  0.5489E+16
   -0.618732    0.92543  0.1679E-11  0.1219E-13  0.7603E-17  0.1000E-09  0.0000E+00  0.5402E+16
   -0.687482    1.03469  0.1679E-11  0.1219E-13  0.7603E-17  0.1000E-09  0.0000E+00  0.5332E+16
   -0.756233    1.14686  0.1679E-11  0.1219E-13  0.7603E-17  0.1000E-09  0.0000E+00  0.5266E+16
   -0.824984    1.26240  0.1679E-11  0.1219E-13  0.7603E-17  0.1000E-09  0.0000E+00  0.5193E+16
   -0.893735    1.38159  0.1678E-11  0.1219E-13  0.7603E-17  0.1000E-09  0.0000E+00  0.5109E+16
   -0.962487    1.50467  0.1678E-11  0.1219E-13  0.7603E-17  0.1000E-09  0.0000E+00  0.5008E+16
   -1.031239    1.63183  0.1678E-11  0.5175E-13  0.9400E-17  0.1000E-09  0.0000E+00  0.4888E+16
   -1.099990    1.76322  0.1677E-11  0.1508E-12  0.2134E-16  0.1000E-09  0.0000E+00  0.4744E+16
   -1.168742    1.89894  0.1674E-11  0.3850E-12  0.5109E-16  0.1000E-09  0.0000E+00  0.4573E+16
   -1.237495    2.03904  0.1669E-11  0.9424E-12  0.1209E-15  0.1000E-09  0.0000E+00  0.4373E+16
   -1.306247    2.18351  0.1662E-11  0.2265E-11  0.2823E-15  0.1000E-09  0.0000E+00  0.4141E+16
   -1.374999    2.33230  0.1653E-11  0.5373E-11  0.6515E-15  0.1000E-09  0.0000E+00  0.3883E+16
   -1.443751    2.48551  0.1646E-11  0.1261E-10  0.1487E-14  0.1000E-09  0.0000E+00  0.3590E+16
   -1.512503    2.64307  0.1641E-11  0.2925E-10  0.3360E-14  0.1000E-09  0.0000E+00  0.3262E+16
   -1.581256    2.80476  0.1638E-11  0.6716E-10  0.7513E-14  0.1000E-09  0.0000E+00  0.2900E+16
   -1.650008    2.97029  0.1636E-11  0.1526E-09  0.1663E-13  0.1000E-09  0.0000E+00  0.2504E+16
   -1.718760    3.13935  0.1635E-11  0.3434E-09  0.3646E-13  0.1000E-09  0.0000E+00  0.2079E+16
   -1.787511    3.31168  0.1634E-11  0.7834E-09  0.8103E-13  0.2505E-09  0.0000E+00  0.1646E+16
   -1.856263    3.48940  0.1633E-11  0.1800E-08  0.1815E-12  0.7899E-09  0.0000E+00  0.1170E+16
   -1.925014    3.67234  0.1630E-11  0.4123E-08  0.4055E-12  0.3190E-08  0.0000E+00  0.6467E+15
   -1.993765    3.85861  0.1628E-11  0.9231E-08  0.8879E-12  0.3702E-07  0.0000E+00  0.1218E+15
   -2.062516    4.01425  0.1628E-11  0.1030E-07  0.9963E-12  0.4395E-04  0.0000E+00 -0.2781E+12
   -2.131266    4.01488  0.1628E-11  0.1074E-07  0.1053E-11  0.4421E-04  0.0000E+00 -0.2830E+12
   -2.200016    4.01550  0.1628E-11  0.1109E-07  0.1113E-11  0.4353E-04  0.0000E+00 -0.2941E+12
   -2.268766    4.01614  0.1628E-11  0.1134E-07  0.1181E-11  0.4186E-04  0.0000E+00 -0.3133E+12
   -2.337515    4.01680  0.1628E-11  0.1151E-07  0.1267E-11  0.3900E-04  0.0000E+00 -0.3448E+12
   -2.406263    4.01752  0.1628E-11  0.1158E-07  0.1382E-11  0.3477E-04  0.0000E+00 -0.3977E+12
   -2.475011    4.01832  0.1628E-11  0.1153E-07  0.1557E-11  0.2890E-04  0.0000E+00 -0.4943E+12
   -2.543759    4.01929  0.1628E-11  0.1129E-07  0.1867E-11  0.2114E-04  0.0000E+00 -0.7052E+12
   -2.612506    4.02063  0.1628E-11  0.1063E-07  0.2619E-11  0.1142E-04  0.0000E+00 -0.1399E+13
   -2.681252    4.02314  0.1628E-11  0.7766E-08  0.7294E-11  0.1539E-05  0.0000E+00 -0.1331E+14
   -2.749998    4.04160  0.1628E-11  0.0000E+00  0.0000E+00  0.0000E+00  0.0000E+00  0.0000E+00
