 1 - depth, m
 2 - temperature, C
 3 - salinity, kg/kg
 4 - turbulent kinetic energy, m**2/s**2
 5 - dissipation rate, m**2/s**3
 6 - kinematic heat conductance, m**2/s
 7 - modulus of horizontal velocity, m/s
 8 - Richardson number, n/d
   -0.000000   -0.00000  0.1007E-10  0.1219E-13  0.7603E-17  0.1000E-09  0.0000E+00  0.4905E+16
   -0.068746    0.07432  0.5317E-11  0.1219E-13  0.7603E-17  0.1000E-09  0.0000E+00  0.4711E+16
   -0.137492    0.14715  0.4139E-11  0.1219E-13  0.7603E-17  0.1000E-09  0.0000E+00  0.4557E+16
   -0.206239    0.21903  0.3873E-11  0.1219E-13  0.7603E-17  0.1000E-09  0.0000E+00  0.4440E+16
   -0.274987    0.29050  0.3819E-11  0.1219E-13  0.7603E-17  0.1000E-09  0.0000E+00  0.4360E+16
   -0.343735    0.36213  0.3810E-11  0.1219E-13  0.7603E-17  0.1000E-09  0.0000E+00  0.4313E+16
   -0.412483    0.43451  0.3808E-11  0.1219E-13  0.7603E-17  0.1000E-09  0.0000E+00  0.4297E+16
   -0.481232    0.50820  0.3808E-11  0.1219E-13  0.7603E-17  0.1000E-09  0.0000E+00  0.4310E+16
   -0.549982    0.58381  0.3808E-11  0.1219E-13  0.7603E-17  0.1000E-09  0.0000E+00  0.4347E+16
   -0.618732    0.66192  0.3808E-11  0.1219E-13  0.7603E-17  0.1000E-09  0.0000E+00  0.4405E+16
   -0.687482    0.74311  0.3808E-11  0.1219E-13  0.7603E-17  0.1000E-09  0.0000E+00  0.4496E+16
   -0.756233    0.82823  0.3808E-11  0.1219E-13  0.7603E-17  0.1000E-09  0.0000E+00  0.4605E+16
   -0.824984    0.91801  0.3808E-11  0.1219E-13  0.7603E-17  0.1000E-09  0.0000E+00  0.4720E+16
   -0.893735    1.01298  0.3808E-11  0.1219E-13  0.7603E-17  0.1000E-09  0.0000E+00  0.4832E+16
   -0.962487    1.11364  0.3808E-11  0.1219E-13  0.7603E-17  0.1000E-09  0.0000E+00  0.4937E+16
   -1.031238    1.22044  0.3807E-11  0.1219E-13  0.7603E-17  0.1000E-09  0.0000E+00  0.5027E+16
   -1.099990    1.33381  0.3806E-11  0.1219E-13  0.7603E-17  0.1000E-09  0.0000E+00  0.5093E+16
   -1.168742    1.45410  0.3802E-11  0.3128E-13  0.7603E-17  0.1000E-09  0.0000E+00  0.5130E+16
   -1.237494    1.58159  0.3793E-11  0.9892E-13  0.1391E-16  0.1000E-09  0.0000E+00  0.5130E+16
   -1.306246    1.71653  0.3776E-11  0.2554E-12  0.3186E-16  0.1000E-09  0.0000E+00  0.5086E+16
   -1.374999    1.85907  0.3754E-11  0.6153E-12  0.7349E-16  0.1000E-09  0.0000E+00  0.5006E+16
   -1.443751    2.00978  0.3733E-11  0.1444E-11  0.1674E-15  0.1000E-09  0.0000E+00  0.4873E+16
   -1.512503    2.16884  0.3720E-11  0.3342E-11  0.3771E-15  0.1000E-09  0.0000E+00  0.4675E+16
   -1.581255    2.33625  0.3714E-11  0.7649E-11  0.8404E-15  0.1000E-09  0.0000E+00  0.4409E+16
   -1.650007    2.51197  0.3710E-11  0.1733E-10  0.1855E-14  0.1000E-09  0.0000E+00  0.4073E+16
   -1.718759    2.69594  0.3707E-11  0.3886E-10  0.4055E-14  0.1000E-09  0.0000E+00  0.3664E+16
   -1.787511    2.88808  0.3706E-11  0.8842E-10  0.8991E-14  0.1000E-09  0.0000E+00  0.3205E+16
   -1.856262    3.08998  0.3705E-11  0.2028E-09  0.2011E-13  0.1000E-09  0.0000E+00  0.2660E+16
   -1.925013    3.30215  0.3704E-11  0.4646E-09  0.4492E-13  0.1134E-09  0.0000E+00  0.2017E+16
   -1.993764    3.52492  0.3702E-11  0.1061E-08  0.1001E-12  0.4046E-09  0.0000E+00  0.1261E+16
   -2.062515    3.75662  0.3696E-11  0.2362E-08  0.2176E-12  0.2678E-08  0.0000E+00  0.4143E+15
   -2.131265    3.98720  0.3690E-11  0.3282E-08  0.3046E-12  0.8298E-05  0.0000E+00 -0.1754E+12
   -2.200015    3.99119  0.3690E-11  0.3803E-08  0.3695E-12  0.1272E-04  0.0000E+00 -0.2502E+12
   -2.268765    3.99378  0.3690E-11  0.4248E-08  0.4402E-12  0.1479E-04  0.0000E+00 -0.3009E+12
   -2.337514    3.99602  0.3690E-11  0.4641E-08  0.5239E-12  0.1543E-04  0.0000E+00 -0.3639E+12
   -2.406263    3.99817  0.3690E-11  0.4976E-08  0.6295E-12  0.1484E-04  0.0000E+00 -0.4582E+12
   -2.475011    4.00042  0.3690E-11  0.5237E-08  0.7775E-12  0.1302E-04  0.0000E+00 -0.6243E+12
   -2.543758    4.00301  0.3690E-11  0.5384E-08  0.1021E-11  0.9904E-05  0.0000E+00 -0.9914E+12
   -2.612505    4.00644  0.3690E-11  0.5296E-08  0.1573E-11  0.5544E-05  0.0000E+00 -0.2277E+13
   -2.681252    4.01269  0.3690E-11  0.4362E-08  0.4281E-11  0.1098E-05  0.0000E+00 -0.2089E+14
   -2.749997    4.04432  0.3690E-11  0.0000E+00  0.0000E+00  0.0000E+00  0.0000E+00  0.0000E+00
