 1 - depth, m
 2 - temperature, C
 3 - salinity, kg/kg
 4 - turbulent kinetic energy, m**2/s**2
 5 - dissipation rate, m**2/s**3
 6 - kinematic heat conductance, m**2/s
 7 - modulus of horizontal velocity, m/s
 8 - Richardson number, n/d
   -0.000000   -0.00000  0.8219E-10  0.1219E-13  0.7603E-17  0.1000E-09  0.0000E+00  0.3901E+16
   -0.068746    0.05899  0.4459E-10  0.1219E-13  0.7603E-17  0.1000E-09  0.0000E+00  0.3721E+16
   -0.137492    0.11614  0.3587E-10  0.1219E-13  0.7603E-17  0.1000E-09  0.0000E+00  0.3572E+16
   -0.206239    0.17188  0.3409E-10  0.1219E-13  0.7603E-17  0.1000E-09  0.0000E+00  0.3456E+16
   -0.274987    0.22663  0.3378E-10  0.1219E-13  0.7603E-17  0.1000E-09  0.0000E+00  0.3372E+16
   -0.343735    0.28089  0.3374E-10  0.1219E-13  0.7603E-17  0.1000E-09  0.0000E+00  0.3321E+16
   -0.412483    0.33517  0.3373E-10  0.1219E-13  0.7603E-17  0.1000E-09  0.0000E+00  0.3304E+16
   -0.481232    0.39004  0.3373E-10  0.1219E-13  0.7603E-17  0.1000E-09  0.0000E+00  0.3321E+16
   -0.549982    0.44609  0.3373E-10  0.1219E-13  0.7603E-17  0.1000E-09  0.0000E+00  0.3370E+16
   -0.618732    0.50396  0.3373E-10  0.1219E-13  0.7603E-17  0.1000E-09  0.0000E+00  0.3452E+16
   -0.687482    0.56430  0.3373E-10  0.1219E-13  0.7603E-17  0.1000E-09  0.0000E+00  0.3580E+16
   -0.756233    0.62810  0.3373E-10  0.1219E-13  0.7603E-17  0.1000E-09  0.0000E+00  0.3744E+16
   -0.824984    0.69621  0.3373E-10  0.1219E-13  0.7603E-17  0.1000E-09  0.0000E+00  0.3929E+16
   -0.893735    0.76932  0.3373E-10  0.1219E-13  0.7603E-17  0.1000E-09  0.0000E+00  0.4130E+16
   -0.962486    0.84812  0.3373E-10  0.1219E-13  0.7603E-17  0.1000E-09  0.0000E+00  0.4341E+16
   -1.031238    0.93325  0.3373E-10  0.1219E-13  0.7603E-17  0.1000E-09  0.0000E+00  0.4554E+16
   -1.099990    1.02533  0.3371E-10  0.1219E-13  0.7603E-17  0.1000E-09  0.0000E+00  0.4761E+16
   -1.168742    1.12491  0.3368E-10  0.1219E-13  0.7603E-17  0.1000E-09  0.0000E+00  0.4951E+16
   -1.237494    1.23248  0.3359E-10  0.1219E-13  0.7603E-17  0.1000E-09  0.0000E+00  0.5115E+16
   -1.306246    1.34844  0.3340E-10  0.1219E-13  0.7603E-17  0.1000E-09  0.0000E+00  0.5242E+16
   -1.374999    1.47309  0.3316E-10  0.1219E-13  0.7603E-17  0.1000E-09  0.0000E+00  0.5344E+16
   -1.443751    1.60716  0.3297E-10  0.1219E-13  0.7603E-17  0.1000E-09  0.0000E+00  0.5392E+16
   -1.512503    1.75090  0.3287E-10  0.1219E-13  0.7603E-17  0.1000E-09  0.0000E+00  0.5369E+16
   -1.581255    1.90425  0.3281E-10  0.5596E-13  0.1362E-16  0.1000E-09  0.0000E+00  0.5267E+16
   -1.650007    2.06699  0.3277E-10  0.1860E-12  0.3927E-16  0.1000E-09  0.0000E+00  0.5080E+16
   -1.718759    2.23875  0.3274E-10  0.5648E-12  0.1140E-15  0.1000E-09  0.0000E+00  0.4803E+16
   -1.787511    2.41889  0.3273E-10  0.1714E-11  0.3339E-15  0.1000E-09  0.0000E+00  0.4383E+16
   -1.856262    2.60418  0.3272E-10  0.5184E-11  0.9772E-15  0.1000E-09  0.0000E+00  0.3909E+16
   -1.925013    2.79409  0.3272E-10  0.1553E-10  0.2835E-14  0.1000E-09  0.0000E+00  0.3386E+16
   -1.993764    2.98801  0.3272E-10  0.4612E-10  0.8153E-14  0.1000E-09  0.0000E+00  0.2825E+16
   -2.062515    3.18569  0.3271E-10  0.1324E-09  0.2269E-13  0.1000E-09  0.0000E+00  0.2241E+16
   -2.131265    3.38796  0.3268E-10  0.3743E-09  0.6219E-13  0.1962E-09  0.0000E+00  0.1613E+16
   -2.200015    3.59418  0.3265E-10  0.1046E-08  0.1685E-12  0.9073E-09  0.0000E+00  0.9448E+15
   -2.268765    3.80268  0.3260E-10  0.2899E-08  0.4536E-12  0.8777E-08  0.0000E+00  0.2625E+15
   -2.337514    4.00296  0.3258E-10  0.4532E-08  0.7158E-12  0.1148E-04  0.0000E+00 -0.7322E+12
   -2.406263    4.00556  0.3258E-10  0.5195E-08  0.8723E-12  0.1200E-04  0.0000E+00 -0.8167E+12
   -2.475011    4.00810  0.3258E-10  0.5683E-08  0.1074E-11  0.1119E-04  0.0000E+00 -0.1016E+13
   -2.543758    4.01090  0.3258E-10  0.5989E-08  0.1397E-11  0.8981E-05  0.0000E+00 -0.1500E+13
   -2.612505    4.01453  0.3258E-10  0.6015E-08  0.2121E-11  0.5348E-05  0.0000E+00 -0.3228E+13
   -2.681251    4.02108  0.3258E-10  0.5240E-08  0.5627E-11  0.1269E-05  0.0000E+00 -0.2615E+14
   -2.749997    4.05376  0.3258E-10  0.0000E+00  0.0000E+00  0.0000E+00  0.0000E+00  0.0000E+00
