 1 - depth, m
 2 - temperature, C
 3 - salinity, kg/kg
 4 - turbulent kinetic energy, m**2/s**2
 5 - dissipation rate, m**2/s**3
 6 - kinematic heat conductance, m**2/s
 7 - modulus of horizontal velocity, m/s
 8 - Richardson number, n/d
   -0.000000   -0.00000  0.2808E-10  0.4254E-06  0.5226E-08  0.2891E-05  0.5912E-02  0.1673E+04
   -0.068745    0.02660  0.2695E-10  0.3202E-06  0.1936E-08  0.3903E-05  0.3878E-02  0.7113E+03
   -0.137490    0.03856  0.2679E-10  0.2220E-06  0.9428E-09  0.3469E-05  0.2801E-02  0.3849E+03
   -0.206236    0.04703  0.2667E-10  0.1438E-06  0.4882E-09  0.2537E-05  0.2054E-02  0.3533E+03
   -0.274982    0.05480  0.2657E-10  0.8547E-07  0.2476E-09  0.1579E-05  0.1486E-02  0.4843E+03
   -0.343729    0.06259  0.2646E-10  0.4538E-07  0.1153E-09  0.8117E-06  0.1038E-02  0.8181E+03
   -0.412477    0.07057  0.2635E-10  0.2178E-07  0.4486E-10  0.3133E-06  0.6846E-03  0.1499E+04
   -0.481225    0.07881  0.2624E-10  0.1373E-07  0.1221E-10  0.7973E-07  0.4138E-03  0.2536E+04
   -0.549973    0.08717  0.2612E-10  0.1632E-07  0.2411E-11  0.1738E-04  0.2217E-03  0.1465E+05
   -0.618722    0.09489  0.2598E-10  0.2095E-07  0.1389E-11  0.6754E-04  0.1081E-03  0.7227E+05
   -0.687471    0.10091  0.2586E-10  0.2424E-07  0.1557E-11  0.1045E-03  0.5137E-04  0.1315E+08
   -0.756221    0.10486  0.2577E-10  0.2602E-07  0.1741E-11  0.1277E-03  0.2416E-04  0.5075E+06
   -0.824971    0.10703  0.2572E-10  0.2686E-07  0.1860E-11  0.1469E-03  0.1131E-04  0.6698E+08
   -0.893721    0.10804  0.2569E-10  0.2734E-07  0.1946E-11  0.1545E-03  0.5420E-05  0.8321E+08
   -0.962471    0.10847  0.2568E-10  0.2753E-07  0.2007E-11  0.1561E-03  0.2770E-05  0.9071E+08
   -1.031222    0.10864  0.2567E-10  0.2743E-07  0.2005E-11  0.1540E-03  0.1536E-05  0.9214E+08
   -1.099973    0.10873  0.2566E-10  0.2703E-07  0.1935E-11  0.1444E-03  0.9482E-06  0.1131E+08
   -1.168724    0.10887  0.2565E-10  0.2617E-07  0.1805E-11  0.1070E-03  0.6559E-06  0.1776E+08
   -1.237475    0.10941  0.2563E-10  0.2411E-07  0.1563E-11  0.2618E-07  0.4277E-06  0.6369E+07
   -1.306226    0.11330  0.2556E-10  0.1129E-07  0.7483E-12  0.4419E-08  0.1873E-06  0.7980E+08
   -1.374977    0.12329  0.2554E-10  0.4996E-08  0.3419E-12  0.1009E-08  0.7906E-07  0.9829E+09
   -1.443728    0.14497  0.2552E-10  0.2150E-08  0.1524E-12  0.2980E-09  0.3318E-07  0.1042E+11
   -1.512479    0.18531  0.2549E-10  0.9044E-09  0.6654E-13  0.1335E-09  0.1392E-07  0.9949E+11
   -1.581230    0.25337  0.2546E-10  0.3722E-09  0.2845E-13  0.1007E-09  0.5825E-08  0.8575E+12
   -1.649981    0.36044  0.2543E-10  0.1500E-09  0.1195E-13  0.1000E-09  0.2358E-08  0.5807E+13
   -1.718732    0.51916  0.2540E-10  0.5970E-10  0.5012E-14  0.1000E-09  0.7213E-09  0.4619E+14
   -1.787482    0.73700  0.2538E-10  0.2337E-10  0.2214E-14  0.1000E-09  0.4672E-10  0.4408E+16
   -1.856233    0.90983  0.2538E-10  0.8884E-11  0.1361E-14  0.1000E-09  0.2797E-11  0.6800E+16
   -1.924983    1.04811  0.2537E-10  0.6132E-11  0.2410E-14  0.1000E-09  0.1534E-12  0.5385E+16
   -1.993733    1.16322  0.2537E-10  0.2100E-10  0.1054E-13  0.1000E-09  0.9141E-14  0.6201E+16
   -2.062482    1.30247  0.2537E-10  0.1085E-09  0.5374E-13  0.1000E-09  0.6995E-15  0.1144E+17
   -2.131232    1.58009  0.2536E-10  0.5653E-09  0.2727E-12  0.1336E-09  0.5025E-16  0.1587E+17
   -2.199981    2.03138  0.2534E-10  0.2897E-08  0.1362E-11  0.4387E-09  0.3367E-17  0.1705E+17
   -2.268729    2.68904  0.2529E-10  0.1467E-07  0.6728E-11  0.4038E-08  0.1562E-18  0.1161E+17
   -2.337477    3.56193  0.2522E-10  0.4009E-07  0.1948E-10  0.1203E-04  0.5313E-20  0.2208E+16
   -2.406224    4.11805  0.2517E-10  0.5379E-07  0.2699E-10  0.4494E-04  0.6457E-21 -0.7229E+13
   -2.474971    4.12166  0.2517E-10  0.5853E-07  0.3140E-10  0.4314E-04  0.2038E-21 -0.8038E+13
   -2.543718    4.12557  0.2517E-10  0.6108E-07  0.3773E-10  0.3641E-04  0.5772E-22 -0.1034E+14
   -2.612464    4.13044  0.2517E-10  0.6062E-07  0.5105E-10  0.2354E-04  0.1257E-22 -0.1822E+14
   -2.681209    4.13867  0.2517E-10  0.4745E-07  0.1326E-09  0.4087E-05  0.1523E-23 -0.1590E+15
   -2.749954    4.19626  0.2517E-10  0.0000E+00  0.0000E+00  0.0000E+00  0.1524E-23  0.0000E+00
