 1 - depth, m
 2 - temperature, C
 3 - salinity, kg/kg
 4 - turbulent kinetic energy, m**2/s**2
 5 - dissipation rate, m**2/s**3
 6 - kinematic heat conductance, m**2/s
 7 - modulus of horizontal velocity, m/s
 8 - Richardson number, n/d
   -0.000000   -0.00000  0.1900E-13  0.2935E-07  0.1089E-09  0.6417E-08  0.2841E-03  0.2139E+04
   -0.068747    1.29674  0.4282E-12  0.3343E-06  0.1031E-09  0.1404E-07  0.1179E-03  0.5355E+04
   -0.137495    2.51080  0.9448E-11  0.6009E-06  0.1715E-09  0.2618E-03  0.3809E-04  0.1217E+05
   -0.206243    3.19600  0.2415E-10  0.7632E-06  0.2168E-09  0.5937E-03  0.1152E-04  0.2644E+05
   -0.274992    3.49949  0.2724E-10  0.8913E-06  0.2549E-09  0.7890E-03  0.4346E-05  0.2270E+07
   -0.343742    3.64679  0.2771E-10  0.1007E-05  0.2905E-09  0.9217E-03  0.2240E-05  0.2713E+06
   -0.412491    3.76319  0.2801E-10  0.1116E-05  0.3252E-09  0.1036E-02  0.1684E-05  0.1246E+07
   -0.481242    3.88754  0.2832E-10  0.1232E-05  0.3634E-09  0.1149E-02  0.1414E-05  0.5064E+07
   -0.549993    4.02646  0.2867E-10  0.1354E-05  0.4051E-09  0.1268E-02  0.1242E-05  0.1764E+08
   -0.618744    4.17092  0.2904E-10  0.1456E-05  0.4410E-09  0.1387E-02  0.1135E-05  0.4182E+08
   -0.687496    4.29156  0.2938E-10  0.1471E-05  0.4472E-09  0.1511E-02  0.1066E-05  0.6928E+08
   -0.756248    4.30255  0.2941E-10  0.1474E-05  0.4501E-09  0.1519E-02  0.1021E-05  0.9203E+08
   -0.825000    4.30310  0.2941E-10  0.1476E-05  0.4532E-09  0.1511E-02  0.9792E-06  0.1430E+09
   -0.893753    4.30365  0.2941E-10  0.1478E-05  0.4566E-09  0.1502E-02  0.9375E-06  0.8624E+08
   -0.962506    4.30419  0.2941E-10  0.1479E-05  0.4604E-09  0.1491E-02  0.8964E-06  0.7506E+08
   -1.031259    4.30473  0.2941E-10  0.1481E-05  0.4645E-09  0.1479E-02  0.8553E-06  0.7491E+08
   -1.100012    4.30527  0.2942E-10  0.1481E-05  0.4691E-09  0.1465E-02  0.8147E-06  0.7474E+08
   -1.168766    4.30581  0.2942E-10  0.1482E-05  0.4740E-09  0.1450E-02  0.7740E-06  0.7760E+08
   -1.237519    4.30636  0.2942E-10  0.1482E-05  0.4795E-09  0.1434E-02  0.7337E-06  0.7884E+08
   -1.306273    4.30692  0.2942E-10  0.1482E-05  0.4854E-09  0.1415E-02  0.6931E-06  0.8272E+08
   -1.375026    4.30748  0.2942E-10  0.1481E-05  0.4918E-09  0.1395E-02  0.6528E-06  0.8467E+08
   -1.443780    4.30805  0.2942E-10  0.1480E-05  0.4988E-09  0.1375E-02  0.6121E-06  0.8929E+08
   -1.512533    4.30863  0.2942E-10  0.1479E-05  0.5063E-09  0.1352E-02  0.5714E-06  0.9188E+08
   -1.581287    4.30922  0.2942E-10  0.1477E-05  0.5146E-09  0.1328E-02  0.5303E-06  0.9729E+08
   -1.650040    4.30983  0.2943E-10  0.1475E-05  0.5235E-09  0.1302E-02  0.4890E-06  0.1011E+09
   -1.718793    4.31045  0.2943E-10  0.1472E-05  0.5333E-09  0.1274E-02  0.4469E-06  0.1135E+09
   -1.787547    4.31109  0.2943E-10  0.1469E-05  0.5444E-09  0.1243E-02  0.4047E-06  0.1278E+09
   -1.856299    4.31174  0.2943E-10  0.1465E-05  0.5577E-09  0.1204E-02  0.3653E-06  0.1698E+09
   -1.925052    4.31242  0.2943E-10  0.1461E-05  0.5738E-09  0.1160E-02  0.3292E-06  0.2989E+09
   -1.993804    4.31312  0.2943E-10  0.1455E-05  0.5935E-09  0.1110E-02  0.2960E-06  0.3552E+09
   -2.062556    4.31385  0.2943E-10  0.1448E-05  0.6168E-09  0.1070E-02  0.2653E-06  0.6759E+09
   -2.131308    4.31462  0.2943E-10  0.1441E-05  0.6445E-09  0.9989E-03  0.2370E-06  0.7721E+09
   -2.200059    4.31543  0.2943E-10  0.1432E-05  0.6779E-09  0.9411E-03  0.2085E-06  0.1288E+10
   -2.268810    4.31630  0.2943E-10  0.1423E-05  0.7197E-09  0.8777E-03  0.1808E-06  0.2792E+10
   -2.337561    4.31723  0.2943E-10  0.1411E-05  0.7750E-09  0.8059E-03  0.1545E-06  0.2889E+10
   -2.406311    4.31824  0.2943E-10  0.1396E-05  0.8519E-09  0.7256E-03  0.1301E-06  0.2318E+10
   -2.475060    4.31937  0.2943E-10  0.1378E-05  0.9665E-09  0.6298E-03  0.1071E-06  0.4214E+10
   -2.543809    4.32069  0.2943E-10  0.1352E-05  0.1156E-08  0.5341E-03  0.8585E-07  0.1196E+11
   -2.612558    4.32227  0.2943E-10  0.1304E-05  0.1610E-08  0.3236E-03  0.6642E-07  0.6933E+12
   -2.681305    4.32495  0.2943E-10  0.8630E-06  0.7578E-08  0.1349E-04  0.4319E-07 -0.1160E+14
   -2.750052    4.38914  0.2943E-10  0.0000E+00  0.0000E+00  0.0000E+00  0.4322E-07  0.0000E+00
