 1 - depth, m
 2 - temperature, C
 3 - salinity, kg/kg
 4 - turbulent kinetic energy, m**2/s**2
 5 - dissipation rate, m**2/s**3
 6 - kinematic heat conductance, m**2/s
 7 - modulus of horizontal velocity, m/s
 8 - Richardson number, n/d
   -0.000000    2.60928  0.4916E-11  0.3473E-04  0.3899E-05  0.3359E-04  0.6316E-01  0.1597E-02
   -0.068746    2.65567  0.4916E-11  0.2548E-04  0.9390E-06  0.7730E-04  0.4093E-01  0.6010E-02
   -0.137492    2.67075  0.4916E-11  0.2262E-04  0.4403E-06  0.1165E-03  0.3496E-01  0.9636E-02
   -0.206239    2.68084  0.4916E-11  0.2087E-04  0.2699E-06  0.1528E-03  0.3119E-01  0.1367E-01
   -0.274987    2.68839  0.4916E-11  0.1949E-04  0.1891E-06  0.1849E-03  0.2849E-01  0.1820E-01
   -0.343735    2.69449  0.4916E-11  0.1828E-04  0.1425E-06  0.2121E-03  0.2641E-01  0.2317E-01
   -0.412484    2.69969  0.4916E-11  0.1716E-04  0.1123E-06  0.2343E-03  0.2473E-01  0.2855E-01
   -0.481233    2.70428  0.4916E-11  0.1612E-04  0.9111E-07  0.2519E-03  0.2331E-01  0.3439E-01
   -0.549983    2.70846  0.4916E-11  0.1513E-04  0.7543E-07  0.2651E-03  0.2208E-01  0.4076E-01
   -0.618733    2.71235  0.4916E-11  0.1419E-04  0.6337E-07  0.2745E-03  0.2100E-01  0.4776E-01
   -0.687483    2.71602  0.4916E-11  0.1330E-04  0.5381E-07  0.2804E-03  0.2003E-01  0.5554E-01
   -0.756234    2.71955  0.4916E-11  0.1244E-04  0.4606E-07  0.2833E-03  0.1915E-01  0.6428E-01
   -0.824985    2.72296  0.4916E-11  0.1163E-04  0.3965E-07  0.2836E-03  0.1834E-01  0.7429E-01
   -0.893737    2.72630  0.4916E-11  0.1085E-04  0.3430E-07  0.2818E-03  0.1761E-01  0.8597E-01
   -0.962488    2.72959  0.4916E-11  0.1012E-04  0.2978E-07  0.2784E-03  0.1693E-01  0.1000E+00
   -1.031240    2.73286  0.4916E-11  0.9429E-05  0.2597E-07  0.2743E-03  0.1630E-01  0.1174E+00
   -1.099992    2.73611  0.4916E-11  0.8801E-05  0.2278E-07  0.2703E-03  0.1572E-01  0.1399E+00
   -1.168744    2.73935  0.4916E-11  0.8245E-05  0.2016E-07  0.2675E-03  0.1519E-01  0.1701E+00
   -1.237497    2.74257  0.4917E-11  0.7778E-05  0.1812E-07  0.2669E-03  0.1471E-01  0.2124E+00
   -1.306249    2.74576  0.4917E-11  0.7419E-05  0.1665E-07  0.2695E-03  0.1427E-01  0.2746E+00
   -1.375001    2.74890  0.4917E-11  0.7186E-05  0.1576E-07  0.2760E-03  0.1389E-01  0.3752E+00
   -1.443754    2.75202  0.4917E-11  0.7094E-05  0.1550E-07  0.2876E-03  0.1356E-01  0.6444E+00
   -1.512506    2.75516  0.4917E-11  0.7249E-05  0.1634E-07  0.2271E-03  0.1328E-01  0.4859E+00
   -1.581258    2.77195  0.4917E-11  0.6930E-05  0.1538E-07  0.2602E-03  0.9922E-02  0.1111E+01
   -1.650010    2.78327  0.4917E-11  0.6731E-05  0.1499E-07  0.2036E-03  0.8094E-02  0.1590E+01
   -1.718762    2.80901  0.4917E-11  0.6204E-05  0.1362E-07  0.1890E-03  0.4269E-02  0.1010E+01
   -1.787514    2.82661  0.4917E-11  0.5305E-05  0.1095E-07  0.2367E-03  0.9036E-03  0.1519E+02
   -1.856266    2.83033  0.4917E-11  0.4667E-05  0.9191E-08  0.2065E-03  0.7250E-03  0.2954E+01
   -1.925017    2.83418  0.4917E-11  0.4077E-05  0.7687E-08  0.1777E-03  0.5818E-03  0.4771E+01
   -1.993768    2.83840  0.4917E-11  0.3521E-05  0.6368E-08  0.1476E-03  0.4679E-03  0.8222E+01
   -2.062519    2.84333  0.4917E-11  0.3012E-05  0.5244E-08  0.1172E-03  0.3754E-03  0.1253E+02
   -2.131269    2.84960  0.4917E-11  0.2541E-05  0.4279E-08  0.8785E-04  0.2923E-03  0.2124E+02
   -2.200020    2.85930  0.4917E-11  0.2086E-05  0.3404E-08  0.6105E-04  0.2164E-03  0.3867E+02
   -2.268769    2.90186  0.4917E-11  0.1670E-05  0.2636E-08  0.3929E-04  0.1393E-03  0.1902E+03
   -2.337518    2.92888  0.4917E-11  0.1285E-05  0.1976E-08  0.2072E-04  0.8341E-04  0.4443E+04
   -2.406267    2.99045  0.4917E-11  0.8951E-06  0.1362E-08  0.6446E-05  0.4345E-04  0.1602E+07
   -2.475015    3.22371  0.4917E-11  0.4484E-06  0.7001E-09  0.4626E-05  0.1516E-04 -0.6412E+07
   -2.543763    3.76790  0.4917E-11  0.2194E-06  0.3693E-09  0.1504E-04  0.2918E-05 -0.9563E+09
   -2.612510    4.01176  0.4917E-11  0.1691E-06  0.3310E-09  0.1874E-04  0.1260E-05 -0.2193E+11
   -2.681257    4.05995  0.4917E-11  0.1028E-06  0.6256E-09  0.4531E-05  0.6335E-06 -0.6672E+14
   -2.750002    4.16043  0.4917E-11  0.0000E+00  0.0000E+00  0.0000E+00  0.6690E-06  0.0000E+00
