 1 - depth, m
 2 - temperature, C
 3 - salinity, kg/kg
 4 - turbulent kinetic energy, m**2/s**2
 5 - dissipation rate, m**2/s**3
 6 - kinematic heat conductance, m**2/s
 7 - modulus of horizontal velocity, m/s
 8 - Richardson number, n/d
   -0.000000   -0.00000  0.4810E-12  0.1219E-13  0.7603E-17  0.1000E-09  0.0000E+00  0.6562E+16
   -0.068746    0.09978  0.3734E-11  0.1219E-13  0.7603E-17  0.1000E-09  0.0000E+00  0.6506E+16
   -0.137493    0.20147  0.6842E-11  0.1219E-13  0.7603E-17  0.1000E-09  0.0000E+00  0.6431E+16
   -0.206240    0.30494  0.8529E-11  0.1219E-13  0.7603E-17  0.1000E-09  0.0000E+00  0.6338E+16
   -0.274988    0.41003  0.8918E-11  0.1219E-13  0.7603E-17  0.1000E-09  0.0000E+00  0.6228E+16
   -0.343736    0.51658  0.8586E-11  0.1219E-13  0.7603E-17  0.1000E-09  0.0000E+00  0.6102E+16
   -0.412485    0.62444  0.8020E-11  0.1219E-13  0.7603E-17  0.1000E-09  0.0000E+00  0.5962E+16
   -0.481234    0.73349  0.7496E-11  0.1219E-13  0.7603E-17  0.1000E-09  0.0000E+00  0.5809E+16
   -0.549984    0.84358  0.7114E-11  0.1219E-13  0.7603E-17  0.1000E-09  0.0000E+00  0.5645E+16
   -0.618734    0.95460  0.6876E-11  0.1219E-13  0.7603E-17  0.1000E-09  0.0000E+00  0.5471E+16
   -0.687485    1.06643  0.6744E-11  0.1219E-13  0.7603E-17  0.1000E-09  0.0000E+00  0.5287E+16
   -0.756236    1.17896  0.6677E-11  0.1219E-13  0.7603E-17  0.1000E-09  0.0000E+00  0.5096E+16
   -0.824987    1.29208  0.6645E-11  0.1219E-13  0.7603E-17  0.1000E-09  0.0000E+00  0.4899E+16
   -0.893739    1.40571  0.6630E-11  0.1219E-13  0.7603E-17  0.1000E-09  0.0000E+00  0.4695E+16
   -0.962491    1.51974  0.6621E-11  0.1219E-13  0.7603E-17  0.1000E-09  0.0000E+00  0.4487E+16
   -1.031243    1.63408  0.6614E-11  0.1219E-13  0.7603E-17  0.1000E-09  0.0000E+00  0.4274E+16
   -1.099995    1.74867  0.6606E-11  0.1219E-13  0.7603E-17  0.1000E-09  0.0000E+00  0.4059E+16
   -1.168747    1.86342  0.6595E-11  0.1219E-13  0.7603E-17  0.1000E-09  0.0000E+00  0.3841E+16
   -1.237499    1.97827  0.6581E-11  0.1219E-13  0.7603E-17  0.1000E-09  0.0000E+00  0.3623E+16
   -1.306252    2.09317  0.6564E-11  0.1219E-13  0.7603E-17  0.1000E-09  0.0000E+00  0.3403E+16
   -1.375004    2.20808  0.6546E-11  0.1219E-13  0.7603E-17  0.1000E-09  0.0000E+00  0.3184E+16
   -1.443757    2.32299  0.6526E-11  0.1219E-13  0.7603E-17  0.1000E-09  0.0000E+00  0.2965E+16
   -1.512509    2.43789  0.6508E-11  0.1219E-13  0.7603E-17  0.1000E-09  0.0000E+00  0.2748E+16
   -1.581262    2.55276  0.6491E-11  0.1219E-13  0.7603E-17  0.1000E-09  0.0000E+00  0.2531E+16
   -1.650014    2.66761  0.6476E-11  0.1219E-13  0.7603E-17  0.1000E-09  0.0000E+00  0.2315E+16
   -1.718766    2.78244  0.6464E-11  0.1219E-13  0.7603E-17  0.1000E-09  0.0000E+00  0.2099E+16
   -1.787518    2.89721  0.6455E-11  0.1219E-13  0.7603E-17  0.1000E-09  0.0000E+00  0.1860E+16
   -1.856270    3.01036  0.6447E-11  0.1219E-13  0.7603E-17  0.1000E-09  0.0000E+00  0.1626E+16
   -1.925022    3.12152  0.6441E-11  0.3606E-13  0.1086E-16  0.1000E-09  0.0000E+00  0.1398E+16
   -1.993773    3.23021  0.6436E-11  0.1351E-12  0.3493E-16  0.1000E-09  0.0000E+00  0.1182E+16
   -2.062524    3.33635  0.6432E-11  0.4685E-12  0.1158E-15  0.1000E-09  0.0000E+00  0.9987E+15
   -2.131274    3.44211  0.6428E-11  0.1582E-11  0.3778E-15  0.1000E-09  0.0000E+00  0.8190E+15
   -2.200025    3.54768  0.6426E-11  0.5262E-11  0.1215E-14  0.1000E-09  0.0000E+00  0.6405E+15
   -2.268775    3.65296  0.6424E-11  0.1743E-10  0.3896E-14  0.1000E-09  0.0000E+00  0.4632E+15
   -2.337524    3.75775  0.6423E-11  0.5812E-10  0.1258E-13  0.2205E-09  0.0000E+00  0.2883E+15
   -2.406273    3.86167  0.6423E-11  0.1936E-09  0.4066E-13  0.1729E-08  0.0000E+00  0.1177E+15
   -2.475021    3.96334  0.6423E-11  0.6175E-09  0.1268E-12  0.2011E-06  0.0000E+00  0.1448E+13
   -2.543769    4.00488  0.6423E-11  0.1421E-08  0.3302E-12  0.2686E-05  0.0000E+00 -0.1644E+13
   -2.612516    4.00987  0.6423E-11  0.1666E-08  0.5129E-12  0.2006E-05  0.0000E+00 -0.2688E+13
   -2.681263    4.01629  0.6423E-11  0.1359E-08  0.1069E-11  0.4347E-06  0.0000E+00 -0.1365E+14
   -2.750009    4.03771  0.6423E-11  0.0000E+00  0.0000E+00  0.0000E+00  0.0000E+00  0.0000E+00
