 1 - depth, m
 2 - temperature, C
 3 - salinity, kg/kg
 4 - turbulent kinetic energy, m**2/s**2
 5 - dissipation rate, m**2/s**3
 6 - kinematic heat conductance, m**2/s
 7 - modulus of horizontal velocity, m/s
 8 - Richardson number, n/d
   -0.000000   -0.00000  0.1083E-10  0.1219E-13  0.7603E-17  0.1000E-09  0.0000E+00  0.7241E+16
   -0.068746    0.11025  0.6313E-11  0.1219E-13  0.7603E-17  0.1000E-09  0.0000E+00  0.6963E+16
   -0.137492    0.21952  0.4578E-11  0.1219E-13  0.7603E-17  0.1000E-09  0.0000E+00  0.6709E+16
   -0.206239    0.32810  0.4012E-11  0.1219E-13  0.7603E-17  0.1000E-09  0.0000E+00  0.6480E+16
   -0.274987    0.43632  0.3856E-11  0.1219E-13  0.7603E-17  0.1000E-09  0.0000E+00  0.6273E+16
   -0.343735    0.54452  0.3818E-11  0.1219E-13  0.7603E-17  0.1000E-09  0.0000E+00  0.6084E+16
   -0.412483    0.65303  0.3810E-11  0.1219E-13  0.7603E-17  0.1000E-09  0.0000E+00  0.5913E+16
   -0.481232    0.76217  0.3808E-11  0.1219E-13  0.7603E-17  0.1000E-09  0.0000E+00  0.5754E+16
   -0.549982    0.87226  0.3808E-11  0.1219E-13  0.7603E-17  0.1000E-09  0.0000E+00  0.5605E+16
   -0.618732    0.98359  0.3808E-11  0.1219E-13  0.7603E-17  0.1000E-09  0.0000E+00  0.5463E+16
   -0.687482    1.09643  0.3808E-11  0.1219E-13  0.7603E-17  0.1000E-09  0.0000E+00  0.5335E+16
   -0.756233    1.21129  0.3808E-11  0.1219E-13  0.7603E-17  0.1000E-09  0.0000E+00  0.5213E+16
   -0.824984    1.32852  0.3808E-11  0.1219E-13  0.7603E-17  0.1000E-09  0.0000E+00  0.5085E+16
   -0.893735    1.44834  0.3808E-11  0.1219E-13  0.7603E-17  0.1000E-09  0.0000E+00  0.4949E+16
   -0.962487    1.57090  0.3807E-11  0.1219E-13  0.7603E-17  0.1000E-09  0.0000E+00  0.4802E+16
   -1.031238    1.69636  0.3805E-11  0.4201E-13  0.8021E-17  0.1000E-09  0.0000E+00  0.4642E+16
   -1.099990    1.82482  0.3801E-11  0.1181E-12  0.1361E-16  0.1000E-09  0.0000E+00  0.4466E+16
   -1.168742    1.95636  0.3793E-11  0.2749E-12  0.2799E-16  0.1000E-09  0.0000E+00  0.4272E+16
   -1.237495    2.09101  0.3780E-11  0.5973E-12  0.5819E-16  0.1000E-09  0.0000E+00  0.4059E+16
   -1.306247    2.22879  0.3764E-11  0.1263E-11  0.1196E-15  0.1000E-09  0.0000E+00  0.3824E+16
   -1.374999    2.36964  0.3746E-11  0.2631E-11  0.2435E-15  0.1000E-09  0.0000E+00  0.3573E+16
   -1.443751    2.51368  0.3731E-11  0.5431E-11  0.4915E-15  0.1000E-09  0.0000E+00  0.3298E+16
   -1.512503    2.66085  0.3720E-11  0.1112E-10  0.9858E-15  0.1000E-09  0.0000E+00  0.3000E+16
   -1.581256    2.81097  0.3713E-11  0.2261E-10  0.1967E-14  0.1000E-09  0.0000E+00  0.2679E+16
   -1.650008    2.96388  0.3709E-11  0.4574E-10  0.3907E-14  0.1000E-09  0.0000E+00  0.2338E+16
   -1.718759    3.11956  0.3707E-11  0.9211E-10  0.7742E-14  0.1000E-09  0.0000E+00  0.1983E+16
   -1.787511    3.27833  0.3705E-11  0.1890E-09  0.1565E-13  0.1000E-09  0.0000E+00  0.1634E+16
   -1.856263    3.44349  0.3703E-11  0.3944E-09  0.3224E-13  0.1333E-09  0.0000E+00  0.1239E+16
   -1.925014    3.61533  0.3699E-11  0.8292E-09  0.6703E-13  0.4369E-09  0.0000E+00  0.7821E+15
   -1.993765    3.79097  0.3694E-11  0.1755E-08  0.1405E-12  0.2466E-08  0.0000E+00  0.2881E+15
   -2.062516    3.95820  0.3692E-11  0.3046E-08  0.2493E-12  0.2700E-05  0.0000E+00  0.1061E+14
   -2.131266    3.99695  0.3692E-11  0.3662E-08  0.3068E-12  0.1612E-04  0.0000E+00 -0.1888E+12
   -2.200016    3.99839  0.3692E-11  0.4008E-08  0.3477E-12  0.1789E-04  0.0000E+00 -0.2099E+12
   -2.268765    3.99968  0.3692E-11  0.4301E-08  0.3929E-12  0.1857E-04  0.0000E+00 -0.2369E+12
   -2.337515    4.00093  0.3692E-11  0.4549E-08  0.4472E-12  0.1823E-04  0.0000E+00 -0.2763E+12
   -2.406263    4.00222  0.3692E-11  0.4746E-08  0.5172E-12  0.1687E-04  0.0000E+00 -0.3391E+12
   -2.475011    4.00364  0.3692E-11  0.4877E-08  0.6176E-12  0.1437E-04  0.0000E+00 -0.4528E+12
   -2.543759    4.00534  0.3692E-11  0.4904E-08  0.7870E-12  0.1063E-04  0.0000E+00 -0.7071E+12
   -2.612506    4.00769  0.3692E-11  0.4708E-08  0.1180E-11  0.5699E-05  0.0000E+00 -0.1608E+13
   -2.681252    4.01219  0.3692E-11  0.3618E-08  0.3215E-11  0.9283E-06  0.0000E+00 -0.1583E+14
   -2.749998    4.03832  0.3692E-11  0.0000E+00  0.0000E+00  0.0000E+00  0.0000E+00  0.0000E+00
