 1 - depth, m
 2 - temperature, C
 3 - salinity, kg/kg
 4 - turbulent kinetic energy, m**2/s**2
 5 - dissipation rate, m**2/s**3
 6 - kinematic heat conductance, m**2/s
 7 - modulus of horizontal velocity, m/s
 8 - Richardson number, n/d
   -0.000000   -0.00000  0.1724E-11  0.1219E-13  0.7603E-17  0.1000E-09  0.0000E+00  0.7472E+16
   -0.068746    0.11383  0.3612E-11  0.1219E-13  0.7603E-17  0.1000E-09  0.0000E+00  0.7360E+16
   -0.137493    0.22954  0.4151E-11  0.1219E-13  0.7603E-17  0.1000E-09  0.0000E+00  0.7218E+16
   -0.206240    0.34684  0.4090E-11  0.1219E-13  0.7603E-17  0.1000E-09  0.0000E+00  0.7051E+16
   -0.274988    0.46543  0.3795E-11  0.1219E-13  0.7603E-17  0.1000E-09  0.0000E+00  0.6862E+16
   -0.343736    0.58506  0.3471E-11  0.1219E-13  0.7603E-17  0.1000E-09  0.0000E+00  0.6655E+16
   -0.412485    0.70549  0.3218E-11  0.1219E-13  0.7603E-17  0.1000E-09  0.0000E+00  0.6434E+16
   -0.481234    0.82653  0.3058E-11  0.1219E-13  0.7603E-17  0.1000E-09  0.0000E+00  0.6201E+16
   -0.549984    0.94799  0.2969E-11  0.1219E-13  0.7603E-17  0.1000E-09  0.0000E+00  0.5958E+16
   -0.618734    1.06971  0.2926E-11  0.1219E-13  0.7603E-17  0.1000E-09  0.0000E+00  0.5708E+16
   -0.687485    1.19155  0.2906E-11  0.1219E-13  0.7603E-17  0.1000E-09  0.0000E+00  0.5454E+16
   -0.756236    1.31340  0.2898E-11  0.1219E-13  0.7603E-17  0.1000E-09  0.0000E+00  0.5198E+16
   -0.824987    1.43518  0.2894E-11  0.1219E-13  0.7603E-17  0.1000E-09  0.0000E+00  0.4939E+16
   -0.893739    1.55679  0.2891E-11  0.1219E-13  0.7603E-17  0.1000E-09  0.0000E+00  0.4679E+16
   -0.962490    1.67816  0.2888E-11  0.1219E-13  0.7603E-17  0.1000E-09  0.0000E+00  0.4419E+16
   -1.031242    1.79920  0.2884E-11  0.1219E-13  0.7603E-17  0.1000E-09  0.0000E+00  0.4160E+16
   -1.099994    1.91986  0.2879E-11  0.1219E-13  0.7603E-17  0.1000E-09  0.0000E+00  0.3902E+16
   -1.168747    2.04008  0.2873E-11  0.1219E-13  0.7603E-17  0.1000E-09  0.0000E+00  0.3647E+16
   -1.237499    2.15981  0.2865E-11  0.1219E-13  0.7603E-17  0.1000E-09  0.0000E+00  0.3394E+16
   -1.306252    2.27901  0.2856E-11  0.1219E-13  0.7603E-17  0.1000E-09  0.0000E+00  0.3145E+16
   -1.375004    2.39767  0.2847E-11  0.1219E-13  0.7603E-17  0.1000E-09  0.0000E+00  0.2900E+16
   -1.443757    2.51577  0.2838E-11  0.1219E-13  0.7603E-17  0.1000E-09  0.0000E+00  0.2659E+16
   -1.512509    2.63331  0.2831E-11  0.1219E-13  0.7603E-17  0.1000E-09  0.0000E+00  0.2422E+16
   -1.581261    2.75030  0.2824E-11  0.1219E-13  0.7603E-17  0.1000E-09  0.0000E+00  0.2189E+16
   -1.650014    2.86674  0.2819E-11  0.5387E-13  0.1156E-16  0.1000E-09  0.0000E+00  0.1960E+16
   -1.718766    2.98264  0.2815E-11  0.1688E-12  0.3022E-16  0.1000E-09  0.0000E+00  0.1735E+16
   -1.787518    3.09798  0.2812E-11  0.4886E-12  0.8312E-16  0.1000E-09  0.0000E+00  0.1498E+16
   -1.856270    3.21143  0.2809E-11  0.1390E-11  0.2286E-15  0.1000E-09  0.0000E+00  0.1267E+16
   -1.925021    3.32263  0.2807E-11  0.3909E-11  0.6238E-15  0.1000E-09  0.0000E+00  0.1045E+16
   -1.993772    3.43101  0.2806E-11  0.1091E-10  0.1690E-14  0.1000E-09  0.0000E+00  0.8364E+15
   -2.062523    3.53641  0.2805E-11  0.2952E-10  0.4440E-14  0.1000E-09  0.0000E+00  0.6549E+15
   -2.131274    3.64087  0.2804E-11  0.7872E-10  0.1150E-13  0.1220E-09  0.0000E+00  0.4789E+15
   -2.200024    3.74451  0.2803E-11  0.2078E-09  0.2952E-13  0.4882E-09  0.0000E+00  0.3069E+15
   -2.268774    3.84699  0.2803E-11  0.5473E-09  0.7561E-13  0.2731E-08  0.0000E+00  0.1401E+15
   -2.337523    3.94694  0.2803E-11  0.1393E-08  0.1883E-12  0.9804E-07  0.0000E+00  0.9041E+13
   -2.406272    4.00627  0.2803E-11  0.2322E-08  0.3194E-12  0.7781E-05  0.0000E+00 -0.5866E+12
   -2.475021    4.00807  0.2803E-11  0.2668E-08  0.3948E-12  0.7559E-05  0.0000E+00 -0.6551E+12
   -2.543768    4.00991  0.2803E-11  0.2833E-08  0.4906E-12  0.6218E-05  0.0000E+00 -0.8608E+12
   -2.612516    4.01213  0.2803E-11  0.2754E-08  0.6788E-12  0.3624E-05  0.0000E+00 -0.1609E+13
   -2.681262    4.01585  0.2803E-11  0.1999E-08  0.1551E-11  0.5643E-06  0.0000E+00 -0.1151E+14
   -2.750008    4.03470  0.2803E-11  0.0000E+00  0.0000E+00  0.0000E+00  0.0000E+00  0.0000E+00
