 1 - depth, m
 2 - temperature, C
 3 - salinity, kg/kg
 4 - turbulent kinetic energy, m**2/s**2
 5 - dissipation rate, m**2/s**3
 6 - kinematic heat conductance, m**2/s
 7 - modulus of horizontal velocity, m/s
 8 - Richardson number, n/d
   -0.000000   -0.00000  0.4330E-10  0.1219E-13  0.7603E-17  0.1000E-09  0.0000E+00  0.7403E+16
   -0.068746    0.11275  0.2553E-10  0.1219E-13  0.7603E-17  0.1000E-09  0.0000E+00  0.7115E+16
   -0.137492    0.22452  0.1841E-10  0.1219E-13  0.7603E-17  0.1000E-09  0.0000E+00  0.6849E+16
   -0.206239    0.33556  0.1599E-10  0.1219E-13  0.7603E-17  0.1000E-09  0.0000E+00  0.6605E+16
   -0.274987    0.44614  0.1528E-10  0.1219E-13  0.7603E-17  0.1000E-09  0.0000E+00  0.6379E+16
   -0.343735    0.55654  0.1510E-10  0.1219E-13  0.7603E-17  0.1000E-09  0.0000E+00  0.6170E+16
   -0.412483    0.66701  0.1505E-10  0.1219E-13  0.7603E-17  0.1000E-09  0.0000E+00  0.5974E+16
   -0.481232    0.77782  0.1505E-10  0.1219E-13  0.7603E-17  0.1000E-09  0.0000E+00  0.5790E+16
   -0.549982    0.88920  0.1504E-10  0.1219E-13  0.7603E-17  0.1000E-09  0.0000E+00  0.5614E+16
   -0.618732    1.00137  0.1504E-10  0.1219E-13  0.7603E-17  0.1000E-09  0.0000E+00  0.5443E+16
   -0.687482    1.11453  0.1504E-10  0.1219E-13  0.7603E-17  0.1000E-09  0.0000E+00  0.5286E+16
   -0.756233    1.22910  0.1504E-10  0.1219E-13  0.7603E-17  0.1000E-09  0.0000E+00  0.5135E+16
   -0.824984    1.34536  0.1504E-10  0.1219E-13  0.7603E-17  0.1000E-09  0.0000E+00  0.4980E+16
   -0.893735    1.46347  0.1504E-10  0.1219E-13  0.7603E-17  0.1000E-09  0.0000E+00  0.4819E+16
   -0.962487    1.58352  0.1504E-10  0.1219E-13  0.7603E-17  0.1000E-09  0.0000E+00  0.4650E+16
   -1.031238    1.70559  0.1503E-10  0.1219E-13  0.7603E-17  0.1000E-09  0.0000E+00  0.4472E+16
   -1.099990    1.82975  0.1502E-10  0.1219E-13  0.7603E-17  0.1000E-09  0.0000E+00  0.4282E+16
   -1.168742    1.95599  0.1499E-10  0.1219E-13  0.7603E-17  0.1000E-09  0.0000E+00  0.4079E+16
   -1.237494    2.08431  0.1494E-10  0.4072E-13  0.8189E-17  0.1000E-09  0.0000E+00  0.3863E+16
   -1.306247    2.21467  0.1488E-10  0.1211E-12  0.1856E-16  0.1000E-09  0.0000E+00  0.3632E+16
   -1.374999    2.34697  0.1481E-10  0.3189E-12  0.4570E-16  0.1000E-09  0.0000E+00  0.3391E+16
   -1.443751    2.48126  0.1475E-10  0.8058E-12  0.1115E-15  0.1000E-09  0.0000E+00  0.3136E+16
   -1.512503    2.61743  0.1471E-10  0.1998E-11  0.2683E-15  0.1000E-09  0.0000E+00  0.2866E+16
   -1.581255    2.75531  0.1468E-10  0.4887E-11  0.6379E-15  0.1000E-09  0.0000E+00  0.2582E+16
   -1.650007    2.89466  0.1467E-10  0.1181E-10  0.1499E-14  0.1000E-09  0.0000E+00  0.2286E+16
   -1.718759    3.03524  0.1466E-10  0.2821E-10  0.3482E-14  0.1000E-09  0.0000E+00  0.1980E+16
   -1.787511    3.17685  0.1465E-10  0.6832E-10  0.8201E-14  0.1000E-09  0.0000E+00  0.1685E+16
   -1.856263    3.32100  0.1464E-10  0.1664E-09  0.1944E-13  0.1000E-09  0.0000E+00  0.1374E+16
   -1.925014    3.46778  0.1463E-10  0.4040E-09  0.4594E-13  0.2233E-09  0.0000E+00  0.1046E+16
   -1.993765    3.61724  0.1461E-10  0.9764E-09  0.1081E-12  0.7873E-09  0.0000E+00  0.6985E+15
   -2.062515    3.76847  0.1459E-10  0.2292E-08  0.2474E-12  0.3765E-08  0.0000E+00  0.3340E+15
   -2.131266    3.91616  0.1459E-10  0.5098E-08  0.5390E-12  0.8084E-07  0.0000E+00  0.3345E+14
   -2.200016    4.01185  0.1459E-10  0.6172E-08  0.6579E-12  0.2494E-04  0.0000E+00 -0.3437E+12
   -2.268765    4.01270  0.1459E-10  0.6595E-08  0.7195E-12  0.2505E-04  0.0000E+00 -0.3546E+12
   -2.337514    4.01354  0.1459E-10  0.6909E-08  0.7880E-12  0.2416E-04  0.0000E+00 -0.3814E+12
   -2.406263    4.01442  0.1459E-10  0.7119E-08  0.8731E-12  0.2216E-04  0.0000E+00 -0.4328E+12
   -2.475011    4.01539  0.1459E-10  0.7212E-08  0.9945E-12  0.1888E-04  0.0000E+00 -0.5326E+12
   -2.543759    4.01653  0.1459E-10  0.7144E-08  0.1202E-11  0.1409E-04  0.0000E+00 -0.7591E+12
   -2.612506    4.01810  0.1459E-10  0.6757E-08  0.1695E-11  0.7704E-05  0.0000E+00 -0.1538E+13
   -2.681252    4.02105  0.1459E-10  0.4981E-08  0.4510E-11  0.1140E-05  0.0000E+00 -0.1460E+14
   -2.749998    4.04173  0.1459E-10  0.0000E+00  0.0000E+00  0.0000E+00  0.0000E+00  0.0000E+00
