 1 - depth, m
 2 - temperature, C
 3 - salinity, kg/kg
 4 - turbulent kinetic energy, m**2/s**2
 5 - dissipation rate, m**2/s**3
 6 - kinematic heat conductance, m**2/s
 7 - modulus of horizontal velocity, m/s
 8 - Richardson number, n/d
   -0.000000   -0.00000  0.1446E-10  0.1219E-13  0.7603E-17  0.1000E-09  0.0000E+00  0.8019E+16
   -0.068746    0.12230  0.8763E-11  0.1219E-13  0.7603E-17  0.1000E-09  0.0000E+00  0.7699E+16
   -0.137492    0.24373  0.6287E-11  0.1219E-13  0.7603E-17  0.1000E-09  0.0000E+00  0.7400E+16
   -0.206239    0.36453  0.5402E-11  0.1219E-13  0.7603E-17  0.1000E-09  0.0000E+00  0.7120E+16
   -0.274987    0.48494  0.5132E-11  0.1219E-13  0.7603E-17  0.1000E-09  0.0000E+00  0.6858E+16
   -0.343735    0.60522  0.5059E-11  0.1219E-13  0.7603E-17  0.1000E-09  0.0000E+00  0.6610E+16
   -0.412483    0.72560  0.5042E-11  0.1219E-13  0.7603E-17  0.1000E-09  0.0000E+00  0.6375E+16
   -0.481232    0.84632  0.5039E-11  0.1219E-13  0.7603E-17  0.1000E-09  0.0000E+00  0.6150E+16
   -0.549982    0.96760  0.5038E-11  0.1219E-13  0.7603E-17  0.1000E-09  0.0000E+00  0.5933E+16
   -0.618732    1.08965  0.5038E-11  0.1219E-13  0.7603E-17  0.1000E-09  0.0000E+00  0.5720E+16
   -0.687482    1.21267  0.5038E-11  0.1219E-13  0.7603E-17  0.1000E-09  0.0000E+00  0.5520E+16
   -0.756233    1.33706  0.5038E-11  0.1219E-13  0.7603E-17  0.1000E-09  0.0000E+00  0.5325E+16
   -0.824984    1.46312  0.5037E-11  0.1219E-13  0.7603E-17  0.1000E-09  0.0000E+00  0.5125E+16
   -0.893735    1.59098  0.5037E-11  0.1219E-13  0.7603E-17  0.1000E-09  0.0000E+00  0.4918E+16
   -0.962487    1.72073  0.5035E-11  0.1658E-13  0.7603E-17  0.1000E-09  0.0000E+00  0.4703E+16
   -1.031239    1.85246  0.5031E-11  0.6909E-13  0.1098E-16  0.1000E-09  0.0000E+00  0.4477E+16
   -1.099990    1.98621  0.5023E-11  0.1912E-12  0.2469E-16  0.1000E-09  0.0000E+00  0.4239E+16
   -1.168742    2.12200  0.5010E-11  0.4696E-12  0.5725E-16  0.1000E-09  0.0000E+00  0.3989E+16
   -1.237495    2.25982  0.4991E-11  0.1110E-11  0.1310E-15  0.1000E-09  0.0000E+00  0.3725E+16
   -1.306247    2.39960  0.4968E-11  0.2580E-11  0.2961E-15  0.1000E-09  0.0000E+00  0.3447E+16
   -1.374999    2.54129  0.4946E-11  0.5924E-11  0.6617E-15  0.1000E-09  0.0000E+00  0.3158E+16
   -1.443751    2.68491  0.4928E-11  0.1346E-10  0.1464E-14  0.1000E-09  0.0000E+00  0.2855E+16
   -1.512503    2.83035  0.4915E-11  0.3025E-10  0.3206E-14  0.1000E-09  0.0000E+00  0.2538E+16
   -1.581256    2.97746  0.4907E-11  0.6734E-10  0.6956E-14  0.1000E-09  0.0000E+00  0.2208E+16
   -1.650008    3.12603  0.4901E-11  0.1484E-09  0.1495E-13  0.1000E-09  0.0000E+00  0.1866E+16
   -1.718760    3.27581  0.4898E-11  0.3241E-09  0.3182E-13  0.1068E-09  0.0000E+00  0.1516E+16
   -1.787511    3.42666  0.4894E-11  0.7176E-09  0.6870E-13  0.2980E-09  0.0000E+00  0.1173E+16
   -1.856263    3.58063  0.4890E-11  0.1602E-08  0.1496E-12  0.9413E-09  0.0000E+00  0.8084E+15
   -1.925014    3.73750  0.4885E-11  0.3563E-08  0.3248E-12  0.3925E-08  0.0000E+00  0.4209E+15
   -1.993765    3.89505  0.4882E-11  0.7676E-08  0.6856E-12  0.5789E-07  0.0000E+00  0.5995E+14
   -2.062516    4.01241  0.4882E-11  0.8608E-08  0.7731E-12  0.3991E-04  0.0000E+00 -0.2408E+12
   -2.131266    4.01299  0.4882E-11  0.8993E-08  0.8187E-12  0.4013E-04  0.0000E+00 -0.2449E+12
   -2.200016    4.01357  0.4882E-11  0.9293E-08  0.8669E-12  0.3948E-04  0.0000E+00 -0.2545E+12
   -2.268766    4.01416  0.4882E-11  0.9513E-08  0.9212E-12  0.3793E-04  0.0000E+00 -0.2711E+12
   -2.337515    4.01478  0.4882E-11  0.9659E-08  0.9887E-12  0.3530E-04  0.0000E+00 -0.2987E+12
   -2.406263    4.01544  0.4882E-11  0.9721E-08  0.1080E-11  0.3141E-04  0.0000E+00 -0.3449E+12
   -2.475011    4.01619  0.4882E-11  0.9676E-08  0.1218E-11  0.2604E-04  0.0000E+00 -0.4300E+12
   -2.543759    4.01709  0.4882E-11  0.9463E-08  0.1465E-11  0.1895E-04  0.0000E+00 -0.6170E+12
   -2.612506    4.01835  0.4882E-11  0.8885E-08  0.2064E-11  0.1011E-04  0.0000E+00 -0.1242E+13
   -2.681252    4.02073  0.4882E-11  0.6406E-08  0.5771E-11  0.1323E-05  0.0000E+00 -0.1225E+14
   -2.749998    4.03874  0.4882E-11  0.0000E+00  0.0000E+00  0.0000E+00  0.0000E+00  0.0000E+00
