 1 - depth, m
 2 - temperature, C
 3 - salinity, kg/kg
 4 - turbulent kinetic energy, m**2/s**2
 5 - dissipation rate, m**2/s**3
 6 - kinematic heat conductance, m**2/s
 7 - modulus of horizontal velocity, m/s
 8 - Richardson number, n/d
   -0.000000   -0.00000  0.1459E-09  0.1219E-13  0.7603E-17  0.1000E-09  0.0000E+00  0.4795E+16
   -0.068746    0.07263  0.8083E-10  0.1219E-13  0.7603E-17  0.1000E-09  0.0000E+00  0.4624E+16
   -0.137492    0.14407  0.6191E-10  0.1219E-13  0.7603E-17  0.1000E-09  0.0000E+00  0.4483E+16
   -0.206239    0.21470  0.5740E-10  0.1219E-13  0.7603E-17  0.1000E-09  0.0000E+00  0.4371E+16
   -0.274987    0.28495  0.5645E-10  0.1219E-13  0.7603E-17  0.1000E-09  0.0000E+00  0.4285E+16
   -0.343735    0.35523  0.5628E-10  0.1219E-13  0.7603E-17  0.1000E-09  0.0000E+00  0.4224E+16
   -0.412483    0.42595  0.5624E-10  0.1219E-13  0.7603E-17  0.1000E-09  0.0000E+00  0.4185E+16
   -0.481232    0.49751  0.5624E-10  0.1219E-13  0.7603E-17  0.1000E-09  0.0000E+00  0.4165E+16
   -0.549982    0.57032  0.5624E-10  0.1219E-13  0.7603E-17  0.1000E-09  0.0000E+00  0.4163E+16
   -0.618732    0.64476  0.5624E-10  0.1219E-13  0.7603E-17  0.1000E-09  0.0000E+00  0.4175E+16
   -0.687482    0.72122  0.5624E-10  0.1219E-13  0.7603E-17  0.1000E-09  0.0000E+00  0.4212E+16
   -0.756233    0.80032  0.5624E-10  0.1219E-13  0.7603E-17  0.1000E-09  0.0000E+00  0.4263E+16
   -0.824984    0.88254  0.5624E-10  0.1219E-13  0.7603E-17  0.1000E-09  0.0000E+00  0.4317E+16
   -0.893735    0.96821  0.5624E-10  0.1219E-13  0.7603E-17  0.1000E-09  0.0000E+00  0.4368E+16
   -0.962486    1.05758  0.5624E-10  0.1219E-13  0.7603E-17  0.1000E-09  0.0000E+00  0.4414E+16
   -1.031238    1.15088  0.5624E-10  0.1219E-13  0.7603E-17  0.1000E-09  0.0000E+00  0.4450E+16
   -1.099990    1.24832  0.5623E-10  0.1219E-13  0.7603E-17  0.1000E-09  0.0000E+00  0.4471E+16
   -1.168742    1.35003  0.5621E-10  0.1219E-13  0.7603E-17  0.1000E-09  0.0000E+00  0.4475E+16
   -1.237494    1.45609  0.5616E-10  0.1219E-13  0.7603E-17  0.1000E-09  0.0000E+00  0.4457E+16
   -1.306246    1.56654  0.5605E-10  0.1219E-13  0.7603E-17  0.1000E-09  0.0000E+00  0.4413E+16
   -1.374999    1.68135  0.5586E-10  0.1219E-13  0.7603E-17  0.1000E-09  0.0000E+00  0.4353E+16
   -1.443751    1.80073  0.5561E-10  0.1219E-13  0.7603E-17  0.1000E-09  0.0000E+00  0.4265E+16
   -1.512503    1.92464  0.5537E-10  0.1219E-13  0.7603E-17  0.1000E-09  0.0000E+00  0.4142E+16
   -1.581255    2.05284  0.5521E-10  0.1219E-13  0.7603E-17  0.1000E-09  0.0000E+00  0.3985E+16
   -1.650007    2.18504  0.5513E-10  0.1219E-13  0.7603E-17  0.1000E-09  0.0000E+00  0.3792E+16
   -1.718759    2.32087  0.5509E-10  0.1219E-13  0.7603E-17  0.1000E-09  0.0000E+00  0.3565E+16
   -1.787511    2.45986  0.5506E-10  0.1219E-13  0.7603E-17  0.1000E-09  0.0000E+00  0.3296E+16
   -1.856262    2.60105  0.5505E-10  0.1219E-13  0.7603E-17  0.1000E-09  0.0000E+00  0.3005E+16
   -1.925013    2.74404  0.5504E-10  0.1219E-13  0.7603E-17  0.1000E-09  0.0000E+00  0.2696E+16
   -1.993764    2.88841  0.5502E-10  0.4054E-13  0.1758E-16  0.1000E-09  0.0000E+00  0.2372E+16
   -2.062515    3.03373  0.5500E-10  0.1856E-12  0.7483E-16  0.1000E-09  0.0000E+00  0.2050E+16
   -2.131265    3.18050  0.5494E-10  0.8302E-12  0.3207E-15  0.1000E-09  0.0000E+00  0.1716E+16
   -2.200015    3.32845  0.5485E-10  0.3628E-11  0.1346E-14  0.1000E-09  0.0000E+00  0.1372E+16
   -2.268765    3.47712  0.5473E-10  0.1568E-10  0.5589E-14  0.1000E-09  0.0000E+00  0.1025E+16
   -2.337514    3.62677  0.5458E-10  0.6769E-10  0.2321E-13  0.1739E-09  0.0000E+00  0.6739E+15
   -2.406263    3.77745  0.5448E-10  0.2896E-09  0.9566E-13  0.1518E-08  0.0000E+00  0.3158E+15
   -2.475011    3.92802  0.5445E-10  0.1192E-08  0.3819E-12  0.9136E-07  0.0000E+00  0.1681E+14
   -2.543758    4.02174  0.5445E-10  0.3312E-08  0.1121E-11  0.3933E-05  0.0000E+00 -0.3368E+13
   -2.612505    4.02736  0.5445E-10  0.4021E-08  0.1824E-11  0.3052E-05  0.0000E+00 -0.5632E+13
   -2.681251    4.03535  0.5445E-10  0.3993E-08  0.4477E-11  0.1006E-05  0.0000E+00 -0.3043E+14
   -2.749997    4.06564  0.5445E-10  0.0000E+00  0.0000E+00  0.0000E+00  0.0000E+00  0.0000E+00
