 1 - depth, m
 2 - temperature, C
 3 - salinity, kg/kg
 4 - turbulent kinetic energy, m**2/s**2
 5 - dissipation rate, m**2/s**3
 6 - kinematic heat conductance, m**2/s
 7 - modulus of horizontal velocity, m/s
 8 - Richardson number, n/d
   -0.000000   12.54728  0.7477E-12  0.3009E-04  0.3045E-05  0.3388E-04  0.6630E-01 -0.2660E-02
   -0.068746   12.55714  0.7477E-12  0.2245E-04  0.7551E-06  0.7570E-04  0.4751E-01 -0.5264E-02
   -0.137492   12.55925  0.7477E-12  0.1956E-04  0.3572E-06  0.1099E-03  0.4214E-01 -0.3203E-02
   -0.206239   12.55986  0.7477E-12  0.1753E-04  0.2178E-06  0.1367E-03  0.3875E-01  0.3558E-02
   -0.274987   12.55965  0.7478E-12  0.1582E-04  0.1508E-06  0.1547E-03  0.3630E-01  0.1656E-01
   -0.343735   12.55884  0.7478E-12  0.1427E-04  0.1120E-06  0.1629E-03  0.3437E-01  0.3771E-01
   -0.412484   12.55744  0.7478E-12  0.1281E-04  0.8701E-07  0.1617E-03  0.3276E-01  0.6940E-01
   -0.481233   12.55527  0.7478E-12  0.1142E-04  0.6977E-07  0.1522E-03  0.3133E-01  0.1143E+00
   -0.549983   12.55183  0.7478E-12  0.1007E-04  0.5747E-07  0.1365E-03  0.3000E-01  0.1728E+00
   -0.618733   12.54550  0.7478E-12  0.8722E-05  0.4874E-07  0.1175E-03  0.2865E-01  0.2360E+00
   -0.687483   12.52991  0.7479E-12  0.7297E-05  0.4222E-07  0.9784E-04  0.2710E-01  0.2845E+00
   -0.756234   12.41846  0.7482E-12  0.5956E-05  0.3433E-07  0.7899E-04  0.2444E-01  0.3481E+00
   -0.824985   12.23358  0.7488E-12  0.4863E-05  0.2793E-07  0.6160E-04  0.2101E-01  0.4595E+00
   -0.893737   12.06526  0.7493E-12  0.4039E-05  0.2259E-07  0.4629E-04  0.1761E-01  0.8579E+00
   -0.962488   11.93117  0.7498E-12  0.3384E-05  0.1810E-07  0.4030E-04  0.1459E-01  0.3104E+01
   -1.031240   11.82087  0.7501E-12  0.2834E-05  0.1436E-07  0.5070E-04  0.1194E-01  0.4649E+01
   -1.099992   11.72911  0.7504E-12  0.2374E-05  0.1118E-07  0.7715E-04  0.9605E-02  0.4241E+01
   -1.168744   11.64559  0.7507E-12  0.2014E-05  0.8513E-08  0.1315E-03  0.7447E-02  0.5694E+03
   -1.237496   11.56736  0.7511E-12  0.1770E-05  0.6302E-08  0.2850E-03  0.5443E-02  0.2252E+03
   -1.306249   11.49708  0.7514E-12  0.1640E-05  0.4464E-08  0.3779E-03  0.3655E-02  0.2698E+03
   -1.375001   11.43818  0.7516E-12  0.1605E-05  0.2974E-08  0.4613E-03  0.2168E-02  0.8324E+02
   -1.443753   11.39263  0.7518E-12  0.1646E-05  0.1819E-08  0.5397E-03  0.1030E-02  0.2770E+02
   -1.512506   11.36706  0.7520E-12  0.1742E-05  0.1517E-08  0.6113E-03  0.3559E-03  0.9103E+02
   -1.581258   11.36243  0.7520E-12  0.1821E-05  0.1499E-08  0.6744E-03  0.1491E-03  0.9161E+02
   -1.650010   11.36222  0.7520E-12  0.1883E-05  0.1548E-08  0.7417E-03  0.1083E-03  0.6915E+02
   -1.718762   11.36236  0.7520E-12  0.1937E-05  0.1610E-08  0.7600E-03  0.9185E-04  0.6639E+04
   -1.787514   11.36254  0.7520E-12  0.1987E-05  0.1678E-08  0.7768E-03  0.7862E-04  0.1347E+03
   -1.856266   11.36274  0.7520E-12  0.2036E-05  0.1758E-08  0.7736E-03  0.6806E-04  0.9936E+04
   -1.925017   11.36295  0.7520E-12  0.2086E-05  0.1851E-08  0.7452E-03  0.5905E-04  0.4962E+02
   -1.993768   11.36318  0.7520E-12  0.2134E-05  0.1960E-08  0.7803E-03  0.5111E-04 -0.1570E+04
   -2.062519   11.36343  0.7520E-12  0.2179E-05  0.2082E-08  0.7344E-03  0.4467E-04  0.1860E+05
   -2.131269   11.36371  0.7520E-12  0.2221E-05  0.2222E-08  0.7004E-03  0.3863E-04  0.1629E+03
   -2.200019   11.36404  0.7520E-12  0.2256E-05  0.2384E-08  0.6746E-03  0.3288E-04  0.2280E+03
   -2.268769   11.36442  0.7520E-12  0.2284E-05  0.2573E-08  0.6417E-03  0.2755E-04  0.3545E+03
   -2.337518   11.36484  0.7520E-12  0.2302E-05  0.2809E-08  0.5999E-03  0.2275E-04  0.6215E+03
   -2.406267   11.36531  0.7520E-12  0.2309E-05  0.3121E-08  0.5471E-03  0.1846E-04  0.1276E+04
   -2.475015   11.36586  0.7520E-12  0.2300E-05  0.3569E-08  0.4812E-03  0.1465E-04  0.3304E+04
   -2.543763   11.36652  0.7520E-12  0.2266E-05  0.4294E-08  0.3955E-03  0.1125E-04  0.1804E+05
   -2.612510   11.36737  0.7520E-12  0.2184E-05  0.5757E-08  0.3042E-03  0.8173E-05  0.6140E+06
   -2.681256   11.36853  0.7520E-12  0.1530E-05  0.1976E-07  0.2092E-04  0.5599E-05 -0.1247E+07
   -2.750002   11.38640  0.7520E-12  0.0000E+00  0.0000E+00  0.0000E+00  0.5600E-05  0.0000E+00
