 1 - depth, m
 2 - temperature, C
 3 - salinity, kg/kg
 4 - turbulent kinetic energy, m**2/s**2
 5 - dissipation rate, m**2/s**3
 6 - kinematic heat conductance, m**2/s
 7 - modulus of horizontal velocity, m/s
 8 - Richardson number, n/d
   -0.000000   -0.00000  0.1978E-11  0.1219E-13  0.7603E-17  0.1000E-09  0.3597E-80  0.3645E+16
   -0.068746    0.05508  0.1204E-11  0.1219E-13  0.7603E-17  0.1000E-09  0.2950E-80  0.3336E+16
   -0.137492    0.10623  0.1021E-11  0.1219E-13  0.7603E-17  0.1000E-09  0.2410E-80  0.3019E+16
   -0.206239    0.15314  0.9903E-12  0.1219E-13  0.7603E-17  0.1000E-09  0.1989E-80  0.2704E+16
   -0.274987    0.19568  0.9859E-12  0.1219E-13  0.7603E-17  0.1000E-09  0.1657E-80  0.2405E+16
   -0.343735    0.23395  0.9854E-12  0.1219E-13  0.7603E-17  0.1000E-09  0.1385E-80  0.2133E+16
   -0.412483    0.26825  0.9853E-12  0.1219E-13  0.7603E-17  0.1000E-09  0.1155E-80  0.1902E+16
   -0.481233    0.29912  0.9853E-12  0.1219E-13  0.7603E-17  0.1000E-09  0.9560E-81  0.1722E+16
   -0.549982    0.32730  0.9853E-12  0.1219E-13  0.7603E-17  0.1000E-09  0.7852E-81  0.1604E+16
   -0.618732    0.35376  0.9853E-12  0.1219E-13  0.7603E-17  0.1000E-09  0.6398E-81  0.1556E+16
   -0.687482    0.37964  0.9853E-12  0.1219E-13  0.7603E-17  0.1000E-09  0.5174E-81  0.1600E+16
   -0.756233    0.40645  0.9853E-12  0.1219E-13  0.7603E-17  0.1000E-09  0.4155E-81  0.1737E+16
   -0.824984    0.43579  0.9853E-12  0.1219E-13  0.7603E-17  0.1000E-09  0.3314E-81  0.1962E+16
   -0.893736    0.46926  0.9853E-12  0.1219E-13  0.7603E-17  0.1000E-09  0.2626E-81  0.2278E+16
   -0.962487    0.50853  0.9853E-12  0.1219E-13  0.7603E-17  0.1000E-09  0.2068E-81  0.2682E+16
   -1.031239    0.55538  0.9853E-12  0.1219E-13  0.7603E-17  0.1000E-09  0.1617E-81  0.3168E+16
   -1.099991    0.61161  0.9853E-12  0.1219E-13  0.7603E-17  0.1000E-09  0.1256E-81  0.3726E+16
   -1.168743    0.67905  0.9850E-12  0.1219E-13  0.7603E-17  0.1000E-09  0.9687E-82  0.4339E+16
   -1.237495    0.75946  0.9836E-12  0.1219E-13  0.7603E-17  0.1000E-09  0.7409E-82  0.4985E+16
   -1.306247    0.85453  0.9794E-12  0.1219E-13  0.7603E-17  0.1000E-09  0.5611E-82  0.5635E+16
   -1.374999    0.96579  0.9707E-12  0.1219E-13  0.7603E-17  0.1000E-09  0.4194E-82  0.6300E+16
   -1.443752    1.09550  0.9637E-12  0.1928E-13  0.7621E-17  0.1000E-09  0.3076E-82  0.6904E+16
   -1.512504    1.24505  0.9610E-12  0.7100E-13  0.1570E-16  0.1000E-09  0.2186E-82  0.7388E+16
   -1.581256    1.41515  0.9596E-12  0.2246E-12  0.4480E-16  0.1000E-09  0.1466E-82  0.7709E+16
   -1.650008    1.60616  0.9582E-12  0.6683E-12  0.1282E-15  0.1000E-09  0.8638E-83  0.7829E+16
   -1.718760    1.81803  0.9573E-12  0.1940E-11  0.3602E-15  0.1000E-09  0.3332E-83  0.7702E+16
   -1.787512    2.04981  0.9569E-12  0.5682E-11  0.1022E-14  0.1000E-09  0.2258E-84  0.7046E+16
   -1.856263    2.29034  0.9567E-12  0.1659E-10  0.2887E-14  0.1000E-09  0.1409E-85  0.6271E+16
   -1.925014    2.53872  0.9566E-12  0.4781E-10  0.8041E-14  0.1000E-09  0.8031E-87  0.5401E+16
   -1.993766    2.79454  0.9566E-12  0.1357E-09  0.2202E-13  0.1000E-09  0.4985E-88  0.4490E+16
   -2.062516    3.06078  0.9564E-12  0.3699E-09  0.5781E-13  0.1071E-09  0.4021E-89  0.3551E+16
   -2.131267    3.34694  0.9557E-12  0.9837E-09  0.1478E-12  0.3134E-09  0.3036E-90  0.2373E+16
   -2.200017    3.65714  0.9538E-12  0.2562E-08  0.3701E-12  0.2167E-08  0.2131E-91  0.8535E+15
   -2.268766    3.98626  0.9516E-12  0.4121E-08  0.5948E-12  0.6571E-05  0.8695E-93 -0.3916E+12
   -2.337515    3.99395  0.9516E-12  0.5069E-08  0.7875E-12  0.1098E-04  0.1567E-93 -0.6507E+12
   -2.406264    3.99823  0.9516E-12  0.5843E-08  0.1008E-11  0.1222E-04  0.2908E-94 -0.8358E+12
   -2.475012    4.00209  0.9516E-12  0.6486E-08  0.1302E-11  0.1172E-04  0.4959E-95 -0.1136E+13
   -2.543760    4.00617  0.9516E-12  0.6963E-08  0.1765E-11  0.9597E-05  0.7180E-96 -0.1780E+13
   -2.612507    4.01124  0.9516E-12  0.7154E-08  0.2770E-11  0.5885E-05  0.7160E-97 -0.3949E+13
   -2.681253    4.01986  0.9516E-12  0.6476E-08  0.7442E-11  0.1498E-05  0.3432E-98 -0.3056E+14
   -2.749999    4.05723  0.9516E-12  0.0000E+00  0.0000E+00  0.0000E+00  0.3803E-98  0.0000E+00
