 1 - depth, m
 2 - temperature, C
 3 - salinity, kg/kg
 4 - turbulent kinetic energy, m**2/s**2
 5 - dissipation rate, m**2/s**3
 6 - kinematic heat conductance, m**2/s
 7 - modulus of horizontal velocity, m/s
 8 - Richardson number, n/d
   -0.000000    2.21219  0.5464E-10  0.2011E-04  0.1242E-05  0.3373E-04  0.4746E-01  0.6472E-02
   -0.068746    2.24998  0.5464E-10  0.1732E-04  0.4022E-06  0.7307E-04  0.3542E-01  0.1652E-01
   -0.137492    2.26681  0.5464E-10  0.1572E-04  0.2217E-06  0.1031E-03  0.3091E-01  0.2725E-01
   -0.206239    2.27894  0.5464E-10  0.1442E-04  0.1477E-06  0.1254E-03  0.2800E-01  0.3952E-01
   -0.274987    2.28905  0.5464E-10  0.1326E-04  0.1079E-06  0.1407E-03  0.2583E-01  0.5366E-01
   -0.343735    2.29823  0.5464E-10  0.1218E-04  0.8310E-07  0.1495E-03  0.2409E-01  0.7006E-01
   -0.412484    2.30703  0.5464E-10  0.1117E-04  0.6623E-07  0.1526E-03  0.2261E-01  0.8928E-01
   -0.481233    2.31585  0.5464E-10  0.1021E-04  0.5404E-07  0.1508E-03  0.2131E-01  0.1120E+00
   -0.549983    2.32506  0.5464E-10  0.9295E-05  0.4486E-07  0.1446E-03  0.2014E-01  0.1391E+00
   -0.618733    2.33503  0.5464E-10  0.8422E-05  0.3773E-07  0.1349E-03  0.1905E-01  0.1717E+00
   -0.687483    2.34630  0.5464E-10  0.7585E-05  0.3207E-07  0.1224E-03  0.1802E-01  0.2110E+00
   -0.756234    2.35974  0.5464E-10  0.6779E-05  0.2751E-07  0.1079E-03  0.1702E-01  0.2578E+00
   -0.824985    2.37696  0.5464E-10  0.5999E-05  0.2380E-07  0.9244E-04  0.1601E-01  0.3109E+00
   -0.893737    2.40153  0.5464E-10  0.5237E-05  0.2077E-07  0.7732E-04  0.1495E-01  0.3636E+00
   -0.962488    2.44354  0.5465E-10  0.4484E-05  0.1819E-07  0.6371E-04  0.1373E-01  0.4098E+00
   -1.031240    2.54407  0.5465E-10  0.3770E-05  0.1580E-07  0.5221E-04  0.1218E-01  0.4554E+00
   -1.099992    2.74264  0.5466E-10  0.3191E-05  0.1334E-07  0.4265E-04  0.1025E-01  0.6451E+00
   -1.168744    3.04413  0.5467E-10  0.2775E-05  0.1116E-07  0.3539E-04  0.8316E-02  0.2034E+01
   -1.237497    3.25402  0.5467E-10  0.2390E-05  0.9436E-08  0.6707E-04  0.6931E-02  0.1245E+03
   -1.306249    3.37273  0.5468E-10  0.2045E-05  0.8026E-08  0.9732E-04  0.5857E-02  0.1422E+04
   -1.375001    3.45589  0.5468E-10  0.1746E-05  0.6860E-08  0.1005E-03  0.4893E-02  0.3812E+04
   -1.443754    3.53488  0.5468E-10  0.1493E-05  0.5881E-08  0.1060E-03  0.3993E-02  0.4024E+04
   -1.512506    3.61248  0.5468E-10  0.1290E-05  0.5053E-08  0.1119E-03  0.3146E-02  0.4625E+04
   -1.581258    3.68765  0.5469E-10  0.1136E-05  0.4363E-08  0.1193E-03  0.2360E-02  0.1029E+05
   -1.650010    3.75493  0.5469E-10  0.1025E-05  0.3830E-08  0.1283E-03  0.1661E-02  0.7328E+04
   -1.718762    3.80657  0.5469E-10  0.9140E-06  0.3353E-08  0.1355E-03  0.1067E-02  0.3037E+04
   -1.787514    3.84634  0.5469E-10  0.6331E-06  0.1909E-08  0.1446E-03  0.4992E-03  0.1334E+05
   -1.856266    3.90717  0.5469E-10  0.4509E-06  0.1081E-08  0.1504E-03  0.2521E-03  0.5379E+04
   -1.925017    3.96849  0.5470E-10  0.3251E-06  0.5674E-09  0.1575E-03  0.1224E-03  0.1421E+05
   -1.993768    4.01106  0.5470E-10  0.2419E-06  0.2592E-09  0.1654E-03  0.5513E-04  0.4667E+05
   -2.062519    4.04393  0.5470E-10  0.2047E-06  0.1238E-09  0.1725E-03  0.2098E-04  0.3298E+05
   -2.131269    4.06211  0.5470E-10  0.1961E-06  0.8692E-10  0.1785E-03  0.8729E-05  0.5006E+05
   -2.200020    4.07049  0.5470E-10  0.1955E-06  0.7923E-10  0.1819E-03  0.4770E-05  0.5375E+05
   -2.268769    4.07498  0.5470E-10  0.1961E-06  0.7881E-10  0.1808E-03  0.3007E-05  0.9012E+05
   -2.337518    4.07840  0.5470E-10  0.1962E-06  0.8069E-10  0.1757E-03  0.1980E-05  0.2967E+07
   -2.406267    4.08155  0.5470E-10  0.1956E-06  0.8440E-10  0.1671E-03  0.1294E-05  0.1707E+07
   -2.475015    4.08468  0.5470E-10  0.1939E-06  0.9088E-10  0.1527E-03  0.8253E-06  0.2059E+07
   -2.543763    4.08804  0.5470E-10  0.1900E-06  0.1040E-09  0.1158E-03  0.4941E-06 -0.6312E+07
   -2.612510    4.09248  0.5470E-10  0.1805E-06  0.1396E-09  0.5851E-04  0.2326E-06 -0.9714E+08
   -2.681257    4.10052  0.5470E-10  0.1221E-06  0.4596E-09  0.5708E-05  0.7097E-07 -0.2065E+14
   -2.750002    4.17593  0.5470E-10  0.0000E+00  0.0000E+00  0.0000E+00  0.7103E-07  0.0000E+00
