 1 - depth, m
 2 - temperature, C
 3 - salinity, kg/kg
 4 - turbulent kinetic energy, m**2/s**2
 5 - dissipation rate, m**2/s**3
 6 - kinematic heat conductance, m**2/s
 7 - modulus of horizontal velocity, m/s
 8 - Richardson number, n/d
   -0.000000   -0.00000  0.6711E-10  0.1219E-13  0.7603E-17  0.1000E-09  0.0000E+00  0.4537E+16
   -0.068746    0.06870  0.3564E-10  0.1219E-13  0.7603E-17  0.1000E-09  0.0000E+00  0.4353E+16
   -0.137492    0.13584  0.2814E-10  0.1219E-13  0.7603E-17  0.1000E-09  0.0000E+00  0.4210E+16
   -0.206239    0.20199  0.2648E-10  0.1219E-13  0.7603E-17  0.1000E-09  0.0000E+00  0.4106E+16
   -0.274986    0.26770  0.2614E-10  0.1219E-13  0.7603E-17  0.1000E-09  0.0000E+00  0.4038E+16
   -0.343734    0.33355  0.2608E-10  0.1219E-13  0.7603E-17  0.1000E-09  0.0000E+00  0.4003E+16
   -0.412483    0.40011  0.2607E-10  0.1219E-13  0.7603E-17  0.1000E-09  0.0000E+00  0.4000E+16
   -0.481232    0.46795  0.2607E-10  0.1219E-13  0.7603E-17  0.1000E-09  0.0000E+00  0.4026E+16
   -0.549982    0.53765  0.2607E-10  0.1219E-13  0.7603E-17  0.1000E-09  0.0000E+00  0.4077E+16
   -0.618732    0.60978  0.2607E-10  0.1219E-13  0.7603E-17  0.1000E-09  0.0000E+00  0.4150E+16
   -0.687482    0.68492  0.2607E-10  0.1219E-13  0.7603E-17  0.1000E-09  0.0000E+00  0.4256E+16
   -0.756232    0.76392  0.2607E-10  0.1219E-13  0.7603E-17  0.1000E-09  0.0000E+00  0.4384E+16
   -0.824983    0.84748  0.2607E-10  0.1219E-13  0.7603E-17  0.1000E-09  0.0000E+00  0.4518E+16
   -0.893735    0.93612  0.2607E-10  0.1219E-13  0.7603E-17  0.1000E-09  0.0000E+00  0.4652E+16
   -0.962486    1.03031  0.2607E-10  0.1219E-13  0.7603E-17  0.1000E-09  0.0000E+00  0.4780E+16
   -1.031238    1.13049  0.2607E-10  0.1219E-13  0.7603E-17  0.1000E-09  0.0000E+00  0.4895E+16
   -1.099990    1.23704  0.2606E-10  0.1219E-13  0.7603E-17  0.1000E-09  0.0000E+00  0.4988E+16
   -1.168742    1.35027  0.2604E-10  0.1219E-13  0.7603E-17  0.1000E-09  0.0000E+00  0.5054E+16
   -1.237494    1.47041  0.2599E-10  0.1219E-13  0.7603E-17  0.1000E-09  0.0000E+00  0.5084E+16
   -1.306246    1.59762  0.2588E-10  0.1219E-13  0.7603E-17  0.1000E-09  0.0000E+00  0.5072E+16
   -1.374998    1.73198  0.2573E-10  0.2206E-13  0.7603E-17  0.1000E-09  0.0000E+00  0.5026E+16
   -1.443750    1.87385  0.2558E-10  0.8007E-13  0.1633E-16  0.1000E-09  0.0000E+00  0.4927E+16
   -1.512502    2.02323  0.2548E-10  0.2413E-12  0.4470E-16  0.1000E-09  0.0000E+00  0.4767E+16
   -1.581255    2.17988  0.2543E-10  0.6851E-12  0.1219E-15  0.1000E-09  0.0000E+00  0.4542E+16
   -1.650006    2.34341  0.2540E-10  0.1900E-11  0.3271E-15  0.1000E-09  0.0000E+00  0.4252E+16
   -1.718758    2.51334  0.2539E-10  0.5182E-11  0.8647E-15  0.1000E-09  0.0000E+00  0.3898E+16
   -1.787510    2.68906  0.2538E-10  0.1431E-10  0.2314E-14  0.1000E-09  0.0000E+00  0.3492E+16
   -1.856261    2.87028  0.2537E-10  0.3961E-10  0.6211E-14  0.1000E-09  0.0000E+00  0.3037E+16
   -1.925013    3.05679  0.2536E-10  0.1088E-09  0.1656E-13  0.1000E-09  0.0000E+00  0.2536E+16
   -1.993764    3.24841  0.2535E-10  0.2970E-09  0.4385E-13  0.1123E-09  0.0000E+00  0.1986E+16
   -2.062514    3.44454  0.2532E-10  0.7853E-09  0.1126E-12  0.4144E-09  0.0000E+00  0.1383E+16
   -2.131265    3.64244  0.2528E-10  0.2045E-08  0.2850E-12  0.1906E-08  0.0000E+00  0.7605E+15
   -2.200015    3.83951  0.2524E-10  0.5206E-08  0.7062E-12  0.2188E-07  0.0000E+00  0.1636E+15
   -2.268764    4.01277  0.2523E-10  0.6761E-08  0.9254E-12  0.2109E-04  0.0000E+00 -0.5647E+12
   -2.337513    4.01410  0.2523E-10  0.7364E-08  0.1042E-11  0.2125E-04  0.0000E+00 -0.5932E+12
   -2.406262    4.01543  0.2523E-10  0.7800E-08  0.1178E-11  0.2017E-04  0.0000E+00 -0.6632E+12
   -2.475010    4.01685  0.2523E-10  0.8071E-08  0.1363E-11  0.1769E-04  0.0000E+00 -0.8090E+12
   -2.543757    4.01850  0.2523E-10  0.8138E-08  0.1668E-11  0.1361E-04  0.0000E+00 -0.1147E+13
   -2.612504    4.02070  0.2523E-10  0.7842E-08  0.2372E-11  0.7787E-05  0.0000E+00 -0.2311E+13
   -2.681251    4.02475  0.2523E-10  0.6155E-08  0.6183E-11  0.1398E-05  0.0000E+00 -0.2021E+14
   -2.749996    4.05002  0.2523E-10  0.0000E+00  0.0000E+00  0.0000E+00  0.0000E+00  0.0000E+00
