 1 - depth, m
 2 - temperature, C
 3 - salinity, kg/kg
 4 - turbulent kinetic energy, m**2/s**2
 5 - dissipation rate, m**2/s**3
 6 - kinematic heat conductance, m**2/s
 7 - modulus of horizontal velocity, m/s
 8 - Richardson number, n/d
   -0.000000    0.00000  0.0000E+00  0.1219E-13  0.7603E-17  0.1000E-09  0.0000E+00  0.5181E+16
   -0.068746    0.07855  0.2405E-12  0.1219E-13  0.7603E-17  0.1000E-09  0.0000E+00  0.5349E+16
   -0.137493    0.16146  0.1048E-11  0.1219E-13  0.7603E-17  0.1000E-09  0.0000E+00  0.5548E+16
   -0.206240    0.24951  0.1951E-11  0.1219E-13  0.7603E-17  0.1000E-09  0.0000E+00  0.5721E+16
   -0.274989    0.34269  0.2576E-11  0.1219E-13  0.7603E-17  0.1000E-09  0.0000E+00  0.5837E+16
   -0.343737    0.44045  0.2840E-11  0.1219E-13  0.7603E-17  0.1000E-09  0.0000E+00  0.5887E+16
   -0.412486    0.54202  0.2839E-11  0.1219E-13  0.7603E-17  0.1000E-09  0.0000E+00  0.5876E+16
   -0.481236    0.64667  0.2708E-11  0.1219E-13  0.7603E-17  0.1000E-09  0.0000E+00  0.5814E+16
   -0.549986    0.75374  0.2551E-11  0.1219E-13  0.7603E-17  0.1000E-09  0.0000E+00  0.5713E+16
   -0.618736    0.86273  0.2418E-11  0.1219E-13  0.7603E-17  0.1000E-09  0.0000E+00  0.5583E+16
   -0.687487    0.97325  0.2326E-11  0.1219E-13  0.7603E-17  0.1000E-09  0.0000E+00  0.5430E+16
   -0.756238    1.08497  0.2269E-11  0.1219E-13  0.7603E-17  0.1000E-09  0.0000E+00  0.5259E+16
   -0.824990    1.19766  0.2238E-11  0.1219E-13  0.7603E-17  0.1000E-09  0.0000E+00  0.5077E+16
   -0.893741    1.31116  0.2221E-11  0.1219E-13  0.7603E-17  0.1000E-09  0.0000E+00  0.4885E+16
   -0.962493    1.42535  0.2213E-11  0.1219E-13  0.7603E-17  0.1000E-09  0.0000E+00  0.4687E+16
   -1.031246    1.54014  0.2209E-11  0.1219E-13  0.7603E-17  0.1000E-09  0.0000E+00  0.4483E+16
   -1.099998    1.65544  0.2206E-11  0.1219E-13  0.7603E-17  0.1000E-09  0.0000E+00  0.4275E+16
   -1.168751    1.77118  0.2204E-11  0.1219E-13  0.7603E-17  0.1000E-09  0.0000E+00  0.4062E+16
   -1.237503    1.88731  0.2201E-11  0.1219E-13  0.7603E-17  0.1000E-09  0.0000E+00  0.3848E+16
   -1.306256    2.00380  0.2197E-11  0.1219E-13  0.7603E-17  0.1000E-09  0.0000E+00  0.3632E+16
   -1.375009    2.12065  0.2192E-11  0.1219E-13  0.7603E-17  0.1000E-09  0.0000E+00  0.3419E+16
   -1.443761    2.23798  0.2186E-11  0.1219E-13  0.7603E-17  0.1000E-09  0.0000E+00  0.3207E+16
   -1.512514    2.35595  0.2180E-11  0.1219E-13  0.7603E-17  0.1000E-09  0.0000E+00  0.2999E+16
   -1.581267    2.47478  0.2174E-11  0.1219E-13  0.7603E-17  0.1000E-09  0.0000E+00  0.2792E+16
   -1.650019    2.59477  0.2169E-11  0.1219E-13  0.7603E-17  0.1000E-09  0.0000E+00  0.2587E+16
   -1.718771    2.71627  0.2163E-11  0.1219E-13  0.7603E-17  0.1000E-09  0.0000E+00  0.2375E+16
   -1.787524    2.83932  0.2159E-11  0.1219E-13  0.7603E-17  0.1000E-09  0.0000E+00  0.2084E+16
   -1.856276    2.95963  0.2155E-11  0.1650E-13  0.7623E-17  0.1000E-09  0.0000E+00  0.1797E+16
   -1.925027    3.07632  0.2152E-11  0.6564E-13  0.1644E-16  0.1000E-09  0.0000E+00  0.1518E+16
   -1.993779    3.18829  0.2150E-11  0.2285E-12  0.5188E-16  0.1000E-09  0.0000E+00  0.1268E+16
   -2.062530    3.29581  0.2148E-11  0.7364E-12  0.1611E-15  0.1000E-09  0.0000E+00  0.1090E+16
   -2.131281    3.40407  0.2146E-11  0.2322E-11  0.4924E-15  0.1000E-09  0.0000E+00  0.9162E+15
   -2.200031    3.51407  0.2145E-11  0.7231E-11  0.1489E-14  0.1000E-09  0.0000E+00  0.7366E+15
   -2.268781    3.62634  0.2144E-11  0.2250E-10  0.4499E-14  0.1000E-09  0.0000E+00  0.5451E+15
   -2.337531    3.74071  0.2143E-11  0.7071E-10  0.1374E-13  0.2038E-09  0.0000E+00  0.3415E+15
   -2.406280    3.85651  0.2143E-11  0.2228E-09  0.4214E-13  0.1629E-08  0.0000E+00  0.1301E+15
   -2.475029    3.97079  0.2143E-11  0.6594E-09  0.1226E-12  0.4049E-06  0.0000E+00  0.3110E+12
   -2.543777    4.00104  0.2143E-11  0.1355E-08  0.2998E-12  0.2673E-05  0.0000E+00 -0.1484E+13
   -2.612524    4.00652  0.2143E-11  0.1591E-08  0.4723E-12  0.2019E-05  0.0000E+00 -0.2520E+13
   -2.681271    4.01336  0.2143E-11  0.1273E-08  0.9744E-12  0.4125E-06  0.0000E+00 -0.1273E+14
   -2.750017    4.03488  0.2143E-11  0.0000E+00  0.0000E+00  0.0000E+00  0.0000E+00  0.0000E+00
