 1 - depth, m
 2 - temperature, C
 3 - salinity, kg/kg
 4 - turbulent kinetic energy, m**2/s**2
 5 - dissipation rate, m**2/s**3
 6 - kinematic heat conductance, m**2/s
 7 - modulus of horizontal velocity, m/s
 8 - Richardson number, n/d
   -0.000000   -0.00000  0.9439E-10  0.1219E-13  0.7603E-17  0.1000E-09  0.0000E+00  0.5596E+16
   -0.068746    0.08491  0.5111E-10  0.1219E-13  0.7603E-17  0.1000E-09  0.0000E+00  0.5385E+16
   -0.137492    0.16853  0.3799E-10  0.1219E-13  0.7603E-17  0.1000E-09  0.0000E+00  0.5209E+16
   -0.206239    0.25131  0.3464E-10  0.1219E-13  0.7603E-17  0.1000E-09  0.0000E+00  0.5063E+16
   -0.274986    0.33370  0.3390E-10  0.1219E-13  0.7603E-17  0.1000E-09  0.0000E+00  0.4946E+16
   -0.343735    0.41613  0.3376E-10  0.1219E-13  0.7603E-17  0.1000E-09  0.0000E+00  0.4854E+16
   -0.412483    0.49903  0.3373E-10  0.1219E-13  0.7603E-17  0.1000E-09  0.0000E+00  0.4784E+16
   -0.481232    0.58283  0.3373E-10  0.1219E-13  0.7603E-17  0.1000E-09  0.0000E+00  0.4731E+16
   -0.549982    0.66791  0.3373E-10  0.1219E-13  0.7603E-17  0.1000E-09  0.0000E+00  0.4694E+16
   -0.618732    0.75467  0.3373E-10  0.1219E-13  0.7603E-17  0.1000E-09  0.0000E+00  0.4669E+16
   -0.687482    0.84346  0.3373E-10  0.1219E-13  0.7603E-17  0.1000E-09  0.0000E+00  0.4665E+16
   -0.756233    0.93489  0.3373E-10  0.1219E-13  0.7603E-17  0.1000E-09  0.0000E+00  0.4671E+16
   -0.824984    1.02944  0.3373E-10  0.1219E-13  0.7603E-17  0.1000E-09  0.0000E+00  0.4676E+16
   -0.893735    1.12737  0.3373E-10  0.1219E-13  0.7603E-17  0.1000E-09  0.0000E+00  0.4676E+16
   -0.962486    1.22895  0.3372E-10  0.1219E-13  0.7603E-17  0.1000E-09  0.0000E+00  0.4666E+16
   -1.031238    1.33437  0.3371E-10  0.1219E-13  0.7603E-17  0.1000E-09  0.0000E+00  0.4643E+16
   -1.099990    1.44380  0.3368E-10  0.1219E-13  0.7603E-17  0.1000E-09  0.0000E+00  0.4603E+16
   -1.168742    1.55737  0.3361E-10  0.1219E-13  0.7603E-17  0.1000E-09  0.0000E+00  0.4543E+16
   -1.237494    1.67514  0.3348E-10  0.1219E-13  0.7603E-17  0.1000E-09  0.0000E+00  0.4459E+16
   -1.306246    1.79713  0.3329E-10  0.1219E-13  0.7603E-17  0.1000E-09  0.0000E+00  0.4348E+16
   -1.374998    1.92331  0.3310E-10  0.1219E-13  0.7603E-17  0.1000E-09  0.0000E+00  0.4219E+16
   -1.443751    2.05386  0.3295E-10  0.1219E-13  0.7603E-17  0.1000E-09  0.0000E+00  0.4060E+16
   -1.512503    2.18873  0.3286E-10  0.2675E-13  0.7603E-17  0.1000E-09  0.0000E+00  0.3868E+16
   -1.581255    2.32770  0.3280E-10  0.8947E-13  0.1909E-16  0.1000E-09  0.0000E+00  0.3642E+16
   -1.650007    2.47050  0.3277E-10  0.2729E-12  0.5460E-16  0.1000E-09  0.0000E+00  0.3383E+16
   -1.718759    2.61679  0.3274E-10  0.8013E-12  0.1546E-15  0.1000E-09  0.0000E+00  0.3093E+16
   -1.787510    2.76618  0.3273E-10  0.2372E-11  0.4423E-15  0.1000E-09  0.0000E+00  0.2783E+16
   -1.856262    2.91869  0.3272E-10  0.7014E-11  0.1266E-14  0.1000E-09  0.0000E+00  0.2449E+16
   -1.925013    3.07416  0.3272E-10  0.2055E-10  0.3592E-14  0.1000E-09  0.0000E+00  0.2094E+16
   -1.993764    3.23249  0.3271E-10  0.5969E-10  0.1011E-13  0.1000E-09  0.0000E+00  0.1714E+16
   -2.062515    3.39328  0.3269E-10  0.1677E-09  0.2754E-13  0.1069E-09  0.0000E+00  0.1310E+16
   -2.131265    3.55531  0.3266E-10  0.4640E-09  0.7388E-13  0.4197E-09  0.0000E+00  0.8949E+15
   -2.200015    3.71771  0.3262E-10  0.1267E-08  0.1958E-12  0.2092E-08  0.0000E+00  0.4754E+15
   -2.268764    3.87845  0.3260E-10  0.3395E-08  0.5103E-12  0.3001E-07  0.0000E+00  0.8557E+14
   -2.337514    4.01313  0.3260E-10  0.4985E-08  0.7571E-12  0.1419E-04  0.0000E+00 -0.6988E+12
   -2.406262    4.01475  0.3260E-10  0.5579E-08  0.8908E-12  0.1417E-04  0.0000E+00 -0.7528E+12
   -2.475010    4.01639  0.3260E-10  0.5975E-08  0.1056E-11  0.1287E-04  0.0000E+00 -0.8979E+12
   -2.543758    4.01824  0.3260E-10  0.6162E-08  0.1315E-11  0.1016E-04  0.0000E+00 -0.1259E+13
   -2.612505    4.02066  0.3260E-10  0.6028E-08  0.1896E-11  0.5933E-05  0.0000E+00 -0.2546E+13
   -2.681251    4.02511  0.3260E-10  0.4865E-08  0.4854E-11  0.1177E-05  0.0000E+00 -0.2112E+14
   -2.749997    4.05115  0.3260E-10  0.0000E+00  0.0000E+00  0.0000E+00  0.0000E+00  0.0000E+00
