 1 - depth, m
 2 - temperature, C
 3 - salinity, kg/kg
 4 - turbulent kinetic energy, m**2/s**2
 5 - dissipation rate, m**2/s**3
 6 - kinematic heat conductance, m**2/s
 7 - modulus of horizontal velocity, m/s
 8 - Richardson number, n/d
   -0.000000   -0.00000  0.4332E-10  0.1219E-13  0.7603E-17  0.1000E-09  0.0000E+00  0.7480E+16
   -0.068746    0.11394  0.2576E-10  0.1219E-13  0.7603E-17  0.1000E-09  0.0000E+00  0.7191E+16
   -0.137492    0.22697  0.1854E-10  0.1219E-13  0.7603E-17  0.1000E-09  0.0000E+00  0.6924E+16
   -0.206239    0.33932  0.1604E-10  0.1219E-13  0.7603E-17  0.1000E-09  0.0000E+00  0.6675E+16
   -0.274987    0.45122  0.1529E-10  0.1219E-13  0.7603E-17  0.1000E-09  0.0000E+00  0.6443E+16
   -0.343735    0.56293  0.1510E-10  0.1219E-13  0.7603E-17  0.1000E-09  0.0000E+00  0.6227E+16
   -0.412483    0.67467  0.1506E-10  0.1219E-13  0.7603E-17  0.1000E-09  0.0000E+00  0.6023E+16
   -0.481232    0.78668  0.1505E-10  0.1219E-13  0.7603E-17  0.1000E-09  0.0000E+00  0.5830E+16
   -0.549982    0.89918  0.1504E-10  0.1219E-13  0.7603E-17  0.1000E-09  0.0000E+00  0.5645E+16
   -0.618732    1.01238  0.1504E-10  0.1219E-13  0.7603E-17  0.1000E-09  0.0000E+00  0.5466E+16
   -0.687482    1.12648  0.1504E-10  0.1219E-13  0.7603E-17  0.1000E-09  0.0000E+00  0.5300E+16
   -0.756233    1.24187  0.1504E-10  0.1219E-13  0.7603E-17  0.1000E-09  0.0000E+00  0.5139E+16
   -0.824984    1.35882  0.1504E-10  0.1219E-13  0.7603E-17  0.1000E-09  0.0000E+00  0.4976E+16
   -0.893735    1.47748  0.1504E-10  0.1219E-13  0.7603E-17  0.1000E-09  0.0000E+00  0.4806E+16
   -0.962487    1.59794  0.1504E-10  0.1219E-13  0.7603E-17  0.1000E-09  0.0000E+00  0.4630E+16
   -1.031238    1.72027  0.1503E-10  0.1219E-13  0.7603E-17  0.1000E-09  0.0000E+00  0.4444E+16
   -1.099990    1.84451  0.1501E-10  0.1219E-13  0.7603E-17  0.1000E-09  0.0000E+00  0.4248E+16
   -1.168742    1.97069  0.1498E-10  0.1219E-13  0.7603E-17  0.1000E-09  0.0000E+00  0.4040E+16
   -1.237494    2.09877  0.1494E-10  0.4126E-13  0.8234E-17  0.1000E-09  0.0000E+00  0.3820E+16
   -1.306247    2.22872  0.1488E-10  0.1225E-12  0.1862E-16  0.1000E-09  0.0000E+00  0.3587E+16
   -1.374999    2.36045  0.1481E-10  0.3216E-12  0.4573E-16  0.1000E-09  0.0000E+00  0.3344E+16
   -1.443751    2.49398  0.1475E-10  0.8100E-12  0.1112E-15  0.1000E-09  0.0000E+00  0.3088E+16
   -1.512503    2.62923  0.1471E-10  0.2002E-11  0.2669E-15  0.1000E-09  0.0000E+00  0.2819E+16
   -1.581255    2.76601  0.1468E-10  0.4882E-11  0.6326E-15  0.1000E-09  0.0000E+00  0.2537E+16
   -1.650008    2.90411  0.1467E-10  0.1176E-10  0.1482E-14  0.1000E-09  0.0000E+00  0.2244E+16
   -1.718759    3.04331  0.1466E-10  0.2802E-10  0.3434E-14  0.1000E-09  0.0000E+00  0.1943E+16
   -1.787511    3.18340  0.1465E-10  0.6766E-10  0.8064E-14  0.1000E-09  0.0000E+00  0.1652E+16
   -1.856263    3.32586  0.1464E-10  0.1644E-09  0.1906E-13  0.1000E-09  0.0000E+00  0.1347E+16
   -1.925014    3.47078  0.1463E-10  0.3979E-09  0.4493E-13  0.2224E-09  0.0000E+00  0.1028E+16
   -1.993765    3.61820  0.1461E-10  0.9590E-09  0.1055E-12  0.7789E-09  0.0000E+00  0.6887E+15
   -2.062516    3.76725  0.1459E-10  0.2245E-08  0.2407E-12  0.3658E-08  0.0000E+00  0.3345E+15
   -2.131266    3.91289  0.1459E-10  0.5005E-08  0.5255E-12  0.7091E-07  0.0000E+00  0.3724E+14
   -2.200016    4.01160  0.1459E-10  0.6065E-08  0.6417E-12  0.2469E-04  0.0000E+00 -0.3387E+12
   -2.268765    4.01244  0.1459E-10  0.6481E-08  0.7019E-12  0.2480E-04  0.0000E+00 -0.3494E+12
   -2.337515    4.01328  0.1459E-10  0.6790E-08  0.7688E-12  0.2392E-04  0.0000E+00 -0.3759E+12
   -2.406263    4.01415  0.1459E-10  0.6997E-08  0.8519E-12  0.2194E-04  0.0000E+00 -0.4266E+12
   -2.475011    4.01512  0.1459E-10  0.7088E-08  0.9704E-12  0.1868E-04  0.0000E+00 -0.5251E+12
   -2.543759    4.01626  0.1459E-10  0.7020E-08  0.1173E-11  0.1393E-04  0.0000E+00 -0.7489E+12
   -2.612506    4.01781  0.1459E-10  0.6637E-08  0.1655E-11  0.7609E-05  0.0000E+00 -0.1519E+13
   -2.681252    4.02075  0.1459E-10  0.4886E-08  0.4405E-11  0.1122E-05  0.0000E+00 -0.1446E+14
   -2.749998    4.04139  0.1459E-10  0.0000E+00  0.0000E+00  0.0000E+00  0.0000E+00  0.0000E+00
