 1 - depth, m
 2 - temperature, C
 3 - salinity, kg/kg
 4 - turbulent kinetic energy, m**2/s**2
 5 - dissipation rate, m**2/s**3
 6 - kinematic heat conductance, m**2/s
 7 - modulus of horizontal velocity, m/s
 8 - Richardson number, n/d
   -0.000000   -0.00000  0.9949E-13  0.1219E-13  0.7603E-17  0.1000E-09  0.0000E+00  0.6717E+16
   -0.068746    0.10217  0.7751E-12  0.1219E-13  0.7603E-17  0.1000E-09  0.0000E+00  0.6645E+16
   -0.137493    0.20613  0.1539E-11  0.1219E-13  0.7603E-17  0.1000E-09  0.0000E+00  0.6555E+16
   -0.206240    0.31177  0.2035E-11  0.1219E-13  0.7603E-17  0.1000E-09  0.0000E+00  0.6449E+16
   -0.274988    0.41894  0.2213E-11  0.1219E-13  0.7603E-17  0.1000E-09  0.0000E+00  0.6329E+16
   -0.343736    0.52754  0.2180E-11  0.1219E-13  0.7603E-17  0.1000E-09  0.0000E+00  0.6195E+16
   -0.412485    0.63746  0.2059E-11  0.1219E-13  0.7603E-17  0.1000E-09  0.0000E+00  0.6048E+16
   -0.481234    0.74859  0.1929E-11  0.1219E-13  0.7603E-17  0.1000E-09  0.0000E+00  0.5890E+16
   -0.549984    0.86082  0.1826E-11  0.1219E-13  0.7603E-17  0.1000E-09  0.0000E+00  0.5721E+16
   -0.618734    0.97405  0.1757E-11  0.1219E-13  0.7603E-17  0.1000E-09  0.0000E+00  0.5542E+16
   -0.687485    1.08816  0.1717E-11  0.1219E-13  0.7603E-17  0.1000E-09  0.0000E+00  0.5353E+16
   -0.756236    1.20306  0.1696E-11  0.1219E-13  0.7603E-17  0.1000E-09  0.0000E+00  0.5157E+16
   -0.824987    1.31864  0.1686E-11  0.1219E-13  0.7603E-17  0.1000E-09  0.0000E+00  0.4953E+16
   -0.893739    1.43480  0.1681E-11  0.1219E-13  0.7603E-17  0.1000E-09  0.0000E+00  0.4743E+16
   -0.962490    1.55145  0.1678E-11  0.1219E-13  0.7603E-17  0.1000E-09  0.0000E+00  0.4528E+16
   -1.031242    1.66852  0.1677E-11  0.1219E-13  0.7603E-17  0.1000E-09  0.0000E+00  0.4308E+16
   -1.099994    1.78591  0.1675E-11  0.1219E-13  0.7603E-17  0.1000E-09  0.0000E+00  0.4085E+16
   -1.168747    1.90355  0.1672E-11  0.1219E-13  0.7603E-17  0.1000E-09  0.0000E+00  0.3859E+16
   -1.237499    2.02138  0.1669E-11  0.1219E-13  0.7603E-17  0.1000E-09  0.0000E+00  0.3631E+16
   -1.306252    2.13935  0.1666E-11  0.1219E-13  0.7603E-17  0.1000E-09  0.0000E+00  0.3402E+16
   -1.375004    2.25739  0.1661E-11  0.1219E-13  0.7603E-17  0.1000E-09  0.0000E+00  0.3173E+16
   -1.443757    2.37548  0.1657E-11  0.1219E-13  0.7603E-17  0.1000E-09  0.0000E+00  0.2943E+16
   -1.512509    2.49359  0.1652E-11  0.1219E-13  0.7603E-17  0.1000E-09  0.0000E+00  0.2714E+16
   -1.581261    2.61168  0.1648E-11  0.1219E-13  0.7603E-17  0.1000E-09  0.0000E+00  0.2484E+16
   -1.650014    2.72973  0.1644E-11  0.1219E-13  0.7603E-17  0.1000E-09  0.0000E+00  0.2256E+16
   -1.718766    2.84772  0.1641E-11  0.1219E-13  0.7603E-17  0.1000E-09  0.0000E+00  0.2028E+16
   -1.787518    2.96557  0.1638E-11  0.3648E-13  0.9981E-17  0.1000E-09  0.0000E+00  0.1773E+16
   -1.856270    3.08136  0.1636E-11  0.1292E-12  0.2953E-16  0.1000E-09  0.0000E+00  0.1526E+16
   -1.925021    3.19463  0.1634E-11  0.4283E-12  0.9310E-16  0.1000E-09  0.0000E+00  0.1285E+16
   -1.993772    3.30472  0.1632E-11  0.1386E-11  0.2908E-15  0.1000E-09  0.0000E+00  0.1061E+16
   -2.062523    3.41152  0.1631E-11  0.4319E-11  0.8764E-15  0.1000E-09  0.0000E+00  0.8749E+15
   -2.131274    3.51770  0.1630E-11  0.1322E-10  0.2597E-14  0.1000E-09  0.0000E+00  0.6935E+15
   -2.200024    3.62349  0.1629E-11  0.3995E-10  0.7597E-14  0.1000E-09  0.0000E+00  0.5145E+15
   -2.268774    3.72889  0.1629E-11  0.1203E-09  0.2216E-13  0.3327E-09  0.0000E+00  0.3375E+15
   -2.337523    3.83361  0.1629E-11  0.3645E-09  0.6511E-13  0.2010E-08  0.0000E+00  0.1635E+15
   -2.406272    3.93651  0.1629E-11  0.1075E-08  0.1870E-12  0.5794E-07  0.0000E+00  0.1514E+14
   -2.475021    4.00975  0.1629E-11  0.2157E-08  0.3820E-12  0.5629E-05  0.0000E+00 -0.9730E+12
   -2.543768    4.01227  0.1629E-11  0.2500E-08  0.4972E-12  0.5099E-05  0.0000E+00 -0.1168E+13
   -2.612516    4.01500  0.1629E-11  0.2524E-08  0.6807E-12  0.3217E-05  0.0000E+00 -0.1988E+13
   -2.681262    4.01913  0.1629E-11  0.1851E-08  0.1447E-11  0.5311E-06  0.0000E+00 -0.1199E+14
   -2.750008    4.03738  0.1629E-11  0.0000E+00  0.0000E+00  0.0000E+00  0.0000E+00  0.0000E+00
