 1 - depth, m
 2 - temperature, C
 3 - salinity, kg/kg
 4 - turbulent kinetic energy, m**2/s**2
 5 - dissipation rate, m**2/s**3
 6 - kinematic heat conductance, m**2/s
 7 - modulus of horizontal velocity, m/s
 8 - Richardson number, n/d
   -0.000000    2.85967  0.6435E-11  0.6486E-05  0.1665E-06  0.2311E-04  0.2353E-01  0.2135E-01
   -0.068746    2.91634  0.6435E-11  0.5837E-05  0.7042E-07  0.4190E-04  0.1794E-01  0.4376E-01
   -0.137492    2.94611  0.6435E-11  0.5212E-05  0.4219E-07  0.5345E-04  0.1523E-01  0.6665E-01
   -0.206239    2.96827  0.6435E-11  0.4636E-05  0.2877E-07  0.5969E-04  0.1339E-01  0.9017E-01
   -0.274987    2.98712  0.6436E-11  0.4107E-05  0.2095E-07  0.6213E-04  0.1195E-01  0.1147E+00
   -0.343735    3.00436  0.6436E-11  0.3619E-05  0.1582E-07  0.6187E-04  0.1075E-01  0.1405E+00
   -0.412484    3.02093  0.6436E-11  0.3169E-05  0.1222E-07  0.5970E-04  0.9709E-02  0.1681E+00
   -0.481233    3.03747  0.6436E-11  0.2752E-05  0.9550E-08  0.5627E-04  0.8769E-02  0.1978E+00
   -0.549983    3.05455  0.6436E-11  0.2367E-05  0.7507E-08  0.5207E-04  0.7902E-02  0.2298E+00
   -0.618733    3.07282  0.6436E-11  0.2012E-05  0.5900E-08  0.4752E-04  0.7084E-02  0.2647E+00
   -0.687484    3.09318  0.6436E-11  0.1688E-05  0.4610E-08  0.4297E-04  0.6295E-02  0.3028E+00
   -0.756234    3.11718  0.6436E-11  0.1394E-05  0.3558E-08  0.3870E-04  0.5513E-02  0.3455E+00
   -0.824985    3.14818  0.6436E-11  0.1132E-05  0.2680E-08  0.3498E-04  0.4710E-02  0.4050E+00
   -0.893737    3.19631  0.6437E-11  0.9168E-06  0.1942E-08  0.3205E-04  0.3839E-02  0.5678E+00
   -0.962488    3.27842  0.6437E-11  0.7673E-06  0.1385E-08  0.2983E-04  0.2935E-02  0.1023E+01
   -1.031240    3.36772  0.6437E-11  0.6763E-06  0.1090E-08  0.2797E-04  0.2202E-02  0.2644E+01
   -1.099992    3.42062  0.6438E-11  0.6139E-06  0.9183E-09  0.2624E-04  0.1753E-02  0.1003E+02
   -1.168744    3.46396  0.6438E-11  0.5749E-06  0.7860E-09  0.2463E-04  0.1464E-02  0.5032E+02
   -1.237497    3.53423  0.6438E-11  0.5441E-06  0.6817E-09  0.5334E-04  0.1240E-02  0.3903E+03
   -1.306249    3.59860  0.6438E-11  0.5183E-06  0.5982E-09  0.8709E-04  0.1063E-02  0.3817E+04
   -1.375001    3.65394  0.6438E-11  0.4970E-06  0.5317E-09  0.1160E-03  0.9075E-03  0.5250E+05
   -1.443754    3.70109  0.6438E-11  0.4792E-06  0.4790E-09  0.1399E-03  0.7670E-03 -0.2007E+06
   -1.512506    3.74206  0.6438E-11  0.4644E-06  0.4374E-09  0.1590E-03  0.6384E-03  0.5143E+06
   -1.581258    3.77869  0.6438E-11  0.4512E-06  0.4042E-09  0.1748E-03  0.5188E-03  0.3518E+07
   -1.650010    3.81256  0.6439E-11  0.4377E-06  0.3759E-09  0.1867E-03  0.4039E-03  0.3522E+07
   -1.718763    3.84637  0.6439E-11  0.4156E-06  0.3408E-09  0.1920E-03  0.2849E-03  0.3897E+06
   -1.787514    3.88376  0.6439E-11  0.3729E-06  0.2752E-09  0.2037E-03  0.1335E-03  0.8589E+06
   -1.856266    3.90372  0.6439E-11  0.3414E-06  0.2296E-09  0.2069E-03  0.8195E-04  0.1145E+07
   -1.925017    3.91814  0.6439E-11  0.3149E-06  0.1937E-09  0.2067E-03  0.5265E-04  0.1151E+08
   -1.993768    3.92824  0.6439E-11  0.2924E-06  0.1653E-09  0.2048E-03  0.3538E-04  0.9183E+09
   -2.062519    3.93686  0.6439E-11  0.2734E-06  0.1433E-09  0.2014E-03  0.2454E-04  0.4346E+11
   -2.131270    3.95061  0.6439E-11  0.2572E-06  0.1261E-09  0.1976E-03  0.1639E-04  0.1284E+13
   -2.200020    3.96701  0.6439E-11  0.2430E-06  0.1129E-09  0.1926E-03  0.1032E-04  0.1191E+13
   -2.268770    3.98614  0.6439E-11  0.2309E-06  0.1034E-09  0.1865E-03  0.5726E-05 -0.6364E+12
   -2.337519    4.00379  0.6439E-11  0.2204E-06  0.9726E-10  0.1776E-03  0.2888E-05 -0.1019E+13
   -2.406268    4.02008  0.6439E-11  0.2111E-06  0.9473E-10  0.1654E-03  0.1319E-05 -0.1446E+13
   -2.475016    4.03567  0.6439E-11  0.2027E-06  0.9657E-10  0.1495E-03  0.5294E-06 -0.2050E+13
   -2.543763    4.05040  0.6439E-11  0.1942E-06  0.1059E-09  0.1262E-03  0.1838E-06 -0.3187E+13
   -2.612511    4.06431  0.6439E-11  0.1828E-06  0.1386E-09  0.6262E-04  0.5271E-07 -0.6998E+13
   -2.681257    4.07913  0.6439E-11  0.1242E-06  0.4871E-09  0.5632E-05  0.1192E-07 -0.8935E+14
   -2.750003    4.16425  0.6439E-11  0.0000E+00  0.0000E+00  0.0000E+00  0.1254E-07  0.0000E+00
