 1 - depth, m
 2 - temperature, C
 3 - salinity, kg/kg
 4 - turbulent kinetic energy, m**2/s**2
 5 - dissipation rate, m**2/s**3
 6 - kinematic heat conductance, m**2/s
 7 - modulus of horizontal velocity, m/s
 8 - Richardson number, n/d
   -0.000000   -0.00000  0.9766E-10  0.1219E-13  0.7603E-17  0.1000E-09  0.0000E+00  0.6669E+16
   -0.068746    0.10142  0.5618E-10  0.1219E-13  0.7603E-17  0.1000E-09  0.0000E+00  0.6424E+16
   -0.137492    0.20186  0.4054E-10  0.1219E-13  0.7603E-17  0.1000E-09  0.0000E+00  0.6199E+16
   -0.206239    0.30154  0.3551E-10  0.1219E-13  0.7603E-17  0.1000E-09  0.0000E+00  0.5994E+16
   -0.274987    0.40074  0.3414E-10  0.1219E-13  0.7603E-17  0.1000E-09  0.0000E+00  0.5808E+16
   -0.343735    0.49972  0.3381E-10  0.1219E-13  0.7603E-17  0.1000E-09  0.0000E+00  0.5639E+16
   -0.412483    0.59875  0.3374E-10  0.1219E-13  0.7603E-17  0.1000E-09  0.0000E+00  0.5484E+16
   -0.481232    0.69807  0.3373E-10  0.1219E-13  0.7603E-17  0.1000E-09  0.0000E+00  0.5341E+16
   -0.549982    0.79796  0.3373E-10  0.1219E-13  0.7603E-17  0.1000E-09  0.0000E+00  0.5207E+16
   -0.618732    0.89863  0.3373E-10  0.1219E-13  0.7603E-17  0.1000E-09  0.0000E+00  0.5081E+16
   -0.687482    1.00031  0.3373E-10  0.1219E-13  0.7603E-17  0.1000E-09  0.0000E+00  0.4970E+16
   -0.756233    1.10342  0.3373E-10  0.1219E-13  0.7603E-17  0.1000E-09  0.0000E+00  0.4866E+16
   -0.824984    1.20826  0.3373E-10  0.1219E-13  0.7603E-17  0.1000E-09  0.0000E+00  0.4760E+16
   -0.893735    1.31498  0.3372E-10  0.1219E-13  0.7603E-17  0.1000E-09  0.0000E+00  0.4649E+16
   -0.962487    1.42370  0.3371E-10  0.1219E-13  0.7603E-17  0.1000E-09  0.0000E+00  0.4532E+16
   -1.031238    1.53451  0.3369E-10  0.1219E-13  0.7603E-17  0.1000E-09  0.0000E+00  0.4405E+16
   -1.099990    1.64747  0.3364E-10  0.1219E-13  0.7603E-17  0.1000E-09  0.0000E+00  0.4268E+16
   -1.168742    1.76260  0.3354E-10  0.1219E-13  0.7603E-17  0.1000E-09  0.0000E+00  0.4119E+16
   -1.237495    1.87990  0.3341E-10  0.1219E-13  0.7603E-17  0.1000E-09  0.0000E+00  0.3957E+16
   -1.306247    1.99932  0.3324E-10  0.1219E-13  0.7603E-17  0.1000E-09  0.0000E+00  0.3780E+16
   -1.374999    2.12079  0.3307E-10  0.1219E-13  0.7603E-17  0.1000E-09  0.0000E+00  0.3595E+16
   -1.443751    2.24439  0.3294E-10  0.1219E-13  0.7603E-17  0.1000E-09  0.0000E+00  0.3395E+16
   -1.512503    2.37002  0.3285E-10  0.1219E-13  0.7603E-17  0.1000E-09  0.0000E+00  0.3179E+16
   -1.581255    2.49752  0.3280E-10  0.3607E-13  0.8093E-17  0.1000E-09  0.0000E+00  0.2948E+16
   -1.650008    2.62667  0.3276E-10  0.1107E-12  0.1904E-16  0.1000E-09  0.0000E+00  0.2702E+16
   -1.718759    2.75723  0.3274E-10  0.3045E-12  0.4911E-16  0.1000E-09  0.0000E+00  0.2446E+16
   -1.787511    2.88898  0.3273E-10  0.8273E-12  0.1287E-15  0.1000E-09  0.0000E+00  0.2193E+16
   -1.856263    3.02265  0.3272E-10  0.2241E-11  0.3381E-15  0.1000E-09  0.0000E+00  0.1930E+16
   -1.925014    3.15821  0.3271E-10  0.6025E-11  0.8821E-15  0.1000E-09  0.0000E+00  0.1655E+16
   -1.993765    3.29567  0.3270E-10  0.1609E-10  0.2287E-14  0.1000E-09  0.0000E+00  0.1366E+16
   -2.062516    3.43464  0.3268E-10  0.4167E-10  0.5756E-14  0.1000E-09  0.0000E+00  0.1059E+16
   -2.131266    3.57382  0.3265E-10  0.1064E-09  0.1429E-13  0.1016E-09  0.0000E+00  0.7507E+15
   -2.200016    3.71277  0.3262E-10  0.2692E-09  0.3513E-13  0.4024E-09  0.0000E+00  0.4437E+15
   -2.268765    3.85078  0.3260E-10  0.6793E-09  0.8623E-13  0.3036E-08  0.0000E+00  0.1440E+15
   -2.337515    3.98560  0.3260E-10  0.1356E-08  0.1715E-12  0.2550E-05  0.0000E+00 -0.3292E+12
   -2.406263    3.99292  0.3260E-10  0.1864E-08  0.2643E-12  0.4639E-05  0.0000E+00 -0.5567E+12
   -2.475011    3.99702  0.3260E-10  0.2270E-08  0.3786E-12  0.4949E-05  0.0000E+00 -0.7823E+12
   -2.543759    4.00096  0.3260E-10  0.2581E-08  0.5538E-12  0.4221E-05  0.0000E+00 -0.1272E+13
   -2.612506    4.00572  0.3260E-10  0.2748E-08  0.9284E-12  0.2607E-05  0.0000E+00 -0.3000E+13
   -2.681252    4.01388  0.3260E-10  0.2580E-08  0.2489E-11  0.7351E-06  0.0000E+00 -0.2208E+14
   -2.749998    4.04614  0.3260E-10  0.0000E+00  0.0000E+00  0.0000E+00  0.0000E+00  0.0000E+00
