 1 - depth, m
 2 - temperature, C
 3 - salinity, kg/kg
 4 - turbulent kinetic energy, m**2/s**2
 5 - dissipation rate, m**2/s**3
 6 - kinematic heat conductance, m**2/s
 7 - modulus of horizontal velocity, m/s
 8 - Richardson number, n/d
   -0.000000    0.00000  0.0000E+00  0.1218E-13  0.7603E-17  0.1000E-09  0.0000E+00  0.4545E+16
   -0.068746    0.06882  0.3029E-11  0.1218E-13  0.7603E-17  0.1000E-09  0.0000E+00  0.4925E+16
   -0.137493    0.14487  0.1102E-10  0.1218E-13  0.7603E-17  0.1000E-09  0.0000E+00  0.5221E+16
   -0.206241    0.22729  0.1905E-10  0.1218E-13  0.7603E-17  0.1000E-09  0.0000E+00  0.5416E+16
   -0.274989    0.31488  0.2409E-10  0.1218E-13  0.7603E-17  0.1000E-09  0.0000E+00  0.5518E+16
   -0.343738    0.40645  0.2584E-10  0.1218E-13  0.7603E-17  0.1000E-09  0.0000E+00  0.5543E+16
   -0.412487    0.50102  0.2541E-10  0.1218E-13  0.7603E-17  0.1000E-09  0.0000E+00  0.5512E+16
   -0.481236    0.59783  0.2406E-10  0.1218E-13  0.7603E-17  0.1000E-09  0.0000E+00  0.5441E+16
   -0.549986    0.69635  0.2262E-10  0.1218E-13  0.7603E-17  0.1000E-09  0.0000E+00  0.5342E+16
   -0.618737    0.79620  0.2148E-10  0.1218E-13  0.7603E-17  0.1000E-09  0.0000E+00  0.5225E+16
   -0.687488    0.89716  0.2071E-10  0.1218E-13  0.7603E-17  0.1000E-09  0.0000E+00  0.5092E+16
   -0.756239    0.99899  0.2026E-10  0.1218E-13  0.7603E-17  0.1000E-09  0.0000E+00  0.4948E+16
   -0.824991    1.10157  0.2002E-10  0.1218E-13  0.7603E-17  0.1000E-09  0.0000E+00  0.4796E+16
   -0.893743    1.20479  0.1989E-10  0.1218E-13  0.7603E-17  0.1000E-09  0.0000E+00  0.4637E+16
   -0.962495    1.30856  0.1983E-10  0.1218E-13  0.7603E-17  0.1000E-09  0.0000E+00  0.4473E+16
   -1.031247    1.41281  0.1980E-10  0.1218E-13  0.7603E-17  0.1000E-09  0.0000E+00  0.4305E+16
   -1.099999    1.51746  0.1978E-10  0.1218E-13  0.7603E-17  0.1000E-09  0.0000E+00  0.4132E+16
   -1.168752    1.62245  0.1976E-10  0.1218E-13  0.7603E-17  0.1000E-09  0.0000E+00  0.3956E+16
   -1.237505    1.72772  0.1973E-10  0.1218E-13  0.7603E-17  0.1000E-09  0.0000E+00  0.3777E+16
   -1.306257    1.83322  0.1969E-10  0.1218E-13  0.7603E-17  0.1000E-09  0.0000E+00  0.3597E+16
   -1.375010    1.93892  0.1965E-10  0.1218E-13  0.7603E-17  0.1000E-09  0.0000E+00  0.3419E+16
   -1.443763    2.04489  0.1960E-10  0.1218E-13  0.7603E-17  0.1000E-09  0.0000E+00  0.3242E+16
   -1.512516    2.15124  0.1954E-10  0.1218E-13  0.7603E-17  0.1000E-09  0.0000E+00  0.3069E+16
   -1.581268    2.25812  0.1949E-10  0.1218E-13  0.7603E-17  0.1000E-09  0.0000E+00  0.2902E+16
   -1.650021    2.36586  0.1944E-10  0.1218E-13  0.7603E-17  0.1000E-09  0.0000E+00  0.2744E+16
   -1.718773    2.47496  0.1939E-10  0.1218E-13  0.7603E-17  0.1000E-09  0.0000E+00  0.2590E+16
   -1.787526    2.58593  0.1936E-10  0.1218E-13  0.7603E-17  0.1000E-09  0.0000E+00  0.2349E+16
   -1.856278    2.69499  0.1933E-10  0.1218E-13  0.7603E-17  0.1000E-09  0.0000E+00  0.2112E+16
   -1.925030    2.80175  0.1930E-10  0.1218E-13  0.7603E-17  0.1000E-09  0.0000E+00  0.1873E+16
   -1.993781    2.90542  0.1928E-10  0.1218E-13  0.7603E-17  0.1000E-09  0.0000E+00  0.1654E+16
   -2.062532    3.00619  0.1926E-10  0.1218E-13  0.7603E-17  0.1000E-09  0.0000E+00  0.1499E+16
   -2.131283    3.10761  0.1924E-10  0.1218E-13  0.7603E-17  0.1000E-09  0.0000E+00  0.1347E+16
   -2.200034    3.21016  0.1923E-10  0.1218E-13  0.7603E-17  0.1000E-09  0.0000E+00  0.1194E+16
   -2.268784    3.31423  0.1921E-10  0.1218E-13  0.7603E-17  0.1000E-09  0.0000E+00  0.1029E+16
   -2.337534    3.41923  0.1920E-10  0.1218E-13  0.7603E-17  0.1000E-09  0.0000E+00  0.8598E+15
   -2.406283    3.52511  0.1919E-10  0.3283E-13  0.1901E-16  0.1000E-09  0.0000E+00  0.6878E+15
   -2.475031    3.63211  0.1919E-10  0.1928E-12  0.1068E-15  0.1000E-09  0.0000E+00  0.5114E+15
   -2.543780    3.74038  0.1918E-10  0.1172E-11  0.6266E-15  0.1000E-09  0.0000E+00  0.3293E+15
   -2.612527    3.85004  0.1918E-10  0.7336E-11  0.3805E-14  0.1341E-09  0.0000E+00  0.1397E+15
   -2.681274    3.95871  0.1918E-10  0.5050E-10  0.2588E-13  0.4043E-07  0.0000E+00 -0.7524E+13
   -2.750020    4.02788  0.1918E-10  0.0000E+00  0.0000E+00  0.0000E+00  0.0000E+00  0.0000E+00
