 1 - depth, m
 2 - temperature, C
 3 - salinity, kg/kg
 4 - turbulent kinetic energy, m**2/s**2
 5 - dissipation rate, m**2/s**3
 6 - kinematic heat conductance, m**2/s
 7 - modulus of horizontal velocity, m/s
 8 - Richardson number, n/d
   -0.000000   -0.00000  0.3041E-13  0.1219E-13  0.7603E-17  0.1000E-09  0.0000E+00  0.6611E+16
   -0.068746    0.10053  0.4233E-12  0.1219E-13  0.7603E-17  0.1000E-09  0.0000E+00  0.6550E+16
   -0.137493    0.20295  0.9008E-12  0.1219E-13  0.7603E-17  0.1000E-09  0.0000E+00  0.6474E+16
   -0.206240    0.30717  0.1223E-11  0.1219E-13  0.7603E-17  0.1000E-09  0.0000E+00  0.6383E+16
   -0.274988    0.41308  0.1338E-11  0.1219E-13  0.7603E-17  0.1000E-09  0.0000E+00  0.6276E+16
   -0.343736    0.52056  0.1314E-11  0.1219E-13  0.7603E-17  0.1000E-09  0.0000E+00  0.6153E+16
   -0.412485    0.62949  0.1231E-11  0.1219E-13  0.7603E-17  0.1000E-09  0.0000E+00  0.6017E+16
   -0.481234    0.73974  0.1144E-11  0.1219E-13  0.7603E-17  0.1000E-09  0.0000E+00  0.5868E+16
   -0.549984    0.85120  0.1077E-11  0.1219E-13  0.7603E-17  0.1000E-09  0.0000E+00  0.5707E+16
   -0.618734    0.96376  0.1034E-11  0.1219E-13  0.7603E-17  0.1000E-09  0.0000E+00  0.5535E+16
   -0.687485    1.07730  0.1009E-11  0.1219E-13  0.7603E-17  0.1000E-09  0.0000E+00  0.5352E+16
   -0.756236    1.19171  0.9958E-12  0.1219E-13  0.7603E-17  0.1000E-09  0.0000E+00  0.5161E+16
   -0.824987    1.30688  0.9895E-12  0.1219E-13  0.7603E-17  0.1000E-09  0.0000E+00  0.4962E+16
   -0.893739    1.42271  0.9865E-12  0.1219E-13  0.7603E-17  0.1000E-09  0.0000E+00  0.4757E+16
   -0.962491    1.53911  0.9848E-12  0.1219E-13  0.7603E-17  0.1000E-09  0.0000E+00  0.4545E+16
   -1.031243    1.65599  0.9836E-12  0.1219E-13  0.7603E-17  0.1000E-09  0.0000E+00  0.4329E+16
   -1.099995    1.77327  0.9822E-12  0.1219E-13  0.7603E-17  0.1000E-09  0.0000E+00  0.4108E+16
   -1.168747    1.89087  0.9804E-12  0.1219E-13  0.7603E-17  0.1000E-09  0.0000E+00  0.3885E+16
   -1.237500    2.00873  0.9783E-12  0.1219E-13  0.7603E-17  0.1000E-09  0.0000E+00  0.3659E+16
   -1.306252    2.12680  0.9757E-12  0.1219E-13  0.7603E-17  0.1000E-09  0.0000E+00  0.3432E+16
   -1.375005    2.24502  0.9729E-12  0.1219E-13  0.7603E-17  0.1000E-09  0.0000E+00  0.3204E+16
   -1.443757    2.36337  0.9700E-12  0.1219E-13  0.7603E-17  0.1000E-09  0.0000E+00  0.2975E+16
   -1.512510    2.48183  0.9671E-12  0.1219E-13  0.7603E-17  0.1000E-09  0.0000E+00  0.2746E+16
   -1.581262    2.60036  0.9645E-12  0.1219E-13  0.7603E-17  0.1000E-09  0.0000E+00  0.2517E+16
   -1.650014    2.71896  0.9623E-12  0.1219E-13  0.7603E-17  0.1000E-09  0.0000E+00  0.2289E+16
   -1.718766    2.83760  0.9604E-12  0.1219E-13  0.7603E-17  0.1000E-09  0.0000E+00  0.2059E+16
   -1.787518    2.95619  0.9589E-12  0.3600E-13  0.9916E-17  0.1000E-09  0.0000E+00  0.1801E+16
   -1.856270    3.07270  0.9577E-12  0.1278E-12  0.2940E-16  0.1000E-09  0.0000E+00  0.1550E+16
   -1.925022    3.18662  0.9567E-12  0.4250E-12  0.9297E-16  0.1000E-09  0.0000E+00  0.1306E+16
   -1.993773    3.29726  0.9559E-12  0.1380E-11  0.2913E-15  0.1000E-09  0.0000E+00  0.1079E+16
   -2.062524    3.40454  0.9553E-12  0.4312E-11  0.8806E-15  0.1000E-09  0.0000E+00  0.8909E+15
   -2.131275    3.51126  0.9548E-12  0.1324E-10  0.2617E-14  0.1000E-09  0.0000E+00  0.7082E+15
   -2.200025    3.61772  0.9545E-12  0.4013E-10  0.7677E-14  0.1000E-09  0.0000E+00  0.5274E+15
   -2.268775    3.72390  0.9543E-12  0.1212E-09  0.2245E-13  0.3269E-09  0.0000E+00  0.3480E+15
   -2.337524    3.82953  0.9542E-12  0.3682E-09  0.6614E-13  0.1953E-08  0.0000E+00  0.1710E+15
   -2.406273    3.93351  0.9541E-12  0.1091E-08  0.1909E-12  0.5176E-07  0.0000E+00  0.1746E+14
   -2.475021    4.00999  0.9541E-12  0.2193E-08  0.3898E-12  0.5706E-05  0.0000E+00 -0.9801E+12
   -2.543769    4.01250  0.9541E-12  0.2538E-08  0.5061E-12  0.5167E-05  0.0000E+00 -0.1175E+13
   -2.612517    4.01522  0.9541E-12  0.2560E-08  0.6912E-12  0.3261E-05  0.0000E+00 -0.1992E+13
   -2.681263    4.01933  0.9541E-12  0.1874E-08  0.1466E-11  0.5352E-06  0.0000E+00 -0.1198E+14
   -2.750009    4.03749  0.9541E-12  0.0000E+00  0.0000E+00  0.0000E+00  0.0000E+00  0.0000E+00
