 1 - depth, m
 2 - temperature, C
 3 - salinity, kg/kg
 4 - turbulent kinetic energy, m**2/s**2
 5 - dissipation rate, m**2/s**3
 6 - kinematic heat conductance, m**2/s
 7 - modulus of horizontal velocity, m/s
 8 - Richardson number, n/d
   -0.000000   -0.00000  0.9905E-10  0.1219E-13  0.7603E-17  0.1000E-09  0.0000E+00  0.6957E+16
   -0.068746    0.10586  0.5785E-10  0.1219E-13  0.7603E-17  0.1000E-09  0.0000E+00  0.6697E+16
   -0.137492    0.21077  0.4144E-10  0.1219E-13  0.7603E-17  0.1000E-09  0.0000E+00  0.6457E+16
   -0.206239    0.31493  0.3587E-10  0.1219E-13  0.7603E-17  0.1000E-09  0.0000E+00  0.6234E+16
   -0.274987    0.41857  0.3425E-10  0.1219E-13  0.7603E-17  0.1000E-09  0.0000E+00  0.6027E+16
   -0.343735    0.52190  0.3384E-10  0.1219E-13  0.7603E-17  0.1000E-09  0.0000E+00  0.5835E+16
   -0.412483    0.62513  0.3375E-10  0.1219E-13  0.7603E-17  0.1000E-09  0.0000E+00  0.5655E+16
   -0.481232    0.72849  0.3373E-10  0.1219E-13  0.7603E-17  0.1000E-09  0.0000E+00  0.5485E+16
   -0.549982    0.83217  0.3373E-10  0.1219E-13  0.7603E-17  0.1000E-09  0.0000E+00  0.5324E+16
   -0.618732    0.93635  0.3373E-10  0.1219E-13  0.7603E-17  0.1000E-09  0.0000E+00  0.5169E+16
   -0.687482    1.04122  0.3373E-10  0.1219E-13  0.7603E-17  0.1000E-09  0.0000E+00  0.5029E+16
   -0.756233    1.14714  0.3373E-10  0.1219E-13  0.7603E-17  0.1000E-09  0.0000E+00  0.4895E+16
   -0.824984    1.25436  0.3373E-10  0.1219E-13  0.7603E-17  0.1000E-09  0.0000E+00  0.4759E+16
   -0.893735    1.36302  0.3372E-10  0.1219E-13  0.7603E-17  0.1000E-09  0.0000E+00  0.4620E+16
   -0.962487    1.47318  0.3371E-10  0.1219E-13  0.7603E-17  0.1000E-09  0.0000E+00  0.4475E+16
   -1.031238    1.58493  0.3368E-10  0.1219E-13  0.7603E-17  0.1000E-09  0.0000E+00  0.4324E+16
   -1.099990    1.69829  0.3362E-10  0.1219E-13  0.7603E-17  0.1000E-09  0.0000E+00  0.4164E+16
   -1.168742    1.81327  0.3352E-10  0.1219E-13  0.7603E-17  0.1000E-09  0.0000E+00  0.3996E+16
   -1.237494    1.92987  0.3338E-10  0.1219E-13  0.7603E-17  0.1000E-09  0.0000E+00  0.3817E+16
   -1.306247    2.04802  0.3322E-10  0.1219E-13  0.7603E-17  0.1000E-09  0.0000E+00  0.3628E+16
   -1.374999    2.16766  0.3306E-10  0.1219E-13  0.7603E-17  0.1000E-09  0.0000E+00  0.3432E+16
   -1.443751    2.28882  0.3294E-10  0.1219E-13  0.7603E-17  0.1000E-09  0.0000E+00  0.3226E+16
   -1.512503    2.41142  0.3285E-10  0.1219E-13  0.7603E-17  0.1000E-09  0.0000E+00  0.3008E+16
   -1.581255    2.53529  0.3280E-10  0.1219E-13  0.7603E-17  0.1000E-09  0.0000E+00  0.2779E+16
   -1.650007    2.66024  0.3276E-10  0.3126E-13  0.8407E-17  0.1000E-09  0.0000E+00  0.2539E+16
   -1.718759    2.78601  0.3274E-10  0.1035E-12  0.2261E-16  0.1000E-09  0.0000E+00  0.2293E+16
   -1.787511    2.91241  0.3273E-10  0.3279E-12  0.6783E-16  0.1000E-09  0.0000E+00  0.2053E+16
   -1.856263    3.04012  0.3272E-10  0.1022E-11  0.2039E-15  0.1000E-09  0.0000E+00  0.1806E+16
   -1.925014    3.16904  0.3271E-10  0.3143E-11  0.6068E-15  0.1000E-09  0.0000E+00  0.1551E+16
   -1.993765    3.29910  0.3270E-10  0.9571E-11  0.1789E-14  0.1000E-09  0.0000E+00  0.1286E+16
   -2.062516    3.42985  0.3267E-10  0.2816E-10  0.5100E-14  0.1000E-09  0.0000E+00  0.1012E+16
   -2.131266    3.56028  0.3264E-10  0.8156E-10  0.1431E-13  0.1000E-09  0.0000E+00  0.7381E+15
   -2.200016    3.69000  0.3262E-10  0.2333E-09  0.3970E-13  0.4302E-09  0.0000E+00  0.4684E+15
   -2.268765    3.81832  0.3260E-10  0.6648E-09  0.1097E-12  0.2681E-08  0.0000E+00  0.2071E+15
   -2.337514    3.94357  0.3260E-10  0.1803E-08  0.2909E-12  0.1307E-06  0.0000E+00  0.1020E+14
   -2.406263    4.00925  0.3260E-10  0.3091E-08  0.5098E-12  0.8124E-05  0.0000E+00 -0.8249E+12
   -2.475011    4.01144  0.3260E-10  0.3598E-08  0.6465E-12  0.7954E-05  0.0000E+00 -0.9449E+12
   -2.543759    4.01374  0.3260E-10  0.3890E-08  0.8367E-12  0.6579E-05  0.0000E+00 -0.1301E+13
   -2.612506    4.01661  0.3260E-10  0.3911E-08  0.1237E-11  0.3953E-05  0.0000E+00 -0.2629E+13
   -2.681252    4.02172  0.3260E-10  0.3257E-08  0.3096E-11  0.8667E-06  0.0000E+00 -0.2002E+14
   -2.749998    4.04805  0.3260E-10  0.0000E+00  0.0000E+00  0.0000E+00  0.0000E+00  0.0000E+00
