 1 - depth, m
 2 - temperature, C
 3 - salinity, kg/kg
 4 - turbulent kinetic energy, m**2/s**2
 5 - dissipation rate, m**2/s**3
 6 - kinematic heat conductance, m**2/s
 7 - modulus of horizontal velocity, m/s
 8 - Richardson number, n/d
   -0.000000   -0.00000  0.8908E-10  0.1219E-13  0.7603E-17  0.1000E-09  0.0000E+00  0.7681E+16
   -0.068746    0.11706  0.6730E-10  0.1219E-13  0.7603E-17  0.1000E-09  0.0000E+00  0.7414E+16
   -0.137492    0.23375  0.5061E-10  0.1219E-13  0.7603E-17  0.1000E-09  0.0000E+00  0.7149E+16
   -0.206239    0.35004  0.4121E-10  0.1219E-13  0.7603E-17  0.1000E-09  0.0000E+00  0.6884E+16
   -0.274987    0.46589  0.3669E-10  0.1219E-13  0.7603E-17  0.1000E-09  0.0000E+00  0.6621E+16
   -0.343735    0.58126  0.3479E-10  0.1219E-13  0.7603E-17  0.1000E-09  0.0000E+00  0.6361E+16
   -0.412484    0.69613  0.3407E-10  0.1219E-13  0.7603E-17  0.1000E-09  0.0000E+00  0.6103E+16
   -0.481233    0.81046  0.3383E-10  0.1219E-13  0.7603E-17  0.1000E-09  0.0000E+00  0.5848E+16
   -0.549982    0.92424  0.3376E-10  0.1219E-13  0.7603E-17  0.1000E-09  0.0000E+00  0.5595E+16
   -0.618732    1.03744  0.3373E-10  0.1219E-13  0.7603E-17  0.1000E-09  0.0000E+00  0.5346E+16
   -0.687483    1.15003  0.3373E-10  0.1219E-13  0.7603E-17  0.1000E-09  0.0000E+00  0.5106E+16
   -0.756233    1.26211  0.3372E-10  0.1219E-13  0.7603E-17  0.1000E-09  0.0000E+00  0.4871E+16
   -0.824984    1.37372  0.3371E-10  0.1219E-13  0.7603E-17  0.1000E-09  0.0000E+00  0.4639E+16
   -0.893736    1.48485  0.3369E-10  0.1219E-13  0.7603E-17  0.1000E-09  0.0000E+00  0.4409E+16
   -0.962487    1.59546  0.3365E-10  0.1219E-13  0.7603E-17  0.1000E-09  0.0000E+00  0.4182E+16
   -1.031239    1.70552  0.3359E-10  0.1219E-13  0.7603E-17  0.1000E-09  0.0000E+00  0.3957E+16
   -1.099991    1.81500  0.3350E-10  0.1219E-13  0.7603E-17  0.1000E-09  0.0000E+00  0.3735E+16
   -1.168743    1.92387  0.3340E-10  0.1219E-13  0.7603E-17  0.1000E-09  0.0000E+00  0.3516E+16
   -1.237495    2.03209  0.3327E-10  0.1219E-13  0.7603E-17  0.1000E-09  0.0000E+00  0.3300E+16
   -1.306247    2.13960  0.3315E-10  0.1219E-13  0.7603E-17  0.1000E-09  0.0000E+00  0.3087E+16
   -1.375000    2.24637  0.3303E-10  0.1219E-13  0.7603E-17  0.1000E-09  0.0000E+00  0.2879E+16
   -1.443752    2.35241  0.3293E-10  0.1219E-13  0.7603E-17  0.1000E-09  0.0000E+00  0.2675E+16
   -1.512504    2.45770  0.3286E-10  0.1219E-13  0.7603E-17  0.1000E-09  0.0000E+00  0.2474E+16
   -1.581256    2.56217  0.3280E-10  0.1219E-13  0.7603E-17  0.1000E-09  0.0000E+00  0.2276E+16
   -1.650008    2.66577  0.3277E-10  0.1219E-13  0.7603E-17  0.1000E-09  0.0000E+00  0.2083E+16
   -1.718760    2.76843  0.3274E-10  0.1219E-13  0.7603E-17  0.1000E-09  0.0000E+00  0.1894E+16
   -1.787512    2.87013  0.3273E-10  0.1219E-13  0.7603E-17  0.1000E-09  0.0000E+00  0.1721E+16
   -1.856264    2.97153  0.3271E-10  0.1219E-13  0.7603E-17  0.1000E-09  0.0000E+00  0.1551E+16
   -1.925015    3.07263  0.3270E-10  0.1219E-13  0.7603E-17  0.1000E-09  0.0000E+00  0.1382E+16
   -1.993766    3.17339  0.3268E-10  0.1219E-13  0.7603E-17  0.1000E-09  0.0000E+00  0.1212E+16
   -2.062517    3.27363  0.3266E-10  0.1219E-13  0.7603E-17  0.1000E-09  0.0000E+00  0.1045E+16
   -2.131267    3.37322  0.3264E-10  0.4397E-13  0.1929E-16  0.1000E-09  0.0000E+00  0.8809E+15
   -2.200017    3.47210  0.3262E-10  0.2041E-12  0.8382E-16  0.1000E-09  0.0000E+00  0.7199E+15
   -2.268767    3.57017  0.3261E-10  0.9364E-12  0.3695E-15  0.1000E-09  0.0000E+00  0.5645E+15
   -2.337516    3.66768  0.3261E-10  0.4288E-11  0.1631E-14  0.1000E-09  0.0000E+00  0.4125E+15
   -2.406265    3.76475  0.3260E-10  0.1949E-10  0.7154E-14  0.1352E-09  0.0000E+00  0.2631E+15
   -2.475013    3.86143  0.3260E-10  0.8843E-10  0.3144E-13  0.1318E-08  0.0000E+00  0.1156E+15
   -2.543760    3.95716  0.3260E-10  0.3920E-09  0.1365E-12  0.1067E-06  0.0000E+00  0.1351E+13
   -2.612507    4.01236  0.3260E-10  0.1294E-08  0.5769E-12  0.1113E-05  0.0000E+00 -0.5729E+13
   -2.681254    4.02386  0.3260E-10  0.1506E-08  0.1418E-11  0.4773E-06  0.0000E+00 -0.2230E+14
   -2.749999    4.05157  0.3260E-10  0.0000E+00  0.0000E+00  0.0000E+00  0.0000E+00  0.0000E+00
