 1 - depth, m
 2 - temperature, C
 3 - salinity, kg/kg
 4 - turbulent kinetic energy, m**2/s**2
 5 - dissipation rate, m**2/s**3
 6 - kinematic heat conductance, m**2/s
 7 - modulus of horizontal velocity, m/s
 8 - Richardson number, n/d
   -0.000000   -0.00000  0.1440E-10  0.1219E-13  0.7603E-17  0.1000E-09  0.0000E+00  0.8095E+16
   -0.068746    0.12348  0.8839E-11  0.1219E-13  0.7603E-17  0.1000E-09  0.0000E+00  0.7772E+16
   -0.137492    0.24612  0.6334E-11  0.1219E-13  0.7603E-17  0.1000E-09  0.0000E+00  0.7468E+16
   -0.206239    0.36814  0.5422E-11  0.1219E-13  0.7603E-17  0.1000E-09  0.0000E+00  0.7183E+16
   -0.274987    0.48979  0.5139E-11  0.1219E-13  0.7603E-17  0.1000E-09  0.0000E+00  0.6915E+16
   -0.343735    0.61127  0.5061E-11  0.1219E-13  0.7603E-17  0.1000E-09  0.0000E+00  0.6660E+16
   -0.412483    0.73283  0.5043E-11  0.1219E-13  0.7603E-17  0.1000E-09  0.0000E+00  0.6418E+16
   -0.481232    0.85467  0.5039E-11  0.1219E-13  0.7603E-17  0.1000E-09  0.0000E+00  0.6185E+16
   -0.549982    0.97702  0.5038E-11  0.1219E-13  0.7603E-17  0.1000E-09  0.0000E+00  0.5959E+16
   -0.618732    1.10005  0.5038E-11  0.1219E-13  0.7603E-17  0.1000E-09  0.0000E+00  0.5738E+16
   -0.687482    1.22396  0.5038E-11  0.1219E-13  0.7603E-17  0.1000E-09  0.0000E+00  0.5530E+16
   -0.756233    1.34913  0.5038E-11  0.1219E-13  0.7603E-17  0.1000E-09  0.0000E+00  0.5326E+16
   -0.824984    1.47584  0.5037E-11  0.1219E-13  0.7603E-17  0.1000E-09  0.0000E+00  0.5117E+16
   -0.893735    1.60422  0.5037E-11  0.1219E-13  0.7603E-17  0.1000E-09  0.0000E+00  0.4903E+16
   -0.962487    1.73435  0.5035E-11  0.1774E-13  0.7603E-17  0.1000E-09  0.0000E+00  0.4680E+16
   -1.031239    1.86631  0.5031E-11  0.7142E-13  0.1115E-16  0.1000E-09  0.0000E+00  0.4448E+16
   -1.099990    2.00014  0.5023E-11  0.1958E-12  0.2502E-16  0.1000E-09  0.0000E+00  0.4206E+16
   -1.168742    2.13585  0.5009E-11  0.4785E-12  0.5776E-16  0.1000E-09  0.0000E+00  0.3951E+16
   -1.237495    2.27343  0.4990E-11  0.1127E-11  0.1317E-15  0.1000E-09  0.0000E+00  0.3684E+16
   -1.306247    2.41282  0.4968E-11  0.2609E-11  0.2965E-15  0.1000E-09  0.0000E+00  0.3403E+16
   -1.374999    2.55395  0.4946E-11  0.5968E-11  0.6604E-15  0.1000E-09  0.0000E+00  0.3113E+16
   -1.443751    2.69684  0.4928E-11  0.1351E-10  0.1456E-14  0.1000E-09  0.0000E+00  0.2810E+16
   -1.512504    2.84141  0.4915E-11  0.3026E-10  0.3178E-14  0.1000E-09  0.0000E+00  0.2495E+16
   -1.581256    2.98748  0.4907E-11  0.6711E-10  0.6870E-14  0.1000E-09  0.0000E+00  0.2168E+16
   -1.650008    3.13486  0.4901E-11  0.1474E-09  0.1471E-13  0.1000E-09  0.0000E+00  0.1830E+16
   -1.718760    3.28333  0.4898E-11  0.3209E-09  0.3123E-13  0.1070E-09  0.0000E+00  0.1485E+16
   -1.787511    3.43272  0.4894E-11  0.7081E-09  0.6719E-13  0.2978E-09  0.0000E+00  0.1148E+16
   -1.856263    3.58505  0.4889E-11  0.1575E-08  0.1458E-12  0.9388E-09  0.0000E+00  0.7903E+15
   -1.925014    3.74007  0.4884E-11  0.3494E-08  0.3157E-12  0.3901E-08  0.0000E+00  0.4117E+15
   -1.993765    3.89562  0.4882E-11  0.7508E-08  0.6649E-12  0.5676E-07  0.0000E+00  0.5929E+14
   -2.062516    4.01201  0.4882E-11  0.8426E-08  0.7503E-12  0.3942E-04  0.0000E+00 -0.2367E+12
   -2.131266    4.01259  0.4882E-11  0.8805E-08  0.7947E-12  0.3964E-04  0.0000E+00 -0.2408E+12
   -2.200016    4.01317  0.4882E-11  0.9100E-08  0.8417E-12  0.3900E-04  0.0000E+00 -0.2502E+12
   -2.268766    4.01376  0.4882E-11  0.9316E-08  0.8946E-12  0.3747E-04  0.0000E+00 -0.2667E+12
   -2.337515    4.01437  0.4882E-11  0.9460E-08  0.9604E-12  0.3487E-04  0.0000E+00 -0.2938E+12
   -2.406263    4.01503  0.4882E-11  0.9522E-08  0.1049E-11  0.3103E-04  0.0000E+00 -0.3394E+12
   -2.475012    4.01578  0.4882E-11  0.9478E-08  0.1184E-11  0.2572E-04  0.0000E+00 -0.4234E+12
   -2.543759    4.01668  0.4882E-11  0.9268E-08  0.1424E-11  0.1870E-04  0.0000E+00 -0.6080E+12
   -2.612506    4.01793  0.4882E-11  0.8700E-08  0.2008E-11  0.9967E-05  0.0000E+00 -0.1226E+13
   -2.681252    4.02032  0.4882E-11  0.6262E-08  0.5616E-11  0.1300E-05  0.0000E+00 -0.1215E+14
   -2.749998    4.03835  0.4882E-11  0.0000E+00  0.0000E+00  0.0000E+00  0.0000E+00  0.0000E+00
