 1 - depth, m
 2 - temperature, C
 3 - salinity, kg/kg
 4 - turbulent kinetic energy, m**2/s**2
 5 - dissipation rate, m**2/s**3
 6 - kinematic heat conductance, m**2/s
 7 - modulus of horizontal velocity, m/s
 8 - Richardson number, n/d
   -0.000000   14.56116  0.5575E-10  0.1584E-04  0.8231E-06  0.3380E-04  0.2831E-01 -0.2656E-01
   -0.068746   14.58605  0.5575E-10  0.1470E-04  0.2706E-06  0.9224E-04  0.1813E-01 -0.7112E-01
   -0.137492   14.59443  0.5575E-10  0.1414E-04  0.1517E-06  0.1599E-03  0.1464E-01 -0.1193E+00
   -0.206239   14.59905  0.5575E-10  0.1379E-04  0.1030E-06  0.2382E-03  0.1264E-01 -0.1702E+00
   -0.274987   14.60202  0.5575E-10  0.1356E-04  0.7737E-07  0.3459E-03  0.1130E-01 -0.9494E-01
   -0.343735   14.60401  0.5575E-10  0.1341E-04  0.6226E-07  0.5882E-03  0.1034E-01  0.6482E+02
   -0.412484   14.60525  0.5575E-10  0.1335E-04  0.5278E-07  0.9194E-03  0.9634E-02  0.6217E+02
   -0.481233   14.60601  0.5575E-10  0.1336E-04  0.4637E-07  0.1215E-02  0.9074E-02  0.9814E+01
   -0.549983   14.60652  0.5575E-10  0.1343E-04  0.4156E-07  0.1267E-02  0.8585E-02  0.8447E+01
   -0.618733   14.60699  0.5575E-10  0.1352E-04  0.3767E-07  0.1340E-02  0.8112E-02  0.9367E+01
   -0.687483   14.60742  0.5575E-10  0.1362E-04  0.3453E-07  0.1402E-02  0.7668E-02  0.9877E+01
   -0.756234   14.60782  0.5575E-10  0.1372E-04  0.3193E-07  0.1466E-02  0.7246E-02  0.1044E+02
   -0.824985   14.60820  0.5575E-10  0.1382E-04  0.2976E-07  0.1526E-02  0.6843E-02  0.1098E+02
   -0.893737   14.60856  0.5575E-10  0.1391E-04  0.2792E-07  0.1585E-02  0.6455E-02  0.1154E+02
   -0.962488   14.60890  0.5575E-10  0.1399E-04  0.2636E-07  0.1642E-02  0.6079E-02  0.1213E+02
   -1.031240   14.60922  0.5575E-10  0.1405E-04  0.2500E-07  0.1695E-02  0.5714E-02  0.1277E+02
   -1.099992   14.60953  0.5575E-10  0.1409E-04  0.2383E-07  0.1746E-02  0.5357E-02  0.1348E+02
   -1.168744   14.60983  0.5575E-10  0.1410E-04  0.2281E-07  0.1791E-02  0.5007E-02  0.1429E+02
   -1.237496   14.61011  0.5575E-10  0.1409E-04  0.2192E-07  0.1832E-02  0.4664E-02  0.1524E+02
   -1.306249   14.61039  0.5575E-10  0.1405E-04  0.2114E-07  0.1865E-02  0.4324E-02  0.1639E+02
   -1.375001   14.61066  0.5575E-10  0.1398E-04  0.2046E-07  0.1889E-02  0.3988E-02  0.1787E+02
   -1.443753   14.61093  0.5575E-10  0.1387E-04  0.1986E-07  0.1903E-02  0.3655E-02  0.1983E+02
   -1.512506   14.61119  0.5575E-10  0.1372E-04  0.1933E-07  0.1905E-02  0.3323E-02  0.2269E+02
   -1.581258   14.61145  0.5575E-10  0.1353E-04  0.1886E-07  0.1892E-02  0.2992E-02  0.2715E+02
   -1.650010   14.61172  0.5575E-10  0.1329E-04  0.1846E-07  0.1867E-02  0.2660E-02  0.3512E+02
   -1.718762   14.61198  0.5575E-10  0.1301E-04  0.1810E-07  0.1819E-02  0.2329E-02  0.4546E+02
   -1.787514   14.61225  0.5575E-10  0.1266E-04  0.1777E-07  0.1800E-02  0.1994E-02  0.8838E+01
   -1.856265   14.61253  0.5575E-10  0.1227E-04  0.1753E-07  0.1786E-02  0.1708E-02  0.4190E+01
   -1.925017   14.61280  0.5575E-10  0.1184E-04  0.1741E-07  0.1792E-02  0.1466E-02  0.2512E+01
   -1.993768   14.61308  0.5575E-10  0.1141E-04  0.1746E-07  0.1821E-02  0.1263E-02  0.1791E+01
   -2.062519   14.61335  0.5575E-10  0.1099E-04  0.1769E-07  0.1852E-02  0.1094E-02  0.1465E+01
   -2.131269   14.61361  0.5575E-10  0.1058E-04  0.1814E-07  0.1784E-02  0.9456E-03  0.1206E+01
   -2.200019   14.61388  0.5575E-10  0.1021E-04  0.1883E-07  0.1646E-02  0.8152E-03  0.9922E+00
   -2.268769   14.61418  0.5575E-10  0.9862E-05  0.1979E-07  0.1498E-02  0.7014E-03  0.7814E+00
   -2.337518   14.61451  0.5575E-10  0.9540E-05  0.2112E-07  0.1338E-02  0.6067E-03  0.6473E+00
   -2.406267   14.61488  0.5575E-10  0.9220E-05  0.2310E-07  0.1217E-02  0.5295E-03  0.8080E+00
   -2.475015   14.61529  0.5575E-10  0.8838E-05  0.2693E-07  0.9811E-03  0.4631E-03  0.4471E+03
   -2.543762   14.61589  0.5575E-10  0.8277E-05  0.3509E-07  0.8231E-03  0.3911E-03  0.1920E+03
   -2.612510   14.61665  0.5575E-10  0.7207E-05  0.5964E-07  0.4201E-03  0.3209E-03  0.2389E+03
   -2.681256   14.61942  0.5575E-10  0.4354E-05  0.1996E-06  0.8746E-04  0.2090E-03 -0.7473E+04
   -2.750002   14.62669  0.5575E-10  0.0000E+00  0.0000E+00  0.0000E+00  0.2538E-03  0.0000E+00
