 1 - depth, m
 2 - temperature, C
 3 - salinity, kg/kg
 4 - turbulent kinetic energy, m**2/s**2
 5 - dissipation rate, m**2/s**3
 6 - kinematic heat conductance, m**2/s
 7 - modulus of horizontal velocity, m/s
 8 - Richardson number, n/d
   -0.000000   -0.00000  0.8313E-12  0.1219E-13  0.7603E-17  0.1000E-09  0.0000E+00  0.7724E+16
   -0.068746    0.11773  0.1409E-11  0.1219E-13  0.7603E-17  0.1000E-09  0.0000E+00  0.7595E+16
   -0.137493    0.23734  0.1507E-11  0.1219E-13  0.7603E-17  0.1000E-09  0.0000E+00  0.7428E+16
   -0.206240    0.35839  0.1423E-11  0.1219E-13  0.7603E-17  0.1000E-09  0.0000E+00  0.7232E+16
   -0.274988    0.48051  0.1285E-11  0.1219E-13  0.7603E-17  0.1000E-09  0.0000E+00  0.7015E+16
   -0.343736    0.60343  0.1161E-11  0.1219E-13  0.7603E-17  0.1000E-09  0.0000E+00  0.6782E+16
   -0.412485    0.72693  0.1076E-11  0.1219E-13  0.7603E-17  0.1000E-09  0.0000E+00  0.6536E+16
   -0.481234    0.85083  0.1028E-11  0.1219E-13  0.7603E-17  0.1000E-09  0.0000E+00  0.6281E+16
   -0.549984    0.97495  0.1004E-11  0.1219E-13  0.7603E-17  0.1000E-09  0.0000E+00  0.6019E+16
   -0.618734    1.09914  0.9926E-12  0.1219E-13  0.7603E-17  0.1000E-09  0.0000E+00  0.5751E+16
   -0.687485    1.22328  0.9879E-12  0.1219E-13  0.7603E-17  0.1000E-09  0.0000E+00  0.5482E+16
   -0.756236    1.34730  0.9859E-12  0.1219E-13  0.7603E-17  0.1000E-09  0.0000E+00  0.5211E+16
   -0.824987    1.47114  0.9849E-12  0.1219E-13  0.7603E-17  0.1000E-09  0.0000E+00  0.4940E+16
   -0.893738    1.59470  0.9840E-12  0.1219E-13  0.7603E-17  0.1000E-09  0.0000E+00  0.4669E+16
   -0.962490    1.71792  0.9830E-12  0.1219E-13  0.7603E-17  0.1000E-09  0.0000E+00  0.4399E+16
   -1.031242    1.84074  0.9816E-12  0.1219E-13  0.7603E-17  0.1000E-09  0.0000E+00  0.4131E+16
   -1.099994    1.96309  0.9796E-12  0.1219E-13  0.7603E-17  0.1000E-09  0.0000E+00  0.3865E+16
   -1.168746    2.08493  0.9772E-12  0.1219E-13  0.7603E-17  0.1000E-09  0.0000E+00  0.3601E+16
   -1.237499    2.20620  0.9743E-12  0.1219E-13  0.7603E-17  0.1000E-09  0.0000E+00  0.3341E+16
   -1.306251    2.32686  0.9712E-12  0.1219E-13  0.7603E-17  0.1000E-09  0.0000E+00  0.3085E+16
   -1.375004    2.44686  0.9682E-12  0.1219E-13  0.7603E-17  0.1000E-09  0.0000E+00  0.2832E+16
   -1.443756    2.56619  0.9653E-12  0.1219E-13  0.7603E-17  0.1000E-09  0.0000E+00  0.2585E+16
   -1.512509    2.68484  0.9628E-12  0.5936E-13  0.1092E-16  0.1000E-09  0.0000E+00  0.2341E+16
   -1.581261    2.80277  0.9608E-12  0.1758E-12  0.2617E-16  0.1000E-09  0.0000E+00  0.2103E+16
   -1.650013    2.91999  0.9591E-12  0.4582E-12  0.6443E-16  0.1000E-09  0.0000E+00  0.1870E+16
   -1.718765    3.03652  0.9578E-12  0.1149E-11  0.1562E-15  0.1000E-09  0.0000E+00  0.1641E+16
   -1.787517    3.15234  0.9569E-12  0.2903E-11  0.3831E-15  0.1000E-09  0.0000E+00  0.1403E+16
   -1.856269    3.26619  0.9560E-12  0.7359E-11  0.9438E-15  0.1000E-09  0.0000E+00  0.1174E+16
   -1.925021    3.37777  0.9554E-12  0.1857E-10  0.2315E-14  0.1000E-09  0.0000E+00  0.9533E+15
   -1.993772    3.48664  0.9548E-12  0.4659E-10  0.5650E-14  0.1000E-09  0.0000E+00  0.7476E+15
   -2.062523    3.59274  0.9545E-12  0.1136E-09  0.1341E-13  0.1204E-09  0.0000E+00  0.5663E+15
   -2.131273    3.69825  0.9543E-12  0.2735E-09  0.3142E-13  0.4107E-09  0.0000E+00  0.3890E+15
   -2.200023    3.80326  0.9542E-12  0.6520E-09  0.7294E-13  0.1733E-08  0.0000E+00  0.2139E+15
   -2.268773    3.90720  0.9541E-12  0.1540E-08  0.1680E-12  0.1787E-07  0.0000E+00  0.4746E+14
   -2.337523    4.00065  0.9541E-12  0.2323E-08  0.2555E-12  0.9375E-05  0.0000E+00 -0.3700E+12
   -2.406271    4.00221  0.9541E-12  0.2629E-08  0.3039E-12  0.9519E-05  0.0000E+00 -0.3995E+12
   -2.475020    4.00374  0.9541E-12  0.2823E-08  0.3605E-12  0.8700E-05  0.0000E+00 -0.4754E+12
   -2.543768    4.00540  0.9541E-12  0.2892E-08  0.4443E-12  0.6808E-05  0.0000E+00 -0.6615E+12
   -2.612515    4.00750  0.9541E-12  0.2758E-08  0.6254E-12  0.3771E-05  0.0000E+00 -0.1325E+13
   -2.681261    4.01118  0.9541E-12  0.1981E-08  0.1504E-11  0.5589E-06  0.0000E+00 -0.1072E+14
   -2.750007    4.03089  0.9541E-12  0.0000E+00  0.0000E+00  0.0000E+00  0.0000E+00  0.0000E+00
