 1 - depth, m
 2 - temperature, C
 3 - salinity, kg/kg
 4 - turbulent kinetic energy, m**2/s**2
 5 - dissipation rate, m**2/s**3
 6 - kinematic heat conductance, m**2/s
 7 - modulus of horizontal velocity, m/s
 8 - Richardson number, n/d
   -0.000000   -0.00000  0.3643E-11  0.1219E-13  0.7603E-17  0.1000E-09  0.0000E+00  0.8405E+16
   -0.068746    0.12829  0.2307E-11  0.1219E-13  0.7603E-17  0.1000E-09  0.0000E+00  0.8062E+16
   -0.137492    0.25578  0.1656E-11  0.1219E-13  0.7603E-17  0.1000E-09  0.0000E+00  0.7739E+16
   -0.206239    0.38266  0.1405E-11  0.1219E-13  0.7603E-17  0.1000E-09  0.0000E+00  0.7432E+16
   -0.274987    0.50915  0.1322E-11  0.1219E-13  0.7603E-17  0.1000E-09  0.0000E+00  0.7141E+16
   -0.343735    0.63546  0.1298E-11  0.1219E-13  0.7603E-17  0.1000E-09  0.0000E+00  0.6863E+16
   -0.412483    0.76178  0.1292E-11  0.1219E-13  0.7603E-17  0.1000E-09  0.0000E+00  0.6596E+16
   -0.481232    0.88831  0.1291E-11  0.1219E-13  0.7603E-17  0.1000E-09  0.0000E+00  0.6338E+16
   -0.549982    1.01524  0.1291E-11  0.1219E-13  0.7603E-17  0.1000E-09  0.0000E+00  0.6087E+16
   -0.618732    1.14274  0.1290E-11  0.1219E-13  0.7603E-17  0.1000E-09  0.0000E+00  0.5840E+16
   -0.687482    1.27098  0.1290E-11  0.1219E-13  0.7603E-17  0.1000E-09  0.0000E+00  0.5605E+16
   -0.756233    1.40031  0.1290E-11  0.1219E-13  0.7603E-17  0.1000E-09  0.0000E+00  0.5374E+16
   -0.824984    1.53099  0.1290E-11  0.1219E-13  0.7603E-17  0.1000E-09  0.0000E+00  0.5140E+16
   -0.893735    1.66313  0.1290E-11  0.2809E-13  0.7603E-17  0.1000E-09  0.0000E+00  0.4900E+16
   -0.962487    1.79681  0.1290E-11  0.9207E-13  0.1025E-16  0.1000E-09  0.0000E+00  0.4653E+16
   -1.031239    1.93210  0.1289E-11  0.2209E-12  0.1964E-16  0.1000E-09  0.0000E+00  0.4397E+16
   -1.099990    2.06901  0.1287E-11  0.4738E-12  0.3933E-16  0.1000E-09  0.0000E+00  0.4132E+16
   -1.168743    2.20757  0.1284E-11  0.9751E-12  0.7826E-16  0.1000E-09  0.0000E+00  0.3856E+16
   -1.237495    2.34776  0.1279E-11  0.1971E-11  0.1542E-15  0.1000E-09  0.0000E+00  0.3569E+16
   -1.306247    2.48951  0.1274E-11  0.3939E-11  0.3012E-15  0.1000E-09  0.0000E+00  0.3272E+16
   -1.374999    2.63275  0.1269E-11  0.7809E-11  0.5839E-15  0.1000E-09  0.0000E+00  0.2965E+16
   -1.443751    2.77749  0.1264E-11  0.1536E-10  0.1124E-14  0.1000E-09  0.0000E+00  0.2647E+16
   -1.512504    2.92362  0.1261E-11  0.3000E-10  0.2147E-14  0.1000E-09  0.0000E+00  0.2319E+16
   -1.581256    3.07099  0.1259E-11  0.5819E-10  0.4076E-14  0.1000E-09  0.0000E+00  0.1982E+16
   -1.650008    3.21938  0.1257E-11  0.1121E-09  0.7686E-14  0.1000E-09  0.0000E+00  0.1636E+16
   -1.718760    3.36858  0.1256E-11  0.2144E-09  0.1440E-13  0.1000E-09  0.0000E+00  0.1285E+16
   -1.787511    3.51843  0.1255E-11  0.4161E-09  0.2735E-13  0.1477E-09  0.0000E+00  0.9427E+15
   -1.856263    3.67119  0.1254E-11  0.8168E-09  0.5259E-13  0.4609E-09  0.0000E+00  0.5807E+15
   -1.925014    3.82679  0.1252E-11  0.1605E-08  0.1013E-12  0.2583E-08  0.0000E+00  0.1996E+15
   -1.993765    3.98351  0.1252E-11  0.2241E-08  0.1422E-12  0.4086E-05  0.0000E+00  0.6363E+10
   -2.062516    3.98897  0.1252E-11  0.2629E-08  0.1737E-12  0.1180E-04  0.0000E+00 -0.1094E+12
   -2.131266    3.99089  0.1252E-11  0.2932E-08  0.2033E-12  0.1457E-04  0.0000E+00 -0.1315E+12
   -2.200016    3.99246  0.1252E-11  0.3199E-08  0.2350E-12  0.1605E-04  0.0000E+00 -0.1528E+12
   -2.268766    3.99388  0.1252E-11  0.3430E-08  0.2704E-12  0.1656E-04  0.0000E+00 -0.1785E+12
   -2.337515    3.99525  0.1252E-11  0.3630E-08  0.3129E-12  0.1616E-04  0.0000E+00 -0.2143E+12
   -2.406264    3.99667  0.1252E-11  0.3792E-08  0.3677E-12  0.1482E-04  0.0000E+00 -0.2698E+12
   -2.475012    3.99822  0.1252E-11  0.3901E-08  0.4463E-12  0.1249E-04  0.0000E+00 -0.3694E+12
   -2.543759    4.00005  0.1252E-11  0.3923E-08  0.5789E-12  0.9107E-05  0.0000E+00 -0.5939E+12
   -2.612506    4.00258  0.1252E-11  0.3758E-08  0.8878E-12  0.4772E-05  0.0000E+00 -0.1408E+13
   -2.681253    4.00739  0.1252E-11  0.2878E-08  0.2437E-11  0.7804E-06  0.0000E+00 -0.1446E+14
   -2.749998    4.03418  0.1252E-11  0.0000E+00  0.0000E+00  0.0000E+00  0.0000E+00  0.0000E+00
