 1 - depth, m
 2 - temperature, C
 3 - salinity, kg/kg
 4 - turbulent kinetic energy, m**2/s**2
 5 - dissipation rate, m**2/s**3
 6 - kinematic heat conductance, m**2/s
 7 - modulus of horizontal velocity, m/s
 8 - Richardson number, n/d
   -0.000000   -0.00000  0.1325E-11  0.6712E-09  0.7076E-12  0.5461E-09  0.1389E-19  0.6468E+16
   -0.068746    0.09832  0.8694E-12  0.4995E-08  0.4746E-12  0.5037E-09  0.1112E-19  0.4773E+16
   -0.137492    0.17261  0.7737E-12  0.1210E-07  0.4744E-12  0.7580E-09  0.8958E-20  0.3220E+16
   -0.206239    0.22360  0.7571E-12  0.2149E-07  0.5544E-12  0.1515E-08  0.7277E-20  0.1947E+16
   -0.274986    0.25480  0.7551E-12  0.3303E-07  0.6822E-12  0.3823E-08  0.5899E-20  0.1020E+16
   -0.343734    0.27126  0.7550E-12  0.4652E-07  0.8428E-12  0.1398E-07  0.4708E-20  0.4280E+15
   -0.412483    0.27819  0.7549E-12  0.5690E-07  0.9649E-12  0.3932E-04  0.3710E-20  0.1104E+15
   -0.481232    0.27998  0.7549E-12  0.5948E-07  0.9926E-12  0.7308E-03  0.3652E-20  0.9667E+13
   -0.549981    0.28014  0.7549E-12  0.5952E-07  0.9931E-12  0.1109E-02  0.3651E-20 -0.8537E+10
   -0.618731    0.28014  0.7549E-12  0.5954E-07  0.9934E-12  0.1117E-02  0.3650E-20 -0.1563E+11
   -0.687481    0.28014  0.7549E-12  0.5955E-07  0.9934E-12  0.1115E-02  0.3649E-20 -0.1714E+11
   -0.756232    0.28014  0.7549E-12  0.5954E-07  0.9933E-12  0.1118E-02  0.3648E-20 -0.1485E+11
   -0.824983    0.28014  0.7549E-12  0.5952E-07  0.9930E-12  0.1117E-02  0.3647E-20 -0.9376E+10
   -0.893734    0.28014  0.7549E-12  0.5949E-07  0.9925E-12  0.8313E-03  0.3646E-20  0.3136E+13
   -0.962485    0.28019  0.7549E-12  0.5832E-07  0.9780E-12  0.2216E-03  0.3645E-20  0.5076E+14
   -1.031237    0.28102  0.7549E-12  0.5244E-07  0.8989E-12  0.4224E-07  0.3642E-20  0.2171E+15
   -1.099989    0.28454  0.7549E-12  0.4132E-07  0.7344E-12  0.8522E-08  0.3255E-20  0.5526E+15
   -1.168740    0.29354  0.7549E-12  0.3170E-07  0.5856E-12  0.3040E-08  0.2783E-20  0.1105E+16
   -1.237492    0.31159  0.7547E-12  0.2394E-07  0.4600E-12  0.1298E-08  0.2340E-20  0.1928E+16
   -1.306245    0.34330  0.7533E-12  0.1782E-07  0.3562E-12  0.6180E-09  0.1935E-20  0.3044E+16
   -1.374997    0.39397  0.7477E-12  0.1308E-07  0.2721E-12  0.3116E-09  0.1567E-20  0.4528E+16
   -1.443749    0.47075  0.7400E-12  0.9450E-08  0.2051E-12  0.1711E-09  0.1235E-20  0.6219E+16
   -1.512501    0.57919  0.7375E-12  0.6721E-08  0.1528E-12  0.1141E-09  0.9333E-21  0.7945E+16
   -1.581253    0.72325  0.7365E-12  0.4699E-08  0.1128E-12  0.1000E-09  0.6572E-21  0.9548E+16
   -1.650005    0.90579  0.7355E-12  0.3225E-08  0.8311E-13  0.1000E-09  0.4009E-21  0.1088E+17
   -1.718757    1.12866  0.7348E-12  0.2177E-08  0.6233E-13  0.1000E-09  0.1577E-21  0.1177E+17
   -1.787508    1.39235  0.7345E-12  0.1427E-08  0.4894E-13  0.1000E-09  0.1071E-22  0.1125E+17
   -1.856260    1.67369  0.7343E-12  0.8939E-09  0.4289E-13  0.1000E-09  0.6697E-24  0.1063E+17
   -1.925011    1.97699  0.7342E-12  0.5689E-09  0.4777E-13  0.1000E-09  0.3824E-25  0.9841E+16
   -1.993762    2.30781  0.7342E-12  0.5134E-09  0.7733E-13  0.1000E-09  0.2378E-26  0.8798E+16
   -2.062512    2.67442  0.7340E-12  0.9516E-09  0.1790E-12  0.1240E-09  0.1925E-27  0.7349E+16
   -2.131262    3.09172  0.7334E-12  0.2584E-08  0.4917E-12  0.5210E-09  0.1457E-28  0.4813E+16
   -2.200012    3.54642  0.7315E-12  0.7527E-08  0.1393E-11  0.4669E-08  0.1025E-29  0.1523E+16
   -2.268762    4.00404  0.7297E-12  0.1031E-07  0.1926E-11  0.2030E-04  0.3800E-31 -0.9854E+12
   -2.337511    4.00729  0.7297E-12  0.1149E-07  0.2249E-11  0.2177E-04  0.9924E-32 -0.1085E+13
   -2.406259    4.01037  0.7297E-12  0.1246E-07  0.2654E-11  0.2144E-04  0.2463E-32 -0.1280E+13
   -2.475007    4.01356  0.7297E-12  0.1322E-07  0.3231E-11  0.1929E-04  0.5441E-33 -0.1664E+13
   -2.543755    4.01722  0.7297E-12  0.1372E-07  0.4208E-11  0.1516E-04  0.1003E-33 -0.2551E+13
   -2.612501    4.02210  0.7297E-12  0.1379E-07  0.6492E-11  0.9043E-05  0.1262E-34 -0.5691E+13
   -2.681248    4.03112  0.7297E-12  0.1242E-07  0.1851E-10  0.2214E-05  0.7491E-36 -0.5126E+14
   -2.749993    4.07881  0.7297E-12  0.0000E+00  0.0000E+00  0.0000E+00  0.8033E-36  0.0000E+00
