 1 - depth, m
 2 - temperature, C
 3 - salinity, kg/kg
 4 - turbulent kinetic energy, m**2/s**2
 5 - dissipation rate, m**2/s**3
 6 - kinematic heat conductance, m**2/s
 7 - modulus of horizontal velocity, m/s
 8 - Richardson number, n/d
   -0.000000   -0.00000  0.1180E-09  0.1219E-13  0.7603E-17  0.1000E-09  0.0000E+00  0.5732E+16
   -0.068746    0.08701  0.6648E-10  0.1219E-13  0.7603E-17  0.1000E-09  0.0000E+00  0.5535E+16
   -0.137492    0.17303  0.4950E-10  0.1219E-13  0.7603E-17  0.1000E-09  0.0000E+00  0.5363E+16
   -0.206239    0.25840  0.4494E-10  0.1219E-13  0.7603E-17  0.1000E-09  0.0000E+00  0.5215E+16
   -0.274987    0.34346  0.4388E-10  0.1219E-13  0.7603E-17  0.1000E-09  0.0000E+00  0.5090E+16
   -0.343735    0.42856  0.4366E-10  0.1219E-13  0.7603E-17  0.1000E-09  0.0000E+00  0.4985E+16
   -0.412483    0.51405  0.4362E-10  0.1219E-13  0.7603E-17  0.1000E-09  0.0000E+00  0.4899E+16
   -0.481232    0.60029  0.4361E-10  0.1219E-13  0.7603E-17  0.1000E-09  0.0000E+00  0.4828E+16
   -0.549982    0.68761  0.4361E-10  0.1219E-13  0.7603E-17  0.1000E-09  0.0000E+00  0.4769E+16
   -0.618732    0.77635  0.4361E-10  0.1219E-13  0.7603E-17  0.1000E-09  0.0000E+00  0.4721E+16
   -0.687482    0.86680  0.4361E-10  0.1219E-13  0.7603E-17  0.1000E-09  0.0000E+00  0.4691E+16
   -0.756233    0.95951  0.4361E-10  0.1219E-13  0.7603E-17  0.1000E-09  0.0000E+00  0.4671E+16
   -0.824984    1.05487  0.4361E-10  0.1219E-13  0.7603E-17  0.1000E-09  0.0000E+00  0.4648E+16
   -0.893735    1.15312  0.4361E-10  0.1219E-13  0.7603E-17  0.1000E-09  0.0000E+00  0.4619E+16
   -0.962487    1.25443  0.4361E-10  0.1219E-13  0.7603E-17  0.1000E-09  0.0000E+00  0.4581E+16
   -1.031239    1.35894  0.4361E-10  0.1219E-13  0.7603E-17  0.1000E-09  0.0000E+00  0.4531E+16
   -1.099990    1.46677  0.4360E-10  0.1219E-13  0.7603E-17  0.1000E-09  0.0000E+00  0.4466E+16
   -1.168742    1.57796  0.4357E-10  0.1219E-13  0.7603E-17  0.1000E-09  0.0000E+00  0.4382E+16
   -1.237495    1.69253  0.4352E-10  0.1219E-13  0.7603E-17  0.1000E-09  0.0000E+00  0.4279E+16
   -1.306247    1.81044  0.4342E-10  0.1219E-13  0.7603E-17  0.1000E-09  0.0000E+00  0.4154E+16
   -1.374999    1.93161  0.4326E-10  0.1219E-13  0.7603E-17  0.1000E-09  0.0000E+00  0.4013E+16
   -1.443751    2.05614  0.4307E-10  0.1219E-13  0.7603E-17  0.1000E-09  0.0000E+00  0.3849E+16
   -1.512504    2.18393  0.4291E-10  0.1219E-13  0.7603E-17  0.1000E-09  0.0000E+00  0.3659E+16
   -1.581256    2.31473  0.4280E-10  0.1219E-13  0.7603E-17  0.1000E-09  0.0000E+00  0.3444E+16
   -1.650008    2.44826  0.4274E-10  0.1776E-13  0.7603E-17  0.1000E-09  0.0000E+00  0.3205E+16
   -1.718760    2.58420  0.4271E-10  0.7139E-13  0.1780E-16  0.1000E-09  0.0000E+00  0.2944E+16
   -1.787511    2.72220  0.4269E-10  0.2447E-12  0.5575E-16  0.1000E-09  0.0000E+00  0.2674E+16
   -1.856263    2.86248  0.4267E-10  0.8026E-12  0.1756E-15  0.1000E-09  0.0000E+00  0.2387E+16
   -1.925014    3.00485  0.4266E-10  0.2584E-11  0.5459E-15  0.1000E-09  0.0000E+00  0.2086E+16
   -1.993765    3.14920  0.4262E-10  0.8222E-11  0.1679E-14  0.1000E-09  0.0000E+00  0.1768E+16
   -2.062516    3.29508  0.4256E-10  0.2523E-10  0.4982E-14  0.1000E-09  0.0000E+00  0.1433E+16
   -2.131266    3.44167  0.4247E-10  0.7607E-10  0.1453E-13  0.1000E-09  0.0000E+00  0.1093E+16
   -2.200016    3.58858  0.4234E-10  0.2263E-09  0.4186E-13  0.2838E-09  0.0000E+00  0.7492E+15
   -2.268766    3.73525  0.4224E-10  0.6703E-09  0.1201E-12  0.1494E-08  0.0000E+00  0.4077E+15
   -2.337515    3.88079  0.4221E-10  0.1976E-08  0.3434E-12  0.2070E-07  0.0000E+00  0.8318E+14
   -2.406263    4.00925  0.4220E-10  0.3516E-08  0.6168E-12  0.8469E-05  0.0000E+00 -0.9235E+12
   -2.475012    4.01169  0.4220E-10  0.4087E-08  0.7801E-12  0.8358E-05  0.0000E+00 -0.1058E+13
   -2.543759    4.01423  0.4220E-10  0.4425E-08  0.1012E-11  0.6953E-05  0.0000E+00 -0.1463E+13
   -2.612506    4.01740  0.4220E-10  0.4477E-08  0.1510E-11  0.4226E-05  0.0000E+00 -0.2978E+13
   -2.681252    4.02301  0.4220E-10  0.3831E-08  0.3839E-11  0.9863E-06  0.0000E+00 -0.2262E+14
   -2.749998    4.05140  0.4220E-10  0.0000E+00  0.0000E+00  0.0000E+00  0.0000E+00  0.0000E+00
