 1 - depth, m
 2 - temperature, C
 3 - salinity, kg/kg
 4 - turbulent kinetic energy, m**2/s**2
 5 - dissipation rate, m**2/s**3
 6 - kinematic heat conductance, m**2/s
 7 - modulus of horizontal velocity, m/s
 8 - Richardson number, n/d
   -0.000000   -0.00000  0.4095E-11  0.1219E-13  0.7603E-17  0.1000E-09  0.0000E+00  0.4369E+16
   -0.068746    0.06613  0.2258E-11  0.1219E-13  0.7603E-17  0.1000E-09  0.0000E+00  0.4181E+16
   -0.137492    0.13054  0.1801E-11  0.1219E-13  0.7603E-17  0.1000E-09  0.0000E+00  0.4035E+16
   -0.206239    0.19381  0.1702E-11  0.1219E-13  0.7603E-17  0.1000E-09  0.0000E+00  0.3930E+16
   -0.274986    0.25654  0.1682E-11  0.1219E-13  0.7603E-17  0.1000E-09  0.0000E+00  0.3864E+16
   -0.343734    0.31932  0.1679E-11  0.1219E-13  0.7603E-17  0.1000E-09  0.0000E+00  0.3835E+16
   -0.412483    0.38278  0.1679E-11  0.1219E-13  0.7603E-17  0.1000E-09  0.0000E+00  0.3841E+16
   -0.481232    0.44756  0.1679E-11  0.1219E-13  0.7603E-17  0.1000E-09  0.0000E+00  0.3883E+16
   -0.549982    0.51435  0.1679E-11  0.1219E-13  0.7603E-17  0.1000E-09  0.0000E+00  0.3956E+16
   -0.618732    0.58382  0.1679E-11  0.1219E-13  0.7603E-17  0.1000E-09  0.0000E+00  0.4060E+16
   -0.687482    0.65671  0.1679E-11  0.1219E-13  0.7603E-17  0.1000E-09  0.0000E+00  0.4205E+16
   -0.756232    0.73403  0.1679E-11  0.1219E-13  0.7603E-17  0.1000E-09  0.0000E+00  0.4380E+16
   -0.824983    0.81668  0.1679E-11  0.1219E-13  0.7603E-17  0.1000E-09  0.0000E+00  0.4569E+16
   -0.893735    0.90538  0.1679E-11  0.1219E-13  0.7603E-17  0.1000E-09  0.0000E+00  0.4764E+16
   -0.962486    1.00084  0.1678E-11  0.1219E-13  0.7603E-17  0.1000E-09  0.0000E+00  0.4958E+16
   -1.031238    1.10371  0.1678E-11  0.1219E-13  0.7603E-17  0.1000E-09  0.0000E+00  0.5142E+16
   -1.099990    1.21462  0.1678E-11  0.1219E-13  0.7603E-17  0.1000E-09  0.0000E+00  0.5305E+16
   -1.168742    1.33414  0.1677E-11  0.4764E-13  0.9868E-17  0.1000E-09  0.0000E+00  0.5437E+16
   -1.237494    1.46277  0.1674E-11  0.1454E-12  0.2424E-16  0.1000E-09  0.0000E+00  0.5526E+16
   -1.306246    1.60093  0.1667E-11  0.3962E-12  0.6244E-16  0.1000E-09  0.0000E+00  0.5562E+16
   -1.374998    1.74894  0.1657E-11  0.1041E-11  0.1587E-15  0.1000E-09  0.0000E+00  0.5551E+16
   -1.443750    1.90754  0.1647E-11  0.2688E-11  0.3977E-15  0.1000E-09  0.0000E+00  0.5465E+16
   -1.512502    2.07699  0.1641E-11  0.6849E-11  0.9840E-15  0.1000E-09  0.0000E+00  0.5287E+16
   -1.581254    2.25719  0.1638E-11  0.1723E-10  0.2406E-14  0.1000E-09  0.0000E+00  0.5010E+16
   -1.650006    2.44788  0.1636E-11  0.4283E-10  0.5814E-14  0.1000E-09  0.0000E+00  0.4627E+16
   -1.718758    2.64860  0.1635E-11  0.1052E-09  0.1389E-13  0.1000E-09  0.0000E+00  0.4138E+16
   -1.787510    2.85874  0.1635E-11  0.2623E-09  0.3366E-13  0.1000E-09  0.0000E+00  0.3563E+16
   -1.856261    3.07867  0.1634E-11  0.6572E-09  0.8207E-13  0.1446E-09  0.0000E+00  0.2889E+16
   -1.925013    3.30836  0.1634E-11  0.1640E-08  0.1994E-12  0.4811E-09  0.0000E+00  0.2110E+16
   -1.993763    3.54746  0.1632E-11  0.4072E-08  0.4820E-12  0.2009E-08  0.0000E+00  0.1222E+16
   -2.062514    3.79303  0.1628E-11  0.9723E-08  0.1123E-11  0.1995E-07  0.0000E+00  0.2872E+15
   -2.131264    4.01431  0.1626E-11  0.1114E-07  0.1295E-11  0.3935E-04  0.0000E+00 -0.4011E+12
   -2.200014    4.01521  0.1626E-11  0.1170E-07  0.1384E-11  0.3977E-04  0.0000E+00 -0.4115E+12
   -2.268764    4.01611  0.1626E-11  0.1214E-07  0.1482E-11  0.3905E-04  0.0000E+00 -0.4345E+12
   -2.337513    4.01703  0.1626E-11  0.1245E-07  0.1600E-11  0.3704E-04  0.0000E+00 -0.4754E+12
   -2.406261    4.01800  0.1626E-11  0.1265E-07  0.1756E-11  0.3357E-04  0.0000E+00 -0.5460E+12
   -2.475010    4.01908  0.1626E-11  0.1269E-07  0.1987E-11  0.2836E-04  0.0000E+00 -0.6768E+12
   -2.543757    4.02037  0.1626E-11  0.1251E-07  0.2390E-11  0.2112E-04  0.0000E+00 -0.9641E+12
   -2.612504    4.02214  0.1626E-11  0.1186E-07  0.3351E-11  0.1169E-04  0.0000E+00 -0.1914E+13
   -2.681250    4.02540  0.1626E-11  0.8835E-08  0.9192E-11  0.1698E-05  0.0000E+00 -0.1835E+14
   -2.749996    4.04854  0.1626E-11  0.0000E+00  0.0000E+00  0.0000E+00  0.0000E+00  0.0000E+00
