 1 - depth, m
 2 - temperature, C
 3 - salinity, kg/kg
 4 - turbulent kinetic energy, m**2/s**2
 5 - dissipation rate, m**2/s**3
 6 - kinematic heat conductance, m**2/s
 7 - modulus of horizontal velocity, m/s
 8 - Richardson number, n/d
   -0.000000    8.83566  0.3314E-10  0.3446E-04  0.4894E-05  0.4153E-04  0.4898E-01 -0.7793E-02
   -0.068746    8.86552  0.3314E-10  0.2553E-04  0.1177E-05  0.9146E-04  0.2804E-01 -0.1730E-01
   -0.137492    8.87462  0.3314E-10  0.2299E-04  0.5160E-06  0.1429E-03  0.2257E-01 -0.2823E-01
   -0.206239    8.88022  0.3314E-10  0.2157E-04  0.2956E-06  0.1980E-03  0.1924E-01 -0.3985E-01
   -0.274987    8.88416  0.3314E-10  0.2062E-04  0.1990E-06  0.2557E-03  0.1691E-01 -0.5222E-01
   -0.343735    8.88713  0.3314E-10  0.1991E-04  0.1477E-06  0.3154E-03  0.1515E-01 -0.6524E-01
   -0.412484    8.88946  0.3314E-10  0.1933E-04  0.1165E-06  0.3768E-03  0.1375E-01 -0.7884E-01
   -0.481233    8.89136  0.3314E-10  0.1885E-04  0.9569E-07  0.4393E-03  0.1260E-01 -0.9293E-01
   -0.549983    8.89295  0.3314E-10  0.1843E-04  0.8097E-07  0.5032E-03  0.1164E-01 -0.1059E+00
   -0.618733    8.89430  0.3314E-10  0.1807E-04  0.7007E-07  0.5764E-03  0.1081E-01 -0.9455E-01
   -0.687483    8.89545  0.3314E-10  0.1776E-04  0.6177E-07  0.7187E-03  0.1009E-01  0.4908E+00
   -0.756234    8.89637  0.3314E-10  0.1749E-04  0.5535E-07  0.1115E-02  0.9451E-02  0.1018E+03
   -0.824985    8.89705  0.3314E-10  0.1727E-04  0.5028E-07  0.1285E-02  0.8896E-02  0.6968E+02
   -0.893737    8.89760  0.3314E-10  0.1707E-04  0.4611E-07  0.1453E-02  0.8375E-02  0.2725E+02
   -0.962488    8.89807  0.3314E-10  0.1689E-04  0.4264E-07  0.1540E-02  0.7887E-02  0.2126E+02
   -1.031240    8.89850  0.3314E-10  0.1672E-04  0.3970E-07  0.1649E-02  0.7421E-02  0.2540E+02
   -1.099992    8.89888  0.3314E-10  0.1657E-04  0.3720E-07  0.1728E-02  0.6976E-02  0.2689E+02
   -1.168744    8.89923  0.3314E-10  0.1641E-04  0.3503E-07  0.1806E-02  0.6546E-02  0.3946E+02
   -1.237496    8.89956  0.3314E-10  0.1625E-04  0.3315E-07  0.1873E-02  0.6129E-02  0.7357E+02
   -1.306249    8.89986  0.3314E-10  0.1609E-04  0.3149E-07  0.1934E-02  0.5722E-02  0.9728E+02
   -1.375001    8.90015  0.3314E-10  0.1591E-04  0.3003E-07  0.1981E-02  0.5323E-02  0.6117E+03
   -1.443753    8.90042  0.3314E-10  0.1572E-04  0.2872E-07  0.2024E-02  0.4930E-02  0.2521E+04
   -1.512506    8.90068  0.3314E-10  0.1552E-04  0.2754E-07  0.2046E-02  0.4542E-02  0.9665E+04
   -1.581258    8.90093  0.3314E-10  0.1529E-04  0.2647E-07  0.2050E-02  0.4157E-02  0.1137E+06
   -1.650010    8.90118  0.3314E-10  0.1503E-04  0.2548E-07  0.2050E-02  0.3773E-02  0.5880E+05
   -1.718762    8.90143  0.3314E-10  0.1474E-04  0.2455E-07  0.2019E-02  0.3390E-02  0.1851E+05
   -1.787514    8.90167  0.3314E-10  0.1440E-04  0.2363E-07  0.2039E-02  0.3003E-02  0.4373E+02
   -1.856265    8.90191  0.3314E-10  0.1401E-04  0.2276E-07  0.2030E-02  0.2661E-02  0.8239E+01
   -1.925017    8.90215  0.3314E-10  0.1360E-04  0.2196E-07  0.2022E-02  0.2355E-02  0.3536E+01
   -1.993768    8.90239  0.3314E-10  0.1316E-04  0.2126E-07  0.2009E-02  0.2084E-02  0.2165E+01
   -2.062519    8.90263  0.3314E-10  0.1273E-04  0.2074E-07  0.1988E-02  0.1842E-02  0.1674E+01
   -2.131269    8.90287  0.3314E-10  0.1230E-04  0.2043E-07  0.1960E-02  0.1618E-02  0.1325E+01
   -2.200019    8.90311  0.3314E-10  0.1189E-04  0.2035E-07  0.1936E-02  0.1410E-02  0.1063E+01
   -2.268769    8.90334  0.3314E-10  0.1150E-04  0.2057E-07  0.1928E-02  0.1217E-02  0.7950E+00
   -2.337518    8.90358  0.3314E-10  0.1112E-04  0.2114E-07  0.1830E-02  0.1045E-02  0.6323E+00
   -2.406267    8.90383  0.3314E-10  0.1076E-04  0.2218E-07  0.1573E-02  0.8965E-03  0.1484E+03
   -2.475015    8.90412  0.3314E-10  0.1042E-04  0.2386E-07  0.1304E-02  0.7708E-03  0.6688E+01
   -2.543763    8.90447  0.3314E-10  0.1004E-04  0.2696E-07  0.1062E-02  0.6656E-03  0.2507E+02
   -2.612510    8.90490  0.3314E-10  0.9439E-05  0.3536E-07  0.4740E-03  0.5618E-03  0.4843E+03
   -2.681256    8.90584  0.3314E-10  0.5774E-05  0.1311E-06  0.3215E-04  0.4300E-03 -0.8241E+04
   -2.750002    8.91937  0.3314E-10  0.0000E+00  0.0000E+00  0.0000E+00  0.4292E-03  0.0000E+00
