 1 - depth, m
 2 - temperature, C
 3 - salinity, kg/kg
 4 - turbulent kinetic energy, m**2/s**2
 5 - dissipation rate, m**2/s**3
 6 - kinematic heat conductance, m**2/s
 7 - modulus of horizontal velocity, m/s
 8 - Richardson number, n/d
   -0.000000   -0.00000  0.7201E-10  0.1219E-13  0.7603E-17  0.1000E-09  0.0000E+00  0.6621E+16
   -0.068746    0.10068  0.4246E-10  0.1219E-13  0.7603E-17  0.1000E-09  0.0000E+00  0.6374E+16
   -0.137492    0.20030  0.3092E-10  0.1219E-13  0.7603E-17  0.1000E-09  0.0000E+00  0.6155E+16
   -0.206239    0.29923  0.2730E-10  0.1219E-13  0.7603E-17  0.1000E-09  0.0000E+00  0.5960E+16
   -0.274986    0.39779  0.2635E-10  0.1219E-13  0.7603E-17  0.1000E-09  0.0000E+00  0.5787E+16
   -0.343735    0.49632  0.2613E-10  0.1219E-13  0.7603E-17  0.1000E-09  0.0000E+00  0.5633E+16
   -0.412483    0.59514  0.2608E-10  0.1219E-13  0.7603E-17  0.1000E-09  0.0000E+00  0.5494E+16
   -0.481232    0.69455  0.2607E-10  0.1219E-13  0.7603E-17  0.1000E-09  0.0000E+00  0.5368E+16
   -0.549982    0.79482  0.2607E-10  0.1219E-13  0.7603E-17  0.1000E-09  0.0000E+00  0.5251E+16
   -0.618732    0.89624  0.2607E-10  0.1219E-13  0.7603E-17  0.1000E-09  0.0000E+00  0.5140E+16
   -0.687482    0.99903  0.2607E-10  0.1219E-13  0.7603E-17  0.1000E-09  0.0000E+00  0.5044E+16
   -0.756233    1.10365  0.2607E-10  0.1219E-13  0.7603E-17  0.1000E-09  0.0000E+00  0.4954E+16
   -0.824984    1.21043  0.2607E-10  0.1219E-13  0.7603E-17  0.1000E-09  0.0000E+00  0.4860E+16
   -0.893735    1.31954  0.2607E-10  0.1219E-13  0.7603E-17  0.1000E-09  0.0000E+00  0.4760E+16
   -0.962486    1.43111  0.2607E-10  0.1219E-13  0.7603E-17  0.1000E-09  0.0000E+00  0.4650E+16
   -1.031238    1.54524  0.2606E-10  0.1219E-13  0.7603E-17  0.1000E-09  0.0000E+00  0.4528E+16
   -1.099990    1.66200  0.2604E-10  0.1219E-13  0.7603E-17  0.1000E-09  0.0000E+00  0.4393E+16
   -1.168742    1.78141  0.2599E-10  0.1219E-13  0.7603E-17  0.1000E-09  0.0000E+00  0.4243E+16
   -1.237494    1.90347  0.2591E-10  0.1219E-13  0.7603E-17  0.1000E-09  0.0000E+00  0.4076E+16
   -1.306246    2.02813  0.2580E-10  0.1219E-13  0.7603E-17  0.1000E-09  0.0000E+00  0.3891E+16
   -1.374998    2.15532  0.2567E-10  0.2238E-13  0.7603E-17  0.1000E-09  0.0000E+00  0.3693E+16
   -1.443751    2.28508  0.2556E-10  0.8048E-13  0.1320E-16  0.1000E-09  0.0000E+00  0.3477E+16
   -1.512503    2.41733  0.2548E-10  0.2217E-12  0.3153E-16  0.1000E-09  0.0000E+00  0.3241E+16
   -1.581255    2.55184  0.2543E-10  0.5613E-12  0.7619E-16  0.1000E-09  0.0000E+00  0.2987E+16
   -1.650007    2.68838  0.2540E-10  0.1380E-11  0.1815E-15  0.1000E-09  0.0000E+00  0.2714E+16
   -1.718759    2.82666  0.2539E-10  0.3341E-11  0.4268E-15  0.1000E-09  0.0000E+00  0.2428E+16
   -1.787510    2.96644  0.2538E-10  0.8189E-11  0.1017E-14  0.1000E-09  0.0000E+00  0.2148E+16
   -1.856262    3.10879  0.2537E-10  0.2018E-10  0.2436E-14  0.1000E-09  0.0000E+00  0.1851E+16
   -1.925013    3.25373  0.2535E-10  0.4950E-10  0.5814E-14  0.1000E-09  0.0000E+00  0.1539E+16
   -1.993764    3.40134  0.2533E-10  0.1209E-09  0.1382E-13  0.1000E-09  0.0000E+00  0.1207E+16
   -2.062515    3.55120  0.2529E-10  0.2872E-09  0.3197E-13  0.1912E-09  0.0000E+00  0.8504E+15
   -2.131265    3.70106  0.2526E-10  0.6735E-09  0.7301E-13  0.7528E-09  0.0000E+00  0.4931E+15
   -2.200015    3.84983  0.2524E-10  0.1561E-08  0.1650E-12  0.5744E-08  0.0000E+00  0.1458E+15
   -2.268765    3.99265  0.2524E-10  0.2355E-08  0.2504E-12  0.7844E-05  0.0000E+00 -0.3135E+12
   -2.337514    3.99527  0.2524E-10  0.2744E-08  0.3085E-12  0.9099E-05  0.0000E+00 -0.3596E+12
   -2.406262    3.99755  0.2524E-10  0.3060E-08  0.3787E-12  0.9260E-05  0.0000E+00 -0.4367E+12
   -2.475010    3.99980  0.2524E-10  0.3303E-08  0.4748E-12  0.8400E-05  0.0000E+00 -0.5826E+12
   -2.543758    4.00232  0.2524E-10  0.3449E-08  0.6322E-12  0.6506E-05  0.0000E+00 -0.9210E+12
   -2.612505    4.00565  0.2524E-10  0.3421E-08  0.9907E-12  0.3659E-05  0.0000E+00 -0.2160E+13
   -2.681251    4.01180  0.2524E-10  0.2880E-08  0.2653E-11  0.7977E-06  0.0000E+00 -0.1894E+14
   -2.749997    4.04171  0.2524E-10  0.0000E+00  0.0000E+00  0.0000E+00  0.0000E+00  0.0000E+00
