 1 - depth, m
 2 - temperature, C
 3 - salinity, kg/kg
 4 - turbulent kinetic energy, m**2/s**2
 5 - dissipation rate, m**2/s**3
 6 - kinematic heat conductance, m**2/s
 7 - modulus of horizontal velocity, m/s
 8 - Richardson number, n/d
   -0.000000   14.70049  0.7471E-12  0.1468E-04  0.6340E-06  0.3502E-04  0.2615E-01 -0.3187E-01
   -0.068746   14.72723  0.7471E-12  0.1403E-04  0.2272E-06  0.9656E-04  0.1703E-01 -0.8458E-01
   -0.137492   14.73633  0.7471E-12  0.1362E-04  0.1316E-06  0.1707E-03  0.1378E-01 -0.1438E+00
   -0.206239   14.74122  0.7471E-12  0.1337E-04  0.9097E-07  0.2588E-03  0.1196E-01 -0.2052E+00
   -0.274987   14.74430  0.7471E-12  0.1323E-04  0.6934E-07  0.4006E-03  0.1076E-01  0.3174E-01
   -0.343735   14.74623  0.7471E-12  0.1318E-04  0.5722E-07  0.8782E-03  0.9914E-02  0.4136E+03
   -0.412484   14.74709  0.7471E-12  0.1323E-04  0.4975E-07  0.1146E-02  0.9348E-02  0.6526E+01
   -0.481233   14.74771  0.7471E-12  0.1335E-04  0.4411E-07  0.1202E-02  0.8832E-02  0.7291E+01
   -0.549983   14.74829  0.7471E-12  0.1351E-04  0.3967E-07  0.1279E-02  0.8343E-02  0.7777E+01
   -0.618733   14.74881  0.7471E-12  0.1367E-04  0.3615E-07  0.1348E-02  0.7887E-02  0.8093E+01
   -0.687483   14.74931  0.7471E-12  0.1384E-04  0.3328E-07  0.1418E-02  0.7456E-02  0.8402E+01
   -0.756234   14.74976  0.7471E-12  0.1401E-04  0.3092E-07  0.1485E-02  0.7047E-02  0.8683E+01
   -0.824985   14.75019  0.7471E-12  0.1417E-04  0.2894E-07  0.1551E-02  0.6654E-02  0.8962E+01
   -0.893736   14.75060  0.7471E-12  0.1431E-04  0.2727E-07  0.1617E-02  0.6275E-02  0.9234E+01
   -0.962488   14.75099  0.7471E-12  0.1444E-04  0.2585E-07  0.1680E-02  0.5907E-02  0.9508E+01
   -1.031240   14.75136  0.7471E-12  0.1454E-04  0.2462E-07  0.1742E-02  0.5548E-02  0.9780E+01
   -1.099992   14.75171  0.7471E-12  0.1462E-04  0.2357E-07  0.1801E-02  0.5197E-02  0.1006E+02
   -1.168744   14.75205  0.7471E-12  0.1467E-04  0.2266E-07  0.1856E-02  0.4852E-02  0.1034E+02
   -1.237496   14.75238  0.7471E-12  0.1469E-04  0.2187E-07  0.1904E-02  0.4512E-02  0.1065E+02
   -1.306248   14.75270  0.7471E-12  0.1467E-04  0.2119E-07  0.1943E-02  0.4175E-02  0.1098E+02
   -1.375001   14.75301  0.7471E-12  0.1461E-04  0.2061E-07  0.1971E-02  0.3842E-02  0.1136E+02
   -1.443753   14.75332  0.7471E-12  0.1450E-04  0.2011E-07  0.1985E-02  0.3510E-02  0.1181E+02
   -1.512505   14.75362  0.7471E-12  0.1435E-04  0.1969E-07  0.1983E-02  0.3180E-02  0.1238E+02
   -1.581257   14.75393  0.7471E-12  0.1415E-04  0.1933E-07  0.1962E-02  0.2850E-02  0.1313E+02
   -1.650010   14.75424  0.7471E-12  0.1389E-04  0.1904E-07  0.1923E-02  0.2519E-02  0.1412E+02
   -1.718762   14.75456  0.7471E-12  0.1358E-04  0.1881E-07  0.1859E-02  0.2188E-02  0.1451E+02
   -1.787513   14.75489  0.7471E-12  0.1319E-04  0.1864E-07  0.1814E-02  0.1855E-02  0.6069E+01
   -1.856265   14.75523  0.7471E-12  0.1276E-04  0.1857E-07  0.1789E-02  0.1575E-02  0.3436E+01
   -1.925016   14.75558  0.7471E-12  0.1230E-04  0.1865E-07  0.1795E-02  0.1341E-02  0.2240E+01
   -1.993767   14.75592  0.7471E-12  0.1184E-04  0.1893E-07  0.1836E-02  0.1149E-02  0.1667E+01
   -2.062518   14.75626  0.7471E-12  0.1139E-04  0.1942E-07  0.1875E-02  0.9926E-03  0.1392E+01
   -2.131269   14.75658  0.7471E-12  0.1097E-04  0.2014E-07  0.1799E-02  0.8583E-03  0.1164E+01
   -2.200019   14.75693  0.7471E-12  0.1058E-04  0.2112E-07  0.1613E-02  0.7424E-03  0.9694E+00
   -2.268768   14.75732  0.7471E-12  0.1022E-04  0.2240E-07  0.1430E-02  0.6434E-03  0.7914E+00
   -2.337517   14.75775  0.7471E-12  0.9887E-05  0.2415E-07  0.1262E-02  0.5624E-03  0.7318E+00
   -2.406266   14.75825  0.7471E-12  0.9528E-05  0.2683E-07  0.1163E-02  0.4955E-03  0.1587E+01
   -2.475014   14.75880  0.7471E-12  0.9044E-05  0.3265E-07  0.9015E-03  0.4357E-03  0.2551E+02
   -2.543762   14.75976  0.7471E-12  0.8257E-05  0.4552E-07  0.7272E-03  0.3594E-03  0.7718E+03
   -2.612509   14.76084  0.7471E-12  0.6801E-05  0.8303E-07  0.3714E-03  0.2863E-03  0.4040E+02
   -2.681255   14.76525  0.7471E-12  0.4146E-05  0.2582E-06  0.1144E-03  0.1712E-03 -0.5527E+04
   -2.750001   14.77272  0.7471E-12  0.0000E+00  0.0000E+00  0.0000E+00  0.2348E-03  0.0000E+00
