 1 - depth, m
 2 - temperature, C
 3 - salinity, kg/kg
 4 - turbulent kinetic energy, m**2/s**2
 5 - dissipation rate, m**2/s**3
 6 - kinematic heat conductance, m**2/s
 7 - modulus of horizontal velocity, m/s
 8 - Richardson number, n/d
   -0.000000   -0.00000  0.7697E-11  0.1219E-13  0.7603E-17  0.1000E-09  0.5449E-54  0.4242E+16
   -0.068746    0.06419  0.4449E-11  0.1219E-13  0.7603E-17  0.1000E-09  0.4485E-54  0.3725E+16
   -0.137492    0.12150  0.3916E-11  0.1219E-13  0.7603E-17  0.1000E-09  0.3668E-54  0.3190E+16
   -0.206239    0.17131  0.3822E-11  0.1219E-13  0.7603E-17  0.1000E-09  0.3025E-54  0.2668E+16
   -0.274987    0.21350  0.3809E-11  0.1219E-13  0.7603E-17  0.1000E-09  0.2518E-54  0.2180E+16
   -0.343735    0.24836  0.3808E-11  0.1219E-13  0.7603E-17  0.1000E-09  0.2103E-54  0.1743E+16
   -0.412483    0.27648  0.3808E-11  0.1219E-13  0.7603E-17  0.1000E-09  0.1752E-54  0.1370E+16
   -0.481232    0.29874  0.3808E-11  0.1219E-13  0.7603E-17  0.1000E-09  0.1450E-54  0.1070E+16
   -0.549982    0.31623  0.3808E-11  0.1219E-13  0.7603E-17  0.1000E-09  0.1190E-54  0.8502E+15
   -0.618732    0.33019  0.3808E-11  0.1219E-13  0.7603E-17  0.1000E-09  0.9698E-55  0.7148E+15
   -0.687482    0.34197  0.3808E-11  0.1219E-13  0.7603E-17  0.1000E-09  0.7842E-55  0.6772E+15
   -0.756233    0.35317  0.3808E-11  0.1219E-13  0.7603E-17  0.1000E-09  0.6296E-55  0.7380E+15
   -0.824984    0.36541  0.3808E-11  0.1219E-13  0.7603E-17  0.1000E-09  0.5021E-55  0.8967E+15
   -0.893735    0.38035  0.3808E-11  0.1219E-13  0.7603E-17  0.1000E-09  0.3978E-55  0.1159E+16
   -0.962487    0.39975  0.3808E-11  0.1219E-13  0.7603E-17  0.1000E-09  0.3131E-55  0.1530E+16
   -1.031238    0.42554  0.3808E-11  0.1219E-13  0.7603E-17  0.1000E-09  0.2449E-55  0.2013E+16
   -1.099990    0.45976  0.3808E-11  0.1219E-13  0.7603E-17  0.1000E-09  0.1902E-55  0.2606E+16
   -1.168742    0.50462  0.3807E-11  0.1219E-13  0.7603E-17  0.1000E-09  0.1467E-55  0.3305E+16
   -1.237494    0.56239  0.3805E-11  0.1219E-13  0.7603E-17  0.1000E-09  0.1122E-55  0.4093E+16
   -1.306247    0.63539  0.3796E-11  0.1219E-13  0.7603E-17  0.1000E-09  0.8492E-56  0.4945E+16
   -1.374999    0.72590  0.3770E-11  0.1219E-13  0.7603E-17  0.1000E-09  0.6347E-56  0.5883E+16
   -1.443751    0.83714  0.3735E-11  0.1219E-13  0.7603E-17  0.1000E-09  0.4654E-56  0.6811E+16
   -1.512503    0.97135  0.3721E-11  0.1219E-13  0.7603E-17  0.1000E-09  0.3308E-56  0.7649E+16
   -1.581255    1.12996  0.3715E-11  0.2525E-13  0.7840E-17  0.1000E-09  0.2218E-56  0.8331E+16
   -1.650007    1.31393  0.3710E-11  0.8851E-13  0.2168E-16  0.1000E-09  0.1306E-56  0.8790E+16
   -1.718759    1.52360  0.3707E-11  0.2899E-12  0.6704E-16  0.1000E-09  0.5037E-57  0.8941E+16
   -1.787511    1.75789  0.3706E-11  0.9450E-12  0.2102E-15  0.1000E-09  0.3410E-58  0.8296E+16
   -1.856263    2.00086  0.3705E-11  0.3059E-11  0.6566E-15  0.1000E-09  0.2126E-59  0.7505E+16
   -1.925014    2.25080  0.3705E-11  0.9776E-11  0.2027E-14  0.1000E-09  0.1210E-60  0.6593E+16
   -1.993765    2.50587  0.3704E-11  0.3089E-10  0.6190E-14  0.1000E-09  0.7507E-62  0.5657E+16
   -2.062516    2.76776  0.3704E-11  0.9419E-10  0.1825E-13  0.1000E-09  0.6051E-63  0.4822E+16
   -2.131266    3.04834  0.3702E-11  0.2824E-09  0.5295E-13  0.1000E-09  0.4564E-64  0.3753E+16
   -2.200016    3.34854  0.3698E-11  0.8357E-09  0.1517E-12  0.3229E-09  0.3199E-65  0.2404E+16
   -2.268765    3.66637  0.3689E-11  0.2462E-08  0.4331E-12  0.2764E-08  0.1531E-66  0.8052E+15
   -2.337514    3.99169  0.3681E-11  0.4366E-08  0.7730E-12  0.7613E-05  0.5579E-68 -0.8000E+12
   -2.406263    3.99790  0.3681E-11  0.5372E-08  0.1040E-11  0.9915E-05  0.5853E-69 -0.1043E+13
   -2.475011    4.00269  0.3681E-11  0.6208E-08  0.1388E-11  0.1012E-04  0.6672E-70 -0.1407E+13
   -2.543759    4.00748  0.3681E-11  0.6865E-08  0.1930E-11  0.8617E-05  0.6879E-71 -0.2190E+13
   -2.612506    4.01330  0.3681E-11  0.7246E-08  0.3094E-11  0.5491E-05  0.5032E-72 -0.4825E+13
   -2.681252    4.02298  0.3681E-11  0.6895E-08  0.8331E-11  0.1574E-05  0.1846E-73 -0.3472E+14
   -2.749998    4.06233  0.3681E-11  0.0000E+00  0.0000E+00  0.0000E+00  0.1991E-73  0.0000E+00
