 1 - depth, m
 2 - temperature, C
 3 - salinity, kg/kg
 4 - turbulent kinetic energy, m**2/s**2
 5 - dissipation rate, m**2/s**3
 6 - kinematic heat conductance, m**2/s
 7 - modulus of horizontal velocity, m/s
 8 - Richardson number, n/d
   -0.000000   -0.00000  0.3482E-12  0.1219E-13  0.7603E-17  0.1000E-09  0.0000E+00  0.6870E+16
   -0.068746    0.10452  0.2032E-11  0.1219E-13  0.7603E-17  0.1000E-09  0.0000E+00  0.6791E+16
   -0.137493    0.21088  0.3337E-11  0.1219E-13  0.7603E-17  0.1000E-09  0.0000E+00  0.6696E+16
   -0.206240    0.31897  0.3894E-11  0.1219E-13  0.7603E-17  0.1000E-09  0.0000E+00  0.6585E+16
   -0.274988    0.42867  0.3920E-11  0.1219E-13  0.7603E-17  0.1000E-09  0.0000E+00  0.6457E+16
   -0.343736    0.53983  0.3703E-11  0.1219E-13  0.7603E-17  0.1000E-09  0.0000E+00  0.6312E+16
   -0.412485    0.65231  0.3436E-11  0.1219E-13  0.7603E-17  0.1000E-09  0.0000E+00  0.6153E+16
   -0.481234    0.76595  0.3216E-11  0.1219E-13  0.7603E-17  0.1000E-09  0.0000E+00  0.5980E+16
   -0.549984    0.88059  0.3066E-11  0.1219E-13  0.7603E-17  0.1000E-09  0.0000E+00  0.5795E+16
   -0.618734    0.99610  0.2978E-11  0.1219E-13  0.7603E-17  0.1000E-09  0.0000E+00  0.5598E+16
   -0.687485    1.11233  0.2932E-11  0.1219E-13  0.7603E-17  0.1000E-09  0.0000E+00  0.5393E+16
   -0.756236    1.22917  0.2910E-11  0.1219E-13  0.7603E-17  0.1000E-09  0.0000E+00  0.5180E+16
   -0.824987    1.34649  0.2899E-11  0.1219E-13  0.7603E-17  0.1000E-09  0.0000E+00  0.4961E+16
   -0.893739    1.46419  0.2894E-11  0.1219E-13  0.7603E-17  0.1000E-09  0.0000E+00  0.4736E+16
   -0.962490    1.58215  0.2891E-11  0.1219E-13  0.7603E-17  0.1000E-09  0.0000E+00  0.4507E+16
   -1.031242    1.70029  0.2887E-11  0.1219E-13  0.7603E-17  0.1000E-09  0.0000E+00  0.4275E+16
   -1.099994    1.81853  0.2883E-11  0.1219E-13  0.7603E-17  0.1000E-09  0.0000E+00  0.4041E+16
   -1.168747    1.93678  0.2878E-11  0.1219E-13  0.7603E-17  0.1000E-09  0.0000E+00  0.3805E+16
   -1.237499    2.05498  0.2871E-11  0.1219E-13  0.7603E-17  0.1000E-09  0.0000E+00  0.3569E+16
   -1.306252    2.17309  0.2863E-11  0.1219E-13  0.7603E-17  0.1000E-09  0.0000E+00  0.3334E+16
   -1.375004    2.29105  0.2854E-11  0.1219E-13  0.7603E-17  0.1000E-09  0.0000E+00  0.3100E+16
   -1.443757    2.40887  0.2845E-11  0.1219E-13  0.7603E-17  0.1000E-09  0.0000E+00  0.2868E+16
   -1.512509    2.52652  0.2837E-11  0.1219E-13  0.7603E-17  0.1000E-09  0.0000E+00  0.2637E+16
   -1.581261    2.64402  0.2830E-11  0.1219E-13  0.7603E-17  0.1000E-09  0.0000E+00  0.2408E+16
   -1.650014    2.76134  0.2824E-11  0.1219E-13  0.7603E-17  0.1000E-09  0.0000E+00  0.2181E+16
   -1.718766    2.87852  0.2819E-11  0.1219E-13  0.7603E-17  0.1000E-09  0.0000E+00  0.1955E+16
   -1.787518    2.99548  0.2815E-11  0.5089E-13  0.1204E-16  0.1000E-09  0.0000E+00  0.1708E+16
   -1.856270    3.11056  0.2812E-11  0.1725E-12  0.3450E-16  0.1000E-09  0.0000E+00  0.1467E+16
   -1.925021    3.22336  0.2809E-11  0.5351E-12  0.1021E-15  0.1000E-09  0.0000E+00  0.1233E+16
   -1.993772    3.33331  0.2807E-11  0.1621E-11  0.2992E-15  0.1000E-09  0.0000E+00  0.1014E+16
   -2.062523    3.44029  0.2806E-11  0.4738E-11  0.8485E-15  0.1000E-09  0.0000E+00  0.8280E+15
   -2.131274    3.54672  0.2805E-11  0.1364E-10  0.2372E-14  0.1000E-09  0.0000E+00  0.6459E+15
   -2.200024    3.65271  0.2804E-11  0.3887E-10  0.6563E-14  0.1000E-09  0.0000E+00  0.4657E+15
   -2.268774    3.75808  0.2804E-11  0.1107E-09  0.1815E-13  0.3189E-09  0.0000E+00  0.2884E+15
   -2.337523    3.86233  0.2803E-11  0.3179E-09  0.5069E-13  0.2191E-08  0.0000E+00  0.1166E+15
   -2.406272    3.96378  0.2803E-11  0.8585E-09  0.1343E-12  0.2276E-06  0.0000E+00  0.1997E+13
   -2.475021    4.00229  0.2803E-11  0.1643E-08  0.2738E-12  0.4425E-05  0.0000E+00 -0.8517E+12
   -2.543768    4.00540  0.2803E-11  0.1956E-08  0.3756E-12  0.4090E-05  0.0000E+00 -0.1084E+13
   -2.612516    4.00874  0.2803E-11  0.2017E-08  0.5408E-12  0.2604E-05  0.0000E+00 -0.1972E+13
   -2.681262    4.01379  0.2803E-11  0.1540E-08  0.1181E-11  0.4730E-06  0.0000E+00 -0.1220E+14
   -2.750008    4.03440  0.2803E-11  0.0000E+00  0.0000E+00  0.0000E+00  0.0000E+00  0.0000E+00
