 1 - depth, m
 2 - temperature, C
 3 - salinity, kg/kg
 4 - turbulent kinetic energy, m**2/s**2
 5 - dissipation rate, m**2/s**3
 6 - kinematic heat conductance, m**2/s
 7 - modulus of horizontal velocity, m/s
 8 - Richardson number, n/d
   -0.000000   -0.00000  0.2024E-11  0.1219E-13  0.7603E-17  0.1000E-09  0.0000E+00  0.7012E+16
   -0.068746    0.10672  0.1220E-11  0.1219E-13  0.7603E-17  0.1000E-09  0.0000E+00  0.6745E+16
   -0.137492    0.21241  0.8873E-12  0.1219E-13  0.7603E-17  0.1000E-09  0.0000E+00  0.6514E+16
   -0.206239    0.31757  0.7872E-12  0.1219E-13  0.7603E-17  0.1000E-09  0.0000E+00  0.6314E+16
   -0.274987    0.42265  0.7620E-12  0.1219E-13  0.7603E-17  0.1000E-09  0.0000E+00  0.6140E+16
   -0.343735    0.52808  0.7563E-12  0.1219E-13  0.7603E-17  0.1000E-09  0.0000E+00  0.5988E+16
   -0.412483    0.63429  0.7552E-12  0.1219E-13  0.7603E-17  0.1000E-09  0.0000E+00  0.5854E+16
   -0.481232    0.74166  0.7550E-12  0.1219E-13  0.7603E-17  0.1000E-09  0.0000E+00  0.5733E+16
   -0.549982    0.85060  0.7550E-12  0.1219E-13  0.7603E-17  0.1000E-09  0.0000E+00  0.5624E+16
   -0.618732    0.96146  0.7549E-12  0.1219E-13  0.7603E-17  0.1000E-09  0.0000E+00  0.5520E+16
   -0.687482    1.07460  0.7549E-12  0.1219E-13  0.7603E-17  0.1000E-09  0.0000E+00  0.5432E+16
   -0.756233    1.19062  0.7549E-12  0.1219E-13  0.7603E-17  0.1000E-09  0.0000E+00  0.5347E+16
   -0.824984    1.30999  0.7549E-12  0.1219E-13  0.7603E-17  0.1000E-09  0.0000E+00  0.5255E+16
   -0.893735    1.43299  0.7549E-12  0.3464E-13  0.7603E-17  0.1000E-09  0.0000E+00  0.5151E+16
   -0.962486    1.55986  0.7548E-12  0.1055E-12  0.1221E-16  0.1000E-09  0.0000E+00  0.5031E+16
   -1.031238    1.69082  0.7545E-12  0.2543E-12  0.2521E-16  0.1000E-09  0.0000E+00  0.4891E+16
   -1.099990    1.82604  0.7538E-12  0.5638E-12  0.5307E-16  0.1000E-09  0.0000E+00  0.4728E+16
   -1.168742    1.96566  0.7523E-12  0.1212E-11  0.1107E-15  0.1000E-09  0.0000E+00  0.4538E+16
   -1.237494    2.10976  0.7498E-12  0.2565E-11  0.2284E-15  0.1000E-09  0.0000E+00  0.4319E+16
   -1.306246    2.25839  0.7464E-12  0.5375E-11  0.4674E-15  0.1000E-09  0.0000E+00  0.4068E+16
   -1.374999    2.41155  0.7426E-12  0.1117E-10  0.9485E-15  0.1000E-09  0.0000E+00  0.3788E+16
   -1.443751    2.56940  0.7394E-12  0.2301E-10  0.1910E-14  0.1000E-09  0.0000E+00  0.3473E+16
   -1.512503    2.73188  0.7372E-12  0.4705E-10  0.3817E-14  0.1000E-09  0.0000E+00  0.3119E+16
   -1.581255    2.89877  0.7359E-12  0.9546E-10  0.7570E-14  0.1000E-09  0.0000E+00  0.2727E+16
   -1.650007    3.06975  0.7352E-12  0.1922E-09  0.1491E-13  0.1000E-09  0.0000E+00  0.2299E+16
   -1.718759    3.24441  0.7346E-12  0.3842E-09  0.2914E-13  0.1000E-09  0.0000E+00  0.1840E+16
   -1.787511    3.42240  0.7342E-12  0.7792E-09  0.5779E-13  0.2143E-09  0.0000E+00  0.1373E+16
   -1.856262    3.60678  0.7334E-12  0.1597E-08  0.1159E-12  0.6920E-09  0.0000E+00  0.8525E+15
   -1.925013    3.79733  0.7323E-12  0.3272E-08  0.2323E-12  0.4223E-08  0.0000E+00  0.2802E+15
   -1.993764    3.99025  0.7318E-12  0.3960E-08  0.2833E-12  0.1667E-04  0.0000E+00 -0.1293E+12
   -2.062515    3.99198  0.7318E-12  0.4311E-08  0.3157E-12  0.1989E-04  0.0000E+00 -0.1452E+12
   -2.131265    3.99343  0.7318E-12  0.4624E-08  0.3512E-12  0.2186E-04  0.0000E+00 -0.1612E+12
   -2.200015    3.99475  0.7318E-12  0.4898E-08  0.3905E-12  0.2282E-04  0.0000E+00 -0.1806E+12
   -2.268765    3.99602  0.7318E-12  0.5132E-08  0.4355E-12  0.2284E-04  0.0000E+00 -0.2062E+12
   -2.337514    3.99729  0.7318E-12  0.5330E-08  0.4911E-12  0.2185E-04  0.0000E+00 -0.2431E+12
   -2.406263    3.99862  0.7318E-12  0.5482E-08  0.5645E-12  0.1981E-04  0.0000E+00 -0.3015E+12
   -2.475011    4.00010  0.7318E-12  0.5571E-08  0.6720E-12  0.1657E-04  0.0000E+00 -0.4066E+12
   -2.543758    4.00187  0.7318E-12  0.5554E-08  0.8571E-12  0.1206E-04  0.0000E+00 -0.6422E+12
   -2.612505    4.00431  0.7318E-12  0.5301E-08  0.1295E-11  0.6360E-05  0.0000E+00 -0.1484E+13
   -2.681251    4.00897  0.7318E-12  0.4056E-08  0.3643E-11  0.1014E-05  0.0000E+00 -0.1586E+14
   -2.749997    4.03670  0.7318E-12  0.0000E+00  0.0000E+00  0.0000E+00  0.0000E+00  0.0000E+00
