 1 - depth, m
 2 - temperature, C
 3 - salinity, kg/kg
 4 - turbulent kinetic energy, m**2/s**2
 5 - dissipation rate, m**2/s**3
 6 - kinematic heat conductance, m**2/s
 7 - modulus of horizontal velocity, m/s
 8 - Richardson number, n/d
   -0.000000   -0.00000  0.1559E-11  0.1219E-13  0.7603E-17  0.1000E-09  0.0000E+00  0.6623E+16
   -0.068746    0.10071  0.9159E-12  0.1219E-13  0.7603E-17  0.1000E-09  0.0000E+00  0.6390E+16
   -0.137492    0.20059  0.6683E-12  0.1219E-13  0.7603E-17  0.1000E-09  0.0000E+00  0.6186E+16
   -0.206239    0.30003  0.5980E-12  0.1219E-13  0.7603E-17  0.1000E-09  0.0000E+00  0.6009E+16
   -0.274987    0.39943  0.5810E-12  0.1219E-13  0.7603E-17  0.1000E-09  0.0000E+00  0.5855E+16
   -0.343735    0.49919  0.5773E-12  0.1219E-13  0.7603E-17  0.1000E-09  0.0000E+00  0.5724E+16
   -0.412483    0.59972  0.5765E-12  0.1219E-13  0.7603E-17  0.1000E-09  0.0000E+00  0.5612E+16
   -0.481233    0.70144  0.5764E-12  0.1219E-13  0.7603E-17  0.1000E-09  0.0000E+00  0.5515E+16
   -0.549982    0.80476  0.5764E-12  0.1219E-13  0.7603E-17  0.1000E-09  0.0000E+00  0.5431E+16
   -0.618732    0.91007  0.5764E-12  0.1219E-13  0.7603E-17  0.1000E-09  0.0000E+00  0.5355E+16
   -0.687482    1.01776  0.5764E-12  0.1219E-13  0.7603E-17  0.1000E-09  0.0000E+00  0.5295E+16
   -0.756233    1.12844  0.5764E-12  0.1219E-13  0.7603E-17  0.1000E-09  0.0000E+00  0.5242E+16
   -0.824984    1.24262  0.5764E-12  0.1219E-13  0.7603E-17  0.1000E-09  0.0000E+00  0.5181E+16
   -0.893735    1.36059  0.5764E-12  0.1219E-13  0.7603E-17  0.1000E-09  0.0000E+00  0.5109E+16
   -0.962487    1.48261  0.5763E-12  0.1219E-13  0.7603E-17  0.1000E-09  0.0000E+00  0.5022E+16
   -1.031239    1.60889  0.5761E-12  0.5173E-13  0.9373E-17  0.1000E-09  0.0000E+00  0.4914E+16
   -1.099991    1.73961  0.5756E-12  0.1506E-12  0.2123E-16  0.1000E-09  0.0000E+00  0.4782E+16
   -1.168743    1.87488  0.5745E-12  0.3838E-12  0.5075E-16  0.1000E-09  0.0000E+00  0.4623E+16
   -1.237495    2.01477  0.5727E-12  0.9381E-12  0.1199E-15  0.1000E-09  0.0000E+00  0.4433E+16
   -1.306247    2.15930  0.5700E-12  0.2251E-11  0.2795E-15  0.1000E-09  0.0000E+00  0.4210E+16
   -1.374999    2.30842  0.5671E-12  0.5332E-11  0.6442E-15  0.1000E-09  0.0000E+00  0.3958E+16
   -1.443752    2.46226  0.5646E-12  0.1249E-10  0.1469E-14  0.1000E-09  0.0000E+00  0.3671E+16
   -1.512504    2.62076  0.5629E-12  0.2895E-10  0.3314E-14  0.1000E-09  0.0000E+00  0.3345E+16
   -1.581256    2.78369  0.5619E-12  0.6638E-10  0.7400E-14  0.1000E-09  0.0000E+00  0.2982E+16
   -1.650008    2.95077  0.5614E-12  0.1507E-09  0.1636E-13  0.1000E-09  0.0000E+00  0.2582E+16
   -1.718760    3.12168  0.5610E-12  0.3386E-09  0.3584E-13  0.1000E-09  0.0000E+00  0.2151E+16
   -1.787512    3.29615  0.5607E-12  0.7716E-09  0.7957E-13  0.2370E-09  0.0000E+00  0.1709E+16
   -1.856263    3.47618  0.5604E-12  0.1772E-08  0.1781E-12  0.7424E-09  0.0000E+00  0.1221E+16
   -1.925014    3.66166  0.5597E-12  0.4054E-08  0.3976E-12  0.2956E-08  0.0000E+00  0.6844E+15
   -1.993765    3.85082  0.5589E-12  0.9094E-08  0.8721E-12  0.3204E-07  0.0000E+00  0.1383E+15
   -2.062516    4.01326  0.5588E-12  0.1016E-07  0.9796E-12  0.4336E-04  0.0000E+00 -0.2761E+12
   -2.131267    4.01391  0.5588E-12  0.1060E-07  0.1036E-11  0.4367E-04  0.0000E+00 -0.2811E+12
   -2.200017    4.01455  0.5588E-12  0.1094E-07  0.1096E-11  0.4304E-04  0.0000E+00 -0.2924E+12
   -2.268766    4.01520  0.5588E-12  0.1120E-07  0.1164E-11  0.4141E-04  0.0000E+00 -0.3117E+12
   -2.337515    4.01588  0.5588E-12  0.1137E-07  0.1248E-11  0.3861E-04  0.0000E+00 -0.3435E+12
   -2.406264    4.01662  0.5588E-12  0.1144E-07  0.1363E-11  0.3444E-04  0.0000E+00 -0.3966E+12
   -2.475012    4.01744  0.5588E-12  0.1139E-07  0.1537E-11  0.2863E-04  0.0000E+00 -0.4937E+12
   -2.543760    4.01844  0.5588E-12  0.1116E-07  0.1846E-11  0.2095E-04  0.0000E+00 -0.7058E+12
   -2.612507    4.01981  0.5588E-12  0.1051E-07  0.2593E-11  0.1132E-04  0.0000E+00 -0.1405E+13
   -2.681253    4.02239  0.5588E-12  0.7698E-08  0.7218E-11  0.1537E-05  0.0000E+00 -0.1341E+14
   -2.749999    4.04122  0.5588E-12  0.0000E+00  0.0000E+00  0.0000E+00  0.0000E+00  0.0000E+00
