 1 - depth, m
 2 - temperature, C
 3 - salinity, kg/kg
 4 - turbulent kinetic energy, m**2/s**2
 5 - dissipation rate, m**2/s**3
 6 - kinematic heat conductance, m**2/s
 7 - modulus of horizontal velocity, m/s
 8 - Richardson number, n/d
   -0.000000   -0.00000  0.1121E-17  0.1219E-13  0.7603E-17  0.1000E-09  0.0000E+00  0.4550E+16
   -0.068746    0.06890  0.0000E+00  0.1219E-13  0.7603E-17  0.1000E-09  0.0000E+00  0.4669E+16
   -0.137493    0.14096  0.1032E-12  0.1219E-13  0.7603E-17  0.1000E-09  0.0000E+00  0.4799E+16
   -0.206241    0.21656  0.5525E-12  0.1219E-13  0.7603E-17  0.1000E-09  0.0000E+00  0.4938E+16
   -0.274989    0.29607  0.1169E-11  0.1219E-13  0.7603E-17  0.1000E-09  0.0000E+00  0.5072E+16
   -0.343738    0.37968  0.1701E-11  0.1219E-13  0.7603E-17  0.1000E-09  0.0000E+00  0.5190E+16
   -0.412487    0.46742  0.2018E-11  0.1219E-13  0.7603E-17  0.1000E-09  0.0000E+00  0.5281E+16
   -0.481237    0.55915  0.2122E-11  0.1219E-13  0.7603E-17  0.1000E-09  0.0000E+00  0.5339E+16
   -0.549987    0.65460  0.2087E-11  0.1219E-13  0.7603E-17  0.1000E-09  0.0000E+00  0.5361E+16
   -0.618737    0.75344  0.1992E-11  0.1219E-13  0.7603E-17  0.1000E-09  0.0000E+00  0.5348E+16
   -0.687488    0.85532  0.1890E-11  0.1219E-13  0.7603E-17  0.1000E-09  0.0000E+00  0.5297E+16
   -0.756240    0.95979  0.1808E-11  0.1219E-13  0.7603E-17  0.1000E-09  0.0000E+00  0.5214E+16
   -0.824991    1.06648  0.1751E-11  0.1219E-13  0.7603E-17  0.1000E-09  0.0000E+00  0.5107E+16
   -0.893743    1.17509  0.1716E-11  0.1219E-13  0.7603E-17  0.1000E-09  0.0000E+00  0.4979E+16
   -0.962495    1.28538  0.1697E-11  0.1219E-13  0.7603E-17  0.1000E-09  0.0000E+00  0.4833E+16
   -1.031247    1.39715  0.1687E-11  0.1219E-13  0.7603E-17  0.1000E-09  0.0000E+00  0.4674E+16
   -1.100000    1.51026  0.1681E-11  0.1219E-13  0.7603E-17  0.1000E-09  0.0000E+00  0.4505E+16
   -1.168753    1.62460  0.1678E-11  0.1219E-13  0.7603E-17  0.1000E-09  0.0000E+00  0.4327E+16
   -1.237505    1.74012  0.1676E-11  0.1219E-13  0.7603E-17  0.1000E-09  0.0000E+00  0.4143E+16
   -1.306258    1.85683  0.1674E-11  0.1219E-13  0.7603E-17  0.1000E-09  0.0000E+00  0.3956E+16
   -1.375011    1.97480  0.1671E-11  0.1219E-13  0.7603E-17  0.1000E-09  0.0000E+00  0.3767E+16
   -1.443764    2.09420  0.1668E-11  0.1219E-13  0.7603E-17  0.1000E-09  0.0000E+00  0.3575E+16
   -1.512516    2.21520  0.1664E-11  0.1219E-13  0.7603E-17  0.1000E-09  0.0000E+00  0.3380E+16
   -1.581269    2.33799  0.1659E-11  0.1219E-13  0.7603E-17  0.1000E-09  0.0000E+00  0.3179E+16
   -1.650022    2.46274  0.1655E-11  0.1219E-13  0.7603E-17  0.1000E-09  0.0000E+00  0.2970E+16
   -1.718774    2.58960  0.1651E-11  0.1219E-13  0.7603E-17  0.1000E-09  0.0000E+00  0.2747E+16
   -1.787527    2.71846  0.1646E-11  0.1219E-13  0.7603E-17  0.1000E-09  0.0000E+00  0.2426E+16
   -1.856279    2.84455  0.1643E-11  0.1219E-13  0.7603E-17  0.1000E-09  0.0000E+00  0.2107E+16
   -1.925031    2.96692  0.1640E-11  0.1240E-13  0.7603E-17  0.1000E-09  0.0000E+00  0.1794E+16
   -1.993782    3.08433  0.1637E-11  0.6225E-13  0.2067E-16  0.1000E-09  0.0000E+00  0.1512E+16
   -2.062533    3.19693  0.1635E-11  0.2511E-12  0.7675E-16  0.1000E-09  0.0000E+00  0.1315E+16
   -2.131284    3.31018  0.1633E-11  0.9579E-12  0.2809E-15  0.1000E-09  0.0000E+00  0.1123E+16
   -2.200035    3.42489  0.1632E-11  0.3572E-11  0.1009E-14  0.1000E-09  0.0000E+00  0.9256E+15
   -2.268785    3.54140  0.1631E-11  0.1321E-10  0.3596E-14  0.1000E-09  0.0000E+00  0.7177E+15
   -2.337535    3.65940  0.1630E-11  0.4898E-10  0.1286E-13  0.1297E-09  0.0000E+00  0.5015E+15
   -2.406284    3.77867  0.1629E-11  0.1808E-09  0.4584E-13  0.8315E-09  0.0000E+00  0.2779E+15
   -2.475033    3.89843  0.1629E-11  0.6633E-09  0.1628E-12  0.1401E-07  0.0000E+00  0.5671E+14
   -2.543781    4.00847  0.1629E-11  0.1831E-08  0.4507E-12  0.3331E-05  0.0000E+00 -0.1860E+13
   -2.612528    4.01330  0.1629E-11  0.2090E-08  0.6513E-12  0.2520E-05  0.0000E+00 -0.2772E+13
   -2.681275    4.01922  0.1629E-11  0.1600E-08  0.1272E-11  0.4783E-06  0.0000E+00 -0.1320E+14
   -2.750022    4.03893  0.1629E-11  0.0000E+00  0.0000E+00  0.0000E+00  0.0000E+00  0.0000E+00
