 1 - depth, m
 2 - temperature, C
 3 - salinity, kg/kg
 4 - turbulent kinetic energy, m**2/s**2
 5 - dissipation rate, m**2/s**3
 6 - kinematic heat conductance, m**2/s
 7 - modulus of horizontal velocity, m/s
 8 - Richardson number, n/d
   -0.000000   -0.00000  0.1495E-11  0.1219E-13  0.7603E-17  0.1000E-09  0.3136E-81  0.3656E+16
   -0.068746    0.05525  0.9217E-12  0.1219E-13  0.7603E-17  0.1000E-09  0.2867E-81  0.3346E+16
   -0.137492    0.10655  0.7843E-12  0.1219E-13  0.7603E-17  0.1000E-09  0.2582E-81  0.3029E+16
   -0.206239    0.15363  0.7592E-12  0.1219E-13  0.7603E-17  0.1000E-09  0.2257E-81  0.2716E+16
   -0.274987    0.19638  0.7555E-12  0.1219E-13  0.7603E-17  0.1000E-09  0.1925E-81  0.2420E+16
   -0.343735    0.23489  0.7550E-12  0.1219E-13  0.7603E-17  0.1000E-09  0.1614E-81  0.2152E+16
   -0.412483    0.26950  0.7550E-12  0.1219E-13  0.7603E-17  0.1000E-09  0.1338E-81  0.1924E+16
   -0.481233    0.30075  0.7549E-12  0.1219E-13  0.7603E-17  0.1000E-09  0.1101E-81  0.1750E+16
   -0.549982    0.32940  0.7549E-12  0.1219E-13  0.7603E-17  0.1000E-09  0.9001E-82  0.1638E+16
   -0.618732    0.35644  0.7549E-12  0.1219E-13  0.7603E-17  0.1000E-09  0.7319E-82  0.1598E+16
   -0.687482    0.38303  0.7549E-12  0.1219E-13  0.7603E-17  0.1000E-09  0.5916E-82  0.1654E+16
   -0.756233    0.41077  0.7549E-12  0.1219E-13  0.7603E-17  0.1000E-09  0.4752E-82  0.1804E+16
   -0.824984    0.44130  0.7549E-12  0.1219E-13  0.7603E-17  0.1000E-09  0.3792E-82  0.2047E+16
   -0.893736    0.47629  0.7549E-12  0.1219E-13  0.7603E-17  0.1000E-09  0.3006E-82  0.2384E+16
   -0.962487    0.51750  0.7549E-12  0.1219E-13  0.7603E-17  0.1000E-09  0.2367E-82  0.2814E+16
   -1.031239    0.56681  0.7549E-12  0.1219E-13  0.7603E-17  0.1000E-09  0.1852E-82  0.3329E+16
   -1.099991    0.62614  0.7549E-12  0.1219E-13  0.7603E-17  0.1000E-09  0.1438E-82  0.3918E+16
   -1.168743    0.69742  0.7548E-12  0.1219E-13  0.7603E-17  0.1000E-09  0.1109E-82  0.4564E+16
   -1.237495    0.78256  0.7541E-12  0.1219E-13  0.7603E-17  0.1000E-09  0.8482E-83  0.5241E+16
   -1.306247    0.88337  0.7517E-12  0.1786E-13  0.7652E-17  0.1000E-09  0.6423E-83  0.5916E+16
   -1.374999    1.00148  0.7462E-12  0.4721E-13  0.1217E-16  0.1000E-09  0.4801E-83  0.6601E+16
   -1.443752    1.13932  0.7401E-12  0.1467E-12  0.2983E-16  0.1000E-09  0.3521E-83  0.7210E+16
   -1.512504    1.29837  0.7375E-12  0.4457E-12  0.8655E-16  0.1000E-09  0.2503E-83  0.7679E+16
   -1.581256    1.47935  0.7363E-12  0.1321E-11  0.2497E-15  0.1000E-09  0.1678E-83  0.7961E+16
   -1.650008    1.68259  0.7354E-12  0.3847E-11  0.7101E-15  0.1000E-09  0.9888E-84  0.8013E+16
   -1.718760    1.90797  0.7348E-12  0.1104E-10  0.1991E-14  0.1000E-09  0.3815E-84  0.7792E+16
   -1.787512    2.15453  0.7345E-12  0.3213E-10  0.5658E-14  0.1000E-09  0.2585E-85  0.7102E+16
   -1.856263    2.41370  0.7343E-12  0.9365E-10  0.1612E-13  0.1000E-09  0.1613E-86  0.6253E+16
   -1.925015    2.68521  0.7342E-12  0.2710E-09  0.4559E-13  0.1000E-09  0.9194E-88  0.5264E+16
   -1.993766    2.96995  0.7341E-12  0.7787E-09  0.1281E-12  0.1568E-09  0.5707E-89  0.4155E+16
   -2.062516    3.27247  0.7337E-12  0.2167E-08  0.3485E-12  0.6181E-09  0.4604E-90  0.2853E+16
   -2.131267    3.60163  0.7324E-12  0.5925E-08  0.9319E-12  0.4050E-08  0.3478E-91  0.1150E+16
   -2.200017    3.96107  0.7303E-12  0.9997E-08  0.1643E-11  0.1211E-04  0.2428E-92  0.1699E+14
   -2.268766    4.01049  0.7302E-12  0.1157E-07  0.1954E-11  0.2719E-04  0.9224E-94 -0.7470E+12
   -2.337515    4.01275  0.7302E-12  0.1240E-07  0.2179E-11  0.2756E-04  0.3192E-94 -0.8099E+12
   -2.406264    4.01493  0.7302E-12  0.1302E-07  0.2448E-11  0.2623E-04  0.1029E-94 -0.9259E+12
   -2.475012    4.01719  0.7302E-12  0.1341E-07  0.2818E-11  0.2307E-04  0.2952E-95 -0.1149E+13
   -2.543760    4.01975  0.7302E-12  0.1351E-07  0.3434E-11  0.1785E-04  0.7166E-96 -0.1651E+13
   -2.612507    4.02307  0.7302E-12  0.1308E-07  0.4858E-11  0.1040E-04  0.1234E-96 -0.3355E+13
   -2.681253    4.02894  0.7302E-12  0.1034E-07  0.1298E-10  0.1902E-05  0.1048E-97 -0.3023E+14
   -2.749999    4.06217  0.7302E-12  0.0000E+00  0.0000E+00  0.0000E+00  0.1103E-97  0.0000E+00
