 1 - depth, m
 2 - temperature, C
 3 - salinity, kg/kg
 4 - turbulent kinetic energy, m**2/s**2
 5 - dissipation rate, m**2/s**3
 6 - kinematic heat conductance, m**2/s
 7 - modulus of horizontal velocity, m/s
 8 - Richardson number, n/d
   -0.000000    9.29433  0.2163E-11  0.1540E-04  0.7390E-06  0.3464E-04  0.2745E-01 -0.2309E-01
   -0.068746    9.33015  0.2163E-11  0.1441E-04  0.2554E-06  0.9090E-04  0.1791E-01 -0.6039E-01
   -0.137492    9.34302  0.2163E-11  0.1383E-04  0.1458E-06  0.1541E-03  0.1445E-01 -0.1016E+00
   -0.206239    9.35035  0.2163E-11  0.1342E-04  0.9959E-07  0.2253E-03  0.1244E-01 -0.1476E+00
   -0.274987    9.35520  0.2163E-11  0.1313E-04  0.7478E-07  0.3069E-03  0.1108E-01 -0.1860E+00
   -0.343735    9.35865  0.2163E-11  0.1291E-04  0.5969E-07  0.4542E-03  0.1008E-01  0.3670E+00
   -0.412484    9.36100  0.2163E-11  0.1277E-04  0.5018E-07  0.8549E-03  0.9324E-02  0.7520E+02
   -0.481233    9.36234  0.2163E-11  0.1271E-04  0.4380E-07  0.1080E-02  0.8766E-02  0.2559E+02
   -0.549983    9.36331  0.2163E-11  0.1270E-04  0.3901E-07  0.1218E-02  0.8263E-02  0.2597E+02
   -0.618733    9.36410  0.2163E-11  0.1272E-04  0.3526E-07  0.1309E-02  0.7801E-02  0.8888E+02
   -0.687483    9.36481  0.2163E-11  0.1277E-04  0.3221E-07  0.1366E-02  0.7367E-02  0.1065E+02
   -0.756234    9.36547  0.2163E-11  0.1281E-04  0.2968E-07  0.1423E-02  0.6953E-02  0.1140E+02
   -0.824985    9.36610  0.2163E-11  0.1286E-04  0.2756E-07  0.1478E-02  0.6558E-02  0.1206E+02
   -0.893736    9.36669  0.2163E-11  0.1290E-04  0.2577E-07  0.1531E-02  0.6179E-02  0.1274E+02
   -0.962488    9.36725  0.2163E-11  0.1293E-04  0.2423E-07  0.1581E-02  0.5812E-02  0.1345E+02
   -1.031240    9.36779  0.2163E-11  0.1295E-04  0.2289E-07  0.1629E-02  0.5457E-02  0.1422E+02
   -1.099992    9.36830  0.2163E-11  0.1295E-04  0.2173E-07  0.1673E-02  0.5111E-02  0.1508E+02
   -1.168744    9.36879  0.2163E-11  0.1293E-04  0.2072E-07  0.1713E-02  0.4773E-02  0.1607E+02
   -1.237496    9.36926  0.2163E-11  0.1289E-04  0.1983E-07  0.1748E-02  0.4441E-02  0.1727E+02
   -1.306248    9.36972  0.2163E-11  0.1283E-04  0.1904E-07  0.1777E-02  0.4114E-02  0.1876E+02
   -1.375001    9.37016  0.2163E-11  0.1274E-04  0.1834E-07  0.1799E-02  0.3792E-02  0.2075E+02
   -1.443753    9.37059  0.2163E-11  0.1262E-04  0.1773E-07  0.1812E-02  0.3474E-02  0.2353E+02
   -1.512505    9.37102  0.2163E-11  0.1247E-04  0.1718E-07  0.1815E-02  0.3158E-02  0.2791E+02
   -1.581258    9.37143  0.2163E-11  0.1229E-04  0.1669E-07  0.1806E-02  0.2843E-02  0.3580E+02
   -1.650010    9.37185  0.2163E-11  0.1207E-04  0.1625E-07  0.1789E-02  0.2529E-02  0.5494E+02
   -1.718762    9.37226  0.2163E-11  0.1181E-04  0.1587E-07  0.1750E-02  0.2216E-02  0.1107E+03
   -1.787514    9.37268  0.2163E-11  0.1149E-04  0.1551E-07  0.1747E-02  0.1900E-02  0.9572E+01
   -1.856265    9.37310  0.2163E-11  0.1115E-04  0.1522E-07  0.1744E-02  0.1631E-02  0.4319E+01
   -1.925017    9.37352  0.2163E-11  0.1078E-04  0.1503E-07  0.1758E-02  0.1400E-02  0.2537E+01
   -1.993768    9.37393  0.2163E-11  0.1040E-04  0.1497E-07  0.1790E-02  0.1208E-02  0.1790E+01
   -2.062518    9.37433  0.2163E-11  0.1003E-04  0.1507E-07  0.1818E-02  0.1045E-02  0.1455E+01
   -2.131269    9.37471  0.2163E-11  0.9680E-05  0.1535E-07  0.1765E-02  0.9022E-03  0.1192E+01
   -2.200019    9.37511  0.2163E-11  0.9353E-05  0.1582E-07  0.1662E-02  0.7761E-03  0.9788E+00
   -2.268769    9.37554  0.2163E-11  0.9054E-05  0.1652E-07  0.1524E-02  0.6654E-03  0.7647E+00
   -2.337518    9.37600  0.2163E-11  0.8778E-05  0.1751E-07  0.1367E-02  0.5728E-03  0.6127E+00
   -2.406266    9.37652  0.2163E-11  0.8514E-05  0.1894E-07  0.1235E-02  0.4971E-03  0.6483E+00
   -2.475015    9.37708  0.2163E-11  0.8228E-05  0.2135E-07  0.1040E-02  0.4338E-03  0.5860E+01
   -2.543762    9.37779  0.2163E-11  0.7851E-05  0.2615E-07  0.9171E-03  0.3726E-03  0.1847E+03
   -2.612509    9.37868  0.2163E-11  0.7141E-05  0.4094E-07  0.4773E-03  0.3143E-03  0.6462E+03
   -2.681256    9.38172  0.2163E-11  0.4325E-05  0.1508E-06  0.6604E-04  0.2172E-03 -0.7126E+04
   -2.750002    9.39344  0.2163E-11  0.0000E+00  0.0000E+00  0.0000E+00  0.2418E-03  0.0000E+00
