 1 - depth, m
 2 - temperature, C
 3 - salinity, kg/kg
 4 - turbulent kinetic energy, m**2/s**2
 5 - dissipation rate, m**2/s**3
 6 - kinematic heat conductance, m**2/s
 7 - modulus of horizontal velocity, m/s
 8 - Richardson number, n/d
   -0.000000    0.00000  0.0000E+00  0.1219E-13  0.7603E-17  0.1000E-09  0.0000E+00  0.5245E+16
   -0.068746    0.07954  0.3390E-12  0.1219E-13  0.7603E-17  0.1000E-09  0.0000E+00  0.5407E+16
   -0.137493    0.16337  0.1420E-11  0.1219E-13  0.7603E-17  0.1000E-09  0.0000E+00  0.5597E+16
   -0.206240    0.25227  0.2605E-11  0.1219E-13  0.7603E-17  0.1000E-09  0.0000E+00  0.5758E+16
   -0.274988    0.34612  0.3411E-11  0.1219E-13  0.7603E-17  0.1000E-09  0.0000E+00  0.5858E+16
   -0.343737    0.44433  0.3739E-11  0.1219E-13  0.7603E-17  0.1000E-09  0.0000E+00  0.5892E+16
   -0.412486    0.54612  0.3724E-11  0.1219E-13  0.7603E-17  0.1000E-09  0.0000E+00  0.5867E+16
   -0.481236    0.65074  0.3547E-11  0.1219E-13  0.7603E-17  0.1000E-09  0.0000E+00  0.5795E+16
   -0.549986    0.75758  0.3338E-11  0.1219E-13  0.7603E-17  0.1000E-09  0.0000E+00  0.5687E+16
   -0.618736    0.86620  0.3164E-11  0.1219E-13  0.7603E-17  0.1000E-09  0.0000E+00  0.5553E+16
   -0.687487    0.97625  0.3044E-11  0.1219E-13  0.7603E-17  0.1000E-09  0.0000E+00  0.5399E+16
   -0.756238    1.08745  0.2971E-11  0.1219E-13  0.7603E-17  0.1000E-09  0.0000E+00  0.5230E+16
   -0.824990    1.19961  0.2930E-11  0.1219E-13  0.7603E-17  0.1000E-09  0.0000E+00  0.5050E+16
   -0.893741    1.31259  0.2909E-11  0.1219E-13  0.7603E-17  0.1000E-09  0.0000E+00  0.4862E+16
   -0.962493    1.42628  0.2899E-11  0.1219E-13  0.7603E-17  0.1000E-09  0.0000E+00  0.4666E+16
   -1.031245    1.54059  0.2893E-11  0.1219E-13  0.7603E-17  0.1000E-09  0.0000E+00  0.4465E+16
   -1.099998    1.65544  0.2889E-11  0.1219E-13  0.7603E-17  0.1000E-09  0.0000E+00  0.4259E+16
   -1.168750    1.77076  0.2885E-11  0.1219E-13  0.7603E-17  0.1000E-09  0.0000E+00  0.4050E+16
   -1.237503    1.88649  0.2880E-11  0.1219E-13  0.7603E-17  0.1000E-09  0.0000E+00  0.3837E+16
   -1.306256    2.00259  0.2874E-11  0.1219E-13  0.7603E-17  0.1000E-09  0.0000E+00  0.3623E+16
   -1.375008    2.11905  0.2867E-11  0.1219E-13  0.7603E-17  0.1000E-09  0.0000E+00  0.3411E+16
   -1.443761    2.23598  0.2859E-11  0.1219E-13  0.7603E-17  0.1000E-09  0.0000E+00  0.3200E+16
   -1.512514    2.35351  0.2850E-11  0.1219E-13  0.7603E-17  0.1000E-09  0.0000E+00  0.2991E+16
   -1.581266    2.47185  0.2842E-11  0.1219E-13  0.7603E-17  0.1000E-09  0.0000E+00  0.2786E+16
   -1.650019    2.59128  0.2834E-11  0.1219E-13  0.7603E-17  0.1000E-09  0.0000E+00  0.2581E+16
   -1.718771    2.71213  0.2827E-11  0.1219E-13  0.7603E-17  0.1000E-09  0.0000E+00  0.2370E+16
   -1.787523    2.83446  0.2822E-11  0.1219E-13  0.7603E-17  0.1000E-09  0.0000E+00  0.2084E+16
   -1.856275    2.95417  0.2817E-11  0.1219E-13  0.7603E-17  0.1000E-09  0.0000E+00  0.1801E+16
   -1.925027    3.07041  0.2814E-11  0.3453E-13  0.1087E-16  0.1000E-09  0.0000E+00  0.1526E+16
   -1.993778    3.18214  0.2811E-11  0.1320E-12  0.3593E-16  0.1000E-09  0.0000E+00  0.1278E+16
   -2.062530    3.28956  0.2809E-11  0.4707E-12  0.1225E-15  0.1000E-09  0.0000E+00  0.1099E+16
   -2.131280    3.39757  0.2807E-11  0.1635E-11  0.4107E-15  0.1000E-09  0.0000E+00  0.9234E+15
   -2.200031    3.50702  0.2805E-11  0.5588E-11  0.1357E-14  0.1000E-09  0.0000E+00  0.7432E+15
   -2.268781    3.61826  0.2804E-11  0.1901E-10  0.4464E-14  0.1000E-09  0.0000E+00  0.5531E+15
   -2.337530    3.73097  0.2804E-11  0.6505E-10  0.1479E-13  0.2109E-09  0.0000E+00  0.3545E+15
   -2.406280    3.84461  0.2803E-11  0.2223E-09  0.4896E-13  0.1629E-08  0.0000E+00  0.1508E+15
   -2.475028    3.95722  0.2803E-11  0.7276E-09  0.1566E-12  0.1676E-06  0.0000E+00  0.2918E+13
   -2.543776    4.00822  0.2803E-11  0.1697E-08  0.4005E-12  0.3260E-05  0.0000E+00 -0.1716E+13
   -2.612524    4.01275  0.2803E-11  0.1942E-08  0.5911E-12  0.2405E-05  0.0000E+00 -0.2649E+13
   -2.681270    4.01852  0.2803E-11  0.1498E-08  0.1173E-11  0.4581E-06  0.0000E+00 -0.1291E+14
   -2.750017    4.03815  0.2803E-11  0.0000E+00  0.0000E+00  0.0000E+00  0.0000E+00  0.0000E+00
