 1 - depth, m
 2 - temperature, C
 3 - salinity, kg/kg
 4 - turbulent kinetic energy, m**2/s**2
 5 - dissipation rate, m**2/s**3
 6 - kinematic heat conductance, m**2/s
 7 - modulus of horizontal velocity, m/s
 8 - Richardson number, n/d
   -0.000000    2.10138  0.2543E-10  0.4722E-04  0.2606E-03  0.4700E-04  0.6782E-01  0.3265E-01
   -0.068746    2.15634  0.2543E-10  0.3210E-04  0.1431E-03  0.8456E-04  0.4285E-01  0.1063E-01
   -0.137492    2.17350  0.2543E-10  0.2734E-04  0.8128E-04  0.1186E-03  0.3668E-01  0.1384E-01
   -0.206239    2.18514  0.2543E-10  0.2387E-04  0.3042E-04  0.1512E-03  0.3277E-01  0.2071E-01
   -0.274987    2.19416  0.2543E-10  0.2129E-04  0.6319E-05  0.1800E-03  0.2987E-01  0.2720E-01
   -0.343735    2.20162  0.2543E-10  0.1954E-04  0.9596E-06  0.2041E-03  0.2758E-01  0.3427E-01
   -0.412484    2.20802  0.2543E-10  0.1820E-04  0.2353E-06  0.2235E-03  0.2570E-01  0.4191E-01
   -0.481233    2.21365  0.2543E-10  0.1705E-04  0.1256E-06  0.2387E-03  0.2413E-01  0.5028E-01
   -0.549983    2.21874  0.2543E-10  0.1600E-04  0.9302E-07  0.2496E-03  0.2278E-01  0.5923E-01
   -0.618733    2.22347  0.2543E-10  0.1502E-04  0.7564E-07  0.2568E-03  0.2159E-01  0.6894E-01
   -0.687483    2.22794  0.2543E-10  0.1409E-04  0.6361E-07  0.2606E-03  0.2052E-01  0.7959E-01
   -0.756234    2.23222  0.2543E-10  0.1320E-04  0.5434E-07  0.2615E-03  0.1954E-01  0.9134E-01
   -0.824985    2.23636  0.2543E-10  0.1236E-04  0.4685E-07  0.2599E-03  0.1865E-01  0.1045E+00
   -0.893737    2.24042  0.2543E-10  0.1156E-04  0.4068E-07  0.2563E-03  0.1783E-01  0.1196E+00
   -0.962488    2.24442  0.2543E-10  0.1081E-04  0.3552E-07  0.2513E-03  0.1706E-01  0.1372E+00
   -1.031240    2.24839  0.2543E-10  0.1011E-04  0.3120E-07  0.2456E-03  0.1634E-01  0.1586E+00
   -1.099992    2.25235  0.2543E-10  0.9470E-05  0.2762E-07  0.2403E-03  0.1568E-01  0.1855E+00
   -1.168744    2.25629  0.2543E-10  0.8914E-05  0.2474E-07  0.2365E-03  0.1506E-01  0.2208E+00
   -1.237496    2.26019  0.2543E-10  0.8462E-05  0.2255E-07  0.2357E-03  0.1449E-01  0.2695E+00
   -1.306249    2.26403  0.2543E-10  0.8142E-05  0.2112E-07  0.2390E-03  0.1397E-01  0.3395E+00
   -1.375001    2.26774  0.2543E-10  0.7982E-05  0.2051E-07  0.2468E-03  0.1351E-01  0.4496E+00
   -1.443753    2.27130  0.2543E-10  0.8017E-05  0.2083E-07  0.2593E-03  0.1311E-01  0.8018E+00
   -1.512506    2.27480  0.2543E-10  0.8340E-05  0.2257E-07  0.2080E-03  0.1270E-01  0.6125E+00
   -1.581258    2.28502  0.2543E-10  0.8138E-05  0.2238E-07  0.2345E-03  0.9568E-02  0.1237E+01
   -1.650010    2.29188  0.2543E-10  0.7844E-05  0.2217E-07  0.1547E-03  0.7125E-02  0.7621E+00
   -1.718762    2.31229  0.2543E-10  0.6517E-05  0.1713E-07  0.2092E-03  0.1821E-02  0.1373E+01
   -1.787514    2.31727  0.2543E-10  0.5603E-05  0.1392E-07  0.1866E-03  0.1228E-02  0.3152E+01
   -1.856265    2.32129  0.2543E-10  0.4791E-05  0.1133E-07  0.1568E-03  0.9754E-03  0.2410E+01
   -1.925017    2.32575  0.2543E-10  0.4047E-05  0.9145E-08  0.1271E-03  0.7689E-03  0.4507E+01
   -1.993768    2.33092  0.2543E-10  0.3356E-05  0.7277E-08  0.9620E-04  0.6076E-03  0.9269E+01
   -2.062519    2.33733  0.2543E-10  0.2732E-05  0.5727E-08  0.6464E-04  0.4817E-03  0.1709E+02
   -2.131269    2.34651  0.2543E-10  0.2160E-05  0.4425E-08  0.3515E-04  0.3705E-03  0.4010E+02
   -2.200019    2.36306  0.2543E-10  0.1511E-05  0.3073E-08  0.6925E-05  0.2726E-03  0.1237E+03
   -2.268769    2.48745  0.2543E-10  0.5814E-06  0.1148E-08  0.4095E-06  0.1181E-03  0.9996E+04
   -2.337518    3.58573  0.2544E-10  0.2930E-06  0.4764E-09  0.1781E-04  0.1056E-04  0.9967E+06
   -2.406267    4.07594  0.2544E-10  0.2503E-06  0.3387E-09  0.4519E-04  0.1912E-05 -0.8022E+07
   -2.475015    4.09342  0.2544E-10  0.2202E-06  0.2658E-09  0.4864E-04  0.8345E-06 -0.8338E+08
   -2.543763    4.10875  0.2544E-10  0.1988E-06  0.2331E-09  0.4679E-04  0.3363E-06 -0.9952E+09
   -2.612510    4.12244  0.2544E-10  0.1779E-06  0.2435E-09  0.3407E-04  0.1174E-06 -0.2203E+11
   -2.681256    4.13875  0.2544E-10  0.1175E-06  0.5071E-09  0.5590E-05  0.3132E-07 -0.6240E+14
   -2.750002    4.22201  0.2544E-10  0.0000E+00  0.0000E+00  0.0000E+00  0.3190E-07  0.0000E+00
