 1 - depth, m
 2 - temperature, C
 3 - salinity, kg/kg
 4 - turbulent kinetic energy, m**2/s**2
 5 - dissipation rate, m**2/s**3
 6 - kinematic heat conductance, m**2/s
 7 - modulus of horizontal velocity, m/s
 8 - Richardson number, n/d
   -0.000000   -0.00000  0.1095E-12  0.1219E-13  0.7603E-17  0.1000E-09  0.0000E+00  0.6751E+16
   -0.068746    0.10268  0.8119E-12  0.1219E-13  0.7603E-17  0.1000E-09  0.0000E+00  0.6672E+16
   -0.137493    0.20710  0.1580E-11  0.1219E-13  0.7603E-17  0.1000E-09  0.0000E+00  0.6578E+16
   -0.206240    0.31313  0.2061E-11  0.1219E-13  0.7603E-17  0.1000E-09  0.0000E+00  0.6469E+16
   -0.274988    0.42067  0.2222E-11  0.1219E-13  0.7603E-17  0.1000E-09  0.0000E+00  0.6346E+16
   -0.343736    0.52963  0.2178E-11  0.1219E-13  0.7603E-17  0.1000E-09  0.0000E+00  0.6211E+16
   -0.412485    0.63990  0.2052E-11  0.1219E-13  0.7603E-17  0.1000E-09  0.0000E+00  0.6062E+16
   -0.481234    0.75138  0.1922E-11  0.1219E-13  0.7603E-17  0.1000E-09  0.0000E+00  0.5903E+16
   -0.549984    0.86396  0.1820E-11  0.1219E-13  0.7603E-17  0.1000E-09  0.0000E+00  0.5732E+16
   -0.618734    0.97752  0.1754E-11  0.1219E-13  0.7603E-17  0.1000E-09  0.0000E+00  0.5550E+16
   -0.687485    1.09196  0.1715E-11  0.1219E-13  0.7603E-17  0.1000E-09  0.0000E+00  0.5360E+16
   -0.756236    1.20717  0.1695E-11  0.1219E-13  0.7603E-17  0.1000E-09  0.0000E+00  0.5161E+16
   -0.824987    1.32304  0.1685E-11  0.1219E-13  0.7603E-17  0.1000E-09  0.0000E+00  0.4956E+16
   -0.893739    1.43947  0.1681E-11  0.1219E-13  0.7603E-17  0.1000E-09  0.0000E+00  0.4744E+16
   -0.962490    1.55638  0.1678E-11  0.1219E-13  0.7603E-17  0.1000E-09  0.0000E+00  0.4526E+16
   -1.031242    1.67367  0.1676E-11  0.1219E-13  0.7603E-17  0.1000E-09  0.0000E+00  0.4305E+16
   -1.099995    1.79126  0.1675E-11  0.1219E-13  0.7603E-17  0.1000E-09  0.0000E+00  0.4080E+16
   -1.168747    1.90908  0.1672E-11  0.1219E-13  0.7603E-17  0.1000E-09  0.0000E+00  0.3853E+16
   -1.237499    2.02707  0.1669E-11  0.1219E-13  0.7603E-17  0.1000E-09  0.0000E+00  0.3624E+16
   -1.306252    2.14517  0.1665E-11  0.1219E-13  0.7603E-17  0.1000E-09  0.0000E+00  0.3394E+16
   -1.375004    2.26332  0.1661E-11  0.1219E-13  0.7603E-17  0.1000E-09  0.0000E+00  0.3164E+16
   -1.443757    2.38151  0.1657E-11  0.1219E-13  0.7603E-17  0.1000E-09  0.0000E+00  0.2933E+16
   -1.512509    2.49969  0.1652E-11  0.1219E-13  0.7603E-17  0.1000E-09  0.0000E+00  0.2703E+16
   -1.581262    2.61785  0.1648E-11  0.1219E-13  0.7603E-17  0.1000E-09  0.0000E+00  0.2473E+16
   -1.650014    2.73594  0.1644E-11  0.1219E-13  0.7603E-17  0.1000E-09  0.0000E+00  0.2245E+16
   -1.718766    2.85396  0.1640E-11  0.1219E-13  0.7603E-17  0.1000E-09  0.0000E+00  0.2016E+16
   -1.787518    2.97181  0.1638E-11  0.3797E-13  0.1024E-16  0.1000E-09  0.0000E+00  0.1762E+16
   -1.856270    3.08763  0.1635E-11  0.1340E-12  0.3025E-16  0.1000E-09  0.0000E+00  0.1515E+16
   -1.925021    3.20093  0.1634E-11  0.4414E-12  0.9480E-16  0.1000E-09  0.0000E+00  0.1275E+16
   -1.993773    3.31107  0.1632E-11  0.1420E-11  0.2944E-15  0.1000E-09  0.0000E+00  0.1051E+16
   -2.062524    3.41792  0.1631E-11  0.4398E-11  0.8822E-15  0.1000E-09  0.0000E+00  0.8642E+15
   -2.131274    3.52411  0.1630E-11  0.1339E-10  0.2600E-14  0.1000E-09  0.0000E+00  0.6825E+15
   -2.200024    3.62987  0.1629E-11  0.4023E-10  0.7566E-14  0.1000E-09  0.0000E+00  0.5034E+15
   -2.268774    3.73513  0.1629E-11  0.1205E-09  0.2196E-13  0.3406E-09  0.0000E+00  0.3266E+15
   -2.337524    3.83960  0.1629E-11  0.3633E-09  0.6422E-13  0.2111E-08  0.0000E+00  0.1535E+15
   -2.406273    3.94202  0.1629E-11  0.1060E-08  0.1827E-12  0.7427E-07  0.0000E+00  0.1126E+14
   -2.475021    4.00926  0.1629E-11  0.2113E-08  0.3721E-12  0.5543E-05  0.0000E+00 -0.9624E+12
   -2.543769    4.01179  0.1629E-11  0.2453E-08  0.4860E-12  0.5023E-05  0.0000E+00 -0.1160E+13
   -2.612516    4.01455  0.1629E-11  0.2479E-08  0.6675E-12  0.3169E-05  0.0000E+00 -0.1982E+13
   -2.681263    4.01872  0.1629E-11  0.1822E-08  0.1421E-11  0.5256E-06  0.0000E+00 -0.1197E+14
   -2.750009    4.03710  0.1629E-11  0.0000E+00  0.0000E+00  0.0000E+00  0.0000E+00  0.0000E+00
