 1 - depth, m
 2 - temperature, C
 3 - salinity, kg/kg
 4 - turbulent kinetic energy, m**2/s**2
 5 - dissipation rate, m**2/s**3
 6 - kinematic heat conductance, m**2/s
 7 - modulus of horizontal velocity, m/s
 8 - Richardson number, n/d
   -0.000000   -0.00000  0.2826E-11  0.1219E-13  0.7603E-17  0.1000E-09  0.0000E+00  0.8119E+16
   -0.068746    0.12386  0.1754E-11  0.1219E-13  0.7603E-17  0.1000E-09  0.0000E+00  0.7795E+16
   -0.137492    0.24688  0.1253E-11  0.1219E-13  0.7603E-17  0.1000E-09  0.0000E+00  0.7490E+16
   -0.206239    0.36929  0.1066E-11  0.1219E-13  0.7603E-17  0.1000E-09  0.0000E+00  0.7203E+16
   -0.274987    0.49132  0.1007E-11  0.1219E-13  0.7603E-17  0.1000E-09  0.0000E+00  0.6932E+16
   -0.343735    0.61318  0.9905E-12  0.1219E-13  0.7603E-17  0.1000E-09  0.0000E+00  0.6675E+16
   -0.412483    0.73508  0.9865E-12  0.1219E-13  0.7603E-17  0.1000E-09  0.0000E+00  0.6429E+16
   -0.481232    0.85722  0.9856E-12  0.1219E-13  0.7603E-17  0.1000E-09  0.0000E+00  0.6192E+16
   -0.549982    0.97981  0.9854E-12  0.1219E-13  0.7603E-17  0.1000E-09  0.0000E+00  0.5962E+16
   -0.618732    1.10303  0.9853E-12  0.1219E-13  0.7603E-17  0.1000E-09  0.0000E+00  0.5737E+16
   -0.687482    1.22704  0.9853E-12  0.1219E-13  0.7603E-17  0.1000E-09  0.0000E+00  0.5523E+16
   -0.756233    1.35221  0.9853E-12  0.1219E-13  0.7603E-17  0.1000E-09  0.0000E+00  0.5314E+16
   -0.824984    1.47881  0.9852E-12  0.1219E-13  0.7603E-17  0.1000E-09  0.0000E+00  0.5102E+16
   -0.893735    1.60695  0.9850E-12  0.1219E-13  0.7603E-17  0.1000E-09  0.0000E+00  0.4884E+16
   -0.962487    1.73672  0.9846E-12  0.2212E-13  0.7603E-17  0.1000E-09  0.0000E+00  0.4658E+16
   -1.031239    1.86819  0.9836E-12  0.8020E-13  0.1172E-16  0.1000E-09  0.0000E+00  0.4424E+16
   -1.099990    2.00140  0.9818E-12  0.2126E-12  0.2598E-16  0.1000E-09  0.0000E+00  0.4181E+16
   -1.168742    2.13637  0.9789E-12  0.5094E-12  0.5901E-16  0.1000E-09  0.0000E+00  0.3926E+16
   -1.237495    2.27309  0.9749E-12  0.1180E-11  0.1324E-15  0.1000E-09  0.0000E+00  0.3660E+16
   -1.306247    2.41152  0.9704E-12  0.2688E-11  0.2935E-15  0.1000E-09  0.0000E+00  0.3382E+16
   -1.374999    2.55159  0.9662E-12  0.6055E-11  0.6440E-15  0.1000E-09  0.0000E+00  0.3095E+16
   -1.443751    2.69334  0.9627E-12  0.1350E-10  0.1399E-14  0.1000E-09  0.0000E+00  0.2796E+16
   -1.512503    2.83667  0.9604E-12  0.2979E-10  0.3010E-14  0.1000E-09  0.0000E+00  0.2485E+16
   -1.581256    2.98145  0.9588E-12  0.6514E-10  0.6417E-14  0.1000E-09  0.0000E+00  0.2164E+16
   -1.650008    3.12749  0.9578E-12  0.1411E-09  0.1356E-13  0.1000E-09  0.0000E+00  0.1832E+16
   -1.718759    3.27460  0.9571E-12  0.3028E-09  0.2839E-13  0.1000E-09  0.0000E+00  0.1494E+16
   -1.787511    3.42264  0.9564E-12  0.6592E-09  0.6028E-13  0.2640E-09  0.0000E+00  0.1162E+16
   -1.856263    3.57336  0.9556E-12  0.1447E-08  0.1291E-12  0.8097E-09  0.0000E+00  0.8116E+15
   -1.925014    3.72656  0.9545E-12  0.3170E-08  0.2762E-12  0.3177E-08  0.0000E+00  0.4423E+15
   -1.993765    3.88060  0.9540E-12  0.6804E-08  0.5805E-12  0.3524E-07  0.0000E+00  0.8355E+14
   -2.062516    4.00908  0.9539E-12  0.7659E-08  0.6571E-12  0.3708E-04  0.0000E+00 -0.2195E+12
   -2.131266    4.00968  0.9539E-12  0.8014E-08  0.6971E-12  0.3738E-04  0.0000E+00 -0.2235E+12
   -2.200016    4.01029  0.9539E-12  0.8291E-08  0.7394E-12  0.3686E-04  0.0000E+00 -0.2326E+12
   -2.268766    4.01090  0.9539E-12  0.8495E-08  0.7869E-12  0.3546E-04  0.0000E+00 -0.2483E+12
   -2.337515    4.01153  0.9539E-12  0.8632E-08  0.8459E-12  0.3303E-04  0.0000E+00 -0.2741E+12
   -2.406263    4.01222  0.9539E-12  0.8692E-08  0.9255E-12  0.2941E-04  0.0000E+00 -0.3173E+12
   -2.475011    4.01299  0.9539E-12  0.8654E-08  0.1046E-11  0.2436E-04  0.0000E+00 -0.3968E+12
   -2.543759    4.01392  0.9539E-12  0.8462E-08  0.1260E-11  0.1768E-04  0.0000E+00 -0.5722E+12
   -2.612506    4.01521  0.9539E-12  0.7933E-08  0.1782E-11  0.9362E-05  0.0000E+00 -0.1162E+13
   -2.681252    4.01768  0.9539E-12  0.5672E-08  0.4988E-11  0.1202E-05  0.0000E+00 -0.1170E+14
   -2.749998    4.03610  0.9539E-12  0.0000E+00  0.0000E+00  0.0000E+00  0.0000E+00  0.0000E+00
