 1 - depth, m
 2 - temperature, C
 3 - salinity, kg/kg
 4 - turbulent kinetic energy, m**2/s**2
 5 - dissipation rate, m**2/s**3
 6 - kinematic heat conductance, m**2/s
 7 - modulus of horizontal velocity, m/s
 8 - Richardson number, n/d
   -0.000000    0.00000  0.0000E+00  0.1218E-13  0.7603E-17  0.1000E-09  0.0000E+00  0.5091E+16
   -0.068748    0.07717  0.4757E-12  0.1218E-13  0.7603E-17  0.1000E-09  0.0000E+00  0.5270E+16
   -0.137496    0.15881  0.2598E-11  0.1218E-13  0.7603E-17  0.1000E-09  0.0000E+00  0.5393E+16
   -0.206245    0.24431  0.5296E-11  0.1218E-13  0.7603E-17  0.1000E-09  0.0000E+00  0.5486E+16
   -0.274994    0.33348  0.7371E-11  0.1218E-13  0.7603E-17  0.1000E-09  0.0000E+00  0.5552E+16
   -0.343744    0.42614  0.8393E-11  0.1218E-13  0.7603E-17  0.1000E-09  0.0000E+00  0.5588E+16
   -0.412495    0.52205  0.8548E-11  0.1218E-13  0.7603E-17  0.1000E-09  0.0000E+00  0.5591E+16
   -0.481246    0.62091  0.8228E-11  0.1218E-13  0.7603E-17  0.1000E-09  0.0000E+00  0.5561E+16
   -0.549997    0.72239  0.7764E-11  0.1218E-13  0.7603E-17  0.1000E-09  0.0000E+00  0.5499E+16
   -0.618749    0.82611  0.7345E-11  0.1218E-13  0.7603E-17  0.1000E-09  0.0000E+00  0.5408E+16
   -0.687501    0.93175  0.7039E-11  0.1218E-13  0.7603E-17  0.1000E-09  0.0000E+00  0.5290E+16
   -0.756254    1.03894  0.6844E-11  0.1218E-13  0.7603E-17  0.1000E-09  0.0000E+00  0.5151E+16
   -0.825006    1.14740  0.6733E-11  0.1218E-13  0.7603E-17  0.1000E-09  0.0000E+00  0.4996E+16
   -0.893760    1.25691  0.6674E-11  0.1218E-13  0.7603E-17  0.1000E-09  0.0000E+00  0.4829E+16
   -0.962513    1.36731  0.6644E-11  0.1218E-13  0.7603E-17  0.1000E-09  0.0000E+00  0.4652E+16
   -1.031267    1.47846  0.6629E-11  0.1218E-13  0.7603E-17  0.1000E-09  0.0000E+00  0.4468E+16
   -1.100020    1.59027  0.6619E-11  0.1218E-13  0.7603E-17  0.1000E-09  0.0000E+00  0.4278E+16
   -1.168774    1.70267  0.6610E-11  0.1218E-13  0.7603E-17  0.1000E-09  0.0000E+00  0.4085E+16
   -1.237528    1.81563  0.6600E-11  0.1218E-13  0.7603E-17  0.1000E-09  0.0000E+00  0.3889E+16
   -1.306282    1.92914  0.6588E-11  0.1218E-13  0.7603E-17  0.1000E-09  0.0000E+00  0.3691E+16
   -1.375036    2.04324  0.6573E-11  0.1218E-13  0.7603E-17  0.1000E-09  0.0000E+00  0.3495E+16
   -1.443791    2.15804  0.6555E-11  0.1218E-13  0.7603E-17  0.1000E-09  0.0000E+00  0.3298E+16
   -1.512545    2.27364  0.6537E-11  0.1218E-13  0.7603E-17  0.1000E-09  0.0000E+00  0.3101E+16
   -1.581299    2.39018  0.6518E-11  0.1218E-13  0.7603E-17  0.1000E-09  0.0000E+00  0.2903E+16
   -1.650052    2.50780  0.6500E-11  0.1218E-13  0.7603E-17  0.1000E-09  0.0000E+00  0.2703E+16
   -1.718806    2.62668  0.6484E-11  0.1218E-13  0.7603E-17  0.1000E-09  0.0000E+00  0.2499E+16
   -1.787560    2.74694  0.6471E-11  0.1218E-13  0.7603E-17  0.1000E-09  0.0000E+00  0.2224E+16
   -1.856313    2.86496  0.6461E-11  0.1218E-13  0.7603E-17  0.1000E-09  0.0000E+00  0.1953E+16
   -1.925066    2.98017  0.6452E-11  0.1218E-13  0.7603E-17  0.1000E-09  0.0000E+00  0.1686E+16
   -1.993819    3.09170  0.6445E-11  0.1407E-13  0.7609E-17  0.1000E-09  0.0000E+00  0.1441E+16
   -2.062572    3.19968  0.6439E-11  0.5701E-13  0.1899E-16  0.1000E-09  0.0000E+00  0.1259E+16
   -2.131324    3.30817  0.6434E-11  0.2264E-12  0.6975E-16  0.1000E-09  0.0000E+00  0.1081E+16
   -2.200076    3.41779  0.6431E-11  0.8638E-12  0.2558E-15  0.1000E-09  0.0000E+00  0.8996E+15
   -2.268827    3.52882  0.6428E-11  0.3262E-11  0.9313E-15  0.1000E-09  0.0000E+00  0.7100E+15
   -2.337578    3.64102  0.6425E-11  0.1235E-10  0.3405E-14  0.1000E-09  0.0000E+00  0.5146E+15
   -2.406329    3.75430  0.6424E-11  0.4663E-10  0.1242E-13  0.2002E-09  0.0000E+00  0.3137E+15
   -2.475079    3.86847  0.6423E-11  0.1763E-09  0.4545E-13  0.2098E-08  0.0000E+00  0.1088E+15
   -2.543828    3.98191  0.6423E-11  0.6151E-09  0.1558E-12  0.7070E-06  0.0000E+00 -0.1542E+13
   -2.612577    4.00147  0.6423E-11  0.1083E-08  0.3724E-12  0.1255E-05  0.0000E+00 -0.3471E+13
   -2.681325    4.01225  0.6423E-11  0.1012E-08  0.7942E-12  0.3542E-06  0.0000E+00 -0.1458E+14
   -2.750073    4.03667  0.6423E-11  0.0000E+00  0.0000E+00  0.0000E+00  0.0000E+00  0.0000E+00
