 1 - depth, m
 2 - temperature, C
 3 - salinity, kg/kg
 4 - turbulent kinetic energy, m**2/s**2
 5 - dissipation rate, m**2/s**3
 6 - kinematic heat conductance, m**2/s
 7 - modulus of horizontal velocity, m/s
 8 - Richardson number, n/d
   -0.000000   -0.00000  0.1446E-11  0.1219E-13  0.7603E-17  0.1000E-09  0.0000E+00  0.4546E+16
   -0.068746    0.06883  0.7832E-12  0.1219E-13  0.7603E-17  0.1000E-09  0.0000E+00  0.4352E+16
   -0.137492    0.13596  0.6206E-12  0.1219E-13  0.7603E-17  0.1000E-09  0.0000E+00  0.4202E+16
   -0.206239    0.20197  0.5848E-12  0.1219E-13  0.7603E-17  0.1000E-09  0.0000E+00  0.4092E+16
   -0.274986    0.26746  0.5778E-12  0.1219E-13  0.7603E-17  0.1000E-09  0.0000E+00  0.4022E+16
   -0.343734    0.33304  0.5766E-12  0.1219E-13  0.7603E-17  0.1000E-09  0.0000E+00  0.3989E+16
   -0.412483    0.39934  0.5764E-12  0.1219E-13  0.7603E-17  0.1000E-09  0.0000E+00  0.3990E+16
   -0.481232    0.46700  0.5764E-12  0.1219E-13  0.7603E-17  0.1000E-09  0.0000E+00  0.4025E+16
   -0.549982    0.53667  0.5764E-12  0.1219E-13  0.7603E-17  0.1000E-09  0.0000E+00  0.4090E+16
   -0.618732    0.60902  0.5764E-12  0.1219E-13  0.7603E-17  0.1000E-09  0.0000E+00  0.4182E+16
   -0.687482    0.68473  0.5764E-12  0.1219E-13  0.7603E-17  0.1000E-09  0.0000E+00  0.4312E+16
   -0.756232    0.76477  0.5764E-12  0.1219E-13  0.7603E-17  0.1000E-09  0.0000E+00  0.4469E+16
   -0.824983    0.84999  0.5764E-12  0.1219E-13  0.7603E-17  0.1000E-09  0.0000E+00  0.4636E+16
   -0.893735    0.94106  0.5764E-12  0.1219E-13  0.7603E-17  0.1000E-09  0.0000E+00  0.4807E+16
   -0.962486    1.03862  0.5764E-12  0.1219E-13  0.7603E-17  0.1000E-09  0.0000E+00  0.4975E+16
   -1.031238    1.14327  0.5763E-12  0.1219E-13  0.7603E-17  0.1000E-09  0.0000E+00  0.5130E+16
   -1.099990    1.25561  0.5762E-12  0.1219E-13  0.7603E-17  0.1000E-09  0.0000E+00  0.5264E+16
   -1.168742    1.37613  0.5756E-12  0.4884E-13  0.1002E-16  0.1000E-09  0.0000E+00  0.5367E+16
   -1.237494    1.50532  0.5743E-12  0.1488E-12  0.2461E-16  0.1000E-09  0.0000E+00  0.5429E+16
   -1.306246    1.64353  0.5717E-12  0.4041E-12  0.6321E-16  0.1000E-09  0.0000E+00  0.5439E+16
   -1.374998    1.79107  0.5681E-12  0.1058E-11  0.1601E-15  0.1000E-09  0.0000E+00  0.5405E+16
   -1.443750    1.94864  0.5649E-12  0.2724E-11  0.4000E-15  0.1000E-09  0.0000E+00  0.5300E+16
   -1.512502    2.11647  0.5630E-12  0.6917E-11  0.9869E-15  0.1000E-09  0.0000E+00  0.5109E+16
   -1.581255    2.29447  0.5620E-12  0.1735E-10  0.2406E-14  0.1000E-09  0.0000E+00  0.4825E+16
   -1.650006    2.48238  0.5614E-12  0.4300E-10  0.5798E-14  0.1000E-09  0.0000E+00  0.4444E+16
   -1.718758    2.67976  0.5610E-12  0.1054E-09  0.1381E-13  0.1000E-09  0.0000E+00  0.3964E+16
   -1.787510    2.88604  0.5608E-12  0.2618E-09  0.3338E-13  0.1000E-09  0.0000E+00  0.3405E+16
   -1.856261    3.10161  0.5607E-12  0.6543E-09  0.8117E-13  0.1501E-09  0.0000E+00  0.2754E+16
   -1.925013    3.32644  0.5605E-12  0.1629E-08  0.1967E-12  0.4994E-09  0.0000E+00  0.2006E+16
   -1.993764    3.56017  0.5600E-12  0.4033E-08  0.4744E-12  0.2090E-08  0.0000E+00  0.1156E+16
   -2.062514    3.79991  0.5588E-12  0.9599E-08  0.1102E-11  0.2109E-07  0.0000E+00  0.2665E+15
   -2.131265    4.01452  0.5584E-12  0.1100E-07  0.1271E-11  0.3916E-04  0.0000E+00 -0.3965E+12
   -2.200015    4.01540  0.5584E-12  0.1156E-07  0.1359E-11  0.3956E-04  0.0000E+00 -0.4067E+12
   -2.268764    4.01628  0.5584E-12  0.1198E-07  0.1454E-11  0.3883E-04  0.0000E+00 -0.4293E+12
   -2.337513    4.01718  0.5584E-12  0.1230E-07  0.1570E-11  0.3682E-04  0.0000E+00 -0.4696E+12
   -2.406262    4.01814  0.5584E-12  0.1249E-07  0.1723E-11  0.3336E-04  0.0000E+00 -0.5392E+12
   -2.475010    4.01920  0.5584E-12  0.1253E-07  0.1950E-11  0.2817E-04  0.0000E+00 -0.6683E+12
   -2.543757    4.02048  0.5584E-12  0.1235E-07  0.2345E-11  0.2097E-04  0.0000E+00 -0.9518E+12
   -2.612504    4.02221  0.5584E-12  0.1170E-07  0.3287E-11  0.1160E-04  0.0000E+00 -0.1890E+13
   -2.681250    4.02543  0.5584E-12  0.8720E-08  0.9008E-11  0.1687E-05  0.0000E+00 -0.1806E+14
   -2.749996    4.04826  0.5584E-12  0.0000E+00  0.0000E+00  0.0000E+00  0.0000E+00  0.0000E+00
