 1 - depth, m
 2 - temperature, C
 3 - salinity, kg/kg
 4 - turbulent kinetic energy, m**2/s**2
 5 - dissipation rate, m**2/s**3
 6 - kinematic heat conductance, m**2/s
 7 - modulus of horizontal velocity, m/s
 8 - Richardson number, n/d
   -0.000000   -0.00000  0.1620E-09  0.4580E-09  0.4415E-12  0.4117E-09  0.4735E-25  0.5333E+16
   -0.068746    0.08088  0.1068E-09  0.3166E-08  0.2915E-12  0.3581E-09  0.4111E-25  0.4119E+16
   -0.137492    0.14460  0.9725E-10  0.7542E-08  0.2781E-12  0.4787E-09  0.3619E-25  0.2975E+16
   -0.206239    0.19132  0.9571E-10  0.1317E-07  0.3067E-12  0.8032E-09  0.3108E-25  0.1990E+16
   -0.274986    0.22293  0.9552E-10  0.1983E-07  0.3566E-12  0.1582E-08  0.2578E-25  0.1212E+16
   -0.343734    0.24232  0.9549E-10  0.2729E-07  0.4190E-12  0.3701E-08  0.2059E-25  0.6487E+15
   -0.412483    0.25274  0.9549E-10  0.3521E-07  0.4870E-12  0.1198E-07  0.1578E-25  0.2829E+15
   -0.481232    0.25729  0.9549E-10  0.4094E-07  0.5342E-12  0.6946E-04  0.1170E-25  0.8210E+14
   -0.549981    0.25862  0.9549E-10  0.4250E-07  0.5460E-12  0.6260E-03  0.1134E-25  0.1137E+14
   -0.618731    0.25880  0.9549E-10  0.4256E-07  0.5465E-12  0.9714E-03  0.1134E-25  0.5397E+11
   -0.687482    0.25880  0.9549E-10  0.4257E-07  0.5465E-12  0.1045E-02  0.1134E-25 -0.6606E+10
   -0.756232    0.25880  0.9549E-10  0.4257E-07  0.5465E-12  0.1047E-02  0.1133E-25 -0.5736E+10
   -0.824983    0.25880  0.9549E-10  0.4256E-07  0.5464E-12  0.9270E-03  0.1133E-25  0.3526E+12
   -0.893734    0.25881  0.9549E-10  0.4246E-07  0.5456E-12  0.5614E-03  0.1133E-25  0.1220E+14
   -0.962486    0.25900  0.9549E-10  0.4126E-07  0.5343E-12  0.1274E-04  0.1132E-25  0.6936E+14
   -1.031237    0.26012  0.9549E-10  0.3715E-07  0.4918E-12  0.1685E-07  0.1114E-25  0.2184E+15
   -1.099989    0.26365  0.9549E-10  0.3134E-07  0.4270E-12  0.5284E-08  0.9454E-26  0.4867E+15
   -1.168741    0.27152  0.9549E-10  0.2591E-07  0.3635E-12  0.2239E-08  0.7834E-26  0.9070E+15
   -1.237493    0.28622  0.9549E-10  0.2109E-07  0.3046E-12  0.1086E-08  0.6411E-26  0.1508E+16
   -1.306245    0.31082  0.9547E-10  0.1693E-07  0.2517E-12  0.5737E-09  0.5180E-26  0.2306E+16
   -1.374998    0.34875  0.9539E-10  0.1343E-07  0.2055E-12  0.3169E-09  0.4114E-26  0.3356E+16
   -1.443750    0.40473  0.9506E-10  0.1054E-07  0.1659E-12  0.1877E-09  0.3188E-26  0.4564E+16
   -1.512502    0.48236  0.9427E-10  0.8191E-08  0.1328E-12  0.1265E-09  0.2377E-26  0.5827E+16
   -1.581254    0.58421  0.9375E-10  0.6320E-08  0.1055E-12  0.1025E-09  0.1657E-26  0.7053E+16
   -1.650006    0.71196  0.9363E-10  0.4858E-08  0.8352E-13  0.1000E-09  0.1004E-26  0.8147E+16
   -1.718758    0.86639  0.9356E-10  0.3740E-08  0.6624E-13  0.1000E-09  0.3933E-27  0.8974E+16
   -1.787509    1.04640  0.9351E-10  0.2873E-08  0.5246E-13  0.1000E-09  0.2670E-28  0.8421E+16
   -1.856261    1.22654  0.9347E-10  0.2177E-08  0.4116E-13  0.1000E-09  0.1669E-29  0.7834E+16
   -1.925012    1.40595  0.9346E-10  0.1618E-08  0.3193E-13  0.1000E-09  0.9529E-31  0.7271E+16
   -1.993763    1.58500  0.9346E-10  0.1164E-08  0.2443E-13  0.1000E-09  0.5925E-32  0.6994E+16
   -2.062514    1.77143  0.9346E-10  0.8087E-09  0.1873E-13  0.1000E-09  0.4792E-33  0.7604E+16
   -2.131264    1.99451  0.9342E-10  0.5343E-09  0.1472E-13  0.1000E-09  0.3626E-34  0.7904E+16
   -2.200014    2.25768  0.9335E-10  0.3262E-09  0.1249E-13  0.1000E-09  0.2549E-35  0.7590E+16
   -2.268763    2.55670  0.9327E-10  0.1762E-09  0.1272E-13  0.1000E-09  0.1222E-36  0.6648E+16
   -2.337512    2.88523  0.9313E-10  0.8749E-10  0.1878E-13  0.1000E-09  0.4796E-38  0.5130E+16
   -2.406261    3.23326  0.9286E-10  0.1091E-09  0.5309E-13  0.1152E-09  0.1605E-39  0.3222E+16
   -2.475009    3.58772  0.9260E-10  0.4985E-09  0.2630E-12  0.1160E-08  0.4466E-41  0.1211E+16
   -2.543756    3.92943  0.9260E-10  0.2390E-08  0.1296E-11  0.8839E-06  0.1016E-42  0.2050E+14
   -2.612503    4.03718  0.9260E-10  0.6672E-08  0.4831E-11  0.3194E-05  0.4011E-44 -0.1425E+14
   -2.681250    4.05360  0.9260E-10  0.8818E-08  0.1338E-10  0.1796E-05  0.1087E-45 -0.5896E+14
   -2.749995    4.09689  0.9260E-10  0.0000E+00  0.0000E+00  0.0000E+00  0.1178E-45  0.0000E+00
