 1 - depth, m
 2 - temperature, C
 3 - salinity, kg/kg
 4 - turbulent kinetic energy, m**2/s**2
 5 - dissipation rate, m**2/s**3
 6 - kinematic heat conductance, m**2/s
 7 - modulus of horizontal velocity, m/s
 8 - Richardson number, n/d
   -0.000000    2.39371  0.6431E-11  0.2029E-04  0.1281E-05  0.3364E-04  0.4689E-01  0.6020E-02
   -0.068746    2.43288  0.6431E-11  0.1745E-04  0.4093E-06  0.7353E-04  0.3464E-01  0.1539E-01
   -0.137492    2.45014  0.6431E-11  0.1587E-04  0.2245E-06  0.1045E-03  0.3010E-01  0.2544E-01
   -0.206239    2.46255  0.6431E-11  0.1461E-04  0.1494E-06  0.1281E-03  0.2719E-01  0.3696E-01
   -0.274987    2.47286  0.6431E-11  0.1349E-04  0.1092E-06  0.1450E-03  0.2502E-01  0.5027E-01
   -0.343735    2.48217  0.6431E-11  0.1245E-04  0.8422E-07  0.1556E-03  0.2329E-01  0.6572E-01
   -0.412484    2.49109  0.6431E-11  0.1147E-04  0.6727E-07  0.1607E-03  0.2182E-01  0.8383E-01
   -0.481233    2.50000  0.6431E-11  0.1055E-04  0.5506E-07  0.1609E-03  0.2053E-01  0.1053E+00
   -0.549983    2.50926  0.6431E-11  0.9678E-05  0.4587E-07  0.1569E-03  0.1937E-01  0.1308E+00
   -0.618733    2.51926  0.6431E-11  0.8844E-05  0.3874E-07  0.1494E-03  0.1830E-01  0.1615E+00
   -0.687483    2.53055  0.6432E-11  0.8045E-05  0.3308E-07  0.1392E-03  0.1728E-01  0.1985E+00
   -0.756234    2.54396  0.6432E-11  0.7278E-05  0.2853E-07  0.1270E-03  0.1630E-01  0.2424E+00
   -0.824985    2.56110  0.6432E-11  0.6538E-05  0.2484E-07  0.1139E-03  0.1532E-01  0.2918E+00
   -0.893737    2.58552  0.6432E-11  0.5817E-05  0.2182E-07  0.1010E-03  0.1429E-01  0.3387E+00
   -0.962488    2.62691  0.6432E-11  0.5105E-05  0.1929E-07  0.8950E-04  0.1312E-01  0.3681E+00
   -1.031240    2.72031  0.6432E-11  0.4435E-05  0.1667E-07  0.7961E-04  0.1163E-01  0.3970E+00
   -1.099992    2.98500  0.6433E-11  0.3939E-05  0.1423E-07  0.7134E-04  0.9679E-02  0.4255E+00
   -1.168744    3.21299  0.6434E-11  0.3522E-05  0.1216E-07  0.6960E-04  0.8090E-02  0.2777E+00
   -1.237497    3.32916  0.6435E-11  0.3148E-05  0.1050E-07  0.8977E-04  0.6960E-02  0.2370E+02
   -1.306249    3.40662  0.6435E-11  0.2823E-05  0.9134E-08  0.9151E-04  0.6029E-02  0.9378E+01
   -1.375001    3.47137  0.6435E-11  0.2545E-05  0.8013E-08  0.9643E-04  0.5214E-02  0.1139E+02
   -1.443754    3.52861  0.6435E-11  0.2316E-05  0.7107E-08  0.1043E-03  0.4481E-02  0.1408E+02
   -1.512506    3.58066  0.6436E-11  0.2140E-05  0.6410E-08  0.1159E-03  0.3817E-02  0.9979E+02
   -1.581258    3.62738  0.6436E-11  0.2022E-05  0.5939E-08  0.1275E-03  0.3223E-02  0.2787E+03
   -1.650010    3.66692  0.6436E-11  0.1960E-05  0.5729E-08  0.1406E-03  0.2704E-02  0.4207E+03
   -1.718762    3.69799  0.6436E-11  0.1984E-05  0.6047E-08  0.1301E-03  0.2250E-02  0.6232E+03
   -1.787514    3.72723  0.6436E-11  0.1469E-05  0.3948E-08  0.1486E-03  0.6099E-03  0.1448E+05
   -1.856266    3.75894  0.6436E-11  0.1168E-05  0.2819E-08  0.1464E-03  0.3806E-03  0.1901E+05
   -1.925017    3.80286  0.6436E-11  0.9257E-06  0.2004E-08  0.1455E-03  0.2398E-03  0.3734E+05
   -1.993768    3.83672  0.6436E-11  0.7219E-06  0.1392E-08  0.1452E-03  0.1568E-03  0.9614E+05
   -2.062519    3.86652  0.6436E-11  0.5480E-06  0.9254E-09  0.1454E-03  0.1029E-03  0.1145E+06
   -2.131269    3.90135  0.6437E-11  0.3952E-06  0.5553E-09  0.1463E-03  0.6056E-04  0.1705E+06
   -2.200019    3.95520  0.6437E-11  0.2673E-06  0.2695E-09  0.1486E-03  0.2772E-04  0.2210E+06
   -2.268769    4.02389  0.6437E-11  0.2096E-06  0.1420E-09  0.1498E-03  0.7136E-05  0.3696E+06
   -2.337518    4.04812  0.6437E-11  0.1905E-06  0.1014E-09  0.1473E-03  0.2818E-05  0.2620E+06
   -2.406267    4.06561  0.6437E-11  0.1850E-06  0.9175E-10  0.1419E-03  0.1475E-05 -0.2378E+06
   -2.475015    4.07358  0.6437E-11  0.1823E-06  0.9367E-10  0.1321E-03  0.8803E-06 -0.6715E+07
   -2.543763    4.07965  0.6437E-11  0.1783E-06  0.1044E-09  0.1001E-03  0.5198E-06 -0.1229E+09
   -2.612510    4.08618  0.6437E-11  0.1692E-06  0.1370E-09  0.5320E-04  0.2458E-06 -0.4786E+10
   -2.681257    4.09638  0.6437E-11  0.1149E-06  0.4285E-09  0.5564E-05  0.7591E-07 -0.1701E+14
   -2.750002    4.17495  0.6437E-11  0.0000E+00  0.0000E+00  0.0000E+00  0.7607E-07  0.0000E+00
