 1 - depth, m
 2 - temperature, C
 3 - salinity, kg/kg
 4 - turbulent kinetic energy, m**2/s**2
 5 - dissipation rate, m**2/s**3
 6 - kinematic heat conductance, m**2/s
 7 - modulus of horizontal velocity, m/s
 8 - Richardson number, n/d
   -0.000000   -0.03031  0.2538E-10  0.4902E-04  0.1068E-04  0.5225E-04  0.7325E-01  0.1514E+01
   -0.068747    0.00912  0.2538E-10  0.3080E-04  0.2550E-05  0.8240E-04  0.4491E-01  0.8764E-02
   -0.137495    0.01884  0.2538E-10  0.2560E-04  0.9331E-06  0.1109E-03  0.3844E-01  0.1750E-01
   -0.206243    0.02497  0.2538E-10  0.2260E-04  0.4599E-06  0.1380E-03  0.3437E-01  0.2473E-01
   -0.274992    0.02988  0.2538E-10  0.2055E-04  0.2813E-06  0.1615E-03  0.3140E-01  0.3289E-01
   -0.343742    0.03403  0.2538E-10  0.1895E-04  0.1965E-06  0.1806E-03  0.2907E-01  0.4213E-01
   -0.412492    0.03767  0.2538E-10  0.1760E-04  0.1482E-06  0.1950E-03  0.2716E-01  0.5267E-01
   -0.481242    0.04099  0.2538E-10  0.1638E-04  0.1173E-06  0.2046E-03  0.2554E-01  0.6473E-01
   -0.549993    0.04412  0.2538E-10  0.1525E-04  0.9577E-07  0.2095E-03  0.2413E-01  0.7860E-01
   -0.618745    0.04714  0.2538E-10  0.1420E-04  0.7996E-07  0.2099E-03  0.2287E-01  0.9468E-01
   -0.687496    0.05014  0.2538E-10  0.1320E-04  0.6787E-07  0.2061E-03  0.2173E-01  0.1135E+00
   -0.756249    0.05318  0.2538E-10  0.1225E-04  0.5837E-07  0.1985E-03  0.2068E-01  0.1359E+00
   -0.825001    0.05633  0.2538E-10  0.1134E-04  0.5073E-07  0.1875E-03  0.1970E-01  0.1630E+00
   -0.893754    0.05968  0.2538E-10  0.1048E-04  0.4450E-07  0.1736E-03  0.1877E-01  0.1965E+00
   -0.962507    0.06334  0.2538E-10  0.9644E-05  0.3935E-07  0.1573E-03  0.1787E-01  0.2388E+00
   -1.031260    0.06748  0.2538E-10  0.8842E-05  0.3506E-07  0.1394E-03  0.1700E-01  0.2933E+00
   -1.100013    0.07242  0.2538E-10  0.8069E-05  0.3149E-07  0.1204E-03  0.1613E-01  0.3634E+00
   -1.168766    0.07896  0.2538E-10  0.7316E-05  0.2852E-07  0.1017E-03  0.1523E-01  0.4403E+00
   -1.237520    0.09026  0.2538E-10  0.6557E-05  0.2600E-07  0.8464E-04  0.1424E-01  0.5426E+00
   -1.306274    0.13244  0.2538E-10  0.5834E-05  0.2377E-07  0.7004E-04  0.1291E-01  0.8361E+00
   -1.375027    0.20359  0.2539E-10  0.5184E-05  0.2196E-07  0.5803E-04  0.1140E-01  0.1856E+01
   -1.443781    0.27871  0.2539E-10  0.4602E-05  0.2051E-07  0.4868E-04  0.9895E-02  0.7635E+01
   -1.512535    0.35696  0.2539E-10  0.4084E-05  0.1939E-07  0.4206E-04  0.8393E-02  0.5415E+02
   -1.581288    0.44929  0.2539E-10  0.3640E-05  0.1856E-07  0.3785E-04  0.6861E-02  0.5057E+03
   -1.650042    0.57433  0.2539E-10  0.3299E-05  0.1793E-07  0.3525E-04  0.5263E-02  0.4408E+04
   -1.718795    0.75530  0.2540E-10  0.3023E-05  0.1699E-07  0.1662E-04  0.3546E-02  0.4281E+05
   -1.787548    1.02125  0.2540E-10  0.2087E-05  0.1026E-07  0.2186E-04  0.1527E-02  0.6549E+07
   -1.856301    1.26705  0.2540E-10  0.1435E-05  0.6452E-08  0.1308E-04  0.8971E-03  0.9585E+09
   -1.925054    1.46379  0.2540E-10  0.8866E-06  0.3700E-08  0.5589E-05  0.5215E-03  0.5086E+11
   -1.993806    1.59217  0.2540E-10  0.4179E-06  0.1645E-08  0.7609E-06  0.2769E-03 -0.4264E+14
   -2.062558    1.68300  0.2541E-10  0.8323E-07  0.3141E-09  0.3672E-07  0.9101E-04  0.5045E+15
   -2.131310    1.84841  0.2541E-10  0.6828E-08  0.2587E-10  0.7427E-08  0.9872E-05  0.2553E+16
   -2.200061    2.03892  0.2541E-10  0.1003E-08  0.3353E-11  0.1235E-08  0.7052E-06  0.5614E+16
   -2.268812    2.34177  0.2541E-10  0.8426E-08  0.1481E-10  0.6696E-08  0.2997E-07  0.7238E+16
   -2.337563    2.78860  0.2541E-10  0.1893E-07  0.4594E-10  0.3364E-05  0.8140E-09  0.6810E+16
   -2.406313    3.23364  0.2541E-10  0.2756E-07  0.8705E-10  0.4472E-05  0.2232E-09  0.4328E+16
   -2.475062    3.71785  0.2541E-10  0.3372E-07  0.1281E-09  0.4753E-05  0.7934E-10 -0.1469E+15
   -2.543811    4.27094  0.2541E-10  0.3824E-07  0.1754E-09  0.4294E-05  0.2695E-10 -0.8844E+16
   -2.612560    5.07392  0.2541E-10  0.3900E-07  0.2308E-09  0.3087E-05  0.7486E-11 -0.1850E+17
   -2.681308    5.84897  0.2541E-10  0.2773E-07  0.4448E-09  0.7354E-06  0.1295E-11 -0.7733E+16
   -2.750055    6.09804  0.2541E-10  0.0000E+00  0.0000E+00  0.0000E+00  0.1217E-11  0.0000E+00
