 1 - depth, m
 2 - temperature, C
 3 - salinity, kg/kg
 4 - turbulent kinetic energy, m**2/s**2
 5 - dissipation rate, m**2/s**3
 6 - kinematic heat conductance, m**2/s
 7 - modulus of horizontal velocity, m/s
 8 - Richardson number, n/d
   -0.000000   -0.00000  0.3086E-12  0.1219E-13  0.7603E-17  0.1000E-09  0.0000E+00  0.6691E+16
   -0.068746    0.10176  0.2665E-11  0.1219E-13  0.7603E-17  0.1000E-09  0.0000E+00  0.6625E+16
   -0.137493    0.20539  0.5029E-11  0.1219E-13  0.7603E-17  0.1000E-09  0.0000E+00  0.6543E+16
   -0.206240    0.31081  0.6380E-11  0.1219E-13  0.7603E-17  0.1000E-09  0.0000E+00  0.6445E+16
   -0.274988    0.41788  0.6746E-11  0.1219E-13  0.7603E-17  0.1000E-09  0.0000E+00  0.6331E+16
   -0.343736    0.52648  0.6537E-11  0.1219E-13  0.7603E-17  0.1000E-09  0.0000E+00  0.6200E+16
   -0.412485    0.63645  0.6123E-11  0.1219E-13  0.7603E-17  0.1000E-09  0.0000E+00  0.6055E+16
   -0.481234    0.74766  0.5725E-11  0.1219E-13  0.7603E-17  0.1000E-09  0.0000E+00  0.5896E+16
   -0.549984    0.85996  0.5429E-11  0.1219E-13  0.7603E-17  0.1000E-09  0.0000E+00  0.5725E+16
   -0.618734    0.97323  0.5241E-11  0.1219E-13  0.7603E-17  0.1000E-09  0.0000E+00  0.5543E+16
   -0.687485    1.08734  0.5135E-11  0.1219E-13  0.7603E-17  0.1000E-09  0.0000E+00  0.5352E+16
   -0.756236    1.20217  0.5081E-11  0.1219E-13  0.7603E-17  0.1000E-09  0.0000E+00  0.5153E+16
   -0.824987    1.31762  0.5054E-11  0.1219E-13  0.7603E-17  0.1000E-09  0.0000E+00  0.4946E+16
   -0.893739    1.43358  0.5042E-11  0.1219E-13  0.7603E-17  0.1000E-09  0.0000E+00  0.4734E+16
   -0.962490    1.54994  0.5035E-11  0.1219E-13  0.7603E-17  0.1000E-09  0.0000E+00  0.4516E+16
   -1.031242    1.66663  0.5029E-11  0.1219E-13  0.7603E-17  0.1000E-09  0.0000E+00  0.4295E+16
   -1.099995    1.78355  0.5023E-11  0.1219E-13  0.7603E-17  0.1000E-09  0.0000E+00  0.4070E+16
   -1.168747    1.90062  0.5014E-11  0.1219E-13  0.7603E-17  0.1000E-09  0.0000E+00  0.3844E+16
   -1.237499    2.01779  0.5004E-11  0.1219E-13  0.7603E-17  0.1000E-09  0.0000E+00  0.3616E+16
   -1.306252    2.13499  0.4991E-11  0.1219E-13  0.7603E-17  0.1000E-09  0.0000E+00  0.3387E+16
   -1.375004    2.25218  0.4977E-11  0.1219E-13  0.7603E-17  0.1000E-09  0.0000E+00  0.3158E+16
   -1.443757    2.36933  0.4962E-11  0.1219E-13  0.7603E-17  0.1000E-09  0.0000E+00  0.2931E+16
   -1.512509    2.48642  0.4948E-11  0.1219E-13  0.7603E-17  0.1000E-09  0.0000E+00  0.2704E+16
   -1.581262    2.60343  0.4935E-11  0.1219E-13  0.7603E-17  0.1000E-09  0.0000E+00  0.2477E+16
   -1.650014    2.72035  0.4923E-11  0.1219E-13  0.7603E-17  0.1000E-09  0.0000E+00  0.2253E+16
   -1.718766    2.83716  0.4914E-11  0.1219E-13  0.7603E-17  0.1000E-09  0.0000E+00  0.2028E+16
   -1.787518    2.95380  0.4906E-11  0.3196E-13  0.9012E-17  0.1000E-09  0.0000E+00  0.1779E+16
   -1.856270    3.06846  0.4900E-11  0.1134E-12  0.2632E-16  0.1000E-09  0.0000E+00  0.1536E+16
   -1.925021    3.18069  0.4895E-11  0.3785E-12  0.8345E-16  0.1000E-09  0.0000E+00  0.1300E+16
   -1.993773    3.28992  0.4891E-11  0.1234E-11  0.2624E-15  0.1000E-09  0.0000E+00  0.1081E+16
   -2.062523    3.39606  0.4888E-11  0.3869E-11  0.7956E-15  0.1000E-09  0.0000E+00  0.8971E+15
   -2.131274    3.50171  0.4886E-11  0.1192E-10  0.2371E-14  0.1000E-09  0.0000E+00  0.7183E+15
   -2.200024    3.60716  0.4885E-11  0.3622E-10  0.6975E-14  0.1000E-09  0.0000E+00  0.5414E+15
   -2.268774    3.71245  0.4884E-11  0.1097E-09  0.2045E-13  0.2837E-09  0.0000E+00  0.3653E+15
   -2.337523    3.81744  0.4883E-11  0.3342E-09  0.6040E-13  0.1601E-08  0.0000E+00  0.1906E+15
   -2.406272    3.92128  0.4883E-11  0.1003E-08  0.1762E-12  0.2916E-07  0.0000E+00  0.2945E+14
   -2.475021    4.00802  0.4883E-11  0.2075E-08  0.3681E-12  0.5325E-05  0.0000E+00 -0.9711E+12
   -2.543769    4.01071  0.4883E-11  0.2416E-08  0.4825E-12  0.4861E-05  0.0000E+00 -0.1174E+13
   -2.612516    4.01361  0.4883E-11  0.2450E-08  0.6676E-12  0.3079E-05  0.0000E+00 -0.2026E+13
   -2.681262    4.01799  0.4883E-11  0.1823E-08  0.1434E-11  0.5295E-06  0.0000E+00 -0.1240E+14
   -2.750008    4.03717  0.4883E-11  0.0000E+00  0.0000E+00  0.0000E+00  0.0000E+00  0.0000E+00
