 1 - depth, m
 2 - temperature, C
 3 - salinity, kg/kg
 4 - turbulent kinetic energy, m**2/s**2
 5 - dissipation rate, m**2/s**3
 6 - kinematic heat conductance, m**2/s
 7 - modulus of horizontal velocity, m/s
 8 - Richardson number, n/d
   -0.000000   -0.00000  0.1836E-10  0.1219E-13  0.7603E-17  0.1000E-09  0.0000E+00  0.5952E+16
   -0.068746    0.09038  0.1001E-10  0.1219E-13  0.7603E-17  0.1000E-09  0.0000E+00  0.5724E+16
   -0.137492    0.17946  0.7465E-11  0.1219E-13  0.7603E-17  0.1000E-09  0.0000E+00  0.5534E+16
   -0.206239    0.26774  0.6809E-11  0.1219E-13  0.7603E-17  0.1000E-09  0.0000E+00  0.5379E+16
   -0.274986    0.35575  0.6662E-11  0.1219E-13  0.7603E-17  0.1000E-09  0.0000E+00  0.5256E+16
   -0.343735    0.44400  0.6632E-11  0.1219E-13  0.7603E-17  0.1000E-09  0.0000E+00  0.5161E+16
   -0.412483    0.53297  0.6627E-11  0.1219E-13  0.7603E-17  0.1000E-09  0.0000E+00  0.5090E+16
   -0.481232    0.62317  0.6626E-11  0.1219E-13  0.7603E-17  0.1000E-09  0.0000E+00  0.5039E+16
   -0.549982    0.71505  0.6626E-11  0.1219E-13  0.7603E-17  0.1000E-09  0.0000E+00  0.5005E+16
   -0.618732    0.80908  0.6626E-11  0.1219E-13  0.7603E-17  0.1000E-09  0.0000E+00  0.4982E+16
   -0.687482    0.90568  0.6626E-11  0.1219E-13  0.7603E-17  0.1000E-09  0.0000E+00  0.4980E+16
   -0.756233    1.00555  0.6626E-11  0.1219E-13  0.7603E-17  0.1000E-09  0.0000E+00  0.4988E+16
   -0.824984    1.10924  0.6626E-11  0.1219E-13  0.7603E-17  0.1000E-09  0.0000E+00  0.4993E+16
   -0.893735    1.21710  0.6626E-11  0.1219E-13  0.7603E-17  0.1000E-09  0.0000E+00  0.4989E+16
   -0.962486    1.32945  0.6625E-11  0.1219E-13  0.7603E-17  0.1000E-09  0.0000E+00  0.4971E+16
   -1.031238    1.44657  0.6623E-11  0.1219E-13  0.7603E-17  0.1000E-09  0.0000E+00  0.4935E+16
   -1.099990    1.56869  0.6618E-11  0.1813E-13  0.7603E-17  0.1000E-09  0.0000E+00  0.4876E+16
   -1.168742    1.69600  0.6606E-11  0.7216E-13  0.1229E-16  0.1000E-09  0.0000E+00  0.4789E+16
   -1.237494    1.82863  0.6585E-11  0.2039E-12  0.2937E-16  0.1000E-09  0.0000E+00  0.4670E+16
   -1.306246    1.96664  0.6552E-11  0.5213E-12  0.7140E-16  0.1000E-09  0.0000E+00  0.4515E+16
   -1.374998    2.11004  0.6516E-11  0.1290E-11  0.1712E-15  0.1000E-09  0.0000E+00  0.4329E+16
   -1.443751    2.25906  0.6486E-11  0.3141E-11  0.4050E-15  0.1000E-09  0.0000E+00  0.4103E+16
   -1.512503    2.41368  0.6467E-11  0.7553E-11  0.9473E-15  0.1000E-09  0.0000E+00  0.3831E+16
   -1.581255    2.57367  0.6455E-11  0.1796E-10  0.2191E-14  0.1000E-09  0.0000E+00  0.3513E+16
   -1.650007    2.73872  0.6448E-11  0.4223E-10  0.5016E-14  0.1000E-09  0.0000E+00  0.3150E+16
   -1.718759    2.90847  0.6444E-11  0.9826E-10  0.1136E-13  0.1000E-09  0.0000E+00  0.2745E+16
   -1.787510    3.08252  0.6442E-11  0.2319E-09  0.2610E-13  0.1000E-09  0.0000E+00  0.2324E+16
   -1.856262    3.26244  0.6440E-11  0.5509E-09  0.6041E-13  0.1657E-09  0.0000E+00  0.1856E+16
   -1.925013    3.44829  0.6437E-11  0.1305E-08  0.1395E-12  0.5308E-09  0.0000E+00  0.1337E+16
   -1.993764    3.64001  0.6431E-11  0.3079E-08  0.3208E-12  0.2137E-08  0.0000E+00  0.7639E+15
   -2.062515    3.83529  0.6421E-11  0.6996E-08  0.7121E-12  0.2071E-07  0.0000E+00  0.1748E+15
   -2.131265    4.00920  0.6419E-11  0.8104E-08  0.8303E-12  0.3266E-04  0.0000E+00 -0.3122E+12
   -2.200015    4.01005  0.6419E-11  0.8552E-08  0.8921E-12  0.3308E-04  0.0000E+00 -0.3206E+12
   -2.268764    4.01090  0.6419E-11  0.8895E-08  0.9591E-12  0.3251E-04  0.0000E+00 -0.3392E+12
   -2.337514    4.01176  0.6419E-11  0.9147E-08  0.1040E-11  0.3084E-04  0.0000E+00 -0.3722E+12
   -2.406262    4.01268  0.6419E-11  0.9304E-08  0.1145E-11  0.2792E-04  0.0000E+00 -0.4295E+12
   -2.475010    4.01370  0.6419E-11  0.9344E-08  0.1302E-11  0.2351E-04  0.0000E+00 -0.5362E+12
   -2.543758    4.01492  0.6419E-11  0.9209E-08  0.1575E-11  0.1739E-04  0.0000E+00 -0.7729E+12
   -2.612505    4.01660  0.6419E-11  0.8711E-08  0.2230E-11  0.9490E-05  0.0000E+00 -0.1572E+13
   -2.681251    4.01975  0.6419E-11  0.6478E-08  0.6093E-11  0.1394E-05  0.0000E+00 -0.1527E+14
   -2.749997    4.04170  0.6419E-11  0.0000E+00  0.0000E+00  0.0000E+00  0.0000E+00  0.0000E+00
