 1 - depth, m
 2 - temperature, C
 3 - salinity, kg/kg
 4 - turbulent kinetic energy, m**2/s**2
 5 - dissipation rate, m**2/s**3
 6 - kinematic heat conductance, m**2/s
 7 - modulus of horizontal velocity, m/s
 8 - Richardson number, n/d
   -0.000000   -0.00000  0.2147E-11  0.1219E-13  0.7603E-17  0.1000E-09  0.0000E+00  0.7891E+16
   -0.068746    0.12031  0.1274E-11  0.1219E-13  0.7603E-17  0.1000E-09  0.0000E+00  0.7568E+16
   -0.137492    0.23958  0.9208E-12  0.1219E-13  0.7603E-17  0.1000E-09  0.0000E+00  0.7275E+16
   -0.206239    0.35816  0.8007E-12  0.1219E-13  0.7603E-17  0.1000E-09  0.0000E+00  0.7009E+16
   -0.274987    0.47644  0.7661E-12  0.1219E-13  0.7603E-17  0.1000E-09  0.0000E+00  0.6764E+16
   -0.343735    0.59473  0.7574E-12  0.1219E-13  0.7603E-17  0.1000E-09  0.0000E+00  0.6538E+16
   -0.412483    0.71337  0.7554E-12  0.1219E-13  0.7603E-17  0.1000E-09  0.0000E+00  0.6327E+16
   -0.481232    0.83267  0.7550E-12  0.1219E-13  0.7603E-17  0.1000E-09  0.0000E+00  0.6127E+16
   -0.549982    0.95292  0.7550E-12  0.1219E-13  0.7603E-17  0.1000E-09  0.0000E+00  0.5936E+16
   -0.618732    1.07439  0.7549E-12  0.1219E-13  0.7603E-17  0.1000E-09  0.0000E+00  0.5749E+16
   -0.687482    1.19734  0.7549E-12  0.1219E-13  0.7603E-17  0.1000E-09  0.0000E+00  0.5576E+16
   -0.756233    1.32226  0.7549E-12  0.1219E-13  0.7603E-17  0.1000E-09  0.0000E+00  0.5405E+16
   -0.824984    1.44950  0.7549E-12  0.1219E-13  0.7603E-17  0.1000E-09  0.0000E+00  0.5228E+16
   -0.893735    1.57924  0.7548E-12  0.5626E-13  0.8712E-17  0.1000E-09  0.0000E+00  0.5041E+16
   -0.962487    1.71162  0.7547E-12  0.1555E-12  0.1784E-16  0.1000E-09  0.0000E+00  0.4841E+16
   -1.031238    1.84675  0.7542E-12  0.3677E-12  0.3907E-16  0.1000E-09  0.0000E+00  0.4626E+16
   -1.099990    1.98471  0.7533E-12  0.8272E-12  0.8482E-16  0.1000E-09  0.0000E+00  0.4394E+16
   -1.168742    2.12552  0.7515E-12  0.1823E-11  0.1819E-15  0.1000E-09  0.0000E+00  0.4143E+16
   -1.237494    2.26917  0.7489E-12  0.3971E-11  0.3863E-15  0.1000E-09  0.0000E+00  0.3872E+16
   -1.306246    2.41562  0.7455E-12  0.8564E-11  0.8128E-15  0.1000E-09  0.0000E+00  0.3580E+16
   -1.374999    2.56477  0.7421E-12  0.1830E-10  0.1695E-14  0.1000E-09  0.0000E+00  0.3271E+16
   -1.443751    2.71664  0.7392E-12  0.3878E-10  0.3506E-14  0.1000E-09  0.0000E+00  0.2941E+16
   -1.512503    2.87112  0.7372E-12  0.8145E-10  0.7191E-14  0.1000E-09  0.0000E+00  0.2590E+16
   -1.581255    3.02796  0.7359E-12  0.1697E-09  0.1463E-13  0.1000E-09  0.0000E+00  0.2219E+16
   -1.650007    3.18693  0.7351E-12  0.3506E-09  0.2953E-13  0.1000E-09  0.0000E+00  0.1832E+16
   -1.718759    3.34771  0.7345E-12  0.7185E-09  0.5914E-13  0.2105E-09  0.0000E+00  0.1430E+16
   -1.787511    3.50996  0.7339E-12  0.1493E-08  0.1201E-12  0.5936E-09  0.0000E+00  0.1030E+16
   -1.856262    3.67600  0.7330E-12  0.3133E-08  0.2462E-12  0.2090E-08  0.0000E+00  0.5996E+15
   -1.925013    3.84479  0.7321E-12  0.6521E-08  0.5017E-12  0.1646E-07  0.0000E+00  0.1550E+15
   -1.993764    4.00264  0.7319E-12  0.7287E-08  0.5638E-12  0.3770E-04  0.0000E+00 -0.1758E+12
   -2.062515    4.00332  0.7319E-12  0.7620E-08  0.5970E-12  0.3855E-04  0.0000E+00 -0.1795E+12
   -2.131265    4.00398  0.7319E-12  0.7895E-08  0.6324E-12  0.3855E-04  0.0000E+00 -0.1866E+12
   -2.200015    4.00464  0.7319E-12  0.8112E-08  0.6715E-12  0.3776E-04  0.0000E+00 -0.1979E+12
   -2.268765    4.00532  0.7319E-12  0.8275E-08  0.7168E-12  0.3612E-04  0.0000E+00 -0.2149E+12
   -2.337514    4.00603  0.7319E-12  0.8383E-08  0.7742E-12  0.3346E-04  0.0000E+00 -0.2414E+12
   -2.406263    4.00679  0.7319E-12  0.8427E-08  0.8527E-12  0.2961E-04  0.0000E+00 -0.2848E+12
   -2.475011    4.00766  0.7319E-12  0.8384E-08  0.9723E-12  0.2436E-04  0.0000E+00 -0.3637E+12
   -2.543758    4.00872  0.7319E-12  0.8199E-08  0.1186E-11  0.1753E-04  0.0000E+00 -0.5381E+12
   -2.612505    4.01021  0.7319E-12  0.7696E-08  0.1708E-11  0.9183E-05  0.0000E+00 -0.1135E+13
   -2.681252    4.01307  0.7319E-12  0.5553E-08  0.4894E-11  0.1204E-05  0.0000E+00 -0.1227E+14
   -2.749997    4.03409  0.7319E-12  0.0000E+00  0.0000E+00  0.0000E+00  0.0000E+00  0.0000E+00
