 1 - depth, m
 2 - temperature, C
 3 - salinity, kg/kg
 4 - turbulent kinetic energy, m**2/s**2
 5 - dissipation rate, m**2/s**3
 6 - kinematic heat conductance, m**2/s
 7 - modulus of horizontal velocity, m/s
 8 - Richardson number, n/d
   -0.000000   -0.00000  0.1429E-10  0.1219E-13  0.7603E-17  0.1000E-09  0.0000E+00  0.8308E+16
   -0.068746    0.12679  0.9030E-11  0.1219E-13  0.7603E-17  0.1000E-09  0.0000E+00  0.7972E+16
   -0.137492    0.25276  0.6472E-11  0.1219E-13  0.7603E-17  0.1000E-09  0.0000E+00  0.7654E+16
   -0.206239    0.37812  0.5485E-11  0.1219E-13  0.7603E-17  0.1000E-09  0.0000E+00  0.7352E+16
   -0.274987    0.50306  0.5161E-11  0.1219E-13  0.7603E-17  0.1000E-09  0.0000E+00  0.7065E+16
   -0.343735    0.62776  0.5068E-11  0.1219E-13  0.7603E-17  0.1000E-09  0.0000E+00  0.6791E+16
   -0.412483    0.75242  0.5045E-11  0.1219E-13  0.7603E-17  0.1000E-09  0.0000E+00  0.6528E+16
   -0.481232    0.87722  0.5039E-11  0.1219E-13  0.7603E-17  0.1000E-09  0.0000E+00  0.6274E+16
   -0.549982    1.00234  0.5038E-11  0.1219E-13  0.7603E-17  0.1000E-09  0.0000E+00  0.6026E+16
   -0.618732    1.12793  0.5038E-11  0.1219E-13  0.7603E-17  0.1000E-09  0.0000E+00  0.5782E+16
   -0.687482    1.25414  0.5038E-11  0.1219E-13  0.7603E-17  0.1000E-09  0.0000E+00  0.5551E+16
   -0.756233    1.38133  0.5038E-11  0.1219E-13  0.7603E-17  0.1000E-09  0.0000E+00  0.5324E+16
   -0.824984    1.50971  0.5037E-11  0.1219E-13  0.7603E-17  0.1000E-09  0.0000E+00  0.5094E+16
   -0.893735    1.63940  0.5036E-11  0.1219E-13  0.7603E-17  0.1000E-09  0.0000E+00  0.4859E+16
   -0.962487    1.77047  0.5034E-11  0.2139E-13  0.7603E-17  0.1000E-09  0.0000E+00  0.4618E+16
   -1.031239    1.90297  0.5029E-11  0.7874E-13  0.1166E-16  0.1000E-09  0.0000E+00  0.4370E+16
   -1.099990    2.03691  0.5021E-11  0.2100E-12  0.2594E-16  0.1000E-09  0.0000E+00  0.4113E+16
   -1.168743    2.17232  0.5007E-11  0.5055E-12  0.5916E-16  0.1000E-09  0.0000E+00  0.3848E+16
   -1.237495    2.30915  0.4988E-11  0.1176E-11  0.1333E-15  0.1000E-09  0.0000E+00  0.3572E+16
   -1.306247    2.44737  0.4966E-11  0.2689E-11  0.2966E-15  0.1000E-09  0.0000E+00  0.3287E+16
   -1.374999    2.58689  0.4945E-11  0.6080E-11  0.6531E-15  0.1000E-09  0.0000E+00  0.2995E+16
   -1.443751    2.72773  0.4927E-11  0.1360E-10  0.1424E-14  0.1000E-09  0.0000E+00  0.2693E+16
   -1.512504    2.86981  0.4915E-11  0.3014E-10  0.3075E-14  0.1000E-09  0.0000E+00  0.2383E+16
   -1.581256    3.01296  0.4907E-11  0.6614E-10  0.6578E-14  0.1000E-09  0.0000E+00  0.2063E+16
   -1.650008    3.15701  0.4901E-11  0.1438E-09  0.1394E-13  0.1000E-09  0.0000E+00  0.1737E+16
   -1.718760    3.30175  0.4897E-11  0.3096E-09  0.2929E-13  0.1060E-09  0.0000E+00  0.1406E+16
   -1.787511    3.44705  0.4894E-11  0.6761E-09  0.6239E-13  0.2926E-09  0.0000E+00  0.1085E+16
   -1.856263    3.59477  0.4889E-11  0.1489E-08  0.1341E-12  0.9130E-09  0.0000E+00  0.7472E+15
   -1.925014    3.74466  0.4884E-11  0.3270E-08  0.2875E-12  0.3723E-08  0.0000E+00  0.3928E+15
   -1.993765    3.89473  0.4882E-11  0.6986E-08  0.6018E-12  0.4986E-07  0.0000E+00  0.6112E+14
   -2.062516    4.01059  0.4882E-11  0.7857E-08  0.6806E-12  0.3780E-04  0.0000E+00 -0.2241E+12
   -2.131266    4.01117  0.4882E-11  0.8217E-08  0.7217E-12  0.3804E-04  0.0000E+00 -0.2280E+12
   -2.200016    4.01175  0.4882E-11  0.8498E-08  0.7650E-12  0.3745E-04  0.0000E+00 -0.2371E+12
   -2.268766    4.01234  0.4882E-11  0.8704E-08  0.8137E-12  0.3599E-04  0.0000E+00 -0.2529E+12
   -2.337515    4.01295  0.4882E-11  0.8842E-08  0.8743E-12  0.3350E-04  0.0000E+00 -0.2788E+12
   -2.406263    4.01361  0.4882E-11  0.8902E-08  0.9560E-12  0.2980E-04  0.0000E+00 -0.3226E+12
   -2.475012    4.01436  0.4882E-11  0.8861E-08  0.1080E-11  0.2468E-04  0.0000E+00 -0.4031E+12
   -2.543759    4.01526  0.4882E-11  0.8664E-08  0.1300E-11  0.1791E-04  0.0000E+00 -0.5808E+12
   -2.612506    4.01651  0.4882E-11  0.8124E-08  0.1838E-11  0.9502E-05  0.0000E+00 -0.1179E+13
   -2.681253    4.01891  0.4882E-11  0.5821E-08  0.5148E-11  0.1228E-05  0.0000E+00 -0.1185E+14
   -2.749998    4.03707  0.4882E-11  0.0000E+00  0.0000E+00  0.0000E+00  0.0000E+00  0.0000E+00
