 1 - depth, m
 2 - temperature, C
 3 - salinity, kg/kg
 4 - turbulent kinetic energy, m**2/s**2
 5 - dissipation rate, m**2/s**3
 6 - kinematic heat conductance, m**2/s
 7 - modulus of horizontal velocity, m/s
 8 - Richardson number, n/d
   -0.000000    2.66868  0.2132E-11  0.6442E-04  0.1970E-04  0.6643E-04  0.8004E-01 -0.3313E+01
   -0.068746    2.58028  0.2133E-11  0.3819E-04  0.5652E-05  0.1022E-03  0.4595E-01 -0.1675E+02
   -0.137492    2.56454  0.2133E-11  0.3046E-04  0.2259E-05  0.1373E-03  0.3989E-01 -0.1423E+02
   -0.206239    2.55420  0.2134E-11  0.2609E-04  0.8591E-06  0.1716E-03  0.3620E-01  0.3446E+04
   -0.274987    2.54650  0.2134E-11  0.2332E-04  0.4346E-06  0.2050E-03  0.3347E-01  0.8647E+05
   -0.343735    2.54065  0.2135E-11  0.2133E-04  0.2741E-06  0.2372E-03  0.3134E-01  0.2571E+03
   -0.412484    2.53615  0.2135E-11  0.1976E-04  0.1950E-06  0.2665E-03  0.2963E-01  0.5839E+02
   -0.481233    2.53269  0.2136E-11  0.1843E-04  0.1486E-06  0.2922E-03  0.2821E-01  0.2594E+02
   -0.549983    2.53008  0.2136E-11  0.1723E-04  0.1182E-06  0.3136E-03  0.2700E-01  0.1403E+02
   -0.618733    2.52817  0.2137E-11  0.1613E-04  0.9681E-07  0.3304E-03  0.2594E-01  0.8845E+01
   -0.687484    2.52692  0.2137E-11  0.1510E-04  0.8106E-07  0.3423E-03  0.2501E-01  0.5844E+01
   -0.756235    2.52630  0.2138E-11  0.1413E-04  0.6906E-07  0.3496E-03  0.2416E-01  0.4208E+01
   -0.824986    2.52639  0.2139E-11  0.1320E-04  0.5971E-07  0.3525E-03  0.2338E-01  0.3050E+01
   -0.893737    2.52731  0.2140E-11  0.1232E-04  0.5234E-07  0.3519E-03  0.2265E-01  0.2361E+01
   -0.962489    2.52937  0.2141E-11  0.1148E-04  0.4654E-07  0.3486E-03  0.2196E-01  0.1809E+01
   -1.031241    2.53315  0.2143E-11  0.1068E-04  0.4204E-07  0.3440E-03  0.2127E-01  0.1479E+01
   -1.099993    2.53985  0.2145E-11  0.9904E-05  0.3867E-07  0.3378E-03  0.2057E-01  0.2700E+02
   -1.168745    2.55183  0.2149E-11  0.9160E-05  0.3627E-07  0.3292E-03  0.1982E-01  0.1142E+02
   -1.237497    2.57375  0.2155E-11  0.8450E-05  0.3445E-07  0.3186E-03  0.1896E-01  0.1223E+02
   -1.306249    2.61503  0.2167E-11  0.7797E-05  0.3237E-07  0.3088E-03  0.1793E-01  0.6613E+01
   -1.375002    2.69088  0.2187E-11  0.7235E-05  0.2935E-07  0.3006E-03  0.1668E-01  0.7081E+01
   -1.443754    2.79825  0.2215E-11  0.6796E-05  0.2607E-07  0.2904E-03  0.1532E-01  0.2856E+00
   -1.512507    2.91371  0.2245E-11  0.6501E-05  0.2333E-07  0.1955E-03  0.1402E-01  0.8111E-01
   -1.581259    3.03369  0.2273E-11  0.6181E-05  0.2109E-07  0.2662E-03  0.1018E-01  0.2417E+01
   -1.650011    3.10615  0.2291E-11  0.6020E-05  0.1989E-07  0.1672E-03  0.9322E-02  0.7416E+00
   -1.718763    3.19961  0.2309E-11  0.5773E-05  0.1935E-07  0.1553E-03  0.4923E-02  0.2018E+01
   -1.787515    3.25932  0.2321E-11  0.4777E-05  0.1379E-07  0.2104E-03  0.1131E-02  0.8481E+01
   -1.856267    3.29944  0.2330E-11  0.4110E-05  0.1047E-07  0.1906E-03  0.7761E-03  0.3670E+01
   -1.925018    3.36385  0.2345E-11  0.3555E-05  0.8086E-08  0.1718E-03  0.5440E-03 -0.6751E-01
   -1.993769    3.40379  0.2354E-11  0.3067E-05  0.6295E-08  0.1530E-03  0.4012E-03 -0.4514E+02
   -2.062520    3.43543  0.2361E-11  0.2632E-05  0.4916E-08  0.1330E-03  0.3015E-03  0.1033E+03
   -2.131270    3.47747  0.2370E-11  0.2237E-05  0.3835E-08  0.1154E-03  0.2188E-03 -0.3392E+04
   -2.200021    3.53601  0.2380E-11  0.1830E-05  0.2887E-08  0.1011E-03  0.1517E-03 -0.8116E+05
   -2.268770    3.62628  0.2396E-11  0.1542E-05  0.2297E-08  0.9206E-04  0.9322E-04 -0.2759E+06
   -2.337520    3.66756  0.2400E-11  0.1293E-05  0.1850E-08  0.8148E-04  0.6411E-04 -0.1815E+07
   -2.406268    3.71811  0.2404E-11  0.1023E-05  0.1404E-08  0.7283E-04  0.4001E-04 -0.6750E+07
   -2.475017    3.79440  0.2411E-11  0.8203E-06  0.1119E-08  0.6756E-04  0.1961E-04 -0.2960E+08
   -2.543764    3.84980  0.2413E-11  0.6232E-06  0.9189E-09  0.5894E-04  0.1036E-04 -0.1631E+09
   -2.612511    3.92748  0.2415E-11  0.4792E-06  0.9168E-09  0.3999E-04  0.4317E-05 -0.2364E+10
   -2.681258    3.98175  0.2416E-11  0.2687E-06  0.1997E-08  0.6723E-05  0.1984E-05 -0.2221E+14
   -2.750004    4.12696  0.2417E-11  0.0000E+00  0.0000E+00  0.0000E+00  0.1997E-05  0.0000E+00
