 1 - depth, m
 2 - temperature, C
 3 - salinity, kg/kg
 4 - turbulent kinetic energy, m**2/s**2
 5 - dissipation rate, m**2/s**3
 6 - kinematic heat conductance, m**2/s
 7 - modulus of horizontal velocity, m/s
 8 - Richardson number, n/d
   -0.000000   -0.00000  0.8743E-10  0.1219E-13  0.7603E-17  0.1000E-09  0.0000E+00  0.7663E+16
   -0.068746    0.11678  0.6744E-10  0.1219E-13  0.7603E-17  0.1000E-09  0.0000E+00  0.7398E+16
   -0.137492    0.23320  0.5105E-10  0.1219E-13  0.7603E-17  0.1000E-09  0.0000E+00  0.7134E+16
   -0.206239    0.34923  0.4153E-10  0.1219E-13  0.7603E-17  0.1000E-09  0.0000E+00  0.6872E+16
   -0.274987    0.46484  0.3687E-10  0.1219E-13  0.7603E-17  0.1000E-09  0.0000E+00  0.6611E+16
   -0.343735    0.57999  0.3487E-10  0.1219E-13  0.7603E-17  0.1000E-09  0.0000E+00  0.6352E+16
   -0.412484    0.69466  0.3411E-10  0.1219E-13  0.7603E-17  0.1000E-09  0.0000E+00  0.6096E+16
   -0.481233    0.80880  0.3384E-10  0.1219E-13  0.7603E-17  0.1000E-09  0.0000E+00  0.5842E+16
   -0.549982    0.92240  0.3376E-10  0.1219E-13  0.7603E-17  0.1000E-09  0.0000E+00  0.5591E+16
   -0.618732    1.03542  0.3374E-10  0.1219E-13  0.7603E-17  0.1000E-09  0.0000E+00  0.5342E+16
   -0.687483    1.14784  0.3373E-10  0.1219E-13  0.7603E-17  0.1000E-09  0.0000E+00  0.5102E+16
   -0.756233    1.25975  0.3372E-10  0.1219E-13  0.7603E-17  0.1000E-09  0.0000E+00  0.4867E+16
   -0.824984    1.37117  0.3371E-10  0.1219E-13  0.7603E-17  0.1000E-09  0.0000E+00  0.4635E+16
   -0.893736    1.48209  0.3368E-10  0.1219E-13  0.7603E-17  0.1000E-09  0.0000E+00  0.4405E+16
   -0.962487    1.59248  0.3365E-10  0.1219E-13  0.7603E-17  0.1000E-09  0.0000E+00  0.4178E+16
   -1.031239    1.70229  0.3359E-10  0.1219E-13  0.7603E-17  0.1000E-09  0.0000E+00  0.3953E+16
   -1.099991    1.81151  0.3350E-10  0.1219E-13  0.7603E-17  0.1000E-09  0.0000E+00  0.3732E+16
   -1.168743    1.92009  0.3339E-10  0.1219E-13  0.7603E-17  0.1000E-09  0.0000E+00  0.3513E+16
   -1.237495    2.02798  0.3327E-10  0.1219E-13  0.7603E-17  0.1000E-09  0.0000E+00  0.3297E+16
   -1.306247    2.13516  0.3314E-10  0.1219E-13  0.7603E-17  0.1000E-09  0.0000E+00  0.3084E+16
   -1.375000    2.24156  0.3303E-10  0.1219E-13  0.7603E-17  0.1000E-09  0.0000E+00  0.2877E+16
   -1.443752    2.34722  0.3293E-10  0.1219E-13  0.7603E-17  0.1000E-09  0.0000E+00  0.2674E+16
   -1.512504    2.45209  0.3286E-10  0.1219E-13  0.7603E-17  0.1000E-09  0.0000E+00  0.2473E+16
   -1.581256    2.55613  0.3280E-10  0.1219E-13  0.7603E-17  0.1000E-09  0.0000E+00  0.2277E+16
   -1.650009    2.65927  0.3277E-10  0.1219E-13  0.7603E-17  0.1000E-09  0.0000E+00  0.2084E+16
   -1.718760    2.76145  0.3274E-10  0.1219E-13  0.7603E-17  0.1000E-09  0.0000E+00  0.1897E+16
   -1.787512    2.86264  0.3273E-10  0.1219E-13  0.7603E-17  0.1000E-09  0.0000E+00  0.1725E+16
   -1.856264    2.96350  0.3271E-10  0.1219E-13  0.7603E-17  0.1000E-09  0.0000E+00  0.1555E+16
   -1.925015    3.06400  0.3270E-10  0.1219E-13  0.7603E-17  0.1000E-09  0.0000E+00  0.1387E+16
   -1.993766    3.16411  0.3268E-10  0.1219E-13  0.7603E-17  0.1000E-09  0.0000E+00  0.1219E+16
   -2.062517    3.26365  0.3266E-10  0.1219E-13  0.7603E-17  0.1000E-09  0.0000E+00  0.1054E+16
   -2.131267    3.36251  0.3264E-10  0.2493E-13  0.1252E-16  0.1000E-09  0.0000E+00  0.8917E+15
   -2.200017    3.46065  0.3262E-10  0.1205E-12  0.5651E-16  0.1000E-09  0.0000E+00  0.7329E+15
   -2.268767    3.55799  0.3261E-10  0.6007E-12  0.2705E-15  0.1000E-09  0.0000E+00  0.5796E+15
   -2.337516    3.65480  0.3261E-10  0.2989E-11  0.1296E-14  0.1000E-09  0.0000E+00  0.4299E+15
   -2.406265    3.75124  0.3260E-10  0.1473E-10  0.6164E-14  0.1079E-09  0.0000E+00  0.2827E+15
   -2.475013    3.84748  0.3260E-10  0.7242E-10  0.2933E-13  0.1036E-08  0.0000E+00  0.1366E+15
   -2.543760    3.94323  0.3260E-10  0.3504E-09  0.1389E-12  0.4844E-07  0.0000E+00  0.7821E+13
   -2.612507    4.01560  0.3260E-10  0.1367E-08  0.6230E-12  0.1164E-05  0.0000E+00 -0.6014E+13
   -2.681254    4.02663  0.3260E-10  0.1569E-08  0.1491E-11  0.4905E-06  0.0000E+00 -0.2265E+14
   -2.750000    4.05354  0.3260E-10  0.0000E+00  0.0000E+00  0.0000E+00  0.0000E+00  0.0000E+00
