 1 - depth, m
 2 - temperature, C
 3 - salinity, kg/kg
 4 - turbulent kinetic energy, m**2/s**2
 5 - dissipation rate, m**2/s**3
 6 - kinematic heat conductance, m**2/s
 7 - modulus of horizontal velocity, m/s
 8 - Richardson number, n/d
   -0.000000   -0.00000  0.3647E-11  0.1219E-13  0.7603E-17  0.1000E-09  0.0000E+00  0.7593E+16
   -0.068746    0.11570  0.2150E-11  0.1219E-13  0.7603E-17  0.1000E-09  0.0000E+00  0.7297E+16
   -0.137492    0.23046  0.1558E-11  0.1219E-13  0.7603E-17  0.1000E-09  0.0000E+00  0.7026E+16
   -0.206239    0.34461  0.1362E-11  0.1219E-13  0.7603E-17  0.1000E-09  0.0000E+00  0.6778E+16
   -0.274987    0.45847  0.1308E-11  0.1219E-13  0.7603E-17  0.1000E-09  0.0000E+00  0.6552E+16
   -0.343735    0.57235  0.1294E-11  0.1219E-13  0.7603E-17  0.1000E-09  0.0000E+00  0.6345E+16
   -0.412483    0.68660  0.1291E-11  0.1219E-13  0.7603E-17  0.1000E-09  0.0000E+00  0.6154E+16
   -0.481232    0.80155  0.1291E-11  0.1219E-13  0.7603E-17  0.1000E-09  0.0000E+00  0.5975E+16
   -0.549982    0.91750  0.1290E-11  0.1219E-13  0.7603E-17  0.1000E-09  0.0000E+00  0.5806E+16
   -0.618732    1.03475  0.1290E-11  0.1219E-13  0.7603E-17  0.1000E-09  0.0000E+00  0.5642E+16
   -0.687482    1.15360  0.1290E-11  0.1219E-13  0.7603E-17  0.1000E-09  0.0000E+00  0.5493E+16
   -0.756233    1.27454  0.1290E-11  0.1219E-13  0.7603E-17  0.1000E-09  0.0000E+00  0.5348E+16
   -0.824984    1.39797  0.1290E-11  0.1219E-13  0.7603E-17  0.1000E-09  0.0000E+00  0.5196E+16
   -0.893735    1.52407  0.1290E-11  0.3317E-13  0.7668E-17  0.1000E-09  0.0000E+00  0.5035E+16
   -0.962487    1.65304  0.1290E-11  0.9863E-13  0.1244E-16  0.1000E-09  0.0000E+00  0.4861E+16
   -1.031239    1.78502  0.1289E-11  0.2481E-12  0.2664E-16  0.1000E-09  0.0000E+00  0.4673E+16
   -1.099990    1.92011  0.1288E-11  0.5767E-12  0.5882E-16  0.1000E-09  0.0000E+00  0.4467E+16
   -1.168742    2.05839  0.1285E-11  0.1298E-11  0.1284E-15  0.1000E-09  0.0000E+00  0.4241E+16
   -1.237495    2.19991  0.1281E-11  0.2872E-11  0.2764E-15  0.1000E-09  0.0000E+00  0.3995E+16
   -1.306247    2.34465  0.1276E-11  0.6269E-11  0.5876E-15  0.1000E-09  0.0000E+00  0.3725E+16
   -1.374999    2.49257  0.1270E-11  0.1351E-10  0.1233E-14  0.1000E-09  0.0000E+00  0.3435E+16
   -1.443751    2.64375  0.1265E-11  0.2875E-10  0.2556E-14  0.1000E-09  0.0000E+00  0.3121E+16
   -1.512503    2.79803  0.1261E-11  0.6036E-10  0.5222E-14  0.1000E-09  0.0000E+00  0.2778E+16
   -1.581256    2.95505  0.1259E-11  0.1250E-09  0.1052E-13  0.1000E-09  0.0000E+00  0.2411E+16
   -1.650008    3.11438  0.1257E-11  0.2550E-09  0.2085E-13  0.1000E-09  0.0000E+00  0.2026E+16
   -1.718760    3.27576  0.1257E-11  0.5125E-09  0.4066E-13  0.1289E-09  0.0000E+00  0.1630E+16
   -1.787511    3.43970  0.1256E-11  0.1036E-08  0.7965E-13  0.3235E-09  0.0000E+00  0.1254E+16
   -1.856263    3.61233  0.1254E-11  0.2100E-08  0.1563E-12  0.9644E-09  0.0000E+00  0.8199E+15
   -1.925014    3.79744  0.1253E-11  0.4218E-08  0.3041E-12  0.5459E-08  0.0000E+00  0.2799E+15
   -1.993765    3.99198  0.1252E-11  0.4897E-08  0.3539E-12  0.2152E-04  0.0000E+00 -0.1330E+12
   -2.062516    3.99338  0.1252E-11  0.5223E-08  0.3837E-12  0.2413E-04  0.0000E+00 -0.1437E+12
   -2.131266    3.99461  0.1252E-11  0.5504E-08  0.4159E-12  0.2563E-04  0.0000E+00 -0.1554E+12
   -2.200016    3.99575  0.1252E-11  0.5742E-08  0.4515E-12  0.2618E-04  0.0000E+00 -0.1704E+12
   -2.268766    3.99685  0.1252E-11  0.5936E-08  0.4924E-12  0.2585E-04  0.0000E+00 -0.1909E+12
   -2.337515    3.99796  0.1252E-11  0.6088E-08  0.5432E-12  0.2452E-04  0.0000E+00 -0.2209E+12
   -2.406263    3.99912  0.1252E-11  0.6188E-08  0.6110E-12  0.2209E-04  0.0000E+00 -0.2686E+12
   -2.475011    4.00040  0.1252E-11  0.6217E-08  0.7118E-12  0.1841E-04  0.0000E+00 -0.3549E+12
   -2.543759    4.00193  0.1252E-11  0.6131E-08  0.8879E-12  0.1336E-04  0.0000E+00 -0.5471E+12
   -2.612506    4.00404  0.1252E-11  0.5785E-08  0.1311E-11  0.7018E-05  0.0000E+00 -0.1226E+13
   -2.681252    4.00802  0.1252E-11  0.4256E-08  0.3707E-11  0.1010E-05  0.0000E+00 -0.1350E+14
   -2.749998    4.03317  0.1252E-11  0.0000E+00  0.0000E+00  0.0000E+00  0.0000E+00  0.0000E+00
