 1 - depth, m
 2 - temperature, C
 3 - salinity, kg/kg
 4 - turbulent kinetic energy, m**2/s**2
 5 - dissipation rate, m**2/s**3
 6 - kinematic heat conductance, m**2/s
 7 - modulus of horizontal velocity, m/s
 8 - Richardson number, n/d
   -0.000000    6.45804  0.1251E-11  0.9976E-05  0.3309E-06  0.2992E-04  0.2097E-01 -0.2441E-01
   -0.068746    6.50596  0.1251E-11  0.9608E-05  0.1271E-06  0.7725E-04  0.1381E-01 -0.6227E-01
   -0.137492    6.52389  0.1251E-11  0.9255E-05  0.7541E-07  0.1298E-03  0.1104E-01 -0.1054E+00
   -0.206239    6.53421  0.1251E-11  0.8968E-05  0.5242E-07  0.1879E-03  0.9419E-02 -0.1534E+00
   -0.274987    6.54113  0.1251E-11  0.8740E-05  0.3968E-07  0.2531E-03  0.8313E-02 -0.1984E+00
   -0.343735    6.54612  0.1251E-11  0.8560E-05  0.3174E-07  0.3526E-03  0.7497E-02  0.1811E+01
   -0.412484    6.54969  0.1251E-11  0.8424E-05  0.2656E-07  0.5625E-03  0.6872E-02  0.4642E+02
   -0.481233    6.55199  0.1251E-11  0.8334E-05  0.2309E-07  0.8544E-03  0.6393E-02  0.9294E+02
   -0.549983    6.55345  0.1251E-11  0.8285E-05  0.2062E-07  0.1070E-02  0.6010E-02  0.1002E+03
   -0.618733    6.55451  0.1251E-11  0.8260E-05  0.1865E-07  0.1132E-02  0.5663E-02  0.8945E+01
   -0.687483    6.55549  0.1251E-11  0.8246E-05  0.1703E-07  0.1176E-02  0.5331E-02  0.9647E+01
   -0.756234    6.55641  0.1251E-11  0.8238E-05  0.1567E-07  0.1218E-02  0.5015E-02  0.1012E+02
   -0.824985    6.55727  0.1251E-11  0.8231E-05  0.1452E-07  0.1258E-02  0.4715E-02  0.1055E+02
   -0.893737    6.55809  0.1251E-11  0.8222E-05  0.1354E-07  0.1296E-02  0.4427E-02  0.1096E+02
   -0.962488    6.55886  0.1251E-11  0.8208E-05  0.1270E-07  0.1332E-02  0.4150E-02  0.1138E+02
   -1.031240    6.55959  0.1251E-11  0.8187E-05  0.1196E-07  0.1365E-02  0.3882E-02  0.1182E+02
   -1.099992    6.56029  0.1251E-11  0.8158E-05  0.1132E-07  0.1396E-02  0.3623E-02  0.1229E+02
   -1.168744    6.56096  0.1251E-11  0.8119E-05  0.1075E-07  0.1423E-02  0.3371E-02  0.1283E+02
   -1.237496    6.56159  0.1251E-11  0.8069E-05  0.1024E-07  0.1447E-02  0.3124E-02  0.1345E+02
   -1.306249    6.56220  0.1251E-11  0.8007E-05  0.9796E-08  0.1467E-02  0.2883E-02  0.1420E+02
   -1.375001    6.56279  0.1251E-11  0.7932E-05  0.9397E-08  0.1482E-02  0.2646E-02  0.1511E+02
   -1.443753    6.56335  0.1251E-11  0.7844E-05  0.9041E-08  0.1492E-02  0.2413E-02  0.1628E+02
   -1.512506    6.56390  0.1251E-11  0.7741E-05  0.8724E-08  0.1496E-02  0.2183E-02  0.1782E+02
   -1.581258    6.56443  0.1251E-11  0.7622E-05  0.8440E-08  0.1493E-02  0.1955E-02  0.2001E+02
   -1.650010    6.56495  0.1251E-11  0.7488E-05  0.8187E-08  0.1489E-02  0.1728E-02  0.2321E+02
   -1.718762    6.56545  0.1251E-11  0.7337E-05  0.7962E-08  0.1464E-02  0.1504E-02  0.2628E+02
   -1.787514    6.56595  0.1251E-11  0.7163E-05  0.7757E-08  0.1498E-02  0.1278E-02  0.6974E+01
   -1.856266    6.56643  0.1251E-11  0.6976E-05  0.7587E-08  0.1530E-02  0.1088E-02  0.3490E+01
   -1.925017    6.56689  0.1251E-11  0.6782E-05  0.7465E-08  0.1580E-02  0.9272E-03  0.2149E+01
   -1.993768    6.56733  0.1251E-11  0.6586E-05  0.7402E-08  0.1646E-02  0.7943E-03  0.1559E+01
   -2.062519    6.56775  0.1251E-11  0.6401E-05  0.7409E-08  0.1685E-02  0.6836E-03  0.1284E+01
   -2.131269    6.56816  0.1251E-11  0.6229E-05  0.7490E-08  0.1626E-02  0.5875E-03  0.1057E+01
   -2.200019    6.56857  0.1251E-11  0.6071E-05  0.7651E-08  0.1517E-02  0.5034E-03  0.8742E+00
   -2.268769    6.56900  0.1251E-11  0.5931E-05  0.7898E-08  0.1402E-02  0.4302E-03  0.6923E+00
   -2.337518    6.56945  0.1251E-11  0.5804E-05  0.8247E-08  0.1289E-02  0.3694E-03  0.5462E+00
   -2.406267    6.56994  0.1251E-11  0.5688E-05  0.8726E-08  0.1193E-02  0.3202E-03  0.5030E+00
   -2.475015    6.57045  0.1251E-11  0.5570E-05  0.9451E-08  0.1078E-02  0.2800E-03  0.6897E+00
   -2.543763    6.57101  0.1251E-11  0.5432E-05  0.1070E-07  0.9760E-03  0.2423E-03  0.1266E+01
   -2.612510    6.57162  0.1251E-11  0.5195E-05  0.1395E-07  0.5606E-03  0.2080E-03  0.1027E+02
   -2.681256    6.57266  0.1251E-11  0.3321E-05  0.5677E-07  0.2537E-04  0.1589E-03 -0.6890E+03
   -2.750002    6.59491  0.1251E-11  0.0000E+00  0.0000E+00  0.0000E+00  0.1588E-03  0.0000E+00
