 1 - depth, m
 2 - temperature, C
 3 - salinity, kg/kg
 4 - turbulent kinetic energy, m**2/s**2
 5 - dissipation rate, m**2/s**3
 6 - kinematic heat conductance, m**2/s
 7 - modulus of horizontal velocity, m/s
 8 - Richardson number, n/d
   -0.000000   -0.00000  0.1602E-17  0.1218E-13  0.7603E-17  0.1000E-09  0.0000E+00  0.4363E+16
   -0.068747    0.06603  0.0000E+00  0.1218E-13  0.7603E-17  0.1000E-09  0.0000E+00  0.4526E+16
   -0.137494    0.13582  0.7223E-13  0.1218E-13  0.7603E-17  0.1000E-09  0.0000E+00  0.4666E+16
   -0.206242    0.20919  0.8153E-12  0.1218E-13  0.7603E-17  0.1000E-09  0.0000E+00  0.4787E+16
   -0.274990    0.28608  0.2094E-11  0.1218E-13  0.7603E-17  0.1000E-09  0.0000E+00  0.4891E+16
   -0.343739    0.36644  0.3392E-11  0.1218E-13  0.7603E-17  0.1000E-09  0.0000E+00  0.4978E+16
   -0.412488    0.45022  0.4306E-11  0.1218E-13  0.7603E-17  0.1000E-09  0.0000E+00  0.5047E+16
   -0.481238    0.53737  0.4732E-11  0.1218E-13  0.7603E-17  0.1000E-09  0.0000E+00  0.5096E+16
   -0.549989    0.62779  0.4776E-11  0.1218E-13  0.7603E-17  0.1000E-09  0.0000E+00  0.5122E+16
   -0.618740    0.72134  0.4612E-11  0.1218E-13  0.7603E-17  0.1000E-09  0.0000E+00  0.5125E+16
   -0.687491    0.81787  0.4385E-11  0.1218E-13  0.7603E-17  0.1000E-09  0.0000E+00  0.5099E+16
   -0.756242    0.91709  0.4179E-11  0.1218E-13  0.7603E-17  0.1000E-09  0.0000E+00  0.5047E+16
   -0.824994    1.01873  0.4027E-11  0.1218E-13  0.7603E-17  0.1000E-09  0.0000E+00  0.4973E+16
   -0.893746    1.12259  0.3927E-11  0.1218E-13  0.7603E-17  0.1000E-09  0.0000E+00  0.4879E+16
   -0.962499    1.22848  0.3868E-11  0.1218E-13  0.7603E-17  0.1000E-09  0.0000E+00  0.4768E+16
   -1.031251    1.33622  0.3836E-11  0.1218E-13  0.7603E-17  0.1000E-09  0.0000E+00  0.4641E+16
   -1.100004    1.44569  0.3819E-11  0.1218E-13  0.7603E-17  0.1000E-09  0.0000E+00  0.4501E+16
   -1.168757    1.55678  0.3810E-11  0.1218E-13  0.7603E-17  0.1000E-09  0.0000E+00  0.4351E+16
   -1.237510    1.66943  0.3804E-11  0.1218E-13  0.7603E-17  0.1000E-09  0.0000E+00  0.4192E+16
   -1.306263    1.78361  0.3799E-11  0.1218E-13  0.7603E-17  0.1000E-09  0.0000E+00  0.4025E+16
   -1.375016    1.89933  0.3793E-11  0.1218E-13  0.7603E-17  0.1000E-09  0.0000E+00  0.3853E+16
   -1.443769    2.01670  0.3786E-11  0.1218E-13  0.7603E-17  0.1000E-09  0.0000E+00  0.3675E+16
   -1.512522    2.13582  0.3777E-11  0.1218E-13  0.7603E-17  0.1000E-09  0.0000E+00  0.3491E+16
   -1.581275    2.25680  0.3767E-11  0.1218E-13  0.7603E-17  0.1000E-09  0.0000E+00  0.3301E+16
   -1.650028    2.37981  0.3757E-11  0.1218E-13  0.7603E-17  0.1000E-09  0.0000E+00  0.3105E+16
   -1.718780    2.50506  0.3747E-11  0.1218E-13  0.7603E-17  0.1000E-09  0.0000E+00  0.2897E+16
   -1.787533    2.63261  0.3737E-11  0.1218E-13  0.7603E-17  0.1000E-09  0.0000E+00  0.2586E+16
   -1.856285    2.75788  0.3729E-11  0.1218E-13  0.7603E-17  0.1000E-09  0.0000E+00  0.2276E+16
   -1.925037    2.88007  0.3721E-11  0.1218E-13  0.7603E-17  0.1000E-09  0.0000E+00  0.1968E+16
   -1.993789    2.99804  0.3715E-11  0.1218E-13  0.7603E-17  0.1000E-09  0.0000E+00  0.1685E+16
   -2.062541    3.11182  0.3710E-11  0.1218E-13  0.7603E-17  0.1000E-09  0.0000E+00  0.1484E+16
   -2.131292    3.22624  0.3706E-11  0.3597E-13  0.1706E-16  0.1000E-09  0.0000E+00  0.1286E+16
   -2.200043    3.34185  0.3703E-11  0.1738E-12  0.7721E-16  0.1000E-09  0.0000E+00  0.1084E+16
   -2.268793    3.45882  0.3700E-11  0.8421E-12  0.3588E-15  0.1000E-09  0.0000E+00  0.8713E+15
   -2.337543    3.57664  0.3698E-11  0.4068E-11  0.1666E-14  0.1000E-09  0.0000E+00  0.6535E+15
   -2.406293    3.69500  0.3696E-11  0.1947E-10  0.7679E-14  0.1000E-09  0.0000E+00  0.4328E+15
   -2.475042    3.81367  0.3695E-11  0.9294E-10  0.3537E-13  0.8302E-09  0.0000E+00  0.2104E+15
   -2.543790    3.93157  0.3694E-11  0.4371E-09  0.1617E-12  0.4204E-07  0.0000E+00  0.1382E+14
   -2.612538    4.02151  0.3694E-11  0.1634E-08  0.6560E-12  0.1802E-05  0.0000E+00 -0.4921E+13
   -2.681285    4.02952  0.3694E-11  0.1401E-08  0.1181E-11  0.4355E-06  0.0000E+00 -0.1622E+14
   -2.750031    4.04907  0.3694E-11  0.0000E+00  0.0000E+00  0.0000E+00  0.0000E+00  0.0000E+00
