 1 - depth, m
 2 - temperature, C
 3 - salinity, kg/kg
 4 - turbulent kinetic energy, m**2/s**2
 5 - dissipation rate, m**2/s**3
 6 - kinematic heat conductance, m**2/s
 7 - modulus of horizontal velocity, m/s
 8 - Richardson number, n/d
   -0.000000   -0.00000  0.4180E-10  0.1219E-13  0.7603E-17  0.1000E-09  0.0000E+00  0.5973E+16
   -0.068746    0.09071  0.2278E-10  0.1219E-13  0.7603E-17  0.1000E-09  0.0000E+00  0.5749E+16
   -0.137492    0.18019  0.1698E-10  0.1219E-13  0.7603E-17  0.1000E-09  0.0000E+00  0.5559E+16
   -0.206239    0.26891  0.1547E-10  0.1219E-13  0.7603E-17  0.1000E-09  0.0000E+00  0.5403E+16
   -0.274987    0.35734  0.1513E-10  0.1219E-13  0.7603E-17  0.1000E-09  0.0000E+00  0.5277E+16
   -0.343735    0.44597  0.1506E-10  0.1219E-13  0.7603E-17  0.1000E-09  0.0000E+00  0.5177E+16
   -0.412483    0.53527  0.1505E-10  0.1219E-13  0.7603E-17  0.1000E-09  0.0000E+00  0.5099E+16
   -0.481232    0.62570  0.1504E-10  0.1219E-13  0.7603E-17  0.1000E-09  0.0000E+00  0.5041E+16
   -0.549982    0.71769  0.1504E-10  0.1219E-13  0.7603E-17  0.1000E-09  0.0000E+00  0.4998E+16
   -0.618732    0.81167  0.1504E-10  0.1219E-13  0.7603E-17  0.1000E-09  0.0000E+00  0.4965E+16
   -0.687482    0.90804  0.1504E-10  0.1219E-13  0.7603E-17  0.1000E-09  0.0000E+00  0.4953E+16
   -0.756233    1.00744  0.1504E-10  0.1219E-13  0.7603E-17  0.1000E-09  0.0000E+00  0.4950E+16
   -0.824984    1.11037  0.1504E-10  0.1219E-13  0.7603E-17  0.1000E-09  0.0000E+00  0.4942E+16
   -0.893735    1.21715  0.1504E-10  0.1219E-13  0.7603E-17  0.1000E-09  0.0000E+00  0.4925E+16
   -0.962486    1.32805  0.1504E-10  0.1219E-13  0.7603E-17  0.1000E-09  0.0000E+00  0.4896E+16
   -1.031238    1.44328  0.1504E-10  0.1219E-13  0.7603E-17  0.1000E-09  0.0000E+00  0.4848E+16
   -1.099990    1.56303  0.1503E-10  0.1219E-13  0.7603E-17  0.1000E-09  0.0000E+00  0.4779E+16
   -1.168742    1.68743  0.1501E-10  0.1219E-13  0.7603E-17  0.1000E-09  0.0000E+00  0.4685E+16
   -1.237494    1.81657  0.1497E-10  0.2642E-13  0.7603E-17  0.1000E-09  0.0000E+00  0.4562E+16
   -1.306246    1.95045  0.1491E-10  0.8885E-13  0.1595E-16  0.1000E-09  0.0000E+00  0.4407E+16
   -1.374999    2.08905  0.1483E-10  0.2523E-12  0.4122E-16  0.1000E-09  0.0000E+00  0.4226E+16
   -1.443751    2.23255  0.1476E-10  0.6766E-12  0.1063E-15  0.1000E-09  0.0000E+00  0.4009E+16
   -1.512503    2.38090  0.1471E-10  0.1773E-11  0.2698E-15  0.1000E-09  0.0000E+00  0.3754E+16
   -1.581255    2.53387  0.1468E-10  0.4576E-11  0.6755E-15  0.1000E-09  0.0000E+00  0.3460E+16
   -1.650007    2.69118  0.1467E-10  0.1165E-10  0.1670E-14  0.1000E-09  0.0000E+00  0.3129E+16
   -1.718759    2.85248  0.1466E-10  0.2928E-10  0.4075E-14  0.1000E-09  0.0000E+00  0.2763E+16
   -1.787511    3.01746  0.1465E-10  0.7458E-10  0.1008E-13  0.1000E-09  0.0000E+00  0.2389E+16
   -1.856262    3.18760  0.1465E-10  0.1908E-09  0.2504E-13  0.1000E-09  0.0000E+00  0.1977E+16
   -1.925013    3.36311  0.1464E-10  0.4855E-09  0.6195E-13  0.2068E-09  0.0000E+00  0.1524E+16
   -1.993764    3.54423  0.1462E-10  0.1228E-08  0.1524E-12  0.7589E-09  0.0000E+00  0.1022E+16
   -2.062515    3.72997  0.1460E-10  0.3013E-08  0.3640E-12  0.3903E-08  0.0000E+00  0.4741E+15
   -2.131265    3.91314  0.1458E-10  0.6874E-08  0.8138E-12  0.1169E-06  0.0000E+00  0.3483E+14
   -2.200015    4.01647  0.1458E-10  0.8222E-08  0.9810E-12  0.2952E-04  0.0000E+00 -0.4297E+12
   -2.268765    4.01737  0.1458E-10  0.8749E-08  0.1068E-11  0.2958E-04  0.0000E+00 -0.4427E+12
   -2.337514    4.01827  0.1458E-10  0.9142E-08  0.1165E-11  0.2850E-04  0.0000E+00 -0.4750E+12
   -2.406262    4.01920  0.1458E-10  0.9404E-08  0.1286E-11  0.2616E-04  0.0000E+00 -0.5367E+12
   -2.475011    4.02023  0.1458E-10  0.9520E-08  0.1458E-11  0.2235E-04  0.0000E+00 -0.6564E+12
   -2.543758    4.02144  0.1458E-10  0.9436E-08  0.1754E-11  0.1681E-04  0.0000E+00 -0.9250E+12
   -2.612505    4.02309  0.1458E-10  0.8962E-08  0.2452E-11  0.9376E-05  0.0000E+00 -0.1828E+13
   -2.681251    4.02613  0.1458E-10  0.6732E-08  0.6489E-11  0.1446E-05  0.0000E+00 -0.1654E+14
   -2.749997    4.04713  0.1458E-10  0.0000E+00  0.0000E+00  0.0000E+00  0.0000E+00  0.0000E+00
