 1 - depth, m
 2 - temperature, C
 3 - salinity, kg/kg
 4 - turbulent kinetic energy, m**2/s**2
 5 - dissipation rate, m**2/s**3
 6 - kinematic heat conductance, m**2/s
 7 - modulus of horizontal velocity, m/s
 8 - Richardson number, n/d
   -0.000000   14.41404  0.9522E-10  0.2673E-04  0.2279E-05  0.3531E-04  0.4236E-01 -0.1237E-01
   -0.068746   14.44459  0.9522E-10  0.2217E-04  0.6189E-06  0.9289E-04  0.2551E-01 -0.3913E-01
   -0.137492   14.45403  0.9523E-10  0.2076E-04  0.3153E-06  0.1552E-03  0.2057E-01 -0.6348E-01
   -0.206239   14.45949  0.9523E-10  0.1994E-04  0.2032E-06  0.2251E-03  0.1763E-01 -0.9019E-01
   -0.274987   14.46307  0.9523E-10  0.1938E-04  0.1474E-06  0.3025E-03  0.1563E-01 -0.1185E+00
   -0.343735   14.46562  0.9523E-10  0.1896E-04  0.1148E-06  0.3941E-03  0.1417E-01 -0.1118E+00
   -0.412484   14.46751  0.9523E-10  0.1866E-04  0.9395E-07  0.5837E-03  0.1305E-01  0.1094E+03
   -0.481233   14.46885  0.9523E-10  0.1846E-04  0.7990E-07  0.7882E-03  0.1217E-01  0.1441E+02
   -0.549983   14.46982  0.9523E-10  0.1835E-04  0.7014E-07  0.1249E-02  0.1143E-01  0.2289E+03
   -0.618733   14.47037  0.9523E-10  0.1832E-04  0.6304E-07  0.1514E-02  0.1083E-01  0.1099E+02
   -0.687483   14.47081  0.9523E-10  0.1833E-04  0.5732E-07  0.1555E-02  0.1026E-01  0.1285E+02
   -0.756234   14.47122  0.9523E-10  0.1837E-04  0.5262E-07  0.1631E-02  0.9713E-02  0.1411E+02
   -0.824985   14.47161  0.9523E-10  0.1842E-04  0.4873E-07  0.1694E-02  0.9192E-02  0.1529E+02
   -0.893736   14.47197  0.9523E-10  0.1847E-04  0.4546E-07  0.1758E-02  0.8692E-02  0.1665E+02
   -0.962488   14.47232  0.9523E-10  0.1851E-04  0.4270E-07  0.1817E-02  0.8210E-02  0.1814E+02
   -1.031240   14.47265  0.9523E-10  0.1855E-04  0.4034E-07  0.1873E-02  0.7741E-02  0.1986E+02
   -1.099992   14.47297  0.9523E-10  0.1857E-04  0.3830E-07  0.1925E-02  0.7284E-02  0.2190E+02
   -1.168744   14.47328  0.9523E-10  0.1856E-04  0.3653E-07  0.1973E-02  0.6837E-02  0.2439E+02
   -1.237496   14.47357  0.9523E-10  0.1853E-04  0.3499E-07  0.2015E-02  0.6396E-02  0.2757E+02
   -1.306248   14.47387  0.9523E-10  0.1847E-04  0.3363E-07  0.2051E-02  0.5960E-02  0.3180E+02
   -1.375000   14.47415  0.9523E-10  0.1837E-04  0.3243E-07  0.2078E-02  0.5529E-02  0.3781E+02
   -1.443753   14.47443  0.9523E-10  0.1823E-04  0.3137E-07  0.2096E-02  0.5099E-02  0.4708E+02
   -1.512505   14.47471  0.9523E-10  0.1803E-04  0.3041E-07  0.2102E-02  0.4669E-02  0.6331E+02
   -1.581257   14.47499  0.9523E-10  0.1778E-04  0.2954E-07  0.2093E-02  0.4239E-02  0.9768E+02
   -1.650009   14.47526  0.9523E-10  0.1747E-04  0.2874E-07  0.2072E-02  0.3805E-02  0.2035E+03
   -1.718761   14.47554  0.9523E-10  0.1708E-04  0.2798E-07  0.2026E-02  0.3368E-02  0.7190E+03
   -1.787513   14.47583  0.9523E-10  0.1658E-04  0.2722E-07  0.1992E-02  0.2923E-02  0.1989E+02
   -1.856265   14.47613  0.9523E-10  0.1601E-04  0.2655E-07  0.1945E-02  0.2536E-02  0.6812E+01
   -1.925016   14.47643  0.9523E-10  0.1538E-04  0.2603E-07  0.1902E-02  0.2198E-02  0.3463E+01
   -1.993767   14.47673  0.9523E-10  0.1471E-04  0.2575E-07  0.1867E-02  0.1908E-02  0.2255E+01
   -2.062518   14.47704  0.9523E-10  0.1404E-04  0.2579E-07  0.1832E-02  0.1658E-02  0.1766E+01
   -2.131268   14.47736  0.9523E-10  0.1338E-04  0.2621E-07  0.1801E-02  0.1433E-02  0.1409E+01
   -2.200018   14.47769  0.9523E-10  0.1274E-04  0.2707E-07  0.1752E-02  0.1231E-02  0.1134E+01
   -2.268768   14.47802  0.9523E-10  0.1215E-04  0.2847E-07  0.1591E-02  0.1051E-02  0.8555E+00
   -2.337517   14.47839  0.9523E-10  0.1160E-04  0.3054E-07  0.1373E-02  0.9000E-03  0.6858E+00
   -2.406266   14.47883  0.9523E-10  0.1106E-04  0.3396E-07  0.1233E-02  0.7784E-03  0.1412E+01
   -2.475014   14.47933  0.9523E-10  0.1037E-04  0.4204E-07  0.9200E-03  0.6757E-03  0.1034E+03
   -2.543762   14.48031  0.9523E-10  0.9313E-05  0.5820E-07  0.7492E-03  0.5504E-03  0.3041E+04
   -2.612509   14.48136  0.9523E-10  0.7567E-05  0.1040E-06  0.3722E-03  0.4343E-03  0.7481E+03
   -2.681255   14.48559  0.9523E-10  0.4585E-05  0.3158E-06  0.1211E-03  0.2608E-03 -0.2919E+04
   -2.750001   14.49286  0.9523E-10  0.0000E+00  0.0000E+00  0.0000E+00  0.3656E-03  0.0000E+00
