 1 - depth, m
 2 - temperature, C
 3 - salinity, kg/kg
 4 - turbulent kinetic energy, m**2/s**2
 5 - dissipation rate, m**2/s**3
 6 - kinematic heat conductance, m**2/s
 7 - modulus of horizontal velocity, m/s
 8 - Richardson number, n/d
   -0.000000   -0.00000  0.9097E-10  0.1219E-13  0.7603E-17  0.1000E-09  0.0000E+00  0.7702E+16
   -0.068746    0.11738  0.6703E-10  0.1219E-13  0.7603E-17  0.1000E-09  0.0000E+00  0.7432E+16
   -0.137492    0.23437  0.5015E-10  0.1219E-13  0.7603E-17  0.1000E-09  0.0000E+00  0.7163E+16
   -0.206239    0.35093  0.4089E-10  0.1219E-13  0.7603E-17  0.1000E-09  0.0000E+00  0.6896E+16
   -0.274987    0.46701  0.3651E-10  0.1219E-13  0.7603E-17  0.1000E-09  0.0000E+00  0.6630E+16
   -0.343735    0.58258  0.3471E-10  0.1219E-13  0.7603E-17  0.1000E-09  0.0000E+00  0.6368E+16
   -0.412484    0.69762  0.3404E-10  0.1219E-13  0.7603E-17  0.1000E-09  0.0000E+00  0.6108E+16
   -0.481233    0.81211  0.3382E-10  0.1219E-13  0.7603E-17  0.1000E-09  0.0000E+00  0.5851E+16
   -0.549982    0.92602  0.3375E-10  0.1219E-13  0.7603E-17  0.1000E-09  0.0000E+00  0.5598E+16
   -0.618732    1.03935  0.3373E-10  0.1219E-13  0.7603E-17  0.1000E-09  0.0000E+00  0.5349E+16
   -0.687483    1.15207  0.3373E-10  0.1219E-13  0.7603E-17  0.1000E-09  0.0000E+00  0.5108E+16
   -0.756233    1.26429  0.3372E-10  0.1219E-13  0.7603E-17  0.1000E-09  0.0000E+00  0.4874E+16
   -0.824984    1.37606  0.3371E-10  0.1219E-13  0.7603E-17  0.1000E-09  0.0000E+00  0.4642E+16
   -0.893736    1.48737  0.3369E-10  0.1219E-13  0.7603E-17  0.1000E-09  0.0000E+00  0.4412E+16
   -0.962487    1.59818  0.3365E-10  0.1219E-13  0.7603E-17  0.1000E-09  0.0000E+00  0.4185E+16
   -1.031239    1.70848  0.3359E-10  0.1219E-13  0.7603E-17  0.1000E-09  0.0000E+00  0.3961E+16
   -1.099991    1.81823  0.3351E-10  0.1219E-13  0.7603E-17  0.1000E-09  0.0000E+00  0.3739E+16
   -1.168743    1.92739  0.3340E-10  0.1219E-13  0.7603E-17  0.1000E-09  0.0000E+00  0.3520E+16
   -1.237495    2.03592  0.3327E-10  0.1219E-13  0.7603E-17  0.1000E-09  0.0000E+00  0.3303E+16
   -1.306247    2.14379  0.3315E-10  0.1219E-13  0.7603E-17  0.1000E-09  0.0000E+00  0.3090E+16
   -1.375000    2.25094  0.3303E-10  0.1219E-13  0.7603E-17  0.1000E-09  0.0000E+00  0.2881E+16
   -1.443752    2.35738  0.3293E-10  0.1219E-13  0.7603E-17  0.1000E-09  0.0000E+00  0.2676E+16
   -1.512504    2.46309  0.3286E-10  0.1219E-13  0.7603E-17  0.1000E-09  0.0000E+00  0.2475E+16
   -1.581256    2.56801  0.3280E-10  0.1219E-13  0.7603E-17  0.1000E-09  0.0000E+00  0.2276E+16
   -1.650008    2.67207  0.3277E-10  0.1219E-13  0.7603E-17  0.1000E-09  0.0000E+00  0.2082E+16
   -1.718760    2.77522  0.3274E-10  0.1219E-13  0.7603E-17  0.1000E-09  0.0000E+00  0.1892E+16
   -1.787512    2.87742  0.3273E-10  0.1219E-13  0.7603E-17  0.1000E-09  0.0000E+00  0.1718E+16
   -1.856264    2.97936  0.3271E-10  0.1219E-13  0.7603E-17  0.1000E-09  0.0000E+00  0.1546E+16
   -1.925015    3.08105  0.3270E-10  0.1219E-13  0.7603E-17  0.1000E-09  0.0000E+00  0.1376E+16
   -1.993766    3.18247  0.3268E-10  0.1219E-13  0.7603E-17  0.1000E-09  0.0000E+00  0.1206E+16
   -2.062517    3.28343  0.3266E-10  0.1925E-13  0.8300E-17  0.1000E-09  0.0000E+00  0.1037E+16
   -2.131267    3.38378  0.3264E-10  0.8099E-13  0.3098E-16  0.1000E-09  0.0000E+00  0.8706E+15
   -2.200017    3.48346  0.3262E-10  0.3500E-12  0.1280E-15  0.1000E-09  0.0000E+00  0.7077E+15
   -2.268767    3.58239  0.3261E-10  0.1496E-11  0.5268E-15  0.1000E-09  0.0000E+00  0.5501E+15
   -2.337516    3.68083  0.3261E-10  0.6397E-11  0.2171E-14  0.1000E-09  0.0000E+00  0.3956E+15
   -2.406264    3.77892  0.3260E-10  0.2716E-10  0.8896E-14  0.1824E-09  0.0000E+00  0.2434E+15
   -2.475013    3.87668  0.3260E-10  0.1152E-09  0.3652E-13  0.1909E-08  0.0000E+00  0.9289E+14
   -2.543760    3.97322  0.3260E-10  0.4677E-09  0.1456E-12  0.2895E-06  0.0000E+00 -0.1531E+13
   -2.612507    4.00550  0.3260E-10  0.1151E-08  0.4963E-12  0.9830E-06  0.0000E+00 -0.5259E+13
   -2.681254    4.01856  0.3260E-10  0.1391E-08  0.1291E-11  0.4524E-06  0.0000E+00 -0.2181E+14
   -2.749999    4.04817  0.3260E-10  0.0000E+00  0.0000E+00  0.0000E+00  0.0000E+00  0.0000E+00
