 1 - depth, m
 2 - temperature, C
 3 - salinity, kg/kg
 4 - turbulent kinetic energy, m**2/s**2
 5 - dissipation rate, m**2/s**3
 6 - kinematic heat conductance, m**2/s
 7 - modulus of horizontal velocity, m/s
 8 - Richardson number, n/d
   -0.000000   -0.00000  0.5231E-10  0.1219E-13  0.7603E-17  0.1000E-09  0.0000E+00  0.4969E+16
   -0.068746    0.07530  0.2785E-10  0.1219E-13  0.7603E-17  0.1000E-09  0.0000E+00  0.4783E+16
   -0.137492    0.14927  0.2159E-10  0.1219E-13  0.7603E-17  0.1000E-09  0.0000E+00  0.4633E+16
   -0.206239    0.22241  0.2016E-10  0.1219E-13  0.7603E-17  0.1000E-09  0.0000E+00  0.4519E+16
   -0.274987    0.29523  0.1987E-10  0.1219E-13  0.7603E-17  0.1000E-09  0.0000E+00  0.4439E+16
   -0.343735    0.36829  0.1982E-10  0.1219E-13  0.7603E-17  0.1000E-09  0.0000E+00  0.4391E+16
   -0.412483    0.44213  0.1981E-10  0.1219E-13  0.7603E-17  0.1000E-09  0.0000E+00  0.4372E+16
   -0.481232    0.51730  0.1980E-10  0.1219E-13  0.7603E-17  0.1000E-09  0.0000E+00  0.4380E+16
   -0.549982    0.59437  0.1980E-10  0.1219E-13  0.7603E-17  0.1000E-09  0.0000E+00  0.4409E+16
   -0.618732    0.67389  0.1980E-10  0.1219E-13  0.7603E-17  0.1000E-09  0.0000E+00  0.4458E+16
   -0.687482    0.75638  0.1980E-10  0.1219E-13  0.7603E-17  0.1000E-09  0.0000E+00  0.4537E+16
   -0.756233    0.84268  0.1980E-10  0.1219E-13  0.7603E-17  0.1000E-09  0.0000E+00  0.4632E+16
   -0.824984    0.93344  0.1980E-10  0.1219E-13  0.7603E-17  0.1000E-09  0.0000E+00  0.4730E+16
   -0.893735    1.02915  0.1980E-10  0.1219E-13  0.7603E-17  0.1000E-09  0.0000E+00  0.4824E+16
   -0.962487    1.13023  0.1980E-10  0.1219E-13  0.7603E-17  0.1000E-09  0.0000E+00  0.4908E+16
   -1.031238    1.23706  0.1980E-10  0.1219E-13  0.7603E-17  0.1000E-09  0.0000E+00  0.4975E+16
   -1.099990    1.34998  0.1980E-10  0.1219E-13  0.7603E-17  0.1000E-09  0.0000E+00  0.5019E+16
   -1.168742    1.46926  0.1978E-10  0.1219E-13  0.7603E-17  0.1000E-09  0.0000E+00  0.5033E+16
   -1.237494    1.59510  0.1973E-10  0.2119E-13  0.7603E-17  0.1000E-09  0.0000E+00  0.5011E+16
   -1.306246    1.72764  0.1965E-10  0.7834E-13  0.1398E-16  0.1000E-09  0.0000E+00  0.4947E+16
   -1.374999    1.86691  0.1954E-10  0.2240E-12  0.3510E-16  0.1000E-09  0.0000E+00  0.4848E+16
   -1.443751    2.01327  0.1943E-10  0.5917E-12  0.8872E-16  0.1000E-09  0.0000E+00  0.4699E+16
   -1.512503    2.16671  0.1936E-10  0.1521E-11  0.2209E-15  0.1000E-09  0.0000E+00  0.4491E+16
   -1.581255    2.32698  0.1933E-10  0.3847E-11  0.5426E-15  0.1000E-09  0.0000E+00  0.4222E+16
   -1.650007    2.49373  0.1930E-10  0.9608E-11  0.1316E-14  0.1000E-09  0.0000E+00  0.3893E+16
   -1.718759    2.66653  0.1929E-10  0.2370E-10  0.3156E-14  0.1000E-09  0.0000E+00  0.3506E+16
   -1.787511    2.84485  0.1928E-10  0.5927E-10  0.7670E-14  0.1000E-09  0.0000E+00  0.3082E+16
   -1.856262    3.02923  0.1928E-10  0.1490E-09  0.1875E-13  0.1000E-09  0.0000E+00  0.2606E+16
   -1.925014    3.21965  0.1927E-10  0.3729E-09  0.4564E-13  0.1117E-09  0.0000E+00  0.2080E+16
   -1.993765    3.41616  0.1926E-10  0.9288E-09  0.1106E-12  0.3770E-09  0.0000E+00  0.1494E+16
   -2.062515    3.61780  0.1922E-10  0.2248E-08  0.2608E-12  0.1561E-08  0.0000E+00  0.8501E+15
   -2.131266    3.81973  0.1917E-10  0.5329E-08  0.6028E-12  0.1427E-07  0.0000E+00  0.2147E+15
   -2.200016    4.00596  0.1916E-10  0.6551E-08  0.7470E-12  0.2361E-04  0.0000E+00 -0.3860E+12
   -2.268765    4.00718  0.1916E-10  0.7040E-08  0.8238E-12  0.2413E-04  0.0000E+00 -0.4025E+12
   -2.337514    4.00837  0.1916E-10  0.7419E-08  0.9118E-12  0.2357E-04  0.0000E+00 -0.4389E+12
   -2.406263    4.00961  0.1916E-10  0.7691E-08  0.1023E-11  0.2182E-04  0.0000E+00 -0.5063E+12
   -2.475011    4.01096  0.1916E-10  0.7843E-08  0.1182E-11  0.1873E-04  0.0000E+00 -0.6360E+12
   -2.543758    4.01255  0.1916E-10  0.7829E-08  0.1455E-11  0.1408E-04  0.0000E+00 -0.9300E+12
   -2.612505    4.01473  0.1916E-10  0.7489E-08  0.2100E-11  0.7820E-05  0.0000E+00 -0.1951E+13
   -2.681252    4.01881  0.1916E-10  0.5805E-08  0.5659E-11  0.1334E-05  0.0000E+00 -0.1863E+14
   -2.749997    4.04493  0.1916E-10  0.0000E+00  0.0000E+00  0.0000E+00  0.0000E+00  0.0000E+00
