 1 - depth, m
 2 - temperature, C
 3 - salinity, kg/kg
 4 - turbulent kinetic energy, m**2/s**2
 5 - dissipation rate, m**2/s**3
 6 - kinematic heat conductance, m**2/s
 7 - modulus of horizontal velocity, m/s
 8 - Richardson number, n/d
   -0.000000   16.16145  0.4313E-10  0.1074E-04  0.3960E-06  0.2994E-04  0.2184E-01 -0.2368E-01
   -0.068746   16.17231  0.4313E-10  0.1025E-04  0.1478E-06  0.7667E-04  0.1429E-01 -0.5533E-01
   -0.137492   16.17572  0.4313E-10  0.9856E-05  0.8661E-07  0.1270E-03  0.1139E-01 -0.8647E-01
   -0.206239   16.17741  0.4313E-10  0.9548E-05  0.5959E-07  0.1844E-03  0.9671E-02 -0.9609E-01
   -0.274987   16.17839  0.4313E-10  0.9312E-05  0.4471E-07  0.2793E-03  0.8481E-02  0.3303E+02
   -0.343735   16.17898  0.4313E-10  0.9144E-05  0.3550E-07  0.3595E-03  0.7607E-02  0.1517E+01
   -0.412484   16.17940  0.4313E-10  0.9040E-05  0.2935E-07  0.4365E-03  0.6927E-02  0.1785E+01
   -0.481233   16.17973  0.4313E-10  0.8989E-05  0.2506E-07  0.5318E-03  0.6376E-02  0.2814E+01
   -0.549983   16.18000  0.4313E-10  0.8985E-05  0.2203E-07  0.6933E-03  0.5923E-02  0.6284E+02
   -0.618733   16.18020  0.4313E-10  0.9023E-05  0.1986E-07  0.8756E-03  0.5549E-02  0.1649E+02
   -0.687483   16.18037  0.4313E-10  0.9093E-05  0.1825E-07  0.1033E-02  0.5229E-02  0.2764E+02
   -0.756234   16.18054  0.4313E-10  0.9186E-05  0.1704E-07  0.1321E-02  0.4943E-02  0.6718E+02
   -0.824985   16.18068  0.4313E-10  0.9302E-05  0.1610E-07  0.1540E-02  0.4688E-02  0.4295E+01
   -0.893737   16.18082  0.4313E-10  0.9440E-05  0.1536E-07  0.1530E-02  0.4442E-02  0.4857E+01
   -0.962488   16.18097  0.4313E-10  0.9594E-05  0.1477E-07  0.1560E-02  0.4197E-02  0.5482E+01
   -1.031240   16.18113  0.4313E-10  0.9761E-05  0.1431E-07  0.1580E-02  0.3955E-02  0.6110E+01
   -1.099992   16.18130  0.4313E-10  0.9933E-05  0.1397E-07  0.1604E-02  0.3715E-02  0.6768E+01
   -1.168744   16.18149  0.4313E-10  0.1011E-04  0.1373E-07  0.1627E-02  0.3474E-02  0.7413E+01
   -1.237496   16.18169  0.4313E-10  0.1028E-04  0.1358E-07  0.1650E-02  0.3234E-02  0.8054E+01
   -1.306249   16.18190  0.4313E-10  0.1043E-04  0.1351E-07  0.1670E-02  0.2993E-02  0.8682E+01
   -1.375001   16.18213  0.4313E-10  0.1057E-04  0.1351E-07  0.1685E-02  0.2752E-02  0.9350E+01
   -1.443753   16.18237  0.4313E-10  0.1069E-04  0.1357E-07  0.1694E-02  0.2509E-02  0.1012E+02
   -1.512506   16.18264  0.4313E-10  0.1077E-04  0.1369E-07  0.1693E-02  0.2266E-02  0.1116E+02
   -1.581258   16.18292  0.4313E-10  0.1081E-04  0.1386E-07  0.1682E-02  0.2021E-02  0.1275E+02
   -1.650010   16.18322  0.4313E-10  0.1080E-04  0.1408E-07  0.1661E-02  0.1776E-02  0.1565E+02
   -1.718762   16.18355  0.4313E-10  0.1074E-04  0.1433E-07  0.1631E-02  0.1529E-02  0.1872E+02
   -1.787514   16.18390  0.4313E-10  0.1062E-04  0.1461E-07  0.1672E-02  0.1283E-02  0.5075E+01
   -1.856266   16.18425  0.4313E-10  0.1046E-04  0.1495E-07  0.1758E-02  0.1082E-02  0.2888E+01
   -1.925017   16.18459  0.4313E-10  0.1028E-04  0.1538E-07  0.1833E-02  0.9192E-03  0.2009E+01
   -1.993768   16.18492  0.4313E-10  0.1008E-04  0.1591E-07  0.1816E-02  0.7904E-03  0.1589E+01
   -2.062519   16.18526  0.4313E-10  0.9892E-05  0.1654E-07  0.1747E-02  0.6869E-03  0.1385E+01
   -2.131269   16.18563  0.4313E-10  0.9705E-05  0.1730E-07  0.1643E-02  0.5996E-03  0.1217E+01
   -2.200019   16.18604  0.4313E-10  0.9524E-05  0.1819E-07  0.1514E-02  0.5247E-03  0.1082E+01
   -2.268769   16.18649  0.4313E-10  0.9346E-05  0.1927E-07  0.1389E-02  0.4609E-03  0.1084E+01
   -2.337518   16.18700  0.4313E-10  0.9158E-05  0.2072E-07  0.1257E-02  0.4068E-03  0.1366E+01
   -2.406267   16.18758  0.4313E-10  0.8937E-05  0.2287E-07  0.1116E-02  0.3588E-03  0.2167E+01
   -2.475015   16.18824  0.4313E-10  0.8649E-05  0.2648E-07  0.8931E-03  0.3133E-03  0.5187E+01
   -2.543763   16.18910  0.4313E-10  0.8240E-05  0.3331E-07  0.8143E-03  0.2655E-03  0.3032E+02
   -2.612510   16.19006  0.4313E-10  0.7409E-05  0.5582E-07  0.3493E-03  0.2232E-03 -0.3013E+02
   -2.681256   16.19432  0.4313E-10  0.4640E-05  0.1867E-06  0.9716E-04  0.1418E-03 -0.1930E+04
   -2.750002   16.20330  0.4313E-10  0.0000E+00  0.0000E+00  0.0000E+00  0.1625E-03  0.0000E+00
