 1 - depth, m
 2 - temperature, C
 3 - salinity, kg/kg
 4 - turbulent kinetic energy, m**2/s**2
 5 - dissipation rate, m**2/s**3
 6 - kinematic heat conductance, m**2/s
 7 - modulus of horizontal velocity, m/s
 8 - Richardson number, n/d
   -0.000000   -0.00000  0.4449E-11  0.1219E-13  0.7603E-17  0.1000E-09  0.0000E+00  0.5421E+16
   -0.068746    0.08222  0.2420E-11  0.1219E-13  0.7603E-17  0.1000E-09  0.0000E+00  0.5218E+16
   -0.137492    0.16315  0.1848E-11  0.1219E-13  0.7603E-17  0.1000E-09  0.0000E+00  0.5056E+16
   -0.206239    0.24336  0.1713E-11  0.1219E-13  0.7603E-17  0.1000E-09  0.0000E+00  0.4933E+16
   -0.274987    0.32341  0.1685E-11  0.1219E-13  0.7603E-17  0.1000E-09  0.0000E+00  0.4844E+16
   -0.343735    0.40387  0.1680E-11  0.1219E-13  0.7603E-17  0.1000E-09  0.0000E+00  0.4788E+16
   -0.412483    0.48533  0.1679E-11  0.1219E-13  0.7603E-17  0.1000E-09  0.0000E+00  0.4760E+16
   -0.481232    0.56835  0.1679E-11  0.1219E-13  0.7603E-17  0.1000E-09  0.0000E+00  0.4757E+16
   -0.549982    0.65350  0.1679E-11  0.1219E-13  0.7603E-17  0.1000E-09  0.0000E+00  0.4774E+16
   -0.618732    0.74134  0.1679E-11  0.1219E-13  0.7603E-17  0.1000E-09  0.0000E+00  0.4808E+16
   -0.687482    0.83241  0.1679E-11  0.1219E-13  0.7603E-17  0.1000E-09  0.0000E+00  0.4868E+16
   -0.756233    0.92754  0.1679E-11  0.1219E-13  0.7603E-17  0.1000E-09  0.0000E+00  0.4942E+16
   -0.824984    1.02741  0.1679E-11  0.1219E-13  0.7603E-17  0.1000E-09  0.0000E+00  0.5014E+16
   -0.893735    1.13249  0.1679E-11  0.1219E-13  0.7603E-17  0.1000E-09  0.0000E+00  0.5078E+16
   -0.962486    1.24320  0.1678E-11  0.1219E-13  0.7603E-17  0.1000E-09  0.0000E+00  0.5127E+16
   -1.031238    1.35994  0.1678E-11  0.2998E-13  0.7603E-17  0.1000E-09  0.0000E+00  0.5155E+16
   -1.099990    1.48305  0.1678E-11  0.9639E-13  0.1268E-16  0.1000E-09  0.0000E+00  0.5155E+16
   -1.168742    1.61282  0.1676E-11  0.2440E-12  0.2771E-16  0.1000E-09  0.0000E+00  0.5122E+16
   -1.237494    1.74949  0.1672E-11  0.5689E-12  0.6154E-16  0.1000E-09  0.0000E+00  0.5048E+16
   -1.306246    1.89325  0.1665E-11  0.1287E-11  0.1351E-15  0.1000E-09  0.0000E+00  0.4930E+16
   -1.374999    2.04426  0.1655E-11  0.2870E-11  0.2935E-15  0.1000E-09  0.0000E+00  0.4772E+16
   -1.443751    2.20300  0.1647E-11  0.6331E-11  0.6312E-15  0.1000E-09  0.0000E+00  0.4560E+16
   -1.512503    2.36964  0.1641E-11  0.1383E-10  0.1345E-14  0.1000E-09  0.0000E+00  0.4284E+16
   -1.581255    2.54411  0.1638E-11  0.2995E-10  0.2842E-14  0.1000E-09  0.0000E+00  0.3939E+16
   -1.650007    2.72623  0.1636E-11  0.6429E-10  0.5954E-14  0.1000E-09  0.0000E+00  0.3523E+16
   -1.718759    2.91566  0.1635E-11  0.1368E-09  0.1237E-13  0.1000E-09  0.0000E+00  0.3038E+16
   -1.787511    3.11200  0.1635E-11  0.2953E-09  0.2607E-13  0.1000E-09  0.0000E+00  0.2520E+16
   -1.856262    3.31797  0.1634E-11  0.6437E-09  0.5548E-13  0.1478E-09  0.0000E+00  0.1912E+16
   -1.925013    3.53376  0.1633E-11  0.1403E-08  0.1181E-12  0.4987E-09  0.0000E+00  0.1207E+16
   -1.993764    3.75914  0.1629E-11  0.3048E-08  0.2509E-12  0.3156E-08  0.0000E+00  0.4051E+15
   -2.062515    3.98894  0.1627E-11  0.3884E-08  0.3222E-12  0.1263E-04  0.0000E+00 -0.1599E+12
   -2.131265    3.99157  0.1627E-11  0.4328E-08  0.3708E-12  0.1657E-04  0.0000E+00 -0.1954E+12
   -2.200015    3.99357  0.1627E-11  0.4718E-08  0.4240E-12  0.1877E-04  0.0000E+00 -0.2253E+12
   -2.268765    3.99534  0.1627E-11  0.5058E-08  0.4842E-12  0.1971E-04  0.0000E+00 -0.2609E+12
   -2.337514    3.99702  0.1627E-11  0.5354E-08  0.5571E-12  0.1949E-04  0.0000E+00 -0.3104E+12
   -2.406262    3.99874  0.1627E-11  0.5598E-08  0.6514E-12  0.1811E-04  0.0000E+00 -0.3871E+12
   -2.475011    4.00059  0.1627E-11  0.5771E-08  0.7865E-12  0.1548E-04  0.0000E+00 -0.5237E+12
   -2.543758    4.00276  0.1627E-11  0.5830E-08  0.1014E-11  0.1151E-04  0.0000E+00 -0.8267E+12
   -2.612505    4.00570  0.1627E-11  0.5642E-08  0.1540E-11  0.6271E-05  0.0000E+00 -0.1892E+13
   -2.681251    4.01116  0.1627E-11  0.4476E-08  0.4251E-11  0.1110E-05  0.0000E+00 -0.1868E+14
   -2.749997    4.04111  0.1627E-11  0.0000E+00  0.0000E+00  0.0000E+00  0.0000E+00  0.0000E+00
