 1 - depth, m
 2 - temperature, C
 3 - salinity, kg/kg
 4 - turbulent kinetic energy, m**2/s**2
 5 - dissipation rate, m**2/s**3
 6 - kinematic heat conductance, m**2/s
 7 - modulus of horizontal velocity, m/s
 8 - Richardson number, n/d
   -0.000000   -0.00000  0.7934E-10  0.6117E-11  0.2114E-14  0.1000E-09  0.3721E-38  0.4644E+16
   -0.068746    0.07033  0.4948E-10  0.1874E-10  0.1607E-14  0.1000E-09  0.3200E-38  0.3919E+16
   -0.137492    0.13075  0.4455E-10  0.3908E-10  0.1694E-14  0.1000E-09  0.2671E-38  0.3172E+16
   -0.206239    0.18040  0.4373E-10  0.6490E-10  0.1989E-14  0.1000E-09  0.2212E-38  0.2459E+16
   -0.274986    0.21936  0.4363E-10  0.9450E-10  0.2384E-14  0.1000E-09  0.1834E-38  0.1821E+16
   -0.343735    0.24849  0.4361E-10  0.1263E-09  0.2827E-14  0.1000E-09  0.1525E-38  0.1283E+16
   -0.412483    0.26917  0.4361E-10  0.1589E-09  0.3284E-14  0.1000E-09  0.1268E-38  0.8566E+15
   -0.481232    0.28305  0.4361E-10  0.1908E-09  0.3729E-14  0.1017E-09  0.1050E-38  0.5387E+15
   -0.549982    0.29180  0.4361E-10  0.2207E-09  0.4140E-14  0.1229E-09  0.8648E-39  0.3190E+15
   -0.618732    0.29699  0.4361E-10  0.2472E-09  0.4499E-14  0.1923E-09  0.7085E-39  0.1835E+15
   -0.687482    0.29999  0.4361E-10  0.2694E-09  0.4792E-14  0.3052E-09  0.5774E-39  0.1264E+15
   -0.756233    0.30205  0.4361E-10  0.2866E-09  0.5010E-14  0.2870E-09  0.4686E-39  0.1377E+15
   -0.824984    0.30430  0.4361E-10  0.2981E-09  0.5147E-14  0.1859E-09  0.3787E-39  0.2140E+15
   -0.893735    0.30779  0.4361E-10  0.3038E-09  0.5199E-14  0.1274E-09  0.3050E-39  0.3647E+15
   -0.962486    0.31376  0.4361E-10  0.3036E-09  0.5170E-14  0.1047E-09  0.2448E-39  0.6063E+15
   -1.031238    0.32371  0.4361E-10  0.2978E-09  0.5061E-14  0.1000E-09  0.1958E-39  0.9593E+15
   -1.099990    0.33950  0.4361E-10  0.2869E-09  0.4882E-14  0.1000E-09  0.1561E-39  0.1445E+16
   -1.168742    0.36342  0.4361E-10  0.2713E-09  0.4640E-14  0.1000E-09  0.1238E-39  0.2080E+16
   -1.237494    0.39815  0.4361E-10  0.2520E-09  0.4347E-14  0.1000E-09  0.9760E-40  0.2872E+16
   -1.306246    0.44671  0.4360E-10  0.2296E-09  0.4015E-14  0.1000E-09  0.7628E-40  0.3815E+16
   -1.374998    0.51232  0.4353E-10  0.2050E-09  0.3657E-14  0.1000E-09  0.5885E-40  0.4957E+16
   -1.443750    0.59957  0.4332E-10  0.1790E-09  0.3286E-14  0.1000E-09  0.4449E-40  0.6192E+16
   -1.512503    0.71201  0.4296E-10  0.1524E-09  0.2916E-14  0.1000E-09  0.3250E-40  0.7419E+16
   -1.581255    0.85234  0.4279E-10  0.1260E-09  0.2564E-14  0.1000E-09  0.2229E-40  0.8545E+16
   -1.650007    1.02263  0.4274E-10  0.1007E-09  0.2246E-14  0.1000E-09  0.1336E-40  0.9464E+16
   -1.718759    1.22410  0.4272E-10  0.7734E-10  0.1989E-14  0.1000E-09  0.5203E-41  0.1004E+17
   -1.787510    1.45610  0.4269E-10  0.5586E-10  0.1822E-14  0.1000E-09  0.3530E-42  0.9631E+16
   -1.856262    1.70176  0.4268E-10  0.3685E-10  0.1828E-14  0.1000E-09  0.2205E-43  0.9000E+16
   -1.925013    1.95917  0.4267E-10  0.2276E-10  0.2278E-14  0.1000E-09  0.1258E-44  0.8149E+16
   -1.993764    2.22559  0.4267E-10  0.1902E-10  0.4293E-14  0.1000E-09  0.7819E-46  0.7185E+16
   -2.062515    2.50089  0.4266E-10  0.4146E-10  0.1254E-13  0.1000E-09  0.6318E-47  0.6322E+16
   -2.131265    2.79611  0.4262E-10  0.1469E-09  0.4446E-13  0.1000E-09  0.4776E-48  0.5152E+16
   -2.200015    3.10894  0.4254E-10  0.5523E-09  0.1612E-12  0.2225E-09  0.3355E-49  0.3683E+16
   -2.268764    3.43401  0.4232E-10  0.2071E-08  0.5819E-12  0.1467E-08  0.1609E-50  0.2015E+16
   -2.337513    3.76391  0.4215E-10  0.7636E-08  0.2070E-11  0.2880E-07  0.6320E-52  0.3632E+15
   -2.406262    4.04284  0.4214E-10  0.1221E-07  0.3353E-11  0.1897E-04  0.1834E-53 -0.2267E+13
   -2.475010    4.04535  0.4214E-10  0.1371E-07  0.4033E-11  0.1833E-04  0.3556E-54 -0.2521E+13
   -2.543758    4.04801  0.4214E-10  0.1456E-07  0.4999E-11  0.1537E-04  0.6098E-55 -0.3305E+13
   -2.612504    4.05135  0.4214E-10  0.1464E-07  0.7052E-11  0.9769E-05  0.7556E-56 -0.6111E+13
   -2.681251    4.05710  0.4214E-10  0.1235E-07  0.1777E-10  0.2159E-05  0.4739E-57 -0.4565E+14
   -2.749996    4.09045  0.4214E-10  0.0000E+00  0.0000E+00  0.0000E+00  0.5018E-57  0.0000E+00
