 1 - depth, m
 2 - temperature, C
 3 - salinity, kg/kg
 4 - turbulent kinetic energy, m**2/s**2
 5 - dissipation rate, m**2/s**3
 6 - kinematic heat conductance, m**2/s
 7 - modulus of horizontal velocity, m/s
 8 - Richardson number, n/d
   -0.000000    5.75204  0.2617E-10  0.1785E-04  0.9758E-06  0.3212E-04  0.3708E-01  0.5330E-02
   -0.068746    5.71814  0.2617E-10  0.1614E-04  0.3305E-06  0.7530E-04  0.2557E-01  0.1426E-01
   -0.137492    5.70416  0.2617E-10  0.1517E-04  0.1886E-06  0.1120E-03  0.2126E-01  0.2332E-01
   -0.206240    5.69480  0.2617E-10  0.1442E-04  0.1293E-06  0.1438E-03  0.1852E-01  0.3283E-01
   -0.274987    5.68758  0.2617E-10  0.1378E-04  0.9700E-07  0.1712E-03  0.1650E-01  0.4255E-01
   -0.343735    5.68162  0.2617E-10  0.1320E-04  0.7679E-07  0.1948E-03  0.1490E-01  0.5228E-01
   -0.412484    5.67649  0.2617E-10  0.1268E-04  0.6298E-07  0.2153E-03  0.1356E-01  0.6184E-01
   -0.481234    5.67197  0.2617E-10  0.1220E-04  0.5296E-07  0.2333E-03  0.1240E-01  0.7108E-01
   -0.549983    5.66792  0.2617E-10  0.1177E-04  0.4538E-07  0.2494E-03  0.1139E-01  0.7983E-01
   -0.618733    5.66426  0.2617E-10  0.1136E-04  0.3946E-07  0.2642E-03  0.1047E-01  0.8792E-01
   -0.687484    5.66093  0.2617E-10  0.1099E-04  0.3471E-07  0.2779E-03  0.9647E-02  0.9519E-01
   -0.756235    5.65790  0.2617E-10  0.1065E-04  0.3083E-07  0.2909E-03  0.8890E-02  0.1014E+00
   -0.824986    5.65515  0.2617E-10  0.1033E-04  0.2760E-07  0.3037E-03  0.8191E-02  0.1065E+00
   -0.893737    5.65266  0.2617E-10  0.1003E-04  0.2489E-07  0.3164E-03  0.7543E-02  0.1101E+00
   -0.962489    5.65043  0.2617E-10  0.9760E-05  0.2259E-07  0.3294E-03  0.6939E-02  0.1120E+00
   -1.031241    5.64844  0.2617E-10  0.9502E-05  0.2061E-07  0.3427E-03  0.6374E-02  0.1121E+00
   -1.099993    5.64669  0.2617E-10  0.9261E-05  0.1890E-07  0.3567E-03  0.5844E-02  0.1100E+00
   -1.168745    5.64518  0.2617E-10  0.9033E-05  0.1742E-07  0.3713E-03  0.5346E-02  0.1055E+00
   -1.237497    5.64390  0.2617E-10  0.8817E-05  0.1612E-07  0.3867E-03  0.4876E-02  0.9837E-01
   -1.306250    5.64285  0.2617E-10  0.8609E-05  0.1498E-07  0.4029E-03  0.4433E-02  0.8843E-01
   -1.375002    5.64201  0.2617E-10  0.8408E-05  0.1398E-07  0.4197E-03  0.4014E-02  0.7557E-01
   -1.443754    5.64138  0.2617E-10  0.8209E-05  0.1308E-07  0.4369E-03  0.3616E-02  0.5974E-01
   -1.512507    5.64093  0.2617E-10  0.8009E-05  0.1228E-07  0.4543E-03  0.3236E-02  0.4102E-01
   -1.581259    5.64065  0.2617E-10  0.7804E-05  0.1156E-07  0.4711E-03  0.2871E-02  0.1979E-01
   -1.650011    5.64053  0.2617E-10  0.7588E-05  0.1089E-07  0.4864E-03  0.2519E-02 -0.3221E-02
   -1.718763    5.64055  0.2617E-10  0.7355E-05  0.1026E-07  0.5016E-03  0.2174E-02 -0.2693E-01
   -1.787515    5.64069  0.2617E-10  0.7102E-05  0.9657E-08  0.5467E-03  0.1838E-02 -0.5648E-01
   -1.856267    5.64086  0.2617E-10  0.6851E-05  0.9121E-08  0.5760E-03  0.1574E-02 -0.1042E+00
   -1.925018    5.64107  0.2617E-10  0.6607E-05  0.8650E-08  0.5965E-03  0.1358E-02 -0.1710E+00
   -1.993769    5.64131  0.2617E-10  0.6368E-05  0.8245E-08  0.6163E-03  0.1178E-02  0.1206E+04
   -2.062520    5.64158  0.2617E-10  0.6146E-05  0.7924E-08  0.6616E-03  0.1025E-02  0.9449E+03
   -2.131271    5.64189  0.2617E-10  0.5943E-05  0.7691E-08  0.7494E-03  0.8863E-03  0.1192E+04
   -2.200021    5.64223  0.2617E-10  0.5757E-05  0.7550E-08  0.7765E-03  0.7646E-03  0.2201E+00
   -2.268771    5.64261  0.2617E-10  0.5582E-05  0.7506E-08  0.7570E-03  0.6530E-03  0.2104E+00
   -2.337520    5.64306  0.2617E-10  0.5409E-05  0.7582E-08  0.7146E-03  0.5526E-03  0.1950E+02
   -2.406269    5.64358  0.2617E-10  0.5233E-05  0.7829E-08  0.6583E-03  0.4624E-03  0.3641E+00
   -2.475017    5.64419  0.2617E-10  0.5043E-05  0.8366E-08  0.5849E-03  0.3810E-03  0.8685E+00
   -2.543765    5.64495  0.2617E-10  0.4817E-05  0.9512E-08  0.4861E-03  0.3062E-03  0.3418E+01
   -2.612512    5.64597  0.2617E-10  0.4480E-05  0.1256E-07  0.2648E-03  0.2343E-03  0.1671E+04
   -2.681258    5.64786  0.2617E-10  0.2727E-05  0.4403E-07  0.2198E-04  0.1585E-03 -0.3876E+06
   -2.750004    5.67256  0.2617E-10  0.0000E+00  0.0000E+00  0.0000E+00  0.1584E-03  0.0000E+00
