 1 - depth, m
 2 - temperature, C
 3 - salinity, kg/kg
 4 - turbulent kinetic energy, m**2/s**2
 5 - dissipation rate, m**2/s**3
 6 - kinematic heat conductance, m**2/s
 7 - modulus of horizontal velocity, m/s
 8 - Richardson number, n/d
   -0.000000   -0.00000  0.1620E-10  0.1343E-10  0.5701E-14  0.1000E-09  0.1514E-33  0.5114E+16
   -0.068746    0.07752  0.1004E-10  0.4775E-10  0.4275E-14  0.1000E-09  0.1195E-33  0.4262E+16
   -0.137492    0.14340  0.8907E-11  0.1025E-09  0.4495E-14  0.1000E-09  0.9760E-34  0.3385E+16
   -0.206239    0.19659  0.8707E-11  0.1714E-09  0.5257E-14  0.1000E-09  0.8182E-34  0.2556E+16
   -0.274986    0.23730  0.8682E-11  0.2492E-09  0.6263E-14  0.1000E-09  0.6923E-34  0.1830E+16
   -0.343734    0.26673  0.8679E-11  0.3313E-09  0.7367E-14  0.1002E-09  0.5845E-34  0.1235E+16
   -0.412483    0.28672  0.8679E-11  0.4132E-09  0.8475E-14  0.1119E-09  0.4901E-34  0.7795E+15
   -0.481232    0.29941  0.8679E-11  0.4906E-09  0.9514E-14  0.1578E-09  0.4078E-34  0.4564E+15
   -0.549982    0.30686  0.8679E-11  0.5597E-09  0.1043E-13  0.2943E-09  0.3374E-34  0.2465E+15
   -0.618732    0.31089  0.8679E-11  0.6173E-09  0.1117E-13  0.6948E-09  0.2782E-34  0.1273E+15
   -0.687482    0.31297  0.8679E-11  0.6610E-09  0.1172E-13  0.1380E-08  0.2293E-34  0.8453E+14
   -0.756233    0.31436  0.8679E-11  0.6896E-09  0.1205E-13  0.9581E-09  0.1894E-34  0.1065E+15
   -0.824983    0.31610  0.8679E-11  0.7025E-09  0.1215E-13  0.4431E-09  0.1564E-34  0.1927E+15
   -0.893735    0.31926  0.8679E-11  0.7000E-09  0.1204E-13  0.2299E-09  0.1290E-34  0.3569E+15
   -0.962486    0.32512  0.8679E-11  0.6830E-09  0.1173E-13  0.1444E-09  0.1063E-34  0.6212E+15
   -1.031238    0.33535  0.8679E-11  0.6531E-09  0.1124E-13  0.1107E-09  0.8739E-35  0.1012E+16
   -1.099990    0.35206  0.8679E-11  0.6122E-09  0.1059E-13  0.1004E-09  0.7160E-35  0.1553E+16
   -1.168742    0.37787  0.8678E-11  0.5627E-09  0.9822E-14  0.1000E-09  0.5835E-35  0.2264E+16
   -1.237494    0.41587  0.8675E-11  0.5068E-09  0.8970E-14  0.1000E-09  0.4717E-35  0.3151E+16
   -1.306246    0.46946  0.8658E-11  0.4469E-09  0.8067E-14  0.1000E-09  0.3772E-35  0.4202E+16
   -1.374998    0.54230  0.8600E-11  0.3851E-09  0.7148E-14  0.1000E-09  0.2968E-35  0.5462E+16
   -1.443750    0.63950  0.8514E-11  0.3233E-09  0.6250E-14  0.1000E-09  0.2281E-35  0.6807E+16
   -1.512502    0.76496  0.8481E-11  0.2632E-09  0.5407E-14  0.1000E-09  0.1689E-35  0.8119E+16
   -1.581255    0.92168  0.8468E-11  0.2065E-09  0.4661E-14  0.1000E-09  0.1171E-35  0.9289E+16
   -1.650007    1.11199  0.8458E-11  0.1548E-09  0.4065E-14  0.1000E-09  0.7065E-36  0.1019E+17
   -1.718758    1.33735  0.8451E-11  0.1099E-09  0.3710E-14  0.1000E-09  0.2762E-36  0.1069E+17
   -1.787510    1.59743  0.8447E-11  0.7302E-10  0.3789E-14  0.1000E-09  0.1875E-37  0.1017E+17
   -1.856262    1.87585  0.8445E-11  0.4785E-10  0.4945E-14  0.1000E-09  0.1172E-38  0.9376E+16
   -1.925013    2.17132  0.8444E-11  0.4719E-10  0.9728E-14  0.1000E-09  0.6691E-40  0.8283E+16
   -1.993764    2.48143  0.8444E-11  0.1099E-09  0.2811E-13  0.1000E-09  0.4160E-41  0.6961E+16
   -2.062514    2.80517  0.8442E-11  0.3648E-09  0.9253E-13  0.1030E-09  0.3364E-42  0.5530E+16
   -2.131265    3.14936  0.8435E-11  0.1259E-08  0.3076E-12  0.4174E-09  0.2545E-43  0.3755E+16
   -2.200015    3.51080  0.8418E-11  0.4271E-08  0.1004E-11  0.3027E-08  0.1790E-44  0.1697E+16
   -2.268764    3.88974  0.8399E-11  0.1188E-07  0.2771E-11  0.1476E-05  0.8583E-46  0.6310E+14
   -2.337513    4.03763  0.8398E-11  0.1582E-07  0.3754E-11  0.2857E-04  0.2807E-47 -0.1679E+13
   -2.406262    4.03985  0.8398E-11  0.1730E-07  0.4290E-11  0.2809E-04  0.7882E-48 -0.1791E+13
   -2.475010    4.04208  0.8398E-11  0.1825E-07  0.4954E-11  0.2543E-04  0.2010E-48 -0.2088E+13
   -2.543757    4.04453  0.8398E-11  0.1866E-07  0.5992E-11  0.2029E-04  0.4396E-49 -0.2815E+13
   -2.612504    4.04766  0.8398E-11  0.1824E-07  0.8316E-11  0.1232E-04  0.6881E-50 -0.5303E+13
   -2.681251    4.05311  0.8398E-11  0.1451E-07  0.2163E-10  0.2290E-05  0.5388E-51 -0.4563E+14
   -2.749996    4.08800  0.8398E-11  0.0000E+00  0.0000E+00  0.0000E+00  0.5678E-51  0.0000E+00
