 1 - depth, m
 2 - temperature, C
 3 - salinity, kg/kg
 4 - turbulent kinetic energy, m**2/s**2
 5 - dissipation rate, m**2/s**3
 6 - kinematic heat conductance, m**2/s
 7 - modulus of horizontal velocity, m/s
 8 - Richardson number, n/d
   -0.000000   -0.00000  0.1940E-09  0.1219E-13  0.7603E-17  0.1000E-09  0.0000E+00  0.5230E+16
   -0.068746    0.07930  0.1155E-09  0.1219E-13  0.7603E-17  0.1000E-09  0.0000E+00  0.5069E+16
   -0.137492    0.15783  0.8484E-10  0.1219E-13  0.7603E-17  0.1000E-09  0.0000E+00  0.4926E+16
   -0.206239    0.23584  0.7609E-10  0.1219E-13  0.7603E-17  0.1000E-09  0.0000E+00  0.4800E+16
   -0.274987    0.31354  0.7396E-10  0.1219E-13  0.7603E-17  0.1000E-09  0.0000E+00  0.4690E+16
   -0.343735    0.39118  0.7350E-10  0.1219E-13  0.7603E-17  0.1000E-09  0.0000E+00  0.4593E+16
   -0.412483    0.46898  0.7341E-10  0.1219E-13  0.7603E-17  0.1000E-09  0.0000E+00  0.4509E+16
   -0.481232    0.54717  0.7339E-10  0.1219E-13  0.7603E-17  0.1000E-09  0.0000E+00  0.4436E+16
   -0.549982    0.62598  0.7339E-10  0.1219E-13  0.7603E-17  0.1000E-09  0.0000E+00  0.4373E+16
   -0.618732    0.70563  0.7339E-10  0.1219E-13  0.7603E-17  0.1000E-09  0.0000E+00  0.4317E+16
   -0.687482    0.78631  0.7339E-10  0.1219E-13  0.7603E-17  0.1000E-09  0.0000E+00  0.4278E+16
   -0.756233    0.86844  0.7339E-10  0.1219E-13  0.7603E-17  0.1000E-09  0.0000E+00  0.4249E+16
   -0.824984    0.95232  0.7339E-10  0.1219E-13  0.7603E-17  0.1000E-09  0.0000E+00  0.4219E+16
   -0.893735    1.03810  0.7339E-10  0.1219E-13  0.7603E-17  0.1000E-09  0.0000E+00  0.4186E+16
   -0.962487    1.12589  0.7339E-10  0.1219E-13  0.7603E-17  0.1000E-09  0.0000E+00  0.4149E+16
   -1.031238    1.21578  0.7338E-10  0.1219E-13  0.7603E-17  0.1000E-09  0.0000E+00  0.4105E+16
   -1.099990    1.30781  0.7336E-10  0.1219E-13  0.7603E-17  0.1000E-09  0.0000E+00  0.4052E+16
   -1.168742    1.40201  0.7332E-10  0.1219E-13  0.7603E-17  0.1000E-09  0.0000E+00  0.3988E+16
   -1.237495    1.49837  0.7322E-10  0.1219E-13  0.7603E-17  0.1000E-09  0.0000E+00  0.3912E+16
   -1.306247    1.59684  0.7305E-10  0.1219E-13  0.7603E-17  0.1000E-09  0.0000E+00  0.3824E+16
   -1.374999    1.69733  0.7279E-10  0.1219E-13  0.7603E-17  0.1000E-09  0.0000E+00  0.3728E+16
   -1.443751    1.79992  0.7248E-10  0.1219E-13  0.7603E-17  0.1000E-09  0.0000E+00  0.3619E+16
   -1.512503    1.90453  0.7220E-10  0.1219E-13  0.7603E-17  0.1000E-09  0.0000E+00  0.3494E+16
   -1.581256    2.01098  0.7201E-10  0.1219E-13  0.7603E-17  0.1000E-09  0.0000E+00  0.3354E+16
   -1.650008    2.11903  0.7190E-10  0.1219E-13  0.7603E-17  0.1000E-09  0.0000E+00  0.3198E+16
   -1.718759    2.22842  0.7184E-10  0.1219E-13  0.7603E-17  0.1000E-09  0.0000E+00  0.3028E+16
   -1.787511    2.33892  0.7181E-10  0.1219E-13  0.7603E-17  0.1000E-09  0.0000E+00  0.2866E+16
   -1.856263    2.45099  0.7179E-10  0.1219E-13  0.7603E-17  0.1000E-09  0.0000E+00  0.2693E+16
   -1.925014    2.56454  0.7177E-10  0.1219E-13  0.7603E-17  0.1000E-09  0.0000E+00  0.2512E+16
   -1.993765    2.67953  0.7174E-10  0.1219E-13  0.7603E-17  0.1000E-09  0.0000E+00  0.2317E+16
   -2.062516    2.79565  0.7169E-10  0.1219E-13  0.7603E-17  0.1000E-09  0.0000E+00  0.2110E+16
   -2.131266    2.91246  0.7161E-10  0.1219E-13  0.7603E-17  0.1000E-09  0.0000E+00  0.1897E+16
   -2.200016    3.02982  0.7148E-10  0.1219E-13  0.7603E-17  0.1000E-09  0.0000E+00  0.1679E+16
   -2.268766    3.14754  0.7132E-10  0.1219E-13  0.7603E-17  0.1000E-09  0.0000E+00  0.1467E+16
   -2.337515    3.26620  0.7115E-10  0.1219E-13  0.7603E-17  0.1000E-09  0.0000E+00  0.1254E+16
   -2.406263    3.38623  0.7101E-10  0.1947E-13  0.1040E-16  0.1000E-09  0.0000E+00  0.1039E+16
   -2.475011    3.50816  0.7094E-10  0.9727E-13  0.4524E-16  0.1000E-09  0.0000E+00  0.8189E+15
   -2.543759    3.63311  0.7091E-10  0.5200E-12  0.2320E-15  0.1000E-09  0.0000E+00  0.5893E+15
   -2.612506    3.76303  0.7090E-10  0.2859E-11  0.1233E-14  0.1000E-09  0.0000E+00  0.3390E+15
   -2.681252    3.90459  0.7090E-10  0.1742E-10  0.7297E-14  0.1808E-07  0.0000E+00 -0.4484E+13
   -2.749998    4.07156  0.7090E-10  0.0000E+00  0.0000E+00  0.0000E+00  0.0000E+00  0.0000E+00
