 1 - depth, m
 2 - temperature, C
 3 - salinity, kg/kg
 4 - turbulent kinetic energy, m**2/s**2
 5 - dissipation rate, m**2/s**3
 6 - kinematic heat conductance, m**2/s
 7 - modulus of horizontal velocity, m/s
 8 - Richardson number, n/d
   -0.000000   -0.00000  0.8683E-10  0.1219E-13  0.7603E-17  0.1000E-09  0.0000E+00  0.4365E+16
   -0.068746    0.06606  0.4620E-10  0.1219E-13  0.7603E-17  0.1000E-09  0.0000E+00  0.4179E+16
   -0.137492    0.13045  0.3633E-10  0.1219E-13  0.7603E-17  0.1000E-09  0.0000E+00  0.4033E+16
   -0.206239    0.19369  0.3420E-10  0.1219E-13  0.7603E-17  0.1000E-09  0.0000E+00  0.3923E+16
   -0.274986    0.25630  0.3380E-10  0.1219E-13  0.7603E-17  0.1000E-09  0.0000E+00  0.3847E+16
   -0.343734    0.31880  0.3374E-10  0.1219E-13  0.7603E-17  0.1000E-09  0.0000E+00  0.3803E+16
   -0.412483    0.38173  0.3373E-10  0.1219E-13  0.7603E-17  0.1000E-09  0.0000E+00  0.3790E+16
   -0.481232    0.44562  0.3373E-10  0.1219E-13  0.7603E-17  0.1000E-09  0.0000E+00  0.3806E+16
   -0.549982    0.51103  0.3373E-10  0.1219E-13  0.7603E-17  0.1000E-09  0.0000E+00  0.3848E+16
   -0.618731    0.57853  0.3373E-10  0.1219E-13  0.7603E-17  0.1000E-09  0.0000E+00  0.3914E+16
   -0.687482    0.64866  0.3373E-10  0.1219E-13  0.7603E-17  0.1000E-09  0.0000E+00  0.4016E+16
   -0.756232    0.72228  0.3373E-10  0.1219E-13  0.7603E-17  0.1000E-09  0.0000E+00  0.4143E+16
   -0.824983    0.80010  0.3373E-10  0.1219E-13  0.7603E-17  0.1000E-09  0.0000E+00  0.4280E+16
   -0.893734    0.88265  0.3373E-10  0.1219E-13  0.7603E-17  0.1000E-09  0.0000E+00  0.4421E+16
   -0.962486    0.97043  0.3373E-10  0.1219E-13  0.7603E-17  0.1000E-09  0.0000E+00  0.4562E+16
   -1.031238    1.06391  0.3372E-10  0.1219E-13  0.7603E-17  0.1000E-09  0.0000E+00  0.4695E+16
   -1.099989    1.16350  0.3371E-10  0.1219E-13  0.7603E-17  0.1000E-09  0.0000E+00  0.4813E+16
   -1.168741    1.26958  0.3366E-10  0.1219E-13  0.7603E-17  0.1000E-09  0.0000E+00  0.4910E+16
   -1.237493    1.38244  0.3355E-10  0.1219E-13  0.7603E-17  0.1000E-09  0.0000E+00  0.4977E+16
   -1.306246    1.50231  0.3336E-10  0.1219E-13  0.7603E-17  0.1000E-09  0.0000E+00  0.5008E+16
   -1.374998    1.62933  0.3314E-10  0.1219E-13  0.7603E-17  0.1000E-09  0.0000E+00  0.5011E+16
   -1.443750    1.76399  0.3296E-10  0.1219E-13  0.7603E-17  0.1000E-09  0.0000E+00  0.4967E+16
   -1.512502    1.90639  0.3287E-10  0.1732E-13  0.7603E-17  0.1000E-09  0.0000E+00  0.4864E+16
   -1.581254    2.05635  0.3281E-10  0.7059E-13  0.1686E-16  0.1000E-09  0.0000E+00  0.4698E+16
   -1.650006    2.21360  0.3277E-10  0.2304E-12  0.4989E-16  0.1000E-09  0.0000E+00  0.4466E+16
   -1.718758    2.37773  0.3274E-10  0.7056E-12  0.1467E-15  0.1000E-09  0.0000E+00  0.4167E+16
   -1.787510    2.54815  0.3273E-10  0.2169E-11  0.4353E-15  0.1000E-09  0.0000E+00  0.3781E+16
   -1.856261    2.72303  0.3272E-10  0.6648E-11  0.1290E-14  0.1000E-09  0.0000E+00  0.3353E+16
   -1.925012    2.90197  0.3272E-10  0.2017E-10  0.3789E-14  0.1000E-09  0.0000E+00  0.2886E+16
   -1.993763    3.08458  0.3271E-10  0.6064E-10  0.1103E-13  0.1000E-09  0.0000E+00  0.2386E+16
   -2.062514    3.27051  0.3270E-10  0.1762E-09  0.3104E-13  0.1000E-09  0.0000E+00  0.1859E+16
   -2.131264    3.45961  0.3268E-10  0.5036E-09  0.8599E-13  0.3360E-09  0.0000E+00  0.1302E+16
   -2.200014    3.65107  0.3264E-10  0.1421E-08  0.2353E-12  0.1657E-08  0.0000E+00  0.7217E+15
   -2.268764    3.84275  0.3259E-10  0.3951E-08  0.6354E-12  0.2062E-07  0.0000E+00  0.1559E+15
   -2.337513    4.01349  0.3259E-10  0.5794E-08  0.9416E-12  0.1521E-04  0.0000E+00 -0.7957E+12
   -2.406261    4.01530  0.3259E-10  0.6482E-08  0.1108E-11  0.1525E-04  0.0000E+00 -0.8598E+12
   -2.475009    4.01713  0.3259E-10  0.6950E-08  0.1316E-11  0.1392E-04  0.0000E+00 -0.1029E+13
   -2.543757    4.01920  0.3259E-10  0.7188E-08  0.1643E-11  0.1106E-04  0.0000E+00 -0.1445E+13
   -2.612504    4.02189  0.3259E-10  0.7072E-08  0.2377E-11  0.6542E-05  0.0000E+00 -0.2916E+13
   -2.681250    4.02679  0.3259E-10  0.5825E-08  0.6110E-11  0.1362E-05  0.0000E+00 -0.2369E+14
   -2.749996    4.05461  0.3259E-10  0.0000E+00  0.0000E+00  0.0000E+00  0.0000E+00  0.0000E+00
