 1 - depth, m
 2 - temperature, C
 3 - salinity, kg/kg
 4 - turbulent kinetic energy, m**2/s**2
 5 - dissipation rate, m**2/s**3
 6 - kinematic heat conductance, m**2/s
 7 - modulus of horizontal velocity, m/s
 8 - Richardson number, n/d
   -0.000000   -0.00000  0.5872E-11  0.1219E-13  0.7603E-17  0.1000E-09  0.0000E+00  0.5459E+16
   -0.068746    0.08281  0.3204E-11  0.1219E-13  0.7603E-17  0.1000E-09  0.0000E+00  0.5255E+16
   -0.137492    0.16433  0.2439E-11  0.1219E-13  0.7603E-17  0.1000E-09  0.0000E+00  0.5091E+16
   -0.206239    0.24512  0.2256E-11  0.1219E-13  0.7603E-17  0.1000E-09  0.0000E+00  0.4965E+16
   -0.274987    0.32573  0.2218E-11  0.1219E-13  0.7603E-17  0.1000E-09  0.0000E+00  0.4873E+16
   -0.343735    0.40673  0.2210E-11  0.1219E-13  0.7603E-17  0.1000E-09  0.0000E+00  0.4812E+16
   -0.412483    0.48868  0.2209E-11  0.1219E-13  0.7603E-17  0.1000E-09  0.0000E+00  0.4779E+16
   -0.481232    0.57213  0.2209E-11  0.1219E-13  0.7603E-17  0.1000E-09  0.0000E+00  0.4770E+16
   -0.549982    0.65763  0.2209E-11  0.1219E-13  0.7603E-17  0.1000E-09  0.0000E+00  0.4782E+16
   -0.618732    0.74572  0.2209E-11  0.1219E-13  0.7603E-17  0.1000E-09  0.0000E+00  0.4809E+16
   -0.687482    0.83694  0.2209E-11  0.1219E-13  0.7603E-17  0.1000E-09  0.0000E+00  0.4862E+16
   -0.756233    0.93209  0.2209E-11  0.1219E-13  0.7603E-17  0.1000E-09  0.0000E+00  0.4928E+16
   -0.824984    1.03181  0.2209E-11  0.1219E-13  0.7603E-17  0.1000E-09  0.0000E+00  0.4992E+16
   -0.893735    1.13657  0.2209E-11  0.1219E-13  0.7603E-17  0.1000E-09  0.0000E+00  0.5048E+16
   -0.962486    1.24677  0.2209E-11  0.1219E-13  0.7603E-17  0.1000E-09  0.0000E+00  0.5089E+16
   -1.031238    1.36279  0.2208E-11  0.1229E-13  0.7603E-17  0.1000E-09  0.0000E+00  0.5110E+16
   -1.099990    1.48493  0.2207E-11  0.2045E-13  0.8050E-17  0.1000E-09  0.0000E+00  0.5104E+16
   -1.168742    1.61346  0.2205E-11  0.7847E-13  0.1404E-16  0.1000E-09  0.0000E+00  0.5063E+16
   -1.237494    1.74857  0.2199E-11  0.2323E-12  0.3602E-16  0.1000E-09  0.0000E+00  0.4984E+16
   -1.306246    1.89038  0.2190E-11  0.6313E-12  0.9320E-16  0.1000E-09  0.0000E+00  0.4859E+16
   -1.374999    2.03892  0.2178E-11  0.1662E-11  0.2367E-15  0.1000E-09  0.0000E+00  0.4697E+16
   -1.443751    2.19457  0.2166E-11  0.4290E-11  0.5908E-15  0.1000E-09  0.0000E+00  0.4482E+16
   -1.512503    2.35734  0.2159E-11  0.1088E-10  0.1450E-14  0.1000E-09  0.0000E+00  0.4208E+16
   -1.581255    2.52706  0.2155E-11  0.2715E-10  0.3502E-14  0.1000E-09  0.0000E+00  0.3872E+16
   -1.650007    2.70345  0.2153E-11  0.6662E-10  0.8326E-14  0.1000E-09  0.0000E+00  0.3476E+16
   -1.718759    2.88619  0.2151E-11  0.1609E-09  0.1949E-13  0.1000E-09  0.0000E+00  0.3023E+16
   -1.787511    3.07502  0.2150E-11  0.3921E-09  0.4606E-13  0.1057E-09  0.0000E+00  0.2551E+16
   -1.856262    3.27294  0.2150E-11  0.9571E-09  0.1091E-12  0.2760E-09  0.0000E+00  0.2012E+16
   -1.925013    3.48189  0.2148E-11  0.2317E-08  0.2566E-12  0.9400E-09  0.0000E+00  0.1387E+16
   -1.993764    3.70666  0.2144E-11  0.5547E-08  0.5973E-12  0.5124E-08  0.0000E+00  0.5964E+15
   -2.062515    3.95065  0.2140E-11  0.9318E-08  0.1021E-11  0.1006E-04  0.0000E+00  0.1547E+14
   -2.131265    4.00902  0.2140E-11  0.1037E-07  0.1150E-11  0.3743E-04  0.0000E+00 -0.3491E+12
   -2.200015    4.01011  0.2140E-11  0.1088E-07  0.1229E-11  0.3775E-04  0.0000E+00 -0.3597E+12
   -2.268765    4.01116  0.2140E-11  0.1126E-07  0.1314E-11  0.3700E-04  0.0000E+00 -0.3806E+12
   -2.337514    4.01221  0.2140E-11  0.1153E-07  0.1416E-11  0.3503E-04  0.0000E+00 -0.4164E+12
   -2.406262    4.01330  0.2140E-11  0.1168E-07  0.1550E-11  0.3167E-04  0.0000E+00 -0.4777E+12
   -2.475011    4.01448  0.2140E-11  0.1170E-07  0.1748E-11  0.2668E-04  0.0000E+00 -0.5913E+12
   -2.543758    4.01587  0.2140E-11  0.1150E-07  0.2095E-11  0.1975E-04  0.0000E+00 -0.8420E+12
   -2.612505    4.01774  0.2140E-11  0.1085E-07  0.2929E-11  0.1085E-04  0.0000E+00 -0.1678E+13
   -2.681251    4.02113  0.2140E-11  0.7991E-08  0.8033E-11  0.1550E-05  0.0000E+00 -0.1627E+14
   -2.749997    4.04396  0.2140E-11  0.0000E+00  0.0000E+00  0.0000E+00  0.0000E+00  0.0000E+00
