 1 - depth, m
 2 - temperature, C
 3 - salinity, kg/kg
 4 - turbulent kinetic energy, m**2/s**2
 5 - dissipation rate, m**2/s**3
 6 - kinematic heat conductance, m**2/s
 7 - modulus of horizontal velocity, m/s
 8 - Richardson number, n/d
   -0.000000   -0.00000  0.1385E-11  0.1219E-13  0.7603E-17  0.1000E-09  0.0000E+00  0.4097E+16
   -0.068746    0.06198  0.7595E-12  0.1219E-13  0.7603E-17  0.1000E-09  0.0000E+00  0.3908E+16
   -0.137492    0.12209  0.6140E-12  0.1219E-13  0.7603E-17  0.1000E-09  0.0000E+00  0.3757E+16
   -0.206239    0.18083  0.5832E-12  0.1219E-13  0.7603E-17  0.1000E-09  0.0000E+00  0.3642E+16
   -0.274987    0.23870  0.5775E-12  0.1219E-13  0.7603E-17  0.1000E-09  0.0000E+00  0.3565E+16
   -0.343735    0.29628  0.5765E-12  0.1219E-13  0.7603E-17  0.1000E-09  0.0000E+00  0.3525E+16
   -0.412483    0.35418  0.5764E-12  0.1219E-13  0.7603E-17  0.1000E-09  0.0000E+00  0.3523E+16
   -0.481232    0.41303  0.5764E-12  0.1219E-13  0.7603E-17  0.1000E-09  0.0000E+00  0.3558E+16
   -0.549982    0.47354  0.5764E-12  0.1219E-13  0.7603E-17  0.1000E-09  0.0000E+00  0.3630E+16
   -0.618732    0.53643  0.5764E-12  0.1219E-13  0.7603E-17  0.1000E-09  0.0000E+00  0.3737E+16
   -0.687482    0.60246  0.5764E-12  0.1219E-13  0.7603E-17  0.1000E-09  0.0000E+00  0.3892E+16
   -0.756233    0.67272  0.5764E-12  0.1219E-13  0.7603E-17  0.1000E-09  0.0000E+00  0.4085E+16
   -0.824984    0.74819  0.5764E-12  0.1219E-13  0.7603E-17  0.1000E-09  0.0000E+00  0.4299E+16
   -0.893735    0.82967  0.5764E-12  0.1219E-13  0.7603E-17  0.1000E-09  0.0000E+00  0.4528E+16
   -0.962486    0.91798  0.5764E-12  0.1219E-13  0.7603E-17  0.1000E-09  0.0000E+00  0.4765E+16
   -1.031238    1.01387  0.5763E-12  0.1219E-13  0.7603E-17  0.1000E-09  0.0000E+00  0.4999E+16
   -1.099990    1.11809  0.5762E-12  0.1219E-13  0.7603E-17  0.1000E-09  0.0000E+00  0.5219E+16
   -1.168742    1.23131  0.5758E-12  0.4174E-13  0.8047E-17  0.1000E-09  0.0000E+00  0.5413E+16
   -1.237494    1.35413  0.5747E-12  0.1225E-12  0.1775E-16  0.1000E-09  0.0000E+00  0.5568E+16
   -1.306246    1.48706  0.5722E-12  0.3163E-12  0.4273E-16  0.1000E-09  0.0000E+00  0.5672E+16
   -1.374999    1.63050  0.5685E-12  0.7823E-12  0.1021E-15  0.1000E-09  0.0000E+00  0.5735E+16
   -1.443751    1.78540  0.5650E-12  0.1899E-11  0.2406E-15  0.1000E-09  0.0000E+00  0.5723E+16
   -1.512503    1.95215  0.5631E-12  0.4550E-11  0.5610E-15  0.1000E-09  0.0000E+00  0.5617E+16
   -1.581255    2.13087  0.5621E-12  0.1078E-10  0.1294E-14  0.1000E-09  0.0000E+00  0.5409E+16
   -1.650007    2.32159  0.5614E-12  0.2527E-10  0.2953E-14  0.1000E-09  0.0000E+00  0.5091E+16
   -1.718759    2.52434  0.5610E-12  0.5864E-10  0.6673E-14  0.1000E-09  0.0000E+00  0.4657E+16
   -1.787511    2.73910  0.5608E-12  0.1380E-09  0.1530E-13  0.1000E-09  0.0000E+00  0.4113E+16
   -1.856262    2.96657  0.5607E-12  0.3273E-09  0.3534E-13  0.1000E-09  0.0000E+00  0.3444E+16
   -1.925013    3.20754  0.5606E-12  0.7744E-09  0.8151E-13  0.1581E-09  0.0000E+00  0.2628E+16
   -1.993764    3.46238  0.5603E-12  0.1826E-08  0.1875E-12  0.5825E-09  0.0000E+00  0.1642E+16
   -2.062515    3.72885  0.5594E-12  0.4188E-08  0.4196E-12  0.4119E-08  0.0000E+00  0.5204E+15
   -2.131265    3.99322  0.5583E-12  0.5267E-08  0.5320E-12  0.1740E-04  0.0000E+00 -0.2738E+12
   -2.200015    3.99543  0.5583E-12  0.5778E-08  0.6016E-12  0.1994E-04  0.0000E+00 -0.3029E+12
   -2.268765    3.99736  0.5583E-12  0.6214E-08  0.6803E-12  0.2115E-04  0.0000E+00 -0.3409E+12
   -2.337514    3.99918  0.5583E-12  0.6588E-08  0.7756E-12  0.2110E-04  0.0000E+00 -0.3966E+12
   -2.406263    4.00102  0.5583E-12  0.6893E-08  0.8990E-12  0.1978E-04  0.0000E+00 -0.4851E+12
   -2.475011    4.00300  0.5583E-12  0.7109E-08  0.1076E-11  0.1707E-04  0.0000E+00 -0.6446E+12
   -2.543758    4.00530  0.5583E-12  0.7188E-08  0.1375E-11  0.1286E-04  0.0000E+00 -0.9983E+12
   -2.612505    4.00841  0.5583E-12  0.6981E-08  0.2065E-11  0.7164E-05  0.0000E+00 -0.2226E+13
   -2.681251    4.01410  0.5583E-12  0.5637E-08  0.5672E-11  0.1334E-05  0.0000E+00 -0.2120E+14
   -2.749997    4.04530  0.5583E-12  0.0000E+00  0.0000E+00  0.0000E+00  0.0000E+00  0.0000E+00
