 1 - depth, m
 2 - temperature, C
 3 - salinity, kg/kg
 4 - turbulent kinetic energy, m**2/s**2
 5 - dissipation rate, m**2/s**3
 6 - kinematic heat conductance, m**2/s
 7 - modulus of horizontal velocity, m/s
 8 - Richardson number, n/d
   -0.000000    0.00000  0.0000E+00  0.1219E-13  0.7603E-17  0.1000E-09  0.0000E+00  0.5199E+16
   -0.068746    0.07882  0.8034E-12  0.1219E-13  0.7603E-17  0.1000E-09  0.0000E+00  0.5322E+16
   -0.137493    0.16131  0.3798E-11  0.1219E-13  0.7603E-17  0.1000E-09  0.0000E+00  0.5443E+16
   -0.206241    0.24769  0.7340E-11  0.1219E-13  0.7603E-17  0.1000E-09  0.0000E+00  0.5554E+16
   -0.274989    0.33806  0.9912E-11  0.1219E-13  0.7603E-17  0.1000E-09  0.0000E+00  0.5638E+16
   -0.343738    0.43230  0.1108E-10  0.1219E-13  0.7603E-17  0.1000E-09  0.0000E+00  0.5685E+16
   -0.412487    0.53008  0.1117E-10  0.1219E-13  0.7603E-17  0.1000E-09  0.0000E+00  0.5689E+16
   -0.481237    0.63095  0.1070E-10  0.1219E-13  0.7603E-17  0.1000E-09  0.0000E+00  0.5650E+16
   -0.549987    0.73442  0.1008E-10  0.1219E-13  0.7603E-17  0.1000E-09  0.0000E+00  0.5575E+16
   -0.618737    0.84003  0.9552E-11  0.1219E-13  0.7603E-17  0.1000E-09  0.0000E+00  0.5468E+16
   -0.687488    0.94737  0.9173E-11  0.1219E-13  0.7603E-17  0.1000E-09  0.0000E+00  0.5335E+16
   -0.756240    1.05609  0.8937E-11  0.1219E-13  0.7603E-17  0.1000E-09  0.0000E+00  0.5181E+16
   -0.824991    1.16588  0.8804E-11  0.1219E-13  0.7603E-17  0.1000E-09  0.0000E+00  0.5013E+16
   -0.893743    1.27656  0.8734E-11  0.1219E-13  0.7603E-17  0.1000E-09  0.0000E+00  0.4835E+16
   -0.962495    1.38798  0.8700E-11  0.1219E-13  0.7603E-17  0.1000E-09  0.0000E+00  0.4648E+16
   -1.031248    1.50000  0.8682E-11  0.1219E-13  0.7603E-17  0.1000E-09  0.0000E+00  0.4455E+16
   -1.100000    1.61256  0.8670E-11  0.1219E-13  0.7603E-17  0.1000E-09  0.0000E+00  0.4258E+16
   -1.168753    1.72556  0.8660E-11  0.1219E-13  0.7603E-17  0.1000E-09  0.0000E+00  0.4057E+16
   -1.237506    1.83898  0.8647E-11  0.1219E-13  0.7603E-17  0.1000E-09  0.0000E+00  0.3855E+16
   -1.306258    1.95281  0.8631E-11  0.1219E-13  0.7603E-17  0.1000E-09  0.0000E+00  0.3651E+16
   -1.375011    2.06706  0.8612E-11  0.1219E-13  0.7603E-17  0.1000E-09  0.0000E+00  0.3450E+16
   -1.443764    2.18188  0.8590E-11  0.1219E-13  0.7603E-17  0.1000E-09  0.0000E+00  0.3250E+16
   -1.512517    2.29739  0.8566E-11  0.1219E-13  0.7603E-17  0.1000E-09  0.0000E+00  0.3051E+16
   -1.581270    2.41376  0.8542E-11  0.1219E-13  0.7603E-17  0.1000E-09  0.0000E+00  0.2852E+16
   -1.650022    2.53115  0.8520E-11  0.1219E-13  0.7603E-17  0.1000E-09  0.0000E+00  0.2651E+16
   -1.718775    2.64973  0.8499E-11  0.1219E-13  0.7603E-17  0.1000E-09  0.0000E+00  0.2444E+16
   -1.787527    2.76948  0.8482E-11  0.1219E-13  0.7603E-17  0.1000E-09  0.0000E+00  0.2169E+16
   -1.856279    2.88685  0.8468E-11  0.1219E-13  0.7603E-17  0.1000E-09  0.0000E+00  0.1897E+16
   -1.925031    3.00114  0.8457E-11  0.1219E-13  0.7603E-17  0.1000E-09  0.0000E+00  0.1631E+16
   -1.993783    3.11146  0.8447E-11  0.2913E-13  0.1022E-16  0.1000E-09  0.0000E+00  0.1389E+16
   -2.062534    3.21802  0.8440E-11  0.1139E-12  0.3492E-16  0.1000E-09  0.0000E+00  0.1212E+16
   -2.131285    3.32500  0.8433E-11  0.4324E-12  0.1267E-15  0.1000E-09  0.0000E+00  0.1039E+16
   -2.200035    3.43318  0.8429E-11  0.1604E-11  0.4527E-15  0.1000E-09  0.0000E+00  0.8634E+15
   -2.268786    3.54293  0.8425E-11  0.5904E-11  0.1606E-14  0.1000E-09  0.0000E+00  0.6798E+15
   -2.337535    3.65415  0.8423E-11  0.2179E-10  0.5720E-14  0.1000E-09  0.0000E+00  0.4889E+15
   -2.406285    3.76679  0.8422E-11  0.8012E-10  0.2031E-13  0.3528E-09  0.0000E+00  0.2905E+15
   -2.475033    3.88049  0.8421E-11  0.2946E-09  0.7227E-13  0.4103E-08  0.0000E+00  0.8753E+14
   -2.543781    3.99212  0.8420E-11  0.9365E-09  0.2271E-12  0.1462E-05  0.0000E+00 -0.1683E+13
   -2.612529    4.00218  0.8420E-11  0.1268E-08  0.4119E-12  0.1474E-05  0.0000E+00 -0.3023E+13
   -2.681276    4.01157  0.8420E-11  0.1124E-08  0.8815E-12  0.3818E-06  0.0000E+00 -0.1422E+14
   -2.750022    4.03585  0.8420E-11  0.0000E+00  0.0000E+00  0.0000E+00  0.0000E+00  0.0000E+00
