 1 - depth, m
 2 - temperature, C
 3 - salinity, kg/kg
 4 - turbulent kinetic energy, m**2/s**2
 5 - dissipation rate, m**2/s**3
 6 - kinematic heat conductance, m**2/s
 7 - modulus of horizontal velocity, m/s
 8 - Richardson number, n/d
   -0.000000   -0.00000  0.1165E-09  0.1219E-13  0.7603E-17  0.1000E-09  0.0000E+00  0.5831E+16
   -0.068746    0.08852  0.6757E-10  0.1219E-13  0.7603E-17  0.1000E-09  0.0000E+00  0.5636E+16
   -0.137492    0.17616  0.4996E-10  0.1219E-13  0.7603E-17  0.1000E-09  0.0000E+00  0.5464E+16
   -0.206239    0.26323  0.4508E-10  0.1219E-13  0.7603E-17  0.1000E-09  0.0000E+00  0.5313E+16
   -0.274987    0.35004  0.4392E-10  0.1219E-13  0.7603E-17  0.1000E-09  0.0000E+00  0.5184E+16
   -0.343735    0.43690  0.4367E-10  0.1219E-13  0.7603E-17  0.1000E-09  0.0000E+00  0.5073E+16
   -0.412483    0.52413  0.4362E-10  0.1219E-13  0.7603E-17  0.1000E-09  0.0000E+00  0.4978E+16
   -0.481233    0.61207  0.4361E-10  0.1219E-13  0.7603E-17  0.1000E-09  0.0000E+00  0.4898E+16
   -0.549982    0.70103  0.4361E-10  0.1219E-13  0.7603E-17  0.1000E-09  0.0000E+00  0.4829E+16
   -0.618732    0.79129  0.4361E-10  0.1219E-13  0.7603E-17  0.1000E-09  0.0000E+00  0.4769E+16
   -0.687482    0.88315  0.4361E-10  0.1219E-13  0.7603E-17  0.1000E-09  0.0000E+00  0.4727E+16
   -0.756233    0.97712  0.4361E-10  0.1219E-13  0.7603E-17  0.1000E-09  0.0000E+00  0.4694E+16
   -0.824984    1.07358  0.4361E-10  0.1219E-13  0.7603E-17  0.1000E-09  0.0000E+00  0.4658E+16
   -0.893735    1.17274  0.4361E-10  0.1219E-13  0.7603E-17  0.1000E-09  0.0000E+00  0.4617E+16
   -0.962487    1.27476  0.4361E-10  0.1219E-13  0.7603E-17  0.1000E-09  0.0000E+00  0.4566E+16
   -1.031239    1.37978  0.4361E-10  0.1219E-13  0.7603E-17  0.1000E-09  0.0000E+00  0.4504E+16
   -1.099991    1.48788  0.4360E-10  0.1219E-13  0.7603E-17  0.1000E-09  0.0000E+00  0.4428E+16
   -1.168743    1.59911  0.4357E-10  0.1219E-13  0.7603E-17  0.1000E-09  0.0000E+00  0.4334E+16
   -1.237495    1.71349  0.4351E-10  0.1219E-13  0.7603E-17  0.1000E-09  0.0000E+00  0.4222E+16
   -1.306247    1.83097  0.4341E-10  0.1219E-13  0.7603E-17  0.1000E-09  0.0000E+00  0.4090E+16
   -1.374999    1.95146  0.4325E-10  0.1219E-13  0.7603E-17  0.1000E-09  0.0000E+00  0.3943E+16
   -1.443752    2.07506  0.4307E-10  0.1219E-13  0.7603E-17  0.1000E-09  0.0000E+00  0.3775E+16
   -1.512504    2.20166  0.4291E-10  0.1219E-13  0.7603E-17  0.1000E-09  0.0000E+00  0.3583E+16
   -1.581256    2.33104  0.4280E-10  0.1219E-13  0.7603E-17  0.1000E-09  0.0000E+00  0.3368E+16
   -1.650008    2.46293  0.4274E-10  0.1520E-13  0.7603E-17  0.1000E-09  0.0000E+00  0.3131E+16
   -1.718760    2.59704  0.4271E-10  0.6622E-13  0.1637E-16  0.1000E-09  0.0000E+00  0.2875E+16
   -1.787512    2.73303  0.4269E-10  0.2273E-12  0.5044E-16  0.1000E-09  0.0000E+00  0.2611E+16
   -1.856263    2.87115  0.4267E-10  0.7366E-12  0.1566E-15  0.1000E-09  0.0000E+00  0.2332E+16
   -1.925014    3.01127  0.4265E-10  0.2338E-11  0.4802E-15  0.1000E-09  0.0000E+00  0.2040E+16
   -1.993765    3.15326  0.4262E-10  0.7334E-11  0.1456E-14  0.1000E-09  0.0000E+00  0.1732E+16
   -2.062516    3.29673  0.4256E-10  0.2219E-10  0.4262E-14  0.1000E-09  0.0000E+00  0.1408E+16
   -2.131267    3.44088  0.4246E-10  0.6600E-10  0.1227E-13  0.1000E-09  0.0000E+00  0.1079E+16
   -2.200017    3.58537  0.4234E-10  0.1937E-09  0.3487E-13  0.2371E-09  0.0000E+00  0.7473E+15
   -2.268766    3.72970  0.4224E-10  0.5664E-09  0.9876E-13  0.1202E-08  0.0000E+00  0.4169E+15
   -2.337515    3.87325  0.4221E-10  0.1654E-08  0.2799E-12  0.1444E-07  0.0000E+00  0.9751E+14
   -2.406264    4.00490  0.4220E-10  0.3034E-08  0.5171E-12  0.7351E-05  0.0000E+00 -0.8635E+12
   -2.475012    4.00766  0.4220E-10  0.3570E-08  0.6659E-12  0.7376E-05  0.0000E+00 -0.1005E+13
   -2.543760    4.01048  0.4220E-10  0.3901E-08  0.8806E-12  0.6172E-05  0.0000E+00 -0.1420E+13
   -2.612507    4.01398  0.4220E-10  0.3982E-08  0.1342E-11  0.3755E-05  0.0000E+00 -0.2974E+13
   -2.681253    4.02016  0.4220E-10  0.3478E-08  0.3457E-11  0.9181E-06  0.0000E+00 -0.2258E+14
   -2.749999    4.04979  0.4220E-10  0.0000E+00  0.0000E+00  0.0000E+00  0.0000E+00  0.0000E+00
