 1 - depth, m
 2 - temperature, C
 3 - salinity, kg/kg
 4 - turbulent kinetic energy, m**2/s**2
 5 - dissipation rate, m**2/s**3
 6 - kinematic heat conductance, m**2/s
 7 - modulus of horizontal velocity, m/s
 8 - Richardson number, n/d
   -0.000000   -0.00000  0.2104E-11  0.1219E-13  0.7603E-17  0.1000E-09  0.0000E+00  0.6509E+16
   -0.068746    0.09896  0.1161E-11  0.1219E-13  0.7603E-17  0.1000E-09  0.0000E+00  0.6266E+16
   -0.137492    0.19683  0.8588E-12  0.1219E-13  0.7603E-17  0.1000E-09  0.0000E+00  0.6058E+16
   -0.206239    0.29407  0.7783E-12  0.1219E-13  0.7603E-17  0.1000E-09  0.0000E+00  0.5882E+16
   -0.274987    0.39118  0.7597E-12  0.1219E-13  0.7603E-17  0.1000E-09  0.0000E+00  0.5737E+16
   -0.343735    0.48864  0.7558E-12  0.1219E-13  0.7603E-17  0.1000E-09  0.0000E+00  0.5618E+16
   -0.412483    0.58695  0.7551E-12  0.1219E-13  0.7603E-17  0.1000E-09  0.0000E+00  0.5522E+16
   -0.481232    0.68661  0.7550E-12  0.1219E-13  0.7603E-17  0.1000E-09  0.0000E+00  0.5445E+16
   -0.549982    0.78809  0.7550E-12  0.1219E-13  0.7603E-17  0.1000E-09  0.0000E+00  0.5382E+16
   -0.618732    0.89185  0.7549E-12  0.1219E-13  0.7603E-17  0.1000E-09  0.0000E+00  0.5329E+16
   -0.687482    0.99833  0.7549E-12  0.1219E-13  0.7603E-17  0.1000E-09  0.0000E+00  0.5294E+16
   -0.756233    1.10821  0.7549E-12  0.1219E-13  0.7603E-17  0.1000E-09  0.0000E+00  0.5265E+16
   -0.824984    1.22203  0.7549E-12  0.1219E-13  0.7603E-17  0.1000E-09  0.0000E+00  0.5229E+16
   -0.893735    1.34014  0.7549E-12  0.1224E-13  0.7603E-17  0.1000E-09  0.0000E+00  0.5179E+16
   -0.962487    1.46282  0.7548E-12  0.1967E-13  0.7662E-17  0.1000E-09  0.0000E+00  0.5111E+16
   -1.031238    1.59032  0.7546E-12  0.6904E-13  0.1040E-16  0.1000E-09  0.0000E+00  0.5021E+16
   -1.099990    1.72284  0.7540E-12  0.1796E-12  0.2241E-16  0.1000E-09  0.0000E+00  0.4903E+16
   -1.168742    1.86052  0.7527E-12  0.4233E-12  0.5060E-16  0.1000E-09  0.0000E+00  0.4755E+16
   -1.237495    2.00348  0.7503E-12  0.9723E-12  0.1141E-15  0.1000E-09  0.0000E+00  0.4572E+16
   -1.306247    2.15180  0.7467E-12  0.2220E-11  0.2567E-15  0.1000E-09  0.0000E+00  0.4354E+16
   -1.374999    2.30554  0.7427E-12  0.5064E-11  0.5767E-15  0.1000E-09  0.0000E+00  0.4103E+16
   -1.443751    2.46501  0.7394E-12  0.1154E-10  0.1294E-14  0.1000E-09  0.0000E+00  0.3813E+16
   -1.512503    2.63038  0.7372E-12  0.2627E-10  0.2896E-14  0.1000E-09  0.0000E+00  0.3480E+16
   -1.581256    2.80175  0.7359E-12  0.5967E-10  0.6460E-14  0.1000E-09  0.0000E+00  0.3098E+16
   -1.650008    2.97911  0.7351E-12  0.1351E-09  0.1436E-13  0.1000E-09  0.0000E+00  0.2663E+16
   -1.718759    3.16208  0.7347E-12  0.3045E-09  0.3175E-13  0.1000E-09  0.0000E+00  0.2169E+16
   -1.787511    3.34943  0.7343E-12  0.6995E-09  0.7153E-13  0.2245E-09  0.0000E+00  0.1631E+16
   -1.856263    3.54003  0.7336E-12  0.1626E-08  0.1629E-12  0.7962E-09  0.0000E+00  0.1042E+16
   -1.925014    3.72788  0.7325E-12  0.3775E-08  0.3709E-12  0.3951E-08  0.0000E+00  0.4720E+15
   -1.993765    3.90434  0.7317E-12  0.8353E-08  0.8085E-12  0.8874E-07  0.0000E+00  0.4661E+14
   -2.062516    4.01429  0.7317E-12  0.9433E-08  0.9188E-12  0.4067E-04  0.0000E+00 -0.2797E+12
   -2.131266    4.01492  0.7317E-12  0.9892E-08  0.9777E-12  0.4131E-04  0.0000E+00 -0.2865E+12
   -2.200016    4.01556  0.7317E-12  0.1026E-07  0.1041E-11  0.4101E-04  0.0000E+00 -0.3002E+12
   -2.268765    4.01621  0.7317E-12  0.1054E-07  0.1112E-11  0.3966E-04  0.0000E+00 -0.3225E+12
   -2.337515    4.01690  0.7317E-12  0.1074E-07  0.1201E-11  0.3710E-04  0.0000E+00 -0.3584E+12
   -2.406263    4.01764  0.7317E-12  0.1085E-07  0.1321E-11  0.3319E-04  0.0000E+00 -0.4178E+12
   -2.475011    4.01849  0.7317E-12  0.1085E-07  0.1500E-11  0.2765E-04  0.0000E+00 -0.5262E+12
   -2.543759    4.01952  0.7317E-12  0.1067E-07  0.1815E-11  0.2025E-04  0.0000E+00 -0.7632E+12
   -2.612506    4.02097  0.7317E-12  0.1009E-07  0.2570E-11  0.1095E-04  0.0000E+00 -0.1552E+13
   -2.681252    4.02375  0.7317E-12  0.7456E-08  0.7171E-11  0.1517E-05  0.0000E+00 -0.1514E+14
   -2.749998    4.04411  0.7317E-12  0.0000E+00  0.0000E+00  0.0000E+00  0.0000E+00  0.0000E+00
