 1 - depth, m
 2 - temperature, C
 3 - salinity, kg/kg
 4 - turbulent kinetic energy, m**2/s**2
 5 - dissipation rate, m**2/s**3
 6 - kinematic heat conductance, m**2/s
 7 - modulus of horizontal velocity, m/s
 8 - Richardson number, n/d
   -0.000000    3.90743  0.5605E-12  0.4026E-04  0.5641E-05  0.3625E-04  0.5914E-01  0.6804E-04
   -0.068746    3.95843  0.5606E-12  0.2790E-04  0.1244E-05  0.8056E-04  0.3316E-01  0.1125E-03
   -0.137492    3.97343  0.5606E-12  0.2499E-04  0.5446E-06  0.1266E-03  0.2681E-01  0.9586E-04
   -0.206239    3.98312  0.5606E-12  0.2350E-04  0.3206E-06  0.1751E-03  0.2285E-01  0.5677E-04
   -0.274987    3.99008  0.5606E-12  0.2251E-04  0.2211E-06  0.2245E-03  0.2006E-01 -0.8090E-05
   -0.343735    3.99538  0.5606E-12  0.2174E-04  0.1665E-06  0.2735E-03  0.1795E-01 -0.9666E-04
   -0.412484    3.99963  0.5606E-12  0.2109E-04  0.1325E-06  0.3214E-03  0.1627E-01 -0.2042E-03
   -0.481233    4.00315  0.5606E-12  0.2052E-04  0.1093E-06  0.3676E-03  0.1489E-01 -0.3262E-03
   -0.549983    4.00615  0.5606E-12  0.2000E-04  0.9256E-07  0.4121E-03  0.1371E-01 -0.4594E-03
   -0.618733    4.00877  0.5606E-12  0.1954E-04  0.7998E-07  0.4549E-03  0.1269E-01 -0.6011E-03
   -0.687483    4.01109  0.5606E-12  0.1911E-04  0.7023E-07  0.4957E-03  0.1178E-01 -0.7488E-03
   -0.756234    4.01316  0.5606E-12  0.1871E-04  0.6248E-07  0.5347E-03  0.1097E-01 -0.9005E-03
   -0.824985    4.01505  0.5606E-12  0.1834E-04  0.5620E-07  0.5716E-03  0.1023E-01 -0.1054E-02
   -0.893737    4.01677  0.5606E-12  0.1800E-04  0.5103E-07  0.6063E-03  0.9557E-02 -0.1206E-02
   -0.962488    4.01835  0.5606E-12  0.1767E-04  0.4672E-07  0.6387E-03  0.8932E-02 -0.1356E-02
   -1.031240    4.01983  0.5606E-12  0.1737E-04  0.4309E-07  0.6685E-03  0.8349E-02 -0.1501E-02
   -1.099992    4.02120  0.5606E-12  0.1707E-04  0.4000E-07  0.6956E-03  0.7801E-02 -0.1637E-02
   -1.168744    4.02249  0.5606E-12  0.1679E-04  0.3734E-07  0.7197E-03  0.7282E-02 -0.1763E-02
   -1.237497    4.02371  0.5606E-12  0.1651E-04  0.3504E-07  0.7404E-03  0.6788E-02 -0.1876E-02
   -1.306249    4.02487  0.5606E-12  0.1624E-04  0.3303E-07  0.7576E-03  0.6314E-02 -0.1973E-02
   -1.375001    4.02597  0.5606E-12  0.1596E-04  0.3125E-07  0.7706E-03  0.5856E-02 -0.2051E-02
   -1.443754    4.02703  0.5606E-12  0.1568E-04  0.2967E-07  0.7792E-03  0.5410E-02 -0.2108E-02
   -1.512506    4.02805  0.5606E-12  0.1539E-04  0.2824E-07  0.7825E-03  0.4972E-02 -0.2139E-02
   -1.581258    4.02904  0.5606E-12  0.1508E-04  0.2691E-07  0.7796E-03  0.4539E-02 -0.2140E-02
   -1.650010    4.03001  0.5606E-12  0.1475E-04  0.2566E-07  0.7690E-03  0.4107E-02 -0.2105E-02
   -1.718762    4.03097  0.5606E-12  0.1436E-04  0.2442E-07  0.7527E-03  0.3668E-02 -0.2065E-02
   -1.787514    4.03193  0.5606E-12  0.1394E-04  0.2320E-07  0.8012E-03  0.3222E-02 -0.2803E-02
   -1.856266    4.03281  0.5606E-12  0.1350E-04  0.2207E-07  0.8293E-03  0.2854E-02 -0.3698E-02
   -1.925017    4.03366  0.5606E-12  0.1305E-04  0.2105E-07  0.8455E-03  0.2540E-02 -0.4879E-02
   -1.993768    4.03448  0.5606E-12  0.1261E-04  0.2014E-07  0.8456E-03  0.2271E-02 -0.6120E-02
   -2.062519    4.03530  0.5606E-12  0.1219E-04  0.1939E-07  0.8301E-03  0.2032E-02 -0.7002E-02
   -2.131269    4.03611  0.5606E-12  0.1178E-04  0.1880E-07  0.8079E-03  0.1808E-02 -0.7933E-02
   -2.200019    4.03693  0.5606E-12  0.1138E-04  0.1840E-07  0.7781E-03  0.1597E-02 -0.8866E-02
   -2.268769    4.03776  0.5606E-12  0.1100E-04  0.1822E-07  0.7433E-03  0.1394E-02 -0.1053E-01
   -2.337518    4.03862  0.5606E-12  0.1061E-04  0.1833E-07  0.6966E-03  0.1205E-02 -0.1281E-01
   -2.406267    4.03952  0.5606E-12  0.1020E-04  0.1887E-07  0.6335E-03  0.1030E-02 -0.1578E-01
   -2.475015    4.04050  0.5606E-12  0.9756E-05  0.2016E-07  0.5486E-03  0.8651E-03 -0.1989E-01
   -2.543763    4.04161  0.5606E-12  0.9232E-05  0.2302E-07  0.4343E-03  0.7087E-03 -0.2563E-01
   -2.612510    4.04298  0.5606E-12  0.8490E-05  0.3059E-07  0.2790E-03  0.5549E-03 -0.3842E-01
   -2.681257    4.04509  0.5606E-12  0.5028E-05  0.1055E-06  0.2862E-04  0.3987E-03 -0.5392E+04
   -2.750002    4.06507  0.5606E-12  0.0000E+00  0.0000E+00  0.0000E+00  0.3982E-03  0.0000E+00
