 1 - depth, m
 2 - temperature, C
 3 - salinity, kg/kg
 4 - turbulent kinetic energy, m**2/s**2
 5 - dissipation rate, m**2/s**3
 6 - kinematic heat conductance, m**2/s
 7 - modulus of horizontal velocity, m/s
 8 - Richardson number, n/d
   -0.000000   -0.00000  0.7689E-10  0.1219E-13  0.7603E-17  0.1000E-09  0.0000E+00  0.7513E+16
   -0.068746    0.11445  0.6755E-10  0.1219E-13  0.7603E-17  0.1000E-09  0.0000E+00  0.7281E+16
   -0.137492    0.22893  0.5282E-10  0.1219E-13  0.7603E-17  0.1000E-09  0.0000E+00  0.7043E+16
   -0.206239    0.34331  0.4289E-10  0.1219E-13  0.7603E-17  0.1000E-09  0.0000E+00  0.6801E+16
   -0.274987    0.45749  0.3764E-10  0.1219E-13  0.7603E-17  0.1000E-09  0.0000E+00  0.6556E+16
   -0.343735    0.57142  0.3524E-10  0.1219E-13  0.7603E-17  0.1000E-09  0.0000E+00  0.6311E+16
   -0.412484    0.68501  0.3426E-10  0.1219E-13  0.7603E-17  0.1000E-09  0.0000E+00  0.6065E+16
   -0.481233    0.79821  0.3390E-10  0.1219E-13  0.7603E-17  0.1000E-09  0.0000E+00  0.5820E+16
   -0.549983    0.91096  0.3378E-10  0.1219E-13  0.7603E-17  0.1000E-09  0.0000E+00  0.5575E+16
   -0.618733    1.02321  0.3374E-10  0.1219E-13  0.7603E-17  0.1000E-09  0.0000E+00  0.5332E+16
   -0.687483    1.13491  0.3373E-10  0.1219E-13  0.7603E-17  0.1000E-09  0.0000E+00  0.5096E+16
   -0.756234    1.24611  0.3372E-10  0.1219E-13  0.7603E-17  0.1000E-09  0.0000E+00  0.4863E+16
   -0.824985    1.35683  0.3370E-10  0.1219E-13  0.7603E-17  0.1000E-09  0.0000E+00  0.4633E+16
   -0.893736    1.46703  0.3368E-10  0.1219E-13  0.7603E-17  0.1000E-09  0.0000E+00  0.4404E+16
   -0.962488    1.57667  0.3364E-10  0.1219E-13  0.7603E-17  0.1000E-09  0.0000E+00  0.4178E+16
   -1.031240    1.68571  0.3358E-10  0.1219E-13  0.7603E-17  0.1000E-09  0.0000E+00  0.3955E+16
   -1.099992    1.79411  0.3350E-10  0.1219E-13  0.7603E-17  0.1000E-09  0.0000E+00  0.3734E+16
   -1.168744    1.90182  0.3339E-10  0.1219E-13  0.7603E-17  0.1000E-09  0.0000E+00  0.3517E+16
   -1.237496    2.00881  0.3327E-10  0.1219E-13  0.7603E-17  0.1000E-09  0.0000E+00  0.3302E+16
   -1.306248    2.11503  0.3315E-10  0.1219E-13  0.7603E-17  0.1000E-09  0.0000E+00  0.3092E+16
   -1.375001    2.22044  0.3304E-10  0.1219E-13  0.7603E-17  0.1000E-09  0.0000E+00  0.2886E+16
   -1.443753    2.32507  0.3294E-10  0.1219E-13  0.7603E-17  0.1000E-09  0.0000E+00  0.2685E+16
   -1.512505    2.42887  0.3286E-10  0.1219E-13  0.7603E-17  0.1000E-09  0.0000E+00  0.2488E+16
   -1.581258    2.53182  0.3281E-10  0.1219E-13  0.7603E-17  0.1000E-09  0.0000E+00  0.2294E+16
   -1.650010    2.63386  0.3277E-10  0.1219E-13  0.7603E-17  0.1000E-09  0.0000E+00  0.2105E+16
   -1.718762    2.73495  0.3275E-10  0.1219E-13  0.7603E-17  0.1000E-09  0.0000E+00  0.1921E+16
   -1.787514    2.83508  0.3273E-10  0.1219E-13  0.7603E-17  0.1000E-09  0.0000E+00  0.1750E+16
   -1.856265    2.93476  0.3271E-10  0.1219E-13  0.7603E-17  0.1000E-09  0.0000E+00  0.1582E+16
   -1.925017    3.03398  0.3270E-10  0.1219E-13  0.7603E-17  0.1000E-09  0.0000E+00  0.1417E+16
   -1.993768    3.13272  0.3268E-10  0.1219E-13  0.7603E-17  0.1000E-09  0.0000E+00  0.1252E+16
   -2.062518    3.23082  0.3266E-10  0.1219E-13  0.7603E-17  0.1000E-09  0.0000E+00  0.1092E+16
   -2.131269    3.32835  0.3264E-10  0.1219E-13  0.7603E-17  0.1000E-09  0.0000E+00  0.9347E+15
   -2.200019    3.42531  0.3262E-10  0.3927E-13  0.2136E-16  0.1000E-09  0.0000E+00  0.7804E+15
   -2.268769    3.52167  0.3261E-10  0.2107E-12  0.1091E-15  0.1000E-09  0.0000E+00  0.6311E+15
   -2.337518    3.61773  0.3261E-10  0.1147E-11  0.5718E-15  0.1000E-09  0.0000E+00  0.4844E+15
   -2.406266    3.71370  0.3260E-10  0.6183E-11  0.2972E-14  0.1000E-09  0.0000E+00  0.3393E+15
   -2.475015    3.80983  0.3260E-10  0.3320E-10  0.1544E-13  0.3851E-09  0.0000E+00  0.1943E+15
   -2.543762    3.90635  0.3260E-10  0.1775E-09  0.8052E-13  0.7093E-08  0.0000E+00  0.4868E+14
   -2.612509    3.99981  0.3260E-10  0.8784E-09  0.4085E-12  0.6840E-06  0.0000E+00 -0.6070E+13
   -2.681256    4.01726  0.3260E-10  0.1214E-08  0.1128E-11  0.4066E-06  0.0000E+00 -0.2229E+14
   -2.750002    4.04799  0.3260E-10  0.0000E+00  0.0000E+00  0.0000E+00  0.0000E+00  0.0000E+00
