 1 - depth, m
 2 - temperature, C
 3 - salinity, kg/kg
 4 - turbulent kinetic energy, m**2/s**2
 5 - dissipation rate, m**2/s**3
 6 - kinematic heat conductance, m**2/s
 7 - modulus of horizontal velocity, m/s
 8 - Richardson number, n/d
   -0.000000   -0.00000  0.4340E-17  0.1219E-13  0.7603E-17  0.1000E-09  0.0000E+00  0.4418E+16
   -0.068746    0.06687  0.0000E+00  0.1219E-13  0.7603E-17  0.1000E-09  0.0000E+00  0.4554E+16
   -0.137494    0.13711  0.2898E-12  0.1219E-13  0.7603E-17  0.1000E-09  0.0000E+00  0.4679E+16
   -0.206241    0.21071  0.2218E-11  0.1219E-13  0.7603E-17  0.1000E-09  0.0000E+00  0.4794E+16
   -0.274989    0.28775  0.5252E-11  0.1219E-13  0.7603E-17  0.1000E-09  0.0000E+00  0.4899E+16
   -0.343738    0.36828  0.8145E-11  0.1219E-13  0.7603E-17  0.1000E-09  0.0000E+00  0.4990E+16
   -0.412488    0.45231  0.1006E-10  0.1219E-13  0.7603E-17  0.1000E-09  0.0000E+00  0.5063E+16
   -0.481237    0.53978  0.1087E-10  0.1219E-13  0.7603E-17  0.1000E-09  0.0000E+00  0.5113E+16
   -0.549988    0.63059  0.1086E-10  0.1219E-13  0.7603E-17  0.1000E-09  0.0000E+00  0.5140E+16
   -0.618738    0.72455  0.1043E-10  0.1219E-13  0.7603E-17  0.1000E-09  0.0000E+00  0.5140E+16
   -0.687490    0.82147  0.9907E-11  0.1219E-13  0.7603E-17  0.1000E-09  0.0000E+00  0.5109E+16
   -0.756241    0.92102  0.9454E-11  0.1219E-13  0.7603E-17  0.1000E-09  0.0000E+00  0.5051E+16
   -0.824993    1.02288  0.9128E-11  0.1219E-13  0.7603E-17  0.1000E-09  0.0000E+00  0.4970E+16
   -0.893745    1.12684  0.8920E-11  0.1219E-13  0.7603E-17  0.1000E-09  0.0000E+00  0.4868E+16
   -0.962497    1.23266  0.8799E-11  0.1219E-13  0.7603E-17  0.1000E-09  0.0000E+00  0.4749E+16
   -1.031249    1.34016  0.8734E-11  0.1219E-13  0.7603E-17  0.1000E-09  0.0000E+00  0.4616E+16
   -1.100002    1.44920  0.8700E-11  0.1219E-13  0.7603E-17  0.1000E-09  0.0000E+00  0.4470E+16
   -1.168755    1.55967  0.8681E-11  0.1219E-13  0.7603E-17  0.1000E-09  0.0000E+00  0.4315E+16
   -1.237508    1.67151  0.8668E-11  0.1219E-13  0.7603E-17  0.1000E-09  0.0000E+00  0.4152E+16
   -1.306260    1.78470  0.8656E-11  0.1219E-13  0.7603E-17  0.1000E-09  0.0000E+00  0.3983E+16
   -1.375013    1.89925  0.8642E-11  0.1219E-13  0.7603E-17  0.1000E-09  0.0000E+00  0.3810E+16
   -1.443766    2.01530  0.8625E-11  0.1219E-13  0.7603E-17  0.1000E-09  0.0000E+00  0.3633E+16
   -1.512519    2.13293  0.8605E-11  0.1219E-13  0.7603E-17  0.1000E-09  0.0000E+00  0.3451E+16
   -1.581272    2.25228  0.8583E-11  0.1219E-13  0.7603E-17  0.1000E-09  0.0000E+00  0.3263E+16
   -1.650025    2.37346  0.8559E-11  0.1219E-13  0.7603E-17  0.1000E-09  0.0000E+00  0.3069E+16
   -1.718778    2.49665  0.8536E-11  0.1219E-13  0.7603E-17  0.1000E-09  0.0000E+00  0.2863E+16
   -1.787530    2.62185  0.8514E-11  0.1219E-13  0.7603E-17  0.1000E-09  0.0000E+00  0.2562E+16
   -1.856282    2.74478  0.8495E-11  0.1219E-13  0.7603E-17  0.1000E-09  0.0000E+00  0.2262E+16
   -1.925034    2.86470  0.8479E-11  0.1219E-13  0.7603E-17  0.1000E-09  0.0000E+00  0.1963E+16
   -1.993786    2.98053  0.8466E-11  0.1219E-13  0.7603E-17  0.1000E-09  0.0000E+00  0.1689E+16
   -2.062537    3.09238  0.8454E-11  0.1219E-13  0.7603E-17  0.1000E-09  0.0000E+00  0.1495E+16
   -2.131288    3.20480  0.8445E-11  0.1914E-13  0.9955E-17  0.1000E-09  0.0000E+00  0.1305E+16
   -2.200039    3.31840  0.8438E-11  0.9212E-13  0.4445E-16  0.1000E-09  0.0000E+00  0.1110E+16
   -2.268789    3.43341  0.8432E-11  0.4695E-12  0.2170E-15  0.1000E-09  0.0000E+00  0.9066E+15
   -2.337539    3.54944  0.8428E-11  0.2388E-11  0.1060E-14  0.1000E-09  0.0000E+00  0.6970E+15
   -2.406289    3.66630  0.8425E-11  0.1201E-10  0.5129E-14  0.1000E-09  0.0000E+00  0.4831E+15
   -2.475037    3.78386  0.8423E-11  0.6021E-10  0.2478E-13  0.4622E-09  0.0000E+00  0.2653E+15
   -2.543786    3.90150  0.8421E-11  0.3001E-09  0.1196E-12  0.1042E-07  0.0000E+00  0.5158E+14
   -2.612533    4.01111  0.8421E-11  0.1301E-08  0.5271E-12  0.1368E-05  0.0000E+00 -0.4940E+13
   -2.681280    4.02161  0.8421E-11  0.1218E-08  0.1024E-11  0.3986E-06  0.0000E+00 -0.1676E+14
   -2.750027    4.04451  0.8421E-11  0.0000E+00  0.0000E+00  0.0000E+00  0.0000E+00  0.0000E+00
