 1 - depth, m
 2 - temperature, C
 3 - salinity, kg/kg
 4 - turbulent kinetic energy, m**2/s**2
 5 - dissipation rate, m**2/s**3
 6 - kinematic heat conductance, m**2/s
 7 - modulus of horizontal velocity, m/s
 8 - Richardson number, n/d
   -0.000000   -0.00000  0.1562E-11  0.1219E-13  0.7603E-17  0.1000E-09  0.0000E+00  0.5937E+16
   -0.068746    0.09015  0.8631E-12  0.1219E-13  0.7603E-17  0.1000E-09  0.0000E+00  0.5711E+16
   -0.137492    0.17902  0.6465E-12  0.1219E-13  0.7603E-17  0.1000E-09  0.0000E+00  0.5527E+16
   -0.206239    0.26718  0.5915E-12  0.1219E-13  0.7603E-17  0.1000E-09  0.0000E+00  0.5379E+16
   -0.274986    0.35517  0.5793E-12  0.1219E-13  0.7603E-17  0.1000E-09  0.0000E+00  0.5265E+16
   -0.343735    0.44355  0.5769E-12  0.1219E-13  0.7603E-17  0.1000E-09  0.0000E+00  0.5180E+16
   -0.412483    0.53284  0.5765E-12  0.1219E-13  0.7603E-17  0.1000E-09  0.0000E+00  0.5119E+16
   -0.481232    0.62355  0.5764E-12  0.1219E-13  0.7603E-17  0.1000E-09  0.0000E+00  0.5080E+16
   -0.549982    0.71619  0.5764E-12  0.1219E-13  0.7603E-17  0.1000E-09  0.0000E+00  0.5057E+16
   -0.618732    0.81126  0.5764E-12  0.1219E-13  0.7603E-17  0.1000E-09  0.0000E+00  0.5048E+16
   -0.687482    0.90924  0.5764E-12  0.1219E-13  0.7603E-17  0.1000E-09  0.0000E+00  0.5060E+16
   -0.756233    1.01087  0.5764E-12  0.1219E-13  0.7603E-17  0.1000E-09  0.0000E+00  0.5082E+16
   -0.824984    1.11674  0.5764E-12  0.1219E-13  0.7603E-17  0.1000E-09  0.0000E+00  0.5099E+16
   -0.893735    1.22726  0.5764E-12  0.1219E-13  0.7603E-17  0.1000E-09  0.0000E+00  0.5107E+16
   -0.962486    1.34279  0.5763E-12  0.1219E-13  0.7603E-17  0.1000E-09  0.0000E+00  0.5100E+16
   -1.031238    1.46368  0.5762E-12  0.5753E-13  0.9446E-17  0.1000E-09  0.0000E+00  0.5071E+16
   -1.099990    1.59019  0.5758E-12  0.1627E-12  0.2051E-16  0.1000E-09  0.0000E+00  0.5016E+16
   -1.168742    1.72258  0.5749E-12  0.3977E-12  0.4687E-16  0.1000E-09  0.0000E+00  0.4930E+16
   -1.237494    1.86101  0.5732E-12  0.9296E-12  0.1059E-15  0.1000E-09  0.0000E+00  0.4806E+16
   -1.306246    2.00562  0.5705E-12  0.2132E-11  0.2364E-15  0.1000E-09  0.0000E+00  0.4641E+16
   -1.374998    2.15645  0.5674E-12  0.4833E-11  0.5221E-15  0.1000E-09  0.0000E+00  0.4439E+16
   -1.443750    2.31381  0.5647E-12  0.1085E-10  0.1142E-14  0.1000E-09  0.0000E+00  0.4188E+16
   -1.512503    2.47769  0.5629E-12  0.2410E-10  0.2475E-14  0.1000E-09  0.0000E+00  0.3882E+16
   -1.581255    2.64787  0.5620E-12  0.5308E-10  0.5317E-14  0.1000E-09  0.0000E+00  0.3520E+16
   -1.650007    2.82402  0.5614E-12  0.1158E-09  0.1132E-13  0.1000E-09  0.0000E+00  0.3102E+16
   -1.718759    3.00571  0.5610E-12  0.2506E-09  0.2391E-13  0.1000E-09  0.0000E+00  0.2633E+16
   -1.787510    3.19252  0.5608E-12  0.5500E-09  0.5121E-13  0.1217E-09  0.0000E+00  0.2143E+16
   -1.856262    3.38670  0.5605E-12  0.1218E-08  0.1107E-12  0.3552E-09  0.0000E+00  0.1587E+16
   -1.925013    3.58818  0.5601E-12  0.2696E-08  0.2393E-12  0.1265E-08  0.0000E+00  0.9633E+15
   -1.993764    3.79628  0.5591E-12  0.5926E-08  0.5145E-12  0.9293E-08  0.0000E+00  0.2820E+15
   -2.062515    3.99984  0.5587E-12  0.6816E-08  0.5956E-12  0.3026E-04  0.0000E+00 -0.2212E+12
   -2.131265    4.00085  0.5587E-12  0.7203E-08  0.6402E-12  0.3143E-04  0.0000E+00 -0.2288E+12
   -2.200015    4.00182  0.5587E-12  0.7520E-08  0.6886E-12  0.3169E-04  0.0000E+00 -0.2424E+12
   -2.268764    4.00279  0.5587E-12  0.7771E-08  0.7439E-12  0.3103E-04  0.0000E+00 -0.2638E+12
   -2.337513    4.00378  0.5587E-12  0.7961E-08  0.8126E-12  0.2931E-04  0.0000E+00 -0.2975E+12
   -2.406262    4.00484  0.5587E-12  0.8083E-08  0.9045E-12  0.2638E-04  0.0000E+00 -0.3529E+12
   -2.475010    4.00602  0.5587E-12  0.8114E-08  0.1042E-11  0.2204E-04  0.0000E+00 -0.4541E+12
   -2.543758    4.00744  0.5587E-12  0.8000E-08  0.1283E-11  0.1612E-04  0.0000E+00 -0.6789E+12
   -2.612504    4.00940  0.5587E-12  0.7572E-08  0.1862E-11  0.8625E-05  0.0000E+00 -0.1454E+13
   -2.681251    4.01312  0.5587E-12  0.5658E-08  0.5223E-11  0.1275E-05  0.0000E+00 -0.1526E+14
   -2.749996    4.03796  0.5587E-12  0.0000E+00  0.0000E+00  0.0000E+00  0.0000E+00  0.0000E+00
