 1 - depth, m
 2 - temperature, C
 3 - salinity, kg/kg
 4 - turbulent kinetic energy, m**2/s**2
 5 - dissipation rate, m**2/s**3
 6 - kinematic heat conductance, m**2/s
 7 - modulus of horizontal velocity, m/s
 8 - Richardson number, n/d
   -0.000000   -0.00000  0.2136E-11  0.1219E-13  0.7603E-17  0.1000E-09  0.0000E+00  0.8424E+16
   -0.068746    0.12858  0.1338E-11  0.1219E-13  0.7603E-17  0.1000E-09  0.0000E+00  0.8078E+16
   -0.137492    0.25634  0.9597E-12  0.1219E-13  0.7603E-17  0.1000E-09  0.0000E+00  0.7754E+16
   -0.206239    0.38350  0.8174E-12  0.1219E-13  0.7603E-17  0.1000E-09  0.0000E+00  0.7448E+16
   -0.274987    0.51030  0.7718E-12  0.1219E-13  0.7603E-17  0.1000E-09  0.0000E+00  0.7158E+16
   -0.343735    0.63696  0.7590E-12  0.1219E-13  0.7603E-17  0.1000E-09  0.0000E+00  0.6882E+16
   -0.412483    0.76369  0.7558E-12  0.1219E-13  0.7603E-17  0.1000E-09  0.0000E+00  0.6617E+16
   -0.481232    0.89071  0.7551E-12  0.1219E-13  0.7603E-17  0.1000E-09  0.0000E+00  0.6361E+16
   -0.549982    1.01821  0.7550E-12  0.1219E-13  0.7603E-17  0.1000E-09  0.0000E+00  0.6111E+16
   -0.618732    1.14638  0.7550E-12  0.1219E-13  0.7603E-17  0.1000E-09  0.0000E+00  0.5866E+16
   -0.687482    1.27539  0.7549E-12  0.1219E-13  0.7603E-17  0.1000E-09  0.0000E+00  0.5633E+16
   -0.756233    1.40561  0.7549E-12  0.1219E-13  0.7603E-17  0.1000E-09  0.0000E+00  0.5403E+16
   -0.824984    1.53732  0.7549E-12  0.1219E-13  0.7603E-17  0.1000E-09  0.0000E+00  0.5169E+16
   -0.893735    1.67062  0.7548E-12  0.5983E-13  0.9090E-17  0.1000E-09  0.0000E+00  0.4929E+16
   -0.962487    1.80560  0.7545E-12  0.1651E-12  0.1879E-16  0.1000E-09  0.0000E+00  0.4680E+16
   -1.031239    1.94232  0.7539E-12  0.3894E-12  0.4113E-16  0.1000E-09  0.0000E+00  0.4422E+16
   -1.099990    2.08081  0.7528E-12  0.8742E-12  0.8915E-16  0.1000E-09  0.0000E+00  0.4153E+16
   -1.168742    2.22108  0.7509E-12  0.1923E-11  0.1909E-15  0.1000E-09  0.0000E+00  0.3873E+16
   -1.237495    2.36310  0.7482E-12  0.4181E-11  0.4045E-15  0.1000E-09  0.0000E+00  0.3580E+16
   -1.306247    2.50681  0.7450E-12  0.9000E-11  0.8493E-15  0.1000E-09  0.0000E+00  0.3275E+16
   -1.374999    2.65214  0.7418E-12  0.1919E-10  0.1768E-14  0.1000E-09  0.0000E+00  0.2961E+16
   -1.443751    2.79908  0.7391E-12  0.4058E-10  0.3647E-14  0.1000E-09  0.0000E+00  0.2635E+16
   -1.512503    2.94755  0.7371E-12  0.8505E-10  0.7463E-14  0.1000E-09  0.0000E+00  0.2297E+16
   -1.581256    3.09735  0.7359E-12  0.1768E-09  0.1515E-13  0.1000E-09  0.0000E+00  0.1949E+16
   -1.650008    3.24831  0.7350E-12  0.3644E-09  0.3050E-13  0.1000E-09  0.0000E+00  0.1592E+16
   -1.718760    3.40019  0.7344E-12  0.7449E-09  0.6092E-13  0.2525E-09  0.0000E+00  0.1228E+16
   -1.787511    3.55269  0.7336E-12  0.1544E-08  0.1234E-12  0.7214E-09  0.0000E+00  0.8701E+15
   -1.856263    3.70780  0.7327E-12  0.3230E-08  0.2522E-12  0.2605E-08  0.0000E+00  0.4924E+15
   -1.925014    3.86423  0.7321E-12  0.6680E-08  0.5107E-12  0.2272E-07  0.0000E+00  0.1142E+15
   -1.993765    4.00474  0.7320E-12  0.7436E-08  0.5715E-12  0.3935E-04  0.0000E+00 -0.1746E+12
   -2.062516    4.00534  0.7320E-12  0.7761E-08  0.6037E-12  0.3998E-04  0.0000E+00 -0.1778E+12
   -2.131266    4.00592  0.7320E-12  0.8026E-08  0.6377E-12  0.3979E-04  0.0000E+00 -0.1842E+12
   -2.200016    4.00651  0.7320E-12  0.8233E-08  0.6751E-12  0.3882E-04  0.0000E+00 -0.1945E+12
   -2.268766    4.00712  0.7320E-12  0.8385E-08  0.7185E-12  0.3702E-04  0.0000E+00 -0.2104E+12
   -2.337515    4.00775  0.7320E-12  0.8481E-08  0.7735E-12  0.3420E-04  0.0000E+00 -0.2352E+12
   -2.406263    4.00844  0.7320E-12  0.8512E-08  0.8489E-12  0.3020E-04  0.0000E+00 -0.2760E+12
   -2.475011    4.00923  0.7320E-12  0.8454E-08  0.9642E-12  0.2479E-04  0.0000E+00 -0.3503E+12
   -2.543759    4.01018  0.7320E-12  0.8254E-08  0.1171E-11  0.1781E-04  0.0000E+00 -0.5140E+12
   -2.612506    4.01152  0.7320E-12  0.7732E-08  0.1677E-11  0.9302E-05  0.0000E+00 -0.1071E+13
   -2.681252    4.01410  0.7320E-12  0.5522E-08  0.4807E-11  0.1180E-05  0.0000E+00 -0.1142E+14
   -2.749998    4.03355  0.7320E-12  0.0000E+00  0.0000E+00  0.0000E+00  0.0000E+00  0.0000E+00
