 1 - depth, m
 2 - temperature, C
 3 - salinity, kg/kg
 4 - turbulent kinetic energy, m**2/s**2
 5 - dissipation rate, m**2/s**3
 6 - kinematic heat conductance, m**2/s
 7 - modulus of horizontal velocity, m/s
 8 - Richardson number, n/d
   -0.000000   -0.00000  0.2629E-11  0.1219E-13  0.7603E-17  0.1000E-09  0.0000E+00  0.5145E+16
   -0.068746    0.07799  0.1405E-11  0.1219E-13  0.7603E-17  0.1000E-09  0.0000E+00  0.4951E+16
   -0.137492    0.15464  0.1078E-11  0.1219E-13  0.7603E-17  0.1000E-09  0.0000E+00  0.4795E+16
   -0.206239    0.23048  0.1003E-11  0.1219E-13  0.7603E-17  0.1000E-09  0.0000E+00  0.4677E+16
   -0.274987    0.30605  0.9885E-12  0.1219E-13  0.7603E-17  0.1000E-09  0.0000E+00  0.4593E+16
   -0.343735    0.38191  0.9858E-12  0.1219E-13  0.7603E-17  0.1000E-09  0.0000E+00  0.4542E+16
   -0.412483    0.45862  0.9854E-12  0.1219E-13  0.7603E-17  0.1000E-09  0.0000E+00  0.4520E+16
   -0.481232    0.53677  0.9853E-12  0.1219E-13  0.7603E-17  0.1000E-09  0.0000E+00  0.4525E+16
   -0.549982    0.61692  0.9853E-12  0.1219E-13  0.7603E-17  0.1000E-09  0.0000E+00  0.4554E+16
   -0.618732    0.69966  0.9853E-12  0.1219E-13  0.7603E-17  0.1000E-09  0.0000E+00  0.4601E+16
   -0.687482    0.78556  0.9853E-12  0.1219E-13  0.7603E-17  0.1000E-09  0.0000E+00  0.4678E+16
   -0.756233    0.87546  0.9853E-12  0.1219E-13  0.7603E-17  0.1000E-09  0.0000E+00  0.4771E+16
   -0.824984    0.97006  0.9853E-12  0.1219E-13  0.7603E-17  0.1000E-09  0.0000E+00  0.4867E+16
   -0.893735    1.06989  0.9853E-12  0.1219E-13  0.7603E-17  0.1000E-09  0.0000E+00  0.4958E+16
   -0.962487    1.17542  0.9853E-12  0.1219E-13  0.7603E-17  0.1000E-09  0.0000E+00  0.5039E+16
   -1.031238    1.28709  0.9851E-12  0.1219E-13  0.7603E-17  0.1000E-09  0.0000E+00  0.5102E+16
   -1.099990    1.40529  0.9844E-12  0.1219E-13  0.7603E-17  0.1000E-09  0.0000E+00  0.5139E+16
   -1.168742    1.53038  0.9828E-12  0.5184E-13  0.1048E-16  0.1000E-09  0.0000E+00  0.5145E+16
   -1.237494    1.66261  0.9794E-12  0.1578E-12  0.2590E-16  0.1000E-09  0.0000E+00  0.5110E+16
   -1.306246    1.80219  0.9741E-12  0.4273E-12  0.6640E-16  0.1000E-09  0.0000E+00  0.5030E+16
   -1.374999    1.94925  0.9680E-12  0.1116E-11  0.1678E-15  0.1000E-09  0.0000E+00  0.4909E+16
   -1.443751    2.10421  0.9633E-12  0.2866E-11  0.4180E-15  0.1000E-09  0.0000E+00  0.4730E+16
   -1.512503    2.26715  0.9606E-12  0.7258E-11  0.1028E-14  0.1000E-09  0.0000E+00  0.4485E+16
   -1.581255    2.43787  0.9590E-12  0.1815E-10  0.2499E-14  0.1000E-09  0.0000E+00  0.4170E+16
   -1.650007    2.61610  0.9579E-12  0.4486E-10  0.6002E-14  0.1000E-09  0.0000E+00  0.3785E+16
   -1.718759    2.80142  0.9573E-12  0.1095E-09  0.1425E-13  0.1000E-09  0.0000E+00  0.3332E+16
   -1.787511    2.99338  0.9569E-12  0.2713E-09  0.3431E-13  0.1000E-09  0.0000E+00  0.2831E+16
   -1.856262    3.19288  0.9567E-12  0.6754E-09  0.8311E-13  0.1869E-09  0.0000E+00  0.2263E+16
   -1.925014    3.39998  0.9563E-12  0.1675E-08  0.2006E-12  0.6293E-09  0.0000E+00  0.1622E+16
   -1.993764    3.61450  0.9553E-12  0.4128E-08  0.4815E-12  0.2712E-08  0.0000E+00  0.9037E+15
   -2.062515    3.83343  0.9535E-12  0.9725E-08  0.1108E-11  0.3208E-07  0.0000E+00  0.1757E+15
   -2.131265    4.01768  0.9532E-12  0.1110E-07  0.1272E-11  0.4028E-04  0.0000E+00 -0.3918E+12
   -2.200015    4.01846  0.9532E-12  0.1165E-07  0.1357E-11  0.4050E-04  0.0000E+00 -0.4008E+12
   -2.268765    4.01925  0.9532E-12  0.1206E-07  0.1449E-11  0.3961E-04  0.0000E+00 -0.4217E+12
   -2.337514    4.02006  0.9532E-12  0.1236E-07  0.1560E-11  0.3745E-04  0.0000E+00 -0.4594E+12
   -2.406263    4.02092  0.9532E-12  0.1253E-07  0.1707E-11  0.3386E-04  0.0000E+00 -0.5250E+12
   -2.475011    4.02187  0.9532E-12  0.1255E-07  0.1924E-11  0.2854E-04  0.0000E+00 -0.6471E+12
   -2.543758    4.02302  0.9532E-12  0.1235E-07  0.2304E-11  0.2121E-04  0.0000E+00 -0.9148E+12
   -2.612505    4.02457  0.9532E-12  0.1168E-07  0.3211E-11  0.1171E-04  0.0000E+00 -0.1796E+13
   -2.681252    4.02746  0.9532E-12  0.8632E-08  0.8774E-11  0.1658E-05  0.0000E+00 -0.1688E+14
   -2.749997    4.04836  0.9532E-12  0.0000E+00  0.0000E+00  0.0000E+00  0.0000E+00  0.0000E+00
