 1 - depth, m
 2 - temperature, C
 3 - salinity, kg/kg
 4 - turbulent kinetic energy, m**2/s**2
 5 - dissipation rate, m**2/s**3
 6 - kinematic heat conductance, m**2/s
 7 - modulus of horizontal velocity, m/s
 8 - Richardson number, n/d
   -0.000000   -0.00000  0.5275E-18  0.1218E-13  0.7603E-17  0.1000E-09  0.0000E+00  0.4125E+16
   -0.068747    0.06241  0.2604E-18  0.1218E-13  0.7603E-17  0.1000E-09  0.0000E+00  0.4359E+16
   -0.137494    0.12953  0.0000E+00  0.1218E-13  0.7603E-17  0.1000E-09  0.0000E+00  0.4552E+16
   -0.206242    0.20097  0.2606E-12  0.1218E-13  0.7603E-17  0.1000E-09  0.0000E+00  0.4709E+16
   -0.274991    0.27641  0.8930E-12  0.1218E-13  0.7603E-17  0.1000E-09  0.0000E+00  0.4835E+16
   -0.343740    0.35562  0.1653E-11  0.1218E-13  0.7603E-17  0.1000E-09  0.0000E+00  0.4936E+16
   -0.412490    0.43841  0.2278E-11  0.1218E-13  0.7603E-17  0.1000E-09  0.0000E+00  0.5012E+16
   -0.481240    0.52463  0.2641E-11  0.1218E-13  0.7603E-17  0.1000E-09  0.0000E+00  0.5065E+16
   -0.549991    0.61413  0.2758E-11  0.1218E-13  0.7603E-17  0.1000E-09  0.0000E+00  0.5096E+16
   -0.618742    0.70679  0.2713E-11  0.1218E-13  0.7603E-17  0.1000E-09  0.0000E+00  0.5105E+16
   -0.687493    0.80247  0.2597E-11  0.1218E-13  0.7603E-17  0.1000E-09  0.0000E+00  0.5086E+16
   -0.756245    0.90091  0.2473E-11  0.1218E-13  0.7603E-17  0.1000E-09  0.0000E+00  0.5043E+16
   -0.824997    1.00189  0.2372E-11  0.1218E-13  0.7603E-17  0.1000E-09  0.0000E+00  0.4979E+16
   -0.893749    1.10523  0.2302E-11  0.1218E-13  0.7603E-17  0.1000E-09  0.0000E+00  0.4896E+16
   -0.962502    1.21079  0.2258E-11  0.1218E-13  0.7603E-17  0.1000E-09  0.0000E+00  0.4795E+16
   -1.031255    1.31841  0.2233E-11  0.1218E-13  0.7603E-17  0.1000E-09  0.0000E+00  0.4678E+16
   -1.100008    1.42798  0.2220E-11  0.1218E-13  0.7603E-17  0.1000E-09  0.0000E+00  0.4547E+16
   -1.168761    1.53938  0.2213E-11  0.1218E-13  0.7603E-17  0.1000E-09  0.0000E+00  0.4404E+16
   -1.237514    1.65256  0.2208E-11  0.1218E-13  0.7603E-17  0.1000E-09  0.0000E+00  0.4250E+16
   -1.306267    1.76747  0.2205E-11  0.1218E-13  0.7603E-17  0.1000E-09  0.0000E+00  0.4087E+16
   -1.375021    1.88411  0.2202E-11  0.1218E-13  0.7603E-17  0.1000E-09  0.0000E+00  0.3917E+16
   -1.443774    2.00256  0.2198E-11  0.1218E-13  0.7603E-17  0.1000E-09  0.0000E+00  0.3741E+16
   -1.512527    2.12294  0.2194E-11  0.1218E-13  0.7603E-17  0.1000E-09  0.0000E+00  0.3558E+16
   -1.581281    2.24541  0.2188E-11  0.1218E-13  0.7603E-17  0.1000E-09  0.0000E+00  0.3370E+16
   -1.650034    2.37019  0.2183E-11  0.1218E-13  0.7603E-17  0.1000E-09  0.0000E+00  0.3178E+16
   -1.718787    2.49767  0.2177E-11  0.1218E-13  0.7603E-17  0.1000E-09  0.0000E+00  0.2975E+16
   -1.787539    2.62810  0.2171E-11  0.1218E-13  0.7603E-17  0.1000E-09  0.0000E+00  0.2646E+16
   -1.856292    2.75593  0.2166E-11  0.1218E-13  0.7603E-17  0.1000E-09  0.0000E+00  0.2318E+16
   -1.925044    2.88029  0.2161E-11  0.1218E-13  0.7603E-17  0.1000E-09  0.0000E+00  0.1991E+16
   -1.993797    2.99979  0.2157E-11  0.1218E-13  0.7603E-17  0.1000E-09  0.0000E+00  0.1693E+16
   -2.062548    3.11443  0.2154E-11  0.1506E-13  0.7781E-17  0.1000E-09  0.0000E+00  0.1492E+16
   -2.131300    3.22991  0.2151E-11  0.6709E-13  0.2698E-16  0.1000E-09  0.0000E+00  0.1294E+16
   -2.200051    3.34694  0.2149E-11  0.3003E-12  0.1147E-15  0.1000E-09  0.0000E+00  0.1090E+16
   -2.268801    3.46578  0.2147E-11  0.1324E-11  0.4870E-15  0.1000E-09  0.0000E+00  0.8724E+15
   -2.337552    3.58583  0.2145E-11  0.5842E-11  0.2072E-14  0.1000E-09  0.0000E+00  0.6478E+15
   -2.406301    3.70681  0.2144E-11  0.2564E-10  0.8777E-14  0.1055E-09  0.0000E+00  0.4183E+15
   -2.475051    3.82850  0.2143E-11  0.1126E-09  0.3728E-13  0.9998E-09  0.0000E+00  0.1849E+15
   -2.543799    3.94969  0.2143E-11  0.4829E-09  0.1559E-12  0.1084E-06  0.0000E+00  0.3065E+13
   -2.612547    4.01729  0.2143E-11  0.1537E-08  0.5909E-12  0.1785E-05  0.0000E+00 -0.4529E+13
   -2.681295    4.02554  0.2143E-11  0.1302E-08  0.1067E-11  0.4129E-06  0.0000E+00 -0.1524E+14
   -2.750041    4.04535  0.2143E-11  0.0000E+00  0.0000E+00  0.0000E+00  0.0000E+00  0.0000E+00
