 1 - depth, m
 2 - temperature, C
 3 - salinity, kg/kg
 4 - turbulent kinetic energy, m**2/s**2
 5 - dissipation rate, m**2/s**3
 6 - kinematic heat conductance, m**2/s
 7 - modulus of horizontal velocity, m/s
 8 - Richardson number, n/d
   -0.000000   -0.00000  0.5621E-10  0.1219E-13  0.7603E-17  0.1000E-09  0.0000E+00  0.7225E+16
   -0.068746    0.11000  0.3329E-10  0.1219E-13  0.7603E-17  0.1000E-09  0.0000E+00  0.6948E+16
   -0.137492    0.21902  0.2405E-10  0.1219E-13  0.7603E-17  0.1000E-09  0.0000E+00  0.6696E+16
   -0.206239    0.32735  0.2096E-10  0.1219E-13  0.7603E-17  0.1000E-09  0.0000E+00  0.6465E+16
   -0.274987    0.43529  0.2008E-10  0.1219E-13  0.7603E-17  0.1000E-09  0.0000E+00  0.6252E+16
   -0.343735    0.54310  0.1987E-10  0.1219E-13  0.7603E-17  0.1000E-09  0.0000E+00  0.6056E+16
   -0.412483    0.65103  0.1982E-10  0.1219E-13  0.7603E-17  0.1000E-09  0.0000E+00  0.5872E+16
   -0.481232    0.75934  0.1981E-10  0.1219E-13  0.7603E-17  0.1000E-09  0.0000E+00  0.5700E+16
   -0.549982    0.86827  0.1981E-10  0.1219E-13  0.7603E-17  0.1000E-09  0.0000E+00  0.5535E+16
   -0.618732    0.97804  0.1980E-10  0.1219E-13  0.7603E-17  0.1000E-09  0.0000E+00  0.5377E+16
   -0.687482    1.08885  0.1980E-10  0.1219E-13  0.7603E-17  0.1000E-09  0.0000E+00  0.5233E+16
   -0.756233    1.20114  0.1980E-10  0.1219E-13  0.7603E-17  0.1000E-09  0.0000E+00  0.5094E+16
   -0.824984    1.31520  0.1980E-10  0.1219E-13  0.7603E-17  0.1000E-09  0.0000E+00  0.4952E+16
   -0.893735    1.43118  0.1980E-10  0.1219E-13  0.7603E-17  0.1000E-09  0.0000E+00  0.4804E+16
   -0.962486    1.54919  0.1980E-10  0.1219E-13  0.7603E-17  0.1000E-09  0.0000E+00  0.4647E+16
   -1.031238    1.66930  0.1979E-10  0.1219E-13  0.7603E-17  0.1000E-09  0.0000E+00  0.4481E+16
   -1.099990    1.79157  0.1977E-10  0.1219E-13  0.7603E-17  0.1000E-09  0.0000E+00  0.4302E+16
   -1.168742    1.91602  0.1973E-10  0.1219E-13  0.7603E-17  0.1000E-09  0.0000E+00  0.4111E+16
   -1.237494    2.04262  0.1967E-10  0.4135E-13  0.7754E-17  0.1000E-09  0.0000E+00  0.3905E+16
   -1.306246    2.17133  0.1959E-10  0.1196E-12  0.1654E-16  0.1000E-09  0.0000E+00  0.3685E+16
   -1.374999    2.30207  0.1950E-10  0.3026E-12  0.3883E-16  0.1000E-09  0.0000E+00  0.3454E+16
   -1.443751    2.43487  0.1942E-10  0.7311E-12  0.9050E-16  0.1000E-09  0.0000E+00  0.3208E+16
   -1.512503    2.56963  0.1936E-10  0.1732E-11  0.2082E-15  0.1000E-09  0.0000E+00  0.2947E+16
   -1.581255    2.70617  0.1932E-10  0.4048E-11  0.4735E-15  0.1000E-09  0.0000E+00  0.2671E+16
   -1.650007    2.84427  0.1930E-10  0.9356E-11  0.1065E-14  0.1000E-09  0.0000E+00  0.2382E+16
   -1.718759    2.98369  0.1929E-10  0.2139E-10  0.2371E-14  0.1000E-09  0.0000E+00  0.2083E+16
   -1.787511    3.12421  0.1928E-10  0.4958E-10  0.5349E-14  0.1000E-09  0.0000E+00  0.1794E+16
   -1.856262    3.26729  0.1927E-10  0.1157E-09  0.1216E-13  0.1000E-09  0.0000E+00  0.1490E+16
   -1.925013    3.41302  0.1925E-10  0.2695E-09  0.2758E-13  0.1199E-09  0.0000E+00  0.1171E+16
   -1.993764    3.56157  0.1922E-10  0.6253E-09  0.6239E-13  0.3826E-09  0.0000E+00  0.8295E+15
   -2.062515    3.71229  0.1919E-10  0.1413E-08  0.1375E-12  0.1494E-08  0.0000E+00  0.4680E+15
   -2.131265    3.86167  0.1918E-10  0.3133E-08  0.2977E-12  0.1254E-07  0.0000E+00  0.1204E+15
   -2.200015    3.99960  0.1917E-10  0.3976E-08  0.3808E-12  0.1684E-04  0.0000E+00 -0.2708E+12
   -2.268765    4.00085  0.1917E-10  0.4325E-08  0.4264E-12  0.1747E-04  0.0000E+00 -0.2848E+12
   -2.337514    4.00205  0.1917E-10  0.4599E-08  0.4784E-12  0.1721E-04  0.0000E+00 -0.3140E+12
   -2.406263    4.00327  0.1917E-10  0.4799E-08  0.5437E-12  0.1598E-04  0.0000E+00 -0.3673E+12
   -2.475011    4.00460  0.1917E-10  0.4916E-08  0.6371E-12  0.1367E-04  0.0000E+00 -0.4702E+12
   -2.543758    4.00617  0.1917E-10  0.4916E-08  0.7969E-12  0.1016E-04  0.0000E+00 -0.7081E+12
   -2.612505    4.00833  0.1917E-10  0.4685E-08  0.1177E-11  0.5466E-05  0.0000E+00 -0.1569E+13
   -2.681251    4.01249  0.1917E-10  0.3585E-08  0.3183E-11  0.9189E-06  0.0000E+00 -0.1573E+14
   -2.749997    4.03821  0.1917E-10  0.0000E+00  0.0000E+00  0.0000E+00  0.0000E+00  0.0000E+00
