 1 - depth, m
 2 - temperature, C
 3 - salinity, kg/kg
 4 - turbulent kinetic energy, m**2/s**2
 5 - dissipation rate, m**2/s**3
 6 - kinematic heat conductance, m**2/s
 7 - modulus of horizontal velocity, m/s
 8 - Richardson number, n/d
   -0.000000   -0.00000  0.2612E-14  0.1218E-13  0.7601E-17  0.1000E-09  0.0000E+00  0.5460E+16
   -0.068749    0.08320  0.3421E-17  0.1218E-13  0.7601E-17  0.1000E-09  0.0000E+00  0.3593E+16
   -0.137499    0.13887  0.4475E-13  0.1218E-13  0.7601E-17  0.1000E-09  0.0000E+00  0.3256E+16
   -0.206250    0.18988  0.1220E-12  0.1218E-13  0.7601E-17  0.1000E-09  0.0000E+00  0.3321E+16
   -0.275001    0.24265  0.2181E-11  0.1218E-13  0.7601E-17  0.1000E-09  0.0000E+00  0.3481E+16
   -0.343753    0.29885  0.8566E-11  0.1218E-13  0.7601E-17  0.1000E-09  0.0000E+00  0.3655E+16
   -0.412506    0.35888  0.1697E-10  0.1218E-13  0.7601E-17  0.1000E-09  0.0000E+00  0.3820E+16
   -0.481258    0.42279  0.2459E-10  0.1218E-13  0.7601E-17  0.1000E-09  0.0000E+00  0.3965E+16
   -0.550012    0.49046  0.2967E-10  0.1218E-13  0.7601E-17  0.1000E-09  0.0000E+00  0.4089E+16
   -0.618765    0.56173  0.3194E-10  0.1218E-13  0.7601E-17  0.1000E-09  0.0000E+00  0.4192E+16
   -0.687519    0.63649  0.3207E-10  0.1218E-13  0.7601E-17  0.1000E-09  0.0000E+00  0.4262E+16
   -0.756274    0.71435  0.3106E-10  0.1218E-13  0.7601E-17  0.1000E-09  0.0000E+00  0.4302E+16
   -0.825029    0.79498  0.2970E-10  0.1218E-13  0.7601E-17  0.1000E-09  0.0000E+00  0.4323E+16
   -0.893783    0.87823  0.2845E-10  0.1218E-13  0.7601E-17  0.1000E-09  0.0000E+00  0.4325E+16
   -0.962539    0.96394  0.2751E-10  0.1218E-13  0.7601E-17  0.1000E-09  0.0000E+00  0.4309E+16
   -1.031294    1.05196  0.2688E-10  0.1218E-13  0.7601E-17  0.1000E-09  0.0000E+00  0.4277E+16
   -1.100050    1.14216  0.2649E-10  0.1218E-13  0.7601E-17  0.1000E-09  0.0000E+00  0.4230E+16
   -1.168805    1.23441  0.2628E-10  0.1218E-13  0.7601E-17  0.1000E-09  0.0000E+00  0.4170E+16
   -1.237561    1.32863  0.2616E-10  0.1218E-13  0.7601E-17  0.1000E-09  0.0000E+00  0.4098E+16
   -1.306317    1.42475  0.2609E-10  0.1218E-13  0.7601E-17  0.1000E-09  0.0000E+00  0.4013E+16
   -1.375073    1.52267  0.2605E-10  0.1218E-13  0.7601E-17  0.1000E-09  0.0000E+00  0.3931E+16
   -1.443829    1.62269  0.2601E-10  0.1218E-13  0.7601E-17  0.1000E-09  0.0000E+00  0.3850E+16
   -1.512585    1.72510  0.2596E-10  0.1218E-13  0.7601E-17  0.1000E-09  0.0000E+00  0.3781E+16
   -1.581341    1.83060  0.2591E-10  0.1218E-13  0.7601E-17  0.1000E-09  0.0000E+00  0.3771E+16
   -1.650097    1.94141  0.2585E-10  0.1218E-13  0.7601E-17  0.1000E-09  0.0000E+00  0.3971E+16
   -1.718852    2.06521  0.2579E-10  0.1218E-13  0.7601E-17  0.1000E-09  0.0000E+00  0.4708E+16
   -1.787608    2.22409  0.2572E-10  0.1218E-13  0.7601E-17  0.1000E-09  0.0000E+00  0.3704E+16
   -1.856363    2.36055  0.2565E-10  0.1291E-13  0.8510E-17  0.1000E-09  0.0000E+00  0.3122E+16
   -1.925118    2.48528  0.2559E-10  0.2489E-13  0.1964E-16  0.1000E-09  0.0000E+00  0.2475E+16
   -1.993873    2.59169  0.2553E-10  0.1440E-12  0.1239E-15  0.1000E-09  0.0000E+00  0.1925E+16
   -2.062627    2.67995  0.2548E-10  0.1194E-11  0.1010E-14  0.1000E-09  0.0000E+00  0.2073E+16
   -2.131381    2.78320  0.2544E-10  0.1018E-10  0.8288E-14  0.1109E-09  0.0000E+00  0.2094E+16
   -2.200135    2.89806  0.2541E-10  0.8435E-10  0.6596E-13  0.2109E-09  0.0000E+00  0.2176E+16
   -2.268888    3.03355  0.2538E-10  0.6782E-09  0.5105E-12  0.1066E-08  0.0000E+00  0.1980E+16
   -2.337641    3.18031  0.2536E-10  0.4821E-08  0.3542E-11  0.1243E-07  0.0000E+00  0.1694E+16
   -2.406393    3.36448  0.2534E-10  0.1036E-07  0.7968E-11  0.3652E-05  0.0000E+00  0.1307E+16
   -2.475145    3.53037  0.2532E-10  0.1573E-07  0.1328E-10  0.6755E-05  0.0000E+00  0.9839E+15
   -2.543896    3.67816  0.2530E-10  0.2042E-07  0.2007E-10  0.7902E-05  0.0000E+00  0.7158E+15
   -2.612647    3.82092  0.2529E-10  0.2367E-07  0.3123E-10  0.6439E-05  0.0000E+00  0.3770E+15
   -2.681397    3.97592  0.2528E-10  0.2184E-07  0.8025E-10  0.1717E-05  0.0000E+00 -0.2175E+14
   -2.750146    4.09100  0.2528E-10  0.0000E+00  0.0000E+00  0.0000E+00  0.0000E+00  0.0000E+00
