 1 - depth, m
 2 - temperature, C
 3 - salinity, kg/kg
 4 - turbulent kinetic energy, m**2/s**2
 5 - dissipation rate, m**2/s**3
 6 - kinematic heat conductance, m**2/s
 7 - modulus of horizontal velocity, m/s
 8 - Richardson number, n/d
   -0.000000   -0.00000  0.3004E-11  0.7241E-06  0.9297E-08  0.4800E-05  0.7869E-02  0.1976E+02
   -0.068745    0.01564  0.2965E-11  0.5707E-06  0.3612E-08  0.6912E-05  0.5295E-02  0.7878E+00
   -0.137490    0.02402  0.2954E-11  0.4262E-06  0.1877E-08  0.6805E-05  0.3953E-02  0.9920E+00
   -0.206236    0.03081  0.2945E-11  0.3064E-06  0.1065E-08  0.5707E-05  0.3026E-02  0.2311E+01
   -0.274982    0.03710  0.2937E-11  0.2106E-06  0.6176E-09  0.4281E-05  0.2321E-02  0.6665E+01
   -0.343729    0.04322  0.2929E-11  0.1360E-06  0.3509E-09  0.2879E-05  0.1758E-02  0.2173E+02
   -0.412477    0.04950  0.2921E-11  0.8024E-07  0.1879E-09  0.1695E-05  0.1297E-02  0.7641E+02
   -0.481225    0.05621  0.2913E-11  0.4123E-07  0.9011E-10  0.8261E-06  0.9162E-03  0.2752E+03
   -0.549973    0.06350  0.2904E-11  0.1668E-07  0.3507E-10  0.2932E-06  0.6060E-03  0.9766E+03
   -0.618722    0.07142  0.2894E-11  0.4237E-08  0.8815E-11  0.5765E-07  0.3631E-03  0.3317E+04
   -0.687471    0.07976  0.2882E-11  0.5553E-09  0.1099E-11  0.6059E-08  0.1905E-03  0.1006E+05
   -0.756221    0.08755  0.2871E-11  0.1168E-09  0.1072E-12  0.1051E-08  0.9162E-04  0.2485E+05
   -0.824970    0.09360  0.2860E-11  0.2598E-09  0.5137E-13  0.3857E-08  0.4319E-04  0.3796E+05
   -0.893721    0.09759  0.2851E-11  0.4674E-09  0.8504E-13  0.1347E-05  0.2025E-04 -0.7790E+04
   -0.962471    0.09982  0.2846E-11  0.6488E-09  0.1293E-12  0.2056E-05  0.9464E-05 -0.1398E+06
   -1.031222    0.10094  0.2843E-11  0.6419E-09  0.1312E-12  0.1986E-05  0.4416E-05 -0.2119E+06
   -1.099972    0.10155  0.2840E-11  0.3779E-09  0.7095E-13  0.6752E-07  0.2058E-05  0.6901E+06
   -1.168723    0.10227  0.2837E-11  0.1195E-09  0.2272E-13  0.7051E-09  0.9526E-06  0.2067E+08
   -1.237474    0.10422  0.2834E-11  0.2985E-10  0.6046E-14  0.1492E-09  0.4387E-06  0.2836E+09
   -1.306225    0.10896  0.2832E-11  0.7122E-11  0.1544E-14  0.1005E-09  0.2014E-06  0.3125E+10
   -1.374976    0.11921  0.2830E-11  0.1634E-11  0.3820E-15  0.1000E-09  0.9221E-07  0.3189E+11
   -1.443727    0.14098  0.2828E-11  0.3659E-12  0.9450E-16  0.1000E-09  0.4208E-07  0.2799E+12
   -1.512479    0.18149  0.2825E-11  0.8518E-13  0.2641E-16  0.1000E-09  0.1914E-07  0.2168E+13
   -1.581230    0.24999  0.2821E-11  0.2582E-13  0.1111E-16  0.1000E-09  0.8639E-08  0.1460E+14
   -1.649980    0.35796  0.2817E-11  0.1406E-13  0.7996E-17  0.1000E-09  0.3730E-08  0.7241E+14
   -1.718731    0.51796  0.2813E-11  0.1225E-13  0.7606E-17  0.1000E-09  0.1191E-08  0.4454E+15
   -1.787482    0.73658  0.2811E-11  0.1810E-13  0.1185E-16  0.1000E-09  0.7777E-10  0.4600E+16
   -1.856232    0.89953  0.2810E-11  0.7702E-13  0.5004E-16  0.1000E-09  0.4690E-11  0.5638E+16
   -1.924982    1.01323  0.2810E-11  0.4626E-12  0.2933E-15  0.1000E-09  0.2591E-12  0.3302E+16
   -1.993732    1.08253  0.2810E-11  0.2872E-11  0.1756E-14  0.1000E-09  0.1555E-13  0.3112E+16
   -2.062482    1.14992  0.2810E-11  0.1705E-10  0.1007E-13  0.1000E-09  0.1202E-14  0.8207E+16
   -2.131231    1.33433  0.2809E-11  0.9905E-10  0.5656E-13  0.1000E-09  0.8712E-16  0.1347E+17
   -2.199980    1.66924  0.2808E-11  0.5644E-09  0.3122E-12  0.1317E-09  0.5885E-17  0.1711E+17
   -2.268728    2.18649  0.2806E-11  0.3191E-08  0.1713E-11  0.5912E-09  0.2744E-18  0.1632E+17
   -2.337476    2.90099  0.2802E-11  0.1787E-07  0.9348E-11  0.9211E-08  0.1052E-19  0.8937E+16
   -2.406224    3.80124  0.2794E-11  0.3913E-07  0.2231E-10  0.1942E-04  0.3359E-21  0.9429E+15
   -2.474971    4.13718  0.2791E-11  0.5342E-07  0.3285E-10  0.3606E-04  0.1611E-22 -0.1089E+14
   -2.543717    4.14194  0.2791E-11  0.5802E-07  0.4027E-10  0.3197E-04  0.3892E-23 -0.1331E+14
   -2.612463    4.14759  0.2791E-11  0.5891E-07  0.5453E-10  0.2156E-04  0.7503E-24 -0.2243E+14
   -2.681208    4.15672  0.2791E-11  0.4748E-07  0.1363E-09  0.4116E-05  0.8308E-25 -0.1749E+15
   -2.749953    4.21472  0.2791E-11  0.0000E+00  0.0000E+00  0.0000E+00  0.8363E-25  0.0000E+00
