 1 - depth, m
 2 - temperature, C
 3 - salinity, kg/kg
 4 - turbulent kinetic energy, m**2/s**2
 5 - dissipation rate, m**2/s**3
 6 - kinematic heat conductance, m**2/s
 7 - modulus of horizontal velocity, m/s
 8 - Richardson number, n/d
   -0.000000   -0.00000  0.5791E-12  0.1219E-13  0.7603E-17  0.1000E-09  0.0000E+00  0.6866E+16
   -0.068746    0.10445  0.3400E-11  0.1219E-13  0.7603E-17  0.1000E-09  0.0000E+00  0.6784E+16
   -0.137493    0.21070  0.5689E-11  0.1219E-13  0.7603E-17  0.1000E-09  0.0000E+00  0.6686E+16
   -0.206240    0.31861  0.6716E-11  0.1219E-13  0.7603E-17  0.1000E-09  0.0000E+00  0.6572E+16
   -0.274988    0.42807  0.6809E-11  0.1219E-13  0.7603E-17  0.1000E-09  0.0000E+00  0.6442E+16
   -0.343736    0.53896  0.6455E-11  0.1219E-13  0.7603E-17  0.1000E-09  0.0000E+00  0.6297E+16
   -0.412485    0.65113  0.5999E-11  0.1219E-13  0.7603E-17  0.1000E-09  0.0000E+00  0.6138E+16
   -0.481234    0.76445  0.5614E-11  0.1219E-13  0.7603E-17  0.1000E-09  0.0000E+00  0.5966E+16
   -0.549984    0.87878  0.5350E-11  0.1219E-13  0.7603E-17  0.1000E-09  0.0000E+00  0.5782E+16
   -0.618734    0.99396  0.5192E-11  0.1219E-13  0.7603E-17  0.1000E-09  0.0000E+00  0.5588E+16
   -0.687485    1.10987  0.5108E-11  0.1219E-13  0.7603E-17  0.1000E-09  0.0000E+00  0.5384E+16
   -0.756236    1.22639  0.5067E-11  0.1219E-13  0.7603E-17  0.1000E-09  0.0000E+00  0.5173E+16
   -0.824987    1.34340  0.5048E-11  0.1219E-13  0.7603E-17  0.1000E-09  0.0000E+00  0.4954E+16
   -0.893739    1.46079  0.5039E-11  0.1219E-13  0.7603E-17  0.1000E-09  0.0000E+00  0.4731E+16
   -0.962490    1.57845  0.5033E-11  0.1219E-13  0.7603E-17  0.1000E-09  0.0000E+00  0.4503E+16
   -1.031242    1.69629  0.5028E-11  0.1219E-13  0.7603E-17  0.1000E-09  0.0000E+00  0.4272E+16
   -1.099995    1.81422  0.5021E-11  0.1219E-13  0.7603E-17  0.1000E-09  0.0000E+00  0.4039E+16
   -1.168747    1.93217  0.5012E-11  0.1219E-13  0.7603E-17  0.1000E-09  0.0000E+00  0.3805E+16
   -1.237499    2.05006  0.5000E-11  0.1219E-13  0.7603E-17  0.1000E-09  0.0000E+00  0.3570E+16
   -1.306252    2.16786  0.4987E-11  0.1219E-13  0.7603E-17  0.1000E-09  0.0000E+00  0.3335E+16
   -1.375004    2.28550  0.4973E-11  0.1219E-13  0.7603E-17  0.1000E-09  0.0000E+00  0.3102E+16
   -1.443757    2.40298  0.4958E-11  0.1219E-13  0.7603E-17  0.1000E-09  0.0000E+00  0.2871E+16
   -1.512509    2.52029  0.4944E-11  0.1219E-13  0.7603E-17  0.1000E-09  0.0000E+00  0.2641E+16
   -1.581262    2.63741  0.4931E-11  0.1219E-13  0.7603E-17  0.1000E-09  0.0000E+00  0.2413E+16
   -1.650014    2.75433  0.4920E-11  0.1219E-13  0.7603E-17  0.1000E-09  0.0000E+00  0.2186E+16
   -1.718766    2.87105  0.4911E-11  0.1219E-13  0.7603E-17  0.1000E-09  0.0000E+00  0.1961E+16
   -1.787518    2.98748  0.4904E-11  0.3888E-13  0.1032E-16  0.1000E-09  0.0000E+00  0.1714E+16
   -1.856270    3.10199  0.4898E-11  0.1364E-12  0.3028E-16  0.1000E-09  0.0000E+00  0.1474E+16
   -1.925021    3.21414  0.4894E-11  0.4456E-12  0.9411E-16  0.1000E-09  0.0000E+00  0.1241E+16
   -1.993773    3.32334  0.4890E-11  0.1421E-11  0.2899E-15  0.1000E-09  0.0000E+00  0.1024E+16
   -2.062523    3.42944  0.4887E-11  0.4366E-11  0.8619E-15  0.1000E-09  0.0000E+00  0.8393E+15
   -2.131274    3.53488  0.4885E-11  0.1319E-10  0.2521E-14  0.1000E-09  0.0000E+00  0.6600E+15
   -2.200024    3.63982  0.4884E-11  0.3933E-10  0.7285E-14  0.1000E-09  0.0000E+00  0.4834E+15
   -2.268774    3.74418  0.4884E-11  0.1170E-09  0.2100E-13  0.3436E-09  0.0000E+00  0.3095E+15
   -2.337523    3.84765  0.4883E-11  0.3502E-09  0.6101E-13  0.2199E-08  0.0000E+00  0.1398E+15
   -2.406272    3.94890  0.4883E-11  0.1007E-08  0.1713E-12  0.1016E-06  0.0000E+00  0.7365E+13
   -2.475021    4.00779  0.4883E-11  0.2001E-08  0.3504E-12  0.5233E-05  0.0000E+00 -0.9489E+12
   -2.543769    4.01045  0.4883E-11  0.2338E-08  0.4636E-12  0.4760E-05  0.0000E+00 -0.1158E+13
   -2.612516    4.01334  0.4883E-11  0.2378E-08  0.6460E-12  0.3009E-05  0.0000E+00 -0.2017E+13
   -2.681262    4.01774  0.4883E-11  0.1777E-08  0.1393E-11  0.5210E-06  0.0000E+00 -0.1238E+14
   -2.750008    4.03700  0.4883E-11  0.0000E+00  0.0000E+00  0.0000E+00  0.0000E+00  0.0000E+00
