 1 - depth, m
 2 - temperature, C
 3 - salinity, kg/kg
 4 - turbulent kinetic energy, m**2/s**2
 5 - dissipation rate, m**2/s**3
 6 - kinematic heat conductance, m**2/s
 7 - modulus of horizontal velocity, m/s
 8 - Richardson number, n/d
   -0.000000   -0.00000  0.1348E-09  0.1219E-13  0.7603E-17  0.1000E-09  0.0000E+00  0.3950E+16
   -0.068746    0.05974  0.7482E-10  0.1219E-13  0.7603E-17  0.1000E-09  0.0000E+00  0.3782E+16
   -0.137492    0.11785  0.6010E-10  0.1219E-13  0.7603E-17  0.1000E-09  0.0000E+00  0.3647E+16
   -0.206239    0.17479  0.5695E-10  0.1219E-13  0.7603E-17  0.1000E-09  0.0000E+00  0.3545E+16
   -0.274986    0.23103  0.5636E-10  0.1219E-13  0.7603E-17  0.1000E-09  0.0000E+00  0.3475E+16
   -0.343734    0.28702  0.5626E-10  0.1219E-13  0.7603E-17  0.1000E-09  0.0000E+00  0.3434E+16
   -0.412483    0.34326  0.5624E-10  0.1219E-13  0.7603E-17  0.1000E-09  0.0000E+00  0.3423E+16
   -0.481232    0.40025  0.5624E-10  0.1219E-13  0.7603E-17  0.1000E-09  0.0000E+00  0.3439E+16
   -0.549982    0.45850  0.5624E-10  0.1219E-13  0.7603E-17  0.1000E-09  0.0000E+00  0.3483E+16
   -0.618732    0.51854  0.5624E-10  0.1219E-13  0.7603E-17  0.1000E-09  0.0000E+00  0.3550E+16
   -0.687482    0.58089  0.5624E-10  0.1219E-13  0.7603E-17  0.1000E-09  0.0000E+00  0.3656E+16
   -0.756233    0.64639  0.5624E-10  0.1219E-13  0.7603E-17  0.1000E-09  0.0000E+00  0.3789E+16
   -0.824983    0.71574  0.5624E-10  0.1219E-13  0.7603E-17  0.1000E-09  0.0000E+00  0.3935E+16
   -0.893735    0.78944  0.5624E-10  0.1219E-13  0.7603E-17  0.1000E-09  0.0000E+00  0.4090E+16
   -0.962486    0.86800  0.5624E-10  0.1219E-13  0.7603E-17  0.1000E-09  0.0000E+00  0.4249E+16
   -1.031238    0.95187  0.5624E-10  0.1219E-13  0.7603E-17  0.1000E-09  0.0000E+00  0.4405E+16
   -1.099990    1.04147  0.5624E-10  0.1219E-13  0.7603E-17  0.1000E-09  0.0000E+00  0.4551E+16
   -1.168742    1.13716  0.5623E-10  0.1219E-13  0.7603E-17  0.1000E-09  0.0000E+00  0.4681E+16
   -1.237494    1.23923  0.5619E-10  0.1219E-13  0.7603E-17  0.1000E-09  0.0000E+00  0.4788E+16
   -1.306246    1.34790  0.5611E-10  0.1219E-13  0.7603E-17  0.1000E-09  0.0000E+00  0.4864E+16
   -1.374998    1.46330  0.5594E-10  0.1219E-13  0.7603E-17  0.1000E-09  0.0000E+00  0.4920E+16
   -1.443750    1.58592  0.5567E-10  0.1219E-13  0.7603E-17  0.1000E-09  0.0000E+00  0.4935E+16
   -1.512502    1.71583  0.5539E-10  0.1219E-13  0.7603E-17  0.1000E-09  0.0000E+00  0.4897E+16
   -1.581255    1.85287  0.5521E-10  0.1219E-13  0.7603E-17  0.1000E-09  0.0000E+00  0.4802E+16
   -1.650007    1.99672  0.5513E-10  0.1219E-13  0.7603E-17  0.1000E-09  0.0000E+00  0.4646E+16
   -1.718758    2.14696  0.5509E-10  0.1219E-13  0.7603E-17  0.1000E-09  0.0000E+00  0.4428E+16
   -1.787510    2.30297  0.5506E-10  0.1219E-13  0.7603E-17  0.1000E-09  0.0000E+00  0.4101E+16
   -1.856262    2.46206  0.5505E-10  0.1919E-13  0.7660E-17  0.1000E-09  0.0000E+00  0.3738E+16
   -1.925013    2.62359  0.5504E-10  0.7767E-13  0.2474E-16  0.1000E-09  0.0000E+00  0.3345E+16
   -1.993764    2.78689  0.5503E-10  0.3078E-12  0.9285E-16  0.1000E-09  0.0000E+00  0.2934E+16
   -2.062514    2.95161  0.5501E-10  0.1159E-11  0.3361E-15  0.1000E-09  0.0000E+00  0.2538E+16
   -2.131265    3.11942  0.5497E-10  0.4265E-11  0.1191E-14  0.1000E-09  0.0000E+00  0.2116E+16
   -2.200015    3.29009  0.5489E-10  0.1542E-10  0.4149E-14  0.1000E-09  0.0000E+00  0.1669E+16
   -2.268764    3.46309  0.5476E-10  0.5531E-10  0.1435E-13  0.1000E-09  0.0000E+00  0.1205E+16
   -2.337513    3.63854  0.5460E-10  0.1990E-09  0.4980E-13  0.3489E-09  0.0000E+00  0.7235E+15
   -2.406262    3.81613  0.5447E-10  0.7118E-09  0.1720E-12  0.3814E-08  0.0000E+00  0.2270E+15
   -2.475010    3.99196  0.5444E-10  0.1971E-08  0.4723E-12  0.2646E-05  0.0000E+00 -0.1513E+13
   -2.543757    4.00132  0.5444E-10  0.2766E-08  0.8180E-12  0.3255E-05  0.0000E+00 -0.2405E+13
   -2.612504    4.00939  0.5444E-10  0.3356E-08  0.1493E-11  0.2467E-05  0.0000E+00 -0.5259E+13
   -2.681251    4.02101  0.5444E-10  0.3655E-08  0.4129E-11  0.9470E-06  0.0000E+00 -0.3166E+14
   -2.749996    4.05876  0.5444E-10  0.0000E+00  0.0000E+00  0.0000E+00  0.0000E+00  0.0000E+00
