 1 - depth, m
 2 - temperature, C
 3 - salinity, kg/kg
 4 - turbulent kinetic energy, m**2/s**2
 5 - dissipation rate, m**2/s**3
 6 - kinematic heat conductance, m**2/s
 7 - modulus of horizontal velocity, m/s
 8 - Richardson number, n/d
   -0.000000    0.00000  0.0000E+00  0.1218E-13  0.7603E-17  0.1000E-09  0.0000E+00  0.5468E+16
   -0.068747    0.08295  0.5614E-12  0.1218E-13  0.7603E-17  0.1000E-09  0.0000E+00  0.5881E+16
   -0.137495    0.17432  0.1527E-11  0.1218E-13  0.7603E-17  0.1000E-09  0.0000E+00  0.6112E+16
   -0.206244    0.27182  0.2348E-11  0.1218E-13  0.7603E-17  0.1000E-09  0.0000E+00  0.6201E+16
   -0.274993    0.37360  0.2787E-11  0.1218E-13  0.7603E-17  0.1000E-09  0.0000E+00  0.6192E+16
   -0.343743    0.47836  0.2886E-11  0.1218E-13  0.7603E-17  0.1000E-09  0.0000E+00  0.6120E+16
   -0.412493    0.58526  0.2789E-11  0.1218E-13  0.7603E-17  0.1000E-09  0.0000E+00  0.6009E+16
   -0.481243    0.69381  0.2626E-11  0.1218E-13  0.7603E-17  0.1000E-09  0.0000E+00  0.5874E+16
   -0.549995    0.80370  0.2474E-11  0.1218E-13  0.7603E-17  0.1000E-09  0.0000E+00  0.5722E+16
   -0.618746    0.91473  0.2361E-11  0.1218E-13  0.7603E-17  0.1000E-09  0.0000E+00  0.5558E+16
   -0.687498    1.02677  0.2289E-11  0.1218E-13  0.7603E-17  0.1000E-09  0.0000E+00  0.5383E+16
   -0.756250    1.13970  0.2248E-11  0.1218E-13  0.7603E-17  0.1000E-09  0.0000E+00  0.5198E+16
   -0.825003    1.25339  0.2226E-11  0.1218E-13  0.7603E-17  0.1000E-09  0.0000E+00  0.5006E+16
   -0.893756    1.36777  0.2216E-11  0.1218E-13  0.7603E-17  0.1000E-09  0.0000E+00  0.4807E+16
   -0.962509    1.48273  0.2211E-11  0.1218E-13  0.7603E-17  0.1000E-09  0.0000E+00  0.4602E+16
   -1.031262    1.59820  0.2208E-11  0.1218E-13  0.7603E-17  0.1000E-09  0.0000E+00  0.4392E+16
   -1.100015    1.71411  0.2205E-11  0.1218E-13  0.7603E-17  0.1000E-09  0.0000E+00  0.4178E+16
   -1.168769    1.83037  0.2202E-11  0.1218E-13  0.7603E-17  0.1000E-09  0.0000E+00  0.3961E+16
   -1.237523    1.94692  0.2199E-11  0.1218E-13  0.7603E-17  0.1000E-09  0.0000E+00  0.3741E+16
   -1.306277    2.06370  0.2194E-11  0.1218E-13  0.7603E-17  0.1000E-09  0.0000E+00  0.3519E+16
   -1.375030    2.18066  0.2189E-11  0.1218E-13  0.7603E-17  0.1000E-09  0.0000E+00  0.3296E+16
   -1.443784    2.29778  0.2183E-11  0.1218E-13  0.7603E-17  0.1000E-09  0.0000E+00  0.3074E+16
   -1.512538    2.41510  0.2177E-11  0.1218E-13  0.7603E-17  0.1000E-09  0.0000E+00  0.2854E+16
   -1.581292    2.53267  0.2171E-11  0.1218E-13  0.7603E-17  0.1000E-09  0.0000E+00  0.2637E+16
   -1.650045    2.65070  0.2166E-11  0.1218E-13  0.7603E-17  0.1000E-09  0.0000E+00  0.2426E+16
   -1.718799    2.76961  0.2161E-11  0.1218E-13  0.7603E-17  0.1000E-09  0.0000E+00  0.2221E+16
   -1.787552    2.88994  0.2157E-11  0.2501E-13  0.7717E-17  0.1000E-09  0.0000E+00  0.1945E+16
   -1.856305    3.00762  0.2154E-11  0.9039E-13  0.2075E-16  0.1000E-09  0.0000E+00  0.1678E+16
   -1.925058    3.12222  0.2151E-11  0.3018E-12  0.6496E-16  0.1000E-09  0.0000E+00  0.1418E+16
   -1.993810    3.23270  0.2149E-11  0.9768E-12  0.2025E-15  0.1000E-09  0.0000E+00  0.1178E+16
   -2.062563    3.33891  0.2147E-11  0.3037E-11  0.6086E-15  0.1000E-09  0.0000E+00  0.1001E+16
   -2.131315    3.44541  0.2145E-11  0.9270E-11  0.1797E-14  0.1000E-09  0.0000E+00  0.8257E+15
   -2.200066    3.55275  0.2144E-11  0.2791E-10  0.5236E-14  0.1000E-09  0.0000E+00  0.6497E+15
   -2.268817    3.66146  0.2143E-11  0.8372E-10  0.1520E-13  0.1656E-09  0.0000E+00  0.4684E+15
   -2.337568    3.77183  0.2143E-11  0.2529E-09  0.4448E-13  0.8097E-09  0.0000E+00  0.2808E+15
   -2.406318    3.88496  0.2143E-11  0.7605E-09  0.1298E-12  0.8383E-08  0.0000E+00  0.7964E+14
   -2.475068    3.99824  0.2143E-11  0.1664E-08  0.2841E-12  0.4175E-05  0.0000E+00 -0.8775E+12
   -2.543817    4.00232  0.2143E-11  0.2003E-08  0.3893E-12  0.4123E-05  0.0000E+00 -0.1109E+13
   -2.612566    4.00628  0.2143E-11  0.2075E-08  0.5548E-12  0.2714E-05  0.0000E+00 -0.1971E+13
   -2.681313    4.01183  0.2143E-11  0.1558E-08  0.1186E-11  0.4716E-06  0.0000E+00 -0.1173E+14
   -2.750061    4.03269  0.2143E-11  0.0000E+00  0.0000E+00  0.0000E+00  0.0000E+00  0.0000E+00
