 1 - depth, m
 2 - temperature, C
 3 - salinity, kg/kg
 4 - turbulent kinetic energy, m**2/s**2
 5 - dissipation rate, m**2/s**3
 6 - kinematic heat conductance, m**2/s
 7 - modulus of horizontal velocity, m/s
 8 - Richardson number, n/d
   -0.000000    8.36192  0.4263E-10  0.2979E-04  0.2917E-05  0.3440E-04  0.4671E-01 -0.5458E-02
   -0.068746    8.39942  0.4263E-10  0.2365E-04  0.7452E-06  0.8757E-04  0.2754E-01 -0.1888E-01
   -0.137492    8.41108  0.4263E-10  0.2192E-04  0.3669E-06  0.1424E-03  0.2218E-01 -0.3064E-01
   -0.206239    8.41818  0.4263E-10  0.2094E-04  0.2326E-06  0.2013E-03  0.1890E-01 -0.4341E-01
   -0.274987    8.42307  0.4263E-10  0.2023E-04  0.1673E-06  0.2632E-03  0.1663E-01 -0.5716E-01
   -0.343735    8.42669  0.4263E-10  0.1966E-04  0.1292E-06  0.3273E-03  0.1494E-01 -0.7167E-01
   -0.412484    8.42951  0.4263E-10  0.1918E-04  0.1046E-06  0.3932E-03  0.1360E-01 -0.8682E-01
   -0.481233    8.43180  0.4263E-10  0.1877E-04  0.8747E-07  0.4606E-03  0.1250E-01 -0.1022E+00
   -0.549983    8.43370  0.4263E-10  0.1842E-04  0.7500E-07  0.5315E-03  0.1158E-01 -0.1119E+00
   -0.618733    8.43531  0.4263E-10  0.1812E-04  0.6562E-07  0.6278E-03  0.1080E-01 -0.7654E-02
   -0.687483    8.43665  0.4263E-10  0.1787E-04  0.5847E-07  0.8937E-03  0.1011E-01  0.1326E+03
   -0.756234    8.43767  0.4263E-10  0.1766E-04  0.5290E-07  0.1131E-02  0.9520E-02  0.1615E+03
   -0.824985    8.43845  0.4263E-10  0.1749E-04  0.4849E-07  0.1555E-02  0.8981E-02  0.2048E+03
   -0.893737    8.43898  0.4263E-10  0.1736E-04  0.4492E-07  0.1804E-02  0.8495E-02  0.1808E+03
   -0.962488    8.43941  0.4263E-10  0.1724E-04  0.4188E-07  0.1833E-02  0.8026E-02  0.2245E+02
   -1.031240    8.43982  0.4263E-10  0.1713E-04  0.3924E-07  0.1885E-02  0.7566E-02  0.2733E+02
   -1.099992    8.44021  0.4263E-10  0.1702E-04  0.3697E-07  0.1925E-02  0.7122E-02  0.3276E+02
   -1.168744    8.44059  0.4263E-10  0.1691E-04  0.3498E-07  0.1965E-02  0.6689E-02  0.4034E+02
   -1.237497    8.44095  0.4263E-10  0.1678E-04  0.3324E-07  0.1998E-02  0.6266E-02  0.5103E+02
   -1.306249    8.44130  0.4263E-10  0.1665E-04  0.3169E-07  0.2026E-02  0.5851E-02  0.6792E+02
   -1.375001    8.44164  0.4263E-10  0.1650E-04  0.3032E-07  0.2049E-02  0.5443E-02  0.9804E+02
   -1.443754    8.44198  0.4263E-10  0.1633E-04  0.2909E-07  0.2065E-02  0.5040E-02  0.1650E+03
   -1.512506    8.44230  0.4263E-10  0.1614E-04  0.2797E-07  0.2075E-02  0.4641E-02  0.4002E+03
   -1.581258    8.44262  0.4263E-10  0.1591E-04  0.2694E-07  0.2074E-02  0.4245E-02  0.1066E+06
   -1.650010    8.44293  0.4263E-10  0.1566E-04  0.2599E-07  0.2072E-02  0.3848E-02  0.7526E+05
   -1.718762    8.44324  0.4263E-10  0.1536E-04  0.2510E-07  0.2041E-02  0.3453E-02  0.2070E+05
   -1.787514    8.44354  0.4263E-10  0.1500E-04  0.2421E-07  0.2056E-02  0.3052E-02  0.3989E+02
   -1.856266    8.44385  0.4263E-10  0.1460E-04  0.2335E-07  0.2044E-02  0.2699E-02  0.8644E+01
   -1.925017    8.44415  0.4263E-10  0.1417E-04  0.2258E-07  0.2031E-02  0.2382E-02  0.3766E+01
   -1.993768    8.44445  0.4263E-10  0.1370E-04  0.2192E-07  0.2013E-02  0.2103E-02  0.2310E+01
   -2.062519    8.44476  0.4263E-10  0.1323E-04  0.2145E-07  0.1986E-02  0.1853E-02  0.1784E+01
   -2.131269    8.44506  0.4263E-10  0.1278E-04  0.2121E-07  0.1952E-02  0.1623E-02  0.1409E+01
   -2.200020    8.44537  0.4263E-10  0.1233E-04  0.2123E-07  0.1922E-02  0.1409E-02  0.1128E+01
   -2.268769    8.44567  0.4263E-10  0.1191E-04  0.2157E-07  0.1916E-02  0.1210E-02  0.8419E+00
   -2.337518    8.44598  0.4263E-10  0.1150E-04  0.2232E-07  0.1868E-02  0.1033E-02  0.6159E+00
   -2.406267    8.44629  0.4263E-10  0.1112E-04  0.2360E-07  0.1654E-02  0.8805E-03  0.4331E+00
   -2.475015    8.44664  0.4263E-10  0.1077E-04  0.2552E-07  0.1445E-02  0.7531E-03  0.3012E+00
   -2.543763    8.44704  0.4263E-10  0.1043E-04  0.2860E-07  0.1255E-02  0.6542E-03  0.4580E+00
   -2.612510    8.44749  0.4263E-10  0.9877E-05  0.3691E-07  0.5355E-03  0.5695E-03  0.1397E+04
   -2.681257    8.44856  0.4263E-10  0.6079E-05  0.1409E-06  0.3322E-04  0.4442E-03 -0.3323E+03
   -2.750002    8.46549  0.4263E-10  0.0000E+00  0.0000E+00  0.0000E+00  0.4436E-03  0.0000E+00
