 1 - depth, m
 2 - temperature, C
 3 - salinity, kg/kg
 4 - turbulent kinetic energy, m**2/s**2
 5 - dissipation rate, m**2/s**3
 6 - kinematic heat conductance, m**2/s
 7 - modulus of horizontal velocity, m/s
 8 - Richardson number, n/d
   -0.000000   -0.00000  0.4040E-10  0.1219E-13  0.7603E-17  0.1000E-09  0.0000E+00  0.6549E+16
   -0.068746    0.09958  0.2425E-10  0.1219E-13  0.7603E-17  0.1000E-09  0.0000E+00  0.6309E+16
   -0.137492    0.19814  0.1766E-10  0.1219E-13  0.7603E-17  0.1000E-09  0.0000E+00  0.6100E+16
   -0.206239    0.29611  0.1568E-10  0.1219E-13  0.7603E-17  0.1000E-09  0.0000E+00  0.5919E+16
   -0.274987    0.39389  0.1518E-10  0.1219E-13  0.7603E-17  0.1000E-09  0.0000E+00  0.5761E+16
   -0.343735    0.49185  0.1507E-10  0.1219E-13  0.7603E-17  0.1000E-09  0.0000E+00  0.5624E+16
   -0.412483    0.59037  0.1505E-10  0.1219E-13  0.7603E-17  0.1000E-09  0.0000E+00  0.5502E+16
   -0.481232    0.68978  0.1504E-10  0.1219E-13  0.7603E-17  0.1000E-09  0.0000E+00  0.5395E+16
   -0.549982    0.79041  0.1504E-10  0.1219E-13  0.7603E-17  0.1000E-09  0.0000E+00  0.5297E+16
   -0.618732    0.89259  0.1504E-10  0.1219E-13  0.7603E-17  0.1000E-09  0.0000E+00  0.5207E+16
   -0.687482    0.99661  0.1504E-10  0.1219E-13  0.7603E-17  0.1000E-09  0.0000E+00  0.5133E+16
   -0.756233    1.10300  0.1504E-10  0.1219E-13  0.7603E-17  0.1000E-09  0.0000E+00  0.5064E+16
   -0.824984    1.21217  0.1504E-10  0.1219E-13  0.7603E-17  0.1000E-09  0.0000E+00  0.4991E+16
   -0.893735    1.32435  0.1504E-10  0.1219E-13  0.7603E-17  0.1000E-09  0.0000E+00  0.4909E+16
   -0.962486    1.43971  0.1504E-10  0.1219E-13  0.7603E-17  0.1000E-09  0.0000E+00  0.4815E+16
   -1.031238    1.55843  0.1504E-10  0.1219E-13  0.7603E-17  0.1000E-09  0.0000E+00  0.4706E+16
   -1.099990    1.68062  0.1503E-10  0.1219E-13  0.7603E-17  0.1000E-09  0.0000E+00  0.4580E+16
   -1.168742    1.80635  0.1500E-10  0.1219E-13  0.7603E-17  0.1000E-09  0.0000E+00  0.4433E+16
   -1.237494    1.93566  0.1496E-10  0.3544E-13  0.7640E-17  0.1000E-09  0.0000E+00  0.4264E+16
   -1.306246    2.06855  0.1490E-10  0.1071E-12  0.1746E-16  0.1000E-09  0.0000E+00  0.4071E+16
   -1.374999    2.20496  0.1482E-10  0.2893E-12  0.4409E-16  0.1000E-09  0.0000E+00  0.3859E+16
   -1.443751    2.34500  0.1476E-10  0.7504E-12  0.1104E-15  0.1000E-09  0.0000E+00  0.3620E+16
   -1.512503    2.48861  0.1471E-10  0.1910E-11  0.2725E-15  0.1000E-09  0.0000E+00  0.3354E+16
   -1.581255    2.63558  0.1468E-10  0.4792E-11  0.6640E-15  0.1000E-09  0.0000E+00  0.3061E+16
   -1.650007    2.78565  0.1467E-10  0.1187E-10  0.1598E-14  0.1000E-09  0.0000E+00  0.2741E+16
   -1.718759    2.93853  0.1466E-10  0.2906E-10  0.3802E-14  0.1000E-09  0.0000E+00  0.2398E+16
   -1.787511    3.09393  0.1465E-10  0.7210E-10  0.9167E-14  0.1000E-09  0.0000E+00  0.2056E+16
   -1.856262    3.25335  0.1465E-10  0.1798E-09  0.2223E-13  0.1000E-09  0.0000E+00  0.1686E+16
   -1.925013    3.41694  0.1464E-10  0.4465E-09  0.5369E-13  0.2123E-09  0.0000E+00  0.1287E+16
   -1.993764    3.58484  0.1462E-10  0.1103E-08  0.1291E-12  0.7711E-09  0.0000E+00  0.8516E+15
   -2.062515    3.75607  0.1459E-10  0.2644E-08  0.3014E-12  0.3971E-08  0.0000E+00  0.3858E+15
   -2.131265    3.92408  0.1458E-10  0.5864E-08  0.6561E-12  0.1322E-06  0.0000E+00  0.2471E+14
   -2.200015    4.01315  0.1458E-10  0.7064E-08  0.7969E-12  0.2688E-04  0.0000E+00 -0.3843E+12
   -2.268765    4.01404  0.1458E-10  0.7540E-08  0.8704E-12  0.2700E-04  0.0000E+00 -0.3966E+12
   -2.337514    4.01494  0.1458E-10  0.7895E-08  0.9525E-12  0.2605E-04  0.0000E+00 -0.4264E+12
   -2.406263    4.01588  0.1458E-10  0.8134E-08  0.1055E-11  0.2392E-04  0.0000E+00 -0.4834E+12
   -2.475011    4.01690  0.1458E-10  0.8242E-08  0.1200E-11  0.2041E-04  0.0000E+00 -0.5938E+12
   -2.543758    4.01812  0.1458E-10  0.8172E-08  0.1449E-11  0.1530E-04  0.0000E+00 -0.8430E+12
   -2.612505    4.01977  0.1458E-10  0.7750E-08  0.2037E-11  0.8455E-05  0.0000E+00 -0.1691E+13
   -2.681251    4.02285  0.1458E-10  0.5779E-08  0.5413E-11  0.1285E-05  0.0000E+00 -0.1573E+14
   -2.749997    4.04414  0.1458E-10  0.0000E+00  0.0000E+00  0.0000E+00  0.0000E+00  0.0000E+00
