 1 - depth, m
 2 - temperature, C
 3 - salinity, kg/kg
 4 - turbulent kinetic energy, m**2/s**2
 5 - dissipation rate, m**2/s**3
 6 - kinematic heat conductance, m**2/s
 7 - modulus of horizontal velocity, m/s
 8 - Richardson number, n/d
   -0.000000   -0.00000  0.3580E-11  0.1219E-13  0.7603E-17  0.1000E-09  0.0000E+00  0.8608E+16
   -0.068746    0.13144  0.2358E-11  0.1219E-13  0.7603E-17  0.1000E-09  0.0000E+00  0.8256E+16
   -0.137492    0.26217  0.1699E-11  0.1219E-13  0.7603E-17  0.1000E-09  0.0000E+00  0.7921E+16
   -0.206239    0.39234  0.1426E-11  0.1219E-13  0.7603E-17  0.1000E-09  0.0000E+00  0.7599E+16
   -0.274987    0.52212  0.1330E-11  0.1219E-13  0.7603E-17  0.1000E-09  0.0000E+00  0.7291E+16
   -0.343735    0.65166  0.1301E-11  0.1219E-13  0.7603E-17  0.1000E-09  0.0000E+00  0.6993E+16
   -0.412483    0.78111  0.1293E-11  0.1219E-13  0.7603E-17  0.1000E-09  0.0000E+00  0.6705E+16
   -0.481233    0.91064  0.1291E-11  0.1219E-13  0.7603E-17  0.1000E-09  0.0000E+00  0.6425E+16
   -0.549982    1.04038  0.1291E-11  0.1219E-13  0.7603E-17  0.1000E-09  0.0000E+00  0.6151E+16
   -0.618732    1.17046  0.1290E-11  0.1219E-13  0.7603E-17  0.1000E-09  0.0000E+00  0.5881E+16
   -0.687482    1.30101  0.1290E-11  0.1219E-13  0.7603E-17  0.1000E-09  0.0000E+00  0.5622E+16
   -0.756233    1.43234  0.1290E-11  0.1219E-13  0.7603E-17  0.1000E-09  0.0000E+00  0.5368E+16
   -0.824984    1.56466  0.1290E-11  0.1273E-13  0.7603E-17  0.1000E-09  0.0000E+00  0.5111E+16
   -0.893735    1.69804  0.1290E-11  0.5436E-13  0.8077E-17  0.1000E-09  0.0000E+00  0.4850E+16
   -0.962487    1.83254  0.1290E-11  0.1487E-12  0.1502E-16  0.1000E-09  0.0000E+00  0.4584E+16
   -1.031239    1.96820  0.1288E-11  0.3410E-12  0.3112E-16  0.1000E-09  0.0000E+00  0.4312E+16
   -1.099991    2.10502  0.1286E-11  0.7348E-12  0.6420E-16  0.1000E-09  0.0000E+00  0.4033E+16
   -1.168743    2.24300  0.1283E-11  0.1541E-11  0.1305E-15  0.1000E-09  0.0000E+00  0.3746E+16
   -1.237495    2.38210  0.1279E-11  0.3177E-11  0.2616E-15  0.1000E-09  0.0000E+00  0.3451E+16
   -1.306247    2.52224  0.1274E-11  0.6463E-11  0.5177E-15  0.1000E-09  0.0000E+00  0.3149E+16
   -1.374999    2.66332  0.1269E-11  0.1298E-10  0.1012E-14  0.1000E-09  0.0000E+00  0.2841E+16
   -1.443752    2.80530  0.1264E-11  0.2577E-10  0.1954E-14  0.1000E-09  0.0000E+00  0.2525E+16
   -1.512504    2.94803  0.1261E-11  0.5056E-10  0.3729E-14  0.1000E-09  0.0000E+00  0.2202E+16
   -1.581256    3.09123  0.1259E-11  0.9804E-10  0.7038E-14  0.1000E-09  0.0000E+00  0.1875E+16
   -1.650008    3.23471  0.1257E-11  0.1880E-09  0.1314E-13  0.1000E-09  0.0000E+00  0.1548E+16
   -1.718760    3.37854  0.1256E-11  0.3566E-09  0.2427E-13  0.1096E-09  0.0000E+00  0.1225E+16
   -1.787512    3.52341  0.1255E-11  0.6834E-09  0.4530E-13  0.2513E-09  0.0000E+00  0.9171E+15
   -1.856263    3.67340  0.1254E-11  0.1320E-08  0.8527E-13  0.7493E-09  0.0000E+00  0.5773E+15
   -1.925014    3.82979  0.1252E-11  0.2545E-08  0.1603E-12  0.4233E-08  0.0000E+00  0.1921E+15
   -1.993765    3.98876  0.1252E-11  0.3091E-08  0.1956E-12  0.1323E-04  0.0000E+00 -0.8968E+11
   -2.062516    3.99067  0.1252E-11  0.3377E-08  0.2187E-12  0.1673E-04  0.0000E+00 -0.1093E+12
   -2.131266    3.99209  0.1252E-11  0.3626E-08  0.2435E-12  0.1872E-04  0.0000E+00 -0.1233E+12
   -2.200016    3.99334  0.1252E-11  0.3841E-08  0.2706E-12  0.1970E-04  0.0000E+00 -0.1389E+12
   -2.268766    3.99452  0.1252E-11  0.4023E-08  0.3015E-12  0.1979E-04  0.0000E+00 -0.1590E+12
   -2.337515    3.99568  0.1252E-11  0.4173E-08  0.3394E-12  0.1897E-04  0.0000E+00 -0.1878E+12
   -2.406264    3.99688  0.1252E-11  0.4284E-08  0.3893E-12  0.1718E-04  0.0000E+00 -0.2331E+12
   -2.475012    3.99821  0.1252E-11  0.4341E-08  0.4625E-12  0.1432E-04  0.0000E+00 -0.3151E+12
   -2.543759    3.99980  0.1252E-11  0.4308E-08  0.5891E-12  0.1033E-04  0.0000E+00 -0.5005E+12
   -2.612506    4.00199  0.1252E-11  0.4074E-08  0.8909E-12  0.5331E-05  0.0000E+00 -0.1175E+13
   -2.681253    4.00621  0.1252E-11  0.3016E-08  0.2491E-11  0.7905E-06  0.0000E+00 -0.1287E+14
   -2.749999    4.03147  0.1252E-11  0.0000E+00  0.0000E+00  0.0000E+00  0.0000E+00  0.0000E+00
