 1 - depth, m
 2 - temperature, C
 3 - salinity, kg/kg
 4 - turbulent kinetic energy, m**2/s**2
 5 - dissipation rate, m**2/s**3
 6 - kinematic heat conductance, m**2/s
 7 - modulus of horizontal velocity, m/s
 8 - Richardson number, n/d
   -0.000000   -0.00000  0.1465E-11  0.1219E-13  0.7603E-17  0.1000E-09  0.0000E+00  0.4645E+16
   -0.068746    0.07034  0.7868E-12  0.1219E-13  0.7603E-17  0.1000E-09  0.0000E+00  0.4448E+16
   -0.137492    0.13899  0.6216E-12  0.1219E-13  0.7603E-17  0.1000E-09  0.0000E+00  0.4296E+16
   -0.206239    0.20655  0.5851E-12  0.1219E-13  0.7603E-17  0.1000E-09  0.0000E+00  0.4185E+16
   -0.274986    0.27363  0.5779E-12  0.1219E-13  0.7603E-17  0.1000E-09  0.0000E+00  0.4114E+16
   -0.343734    0.34085  0.5766E-12  0.1219E-13  0.7603E-17  0.1000E-09  0.0000E+00  0.4079E+16
   -0.412483    0.40882  0.5764E-12  0.1219E-13  0.7603E-17  0.1000E-09  0.0000E+00  0.4079E+16
   -0.481232    0.47820  0.5764E-12  0.1219E-13  0.7603E-17  0.1000E-09  0.0000E+00  0.4111E+16
   -0.549982    0.54963  0.5764E-12  0.1219E-13  0.7603E-17  0.1000E-09  0.0000E+00  0.4173E+16
   -0.618731    0.62376  0.5764E-12  0.1219E-13  0.7603E-17  0.1000E-09  0.0000E+00  0.4259E+16
   -0.687482    0.70126  0.5764E-12  0.1219E-13  0.7603E-17  0.1000E-09  0.0000E+00  0.4383E+16
   -0.756232    0.78309  0.5764E-12  0.1219E-13  0.7603E-17  0.1000E-09  0.0000E+00  0.4532E+16
   -0.824983    0.87007  0.5764E-12  0.1219E-13  0.7603E-17  0.1000E-09  0.0000E+00  0.4690E+16
   -0.893734    0.96286  0.5764E-12  0.1219E-13  0.7603E-17  0.1000E-09  0.0000E+00  0.4849E+16
   -0.962486    1.06206  0.5764E-12  0.1219E-13  0.7603E-17  0.1000E-09  0.0000E+00  0.5004E+16
   -1.031238    1.16826  0.5763E-12  0.1219E-13  0.7603E-17  0.1000E-09  0.0000E+00  0.5145E+16
   -1.099989    1.28201  0.5761E-12  0.1219E-13  0.7603E-17  0.1000E-09  0.0000E+00  0.5263E+16
   -1.168741    1.40379  0.5756E-12  0.4662E-13  0.9822E-17  0.1000E-09  0.0000E+00  0.5349E+16
   -1.237493    1.53403  0.5742E-12  0.1431E-12  0.2430E-16  0.1000E-09  0.0000E+00  0.5393E+16
   -1.306246    1.67307  0.5716E-12  0.3929E-12  0.6308E-16  0.1000E-09  0.0000E+00  0.5385E+16
   -1.374998    1.82117  0.5681E-12  0.1041E-11  0.1616E-15  0.1000E-09  0.0000E+00  0.5333E+16
   -1.443750    1.97896  0.5649E-12  0.2709E-11  0.4081E-15  0.1000E-09  0.0000E+00  0.5211E+16
   -1.512502    2.14664  0.5630E-12  0.6956E-11  0.1017E-14  0.1000E-09  0.0000E+00  0.5005E+16
   -1.581254    2.32406  0.5620E-12  0.1763E-10  0.2506E-14  0.1000E-09  0.0000E+00  0.4710E+16
   -1.650006    2.51095  0.5614E-12  0.4416E-10  0.6098E-14  0.1000E-09  0.0000E+00  0.4321E+16
   -1.718758    2.70685  0.5610E-12  0.1093E-09  0.1467E-13  0.1000E-09  0.0000E+00  0.3840E+16
   -1.787510    2.91119  0.5608E-12  0.2742E-09  0.3578E-13  0.1000E-09  0.0000E+00  0.3286E+16
   -1.856261    3.12449  0.5607E-12  0.6916E-09  0.8779E-13  0.1690E-09  0.0000E+00  0.2645E+16
   -1.925012    3.34674  0.5605E-12  0.1737E-08  0.2146E-12  0.5714E-09  0.0000E+00  0.1912E+16
   -1.993763    3.57760  0.5600E-12  0.4337E-08  0.5216E-12  0.2457E-08  0.0000E+00  0.1081E+16
   -2.062514    3.81393  0.5587E-12  0.1037E-07  0.1217E-11  0.2754E-07  0.0000E+00  0.2254E+15
   -2.131264    4.01802  0.5584E-12  0.1182E-07  0.1397E-11  0.4142E-04  0.0000E+00 -0.4154E+12
   -2.200014    4.01885  0.5584E-12  0.1240E-07  0.1490E-11  0.4171E-04  0.0000E+00 -0.4253E+12
   -2.268764    4.01967  0.5584E-12  0.1284E-07  0.1592E-11  0.4083E-04  0.0000E+00 -0.4479E+12
   -2.337513    4.02052  0.5584E-12  0.1316E-07  0.1714E-11  0.3864E-04  0.0000E+00 -0.4884E+12
   -2.406261    4.02142  0.5584E-12  0.1335E-07  0.1876E-11  0.3496E-04  0.0000E+00 -0.5587E+12
   -2.475009    4.02242  0.5584E-12  0.1337E-07  0.2115E-11  0.2951E-04  0.0000E+00 -0.6892E+12
   -2.543757    4.02362  0.5584E-12  0.1316E-07  0.2534E-11  0.2196E-04  0.0000E+00 -0.9753E+12
   -2.612504    4.02526  0.5584E-12  0.1246E-07  0.3535E-11  0.1216E-04  0.0000E+00 -0.1917E+13
   -2.681250    4.02828  0.5584E-12  0.9211E-08  0.9706E-11  0.1717E-05  0.0000E+00 -0.1832E+14
   -2.749996    4.05036  0.5584E-12  0.0000E+00  0.0000E+00  0.0000E+00  0.0000E+00  0.0000E+00
