 1 - depth, m
 2 - temperature, C
 3 - salinity, kg/kg
 4 - turbulent kinetic energy, m**2/s**2
 5 - dissipation rate, m**2/s**3
 6 - kinematic heat conductance, m**2/s
 7 - modulus of horizontal velocity, m/s
 8 - Richardson number, n/d
   -0.000000   -0.00000  0.2560E-18  0.1218E-13  0.7603E-17  0.1000E-09  0.0000E+00  0.4404E+16
   -0.068747    0.06666  0.2564E-20  0.1218E-13  0.7603E-17  0.1000E-09  0.0000E+00  0.4610E+16
   -0.137494    0.13776  0.3397E-14  0.1218E-13  0.7603E-17  0.1000E-09  0.0000E+00  0.4775E+16
   -0.206242    0.21291  0.1245E-12  0.1218E-13  0.7603E-17  0.1000E-09  0.0000E+00  0.4911E+16
   -0.274991    0.29190  0.3606E-12  0.1218E-13  0.7603E-17  0.1000E-09  0.0000E+00  0.5021E+16
   -0.343740    0.37455  0.6197E-12  0.1218E-13  0.7603E-17  0.1000E-09  0.0000E+00  0.5108E+16
   -0.412489    0.46077  0.8170E-12  0.1218E-13  0.7603E-17  0.1000E-09  0.0000E+00  0.5174E+16
   -0.481239    0.55043  0.9207E-12  0.1218E-13  0.7603E-17  0.1000E-09  0.0000E+00  0.5218E+16
   -0.549990    0.64344  0.9443E-12  0.1218E-13  0.7603E-17  0.1000E-09  0.0000E+00  0.5239E+16
   -0.618741    0.73965  0.9200E-12  0.1218E-13  0.7603E-17  0.1000E-09  0.0000E+00  0.5237E+16
   -0.687492    0.83892  0.8777E-12  0.1218E-13  0.7603E-17  0.1000E-09  0.0000E+00  0.5205E+16
   -0.756244    0.94098  0.8362E-12  0.1218E-13  0.7603E-17  0.1000E-09  0.0000E+00  0.5147E+16
   -0.824996    1.04557  0.8041E-12  0.1218E-13  0.7603E-17  0.1000E-09  0.0000E+00  0.5068E+16
   -0.893748    1.15249  0.7823E-12  0.1218E-13  0.7603E-17  0.1000E-09  0.0000E+00  0.4967E+16
   -0.962501    1.26157  0.7692E-12  0.1218E-13  0.7603E-17  0.1000E-09  0.0000E+00  0.4849E+16
   -1.031254    1.37265  0.7618E-12  0.1218E-13  0.7603E-17  0.1000E-09  0.0000E+00  0.4714E+16
   -1.100006    1.48557  0.7578E-12  0.1218E-13  0.7603E-17  0.1000E-09  0.0000E+00  0.4565E+16
   -1.168759    1.60022  0.7557E-12  0.1218E-13  0.7603E-17  0.1000E-09  0.0000E+00  0.4404E+16
   -1.237513    1.71655  0.7544E-12  0.1218E-13  0.7603E-17  0.1000E-09  0.0000E+00  0.4232E+16
   -1.306266    1.83449  0.7533E-12  0.1218E-13  0.7603E-17  0.1000E-09  0.0000E+00  0.4052E+16
   -1.375019    1.95406  0.7521E-12  0.1218E-13  0.7603E-17  0.1000E-09  0.0000E+00  0.3865E+16
   -1.443772    2.07532  0.7507E-12  0.1218E-13  0.7603E-17  0.1000E-09  0.0000E+00  0.3672E+16
   -1.512525    2.19836  0.7490E-12  0.1218E-13  0.7603E-17  0.1000E-09  0.0000E+00  0.3472E+16
   -1.581279    2.32332  0.7470E-12  0.1218E-13  0.7603E-17  0.1000E-09  0.0000E+00  0.3266E+16
   -1.650032    2.45037  0.7450E-12  0.1218E-13  0.7603E-17  0.1000E-09  0.0000E+00  0.3054E+16
   -1.718785    2.57979  0.7429E-12  0.1218E-13  0.7603E-17  0.1000E-09  0.0000E+00  0.2830E+16
   -1.787537    2.71170  0.7409E-12  0.1218E-13  0.7603E-17  0.1000E-09  0.0000E+00  0.2493E+16
   -1.856290    2.84071  0.7392E-12  0.1218E-13  0.7603E-17  0.1000E-09  0.0000E+00  0.2160E+16
   -1.925042    2.96586  0.7376E-12  0.1728E-13  0.7603E-17  0.1000E-09  0.0000E+00  0.1831E+16
   -1.993794    3.08570  0.7363E-12  0.7403E-13  0.2436E-16  0.1000E-09  0.0000E+00  0.1532E+16
   -2.062546    3.20015  0.7352E-12  0.2951E-12  0.9162E-16  0.1000E-09  0.0000E+00  0.1328E+16
   -2.131297    3.31511  0.7343E-12  0.1136E-11  0.3392E-15  0.1000E-09  0.0000E+00  0.1127E+16
   -2.200048    3.43131  0.7336E-12  0.4289E-11  0.1233E-14  0.1000E-09  0.0000E+00  0.9222E+15
   -2.268799    3.54903  0.7331E-12  0.1606E-10  0.4452E-14  0.1000E-09  0.0000E+00  0.7081E+15
   -2.337549    3.66795  0.7328E-12  0.6032E-10  0.1613E-13  0.1671E-09  0.0000E+00  0.4882E+15
   -2.406298    3.78811  0.7325E-12  0.2254E-09  0.5821E-13  0.1121E-08  0.0000E+00  0.2617E+15
   -2.475047    3.90916  0.7323E-12  0.8327E-09  0.2084E-12  0.2472E-07  0.0000E+00  0.4052E+14
   -2.543796    4.01444  0.7323E-12  0.2207E-08  0.5583E-12  0.4003E-05  0.0000E+00 -0.1982E+13
   -2.612544    4.01863  0.7323E-12  0.2472E-08  0.7811E-12  0.2956E-05  0.0000E+00 -0.2857E+13
   -2.681291    4.02385  0.7323E-12  0.1845E-08  0.1495E-11  0.5260E-06  0.0000E+00 -0.1331E+14
   -2.750038    4.04207  0.7323E-12  0.0000E+00  0.0000E+00  0.0000E+00  0.0000E+00  0.0000E+00
