 1 - depth, m
 2 - temperature, C
 3 - salinity, kg/kg
 4 - turbulent kinetic energy, m**2/s**2
 5 - dissipation rate, m**2/s**3
 6 - kinematic heat conductance, m**2/s
 7 - modulus of horizontal velocity, m/s
 8 - Richardson number, n/d
   -0.000000   -0.00000  0.2262E-10  0.1219E-13  0.7603E-17  0.1000E-09  0.0000E+00  0.4857E+16
   -0.068746    0.07359  0.1195E-10  0.1219E-13  0.7603E-17  0.1000E-09  0.0000E+00  0.4659E+16
   -0.137492    0.14559  0.9390E-11  0.1219E-13  0.7603E-17  0.1000E-09  0.0000E+00  0.4503E+16
   -0.206239    0.21659  0.8818E-11  0.1219E-13  0.7603E-17  0.1000E-09  0.0000E+00  0.4389E+16
   -0.274986    0.28717  0.8703E-11  0.1219E-13  0.7603E-17  0.1000E-09  0.0000E+00  0.4314E+16
   -0.343735    0.35798  0.8683E-11  0.1219E-13  0.7603E-17  0.1000E-09  0.0000E+00  0.4275E+16
   -0.412483    0.42962  0.8680E-11  0.1219E-13  0.7603E-17  0.1000E-09  0.0000E+00  0.4270E+16
   -0.481232    0.50275  0.8679E-11  0.1219E-13  0.7603E-17  0.1000E-09  0.0000E+00  0.4296E+16
   -0.549982    0.57799  0.8679E-11  0.1219E-13  0.7603E-17  0.1000E-09  0.0000E+00  0.4348E+16
   -0.618732    0.65598  0.8679E-11  0.1219E-13  0.7603E-17  0.1000E-09  0.0000E+00  0.4424E+16
   -0.687482    0.73736  0.8679E-11  0.1219E-13  0.7603E-17  0.1000E-09  0.0000E+00  0.4534E+16
   -0.756233    0.82306  0.8679E-11  0.1219E-13  0.7603E-17  0.1000E-09  0.0000E+00  0.4666E+16
   -0.824984    0.91387  0.8679E-11  0.1219E-13  0.7603E-17  0.1000E-09  0.0000E+00  0.4802E+16
   -0.893735    1.01039  0.8679E-11  0.1219E-13  0.7603E-17  0.1000E-09  0.0000E+00  0.4936E+16
   -0.962486    1.11315  0.8679E-11  0.1219E-13  0.7603E-17  0.1000E-09  0.0000E+00  0.5062E+16
   -1.031238    1.22269  0.8678E-11  0.1219E-13  0.7603E-17  0.1000E-09  0.0000E+00  0.5169E+16
   -1.099990    1.33945  0.8675E-11  0.1219E-13  0.7603E-17  0.1000E-09  0.0000E+00  0.5251E+16
   -1.168742    1.46383  0.8667E-11  0.4423E-13  0.9556E-17  0.1000E-09  0.0000E+00  0.5298E+16
   -1.237494    1.59617  0.8646E-11  0.1367E-12  0.2375E-16  0.1000E-09  0.0000E+00  0.5301E+16
   -1.306246    1.73669  0.8608E-11  0.3792E-12  0.6226E-16  0.1000E-09  0.0000E+00  0.5252E+16
   -1.374998    1.88554  0.8556E-11  0.1015E-11  0.1611E-15  0.1000E-09  0.0000E+00  0.5159E+16
   -1.443751    2.04322  0.8509E-11  0.2668E-11  0.4107E-15  0.1000E-09  0.0000E+00  0.5000E+16
   -1.512503    2.20980  0.8480E-11  0.6917E-11  0.1033E-14  0.1000E-09  0.0000E+00  0.4764E+16
   -1.581255    2.38505  0.8465E-11  0.1770E-10  0.2567E-14  0.1000E-09  0.0000E+00  0.4447E+16
   -1.650007    2.56863  0.8455E-11  0.4471E-10  0.6299E-14  0.1000E-09  0.0000E+00  0.4048E+16
   -1.718759    2.76002  0.8450E-11  0.1116E-09  0.1527E-13  0.1000E-09  0.0000E+00  0.3571E+16
   -1.787510    2.95868  0.8447E-11  0.2822E-09  0.3754E-13  0.1000E-09  0.0000E+00  0.3044E+16
   -1.856262    3.16594  0.8444E-11  0.7174E-09  0.9277E-13  0.1937E-09  0.0000E+00  0.2437E+16
   -1.925013    3.38186  0.8441E-11  0.1815E-08  0.2282E-12  0.6661E-09  0.0000E+00  0.1744E+16
   -1.993764    3.60626  0.8431E-11  0.4560E-08  0.5582E-12  0.2967E-08  0.0000E+00  0.9578E+15
   -2.062515    3.83563  0.8415E-11  0.1090E-07  0.1303E-11  0.3933E-07  0.0000E+00  0.1686E+15
   -2.131265    4.02134  0.8413E-11  0.1240E-07  0.1491E-11  0.4284E-04  0.0000E+00 -0.4312E+12
   -2.200015    4.02211  0.8413E-11  0.1300E-07  0.1589E-11  0.4299E-04  0.0000E+00 -0.4407E+12
   -2.268764    4.02289  0.8413E-11  0.1345E-07  0.1695E-11  0.4199E-04  0.0000E+00 -0.4634E+12
   -2.337514    4.02369  0.8413E-11  0.1377E-07  0.1823E-11  0.3967E-04  0.0000E+00 -0.5045E+12
   -2.406262    4.02454  0.8413E-11  0.1395E-07  0.1993E-11  0.3584E-04  0.0000E+00 -0.5761E+12
   -2.475010    4.02549  0.8413E-11  0.1397E-07  0.2245E-11  0.3022E-04  0.0000E+00 -0.7096E+12
   -2.543758    4.02663  0.8413E-11  0.1375E-07  0.2687E-11  0.2249E-04  0.0000E+00 -0.1003E+13
   -2.612505    4.02819  0.8413E-11  0.1301E-07  0.3745E-11  0.1246E-04  0.0000E+00 -0.1969E+13
   -2.681251    4.03109  0.8413E-11  0.9598E-08  0.1032E-10  0.1750E-05  0.0000E+00 -0.1902E+14
   -2.749997    4.05291  0.8413E-11  0.0000E+00  0.0000E+00  0.0000E+00  0.0000E+00  0.0000E+00
