 1 - depth, m
 2 - temperature, C
 3 - salinity, kg/kg
 4 - turbulent kinetic energy, m**2/s**2
 5 - dissipation rate, m**2/s**3
 6 - kinematic heat conductance, m**2/s
 7 - modulus of horizontal velocity, m/s
 8 - Richardson number, n/d
   -0.000000   -0.00000  0.7806E-11  0.1219E-13  0.7603E-17  0.1000E-09  0.0000E+00  0.5618E+16
   -0.068746    0.08524  0.4271E-11  0.1219E-13  0.7603E-17  0.1000E-09  0.0000E+00  0.5409E+16
   -0.137492    0.16924  0.3216E-11  0.1219E-13  0.7603E-17  0.1000E-09  0.0000E+00  0.5239E+16
   -0.206239    0.25252  0.2961E-11  0.1219E-13  0.7603E-17  0.1000E-09  0.0000E+00  0.5106E+16
   -0.274987    0.33563  0.2906E-11  0.1219E-13  0.7603E-17  0.1000E-09  0.0000E+00  0.5005E+16
   -0.343735    0.41911  0.2896E-11  0.1219E-13  0.7603E-17  0.1000E-09  0.0000E+00  0.4935E+16
   -0.412483    0.50349  0.2894E-11  0.1219E-13  0.7603E-17  0.1000E-09  0.0000E+00  0.4891E+16
   -0.481232    0.58932  0.2894E-11  0.1219E-13  0.7603E-17  0.1000E-09  0.0000E+00  0.4870E+16
   -0.549982    0.67712  0.2894E-11  0.1219E-13  0.7603E-17  0.1000E-09  0.0000E+00  0.4868E+16
   -0.618732    0.76741  0.2894E-11  0.1219E-13  0.7603E-17  0.1000E-09  0.0000E+00  0.4881E+16
   -0.687482    0.86070  0.2894E-11  0.1219E-13  0.7603E-17  0.1000E-09  0.0000E+00  0.4917E+16
   -0.756233    0.95774  0.2894E-11  0.1219E-13  0.7603E-17  0.1000E-09  0.0000E+00  0.4965E+16
   -0.824984    1.05916  0.2894E-11  0.1219E-13  0.7603E-17  0.1000E-09  0.0000E+00  0.5010E+16
   -0.893735    1.16540  0.2894E-11  0.1219E-13  0.7603E-17  0.1000E-09  0.0000E+00  0.5047E+16
   -0.962487    1.27681  0.2894E-11  0.1219E-13  0.7603E-17  0.1000E-09  0.0000E+00  0.5069E+16
   -1.031238    1.39376  0.2893E-11  0.1219E-13  0.7603E-17  0.1000E-09  0.0000E+00  0.5070E+16
   -1.099990    1.51651  0.2891E-11  0.1219E-13  0.7603E-17  0.1000E-09  0.0000E+00  0.5045E+16
   -1.168742    1.64531  0.2885E-11  0.5537E-13  0.1113E-16  0.1000E-09  0.0000E+00  0.4987E+16
   -1.237494    1.78031  0.2875E-11  0.1693E-12  0.2795E-16  0.1000E-09  0.0000E+00  0.4892E+16
   -1.306246    1.92163  0.2860E-11  0.4607E-12  0.7211E-16  0.1000E-09  0.0000E+00  0.4754E+16
   -1.374999    2.06929  0.2843E-11  0.1210E-11  0.1831E-15  0.1000E-09  0.0000E+00  0.4581E+16
   -1.443751    2.22362  0.2830E-11  0.3122E-11  0.4580E-15  0.1000E-09  0.0000E+00  0.4358E+16
   -1.512503    2.38461  0.2822E-11  0.7941E-11  0.1131E-14  0.1000E-09  0.0000E+00  0.4080E+16
   -1.581255    2.55209  0.2817E-11  0.1993E-10  0.2755E-14  0.1000E-09  0.0000E+00  0.3746E+16
   -1.650007    2.72580  0.2814E-11  0.4940E-10  0.6631E-14  0.1000E-09  0.0000E+00  0.3356E+16
   -1.718759    2.90541  0.2812E-11  0.1209E-09  0.1577E-13  0.1000E-09  0.0000E+00  0.2914E+16
   -1.787511    3.09067  0.2811E-11  0.2999E-09  0.3798E-13  0.1000E-09  0.0000E+00  0.2449E+16
   -1.856262    3.28387  0.2810E-11  0.7473E-09  0.9197E-13  0.2437E-09  0.0000E+00  0.1920E+16
   -1.925014    3.48570  0.2808E-11  0.1853E-08  0.2217E-12  0.8570E-09  0.0000E+00  0.1316E+16
   -1.993765    3.69715  0.2805E-11  0.4560E-08  0.5309E-12  0.4376E-08  0.0000E+00  0.6174E+15
   -2.062515    3.91554  0.2802E-11  0.9959E-08  0.1140E-11  0.1908E-06  0.0000E+00  0.3189E+14
   -2.131266    4.01800  0.2801E-11  0.1135E-07  0.1307E-11  0.4163E-04  0.0000E+00 -0.3984E+12
   -2.200015    4.01880  0.2801E-11  0.1190E-07  0.1394E-11  0.4159E-04  0.0000E+00 -0.4061E+12
   -2.268765    4.01959  0.2801E-11  0.1232E-07  0.1486E-11  0.4049E-04  0.0000E+00 -0.4257E+12
   -2.337514    4.02040  0.2801E-11  0.1261E-07  0.1597E-11  0.3815E-04  0.0000E+00 -0.4618E+12
   -2.406263    4.02125  0.2801E-11  0.1277E-07  0.1742E-11  0.3438E-04  0.0000E+00 -0.5253E+12
   -2.475011    4.02220  0.2801E-11  0.1278E-07  0.1958E-11  0.2891E-04  0.0000E+00 -0.6440E+12
   -2.543758    4.02333  0.2801E-11  0.1256E-07  0.2337E-11  0.2144E-04  0.0000E+00 -0.9049E+12
   -2.612505    4.02486  0.2801E-11  0.1187E-07  0.3246E-11  0.1182E-04  0.0000E+00 -0.1763E+13
   -2.681252    4.02768  0.2801E-11  0.8723E-08  0.8864E-11  0.1654E-05  0.0000E+00 -0.1652E+14
   -2.749997    4.04813  0.2801E-11  0.0000E+00  0.0000E+00  0.0000E+00  0.0000E+00  0.0000E+00
