 1 - depth, m
 2 - temperature, C
 3 - salinity, kg/kg
 4 - turbulent kinetic energy, m**2/s**2
 5 - dissipation rate, m**2/s**3
 6 - kinematic heat conductance, m**2/s
 7 - modulus of horizontal velocity, m/s
 8 - Richardson number, n/d
   -0.000000   -0.00000  0.1390E-11  0.1219E-13  0.7603E-17  0.1000E-09  0.0000E+00  0.4176E+16
   -0.068746    0.06318  0.7656E-12  0.1219E-13  0.7603E-17  0.1000E-09  0.0000E+00  0.3989E+16
   -0.137492    0.12456  0.6156E-12  0.1219E-13  0.7603E-17  0.1000E-09  0.0000E+00  0.3841E+16
   -0.206239    0.18466  0.5836E-12  0.1219E-13  0.7603E-17  0.1000E-09  0.0000E+00  0.3730E+16
   -0.274987    0.24401  0.5775E-12  0.1219E-13  0.7603E-17  0.1000E-09  0.0000E+00  0.3656E+16
   -0.343735    0.30317  0.5765E-12  0.1219E-13  0.7603E-17  0.1000E-09  0.0000E+00  0.3619E+16
   -0.412483    0.36276  0.5764E-12  0.1219E-13  0.7603E-17  0.1000E-09  0.0000E+00  0.3620E+16
   -0.481232    0.42341  0.5764E-12  0.1219E-13  0.7603E-17  0.1000E-09  0.0000E+00  0.3657E+16
   -0.549982    0.48581  0.5764E-12  0.1219E-13  0.7603E-17  0.1000E-09  0.0000E+00  0.3729E+16
   -0.618732    0.55068  0.5764E-12  0.1219E-13  0.7603E-17  0.1000E-09  0.0000E+00  0.3834E+16
   -0.687482    0.61875  0.5764E-12  0.1219E-13  0.7603E-17  0.1000E-09  0.0000E+00  0.3985E+16
   -0.756233    0.69109  0.5764E-12  0.1219E-13  0.7603E-17  0.1000E-09  0.0000E+00  0.4171E+16
   -0.824984    0.76865  0.5764E-12  0.1219E-13  0.7603E-17  0.1000E-09  0.0000E+00  0.4377E+16
   -0.893735    0.85221  0.5764E-12  0.1219E-13  0.7603E-17  0.1000E-09  0.0000E+00  0.4594E+16
   -0.962486    0.94251  0.5764E-12  0.1219E-13  0.7603E-17  0.1000E-09  0.0000E+00  0.4816E+16
   -1.031238    1.04031  0.5763E-12  0.1219E-13  0.7603E-17  0.1000E-09  0.0000E+00  0.5033E+16
   -1.099990    1.14629  0.5762E-12  0.1219E-13  0.7603E-17  0.1000E-09  0.0000E+00  0.5234E+16
   -1.168742    1.26108  0.5758E-12  0.4871E-13  0.9159E-17  0.1000E-09  0.0000E+00  0.5408E+16
   -1.237494    1.38526  0.5746E-12  0.1435E-12  0.2098E-16  0.1000E-09  0.0000E+00  0.5543E+16
   -1.306246    1.51930  0.5721E-12  0.3717E-12  0.5104E-16  0.1000E-09  0.0000E+00  0.5627E+16
   -1.374999    1.66363  0.5684E-12  0.9248E-12  0.1228E-15  0.1000E-09  0.0000E+00  0.5670E+16
   -1.443751    1.81916  0.5650E-12  0.2260E-11  0.2916E-15  0.1000E-09  0.0000E+00  0.5642E+16
   -1.512503    1.98631  0.5631E-12  0.5454E-11  0.6847E-15  0.1000E-09  0.0000E+00  0.5521E+16
   -1.581255    2.16523  0.5621E-12  0.1301E-10  0.1591E-14  0.1000E-09  0.0000E+00  0.5300E+16
   -1.650007    2.35595  0.5614E-12  0.3073E-10  0.3657E-14  0.1000E-09  0.0000E+00  0.4968E+16
   -1.718759    2.55835  0.5610E-12  0.7180E-10  0.8324E-14  0.1000E-09  0.0000E+00  0.4519E+16
   -1.787511    2.77215  0.5608E-12  0.1702E-09  0.1922E-13  0.1000E-09  0.0000E+00  0.3960E+16
   -1.856262    2.99769  0.5607E-12  0.4066E-09  0.4474E-13  0.1000E-09  0.0000E+00  0.3282E+16
   -1.925013    3.23522  0.5606E-12  0.9687E-09  0.1039E-12  0.2142E-09  0.0000E+00  0.2472E+16
   -1.993764    3.48463  0.5603E-12  0.2300E-08  0.2407E-12  0.8076E-09  0.0000E+00  0.1520E+16
   -2.062515    3.74371  0.5593E-12  0.5306E-08  0.5420E-12  0.6001E-08  0.0000E+00  0.4613E+15
   -2.131265    3.99750  0.5583E-12  0.6424E-08  0.6613E-12  0.2314E-04  0.0000E+00 -0.3004E+12
   -2.200015    3.99911  0.5583E-12  0.6917E-08  0.7297E-12  0.2482E-04  0.0000E+00 -0.3188E+12
   -2.268765    4.00062  0.5583E-12  0.7323E-08  0.8064E-12  0.2538E-04  0.0000E+00 -0.3486E+12
   -2.337514    4.00210  0.5583E-12  0.7657E-08  0.8995E-12  0.2475E-04  0.0000E+00 -0.3960E+12
   -2.406262    4.00363  0.5583E-12  0.7912E-08  0.1021E-11  0.2286E-04  0.0000E+00 -0.4741E+12
   -2.475011    4.00530  0.5583E-12  0.8069E-08  0.1198E-11  0.1954E-04  0.0000E+00 -0.6168E+12
   -2.543758    4.00727  0.5583E-12  0.8074E-08  0.1501E-11  0.1462E-04  0.0000E+00 -0.9341E+12
   -2.612505    4.00995  0.5583E-12  0.7764E-08  0.2210E-11  0.8079E-05  0.0000E+00 -0.2029E+13
   -2.681251    4.01491  0.5583E-12  0.6118E-08  0.6078E-11  0.1406E-05  0.0000E+00 -0.1979E+14
   -2.749997    4.04415  0.5583E-12  0.0000E+00  0.0000E+00  0.0000E+00  0.0000E+00  0.0000E+00
