 1 - depth, m
 2 - temperature, C
 3 - salinity, kg/kg
 4 - turbulent kinetic energy, m**2/s**2
 5 - dissipation rate, m**2/s**3
 6 - kinematic heat conductance, m**2/s
 7 - modulus of horizontal velocity, m/s
 8 - Richardson number, n/d
   -0.000000   -0.00000  0.6802E-11  0.1219E-13  0.7603E-17  0.1000E-09  0.0000E+00  0.7538E+16
   -0.068746    0.11484  0.1160E-10  0.1219E-13  0.7603E-17  0.1000E-09  0.0000E+00  0.7418E+16
   -0.137493    0.23152  0.1262E-10  0.1219E-13  0.7603E-17  0.1000E-09  0.0000E+00  0.7261E+16
   -0.206240    0.34958  0.1220E-10  0.1219E-13  0.7603E-17  0.1000E-09  0.0000E+00  0.7075E+16
   -0.274988    0.46868  0.1122E-10  0.1219E-13  0.7603E-17  0.1000E-09  0.0000E+00  0.6869E+16
   -0.343736    0.58855  0.1025E-10  0.1219E-13  0.7603E-17  0.1000E-09  0.0000E+00  0.6647E+16
   -0.412485    0.70896  0.9535E-11  0.1219E-13  0.7603E-17  0.1000E-09  0.0000E+00  0.6412E+16
   -0.481234    0.82973  0.9098E-11  0.1219E-13  0.7603E-17  0.1000E-09  0.0000E+00  0.6169E+16
   -0.549984    0.95068  0.8867E-11  0.1219E-13  0.7603E-17  0.1000E-09  0.0000E+00  0.5918E+16
   -0.618734    1.07168  0.8756E-11  0.1219E-13  0.7603E-17  0.1000E-09  0.0000E+00  0.5662E+16
   -0.687485    1.19259  0.8708E-11  0.1219E-13  0.7603E-17  0.1000E-09  0.0000E+00  0.5404E+16
   -0.756236    1.31335  0.8688E-11  0.1219E-13  0.7603E-17  0.1000E-09  0.0000E+00  0.5146E+16
   -0.824987    1.43388  0.8678E-11  0.1219E-13  0.7603E-17  0.1000E-09  0.0000E+00  0.4887E+16
   -0.893738    1.55411  0.8672E-11  0.1219E-13  0.7603E-17  0.1000E-09  0.0000E+00  0.4627E+16
   -0.962490    1.67396  0.8665E-11  0.1219E-13  0.7603E-17  0.1000E-09  0.0000E+00  0.4369E+16
   -1.031242    1.79337  0.8655E-11  0.1219E-13  0.7603E-17  0.1000E-09  0.0000E+00  0.4113E+16
   -1.099994    1.91228  0.8641E-11  0.1219E-13  0.7603E-17  0.1000E-09  0.0000E+00  0.3858E+16
   -1.168746    2.03063  0.8623E-11  0.1219E-13  0.7603E-17  0.1000E-09  0.0000E+00  0.3607E+16
   -1.237499    2.14838  0.8601E-11  0.1219E-13  0.7603E-17  0.1000E-09  0.0000E+00  0.3358E+16
   -1.306251    2.26547  0.8577E-11  0.1219E-13  0.7603E-17  0.1000E-09  0.0000E+00  0.3113E+16
   -1.375004    2.38187  0.8551E-11  0.1219E-13  0.7603E-17  0.1000E-09  0.0000E+00  0.2873E+16
   -1.443756    2.49757  0.8526E-11  0.1219E-13  0.7603E-17  0.1000E-09  0.0000E+00  0.2637E+16
   -1.512509    2.61255  0.8504E-11  0.1219E-13  0.7603E-17  0.1000E-09  0.0000E+00  0.2406E+16
   -1.581261    2.72680  0.8485E-11  0.1219E-13  0.7603E-17  0.1000E-09  0.0000E+00  0.2180E+16
   -1.650013    2.84031  0.8469E-11  0.3848E-13  0.8652E-17  0.1000E-09  0.0000E+00  0.1959E+16
   -1.718765    2.95309  0.8457E-11  0.1196E-12  0.2124E-16  0.1000E-09  0.0000E+00  0.1742E+16
   -1.787517    3.06515  0.8448E-11  0.3444E-12  0.5759E-16  0.1000E-09  0.0000E+00  0.1518E+16
   -1.856269    3.17550  0.8440E-11  0.9712E-12  0.1568E-15  0.1000E-09  0.0000E+00  0.1300E+16
   -1.925021    3.28387  0.8434E-11  0.2705E-11  0.4232E-15  0.1000E-09  0.0000E+00  0.1090E+16
   -1.993772    3.38991  0.8429E-11  0.7473E-11  0.1134E-14  0.1000E-09  0.0000E+00  0.8918E+15
   -2.062523    3.49355  0.8425E-11  0.2000E-10  0.2946E-14  0.1000E-09  0.0000E+00  0.7173E+15
   -2.131273    3.59661  0.8422E-11  0.5272E-10  0.7542E-14  0.1000E-09  0.0000E+00  0.5474E+15
   -2.200024    3.69933  0.8421E-11  0.1376E-09  0.1911E-13  0.2559E-09  0.0000E+00  0.3795E+15
   -2.268773    3.80168  0.8420E-11  0.3583E-09  0.4838E-13  0.1150E-08  0.0000E+00  0.2135E+15
   -2.337523    3.90333  0.8420E-11  0.9366E-09  0.1231E-12  0.1171E-07  0.0000E+00  0.5288E+14
   -2.406272    3.99814  0.8420E-11  0.1707E-08  0.2253E-12  0.5524E-05  0.0000E+00 -0.5248E+12
   -2.475020    4.00070  0.8420E-11  0.2020E-08  0.2902E-12  0.5664E-05  0.0000E+00 -0.6075E+12
   -2.543768    4.00318  0.8420E-11  0.2191E-08  0.3758E-12  0.4769E-05  0.0000E+00 -0.8376E+12
   -2.612515    4.00610  0.8420E-11  0.2169E-08  0.5447E-12  0.2814E-05  0.0000E+00 -0.1674E+13
   -2.681261    4.01091  0.8420E-11  0.1652E-08  0.1271E-11  0.5020E-06  0.0000E+00 -0.1216E+14
   -2.750007    4.03277  0.8420E-11  0.0000E+00  0.0000E+00  0.0000E+00  0.0000E+00  0.0000E+00
