 1 - depth, m
 2 - temperature, C
 3 - salinity, kg/kg
 4 - turbulent kinetic energy, m**2/s**2
 5 - dissipation rate, m**2/s**3
 6 - kinematic heat conductance, m**2/s
 7 - modulus of horizontal velocity, m/s
 8 - Richardson number, n/d
   -0.000000   10.51759  0.1138E-10  0.2637E-04  0.2137E-05  0.3337E-04  0.6611E-01  0.1909E-02
   -0.068746   10.51024  0.1138E-10  0.2089E-04  0.6031E-06  0.7327E-04  0.5015E-01  0.9561E-02
   -0.137492   10.50580  0.1139E-10  0.1826E-04  0.3079E-06  0.1014E-03  0.4494E-01  0.2126E-01
   -0.206239   10.50155  0.1139E-10  0.1625E-04  0.1962E-06  0.1192E-03  0.4157E-01  0.3919E-01
   -0.274987   10.49705  0.1139E-10  0.1447E-04  0.1392E-06  0.1265E-03  0.3906E-01  0.6514E-01
   -0.343735   10.49187  0.1139E-10  0.1281E-04  0.1050E-06  0.1241E-03  0.3701E-01  0.1010E+00
   -0.412484   10.48534  0.1139E-10  0.1123E-04  0.8253E-07  0.1139E-03  0.3521E-01  0.1484E+00
   -0.481233   10.47597  0.1139E-10  0.9687E-05  0.6712E-07  0.9839E-04  0.3351E-01  0.2052E+00
   -0.549983   10.45920  0.1139E-10  0.8141E-05  0.5645E-07  0.8047E-04  0.3175E-01  0.2613E+00
   -0.618733   10.41270  0.1139E-10  0.6537E-05  0.4649E-07  0.6247E-04  0.2956E-01  0.3184E+00
   -0.687484   10.16978  0.1140E-10  0.5100E-05  0.3667E-07  0.4605E-04  0.2600E-01  0.3796E+00
   -0.756234    9.85968  0.1141E-10  0.3937E-05  0.2879E-07  0.3186E-04  0.2187E-01  0.5037E+00
   -0.824986    9.58017  0.1142E-10  0.3053E-05  0.2224E-07  0.2054E-04  0.1791E-01  0.9460E+00
   -0.893737    9.34620  0.1143E-10  0.2356E-05  0.1675E-07  0.1892E-04  0.1436E-01  0.3184E+01
   -0.962489    9.14417  0.1143E-10  0.1774E-05  0.1192E-07  0.3423E-04  0.1115E-01  0.4913E+01
   -1.031240    8.93981  0.1144E-10  0.1338E-05  0.7735E-08  0.6523E-04  0.8055E-02  0.4570E+01
   -1.099992    8.71476  0.1145E-10  0.1127E-05  0.4215E-08  0.1160E-03  0.5014E-02  0.3845E+02
   -1.168745    8.49318  0.1146E-10  0.1199E-05  0.1535E-08  0.2675E-03  0.2356E-02  0.1765E+03
   -1.237497    8.34860  0.1146E-10  0.1384E-05  0.1161E-08  0.3897E-03  0.7581E-03  0.9938E+02
   -1.306249    8.31964  0.1146E-10  0.1508E-05  0.1070E-08  0.4876E-03  0.2509E-03  0.8453E+02
   -1.375002    8.31583  0.1146E-10  0.1571E-05  0.1090E-08  0.5946E-03  0.1310E-03  0.1383E+04
   -1.443754    8.31584  0.1146E-10  0.1625E-05  0.1125E-08  0.7094E-03  0.1130E-03  0.8842E+02
   -1.512506    8.31594  0.1146E-10  0.1674E-05  0.1166E-08  0.7717E-03  0.1007E-03  0.7389E+03
   -1.581258    8.31608  0.1146E-10  0.1722E-05  0.1212E-08  0.7849E-03  0.9071E-04  0.1308E+02
   -1.650011    8.31626  0.1146E-10  0.1768E-05  0.1262E-08  0.7870E-03  0.8135E-04  0.1508E+02
   -1.718763    8.31648  0.1146E-10  0.1811E-05  0.1316E-08  0.7882E-03  0.7209E-04  0.1843E+02
   -1.787515    8.31675  0.1146E-10  0.1852E-05  0.1374E-08  0.7873E-03  0.6296E-04  0.2244E+02
   -1.856266    8.31703  0.1146E-10  0.1891E-05  0.1440E-08  0.7831E-03  0.5492E-04  0.3124E+02
   -1.925018    8.31734  0.1146E-10  0.1929E-05  0.1515E-08  0.7741E-03  0.4789E-04  0.4429E+02
   -1.993769    8.31766  0.1146E-10  0.1965E-05  0.1602E-08  0.7600E-03  0.4182E-04  0.6456E+02
   -2.062520    8.31801  0.1146E-10  0.1999E-05  0.1700E-08  0.7408E-03  0.3648E-04  0.9594E+02
   -2.131270    8.31839  0.1146E-10  0.2028E-05  0.1811E-08  0.7164E-03  0.3156E-04  0.1351E+03
   -2.200020    8.31882  0.1146E-10  0.2052E-05  0.1937E-08  0.6864E-03  0.2699E-04  0.1979E+03
   -2.268770    8.31930  0.1146E-10  0.2069E-05  0.2086E-08  0.6501E-03  0.2270E-04  0.2973E+03
   -2.337519    8.31984  0.1146E-10  0.2078E-05  0.2273E-08  0.6050E-03  0.1880E-04  0.4932E+03
   -2.406268    8.32045  0.1146E-10  0.2078E-05  0.2523E-08  0.5496E-03  0.1530E-04  0.9232E+03
   -2.475016    8.32115  0.1146E-10  0.2065E-05  0.2885E-08  0.4813E-03  0.1214E-04  0.2036E+04
   -2.543764    8.32199  0.1146E-10  0.2030E-05  0.3475E-08  0.3941E-03  0.9316E-05  0.6223E+04
   -2.612511    8.32307  0.1146E-10  0.1956E-05  0.4675E-08  0.3014E-03  0.6745E-05  0.3798E+05
   -2.681257    8.32454  0.1146E-10  0.1369E-05  0.1636E-07  0.1957E-04  0.4582E-05 -0.1030E+07
   -2.750003    8.34868  0.1146E-10  0.0000E+00  0.0000E+00  0.0000E+00  0.4583E-05  0.0000E+00
