 1 - depth, m
 2 - temperature, C
 3 - salinity, kg/kg
 4 - turbulent kinetic energy, m**2/s**2
 5 - dissipation rate, m**2/s**3
 6 - kinematic heat conductance, m**2/s
 7 - modulus of horizontal velocity, m/s
 8 - Richardson number, n/d
   -0.000000   -0.00000  0.5100E-12  0.1219E-13  0.7603E-17  0.1000E-09  0.0000E+00  0.6821E+16
   -0.068746    0.10376  0.2722E-11  0.1219E-13  0.7603E-17  0.1000E-09  0.0000E+00  0.6738E+16
   -0.137493    0.20926  0.4419E-11  0.1219E-13  0.7603E-17  0.1000E-09  0.0000E+00  0.6641E+16
   -0.206240    0.31640  0.5130E-11  0.1219E-13  0.7603E-17  0.1000E-09  0.0000E+00  0.6529E+16
   -0.274988    0.42507  0.5152E-11  0.1219E-13  0.7603E-17  0.1000E-09  0.0000E+00  0.6401E+16
   -0.343736    0.53514  0.4861E-11  0.1219E-13  0.7603E-17  0.1000E-09  0.0000E+00  0.6258E+16
   -0.412485    0.64647  0.4511E-11  0.1219E-13  0.7603E-17  0.1000E-09  0.0000E+00  0.6101E+16
   -0.481234    0.75892  0.4224E-11  0.1219E-13  0.7603E-17  0.1000E-09  0.0000E+00  0.5932E+16
   -0.549984    0.87235  0.4030E-11  0.1219E-13  0.7603E-17  0.1000E-09  0.0000E+00  0.5750E+16
   -0.618734    0.98662  0.3917E-11  0.1219E-13  0.7603E-17  0.1000E-09  0.0000E+00  0.5558E+16
   -0.687485    1.10159  0.3857E-11  0.1219E-13  0.7603E-17  0.1000E-09  0.0000E+00  0.5358E+16
   -0.756236    1.21717  0.3828E-11  0.1219E-13  0.7603E-17  0.1000E-09  0.0000E+00  0.5150E+16
   -0.824987    1.33323  0.3815E-11  0.1219E-13  0.7603E-17  0.1000E-09  0.0000E+00  0.4936E+16
   -0.893738    1.44967  0.3809E-11  0.1219E-13  0.7603E-17  0.1000E-09  0.0000E+00  0.4716E+16
   -0.962490    1.56639  0.3805E-11  0.1219E-13  0.7603E-17  0.1000E-09  0.0000E+00  0.4493E+16
   -1.031242    1.68331  0.3801E-11  0.1219E-13  0.7603E-17  0.1000E-09  0.0000E+00  0.4266E+16
   -1.099994    1.80035  0.3796E-11  0.1219E-13  0.7603E-17  0.1000E-09  0.0000E+00  0.4037E+16
   -1.168747    1.91742  0.3790E-11  0.1219E-13  0.7603E-17  0.1000E-09  0.0000E+00  0.3807E+16
   -1.237499    2.03448  0.3782E-11  0.1219E-13  0.7603E-17  0.1000E-09  0.0000E+00  0.3577E+16
   -1.306251    2.15147  0.3772E-11  0.1219E-13  0.7603E-17  0.1000E-09  0.0000E+00  0.3346E+16
   -1.375004    2.26835  0.3762E-11  0.1219E-13  0.7603E-17  0.1000E-09  0.0000E+00  0.3117E+16
   -1.443756    2.38511  0.3751E-11  0.1219E-13  0.7603E-17  0.1000E-09  0.0000E+00  0.2889E+16
   -1.512509    2.50174  0.3741E-11  0.1219E-13  0.7603E-17  0.1000E-09  0.0000E+00  0.2662E+16
   -1.581261    2.61821  0.3731E-11  0.1219E-13  0.7603E-17  0.1000E-09  0.0000E+00  0.2437E+16
   -1.650013    2.73453  0.3723E-11  0.1219E-13  0.7603E-17  0.1000E-09  0.0000E+00  0.2214E+16
   -1.718766    2.85068  0.3716E-11  0.1219E-13  0.7603E-17  0.1000E-09  0.0000E+00  0.1991E+16
   -1.787518    2.96660  0.3711E-11  0.3412E-13  0.9513E-17  0.1000E-09  0.0000E+00  0.1747E+16
   -1.856269    3.08068  0.3707E-11  0.1212E-12  0.2807E-16  0.1000E-09  0.0000E+00  0.1509E+16
   -1.925021    3.19250  0.3704E-11  0.4042E-12  0.8897E-16  0.1000E-09  0.0000E+00  0.1278E+16
   -1.993772    3.30154  0.3701E-11  0.1316E-11  0.2796E-15  0.1000E-09  0.0000E+00  0.1061E+16
   -2.062523    3.40770  0.3698E-11  0.4125E-11  0.8473E-15  0.1000E-09  0.0000E+00  0.8772E+15
   -2.131274    3.51332  0.3696E-11  0.1270E-10  0.2524E-14  0.1000E-09  0.0000E+00  0.6981E+15
   -2.200024    3.61864  0.3695E-11  0.3859E-10  0.7424E-14  0.1000E-09  0.0000E+00  0.5211E+15
   -2.268774    3.72367  0.3694E-11  0.1168E-09  0.2176E-13  0.3191E-09  0.0000E+00  0.3456E+15
   -2.337523    3.82819  0.3694E-11  0.3558E-09  0.6427E-13  0.1883E-08  0.0000E+00  0.1723E+15
   -2.406272    3.93116  0.3694E-11  0.1060E-08  0.1863E-12  0.4531E-07  0.0000E+00  0.1960E+14
   -2.475020    4.00958  0.3694E-11  0.2154E-08  0.3842E-12  0.5545E-05  0.0000E+00 -0.9844E+12
   -2.543768    4.01214  0.3694E-11  0.2500E-08  0.5014E-12  0.5032E-05  0.0000E+00 -0.1185E+13
   -2.612515    4.01492  0.3694E-11  0.2530E-08  0.6901E-12  0.3179E-05  0.0000E+00 -0.2031E+13
   -2.681262    4.01914  0.3694E-11  0.1873E-08  0.1477E-11  0.5389E-06  0.0000E+00 -0.1238E+14
   -2.750008    4.03787  0.3694E-11  0.0000E+00  0.0000E+00  0.0000E+00  0.0000E+00  0.0000E+00
