 1 - depth, m
 2 - temperature, C
 3 - salinity, kg/kg
 4 - turbulent kinetic energy, m**2/s**2
 5 - dissipation rate, m**2/s**3
 6 - kinematic heat conductance, m**2/s
 7 - modulus of horizontal velocity, m/s
 8 - Richardson number, n/d
   -0.000000   -0.00000  0.1071E-10  0.1219E-13  0.7603E-17  0.1000E-09  0.0000E+00  0.7074E+16
   -0.068746    0.10767  0.6240E-11  0.1219E-13  0.7603E-17  0.1000E-09  0.0000E+00  0.6795E+16
   -0.137492    0.21418  0.4540E-11  0.1219E-13  0.7603E-17  0.1000E-09  0.0000E+00  0.6548E+16
   -0.206239    0.31994  0.3997E-11  0.1219E-13  0.7603E-17  0.1000E-09  0.0000E+00  0.6329E+16
   -0.274986    0.42534  0.3851E-11  0.1219E-13  0.7603E-17  0.1000E-09  0.0000E+00  0.6135E+16
   -0.343735    0.53078  0.3817E-11  0.1219E-13  0.7603E-17  0.1000E-09  0.0000E+00  0.5962E+16
   -0.412483    0.63661  0.3810E-11  0.1219E-13  0.7603E-17  0.1000E-09  0.0000E+00  0.5807E+16
   -0.481232    0.74320  0.3808E-11  0.1219E-13  0.7603E-17  0.1000E-09  0.0000E+00  0.5666E+16
   -0.549982    0.85088  0.3808E-11  0.1219E-13  0.7603E-17  0.1000E-09  0.0000E+00  0.5534E+16
   -0.618732    0.95996  0.3808E-11  0.1219E-13  0.7603E-17  0.1000E-09  0.0000E+00  0.5410E+16
   -0.687482    1.07074  0.3808E-11  0.1219E-13  0.7603E-17  0.1000E-09  0.0000E+00  0.5300E+16
   -0.756233    1.18373  0.3808E-11  0.1219E-13  0.7603E-17  0.1000E-09  0.0000E+00  0.5196E+16
   -0.824984    1.29932  0.3808E-11  0.1219E-13  0.7603E-17  0.1000E-09  0.0000E+00  0.5085E+16
   -0.893735    1.41773  0.3808E-11  0.1219E-13  0.7603E-17  0.1000E-09  0.0000E+00  0.4966E+16
   -0.962486    1.53912  0.3807E-11  0.1219E-13  0.7603E-17  0.1000E-09  0.0000E+00  0.4835E+16
   -1.031238    1.66366  0.3805E-11  0.3636E-13  0.7855E-17  0.1000E-09  0.0000E+00  0.4689E+16
   -1.099990    1.79146  0.3801E-11  0.1028E-12  0.1263E-16  0.1000E-09  0.0000E+00  0.4526E+16
   -1.168742    1.92259  0.3794E-11  0.2446E-12  0.2590E-16  0.1000E-09  0.0000E+00  0.4344E+16
   -1.237494    2.05710  0.3782E-11  0.5401E-12  0.5452E-16  0.1000E-09  0.0000E+00  0.4140E+16
   -1.306246    2.19498  0.3765E-11  0.1158E-11  0.1137E-15  0.1000E-09  0.0000E+00  0.3913E+16
   -1.374998    2.33620  0.3747E-11  0.2446E-11  0.2347E-15  0.1000E-09  0.0000E+00  0.3668E+16
   -1.443751    2.48092  0.3731E-11  0.5117E-11  0.4809E-15  0.1000E-09  0.0000E+00  0.3399E+16
   -1.512503    2.62912  0.3720E-11  0.1062E-10  0.9795E-15  0.1000E-09  0.0000E+00  0.3105E+16
   -1.581255    2.78068  0.3713E-11  0.2191E-10  0.1986E-14  0.1000E-09  0.0000E+00  0.2786E+16
   -1.650007    2.93553  0.3709E-11  0.4499E-10  0.4016E-14  0.1000E-09  0.0000E+00  0.2445E+16
   -1.718759    3.09370  0.3707E-11  0.9210E-10  0.8110E-14  0.1000E-09  0.0000E+00  0.2084E+16
   -1.787511    3.25553  0.3705E-11  0.1924E-09  0.1674E-13  0.1000E-09  0.0000E+00  0.1727E+16
   -1.856262    3.42435  0.3703E-11  0.4093E-09  0.3525E-13  0.1382E-09  0.0000E+00  0.1315E+16
   -1.925013    3.60014  0.3700E-11  0.8786E-09  0.7500E-13  0.4595E-09  0.0000E+00  0.8354E+15
   -1.993764    3.77927  0.3695E-11  0.1900E-08  0.1610E-12  0.2533E-08  0.0000E+00  0.3192E+15
   -2.062515    3.94828  0.3692E-11  0.3536E-08  0.3051E-12  0.1987E-05  0.0000E+00  0.1621E+14
   -2.131265    3.99971  0.3692E-11  0.4237E-08  0.3723E-12  0.1856E-04  0.0000E+00 -0.2087E+12
   -2.200015    4.00100  0.3692E-11  0.4601E-08  0.4163E-12  0.2015E-04  0.0000E+00 -0.2278E+12
   -2.268765    4.00217  0.3692E-11  0.4904E-08  0.4649E-12  0.2066E-04  0.0000E+00 -0.2537E+12
   -2.337514    4.00332  0.3692E-11  0.5156E-08  0.5233E-12  0.2014E-04  0.0000E+00 -0.2926E+12
   -2.406262    4.00452  0.3692E-11  0.5352E-08  0.5987E-12  0.1855E-04  0.0000E+00 -0.3552E+12
   -2.475010    4.00585  0.3692E-11  0.5475E-08  0.7072E-12  0.1577E-04  0.0000E+00 -0.4689E+12
   -2.543758    4.00745  0.3692E-11  0.5484E-08  0.8911E-12  0.1167E-04  0.0000E+00 -0.7226E+12
   -2.612505    4.00966  0.3692E-11  0.5250E-08  0.1319E-11  0.6280E-05  0.0000E+00 -0.1613E+13
   -2.681251    4.01390  0.3692E-11  0.4004E-08  0.3595E-11  0.9954E-06  0.0000E+00 -0.1582E+14
   -2.749997    4.03923  0.3692E-11  0.0000E+00  0.0000E+00  0.0000E+00  0.0000E+00  0.0000E+00
