 1 - depth, m
 2 - temperature, C
 3 - salinity, kg/kg
 4 - turbulent kinetic energy, m**2/s**2
 5 - dissipation rate, m**2/s**3
 6 - kinematic heat conductance, m**2/s
 7 - modulus of horizontal velocity, m/s
 8 - Richardson number, n/d
   -0.000000   -0.00000  0.1369E-12  0.1219E-13  0.7603E-17  0.1000E-09  0.0000E+00  0.6964E+16
   -0.068746    0.10598  0.8083E-12  0.1219E-13  0.7603E-17  0.1000E-09  0.0000E+00  0.6881E+16
   -0.137493    0.21381  0.1397E-11  0.1219E-13  0.7603E-17  0.1000E-09  0.0000E+00  0.6778E+16
   -0.206240    0.32334  0.1687E-11  0.1219E-13  0.7603E-17  0.1000E-09  0.0000E+00  0.6657E+16
   -0.274988    0.43441  0.1735E-11  0.1219E-13  0.7603E-17  0.1000E-09  0.0000E+00  0.6521E+16
   -0.343736    0.54689  0.1658E-11  0.1219E-13  0.7603E-17  0.1000E-09  0.0000E+00  0.6369E+16
   -0.412485    0.66065  0.1545E-11  0.1219E-13  0.7603E-17  0.1000E-09  0.0000E+00  0.6204E+16
   -0.481234    0.77557  0.1446E-11  0.1219E-13  0.7603E-17  0.1000E-09  0.0000E+00  0.6027E+16
   -0.549984    0.89150  0.1376E-11  0.1219E-13  0.7603E-17  0.1000E-09  0.0000E+00  0.5838E+16
   -0.618734    1.00834  0.1334E-11  0.1219E-13  0.7603E-17  0.1000E-09  0.0000E+00  0.5638E+16
   -0.687485    1.12594  0.1311E-11  0.1219E-13  0.7603E-17  0.1000E-09  0.0000E+00  0.5430E+16
   -0.756236    1.24420  0.1299E-11  0.1219E-13  0.7603E-17  0.1000E-09  0.0000E+00  0.5214E+16
   -0.824987    1.36301  0.1294E-11  0.1219E-13  0.7603E-17  0.1000E-09  0.0000E+00  0.4991E+16
   -0.893739    1.48224  0.1291E-11  0.1219E-13  0.7603E-17  0.1000E-09  0.0000E+00  0.4762E+16
   -0.962491    1.60181  0.1290E-11  0.1219E-13  0.7603E-17  0.1000E-09  0.0000E+00  0.4529E+16
   -1.031243    1.72162  0.1288E-11  0.1219E-13  0.7603E-17  0.1000E-09  0.0000E+00  0.4292E+16
   -1.099995    1.84157  0.1287E-11  0.1219E-13  0.7603E-17  0.1000E-09  0.0000E+00  0.4053E+16
   -1.168747    1.96160  0.1285E-11  0.1219E-13  0.7603E-17  0.1000E-09  0.0000E+00  0.3812E+16
   -1.237500    2.08162  0.1282E-11  0.1219E-13  0.7603E-17  0.1000E-09  0.0000E+00  0.3571E+16
   -1.306252    2.20159  0.1279E-11  0.1219E-13  0.7603E-17  0.1000E-09  0.0000E+00  0.3329E+16
   -1.375005    2.32143  0.1276E-11  0.1219E-13  0.7603E-17  0.1000E-09  0.0000E+00  0.3088E+16
   -1.443757    2.44113  0.1272E-11  0.1219E-13  0.7603E-17  0.1000E-09  0.0000E+00  0.2848E+16
   -1.512510    2.56066  0.1268E-11  0.1219E-13  0.7603E-17  0.1000E-09  0.0000E+00  0.2609E+16
   -1.581262    2.67998  0.1265E-11  0.1219E-13  0.7603E-17  0.1000E-09  0.0000E+00  0.2373E+16
   -1.650014    2.79907  0.1262E-11  0.4624E-13  0.1017E-16  0.1000E-09  0.0000E+00  0.2138E+16
   -1.718766    2.91793  0.1260E-11  0.1448E-12  0.2601E-16  0.1000E-09  0.0000E+00  0.1904E+16
   -1.787518    3.03648  0.1258E-11  0.4196E-12  0.7137E-16  0.1000E-09  0.0000E+00  0.1648E+16
   -1.856270    3.15281  0.1257E-11  0.1193E-11  0.1960E-15  0.1000E-09  0.0000E+00  0.1400E+16
   -1.925022    3.26647  0.1255E-11  0.3352E-11  0.5338E-15  0.1000E-09  0.0000E+00  0.1161E+16
   -1.993773    3.37682  0.1254E-11  0.9342E-11  0.1443E-14  0.1000E-09  0.0000E+00  0.9401E+15
   -2.062524    3.48380  0.1253E-11  0.2521E-10  0.3779E-14  0.1000E-09  0.0000E+00  0.7547E+15
   -2.131275    3.59027  0.1253E-11  0.6704E-10  0.9756E-14  0.1000E-09  0.0000E+00  0.5741E+15
   -2.200025    3.69657  0.1253E-11  0.1764E-09  0.2493E-13  0.3208E-09  0.0000E+00  0.3947E+15
   -2.268775    3.80262  0.1252E-11  0.4631E-09  0.6360E-13  0.1490E-08  0.0000E+00  0.2164E+15
   -2.337524    3.90778  0.1252E-11  0.1216E-08  0.1626E-12  0.1760E-07  0.0000E+00  0.4634E+14
   -2.406273    4.00229  0.1252E-11  0.2107E-08  0.2838E-12  0.7030E-05  0.0000E+00 -0.5567E+12
   -2.475021    4.00438  0.1252E-11  0.2436E-08  0.3530E-12  0.6957E-05  0.0000E+00 -0.6255E+12
   -2.543769    4.00647  0.1252E-11  0.2596E-08  0.4415E-12  0.5774E-05  0.0000E+00 -0.8289E+12
   -2.612516    4.00894  0.1252E-11  0.2527E-08  0.6146E-12  0.3377E-05  0.0000E+00 -0.1566E+13
   -2.681263    4.01300  0.1252E-11  0.1837E-08  0.1401E-11  0.5295E-06  0.0000E+00 -0.1116E+14
   -2.750009    4.03254  0.1252E-11  0.0000E+00  0.0000E+00  0.0000E+00  0.0000E+00  0.0000E+00
