 1 - depth, m
 2 - temperature, C
 3 - salinity, kg/kg
 4 - turbulent kinetic energy, m**2/s**2
 5 - dissipation rate, m**2/s**3
 6 - kinematic heat conductance, m**2/s
 7 - modulus of horizontal velocity, m/s
 8 - Richardson number, n/d
   -0.000000   13.00057  0.8641E-11  0.3050E-04  0.3130E-05  0.3409E-04  0.6386E-01 -0.3898E-02
   -0.068746   13.01473  0.8642E-11  0.2284E-04  0.7742E-06  0.7754E-04  0.4476E-01 -0.9819E-02
   -0.137492   13.01840  0.8642E-11  0.2007E-04  0.3665E-06  0.1148E-03  0.3937E-01 -0.1116E-01
   -0.206239   13.02014  0.8642E-11  0.1816E-04  0.2238E-06  0.1465E-03  0.3599E-01 -0.8753E-02
   -0.274987   13.02091  0.8642E-11  0.1657E-04  0.1552E-06  0.1708E-03  0.3357E-01 -0.1381E-02
   -0.343735   13.02105  0.8642E-11  0.1514E-04  0.1157E-06  0.1863E-03  0.3169E-01  0.1247E-01
   -0.412484   13.02068  0.8642E-11  0.1381E-04  0.9014E-07  0.1928E-03  0.3015E-01  0.3465E-01
   -0.481233   13.01982  0.8642E-11  0.1255E-04  0.7251E-07  0.1908E-03  0.2881E-01  0.6740E-01
   -0.549983   13.01829  0.8642E-11  0.1134E-04  0.5980E-07  0.1816E-03  0.2759E-01  0.1126E+00
   -0.618733   13.01558  0.8643E-11  0.1016E-04  0.5050E-07  0.1671E-03  0.2643E-01  0.1682E+00
   -0.687483   13.00998  0.8643E-11  0.8979E-05  0.4380E-07  0.1500E-03  0.2523E-01  0.2227E+00
   -0.756234   12.99438  0.8644E-11  0.7734E-05  0.3814E-07  0.1321E-03  0.2379E-01  0.2666E+00
   -0.824985   12.90361  0.8648E-11  0.6593E-05  0.3189E-07  0.1146E-03  0.2140E-01  0.3239E+00
   -0.893737   12.78473  0.8653E-11  0.5668E-05  0.2675E-07  0.9785E-04  0.1856E-01  0.4293E+00
   -0.962488   12.67885  0.8657E-11  0.4946E-05  0.2241E-07  0.8341E-04  0.1579E-01  0.1167E+01
   -1.031240   12.59625  0.8661E-11  0.4362E-05  0.1875E-07  0.7751E-04  0.1338E-01  0.2756E+01
   -1.099992   12.52943  0.8664E-11  0.3863E-05  0.1569E-07  0.8575E-04  0.1128E-01  0.3487E+01
   -1.168744   12.47552  0.8667E-11  0.3442E-05  0.1317E-07  0.1090E-03  0.9453E-02  0.4698E+01
   -1.237496   12.43149  0.8670E-11  0.3087E-05  0.1107E-07  0.1879E-03  0.7845E-02  0.5694E+03
   -1.306249   12.39476  0.8672E-11  0.2794E-05  0.9318E-08  0.2904E-03  0.6408E-02  0.1749E+03
   -1.375001   12.36279  0.8674E-11  0.2566E-05  0.7880E-08  0.3628E-03  0.5102E-02  0.8101E+02
   -1.443753   12.33573  0.8676E-11  0.2404E-05  0.6720E-08  0.4205E-03  0.3937E-02  0.3984E+02
   -1.512506   12.31334  0.8677E-11  0.2301E-05  0.5815E-08  0.4668E-03  0.2919E-02  0.3467E+02
   -1.581258   12.29670  0.8679E-11  0.2249E-05  0.5133E-08  0.5077E-03  0.2085E-02  0.7737E+02
   -1.650010   12.28536  0.8680E-11  0.2239E-05  0.4662E-08  0.5478E-03  0.1436E-02  0.4208E+02
   -1.718762   12.27916  0.8681E-11  0.2246E-05  0.4314E-08  0.5692E-03  0.9696E-03  0.2032E+02
   -1.787514   12.27629  0.8681E-11  0.2099E-05  0.3125E-08  0.5875E-03  0.3624E-03  0.1681E+04
   -1.856265   12.27347  0.8681E-11  0.2039E-05  0.2593E-08  0.5965E-03  0.2196E-03  0.1876E+03
   -1.925017   12.27117  0.8682E-11  0.2006E-05  0.2298E-08  0.6021E-03  0.1412E-03  0.4917E+02
   -1.993768   12.26956  0.8682E-11  0.1985E-05  0.2134E-08  0.6397E-03  0.9465E-04  0.7814E+04
   -2.062519   12.26819  0.8682E-11  0.1974E-05  0.2065E-08  0.6164E-03  0.6488E-04  0.7481E+05
   -2.131269   12.26652  0.8683E-11  0.1984E-05  0.2101E-08  0.5945E-03  0.4392E-04  0.1438E+08
   -2.200019   12.26583  0.8683E-11  0.2023E-05  0.2241E-08  0.5782E-03  0.3294E-04  0.1531E+07
   -2.268769   12.26613  0.8683E-11  0.2061E-05  0.2426E-08  0.5561E-03  0.2662E-04  0.6307E+07
   -2.337518   12.26653  0.8683E-11  0.2090E-05  0.2658E-08  0.5250E-03  0.2161E-04  0.1454E+08
   -2.406267   12.26700  0.8683E-11  0.2107E-05  0.2961E-08  0.4834E-03  0.1732E-04  0.2475E+08
   -2.475015   12.26755  0.8683E-11  0.2108E-05  0.3392E-08  0.4280E-03  0.1359E-04  0.2882E+08
   -2.543763   12.26821  0.8683E-11  0.2085E-05  0.4081E-08  0.3548E-03  0.1033E-04  0.9198E+07
   -2.612510   12.26907  0.8683E-11  0.2015E-05  0.5460E-08  0.2734E-03  0.7426E-05  0.1583E+07
   -2.681256   12.27027  0.8683E-11  0.1421E-05  0.1824E-07  0.2035E-04  0.5025E-05 -0.4266E+10
   -2.750002   12.28721  0.8683E-11  0.0000E+00  0.0000E+00  0.0000E+00  0.5027E-05  0.0000E+00
