 1 - depth, m
 2 - temperature, C
 3 - salinity, kg/kg
 4 - turbulent kinetic energy, m**2/s**2
 5 - dissipation rate, m**2/s**3
 6 - kinematic heat conductance, m**2/s
 7 - modulus of horizontal velocity, m/s
 8 - Richardson number, n/d
   -0.000000    6.41980  0.1473E-10  0.9972E-05  0.3306E-06  0.2990E-04  0.2100E-01 -0.2393E-01
   -0.068746    6.46748  0.1473E-10  0.9602E-05  0.1271E-06  0.7698E-04  0.1384E-01 -0.6095E-01
   -0.137492    6.48537  0.1473E-10  0.9245E-05  0.7542E-07  0.1290E-03  0.1107E-01 -0.1030E+00
   -0.206239    6.49570  0.1473E-10  0.8954E-05  0.5244E-07  0.1863E-03  0.9442E-02 -0.1497E+00
   -0.274987    6.50264  0.1473E-10  0.8721E-05  0.3968E-07  0.2501E-03  0.8329E-02 -0.1953E+00
   -0.343735    6.50765  0.1473E-10  0.8536E-05  0.3172E-07  0.3421E-03  0.7508E-02  0.9950E-01
   -0.412484    6.51129  0.1473E-10  0.8393E-05  0.2649E-07  0.5383E-03  0.6875E-02  0.4613E+02
   -0.481233    6.51366  0.1473E-10  0.8296E-05  0.2300E-07  0.8327E-03  0.6389E-02  0.9839E+02
   -0.549983    6.51516  0.1473E-10  0.8241E-05  0.2051E-07  0.1053E-02  0.6003E-02  0.8659E+02
   -0.618733    6.51624  0.1473E-10  0.8210E-05  0.1855E-07  0.1133E-02  0.5656E-02  0.8999E+01
   -0.687483    6.51721  0.1473E-10  0.8192E-05  0.1692E-07  0.1173E-02  0.5324E-02  0.9733E+01
   -0.756234    6.51812  0.1473E-10  0.8179E-05  0.1557E-07  0.1215E-02  0.5009E-02  0.1025E+02
   -0.824985    6.51899  0.1473E-10  0.8169E-05  0.1442E-07  0.1254E-02  0.4708E-02  0.1069E+02
   -0.893737    6.51980  0.1473E-10  0.8156E-05  0.1344E-07  0.1292E-02  0.4421E-02  0.1113E+02
   -0.962488    6.52057  0.1473E-10  0.8139E-05  0.1260E-07  0.1327E-02  0.4144E-02  0.1156E+02
   -1.031240    6.52130  0.1473E-10  0.8116E-05  0.1187E-07  0.1360E-02  0.3877E-02  0.1202E+02
   -1.099992    6.52199  0.1473E-10  0.8084E-05  0.1122E-07  0.1390E-02  0.3618E-02  0.1252E+02
   -1.168744    6.52265  0.1473E-10  0.8044E-05  0.1065E-07  0.1417E-02  0.3366E-02  0.1308E+02
   -1.237496    6.52329  0.1473E-10  0.7992E-05  0.1015E-07  0.1441E-02  0.3120E-02  0.1374E+02
   -1.306249    6.52389  0.1473E-10  0.7929E-05  0.9705E-08  0.1460E-02  0.2879E-02  0.1453E+02
   -1.375001    6.52448  0.1473E-10  0.7854E-05  0.9308E-08  0.1475E-02  0.2642E-02  0.1550E+02
   -1.443753    6.52504  0.1473E-10  0.7765E-05  0.8952E-08  0.1485E-02  0.2410E-02  0.1675E+02
   -1.512506    6.52558  0.1473E-10  0.7663E-05  0.8635E-08  0.1489E-02  0.2180E-02  0.1842E+02
   -1.581258    6.52611  0.1473E-10  0.7545E-05  0.8351E-08  0.1486E-02  0.1952E-02  0.2080E+02
   -1.650010    6.52662  0.1473E-10  0.7412E-05  0.8098E-08  0.1482E-02  0.1726E-02  0.2434E+02
   -1.718762    6.52712  0.1473E-10  0.7261E-05  0.7872E-08  0.1457E-02  0.1502E-02  0.2785E+02
   -1.787514    6.52762  0.1473E-10  0.7090E-05  0.7666E-08  0.1491E-02  0.1277E-02  0.7101E+01
   -1.856266    6.52809  0.1473E-10  0.6904E-05  0.7494E-08  0.1524E-02  0.1087E-02  0.3517E+01
   -1.925017    6.52855  0.1473E-10  0.6711E-05  0.7369E-08  0.1573E-02  0.9268E-03  0.2155E+01
   -1.993768    6.52900  0.1473E-10  0.6517E-05  0.7303E-08  0.1639E-02  0.7940E-03  0.1559E+01
   -2.062519    6.52941  0.1473E-10  0.6334E-05  0.7305E-08  0.1676E-02  0.6833E-03  0.1282E+01
   -2.131269    6.52981  0.1473E-10  0.6163E-05  0.7380E-08  0.1617E-02  0.5871E-03  0.1055E+01
   -2.200019    6.53022  0.1473E-10  0.6007E-05  0.7534E-08  0.1510E-02  0.5029E-03  0.8717E+00
   -2.268769    6.53065  0.1473E-10  0.5868E-05  0.7774E-08  0.1395E-02  0.4297E-03  0.6896E+00
   -2.337518    6.53110  0.1473E-10  0.5742E-05  0.8114E-08  0.1284E-02  0.3687E-03  0.5435E+00
   -2.406267    6.53158  0.1473E-10  0.5627E-05  0.8581E-08  0.1188E-02  0.3194E-03  0.4990E+00
   -2.475015    6.53210  0.1473E-10  0.5510E-05  0.9290E-08  0.1074E-02  0.2792E-03  0.6829E+00
   -2.543763    6.53265  0.1473E-10  0.5374E-05  0.1051E-07  0.9744E-03  0.2416E-03  0.1254E+01
   -2.612510    6.53326  0.1473E-10  0.5140E-05  0.1369E-07  0.5484E-03  0.2073E-03  0.1054E+02
   -2.681256    6.53430  0.1473E-10  0.3282E-05  0.5577E-07  0.2520E-04  0.1579E-03 -0.7086E+03
   -2.750002    6.55658  0.1473E-10  0.0000E+00  0.0000E+00  0.0000E+00  0.1578E-03  0.0000E+00
