 1 - depth, m
 2 - temperature, C
 3 - salinity, kg/kg
 4 - turbulent kinetic energy, m**2/s**2
 5 - dissipation rate, m**2/s**3
 6 - kinematic heat conductance, m**2/s
 7 - modulus of horizontal velocity, m/s
 8 - Richardson number, n/d
   -0.000000    0.00000  0.0000E+00  0.1219E-13  0.7603E-17  0.1000E-09  0.0000E+00  0.4894E+16
   -0.068746    0.07416  0.1382E-11  0.1219E-13  0.7603E-17  0.1000E-09  0.0000E+00  0.5019E+16
   -0.137493    0.15180  0.6604E-11  0.1219E-13  0.7603E-17  0.1000E-09  0.0000E+00  0.5144E+16
   -0.206241    0.23315  0.1279E-10  0.1219E-13  0.7603E-17  0.1000E-09  0.0000E+00  0.5260E+16
   -0.274989    0.31831  0.1726E-10  0.1219E-13  0.7603E-17  0.1000E-09  0.0000E+00  0.5353E+16
   -0.343738    0.40720  0.1928E-10  0.1219E-13  0.7603E-17  0.1000E-09  0.0000E+00  0.5411E+16
   -0.412487    0.49951  0.1941E-10  0.1219E-13  0.7603E-17  0.1000E-09  0.0000E+00  0.5430E+16
   -0.481237    0.59480  0.1857E-10  0.1219E-13  0.7603E-17  0.1000E-09  0.0000E+00  0.5409E+16
   -0.549987    0.69263  0.1749E-10  0.1219E-13  0.7603E-17  0.1000E-09  0.0000E+00  0.5352E+16
   -0.618737    0.79254  0.1656E-10  0.1219E-13  0.7603E-17  0.1000E-09  0.0000E+00  0.5265E+16
   -0.687488    0.89415  0.1590E-10  0.1219E-13  0.7603E-17  0.1000E-09  0.0000E+00  0.5152E+16
   -0.756240    0.99710  0.1549E-10  0.1219E-13  0.7603E-17  0.1000E-09  0.0000E+00  0.5019E+16
   -0.824991    1.10111  0.1526E-10  0.1219E-13  0.7603E-17  0.1000E-09  0.0000E+00  0.4872E+16
   -0.893743    1.20598  0.1514E-10  0.1219E-13  0.7603E-17  0.1000E-09  0.0000E+00  0.4715E+16
   -0.962495    1.31158  0.1508E-10  0.1219E-13  0.7603E-17  0.1000E-09  0.0000E+00  0.4550E+16
   -1.031248    1.41779  0.1505E-10  0.1219E-13  0.7603E-17  0.1000E-09  0.0000E+00  0.4379E+16
   -1.100000    1.52451  0.1503E-10  0.1219E-13  0.7603E-17  0.1000E-09  0.0000E+00  0.4203E+16
   -1.168753    1.63170  0.1501E-10  0.1219E-13  0.7603E-17  0.1000E-09  0.0000E+00  0.4025E+16
   -1.237506    1.73931  0.1499E-10  0.1219E-13  0.7603E-17  0.1000E-09  0.0000E+00  0.3844E+16
   -1.306258    1.84734  0.1497E-10  0.1219E-13  0.7603E-17  0.1000E-09  0.0000E+00  0.3664E+16
   -1.375011    1.95584  0.1494E-10  0.1219E-13  0.7603E-17  0.1000E-09  0.0000E+00  0.3485E+16
   -1.443764    2.06492  0.1490E-10  0.1219E-13  0.7603E-17  0.1000E-09  0.0000E+00  0.3309E+16
   -1.512517    2.17476  0.1486E-10  0.1219E-13  0.7603E-17  0.1000E-09  0.0000E+00  0.3133E+16
   -1.581270    2.28549  0.1482E-10  0.1219E-13  0.7603E-17  0.1000E-09  0.0000E+00  0.2958E+16
   -1.650022    2.39731  0.1478E-10  0.1219E-13  0.7603E-17  0.1000E-09  0.0000E+00  0.2781E+16
   -1.718775    2.51037  0.1475E-10  0.1219E-13  0.7603E-17  0.1000E-09  0.0000E+00  0.2599E+16
   -1.787527    2.62468  0.1472E-10  0.1219E-13  0.7603E-17  0.1000E-09  0.0000E+00  0.2349E+16
   -1.856279    2.73719  0.1469E-10  0.1219E-13  0.7603E-17  0.1000E-09  0.0000E+00  0.2100E+16
   -1.925031    2.84732  0.1467E-10  0.1219E-13  0.7603E-17  0.1000E-09  0.0000E+00  0.1852E+16
   -1.993783    2.95436  0.1466E-10  0.1219E-13  0.7603E-17  0.1000E-09  0.0000E+00  0.1624E+16
   -2.062534    3.05852  0.1464E-10  0.1219E-13  0.7603E-17  0.1000E-09  0.0000E+00  0.1454E+16
   -2.131285    3.16308  0.1463E-10  0.1219E-13  0.7603E-17  0.1000E-09  0.0000E+00  0.1289E+16
   -2.200035    3.26860  0.1462E-10  0.1219E-13  0.7603E-17  0.1000E-09  0.0000E+00  0.1123E+16
   -2.268786    3.37538  0.1461E-10  0.1219E-13  0.7603E-17  0.1000E-09  0.0000E+00  0.9486E+15
   -2.337535    3.48314  0.1460E-10  0.2555E-13  0.2098E-16  0.1000E-09  0.0000E+00  0.7689E+15
   -2.406285    3.59171  0.1460E-10  0.1849E-12  0.1495E-15  0.1000E-09  0.0000E+00  0.5848E+15
   -2.475033    3.70092  0.1459E-10  0.1424E-11  0.1118E-14  0.1000E-09  0.0000E+00  0.3968E+15
   -2.543782    3.81031  0.1459E-10  0.1096E-10  0.8431E-14  0.1833E-09  0.0000E+00  0.2075E+15
   -2.612529    3.91897  0.1459E-10  0.8635E-10  0.6646E-13  0.6468E-08  0.0000E+00  0.2680E+14
   -2.681276    4.01972  0.1459E-10  0.6572E-09  0.6057E-12  0.2554E-06  0.0000E+00 -0.2371E+14
   -2.750022    4.05070  0.1459E-10  0.0000E+00  0.0000E+00  0.0000E+00  0.0000E+00  0.0000E+00
