 1 - depth, m
 2 - temperature, C
 3 - salinity, kg/kg
 4 - turbulent kinetic energy, m**2/s**2
 5 - dissipation rate, m**2/s**3
 6 - kinematic heat conductance, m**2/s
 7 - modulus of horizontal velocity, m/s
 8 - Richardson number, n/d
   -0.000000   -0.00000  0.1016E-17  0.1218E-13  0.7603E-17  0.1000E-09  0.0000E+00  0.3892E+16
   -0.068747    0.05884  0.1709E-17  0.1218E-13  0.7603E-17  0.1000E-09  0.0000E+00  0.4121E+16
   -0.137494    0.12219  0.0000E+00  0.1218E-13  0.7603E-17  0.1000E-09  0.0000E+00  0.4326E+16
   -0.206242    0.18991  0.5163E-12  0.1218E-13  0.7603E-17  0.1000E-09  0.0000E+00  0.4500E+16
   -0.274991    0.26176  0.2209E-11  0.1218E-13  0.7603E-17  0.1000E-09  0.0000E+00  0.4644E+16
   -0.343740    0.33747  0.4463E-11  0.1218E-13  0.7603E-17  0.1000E-09  0.0000E+00  0.4758E+16
   -0.412490    0.41682  0.6466E-11  0.1218E-13  0.7603E-17  0.1000E-09  0.0000E+00  0.4847E+16
   -0.481240    0.49961  0.7740E-11  0.1218E-13  0.7603E-17  0.1000E-09  0.0000E+00  0.4910E+16
   -0.549991    0.58567  0.8243E-11  0.1218E-13  0.7603E-17  0.1000E-09  0.0000E+00  0.4951E+16
   -0.618742    0.67484  0.8200E-11  0.1218E-13  0.7603E-17  0.1000E-09  0.0000E+00  0.4970E+16
   -0.687494    0.76698  0.7885E-11  0.1218E-13  0.7603E-17  0.1000E-09  0.0000E+00  0.4963E+16
   -0.756246    0.86184  0.7509E-11  0.1218E-13  0.7603E-17  0.1000E-09  0.0000E+00  0.4931E+16
   -0.824998    0.95920  0.7186E-11  0.1218E-13  0.7603E-17  0.1000E-09  0.0000E+00  0.4881E+16
   -0.893750    1.05892  0.6953E-11  0.1218E-13  0.7603E-17  0.1000E-09  0.0000E+00  0.4812E+16
   -0.962503    1.16086  0.6803E-11  0.1218E-13  0.7603E-17  0.1000E-09  0.0000E+00  0.4727E+16
   -1.031256    1.26489  0.6715E-11  0.1218E-13  0.7603E-17  0.1000E-09  0.0000E+00  0.4626E+16
   -1.100009    1.37090  0.6667E-11  0.1218E-13  0.7603E-17  0.1000E-09  0.0000E+00  0.4512E+16
   -1.168762    1.47879  0.6641E-11  0.1218E-13  0.7603E-17  0.1000E-09  0.0000E+00  0.4385E+16
   -1.237515    1.58850  0.6626E-11  0.1218E-13  0.7603E-17  0.1000E-09  0.0000E+00  0.4248E+16
   -1.306268    1.69999  0.6615E-11  0.1218E-13  0.7603E-17  0.1000E-09  0.0000E+00  0.4101E+16
   -1.375022    1.81328  0.6605E-11  0.1218E-13  0.7603E-17  0.1000E-09  0.0000E+00  0.3949E+16
   -1.443775    1.92846  0.6593E-11  0.1218E-13  0.7603E-17  0.1000E-09  0.0000E+00  0.3790E+16
   -1.512528    2.04567  0.6579E-11  0.1218E-13  0.7603E-17  0.1000E-09  0.0000E+00  0.3627E+16
   -1.581282    2.16510  0.6562E-11  0.1218E-13  0.7603E-17  0.1000E-09  0.0000E+00  0.3460E+16
   -1.650035    2.28709  0.6544E-11  0.1218E-13  0.7603E-17  0.1000E-09  0.0000E+00  0.3291E+16
   -1.718788    2.41212  0.6526E-11  0.1218E-13  0.7603E-17  0.1000E-09  0.0000E+00  0.3114E+16
   -1.787541    2.54064  0.6508E-11  0.1218E-13  0.7603E-17  0.1000E-09  0.0000E+00  0.2790E+16
   -1.856293    2.66666  0.6492E-11  0.1218E-13  0.7603E-17  0.1000E-09  0.0000E+00  0.2468E+16
   -1.925046    2.78939  0.6478E-11  0.1218E-13  0.7603E-17  0.1000E-09  0.0000E+00  0.2143E+16
   -1.993798    2.90747  0.6466E-11  0.1218E-13  0.7603E-17  0.1000E-09  0.0000E+00  0.1848E+16
   -2.062550    3.02101  0.6456E-11  0.1218E-13  0.7603E-17  0.1000E-09  0.0000E+00  0.1655E+16
   -2.131301    3.13571  0.6449E-11  0.1218E-13  0.7603E-17  0.1000E-09  0.0000E+00  0.1465E+16
   -2.200052    3.25229  0.6442E-11  0.4145E-13  0.2138E-16  0.1000E-09  0.0000E+00  0.1270E+16
   -2.268803    3.37122  0.6437E-11  0.2174E-12  0.1062E-15  0.1000E-09  0.0000E+00  0.1058E+16
   -2.337553    3.49186  0.6432E-11  0.1151E-11  0.5394E-15  0.1000E-09  0.0000E+00  0.8358E+15
   -2.406303    3.61414  0.6429E-11  0.6028E-11  0.2716E-14  0.1000E-09  0.0000E+00  0.6065E+15
   -2.475052    3.73839  0.6427E-11  0.3146E-10  0.1365E-13  0.1847E-09  0.0000E+00  0.3672E+15
   -2.543801    3.86494  0.6425E-11  0.1639E-09  0.6873E-13  0.2838E-08  0.0000E+00  0.1152E+15
   -2.612549    3.99253  0.6424E-11  0.8010E-09  0.3326E-12  0.7603E-06  0.0000E+00 -0.5021E+13
   -2.681297    4.01239  0.6424E-11  0.9356E-09  0.7823E-12  0.3357E-06  0.0000E+00 -0.1761E+14
   -2.750044    4.04043  0.6424E-11  0.0000E+00  0.0000E+00  0.0000E+00  0.0000E+00  0.0000E+00
