 1 - depth, m
 2 - temperature, C
 3 - salinity, kg/kg
 4 - turbulent kinetic energy, m**2/s**2
 5 - dissipation rate, m**2/s**3
 6 - kinematic heat conductance, m**2/s
 7 - modulus of horizontal velocity, m/s
 8 - Richardson number, n/d
   -0.000000   -0.00000  0.7518E-10  0.1219E-13  0.7603E-17  0.1000E-09  0.0000E+00  0.7272E+16
   -0.068746    0.11073  0.4502E-10  0.1219E-13  0.7603E-17  0.1000E-09  0.0000E+00  0.7000E+16
   -0.137492    0.22059  0.3233E-10  0.1219E-13  0.7603E-17  0.1000E-09  0.0000E+00  0.6745E+16
   -0.206239    0.32979  0.2787E-10  0.1219E-13  0.7603E-17  0.1000E-09  0.0000E+00  0.6507E+16
   -0.274987    0.43852  0.2653E-10  0.1219E-13  0.7603E-17  0.1000E-09  0.0000E+00  0.6283E+16
   -0.343735    0.54697  0.2618E-10  0.1219E-13  0.7603E-17  0.1000E-09  0.0000E+00  0.6072E+16
   -0.412483    0.65533  0.2609E-10  0.1219E-13  0.7603E-17  0.1000E-09  0.0000E+00  0.5872E+16
   -0.481232    0.76380  0.2608E-10  0.1219E-13  0.7603E-17  0.1000E-09  0.0000E+00  0.5682E+16
   -0.549982    0.87255  0.2607E-10  0.1219E-13  0.7603E-17  0.1000E-09  0.0000E+00  0.5499E+16
   -0.618732    0.98174  0.2607E-10  0.1219E-13  0.7603E-17  0.1000E-09  0.0000E+00  0.5321E+16
   -0.687482    1.09154  0.2607E-10  0.1219E-13  0.7603E-17  0.1000E-09  0.0000E+00  0.5157E+16
   -0.756233    1.20227  0.2607E-10  0.1219E-13  0.7603E-17  0.1000E-09  0.0000E+00  0.4998E+16
   -0.824984    1.31418  0.2607E-10  0.1219E-13  0.7603E-17  0.1000E-09  0.0000E+00  0.4837E+16
   -0.893735    1.42736  0.2607E-10  0.1219E-13  0.7603E-17  0.1000E-09  0.0000E+00  0.4673E+16
   -0.962487    1.54189  0.2606E-10  0.1219E-13  0.7603E-17  0.1000E-09  0.0000E+00  0.4503E+16
   -1.031238    1.65780  0.2605E-10  0.1219E-13  0.7603E-17  0.1000E-09  0.0000E+00  0.4327E+16
   -1.099990    1.77513  0.2602E-10  0.1219E-13  0.7603E-17  0.1000E-09  0.0000E+00  0.4143E+16
   -1.168742    1.89386  0.2596E-10  0.1219E-13  0.7603E-17  0.1000E-09  0.0000E+00  0.3950E+16
   -1.237495    2.01395  0.2588E-10  0.1219E-13  0.7603E-17  0.1000E-09  0.0000E+00  0.3748E+16
   -1.306247    2.13534  0.2577E-10  0.1219E-13  0.7603E-17  0.1000E-09  0.0000E+00  0.3537E+16
   -1.374999    2.25793  0.2565E-10  0.1219E-13  0.7603E-17  0.1000E-09  0.0000E+00  0.3319E+16
   -1.443751    2.38174  0.2555E-10  0.1219E-13  0.7603E-17  0.1000E-09  0.0000E+00  0.3093E+16
   -1.512503    2.50664  0.2548E-10  0.3970E-13  0.9146E-17  0.1000E-09  0.0000E+00  0.2856E+16
   -1.581256    2.63246  0.2543E-10  0.1251E-12  0.2318E-16  0.1000E-09  0.0000E+00  0.2611E+16
   -1.650008    2.75900  0.2540E-10  0.3570E-12  0.6255E-16  0.1000E-09  0.0000E+00  0.2359E+16
   -1.718759    2.88604  0.2539E-10  0.9843E-12  0.1666E-15  0.1000E-09  0.0000E+00  0.2102E+16
   -1.787511    3.01337  0.2537E-10  0.2738E-11  0.4487E-15  0.1000E-09  0.0000E+00  0.1856E+16
   -1.856263    3.14189  0.2536E-10  0.7622E-11  0.1211E-14  0.1000E-09  0.0000E+00  0.1603E+16
   -1.925014    3.27155  0.2534E-10  0.2107E-10  0.3247E-14  0.1000E-09  0.0000E+00  0.1344E+16
   -1.993765    3.40233  0.2532E-10  0.5781E-10  0.8649E-14  0.1000E-09  0.0000E+00  0.1077E+16
   -2.062516    3.53388  0.2529E-10  0.1538E-09  0.2234E-13  0.1421E-09  0.0000E+00  0.7990E+15
   -2.131266    3.66489  0.2526E-10  0.4030E-09  0.5688E-13  0.5519E-09  0.0000E+00  0.5237E+15
   -2.200016    3.79466  0.2524E-10  0.1044E-08  0.1432E-12  0.2849E-08  0.0000E+00  0.2550E+15
   -2.268766    3.92123  0.2524E-10  0.2616E-08  0.3503E-12  0.6082E-07  0.0000E+00  0.2854E+14
   -2.337515    4.01066  0.2524E-10  0.3847E-08  0.5210E-12  0.1256E-04  0.0000E+00 -0.5603E+12
   -2.406263    4.01208  0.2524E-10  0.4315E-08  0.6142E-12  0.1250E-04  0.0000E+00 -0.6022E+12
   -2.475011    4.01353  0.2524E-10  0.4618E-08  0.7268E-12  0.1131E-04  0.0000E+00 -0.7156E+12
   -2.543759    4.01516  0.2524E-10  0.4746E-08  0.9004E-12  0.8863E-05  0.0000E+00 -0.9993E+12
   -2.612506    4.01730  0.2524E-10  0.4598E-08  0.1289E-11  0.5065E-05  0.0000E+00 -0.2018E+13
   -2.681252    4.02121  0.2524E-10  0.3567E-08  0.3250E-11  0.9133E-06  0.0000E+00 -0.1701E+14
   -2.749998    4.04454  0.2524E-10  0.0000E+00  0.0000E+00  0.0000E+00  0.0000E+00  0.0000E+00
