 1 - depth, m
 2 - temperature, C
 3 - salinity, kg/kg
 4 - turbulent kinetic energy, m**2/s**2
 5 - dissipation rate, m**2/s**3
 6 - kinematic heat conductance, m**2/s
 7 - modulus of horizontal velocity, m/s
 8 - Richardson number, n/d
   -0.000000   -0.00000  0.4758E-11  0.1219E-13  0.7603E-17  0.1000E-09  0.0000E+00  0.8212E+16
   -0.068746    0.12529  0.2961E-11  0.1219E-13  0.7603E-17  0.1000E-09  0.0000E+00  0.7882E+16
   -0.137492    0.24976  0.2124E-11  0.1219E-13  0.7603E-17  0.1000E-09  0.0000E+00  0.7572E+16
   -0.206239    0.37363  0.1813E-11  0.1219E-13  0.7603E-17  0.1000E-09  0.0000E+00  0.7279E+16
   -0.274987    0.49713  0.1715E-11  0.1219E-13  0.7603E-17  0.1000E-09  0.0000E+00  0.7002E+16
   -0.343735    0.62046  0.1687E-11  0.1219E-13  0.7603E-17  0.1000E-09  0.0000E+00  0.6739E+16
   -0.412483    0.74385  0.1680E-11  0.1219E-13  0.7603E-17  0.1000E-09  0.0000E+00  0.6487E+16
   -0.481232    0.86749  0.1679E-11  0.1219E-13  0.7603E-17  0.1000E-09  0.0000E+00  0.6244E+16
   -0.549982    0.99158  0.1679E-11  0.1219E-13  0.7603E-17  0.1000E-09  0.0000E+00  0.6008E+16
   -0.618732    1.11632  0.1679E-11  0.1219E-13  0.7603E-17  0.1000E-09  0.0000E+00  0.5777E+16
   -0.687482    1.24186  0.1679E-11  0.1219E-13  0.7603E-17  0.1000E-09  0.0000E+00  0.5558E+16
   -0.756233    1.36859  0.1678E-11  0.1219E-13  0.7603E-17  0.1000E-09  0.0000E+00  0.5343E+16
   -0.824984    1.49677  0.1678E-11  0.1219E-13  0.7603E-17  0.1000E-09  0.0000E+00  0.5124E+16
   -0.893735    1.62651  0.1678E-11  0.1219E-13  0.7603E-17  0.1000E-09  0.0000E+00  0.4900E+16
   -0.962487    1.75792  0.1678E-11  0.2277E-13  0.7603E-17  0.1000E-09  0.0000E+00  0.4668E+16
   -1.031239    1.89106  0.1677E-11  0.8151E-13  0.1200E-16  0.1000E-09  0.0000E+00  0.4427E+16
   -1.099990    2.02596  0.1674E-11  0.2162E-12  0.2684E-16  0.1000E-09  0.0000E+00  0.4176E+16
   -1.168742    2.16265  0.1671E-11  0.5209E-12  0.6136E-16  0.1000E-09  0.0000E+00  0.3914E+16
   -1.237495    2.30110  0.1665E-11  0.1214E-11  0.1386E-15  0.1000E-09  0.0000E+00  0.3639E+16
   -1.306247    2.44128  0.1658E-11  0.2784E-11  0.3092E-15  0.1000E-09  0.0000E+00  0.3353E+16
   -1.374999    2.58310  0.1651E-11  0.6310E-11  0.6826E-15  0.1000E-09  0.0000E+00  0.3057E+16
   -1.443751    2.72659  0.1645E-11  0.1416E-10  0.1492E-14  0.1000E-09  0.0000E+00  0.2749E+16
   -1.512503    2.87165  0.1641E-11  0.3144E-10  0.3230E-14  0.1000E-09  0.0000E+00  0.2429E+16
   -1.581256    3.01812  0.1638E-11  0.6917E-10  0.6927E-14  0.1000E-09  0.0000E+00  0.2099E+16
   -1.650008    3.16580  0.1636E-11  0.1507E-09  0.1472E-13  0.1000E-09  0.0000E+00  0.1758E+16
   -1.718760    3.31446  0.1635E-11  0.3254E-09  0.3100E-13  0.1118E-09  0.0000E+00  0.1412E+16
   -1.787511    3.46394  0.1633E-11  0.7125E-09  0.6620E-13  0.3143E-09  0.0000E+00  0.1072E+16
   -1.856263    3.61614  0.1631E-11  0.1573E-08  0.1426E-12  0.1018E-08  0.0000E+00  0.7126E+15
   -1.925014    3.77072  0.1629E-11  0.3461E-08  0.3064E-12  0.4648E-08  0.0000E+00  0.3352E+15
   -1.993765    3.92483  0.1628E-11  0.7155E-08  0.6230E-12  0.1253E-06  0.0000E+00  0.2496E+14
   -2.062516    4.01070  0.1628E-11  0.8046E-08  0.7046E-12  0.3843E-04  0.0000E+00 -0.2293E+12
   -2.131266    4.01129  0.1628E-11  0.8419E-08  0.7473E-12  0.3869E-04  0.0000E+00 -0.2333E+12
   -2.200016    4.01188  0.1628E-11  0.8709E-08  0.7924E-12  0.3811E-04  0.0000E+00 -0.2426E+12
   -2.268766    4.01248  0.1628E-11  0.8923E-08  0.8429E-12  0.3664E-04  0.0000E+00 -0.2586E+12
   -2.337515    4.01310  0.1628E-11  0.9066E-08  0.9054E-12  0.3412E-04  0.0000E+00 -0.2849E+12
   -2.406263    4.01377  0.1628E-11  0.9128E-08  0.9897E-12  0.3037E-04  0.0000E+00 -0.3292E+12
   -2.475011    4.01452  0.1628E-11  0.9088E-08  0.1117E-11  0.2517E-04  0.0000E+00 -0.4106E+12
   -2.543759    4.01544  0.1628E-11  0.8887E-08  0.1343E-11  0.1829E-04  0.0000E+00 -0.5895E+12
   -2.612506    4.01670  0.1628E-11  0.8336E-08  0.1893E-11  0.9714E-05  0.0000E+00 -0.1188E+13
   -2.681252    4.01910  0.1628E-11  0.5969E-08  0.5290E-11  0.1247E-05  0.0000E+00 -0.1176E+14
   -2.749998    4.03707  0.1628E-11  0.0000E+00  0.0000E+00  0.0000E+00  0.0000E+00  0.0000E+00
