 1 - depth, m
 2 - temperature, C
 3 - salinity, kg/kg
 4 - turbulent kinetic energy, m**2/s**2
 5 - dissipation rate, m**2/s**3
 6 - kinematic heat conductance, m**2/s
 7 - modulus of horizontal velocity, m/s
 8 - Richardson number, n/d
   -0.000000   -0.00000  0.5735E-12  0.1982E-05  0.3098E-07  0.1145E-04  0.1205E-01  0.2771E-01
   -0.068745    0.00736  0.5728E-12  0.1704E-05  0.1266E-07  0.1930E-04  0.8645E-02  0.5732E-01
   -0.137490    0.01113  0.5725E-12  0.1435E-05  0.7184E-08  0.2277E-04  0.6979E-02  0.8852E-01
   -0.206236    0.01387  0.5722E-12  0.1194E-05  0.4591E-08  0.2340E-04  0.5847E-02  0.1217E+00
   -0.274983    0.01615  0.5719E-12  0.9810E-06  0.3099E-08  0.2223E-04  0.4971E-02  0.1581E+00
   -0.343730    0.01819  0.5717E-12  0.7937E-06  0.2147E-08  0.1998E-04  0.4247E-02  0.1994E+00
   -0.412478    0.02014  0.5715E-12  0.6297E-06  0.1500E-08  0.1714E-04  0.3622E-02  0.2484E+00
   -0.481226    0.02209  0.5712E-12  0.4875E-06  0.1044E-08  0.1410E-04  0.3065E-02  0.3106E+00
   -0.549974    0.02419  0.5710E-12  0.3665E-06  0.7151E-09  0.1118E-04  0.2554E-02  0.4116E+00
   -0.618723    0.02680  0.5706E-12  0.2684E-06  0.4807E-09  0.8627E-05  0.2072E-02  0.7246E+00
   -0.687473    0.03048  0.5700E-12  0.1941E-06  0.3208E-09  0.6559E-05  0.1626E-02  0.1864E+01
   -0.756222    0.03483  0.5692E-12  0.1397E-06  0.2143E-09  0.4903E-05  0.1249E-02  0.5238E+01
   -0.824973    0.03875  0.5684E-12  0.9926E-07  0.1422E-09  0.3563E-05  0.9535E-03  0.1471E+02
   -0.893723    0.04190  0.5678E-12  0.6876E-07  0.9265E-10  0.2492E-05  0.7261E-03  0.4298E+02
   -0.962473    0.04447  0.5672E-12  0.4594E-07  0.5851E-10  0.1657E-05  0.5496E-03  0.1357E+03
   -1.031224    0.04666  0.5667E-12  0.2919E-07  0.3534E-10  0.1031E-05  0.4111E-03  0.4789E+03
   -1.099975    0.04861  0.5662E-12  0.1730E-07  0.2003E-10  0.5863E-06  0.3017E-03  0.2021E+04
   -1.168726    0.05046  0.5658E-12  0.9275E-08  0.1034E-10  0.2944E-06  0.2155E-03  0.1136E+05
   -1.237477    0.05235  0.5653E-12  0.4279E-08  0.4623E-11  0.1238E-06  0.1481E-03  0.8862E+05
   -1.306229    0.05461  0.5649E-12  0.1577E-08  0.1659E-11  0.4115E-07  0.9688E-04  0.8547E+06
   -1.374980    0.05794  0.5645E-12  0.4056E-09  0.4196E-12  0.7827E-08  0.5975E-04  0.9818E+07
   -1.443731    0.06531  0.5641E-12  0.9084E-10  0.7838E-13  0.8922E-09  0.3451E-04  0.9750E+08
   -1.512482    0.08129  0.5636E-12  0.8907E-10  0.2811E-13  0.1903E-09  0.1918E-04  0.8586E+09
   -1.581234    0.11402  0.5629E-12  0.2426E-09  0.4244E-13  0.1443E-09  0.1038E-04  0.6602E+10
   -1.649985    0.17689  0.5621E-12  0.6311E-09  0.9294E-13  0.1493E-09  0.5206E-05  0.3708E+11
   -1.718736    0.28831  0.5614E-12  0.1490E-08  0.2037E-12  0.1723E-09  0.1825E-05  0.2498E+12
   -1.787486    0.46220  0.5610E-12  0.3377E-08  0.4371E-12  0.4726E-09  0.1214E-06  0.3855E+14
   -1.856237    0.57645  0.5608E-12  0.7390E-08  0.9096E-12  0.2099E-08  0.7451E-08  0.1209E+16
   -1.924987    0.63985  0.5606E-12  0.9345E-08  0.1145E-11  0.8985E-05  0.2863E-09  0.8467E+15
   -1.993737    0.65730  0.5606E-12  0.9611E-08  0.1181E-11  0.4624E-04  0.1286E-09  0.5792E+15
   -2.062487    0.66838  0.5606E-12  0.9356E-08  0.1152E-11  0.1815E-08  0.1164E-09  0.5053E+16
   -2.131236    0.77453  0.5606E-12  0.4421E-08  0.5905E-12  0.3279E-09  0.8893E-11  0.1185E+17
   -2.199985    1.02772  0.5602E-12  0.1979E-08  0.3434E-12  0.1404E-09  0.6190E-12  0.1983E+17
   -2.268734    1.47368  0.5597E-12  0.1184E-08  0.4693E-12  0.1124E-09  0.2940E-13  0.2330E+17
   -2.337482    2.13380  0.5592E-12  0.3325E-08  0.1996E-11  0.5582E-09  0.1144E-14  0.2038E+17
   -2.406230    3.03241  0.5580E-12  0.1942E-07  0.1148E-10  0.1235E-07  0.3798E-16  0.7581E+16
   -2.474977    4.09452  0.5555E-12  0.3714E-07  0.2219E-10  0.2549E-04  0.9313E-18 -0.1023E+14
   -2.543724    4.10139  0.5555E-12  0.4208E-07  0.2811E-10  0.2399E-04  0.1384E-18 -0.1249E+14
   -2.612470    4.10900  0.5555E-12  0.4395E-07  0.3918E-10  0.1684E-04  0.1715E-19 -0.2130E+14
   -2.681215    4.12070  0.5555E-12  0.3734E-07  0.9805E-10  0.3689E-05  0.1198E-20 -0.1532E+15
   -2.749960    4.18222  0.5555E-12  0.0000E+00  0.0000E+00  0.0000E+00  0.1266E-20  0.0000E+00
