 1 - depth, m
 2 - temperature, C
 3 - salinity, kg/kg
 4 - turbulent kinetic energy, m**2/s**2
 5 - dissipation rate, m**2/s**3
 6 - kinematic heat conductance, m**2/s
 7 - modulus of horizontal velocity, m/s
 8 - Richardson number, n/d
   -0.000000   -0.00000  0.4151E-11  0.1219E-13  0.7603E-17  0.1000E-09  0.0000E+00  0.4469E+16
   -0.068746    0.06766  0.2268E-11  0.1219E-13  0.7603E-17  0.1000E-09  0.0000E+00  0.4277E+16
   -0.137492    0.13360  0.1804E-11  0.1219E-13  0.7603E-17  0.1000E-09  0.0000E+00  0.4129E+16
   -0.206239    0.19843  0.1702E-11  0.1219E-13  0.7603E-17  0.1000E-09  0.0000E+00  0.4023E+16
   -0.274986    0.26274  0.1683E-11  0.1219E-13  0.7603E-17  0.1000E-09  0.0000E+00  0.3957E+16
   -0.343734    0.32716  0.1679E-11  0.1219E-13  0.7603E-17  0.1000E-09  0.0000E+00  0.3927E+16
   -0.412483    0.39232  0.1679E-11  0.1219E-13  0.7603E-17  0.1000E-09  0.0000E+00  0.3934E+16
   -0.481232    0.45887  0.1679E-11  0.1219E-13  0.7603E-17  0.1000E-09  0.0000E+00  0.3974E+16
   -0.549982    0.52748  0.1679E-11  0.1219E-13  0.7603E-17  0.1000E-09  0.0000E+00  0.4045E+16
   -0.618732    0.59883  0.1679E-11  0.1219E-13  0.7603E-17  0.1000E-09  0.0000E+00  0.4144E+16
   -0.687482    0.67361  0.1679E-11  0.1219E-13  0.7603E-17  0.1000E-09  0.0000E+00  0.4284E+16
   -0.756232    0.75284  0.1679E-11  0.1219E-13  0.7603E-17  0.1000E-09  0.0000E+00  0.4451E+16
   -0.824983    0.83738  0.1679E-11  0.1219E-13  0.7603E-17  0.1000E-09  0.0000E+00  0.4630E+16
   -0.893735    0.92794  0.1679E-11  0.1219E-13  0.7603E-17  0.1000E-09  0.0000E+00  0.4814E+16
   -0.962486    1.02517  0.1678E-11  0.1219E-13  0.7603E-17  0.1000E-09  0.0000E+00  0.4994E+16
   -1.031238    1.12972  0.1678E-11  0.1219E-13  0.7603E-17  0.1000E-09  0.0000E+00  0.5161E+16
   -1.099990    1.24217  0.1678E-11  0.1219E-13  0.7603E-17  0.1000E-09  0.0000E+00  0.5307E+16
   -1.168742    1.36306  0.1677E-11  0.4549E-13  0.9675E-17  0.1000E-09  0.0000E+00  0.5421E+16
   -1.237494    1.49284  0.1674E-11  0.1399E-12  0.2393E-16  0.1000E-09  0.0000E+00  0.5491E+16
   -1.306246    1.63190  0.1667E-11  0.3854E-12  0.6232E-16  0.1000E-09  0.0000E+00  0.5507E+16
   -1.374998    1.78051  0.1657E-11  0.1024E-11  0.1601E-15  0.1000E-09  0.0000E+00  0.5475E+16
   -1.443750    1.93937  0.1647E-11  0.2674E-11  0.4057E-15  0.1000E-09  0.0000E+00  0.5370E+16
   -1.512502    2.10866  0.1641E-11  0.6887E-11  0.1014E-14  0.1000E-09  0.0000E+00  0.5176E+16
   -1.581255    2.28827  0.1638E-11  0.1751E-10  0.2505E-14  0.1000E-09  0.0000E+00  0.4886E+16
   -1.650006    2.47788  0.1636E-11  0.4398E-10  0.6115E-14  0.1000E-09  0.0000E+00  0.4495E+16
   -1.718758    2.67701  0.1635E-11  0.1091E-09  0.1475E-13  0.1000E-09  0.0000E+00  0.4004E+16
   -1.787510    2.88505  0.1635E-11  0.2746E-09  0.3608E-13  0.1000E-09  0.0000E+00  0.3436E+16
   -1.856261    3.10254  0.1634E-11  0.6947E-09  0.8876E-13  0.1630E-09  0.0000E+00  0.2772E+16
   -1.925013    3.32945  0.1634E-11  0.1749E-08  0.2175E-12  0.5512E-09  0.0000E+00  0.2009E+16
   -1.993764    3.56540  0.1632E-11  0.4380E-08  0.5302E-12  0.2364E-08  0.0000E+00  0.1142E+16
   -2.062514    3.80722  0.1627E-11  0.1051E-07  0.1241E-11  0.2594E-07  0.0000E+00  0.2440E+15
   -2.131265    4.01787  0.1626E-11  0.1198E-07  0.1424E-11  0.4167E-04  0.0000E+00 -0.4204E+12
   -2.200015    4.01871  0.1626E-11  0.1257E-07  0.1519E-11  0.4196E-04  0.0000E+00 -0.4304E+12
   -2.268764    4.01955  0.1626E-11  0.1301E-07  0.1623E-11  0.4109E-04  0.0000E+00 -0.4533E+12
   -2.337513    4.02041  0.1626E-11  0.1333E-07  0.1748E-11  0.3890E-04  0.0000E+00 -0.4944E+12
   -2.406262    4.02132  0.1626E-11  0.1352E-07  0.1912E-11  0.3520E-04  0.0000E+00 -0.5656E+12
   -2.475010    4.02234  0.1626E-11  0.1355E-07  0.2157E-11  0.2972E-04  0.0000E+00 -0.6978E+12
   -2.543757    4.02355  0.1626E-11  0.1334E-07  0.2584E-11  0.2213E-04  0.0000E+00 -0.9876E+12
   -2.612504    4.02521  0.1626E-11  0.1263E-07  0.3604E-11  0.1225E-04  0.0000E+00 -0.1941E+13
   -2.681251    4.02828  0.1626E-11  0.9334E-08  0.9907E-11  0.1729E-05  0.0000E+00 -0.1860E+14
   -2.749996    4.05064  0.1626E-11  0.0000E+00  0.0000E+00  0.0000E+00  0.0000E+00  0.0000E+00
