 1 - depth, m
 2 - temperature, C
 3 - salinity, kg/kg
 4 - turbulent kinetic energy, m**2/s**2
 5 - dissipation rate, m**2/s**3
 6 - kinematic heat conductance, m**2/s
 7 - modulus of horizontal velocity, m/s
 8 - Richardson number, n/d
   -0.000000   16.22700  0.1666E-11  0.1076E-04  0.3978E-06  0.3000E-04  0.2177E-01 -0.2454E-01
   -0.068746   16.23824  0.1666E-11  0.1028E-04  0.1482E-06  0.7731E-04  0.1421E-01 -0.5801E-01
   -0.137492   16.24176  0.1666E-11  0.9892E-05  0.8674E-07  0.1288E-03  0.1133E-01 -0.9140E-01
   -0.206239   16.24352  0.1666E-11  0.9593E-05  0.5966E-07  0.1895E-03  0.9616E-02 -0.9184E-01
   -0.274987   16.24455  0.1666E-11  0.9367E-05  0.4480E-07  0.2901E-03  0.8440E-02  0.3435E+02
   -0.343735   16.24517  0.1666E-11  0.9213E-05  0.3562E-07  0.3659E-03  0.7582E-02  0.6029E+01
   -0.412484   16.24563  0.1666E-11  0.9122E-05  0.2950E-07  0.4487E-03  0.6912E-02  0.3017E+01
   -0.481233   16.24598  0.1666E-11  0.9086E-05  0.2525E-07  0.5536E-03  0.6373E-02  0.5199E+01
   -0.549983   16.24626  0.1666E-11  0.9096E-05  0.2227E-07  0.7516E-03  0.5929E-02  0.3930E+02
   -0.618733   16.24647  0.1666E-11  0.9147E-05  0.2014E-07  0.9044E-03  0.5567E-02  0.2302E+02
   -0.687483   16.24665  0.1666E-11  0.9228E-05  0.1854E-07  0.1105E-02  0.5249E-02  0.3881E+02
   -0.756234   16.24682  0.1666E-11  0.9333E-05  0.1734E-07  0.1461E-02  0.4968E-02  0.1941E+02
   -0.824985   16.24696  0.1666E-11  0.9462E-05  0.1641E-07  0.1508E-02  0.4716E-02  0.4392E+01
   -0.893737   16.24711  0.1666E-11  0.9612E-05  0.1566E-07  0.1540E-02  0.4464E-02  0.4965E+01
   -0.962488   16.24727  0.1666E-11  0.9777E-05  0.1507E-07  0.1563E-02  0.4217E-02  0.5528E+01
   -1.031240   16.24744  0.1666E-11  0.9953E-05  0.1461E-07  0.1590E-02  0.3973E-02  0.6133E+01
   -1.099992   16.24762  0.1666E-11  0.1013E-04  0.1427E-07  0.1615E-02  0.3730E-02  0.6734E+01
   -1.168744   16.24781  0.1666E-11  0.1031E-04  0.1404E-07  0.1641E-02  0.3488E-02  0.7328E+01
   -1.237496   16.24801  0.1666E-11  0.1049E-04  0.1389E-07  0.1666E-02  0.3246E-02  0.7895E+01
   -1.306249   16.24824  0.1666E-11  0.1065E-04  0.1382E-07  0.1688E-02  0.3003E-02  0.8454E+01
   -1.375001   16.24847  0.1666E-11  0.1079E-04  0.1382E-07  0.1705E-02  0.2760E-02  0.9019E+01
   -1.443753   16.24872  0.1666E-11  0.1091E-04  0.1389E-07  0.1714E-02  0.2516E-02  0.9676E+01
   -1.512506   16.24899  0.1666E-11  0.1099E-04  0.1402E-07  0.1714E-02  0.2272E-02  0.1052E+02
   -1.581258   16.24928  0.1666E-11  0.1103E-04  0.1420E-07  0.1703E-02  0.2026E-02  0.1182E+02
   -1.650010   16.24959  0.1666E-11  0.1102E-04  0.1442E-07  0.1682E-02  0.1780E-02  0.1402E+02
   -1.718762   16.24992  0.1666E-11  0.1096E-04  0.1469E-07  0.1650E-02  0.1533E-02  0.1611E+02
   -1.787514   16.25028  0.1666E-11  0.1083E-04  0.1498E-07  0.1690E-02  0.1287E-02  0.4891E+01
   -1.856265   16.25064  0.1666E-11  0.1067E-04  0.1534E-07  0.1776E-02  0.1085E-02  0.2840E+01
   -1.925017   16.25098  0.1666E-11  0.1048E-04  0.1578E-07  0.1851E-02  0.9222E-03  0.1991E+01
   -1.993768   16.25132  0.1666E-11  0.1028E-04  0.1633E-07  0.1835E-02  0.7933E-03  0.1579E+01
   -2.062519   16.25166  0.1666E-11  0.1008E-04  0.1699E-07  0.1764E-02  0.6898E-03  0.1379E+01
   -2.131269   16.25203  0.1666E-11  0.9893E-05  0.1777E-07  0.1658E-02  0.6025E-03  0.1212E+01
   -2.200019   16.25245  0.1667E-11  0.9707E-05  0.1869E-07  0.1530E-02  0.5276E-03  0.1080E+01
   -2.268769   16.25291  0.1667E-11  0.9526E-05  0.1980E-07  0.1403E-02  0.4638E-03  0.1078E+01
   -2.337518   16.25342  0.1667E-11  0.9333E-05  0.2130E-07  0.1269E-02  0.4096E-03  0.1361E+01
   -2.406267   16.25401  0.1667E-11  0.9107E-05  0.2351E-07  0.1127E-02  0.3615E-03  0.2141E+01
   -2.475015   16.25468  0.1667E-11  0.8812E-05  0.2722E-07  0.9006E-03  0.3159E-03  0.4142E+01
   -2.543763   16.25555  0.1667E-11  0.8395E-05  0.3423E-07  0.8233E-03  0.2681E-03  0.8454E+01
   -2.612510   16.25652  0.1667E-11  0.7546E-05  0.5738E-07  0.3535E-03  0.2258E-03  0.2210E+03
   -2.681256   16.26083  0.1667E-11  0.4730E-05  0.1912E-06  0.9835E-04  0.1443E-03 -0.5432E+03
   -2.750002   16.26970  0.1667E-11  0.0000E+00  0.0000E+00  0.0000E+00  0.1648E-03  0.0000E+00
