 1 - depth, m
 2 - temperature, C
 3 - salinity, kg/kg
 4 - turbulent kinetic energy, m**2/s**2
 5 - dissipation rate, m**2/s**3
 6 - kinematic heat conductance, m**2/s
 7 - modulus of horizontal velocity, m/s
 8 - Richardson number, n/d
   -0.000000    9.28705  0.6486E-11  0.1541E-04  0.7405E-06  0.3464E-04  0.2745E-01 -0.2305E-01
   -0.068746    9.32284  0.6486E-11  0.1441E-04  0.2557E-06  0.9086E-04  0.1791E-01 -0.6026E-01
   -0.137492    9.33571  0.6486E-11  0.1383E-04  0.1458E-06  0.1540E-03  0.1446E-01 -0.1013E+00
   -0.206239    9.34304  0.6486E-11  0.1342E-04  0.9960E-07  0.2251E-03  0.1244E-01 -0.1473E+00
   -0.274987    9.34789  0.6486E-11  0.1312E-04  0.7477E-07  0.3066E-03  0.1108E-01 -0.1859E+00
   -0.343735    9.35135  0.6486E-11  0.1290E-04  0.5967E-07  0.4525E-03  0.1008E-01  0.3314E+00
   -0.412484    9.35369  0.6486E-11  0.1276E-04  0.5015E-07  0.8527E-03  0.9321E-02  0.8182E+02
   -0.481233    9.35504  0.6486E-11  0.1270E-04  0.4377E-07  0.1079E-02  0.8763E-02  0.2330E+02
   -0.549983    9.35600  0.6486E-11  0.1269E-04  0.3898E-07  0.1216E-02  0.8260E-02  0.2218E+02
   -0.618733    9.35680  0.6486E-11  0.1272E-04  0.3523E-07  0.1308E-02  0.7799E-02  0.2268E+02
   -0.687483    9.35751  0.6486E-11  0.1276E-04  0.3218E-07  0.1366E-02  0.7364E-02  0.1065E+02
   -0.756234    9.35817  0.6486E-11  0.1280E-04  0.2965E-07  0.1423E-02  0.6951E-02  0.1139E+02
   -0.824985    9.35880  0.6486E-11  0.1285E-04  0.2754E-07  0.1478E-02  0.6556E-02  0.1205E+02
   -0.893736    9.35939  0.6486E-11  0.1289E-04  0.2574E-07  0.1531E-02  0.6176E-02  0.1274E+02
   -0.962488    9.35995  0.6486E-11  0.1292E-04  0.2420E-07  0.1581E-02  0.5810E-02  0.1345E+02
   -1.031240    9.36048  0.6486E-11  0.1294E-04  0.2287E-07  0.1628E-02  0.5455E-02  0.1422E+02
   -1.099992    9.36099  0.6486E-11  0.1294E-04  0.2171E-07  0.1673E-02  0.5109E-02  0.1509E+02
   -1.168744    9.36148  0.6486E-11  0.1292E-04  0.2070E-07  0.1713E-02  0.4771E-02  0.1608E+02
   -1.237496    9.36195  0.6486E-11  0.1288E-04  0.1981E-07  0.1748E-02  0.4439E-02  0.1729E+02
   -1.306248    9.36241  0.6486E-11  0.1282E-04  0.1902E-07  0.1777E-02  0.4113E-02  0.1878E+02
   -1.375001    9.36285  0.6486E-11  0.1273E-04  0.1832E-07  0.1799E-02  0.3791E-02  0.2078E+02
   -1.443753    9.36328  0.6486E-11  0.1261E-04  0.1771E-07  0.1812E-02  0.3473E-02  0.2359E+02
   -1.512505    9.36371  0.6486E-11  0.1246E-04  0.1716E-07  0.1815E-02  0.3157E-02  0.2801E+02
   -1.581258    9.36412  0.6486E-11  0.1228E-04  0.1667E-07  0.1807E-02  0.2842E-02  0.3600E+02
   -1.650010    9.36454  0.6486E-11  0.1206E-04  0.1624E-07  0.1790E-02  0.2528E-02  0.5545E+02
   -1.718762    9.36495  0.6486E-11  0.1180E-04  0.1585E-07  0.1750E-02  0.2215E-02  0.1125E+03
   -1.787514    9.36537  0.6486E-11  0.1149E-04  0.1549E-07  0.1748E-02  0.1900E-02  0.9591E+01
   -1.856265    9.36579  0.6486E-11  0.1115E-04  0.1520E-07  0.1745E-02  0.1631E-02  0.4323E+01
   -1.925017    9.36620  0.6486E-11  0.1078E-04  0.1501E-07  0.1759E-02  0.1400E-02  0.2539E+01
   -1.993768    9.36661  0.6486E-11  0.1040E-04  0.1495E-07  0.1791E-02  0.1208E-02  0.1790E+01
   -2.062518    9.36701  0.6486E-11  0.1003E-04  0.1505E-07  0.1819E-02  0.1045E-02  0.1456E+01
   -2.131269    9.36740  0.6486E-11  0.9682E-05  0.1532E-07  0.1769E-02  0.9023E-03  0.1192E+01
   -2.200019    9.36780  0.6486E-11  0.9356E-05  0.1580E-07  0.1667E-02  0.7761E-03  0.9798E+00
   -2.268769    9.36822  0.6486E-11  0.9058E-05  0.1649E-07  0.1529E-02  0.6653E-03  0.7656E+00
   -2.337518    9.36868  0.6486E-11  0.8782E-05  0.1748E-07  0.1371E-02  0.5725E-03  0.6122E+00
   -2.406266    9.36919  0.6486E-11  0.8520E-05  0.1889E-07  0.1238E-02  0.4968E-03  0.6415E+00
   -2.475015    9.36975  0.6486E-11  0.8238E-05  0.2126E-07  0.1045E-02  0.4334E-03  0.3780E+01
   -2.543762    9.37045  0.6486E-11  0.7869E-05  0.2593E-07  0.9254E-03  0.3729E-03  0.4545E+02
   -2.612509    9.37133  0.6486E-11  0.7177E-05  0.4032E-07  0.4820E-03  0.3152E-03  0.1132E+04
   -2.681256    9.37430  0.6486E-11  0.4354E-05  0.1493E-06  0.6487E-04  0.2189E-03 -0.7952E+04
   -2.750002    9.38613  0.6486E-11  0.0000E+00  0.0000E+00  0.0000E+00  0.2422E-03  0.0000E+00
