 1 - depth, m
 2 - temperature, C
 3 - salinity, kg/kg
 4 - turbulent kinetic energy, m**2/s**2
 5 - dissipation rate, m**2/s**3
 6 - kinematic heat conductance, m**2/s
 7 - modulus of horizontal velocity, m/s
 8 - Richardson number, n/d
   -0.000000   -0.00000  0.1798E-12  0.1219E-13  0.7603E-17  0.1000E-09  0.0000E+00  0.7315E+16
   -0.068746    0.11139  0.6829E-12  0.1219E-13  0.7603E-17  0.1000E-09  0.0000E+00  0.7208E+16
   -0.137493    0.22461  0.9687E-12  0.1219E-13  0.7603E-17  0.1000E-09  0.0000E+00  0.7083E+16
   -0.206240    0.33950  0.1047E-11  0.1219E-13  0.7603E-17  0.1000E-09  0.0000E+00  0.6939E+16
   -0.274988    0.45592  0.1014E-11  0.1219E-13  0.7603E-17  0.1000E-09  0.0000E+00  0.6778E+16
   -0.343736    0.57370  0.9423E-12  0.1219E-13  0.7603E-17  0.1000E-09  0.0000E+00  0.6599E+16
   -0.412485    0.69267  0.8723E-12  0.1219E-13  0.7603E-17  0.1000E-09  0.0000E+00  0.6406E+16
   -0.481234    0.81266  0.8204E-12  0.1219E-13  0.7603E-17  0.1000E-09  0.0000E+00  0.6199E+16
   -0.549984    0.93350  0.7881E-12  0.1219E-13  0.7603E-17  0.1000E-09  0.0000E+00  0.5980E+16
   -0.618734    1.05504  0.7703E-12  0.1219E-13  0.7603E-17  0.1000E-09  0.0000E+00  0.5750E+16
   -0.687485    1.17712  0.7615E-12  0.1219E-13  0.7603E-17  0.1000E-09  0.0000E+00  0.5512E+16
   -0.756236    1.29960  0.7575E-12  0.1219E-13  0.7603E-17  0.1000E-09  0.0000E+00  0.5267E+16
   -0.824987    1.42236  0.7557E-12  0.1219E-13  0.7603E-17  0.1000E-09  0.0000E+00  0.5017E+16
   -0.893739    1.54527  0.7547E-12  0.1219E-13  0.7603E-17  0.1000E-09  0.0000E+00  0.4762E+16
   -0.962490    1.66823  0.7540E-12  0.1219E-13  0.7603E-17  0.1000E-09  0.0000E+00  0.4505E+16
   -1.031242    1.79113  0.7533E-12  0.1219E-13  0.7603E-17  0.1000E-09  0.0000E+00  0.4246E+16
   -1.099995    1.91388  0.7522E-12  0.1219E-13  0.7603E-17  0.1000E-09  0.0000E+00  0.3987E+16
   -1.168747    2.03640  0.7508E-12  0.1219E-13  0.7603E-17  0.1000E-09  0.0000E+00  0.3728E+16
   -1.237499    2.15863  0.7491E-12  0.1219E-13  0.7603E-17  0.1000E-09  0.0000E+00  0.3470E+16
   -1.306252    2.28051  0.7471E-12  0.1219E-13  0.7603E-17  0.1000E-09  0.0000E+00  0.3214E+16
   -1.375004    2.40199  0.7449E-12  0.1219E-13  0.7603E-17  0.1000E-09  0.0000E+00  0.2961E+16
   -1.443757    2.52307  0.7427E-12  0.1219E-13  0.7603E-17  0.1000E-09  0.0000E+00  0.2712E+16
   -1.512509    2.64372  0.7406E-12  0.4773E-13  0.8843E-17  0.1000E-09  0.0000E+00  0.2465E+16
   -1.581261    2.76394  0.7388E-12  0.1391E-12  0.1978E-16  0.1000E-09  0.0000E+00  0.2222E+16
   -1.650014    2.88372  0.7372E-12  0.3552E-12  0.4724E-16  0.1000E-09  0.0000E+00  0.1983E+16
   -1.718766    3.00308  0.7359E-12  0.8687E-12  0.1116E-15  0.1000E-09  0.0000E+00  0.1746E+16
   -1.787518    3.12195  0.7349E-12  0.2138E-11  0.2665E-15  0.1000E-09  0.0000E+00  0.1492E+16
   -1.856270    3.23858  0.7340E-12  0.5278E-11  0.6395E-15  0.1000E-09  0.0000E+00  0.1247E+16
   -1.925021    3.35254  0.7334E-12  0.1297E-10  0.1529E-14  0.1000E-09  0.0000E+00  0.1012E+16
   -1.993772    3.46327  0.7329E-12  0.3173E-10  0.3639E-14  0.1000E-09  0.0000E+00  0.7959E+15
   -2.062523    3.57072  0.7326E-12  0.7549E-10  0.8428E-14  0.1000E-09  0.0000E+00  0.6105E+15
   -2.131274    3.67773  0.7324E-12  0.1773E-09  0.1927E-13  0.2286E-09  0.0000E+00  0.4288E+15
   -2.200024    3.78458  0.7323E-12  0.4126E-09  0.4369E-13  0.8952E-09  0.0000E+00  0.2481E+15
   -2.268774    3.89096  0.7322E-12  0.9570E-09  0.9881E-13  0.7066E-08  0.0000E+00  0.7092E+14
   -2.337523    3.99307  0.7322E-12  0.1565E-08  0.1622E-12  0.5912E-05  0.0000E+00 -0.3123E+12
   -2.406272    3.99557  0.7322E-12  0.1849E-08  0.2045E-12  0.6645E-05  0.0000E+00 -0.3580E+12
   -2.475021    3.99778  0.7322E-12  0.2051E-08  0.2554E-12  0.6381E-05  0.0000E+00 -0.4493E+12
   -2.543768    4.00006  0.7322E-12  0.2155E-08  0.3300E-12  0.5131E-05  0.0000E+00 -0.6601E+12
   -2.612516    4.00284  0.7322E-12  0.2097E-08  0.4851E-12  0.2896E-05  0.0000E+00 -0.1404E+13
   -2.681262    4.00759  0.7322E-12  0.1566E-08  0.1164E-11  0.4798E-06  0.0000E+00 -0.1104E+14
   -2.750008    4.02947  0.7322E-12  0.0000E+00  0.0000E+00  0.0000E+00  0.0000E+00  0.0000E+00
