 1 - depth, m
 2 - temperature, C
 3 - salinity, kg/kg
 4 - turbulent kinetic energy, m**2/s**2
 5 - dissipation rate, m**2/s**3
 6 - kinematic heat conductance, m**2/s
 7 - modulus of horizontal velocity, m/s
 8 - Richardson number, n/d
   -0.000000    0.87458  0.4231E-10  0.1097E-03  0.3093E-04  0.8819E-04  0.1073E+00 -0.6419E-03
   -0.068746    0.97134  0.4231E-10  0.6518E-04  0.7123E-05  0.1373E-03  0.5323E-01  0.1744E-01
   -0.137492    0.98905  0.4231E-10  0.5194E-04  0.2984E-05  0.1630E-03  0.4443E-01  0.1793E-01
   -0.206239    1.00169  0.4231E-10  0.4477E-04  0.1533E-05  0.1929E-03  0.3921E-01  0.2438E-01
   -0.274987    1.01161  0.4231E-10  0.4031E-04  0.9074E-06  0.2267E-03  0.3530E-01  0.3128E-01
   -0.343735    1.01975  0.4231E-10  0.3735E-04  0.6014E-06  0.2614E-03  0.3217E-01  0.3857E-01
   -0.412484    1.02664  0.4231E-10  0.3523E-04  0.4347E-06  0.2953E-03  0.2958E-01  0.4617E-01
   -0.481233    1.03261  0.4231E-10  0.3362E-04  0.3349E-06  0.3278E-03  0.2737E-01  0.5401E-01
   -0.549983    1.03790  0.4231E-10  0.3232E-04  0.2702E-06  0.3584E-03  0.2546E-01  0.6203E-01
   -0.618733    1.04269  0.4231E-10  0.3121E-04  0.2255E-06  0.3867E-03  0.2378E-01  0.7017E-01
   -0.687483    1.04709  0.4231E-10  0.3024E-04  0.1929E-06  0.4128E-03  0.2227E-01  0.7838E-01
   -0.756234    1.05119  0.4231E-10  0.2938E-04  0.1683E-06  0.4366E-03  0.2090E-01  0.8661E-01
   -0.824985    1.05506  0.4231E-10  0.2859E-04  0.1491E-06  0.4581E-03  0.1964E-01  0.9482E-01
   -0.893737    1.05873  0.4231E-10  0.2786E-04  0.1337E-06  0.4773E-03  0.1847E-01  0.1030E+00
   -0.962488    1.06226  0.4231E-10  0.2718E-04  0.1212E-06  0.4943E-03  0.1738E-01  0.1111E+00
   -1.031240    1.06567  0.4231E-10  0.2654E-04  0.1109E-06  0.5092E-03  0.1635E-01  0.1192E+00
   -1.099992    1.06899  0.4231E-10  0.2595E-04  0.1023E-06  0.5221E-03  0.1538E-01  0.1272E+00
   -1.168744    1.07224  0.4231E-10  0.2538E-04  0.9497E-07  0.5331E-03  0.1445E-01  0.1355E+00
   -1.237497    1.07541  0.4231E-10  0.2486E-04  0.8879E-07  0.5424E-03  0.1356E-01  0.1444E+00
   -1.306249    1.07852  0.4231E-10  0.2436E-04  0.8354E-07  0.5502E-03  0.1270E-01  0.1547E+00
   -1.375001    1.08155  0.4231E-10  0.2390E-04  0.7911E-07  0.5566E-03  0.1187E-01  0.1677E+00
   -1.443754    1.08446  0.4231E-10  0.2348E-04  0.7543E-07  0.5616E-03  0.1107E-01  0.1857E+00
   -1.512506    1.08721  0.4231E-10  0.2311E-04  0.7245E-07  0.5644E-03  0.1031E-01  0.2137E+00
   -1.581258    1.08978  0.4231E-10  0.2279E-04  0.7017E-07  0.5635E-03  0.9561E-02  0.3201E+00
   -1.650010    1.09219  0.4231E-10  0.2257E-04  0.6901E-07  0.5371E-03  0.8824E-02  0.2102E+00
   -1.718762    1.09565  0.4231E-10  0.2183E-04  0.6565E-07  0.4934E-03  0.6796E-02  0.2575E+00
   -1.787514    1.09912  0.4231E-10  0.2039E-04  0.5887E-07  0.5474E-03  0.4793E-02  0.1190E+01
   -1.856266    1.10141  0.4231E-10  0.1919E-04  0.5372E-07  0.5535E-03  0.4171E-02  0.7030E+00
   -1.925017    1.10372  0.4231E-10  0.1803E-04  0.4916E-07  0.5505E-03  0.3654E-02  0.1130E+01
   -1.993768    1.10613  0.4231E-10  0.1692E-04  0.4514E-07  0.5353E-03  0.3222E-02  0.1917E+01
   -2.062519    1.10870  0.4231E-10  0.1589E-04  0.4175E-07  0.5094E-03  0.2848E-02  0.2854E+01
   -2.131269    1.11174  0.4231E-10  0.1492E-04  0.3891E-07  0.4821E-03  0.2498E-02  0.4821E+01
   -2.200019    1.11568  0.4231E-10  0.1402E-04  0.3661E-07  0.4531E-03  0.2169E-02  0.9610E+01
   -2.268769    1.12253  0.4231E-10  0.1316E-04  0.3484E-07  0.4275E-03  0.1851E-02  0.9178E+02
   -2.337518    1.14188  0.4231E-10  0.1234E-04  0.3369E-07  0.3998E-03  0.1569E-02  0.3148E+05
   -2.406267    1.19748  0.4231E-10  0.1160E-04  0.3342E-07  0.3663E-03  0.1326E-02  0.3056E+08
   -2.475015    1.28109  0.4231E-10  0.1089E-04  0.3447E-07  0.3228E-03  0.1116E-02  0.3203E+11
   -2.543763    1.36275  0.4231E-10  0.1012E-04  0.3794E-07  0.2638E-03  0.9220E-03  0.6320E+14
   -2.612510    1.47374  0.4231E-10  0.9126E-05  0.4825E-07  0.1793E-03  0.7355E-03  0.2441E+16
   -2.681257    1.65051  0.4231E-10  0.5243E-05  0.1488E-06  0.2173E-04  0.5509E-03  0.1487E+16
   -2.750002    1.77004  0.4231E-10  0.0000E+00  0.0000E+00  0.0000E+00  0.5498E-03  0.0000E+00
