 1 - depth, m
 2 - temperature, C
 3 - salinity, kg/kg
 4 - turbulent kinetic energy, m**2/s**2
 5 - dissipation rate, m**2/s**3
 6 - kinematic heat conductance, m**2/s
 7 - modulus of horizontal velocity, m/s
 8 - Richardson number, n/d
   -0.000000   -0.00000  0.6539E-12  0.1219E-13  0.7603E-17  0.1000E-09  0.0000E+00  0.7341E+16
   -0.068746    0.11180  0.1834E-11  0.1219E-13  0.7603E-17  0.1000E-09  0.0000E+00  0.7247E+16
   -0.137493    0.22564  0.2309E-11  0.1219E-13  0.7603E-17  0.1000E-09  0.0000E+00  0.7125E+16
   -0.206240    0.34127  0.2361E-11  0.1219E-13  0.7603E-17  0.1000E-09  0.0000E+00  0.6978E+16
   -0.274988    0.45841  0.2228E-11  0.1219E-13  0.7603E-17  0.1000E-09  0.0000E+00  0.6808E+16
   -0.343736    0.57681  0.2050E-11  0.1219E-13  0.7603E-17  0.1000E-09  0.0000E+00  0.6619E+16
   -0.412485    0.69626  0.1898E-11  0.1219E-13  0.7603E-17  0.1000E-09  0.0000E+00  0.6413E+16
   -0.481234    0.81653  0.1794E-11  0.1219E-13  0.7603E-17  0.1000E-09  0.0000E+00  0.6194E+16
   -0.549984    0.93745  0.1734E-11  0.1219E-13  0.7603E-17  0.1000E-09  0.0000E+00  0.5964E+16
   -0.618734    1.05884  0.1703E-11  0.1219E-13  0.7603E-17  0.1000E-09  0.0000E+00  0.5725E+16
   -0.687485    1.18054  0.1689E-11  0.1219E-13  0.7603E-17  0.1000E-09  0.0000E+00  0.5480E+16
   -0.756236    1.30245  0.1682E-11  0.1219E-13  0.7603E-17  0.1000E-09  0.0000E+00  0.5229E+16
   -0.824987    1.42445  0.1679E-11  0.1219E-13  0.7603E-17  0.1000E-09  0.0000E+00  0.4975E+16
   -0.893739    1.54642  0.1678E-11  0.1219E-13  0.7603E-17  0.1000E-09  0.0000E+00  0.4718E+16
   -0.962490    1.66827  0.1676E-11  0.1219E-13  0.7603E-17  0.1000E-09  0.0000E+00  0.4460E+16
   -1.031242    1.78991  0.1675E-11  0.1219E-13  0.7603E-17  0.1000E-09  0.0000E+00  0.4202E+16
   -1.099995    1.91127  0.1672E-11  0.1219E-13  0.7603E-17  0.1000E-09  0.0000E+00  0.3944E+16
   -1.168747    2.03227  0.1669E-11  0.1219E-13  0.7603E-17  0.1000E-09  0.0000E+00  0.3688E+16
   -1.237499    2.15286  0.1666E-11  0.1219E-13  0.7603E-17  0.1000E-09  0.0000E+00  0.3434E+16
   -1.306252    2.27300  0.1661E-11  0.1219E-13  0.7603E-17  0.1000E-09  0.0000E+00  0.3182E+16
   -1.375004    2.39266  0.1656E-11  0.1219E-13  0.7603E-17  0.1000E-09  0.0000E+00  0.2935E+16
   -1.443757    2.51184  0.1652E-11  0.1219E-13  0.7603E-17  0.1000E-09  0.0000E+00  0.2691E+16
   -1.512509    2.63054  0.1647E-11  0.1219E-13  0.7603E-17  0.1000E-09  0.0000E+00  0.2451E+16
   -1.581262    2.74875  0.1643E-11  0.1219E-13  0.7603E-17  0.1000E-09  0.0000E+00  0.2215E+16
   -1.650014    2.86651  0.1640E-11  0.5784E-13  0.1199E-16  0.1000E-09  0.0000E+00  0.1983E+16
   -1.718766    2.98384  0.1637E-11  0.1797E-12  0.3118E-16  0.1000E-09  0.0000E+00  0.1754E+16
   -1.787518    3.10071  0.1635E-11  0.5138E-12  0.8476E-16  0.1000E-09  0.0000E+00  0.1510E+16
   -1.856270    3.21556  0.1633E-11  0.1443E-11  0.2303E-15  0.1000E-09  0.0000E+00  0.1273E+16
   -1.925021    3.32799  0.1632E-11  0.4010E-11  0.6211E-15  0.1000E-09  0.0000E+00  0.1044E+16
   -1.993773    3.43736  0.1631E-11  0.1106E-10  0.1663E-14  0.1000E-09  0.0000E+00  0.8306E+15
   -2.062524    3.54344  0.1630E-11  0.2957E-10  0.4321E-14  0.1000E-09  0.0000E+00  0.6464E+15
   -2.131274    3.64851  0.1629E-11  0.7795E-10  0.1107E-13  0.1202E-09  0.0000E+00  0.4678E+15
   -2.200024    3.75252  0.1629E-11  0.2034E-09  0.2809E-13  0.4849E-09  0.0000E+00  0.2940E+15
   -2.268774    3.85505  0.1629E-11  0.5296E-09  0.7114E-13  0.2825E-08  0.0000E+00  0.1275E+15
   -2.337524    3.95502  0.1629E-11  0.1312E-08  0.1728E-12  0.1500E-06  0.0000E+00  0.5160E+13
   -2.406273    4.00426  0.1629E-11  0.2171E-08  0.2927E-12  0.7401E-05  0.0000E+00 -0.5627E+12
   -2.475021    4.00616  0.1629E-11  0.2507E-08  0.3646E-12  0.7221E-05  0.0000E+00 -0.6329E+12
   -2.543769    4.00810  0.1629E-11  0.2670E-08  0.4559E-12  0.5950E-05  0.0000E+00 -0.8377E+12
   -2.612516    4.01043  0.1629E-11  0.2599E-08  0.6341E-12  0.3466E-05  0.0000E+00 -0.1579E+13
   -2.681263    4.01430  0.1629E-11  0.1888E-08  0.1448E-11  0.5411E-06  0.0000E+00 -0.1128E+14
   -2.750009    4.03347  0.1629E-11  0.0000E+00  0.0000E+00  0.0000E+00  0.0000E+00  0.0000E+00
