 1 - depth, m
 2 - temperature, C
 3 - salinity, kg/kg
 4 - turbulent kinetic energy, m**2/s**2
 5 - dissipation rate, m**2/s**3
 6 - kinematic heat conductance, m**2/s
 7 - modulus of horizontal velocity, m/s
 8 - Richardson number, n/d
   -0.000000   13.46952  0.2883E-11  0.2244E-04  0.1662E-05  0.3502E-04  0.3737E-01 -0.1243E-01
   -0.068746   13.49050  0.2883E-11  0.1935E-04  0.4779E-06  0.9037E-04  0.2329E-01 -0.3404E-01
   -0.137492   13.49726  0.2883E-11  0.1825E-04  0.2520E-06  0.1479E-03  0.1882E-01 -0.5359E-01
   -0.206239   13.50113  0.2883E-11  0.1754E-04  0.1659E-06  0.2089E-03  0.1612E-01 -0.7345E-01
   -0.274987   13.50367  0.2883E-11  0.1701E-04  0.1218E-06  0.2728E-03  0.1424E-01 -0.9324E-01
   -0.343735   13.50550  0.2883E-11  0.1657E-04  0.9540E-07  0.3427E-03  0.1284E-01 -0.9570E-01
   -0.412484   13.50688  0.2883E-11  0.1621E-04  0.7804E-07  0.4521E-03  0.1172E-01  0.4042E+02
   -0.481233   13.50793  0.2883E-11  0.1592E-04  0.6593E-07  0.5675E-03  0.1082E-01  0.1151E+02
   -0.549983   13.50875  0.2883E-11  0.1568E-04  0.5710E-07  0.6857E-03  0.1006E-01  0.9292E+01
   -0.618733   13.50941  0.2883E-11  0.1549E-04  0.5050E-07  0.9000E-03  0.9406E-02  0.1156E+02
   -0.687483   13.50993  0.2884E-11  0.1534E-04  0.4545E-07  0.1068E-02  0.8839E-02  0.9973E+02
   -0.756234   13.51035  0.2884E-11  0.1523E-04  0.4149E-07  0.1322E-02  0.8326E-02  0.5257E+02
   -0.824985   13.51067  0.2884E-11  0.1515E-04  0.3836E-07  0.1609E-02  0.7859E-02  0.7348E+02
   -0.893737   13.51092  0.2884E-11  0.1509E-04  0.3577E-07  0.1661E-02  0.7423E-02  0.1596E+02
   -0.962488   13.51116  0.2884E-11  0.1504E-04  0.3357E-07  0.1703E-02  0.6993E-02  0.1953E+02
   -1.031240   13.51140  0.2884E-11  0.1499E-04  0.3168E-07  0.1733E-02  0.6575E-02  0.2385E+02
   -1.099992   13.51163  0.2884E-11  0.1493E-04  0.3005E-07  0.1760E-02  0.6165E-02  0.3056E+02
   -1.168744   13.51186  0.2884E-11  0.1486E-04  0.2864E-07  0.1783E-02  0.5761E-02  0.4187E+02
   -1.237496   13.51209  0.2884E-11  0.1477E-04  0.2738E-07  0.1789E-02  0.5362E-02  0.6570E+02
   -1.306249   13.51233  0.2884E-11  0.1466E-04  0.2626E-07  0.1812E-02  0.4962E-02  0.1352E+03
   -1.375001   13.51257  0.2884E-11  0.1450E-04  0.2523E-07  0.1773E-02  0.4566E-02  0.1633E+05
   -1.443753   13.51281  0.2884E-11  0.1430E-04  0.2427E-07  0.1851E-02  0.4153E-02  0.1151E+05
   -1.512506   13.51305  0.2884E-11  0.1404E-04  0.2332E-07  0.1675E-02  0.3766E-02  0.1812E+05
   -1.581258   13.51332  0.2884E-11  0.1380E-04  0.2263E-07  0.2771E-02  0.3293E-02  0.1245E+02
   -1.650010   13.51349  0.2884E-11  0.1364E-04  0.2225E-07  0.2723E-02  0.3085E-02  0.1802E+02
   -1.718762   13.51367  0.2884E-11  0.1341E-04  0.2187E-07  0.1627E-02  0.2880E-02  0.9957E+03
   -1.787514   13.51397  0.2884E-11  0.1305E-04  0.2133E-07  0.2618E-02  0.2341E-02  0.9920E+01
   -1.856265   13.51415  0.2884E-11  0.1278E-04  0.2103E-07  0.2461E-02  0.2140E-02  0.4114E+01
   -1.925017   13.51435  0.2884E-11  0.1247E-04  0.2083E-07  0.2387E-02  0.1954E-02  0.2600E+01
   -1.993768   13.51456  0.2884E-11  0.1217E-04  0.2077E-07  0.2291E-02  0.1760E-02  0.1819E+01
   -2.062519   13.51478  0.2884E-11  0.1180E-04  0.2093E-07  0.1414E-02  0.1636E-02  0.2283E+01
   -2.131269   13.51514  0.2884E-11  0.1142E-04  0.2125E-07  0.2089E-02  0.1332E-02  0.1481E+01
   -2.200019   13.51539  0.2884E-11  0.1117E-04  0.2167E-07  0.1806E-02  0.1228E-02  0.6524E+01
   -2.268769   13.51568  0.2884E-11  0.1084E-04  0.2260E-07  0.1503E-02  0.1138E-02  0.1093E+01
   -2.337518   13.51603  0.2884E-11  0.1033E-04  0.2461E-07  0.1325E-02  0.9392E-03  0.8496E+00
   -2.406267   13.51644  0.2884E-11  0.9859E-05  0.2745E-07  0.1194E-02  0.8036E-03  0.2754E+02
   -2.475015   13.51691  0.2884E-11  0.9276E-05  0.3387E-07  0.8915E-03  0.6898E-03  0.5805E+03
   -2.543763   13.51781  0.2884E-11  0.8408E-05  0.4668E-07  0.7264E-03  0.5609E-03  0.7037E+02
   -2.612510   13.51881  0.2884E-11  0.6930E-05  0.8302E-07  0.3595E-03  0.4411E-03  0.1662E+04
   -2.681256   13.52269  0.2884E-11  0.4160E-05  0.2519E-06  0.1081E-03  0.2651E-03 -0.1877E+04
   -2.750002   13.52988  0.2884E-11  0.0000E+00  0.0000E+00  0.0000E+00  0.3641E-03  0.0000E+00
