 1 - depth, m
 2 - temperature, C
 3 - salinity, kg/kg
 4 - turbulent kinetic energy, m**2/s**2
 5 - dissipation rate, m**2/s**3
 6 - kinematic heat conductance, m**2/s
 7 - modulus of horizontal velocity, m/s
 8 - Richardson number, n/d
   -0.000000   -0.00000  0.4599E-18  0.1218E-13  0.7603E-17  0.1000E-09  0.0000E+00  0.4199E+16
   -0.068747    0.06353  0.2520E-12  0.1218E-13  0.7603E-17  0.1000E-09  0.0000E+00  0.4623E+16
   -0.137496    0.13478  0.3956E-11  0.1218E-13  0.7603E-17  0.1000E-09  0.0000E+00  0.4905E+16
   -0.206244    0.21194  0.9851E-11  0.1218E-13  0.7603E-17  0.1000E-09  0.0000E+00  0.5085E+16
   -0.274994    0.29373  0.1516E-10  0.1218E-13  0.7603E-17  0.1000E-09  0.0000E+00  0.5197E+16
   -0.343743    0.37939  0.1833E-10  0.1218E-13  0.7603E-17  0.1000E-09  0.0000E+00  0.5264E+16
   -0.412494    0.46839  0.1935E-10  0.1218E-13  0.7603E-17  0.1000E-09  0.0000E+00  0.5294E+16
   -0.481245    0.56038  0.1897E-10  0.1218E-13  0.7603E-17  0.1000E-09  0.0000E+00  0.5293E+16
   -0.549996    0.65505  0.1801E-10  0.1218E-13  0.7603E-17  0.1000E-09  0.0000E+00  0.5263E+16
   -0.618748    0.75208  0.1702E-10  0.1218E-13  0.7603E-17  0.1000E-09  0.0000E+00  0.5207E+16
   -0.687500    0.85119  0.1623E-10  0.1218E-13  0.7603E-17  0.1000E-09  0.0000E+00  0.5123E+16
   -0.756252    0.95203  0.1569E-10  0.1218E-13  0.7603E-17  0.1000E-09  0.0000E+00  0.5016E+16
   -0.825005    1.05429  0.1538E-10  0.1218E-13  0.7603E-17  0.1000E-09  0.0000E+00  0.4891E+16
   -0.893758    1.15775  0.1520E-10  0.1218E-13  0.7603E-17  0.1000E-09  0.0000E+00  0.4752E+16
   -0.962511    1.26222  0.1511E-10  0.1218E-13  0.7603E-17  0.1000E-09  0.0000E+00  0.4602E+16
   -1.031264    1.36755  0.1507E-10  0.1218E-13  0.7603E-17  0.1000E-09  0.0000E+00  0.4443E+16
   -1.100018    1.47360  0.1504E-10  0.1218E-13  0.7603E-17  0.1000E-09  0.0000E+00  0.4277E+16
   -1.168772    1.58031  0.1502E-10  0.1218E-13  0.7603E-17  0.1000E-09  0.0000E+00  0.4107E+16
   -1.237526    1.68762  0.1500E-10  0.1218E-13  0.7603E-17  0.1000E-09  0.0000E+00  0.3934E+16
   -1.306280    1.79552  0.1498E-10  0.1218E-13  0.7603E-17  0.1000E-09  0.0000E+00  0.3758E+16
   -1.375034    1.90403  0.1495E-10  0.1218E-13  0.7603E-17  0.1000E-09  0.0000E+00  0.3584E+16
   -1.443788    2.01325  0.1492E-10  0.1218E-13  0.7603E-17  0.1000E-09  0.0000E+00  0.3411E+16
   -1.512541    2.12333  0.1488E-10  0.1218E-13  0.7603E-17  0.1000E-09  0.0000E+00  0.3238E+16
   -1.581295    2.23441  0.1484E-10  0.1218E-13  0.7603E-17  0.1000E-09  0.0000E+00  0.3067E+16
   -1.650049    2.34679  0.1480E-10  0.1218E-13  0.7603E-17  0.1000E-09  0.0000E+00  0.2903E+16
   -1.718803    2.46095  0.1476E-10  0.1218E-13  0.7603E-17  0.1000E-09  0.0000E+00  0.2744E+16
   -1.787556    2.57757  0.1473E-10  0.1218E-13  0.7603E-17  0.1000E-09  0.0000E+00  0.2476E+16
   -1.856309    2.69203  0.1470E-10  0.1218E-13  0.7603E-17  0.1000E-09  0.0000E+00  0.2214E+16
   -1.925062    2.80392  0.1468E-10  0.1218E-13  0.7603E-17  0.1000E-09  0.0000E+00  0.1949E+16
   -1.993815    2.91225  0.1467E-10  0.1218E-13  0.7603E-17  0.1000E-09  0.0000E+00  0.1705E+16
   -2.062568    3.01708  0.1465E-10  0.1218E-13  0.7603E-17  0.1000E-09  0.0000E+00  0.1538E+16
   -2.131320    3.12265  0.1464E-10  0.1218E-13  0.7603E-17  0.1000E-09  0.0000E+00  0.1374E+16
   -2.200071    3.22948  0.1462E-10  0.1218E-13  0.7603E-17  0.1000E-09  0.0000E+00  0.1208E+16
   -2.268823    3.33804  0.1461E-10  0.1218E-13  0.7603E-17  0.1000E-09  0.0000E+00  0.1029E+16
   -2.337573    3.44762  0.1461E-10  0.1678E-13  0.1425E-16  0.1000E-09  0.0000E+00  0.8432E+15
   -2.406324    3.55809  0.1460E-10  0.1205E-12  0.1019E-15  0.1000E-09  0.0000E+00  0.6546E+15
   -2.475074    3.66961  0.1460E-10  0.9652E-12  0.7925E-15  0.1000E-09  0.0000E+00  0.4615E+15
   -2.543823    3.78226  0.1459E-10  0.7746E-11  0.6216E-14  0.1098E-09  0.0000E+00  0.2637E+15
   -2.612572    3.89650  0.1459E-10  0.6380E-10  0.5091E-13  0.2994E-08  0.0000E+00  0.5950E+14
   -2.681320    4.00845  0.1459E-10  0.5378E-09  0.4744E-12  0.2210E-06  0.0000E+00 -0.2182E+14
   -2.750067    4.04358  0.1459E-10  0.0000E+00  0.0000E+00  0.0000E+00  0.0000E+00  0.0000E+00
