 1 - depth, m
 2 - temperature, C
 3 - salinity, kg/kg
 4 - turbulent kinetic energy, m**2/s**2
 5 - dissipation rate, m**2/s**3
 6 - kinematic heat conductance, m**2/s
 7 - modulus of horizontal velocity, m/s
 8 - Richardson number, n/d
   -0.000000   14.71207  0.1669E-11  0.2725E-04  0.2474E-05  0.3557E-04  0.4275E-01 -0.1353E-01
   -0.068746   14.74554  0.1669E-11  0.2231E-04  0.6495E-06  0.9349E-04  0.2546E-01 -0.4337E-01
   -0.137492   14.75571  0.1669E-11  0.2086E-04  0.3241E-06  0.1576E-03  0.2051E-01 -0.7122E-01
   -0.206239   14.76159  0.1669E-11  0.2005E-04  0.2063E-06  0.2311E-03  0.1759E-01 -0.1024E+00
   -0.274987   14.76544  0.1669E-11  0.1952E-04  0.1488E-06  0.3148E-03  0.1562E-01 -0.1326E+00
   -0.343735   14.76815  0.1669E-11  0.1916E-04  0.1157E-06  0.4308E-03  0.1420E-01  0.2098E-01
   -0.412484   14.77009  0.1669E-11  0.1893E-04  0.9499E-07  0.6671E-03  0.1311E-01  0.2091E+02
   -0.481233   14.77144  0.1669E-11  0.1881E-04  0.8130E-07  0.1006E-02  0.1227E-01  0.1026E+03
   -0.549983   14.77227  0.1669E-11  0.1878E-04  0.7191E-07  0.1481E-02  0.1158E-01  0.1993E+02
   -0.618733   14.77278  0.1669E-11  0.1883E-04  0.6481E-07  0.1474E-02  0.1099E-01  0.1160E+02
   -0.687483   14.77327  0.1669E-11  0.1891E-04  0.5897E-07  0.1572E-02  0.1040E-01  0.1277E+02
   -0.756234   14.77373  0.1669E-11  0.1901E-04  0.5424E-07  0.1636E-02  0.9848E-02  0.1346E+02
   -0.824985   14.77416  0.1669E-11  0.1911E-04  0.5032E-07  0.1710E-02  0.9320E-02  0.1451E+02
   -0.893736   14.77457  0.1669E-11  0.1921E-04  0.4703E-07  0.1777E-02  0.8814E-02  0.1557E+02
   -0.962488   14.77495  0.1669E-11  0.1930E-04  0.4424E-07  0.1843E-02  0.8324E-02  0.1679E+02
   -1.031240   14.77532  0.1669E-11  0.1938E-04  0.4186E-07  0.1905E-02  0.7848E-02  0.1816E+02
   -1.099992   14.77567  0.1669E-11  0.1943E-04  0.3981E-07  0.1964E-02  0.7383E-02  0.1974E+02
   -1.168744   14.77601  0.1669E-11  0.1945E-04  0.3803E-07  0.2019E-02  0.6927E-02  0.2163E+02
   -1.237496   14.77634  0.1669E-11  0.1944E-04  0.3648E-07  0.2069E-02  0.6477E-02  0.2393E+02
   -1.306248   14.77666  0.1669E-11  0.1939E-04  0.3511E-07  0.2111E-02  0.6032E-02  0.2690E+02
   -1.375000   14.77697  0.1669E-11  0.1930E-04  0.3391E-07  0.2145E-02  0.5590E-02  0.3088E+02
   -1.443753   14.77728  0.1669E-11  0.1916E-04  0.3284E-07  0.2167E-02  0.5150E-02  0.3668E+02
   -1.512505   14.77758  0.1669E-11  0.1895E-04  0.3189E-07  0.2175E-02  0.4710E-02  0.4593E+02
   -1.581257   14.77788  0.1669E-11  0.1869E-04  0.3103E-07  0.2167E-02  0.4270E-02  0.6294E+02
   -1.650009   14.77818  0.1669E-11  0.1835E-04  0.3023E-07  0.2142E-02  0.3826E-02  0.1021E+03
   -1.718761   14.77849  0.1669E-11  0.1792E-04  0.2949E-07  0.2090E-02  0.3379E-02  0.1828E+03
   -1.787513   14.77880  0.1669E-11  0.1739E-04  0.2875E-07  0.2037E-02  0.2924E-02  0.1636E+02
   -1.856265   14.77912  0.1669E-11  0.1677E-04  0.2811E-07  0.1977E-02  0.2529E-02  0.6238E+01
   -1.925016   14.77945  0.1669E-11  0.1608E-04  0.2765E-07  0.1923E-02  0.2186E-02  0.3308E+01
   -1.993767   14.77979  0.1669E-11  0.1535E-04  0.2747E-07  0.1883E-02  0.1894E-02  0.2193E+01
   -2.062518   14.78014  0.1669E-11  0.1463E-04  0.2764E-07  0.1848E-02  0.1643E-02  0.1726E+01
   -2.131268   14.78049  0.1669E-11  0.1392E-04  0.2822E-07  0.1817E-02  0.1420E-02  0.1382E+01
   -2.200018   14.78085  0.1669E-11  0.1324E-04  0.2930E-07  0.1754E-02  0.1220E-02  0.1115E+01
   -2.268768   14.78123  0.1669E-11  0.1261E-04  0.3095E-07  0.1573E-02  0.1044E-02  0.8477E+00
   -2.337517   14.78165  0.1669E-11  0.1203E-04  0.3339E-07  0.1353E-02  0.8968E-03  0.8682E+00
   -2.406266   14.78214  0.1669E-11  0.1143E-04  0.3762E-07  0.1210E-02  0.7783E-03  0.4387E+03
   -2.475014   14.78274  0.1669E-11  0.1064E-04  0.4772E-07  0.9038E-03  0.6748E-03  0.1156E+03
   -2.543762   14.78390  0.1669E-11  0.9424E-05  0.6780E-07  0.7299E-03  0.5464E-03  0.8438E+03
   -2.612509   14.78506  0.1669E-11  0.7479E-05  0.1284E-06  0.3534E-03  0.4278E-03  0.5353E+03
   -2.681255   14.79018  0.1669E-11  0.4600E-05  0.3737E-06  0.1404E-03  0.2499E-03  0.7887E+03
   -2.750001   14.79640  0.1669E-11  0.0000E+00  0.0000E+00  0.0000E+00  0.3686E-03  0.0000E+00
