 1 - depth, m
 2 - temperature, C
 3 - salinity, kg/kg
 4 - turbulent kinetic energy, m**2/s**2
 5 - dissipation rate, m**2/s**3
 6 - kinematic heat conductance, m**2/s
 7 - modulus of horizontal velocity, m/s
 8 - Richardson number, n/d
   -0.000000   -0.00000  0.1515E-11  0.1219E-13  0.7603E-17  0.1000E-09  0.0000E+00  0.4933E+16
   -0.068746    0.07474  0.7994E-12  0.1219E-13  0.7603E-17  0.1000E-09  0.0000E+00  0.4735E+16
   -0.137492    0.14796  0.6250E-12  0.1219E-13  0.7603E-17  0.1000E-09  0.0000E+00  0.4580E+16
   -0.206239    0.22022  0.5859E-12  0.1219E-13  0.7603E-17  0.1000E-09  0.0000E+00  0.4464E+16
   -0.274986    0.29211  0.5780E-12  0.1219E-13  0.7603E-17  0.1000E-09  0.0000E+00  0.4387E+16
   -0.343735    0.36423  0.5766E-12  0.1219E-13  0.7603E-17  0.1000E-09  0.0000E+00  0.4345E+16
   -0.412483    0.43719  0.5764E-12  0.1219E-13  0.7603E-17  0.1000E-09  0.0000E+00  0.4336E+16
   -0.481232    0.51163  0.5764E-12  0.1219E-13  0.7603E-17  0.1000E-09  0.0000E+00  0.4357E+16
   -0.549982    0.58817  0.5764E-12  0.1219E-13  0.7603E-17  0.1000E-09  0.0000E+00  0.4404E+16
   -0.618732    0.66743  0.5764E-12  0.1219E-13  0.7603E-17  0.1000E-09  0.0000E+00  0.4474E+16
   -0.687482    0.75005  0.5764E-12  0.1219E-13  0.7603E-17  0.1000E-09  0.0000E+00  0.4577E+16
   -0.756233    0.83692  0.5764E-12  0.1219E-13  0.7603E-17  0.1000E-09  0.0000E+00  0.4699E+16
   -0.824984    0.92884  0.5764E-12  0.1219E-13  0.7603E-17  0.1000E-09  0.0000E+00  0.4826E+16
   -0.893735    1.02637  0.5764E-12  0.1219E-13  0.7603E-17  0.1000E-09  0.0000E+00  0.4951E+16
   -0.962486    1.13006  0.5764E-12  0.1219E-13  0.7603E-17  0.1000E-09  0.0000E+00  0.5067E+16
   -1.031238    1.24042  0.5763E-12  0.1219E-13  0.7603E-17  0.1000E-09  0.0000E+00  0.5165E+16
   -1.099990    1.35790  0.5761E-12  0.1219E-13  0.7603E-17  0.1000E-09  0.0000E+00  0.5237E+16
   -1.168742    1.48289  0.5754E-12  0.4301E-13  0.9491E-17  0.1000E-09  0.0000E+00  0.5274E+16
   -1.237494    1.61573  0.5740E-12  0.1339E-12  0.2379E-16  0.1000E-09  0.0000E+00  0.5269E+16
   -1.306246    1.75666  0.5713E-12  0.3752E-12  0.6305E-16  0.1000E-09  0.0000E+00  0.5213E+16
   -1.374998    1.90583  0.5679E-12  0.1015E-11  0.1648E-15  0.1000E-09  0.0000E+00  0.5113E+16
   -1.443750    2.06374  0.5648E-12  0.2697E-11  0.4246E-15  0.1000E-09  0.0000E+00  0.4948E+16
   -1.512503    2.23049  0.5630E-12  0.7063E-11  0.1079E-14  0.1000E-09  0.0000E+00  0.4707E+16
   -1.581255    2.40588  0.5620E-12  0.1825E-10  0.2706E-14  0.1000E-09  0.0000E+00  0.4387E+16
   -1.650007    2.58961  0.5614E-12  0.4656E-10  0.6702E-14  0.1000E-09  0.0000E+00  0.3987E+16
   -1.718759    2.78125  0.5610E-12  0.1173E-09  0.1640E-13  0.1000E-09  0.0000E+00  0.3509E+16
   -1.787510    2.98031  0.5608E-12  0.2993E-09  0.4065E-13  0.1000E-09  0.0000E+00  0.2976E+16
   -1.856262    3.18785  0.5606E-12  0.7676E-09  0.1013E-12  0.2181E-09  0.0000E+00  0.2364E+16
   -1.925013    3.40402  0.5604E-12  0.1958E-08  0.2512E-12  0.7671E-09  0.0000E+00  0.1667E+16
   -1.993764    3.62878  0.5597E-12  0.4957E-08  0.6190E-12  0.3595E-08  0.0000E+00  0.8766E+15
   -2.062515    3.85834  0.5586E-12  0.1179E-07  0.1439E-11  0.6270E-07  0.0000E+00  0.1170E+15
   -2.131265    4.02479  0.5585E-12  0.1335E-07  0.1640E-11  0.4548E-04  0.0000E+00 -0.4506E+12
   -2.200015    4.02553  0.5585E-12  0.1397E-07  0.1743E-11  0.4552E-04  0.0000E+00 -0.4599E+12
   -2.268764    4.02627  0.5585E-12  0.1443E-07  0.1855E-11  0.4437E-04  0.0000E+00 -0.4822E+12
   -2.337513    4.02703  0.5585E-12  0.1476E-07  0.1989E-11  0.4186E-04  0.0000E+00 -0.5232E+12
   -2.406262    4.02785  0.5585E-12  0.1494E-07  0.2167E-11  0.3779E-04  0.0000E+00 -0.5947E+12
   -2.475010    4.02875  0.5585E-12  0.1494E-07  0.2432E-11  0.3185E-04  0.0000E+00 -0.7278E+12
   -2.543758    4.02983  0.5585E-12  0.1468E-07  0.2896E-11  0.2370E-04  0.0000E+00 -0.1019E+13
   -2.612505    4.03130  0.5585E-12  0.1387E-07  0.4005E-11  0.1313E-04  0.0000E+00 -0.1968E+13
   -2.681251    4.03401  0.5585E-12  0.1011E-07  0.1103E-10  0.1768E-05  0.0000E+00 -0.1871E+14
   -2.749997    4.05462  0.5585E-12  0.0000E+00  0.0000E+00  0.0000E+00  0.0000E+00  0.0000E+00
