 1 - depth, m
 2 - temperature, C
 3 - salinity, kg/kg
 4 - turbulent kinetic energy, m**2/s**2
 5 - dissipation rate, m**2/s**3
 6 - kinematic heat conductance, m**2/s
 7 - modulus of horizontal velocity, m/s
 8 - Richardson number, n/d
   -0.000000   -0.00000  0.5702E-10  0.1219E-13  0.7603E-17  0.1000E-09  0.0000E+00  0.7479E+16
   -0.068746    0.11393  0.3406E-10  0.1219E-13  0.7603E-17  0.1000E-09  0.0000E+00  0.7192E+16
   -0.137492    0.22696  0.2449E-10  0.1219E-13  0.7603E-17  0.1000E-09  0.0000E+00  0.6924E+16
   -0.206239    0.33931  0.2115E-10  0.1219E-13  0.7603E-17  0.1000E-09  0.0000E+00  0.6674E+16
   -0.274987    0.45120  0.2015E-10  0.1219E-13  0.7603E-17  0.1000E-09  0.0000E+00  0.6440E+16
   -0.343735    0.56284  0.1988E-10  0.1219E-13  0.7603E-17  0.1000E-09  0.0000E+00  0.6220E+16
   -0.412483    0.67446  0.1982E-10  0.1219E-13  0.7603E-17  0.1000E-09  0.0000E+00  0.6013E+16
   -0.481232    0.78627  0.1981E-10  0.1219E-13  0.7603E-17  0.1000E-09  0.0000E+00  0.5815E+16
   -0.549982    0.89847  0.1981E-10  0.1219E-13  0.7603E-17  0.1000E-09  0.0000E+00  0.5625E+16
   -0.618732    1.01125  0.1980E-10  0.1219E-13  0.7603E-17  0.1000E-09  0.0000E+00  0.5441E+16
   -0.687482    1.12478  0.1980E-10  0.1219E-13  0.7603E-17  0.1000E-09  0.0000E+00  0.5270E+16
   -0.756233    1.23943  0.1980E-10  0.1219E-13  0.7603E-17  0.1000E-09  0.0000E+00  0.5105E+16
   -0.824984    1.35548  0.1980E-10  0.1219E-13  0.7603E-17  0.1000E-09  0.0000E+00  0.4937E+16
   -0.893735    1.47304  0.1980E-10  0.1219E-13  0.7603E-17  0.1000E-09  0.0000E+00  0.4765E+16
   -0.962487    1.59220  0.1980E-10  0.1219E-13  0.7603E-17  0.1000E-09  0.0000E+00  0.4586E+16
   -1.031238    1.71300  0.1979E-10  0.1219E-13  0.7603E-17  0.1000E-09  0.0000E+00  0.4398E+16
   -1.099990    1.83550  0.1976E-10  0.1219E-13  0.7603E-17  0.1000E-09  0.0000E+00  0.4202E+16
   -1.168742    1.95969  0.1972E-10  0.1219E-13  0.7603E-17  0.1000E-09  0.0000E+00  0.3995E+16
   -1.237494    2.08555  0.1966E-10  0.3088E-13  0.7603E-17  0.1000E-09  0.0000E+00  0.3778E+16
   -1.306247    2.21303  0.1958E-10  0.9750E-13  0.1330E-16  0.1000E-09  0.0000E+00  0.3549E+16
   -1.374999    2.34204  0.1949E-10  0.2479E-12  0.2968E-16  0.1000E-09  0.0000E+00  0.3312E+16
   -1.443751    2.47262  0.1941E-10  0.5852E-12  0.6690E-16  0.1000E-09  0.0000E+00  0.3065E+16
   -1.512503    2.60467  0.1936E-10  0.1344E-11  0.1490E-15  0.1000E-09  0.0000E+00  0.2805E+16
   -1.581255    2.73802  0.1932E-10  0.3039E-11  0.3281E-15  0.1000E-09  0.0000E+00  0.2535E+16
   -1.650008    2.87248  0.1930E-10  0.6798E-11  0.7147E-15  0.1000E-09  0.0000E+00  0.2255E+16
   -1.718759    3.00783  0.1929E-10  0.1505E-10  0.1541E-14  0.1000E-09  0.0000E+00  0.1969E+16
   -1.787511    3.14390  0.1928E-10  0.3377E-10  0.3370E-14  0.1000E-09  0.0000E+00  0.1695E+16
   -1.856263    3.28213  0.1927E-10  0.7640E-10  0.7429E-14  0.1000E-09  0.0000E+00  0.1409E+16
   -1.925014    3.42262  0.1925E-10  0.1725E-09  0.1636E-13  0.1000E-09  0.0000E+00  0.1111E+16
   -1.993765    3.56556  0.1922E-10  0.3884E-09  0.3592E-13  0.2299E-09  0.0000E+00  0.7948E+15
   -2.062516    3.71042  0.1919E-10  0.8527E-09  0.7697E-13  0.8488E-09  0.0000E+00  0.4612E+15
   -2.131266    3.85431  0.1918E-10  0.1845E-08  0.1626E-12  0.6058E-08  0.0000E+00  0.1364E+15
   -2.200016    3.99227  0.1917E-10  0.2524E-08  0.2240E-12  0.9975E-05  0.0000E+00 -0.2175E+12
   -2.268765    3.99427  0.1917E-10  0.2847E-08  0.2631E-12  0.1141E-04  0.0000E+00 -0.2423E+12
   -2.337515    3.99602  0.1917E-10  0.3117E-08  0.3086E-12  0.1184E-04  0.0000E+00 -0.2802E+12
   -2.406263    3.99772  0.1917E-10  0.3335E-08  0.3660E-12  0.1134E-04  0.0000E+00 -0.3432E+12
   -2.475011    3.99950  0.1917E-10  0.3492E-08  0.4474E-12  0.9874E-05  0.0000E+00 -0.4608E+12
   -2.543759    4.00156  0.1917E-10  0.3561E-08  0.5846E-12  0.7392E-05  0.0000E+00 -0.7332E+12
   -2.612506    4.00437  0.1917E-10  0.3455E-08  0.9045E-12  0.3995E-05  0.0000E+00 -0.1740E+13
   -2.681252    4.00973  0.1917E-10  0.2779E-08  0.2447E-11  0.7713E-06  0.0000E+00 -0.1665E+14
   -2.749998    4.03802  0.1917E-10  0.0000E+00  0.0000E+00  0.0000E+00  0.0000E+00  0.0000E+00
