 1 - depth, m
 2 - temperature, C
 3 - salinity, kg/kg
 4 - turbulent kinetic energy, m**2/s**2
 5 - dissipation rate, m**2/s**3
 6 - kinematic heat conductance, m**2/s
 7 - modulus of horizontal velocity, m/s
 8 - Richardson number, n/d
   -0.000000   -0.00000  0.1816E-11  0.1219E-13  0.7603E-17  0.1000E-09  0.0000E+00  0.4152E+16
   -0.068746    0.06281  0.9953E-12  0.1219E-13  0.7603E-17  0.1000E-09  0.0000E+00  0.3961E+16
   -0.137492    0.12375  0.8043E-12  0.1219E-13  0.7603E-17  0.1000E-09  0.0000E+00  0.3809E+16
   -0.206239    0.18334  0.7639E-12  0.1219E-13  0.7603E-17  0.1000E-09  0.0000E+00  0.3696E+16
   -0.274987    0.24212  0.7564E-12  0.1219E-13  0.7603E-17  0.1000E-09  0.0000E+00  0.3621E+16
   -0.343735    0.30068  0.7551E-12  0.1219E-13  0.7603E-17  0.1000E-09  0.0000E+00  0.3585E+16
   -0.412483    0.35965  0.7550E-12  0.1219E-13  0.7603E-17  0.1000E-09  0.0000E+00  0.3588E+16
   -0.481232    0.41970  0.7549E-12  0.1219E-13  0.7603E-17  0.1000E-09  0.0000E+00  0.3629E+16
   -0.549982    0.48156  0.7549E-12  0.1219E-13  0.7603E-17  0.1000E-09  0.0000E+00  0.3708E+16
   -0.618732    0.54597  0.7549E-12  0.1219E-13  0.7603E-17  0.1000E-09  0.0000E+00  0.3822E+16
   -0.687482    0.61373  0.7549E-12  0.1219E-13  0.7603E-17  0.1000E-09  0.0000E+00  0.3986E+16
   -0.756233    0.68596  0.7549E-12  0.1219E-13  0.7603E-17  0.1000E-09  0.0000E+00  0.4187E+16
   -0.824984    0.76368  0.7549E-12  0.1219E-13  0.7603E-17  0.1000E-09  0.0000E+00  0.4409E+16
   -0.893735    0.84771  0.7549E-12  0.1219E-13  0.7603E-17  0.1000E-09  0.0000E+00  0.4645E+16
   -0.962486    0.93889  0.7549E-12  0.1219E-13  0.7603E-17  0.1000E-09  0.0000E+00  0.4887E+16
   -1.031238    1.03803  0.7549E-12  0.1219E-13  0.7603E-17  0.1000E-09  0.0000E+00  0.5125E+16
   -1.099990    1.14588  0.7547E-12  0.1219E-13  0.7603E-17  0.1000E-09  0.0000E+00  0.5346E+16
   -1.168742    1.26317  0.7542E-12  0.3577E-13  0.8418E-17  0.1000E-09  0.0000E+00  0.5538E+16
   -1.237494    1.39052  0.7526E-12  0.1126E-12  0.2097E-16  0.1000E-09  0.0000E+00  0.5688E+16
   -1.306246    1.52847  0.7493E-12  0.3217E-12  0.5655E-16  0.1000E-09  0.0000E+00  0.5780E+16
   -1.374999    1.67746  0.7444E-12  0.8878E-12  0.1507E-15  0.1000E-09  0.0000E+00  0.5823E+16
   -1.443751    1.83841  0.7399E-12  0.2406E-11  0.3959E-15  0.1000E-09  0.0000E+00  0.5782E+16
   -1.512503    2.01165  0.7374E-12  0.6424E-11  0.1025E-14  0.1000E-09  0.0000E+00  0.5636E+16
   -1.581255    2.19714  0.7361E-12  0.1692E-10  0.2622E-14  0.1000E-09  0.0000E+00  0.5373E+16
   -1.650007    2.39463  0.7353E-12  0.4400E-10  0.6617E-14  0.1000E-09  0.0000E+00  0.4987E+16
   -1.718759    2.60365  0.7347E-12  0.1129E-09  0.1649E-13  0.1000E-09  0.0000E+00  0.4474E+16
   -1.787511    2.82354  0.7345E-12  0.2939E-09  0.4168E-13  0.1000E-09  0.0000E+00  0.3850E+16
   -1.856262    3.05432  0.7343E-12  0.7679E-09  0.1058E-12  0.1732E-09  0.0000E+00  0.3111E+16
   -1.925013    3.29594  0.7340E-12  0.1996E-08  0.2673E-12  0.6052E-09  0.0000E+00  0.2249E+16
   -1.993764    3.54806  0.7333E-12  0.5151E-08  0.6712E-12  0.2715E-08  0.0000E+00  0.1259E+16
   -2.062515    3.80701  0.7315E-12  0.1266E-07  0.1610E-11  0.3407E-07  0.0000E+00  0.2413E+15
   -2.131265    4.02401  0.7311E-12  0.1436E-07  0.1836E-11  0.4640E-04  0.0000E+00 -0.4867E+12
   -2.200015    4.02483  0.7311E-12  0.1503E-07  0.1953E-11  0.4659E-04  0.0000E+00 -0.4977E+12
   -2.268765    4.02565  0.7311E-12  0.1553E-07  0.2081E-11  0.4552E-04  0.0000E+00 -0.5232E+12
   -2.337514    4.02649  0.7311E-12  0.1589E-07  0.2236E-11  0.4304E-04  0.0000E+00 -0.5693E+12
   -2.406263    4.02738  0.7311E-12  0.1609E-07  0.2441E-11  0.3892E-04  0.0000E+00 -0.6495E+12
   -2.475011    4.02838  0.7311E-12  0.1611E-07  0.2746E-11  0.3287E-04  0.0000E+00 -0.7984E+12
   -2.543758    4.02957  0.7311E-12  0.1585E-07  0.3280E-11  0.2452E-04  0.0000E+00 -0.1124E+13
   -2.612505    4.03120  0.7311E-12  0.1501E-07  0.4557E-11  0.1365E-04  0.0000E+00 -0.2191E+13
   -2.681251    4.03422  0.7311E-12  0.1100E-07  0.1266E-10  0.1865E-05  0.0000E+00 -0.2158E+14
   -2.749997    4.05740  0.7311E-12  0.0000E+00  0.0000E+00  0.0000E+00  0.0000E+00  0.0000E+00
