 1 - depth, m
 2 - temperature, C
 3 - salinity, kg/kg
 4 - turbulent kinetic energy, m**2/s**2
 5 - dissipation rate, m**2/s**3
 6 - kinematic heat conductance, m**2/s
 7 - modulus of horizontal velocity, m/s
 8 - Richardson number, n/d
   -0.000000    8.42173  0.2840E-11  0.3050E-04  0.3127E-05  0.3413E-04  0.4762E-01 -0.5425E-02
   -0.068746    8.46072  0.2840E-11  0.2374E-04  0.7781E-06  0.8633E-04  0.2769E-01 -0.1921E-01
   -0.137492    8.47263  0.2840E-11  0.2191E-04  0.3767E-06  0.1404E-03  0.2227E-01 -0.3119E-01
   -0.206239    8.47991  0.2840E-11  0.2090E-04  0.2364E-06  0.1989E-03  0.1895E-01 -0.4426E-01
   -0.274987    8.48492  0.2840E-11  0.2019E-04  0.1690E-06  0.2608E-03  0.1666E-01 -0.5842E-01
   -0.343735    8.48863  0.2840E-11  0.1961E-04  0.1301E-06  0.3252E-03  0.1495E-01 -0.7346E-01
   -0.412484    8.49151  0.2840E-11  0.1913E-04  0.1050E-06  0.3917E-03  0.1360E-01 -0.8922E-01
   -0.481233    8.49384  0.2840E-11  0.1873E-04  0.8765E-07  0.4600E-03  0.1250E-01 -0.1051E+00
   -0.549983    8.49577  0.2840E-11  0.1838E-04  0.7508E-07  0.5333E-03  0.1159E-01 -0.1115E+00
   -0.618733    8.49740  0.2840E-11  0.1809E-04  0.6565E-07  0.6426E-03  0.1080E-01  0.7844E-01
   -0.687483    8.49874  0.2840E-11  0.1784E-04  0.5849E-07  0.9357E-03  0.1012E-01  0.1044E+02
   -0.756234    8.49975  0.2840E-11  0.1764E-04  0.5294E-07  0.1177E-02  0.9530E-02  0.9186E+02
   -0.824985    8.50051  0.2840E-11  0.1749E-04  0.4856E-07  0.1641E-02  0.8992E-02  0.1619E+03
   -0.893737    8.50101  0.2840E-11  0.1736E-04  0.4499E-07  0.1783E-02  0.8510E-02  0.1802E+02
   -0.962488    8.50145  0.2840E-11  0.1725E-04  0.4193E-07  0.1829E-02  0.8036E-02  0.2268E+02
   -1.031240    8.50187  0.2840E-11  0.1715E-04  0.3929E-07  0.1875E-02  0.7576E-02  0.2700E+02
   -1.099992    8.50227  0.2840E-11  0.1705E-04  0.3702E-07  0.1918E-02  0.7129E-02  0.3234E+02
   -1.168744    8.50265  0.2840E-11  0.1694E-04  0.3503E-07  0.1957E-02  0.6695E-02  0.3947E+02
   -1.237497    8.50302  0.2840E-11  0.1683E-04  0.3329E-07  0.1992E-02  0.6271E-02  0.4956E+02
   -1.306249    8.50338  0.2840E-11  0.1670E-04  0.3175E-07  0.2020E-02  0.5855E-02  0.6524E+02
   -1.375001    8.50373  0.2840E-11  0.1655E-04  0.3038E-07  0.2044E-02  0.5445E-02  0.9267E+02
   -1.443754    8.50407  0.2840E-11  0.1638E-04  0.2914E-07  0.2060E-02  0.5041E-02  0.1514E+03
   -1.512506    8.50440  0.2840E-11  0.1619E-04  0.2803E-07  0.2070E-02  0.4640E-02  0.3376E+03
   -1.581258    8.50473  0.2840E-11  0.1597E-04  0.2701E-07  0.2069E-02  0.4242E-02  0.1449E+05
   -1.650010    8.50505  0.2840E-11  0.1571E-04  0.2606E-07  0.2067E-02  0.3844E-02  0.2564E+05
   -1.718762    8.50536  0.2840E-11  0.1542E-04  0.2516E-07  0.2036E-02  0.3447E-02  0.1802E+05
   -1.787514    8.50568  0.2840E-11  0.1506E-04  0.2427E-07  0.2051E-02  0.3045E-02  0.3857E+02
   -1.856266    8.50599  0.2840E-11  0.1466E-04  0.2342E-07  0.2039E-02  0.2690E-02  0.8600E+01
   -1.925017    8.50630  0.2840E-11  0.1421E-04  0.2265E-07  0.2025E-02  0.2372E-02  0.3778E+01
   -1.993768    8.50661  0.2840E-11  0.1374E-04  0.2199E-07  0.2007E-02  0.2092E-02  0.2325E+01
   -2.062519    8.50692  0.2840E-11  0.1327E-04  0.2153E-07  0.1980E-02  0.1843E-02  0.1797E+01
   -2.131269    8.50723  0.2840E-11  0.1281E-04  0.2130E-07  0.1946E-02  0.1612E-02  0.1421E+01
   -2.200020    8.50754  0.2840E-11  0.1237E-04  0.2134E-07  0.1917E-02  0.1398E-02  0.1137E+01
   -2.268769    8.50786  0.2840E-11  0.1194E-04  0.2170E-07  0.1912E-02  0.1200E-02  0.8501E+00
   -2.337518    8.50817  0.2840E-11  0.1153E-04  0.2248E-07  0.1863E-02  0.1024E-02  0.6225E+00
   -2.406267    8.50849  0.2840E-11  0.1114E-04  0.2379E-07  0.1645E-02  0.8724E-03  0.4385E+00
   -2.475015    8.50885  0.2840E-11  0.1079E-04  0.2575E-07  0.1431E-02  0.7460E-03  0.3038E+00
   -2.543763    8.50926  0.2840E-11  0.1046E-04  0.2884E-07  0.1276E-02  0.6478E-03  0.4163E+00
   -2.612510    8.50972  0.2840E-11  0.9912E-05  0.3712E-07  0.5577E-03  0.5659E-03  0.3080E+04
   -2.681257    8.51076  0.2840E-11  0.6114E-05  0.1420E-06  0.3337E-04  0.4432E-03 -0.2800E+03
   -2.750002    8.52768  0.2840E-11  0.0000E+00  0.0000E+00  0.0000E+00  0.4426E-03  0.0000E+00
