 1 - depth, m
 2 - temperature, C
 3 - salinity, kg/kg
 4 - turbulent kinetic energy, m**2/s**2
 5 - dissipation rate, m**2/s**3
 6 - kinematic heat conductance, m**2/s
 7 - modulus of horizontal velocity, m/s
 8 - Richardson number, n/d
   -0.000000   -0.00000  0.1269E-10  0.1219E-13  0.7603E-17  0.1000E-09  0.0000E+00  0.4549E+16
   -0.068746    0.06888  0.6854E-11  0.1219E-13  0.7603E-17  0.1000E-09  0.0000E+00  0.4356E+16
   -0.137492    0.13607  0.5424E-11  0.1219E-13  0.7603E-17  0.1000E-09  0.0000E+00  0.4206E+16
   -0.206239    0.20214  0.5110E-11  0.1219E-13  0.7603E-17  0.1000E-09  0.0000E+00  0.4097E+16
   -0.274986    0.26771  0.5050E-11  0.1219E-13  0.7603E-17  0.1000E-09  0.0000E+00  0.4027E+16
   -0.343734    0.33339  0.5039E-11  0.1219E-13  0.7603E-17  0.1000E-09  0.0000E+00  0.3995E+16
   -0.412483    0.39980  0.5038E-11  0.1219E-13  0.7603E-17  0.1000E-09  0.0000E+00  0.3998E+16
   -0.481232    0.46760  0.5038E-11  0.1219E-13  0.7603E-17  0.1000E-09  0.0000E+00  0.4033E+16
   -0.549982    0.53743  0.5038E-11  0.1219E-13  0.7603E-17  0.1000E-09  0.0000E+00  0.4099E+16
   -0.618732    0.60997  0.5038E-11  0.1219E-13  0.7603E-17  0.1000E-09  0.0000E+00  0.4192E+16
   -0.687482    0.68589  0.5038E-11  0.1219E-13  0.7603E-17  0.1000E-09  0.0000E+00  0.4324E+16
   -0.756232    0.76618  0.5038E-11  0.1219E-13  0.7603E-17  0.1000E-09  0.0000E+00  0.4482E+16
   -0.824983    0.85171  0.5038E-11  0.1219E-13  0.7603E-17  0.1000E-09  0.0000E+00  0.4651E+16
   -0.893735    0.94312  0.5038E-11  0.1219E-13  0.7603E-17  0.1000E-09  0.0000E+00  0.4823E+16
   -0.962486    1.04107  0.5038E-11  0.1219E-13  0.7603E-17  0.1000E-09  0.0000E+00  0.4990E+16
   -1.031238    1.14616  0.5037E-11  0.1219E-13  0.7603E-17  0.1000E-09  0.0000E+00  0.5145E+16
   -1.099990    1.25895  0.5035E-11  0.1219E-13  0.7603E-17  0.1000E-09  0.0000E+00  0.5278E+16
   -1.168742    1.37997  0.5030E-11  0.4628E-13  0.9726E-17  0.1000E-09  0.0000E+00  0.5379E+16
   -1.237494    1.50964  0.5017E-11  0.1418E-12  0.2396E-16  0.1000E-09  0.0000E+00  0.5437E+16
   -1.306246    1.64833  0.4992E-11  0.3886E-12  0.6205E-16  0.1000E-09  0.0000E+00  0.5443E+16
   -1.374998    1.79630  0.4959E-11  0.1027E-11  0.1586E-15  0.1000E-09  0.0000E+00  0.5403E+16
   -1.443750    1.95423  0.4932E-11  0.2667E-11  0.3995E-15  0.1000E-09  0.0000E+00  0.5292E+16
   -1.512502    2.12230  0.4916E-11  0.6831E-11  0.9938E-15  0.1000E-09  0.0000E+00  0.5094E+16
   -1.581255    2.30038  0.4908E-11  0.1728E-10  0.2442E-14  0.1000E-09  0.0000E+00  0.4804E+16
   -1.650006    2.48816  0.4902E-11  0.4317E-10  0.5930E-14  0.1000E-09  0.0000E+00  0.4417E+16
   -1.718758    2.68518  0.4899E-11  0.1066E-09  0.1424E-13  0.1000E-09  0.0000E+00  0.3935E+16
   -1.787510    2.89083  0.4897E-11  0.2669E-09  0.3465E-13  0.1000E-09  0.0000E+00  0.3382E+16
   -1.856261    3.10597  0.4896E-11  0.6718E-09  0.8485E-13  0.1579E-09  0.0000E+00  0.2736E+16
   -1.925013    3.33063  0.4894E-11  0.1684E-08  0.2070E-12  0.5292E-09  0.0000E+00  0.1991E+16
   -1.993764    3.56454  0.4890E-11  0.4197E-08  0.5023E-12  0.2243E-08  0.0000E+00  0.1141E+16
   -2.062514    3.80462  0.4880E-11  0.1004E-07  0.1172E-11  0.2371E-07  0.0000E+00  0.2521E+15
   -2.131265    4.01629  0.4878E-11  0.1148E-07  0.1349E-11  0.4025E-04  0.0000E+00 -0.4104E+12
   -2.200015    4.01715  0.4878E-11  0.1206E-07  0.1441E-11  0.4059E-04  0.0000E+00 -0.4206E+12
   -2.268764    4.01801  0.4878E-11  0.1249E-07  0.1542E-11  0.3978E-04  0.0000E+00 -0.4436E+12
   -2.337513    4.01889  0.4878E-11  0.1281E-07  0.1663E-11  0.3769E-04  0.0000E+00 -0.4848E+12
   -2.406262    4.01983  0.4878E-11  0.1301E-07  0.1824E-11  0.3412E-04  0.0000E+00 -0.5561E+12
   -2.475010    4.02087  0.4878E-11  0.1304E-07  0.2062E-11  0.2880E-04  0.0000E+00 -0.6887E+12
   -2.543757    4.02212  0.4878E-11  0.1285E-07  0.2479E-11  0.2144E-04  0.0000E+00 -0.9801E+12
   -2.612504    4.02383  0.4878E-11  0.1218E-07  0.3473E-11  0.1188E-04  0.0000E+00 -0.1945E+13
   -2.681251    4.02701  0.4878E-11  0.9063E-08  0.9549E-11  0.1718E-05  0.0000E+00 -0.1878E+14
   -2.749996    4.05000  0.4878E-11  0.0000E+00  0.0000E+00  0.0000E+00  0.0000E+00  0.0000E+00
