 1 - depth, m
 2 - temperature, C
 3 - salinity, kg/kg
 4 - turbulent kinetic energy, m**2/s**2
 5 - dissipation rate, m**2/s**3
 6 - kinematic heat conductance, m**2/s
 7 - modulus of horizontal velocity, m/s
 8 - Richardson number, n/d
   -0.000000   -0.00000  0.4275E-10  0.1219E-13  0.7603E-17  0.1000E-09  0.0000E+00  0.7066E+16
   -0.068746    0.10755  0.2479E-10  0.1219E-13  0.7603E-17  0.1000E-09  0.0000E+00  0.6795E+16
   -0.137492    0.21406  0.1802E-10  0.1219E-13  0.7603E-17  0.1000E-09  0.0000E+00  0.6549E+16
   -0.206239    0.31983  0.1582E-10  0.1219E-13  0.7603E-17  0.1000E-09  0.0000E+00  0.6326E+16
   -0.274987    0.42519  0.1523E-10  0.1219E-13  0.7603E-17  0.1000E-09  0.0000E+00  0.6126E+16
   -0.343735    0.53045  0.1508E-10  0.1219E-13  0.7603E-17  0.1000E-09  0.0000E+00  0.5945E+16
   -0.412483    0.63596  0.1505E-10  0.1219E-13  0.7603E-17  0.1000E-09  0.0000E+00  0.5779E+16
   -0.481232    0.74200  0.1504E-10  0.1219E-13  0.7603E-17  0.1000E-09  0.0000E+00  0.5627E+16
   -0.549982    0.84889  0.1504E-10  0.1219E-13  0.7603E-17  0.1000E-09  0.0000E+00  0.5484E+16
   -0.618732    0.95689  0.1504E-10  0.1219E-13  0.7603E-17  0.1000E-09  0.0000E+00  0.5348E+16
   -0.687482    1.06627  0.1504E-10  0.1219E-13  0.7603E-17  0.1000E-09  0.0000E+00  0.5227E+16
   -0.756233    1.17748  0.1504E-10  0.1219E-13  0.7603E-17  0.1000E-09  0.0000E+00  0.5111E+16
   -0.824984    1.29087  0.1504E-10  0.1219E-13  0.7603E-17  0.1000E-09  0.0000E+00  0.4991E+16
   -0.893735    1.40663  0.1504E-10  0.1219E-13  0.7603E-17  0.1000E-09  0.0000E+00  0.4863E+16
   -0.962487    1.52489  0.1504E-10  0.1219E-13  0.7603E-17  0.1000E-09  0.0000E+00  0.4726E+16
   -1.031238    1.64576  0.1503E-10  0.1219E-13  0.7603E-17  0.1000E-09  0.0000E+00  0.4576E+16
   -1.099990    1.76933  0.1502E-10  0.1219E-13  0.7603E-17  0.1000E-09  0.0000E+00  0.4411E+16
   -1.168742    1.89562  0.1499E-10  0.1219E-13  0.7603E-17  0.1000E-09  0.0000E+00  0.4230E+16
   -1.237494    2.02464  0.1495E-10  0.3917E-13  0.8046E-17  0.1000E-09  0.0000E+00  0.4032E+16
   -1.306247    2.15635  0.1489E-10  0.1171E-12  0.1830E-16  0.1000E-09  0.0000E+00  0.3816E+16
   -1.374999    2.29068  0.1482E-10  0.3108E-12  0.4544E-16  0.1000E-09  0.0000E+00  0.3584E+16
   -1.443751    2.42768  0.1475E-10  0.7920E-12  0.1118E-15  0.1000E-09  0.0000E+00  0.3334E+16
   -1.512503    2.56726  0.1471E-10  0.1980E-11  0.2713E-15  0.1000E-09  0.0000E+00  0.3063E+16
   -1.581255    2.70922  0.1468E-10  0.4883E-11  0.6500E-15  0.1000E-09  0.0000E+00  0.2773E+16
   -1.650007    2.85331  0.1467E-10  0.1190E-10  0.1539E-14  0.1000E-09  0.0000E+00  0.2465E+16
   -1.718759    2.99926  0.1466E-10  0.2865E-10  0.3604E-14  0.1000E-09  0.0000E+00  0.2142E+16
   -1.787511    3.14682  0.1465E-10  0.6992E-10  0.8554E-14  0.1000E-09  0.0000E+00  0.1827E+16
   -1.856262    3.29760  0.1464E-10  0.1717E-09  0.2043E-13  0.1000E-09  0.0000E+00  0.1491E+16
   -1.925014    3.45171  0.1463E-10  0.4198E-09  0.4863E-13  0.2184E-09  0.0000E+00  0.1133E+16
   -1.993765    3.60921  0.1461E-10  0.1022E-08  0.1153E-12  0.7841E-09  0.0000E+00  0.7478E+15
   -2.062515    3.76909  0.1459E-10  0.2416E-08  0.2655E-12  0.3956E-08  0.0000E+00  0.3412E+15
   -2.131266    3.92521  0.1459E-10  0.5318E-08  0.5737E-12  0.1184E-06  0.0000E+00  0.2414E+14
   -2.200016    4.01186  0.1459E-10  0.6434E-08  0.6997E-12  0.2544E-04  0.0000E+00 -0.3575E+12
   -2.268765    4.01274  0.1459E-10  0.6876E-08  0.7656E-12  0.2557E-04  0.0000E+00 -0.3691E+12
   -2.337514    4.01362  0.1459E-10  0.7207E-08  0.8390E-12  0.2468E-04  0.0000E+00 -0.3973E+12
   -2.406263    4.01453  0.1459E-10  0.7429E-08  0.9301E-12  0.2266E-04  0.0000E+00 -0.4510E+12
   -2.475011    4.01553  0.1459E-10  0.7530E-08  0.1060E-11  0.1932E-04  0.0000E+00 -0.5553E+12
   -2.543759    4.01672  0.1459E-10  0.7464E-08  0.1282E-11  0.1444E-04  0.0000E+00 -0.7914E+12
   -2.612506    4.01834  0.1459E-10  0.7070E-08  0.1808E-11  0.7928E-05  0.0000E+00 -0.1601E+13
   -2.681252    4.02138  0.1459E-10  0.5242E-08  0.4810E-11  0.1190E-05  0.0000E+00 -0.1511E+14
   -2.749998    4.04253  0.1459E-10  0.0000E+00  0.0000E+00  0.0000E+00  0.0000E+00  0.0000E+00
