 1 - depth, m
 2 - temperature, C
 3 - salinity, kg/kg
 4 - turbulent kinetic energy, m**2/s**2
 5 - dissipation rate, m**2/s**3
 6 - kinematic heat conductance, m**2/s
 7 - modulus of horizontal velocity, m/s
 8 - Richardson number, n/d
   -0.000000   -0.00000  0.5043E-10  0.2043E-13  0.7728E-17  0.1000E-09  0.2178E-47  0.4391E+16
   -0.068745    0.06647  0.3042E-10  0.2757E-13  0.7683E-17  0.1000E-09  0.1747E-47  0.3795E+16
   -0.137491    0.12489  0.2682E-10  0.4166E-13  0.7791E-17  0.1000E-09  0.1481E-47  0.3195E+16
   -0.206237    0.17481  0.2617E-10  0.6204E-13  0.8056E-17  0.1000E-09  0.1276E-47  0.2615E+16
   -0.274984    0.21620  0.2608E-10  0.8749E-13  0.8470E-17  0.1000E-09  0.1093E-47  0.2077E+16
   -0.343731    0.24943  0.2607E-10  0.1165E-12  0.9004E-17  0.1000E-09  0.9244E-48  0.1600E+16
   -0.412479    0.27524  0.2607E-10  0.1475E-12  0.9618E-17  0.1000E-09  0.7721E-48  0.1197E+16
   -0.481227    0.29467  0.2607E-10  0.1786E-12  0.1027E-16  0.1000E-09  0.6379E-48  0.8768E+15
   -0.549976    0.30898  0.2607E-10  0.2084E-12  0.1091E-16  0.1000E-09  0.5226E-48  0.6430E+15
   -0.618725    0.31951  0.2607E-10  0.2350E-12  0.1151E-16  0.1000E-09  0.4250E-48  0.4965E+15
   -0.687475    0.32766  0.2607E-10  0.2570E-12  0.1202E-16  0.1000E-09  0.3434E-48  0.4474E+15
   -0.756225    0.33502  0.2607E-10  0.2731E-12  0.1240E-16  0.1000E-09  0.2757E-48  0.4939E+15
   -0.824975    0.34317  0.2607E-10  0.2821E-12  0.1264E-16  0.1000E-09  0.2200E-48  0.6356E+15
   -0.893726    0.35368  0.2607E-10  0.2834E-12  0.1271E-16  0.1000E-09  0.1745E-48  0.8803E+15
   -0.962477    0.36830  0.2607E-10  0.2766E-12  0.1261E-16  0.1000E-09  0.1375E-48  0.1238E+16
   -1.031228    0.38895  0.2607E-10  0.2618E-12  0.1234E-16  0.1000E-09  0.1076E-48  0.1717E+16
   -1.099979    0.41781  0.2607E-10  0.2396E-12  0.1192E-16  0.1000E-09  0.8368E-49  0.2325E+16
   -1.168730    0.45730  0.2607E-10  0.2109E-12  0.1137E-16  0.1000E-09  0.6460E-49  0.3062E+16
   -1.237481    0.51001  0.2606E-10  0.1775E-12  0.1074E-16  0.1000E-09  0.4946E-49  0.3916E+16
   -1.306233    0.57869  0.2601E-10  0.1416E-12  0.1009E-16  0.1000E-09  0.3751E-49  0.4863E+16
   -1.374984    0.66607  0.2586E-10  0.1058E-12  0.9507E-17  0.1000E-09  0.2807E-49  0.5929E+16
   -1.443736    0.77599  0.2560E-10  0.7346E-13  0.9100E-17  0.1000E-09  0.2062E-49  0.7002E+16
   -1.512487    0.91116  0.2548E-10  0.4880E-13  0.9125E-17  0.1000E-09  0.1467E-49  0.7985E+16
   -1.581239    1.07335  0.2544E-10  0.5183E-13  0.1354E-16  0.1000E-09  0.9850E-50  0.8792E+16
   -1.649990    1.26364  0.2541E-10  0.1337E-12  0.4030E-16  0.1000E-09  0.5808E-50  0.9337E+16
   -1.718741    1.48229  0.2539E-10  0.4672E-12  0.1384E-15  0.1000E-09  0.2241E-50  0.9527E+16
   -1.787492    1.72808  0.2538E-10  0.1726E-11  0.4925E-15  0.1000E-09  0.1518E-51  0.9004E+16
   -1.856243    1.98910  0.2537E-10  0.6358E-11  0.1747E-14  0.1000E-09  0.9470E-53  0.8232E+16
   -1.924993    2.26328  0.2537E-10  0.2307E-10  0.6105E-14  0.1000E-09  0.5395E-54  0.7227E+16
   -1.993744    2.54780  0.2537E-10  0.8256E-10  0.2105E-13  0.1000E-09  0.3348E-55  0.6060E+16
   -2.062494    2.84107  0.2536E-10  0.2839E-09  0.6978E-13  0.1000E-09  0.2700E-56  0.4837E+16
   -2.131243    3.14737  0.2533E-10  0.9565E-09  0.2268E-12  0.3385E-09  0.2037E-57  0.3410E+16
   -2.199993    3.46361  0.2527E-10  0.3167E-08  0.7250E-12  0.2018E-08  0.1429E-58  0.1828E+16
   -2.268741    3.78302  0.2522E-10  0.1018E-07  0.2256E-11  0.3803E-07  0.6853E-60  0.3005E+15
   -2.337490    4.04164  0.2521E-10  0.1391E-07  0.3116E-11  0.2677E-04  0.2163E-61 -0.1519E+13
   -2.406238    4.04337  0.2521E-10  0.1522E-07  0.3560E-11  0.2638E-04  0.5698E-62 -0.1616E+13
   -2.474985    4.04515  0.2521E-10  0.1607E-07  0.4112E-11  0.2395E-04  0.1360E-62 -0.1882E+13
   -2.543732    4.04716  0.2521E-10  0.1645E-07  0.4976E-11  0.1917E-04  0.2769E-63 -0.2536E+13
   -2.612478    4.04977  0.2521E-10  0.1607E-07  0.6901E-11  0.1165E-04  0.4000E-64 -0.4762E+13
   -2.681224    4.05439  0.2521E-10  0.1277E-07  0.1773E-10  0.2154E-05  0.2859E-65 -0.3959E+14
   -2.749969    4.08477  0.2521E-10  0.0000E+00  0.0000E+00  0.0000E+00  0.3016E-65  0.0000E+00
