 1 - depth, m
 2 - temperature, C
 3 - salinity, kg/kg
 4 - turbulent kinetic energy, m**2/s**2
 5 - dissipation rate, m**2/s**3
 6 - kinematic heat conductance, m**2/s
 7 - modulus of horizontal velocity, m/s
 8 - Richardson number, n/d
   -0.000000   -0.00000  0.1142E-12  0.1219E-13  0.7603E-17  0.1000E-09  0.0000E+00  0.6919E+16
   -0.068746    0.10527  0.7042E-12  0.1219E-13  0.7603E-17  0.1000E-09  0.0000E+00  0.6838E+16
   -0.137493    0.21240  0.1176E-11  0.1219E-13  0.7603E-17  0.1000E-09  0.0000E+00  0.6740E+16
   -0.206240    0.32126  0.1372E-11  0.1219E-13  0.7603E-17  0.1000E-09  0.0000E+00  0.6625E+16
   -0.274988    0.43172  0.1369E-11  0.1219E-13  0.7603E-17  0.1000E-09  0.0000E+00  0.6495E+16
   -0.343736    0.54366  0.1279E-11  0.1219E-13  0.7603E-17  0.1000E-09  0.0000E+00  0.6348E+16
   -0.412485    0.65692  0.1176E-11  0.1219E-13  0.7603E-17  0.1000E-09  0.0000E+00  0.6187E+16
   -0.481234    0.77138  0.1095E-11  0.1219E-13  0.7603E-17  0.1000E-09  0.0000E+00  0.6013E+16
   -0.549984    0.88688  0.1043E-11  0.1219E-13  0.7603E-17  0.1000E-09  0.0000E+00  0.5826E+16
   -0.618734    1.00327  0.1013E-11  0.1219E-13  0.7603E-17  0.1000E-09  0.0000E+00  0.5628E+16
   -0.687485    1.12044  0.9975E-12  0.1219E-13  0.7603E-17  0.1000E-09  0.0000E+00  0.5420E+16
   -0.756236    1.23824  0.9902E-12  0.1219E-13  0.7603E-17  0.1000E-09  0.0000E+00  0.5205E+16
   -0.824987    1.35655  0.9869E-12  0.1219E-13  0.7603E-17  0.1000E-09  0.0000E+00  0.4983E+16
   -0.893739    1.47528  0.9852E-12  0.1219E-13  0.7603E-17  0.1000E-09  0.0000E+00  0.4755E+16
   -0.962491    1.59430  0.9840E-12  0.1219E-13  0.7603E-17  0.1000E-09  0.0000E+00  0.4523E+16
   -1.031242    1.71353  0.9829E-12  0.1219E-13  0.7603E-17  0.1000E-09  0.0000E+00  0.4287E+16
   -1.099995    1.83288  0.9813E-12  0.1219E-13  0.7603E-17  0.1000E-09  0.0000E+00  0.4050E+16
   -1.168747    1.95227  0.9794E-12  0.1219E-13  0.7603E-17  0.1000E-09  0.0000E+00  0.3811E+16
   -1.237499    2.07164  0.9770E-12  0.1219E-13  0.7603E-17  0.1000E-09  0.0000E+00  0.3571E+16
   -1.306252    2.19092  0.9742E-12  0.1219E-13  0.7603E-17  0.1000E-09  0.0000E+00  0.3331E+16
   -1.375004    2.31007  0.9713E-12  0.1219E-13  0.7603E-17  0.1000E-09  0.0000E+00  0.3093E+16
   -1.443757    2.42908  0.9683E-12  0.1219E-13  0.7603E-17  0.1000E-09  0.0000E+00  0.2856E+16
   -1.512509    2.54793  0.9655E-12  0.1219E-13  0.7603E-17  0.1000E-09  0.0000E+00  0.2621E+16
   -1.581262    2.66659  0.9631E-12  0.1219E-13  0.7603E-17  0.1000E-09  0.0000E+00  0.2387E+16
   -1.650014    2.78507  0.9610E-12  0.3924E-13  0.8676E-17  0.1000E-09  0.0000E+00  0.2155E+16
   -1.718766    2.90337  0.9594E-12  0.1212E-12  0.2111E-16  0.1000E-09  0.0000E+00  0.1924E+16
   -1.787518    3.02142  0.9581E-12  0.3460E-12  0.5671E-16  0.1000E-09  0.0000E+00  0.1671E+16
   -1.856270    3.13739  0.9570E-12  0.9665E-12  0.1529E-15  0.1000E-09  0.0000E+00  0.1426E+16
   -1.925021    3.25085  0.9562E-12  0.2667E-11  0.4091E-15  0.1000E-09  0.0000E+00  0.1189E+16
   -1.993773    3.36124  0.9555E-12  0.7299E-11  0.1086E-14  0.1000E-09  0.0000E+00  0.9690E+15
   -2.062524    3.46851  0.9549E-12  0.1935E-10  0.2796E-14  0.1000E-09  0.0000E+00  0.7833E+15
   -2.131274    3.57540  0.9546E-12  0.5057E-10  0.7096E-14  0.1000E-09  0.0000E+00  0.6018E+15
   -2.200025    3.68225  0.9543E-12  0.1308E-09  0.1783E-13  0.2152E-09  0.0000E+00  0.4211E+15
   -2.268774    3.78905  0.9542E-12  0.3378E-09  0.4474E-13  0.9440E-09  0.0000E+00  0.2406E+15
   -2.337524    3.89541  0.9541E-12  0.8769E-09  0.1130E-12  0.8907E-08  0.0000E+00  0.6400E+14
   -2.406273    3.99627  0.9541E-12  0.1609E-08  0.2080E-12  0.5221E-05  0.0000E+00 -0.5003E+12
   -2.475021    3.99909  0.9541E-12  0.1916E-08  0.2701E-12  0.5487E-05  0.0000E+00 -0.5850E+12
   -2.543769    4.00174  0.9541E-12  0.2088E-08  0.3509E-12  0.4684E-05  0.0000E+00 -0.8081E+12
   -2.612516    4.00478  0.9541E-12  0.2068E-08  0.5061E-12  0.2785E-05  0.0000E+00 -0.1600E+13
   -2.681263    4.00967  0.9541E-12  0.1548E-08  0.1161E-11  0.4737E-06  0.0000E+00 -0.1131E+14
   -2.750009    4.03092  0.9541E-12  0.0000E+00  0.0000E+00  0.0000E+00  0.0000E+00  0.0000E+00
