 1 - depth, m
 2 - temperature, C
 3 - salinity, kg/kg
 4 - turbulent kinetic energy, m**2/s**2
 5 - dissipation rate, m**2/s**3
 6 - kinematic heat conductance, m**2/s
 7 - modulus of horizontal velocity, m/s
 8 - Richardson number, n/d
   -0.000000    8.06780  0.1646E-11  0.8136E-04  0.2118E-04  0.8865E-04  0.8588E-01 -0.3195E+00
   -0.068746    8.11448  0.1646E-11  0.4819E-04  0.5060E-05  0.1117E-03  0.4083E-01 -0.3669E-01
   -0.137492    8.12445  0.1646E-11  0.3946E-04  0.2029E-05  0.1493E-03  0.3276E-01 -0.1329E-01
   -0.206239    8.13121  0.1646E-11  0.3498E-04  0.9319E-06  0.1961E-03  0.2792E-01 -0.1824E-01
   -0.274987    8.13627  0.1646E-11  0.3247E-04  0.5315E-06  0.2489E-03  0.2439E-01 -0.2373E-01
   -0.343735    8.14019  0.1646E-11  0.3087E-04  0.3577E-06  0.3072E-03  0.2168E-01 -0.2991E-01
   -0.412484    8.14327  0.1646E-11  0.2973E-04  0.2660E-06  0.3678E-03  0.1955E-01 -0.3646E-01
   -0.481233    8.14576  0.1646E-11  0.2885E-04  0.2105E-06  0.4302E-03  0.1781E-01 -0.4310E-01
   -0.549983    8.14783  0.1646E-11  0.2812E-04  0.1734E-06  0.4937E-03  0.1636E-01 -0.4986E-01
   -0.618733    8.14958  0.1646E-11  0.2749E-04  0.1470E-06  0.5572E-03  0.1511E-01 -0.5662E-01
   -0.687483    8.15109  0.1646E-11  0.2694E-04  0.1274E-06  0.6202E-03  0.1403E-01 -0.6326E-01
   -0.756234    8.15241  0.1646E-11  0.2644E-04  0.1124E-06  0.6821E-03  0.1307E-01 -0.6941E-01
   -0.824985    8.15358  0.1646E-11  0.2599E-04  0.1004E-06  0.7440E-03  0.1221E-01 -0.7194E-01
   -0.893737    8.15462  0.1646E-11  0.2557E-04  0.9084E-07  0.8139E-03  0.1144E-01 -0.3067E-01
   -0.962488    8.15556  0.1646E-11  0.2518E-04  0.8298E-07  0.9284E-03  0.1072E-01  0.2022E+02
   -1.031240    8.15638  0.1646E-11  0.2482E-04  0.7646E-07  0.1058E-02  0.1006E-01  0.2847E+02
   -1.099992    8.15711  0.1646E-11  0.2448E-04  0.7098E-07  0.1186E-02  0.9450E-02  0.7074E+01
   -1.168744    8.15775  0.1646E-11  0.2415E-04  0.6632E-07  0.1334E-02  0.8872E-02  0.1948E+02
   -1.237496    8.15831  0.1646E-11  0.2383E-04  0.6233E-07  0.1541E-02  0.8322E-02  0.8869E+02
   -1.306249    8.15880  0.1646E-11  0.2351E-04  0.5887E-07  0.1727E-02  0.7796E-02  0.8721E+02
   -1.375001    8.15922  0.1646E-11  0.2319E-04  0.5585E-07  0.1881E-02  0.7288E-02  0.1340E+04
   -1.443753    8.15960  0.1646E-11  0.2287E-04  0.5317E-07  0.2052E-02  0.6793E-02  0.1035E+06
   -1.512506    8.15992  0.1646E-11  0.2253E-04  0.5079E-07  0.2221E-02  0.6309E-02  0.5079E+05
   -1.581258    8.16021  0.1646E-11  0.2218E-04  0.4865E-07  0.2359E-02  0.5833E-02  0.1100E+06
   -1.650010    8.16046  0.1646E-11  0.2180E-04  0.4670E-07  0.2446E-02  0.5361E-02  0.2418E+04
   -1.718762    8.16069  0.1646E-11  0.2139E-04  0.4490E-07  0.2494E-02  0.4894E-02  0.5497E+03
   -1.787514    8.16090  0.1646E-11  0.2092E-04  0.4314E-07  0.2519E-02  0.4425E-02  0.1397E+03
   -1.856265    8.16112  0.1646E-11  0.2040E-04  0.4144E-07  0.2508E-02  0.4001E-02  0.1879E+02
   -1.925017    8.16133  0.1646E-11  0.1983E-04  0.3983E-07  0.2489E-02  0.3613E-02  0.4611E+01
   -1.993768    8.16154  0.1646E-11  0.1923E-04  0.3837E-07  0.2461E-02  0.3262E-02  0.4619E+02
   -2.062519    8.16174  0.1646E-11  0.1864E-04  0.3717E-07  0.2423E-02  0.2939E-02  0.9050E+01
   -2.131269    8.16195  0.1646E-11  0.1805E-04  0.3628E-07  0.2370E-02  0.2634E-02  0.4618E+01
   -2.200019    8.16216  0.1646E-11  0.1748E-04  0.3576E-07  0.2310E-02  0.2344E-02  0.1151E+02
   -2.268769    8.16237  0.1646E-11  0.1692E-04  0.3567E-07  0.2081E-02  0.2070E-02  0.1472E+02
   -2.337518    8.16260  0.1646E-11  0.1637E-04  0.3614E-07  0.1659E-02  0.1821E-02  0.1685E+03
   -2.406267    8.16290  0.1646E-11  0.1580E-04  0.3744E-07  0.1253E-02  0.1592E-02  0.1156E+04
   -2.475015    8.16330  0.1646E-11  0.1518E-04  0.4017E-07  0.8870E-03  0.1381E-02  0.2431E+03
   -2.543763    8.16382  0.1646E-11  0.1443E-04  0.4601E-07  0.6064E-03  0.1174E-02  0.8527E+02
   -2.612510    8.16453  0.1646E-11  0.1332E-04  0.6120E-07  0.3730E-03  0.9622E-03 -0.1043E+01
   -2.681256    8.16567  0.1646E-11  0.7952E-05  0.2113E-06  0.3667E-04  0.7371E-03 -0.5032E+05
   -2.750002    8.17696  0.1646E-11  0.0000E+00  0.0000E+00  0.0000E+00  0.7354E-03  0.0000E+00
