 1 - depth, m
 2 - temperature, C
 3 - salinity, kg/kg
 4 - turbulent kinetic energy, m**2/s**2
 5 - dissipation rate, m**2/s**3
 6 - kinematic heat conductance, m**2/s
 7 - modulus of horizontal velocity, m/s
 8 - Richardson number, n/d
   -0.000000   -0.00000  0.9733E-12  0.1219E-13  0.7603E-17  0.1000E-09  0.0000E+00  0.7348E+16
   -0.068746    0.11191  0.2506E-11  0.1219E-13  0.7603E-17  0.1000E-09  0.0000E+00  0.7251E+16
   -0.137493    0.22582  0.3076E-11  0.1219E-13  0.7603E-17  0.1000E-09  0.0000E+00  0.7122E+16
   -0.206240    0.34141  0.3112E-11  0.1219E-13  0.7603E-17  0.1000E-09  0.0000E+00  0.6969E+16
   -0.274988    0.45840  0.2922E-11  0.1219E-13  0.7603E-17  0.1000E-09  0.0000E+00  0.6795E+16
   -0.343736    0.57659  0.2683E-11  0.1219E-13  0.7603E-17  0.1000E-09  0.0000E+00  0.6603E+16
   -0.412485    0.69574  0.2485E-11  0.1219E-13  0.7603E-17  0.1000E-09  0.0000E+00  0.6396E+16
   -0.481234    0.81566  0.2353E-11  0.1219E-13  0.7603E-17  0.1000E-09  0.0000E+00  0.6176E+16
   -0.549984    0.93617  0.2277E-11  0.1219E-13  0.7603E-17  0.1000E-09  0.0000E+00  0.5945E+16
   -0.618735    1.05711  0.2239E-11  0.1219E-13  0.7603E-17  0.1000E-09  0.0000E+00  0.5706E+16
   -0.687485    1.17832  0.2221E-11  0.1219E-13  0.7603E-17  0.1000E-09  0.0000E+00  0.5461E+16
   -0.756236    1.29969  0.2213E-11  0.1219E-13  0.7603E-17  0.1000E-09  0.0000E+00  0.5211E+16
   -0.824987    1.42112  0.2210E-11  0.1219E-13  0.7603E-17  0.1000E-09  0.0000E+00  0.4958E+16
   -0.893739    1.54249  0.2208E-11  0.1219E-13  0.7603E-17  0.1000E-09  0.0000E+00  0.4703E+16
   -0.962491    1.66373  0.2206E-11  0.1219E-13  0.7603E-17  0.1000E-09  0.0000E+00  0.4447E+16
   -1.031243    1.78473  0.2204E-11  0.1219E-13  0.7603E-17  0.1000E-09  0.0000E+00  0.4190E+16
   -1.099995    1.90543  0.2201E-11  0.1219E-13  0.7603E-17  0.1000E-09  0.0000E+00  0.3935E+16
   -1.168747    2.02577  0.2196E-11  0.1219E-13  0.7603E-17  0.1000E-09  0.0000E+00  0.3681E+16
   -1.237500    2.14570  0.2191E-11  0.1219E-13  0.7603E-17  0.1000E-09  0.0000E+00  0.3429E+16
   -1.306252    2.26518  0.2185E-11  0.1219E-13  0.7603E-17  0.1000E-09  0.0000E+00  0.3181E+16
   -1.375005    2.38417  0.2179E-11  0.1219E-13  0.7603E-17  0.1000E-09  0.0000E+00  0.2936E+16
   -1.443757    2.50268  0.2173E-11  0.1219E-13  0.7603E-17  0.1000E-09  0.0000E+00  0.2694E+16
   -1.512510    2.62069  0.2167E-11  0.1219E-13  0.7603E-17  0.1000E-09  0.0000E+00  0.2457E+16
   -1.581262    2.73822  0.2162E-11  0.1219E-13  0.7603E-17  0.1000E-09  0.0000E+00  0.2223E+16
   -1.650014    2.85525  0.2157E-11  0.5250E-13  0.1144E-16  0.1000E-09  0.0000E+00  0.1992E+16
   -1.718767    2.97180  0.2154E-11  0.1653E-12  0.3007E-16  0.1000E-09  0.0000E+00  0.1765E+16
   -1.787519    3.08783  0.2151E-11  0.4821E-12  0.8331E-16  0.1000E-09  0.0000E+00  0.1523E+16
   -1.856270    3.20185  0.2149E-11  0.1381E-11  0.2307E-15  0.1000E-09  0.0000E+00  0.1289E+16
   -1.925022    3.31343  0.2147E-11  0.3912E-11  0.6337E-15  0.1000E-09  0.0000E+00  0.1063E+16
   -1.993773    3.42202  0.2145E-11  0.1099E-10  0.1728E-14  0.1000E-09  0.0000E+00  0.8518E+15
   -2.062524    3.52746  0.2144E-11  0.2993E-10  0.4567E-14  0.1000E-09  0.0000E+00  0.6705E+15
   -2.131275    3.63206  0.2143E-11  0.8031E-10  0.1190E-13  0.1222E-09  0.0000E+00  0.4946E+15
   -2.200025    3.73601  0.2143E-11  0.2132E-09  0.3070E-13  0.4841E-09  0.0000E+00  0.3219E+15
   -2.268775    3.83905  0.2143E-11  0.5648E-09  0.7906E-13  0.2612E-08  0.0000E+00  0.1532E+15
   -2.337524    3.93989  0.2143E-11  0.1459E-08  0.1996E-12  0.7163E-07  0.0000E+00  0.1344E+14
   -2.406273    4.00733  0.2143E-11  0.2431E-08  0.3373E-12  0.8107E-05  0.0000E+00 -0.5976E+12
   -2.475022    4.00907  0.2143E-11  0.2783E-08  0.4143E-12  0.7854E-05  0.0000E+00 -0.6638E+12
   -2.543770    4.01086  0.2143E-11  0.2946E-08  0.5115E-12  0.6453E-05  0.0000E+00 -0.8657E+12
   -2.612517    4.01302  0.2143E-11  0.2856E-08  0.7025E-12  0.3761E-05  0.0000E+00 -0.1600E+13
   -2.681264    4.01660  0.2143E-11  0.2058E-08  0.1599E-11  0.5736E-06  0.0000E+00 -0.1136E+14
   -2.750009    4.03498  0.2143E-11  0.0000E+00  0.0000E+00  0.0000E+00  0.0000E+00  0.0000E+00
