 1 - depth, m
 2 - temperature, C
 3 - salinity, kg/kg
 4 - turbulent kinetic energy, m**2/s**2
 5 - dissipation rate, m**2/s**3
 6 - kinematic heat conductance, m**2/s
 7 - modulus of horizontal velocity, m/s
 8 - Richardson number, n/d
   -0.000000   -0.00000  0.1185E-11  0.1219E-13  0.7603E-17  0.1000E-09  0.0000E+00  0.6822E+16
   -0.068746    0.10379  0.5386E-11  0.1219E-13  0.7603E-17  0.1000E-09  0.0000E+00  0.6749E+16
   -0.137493    0.20945  0.8165E-11  0.1219E-13  0.7603E-17  0.1000E-09  0.0000E+00  0.6653E+16
   -0.206240    0.31679  0.9118E-11  0.1219E-13  0.7603E-17  0.1000E-09  0.0000E+00  0.6538E+16
   -0.274988    0.42563  0.8967E-11  0.1219E-13  0.7603E-17  0.1000E-09  0.0000E+00  0.6406E+16
   -0.343736    0.53581  0.8378E-11  0.1219E-13  0.7603E-17  0.1000E-09  0.0000E+00  0.6259E+16
   -0.412485    0.64717  0.7754E-11  0.1219E-13  0.7603E-17  0.1000E-09  0.0000E+00  0.6097E+16
   -0.481234    0.75956  0.7272E-11  0.1219E-13  0.7603E-17  0.1000E-09  0.0000E+00  0.5922E+16
   -0.549984    0.87284  0.6961E-11  0.1219E-13  0.7603E-17  0.1000E-09  0.0000E+00  0.5737E+16
   -0.618735    0.98686  0.6785E-11  0.1219E-13  0.7603E-17  0.1000E-09  0.0000E+00  0.5541E+16
   -0.687485    1.10149  0.6695E-11  0.1219E-13  0.7603E-17  0.1000E-09  0.0000E+00  0.5338E+16
   -0.756236    1.21663  0.6653E-11  0.1219E-13  0.7603E-17  0.1000E-09  0.0000E+00  0.5128E+16
   -0.824987    1.33216  0.6634E-11  0.1219E-13  0.7603E-17  0.1000E-09  0.0000E+00  0.4912E+16
   -0.893739    1.44797  0.6625E-11  0.1219E-13  0.7603E-17  0.1000E-09  0.0000E+00  0.4691E+16
   -0.962491    1.56397  0.6618E-11  0.1219E-13  0.7603E-17  0.1000E-09  0.0000E+00  0.4466E+16
   -1.031243    1.68005  0.6611E-11  0.1219E-13  0.7603E-17  0.1000E-09  0.0000E+00  0.4239E+16
   -1.099995    1.79615  0.6602E-11  0.1219E-13  0.7603E-17  0.1000E-09  0.0000E+00  0.4011E+16
   -1.168747    1.91219  0.6590E-11  0.1219E-13  0.7603E-17  0.1000E-09  0.0000E+00  0.3781E+16
   -1.237500    2.02810  0.6574E-11  0.1219E-13  0.7603E-17  0.1000E-09  0.0000E+00  0.3552E+16
   -1.306252    2.14384  0.6557E-11  0.1219E-13  0.7603E-17  0.1000E-09  0.0000E+00  0.3323E+16
   -1.375005    2.25936  0.6537E-11  0.1219E-13  0.7603E-17  0.1000E-09  0.0000E+00  0.3097E+16
   -1.443757    2.37467  0.6518E-11  0.1219E-13  0.7603E-17  0.1000E-09  0.0000E+00  0.2872E+16
   -1.512510    2.48975  0.6500E-11  0.1219E-13  0.7603E-17  0.1000E-09  0.0000E+00  0.2649E+16
   -1.581262    2.60459  0.6483E-11  0.1219E-13  0.7603E-17  0.1000E-09  0.0000E+00  0.2428E+16
   -1.650014    2.71919  0.6470E-11  0.1219E-13  0.7603E-17  0.1000E-09  0.0000E+00  0.2210E+16
   -1.718767    2.83355  0.6459E-11  0.1219E-13  0.7603E-17  0.1000E-09  0.0000E+00  0.1993E+16
   -1.787519    2.94765  0.6451E-11  0.2676E-13  0.7710E-17  0.1000E-09  0.0000E+00  0.1757E+16
   -1.856270    3.06003  0.6444E-11  0.9381E-13  0.2145E-16  0.1000E-09  0.0000E+00  0.1527E+16
   -1.925022    3.17038  0.6438E-11  0.3106E-12  0.6710E-16  0.1000E-09  0.0000E+00  0.1303E+16
   -1.993773    3.27822  0.6434E-11  0.1002E-11  0.2087E-15  0.1000E-09  0.0000E+00  0.1092E+16
   -2.062524    3.38351  0.6430E-11  0.3108E-11  0.6262E-15  0.1000E-09  0.0000E+00  0.9123E+15
   -2.131275    3.48841  0.6427E-11  0.9474E-11  0.1847E-14  0.1000E-09  0.0000E+00  0.7363E+15
   -2.200025    3.59318  0.6425E-11  0.2849E-10  0.5375E-14  0.1000E-09  0.0000E+00  0.5619E+15
   -2.268775    3.69787  0.6424E-11  0.8537E-10  0.1560E-13  0.2037E-09  0.0000E+00  0.3883E+15
   -2.337524    3.80244  0.6423E-11  0.2576E-09  0.4561E-13  0.1072E-08  0.0000E+00  0.2152E+15
   -2.406273    3.90638  0.6423E-11  0.7718E-09  0.1327E-12  0.1368E-07  0.0000E+00  0.4817E+14
   -2.475022    4.00192  0.6423E-11  0.1681E-08  0.2899E-12  0.4265E-05  0.0000E+00 -0.9049E+12
   -2.543770    4.00527  0.6423E-11  0.2003E-08  0.3938E-12  0.4031E-05  0.0000E+00 -0.1130E+13
   -2.612517    4.00875  0.6423E-11  0.2066E-08  0.5643E-12  0.2595E-05  0.0000E+00 -0.2036E+13
   -2.681263    4.01394  0.6423E-11  0.1588E-08  0.1235E-11  0.4847E-06  0.0000E+00 -0.1260E+14
   -2.750009    4.03502  0.6423E-11  0.0000E+00  0.0000E+00  0.0000E+00  0.0000E+00  0.0000E+00
