 1 - depth, m
 2 - temperature, C
 3 - salinity, kg/kg
 4 - turbulent kinetic energy, m**2/s**2
 5 - dissipation rate, m**2/s**3
 6 - kinematic heat conductance, m**2/s
 7 - modulus of horizontal velocity, m/s
 8 - Richardson number, n/d
   -0.000000   -0.00000  0.2084E-12  0.1219E-13  0.7603E-17  0.1000E-09  0.0000E+00  0.6804E+16
   -0.068746    0.10350  0.1326E-11  0.1219E-13  0.7603E-17  0.1000E-09  0.0000E+00  0.6734E+16
   -0.137493    0.20892  0.2342E-11  0.1219E-13  0.7603E-17  0.1000E-09  0.0000E+00  0.6643E+16
   -0.206240    0.31608  0.2866E-11  0.1219E-13  0.7603E-17  0.1000E-09  0.0000E+00  0.6533E+16
   -0.274988    0.42481  0.2968E-11  0.1219E-13  0.7603E-17  0.1000E-09  0.0000E+00  0.6406E+16
   -0.343736    0.53496  0.2846E-11  0.1219E-13  0.7603E-17  0.1000E-09  0.0000E+00  0.6265E+16
   -0.412485    0.64640  0.2656E-11  0.1219E-13  0.7603E-17  0.1000E-09  0.0000E+00  0.6109E+16
   -0.481234    0.75899  0.2485E-11  0.1219E-13  0.7603E-17  0.1000E-09  0.0000E+00  0.5941E+16
   -0.549984    0.87261  0.2362E-11  0.1219E-13  0.7603E-17  0.1000E-09  0.0000E+00  0.5762E+16
   -0.618734    0.98713  0.2287E-11  0.1219E-13  0.7603E-17  0.1000E-09  0.0000E+00  0.5573E+16
   -0.687485    1.10244  0.2245E-11  0.1219E-13  0.7603E-17  0.1000E-09  0.0000E+00  0.5375E+16
   -0.756236    1.21843  0.2225E-11  0.1219E-13  0.7603E-17  0.1000E-09  0.0000E+00  0.5169E+16
   -0.824987    1.33498  0.2215E-11  0.1219E-13  0.7603E-17  0.1000E-09  0.0000E+00  0.4956E+16
   -0.893739    1.45200  0.2210E-11  0.1219E-13  0.7603E-17  0.1000E-09  0.0000E+00  0.4738E+16
   -0.962491    1.56939  0.2208E-11  0.1219E-13  0.7603E-17  0.1000E-09  0.0000E+00  0.4515E+16
   -1.031243    1.68705  0.2205E-11  0.1219E-13  0.7603E-17  0.1000E-09  0.0000E+00  0.4288E+16
   -1.099995    1.80491  0.2203E-11  0.1219E-13  0.7603E-17  0.1000E-09  0.0000E+00  0.4059E+16
   -1.168747    1.92289  0.2199E-11  0.1219E-13  0.7603E-17  0.1000E-09  0.0000E+00  0.3827E+16
   -1.237500    2.04093  0.2195E-11  0.1219E-13  0.7603E-17  0.1000E-09  0.0000E+00  0.3595E+16
   -1.306252    2.15897  0.2190E-11  0.1219E-13  0.7603E-17  0.1000E-09  0.0000E+00  0.3362E+16
   -1.375005    2.27696  0.2184E-11  0.1219E-13  0.7603E-17  0.1000E-09  0.0000E+00  0.3130E+16
   -1.443757    2.39488  0.2178E-11  0.1219E-13  0.7603E-17  0.1000E-09  0.0000E+00  0.2899E+16
   -1.512510    2.51272  0.2172E-11  0.1219E-13  0.7603E-17  0.1000E-09  0.0000E+00  0.2669E+16
   -1.581262    2.63046  0.2166E-11  0.1219E-13  0.7603E-17  0.1000E-09  0.0000E+00  0.2440E+16
   -1.650014    2.74808  0.2161E-11  0.1219E-13  0.7603E-17  0.1000E-09  0.0000E+00  0.2212E+16
   -1.718766    2.86559  0.2157E-11  0.1219E-13  0.7603E-17  0.1000E-09  0.0000E+00  0.1985E+16
   -1.787518    2.98292  0.2154E-11  0.4093E-13  0.1068E-16  0.1000E-09  0.0000E+00  0.1735E+16
   -1.856270    3.09829  0.2151E-11  0.1431E-12  0.3131E-16  0.1000E-09  0.0000E+00  0.1491E+16
   -1.925022    3.21127  0.2149E-11  0.4643E-12  0.9673E-16  0.1000E-09  0.0000E+00  0.1255E+16
   -1.993773    3.32123  0.2147E-11  0.1471E-11  0.2961E-15  0.1000E-09  0.0000E+00  0.1033E+16
   -2.062524    3.42801  0.2145E-11  0.4490E-11  0.8749E-15  0.1000E-09  0.0000E+00  0.8467E+15
   -2.131275    3.53414  0.2144E-11  0.1348E-10  0.2544E-14  0.1000E-09  0.0000E+00  0.6651E+15
   -2.200025    3.63979  0.2143E-11  0.3996E-10  0.7309E-14  0.1000E-09  0.0000E+00  0.4861E+15
   -2.268775    3.74486  0.2143E-11  0.1182E-09  0.2095E-13  0.3426E-09  0.0000E+00  0.3099E+15
   -2.337524    3.84898  0.2143E-11  0.3519E-09  0.6056E-13  0.2211E-08  0.0000E+00  0.1380E+15
   -2.406273    3.95080  0.2143E-11  0.1003E-08  0.1687E-12  0.1128E-06  0.0000E+00  0.6431E+13
   -2.475021    4.00735  0.2143E-11  0.1977E-08  0.3433E-12  0.5237E-05  0.0000E+00 -0.9330E+12
   -2.543769    4.01001  0.2143E-11  0.2310E-08  0.4538E-12  0.4766E-05  0.0000E+00 -0.1138E+13
   -2.612516    4.01290  0.2143E-11  0.2347E-08  0.6305E-12  0.3011E-05  0.0000E+00 -0.1976E+13
   -2.681263    4.01728  0.2143E-11  0.1741E-08  0.1351E-11  0.5109E-06  0.0000E+00 -0.1203E+14
   -2.750009    4.03627  0.2143E-11  0.0000E+00  0.0000E+00  0.0000E+00  0.0000E+00  0.0000E+00
