 1 - depth, m
 2 - temperature, C
 3 - salinity, kg/kg
 4 - turbulent kinetic energy, m**2/s**2
 5 - dissipation rate, m**2/s**3
 6 - kinematic heat conductance, m**2/s
 7 - modulus of horizontal velocity, m/s
 8 - Richardson number, n/d
   -0.000000   -0.00000  0.9880E-10  0.1219E-13  0.7603E-17  0.1000E-09  0.0000E+00  0.7083E+16
   -0.068746    0.10781  0.5892E-10  0.1219E-13  0.7603E-17  0.1000E-09  0.0000E+00  0.6821E+16
   -0.137492    0.21474  0.4203E-10  0.1219E-13  0.7603E-17  0.1000E-09  0.0000E+00  0.6576E+16
   -0.206239    0.32098  0.3611E-10  0.1219E-13  0.7603E-17  0.1000E-09  0.0000E+00  0.6346E+16
   -0.274987    0.42671  0.3433E-10  0.1219E-13  0.7603E-17  0.1000E-09  0.0000E+00  0.6131E+16
   -0.343735    0.53211  0.3387E-10  0.1219E-13  0.7603E-17  0.1000E-09  0.0000E+00  0.5928E+16
   -0.412483    0.63736  0.3376E-10  0.1219E-13  0.7603E-17  0.1000E-09  0.0000E+00  0.5736E+16
   -0.481232    0.74265  0.3373E-10  0.1219E-13  0.7603E-17  0.1000E-09  0.0000E+00  0.5554E+16
   -0.549982    0.84815  0.3373E-10  0.1219E-13  0.7603E-17  0.1000E-09  0.0000E+00  0.5379E+16
   -0.618732    0.95401  0.3373E-10  0.1219E-13  0.7603E-17  0.1000E-09  0.0000E+00  0.5210E+16
   -0.687482    1.06038  0.3373E-10  0.1219E-13  0.7603E-17  0.1000E-09  0.0000E+00  0.5054E+16
   -0.756233    1.16761  0.3373E-10  0.1219E-13  0.7603E-17  0.1000E-09  0.0000E+00  0.4906E+16
   -0.824984    1.27594  0.3373E-10  0.1219E-13  0.7603E-17  0.1000E-09  0.0000E+00  0.4756E+16
   -0.893735    1.38545  0.3372E-10  0.1219E-13  0.7603E-17  0.1000E-09  0.0000E+00  0.4602E+16
   -0.962487    1.49623  0.3371E-10  0.1219E-13  0.7603E-17  0.1000E-09  0.0000E+00  0.4445E+16
   -1.031239    1.60833  0.3367E-10  0.1219E-13  0.7603E-17  0.1000E-09  0.0000E+00  0.4282E+16
   -1.099990    1.72177  0.3361E-10  0.1219E-13  0.7603E-17  0.1000E-09  0.0000E+00  0.4112E+16
   -1.168742    1.83655  0.3351E-10  0.1219E-13  0.7603E-17  0.1000E-09  0.0000E+00  0.3934E+16
   -1.237495    1.95265  0.3337E-10  0.1219E-13  0.7603E-17  0.1000E-09  0.0000E+00  0.3748E+16
   -1.306247    2.07001  0.3321E-10  0.1219E-13  0.7603E-17  0.1000E-09  0.0000E+00  0.3553E+16
   -1.374999    2.18856  0.3306E-10  0.1219E-13  0.7603E-17  0.1000E-09  0.0000E+00  0.3353E+16
   -1.443751    2.30833  0.3294E-10  0.1219E-13  0.7603E-17  0.1000E-09  0.0000E+00  0.3144E+16
   -1.512503    2.42923  0.3285E-10  0.1219E-13  0.7603E-17  0.1000E-09  0.0000E+00  0.2925E+16
   -1.581256    2.55111  0.3280E-10  0.1219E-13  0.7603E-17  0.1000E-09  0.0000E+00  0.2698E+16
   -1.650008    2.67377  0.3276E-10  0.2922E-13  0.8067E-17  0.1000E-09  0.0000E+00  0.2463E+16
   -1.718759    2.79700  0.3274E-10  0.9731E-13  0.2173E-16  0.1000E-09  0.0000E+00  0.2223E+16
   -1.787511    2.92061  0.3273E-10  0.3116E-12  0.6584E-16  0.1000E-09  0.0000E+00  0.1991E+16
   -1.856263    3.04529  0.3272E-10  0.9812E-12  0.2000E-15  0.1000E-09  0.0000E+00  0.1753E+16
   -1.925014    3.17095  0.3271E-10  0.3049E-11  0.6009E-15  0.1000E-09  0.0000E+00  0.1509E+16
   -1.993765    3.29755  0.3269E-10  0.9377E-11  0.1788E-14  0.1000E-09  0.0000E+00  0.1258E+16
   -2.062516    3.42472  0.3267E-10  0.2785E-10  0.5143E-14  0.1000E-09  0.0000E+00  0.9982E+15
   -2.131266    3.55163  0.3264E-10  0.8137E-10  0.1455E-13  0.1001E-09  0.0000E+00  0.7397E+15
   -2.200016    3.67800  0.3262E-10  0.2348E-09  0.4070E-13  0.4268E-09  0.0000E+00  0.4840E+15
   -2.268766    3.80325  0.3260E-10  0.6744E-09  0.1134E-12  0.2448E-08  0.0000E+00  0.2345E+15
   -2.337515    3.92606  0.3260E-10  0.1889E-08  0.3095E-12  0.6400E-07  0.0000E+00  0.2345E+14
   -2.406263    4.01157  0.3260E-10  0.3262E-08  0.5420E-12  0.8563E-05  0.0000E+00 -0.8389E+12
   -2.475011    4.01361  0.3260E-10  0.3771E-08  0.6792E-12  0.8344E-05  0.0000E+00 -0.9510E+12
   -2.543759    4.01575  0.3260E-10  0.4054E-08  0.8690E-12  0.6888E-05  0.0000E+00 -0.1293E+13
   -2.612506    4.01843  0.3260E-10  0.4053E-08  0.1269E-11  0.4133E-05  0.0000E+00 -0.2572E+13
   -2.681252    4.02319  0.3260E-10  0.3328E-08  0.3148E-11  0.8779E-06  0.0000E+00 -0.1959E+14
   -2.749998    4.04846  0.3260E-10  0.0000E+00  0.0000E+00  0.0000E+00  0.0000E+00  0.0000E+00
