 1 - depth, m
 2 - temperature, C
 3 - salinity, kg/kg
 4 - turbulent kinetic energy, m**2/s**2
 5 - dissipation rate, m**2/s**3
 6 - kinematic heat conductance, m**2/s
 7 - modulus of horizontal velocity, m/s
 8 - Richardson number, n/d
   -0.000000   -0.00000  0.1374E-10  0.1219E-13  0.7603E-17  0.1000E-09  0.0000E+00  0.7014E+16
   -0.068746    0.10675  0.8189E-11  0.1219E-13  0.7603E-17  0.1000E-09  0.0000E+00  0.6743E+16
   -0.137492    0.21240  0.5955E-11  0.1219E-13  0.7603E-17  0.1000E-09  0.0000E+00  0.6506E+16
   -0.206239    0.31742  0.5265E-11  0.1219E-13  0.7603E-17  0.1000E-09  0.0000E+00  0.6299E+16
   -0.274987    0.42224  0.5088E-11  0.1219E-13  0.7603E-17  0.1000E-09  0.0000E+00  0.6118E+16
   -0.343735    0.52727  0.5048E-11  0.1219E-13  0.7603E-17  0.1000E-09  0.0000E+00  0.5959E+16
   -0.412483    0.63293  0.5040E-11  0.1219E-13  0.7603E-17  0.1000E-09  0.0000E+00  0.5819E+16
   -0.481232    0.73960  0.5038E-11  0.1219E-13  0.7603E-17  0.1000E-09  0.0000E+00  0.5692E+16
   -0.549982    0.84766  0.5038E-11  0.1219E-13  0.7603E-17  0.1000E-09  0.0000E+00  0.5575E+16
   -0.618732    0.95744  0.5038E-11  0.1219E-13  0.7603E-17  0.1000E-09  0.0000E+00  0.5465E+16
   -0.687482    1.06927  0.5038E-11  0.1219E-13  0.7603E-17  0.1000E-09  0.0000E+00  0.5370E+16
   -0.756233    1.18370  0.5038E-11  0.1219E-13  0.7603E-17  0.1000E-09  0.0000E+00  0.5278E+16
   -0.824984    1.30118  0.5038E-11  0.1219E-13  0.7603E-17  0.1000E-09  0.0000E+00  0.5180E+16
   -0.893735    1.42192  0.5037E-11  0.1219E-13  0.7603E-17  0.1000E-09  0.0000E+00  0.5070E+16
   -0.962486    1.54615  0.5036E-11  0.1219E-13  0.7603E-17  0.1000E-09  0.0000E+00  0.4945E+16
   -1.031238    1.67400  0.5034E-11  0.5653E-13  0.9823E-17  0.1000E-09  0.0000E+00  0.4802E+16
   -1.099990    1.80562  0.5028E-11  0.1630E-12  0.2218E-16  0.1000E-09  0.0000E+00  0.4638E+16
   -1.168742    1.94108  0.5017E-11  0.4099E-12  0.5233E-16  0.1000E-09  0.0000E+00  0.4451E+16
   -1.237494    2.08040  0.4999E-11  0.9876E-12  0.1219E-15  0.1000E-09  0.0000E+00  0.4237E+16
   -1.306246    2.22358  0.4975E-11  0.2337E-11  0.2804E-15  0.1000E-09  0.0000E+00  0.3995E+16
   -1.374999    2.37054  0.4950E-11  0.5459E-11  0.6375E-15  0.1000E-09  0.0000E+00  0.3731E+16
   -1.443751    2.52139  0.4929E-11  0.1261E-10  0.1434E-14  0.1000E-09  0.0000E+00  0.3437E+16
   -1.512503    2.67602  0.4915E-11  0.2884E-10  0.3194E-14  0.1000E-09  0.0000E+00  0.3112E+16
   -1.581255    2.83422  0.4907E-11  0.6528E-10  0.7042E-14  0.1000E-09  0.0000E+00  0.2757E+16
   -1.650007    2.99569  0.4902E-11  0.1463E-09  0.1538E-13  0.1000E-09  0.0000E+00  0.2374E+16
   -1.718759    3.16010  0.4898E-11  0.3246E-09  0.3327E-13  0.1000E-09  0.0000E+00  0.1967E+16
   -1.787511    3.32718  0.4896E-11  0.7305E-09  0.7296E-13  0.2382E-09  0.0000E+00  0.1559E+16
   -1.856262    3.49924  0.4893E-11  0.1657E-08  0.1614E-12  0.7387E-09  0.0000E+00  0.1112E+16
   -1.925013    3.67612  0.4887E-11  0.3746E-08  0.3560E-12  0.2906E-08  0.0000E+00  0.6233E+15
   -1.993764    3.85618  0.4882E-11  0.8313E-08  0.7726E-12  0.3070E-07  0.0000E+00  0.1278E+15
   -2.062515    4.01156  0.4881E-11  0.9318E-08  0.8708E-12  0.4101E-04  0.0000E+00 -0.2595E+12
   -2.131265    4.01221  0.4881E-11  0.9733E-08  0.9222E-12  0.4134E-04  0.0000E+00 -0.2643E+12
   -2.200015    4.01285  0.4881E-11  0.1006E-07  0.9770E-12  0.4077E-04  0.0000E+00 -0.2752E+12
   -2.268765    4.01350  0.4881E-11  0.1030E-07  0.1039E-11  0.3924E-04  0.0000E+00 -0.2937E+12
   -2.337514    4.01418  0.4881E-11  0.1046E-07  0.1116E-11  0.3659E-04  0.0000E+00 -0.3243E+12
   -2.406263    4.01492  0.4881E-11  0.1054E-07  0.1221E-11  0.3262E-04  0.0000E+00 -0.3754E+12
   -2.475011    4.01574  0.4881E-11  0.1050E-07  0.1380E-11  0.2710E-04  0.0000E+00 -0.4691E+12
   -2.543758    4.01674  0.4881E-11  0.1028E-07  0.1662E-11  0.1979E-04  0.0000E+00 -0.6749E+12
   -2.612505    4.01813  0.4881E-11  0.9679E-08  0.2346E-11  0.1065E-04  0.0000E+00 -0.1360E+13
   -2.681251    4.02075  0.4881E-11  0.7075E-08  0.6551E-11  0.1448E-05  0.0000E+00 -0.1336E+14
   -2.749997    4.04009  0.4881E-11  0.0000E+00  0.0000E+00  0.0000E+00  0.0000E+00  0.0000E+00
