 1 - depth, m
 2 - temperature, C
 3 - salinity, kg/kg
 4 - turbulent kinetic energy, m**2/s**2
 5 - dissipation rate, m**2/s**3
 6 - kinematic heat conductance, m**2/s
 7 - modulus of horizontal velocity, m/s
 8 - Richardson number, n/d
   -0.000000   -0.00000  0.1597E-10  0.1219E-13  0.7603E-17  0.1000E-09  0.0000E+00  0.4035E+16
   -0.068746    0.06104  0.8738E-11  0.1219E-13  0.7603E-17  0.1000E-09  0.0000E+00  0.3848E+16
   -0.137492    0.12019  0.7057E-11  0.1219E-13  0.7603E-17  0.1000E-09  0.0000E+00  0.3696E+16
   -0.206239    0.17794  0.6703E-11  0.1219E-13  0.7603E-17  0.1000E-09  0.0000E+00  0.3579E+16
   -0.274987    0.23476  0.6638E-11  0.1219E-13  0.7603E-17  0.1000E-09  0.0000E+00  0.3498E+16
   -0.343735    0.29120  0.6627E-11  0.1219E-13  0.7603E-17  0.1000E-09  0.0000E+00  0.3453E+16
   -0.412483    0.34782  0.6626E-11  0.1219E-13  0.7603E-17  0.1000E-09  0.0000E+00  0.3444E+16
   -0.481232    0.40525  0.6626E-11  0.1219E-13  0.7603E-17  0.1000E-09  0.0000E+00  0.3472E+16
   -0.549982    0.46414  0.6626E-11  0.1219E-13  0.7603E-17  0.1000E-09  0.0000E+00  0.3535E+16
   -0.618732    0.52519  0.6626E-11  0.1219E-13  0.7603E-17  0.1000E-09  0.0000E+00  0.3632E+16
   -0.687482    0.58913  0.6626E-11  0.1219E-13  0.7603E-17  0.1000E-09  0.0000E+00  0.3777E+16
   -0.756233    0.65699  0.6626E-11  0.1219E-13  0.7603E-17  0.1000E-09  0.0000E+00  0.3958E+16
   -0.824984    0.72973  0.6626E-11  0.1219E-13  0.7603E-17  0.1000E-09  0.0000E+00  0.4162E+16
   -0.893735    0.80810  0.6626E-11  0.1219E-13  0.7603E-17  0.1000E-09  0.0000E+00  0.4382E+16
   -0.962486    0.89288  0.6626E-11  0.1219E-13  0.7603E-17  0.1000E-09  0.0000E+00  0.4610E+16
   -1.031238    0.98479  0.6625E-11  0.1219E-13  0.7603E-17  0.1000E-09  0.0000E+00  0.4838E+16
   -1.099990    1.08455  0.6624E-11  0.1219E-13  0.7603E-17  0.1000E-09  0.0000E+00  0.5057E+16
   -1.168742    1.19281  0.6618E-11  0.1219E-13  0.7603E-17  0.1000E-09  0.0000E+00  0.5254E+16
   -1.237494    1.31014  0.6604E-11  0.1266E-13  0.7603E-17  0.1000E-09  0.0000E+00  0.5419E+16
   -1.306246    1.43707  0.6573E-11  0.6124E-13  0.1227E-16  0.1000E-09  0.0000E+00  0.5539E+16
   -1.374999    1.57400  0.6529E-11  0.1875E-12  0.3150E-16  0.1000E-09  0.0000E+00  0.5624E+16
   -1.443751    1.72187  0.6490E-11  0.5131E-12  0.8206E-16  0.1000E-09  0.0000E+00  0.5644E+16
   -1.512503    1.88107  0.6468E-11  0.1358E-11  0.2103E-15  0.1000E-09  0.0000E+00  0.5577E+16
   -1.581255    2.05169  0.6457E-11  0.3537E-11  0.5315E-15  0.1000E-09  0.0000E+00  0.5413E+16
   -1.650007    2.23364  0.6449E-11  0.9085E-11  0.1326E-14  0.1000E-09  0.0000E+00  0.5143E+16
   -1.718759    2.42671  0.6445E-11  0.2305E-10  0.3271E-14  0.1000E-09  0.0000E+00  0.4761E+16
   -1.787511    2.63040  0.6442E-11  0.5932E-10  0.8179E-14  0.1000E-09  0.0000E+00  0.4248E+16
   -1.856262    2.84312  0.6441E-11  0.1534E-09  0.2056E-13  0.1000E-09  0.0000E+00  0.3644E+16
   -1.925013    3.06479  0.6440E-11  0.3949E-09  0.5150E-13  0.1000E-09  0.0000E+00  0.2949E+16
   -1.993764    3.29530  0.6439E-11  0.1012E-08  0.1284E-12  0.3034E-09  0.0000E+00  0.2156E+16
   -2.062515    3.53377  0.6434E-11  0.2518E-08  0.3112E-12  0.1254E-08  0.0000E+00  0.1264E+16
   -2.131265    3.77585  0.6422E-11  0.6149E-08  0.7408E-12  0.1096E-07  0.0000E+00  0.3448E+15
   -2.200015    4.00578  0.6414E-11  0.7542E-08  0.9160E-12  0.2521E-04  0.0000E+00 -0.4355E+12
   -2.268765    4.00716  0.6414E-11  0.8103E-08  0.1010E-11  0.2594E-04  0.0000E+00 -0.4559E+12
   -2.337514    4.00852  0.6414E-11  0.8543E-08  0.1119E-11  0.2547E-04  0.0000E+00 -0.4985E+12
   -2.406263    4.00991  0.6414E-11  0.8865E-08  0.1257E-11  0.2370E-04  0.0000E+00 -0.5760E+12
   -2.475011    4.01142  0.6414E-11  0.9055E-08  0.1453E-11  0.2045E-04  0.0000E+00 -0.7233E+12
   -2.543758    4.01320  0.6414E-11  0.9058E-08  0.1787E-11  0.1549E-04  0.0000E+00 -0.1053E+13
   -2.612505    4.01560  0.6414E-11  0.8698E-08  0.2567E-11  0.8719E-05  0.0000E+00 -0.2178E+13
   -2.681251    4.02002  0.6414E-11  0.6814E-08  0.6877E-11  0.1516E-05  0.0000E+00 -0.2004E+14
   -2.749997    4.04711  0.6414E-11  0.0000E+00  0.0000E+00  0.0000E+00  0.0000E+00  0.0000E+00
