 1 - depth, m
 2 - temperature, C
 3 - salinity, kg/kg
 4 - turbulent kinetic energy, m**2/s**2
 5 - dissipation rate, m**2/s**3
 6 - kinematic heat conductance, m**2/s
 7 - modulus of horizontal velocity, m/s
 8 - Richardson number, n/d
   -0.000000   -0.00000  0.7786E-11  0.1219E-13  0.7603E-17  0.1000E-09  0.0000E+00  0.6703E+16
   -0.068746    0.10194  0.4672E-11  0.1219E-13  0.7603E-17  0.1000E-09  0.0000E+00  0.6459E+16
   -0.137492    0.20295  0.3390E-11  0.1219E-13  0.7603E-17  0.1000E-09  0.0000E+00  0.6248E+16
   -0.206239    0.30346  0.3013E-11  0.1219E-13  0.7603E-17  0.1000E-09  0.0000E+00  0.6064E+16
   -0.274987    0.40389  0.2919E-11  0.1219E-13  0.7603E-17  0.1000E-09  0.0000E+00  0.5905E+16
   -0.343735    0.50465  0.2899E-11  0.1219E-13  0.7603E-17  0.1000E-09  0.0000E+00  0.5767E+16
   -0.412483    0.60612  0.2895E-11  0.1219E-13  0.7603E-17  0.1000E-09  0.0000E+00  0.5646E+16
   -0.481232    0.70870  0.2894E-11  0.1219E-13  0.7603E-17  0.1000E-09  0.0000E+00  0.5540E+16
   -0.549982    0.81274  0.2894E-11  0.1219E-13  0.7603E-17  0.1000E-09  0.0000E+00  0.5445E+16
   -0.618732    0.91862  0.2894E-11  0.1219E-13  0.7603E-17  0.1000E-09  0.0000E+00  0.5357E+16
   -0.687482    1.02669  0.2894E-11  0.1219E-13  0.7603E-17  0.1000E-09  0.0000E+00  0.5285E+16
   -0.756233    1.13752  0.2894E-11  0.1219E-13  0.7603E-17  0.1000E-09  0.0000E+00  0.5219E+16
   -0.824984    1.25160  0.2894E-11  0.1219E-13  0.7603E-17  0.1000E-09  0.0000E+00  0.5147E+16
   -0.893735    1.36919  0.2894E-11  0.1219E-13  0.7603E-17  0.1000E-09  0.0000E+00  0.5064E+16
   -0.962487    1.49053  0.2893E-11  0.1653E-13  0.7603E-17  0.1000E-09  0.0000E+00  0.4967E+16
   -1.031238    1.61584  0.2892E-11  0.6902E-13  0.1026E-16  0.1000E-09  0.0000E+00  0.4852E+16
   -1.099990    1.74527  0.2888E-11  0.1865E-12  0.2197E-16  0.1000E-09  0.0000E+00  0.4715E+16
   -1.168742    1.87894  0.2882E-11  0.4433E-12  0.4899E-16  0.1000E-09  0.0000E+00  0.4552E+16
   -1.237494    2.01692  0.2871E-11  0.1010E-11  0.1080E-15  0.1000E-09  0.0000E+00  0.4363E+16
   -1.306247    2.15923  0.2856E-11  0.2262E-11  0.2354E-15  0.1000E-09  0.0000E+00  0.4142E+16
   -1.374999    2.30584  0.2841E-11  0.5005E-11  0.5078E-15  0.1000E-09  0.0000E+00  0.3896E+16
   -1.443751    2.45689  0.2829E-11  0.1097E-10  0.1085E-14  0.1000E-09  0.0000E+00  0.3617E+16
   -1.512503    2.61232  0.2821E-11  0.2381E-10  0.2298E-14  0.1000E-09  0.0000E+00  0.3303E+16
   -1.581255    2.77190  0.2817E-11  0.5122E-10  0.4824E-14  0.1000E-09  0.0000E+00  0.2953E+16
   -1.650007    2.93536  0.2814E-11  0.1092E-09  0.1004E-13  0.1000E-09  0.0000E+00  0.2570E+16
   -1.718759    3.10236  0.2812E-11  0.2310E-09  0.2073E-13  0.1000E-09  0.0000E+00  0.2158E+16
   -1.787511    3.27261  0.2810E-11  0.4954E-09  0.4340E-13  0.1269E-09  0.0000E+00  0.1741E+16
   -1.856262    3.44842  0.2809E-11  0.1073E-08  0.9177E-13  0.3650E-09  0.0000E+00  0.1280E+16
   -1.925014    3.62980  0.2807E-11  0.2321E-08  0.1940E-12  0.1278E-08  0.0000E+00  0.7724E+15
   -1.993765    3.81629  0.2803E-11  0.4992E-08  0.4081E-12  0.9200E-08  0.0000E+00  0.2257E+15
   -2.062515    3.99827  0.2802E-11  0.5784E-08  0.4760E-12  0.2712E-04  0.0000E+00 -0.1957E+12
   -2.131266    3.99927  0.2802E-11  0.6131E-08  0.5135E-12  0.2829E-04  0.0000E+00 -0.2029E+12
   -2.200016    4.00024  0.2802E-11  0.6416E-08  0.5542E-12  0.2861E-04  0.0000E+00 -0.2155E+12
   -2.268765    4.00119  0.2802E-11  0.6642E-08  0.6004E-12  0.2806E-04  0.0000E+00 -0.2351E+12
   -2.337514    4.00217  0.2802E-11  0.6816E-08  0.6578E-12  0.2652E-04  0.0000E+00 -0.2660E+12
   -2.406263    4.00320  0.2802E-11  0.6927E-08  0.7346E-12  0.2386E-04  0.0000E+00 -0.3169E+12
   -2.475011    4.00436  0.2802E-11  0.6959E-08  0.8491E-12  0.1990E-04  0.0000E+00 -0.4102E+12
   -2.543758    4.00576  0.2802E-11  0.6861E-08  0.1050E-11  0.1449E-04  0.0000E+00 -0.6189E+12
   -2.612505    4.00769  0.2802E-11  0.6483E-08  0.1535E-11  0.7672E-05  0.0000E+00 -0.1350E+13
   -2.681252    4.01140  0.2802E-11  0.4814E-08  0.4314E-11  0.1126E-05  0.0000E+00 -0.1452E+14
   -2.749997    4.03616  0.2802E-11  0.0000E+00  0.0000E+00  0.0000E+00  0.0000E+00  0.0000E+00
