 1 - depth, m
 2 - temperature, C
 3 - salinity, kg/kg
 4 - turbulent kinetic energy, m**2/s**2
 5 - dissipation rate, m**2/s**3
 6 - kinematic heat conductance, m**2/s
 7 - modulus of horizontal velocity, m/s
 8 - Richardson number, n/d
   -0.000000   -0.00000  0.1955E-09  0.1219E-13  0.7603E-17  0.1000E-09  0.0000E+00  0.5192E+16
   -0.068746    0.07871  0.1146E-09  0.1219E-13  0.7603E-17  0.1000E-09  0.0000E+00  0.5033E+16
   -0.137492    0.15666  0.8442E-10  0.1219E-13  0.7603E-17  0.1000E-09  0.0000E+00  0.4891E+16
   -0.206239    0.23407  0.7596E-10  0.1219E-13  0.7603E-17  0.1000E-09  0.0000E+00  0.4766E+16
   -0.274987    0.31117  0.7393E-10  0.1219E-13  0.7603E-17  0.1000E-09  0.0000E+00  0.4656E+16
   -0.343735    0.38819  0.7349E-10  0.1219E-13  0.7603E-17  0.1000E-09  0.0000E+00  0.4561E+16
   -0.412483    0.46538  0.7341E-10  0.1219E-13  0.7603E-17  0.1000E-09  0.0000E+00  0.4480E+16
   -0.481233    0.54297  0.7339E-10  0.1219E-13  0.7603E-17  0.1000E-09  0.0000E+00  0.4410E+16
   -0.549982    0.62121  0.7339E-10  0.1219E-13  0.7603E-17  0.1000E-09  0.0000E+00  0.4350E+16
   -0.618732    0.70031  0.7339E-10  0.1219E-13  0.7603E-17  0.1000E-09  0.0000E+00  0.4298E+16
   -0.687482    0.78050  0.7339E-10  0.1219E-13  0.7603E-17  0.1000E-09  0.0000E+00  0.4264E+16
   -0.756233    0.86219  0.7339E-10  0.1219E-13  0.7603E-17  0.1000E-09  0.0000E+00  0.4239E+16
   -0.824984    0.94570  0.7339E-10  0.1219E-13  0.7603E-17  0.1000E-09  0.0000E+00  0.4214E+16
   -0.893735    1.03117  0.7339E-10  0.1219E-13  0.7603E-17  0.1000E-09  0.0000E+00  0.4186E+16
   -0.962487    1.11874  0.7339E-10  0.1219E-13  0.7603E-17  0.1000E-09  0.0000E+00  0.4154E+16
   -1.031239    1.20848  0.7338E-10  0.1219E-13  0.7603E-17  0.1000E-09  0.0000E+00  0.4114E+16
   -1.099991    1.30046  0.7337E-10  0.1219E-13  0.7603E-17  0.1000E-09  0.0000E+00  0.4065E+16
   -1.168743    1.39470  0.7332E-10  0.1219E-13  0.7603E-17  0.1000E-09  0.0000E+00  0.4005E+16
   -1.237495    1.49119  0.7323E-10  0.1219E-13  0.7603E-17  0.1000E-09  0.0000E+00  0.3933E+16
   -1.306247    1.58987  0.7305E-10  0.1219E-13  0.7603E-17  0.1000E-09  0.0000E+00  0.3847E+16
   -1.374999    1.69067  0.7279E-10  0.1219E-13  0.7603E-17  0.1000E-09  0.0000E+00  0.3754E+16
   -1.443752    1.79368  0.7248E-10  0.1219E-13  0.7603E-17  0.1000E-09  0.0000E+00  0.3647E+16
   -1.512504    1.89879  0.7220E-10  0.1219E-13  0.7603E-17  0.1000E-09  0.0000E+00  0.3523E+16
   -1.581256    2.00582  0.7200E-10  0.1219E-13  0.7603E-17  0.1000E-09  0.0000E+00  0.3383E+16
   -1.650008    2.11454  0.7190E-10  0.1219E-13  0.7603E-17  0.1000E-09  0.0000E+00  0.3227E+16
   -1.718760    2.22468  0.7184E-10  0.1219E-13  0.7603E-17  0.1000E-09  0.0000E+00  0.3057E+16
   -1.787512    2.33599  0.7181E-10  0.1219E-13  0.7603E-17  0.1000E-09  0.0000E+00  0.2892E+16
   -1.856263    2.44889  0.7179E-10  0.1219E-13  0.7603E-17  0.1000E-09  0.0000E+00  0.2716E+16
   -1.925014    2.56328  0.7177E-10  0.1219E-13  0.7603E-17  0.1000E-09  0.0000E+00  0.2531E+16
   -1.993765    2.67909  0.7174E-10  0.1219E-13  0.7603E-17  0.1000E-09  0.0000E+00  0.2333E+16
   -2.062516    2.79602  0.7169E-10  0.1219E-13  0.7603E-17  0.1000E-09  0.0000E+00  0.2123E+16
   -2.131267    2.91368  0.7161E-10  0.1219E-13  0.7603E-17  0.1000E-09  0.0000E+00  0.1908E+16
   -2.200016    3.03195  0.7148E-10  0.1219E-13  0.7603E-17  0.1000E-09  0.0000E+00  0.1688E+16
   -2.268766    3.15064  0.7132E-10  0.1219E-13  0.7603E-17  0.1000E-09  0.0000E+00  0.1473E+16
   -2.337515    3.27036  0.7115E-10  0.1219E-13  0.7603E-17  0.1000E-09  0.0000E+00  0.1258E+16
   -2.406264    3.39160  0.7101E-10  0.3599E-13  0.2323E-16  0.1000E-09  0.0000E+00  0.1039E+16
   -2.475012    3.51496  0.7094E-10  0.2283E-12  0.1418E-15  0.1000E-09  0.0000E+00  0.8151E+15
   -2.543760    3.64168  0.7091E-10  0.1494E-11  0.8939E-15  0.1000E-09  0.0000E+00  0.5796E+15
   -2.612507    3.77397  0.7090E-10  0.1005E-10  0.5804E-14  0.1085E-09  0.0000E+00  0.3184E+15
   -2.681253    3.91904  0.7090E-10  0.7432E-10  0.4181E-13  0.5281E-07  0.0000E+00 -0.8858E+13
   -2.749999    4.06161  0.7090E-10  0.0000E+00  0.0000E+00  0.0000E+00  0.0000E+00  0.0000E+00
