 1 - depth, m
 2 - temperature, C
 3 - salinity, kg/kg
 4 - turbulent kinetic energy, m**2/s**2
 5 - dissipation rate, m**2/s**3
 6 - kinematic heat conductance, m**2/s
 7 - modulus of horizontal velocity, m/s
 8 - Richardson number, n/d
   -0.000000   -0.00000  0.5338E-11  0.1219E-13  0.7603E-17  0.1000E-09  0.0000E+00  0.4244E+16
   -0.068746    0.06422  0.2953E-11  0.1219E-13  0.7603E-17  0.1000E-09  0.0000E+00  0.4060E+16
   -0.137492    0.12671  0.2365E-11  0.1219E-13  0.7603E-17  0.1000E-09  0.0000E+00  0.3914E+16
   -0.206239    0.18801  0.2238E-11  0.1219E-13  0.7603E-17  0.1000E-09  0.0000E+00  0.3807E+16
   -0.274986    0.24867  0.2214E-11  0.1219E-13  0.7603E-17  0.1000E-09  0.0000E+00  0.3738E+16
   -0.343735    0.30925  0.2209E-11  0.1219E-13  0.7603E-17  0.1000E-09  0.0000E+00  0.3705E+16
   -0.412483    0.37036  0.2209E-11  0.1219E-13  0.7603E-17  0.1000E-09  0.0000E+00  0.3709E+16
   -0.481232    0.43266  0.2209E-11  0.1219E-13  0.7603E-17  0.1000E-09  0.0000E+00  0.3747E+16
   -0.549982    0.49680  0.2209E-11  0.1219E-13  0.7603E-17  0.1000E-09  0.0000E+00  0.3819E+16
   -0.618732    0.56348  0.2209E-11  0.1219E-13  0.7603E-17  0.1000E-09  0.0000E+00  0.3923E+16
   -0.687482    0.63343  0.2209E-11  0.1219E-13  0.7603E-17  0.1000E-09  0.0000E+00  0.4070E+16
   -0.756233    0.70768  0.2209E-11  0.1219E-13  0.7603E-17  0.1000E-09  0.0000E+00  0.4249E+16
   -0.824984    0.78714  0.2209E-11  0.1219E-13  0.7603E-17  0.1000E-09  0.0000E+00  0.4445E+16
   -0.893735    0.87255  0.2209E-11  0.1219E-13  0.7603E-17  0.1000E-09  0.0000E+00  0.4650E+16
   -0.962486    0.96462  0.2209E-11  0.1219E-13  0.7603E-17  0.1000E-09  0.0000E+00  0.4857E+16
   -1.031238    1.06405  0.2209E-11  0.1219E-13  0.7603E-17  0.1000E-09  0.0000E+00  0.5056E+16
   -1.099990    1.17147  0.2208E-11  0.1219E-13  0.7603E-17  0.1000E-09  0.0000E+00  0.5238E+16
   -1.168742    1.28746  0.2207E-11  0.4769E-13  0.8869E-17  0.1000E-09  0.0000E+00  0.5390E+16
   -1.237494    1.41255  0.2203E-11  0.1397E-12  0.1998E-16  0.1000E-09  0.0000E+00  0.5503E+16
   -1.306246    1.54715  0.2194E-11  0.3590E-12  0.4811E-16  0.1000E-09  0.0000E+00  0.5565E+16
   -1.374998    1.69164  0.2181E-11  0.8850E-12  0.1146E-15  0.1000E-09  0.0000E+00  0.5586E+16
   -1.443751    1.84685  0.2167E-11  0.2142E-11  0.2697E-15  0.1000E-09  0.0000E+00  0.5537E+16
   -1.512503    2.01317  0.2159E-11  0.5121E-11  0.6275E-15  0.1000E-09  0.0000E+00  0.5401E+16
   -1.581255    2.19068  0.2155E-11  0.1211E-10  0.1444E-14  0.1000E-09  0.0000E+00  0.5168E+16
   -1.650007    2.37938  0.2153E-11  0.2832E-10  0.3291E-14  0.1000E-09  0.0000E+00  0.4830E+16
   -1.718759    2.57910  0.2151E-11  0.6558E-10  0.7424E-14  0.1000E-09  0.0000E+00  0.4383E+16
   -1.787510    2.78956  0.2151E-11  0.1541E-09  0.1699E-13  0.1000E-09  0.0000E+00  0.3840E+16
   -1.856262    3.01143  0.2150E-11  0.3647E-09  0.3919E-13  0.1000E-09  0.0000E+00  0.3183E+16
   -1.925013    3.24500  0.2150E-11  0.8614E-09  0.9025E-13  0.1916E-09  0.0000E+00  0.2401E+16
   -1.993764    3.49023  0.2148E-11  0.2028E-08  0.2073E-12  0.7137E-09  0.0000E+00  0.1481E+16
   -2.062515    3.74502  0.2143E-11  0.4641E-08  0.4631E-12  0.5178E-08  0.0000E+00  0.4566E+15
   -2.131265    3.99548  0.2139E-11  0.5708E-08  0.5741E-12  0.2031E-04  0.0000E+00 -0.2818E+12
   -2.200015    3.99728  0.2139E-11  0.6192E-08  0.6396E-12  0.2228E-04  0.0000E+00 -0.3030E+12
   -2.268764    3.99893  0.2139E-11  0.6596E-08  0.7133E-12  0.2308E-04  0.0000E+00 -0.3350E+12
   -2.337514    4.00053  0.2139E-11  0.6935E-08  0.8028E-12  0.2270E-04  0.0000E+00 -0.3842E+12
   -2.406262    4.00216  0.2139E-11  0.7201E-08  0.9191E-12  0.2108E-04  0.0000E+00 -0.4642E+12
   -2.475010    4.00393  0.2139E-11  0.7376E-08  0.1088E-11  0.1807E-04  0.0000E+00 -0.6098E+12
   -2.543758    4.00602  0.2139E-11  0.7409E-08  0.1374E-11  0.1354E-04  0.0000E+00 -0.9337E+12
   -2.612505    4.00885  0.2139E-11  0.7148E-08  0.2043E-11  0.7483E-05  0.0000E+00 -0.2059E+13
   -2.681251    4.01407  0.2139E-11  0.5675E-08  0.5619E-11  0.1332E-05  0.0000E+00 -0.2003E+14
   -2.749997    4.04401  0.2139E-11  0.0000E+00  0.0000E+00  0.0000E+00  0.0000E+00  0.0000E+00
