 1 - depth, m
 2 - temperature, C
 3 - salinity, kg/kg
 4 - turbulent kinetic energy, m**2/s**2
 5 - dissipation rate, m**2/s**3
 6 - kinematic heat conductance, m**2/s
 7 - modulus of horizontal velocity, m/s
 8 - Richardson number, n/d
   -0.000000   -0.00000  0.3490E-11  0.1219E-13  0.7603E-17  0.1000E-09  0.0000E+00  0.5981E+16
   -0.068746    0.09082  0.1931E-11  0.1219E-13  0.7603E-17  0.1000E-09  0.0000E+00  0.5752E+16
   -0.137492    0.18036  0.1447E-11  0.1219E-13  0.7603E-17  0.1000E-09  0.0000E+00  0.5566E+16
   -0.206239    0.26919  0.1324E-11  0.1219E-13  0.7603E-17  0.1000E-09  0.0000E+00  0.5417E+16
   -0.274986    0.35787  0.1297E-11  0.1219E-13  0.7603E-17  0.1000E-09  0.0000E+00  0.5302E+16
   -0.343735    0.44695  0.1292E-11  0.1219E-13  0.7603E-17  0.1000E-09  0.0000E+00  0.5216E+16
   -0.412483    0.53695  0.1291E-11  0.1219E-13  0.7603E-17  0.1000E-09  0.0000E+00  0.5155E+16
   -0.481232    0.62842  0.1290E-11  0.1219E-13  0.7603E-17  0.1000E-09  0.0000E+00  0.5115E+16
   -0.549982    0.72186  0.1290E-11  0.1219E-13  0.7603E-17  0.1000E-09  0.0000E+00  0.5092E+16
   -0.618732    0.81777  0.1290E-11  0.1219E-13  0.7603E-17  0.1000E-09  0.0000E+00  0.5082E+16
   -0.687482    0.91665  0.1290E-11  0.1219E-13  0.7603E-17  0.1000E-09  0.0000E+00  0.5094E+16
   -0.756233    1.01924  0.1290E-11  0.1219E-13  0.7603E-17  0.1000E-09  0.0000E+00  0.5116E+16
   -0.824984    1.12616  0.1290E-11  0.1219E-13  0.7603E-17  0.1000E-09  0.0000E+00  0.5133E+16
   -0.893735    1.23782  0.1290E-11  0.1219E-13  0.7603E-17  0.1000E-09  0.0000E+00  0.5139E+16
   -0.962486    1.35457  0.1290E-11  0.1219E-13  0.7603E-17  0.1000E-09  0.0000E+00  0.5128E+16
   -1.031238    1.47675  0.1290E-11  0.4918E-13  0.9031E-17  0.1000E-09  0.0000E+00  0.5096E+16
   -1.099990    1.60463  0.1289E-11  0.1433E-12  0.2030E-16  0.1000E-09  0.0000E+00  0.5036E+16
   -1.168742    1.73843  0.1288E-11  0.3656E-12  0.4853E-16  0.1000E-09  0.0000E+00  0.4942E+16
   -1.237494    1.87831  0.1284E-11  0.8946E-12  0.1148E-15  0.1000E-09  0.0000E+00  0.4810E+16
   -1.306246    2.02435  0.1278E-11  0.2149E-11  0.2680E-15  0.1000E-09  0.0000E+00  0.4635E+16
   -1.374998    2.17657  0.1271E-11  0.5097E-11  0.6184E-15  0.1000E-09  0.0000E+00  0.4422E+16
   -1.443750    2.33523  0.1265E-11  0.1196E-10  0.1412E-14  0.1000E-09  0.0000E+00  0.4159E+16
   -1.512503    2.50028  0.1261E-11  0.2775E-10  0.3192E-14  0.1000E-09  0.0000E+00  0.3840E+16
   -1.581255    2.67147  0.1259E-11  0.6375E-10  0.7142E-14  0.1000E-09  0.0000E+00  0.3467E+16
   -1.650007    2.84845  0.1258E-11  0.1450E-09  0.1583E-13  0.1000E-09  0.0000E+00  0.3040E+16
   -1.718759    3.03079  0.1257E-11  0.3265E-09  0.3474E-13  0.1000E-09  0.0000E+00  0.2563E+16
   -1.787510    3.21805  0.1256E-11  0.7457E-09  0.7733E-13  0.1906E-09  0.0000E+00  0.2066E+16
   -1.856262    3.41245  0.1256E-11  0.1716E-08  0.1736E-12  0.5874E-09  0.0000E+00  0.1504E+16
   -1.925013    3.61383  0.1254E-11  0.3940E-08  0.3887E-12  0.2259E-08  0.0000E+00  0.8759E+15
   -1.993764    3.82074  0.1252E-11  0.8919E-08  0.8599E-12  0.2078E-07  0.0000E+00  0.2106E+15
   -2.062515    4.01029  0.1251E-11  0.9997E-08  0.9693E-12  0.4193E-04  0.0000E+00 -0.2779E+12
   -2.131265    4.01102  0.1251E-11  0.1045E-07  0.1027E-11  0.4243E-04  0.0000E+00 -0.2836E+12
   -2.200015    4.01174  0.1251E-11  0.1080E-07  0.1089E-11  0.4198E-04  0.0000E+00 -0.2960E+12
   -2.268764    4.01248  0.1251E-11  0.1106E-07  0.1159E-11  0.4052E-04  0.0000E+00 -0.3166E+12
   -2.337513    4.01324  0.1251E-11  0.1125E-07  0.1247E-11  0.3787E-04  0.0000E+00 -0.3503E+12
   -2.406262    4.01406  0.1251E-11  0.1134E-07  0.1366E-11  0.3385E-04  0.0000E+00 -0.4064E+12
   -2.475010    4.01498  0.1251E-11  0.1131E-07  0.1546E-11  0.2820E-04  0.0000E+00 -0.5089E+12
   -2.543758    4.01609  0.1251E-11  0.1109E-07  0.1864E-11  0.2066E-04  0.0000E+00 -0.7330E+12
   -2.612504    4.01762  0.1251E-11  0.1046E-07  0.2632E-11  0.1119E-04  0.0000E+00 -0.1476E+13
   -2.681251    4.02050  0.1251E-11  0.7725E-08  0.7339E-11  0.1561E-05  0.0000E+00 -0.1436E+14
   -2.749996    4.04111  0.1251E-11  0.0000E+00  0.0000E+00  0.0000E+00  0.0000E+00  0.0000E+00
