 1 - depth, m
 2 - temperature, C
 3 - salinity, kg/kg
 4 - turbulent kinetic energy, m**2/s**2
 5 - dissipation rate, m**2/s**3
 6 - kinematic heat conductance, m**2/s
 7 - modulus of horizontal velocity, m/s
 8 - Richardson number, n/d
   -0.000000   -0.00000  0.9028E-10  0.1219E-13  0.7603E-17  0.1000E-09  0.0000E+00  0.4684E+16
   -0.068746    0.07095  0.4728E-10  0.1219E-13  0.7603E-17  0.1000E-09  0.0000E+00  0.4501E+16
   -0.137492    0.14043  0.3663E-10  0.1219E-13  0.7603E-17  0.1000E-09  0.0000E+00  0.4353E+16
   -0.206239    0.20893  0.3428E-10  0.1219E-13  0.7603E-17  0.1000E-09  0.0000E+00  0.4239E+16
   -0.274987    0.27693  0.3382E-10  0.1219E-13  0.7603E-17  0.1000E-09  0.0000E+00  0.4158E+16
   -0.343735    0.34494  0.3374E-10  0.1219E-13  0.7603E-17  0.1000E-09  0.0000E+00  0.4106E+16
   -0.412483    0.41346  0.3373E-10  0.1219E-13  0.7603E-17  0.1000E-09  0.0000E+00  0.4084E+16
   -0.481232    0.48301  0.3373E-10  0.1219E-13  0.7603E-17  0.1000E-09  0.0000E+00  0.4087E+16
   -0.549982    0.55412  0.3373E-10  0.1219E-13  0.7603E-17  0.1000E-09  0.0000E+00  0.4113E+16
   -0.618732    0.62728  0.3373E-10  0.1219E-13  0.7603E-17  0.1000E-09  0.0000E+00  0.4159E+16
   -0.687482    0.70302  0.3373E-10  0.1219E-13  0.7603E-17  0.1000E-09  0.0000E+00  0.4236E+16
   -0.756233    0.78211  0.3373E-10  0.1219E-13  0.7603E-17  0.1000E-09  0.0000E+00  0.4333E+16
   -0.824984    0.86519  0.3373E-10  0.1219E-13  0.7603E-17  0.1000E-09  0.0000E+00  0.4435E+16
   -0.893735    0.95272  0.3373E-10  0.1219E-13  0.7603E-17  0.1000E-09  0.0000E+00  0.4538E+16
   -0.962487    1.04510  0.3373E-10  0.1219E-13  0.7603E-17  0.1000E-09  0.0000E+00  0.4635E+16
   -1.031238    1.14272  0.3372E-10  0.1219E-13  0.7603E-17  0.1000E-09  0.0000E+00  0.4721E+16
   -1.099990    1.24590  0.3370E-10  0.1219E-13  0.7603E-17  0.1000E-09  0.0000E+00  0.4790E+16
   -1.168742    1.35492  0.3365E-10  0.1219E-13  0.7603E-17  0.1000E-09  0.0000E+00  0.4836E+16
   -1.237494    1.46999  0.3353E-10  0.1219E-13  0.7603E-17  0.1000E-09  0.0000E+00  0.4853E+16
   -1.306246    1.59125  0.3334E-10  0.1219E-13  0.7603E-17  0.1000E-09  0.0000E+00  0.4835E+16
   -1.374999    1.71876  0.3312E-10  0.1219E-13  0.7603E-17  0.1000E-09  0.0000E+00  0.4791E+16
   -1.443751    1.85290  0.3296E-10  0.1219E-13  0.7603E-17  0.1000E-09  0.0000E+00  0.4704E+16
   -1.512503    1.99371  0.3286E-10  0.1987E-13  0.7603E-17  0.1000E-09  0.0000E+00  0.4565E+16
   -1.581255    2.14097  0.3281E-10  0.7569E-13  0.1777E-16  0.1000E-09  0.0000E+00  0.4373E+16
   -1.650007    2.29441  0.3277E-10  0.2439E-12  0.5258E-16  0.1000E-09  0.0000E+00  0.4126E+16
   -1.718759    2.45363  0.3274E-10  0.7444E-12  0.1543E-15  0.1000E-09  0.0000E+00  0.3825E+16
   -1.787511    2.61811  0.3273E-10  0.2284E-11  0.4572E-15  0.1000E-09  0.0000E+00  0.3460E+16
   -1.856262    2.78665  0.3272E-10  0.6992E-11  0.1353E-14  0.1000E-09  0.0000E+00  0.3059E+16
   -1.925013    2.95895  0.3272E-10  0.2119E-10  0.3968E-14  0.1000E-09  0.0000E+00  0.2626E+16
   -1.993764    3.13472  0.3271E-10  0.6359E-10  0.1153E-13  0.1000E-09  0.0000E+00  0.2162E+16
   -2.062515    3.31360  0.3270E-10  0.1845E-09  0.3241E-13  0.1000E-09  0.0000E+00  0.1670E+16
   -2.131265    3.49505  0.3267E-10  0.5265E-09  0.8963E-13  0.3949E-09  0.0000E+00  0.1154E+16
   -2.200015    3.67820  0.3263E-10  0.1483E-08  0.2448E-12  0.1998E-08  0.0000E+00  0.6224E+15
   -2.268765    3.86080  0.3259E-10  0.4097E-08  0.6573E-12  0.2843E-07  0.0000E+00  0.1166E+15
   -2.337514    4.01609  0.3259E-10  0.5945E-08  0.9641E-12  0.1582E-04  0.0000E+00 -0.7956E+12
   -2.406263    4.01775  0.3259E-10  0.6629E-08  0.1129E-11  0.1577E-04  0.0000E+00 -0.8556E+12
   -2.475011    4.01944  0.3259E-10  0.7086E-08  0.1333E-11  0.1434E-04  0.0000E+00 -0.1017E+13
   -2.543758    4.02135  0.3259E-10  0.7306E-08  0.1653E-11  0.1137E-04  0.0000E+00 -0.1416E+13
   -2.612505    4.02384  0.3259E-10  0.7161E-08  0.2369E-11  0.6719E-05  0.0000E+00 -0.2820E+13
   -2.681252    4.02837  0.3259E-10  0.5825E-08  0.6046E-11  0.1356E-05  0.0000E+00 -0.2287E+14
   -2.749997    4.05480  0.3259E-10  0.0000E+00  0.0000E+00  0.0000E+00  0.0000E+00  0.0000E+00
