 1 - depth, m
 2 - temperature, C
 3 - salinity, kg/kg
 4 - turbulent kinetic energy, m**2/s**2
 5 - dissipation rate, m**2/s**3
 6 - kinematic heat conductance, m**2/s
 7 - modulus of horizontal velocity, m/s
 8 - Richardson number, n/d
   -0.000000   -0.00000  0.4081E-12  0.1219E-13  0.7603E-17  0.1000E-09  0.0000E+00  0.7345E+16
   -0.068746    0.11185  0.1309E-11  0.1219E-13  0.7603E-17  0.1000E-09  0.0000E+00  0.7241E+16
   -0.137493    0.22560  0.1730E-11  0.1219E-13  0.7603E-17  0.1000E-09  0.0000E+00  0.7115E+16
   -0.206240    0.34107  0.1807E-11  0.1219E-13  0.7603E-17  0.1000E-09  0.0000E+00  0.6970E+16
   -0.274988    0.45807  0.1723E-11  0.1219E-13  0.7603E-17  0.1000E-09  0.0000E+00  0.6804E+16
   -0.343736    0.57640  0.1590E-11  0.1219E-13  0.7603E-17  0.1000E-09  0.0000E+00  0.6621E+16
   -0.412485    0.69586  0.1472E-11  0.1219E-13  0.7603E-17  0.1000E-09  0.0000E+00  0.6421E+16
   -0.481234    0.81627  0.1388E-11  0.1219E-13  0.7603E-17  0.1000E-09  0.0000E+00  0.6207E+16
   -0.549984    0.93743  0.1339E-11  0.1219E-13  0.7603E-17  0.1000E-09  0.0000E+00  0.5981E+16
   -0.618734    1.05917  0.1312E-11  0.1219E-13  0.7603E-17  0.1000E-09  0.0000E+00  0.5745E+16
   -0.687485    1.18133  0.1299E-11  0.1219E-13  0.7603E-17  0.1000E-09  0.0000E+00  0.5502E+16
   -0.756236    1.30378  0.1294E-11  0.1219E-13  0.7603E-17  0.1000E-09  0.0000E+00  0.5253E+16
   -0.824987    1.42639  0.1291E-11  0.1219E-13  0.7603E-17  0.1000E-09  0.0000E+00  0.4999E+16
   -0.893739    1.54906  0.1290E-11  0.1219E-13  0.7603E-17  0.1000E-09  0.0000E+00  0.4742E+16
   -0.962490    1.67168  0.1289E-11  0.1219E-13  0.7603E-17  0.1000E-09  0.0000E+00  0.4482E+16
   -1.031242    1.79414  0.1288E-11  0.1219E-13  0.7603E-17  0.1000E-09  0.0000E+00  0.4222E+16
   -1.099994    1.91637  0.1286E-11  0.1219E-13  0.7603E-17  0.1000E-09  0.0000E+00  0.3963E+16
   -1.168747    2.03829  0.1283E-11  0.1219E-13  0.7603E-17  0.1000E-09  0.0000E+00  0.3704E+16
   -1.237499    2.15985  0.1281E-11  0.1219E-13  0.7603E-17  0.1000E-09  0.0000E+00  0.3447E+16
   -1.306252    2.28099  0.1277E-11  0.1219E-13  0.7603E-17  0.1000E-09  0.0000E+00  0.3193E+16
   -1.375004    2.40168  0.1273E-11  0.1219E-13  0.7603E-17  0.1000E-09  0.0000E+00  0.2942E+16
   -1.443757    2.52192  0.1270E-11  0.1219E-13  0.7603E-17  0.1000E-09  0.0000E+00  0.2695E+16
   -1.512509    2.64169  0.1266E-11  0.3157E-13  0.7613E-17  0.1000E-09  0.0000E+00  0.2451E+16
   -1.581261    2.76100  0.1263E-11  0.9842E-13  0.1446E-16  0.1000E-09  0.0000E+00  0.2211E+16
   -1.650014    2.87985  0.1261E-11  0.2553E-12  0.3372E-16  0.1000E-09  0.0000E+00  0.1975E+16
   -1.718766    2.99828  0.1259E-11  0.6223E-12  0.7885E-16  0.1000E-09  0.0000E+00  0.1742E+16
   -1.787518    3.11625  0.1257E-11  0.1518E-11  0.1865E-15  0.1000E-09  0.0000E+00  0.1493E+16
   -1.856270    3.23213  0.1256E-11  0.3713E-11  0.4434E-15  0.1000E-09  0.0000E+00  0.1253E+16
   -1.925021    3.34557  0.1254E-11  0.9038E-11  0.1050E-14  0.1000E-09  0.0000E+00  0.1023E+16
   -1.993772    3.45604  0.1254E-11  0.2190E-10  0.2477E-14  0.1000E-09  0.0000E+00  0.8084E+15
   -2.062523    3.56352  0.1253E-11  0.5161E-10  0.5685E-14  0.1000E-09  0.0000E+00  0.6231E+15
   -2.131274    3.67060  0.1253E-11  0.1201E-09  0.1289E-13  0.1486E-09  0.0000E+00  0.4413E+15
   -2.200024    3.77758  0.1252E-11  0.2772E-09  0.2898E-13  0.5665E-09  0.0000E+00  0.2603E+15
   -2.268774    3.88421  0.1252E-11  0.6386E-09  0.6511E-13  0.4053E-08  0.0000E+00  0.8169E+14
   -2.337523    3.98827  0.1252E-11  0.1138E-08  0.1160E-12  0.3464E-05  0.0000E+00 -0.2643E+12
   -2.406272    3.99255  0.1252E-11  0.1445E-08  0.1603E-12  0.4937E-05  0.0000E+00 -0.3534E+12
   -2.475021    3.99549  0.1252E-11  0.1676E-08  0.2130E-12  0.5086E-05  0.0000E+00 -0.4676E+12
   -2.543768    3.99831  0.1252E-11  0.1820E-08  0.2882E-12  0.4245E-05  0.0000E+00 -0.7115E+12
   -2.612516    4.00163  0.1252E-11  0.1816E-08  0.4373E-12  0.2474E-05  0.0000E+00 -0.1548E+13
   -2.681262    4.00710  0.1252E-11  0.1402E-08  0.1042E-11  0.4475E-06  0.0000E+00 -0.1152E+14
   -2.750008    4.02994  0.1252E-11  0.0000E+00  0.0000E+00  0.0000E+00  0.0000E+00  0.0000E+00
