 1 - depth, m
 2 - temperature, C
 3 - salinity, kg/kg
 4 - turbulent kinetic energy, m**2/s**2
 5 - dissipation rate, m**2/s**3
 6 - kinematic heat conductance, m**2/s
 7 - modulus of horizontal velocity, m/s
 8 - Richardson number, n/d
   -0.000000   -0.00000  0.4437E-11  0.1219E-13  0.7603E-17  0.1000E-09  0.0000E+00  0.5325E+16
   -0.068746    0.08076  0.2403E-11  0.1219E-13  0.7603E-17  0.1000E-09  0.0000E+00  0.5126E+16
   -0.137492    0.16022  0.1842E-11  0.1219E-13  0.7603E-17  0.1000E-09  0.0000E+00  0.4968E+16
   -0.206239    0.23895  0.1712E-11  0.1219E-13  0.7603E-17  0.1000E-09  0.0000E+00  0.4848E+16
   -0.274987    0.31751  0.1685E-11  0.1219E-13  0.7603E-17  0.1000E-09  0.0000E+00  0.4763E+16
   -0.343735    0.39648  0.1680E-11  0.1219E-13  0.7603E-17  0.1000E-09  0.0000E+00  0.4711E+16
   -0.412483    0.47643  0.1679E-11  0.1219E-13  0.7603E-17  0.1000E-09  0.0000E+00  0.4687E+16
   -0.481232    0.55795  0.1679E-11  0.1219E-13  0.7603E-17  0.1000E-09  0.0000E+00  0.4690E+16
   -0.549982    0.64161  0.1679E-11  0.1219E-13  0.7603E-17  0.1000E-09  0.0000E+00  0.4714E+16
   -0.618732    0.72799  0.1679E-11  0.1219E-13  0.7603E-17  0.1000E-09  0.0000E+00  0.4755E+16
   -0.687482    0.81765  0.1679E-11  0.1219E-13  0.7603E-17  0.1000E-09  0.0000E+00  0.4824E+16
   -0.756233    0.91143  0.1679E-11  0.1219E-13  0.7603E-17  0.1000E-09  0.0000E+00  0.4908E+16
   -0.824984    1.01003  0.1679E-11  0.1219E-13  0.7603E-17  0.1000E-09  0.0000E+00  0.4991E+16
   -0.893735    1.11393  0.1679E-11  0.1219E-13  0.7603E-17  0.1000E-09  0.0000E+00  0.5065E+16
   -0.962486    1.22358  0.1678E-11  0.1219E-13  0.7603E-17  0.1000E-09  0.0000E+00  0.5126E+16
   -1.031238    1.33938  0.1678E-11  0.2180E-13  0.7603E-17  0.1000E-09  0.0000E+00  0.5165E+16
   -1.099990    1.46168  0.1678E-11  0.7973E-13  0.1116E-16  0.1000E-09  0.0000E+00  0.5176E+16
   -1.168742    1.59078  0.1676E-11  0.2087E-12  0.2399E-16  0.1000E-09  0.0000E+00  0.5153E+16
   -1.237494    1.72691  0.1672E-11  0.4904E-12  0.5321E-16  0.1000E-09  0.0000E+00  0.5088E+16
   -1.306246    1.87026  0.1665E-11  0.1111E-11  0.1167E-15  0.1000E-09  0.0000E+00  0.4978E+16
   -1.374999    2.02096  0.1655E-11  0.2474E-11  0.2531E-15  0.1000E-09  0.0000E+00  0.4829E+16
   -1.443751    2.17954  0.1647E-11  0.5449E-11  0.5433E-15  0.1000E-09  0.0000E+00  0.4625E+16
   -1.512503    2.34620  0.1641E-11  0.1189E-10  0.1156E-14  0.1000E-09  0.0000E+00  0.4357E+16
   -1.581255    2.52096  0.1638E-11  0.2569E-10  0.2437E-14  0.1000E-09  0.0000E+00  0.4021E+16
   -1.650007    2.70374  0.1636E-11  0.5503E-10  0.5094E-14  0.1000E-09  0.0000E+00  0.3613E+16
   -1.718759    2.89436  0.1635E-11  0.1169E-09  0.1056E-13  0.1000E-09  0.0000E+00  0.3132E+16
   -1.787511    3.09256  0.1635E-11  0.2518E-09  0.2221E-13  0.1000E-09  0.0000E+00  0.2614E+16
   -1.856262    3.30128  0.1634E-11  0.5477E-09  0.4716E-13  0.1203E-09  0.0000E+00  0.1996E+16
   -1.925013    3.52074  0.1633E-11  0.1191E-08  0.1002E-12  0.4017E-09  0.0000E+00  0.1270E+16
   -1.993764    3.75065  0.1629E-11  0.2583E-08  0.2123E-12  0.2481E-08  0.0000E+00  0.4361E+15
   -2.062515    3.98628  0.1627E-11  0.3455E-08  0.2861E-12  0.8515E-05  0.0000E+00 -0.1180E+12
   -2.131265    3.99024  0.1627E-11  0.3957E-08  0.3411E-12  0.1415E-04  0.0000E+00 -0.1906E+12
   -2.200015    3.99261  0.1627E-11  0.4387E-08  0.3989E-12  0.1690E-04  0.0000E+00 -0.2283E+12
   -2.268765    3.99461  0.1627E-11  0.4762E-08  0.4633E-12  0.1818E-04  0.0000E+00 -0.2689E+12
   -2.337514    3.99647  0.1627E-11  0.5093E-08  0.5405E-12  0.1823E-04  0.0000E+00 -0.3232E+12
   -2.406263    3.99833  0.1627E-11  0.5370E-08  0.6390E-12  0.1709E-04  0.0000E+00 -0.4058E+12
   -2.475011    4.00032  0.1627E-11  0.5576E-08  0.7787E-12  0.1471E-04  0.0000E+00 -0.5518E+12
   -2.543758    4.00264  0.1627E-11  0.5667E-08  0.1011E-11  0.1102E-04  0.0000E+00 -0.8741E+12
   -2.612505    4.00576  0.1627E-11  0.5515E-08  0.1542E-11  0.6051E-05  0.0000E+00 -0.2002E+13
   -2.681251    4.01148  0.1627E-11  0.4419E-08  0.4233E-11  0.1103E-05  0.0000E+00 -0.1927E+14
   -2.749997    4.04194  0.1627E-11  0.0000E+00  0.0000E+00  0.0000E+00  0.0000E+00  0.0000E+00
