 1 - depth, m
 2 - temperature, C
 3 - salinity, kg/kg
 4 - turbulent kinetic energy, m**2/s**2
 5 - dissipation rate, m**2/s**3
 6 - kinematic heat conductance, m**2/s
 7 - modulus of horizontal velocity, m/s
 8 - Richardson number, n/d
   -0.000000    2.19104  0.2821E-11  0.4369E-04  0.7189E-05  0.4831E-04  0.6804E-01  0.2900E-01
   -0.068746    2.24604  0.2821E-11  0.2969E-04  0.1647E-05  0.8486E-04  0.4253E-01  0.8882E-02
   -0.137492    2.26359  0.2821E-11  0.2552E-04  0.7025E-06  0.1200E-03  0.3631E-01  0.1419E-01
   -0.206239    2.27537  0.2821E-11  0.2302E-04  0.3873E-06  0.1533E-03  0.3240E-01  0.1991E-01
   -0.274987    2.28439  0.2821E-11  0.2122E-04  0.2517E-06  0.1827E-03  0.2954E-01  0.2612E-01
   -0.343735    2.29176  0.2821E-11  0.1976E-04  0.1811E-06  0.2076E-03  0.2731E-01  0.3284E-01
   -0.412484    2.29807  0.2821E-11  0.1849E-04  0.1387E-06  0.2278E-03  0.2548E-01  0.4005E-01
   -0.481233    2.30365  0.2821E-11  0.1733E-04  0.1106E-06  0.2437E-03  0.2394E-01  0.4777E-01
   -0.549983    2.30871  0.2821E-11  0.1626E-04  0.9062E-07  0.2554E-03  0.2260E-01  0.5606E-01
   -0.618733    2.31341  0.2821E-11  0.1526E-04  0.7565E-07  0.2633E-03  0.2141E-01  0.6501E-01
   -0.687483    2.31783  0.2821E-11  0.1430E-04  0.6403E-07  0.2677E-03  0.2034E-01  0.7472E-01
   -0.756234    2.32206  0.2821E-11  0.1340E-04  0.5473E-07  0.2692E-03  0.1938E-01  0.8535E-01
   -0.824985    2.32615  0.2821E-11  0.1254E-04  0.4715E-07  0.2680E-03  0.1849E-01  0.9713E-01
   -0.893737    2.33015  0.2821E-11  0.1172E-04  0.4086E-07  0.2647E-03  0.1766E-01  0.1104E+00
   -0.962488    2.33408  0.2821E-11  0.1095E-04  0.3558E-07  0.2596E-03  0.1690E-01  0.1256E+00
   -1.031240    2.33797  0.2821E-11  0.1022E-04  0.3112E-07  0.2535E-03  0.1619E-01  0.1434E+00
   -1.099992    2.34186  0.2821E-11  0.9547E-05  0.2737E-07  0.2469E-03  0.1552E-01  0.1652E+00
   -1.168744    2.34574  0.2821E-11  0.8935E-05  0.2423E-07  0.2409E-03  0.1490E-01  0.1927E+00
   -1.237496    2.34962  0.2821E-11  0.8401E-05  0.2170E-07  0.2367E-03  0.1432E-01  0.2319E+00
   -1.306249    2.35348  0.2821E-11  0.7969E-05  0.1979E-07  0.2359E-03  0.1378E-01  0.2799E+00
   -1.375001    2.35726  0.2821E-11  0.7664E-05  0.1854E-07  0.2398E-03  0.1330E-01  0.4078E+00
   -1.443753    2.36092  0.2821E-11  0.7513E-05  0.1801E-07  0.2489E-03  0.1288E-01  0.4381E+00
   -1.512506    2.36442  0.2821E-11  0.7538E-05  0.1826E-07  0.2634E-03  0.1251E-01  0.1247E+01
   -1.581258    2.36779  0.2821E-11  0.7775E-05  0.1946E-07  0.2839E-03  0.1219E-01  0.1560E+01
   -1.650010    2.37131  0.2821E-11  0.8552E-05  0.2332E-07  0.9743E-04  0.1187E-01  0.1272E+00
   -1.718762    2.40398  0.2821E-11  0.7007E-05  0.1767E-07  0.2385E-03  0.2173E-02  0.5558E+01
   -1.787514    2.40917  0.2821E-11  0.6051E-05  0.1442E-07  0.2224E-03  0.1100E-02  0.2684E+01
   -1.856265    2.41282  0.2821E-11  0.5251E-05  0.1190E-07  0.1926E-03  0.8765E-03  0.7744E+01
   -1.925017    2.41660  0.2821E-11  0.4519E-05  0.9777E-08  0.1620E-03  0.7010E-03  0.4753E+01
   -1.993768    2.42079  0.2821E-11  0.3835E-05  0.7943E-08  0.1305E-03  0.5610E-03  0.8581E+01
   -2.062519    2.42566  0.2821E-11  0.3216E-05  0.6414E-08  0.9804E-04  0.4481E-03  0.1337E+02
   -2.131269    2.43188  0.2821E-11  0.2653E-05  0.5135E-08  0.6695E-04  0.3469E-03  0.2352E+02
   -2.200019    2.44075  0.2821E-11  0.2134E-05  0.4048E-08  0.3798E-04  0.2559E-03  0.1520E+03
   -2.268769    2.45665  0.2821E-11  0.1563E-05  0.2945E-08  0.1248E-04  0.1699E-03  0.2124E+03
   -2.337518    2.56547  0.2821E-11  0.7806E-06  0.1476E-08  0.1782E-05  0.7194E-04  0.1768E+05
   -2.406267    3.33350  0.2821E-11  0.3789E-06  0.7378E-09  0.1639E-04  0.1481E-04  0.1641E+07
   -2.475015    3.99392  0.2822E-11  0.2824E-06  0.5556E-09  0.3496E-04  0.1590E-05 -0.4266E+08
   -2.543762    4.09193  0.2822E-11  0.2515E-06  0.5416E-09  0.3938E-04  0.6928E-06 -0.1125E+10
   -2.612510    4.11593  0.2822E-11  0.2223E-06  0.6595E-09  0.3058E-04  0.4184E-06 -0.6033E+11
   -2.681256    4.13708  0.2822E-11  0.1439E-06  0.1520E-08  0.5782E-05  0.2402E-06 -0.7438E+14
   -2.750002    4.22484  0.2822E-11  0.0000E+00  0.0000E+00  0.0000E+00  0.2645E-06  0.0000E+00
