 1 - depth, m
 2 - temperature, C
 3 - salinity, kg/kg
 4 - turbulent kinetic energy, m**2/s**2
 5 - dissipation rate, m**2/s**3
 6 - kinematic heat conductance, m**2/s
 7 - modulus of horizontal velocity, m/s
 8 - Richardson number, n/d
   -0.000000   -0.00000  0.1132E-09  0.1219E-13  0.7603E-17  0.1000E-09  0.0000E+00  0.5046E+16
   -0.068746    0.07648  0.6280E-10  0.1219E-13  0.7603E-17  0.1000E-09  0.0000E+00  0.4865E+16
   -0.137492    0.15175  0.4805E-10  0.1219E-13  0.7603E-17  0.1000E-09  0.0000E+00  0.4717E+16
   -0.206239    0.22627  0.4453E-10  0.1219E-13  0.7603E-17  0.1000E-09  0.0000E+00  0.4600E+16
   -0.274987    0.30049  0.4378E-10  0.1219E-13  0.7603E-17  0.1000E-09  0.0000E+00  0.4511E+16
   -0.343735    0.37486  0.4364E-10  0.1219E-13  0.7603E-17  0.1000E-09  0.0000E+00  0.4449E+16
   -0.412483    0.44983  0.4362E-10  0.1219E-13  0.7603E-17  0.1000E-09  0.0000E+00  0.4410E+16
   -0.481232    0.52584  0.4361E-10  0.1219E-13  0.7603E-17  0.1000E-09  0.0000E+00  0.4392E+16
   -0.549982    0.60334  0.4361E-10  0.1219E-13  0.7603E-17  0.1000E-09  0.0000E+00  0.4391E+16
   -0.618732    0.68275  0.4361E-10  0.1219E-13  0.7603E-17  0.1000E-09  0.0000E+00  0.4404E+16
   -0.687482    0.76447  0.4361E-10  0.1219E-13  0.7603E-17  0.1000E-09  0.0000E+00  0.4442E+16
   -0.756233    0.84916  0.4361E-10  0.1219E-13  0.7603E-17  0.1000E-09  0.0000E+00  0.4493E+16
   -0.824984    0.93736  0.4361E-10  0.1219E-13  0.7603E-17  0.1000E-09  0.0000E+00  0.4545E+16
   -0.893735    1.02938  0.4361E-10  0.1219E-13  0.7603E-17  0.1000E-09  0.0000E+00  0.4592E+16
   -0.962486    1.12551  0.4361E-10  0.1219E-13  0.7603E-17  0.1000E-09  0.0000E+00  0.4630E+16
   -1.031238    1.22600  0.4361E-10  0.1219E-13  0.7603E-17  0.1000E-09  0.0000E+00  0.4655E+16
   -1.099990    1.33105  0.4360E-10  0.1219E-13  0.7603E-17  0.1000E-09  0.0000E+00  0.4662E+16
   -1.168742    1.44080  0.4359E-10  0.1219E-13  0.7603E-17  0.1000E-09  0.0000E+00  0.4647E+16
   -1.237494    1.55533  0.4354E-10  0.1219E-13  0.7603E-17  0.1000E-09  0.0000E+00  0.4605E+16
   -1.306246    1.67466  0.4345E-10  0.1219E-13  0.7603E-17  0.1000E-09  0.0000E+00  0.4534E+16
   -1.374999    1.79876  0.4330E-10  0.1219E-13  0.7603E-17  0.1000E-09  0.0000E+00  0.4441E+16
   -1.443751    1.92783  0.4310E-10  0.1219E-13  0.7603E-17  0.1000E-09  0.0000E+00  0.4315E+16
   -1.512503    2.06178  0.4292E-10  0.1219E-13  0.7603E-17  0.1000E-09  0.0000E+00  0.4149E+16
   -1.581255    2.20036  0.4280E-10  0.1219E-13  0.7603E-17  0.1000E-09  0.0000E+00  0.3944E+16
   -1.650007    2.34325  0.4274E-10  0.2031E-13  0.7603E-17  0.1000E-09  0.0000E+00  0.3701E+16
   -1.718759    2.49002  0.4271E-10  0.7655E-13  0.2014E-16  0.1000E-09  0.0000E+00  0.3421E+16
   -1.787511    2.64022  0.4269E-10  0.2680E-12  0.6583E-16  0.1000E-09  0.0000E+00  0.3109E+16
   -1.856262    2.79343  0.4268E-10  0.9124E-12  0.2156E-15  0.1000E-09  0.0000E+00  0.2772E+16
   -1.925013    2.94937  0.4266E-10  0.3056E-11  0.6968E-15  0.1000E-09  0.0000E+00  0.2413E+16
   -1.993764    3.10775  0.4264E-10  0.1011E-10  0.2226E-14  0.1000E-09  0.0000E+00  0.2031E+16
   -2.062515    3.26806  0.4259E-10  0.3222E-10  0.6857E-14  0.1000E-09  0.0000E+00  0.1630E+16
   -2.131265    3.42960  0.4249E-10  0.1009E-09  0.2076E-13  0.1000E-09  0.0000E+00  0.1218E+16
   -2.200015    3.59184  0.4236E-10  0.3113E-09  0.6196E-13  0.3935E-09  0.0000E+00  0.7996E+15
   -2.268765    3.75386  0.4224E-10  0.9552E-09  0.1840E-12  0.2436E-08  0.0000E+00  0.3828E+15
   -2.337514    3.91363  0.4220E-10  0.2831E-08  0.5309E-12  0.7751E-07  0.0000E+00  0.3331E+14
   -2.406263    4.01845  0.4220E-10  0.4763E-08  0.9071E-12  0.1084E-04  0.0000E+00 -0.1099E+13
   -2.475011    4.02056  0.4220E-10  0.5459E-08  0.1123E-11  0.1053E-04  0.0000E+00 -0.1239E+13
   -2.543758    4.02280  0.4220E-10  0.5854E-08  0.1425E-11  0.8747E-05  0.0000E+00 -0.1665E+13
   -2.612505    4.02560  0.4220E-10  0.5880E-08  0.2061E-11  0.5370E-05  0.0000E+00 -0.3230E+13
   -2.681251    4.03054  0.4220E-10  0.4930E-08  0.5134E-11  0.1193E-05  0.0000E+00 -0.2394E+14
   -2.749997    4.05713  0.4220E-10  0.0000E+00  0.0000E+00  0.0000E+00  0.0000E+00  0.0000E+00
