 1 - depth, m
 2 - temperature, C
 3 - salinity, kg/kg
 4 - turbulent kinetic energy, m**2/s**2
 5 - dissipation rate, m**2/s**3
 6 - kinematic heat conductance, m**2/s
 7 - modulus of horizontal velocity, m/s
 8 - Richardson number, n/d
   -0.000000   -0.00000  0.2596E-10  0.1915E-05  0.2957E-07  0.1118E-04  0.1186E-01  0.2850E-01
   -0.068745    0.00739  0.2593E-10  0.1642E-05  0.1207E-07  0.1873E-04  0.8499E-02  0.5892E-01
   -0.137490    0.01119  0.2591E-10  0.1378E-05  0.6837E-08  0.2199E-04  0.6851E-02  0.9105E-01
   -0.206236    0.01396  0.2590E-10  0.1142E-05  0.4356E-08  0.2246E-04  0.5728E-02  0.1253E+00
   -0.274983    0.01627  0.2588E-10  0.9339E-06  0.2929E-08  0.2119E-04  0.4859E-02  0.1631E+00
   -0.343730    0.01836  0.2587E-10  0.7512E-06  0.2019E-08  0.1890E-04  0.4139E-02  0.2061E+00
   -0.412478    0.02036  0.2586E-10  0.5918E-06  0.1402E-08  0.1609E-04  0.3516E-02  0.2577E+00
   -0.481226    0.02239  0.2585E-10  0.4543E-06  0.9675E-09  0.1313E-04  0.2960E-02  0.3256E+00
   -0.549974    0.02462  0.2584E-10  0.3386E-06  0.6568E-09  0.1034E-04  0.2448E-02  0.4547E+00
   -0.618723    0.02753  0.2582E-10  0.2467E-06  0.4388E-09  0.7961E-05  0.1965E-02  0.9118E+00
   -0.687473    0.03152  0.2579E-10  0.1781E-06  0.2920E-09  0.6038E-05  0.1529E-02  0.2472E+01
   -0.756223    0.03586  0.2575E-10  0.1277E-06  0.1944E-09  0.4492E-05  0.1170E-02  0.6916E+01
   -0.824973    0.03959  0.2572E-10  0.9018E-07  0.1282E-09  0.3242E-05  0.8919E-03  0.1927E+02
   -0.893723    0.04255  0.2569E-10  0.6193E-07  0.8275E-10  0.2246E-05  0.6776E-03  0.5586E+02
   -0.962473    0.04498  0.2566E-10  0.4092E-07  0.5166E-10  0.1476E-05  0.5109E-03  0.1739E+03
   -1.031224    0.04703  0.2564E-10  0.2564E-07  0.3075E-10  0.9050E-06  0.3802E-03  0.6031E+03
   -1.099975    0.04886  0.2562E-10  0.1491E-07  0.1709E-10  0.5051E-06  0.2772E-03  0.2518E+04
   -1.168726    0.05058  0.2560E-10  0.7794E-08  0.8589E-11  0.2473E-06  0.1964E-03  0.1430E+05
   -1.237477    0.05234  0.2558E-10  0.3474E-08  0.3705E-11  0.1007E-06  0.1337E-03  0.1147E+06
   -1.306229    0.05440  0.2556E-10  0.1226E-08  0.1269E-11  0.3251E-07  0.8652E-04  0.1136E+07
   -1.374980    0.05742  0.2554E-10  0.2988E-09  0.3057E-12  0.6009E-08  0.5290E-04  0.1348E+08
   -1.443731    0.06426  0.2552E-10  0.5075E-10  0.5257E-13  0.6814E-09  0.3049E-04  0.1353E+09
   -1.512482    0.07930  0.2550E-10  0.7662E-11  0.8087E-14  0.1322E-09  0.1701E-04  0.1195E+10
   -1.581234    0.11029  0.2547E-10  0.3039E-11  0.2077E-14  0.1001E-09  0.9253E-05  0.9202E+10
   -1.649985    0.17016  0.2543E-10  0.8627E-11  0.2325E-14  0.1000E-09  0.4659E-05  0.5168E+11
   -1.718736    0.27689  0.2540E-10  0.2191E-10  0.4233E-14  0.1000E-09  0.1637E-05  0.3493E+12
   -1.787486    0.44455  0.2539E-10  0.4324E-10  0.7379E-14  0.1009E-09  0.1088E-06  0.5597E+14
   -1.856237    0.55852  0.2538E-10  0.7093E-10  0.1136E-13  0.1126E-09  0.6668E-08  0.1442E+16
   -1.924987    0.62937  0.2537E-10  0.9652E-10  0.1500E-13  0.3842E-09  0.3737E-09  0.1513E+16
   -1.993737    0.66342  0.2537E-10  0.1062E-09  0.1714E-13  0.2282E-08  0.2288E-10  0.2111E+16
   -2.062487    0.70408  0.2537E-10  0.9989E-10  0.2070E-13  0.1041E-09  0.1907E-11  0.8942E+16
   -2.131236    0.87572  0.2536E-10  0.1134E-09  0.4393E-13  0.1000E-09  0.1430E-12  0.1669E+17
   -2.199985    1.22425  0.2534E-10  0.3487E-09  0.1898E-12  0.1004E-09  0.1001E-13  0.2283E+17
   -2.268734    1.79153  0.2531E-10  0.1868E-08  0.1043E-11  0.2471E-09  0.4784E-15  0.2310E+17
   -2.337482    2.59305  0.2526E-10  0.1081E-07  0.6023E-11  0.2705E-08  0.1874E-16  0.1427E+17
   -2.406230    3.63323  0.2518E-10  0.3687E-07  0.2327E-10  0.9638E-05  0.6266E-18  0.1554E+16
   -2.474977    4.15621  0.2516E-10  0.5657E-07  0.3787E-10  0.3641E-04  0.1420E-19 -0.1253E+14
   -2.543724    4.16138  0.2516E-10  0.6191E-07  0.4599E-10  0.3246E-04  0.3739E-20 -0.1482E+14
   -2.612470    4.16734  0.2516E-10  0.6282E-07  0.6098E-10  0.2202E-04  0.8031E-21 -0.2402E+14
   -2.681215    4.17668  0.2516E-10  0.4986E-07  0.1474E-09  0.4162E-05  0.1019E-21 -0.1788E+15
   -2.749960    4.23271  0.2516E-10  0.0000E+00  0.0000E+00  0.0000E+00  0.1066E-21  0.0000E+00
