 1 - depth, m
 2 - temperature, C
 3 - salinity, kg/kg
 4 - turbulent kinetic energy, m**2/s**2
 5 - dissipation rate, m**2/s**3
 6 - kinematic heat conductance, m**2/s
 7 - modulus of horizontal velocity, m/s
 8 - Richardson number, n/d
   -0.000000   -0.00000  0.1907E-10  0.1219E-13  0.7603E-17  0.1000E-09  0.0000E+00  0.7750E+16
   -0.068746    0.11812  0.1152E-10  0.1219E-13  0.7603E-17  0.1000E-09  0.0000E+00  0.7447E+16
   -0.137492    0.23537  0.8262E-11  0.1219E-13  0.7603E-17  0.1000E-09  0.0000E+00  0.7164E+16
   -0.206239    0.35197  0.7102E-11  0.1219E-13  0.7603E-17  0.1000E-09  0.0000E+00  0.6901E+16
   -0.274987    0.46817  0.6748E-11  0.1219E-13  0.7603E-17  0.1000E-09  0.0000E+00  0.6654E+16
   -0.343735    0.58420  0.6654E-11  0.1219E-13  0.7603E-17  0.1000E-09  0.0000E+00  0.6421E+16
   -0.412483    0.70029  0.6632E-11  0.1219E-13  0.7603E-17  0.1000E-09  0.0000E+00  0.6202E+16
   -0.481232    0.81667  0.6627E-11  0.1219E-13  0.7603E-17  0.1000E-09  0.0000E+00  0.5992E+16
   -0.549982    0.93356  0.6626E-11  0.1219E-13  0.7603E-17  0.1000E-09  0.0000E+00  0.5790E+16
   -0.618732    1.05117  0.6626E-11  0.1219E-13  0.7603E-17  0.1000E-09  0.0000E+00  0.5594E+16
   -0.687482    1.16970  0.6626E-11  0.1219E-13  0.7603E-17  0.1000E-09  0.0000E+00  0.5411E+16
   -0.756233    1.28953  0.6626E-11  0.1219E-13  0.7603E-17  0.1000E-09  0.0000E+00  0.5232E+16
   -0.824984    1.41095  0.6625E-11  0.1219E-13  0.7603E-17  0.1000E-09  0.0000E+00  0.5050E+16
   -0.893735    1.53411  0.6624E-11  0.1219E-13  0.7603E-17  0.1000E-09  0.0000E+00  0.4863E+16
   -0.962487    1.65910  0.6622E-11  0.1219E-13  0.7603E-17  0.1000E-09  0.0000E+00  0.4667E+16
   -1.031239    1.78601  0.6617E-11  0.1219E-13  0.7603E-17  0.1000E-09  0.0000E+00  0.4463E+16
   -1.099990    1.91490  0.6607E-11  0.3352E-13  0.7603E-17  0.1000E-09  0.0000E+00  0.4247E+16
   -1.168742    2.04579  0.6590E-11  0.1030E-12  0.1508E-16  0.1000E-09  0.0000E+00  0.4020E+16
   -1.237495    2.17867  0.6566E-11  0.2681E-12  0.3561E-16  0.1000E-09  0.0000E+00  0.3780E+16
   -1.306247    2.31352  0.6537E-11  0.6585E-12  0.8406E-16  0.1000E-09  0.0000E+00  0.3526E+16
   -1.374999    2.45026  0.6507E-11  0.1581E-11  0.1959E-15  0.1000E-09  0.0000E+00  0.3262E+16
   -1.443751    2.58896  0.6483E-11  0.3742E-11  0.4510E-15  0.1000E-09  0.0000E+00  0.2985E+16
   -1.512503    2.72952  0.6466E-11  0.8758E-11  0.1027E-14  0.1000E-09  0.0000E+00  0.2693E+16
   -1.581256    2.87179  0.6455E-11  0.2027E-10  0.2314E-14  0.1000E-09  0.0000E+00  0.2388E+16
   -1.650008    3.01559  0.6448E-11  0.4643E-10  0.5161E-14  0.1000E-09  0.0000E+00  0.2071E+16
   -1.718760    3.16068  0.6444E-11  0.1052E-09  0.1140E-13  0.1000E-09  0.0000E+00  0.1745E+16
   -1.787511    3.30692  0.6441E-11  0.2419E-09  0.2551E-13  0.1000E-09  0.0000E+00  0.1427E+16
   -1.856263    3.45610  0.6437E-11  0.5601E-09  0.5756E-13  0.2686E-09  0.0000E+00  0.1090E+16
   -1.925014    3.60823  0.6430E-11  0.1294E-08  0.1296E-12  0.8996E-09  0.0000E+00  0.7329E+15
   -1.993765    3.76310  0.6424E-11  0.2972E-08  0.2905E-12  0.4173E-08  0.0000E+00  0.3539E+15
   -2.062516    3.91741  0.6421E-11  0.6347E-08  0.6088E-12  0.9543E-07  0.0000E+00  0.3206E+14
   -2.131266    4.01192  0.6421E-11  0.7334E-08  0.7082E-12  0.3221E-04  0.0000E+00 -0.2803E+12
   -2.200016    4.01261  0.6421E-11  0.7733E-08  0.7597E-12  0.3238E-04  0.0000E+00 -0.2866E+12
   -2.268766    4.01330  0.6421E-11  0.8033E-08  0.8145E-12  0.3163E-04  0.0000E+00 -0.3016E+12
   -2.337515    4.01400  0.6421E-11  0.8248E-08  0.8797E-12  0.2986E-04  0.0000E+00 -0.3290E+12
   -2.406263    4.01475  0.6421E-11  0.8372E-08  0.9649E-12  0.2691E-04  0.0000E+00 -0.3768E+12
   -2.475011    4.01559  0.6421E-11  0.8387E-08  0.1091E-11  0.2256E-04  0.0000E+00 -0.4666E+12
   -2.543759    4.01659  0.6421E-11  0.8239E-08  0.1311E-11  0.1659E-04  0.0000E+00 -0.6661E+12
   -2.612506    4.01796  0.6421E-11  0.7750E-08  0.1843E-11  0.8940E-05  0.0000E+00 -0.1339E+13
   -2.681252    4.02055  0.6421E-11  0.5608E-08  0.5024E-11  0.1214E-05  0.0000E+00 -0.1298E+14
   -2.749998    4.03952  0.6421E-11  0.0000E+00  0.0000E+00  0.0000E+00  0.0000E+00  0.0000E+00
