 1 - depth, m
 2 - temperature, C
 3 - salinity, kg/kg
 4 - turbulent kinetic energy, m**2/s**2
 5 - dissipation rate, m**2/s**3
 6 - kinematic heat conductance, m**2/s
 7 - modulus of horizontal velocity, m/s
 8 - Richardson number, n/d
   -0.000000    8.57392  0.4949E-11  0.5597E-04  0.1020E-04  0.5428E-04  0.6928E-01 -0.8801E-02
   -0.068746    8.61122  0.4949E-11  0.3523E-04  0.2205E-05  0.9153E-04  0.3542E-01 -0.1024E+00
   -0.137492    8.62071  0.4949E-11  0.3039E-04  0.9098E-06  0.1366E-03  0.2843E-01 -0.1646E-01
   -0.206239    8.62686  0.4949E-11  0.2800E-04  0.4951E-06  0.1885E-03  0.2413E-01 -0.2312E-01
   -0.274987    8.63128  0.4949E-11  0.2657E-04  0.3215E-06  0.2453E-03  0.2108E-01 -0.3053E-01
   -0.343735    8.63460  0.4949E-11  0.2558E-04  0.2329E-06  0.3054E-03  0.1879E-01 -0.3858E-01
   -0.412484    8.63721  0.4949E-11  0.2482E-04  0.1808E-06  0.3676E-03  0.1698E-01 -0.4708E-01
   -0.481233    8.63932  0.4949E-11  0.2419E-04  0.1469E-06  0.4311E-03  0.1551E-01 -0.5590E-01
   -0.549983    8.64107  0.4949E-11  0.2365E-04  0.1232E-06  0.4952E-03  0.1427E-01 -0.6494E-01
   -0.618733    8.64256  0.4949E-11  0.2318E-04  0.1059E-06  0.5595E-03  0.1322E-01 -0.7409E-01
   -0.687483    8.64385  0.4950E-11  0.2276E-04  0.9275E-07  0.6237E-03  0.1230E-01 -0.8266E-01
   -0.756234    8.64498  0.4950E-11  0.2239E-04  0.8249E-07  0.6912E-03  0.1149E-01 -0.8292E-01
   -0.824985    8.64598  0.4950E-11  0.2205E-04  0.7432E-07  0.7859E-03  0.1076E-01  0.4395E-01
   -0.893737    8.64685  0.4950E-11  0.2175E-04  0.6774E-07  0.1024E-02  0.1010E-01  0.1577E+03
   -0.962488    8.64756  0.4950E-11  0.2148E-04  0.6238E-07  0.1242E-02  0.9504E-02  0.3642E+02
   -1.031240    8.64814  0.4950E-11  0.2123E-04  0.5792E-07  0.1510E-02  0.8948E-02  0.6215E+02
   -1.099992    8.64862  0.4950E-11  0.2101E-04  0.5416E-07  0.1701E-02  0.8427E-02  0.4217E+02
   -1.168744    8.64903  0.4950E-11  0.2079E-04  0.5094E-07  0.1859E-02  0.7926E-02  0.6548E+02
   -1.237496    8.64940  0.4950E-11  0.2058E-04  0.4815E-07  0.1960E-02  0.7443E-02  0.5618E+02
   -1.306249    8.64973  0.4950E-11  0.2036E-04  0.4571E-07  0.2014E-02  0.6972E-02  0.6619E+02
   -1.375001    8.65005  0.4950E-11  0.2014E-04  0.4355E-07  0.2043E-02  0.6510E-02  0.1242E+03
   -1.443753    8.65036  0.4950E-11  0.1990E-04  0.4162E-07  0.2067E-02  0.6056E-02  0.4993E+03
   -1.512506    8.65066  0.4950E-11  0.1965E-04  0.3989E-07  0.2083E-02  0.5608E-02  0.7756E+04
   -1.581258    8.65095  0.4950E-11  0.1937E-04  0.3832E-07  0.2087E-02  0.5164E-02  0.2461E+06
   -1.650010    8.65123  0.4950E-11  0.1905E-04  0.3686E-07  0.2090E-02  0.4721E-02  0.8347E+03
   -1.718762    8.65151  0.4950E-11  0.1870E-04  0.3549E-07  0.2066E-02  0.4279E-02  0.1410E+03
   -1.787514    8.65179  0.4950E-11  0.1828E-04  0.3414E-07  0.2091E-02  0.3832E-02  0.5899E+02
   -1.856265    8.65206  0.4950E-11  0.1782E-04  0.3285E-07  0.2087E-02  0.3435E-02  0.8757E+01
   -1.925017    8.65233  0.4950E-11  0.1732E-04  0.3164E-07  0.2077E-02  0.3077E-02  0.3444E+01
   -1.993768    8.65260  0.4950E-11  0.1679E-04  0.3057E-07  0.2057E-02  0.2757E-02  0.2040E+01
   -2.062519    8.65287  0.4950E-11  0.1627E-04  0.2973E-07  0.2023E-02  0.2467E-02  0.1567E+01
   -2.131269    8.65314  0.4950E-11  0.1575E-04  0.2915E-07  0.1980E-02  0.2194E-02  0.1232E+01
   -2.200019    8.65341  0.4950E-11  0.1524E-04  0.2889E-07  0.1933E-02  0.1936E-02  0.9625E+00
   -2.268769    8.65369  0.4950E-11  0.1474E-04  0.2900E-07  0.1895E-02  0.1693E-02  0.1245E+01
   -2.337518    8.65397  0.4950E-11  0.1424E-04  0.2961E-07  0.1872E-02  0.1469E-02  0.4885E+00
   -2.406267    8.65426  0.4950E-11  0.1375E-04  0.3090E-07  0.1722E-02  0.1269E-02  0.3835E+00
   -2.475015    8.65456  0.4950E-11  0.1328E-04  0.3316E-07  0.1486E-02  0.1093E-02  0.3608E+02
   -2.543763    8.65492  0.4950E-11  0.1272E-04  0.3772E-07  0.9434E-03  0.9466E-03  0.7345E+02
   -2.612510    8.65548  0.4950E-11  0.1182E-04  0.5021E-07  0.3929E-03  0.7852E-03  0.2083E+04
   -2.681256    8.65672  0.4950E-11  0.7119E-05  0.1788E-06  0.3515E-04  0.6004E-03 -0.1131E+05
   -2.750002    8.67062  0.4950E-11  0.0000E+00  0.0000E+00  0.0000E+00  0.5993E-03  0.0000E+00
