 1 - depth, m
 2 - temperature, C
 3 - salinity, kg/kg
 4 - turbulent kinetic energy, m**2/s**2
 5 - dissipation rate, m**2/s**3
 6 - kinematic heat conductance, m**2/s
 7 - modulus of horizontal velocity, m/s
 8 - Richardson number, n/d
   -0.000000   -0.00000  0.1096E-10  0.1219E-13  0.7603E-17  0.1000E-09  0.0000E+00  0.7730E+16
   -0.068746    0.11782  0.6585E-11  0.1219E-13  0.7603E-17  0.1000E-09  0.0000E+00  0.7427E+16
   -0.137492    0.23475  0.4729E-11  0.1219E-13  0.7603E-17  0.1000E-09  0.0000E+00  0.7146E+16
   -0.206239    0.35103  0.4074E-11  0.1219E-13  0.7603E-17  0.1000E-09  0.0000E+00  0.6885E+16
   -0.274987    0.46692  0.3876E-11  0.1219E-13  0.7603E-17  0.1000E-09  0.0000E+00  0.6641E+16
   -0.343735    0.58267  0.3824E-11  0.1219E-13  0.7603E-17  0.1000E-09  0.0000E+00  0.6412E+16
   -0.412483    0.69853  0.3811E-11  0.1219E-13  0.7603E-17  0.1000E-09  0.0000E+00  0.6197E+16
   -0.481232    0.81475  0.3809E-11  0.1219E-13  0.7603E-17  0.1000E-09  0.0000E+00  0.5992E+16
   -0.549982    0.93156  0.3808E-11  0.1219E-13  0.7603E-17  0.1000E-09  0.0000E+00  0.5795E+16
   -0.618732    1.04918  0.3808E-11  0.1219E-13  0.7603E-17  0.1000E-09  0.0000E+00  0.5604E+16
   -0.687482    1.16783  0.3808E-11  0.1219E-13  0.7603E-17  0.1000E-09  0.0000E+00  0.5426E+16
   -0.756233    1.28791  0.3808E-11  0.1219E-13  0.7603E-17  0.1000E-09  0.0000E+00  0.5252E+16
   -0.824984    1.40974  0.3808E-11  0.1219E-13  0.7603E-17  0.1000E-09  0.0000E+00  0.5075E+16
   -0.893735    1.53345  0.3807E-11  0.1219E-13  0.7603E-17  0.1000E-09  0.0000E+00  0.4892E+16
   -0.962487    1.65918  0.3806E-11  0.1219E-13  0.7603E-17  0.1000E-09  0.0000E+00  0.4700E+16
   -1.031239    1.78702  0.3804E-11  0.1232E-13  0.7603E-17  0.1000E-09  0.0000E+00  0.4499E+16
   -1.099990    1.91704  0.3799E-11  0.4033E-13  0.7677E-17  0.1000E-09  0.0000E+00  0.4285E+16
   -1.168742    2.04927  0.3790E-11  0.1158E-12  0.1514E-16  0.1000E-09  0.0000E+00  0.4058E+16
   -1.237495    2.18372  0.3777E-11  0.2851E-12  0.3428E-16  0.1000E-09  0.0000E+00  0.3817E+16
   -1.306247    2.32036  0.3761E-11  0.6688E-12  0.7799E-16  0.1000E-09  0.0000E+00  0.3561E+16
   -1.374999    2.45915  0.3744E-11  0.1545E-11  0.1763E-15  0.1000E-09  0.0000E+00  0.3293E+16
   -1.443751    2.60013  0.3730E-11  0.3546E-11  0.3964E-15  0.1000E-09  0.0000E+00  0.3010E+16
   -1.512503    2.74325  0.3720E-11  0.8091E-11  0.8864E-15  0.1000E-09  0.0000E+00  0.2712E+16
   -1.581256    2.88841  0.3713E-11  0.1836E-10  0.1970E-14  0.1000E-09  0.0000E+00  0.2399E+16
   -1.650008    3.03549  0.3709E-11  0.4143E-10  0.4353E-14  0.1000E-09  0.0000E+00  0.2072E+16
   -1.718759    3.18430  0.3707E-11  0.9288E-10  0.9551E-14  0.1000E-09  0.0000E+00  0.1730E+16
   -1.787511    3.33444  0.3705E-11  0.2118E-09  0.2131E-13  0.1000E-09  0.0000E+00  0.1384E+16
   -1.856263    3.48648  0.3702E-11  0.4880E-09  0.4804E-13  0.2410E-09  0.0000E+00  0.1016E+16
   -1.925014    3.63848  0.3698E-11  0.1124E-08  0.1083E-12  0.8588E-09  0.0000E+00  0.6403E+15
   -1.993765    3.78733  0.3694E-11  0.2581E-08  0.2433E-12  0.4308E-08  0.0000E+00  0.2853E+15
   -2.062516    3.92948  0.3693E-11  0.5433E-08  0.5048E-12  0.1269E-06  0.0000E+00  0.2134E+14
   -2.131266    4.00929  0.3692E-11  0.6357E-08  0.5952E-12  0.2930E-04  0.0000E+00 -0.2639E+12
   -2.200016    4.01001  0.3692E-11  0.6739E-08  0.6428E-12  0.2963E-04  0.0000E+00 -0.2710E+12
   -2.268766    4.01073  0.3692E-11  0.7030E-08  0.6935E-12  0.2906E-04  0.0000E+00 -0.2868E+12
   -2.337515    4.01147  0.3692E-11  0.7246E-08  0.7537E-12  0.2750E-04  0.0000E+00 -0.3149E+12
   -2.406263    4.01225  0.3692E-11  0.7380E-08  0.8320E-12  0.2481E-04  0.0000E+00 -0.3637E+12
   -2.475011    4.01314  0.3692E-11  0.7416E-08  0.9470E-12  0.2081E-04  0.0000E+00 -0.4549E+12
   -2.543759    4.01420  0.3692E-11  0.7304E-08  0.1147E-11  0.1527E-04  0.0000E+00 -0.6583E+12
   -2.612506    4.01567  0.3692E-11  0.6882E-08  0.1628E-11  0.8179E-05  0.0000E+00 -0.1354E+13
   -2.681252    4.01849  0.3692E-11  0.5009E-08  0.4441E-11  0.1131E-05  0.0000E+00 -0.1337E+14
   -2.749998    4.03869  0.3692E-11  0.0000E+00  0.0000E+00  0.0000E+00  0.0000E+00  0.0000E+00
