 1 - depth, m
 2 - temperature, C
 3 - salinity, kg/kg
 4 - turbulent kinetic energy, m**2/s**2
 5 - dissipation rate, m**2/s**3
 6 - kinematic heat conductance, m**2/s
 7 - modulus of horizontal velocity, m/s
 8 - Richardson number, n/d
   -0.000000   -0.00000  0.2569E-11  0.1219E-13  0.7603E-17  0.1000E-09  0.7852E-75  0.3738E+16
   -0.068746    0.05650  0.1557E-11  0.1219E-13  0.7603E-17  0.1000E-09  0.7366E-75  0.3399E+16
   -0.137492    0.10864  0.1337E-11  0.1219E-13  0.7603E-17  0.1000E-09  0.6532E-75  0.3049E+16
   -0.206239    0.15605  0.1297E-11  0.1219E-13  0.7603E-17  0.1000E-09  0.5589E-75  0.2700E+16
   -0.274987    0.19857  0.1291E-11  0.1219E-13  0.7603E-17  0.1000E-09  0.4689E-75  0.2366E+16
   -0.343735    0.23625  0.1291E-11  0.1219E-13  0.7603E-17  0.1000E-09  0.3895E-75  0.2062E+16
   -0.412483    0.26943  0.1290E-11  0.1219E-13  0.7603E-17  0.1000E-09  0.3218E-75  0.1801E+16
   -0.481233    0.29866  0.1290E-11  0.1219E-13  0.7603E-17  0.1000E-09  0.2648E-75  0.1593E+16
   -0.549982    0.32472  0.1290E-11  0.1219E-13  0.7603E-17  0.1000E-09  0.2168E-75  0.1451E+16
   -0.618732    0.34864  0.1290E-11  0.1219E-13  0.7603E-17  0.1000E-09  0.1765E-75  0.1384E+16
   -0.687483    0.37160  0.1290E-11  0.1219E-13  0.7603E-17  0.1000E-09  0.1428E-75  0.1412E+16
   -0.756233    0.39519  0.1290E-11  0.1219E-13  0.7603E-17  0.1000E-09  0.1147E-75  0.1537E+16
   -0.824984    0.42106  0.1290E-11  0.1219E-13  0.7603E-17  0.1000E-09  0.9155E-76  0.1758E+16
   -0.893736    0.45090  0.1290E-11  0.1219E-13  0.7603E-17  0.1000E-09  0.7257E-76  0.2076E+16
   -0.962487    0.48647  0.1290E-11  0.1219E-13  0.7603E-17  0.1000E-09  0.5714E-76  0.2492E+16
   -1.031239    0.52969  0.1290E-11  0.1219E-13  0.7603E-17  0.1000E-09  0.4469E-76  0.3000E+16
   -1.099991    0.58250  0.1290E-11  0.1219E-13  0.7603E-17  0.1000E-09  0.3471E-76  0.3593E+16
   -1.168743    0.64689  0.1290E-11  0.1219E-13  0.7603E-17  0.1000E-09  0.2677E-76  0.4253E+16
   -1.237495    0.72485  0.1289E-11  0.1219E-13  0.7603E-17  0.1000E-09  0.2047E-76  0.4957E+16
   -1.306247    0.81829  0.1286E-11  0.1219E-13  0.7603E-17  0.1000E-09  0.1550E-76  0.5677E+16
   -1.374999    0.92900  0.1277E-11  0.1219E-13  0.7603E-17  0.1000E-09  0.1159E-76  0.6425E+16
   -1.443752    1.05959  0.1266E-11  0.4228E-13  0.1150E-16  0.1000E-09  0.8496E-77  0.7115E+16
   -1.512504    1.21173  0.1261E-11  0.1451E-12  0.3393E-16  0.1000E-09  0.6039E-77  0.7680E+16
   -1.581256    1.38641  0.1259E-11  0.4621E-12  0.1032E-15  0.1000E-09  0.4050E-77  0.8068E+16
   -1.650008    1.58421  0.1258E-11  0.1431E-11  0.3088E-15  0.1000E-09  0.2386E-77  0.8233E+16
   -1.718760    1.80525  0.1257E-11  0.4354E-11  0.9086E-15  0.1000E-09  0.9205E-78  0.8118E+16
   -1.787512    2.04870  0.1256E-11  0.1341E-10  0.2707E-14  0.1000E-09  0.6237E-79  0.7451E+16
   -1.856263    2.30396  0.1256E-11  0.4126E-10  0.8064E-14  0.1000E-09  0.3892E-80  0.6616E+16
   -1.925015    2.56984  0.1256E-11  0.1258E-09  0.2382E-13  0.1000E-09  0.2218E-81  0.5623E+16
   -1.993766    2.84477  0.1256E-11  0.3805E-09  0.6980E-13  0.1000E-09  0.1377E-82  0.4518E+16
   -2.062516    3.12871  0.1255E-11  0.1113E-08  0.1979E-12  0.3025E-09  0.1111E-83  0.3336E+16
   -2.131267    3.42554  0.1254E-11  0.3202E-08  0.5525E-12  0.1431E-08  0.8387E-85  0.1970E+16
   -2.200017    3.73208  0.1251E-11  0.9022E-08  0.1513E-11  0.1557E-07  0.5886E-86  0.4992E+15
   -2.268766    4.02015  0.1248E-11  0.1144E-07  0.1935E-11  0.2853E-04  0.2134E-87 -0.8580E+12
   -2.337515    4.02173  0.1248E-11  0.1236E-07  0.2160E-11  0.2878E-04  0.6081E-88 -0.9013E+12
   -2.406264    4.02333  0.1248E-11  0.1303E-07  0.2424E-11  0.2740E-04  0.1616E-88 -0.1005E+13
   -2.475012    4.02503  0.1248E-11  0.1346E-07  0.2784E-11  0.2420E-04  0.3792E-89 -0.1216E+13
   -2.543760    4.02699  0.1248E-11  0.1356E-07  0.3377E-11  0.1884E-04  0.7426E-90 -0.1698E+13
   -2.612507    4.02958  0.1248E-11  0.1311E-07  0.4729E-11  0.1102E-04  0.1003E-90 -0.3305E+13
   -2.681253    4.03422  0.1248E-11  0.1027E-07  0.1240E-10  0.1919E-05  0.6452E-92 -0.2886E+14
   -2.749999    4.06368  0.1248E-11  0.0000E+00  0.0000E+00  0.0000E+00  0.6819E-92  0.0000E+00
