 1 - depth, m
 2 - temperature, C
 3 - salinity, kg/kg
 4 - turbulent kinetic energy, m**2/s**2
 5 - dissipation rate, m**2/s**3
 6 - kinematic heat conductance, m**2/s
 7 - modulus of horizontal velocity, m/s
 8 - Richardson number, n/d
   -0.000000   -0.00000  0.2162E-11  0.1219E-13  0.7603E-17  0.1000E-09  0.0000E+00  0.8140E+16
   -0.068746    0.12418  0.1300E-11  0.1219E-13  0.7603E-17  0.1000E-09  0.0000E+00  0.7810E+16
   -0.137492    0.24746  0.9353E-12  0.1219E-13  0.7603E-17  0.1000E-09  0.0000E+00  0.7503E+16
   -0.206239    0.37011  0.8068E-12  0.1219E-13  0.7603E-17  0.1000E-09  0.0000E+00  0.7218E+16
   -0.274987    0.49241  0.7681E-12  0.1219E-13  0.7603E-17  0.1000E-09  0.0000E+00  0.6951E+16
   -0.343735    0.61465  0.7580E-12  0.1219E-13  0.7603E-17  0.1000E-09  0.0000E+00  0.6701E+16
   -0.412483    0.73709  0.7556E-12  0.1219E-13  0.7603E-17  0.1000E-09  0.0000E+00  0.6464E+16
   -0.481232    0.86000  0.7551E-12  0.1219E-13  0.7603E-17  0.1000E-09  0.0000E+00  0.6238E+16
   -0.549982    0.98364  0.7550E-12  0.1219E-13  0.7603E-17  0.1000E-09  0.0000E+00  0.6020E+16
   -0.618732    1.10825  0.7549E-12  0.1219E-13  0.7603E-17  0.1000E-09  0.0000E+00  0.5806E+16
   -0.687482    1.23405  0.7549E-12  0.1219E-13  0.7603E-17  0.1000E-09  0.0000E+00  0.5605E+16
   -0.756233    1.36148  0.7549E-12  0.1219E-13  0.7603E-17  0.1000E-09  0.0000E+00  0.5407E+16
   -0.824984    1.49084  0.7549E-12  0.1219E-13  0.7603E-17  0.1000E-09  0.0000E+00  0.5203E+16
   -0.893735    1.62230  0.7548E-12  0.5675E-13  0.8816E-17  0.1000E-09  0.0000E+00  0.4991E+16
   -0.962487    1.75597  0.7546E-12  0.1572E-12  0.1817E-16  0.1000E-09  0.0000E+00  0.4768E+16
   -1.031238    1.89193  0.7541E-12  0.3727E-12  0.3994E-16  0.1000E-09  0.0000E+00  0.4533E+16
   -1.099990    2.03024  0.7530E-12  0.8410E-12  0.8700E-16  0.1000E-09  0.0000E+00  0.4283E+16
   -1.168742    2.17091  0.7512E-12  0.1860E-11  0.1872E-15  0.1000E-09  0.0000E+00  0.4017E+16
   -1.237495    2.31391  0.7486E-12  0.4064E-11  0.3988E-15  0.1000E-09  0.0000E+00  0.3735E+16
   -1.306247    2.45921  0.7453E-12  0.8793E-11  0.8415E-15  0.1000E-09  0.0000E+00  0.3437E+16
   -1.374999    2.60669  0.7419E-12  0.1885E-10  0.1760E-14  0.1000E-09  0.0000E+00  0.3124E+16
   -1.443751    2.75638  0.7391E-12  0.4005E-10  0.3650E-14  0.1000E-09  0.0000E+00  0.2795E+16
   -1.512503    2.90815  0.7371E-12  0.8436E-10  0.7506E-14  0.1000E-09  0.0000E+00  0.2449E+16
   -1.581256    3.06181  0.7359E-12  0.1762E-09  0.1531E-13  0.1000E-09  0.0000E+00  0.2088E+16
   -1.650008    3.21712  0.7351E-12  0.3650E-09  0.3097E-13  0.1000E-09  0.0000E+00  0.1715E+16
   -1.718759    3.37383  0.7344E-12  0.7498E-09  0.6216E-13  0.2378E-09  0.0000E+00  0.1330E+16
   -1.787511    3.53160  0.7338E-12  0.1562E-08  0.1265E-12  0.6779E-09  0.0000E+00  0.9495E+15
   -1.856263    3.69261  0.7328E-12  0.3283E-08  0.2598E-12  0.2431E-08  0.0000E+00  0.5438E+15
   -1.925014    3.85565  0.7321E-12  0.6831E-08  0.5293E-12  0.2049E-07  0.0000E+00  0.1313E+15
   -1.993765    4.00442  0.7319E-12  0.7607E-08  0.5925E-12  0.3951E-04  0.0000E+00 -0.1790E+12
   -2.062516    4.00504  0.7319E-12  0.7941E-08  0.6261E-12  0.4020E-04  0.0000E+00 -0.1824E+12
   -2.131266    4.00565  0.7319E-12  0.8214E-08  0.6617E-12  0.4006E-04  0.0000E+00 -0.1891E+12
   -2.200016    4.00627  0.7319E-12  0.8429E-08  0.7010E-12  0.3913E-04  0.0000E+00 -0.2000E+12
   -2.268765    4.00690  0.7319E-12  0.8587E-08  0.7465E-12  0.3735E-04  0.0000E+00 -0.2165E+12
   -2.337515    4.00756  0.7319E-12  0.8688E-08  0.8042E-12  0.3453E-04  0.0000E+00 -0.2423E+12
   -2.406263    4.00827  0.7319E-12  0.8723E-08  0.8833E-12  0.3052E-04  0.0000E+00 -0.2846E+12
   -2.475011    4.00909  0.7319E-12  0.8669E-08  0.1004E-11  0.2508E-04  0.0000E+00 -0.3617E+12
   -2.543759    4.01008  0.7319E-12  0.8469E-08  0.1220E-11  0.1804E-04  0.0000E+00 -0.5315E+12
   -2.612506    4.01146  0.7319E-12  0.7941E-08  0.1750E-11  0.9450E-05  0.0000E+00 -0.1109E+13
   -2.681252    4.01414  0.7319E-12  0.5702E-08  0.5013E-11  0.1216E-05  0.0000E+00 -0.1183E+14
   -2.749998    4.03411  0.7319E-12  0.0000E+00  0.0000E+00  0.0000E+00  0.0000E+00  0.0000E+00
