 1 - depth, m
 2 - temperature, C
 3 - salinity, kg/kg
 4 - turbulent kinetic energy, m**2/s**2
 5 - dissipation rate, m**2/s**3
 6 - kinematic heat conductance, m**2/s
 7 - modulus of horizontal velocity, m/s
 8 - Richardson number, n/d
   -0.000000   -0.00000  0.1810E-10  0.1219E-13  0.7603E-17  0.1000E-09  0.0000E+00  0.6788E+16
   -0.068746    0.10326  0.1076E-10  0.1219E-13  0.7603E-17  0.1000E-09  0.0000E+00  0.6529E+16
   -0.137492    0.20542  0.7827E-11  0.1219E-13  0.7603E-17  0.1000E-09  0.0000E+00  0.6303E+16
   -0.206239    0.30691  0.6924E-11  0.1219E-13  0.7603E-17  0.1000E-09  0.0000E+00  0.6106E+16
   -0.274987    0.40814  0.6691E-11  0.1219E-13  0.7603E-17  0.1000E-09  0.0000E+00  0.5934E+16
   -0.343735    0.50952  0.6639E-11  0.1219E-13  0.7603E-17  0.1000E-09  0.0000E+00  0.5783E+16
   -0.412483    0.61144  0.6628E-11  0.1219E-13  0.7603E-17  0.1000E-09  0.0000E+00  0.5651E+16
   -0.481232    0.71426  0.6626E-11  0.1219E-13  0.7603E-17  0.1000E-09  0.0000E+00  0.5532E+16
   -0.549982    0.81834  0.6626E-11  0.1219E-13  0.7603E-17  0.1000E-09  0.0000E+00  0.5424E+16
   -0.618732    0.92401  0.6626E-11  0.1219E-13  0.7603E-17  0.1000E-09  0.0000E+00  0.5323E+16
   -0.687482    1.03157  0.6626E-11  0.1219E-13  0.7603E-17  0.1000E-09  0.0000E+00  0.5237E+16
   -0.756233    1.14158  0.6626E-11  0.1219E-13  0.7603E-17  0.1000E-09  0.0000E+00  0.5157E+16
   -0.824984    1.25443  0.6626E-11  0.1219E-13  0.7603E-17  0.1000E-09  0.0000E+00  0.5070E+16
   -0.893735    1.37036  0.6625E-11  0.1219E-13  0.7603E-17  0.1000E-09  0.0000E+00  0.4975E+16
   -0.962486    1.48958  0.6624E-11  0.1219E-13  0.7603E-17  0.1000E-09  0.0000E+00  0.4867E+16
   -1.031238    1.61223  0.6621E-11  0.1219E-13  0.7603E-17  0.1000E-09  0.0000E+00  0.4743E+16
   -1.099990    1.73846  0.6614E-11  0.1973E-13  0.7603E-17  0.1000E-09  0.0000E+00  0.4600E+16
   -1.168742    1.86835  0.6600E-11  0.7541E-13  0.1289E-16  0.1000E-09  0.0000E+00  0.4436E+16
   -1.237494    2.00193  0.6577E-11  0.2127E-12  0.3122E-16  0.1000E-09  0.0000E+00  0.4249E+16
   -1.306246    2.13922  0.6546E-11  0.5475E-12  0.7660E-16  0.1000E-09  0.0000E+00  0.4036E+16
   -1.374999    2.28017  0.6513E-11  0.1367E-11  0.1852E-15  0.1000E-09  0.0000E+00  0.3802E+16
   -1.443751    2.42490  0.6485E-11  0.3358E-11  0.4421E-15  0.1000E-09  0.0000E+00  0.3542E+16
   -1.512503    2.57335  0.6467E-11  0.8145E-11  0.1042E-14  0.1000E-09  0.0000E+00  0.3252E+16
   -1.581255    2.72534  0.6455E-11  0.1953E-10  0.2430E-14  0.1000E-09  0.0000E+00  0.2933E+16
   -1.650007    2.88061  0.6448E-11  0.4628E-10  0.5603E-14  0.1000E-09  0.0000E+00  0.2587E+16
   -1.718759    3.03889  0.6444E-11  0.1085E-09  0.1278E-13  0.1000E-09  0.0000E+00  0.2217E+16
   -1.787511    3.19991  0.6442E-11  0.2578E-09  0.2955E-13  0.1000E-09  0.0000E+00  0.1846E+16
   -1.856262    3.36551  0.6439E-11  0.6166E-09  0.6882E-13  0.2430E-09  0.0000E+00  0.1441E+16
   -1.925013    3.53577  0.6434E-11  0.1470E-08  0.1598E-12  0.8128E-09  0.0000E+00  0.1000E+16
   -1.993764    3.71057  0.6426E-11  0.3484E-08  0.3691E-12  0.3614E-08  0.0000E+00  0.5195E+15
   -2.062515    3.88673  0.6421E-11  0.7799E-08  0.8088E-12  0.5762E-07  0.0000E+00  0.7103E+14
   -2.131265    4.01559  0.6420E-11  0.8948E-08  0.9338E-12  0.3612E-04  0.0000E+00 -0.3266E+12
   -2.200015    4.01629  0.6420E-11  0.9406E-08  0.9981E-12  0.3624E-04  0.0000E+00 -0.3336E+12
   -2.268765    4.01699  0.6420E-11  0.9750E-08  0.1067E-11  0.3538E-04  0.0000E+00 -0.3507E+12
   -2.337514    4.01771  0.6420E-11  0.9995E-08  0.1150E-11  0.3339E-04  0.0000E+00 -0.3818E+12
   -2.406263    4.01848  0.6420E-11  0.1014E-07  0.1258E-11  0.3011E-04  0.0000E+00 -0.4362E+12
   -2.475011    4.01934  0.6420E-11  0.1015E-07  0.1419E-11  0.2530E-04  0.0000E+00 -0.5380E+12
   -2.543758    4.02036  0.6420E-11  0.9976E-08  0.1701E-11  0.1870E-04  0.0000E+00 -0.7626E+12
   -2.612505    4.02176  0.6420E-11  0.9410E-08  0.2377E-11  0.1021E-04  0.0000E+00 -0.1510E+13
   -2.681251    4.02438  0.6420E-11  0.6909E-08  0.6457E-11  0.1433E-05  0.0000E+00 -0.1412E+14
   -2.749997    4.04334  0.6420E-11  0.0000E+00  0.0000E+00  0.0000E+00  0.0000E+00  0.0000E+00
