 1 - depth, m
 2 - temperature, C
 3 - salinity, kg/kg
 4 - turbulent kinetic energy, m**2/s**2
 5 - dissipation rate, m**2/s**3
 6 - kinematic heat conductance, m**2/s
 7 - modulus of horizontal velocity, m/s
 8 - Richardson number, n/d
   -0.000000   -0.00000  0.7522E-10  0.1219E-13  0.7603E-17  0.1000E-09  0.0000E+00  0.7240E+16
   -0.068746    0.11023  0.4482E-10  0.1219E-13  0.7603E-17  0.1000E-09  0.0000E+00  0.6968E+16
   -0.137492    0.21959  0.3222E-10  0.1219E-13  0.7603E-17  0.1000E-09  0.0000E+00  0.6715E+16
   -0.206239    0.32826  0.2783E-10  0.1219E-13  0.7603E-17  0.1000E-09  0.0000E+00  0.6479E+16
   -0.274987    0.43647  0.2652E-10  0.1219E-13  0.7603E-17  0.1000E-09  0.0000E+00  0.6258E+16
   -0.343735    0.54441  0.2617E-10  0.1219E-13  0.7603E-17  0.1000E-09  0.0000E+00  0.6050E+16
   -0.412483    0.65228  0.2609E-10  0.1219E-13  0.7603E-17  0.1000E-09  0.0000E+00  0.5853E+16
   -0.481232    0.76028  0.2608E-10  0.1219E-13  0.7603E-17  0.1000E-09  0.0000E+00  0.5666E+16
   -0.549982    0.86858  0.2607E-10  0.1219E-13  0.7603E-17  0.1000E-09  0.0000E+00  0.5486E+16
   -0.618732    0.97737  0.2607E-10  0.1219E-13  0.7603E-17  0.1000E-09  0.0000E+00  0.5313E+16
   -0.687482    1.08681  0.2607E-10  0.1219E-13  0.7603E-17  0.1000E-09  0.0000E+00  0.5152E+16
   -0.756233    1.19723  0.2607E-10  0.1219E-13  0.7603E-17  0.1000E-09  0.0000E+00  0.4997E+16
   -0.824984    1.30888  0.2607E-10  0.1219E-13  0.7603E-17  0.1000E-09  0.0000E+00  0.4840E+16
   -0.893735    1.42187  0.2607E-10  0.1219E-13  0.7603E-17  0.1000E-09  0.0000E+00  0.4679E+16
   -0.962487    1.53627  0.2606E-10  0.1219E-13  0.7603E-17  0.1000E-09  0.0000E+00  0.4512E+16
   -1.031238    1.65213  0.2605E-10  0.1219E-13  0.7603E-17  0.1000E-09  0.0000E+00  0.4339E+16
   -1.099990    1.76947  0.2602E-10  0.1219E-13  0.7603E-17  0.1000E-09  0.0000E+00  0.4157E+16
   -1.168742    1.88829  0.2596E-10  0.1219E-13  0.7603E-17  0.1000E-09  0.0000E+00  0.3967E+16
   -1.237494    2.00854  0.2588E-10  0.1219E-13  0.7603E-17  0.1000E-09  0.0000E+00  0.3766E+16
   -1.306247    2.13017  0.2577E-10  0.1219E-13  0.7603E-17  0.1000E-09  0.0000E+00  0.3556E+16
   -1.374999    2.25307  0.2565E-10  0.1219E-13  0.7603E-17  0.1000E-09  0.0000E+00  0.3339E+16
   -1.443751    2.37726  0.2555E-10  0.1219E-13  0.7603E-17  0.1000E-09  0.0000E+00  0.3113E+16
   -1.512503    2.50262  0.2548E-10  0.3986E-13  0.9186E-17  0.1000E-09  0.0000E+00  0.2876E+16
   -1.581255    2.62897  0.2543E-10  0.1257E-12  0.2332E-16  0.1000E-09  0.0000E+00  0.2630E+16
   -1.650008    2.75610  0.2540E-10  0.3589E-12  0.6297E-16  0.1000E-09  0.0000E+00  0.2377E+16
   -1.718759    2.88378  0.2539E-10  0.9901E-12  0.1678E-15  0.1000E-09  0.0000E+00  0.2117E+16
   -1.787511    3.01180  0.2537E-10  0.2756E-11  0.4524E-15  0.1000E-09  0.0000E+00  0.1869E+16
   -1.856263    3.14105  0.2536E-10  0.7678E-11  0.1222E-14  0.1000E-09  0.0000E+00  0.1614E+16
   -1.925014    3.27147  0.2535E-10  0.2124E-10  0.3279E-14  0.1000E-09  0.0000E+00  0.1352E+16
   -1.993765    3.40305  0.2532E-10  0.5832E-10  0.8738E-14  0.1000E-09  0.0000E+00  0.1081E+16
   -2.062516    3.53540  0.2529E-10  0.1552E-09  0.2259E-13  0.1436E-09  0.0000E+00  0.7997E+15
   -2.131266    3.66720  0.2526E-10  0.4072E-09  0.5756E-13  0.5613E-09  0.0000E+00  0.5211E+15
   -2.200016    3.79770  0.2524E-10  0.1055E-08  0.1450E-12  0.2948E-08  0.0000E+00  0.2496E+15
   -2.268765    3.92484  0.2524E-10  0.2636E-08  0.3537E-12  0.7004E-07  0.0000E+00  0.2493E+14
   -2.337515    4.01076  0.2524E-10  0.3870E-08  0.5256E-12  0.1260E-04  0.0000E+00 -0.5633E+12
   -2.406263    4.01219  0.2524E-10  0.4342E-08  0.6197E-12  0.1254E-04  0.0000E+00 -0.6056E+12
   -2.475011    4.01364  0.2524E-10  0.4648E-08  0.7335E-12  0.1135E-04  0.0000E+00 -0.7198E+12
   -2.543759    4.01527  0.2524E-10  0.4777E-08  0.9088E-12  0.8900E-05  0.0000E+00 -0.1005E+13
   -2.612506    4.01741  0.2524E-10  0.4629E-08  0.1301E-11  0.5089E-05  0.0000E+00 -0.2029E+13
   -2.681252    4.02133  0.2524E-10  0.3594E-08  0.3281E-11  0.9188E-06  0.0000E+00 -0.1709E+14
   -2.749998    4.04470  0.2524E-10  0.0000E+00  0.0000E+00  0.0000E+00  0.0000E+00  0.0000E+00
