 1 - depth, m
 2 - temperature, C
 3 - salinity, kg/kg
 4 - turbulent kinetic energy, m**2/s**2
 5 - dissipation rate, m**2/s**3
 6 - kinematic heat conductance, m**2/s
 7 - modulus of horizontal velocity, m/s
 8 - Richardson number, n/d
   -0.000000   -0.00000  0.1141E-09  0.1219E-13  0.7603E-17  0.1000E-09  0.0000E+00  0.5263E+16
   -0.068746    0.07981  0.6401E-10  0.1219E-13  0.7603E-17  0.1000E-09  0.0000E+00  0.5076E+16
   -0.137492    0.15846  0.4851E-10  0.1219E-13  0.7603E-17  0.1000E-09  0.0000E+00  0.4921E+16
   -0.206239    0.23639  0.4465E-10  0.1219E-13  0.7603E-17  0.1000E-09  0.0000E+00  0.4796E+16
   -0.274986    0.31404  0.4381E-10  0.1219E-13  0.7603E-17  0.1000E-09  0.0000E+00  0.4698E+16
   -0.343735    0.39182  0.4365E-10  0.1219E-13  0.7603E-17  0.1000E-09  0.0000E+00  0.4624E+16
   -0.412483    0.47017  0.4362E-10  0.1219E-13  0.7603E-17  0.1000E-09  0.0000E+00  0.4572E+16
   -0.481232    0.54949  0.4361E-10  0.1219E-13  0.7603E-17  0.1000E-09  0.0000E+00  0.4538E+16
   -0.549982    0.63020  0.4361E-10  0.1219E-13  0.7603E-17  0.1000E-09  0.0000E+00  0.4520E+16
   -0.618732    0.71269  0.4361E-10  0.1219E-13  0.7603E-17  0.1000E-09  0.0000E+00  0.4515E+16
   -0.687482    0.79731  0.4361E-10  0.1219E-13  0.7603E-17  0.1000E-09  0.0000E+00  0.4532E+16
   -0.756233    0.88471  0.4361E-10  0.1219E-13  0.7603E-17  0.1000E-09  0.0000E+00  0.4560E+16
   -0.824984    0.97535  0.4361E-10  0.1219E-13  0.7603E-17  0.1000E-09  0.0000E+00  0.4588E+16
   -0.893735    1.06953  0.4361E-10  0.1219E-13  0.7603E-17  0.1000E-09  0.0000E+00  0.4610E+16
   -0.962486    1.16750  0.4361E-10  0.1219E-13  0.7603E-17  0.1000E-09  0.0000E+00  0.4623E+16
   -1.031238    1.26946  0.4361E-10  0.1219E-13  0.7603E-17  0.1000E-09  0.0000E+00  0.4623E+16
   -1.099990    1.37558  0.4360E-10  0.1219E-13  0.7603E-17  0.1000E-09  0.0000E+00  0.4605E+16
   -1.168742    1.48596  0.4358E-10  0.1219E-13  0.7603E-17  0.1000E-09  0.0000E+00  0.4566E+16
   -1.237494    1.60067  0.4354E-10  0.1219E-13  0.7603E-17  0.1000E-09  0.0000E+00  0.4503E+16
   -1.306246    1.71971  0.4344E-10  0.1219E-13  0.7603E-17  0.1000E-09  0.0000E+00  0.4412E+16
   -1.374998    1.84300  0.4329E-10  0.1219E-13  0.7603E-17  0.1000E-09  0.0000E+00  0.4302E+16
   -1.443751    1.97073  0.4309E-10  0.1219E-13  0.7603E-17  0.1000E-09  0.0000E+00  0.4161E+16
   -1.512503    2.10279  0.4292E-10  0.1219E-13  0.7603E-17  0.1000E-09  0.0000E+00  0.3986E+16
   -1.581255    2.23893  0.4280E-10  0.1219E-13  0.7603E-17  0.1000E-09  0.0000E+00  0.3776E+16
   -1.650007    2.37884  0.4274E-10  0.1983E-13  0.7603E-17  0.1000E-09  0.0000E+00  0.3533E+16
   -1.718759    2.52212  0.4271E-10  0.7559E-13  0.1973E-16  0.1000E-09  0.0000E+00  0.3258E+16
   -1.787510    2.66836  0.4269E-10  0.2638E-12  0.6407E-16  0.1000E-09  0.0000E+00  0.2960E+16
   -1.856262    2.81734  0.4268E-10  0.8931E-12  0.2085E-15  0.1000E-09  0.0000E+00  0.2640E+16
   -1.925013    2.96882  0.4266E-10  0.2973E-11  0.6700E-15  0.1000E-09  0.0000E+00  0.2299E+16
   -1.993764    3.12256  0.4263E-10  0.9775E-11  0.2128E-14  0.1000E-09  0.0000E+00  0.1939E+16
   -2.062515    3.27806  0.4258E-10  0.3097E-10  0.6517E-14  0.1000E-09  0.0000E+00  0.1560E+16
   -2.131265    3.43461  0.4249E-10  0.9639E-10  0.1961E-13  0.1000E-09  0.0000E+00  0.1173E+16
   -2.200015    3.59172  0.4235E-10  0.2958E-09  0.5821E-13  0.3786E-09  0.0000E+00  0.7808E+15
   -2.268765    3.74856  0.4224E-10  0.9026E-09  0.1720E-12  0.2235E-08  0.0000E+00  0.3900E+15
   -2.337514    3.90343  0.4220E-10  0.2692E-08  0.4985E-12  0.5324E-07  0.0000E+00  0.4615E+14
   -2.406262    4.01763  0.4220E-10  0.4569E-08  0.8575E-12  0.1054E-04  0.0000E+00 -0.1067E+13
   -2.475010    4.01974  0.4220E-10  0.5238E-08  0.1062E-11  0.1024E-04  0.0000E+00 -0.1203E+13
   -2.543758    4.02196  0.4220E-10  0.5618E-08  0.1348E-11  0.8499E-05  0.0000E+00 -0.1619E+13
   -2.612505    4.02475  0.4220E-10  0.5639E-08  0.1954E-11  0.5205E-05  0.0000E+00 -0.3152E+13
   -2.681251    4.02967  0.4220E-10  0.4722E-08  0.4871E-11  0.1154E-05  0.0000E+00 -0.2349E+14
   -2.749997    4.05618  0.4220E-10  0.0000E+00  0.0000E+00  0.0000E+00  0.0000E+00  0.0000E+00
