 1 - depth, m
 2 - temperature, C
 3 - salinity, kg/kg
 4 - turbulent kinetic energy, m**2/s**2
 5 - dissipation rate, m**2/s**3
 6 - kinematic heat conductance, m**2/s
 7 - modulus of horizontal velocity, m/s
 8 - Richardson number, n/d
   -0.000000   -0.00000  0.8597E-10  0.1219E-13  0.7603E-17  0.1000E-09  0.0000E+00  0.7638E+16
   -0.068746    0.11639  0.6754E-10  0.1219E-13  0.7603E-17  0.1000E-09  0.0000E+00  0.7382E+16
   -0.137492    0.23255  0.5137E-10  0.1219E-13  0.7603E-17  0.1000E-09  0.0000E+00  0.7123E+16
   -0.206239    0.34837  0.4177E-10  0.1219E-13  0.7603E-17  0.1000E-09  0.0000E+00  0.6863E+16
   -0.274987    0.46380  0.3701E-10  0.1219E-13  0.7603E-17  0.1000E-09  0.0000E+00  0.6604E+16
   -0.343735    0.57880  0.3494E-10  0.1219E-13  0.7603E-17  0.1000E-09  0.0000E+00  0.6347E+16
   -0.412484    0.69331  0.3413E-10  0.1219E-13  0.7603E-17  0.1000E-09  0.0000E+00  0.6091E+16
   -0.481233    0.80732  0.3385E-10  0.1219E-13  0.7603E-17  0.1000E-09  0.0000E+00  0.5838E+16
   -0.549983    0.92078  0.3376E-10  0.1219E-13  0.7603E-17  0.1000E-09  0.0000E+00  0.5588E+16
   -0.618733    1.03367  0.3374E-10  0.1219E-13  0.7603E-17  0.1000E-09  0.0000E+00  0.5340E+16
   -0.687483    1.14597  0.3373E-10  0.1219E-13  0.7603E-17  0.1000E-09  0.0000E+00  0.5100E+16
   -0.756234    1.25774  0.3372E-10  0.1219E-13  0.7603E-17  0.1000E-09  0.0000E+00  0.4865E+16
   -0.824985    1.36903  0.3371E-10  0.1219E-13  0.7603E-17  0.1000E-09  0.0000E+00  0.4633E+16
   -0.893736    1.47980  0.3368E-10  0.1219E-13  0.7603E-17  0.1000E-09  0.0000E+00  0.4403E+16
   -0.962488    1.59003  0.3364E-10  0.1219E-13  0.7603E-17  0.1000E-09  0.0000E+00  0.4176E+16
   -1.031239    1.69968  0.3358E-10  0.1219E-13  0.7603E-17  0.1000E-09  0.0000E+00  0.3952E+16
   -1.099991    1.80871  0.3350E-10  0.1219E-13  0.7603E-17  0.1000E-09  0.0000E+00  0.3730E+16
   -1.168744    1.91709  0.3339E-10  0.1219E-13  0.7603E-17  0.1000E-09  0.0000E+00  0.3512E+16
   -1.237496    2.02478  0.3327E-10  0.1219E-13  0.7603E-17  0.1000E-09  0.0000E+00  0.3296E+16
   -1.306248    2.13173  0.3315E-10  0.1219E-13  0.7603E-17  0.1000E-09  0.0000E+00  0.3084E+16
   -1.375000    2.23790  0.3303E-10  0.1219E-13  0.7603E-17  0.1000E-09  0.0000E+00  0.2877E+16
   -1.443753    2.34330  0.3293E-10  0.1219E-13  0.7603E-17  0.1000E-09  0.0000E+00  0.2674E+16
   -1.512505    2.44790  0.3286E-10  0.1219E-13  0.7603E-17  0.1000E-09  0.0000E+00  0.2474E+16
   -1.581257    2.55166  0.3281E-10  0.1219E-13  0.7603E-17  0.1000E-09  0.0000E+00  0.2278E+16
   -1.650009    2.65450  0.3277E-10  0.1219E-13  0.7603E-17  0.1000E-09  0.0000E+00  0.2086E+16
   -1.718761    2.75638  0.3275E-10  0.1219E-13  0.7603E-17  0.1000E-09  0.0000E+00  0.1899E+16
   -1.787513    2.85727  0.3273E-10  0.1219E-13  0.7603E-17  0.1000E-09  0.0000E+00  0.1728E+16
   -1.856264    2.95779  0.3271E-10  0.1219E-13  0.7603E-17  0.1000E-09  0.0000E+00  0.1559E+16
   -1.925016    3.05792  0.3270E-10  0.1219E-13  0.7603E-17  0.1000E-09  0.0000E+00  0.1392E+16
   -1.993767    3.15763  0.3268E-10  0.1219E-13  0.7603E-17  0.1000E-09  0.0000E+00  0.1225E+16
   -2.062518    3.25675  0.3266E-10  0.1219E-13  0.7603E-17  0.1000E-09  0.0000E+00  0.1061E+16
   -2.131268    3.35520  0.3264E-10  0.1932E-13  0.1020E-16  0.1000E-09  0.0000E+00  0.8999E+15
   -2.200018    3.45296  0.3262E-10  0.9374E-13  0.4618E-16  0.1000E-09  0.0000E+00  0.7424E+15
   -2.268768    3.54996  0.3261E-10  0.4821E-12  0.2280E-15  0.1000E-09  0.0000E+00  0.5904E+15
   -2.337517    3.64649  0.3261E-10  0.2476E-11  0.1127E-14  0.1000E-09  0.0000E+00  0.4418E+15
   -2.406266    3.74272  0.3260E-10  0.1259E-10  0.5532E-14  0.1000E-09  0.0000E+00  0.2954E+15
   -2.475014    3.83888  0.3260E-10  0.6382E-10  0.2714E-13  0.8746E-09  0.0000E+00  0.1497E+15
   -2.543761    3.93483  0.3260E-10  0.3196E-09  0.1329E-12  0.3091E-07  0.0000E+00  0.1437E+14
   -2.612508    4.01488  0.3260E-10  0.1339E-08  0.6135E-12  0.1131E-05  0.0000E+00 -0.6076E+13
   -2.681255    4.02621  0.3260E-10  0.1549E-08  0.1472E-11  0.4856E-06  0.0000E+00 -0.2267E+14
   -2.750001    4.05330  0.3260E-10  0.0000E+00  0.0000E+00  0.0000E+00  0.0000E+00  0.0000E+00
