 1 - depth, m
 2 - temperature, C
 3 - salinity, kg/kg
 4 - turbulent kinetic energy, m**2/s**2
 5 - dissipation rate, m**2/s**3
 6 - kinematic heat conductance, m**2/s
 7 - modulus of horizontal velocity, m/s
 8 - Richardson number, n/d
   -0.000000   -0.00000  0.5353E-10  0.1219E-13  0.7603E-17  0.1000E-09  0.0000E+00  0.6617E+16
   -0.068746    0.10062  0.3201E-10  0.1219E-13  0.7603E-17  0.1000E-09  0.0000E+00  0.6370E+16
   -0.137492    0.20017  0.2331E-10  0.1219E-13  0.7603E-17  0.1000E-09  0.0000E+00  0.6154E+16
   -0.206239    0.29908  0.2067E-10  0.1219E-13  0.7603E-17  0.1000E-09  0.0000E+00  0.5966E+16
   -0.274987    0.39773  0.1999E-10  0.1219E-13  0.7603E-17  0.1000E-09  0.0000E+00  0.5801E+16
   -0.343735    0.49650  0.1984E-10  0.1219E-13  0.7603E-17  0.1000E-09  0.0000E+00  0.5657E+16
   -0.412483    0.59575  0.1981E-10  0.1219E-13  0.7603E-17  0.1000E-09  0.0000E+00  0.5528E+16
   -0.481232    0.69580  0.1981E-10  0.1219E-13  0.7603E-17  0.1000E-09  0.0000E+00  0.5413E+16
   -0.549982    0.79698  0.1980E-10  0.1219E-13  0.7603E-17  0.1000E-09  0.0000E+00  0.5307E+16
   -0.618732    0.89959  0.1980E-10  0.1219E-13  0.7603E-17  0.1000E-09  0.0000E+00  0.5209E+16
   -0.687482    1.00390  0.1980E-10  0.1219E-13  0.7603E-17  0.1000E-09  0.0000E+00  0.5125E+16
   -0.756233    1.11042  0.1980E-10  0.1219E-13  0.7603E-17  0.1000E-09  0.0000E+00  0.5048E+16
   -0.824984    1.21954  0.1980E-10  0.1219E-13  0.7603E-17  0.1000E-09  0.0000E+00  0.4965E+16
   -0.893735    1.33144  0.1980E-10  0.1219E-13  0.7603E-17  0.1000E-09  0.0000E+00  0.4874E+16
   -0.962486    1.44631  0.1980E-10  0.1219E-13  0.7603E-17  0.1000E-09  0.0000E+00  0.4772E+16
   -1.031238    1.56427  0.1980E-10  0.1219E-13  0.7603E-17  0.1000E-09  0.0000E+00  0.4655E+16
   -1.099990    1.68541  0.1978E-10  0.1219E-13  0.7603E-17  0.1000E-09  0.0000E+00  0.4522E+16
   -1.168742    1.80980  0.1975E-10  0.1219E-13  0.7603E-17  0.1000E-09  0.0000E+00  0.4370E+16
   -1.237494    1.93744  0.1969E-10  0.3578E-13  0.7603E-17  0.1000E-09  0.0000E+00  0.4197E+16
   -1.306246    2.06830  0.1961E-10  0.1076E-12  0.1664E-16  0.1000E-09  0.0000E+00  0.4003E+16
   -1.374999    2.20231  0.1951E-10  0.2847E-12  0.4088E-16  0.1000E-09  0.0000E+00  0.3791E+16
   -1.443751    2.33956  0.1942E-10  0.7205E-12  0.9976E-16  0.1000E-09  0.0000E+00  0.3556E+16
   -1.512503    2.47995  0.1936E-10  0.1787E-11  0.2402E-15  0.1000E-09  0.0000E+00  0.3296E+16
   -1.581255    2.62327  0.1932E-10  0.4373E-11  0.5710E-15  0.1000E-09  0.0000E+00  0.3012E+16
   -1.650007    2.76926  0.1930E-10  0.1057E-10  0.1342E-14  0.1000E-09  0.0000E+00  0.2705E+16
   -1.718759    2.91762  0.1929E-10  0.2525E-10  0.3117E-14  0.1000E-09  0.0000E+00  0.2379E+16
   -1.787511    3.06806  0.1928E-10  0.6114E-10  0.7340E-14  0.1000E-09  0.0000E+00  0.2055E+16
   -1.856262    3.22192  0.1927E-10  0.1489E-09  0.1740E-13  0.1000E-09  0.0000E+00  0.1709E+16
   -1.925013    3.37927  0.1926E-10  0.3615E-09  0.4110E-13  0.1562E-09  0.0000E+00  0.1339E+16
   -1.993764    3.54024  0.1923E-10  0.8736E-09  0.9670E-13  0.5235E-09  0.0000E+00  0.9397E+15
   -2.062515    3.70399  0.1920E-10  0.2052E-08  0.2214E-12  0.2195E-08  0.0000E+00  0.5127E+15
   -2.131265    3.86606  0.1917E-10  0.4701E-08  0.4950E-12  0.2282E-07  0.0000E+00  0.1099E+15
   -2.200015    4.00729  0.1917E-10  0.5762E-08  0.6114E-12  0.2285E-04  0.0000E+00 -0.3376E+12
   -2.268765    4.00830  0.1917E-10  0.6181E-08  0.6724E-12  0.2315E-04  0.0000E+00 -0.3502E+12
   -2.337514    4.00929  0.1917E-10  0.6499E-08  0.7412E-12  0.2246E-04  0.0000E+00 -0.3795E+12
   -2.406262    4.01032  0.1917E-10  0.6719E-08  0.8274E-12  0.2068E-04  0.0000E+00 -0.4348E+12
   -2.475011    4.01145  0.1917E-10  0.6830E-08  0.9508E-12  0.1765E-04  0.0000E+00 -0.5421E+12
   -2.543758    4.01279  0.1917E-10  0.6788E-08  0.1162E-11  0.1317E-04  0.0000E+00 -0.7870E+12
   -2.612505    4.01462  0.1917E-10  0.6446E-08  0.1666E-11  0.7208E-05  0.0000E+00 -0.1642E+13
   -2.681251    4.01811  0.1917E-10  0.4855E-08  0.4472E-11  0.1141E-05  0.0000E+00 -0.1600E+14
   -2.749997    4.04158  0.1917E-10  0.0000E+00  0.0000E+00  0.0000E+00  0.0000E+00  0.0000E+00
