 1 - depth, m
 2 - temperature, C
 3 - salinity, kg/kg
 4 - turbulent kinetic energy, m**2/s**2
 5 - dissipation rate, m**2/s**3
 6 - kinematic heat conductance, m**2/s
 7 - modulus of horizontal velocity, m/s
 8 - Richardson number, n/d
   -0.000000   -0.00000  0.4584E-11  0.1219E-13  0.7603E-17  0.1000E-09  0.0000E+00  0.6074E+16
   -0.068746    0.09226  0.2522E-11  0.1219E-13  0.7603E-17  0.1000E-09  0.0000E+00  0.5841E+16
   -0.137492    0.18323  0.1887E-11  0.1219E-13  0.7603E-17  0.1000E-09  0.0000E+00  0.5649E+16
   -0.206239    0.27348  0.1724E-11  0.1219E-13  0.7603E-17  0.1000E-09  0.0000E+00  0.5495E+16
   -0.274986    0.36356  0.1687E-11  0.1219E-13  0.7603E-17  0.1000E-09  0.0000E+00  0.5374E+16
   -0.343735    0.45403  0.1680E-11  0.1219E-13  0.7603E-17  0.1000E-09  0.0000E+00  0.5282E+16
   -0.412483    0.54540  0.1679E-11  0.1219E-13  0.7603E-17  0.1000E-09  0.0000E+00  0.5215E+16
   -0.481232    0.63820  0.1679E-11  0.1219E-13  0.7603E-17  0.1000E-09  0.0000E+00  0.5168E+16
   -0.549982    0.73292  0.1679E-11  0.1219E-13  0.7603E-17  0.1000E-09  0.0000E+00  0.5137E+16
   -0.618732    0.83006  0.1679E-11  0.1219E-13  0.7603E-17  0.1000E-09  0.0000E+00  0.5118E+16
   -0.687482    0.93008  0.1679E-11  0.1219E-13  0.7603E-17  0.1000E-09  0.0000E+00  0.5120E+16
   -0.756233    1.03370  0.1679E-11  0.1219E-13  0.7603E-17  0.1000E-09  0.0000E+00  0.5131E+16
   -0.824984    1.14151  0.1679E-11  0.1219E-13  0.7603E-17  0.1000E-09  0.0000E+00  0.5136E+16
   -0.893735    1.25390  0.1678E-11  0.1219E-13  0.7603E-17  0.1000E-09  0.0000E+00  0.5130E+16
   -0.962486    1.37121  0.1678E-11  0.1219E-13  0.7603E-17  0.1000E-09  0.0000E+00  0.5108E+16
   -1.031238    1.49374  0.1678E-11  0.5669E-13  0.9612E-17  0.1000E-09  0.0000E+00  0.5064E+16
   -1.099990    1.62173  0.1677E-11  0.1620E-12  0.2130E-16  0.1000E-09  0.0000E+00  0.4992E+16
   -1.168742    1.75539  0.1675E-11  0.4019E-12  0.4951E-16  0.1000E-09  0.0000E+00  0.4888E+16
   -1.237494    1.89485  0.1670E-11  0.9549E-12  0.1138E-15  0.1000E-09  0.0000E+00  0.4747E+16
   -1.306246    2.04019  0.1663E-11  0.2227E-11  0.2580E-15  0.1000E-09  0.0000E+00  0.4565E+16
   -1.374998    2.19139  0.1654E-11  0.5132E-11  0.5791E-15  0.1000E-09  0.0000E+00  0.4347E+16
   -1.443750    2.34868  0.1646E-11  0.1170E-10  0.1286E-14  0.1000E-09  0.0000E+00  0.4081E+16
   -1.512503    2.51201  0.1641E-11  0.2642E-10  0.2831E-14  0.1000E-09  0.0000E+00  0.3764E+16
   -1.581255    2.68110  0.1638E-11  0.5907E-10  0.6170E-14  0.1000E-09  0.0000E+00  0.3395E+16
   -1.650007    2.85561  0.1636E-11  0.1308E-09  0.1333E-13  0.1000E-09  0.0000E+00  0.2975E+16
   -1.718759    3.03507  0.1635E-11  0.2871E-09  0.2853E-13  0.1000E-09  0.0000E+00  0.2511E+16
   -1.787510    3.21907  0.1634E-11  0.6392E-09  0.6195E-13  0.1553E-09  0.0000E+00  0.2030E+16
   -1.856262    3.40991  0.1634E-11  0.1435E-08  0.1357E-12  0.4639E-09  0.0000E+00  0.1490E+16
   -1.925013    3.60746  0.1632E-11  0.3217E-08  0.2971E-12  0.1705E-08  0.0000E+00  0.8868E+15
   -1.993764    3.81076  0.1628E-11  0.7145E-08  0.6449E-12  0.1372E-07  0.0000E+00  0.2393E+15
   -2.062515    4.00439  0.1627E-11  0.8100E-08  0.7355E-12  0.3569E-04  0.0000E+00 -0.2421E+12
   -2.131265    4.00523  0.1627E-11  0.8503E-08  0.7840E-12  0.3647E-04  0.0000E+00 -0.2483E+12
   -2.200015    4.00605  0.1627E-11  0.8827E-08  0.8363E-12  0.3634E-04  0.0000E+00 -0.2607E+12
   -2.268764    4.00687  0.1627E-11  0.9076E-08  0.8957E-12  0.3527E-04  0.0000E+00 -0.2808E+12
   -2.337513    4.00773  0.1627E-11  0.9255E-08  0.9698E-12  0.3309E-04  0.0000E+00 -0.3131E+12
   -2.406262    4.00864  0.1627E-11  0.9356E-08  0.1070E-11  0.2965E-04  0.0000E+00 -0.3668E+12
   -2.475010    4.00967  0.1627E-11  0.9353E-08  0.1219E-11  0.2471E-04  0.0000E+00 -0.4651E+12
   -2.543758    4.01091  0.1627E-11  0.9190E-08  0.1484E-11  0.1806E-04  0.0000E+00 -0.6816E+12
   -2.612504    4.01262  0.1627E-11  0.8674E-08  0.2122E-11  0.9701E-05  0.0000E+00 -0.1415E+13
   -2.681251    4.01585  0.1627E-11  0.6412E-08  0.5944E-11  0.1376E-05  0.0000E+00 -0.1445E+14
   -2.749996    4.03845  0.1627E-11  0.0000E+00  0.0000E+00  0.0000E+00  0.0000E+00  0.0000E+00
