 1 - depth, m
 2 - temperature, C
 3 - salinity, kg/kg
 4 - turbulent kinetic energy, m**2/s**2
 5 - dissipation rate, m**2/s**3
 6 - kinematic heat conductance, m**2/s
 7 - modulus of horizontal velocity, m/s
 8 - Richardson number, n/d
   -0.000000   -0.00000  0.1120E-09  0.1219E-13  0.7603E-17  0.1000E-09  0.0000E+00  0.4668E+16
   -0.068746    0.07070  0.6054E-10  0.1219E-13  0.7603E-17  0.1000E-09  0.0000E+00  0.4496E+16
   -0.137492    0.14010  0.4732E-10  0.1219E-13  0.7603E-17  0.1000E-09  0.0000E+00  0.4357E+16
   -0.206239    0.20865  0.4434E-10  0.1219E-13  0.7603E-17  0.1000E-09  0.0000E+00  0.4250E+16
   -0.274987    0.27682  0.4374E-10  0.1219E-13  0.7603E-17  0.1000E-09  0.0000E+00  0.4173E+16
   -0.343735    0.34508  0.4363E-10  0.1219E-13  0.7603E-17  0.1000E-09  0.0000E+00  0.4126E+16
   -0.412483    0.41394  0.4361E-10  0.1219E-13  0.7603E-17  0.1000E-09  0.0000E+00  0.4106E+16
   -0.481232    0.48389  0.4361E-10  0.1219E-13  0.7603E-17  0.1000E-09  0.0000E+00  0.4110E+16
   -0.549982    0.55542  0.4361E-10  0.1219E-13  0.7603E-17  0.1000E-09  0.0000E+00  0.4136E+16
   -0.618732    0.62903  0.4361E-10  0.1219E-13  0.7603E-17  0.1000E-09  0.0000E+00  0.4179E+16
   -0.687482    0.70519  0.4361E-10  0.1219E-13  0.7603E-17  0.1000E-09  0.0000E+00  0.4252E+16
   -0.756233    0.78464  0.4361E-10  0.1219E-13  0.7603E-17  0.1000E-09  0.0000E+00  0.4343E+16
   -0.824984    0.86799  0.4361E-10  0.1219E-13  0.7603E-17  0.1000E-09  0.0000E+00  0.4438E+16
   -0.893735    0.95565  0.4361E-10  0.1219E-13  0.7603E-17  0.1000E-09  0.0000E+00  0.4531E+16
   -0.962487    1.04799  0.4361E-10  0.1219E-13  0.7603E-17  0.1000E-09  0.0000E+00  0.4617E+16
   -1.031238    1.14532  0.4361E-10  0.1219E-13  0.7603E-17  0.1000E-09  0.0000E+00  0.4691E+16
   -1.099990    1.24792  0.4361E-10  0.1219E-13  0.7603E-17  0.1000E-09  0.0000E+00  0.4746E+16
   -1.168742    1.35601  0.4359E-10  0.1219E-13  0.7603E-17  0.1000E-09  0.0000E+00  0.4779E+16
   -1.237494    1.46972  0.4356E-10  0.1219E-13  0.7603E-17  0.1000E-09  0.0000E+00  0.4782E+16
   -1.306247    1.58915  0.4347E-10  0.1219E-13  0.7603E-17  0.1000E-09  0.0000E+00  0.4752E+16
   -1.374999    1.71429  0.4332E-10  0.1219E-13  0.7603E-17  0.1000E-09  0.0000E+00  0.4696E+16
   -1.443751    1.84542  0.4312E-10  0.1219E-13  0.7603E-17  0.1000E-09  0.0000E+00  0.4601E+16
   -1.512503    1.98252  0.4292E-10  0.1219E-13  0.7603E-17  0.1000E-09  0.0000E+00  0.4459E+16
   -1.581255    2.12531  0.4280E-10  0.1219E-13  0.7603E-17  0.1000E-09  0.0000E+00  0.4267E+16
   -1.650007    2.27346  0.4274E-10  0.2209E-13  0.7603E-17  0.1000E-09  0.0000E+00  0.4028E+16
   -1.718759    2.42652  0.4271E-10  0.8009E-13  0.2084E-16  0.1000E-09  0.0000E+00  0.3740E+16
   -1.787511    2.58397  0.4269E-10  0.2780E-12  0.6802E-16  0.1000E-09  0.0000E+00  0.3405E+16
   -1.856262    2.74500  0.4268E-10  0.9439E-12  0.2223E-15  0.1000E-09  0.0000E+00  0.3038E+16
   -1.925014    2.90927  0.4267E-10  0.3156E-11  0.7176E-15  0.1000E-09  0.0000E+00  0.2642E+16
   -1.993765    3.07639  0.4264E-10  0.1043E-10  0.2289E-14  0.1000E-09  0.0000E+00  0.2219E+16
   -2.062515    3.24582  0.4260E-10  0.3318E-10  0.7044E-14  0.1000E-09  0.0000E+00  0.1774E+16
   -2.131266    3.41693  0.4251E-10  0.1038E-09  0.2130E-13  0.1000E-09  0.0000E+00  0.1313E+16
   -2.200016    3.58907  0.4237E-10  0.3199E-09  0.6352E-13  0.3826E-09  0.0000E+00  0.8433E+15
   -2.268765    3.76121  0.4224E-10  0.9807E-09  0.1885E-12  0.2556E-08  0.0000E+00  0.3737E+15
   -2.337514    3.93083  0.4219E-10  0.2829E-08  0.5307E-12  0.1443E-06  0.0000E+00  0.1717E+14
   -2.406263    4.01610  0.4219E-10  0.4725E-08  0.9054E-12  0.1064E-04  0.0000E+00 -0.1111E+13
   -2.475011    4.01839  0.4219E-10  0.5440E-08  0.1130E-11  0.1037E-04  0.0000E+00 -0.1261E+13
   -2.543758    4.02081  0.4219E-10  0.5858E-08  0.1444E-11  0.8630E-05  0.0000E+00 -0.1709E+13
   -2.612505    4.02384  0.4219E-10  0.5911E-08  0.2109E-11  0.5312E-05  0.0000E+00 -0.3347E+13
   -2.681252    4.02916  0.4219E-10  0.5018E-08  0.5290E-11  0.1213E-05  0.0000E+00 -0.2478E+14
   -2.749997    4.05703  0.4219E-10  0.0000E+00  0.0000E+00  0.0000E+00  0.0000E+00  0.0000E+00
