 1 - depth, m
 2 - temperature, C
 3 - salinity, kg/kg
 4 - turbulent kinetic energy, m**2/s**2
 5 - dissipation rate, m**2/s**3
 6 - kinematic heat conductance, m**2/s
 7 - modulus of horizontal velocity, m/s
 8 - Richardson number, n/d
   -0.000000    0.00000  0.0000E+00  0.1218E-13  0.7602E-17  0.1000E-09  0.0000E+00  0.2169E+17
   -0.068749    0.34159  0.3796E-16  0.1218E-13  0.7602E-17  0.1000E-09  0.0000E+00  0.1070E+17
   -0.137498    0.52438  0.3478E-16  0.1218E-13  0.7602E-17  0.1000E-09  0.0000E+00  0.5068E+16
   -0.206248    0.61502  0.3212E-18  0.1218E-13  0.7602E-17  0.1000E-09  0.0000E+00  0.2513E+16
   -0.274999    0.66066  0.4846E-12  0.1218E-13  0.7602E-17  0.1000E-09  0.0000E+00  0.1592E+16
   -0.343750    0.68944  0.3424E-11  0.1218E-13  0.7602E-17  0.1000E-09  0.0000E+00  0.1471E+16
   -0.412502    0.71599  0.8041E-11  0.1218E-13  0.7602E-17  0.1000E-09  0.0000E+00  0.1698E+16
   -0.481254    0.74700  0.1272E-10  0.1218E-13  0.7602E-17  0.1000E-09  0.0000E+00  0.2047E+16
   -0.550006    0.78500  0.1621E-10  0.1218E-13  0.7602E-17  0.1000E-09  0.0000E+00  0.2416E+16
   -0.618759    0.83067  0.1807E-10  0.1218E-13  0.7602E-17  0.1000E-09  0.0000E+00  0.2768E+16
   -0.687513    0.88402  0.1854E-10  0.1218E-13  0.7602E-17  0.1000E-09  0.0000E+00  0.3046E+16
   -0.756266    0.94397  0.1815E-10  0.1218E-13  0.7602E-17  0.1000E-09  0.0000E+00  0.3260E+16
   -0.825020    1.00961  0.1741E-10  0.1218E-13  0.7602E-17  0.1000E-09  0.0000E+00  0.3433E+16
   -0.893775    1.08050  0.1665E-10  0.1218E-13  0.7602E-17  0.1000E-09  0.0000E+00  0.3568E+16
   -0.962529    1.15620  0.1605E-10  0.1218E-13  0.7602E-17  0.1000E-09  0.0000E+00  0.3666E+16
   -1.031284    1.23628  0.1562E-10  0.1224E-13  0.7632E-17  0.1000E-09  0.0000E+00  0.3731E+16
   -1.100039    1.32039  0.1536E-10  0.1869E-13  0.1127E-16  0.1000E-09  0.0000E+00  0.3764E+16
   -1.168794    1.40817  0.1520E-10  0.6693E-13  0.3786E-16  0.1000E-09  0.0000E+00  0.3767E+16
   -1.237549    1.49926  0.1511E-10  0.3647E-12  0.1965E-15  0.1000E-09  0.0000E+00  0.3737E+16
   -1.306304    1.59321  0.1507E-10  0.2132E-11  0.1106E-14  0.1000E-09  0.0000E+00  0.3661E+16
   -1.375060    1.68915  0.1504E-10  0.1239E-10  0.6211E-14  0.1005E-09  0.0000E+00  0.3677E+16
   -1.443815    1.78990  0.1502E-10  0.7042E-10  0.3415E-13  0.1199E-09  0.0000E+00  0.3757E+16
   -1.512570    1.89805  0.1499E-10  0.3887E-09  0.1820E-12  0.2765E-09  0.0000E+00  0.3995E+16
   -1.581325    2.01987  0.1497E-10  0.2062E-08  0.9304E-12  0.8722E-09  0.0000E+00  0.4692E+16
   -1.650080    2.17404  0.1494E-10  0.1035E-07  0.4492E-11  0.2435E-08  0.0000E+00  0.6485E+16
   -1.718835    2.41595  0.1490E-10  0.4755E-07  0.1986E-10  0.8535E-08  0.0000E+00  0.8952E+16
   -1.787590    2.88937  0.1485E-10  0.1116E-06  0.4523E-10  0.2356E-04  0.0000E+00  0.4950E+16
   -1.856345    3.33141  0.1479E-10  0.1532E-06  0.6206E-10  0.8911E-04  0.0000E+00  0.2371E+16
   -1.925099    3.59201  0.1475E-10  0.1820E-06  0.7444E-10  0.1272E-03  0.0000E+00  0.1089E+16
   -1.993853    3.74045  0.1472E-10  0.2061E-06  0.8591E-10  0.1511E-03  0.0000E+00  0.6036E+15
   -2.062607    3.84137  0.1471E-10  0.2292E-06  0.9808E-10  0.1678E-03  0.0000E+00  0.7145E+15
   -2.131360    3.96123  0.1469E-10  0.2503E-06  0.1106E-09  0.1831E-03  0.0000E+00  0.5678E+15
   -2.200113    4.07555  0.1468E-10  0.2667E-06  0.1222E-09  0.1951E-03  0.0000E+00  0.2446E+15
   -2.268866    4.15840  0.1468E-10  0.2741E-06  0.1305E-09  0.2015E-03  0.0000E+00 -0.2824E+13
   -2.337618    4.16680  0.1468E-10  0.2778E-06  0.1391E-09  0.1963E-03  0.0000E+00 -0.7325E+13
   -2.406370    4.16949  0.1468E-10  0.2795E-06  0.1502E-09  0.1853E-03  0.0000E+00 -0.8013E+13
   -2.475121    4.17237  0.1468E-10  0.2792E-06  0.1660E-09  0.1684E-03  0.0000E+00 -0.9134E+13
   -2.543871    4.17558  0.1468E-10  0.2758E-06  0.1926E-09  0.1404E-03  0.0000E+00 -0.1133E+14
   -2.612621    4.17950  0.1468E-10  0.2651E-06  0.2571E-09  0.8113E-04  0.0000E+00 -0.2060E+14
   -2.681371    4.18644  0.1468E-10  0.1824E-06  0.8583E-09  0.7140E-05  0.0000E+00 -0.2894E+15
   -2.750119    4.26464  0.1468E-10  0.0000E+00  0.0000E+00  0.0000E+00  0.0000E+00  0.0000E+00
