 1 - depth, m
 2 - temperature, C
 3 - salinity, kg/kg
 4 - turbulent kinetic energy, m**2/s**2
 5 - dissipation rate, m**2/s**3
 6 - kinematic heat conductance, m**2/s
 7 - modulus of horizontal velocity, m/s
 8 - Richardson number, n/d
   -0.000000   -0.00000  0.4124E-17  0.1219E-13  0.7603E-17  0.1000E-09  0.0000E+00  0.4443E+16
   -0.068746    0.06725  0.0000E+00  0.1219E-13  0.7603E-17  0.1000E-09  0.0000E+00  0.4554E+16
   -0.137493    0.13749  0.3284E-12  0.1219E-13  0.7603E-17  0.1000E-09  0.0000E+00  0.4672E+16
   -0.206241    0.21100  0.1986E-11  0.1219E-13  0.7603E-17  0.1000E-09  0.0000E+00  0.4790E+16
   -0.274989    0.28799  0.4391E-11  0.1219E-13  0.7603E-17  0.1000E-09  0.0000E+00  0.4904E+16
   -0.343738    0.36860  0.6550E-11  0.1219E-13  0.7603E-17  0.1000E-09  0.0000E+00  0.5004E+16
   -0.412487    0.45288  0.7889E-11  0.1219E-13  0.7603E-17  0.1000E-09  0.0000E+00  0.5085E+16
   -0.481237    0.54077  0.8376E-11  0.1219E-13  0.7603E-17  0.1000E-09  0.0000E+00  0.5142E+16
   -0.549987    0.63211  0.8280E-11  0.1219E-13  0.7603E-17  0.1000E-09  0.0000E+00  0.5170E+16
   -0.618737    0.72668  0.7916E-11  0.1219E-13  0.7603E-17  0.1000E-09  0.0000E+00  0.5168E+16
   -0.687488    0.82420  0.7508E-11  0.1219E-13  0.7603E-17  0.1000E-09  0.0000E+00  0.5133E+16
   -0.756240    0.92432  0.7171E-11  0.1219E-13  0.7603E-17  0.1000E-09  0.0000E+00  0.5069E+16
   -0.824991    1.02668  0.6935E-11  0.1219E-13  0.7603E-17  0.1000E-09  0.0000E+00  0.4981E+16
   -0.893743    1.13102  0.6789E-11  0.1219E-13  0.7603E-17  0.1000E-09  0.0000E+00  0.4873E+16
   -0.962495    1.23712  0.6705E-11  0.1219E-13  0.7603E-17  0.1000E-09  0.0000E+00  0.4748E+16
   -1.031247    1.34479  0.6661E-11  0.1219E-13  0.7603E-17  0.1000E-09  0.0000E+00  0.4610E+16
   -1.100000    1.45388  0.6638E-11  0.1219E-13  0.7603E-17  0.1000E-09  0.0000E+00  0.4460E+16
   -1.168753    1.56431  0.6624E-11  0.1219E-13  0.7603E-17  0.1000E-09  0.0000E+00  0.4302E+16
   -1.237505    1.67602  0.6615E-11  0.1219E-13  0.7603E-17  0.1000E-09  0.0000E+00  0.4137E+16
   -1.306258    1.78902  0.6605E-11  0.1219E-13  0.7603E-17  0.1000E-09  0.0000E+00  0.3967E+16
   -1.375011    1.90336  0.6593E-11  0.1219E-13  0.7603E-17  0.1000E-09  0.0000E+00  0.3795E+16
   -1.443764    2.01918  0.6579E-11  0.1219E-13  0.7603E-17  0.1000E-09  0.0000E+00  0.3620E+16
   -1.512517    2.13662  0.6562E-11  0.1219E-13  0.7603E-17  0.1000E-09  0.0000E+00  0.3440E+16
   -1.581269    2.25582  0.6544E-11  0.1219E-13  0.7603E-17  0.1000E-09  0.0000E+00  0.3254E+16
   -1.650022    2.37692  0.6526E-11  0.1219E-13  0.7603E-17  0.1000E-09  0.0000E+00  0.3060E+16
   -1.718774    2.50005  0.6507E-11  0.1219E-13  0.7603E-17  0.1000E-09  0.0000E+00  0.2854E+16
   -1.787527    2.62516  0.6491E-11  0.1219E-13  0.7603E-17  0.1000E-09  0.0000E+00  0.2555E+16
   -1.856279    2.74806  0.6477E-11  0.1219E-13  0.7603E-17  0.1000E-09  0.0000E+00  0.2255E+16
   -1.925031    2.86798  0.6465E-11  0.1219E-13  0.7603E-17  0.1000E-09  0.0000E+00  0.1958E+16
   -1.993782    2.98390  0.6456E-11  0.1219E-13  0.7603E-17  0.1000E-09  0.0000E+00  0.1686E+16
   -2.062534    3.09594  0.6448E-11  0.1219E-13  0.7603E-17  0.1000E-09  0.0000E+00  0.1492E+16
   -2.131285    3.20864  0.6442E-11  0.2175E-13  0.1117E-16  0.1000E-09  0.0000E+00  0.1301E+16
   -2.200035    3.32261  0.6436E-11  0.1055E-12  0.5044E-16  0.1000E-09  0.0000E+00  0.1107E+16
   -2.268785    3.43808  0.6432E-11  0.5345E-12  0.2448E-15  0.1000E-09  0.0000E+00  0.9017E+15
   -2.337535    3.55466  0.6429E-11  0.2701E-11  0.1188E-14  0.1000E-09  0.0000E+00  0.6902E+15
   -2.406284    3.67210  0.6427E-11  0.1350E-10  0.5713E-14  0.1000E-09  0.0000E+00  0.4738E+15
   -2.475033    3.79013  0.6425E-11  0.6724E-10  0.2742E-13  0.5342E-09  0.0000E+00  0.2538E+15
   -2.543781    3.90786  0.6423E-11  0.3325E-09  0.1315E-12  0.1372E-07  0.0000E+00  0.4198E+14
   -2.612529    4.01458  0.6423E-11  0.1406E-08  0.5695E-12  0.1494E-05  0.0000E+00 -0.4963E+13
   -2.681276    4.02417  0.6423E-11  0.1279E-08  0.1078E-11  0.4113E-06  0.0000E+00 -0.1667E+14
   -2.750022    4.04601  0.6423E-11  0.0000E+00  0.0000E+00  0.0000E+00  0.0000E+00  0.0000E+00
