 1 - depth, m
 2 - temperature, C
 3 - salinity, kg/kg
 4 - turbulent kinetic energy, m**2/s**2
 5 - dissipation rate, m**2/s**3
 6 - kinematic heat conductance, m**2/s
 7 - modulus of horizontal velocity, m/s
 8 - Richardson number, n/d
   -0.000000   -0.00000  0.2302E-10  0.1219E-13  0.7603E-17  0.1000E-09  0.0000E+00  0.5404E+16
   -0.068746    0.08196  0.1251E-10  0.1219E-13  0.7603E-17  0.1000E-09  0.0000E+00  0.5201E+16
   -0.137492    0.16262  0.9555E-11  0.1219E-13  0.7603E-17  0.1000E-09  0.0000E+00  0.5039E+16
   -0.206239    0.24253  0.8859E-11  0.1219E-13  0.7603E-17  0.1000E-09  0.0000E+00  0.4914E+16
   -0.274987    0.32226  0.8712E-11  0.1219E-13  0.7603E-17  0.1000E-09  0.0000E+00  0.4825E+16
   -0.343735    0.40237  0.8685E-11  0.1219E-13  0.7603E-17  0.1000E-09  0.0000E+00  0.4767E+16
   -0.412483    0.48344  0.8680E-11  0.1219E-13  0.7603E-17  0.1000E-09  0.0000E+00  0.4738E+16
   -0.481232    0.56602  0.8679E-11  0.1219E-13  0.7603E-17  0.1000E-09  0.0000E+00  0.4733E+16
   -0.549982    0.65069  0.8679E-11  0.1219E-13  0.7603E-17  0.1000E-09  0.0000E+00  0.4750E+16
   -0.618732    0.73799  0.8679E-11  0.1219E-13  0.7603E-17  0.1000E-09  0.0000E+00  0.4782E+16
   -0.687482    0.82847  0.8679E-11  0.1219E-13  0.7603E-17  0.1000E-09  0.0000E+00  0.4842E+16
   -0.756233    0.92295  0.8679E-11  0.1219E-13  0.7603E-17  0.1000E-09  0.0000E+00  0.4916E+16
   -0.824984    1.02211  0.8679E-11  0.1219E-13  0.7603E-17  0.1000E-09  0.0000E+00  0.4988E+16
   -0.893735    1.12641  0.8679E-11  0.1219E-13  0.7603E-17  0.1000E-09  0.0000E+00  0.5051E+16
   -0.962486    1.23628  0.8679E-11  0.1219E-13  0.7603E-17  0.1000E-09  0.0000E+00  0.5101E+16
   -1.031238    1.35208  0.8677E-11  0.1359E-13  0.7603E-17  0.1000E-09  0.0000E+00  0.5129E+16
   -1.099990    1.47414  0.8673E-11  0.2951E-13  0.8753E-17  0.1000E-09  0.0000E+00  0.5129E+16
   -1.168742    1.60271  0.8663E-11  0.1008E-12  0.1650E-16  0.1000E-09  0.0000E+00  0.5094E+16
   -1.237494    1.73799  0.8640E-11  0.2856E-12  0.4178E-16  0.1000E-09  0.0000E+00  0.5019E+16
   -1.306246    1.88009  0.8601E-11  0.7563E-12  0.1059E-15  0.1000E-09  0.0000E+00  0.4898E+16
   -1.374999    2.02905  0.8552E-11  0.1946E-11  0.2637E-15  0.1000E-09  0.0000E+00  0.4739E+16
   -1.443751    2.18524  0.8508E-11  0.4913E-11  0.6452E-15  0.1000E-09  0.0000E+00  0.4525E+16
   -1.512503    2.34870  0.8480E-11  0.1220E-10  0.1554E-14  0.1000E-09  0.0000E+00  0.4251E+16
   -1.581255    2.51920  0.8464E-11  0.2979E-10  0.3684E-14  0.1000E-09  0.0000E+00  0.3913E+16
   -1.650007    2.69648  0.8455E-11  0.7165E-10  0.8607E-14  0.1000E-09  0.0000E+00  0.3514E+16
   -1.718759    2.88019  0.8450E-11  0.1698E-09  0.1982E-13  0.1000E-09  0.0000E+00  0.3057E+16
   -1.787511    3.07010  0.8446E-11  0.4062E-09  0.4609E-13  0.1050E-09  0.0000E+00  0.2588E+16
   -1.856262    3.26986  0.8444E-11  0.9749E-09  0.1076E-12  0.2676E-09  0.0000E+00  0.2047E+16
   -1.925013    3.48186  0.8438E-11  0.2323E-08  0.2495E-12  0.9002E-09  0.0000E+00  0.1408E+16
   -1.993764    3.71145  0.8425E-11  0.5480E-08  0.5735E-12  0.5003E-08  0.0000E+00  0.5818E+15
   -2.062515    3.96122  0.8415E-11  0.8618E-08  0.9233E-12  0.1230E-04  0.0000E+00  0.1065E+14
   -2.131265    4.00548  0.8415E-11  0.9550E-08  0.1037E-11  0.3431E-04  0.0000E+00 -0.3249E+12
   -2.200015    4.00670  0.8415E-11  0.1003E-07  0.1112E-11  0.3488E-04  0.0000E+00 -0.3378E+12
   -2.268765    4.00786  0.8415E-11  0.1040E-07  0.1194E-11  0.3437E-04  0.0000E+00 -0.3605E+12
   -2.337514    4.00901  0.8415E-11  0.1067E-07  0.1293E-11  0.3265E-04  0.0000E+00 -0.3981E+12
   -2.406262    4.01021  0.8415E-11  0.1084E-07  0.1422E-11  0.2959E-04  0.0000E+00 -0.4615E+12
   -2.475011    4.01151  0.8415E-11  0.1087E-07  0.1614E-11  0.2494E-04  0.0000E+00 -0.5785E+12
   -2.543758    4.01304  0.8415E-11  0.1071E-07  0.1950E-11  0.1846E-04  0.0000E+00 -0.8381E+12
   -2.612505    4.01509  0.8415E-11  0.1013E-07  0.2755E-11  0.1013E-04  0.0000E+00 -0.1717E+13
   -2.681251    4.01886  0.8415E-11  0.7545E-08  0.7598E-11  0.1510E-05  0.0000E+00 -0.1712E+14
   -2.749997    4.04360  0.8415E-11  0.0000E+00  0.0000E+00  0.0000E+00  0.0000E+00  0.0000E+00
