 1 - depth, m
 2 - temperature, C
 3 - salinity, kg/kg
 4 - turbulent kinetic energy, m**2/s**2
 5 - dissipation rate, m**2/s**3
 6 - kinematic heat conductance, m**2/s
 7 - modulus of horizontal velocity, m/s
 8 - Richardson number, n/d
   -0.000000   -0.00000  0.9075E-13  0.3042E-05  0.7038E-07  0.1227E-04  0.1379E-01  0.1395E+16
   -0.068750    0.03142  0.9128E-13  0.2579E-05  0.3203E-07  0.1778E-04  0.1084E-01  0.1332E+16
   -0.137501    0.05932  0.9302E-13  0.2137E-05  0.1927E-07  0.1839E-04  0.9244E-02  0.1354E+16
   -0.206252    0.08943  0.1011E-12  0.1726E-05  0.1291E-07  0.1617E-04  0.8026E-02  0.1403E+16
   -0.275004    0.12813  0.1956E-12  0.1356E-05  0.9114E-08  0.1274E-04  0.6890E-02  0.1457E+16
   -0.343756    0.18084  0.3682E-12  0.1031E-05  0.6608E-08  0.9159E-05  0.5769E-02  0.1510E+16
   -0.412509    0.24973  0.6593E-12  0.7551E-06  0.4857E-08  0.6057E-05  0.4665E-02  0.1564E+16
   -0.481263    0.33359  0.1044E-11  0.5313E-06  0.3609E-08  0.3664E-05  0.3629E-02  0.1620E+16
   -0.550017    0.42223  0.1418E-11  0.3466E-06  0.2622E-08  0.1940E-05  0.2748E-02  0.1676E+16
   -0.618771    0.51495  0.1701E-11  0.1978E-06  0.1777E-08  0.8462E-06  0.1984E-02  0.1730E+16
   -0.687526    0.61433  0.1877E-11  0.8746E-07  0.1019E-08  0.2687E-06  0.1306E-02  0.1776E+16
   -0.756281    0.72023  0.1956E-11  0.2084E-07  0.3431E-09  0.4240E-07  0.7196E-03  0.1816E+16
   -0.825036    0.82882  0.1958E-11  0.1201E-08  0.1806E-10  0.3383E-08  0.2796E-03  0.1857E+16
   -0.893792    0.92882  0.1899E-11  0.2537E-10  0.2946E-12  0.2215E-09  0.8155E-04  0.1898E+16
   -0.962548    1.02660  0.1830E-11  0.5084E-12  0.4683E-14  0.1006E-09  0.2269E-04  0.1940E+16
   -1.031304    1.12674  0.1775E-11  0.2246E-13  0.9667E-16  0.1000E-09  0.6320E-05  0.1985E+16
   -1.100060    1.22949  0.1735E-11  0.1222E-13  0.9990E-17  0.1000E-09  0.1768E-05  0.2031E+16
   -1.168816    1.33473  0.1710E-11  0.1218E-13  0.7688E-17  0.1000E-09  0.4984E-06  0.2081E+16
   -1.237573    1.44233  0.1695E-11  0.1218E-13  0.7600E-17  0.1000E-09  0.1421E-06  0.2134E+16
   -1.306329    1.55219  0.1686E-11  0.1218E-13  0.7600E-17  0.1000E-09  0.4126E-07  0.2191E+16
   -1.375086    1.66418  0.1681E-11  0.1218E-13  0.7600E-17  0.1000E-09  0.1227E-07  0.2256E+16
   -1.443843    1.77850  0.1677E-11  0.1218E-13  0.7600E-17  0.1000E-09  0.3764E-08  0.2330E+16
   -1.512599    1.89536  0.1674E-11  0.1218E-13  0.7600E-17  0.1000E-09  0.1195E-08  0.2418E+16
   -1.581356    2.01541  0.1671E-11  0.1218E-13  0.7600E-17  0.1000E-09  0.3924E-09  0.2548E+16
   -1.650112    2.14129  0.1668E-11  0.1315E-13  0.8510E-17  0.1000E-09  0.1300E-09  0.2759E+16
   -1.718868    2.28133  0.1664E-11  0.2531E-13  0.1798E-16  0.1000E-09  0.3508E-10  0.3390E+16
   -1.787624    2.46337  0.1660E-11  0.1302E-12  0.9483E-16  0.1000E-09  0.2260E-11  0.3656E+16
   -1.856380    2.62136  0.1656E-11  0.9611E-12  0.6747E-15  0.1000E-09  0.1348E-12  0.3016E+16
   -1.925136    2.76727  0.1651E-11  0.7279E-11  0.4888E-14  0.1043E-09  0.7394E-14  0.2316E+16
   -1.993891    2.89222  0.1647E-11  0.5369E-10  0.3459E-13  0.2745E-09  0.4392E-15  0.1693E+16
   -2.062646    2.99347  0.1644E-11  0.3709E-09  0.2309E-12  0.8044E-09  0.3332E-16  0.1729E+16
   -2.131401    3.10984  0.1641E-11  0.2450E-08  0.1478E-11  0.2962E-08  0.2394E-17  0.1728E+16
   -2.200155    3.24868  0.1638E-11  0.1307E-07  0.7767E-11  0.3454E-07  0.1635E-18  0.1614E+16
   -2.268909    3.44616  0.1635E-11  0.2184E-07  0.1332E-10  0.9132E-05  0.5658E-20  0.1197E+16
   -2.337663    3.61635  0.1633E-11  0.2859E-07  0.1811E-10  0.1504E-04  0.1795E-20  0.7580E+15
   -2.406416    3.75682  0.1632E-11  0.3442E-07  0.2278E-10  0.1848E-04  0.9195E-21  0.6167E+15
   -2.475168    3.93484  0.1631E-11  0.4035E-07  0.2830E-10  0.2104E-04  0.4581E-21  0.1371E+15
   -2.543920    4.06485  0.1630E-11  0.4571E-07  0.3574E-10  0.2424E-04  0.2146E-21 -0.6719E+13
   -2.612671    4.07980  0.1630E-11  0.4676E-07  0.4845E-10  0.1738E-04  0.8623E-22 -0.1623E+14
   -2.681422    4.08982  0.1630E-11  0.3632E-07  0.1274E-09  0.3020E-05  0.2060E-22 -0.1197E+15
   -2.750172    4.13752  0.1630E-11  0.0000E+00  0.0000E+00  0.0000E+00  0.1937E-22  0.0000E+00
