 1 - depth, m
 2 - temperature, C
 3 - salinity, kg/kg
 4 - turbulent kinetic energy, m**2/s**2
 5 - dissipation rate, m**2/s**3
 6 - kinematic heat conductance, m**2/s
 7 - modulus of horizontal velocity, m/s
 8 - Richardson number, n/d
   -0.000000   -0.00000  0.5648E-12  0.1219E-13  0.7603E-17  0.1000E-09  0.0000E+00  0.7475E+16
   -0.068746    0.11388  0.1457E-11  0.1219E-13  0.7603E-17  0.1000E-09  0.0000E+00  0.7372E+16
   -0.137493    0.22979  0.1792E-11  0.1219E-13  0.7603E-17  0.1000E-09  0.0000E+00  0.7237E+16
   -0.206240    0.34741  0.1816E-11  0.1219E-13  0.7603E-17  0.1000E-09  0.0000E+00  0.7077E+16
   -0.274988    0.46646  0.1707E-11  0.1219E-13  0.7603E-17  0.1000E-09  0.0000E+00  0.6895E+16
   -0.343736    0.58672  0.1568E-11  0.1219E-13  0.7603E-17  0.1000E-09  0.0000E+00  0.6695E+16
   -0.412485    0.70796  0.1453E-11  0.1219E-13  0.7603E-17  0.1000E-09  0.0000E+00  0.6480E+16
   -0.481234    0.82998  0.1375E-11  0.1219E-13  0.7603E-17  0.1000E-09  0.0000E+00  0.6251E+16
   -0.549984    0.95259  0.1331E-11  0.1219E-13  0.7603E-17  0.1000E-09  0.0000E+00  0.6011E+16
   -0.618735    1.07564  0.1308E-11  0.1219E-13  0.7603E-17  0.1000E-09  0.0000E+00  0.5763E+16
   -0.687485    1.19895  0.1298E-11  0.1219E-13  0.7603E-17  0.1000E-09  0.0000E+00  0.5509E+16
   -0.756236    1.32241  0.1293E-11  0.1219E-13  0.7603E-17  0.1000E-09  0.0000E+00  0.5251E+16
   -0.824987    1.44593  0.1291E-11  0.1219E-13  0.7603E-17  0.1000E-09  0.0000E+00  0.4989E+16
   -0.893739    1.56937  0.1290E-11  0.1219E-13  0.7603E-17  0.1000E-09  0.0000E+00  0.4724E+16
   -0.962491    1.69266  0.1289E-11  0.1219E-13  0.7603E-17  0.1000E-09  0.0000E+00  0.4459E+16
   -1.031243    1.81569  0.1287E-11  0.1219E-13  0.7603E-17  0.1000E-09  0.0000E+00  0.4194E+16
   -1.099995    1.93839  0.1286E-11  0.1219E-13  0.7603E-17  0.1000E-09  0.0000E+00  0.3930E+16
   -1.168747    2.06069  0.1283E-11  0.1219E-13  0.7603E-17  0.1000E-09  0.0000E+00  0.3667E+16
   -1.237500    2.18254  0.1280E-11  0.1219E-13  0.7603E-17  0.1000E-09  0.0000E+00  0.3407E+16
   -1.306252    2.30389  0.1277E-11  0.1219E-13  0.7603E-17  0.1000E-09  0.0000E+00  0.3150E+16
   -1.375005    2.42469  0.1273E-11  0.1219E-13  0.7603E-17  0.1000E-09  0.0000E+00  0.2897E+16
   -1.443757    2.54494  0.1269E-11  0.1219E-13  0.7603E-17  0.1000E-09  0.0000E+00  0.2648E+16
   -1.512510    2.66463  0.1266E-11  0.5623E-13  0.1028E-16  0.1000E-09  0.0000E+00  0.2403E+16
   -1.581262    2.78374  0.1263E-11  0.1655E-12  0.2412E-16  0.1000E-09  0.0000E+00  0.2162E+16
   -1.650015    2.90229  0.1260E-11  0.4275E-12  0.5872E-16  0.1000E-09  0.0000E+00  0.1926E+16
   -1.718767    3.02029  0.1258E-11  0.1061E-11  0.1409E-15  0.1000E-09  0.0000E+00  0.1693E+16
   -1.787519    3.13773  0.1257E-11  0.2653E-11  0.3419E-15  0.1000E-09  0.0000E+00  0.1446E+16
   -1.856270    3.25301  0.1255E-11  0.6655E-11  0.8336E-15  0.1000E-09  0.0000E+00  0.1209E+16
   -1.925022    3.36579  0.1254E-11  0.1662E-10  0.2024E-14  0.1000E-09  0.0000E+00  0.9812E+15
   -1.993773    3.47552  0.1253E-11  0.4128E-10  0.4890E-14  0.1000E-09  0.0000E+00  0.7700E+15
   -2.062524    3.58221  0.1253E-11  0.9967E-10  0.1149E-13  0.1017E-09  0.0000E+00  0.5873E+15
   -2.131275    3.68842  0.1253E-11  0.2375E-09  0.2666E-13  0.3322E-09  0.0000E+00  0.4081E+15
   -2.200025    3.79437  0.1252E-11  0.5608E-09  0.6131E-13  0.1353E-08  0.0000E+00  0.2302E+15
   -2.268775    3.89963  0.1252E-11  0.1316E-08  0.1402E-12  0.1226E-07  0.0000E+00  0.5790E+14
   -2.337524    3.99766  0.1252E-11  0.2034E-08  0.2183E-12  0.8153E-05  0.0000E+00 -0.3481E+12
   -2.406273    3.99948  0.1252E-11  0.2328E-08  0.2636E-12  0.8474E-05  0.0000E+00 -0.3811E+12
   -2.475022    4.00121  0.1252E-11  0.2521E-08  0.3172E-12  0.7842E-05  0.0000E+00 -0.4604E+12
   -2.543770    4.00307  0.1252E-11  0.2600E-08  0.3963E-12  0.6178E-05  0.0000E+00 -0.6520E+12
   -2.612517    4.00539  0.1252E-11  0.2492E-08  0.5657E-12  0.3433E-05  0.0000E+00 -0.1335E+13
   -2.681264    4.00943  0.1252E-11  0.1811E-08  0.1361E-11  0.5268E-06  0.0000E+00 -0.1077E+14
   -2.750010    4.03002  0.1252E-11  0.0000E+00  0.0000E+00  0.0000E+00  0.0000E+00  0.0000E+00
