 1 - depth, m
 2 - temperature, C
 3 - salinity, kg/kg
 4 - turbulent kinetic energy, m**2/s**2
 5 - dissipation rate, m**2/s**3
 6 - kinematic heat conductance, m**2/s
 7 - modulus of horizontal velocity, m/s
 8 - Richardson number, n/d
   -0.000000   -0.00000  0.1522E-09  0.1219E-13  0.7603E-17  0.1000E-09  0.0000E+00  0.5418E+16
   -0.068746    0.08218  0.8558E-10  0.1219E-13  0.7603E-17  0.1000E-09  0.0000E+00  0.5235E+16
   -0.137492    0.16338  0.6376E-10  0.1219E-13  0.7603E-17  0.1000E-09  0.0000E+00  0.5075E+16
   -0.206239    0.24389  0.5793E-10  0.1219E-13  0.7603E-17  0.1000E-09  0.0000E+00  0.4938E+16
   -0.274987    0.32403  0.5658E-10  0.1219E-13  0.7603E-17  0.1000E-09  0.0000E+00  0.4821E+16
   -0.343735    0.40412  0.5630E-10  0.1219E-13  0.7603E-17  0.1000E-09  0.0000E+00  0.4724E+16
   -0.412483    0.48449  0.5625E-10  0.1219E-13  0.7603E-17  0.1000E-09  0.0000E+00  0.4644E+16
   -0.481232    0.56545  0.5624E-10  0.1219E-13  0.7603E-17  0.1000E-09  0.0000E+00  0.4580E+16
   -0.549982    0.64731  0.5624E-10  0.1219E-13  0.7603E-17  0.1000E-09  0.0000E+00  0.4528E+16
   -0.618732    0.73039  0.5624E-10  0.1219E-13  0.7603E-17  0.1000E-09  0.0000E+00  0.4485E+16
   -0.687482    0.81495  0.5624E-10  0.1219E-13  0.7603E-17  0.1000E-09  0.0000E+00  0.4462E+16
   -0.756233    0.90151  0.5624E-10  0.1219E-13  0.7603E-17  0.1000E-09  0.0000E+00  0.4450E+16
   -0.824984    0.99045  0.5624E-10  0.1219E-13  0.7603E-17  0.1000E-09  0.0000E+00  0.4437E+16
   -0.893735    1.08198  0.5624E-10  0.1219E-13  0.7603E-17  0.1000E-09  0.0000E+00  0.4420E+16
   -0.962487    1.17626  0.5624E-10  0.1219E-13  0.7603E-17  0.1000E-09  0.0000E+00  0.4396E+16
   -1.031239    1.27343  0.5623E-10  0.1219E-13  0.7603E-17  0.1000E-09  0.0000E+00  0.4362E+16
   -1.099990    1.37359  0.5622E-10  0.1219E-13  0.7603E-17  0.1000E-09  0.0000E+00  0.4316E+16
   -1.168742    1.47681  0.5619E-10  0.1219E-13  0.7603E-17  0.1000E-09  0.0000E+00  0.4255E+16
   -1.237495    1.58308  0.5613E-10  0.1219E-13  0.7603E-17  0.1000E-09  0.0000E+00  0.4177E+16
   -1.306247    1.69239  0.5600E-10  0.1219E-13  0.7603E-17  0.1000E-09  0.0000E+00  0.4080E+16
   -1.374999    1.80466  0.5580E-10  0.1219E-13  0.7603E-17  0.1000E-09  0.0000E+00  0.3971E+16
   -1.443751    1.92001  0.5557E-10  0.1219E-13  0.7603E-17  0.1000E-09  0.0000E+00  0.3842E+16
   -1.512504    2.03834  0.5535E-10  0.1219E-13  0.7603E-17  0.1000E-09  0.0000E+00  0.3691E+16
   -1.581256    2.15945  0.5521E-10  0.1219E-13  0.7603E-17  0.1000E-09  0.0000E+00  0.3516E+16
   -1.650008    2.28306  0.5513E-10  0.1219E-13  0.7603E-17  0.1000E-09  0.0000E+00  0.3319E+16
   -1.718760    2.40889  0.5508E-10  0.1219E-13  0.7603E-17  0.1000E-09  0.0000E+00  0.3102E+16
   -1.787511    2.53659  0.5506E-10  0.1219E-13  0.7603E-17  0.1000E-09  0.0000E+00  0.2870E+16
   -1.856263    2.66599  0.5505E-10  0.1219E-13  0.7603E-17  0.1000E-09  0.0000E+00  0.2625E+16
   -1.925014    2.79686  0.5503E-10  0.1219E-13  0.7603E-17  0.1000E-09  0.0000E+00  0.2367E+16
   -1.993765    2.92898  0.5502E-10  0.2271E-13  0.1022E-16  0.1000E-09  0.0000E+00  0.2097E+16
   -2.062516    3.06198  0.5498E-10  0.1007E-12  0.4113E-16  0.1000E-09  0.0000E+00  0.1823E+16
   -2.131266    3.19590  0.5492E-10  0.4529E-12  0.1769E-15  0.1000E-09  0.0000E+00  0.1543E+16
   -2.200016    3.33053  0.5483E-10  0.1991E-11  0.7468E-15  0.1000E-09  0.0000E+00  0.1256E+16
   -2.268766    3.46561  0.5470E-10  0.8657E-11  0.3120E-14  0.1000E-09  0.0000E+00  0.9713E+15
   -2.337515    3.60159  0.5457E-10  0.3758E-10  0.1302E-13  0.1003E-09  0.0000E+00  0.6830E+15
   -2.406263    3.73885  0.5448E-10  0.1618E-09  0.5398E-13  0.6996E-09  0.0000E+00  0.3877E+15
   -2.475012    3.87729  0.5445E-10  0.6900E-09  0.2224E-12  0.1205E-07  0.0000E+00  0.8943E+14
   -2.543759    4.00821  0.5445E-10  0.2262E-08  0.7296E-12  0.2672E-05  0.0000E+00 -0.2989E+13
   -2.612506    4.01567  0.5445E-10  0.2893E-08  0.1283E-11  0.2203E-05  0.0000E+00 -0.5325E+13
   -2.681252    4.02558  0.5445E-10  0.3071E-08  0.3317E-11  0.8241E-06  0.0000E+00 -0.2876E+14
   -2.749998    4.05854  0.5445E-10  0.0000E+00  0.0000E+00  0.0000E+00  0.0000E+00  0.0000E+00
