 1 - depth, m
 2 - temperature, C
 3 - salinity, kg/kg
 4 - turbulent kinetic energy, m**2/s**2
 5 - dissipation rate, m**2/s**3
 6 - kinematic heat conductance, m**2/s
 7 - modulus of horizontal velocity, m/s
 8 - Richardson number, n/d
   -0.000000   -0.00000  0.1079E-10  0.1219E-13  0.7603E-17  0.1000E-09  0.0000E+00  0.7336E+16
   -0.068746    0.11172  0.6382E-11  0.1219E-13  0.7603E-17  0.1000E-09  0.0000E+00  0.7056E+16
   -0.137492    0.22252  0.4613E-11  0.1219E-13  0.7603E-17  0.1000E-09  0.0000E+00  0.6801E+16
   -0.206239    0.33270  0.4025E-11  0.1219E-13  0.7603E-17  0.1000E-09  0.0000E+00  0.6568E+16
   -0.274987    0.44256  0.3860E-11  0.1219E-13  0.7603E-17  0.1000E-09  0.0000E+00  0.6354E+16
   -0.343735    0.55240  0.3819E-11  0.1219E-13  0.7603E-17  0.1000E-09  0.0000E+00  0.6158E+16
   -0.412483    0.66252  0.3810E-11  0.1219E-13  0.7603E-17  0.1000E-09  0.0000E+00  0.5978E+16
   -0.481232    0.77323  0.3808E-11  0.1219E-13  0.7603E-17  0.1000E-09  0.0000E+00  0.5809E+16
   -0.549982    0.88481  0.3808E-11  0.1219E-13  0.7603E-17  0.1000E-09  0.0000E+00  0.5650E+16
   -0.618732    0.99754  0.3808E-11  0.1219E-13  0.7603E-17  0.1000E-09  0.0000E+00  0.5497E+16
   -0.687482    1.11167  0.3808E-11  0.1219E-13  0.7603E-17  0.1000E-09  0.0000E+00  0.5358E+16
   -0.756233    1.22769  0.3808E-11  0.1219E-13  0.7603E-17  0.1000E-09  0.0000E+00  0.5224E+16
   -0.824984    1.34594  0.3808E-11  0.1219E-13  0.7603E-17  0.1000E-09  0.0000E+00  0.5085E+16
   -0.893735    1.46663  0.3808E-11  0.1219E-13  0.7603E-17  0.1000E-09  0.0000E+00  0.4939E+16
   -0.962487    1.58992  0.3807E-11  0.1223E-13  0.7603E-17  0.1000E-09  0.0000E+00  0.4782E+16
   -1.031238    1.71593  0.3805E-11  0.2961E-13  0.7945E-17  0.1000E-09  0.0000E+00  0.4613E+16
   -1.099990    1.84477  0.3801E-11  0.8873E-13  0.1239E-16  0.1000E-09  0.0000E+00  0.4429E+16
   -1.168742    1.97652  0.3793E-11  0.2321E-12  0.2746E-16  0.1000E-09  0.0000E+00  0.4228E+16
   -1.237494    2.11120  0.3780E-11  0.5618E-12  0.6316E-16  0.1000E-09  0.0000E+00  0.4008E+16
   -1.306247    2.24882  0.3763E-11  0.1317E-11  0.1434E-15  0.1000E-09  0.0000E+00  0.3769E+16
   -1.374999    2.38934  0.3746E-11  0.3030E-11  0.3211E-15  0.1000E-09  0.0000E+00  0.3514E+16
   -1.443751    2.53289  0.3730E-11  0.6873E-11  0.7092E-15  0.1000E-09  0.0000E+00  0.3238E+16
   -1.512503    2.67938  0.3720E-11  0.1539E-10  0.1546E-14  0.1000E-09  0.0000E+00  0.2938E+16
   -1.581255    2.82861  0.3713E-11  0.3401E-10  0.3330E-14  0.1000E-09  0.0000E+00  0.2614E+16
   -1.650007    2.98022  0.3709E-11  0.7426E-10  0.7085E-14  0.1000E-09  0.0000E+00  0.2269E+16
   -1.718759    3.13377  0.3707E-11  0.1601E-09  0.1489E-13  0.1000E-09  0.0000E+00  0.1906E+16
   -1.787511    3.28888  0.3705E-11  0.3492E-09  0.3164E-13  0.1113E-09  0.0000E+00  0.1559E+16
   -1.856262    3.44840  0.3703E-11  0.7658E-09  0.6762E-13  0.2895E-09  0.0000E+00  0.1191E+16
   -1.925014    3.61437  0.3699E-11  0.1672E-08  0.1439E-12  0.9260E-09  0.0000E+00  0.7889E+15
   -1.993765    3.79143  0.3694E-11  0.3620E-08  0.3040E-12  0.5109E-08  0.0000E+00  0.2963E+15
   -2.062515    3.98167  0.3692E-11  0.4911E-08  0.4198E-12  0.1295E-04  0.0000E+00  0.1835E+13
   -2.131266    3.99599  0.3692E-11  0.5410E-08  0.4710E-12  0.2265E-04  0.0000E+00 -0.1981E+12
   -2.200016    3.99738  0.3692E-11  0.5736E-08  0.5132E-12  0.2377E-04  0.0000E+00 -0.2128E+12
   -2.268765    3.99866  0.3692E-11  0.5996E-08  0.5594E-12  0.2388E-04  0.0000E+00 -0.2333E+12
   -2.337514    3.99990  0.3692E-11  0.6197E-08  0.6148E-12  0.2296E-04  0.0000E+00 -0.2643E+12
   -2.406263    4.00116  0.3692E-11  0.6332E-08  0.6868E-12  0.2093E-04  0.0000E+00 -0.3147E+12
   -2.475011    4.00253  0.3692E-11  0.6384E-08  0.7923E-12  0.1763E-04  0.0000E+00 -0.4070E+12
   -2.543759    4.00413  0.3692E-11  0.6307E-08  0.9756E-12  0.1293E-04  0.0000E+00 -0.6142E+12
   -2.612506    4.00629  0.3692E-11  0.5956E-08  0.1415E-11  0.6902E-05  0.0000E+00 -0.1344E+13
   -2.681252    4.01032  0.3692E-11  0.4400E-08  0.3898E-11  0.1027E-05  0.0000E+00 -0.1396E+14
   -2.749998    4.03503  0.3692E-11  0.0000E+00  0.0000E+00  0.0000E+00  0.0000E+00  0.0000E+00
