 1 - depth, m
 2 - temperature, C
 3 - salinity, kg/kg
 4 - turbulent kinetic energy, m**2/s**2
 5 - dissipation rate, m**2/s**3
 6 - kinematic heat conductance, m**2/s
 7 - modulus of horizontal velocity, m/s
 8 - Richardson number, n/d
   -0.000000    2.62082  0.1637E-11  0.3485E-04  0.3930E-05  0.3348E-04  0.6291E-01  0.1564E-02
   -0.068746    2.66759  0.1637E-11  0.2554E-04  0.9445E-06  0.7720E-04  0.4050E-01  0.5943E-02
   -0.137492    2.68273  0.1637E-11  0.2270E-04  0.4425E-06  0.1167E-03  0.3451E-01  0.9527E-02
   -0.206239    2.69283  0.1637E-11  0.2098E-04  0.2714E-06  0.1535E-03  0.3072E-01  0.1352E-01
   -0.274987    2.70038  0.1637E-11  0.1962E-04  0.1903E-06  0.1863E-03  0.2801E-01  0.1799E-01
   -0.343735    2.70647  0.1637E-11  0.1844E-04  0.1436E-06  0.2143E-03  0.2593E-01  0.2289E-01
   -0.412484    2.71165  0.1637E-11  0.1735E-04  0.1133E-06  0.2374E-03  0.2424E-01  0.2818E-01
   -0.481233    2.71622  0.1637E-11  0.1633E-04  0.9213E-07  0.2559E-03  0.2282E-01  0.3389E-01
   -0.549983    2.72037  0.1637E-11  0.1537E-04  0.7646E-07  0.2702E-03  0.2159E-01  0.4008E-01
   -0.618733    2.72421  0.1637E-11  0.1446E-04  0.6442E-07  0.2806E-03  0.2050E-01  0.4683E-01
   -0.687483    2.72784  0.1637E-11  0.1360E-04  0.5488E-07  0.2876E-03  0.1953E-01  0.5425E-01
   -0.756234    2.73131  0.1637E-11  0.1277E-04  0.4715E-07  0.2916E-03  0.1865E-01  0.6248E-01
   -0.824985    2.73467  0.1637E-11  0.1197E-04  0.4077E-07  0.2928E-03  0.1784E-01  0.7174E-01
   -0.893737    2.73794  0.1637E-11  0.1122E-04  0.3542E-07  0.2918E-03  0.1710E-01  0.8230E-01
   -0.962488    2.74116  0.1637E-11  0.1050E-04  0.3091E-07  0.2890E-03  0.1641E-01  0.9458E-01
   -1.031240    2.74435  0.1637E-11  0.9822E-05  0.2707E-07  0.2848E-03  0.1578E-01  0.1092E+00
   -1.099992    2.74753  0.1637E-11  0.9190E-05  0.2381E-07  0.2801E-03  0.1518E-01  0.1271E+00
   -1.168744    2.75070  0.1637E-11  0.8612E-05  0.2106E-07  0.2754E-03  0.1463E-01  0.1498E+00
   -1.237497    2.75387  0.1637E-11  0.8098E-05  0.1879E-07  0.2719E-03  0.1413E-01  0.1797E+00
   -1.306249    2.75703  0.1637E-11  0.7665E-05  0.1700E-07  0.2705E-03  0.1366E-01  0.2204E+00
   -1.375001    2.76017  0.1637E-11  0.7327E-05  0.1569E-07  0.2721E-03  0.1324E-01  0.2782E+00
   -1.443754    2.76328  0.1637E-11  0.7102E-05  0.1488E-07  0.2775E-03  0.1287E-01  0.3643E+00
   -1.512506    2.76634  0.1637E-11  0.7007E-05  0.1461E-07  0.2867E-03  0.1254E-01  0.5071E+00
   -1.581258    2.76945  0.1637E-11  0.7058E-05  0.1492E-07  0.3015E-03  0.1225E-01  0.9323E+00
   -1.650010    2.77282  0.1637E-11  0.7309E-05  0.1605E-07  0.2210E-03  0.1197E-01  0.8837E+00
   -1.718762    2.79760  0.1637E-11  0.7179E-05  0.1610E-07  0.1284E-03  0.7839E-02  0.8354E+00
   -1.787514    2.83088  0.1637E-11  0.6032E-05  0.1260E-07  0.2756E-03  0.8821E-03  0.8223E+01
   -1.856266    2.83466  0.1637E-11  0.5354E-05  0.1067E-07  0.2413E-03  0.7093E-03  0.3476E+01
   -1.925017    2.83829  0.1637E-11  0.4726E-05  0.9011E-08  0.2090E-03  0.5797E-03  0.5498E+01
   -1.993768    2.84214  0.1637E-11  0.4130E-05  0.7546E-08  0.1761E-03  0.4746E-03  0.9006E+01
   -2.062519    2.84650  0.1637E-11  0.3582E-05  0.6293E-08  0.1432E-03  0.3872E-03  0.1296E+02
   -2.131269    2.85175  0.1637E-11  0.3081E-05  0.5225E-08  0.1112E-03  0.3078E-03  0.1990E+02
   -2.200020    2.85852  0.1637E-11  0.2619E-05  0.4312E-08  0.8052E-04  0.2354E-03  0.3217E+02
   -2.268769    2.86852  0.1637E-11  0.2181E-05  0.3506E-08  0.5190E-04  0.1675E-03  0.7880E+02
   -2.337518    2.89293  0.1637E-11  0.1709E-05  0.2695E-08  0.2702E-04  0.1076E-03  0.4622E+03
   -2.406267    2.97470  0.1637E-11  0.1206E-05  0.1879E-08  0.1004E-04  0.5682E-04  0.1165E+05
   -2.475015    3.15297  0.1637E-11  0.6591E-06  0.1026E-08  0.3597E-05  0.2196E-04  0.5852E+06
   -2.543763    3.53973  0.1638E-11  0.3209E-06  0.5128E-09  0.1315E-04  0.3985E-05  0.2793E+09
   -2.612510    3.89591  0.1638E-11  0.2017E-06  0.3740E-09  0.1500E-04  0.4331E-06  0.8378E+11
   -2.681257    4.00881  0.1638E-11  0.1115E-06  0.6294E-09  0.4162E-05  0.1206E-06 -0.2817E+14
   -2.750002    4.12024  0.1638E-11  0.0000E+00  0.0000E+00  0.0000E+00  0.1249E-06  0.0000E+00
