 1 - depth, m
 2 - temperature, C
 3 - salinity, kg/kg
 4 - turbulent kinetic energy, m**2/s**2
 5 - dissipation rate, m**2/s**3
 6 - kinematic heat conductance, m**2/s
 7 - modulus of horizontal velocity, m/s
 8 - Richardson number, n/d
   -0.000000    0.00000  0.0000E+00  0.1219E-13  0.7603E-17  0.1000E-09  0.0000E+00  0.5345E+16
   -0.068746    0.08106  0.2850E-12  0.1219E-13  0.7603E-17  0.1000E-09  0.0000E+00  0.5463E+16
   -0.137493    0.16580  0.1301E-11  0.1219E-13  0.7603E-17  0.1000E-09  0.0000E+00  0.5576E+16
   -0.206241    0.25442  0.2485E-11  0.1219E-13  0.7603E-17  0.1000E-09  0.0000E+00  0.5676E+16
   -0.274989    0.34699  0.3334E-11  0.1219E-13  0.7603E-17  0.1000E-09  0.0000E+00  0.5749E+16
   -0.343738    0.44338  0.3710E-11  0.1219E-13  0.7603E-17  0.1000E-09  0.0000E+00  0.5784E+16
   -0.412487    0.54323  0.3729E-11  0.1219E-13  0.7603E-17  0.1000E-09  0.0000E+00  0.5776E+16
   -0.481237    0.64610  0.3566E-11  0.1219E-13  0.7603E-17  0.1000E-09  0.0000E+00  0.5726E+16
   -0.549987    0.75149  0.3360E-11  0.1219E-13  0.7603E-17  0.1000E-09  0.0000E+00  0.5640E+16
   -0.618737    0.85897  0.3182E-11  0.1219E-13  0.7603E-17  0.1000E-09  0.0000E+00  0.5524E+16
   -0.687488    0.96815  0.3056E-11  0.1219E-13  0.7603E-17  0.1000E-09  0.0000E+00  0.5383E+16
   -0.756240    1.07870  0.2978E-11  0.1219E-13  0.7603E-17  0.1000E-09  0.0000E+00  0.5223E+16
   -0.824991    1.19035  0.2934E-11  0.1219E-13  0.7603E-17  0.1000E-09  0.0000E+00  0.5050E+16
   -0.893743    1.30292  0.2912E-11  0.1219E-13  0.7603E-17  0.1000E-09  0.0000E+00  0.4866E+16
   -0.962495    1.41627  0.2900E-11  0.1219E-13  0.7603E-17  0.1000E-09  0.0000E+00  0.4675E+16
   -1.031248    1.53030  0.2894E-11  0.1219E-13  0.7603E-17  0.1000E-09  0.0000E+00  0.4476E+16
   -1.100000    1.64491  0.2890E-11  0.1219E-13  0.7603E-17  0.1000E-09  0.0000E+00  0.4273E+16
   -1.168753    1.76005  0.2886E-11  0.1219E-13  0.7603E-17  0.1000E-09  0.0000E+00  0.4067E+16
   -1.237505    1.87566  0.2881E-11  0.1219E-13  0.7603E-17  0.1000E-09  0.0000E+00  0.3858E+16
   -1.306258    1.99175  0.2875E-11  0.1219E-13  0.7603E-17  0.1000E-09  0.0000E+00  0.3647E+16
   -1.375011    2.10832  0.2868E-11  0.1219E-13  0.7603E-17  0.1000E-09  0.0000E+00  0.3438E+16
   -1.443764    2.22549  0.2859E-11  0.1219E-13  0.7603E-17  0.1000E-09  0.0000E+00  0.3230E+16
   -1.512517    2.34340  0.2851E-11  0.1219E-13  0.7603E-17  0.1000E-09  0.0000E+00  0.3022E+16
   -1.581269    2.46219  0.2843E-11  0.1219E-13  0.7603E-17  0.1000E-09  0.0000E+00  0.2814E+16
   -1.650022    2.58205  0.2835E-11  0.1219E-13  0.7603E-17  0.1000E-09  0.0000E+00  0.2604E+16
   -1.718775    2.70312  0.2828E-11  0.1219E-13  0.7603E-17  0.1000E-09  0.0000E+00  0.2387E+16
   -1.787527    2.82539  0.2822E-11  0.1219E-13  0.7603E-17  0.1000E-09  0.0000E+00  0.2103E+16
   -1.856279    2.94518  0.2818E-11  0.1219E-13  0.7603E-17  0.1000E-09  0.0000E+00  0.1823E+16
   -1.925031    3.06175  0.2814E-11  0.2612E-13  0.8997E-17  0.1000E-09  0.0000E+00  0.1550E+16
   -1.993782    3.17415  0.2811E-11  0.1020E-12  0.3000E-16  0.1000E-09  0.0000E+00  0.1302E+16
   -2.062534    3.28253  0.2809E-11  0.3794E-12  0.1066E-15  0.1000E-09  0.0000E+00  0.1118E+16
   -2.131285    3.39130  0.2807E-11  0.1376E-11  0.3726E-15  0.1000E-09  0.0000E+00  0.9371E+15
   -2.200035    3.50112  0.2806E-11  0.4907E-11  0.1282E-14  0.1000E-09  0.0000E+00  0.7523E+15
   -2.268785    3.61212  0.2805E-11  0.1739E-10  0.4391E-14  0.1000E-09  0.0000E+00  0.5603E+15
   -2.337535    3.72393  0.2804E-11  0.6194E-10  0.1512E-13  0.2101E-09  0.0000E+00  0.3634E+15
   -2.406284    3.83598  0.2804E-11  0.2200E-09  0.5197E-13  0.1580E-08  0.0000E+00  0.1649E+15
   -2.475033    3.94665  0.2803E-11  0.7571E-09  0.1743E-12  0.9563E-07  0.0000E+00  0.7168E+13
   -2.543781    4.01212  0.2803E-11  0.1871E-08  0.4550E-12  0.3518E-05  0.0000E+00 -0.1829E+13
   -2.612529    4.01630  0.2803E-11  0.2123E-08  0.6563E-12  0.2586E-05  0.0000E+00 -0.2734E+13
   -2.681276    4.02165  0.2803E-11  0.1619E-08  0.1285E-11  0.4828E-06  0.0000E+00 -0.1313E+14
   -2.750022    4.04040  0.2803E-11  0.0000E+00  0.0000E+00  0.0000E+00  0.0000E+00  0.0000E+00
