 1 - depth, m
 2 - temperature, C
 3 - salinity, kg/kg
 4 - turbulent kinetic energy, m**2/s**2
 5 - dissipation rate, m**2/s**3
 6 - kinematic heat conductance, m**2/s
 7 - modulus of horizontal velocity, m/s
 8 - Richardson number, n/d
   -0.000000   -0.00000  0.2770E-11  0.1219E-13  0.7603E-17  0.1000E-09  0.0000E+00  0.7097E+16
   -0.068746    0.10803  0.8863E-11  0.1219E-13  0.7603E-17  0.1000E-09  0.0000E+00  0.7004E+16
   -0.137493    0.21788  0.1169E-10  0.1219E-13  0.7603E-17  0.1000E-09  0.0000E+00  0.6891E+16
   -0.206240    0.32939  0.1218E-10  0.1219E-13  0.7603E-17  0.1000E-09  0.0000E+00  0.6757E+16
   -0.274988    0.44236  0.1159E-10  0.1219E-13  0.7603E-17  0.1000E-09  0.0000E+00  0.6605E+16
   -0.343736    0.55661  0.1070E-10  0.1219E-13  0.7603E-17  0.1000E-09  0.0000E+00  0.6435E+16
   -0.412485    0.67193  0.9895E-11  0.1219E-13  0.7603E-17  0.1000E-09  0.0000E+00  0.6250E+16
   -0.481234    0.78814  0.9335E-11  0.1219E-13  0.7603E-17  0.1000E-09  0.0000E+00  0.6051E+16
   -0.549984    0.90506  0.9000E-11  0.1219E-13  0.7603E-17  0.1000E-09  0.0000E+00  0.5840E+16
   -0.618734    1.02251  0.8824E-11  0.1219E-13  0.7603E-17  0.1000E-09  0.0000E+00  0.5620E+16
   -0.687485    1.14034  0.8739E-11  0.1219E-13  0.7603E-17  0.1000E-09  0.0000E+00  0.5393E+16
   -0.756236    1.25842  0.8701E-11  0.1219E-13  0.7603E-17  0.1000E-09  0.0000E+00  0.5160E+16
   -0.824987    1.37664  0.8684E-11  0.1219E-13  0.7603E-17  0.1000E-09  0.0000E+00  0.4923E+16
   -0.893739    1.49488  0.8675E-11  0.1219E-13  0.7603E-17  0.1000E-09  0.0000E+00  0.4682E+16
   -0.962490    1.61303  0.8668E-11  0.1219E-13  0.7603E-17  0.1000E-09  0.0000E+00  0.4439E+16
   -1.031242    1.73101  0.8659E-11  0.1219E-13  0.7603E-17  0.1000E-09  0.0000E+00  0.4196E+16
   -1.099994    1.84874  0.8647E-11  0.1219E-13  0.7603E-17  0.1000E-09  0.0000E+00  0.3953E+16
   -1.168747    1.96614  0.8631E-11  0.1219E-13  0.7603E-17  0.1000E-09  0.0000E+00  0.3711E+16
   -1.237499    2.08316  0.8611E-11  0.1219E-13  0.7603E-17  0.1000E-09  0.0000E+00  0.3471E+16
   -1.306252    2.19975  0.8588E-11  0.1219E-13  0.7603E-17  0.1000E-09  0.0000E+00  0.3233E+16
   -1.375004    2.31588  0.8563E-11  0.1219E-13  0.7603E-17  0.1000E-09  0.0000E+00  0.2998E+16
   -1.443757    2.43156  0.8538E-11  0.1219E-13  0.7603E-17  0.1000E-09  0.0000E+00  0.2768E+16
   -1.512509    2.54678  0.8515E-11  0.1219E-13  0.7603E-17  0.1000E-09  0.0000E+00  0.2540E+16
   -1.581261    2.66155  0.8494E-11  0.1219E-13  0.7603E-17  0.1000E-09  0.0000E+00  0.2316E+16
   -1.650014    2.77586  0.8477E-11  0.1219E-13  0.7603E-17  0.1000E-09  0.0000E+00  0.2096E+16
   -1.718766    2.88972  0.8463E-11  0.1219E-13  0.7603E-17  0.1000E-09  0.0000E+00  0.1878E+16
   -1.787518    3.00309  0.8453E-11  0.3506E-13  0.9611E-17  0.1000E-09  0.0000E+00  0.1645E+16
   -1.856270    3.11462  0.8444E-11  0.1238E-12  0.2816E-16  0.1000E-09  0.0000E+00  0.1418E+16
   -1.925021    3.22396  0.8437E-11  0.4092E-12  0.8848E-16  0.1000E-09  0.0000E+00  0.1198E+16
   -1.993772    3.33060  0.8431E-11  0.1321E-11  0.2757E-15  0.1000E-09  0.0000E+00  0.9914E+15
   -2.062523    3.43442  0.8427E-11  0.4104E-11  0.8288E-15  0.1000E-09  0.0000E+00  0.8147E+15
   -2.131274    3.53754  0.8424E-11  0.1253E-10  0.2450E-14  0.1000E-09  0.0000E+00  0.6429E+15
   -2.200024    3.64016  0.8422E-11  0.3778E-10  0.7153E-14  0.1000E-09  0.0000E+00  0.4741E+15
   -2.268774    3.74224  0.8421E-11  0.1135E-09  0.2082E-13  0.3425E-09  0.0000E+00  0.3079E+15
   -2.337523    3.84355  0.8420E-11  0.3433E-09  0.6108E-13  0.2122E-08  0.0000E+00  0.1451E+15
   -2.406272    3.94295  0.8420E-11  0.1005E-08  0.1744E-12  0.7331E-07  0.0000E+00  0.1084E+14
   -2.475021    4.00864  0.8420E-11  0.2034E-08  0.3609E-12  0.5227E-05  0.0000E+00 -0.9720E+12
   -2.543768    4.01126  0.8420E-11  0.2377E-08  0.4772E-12  0.4752E-05  0.0000E+00 -0.1184E+13
   -2.612516    4.01413  0.8420E-11  0.2420E-08  0.6671E-12  0.3004E-05  0.0000E+00 -0.2071E+13
   -2.681262    4.01853  0.8420E-11  0.1826E-08  0.1449E-11  0.5345E-06  0.0000E+00 -0.1285E+14
   -2.750008    4.03807  0.8420E-11  0.0000E+00  0.0000E+00  0.0000E+00  0.0000E+00  0.0000E+00
