 1 - depth, m
 2 - temperature, C
 3 - salinity, kg/kg
 4 - turbulent kinetic energy, m**2/s**2
 5 - dissipation rate, m**2/s**3
 6 - kinematic heat conductance, m**2/s
 7 - modulus of horizontal velocity, m/s
 8 - Richardson number, n/d
   -0.000000   12.06892  0.3813E-11  0.4941E-05  0.1148E-06  0.2004E-04  0.2183E-01  0.8089E-02
   -0.068746   12.06728  0.3814E-11  0.4314E-05  0.4697E-07  0.3550E-04  0.1691E-01  0.3168E-01
   -0.137492   12.06467  0.3814E-11  0.3719E-05  0.2772E-07  0.4233E-04  0.1452E-01  0.7152E-01
   -0.206239   12.06123  0.3814E-11  0.3174E-05  0.1889E-07  0.4255E-04  0.1281E-01  0.1253E+00
   -0.274987   12.05647  0.3814E-11  0.2674E-05  0.1397E-07  0.3857E-04  0.1136E-01  0.1883E+00
   -0.343735   12.04929  0.3814E-11  0.2218E-05  0.1085E-07  0.3265E-04  0.9953E-02  0.2565E+00
   -0.412484   12.03759  0.3815E-11  0.1848E-05  0.8475E-08  0.2658E-04  0.8449E-02  0.3676E+00
   -0.481233   12.01929  0.3815E-11  0.1702E-05  0.6545E-08  0.2129E-04  0.6872E-02  0.6740E+00
   -0.549983   11.99524  0.3816E-11  0.1914E-05  0.5211E-08  0.1670E-04  0.5430E-02  0.8360E+00
   -0.618733   11.95555  0.3817E-11  0.2126E-05  0.4239E-08  0.2821E-04  0.3806E-02  0.5820E+01
   -0.687484   11.93461  0.3818E-11  0.2222E-05  0.3507E-08  0.6259E-04  0.2752E-02  0.1085E+02
   -0.756234   11.92533  0.3818E-11  0.2330E-05  0.2984E-08  0.1139E-03  0.2126E-02  0.1061E+02
   -0.824985   11.91958  0.3818E-11  0.2445E-05  0.2648E-08  0.1847E-03  0.1677E-02  0.8102E+01
   -0.893737   11.91603  0.3818E-11  0.2557E-05  0.2473E-08  0.2826E-03  0.1355E-02  0.1156E+04
   -0.962488   11.91389  0.3819E-11  0.2653E-05  0.2415E-08  0.6549E-03  0.1119E-02  0.1526E+03
   -1.031240   11.91232  0.3819E-11  0.2741E-05  0.2413E-08  0.8552E-03  0.9294E-03  0.7380E+02
   -1.099992   11.91057  0.3819E-11  0.2836E-05  0.2437E-08  0.9675E-03  0.7462E-03  0.9926E+02
   -1.168744   11.90838  0.3819E-11  0.2948E-05  0.2479E-08  0.1050E-02  0.5631E-03  0.6766E+02
   -1.237497   11.90572  0.3820E-11  0.3078E-05  0.2542E-08  0.1113E-02  0.3901E-03  0.4482E+01
   -1.306249   11.90304  0.3820E-11  0.3208E-05  0.2624E-08  0.1148E-02  0.2495E-03  0.3408E+02
   -1.375001   11.90148  0.3820E-11  0.3303E-05  0.2726E-08  0.1191E-02  0.1657E-03  0.3145E+02
   -1.443754   11.90154  0.3820E-11  0.3392E-05  0.2840E-08  0.1235E-02  0.1505E-03  0.1011E+02
   -1.512506   11.90169  0.3820E-11  0.3477E-05  0.2961E-08  0.1273E-02  0.1386E-03  0.4624E+02
   -1.581258   11.90186  0.3820E-11  0.3558E-05  0.3087E-08  0.1275E-02  0.1280E-03  0.6044E+01
   -1.650010   11.90206  0.3820E-11  0.3634E-05  0.3220E-08  0.1271E-02  0.1175E-03  0.6958E+01
   -1.718763   11.90229  0.3820E-11  0.3704E-05  0.3356E-08  0.1264E-02  0.1070E-03  0.8148E+01
   -1.787514   11.90255  0.3820E-11  0.3768E-05  0.3501E-08  0.1253E-02  0.9664E-04  0.9603E+01
   -1.856266   11.90283  0.3820E-11  0.3828E-05  0.3664E-08  0.1237E-02  0.8715E-04  0.1252E+02
   -1.925017   11.90312  0.3820E-11  0.3884E-05  0.3848E-08  0.1213E-02  0.7851E-04  0.1660E+02
   -1.993768   11.90342  0.3820E-11  0.3937E-05  0.4061E-08  0.1182E-02  0.7074E-04  0.2259E+02
   -2.062519   11.90375  0.3820E-11  0.3984E-05  0.4300E-08  0.1143E-02  0.6361E-04  0.3139E+02
   -2.131270   11.90411  0.3820E-11  0.4023E-05  0.4571E-08  0.1098E-02  0.5683E-04  0.4187E+02
   -2.200020   11.90451  0.3820E-11  0.4053E-05  0.4882E-08  0.1044E-02  0.5033E-04  0.5782E+02
   -2.268770   11.90496  0.3820E-11  0.4071E-05  0.5251E-08  0.9821E-03  0.4405E-04  0.8164E+02
   -2.337519   11.90545  0.3820E-11  0.4076E-05  0.5721E-08  0.9073E-03  0.3812E-04  0.1257E+03
   -2.406268   11.90601  0.3820E-11  0.4063E-05  0.6353E-08  0.8176E-03  0.3254E-04  0.2142E+03
   -2.475016   11.90665  0.3820E-11  0.4027E-05  0.7277E-08  0.7102E-03  0.2727E-04  0.4211E+03
   -2.543763   11.90742  0.3820E-11  0.3953E-05  0.8797E-08  0.5726E-03  0.2229E-04  0.1061E+04
   -2.612511   11.90840  0.3820E-11  0.3806E-05  0.1188E-07  0.4459E-03  0.1748E-04  0.3682E+04
   -2.681257   11.90972  0.3820E-11  0.2626E-05  0.4381E-07  0.2712E-04  0.1325E-04 -0.2051E+06
   -2.750003   11.93238  0.3820E-11  0.0000E+00  0.0000E+00  0.0000E+00  0.1324E-04  0.0000E+00
