 1 - depth, m
 2 - temperature, C
 3 - salinity, kg/kg
 4 - turbulent kinetic energy, m**2/s**2
 5 - dissipation rate, m**2/s**3
 6 - kinematic heat conductance, m**2/s
 7 - modulus of horizontal velocity, m/s
 8 - Richardson number, n/d
   -0.000000   10.23157  0.2575E-10  0.1507E-04  0.8804E-06  0.3137E-04  0.2814E-01 -0.1476E-01
   -0.068746   10.24856  0.2575E-10  0.1356E-04  0.2718E-06  0.7971E-04  0.1807E-01 -0.3775E-01
   -0.137492   10.25463  0.2575E-10  0.1289E-04  0.1483E-06  0.1302E-03  0.1456E-01 -0.6224E-01
   -0.206239   10.25819  0.2575E-10  0.1242E-04  0.9928E-07  0.1837E-03  0.1244E-01 -0.8899E-01
   -0.274987   10.26062  0.2575E-10  0.1205E-04  0.7359E-07  0.2407E-03  0.1097E-01 -0.1160E+00
   -0.343735   10.26241  0.2575E-10  0.1174E-04  0.5794E-07  0.3101E-03  0.9859E-02 -0.6070E-01
   -0.412484   10.26377  0.2575E-10  0.1148E-04  0.4757E-07  0.4237E-03  0.8985E-02  0.2852E+02
   -0.481233   10.26481  0.2575E-10  0.1127E-04  0.4028E-07  0.5317E-03  0.8281E-02  0.6352E+01
   -0.549983   10.26565  0.2575E-10  0.1110E-04  0.3492E-07  0.6398E-03  0.7690E-02  0.1699E+02
   -0.618733   10.26633  0.2575E-10  0.1096E-04  0.3085E-07  0.7722E-03  0.7180E-02  0.2697E+02
   -0.687484   10.26691  0.2575E-10  0.1085E-04  0.2770E-07  0.9224E-03  0.6734E-02  0.2234E+02
   -0.756234   10.26737  0.2575E-10  0.1076E-04  0.2523E-07  0.1144E-02  0.6335E-02  0.3538E+02
   -0.824986   10.26774  0.2575E-10  0.1070E-04  0.2326E-07  0.1340E-02  0.5976E-02  0.5892E+02
   -0.893737   10.26803  0.2575E-10  0.1065E-04  0.2164E-07  0.1441E-02  0.5640E-02  0.6208E+02
   -0.962489   10.26830  0.2575E-10  0.1061E-04  0.2026E-07  0.1522E-02  0.5317E-02  0.3031E+02
   -1.031240   10.26854  0.2575E-10  0.1057E-04  0.1909E-07  0.1553E-02  0.5005E-02  0.1443E+02
   -1.099992   10.26878  0.2575E-10  0.1054E-04  0.1807E-07  0.1584E-02  0.4699E-02  0.1677E+02
   -1.168745   10.26902  0.2575E-10  0.1050E-04  0.1719E-07  0.1609E-02  0.4402E-02  0.1960E+02
   -1.237497   10.26925  0.2575E-10  0.1045E-04  0.1642E-07  0.1632E-02  0.4109E-02  0.2363E+02
   -1.306249   10.26948  0.2575E-10  0.1040E-04  0.1574E-07  0.1649E-02  0.3821E-02  0.2966E+02
   -1.375002   10.26971  0.2575E-10  0.1033E-04  0.1515E-07  0.1661E-02  0.3537E-02  0.4011E+02
   -1.443754   10.26994  0.2575E-10  0.1025E-04  0.1462E-07  0.1667E-02  0.3255E-02  0.6244E+02
   -1.512506   10.27017  0.2575E-10  0.1015E-04  0.1414E-07  0.1668E-02  0.2974E-02  0.1438E+03
   -1.581258   10.27040  0.2575E-10  0.1004E-04  0.1372E-07  0.1659E-02  0.2693E-02  0.1886E+05
   -1.650011   10.27063  0.2575E-10  0.9893E-05  0.1333E-07  0.1648E-02  0.2411E-02  0.7370E+05
   -1.718763   10.27086  0.2575E-10  0.9721E-05  0.1297E-07  0.1615E-02  0.2128E-02  0.1343E+05
   -1.787514   10.27111  0.2575E-10  0.9510E-05  0.1262E-07  0.1642E-02  0.1841E-02  0.1877E+02
   -1.856266   10.27134  0.2575E-10  0.9273E-05  0.1230E-07  0.1661E-02  0.1594E-02  0.5440E+01
   -1.925018   10.27158  0.2575E-10  0.9017E-05  0.1204E-07  0.1694E-02  0.1380E-02  0.2789E+01
   -1.993769   10.27181  0.2575E-10  0.8750E-05  0.1187E-07  0.1725E-02  0.1199E-02  0.1881E+01
   -2.062519   10.27204  0.2575E-10  0.8489E-05  0.1179E-07  0.1718E-02  0.1044E-02  0.1521E+01
   -2.131270   10.27226  0.2575E-10  0.8238E-05  0.1184E-07  0.1671E-02  0.9045E-03  0.1250E+01
   -2.200020   10.27250  0.2575E-10  0.8000E-05  0.1203E-07  0.1601E-02  0.7792E-03  0.1037E+01
   -2.268770   10.27275  0.2575E-10  0.7778E-05  0.1237E-07  0.1513E-02  0.6667E-03  0.8154E+00
   -2.337519   10.27301  0.2575E-10  0.7569E-05  0.1291E-07  0.1405E-02  0.5703E-03  0.6620E+00
   -2.406268   10.27331  0.2575E-10  0.7372E-05  0.1372E-07  0.1268E-02  0.4896E-03  0.6620E+00
   -2.475016   10.27363  0.2575E-10  0.7179E-05  0.1494E-07  0.1126E-02  0.4221E-03  0.9014E+00
   -2.543764   10.27400  0.2575E-10  0.6956E-05  0.1709E-07  0.9639E-03  0.3655E-03  0.1802E+01
   -2.612511   10.27442  0.2575E-10  0.6585E-05  0.2293E-07  0.5226E-03  0.3106E-03  0.1860E+04
   -2.681257   10.27538  0.2575E-10  0.4147E-05  0.9049E-07  0.3604E-04  0.2350E-03 -0.1045E+05
   -2.750003   10.28707  0.2575E-10  0.0000E+00  0.0000E+00  0.0000E+00  0.2379E-03  0.0000E+00
