 1 - depth, m
 2 - temperature, C
 3 - salinity, kg/kg
 4 - turbulent kinetic energy, m**2/s**2
 5 - dissipation rate, m**2/s**3
 6 - kinematic heat conductance, m**2/s
 7 - modulus of horizontal velocity, m/s
 8 - Richardson number, n/d
   -0.000000   -0.00000  0.3592E-10  0.1525E-09  0.1146E-12  0.1289E-09  0.3942E-27  0.5637E+16
   -0.068746    0.08554  0.2283E-10  0.8580E-09  0.7876E-13  0.1204E-09  0.3269E-27  0.4488E+16
   -0.137492    0.15511  0.2032E-10  0.1980E-08  0.7760E-13  0.1419E-09  0.2829E-27  0.3358E+16
   -0.206239    0.20806  0.1987E-10  0.3395E-08  0.8689E-13  0.2051E-09  0.2441E-27  0.2351E+16
   -0.274986    0.24559  0.1981E-10  0.5015E-08  0.1009E-12  0.3579E-09  0.2065E-27  0.1525E+16
   -0.343734    0.27016  0.1981E-10  0.6748E-08  0.1170E-12  0.7283E-09  0.1707E-27  0.9026E+15
   -0.412483    0.28479  0.1980E-10  0.8494E-08  0.1333E-12  0.1728E-08  0.1381E-27  0.4736E+15
   -0.481232    0.29249  0.1980E-10  0.1013E-07  0.1481E-12  0.5409E-08  0.1099E-27  0.2092E+15
   -0.549982    0.29589  0.1980E-10  0.1140E-07  0.1588E-12  0.7063E-07  0.8713E-28  0.6993E+14
   -0.618731    0.29704  0.1980E-10  0.1171E-07  0.1614E-12  0.1343E-03  0.7787E-28  0.1592E+14
   -0.687482    0.29730  0.1980E-10  0.1179E-07  0.1621E-12  0.1879E-03  0.7778E-28  0.3922E+13
   -0.756232    0.29736  0.1980E-10  0.1182E-07  0.1623E-12  0.1553E-03  0.7774E-28  0.9315E+13
   -0.824983    0.29751  0.1980E-10  0.1177E-07  0.1618E-12  0.5341E-05  0.7769E-28  0.4008E+14
   -0.893735    0.29817  0.1980E-10  0.1130E-07  0.1571E-12  0.1163E-07  0.7654E-28  0.1267E+15
   -0.962486    0.30023  0.1980E-10  0.1027E-07  0.1459E-12  0.3259E-08  0.6632E-28  0.2997E+15
   -1.031238    0.30513  0.1980E-10  0.9104E-08  0.1324E-12  0.1332E-08  0.5628E-28  0.5931E+15
   -1.099989    0.31483  0.1980E-10  0.7907E-08  0.1178E-12  0.6352E-09  0.4723E-28  0.1044E+16
   -1.168741    0.33198  0.1980E-10  0.6737E-08  0.1029E-12  0.3334E-09  0.3921E-28  0.1686E+16
   -1.237494    0.35985  0.1980E-10  0.5638E-08  0.8828E-13  0.1943E-09  0.3216E-28  0.2540E+16
   -1.306246    0.40227  0.1977E-10  0.4637E-08  0.7457E-13  0.1303E-09  0.2600E-28  0.3607E+16
   -1.374998    0.46344  0.1966E-10  0.3748E-08  0.6208E-13  0.1040E-09  0.2063E-28  0.4943E+16
   -1.443750    0.54914  0.1946E-10  0.2976E-08  0.5100E-13  0.1000E-09  0.1596E-28  0.6418E+16
   -1.512502    0.66390  0.1936E-10  0.2318E-08  0.4145E-13  0.1000E-09  0.1187E-28  0.7902E+16
   -1.581254    0.81121  0.1933E-10  0.1767E-08  0.3345E-13  0.1000E-09  0.8250E-29  0.9275E+16
   -1.650006    0.99385  0.1931E-10  0.1314E-08  0.2704E-13  0.1000E-09  0.4988E-29  0.1040E+17
   -1.718758    1.21370  0.1929E-10  0.9507E-09  0.2227E-13  0.1000E-09  0.1952E-29  0.1111E+17
   -1.787510    1.47063  0.1929E-10  0.6566E-09  0.1917E-13  0.1000E-09  0.1325E-30  0.1069E+17
   -1.856261    1.74677  0.1928E-10  0.4199E-09  0.1822E-13  0.1000E-09  0.8284E-32  0.9978E+16
   -1.925012    2.04108  0.1928E-10  0.2524E-09  0.2130E-13  0.1000E-09  0.4729E-33  0.8956E+16
   -1.993763    2.35137  0.1928E-10  0.1915E-09  0.3556E-13  0.1000E-09  0.2940E-34  0.7692E+16
   -2.062514    2.67708  0.1927E-10  0.3505E-09  0.9096E-13  0.1000E-09  0.2378E-35  0.6339E+16
   -2.131264    3.02738  0.1925E-10  0.1112E-08  0.2937E-12  0.3295E-09  0.1799E-36  0.4533E+16
   -2.200014    3.39627  0.1920E-10  0.3852E-08  0.9847E-12  0.2104E-08  0.1265E-37  0.2379E+16
   -2.268764    3.77059  0.1913E-10  0.1299E-07  0.3214E-11  0.4918E-07  0.6074E-39  0.3305E+15
   -2.337513    4.05298  0.1913E-10  0.1762E-07  0.4404E-11  0.3016E-04  0.1887E-40 -0.1883E+13
   -2.406261    4.05476  0.1913E-10  0.1923E-07  0.5019E-11  0.2963E-04  0.5437E-41 -0.2001E+13
   -2.475009    4.05660  0.1913E-10  0.2029E-07  0.5793E-11  0.2688E-04  0.1424E-41 -0.2332E+13
   -2.543757    4.05869  0.1913E-10  0.2076E-07  0.7017E-11  0.2153E-04  0.3201E-42 -0.3150E+13
   -2.612504    4.06142  0.1913E-10  0.2033E-07  0.9765E-11  0.1316E-04  0.5169E-43 -0.5950E+13
   -2.681250    4.06632  0.1913E-10  0.1620E-07  0.2560E-10  0.2428E-05  0.4195E-44 -0.5189E+14
   -2.749996    4.10048  0.1913E-10  0.0000E+00  0.0000E+00  0.0000E+00  0.4426E-44  0.0000E+00
