 1 - depth, m
 2 - temperature, C
 3 - salinity, kg/kg
 4 - turbulent kinetic energy, m**2/s**2
 5 - dissipation rate, m**2/s**3
 6 - kinematic heat conductance, m**2/s
 7 - modulus of horizontal velocity, m/s
 8 - Richardson number, n/d
   -0.000000   -0.00000  0.2369E-11  0.1219E-13  0.7603E-17  0.1000E-09  0.0000E+00  0.3930E+16
   -0.068746    0.05942  0.1281E-11  0.1219E-13  0.7603E-17  0.1000E-09  0.0000E+00  0.3734E+16
   -0.137492    0.11679  0.1044E-11  0.1219E-13  0.7603E-17  0.1000E-09  0.0000E+00  0.3572E+16
   -0.206239    0.17254  0.9952E-12  0.1219E-13  0.7603E-17  0.1000E-09  0.0000E+00  0.3446E+16
   -0.274987    0.22714  0.9868E-12  0.1219E-13  0.7603E-17  0.1000E-09  0.0000E+00  0.3356E+16
   -0.343735    0.28115  0.9855E-12  0.1219E-13  0.7603E-17  0.1000E-09  0.0000E+00  0.3303E+16
   -0.412483    0.33513  0.9854E-12  0.1219E-13  0.7603E-17  0.1000E-09  0.0000E+00  0.3290E+16
   -0.481232    0.38976  0.9853E-12  0.1219E-13  0.7603E-17  0.1000E-09  0.0000E+00  0.3315E+16
   -0.549982    0.44571  0.9853E-12  0.1219E-13  0.7603E-17  0.1000E-09  0.0000E+00  0.3380E+16
   -0.618732    0.50374  0.9853E-12  0.1219E-13  0.7603E-17  0.1000E-09  0.0000E+00  0.3483E+16
   -0.687482    0.56462  0.9853E-12  0.1219E-13  0.7603E-17  0.1000E-09  0.0000E+00  0.3638E+16
   -0.756233    0.62948  0.9853E-12  0.1219E-13  0.7603E-17  0.1000E-09  0.0000E+00  0.3836E+16
   -0.824984    0.69931  0.9853E-12  0.1219E-13  0.7603E-17  0.1000E-09  0.0000E+00  0.4061E+16
   -0.893735    0.77500  0.9853E-12  0.1219E-13  0.7603E-17  0.1000E-09  0.0000E+00  0.4308E+16
   -0.962486    0.85740  0.9853E-12  0.1219E-13  0.7603E-17  0.1000E-09  0.0000E+00  0.4569E+16
   -1.031238    0.94736  0.9853E-12  0.1219E-13  0.7603E-17  0.1000E-09  0.0000E+00  0.4834E+16
   -1.099990    1.04569  0.9850E-12  0.1219E-13  0.7603E-17  0.1000E-09  0.0000E+00  0.5093E+16
   -1.168742    1.15317  0.9841E-12  0.1219E-13  0.7603E-17  0.1000E-09  0.0000E+00  0.5333E+16
   -1.237494    1.27049  0.9816E-12  0.1219E-13  0.7603E-17  0.1000E-09  0.0000E+00  0.5540E+16
   -1.306246    1.39826  0.9764E-12  0.4957E-13  0.1147E-16  0.1000E-09  0.0000E+00  0.5701E+16
   -1.374999    1.53701  0.9692E-12  0.1594E-12  0.3106E-16  0.1000E-09  0.0000E+00  0.5824E+16
   -1.443751    1.68775  0.9636E-12  0.4653E-12  0.8632E-16  0.1000E-09  0.0000E+00  0.5872E+16
   -1.512503    1.85091  0.9608E-12  0.1316E-11  0.2360E-15  0.1000E-09  0.0000E+00  0.5823E+16
   -1.581255    2.02658  0.9592E-12  0.3658E-11  0.6356E-15  0.1000E-09  0.0000E+00  0.5663E+16
   -1.650007    2.21463  0.9581E-12  0.1002E-10  0.1687E-14  0.1000E-09  0.0000E+00  0.5382E+16
   -1.718759    2.41472  0.9573E-12  0.2704E-10  0.4419E-14  0.1000E-09  0.0000E+00  0.4972E+16
   -1.787511    2.62623  0.9569E-12  0.7400E-10  0.1173E-13  0.1000E-09  0.0000E+00  0.4406E+16
   -1.856262    2.84685  0.9567E-12  0.2031E-09  0.3123E-13  0.1000E-09  0.0000E+00  0.3745E+16
   -1.925013    3.07636  0.9566E-12  0.5536E-09  0.8268E-13  0.1409E-09  0.0000E+00  0.2988E+16
   -1.993764    3.31450  0.9564E-12  0.1500E-08  0.2175E-12  0.5194E-09  0.0000E+00  0.2133E+16
   -2.062515    3.56034  0.9555E-12  0.3935E-08  0.5549E-12  0.2393E-08  0.0000E+00  0.1181E+16
   -2.131265    3.80902  0.9532E-12  0.1001E-07  0.1375E-11  0.2968E-07  0.0000E+00  0.2367E+15
   -2.200015    4.02225  0.9526E-12  0.1182E-07  0.1637E-11  0.3601E-04  0.0000E+00 -0.5747E+12
   -2.268765    4.02325  0.9526E-12  0.1252E-07  0.1772E-11  0.3614E-04  0.0000E+00 -0.5927E+12
   -2.337514    4.02426  0.9526E-12  0.1304E-07  0.1925E-11  0.3490E-04  0.0000E+00 -0.6358E+12
   -2.406263    4.02532  0.9526E-12  0.1339E-07  0.2117E-11  0.3214E-04  0.0000E+00 -0.7173E+12
   -2.475011    4.02648  0.9526E-12  0.1354E-07  0.2394E-11  0.2759E-04  0.0000E+00 -0.8738E+12
   -2.543758    4.02784  0.9526E-12  0.1343E-07  0.2865E-11  0.2090E-04  0.0000E+00 -0.1221E+13
   -2.612505    4.02968  0.9526E-12  0.1279E-07  0.3973E-11  0.1184E-04  0.0000E+00 -0.2367E+13
   -2.681251    4.03304  0.9526E-12  0.9602E-08  0.1062E-10  0.1789E-05  0.0000E+00 -0.2161E+14
   -2.749997    4.05663  0.9526E-12  0.0000E+00  0.0000E+00  0.0000E+00  0.0000E+00  0.0000E+00
