 1 - depth, m
 2 - temperature, C
 3 - salinity, kg/kg
 4 - turbulent kinetic energy, m**2/s**2
 5 - dissipation rate, m**2/s**3
 6 - kinematic heat conductance, m**2/s
 7 - modulus of horizontal velocity, m/s
 8 - Richardson number, n/d
   -0.000000   -0.00000  0.1082E-10  0.1219E-13  0.7603E-17  0.1000E-09  0.0000E+00  0.8060E+16
   -0.068746    0.12293  0.6818E-11  0.1219E-13  0.7603E-17  0.1000E-09  0.0000E+00  0.7741E+16
   -0.137492    0.24505  0.4885E-11  0.1219E-13  0.7603E-17  0.1000E-09  0.0000E+00  0.7439E+16
   -0.206239    0.36656  0.4143E-11  0.1219E-13  0.7603E-17  0.1000E-09  0.0000E+00  0.7155E+16
   -0.274987    0.48765  0.3900E-11  0.1219E-13  0.7603E-17  0.1000E-09  0.0000E+00  0.6885E+16
   -0.343735    0.60852  0.3831E-11  0.1219E-13  0.7603E-17  0.1000E-09  0.0000E+00  0.6628E+16
   -0.412483    0.72936  0.3813E-11  0.1219E-13  0.7603E-17  0.1000E-09  0.0000E+00  0.6382E+16
   -0.481232    0.85037  0.3809E-11  0.1219E-13  0.7603E-17  0.1000E-09  0.0000E+00  0.6145E+16
   -0.549982    0.97171  0.3808E-11  0.1219E-13  0.7603E-17  0.1000E-09  0.0000E+00  0.5914E+16
   -0.618732    1.09356  0.3808E-11  0.1219E-13  0.7603E-17  0.1000E-09  0.0000E+00  0.5689E+16
   -0.687482    1.21607  0.3808E-11  0.1219E-13  0.7603E-17  0.1000E-09  0.0000E+00  0.5475E+16
   -0.756233    1.33959  0.3808E-11  0.1219E-13  0.7603E-17  0.1000E-09  0.0000E+00  0.5266E+16
   -0.824984    1.46436  0.3808E-11  0.1219E-13  0.7603E-17  0.1000E-09  0.0000E+00  0.5055E+16
   -0.893735    1.59048  0.3807E-11  0.1219E-13  0.7603E-17  0.1000E-09  0.0000E+00  0.4839E+16
   -0.962487    1.71805  0.3806E-11  0.1219E-13  0.7603E-17  0.1000E-09  0.0000E+00  0.4616E+16
   -1.031239    1.84712  0.3803E-11  0.1219E-13  0.7603E-17  0.1000E-09  0.0000E+00  0.4387E+16
   -1.099990    1.97773  0.3797E-11  0.4250E-13  0.7731E-17  0.1000E-09  0.0000E+00  0.4149E+16
   -1.168743    2.10989  0.3788E-11  0.1219E-12  0.1615E-16  0.1000E-09  0.0000E+00  0.3901E+16
   -1.237495    2.24359  0.3775E-11  0.3037E-12  0.3729E-16  0.1000E-09  0.0000E+00  0.3644E+16
   -1.306247    2.37878  0.3759E-11  0.7222E-12  0.8571E-16  0.1000E-09  0.0000E+00  0.3376E+16
   -1.374999    2.51541  0.3743E-11  0.1686E-11  0.1948E-15  0.1000E-09  0.0000E+00  0.3101E+16
   -1.443751    2.65350  0.3730E-11  0.3891E-11  0.4385E-15  0.1000E-09  0.0000E+00  0.2816E+16
   -1.512504    2.79299  0.3720E-11  0.8894E-11  0.9780E-15  0.1000E-09  0.0000E+00  0.2521E+16
   -1.581256    2.93379  0.3713E-11  0.2014E-10  0.2162E-14  0.1000E-09  0.0000E+00  0.2217E+16
   -1.650008    3.07574  0.3709E-11  0.4522E-10  0.4735E-14  0.1000E-09  0.0000E+00  0.1903E+16
   -1.718760    3.21858  0.3707E-11  0.1006E-09  0.1028E-13  0.1000E-09  0.0000E+00  0.1579E+16
   -1.787511    3.36182  0.3704E-11  0.2272E-09  0.2266E-13  0.1000E-09  0.0000E+00  0.1258E+16
   -1.856263    3.50591  0.3702E-11  0.5174E-09  0.5037E-13  0.2768E-09  0.0000E+00  0.9258E+15
   -1.925014    3.64962  0.3698E-11  0.1177E-08  0.1118E-12  0.9559E-09  0.0000E+00  0.5948E+15
   -1.993765    3.79204  0.3694E-11  0.2663E-08  0.2473E-12  0.4602E-08  0.0000E+00  0.2731E+15
   -2.062516    3.93223  0.3693E-11  0.5507E-08  0.5035E-12  0.1393E-06  0.0000E+00  0.1908E+14
   -2.131266    4.00902  0.3693E-11  0.6405E-08  0.5899E-12  0.2982E-04  0.0000E+00 -0.2560E+12
   -2.200016    4.00973  0.3693E-11  0.6773E-08  0.6350E-12  0.3000E-04  0.0000E+00 -0.2620E+12
   -2.268766    4.01044  0.3693E-11  0.7050E-08  0.6828E-12  0.2933E-04  0.0000E+00 -0.2761E+12
   -2.337515    4.01116  0.3693E-11  0.7250E-08  0.7395E-12  0.2768E-04  0.0000E+00 -0.3018E+12
   -2.406263    4.01192  0.3693E-11  0.7369E-08  0.8132E-12  0.2493E-04  0.0000E+00 -0.3468E+12
   -2.475012    4.01277  0.3693E-11  0.7387E-08  0.9219E-12  0.2087E-04  0.0000E+00 -0.4312E+12
   -2.543759    4.01379  0.3693E-11  0.7258E-08  0.1112E-11  0.1529E-04  0.0000E+00 -0.6199E+12
   -2.612506    4.01520  0.3693E-11  0.6818E-08  0.1572E-11  0.8161E-05  0.0000E+00 -0.1264E+13
   -2.681253    4.01787  0.3693E-11  0.4909E-08  0.4291E-11  0.1099E-05  0.0000E+00 -0.1255E+14
   -2.749998    4.03729  0.3693E-11  0.0000E+00  0.0000E+00  0.0000E+00  0.0000E+00  0.0000E+00
