 1 - depth, m
 2 - temperature, C
 3 - salinity, kg/kg
 4 - turbulent kinetic energy, m**2/s**2
 5 - dissipation rate, m**2/s**3
 6 - kinematic heat conductance, m**2/s
 7 - modulus of horizontal velocity, m/s
 8 - Richardson number, n/d
   -0.000000   -0.00000  0.1236E-09  0.1219E-13  0.7603E-17  0.1000E-09  0.0000E+00  0.6897E+16
   -0.068746    0.10494  0.7455E-10  0.1219E-13  0.7603E-17  0.1000E-09  0.0000E+00  0.6648E+16
   -0.137492    0.20905  0.5385E-10  0.1219E-13  0.7603E-17  0.1000E-09  0.0000E+00  0.6415E+16
   -0.206239    0.31247  0.4657E-10  0.1219E-13  0.7603E-17  0.1000E-09  0.0000E+00  0.6195E+16
   -0.274987    0.41538  0.4437E-10  0.1219E-13  0.7603E-17  0.1000E-09  0.0000E+00  0.5988E+16
   -0.343735    0.51794  0.4379E-10  0.1219E-13  0.7603E-17  0.1000E-09  0.0000E+00  0.5794E+16
   -0.412483    0.62031  0.4365E-10  0.1219E-13  0.7603E-17  0.1000E-09  0.0000E+00  0.5609E+16
   -0.481232    0.72266  0.4362E-10  0.1219E-13  0.7603E-17  0.1000E-09  0.0000E+00  0.5433E+16
   -0.549982    0.82513  0.4361E-10  0.1219E-13  0.7603E-17  0.1000E-09  0.0000E+00  0.5264E+16
   -0.618732    0.92787  0.4361E-10  0.1219E-13  0.7603E-17  0.1000E-09  0.0000E+00  0.5101E+16
   -0.687482    1.03101  0.4361E-10  0.1219E-13  0.7603E-17  0.1000E-09  0.0000E+00  0.4951E+16
   -0.756233    1.13486  0.4361E-10  0.1219E-13  0.7603E-17  0.1000E-09  0.0000E+00  0.4807E+16
   -0.824984    1.23964  0.4361E-10  0.1219E-13  0.7603E-17  0.1000E-09  0.0000E+00  0.4663E+16
   -0.893735    1.34543  0.4361E-10  0.1219E-13  0.7603E-17  0.1000E-09  0.0000E+00  0.4516E+16
   -0.962487    1.45228  0.4361E-10  0.1219E-13  0.7603E-17  0.1000E-09  0.0000E+00  0.4365E+16
   -1.031239    1.56023  0.4360E-10  0.1219E-13  0.7603E-17  0.1000E-09  0.0000E+00  0.4209E+16
   -1.099990    1.66929  0.4357E-10  0.1219E-13  0.7603E-17  0.1000E-09  0.0000E+00  0.4048E+16
   -1.168742    1.77945  0.4353E-10  0.1219E-13  0.7603E-17  0.1000E-09  0.0000E+00  0.3880E+16
   -1.237495    1.89066  0.4345E-10  0.1219E-13  0.7603E-17  0.1000E-09  0.0000E+00  0.3704E+16
   -1.306247    2.00286  0.4333E-10  0.1219E-13  0.7603E-17  0.1000E-09  0.0000E+00  0.3521E+16
   -1.374999    2.11597  0.4318E-10  0.1219E-13  0.7603E-17  0.1000E-09  0.0000E+00  0.3335E+16
   -1.443751    2.23001  0.4303E-10  0.1219E-13  0.7603E-17  0.1000E-09  0.0000E+00  0.3141E+16
   -1.512503    2.34489  0.4289E-10  0.1219E-13  0.7603E-17  0.1000E-09  0.0000E+00  0.2940E+16
   -1.581256    2.46045  0.4280E-10  0.1219E-13  0.7603E-17  0.1000E-09  0.0000E+00  0.2732E+16
   -1.650008    2.57652  0.4274E-10  0.1219E-13  0.7603E-17  0.1000E-09  0.0000E+00  0.2518E+16
   -1.718759    2.69290  0.4271E-10  0.1219E-13  0.7603E-17  0.1000E-09  0.0000E+00  0.2299E+16
   -1.787511    2.80943  0.4268E-10  0.1219E-13  0.7603E-17  0.1000E-09  0.0000E+00  0.2095E+16
   -1.856263    2.92691  0.4266E-10  0.3166E-13  0.9841E-17  0.1000E-09  0.0000E+00  0.1885E+16
   -1.925014    3.04530  0.4263E-10  0.1183E-12  0.3128E-16  0.1000E-09  0.0000E+00  0.1670E+16
   -1.993765    3.16461  0.4259E-10  0.4229E-12  0.1065E-15  0.1000E-09  0.0000E+00  0.1448E+16
   -2.062516    3.28452  0.4251E-10  0.1441E-11  0.3500E-15  0.1000E-09  0.0000E+00  0.1217E+16
   -2.131266    3.40434  0.4242E-10  0.4812E-11  0.1128E-14  0.1000E-09  0.0000E+00  0.9859E+15
   -2.200016    3.52387  0.4233E-10  0.1581E-10  0.3581E-14  0.1000E-09  0.0000E+00  0.7563E+15
   -2.268766    3.64292  0.4225E-10  0.5169E-10  0.1131E-13  0.1084E-09  0.0000E+00  0.5313E+15
   -2.337515    3.76185  0.4222E-10  0.1698E-09  0.3594E-13  0.5909E-09  0.0000E+00  0.3077E+15
   -2.406263    3.88047  0.4221E-10  0.5551E-09  0.1138E-12  0.6511E-08  0.0000E+00  0.8728E+14
   -2.475011    3.99469  0.4221E-10  0.1439E-08  0.2933E-12  0.2532E-05  0.0000E+00 -0.1160E+13
   -2.543759    4.00111  0.4221E-10  0.1922E-08  0.4748E-12  0.2777E-05  0.0000E+00 -0.1702E+13
   -2.612506    4.00720  0.4221E-10  0.2224E-08  0.8231E-12  0.1971E-05  0.0000E+00 -0.3652E+13
   -2.681252    4.01636  0.4221E-10  0.2233E-08  0.2164E-11  0.6541E-06  0.0000E+00 -0.2279E+14
   -2.749998    4.04807  0.4221E-10  0.0000E+00  0.0000E+00  0.0000E+00  0.0000E+00  0.0000E+00
