 1 - depth, m
 2 - temperature, C
 3 - salinity, kg/kg
 4 - turbulent kinetic energy, m**2/s**2
 5 - dissipation rate, m**2/s**3
 6 - kinematic heat conductance, m**2/s
 7 - modulus of horizontal velocity, m/s
 8 - Richardson number, n/d
   -0.000000   -0.00000  0.9085E-13  0.1219E-13  0.7603E-17  0.1000E-09  0.0000E+00  0.6850E+16
   -0.068746    0.10421  0.6720E-12  0.1219E-13  0.7603E-17  0.1000E-09  0.0000E+00  0.6767E+16
   -0.137493    0.21017  0.1268E-11  0.1219E-13  0.7603E-17  0.1000E-09  0.0000E+00  0.6670E+16
   -0.206240    0.31782  0.1617E-11  0.1219E-13  0.7603E-17  0.1000E-09  0.0000E+00  0.6559E+16
   -0.274988    0.42704  0.1719E-11  0.1219E-13  0.7603E-17  0.1000E-09  0.0000E+00  0.6433E+16
   -0.343736    0.53774  0.1671E-11  0.1219E-13  0.7603E-17  0.1000E-09  0.0000E+00  0.6293E+16
   -0.412485    0.64980  0.1569E-11  0.1219E-13  0.7603E-17  0.1000E-09  0.0000E+00  0.6139E+16
   -0.481234    0.76308  0.1468E-11  0.1219E-13  0.7603E-17  0.1000E-09  0.0000E+00  0.5972E+16
   -0.549984    0.87746  0.1392E-11  0.1219E-13  0.7603E-17  0.1000E-09  0.0000E+00  0.5793E+16
   -0.618734    0.99281  0.1344E-11  0.1219E-13  0.7603E-17  0.1000E-09  0.0000E+00  0.5604E+16
   -0.687485    1.10902  0.1316E-11  0.1219E-13  0.7603E-17  0.1000E-09  0.0000E+00  0.5405E+16
   -0.756236    1.22597  0.1302E-11  0.1219E-13  0.7603E-17  0.1000E-09  0.0000E+00  0.5198E+16
   -0.824987    1.34355  0.1295E-11  0.1219E-13  0.7603E-17  0.1000E-09  0.0000E+00  0.4984E+16
   -0.893738    1.46165  0.1292E-11  0.1219E-13  0.7603E-17  0.1000E-09  0.0000E+00  0.4763E+16
   -0.962490    1.58018  0.1290E-11  0.1219E-13  0.7603E-17  0.1000E-09  0.0000E+00  0.4538E+16
   -1.031242    1.69904  0.1289E-11  0.1219E-13  0.7603E-17  0.1000E-09  0.0000E+00  0.4308E+16
   -1.099994    1.81815  0.1287E-11  0.1219E-13  0.7603E-17  0.1000E-09  0.0000E+00  0.4076E+16
   -1.168747    1.93743  0.1285E-11  0.1219E-13  0.7603E-17  0.1000E-09  0.0000E+00  0.3841E+16
   -1.237499    2.05682  0.1283E-11  0.1219E-13  0.7603E-17  0.1000E-09  0.0000E+00  0.3604E+16
   -1.306251    2.17624  0.1280E-11  0.1219E-13  0.7603E-17  0.1000E-09  0.0000E+00  0.3367E+16
   -1.375004    2.29566  0.1276E-11  0.1219E-13  0.7603E-17  0.1000E-09  0.0000E+00  0.3131E+16
   -1.443756    2.41504  0.1273E-11  0.1219E-13  0.7603E-17  0.1000E-09  0.0000E+00  0.2894E+16
   -1.512509    2.53435  0.1269E-11  0.1219E-13  0.7603E-17  0.1000E-09  0.0000E+00  0.2659E+16
   -1.581261    2.65356  0.1266E-11  0.1219E-13  0.7603E-17  0.1000E-09  0.0000E+00  0.2424E+16
   -1.650013    2.77267  0.1263E-11  0.3049E-13  0.7641E-17  0.1000E-09  0.0000E+00  0.2191E+16
   -1.718766    2.89166  0.1261E-11  0.9682E-13  0.1694E-16  0.1000E-09  0.0000E+00  0.1958E+16
   -1.787518    3.01045  0.1259E-11  0.2772E-12  0.4482E-16  0.1000E-09  0.0000E+00  0.1702E+16
   -1.856269    3.12714  0.1257E-11  0.7692E-12  0.1198E-15  0.1000E-09  0.0000E+00  0.1452E+16
   -1.925021    3.24126  0.1256E-11  0.2104E-11  0.3175E-15  0.1000E-09  0.0000E+00  0.1212E+16
   -1.993772    3.35221  0.1254E-11  0.5706E-11  0.8356E-15  0.1000E-09  0.0000E+00  0.9884E+15
   -2.062523    3.45996  0.1254E-11  0.1500E-10  0.2133E-14  0.1000E-09  0.0000E+00  0.8009E+15
   -2.131274    3.56732  0.1253E-11  0.3885E-10  0.5367E-14  0.1000E-09  0.0000E+00  0.6178E+15
   -2.200024    3.67464  0.1253E-11  0.9963E-10  0.1337E-13  0.1561E-09  0.0000E+00  0.4355E+15
   -2.268774    3.78193  0.1252E-11  0.2552E-09  0.3329E-13  0.6672E-09  0.0000E+00  0.2534E+15
   -2.337523    3.88888  0.1252E-11  0.6585E-09  0.8358E-13  0.5698E-08  0.0000E+00  0.7415E+14
   -2.406272    3.99220  0.1252E-11  0.1277E-08  0.1620E-12  0.3835E-05  0.0000E+00 -0.4620E+12
   -2.475020    3.99601  0.1252E-11  0.1587E-08  0.2227E-12  0.4456E-05  0.0000E+00 -0.5741E+12
   -2.543768    3.99925  0.1252E-11  0.1780E-08  0.3021E-12  0.3959E-05  0.0000E+00 -0.8249E+12
   -2.612515    4.00283  0.1252E-11  0.1801E-08  0.4500E-12  0.2418E-05  0.0000E+00 -0.1684E+13
   -2.681262    4.00840  0.1252E-11  0.1387E-08  0.1033E-11  0.4411E-06  0.0000E+00 -0.1156E+14
   -2.750008    4.03063  0.1252E-11  0.0000E+00  0.0000E+00  0.0000E+00  0.0000E+00  0.0000E+00
