 1 - depth, m
 2 - temperature, C
 3 - salinity, kg/kg
 4 - turbulent kinetic energy, m**2/s**2
 5 - dissipation rate, m**2/s**3
 6 - kinematic heat conductance, m**2/s
 7 - modulus of horizontal velocity, m/s
 8 - Richardson number, n/d
   -0.000000   -0.00000  0.4786E-11  0.2687E-05  0.6321E-07  0.9324E-05  0.1329E-01  0.1073E+17
   -0.068750    0.21468  0.4780E-11  0.2226E-05  0.3171E-07  0.1146E-04  0.1060E-01  0.4634E+16
   -0.137500    0.34462  0.5225E-11  0.1811E-05  0.2001E-07  0.1092E-04  0.8734E-02  0.1551E+16
   -0.206251    0.41712  0.9346E-11  0.1455E-05  0.1378E-07  0.9554E-05  0.7217E-02  0.1288E+15
   -0.275002    0.45348  0.1239E-10  0.1130E-05  0.9850E-08  0.8187E-04  0.5946E-02  0.2731E+14
   -0.343754    0.48484  0.1346E-10  0.8487E-06  0.7123E-08  0.8347E-04  0.4842E-02  0.8857E+14
   -0.412506    0.51571  0.1707E-10  0.6087E-06  0.5106E-08  0.7939E-04  0.3857E-02  0.2092E+15
   -0.481259    0.54757  0.2427E-10  0.4091E-06  0.3542E-08  0.6256E-04  0.2969E-02  0.3942E+15
   -0.550013    0.58170  0.3426E-10  0.2480E-06  0.2289E-08  0.3400E-04  0.2168E-02  0.6453E+15
   -0.618767    0.61937  0.4495E-10  0.1242E-06  0.1266E-08  0.2155E-05  0.1454E-02  0.9219E+15
   -0.687521    0.66125  0.5417E-10  0.3923E-07  0.4606E-09  0.8019E-07  0.8367E-03  0.1114E+16
   -0.756275    0.70754  0.6844E-10  0.6407E-08  0.4143E-10  0.1097E-07  0.3537E-03  0.1268E+16
   -0.825030    0.75018  0.7070E-10  0.1343E-08  0.1221E-11  0.1343E-08  0.1105E-03  0.1407E+16
   -0.893785    0.79254  0.6757E-10  0.4375E-09  0.1078E-12  0.2788E-09  0.3168E-04  0.1533E+16
   -0.962541    0.83967  0.6401E-10  0.1530E-09  0.3092E-13  0.1365E-09  0.9121E-05  0.1647E+16
   -1.031296    0.89165  0.6112E-10  0.5402E-10  0.1066E-13  0.1038E-09  0.2675E-05  0.1749E+16
   -1.100052    0.94801  0.5909E-10  0.1906E-10  0.3761E-14  0.1000E-09  0.8064E-06  0.1841E+16
   -1.168808    1.00827  0.5780E-10  0.6698E-11  0.1334E-14  0.1000E-09  0.2526E-06  0.1924E+16
   -1.237564    1.07194  0.5705E-10  0.2341E-11  0.4746E-15  0.1000E-09  0.8290E-07  0.1995E+16
   -1.306320    1.13847  0.5663E-10  0.8145E-12  0.1701E-15  0.1000E-09  0.2864E-07  0.2050E+16
   -1.375076    1.20727  0.5641E-10  0.2874E-12  0.6512E-16  0.1000E-09  0.1037E-07  0.2158E+16
   -1.443832    1.28057  0.5629E-10  0.1457E-12  0.5133E-16  0.1000E-09  0.3880E-08  0.2339E+16
   -1.512588    1.36169  0.5622E-10  0.3433E-12  0.1826E-15  0.1000E-09  0.1474E-08  0.2726E+16
   -1.581344    1.45895  0.5616E-10  0.1920E-11  0.1045E-14  0.1000E-09  0.5571E-09  0.3679E+16
   -1.650100    1.59353  0.5610E-10  0.1194E-10  0.6374E-14  0.1000E-09  0.2029E-09  0.5845E+16
   -1.718856    1.81198  0.5602E-10  0.7610E-10  0.3967E-13  0.1038E-09  0.5740E-10  0.9404E+16
   -1.787611    2.18614  0.5592E-10  0.5036E-09  0.2554E-12  0.2183E-09  0.3720E-11  0.7796E+16
   -1.856367    2.48617  0.5581E-10  0.3230E-08  0.1590E-11  0.1378E-08  0.2233E-12  0.4895E+16
   -1.925122    2.71328  0.5570E-10  0.1803E-07  0.8635E-11  0.9588E-08  0.1246E-13  0.2467E+16
   -1.993876    2.87784  0.5551E-10  0.4785E-07  0.2284E-10  0.8230E-05  0.6564E-15  0.8789E+15
   -2.062631    3.01429  0.5545E-10  0.7763E-07  0.3844E-10  0.3021E-04  0.7751E-16  0.1823E+16
   -2.131385    3.21344  0.5531E-10  0.1086E-06  0.5631E-10  0.5321E-04  0.5354E-16  0.2526E+16
   -2.200139    3.46730  0.5523E-10  0.1378E-06  0.7493E-10  0.7420E-04  0.3976E-16  0.2624E+16
   -2.268892    3.74731  0.5517E-10  0.1625E-06  0.9286E-10  0.9211E-04  0.2846E-16  0.1681E+16
   -2.337645    3.97575  0.5513E-10  0.1823E-06  0.1103E-09  0.1046E-03  0.1990E-16  0.7804E+15
   -2.406398    4.13253  0.5511E-10  0.1966E-06  0.1274E-09  0.1103E-03  0.1349E-16  0.1097E+15
   -2.475150    4.19355  0.5510E-10  0.2045E-06  0.1453E-09  0.1071E-03  0.8830E-17 -0.1487E+14
   -2.543901    4.19822  0.5510E-10  0.2062E-06  0.1697E-09  0.9219E-04  0.5426E-17 -0.1830E+14
   -2.612652    4.20382  0.5510E-10  0.2007E-06  0.2244E-09  0.5702E-04  0.2786E-17 -0.3173E+14
   -2.681402    4.21318  0.5510E-10  0.1442E-06  0.6499E-09  0.6719E-05  0.9775E-18 -0.3392E+15
   -2.750152    4.29538  0.5510E-10  0.0000E+00  0.0000E+00  0.0000E+00  0.9594E-18  0.0000E+00
