 1 - depth, m
 2 - temperature, C
 3 - salinity, kg/kg
 4 - turbulent kinetic energy, m**2/s**2
 5 - dissipation rate, m**2/s**3
 6 - kinematic heat conductance, m**2/s
 7 - modulus of horizontal velocity, m/s
 8 - Richardson number, n/d
   -0.000000   -0.00000  0.1804E-17  0.1218E-13  0.7603E-17  0.1000E-09  0.0000E+00  0.4294E+16
   -0.068747    0.06498  0.5112E-20  0.1218E-13  0.7603E-17  0.1000E-09  0.0000E+00  0.4497E+16
   -0.137494    0.13430  0.2929E-13  0.1218E-13  0.7603E-17  0.1000E-09  0.0000E+00  0.4661E+16
   -0.206242    0.20757  0.8600E-12  0.1218E-13  0.7603E-17  0.1000E-09  0.0000E+00  0.4795E+16
   -0.274991    0.28455  0.2455E-11  0.1218E-13  0.7603E-17  0.1000E-09  0.0000E+00  0.4904E+16
   -0.343740    0.36508  0.4189E-11  0.1218E-13  0.7603E-17  0.1000E-09  0.0000E+00  0.4991E+16
   -0.412489    0.44904  0.5497E-11  0.1218E-13  0.7603E-17  0.1000E-09  0.0000E+00  0.5057E+16
   -0.481240    0.53634  0.6173E-11  0.1218E-13  0.7603E-17  0.1000E-09  0.0000E+00  0.5103E+16
   -0.549990    0.62686  0.6315E-11  0.1218E-13  0.7603E-17  0.1000E-09  0.0000E+00  0.5127E+16
   -0.618741    0.72048  0.6143E-11  0.1218E-13  0.7603E-17  0.1000E-09  0.0000E+00  0.5129E+16
   -0.687492    0.81705  0.5854E-11  0.1218E-13  0.7603E-17  0.1000E-09  0.0000E+00  0.5103E+16
   -0.756244    0.91631  0.5576E-11  0.1218E-13  0.7603E-17  0.1000E-09  0.0000E+00  0.5052E+16
   -0.824996    1.01803  0.5362E-11  0.1218E-13  0.7603E-17  0.1000E-09  0.0000E+00  0.4980E+16
   -0.893748    1.12202  0.5218E-11  0.1218E-13  0.7603E-17  0.1000E-09  0.0000E+00  0.4889E+16
   -0.962501    1.22809  0.5131E-11  0.1218E-13  0.7603E-17  0.1000E-09  0.0000E+00  0.4780E+16
   -1.031254    1.33610  0.5082E-11  0.1218E-13  0.7603E-17  0.1000E-09  0.0000E+00  0.4655E+16
   -1.100007    1.44591  0.5056E-11  0.1218E-13  0.7603E-17  0.1000E-09  0.0000E+00  0.4517E+16
   -1.168760    1.55741  0.5042E-11  0.1218E-13  0.7603E-17  0.1000E-09  0.0000E+00  0.4367E+16
   -1.237513    1.67052  0.5033E-11  0.1218E-13  0.7603E-17  0.1000E-09  0.0000E+00  0.4208E+16
   -1.306266    1.78522  0.5025E-11  0.1218E-13  0.7603E-17  0.1000E-09  0.0000E+00  0.4040E+16
   -1.375019    1.90150  0.5017E-11  0.1218E-13  0.7603E-17  0.1000E-09  0.0000E+00  0.3866E+16
   -1.443772    2.01943  0.5007E-11  0.1218E-13  0.7603E-17  0.1000E-09  0.0000E+00  0.3686E+16
   -1.512526    2.13912  0.4995E-11  0.1218E-13  0.7603E-17  0.1000E-09  0.0000E+00  0.3501E+16
   -1.581279    2.26068  0.4982E-11  0.1218E-13  0.7603E-17  0.1000E-09  0.0000E+00  0.3309E+16
   -1.650032    2.38431  0.4968E-11  0.1218E-13  0.7603E-17  0.1000E-09  0.0000E+00  0.3112E+16
   -1.718785    2.51028  0.4953E-11  0.1218E-13  0.7603E-17  0.1000E-09  0.0000E+00  0.2906E+16
   -1.787538    2.63874  0.4940E-11  0.1218E-13  0.7603E-17  0.1000E-09  0.0000E+00  0.2588E+16
   -1.856290    2.76476  0.4929E-11  0.1218E-13  0.7603E-17  0.1000E-09  0.0000E+00  0.2273E+16
   -1.925042    2.88754  0.4919E-11  0.1218E-13  0.7603E-17  0.1000E-09  0.0000E+00  0.1959E+16
   -1.993794    3.00583  0.4910E-11  0.1218E-13  0.7603E-17  0.1000E-09  0.0000E+00  0.1671E+16
   -2.062546    3.11962  0.4903E-11  0.1218E-13  0.7603E-17  0.1000E-09  0.0000E+00  0.1470E+16
   -2.131297    3.23407  0.4898E-11  0.4609E-13  0.2056E-16  0.1000E-09  0.0000E+00  0.1273E+16
   -2.200048    3.34978  0.4894E-11  0.2179E-12  0.9116E-16  0.1000E-09  0.0000E+00  0.1070E+16
   -2.268799    3.46692  0.4890E-11  0.1017E-11  0.4086E-15  0.1000E-09  0.0000E+00  0.8574E+15
   -2.337549    3.58495  0.4887E-11  0.4737E-11  0.1832E-14  0.1000E-09  0.0000E+00  0.6390E+15
   -2.406299    3.70355  0.4886E-11  0.2190E-10  0.8162E-14  0.1004E-09  0.0000E+00  0.4176E+15
   -2.475048    3.82250  0.4884E-11  0.1011E-09  0.3639E-13  0.9263E-09  0.0000E+00  0.1943E+15
   -2.543796    3.94069  0.4884E-11  0.4580E-09  0.1605E-12  0.6594E-07  0.0000E+00  0.7371E+13
   -2.612544    4.02024  0.4883E-11  0.1601E-08  0.6334E-12  0.1798E-05  0.0000E+00 -0.4784E+13
   -2.681292    4.02829  0.4883E-11  0.1369E-08  0.1144E-11  0.4285E-06  0.0000E+00 -0.1591E+14
   -2.750038    4.04791  0.4883E-11  0.0000E+00  0.0000E+00  0.0000E+00  0.0000E+00  0.0000E+00
