 1 - depth, m
 2 - temperature, C
 3 - salinity, kg/kg
 4 - turbulent kinetic energy, m**2/s**2
 5 - dissipation rate, m**2/s**3
 6 - kinematic heat conductance, m**2/s
 7 - modulus of horizontal velocity, m/s
 8 - Richardson number, n/d
   -0.000000   -0.00000  0.3556E-11  0.1219E-13  0.7603E-17  0.1000E-09  0.0000E+00  0.8655E+16
   -0.068746    0.13217  0.2371E-11  0.1219E-13  0.7603E-17  0.1000E-09  0.0000E+00  0.8302E+16
   -0.137492    0.26366  0.1712E-11  0.1219E-13  0.7603E-17  0.1000E-09  0.0000E+00  0.7964E+16
   -0.206239    0.39462  0.1432E-11  0.1219E-13  0.7603E-17  0.1000E-09  0.0000E+00  0.7639E+16
   -0.274987    0.52519  0.1333E-11  0.1219E-13  0.7603E-17  0.1000E-09  0.0000E+00  0.7327E+16
   -0.343735    0.65550  0.1302E-11  0.1219E-13  0.7603E-17  0.1000E-09  0.0000E+00  0.7024E+16
   -0.412483    0.78571  0.1293E-11  0.1219E-13  0.7603E-17  0.1000E-09  0.0000E+00  0.6731E+16
   -0.481233    0.91596  0.1291E-11  0.1219E-13  0.7603E-17  0.1000E-09  0.0000E+00  0.6445E+16
   -0.549982    1.04636  0.1291E-11  0.1219E-13  0.7603E-17  0.1000E-09  0.0000E+00  0.6166E+16
   -0.618732    1.17705  0.1290E-11  0.1219E-13  0.7603E-17  0.1000E-09  0.0000E+00  0.5890E+16
   -0.687482    1.30815  0.1290E-11  0.1219E-13  0.7603E-17  0.1000E-09  0.0000E+00  0.5625E+16
   -0.756233    1.43993  0.1290E-11  0.1219E-13  0.7603E-17  0.1000E-09  0.0000E+00  0.5365E+16
   -0.824984    1.57261  0.1290E-11  0.1219E-13  0.7603E-17  0.1000E-09  0.0000E+00  0.5102E+16
   -0.893735    1.70625  0.1290E-11  0.1219E-13  0.7603E-17  0.1000E-09  0.0000E+00  0.4836E+16
   -0.962487    1.84091  0.1290E-11  0.3414E-13  0.7603E-17  0.1000E-09  0.0000E+00  0.4566E+16
   -1.031239    1.97660  0.1288E-11  0.1042E-12  0.1304E-16  0.1000E-09  0.0000E+00  0.4290E+16
   -1.099991    2.11333  0.1286E-11  0.2568E-12  0.2820E-16  0.1000E-09  0.0000E+00  0.4007E+16
   -1.168743    2.25108  0.1283E-11  0.5885E-12  0.6190E-16  0.1000E-09  0.0000E+00  0.3718E+16
   -1.237495    2.38983  0.1279E-11  0.1314E-11  0.1347E-15  0.1000E-09  0.0000E+00  0.3423E+16
   -1.306247    2.52951  0.1274E-11  0.2901E-11  0.2908E-15  0.1000E-09  0.0000E+00  0.3121E+16
   -1.374999    2.67007  0.1269E-11  0.6352E-11  0.6229E-15  0.1000E-09  0.0000E+00  0.2815E+16
   -1.443752    2.81150  0.1264E-11  0.1381E-10  0.1325E-14  0.1000E-09  0.0000E+00  0.2503E+16
   -1.512504    2.95372  0.1261E-11  0.2980E-10  0.2799E-14  0.1000E-09  0.0000E+00  0.2185E+16
   -1.581256    3.09662  0.1259E-11  0.6385E-10  0.5869E-14  0.1000E-09  0.0000E+00  0.1860E+16
   -1.650008    3.23990  0.1257E-11  0.1359E-09  0.1222E-13  0.1000E-09  0.0000E+00  0.1529E+16
   -1.718760    3.38299  0.1256E-11  0.2870E-09  0.2527E-13  0.1101E-09  0.0000E+00  0.1193E+16
   -1.787512    3.52484  0.1255E-11  0.6159E-09  0.5304E-13  0.3126E-09  0.0000E+00  0.8632E+15
   -1.856263    3.66472  0.1254E-11  0.1335E-08  0.1125E-12  0.1050E-08  0.0000E+00  0.5442E+15
   -1.925014    3.80131  0.1252E-11  0.2890E-08  0.2384E-12  0.4898E-08  0.0000E+00  0.2470E+15
   -1.993765    3.93427  0.1252E-11  0.5831E-08  0.4747E-12  0.1480E-06  0.0000E+00  0.1798E+14
   -2.062516    4.00760  0.1252E-11  0.6615E-08  0.5420E-12  0.3447E-04  0.0000E+00 -0.2020E+12
   -2.131267    4.00820  0.1252E-11  0.6946E-08  0.5775E-12  0.3474E-04  0.0000E+00 -0.2058E+12
   -2.200016    4.00879  0.1252E-11  0.7206E-08  0.6147E-12  0.3423E-04  0.0000E+00 -0.2145E+12
   -2.268766    4.00939  0.1252E-11  0.7399E-08  0.6562E-12  0.3291E-04  0.0000E+00 -0.2293E+12
   -2.337515    4.01002  0.1252E-11  0.7532E-08  0.7075E-12  0.3062E-04  0.0000E+00 -0.2536E+12
   -2.406264    4.01069  0.1252E-11  0.7595E-08  0.7764E-12  0.2722E-04  0.0000E+00 -0.2947E+12
   -2.475012    4.01145  0.1252E-11  0.7569E-08  0.8802E-12  0.2249E-04  0.0000E+00 -0.3704E+12
   -2.543760    4.01238  0.1252E-11  0.7404E-08  0.1065E-11  0.1624E-04  0.0000E+00 -0.5387E+12
   -2.612507    4.01366  0.1252E-11  0.6935E-08  0.1516E-11  0.8519E-05  0.0000E+00 -0.1114E+13
   -2.681253    4.01615  0.1252E-11  0.4942E-08  0.4249E-11  0.1090E-05  0.0000E+00 -0.1154E+14
   -2.749999    4.03493  0.1252E-11  0.0000E+00  0.0000E+00  0.0000E+00  0.0000E+00  0.0000E+00
