 1 - depth, m
 2 - temperature, C
 3 - salinity, kg/kg
 4 - turbulent kinetic energy, m**2/s**2
 5 - dissipation rate, m**2/s**3
 6 - kinematic heat conductance, m**2/s
 7 - modulus of horizontal velocity, m/s
 8 - Richardson number, n/d
   -0.000000   -0.00000  0.1443E-09  0.1219E-13  0.7603E-17  0.1000E-09  0.2420E-65  0.3657E+16
   -0.068746    0.05527  0.8512E-10  0.1219E-13  0.7603E-17  0.1000E-09  0.2095E-65  0.3292E+16
   -0.137492    0.10574  0.7529E-10  0.1219E-13  0.7603E-17  0.1000E-09  0.1859E-65  0.2898E+16
   -0.206239    0.15077  0.7366E-10  0.1219E-13  0.7603E-17  0.1000E-09  0.1627E-65  0.2499E+16
   -0.274987    0.19005  0.7342E-10  0.1219E-13  0.7603E-17  0.1000E-09  0.1395E-65  0.2114E+16
   -0.343735    0.22362  0.7339E-10  0.1219E-13  0.7603E-17  0.1000E-09  0.1175E-65  0.1760E+16
   -0.412483    0.25181  0.7339E-10  0.1219E-13  0.7603E-17  0.1000E-09  0.9771E-66  0.1450E+16
   -0.481233    0.27522  0.7339E-10  0.1219E-13  0.7603E-17  0.1000E-09  0.8049E-66  0.1195E+16
   -0.549982    0.29462  0.7339E-10  0.1219E-13  0.7603E-17  0.1000E-09  0.6583E-66  0.1002E+16
   -0.618732    0.31098  0.7339E-10  0.1219E-13  0.7603E-17  0.1000E-09  0.5351E-66  0.8781E+15
   -0.687482    0.32537  0.7339E-10  0.1219E-13  0.7603E-17  0.1000E-09  0.4323E-66  0.8418E+15
   -0.756233    0.33923  0.7339E-10  0.1219E-13  0.7603E-17  0.1000E-09  0.3471E-66  0.8927E+15
   -0.824984    0.35398  0.7339E-10  0.1219E-13  0.7603E-17  0.1000E-09  0.2769E-66  0.1027E+16
   -0.893735    0.37104  0.7339E-10  0.1219E-13  0.7603E-17  0.1000E-09  0.2194E-66  0.1250E+16
   -0.962487    0.39191  0.7339E-10  0.1219E-13  0.7603E-17  0.1000E-09  0.1728E-66  0.1562E+16
   -1.031239    0.41818  0.7339E-10  0.1219E-13  0.7603E-17  0.1000E-09  0.1351E-66  0.1965E+16
   -1.099991    0.45153  0.7339E-10  0.1219E-13  0.7603E-17  0.1000E-09  0.1049E-66  0.2456E+16
   -1.168743    0.49366  0.7339E-10  0.1219E-13  0.7603E-17  0.1000E-09  0.8089E-67  0.3027E+16
   -1.237495    0.54635  0.7338E-10  0.1219E-13  0.7603E-17  0.1000E-09  0.6185E-67  0.3664E+16
   -1.306247    0.61129  0.7335E-10  0.1219E-13  0.7603E-17  0.1000E-09  0.4683E-67  0.4349E+16
   -1.374999    0.69014  0.7321E-10  0.1219E-13  0.7603E-17  0.1000E-09  0.3499E-67  0.5104E+16
   -1.443752    0.78527  0.7285E-10  0.1219E-13  0.7603E-17  0.1000E-09  0.2566E-67  0.5855E+16
   -1.512504    0.89822  0.7230E-10  0.1219E-13  0.7603E-17  0.1000E-09  0.1823E-67  0.6544E+16
   -1.581256    1.02984  0.7199E-10  0.1219E-13  0.7603E-17  0.1000E-09  0.1222E-67  0.7128E+16
   -1.650008    1.18057  0.7190E-10  0.1219E-13  0.7603E-17  0.1000E-09  0.7202E-68  0.7563E+16
   -1.718760    1.35038  0.7185E-10  0.1219E-13  0.7603E-17  0.1000E-09  0.2778E-68  0.7792E+16
   -1.787512    1.53818  0.7181E-10  0.1219E-13  0.7603E-17  0.1000E-09  0.1882E-69  0.7393E+16
   -1.856263    1.73141  0.7179E-10  0.1219E-13  0.7603E-17  0.1000E-09  0.1174E-70  0.6878E+16
   -1.925014    1.92806  0.7178E-10  0.1219E-13  0.7603E-17  0.1000E-09  0.6693E-72  0.6259E+16
   -1.993765    2.12565  0.7178E-10  0.1219E-13  0.7603E-17  0.1000E-09  0.4154E-73  0.5635E+16
   -2.062516    2.32418  0.7177E-10  0.2364E-13  0.1303E-16  0.1000E-09  0.3351E-74  0.5244E+16
   -2.131267    2.53385  0.7173E-10  0.1206E-12  0.6248E-16  0.1000E-09  0.2529E-75  0.4743E+16
   -2.200016    2.75466  0.7166E-10  0.6316E-12  0.3128E-15  0.1000E-09  0.1774E-76  0.4103E+16
   -2.268766    2.98512  0.7153E-10  0.3264E-11  0.1547E-14  0.1000E-09  0.8494E-78  0.3349E+16
   -2.337515    3.22417  0.7127E-10  0.1677E-10  0.7615E-14  0.1000E-09  0.3330E-79  0.2492E+16
   -2.406264    3.47062  0.7093E-10  0.8513E-10  0.3706E-13  0.1209E-09  0.1113E-80  0.1551E+16
   -2.475012    3.72325  0.7090E-10  0.4295E-09  0.1795E-12  0.1663E-08  0.3097E-82  0.5429E+15
   -2.543760    3.97885  0.7090E-10  0.1869E-08  0.7640E-12  0.1132E-05  0.7133E-84 -0.3558E+13
   -2.612507    4.00936  0.7090E-10  0.3655E-08  0.2166E-11  0.2085E-05  0.1845E-85 -0.9518E+13
   -2.681253    4.02810  0.7090E-10  0.4905E-08  0.6408E-11  0.1158E-05  0.3772E-87 -0.4384E+14
   -2.749999    4.07203  0.7090E-10  0.0000E+00  0.0000E+00  0.0000E+00  0.4092E-87  0.0000E+00
