 1 - depth, m
 2 - temperature, C
 3 - salinity, kg/kg
 4 - turbulent kinetic energy, m**2/s**2
 5 - dissipation rate, m**2/s**3
 6 - kinematic heat conductance, m**2/s
 7 - modulus of horizontal velocity, m/s
 8 - Richardson number, n/d
   -0.000000    6.45626  0.5615E-12  0.9975E-05  0.3309E-06  0.2992E-04  0.2097E-01 -0.2437E-01
   -0.068746    6.50415  0.5615E-12  0.9608E-05  0.1271E-06  0.7723E-04  0.1381E-01 -0.6218E-01
   -0.137492    6.52207  0.5615E-12  0.9255E-05  0.7541E-07  0.1298E-03  0.1104E-01 -0.1052E+00
   -0.206239    6.53239  0.5615E-12  0.8967E-05  0.5243E-07  0.1877E-03  0.9421E-02 -0.1531E+00
   -0.274987    6.53931  0.5615E-12  0.8739E-05  0.3968E-07  0.2529E-03  0.8314E-02 -0.1981E+00
   -0.343735    6.54430  0.5615E-12  0.8559E-05  0.3174E-07  0.3519E-03  0.7498E-02  0.1398E+01
   -0.412484    6.54788  0.5616E-12  0.8422E-05  0.2655E-07  0.5605E-03  0.6872E-02  0.4641E+02
   -0.481233    6.55018  0.5616E-12  0.8331E-05  0.2309E-07  0.8527E-03  0.6393E-02  0.9577E+02
   -0.549983    6.55164  0.5616E-12  0.8282E-05  0.2061E-07  0.1069E-02  0.6010E-02  0.1011E+03
   -0.618733    6.55270  0.5616E-12  0.8256E-05  0.1865E-07  0.1132E-02  0.5663E-02  0.8950E+01
   -0.687483    6.55368  0.5616E-12  0.8242E-05  0.1702E-07  0.1176E-02  0.5330E-02  0.9653E+01
   -0.756234    6.55460  0.5616E-12  0.8234E-05  0.1566E-07  0.1218E-02  0.5015E-02  0.1013E+02
   -0.824985    6.55546  0.5616E-12  0.8227E-05  0.1452E-07  0.1258E-02  0.4714E-02  0.1056E+02
   -0.893737    6.55628  0.5616E-12  0.8217E-05  0.1354E-07  0.1296E-02  0.4427E-02  0.1098E+02
   -0.962488    6.55705  0.5616E-12  0.8203E-05  0.1269E-07  0.1332E-02  0.4150E-02  0.1139E+02
   -1.031240    6.55778  0.5616E-12  0.8182E-05  0.1195E-07  0.1365E-02  0.3882E-02  0.1183E+02
   -1.099992    6.55848  0.5616E-12  0.8152E-05  0.1131E-07  0.1395E-02  0.3623E-02  0.1231E+02
   -1.168744    6.55914  0.5616E-12  0.8113E-05  0.1074E-07  0.1423E-02  0.3370E-02  0.1285E+02
   -1.237496    6.55978  0.5616E-12  0.8063E-05  0.1024E-07  0.1446E-02  0.3124E-02  0.1348E+02
   -1.306249    6.56039  0.5616E-12  0.8001E-05  0.9789E-08  0.1466E-02  0.2883E-02  0.1422E+02
   -1.375001    6.56097  0.5616E-12  0.7926E-05  0.9390E-08  0.1481E-02  0.2646E-02  0.1514E+02
   -1.443753    6.56154  0.5616E-12  0.7838E-05  0.9035E-08  0.1491E-02  0.2413E-02  0.1631E+02
   -1.512506    6.56209  0.5616E-12  0.7735E-05  0.8717E-08  0.1496E-02  0.2182E-02  0.1787E+02
   -1.581258    6.56261  0.5616E-12  0.7617E-05  0.8433E-08  0.1493E-02  0.1955E-02  0.2007E+02
   -1.650010    6.56313  0.5616E-12  0.7482E-05  0.8181E-08  0.1488E-02  0.1728E-02  0.2330E+02
   -1.718762    6.56363  0.5616E-12  0.7331E-05  0.7955E-08  0.1463E-02  0.1504E-02  0.2640E+02
   -1.787514    6.56413  0.5616E-12  0.7158E-05  0.7750E-08  0.1497E-02  0.1278E-02  0.6985E+01
   -1.856266    6.56461  0.5616E-12  0.6971E-05  0.7580E-08  0.1529E-02  0.1088E-02  0.3492E+01
   -1.925017    6.56507  0.5616E-12  0.6776E-05  0.7457E-08  0.1579E-02  0.9271E-03  0.2150E+01
   -1.993768    6.56551  0.5616E-12  0.6581E-05  0.7394E-08  0.1645E-02  0.7943E-03  0.1558E+01
   -2.062519    6.56594  0.5616E-12  0.6396E-05  0.7401E-08  0.1684E-02  0.6836E-03  0.1283E+01
   -2.131269    6.56634  0.5616E-12  0.6224E-05  0.7481E-08  0.1625E-02  0.5874E-03  0.1057E+01
   -2.200019    6.56675  0.5616E-12  0.6067E-05  0.7641E-08  0.1517E-02  0.5033E-03  0.8740E+00
   -2.268769    6.56717  0.5616E-12  0.5926E-05  0.7888E-08  0.1401E-02  0.4302E-03  0.6920E+00
   -2.337518    6.56763  0.5616E-12  0.5799E-05  0.8237E-08  0.1289E-02  0.3693E-03  0.5459E+00
   -2.406267    6.56812  0.5616E-12  0.5684E-05  0.8714E-08  0.1192E-02  0.3201E-03  0.5026E+00
   -2.475015    6.56863  0.5616E-12  0.5565E-05  0.9438E-08  0.1078E-02  0.2799E-03  0.6889E+00
   -2.543763    6.56919  0.5616E-12  0.5427E-05  0.1068E-07  0.9760E-03  0.2423E-03  0.1264E+01
   -2.612510    6.56980  0.5616E-12  0.5191E-05  0.1393E-07  0.5594E-03  0.2079E-03  0.1029E+02
   -2.681256    6.57084  0.5616E-12  0.3318E-05  0.5669E-07  0.2536E-04  0.1588E-03 -0.6903E+03
   -2.750002    6.59306  0.5616E-12  0.0000E+00  0.0000E+00  0.0000E+00  0.1587E-03  0.0000E+00
