 1 - depth, m
 2 - temperature, C
 3 - salinity, kg/kg
 4 - turbulent kinetic energy, m**2/s**2
 5 - dissipation rate, m**2/s**3
 6 - kinematic heat conductance, m**2/s
 7 - modulus of horizontal velocity, m/s
 8 - Richardson number, n/d
   -0.000000   -0.00000  0.4196E-10  0.1219E-13  0.7603E-17  0.1000E-09  0.0000E+00  0.6046E+16
   -0.068746    0.09183  0.2291E-10  0.1219E-13  0.7603E-17  0.1000E-09  0.0000E+00  0.5822E+16
   -0.137492    0.18249  0.1703E-10  0.1219E-13  0.7603E-17  0.1000E-09  0.0000E+00  0.5631E+16
   -0.206239    0.27241  0.1549E-10  0.1219E-13  0.7603E-17  0.1000E-09  0.0000E+00  0.5471E+16
   -0.274987    0.36207  0.1513E-10  0.1219E-13  0.7603E-17  0.1000E-09  0.0000E+00  0.5340E+16
   -0.343735    0.45191  0.1506E-10  0.1219E-13  0.7603E-17  0.1000E-09  0.0000E+00  0.5235E+16
   -0.412483    0.54239  0.1505E-10  0.1219E-13  0.7603E-17  0.1000E-09  0.0000E+00  0.5152E+16
   -0.481232    0.63396  0.1504E-10  0.1219E-13  0.7603E-17  0.1000E-09  0.0000E+00  0.5087E+16
   -0.549982    0.72705  0.1504E-10  0.1219E-13  0.7603E-17  0.1000E-09  0.0000E+00  0.5037E+16
   -0.618732    0.82207  0.1504E-10  0.1219E-13  0.7603E-17  0.1000E-09  0.0000E+00  0.4997E+16
   -0.687482    0.91941  0.1504E-10  0.1219E-13  0.7603E-17  0.1000E-09  0.0000E+00  0.4977E+16
   -0.756233    1.01970  0.1504E-10  0.1219E-13  0.7603E-17  0.1000E-09  0.0000E+00  0.4966E+16
   -0.824984    1.12345  0.1504E-10  0.1219E-13  0.7603E-17  0.1000E-09  0.0000E+00  0.4950E+16
   -0.893735    1.23094  0.1504E-10  0.1219E-13  0.7603E-17  0.1000E-09  0.0000E+00  0.4925E+16
   -0.962487    1.34244  0.1504E-10  0.1219E-13  0.7603E-17  0.1000E-09  0.0000E+00  0.4888E+16
   -1.031238    1.45816  0.1504E-10  0.1219E-13  0.7603E-17  0.1000E-09  0.0000E+00  0.4832E+16
   -1.099990    1.57827  0.1503E-10  0.1219E-13  0.7603E-17  0.1000E-09  0.0000E+00  0.4756E+16
   -1.168742    1.70291  0.1501E-10  0.1219E-13  0.7603E-17  0.1000E-09  0.0000E+00  0.4654E+16
   -1.237494    1.83212  0.1497E-10  0.2797E-13  0.7603E-17  0.1000E-09  0.0000E+00  0.4525E+16
   -1.306247    1.96595  0.1491E-10  0.9195E-13  0.1623E-16  0.1000E-09  0.0000E+00  0.4364E+16
   -1.374999    2.10434  0.1483E-10  0.2587E-12  0.4177E-16  0.1000E-09  0.0000E+00  0.4179E+16
   -1.443751    2.24747  0.1476E-10  0.6898E-12  0.1071E-15  0.1000E-09  0.0000E+00  0.3959E+16
   -1.512503    2.39529  0.1471E-10  0.1799E-11  0.2707E-15  0.1000E-09  0.0000E+00  0.3702E+16
   -1.581255    2.54756  0.1468E-10  0.4620E-11  0.6747E-15  0.1000E-09  0.0000E+00  0.3408E+16
   -1.650007    2.70403  0.1467E-10  0.1171E-10  0.1660E-14  0.1000E-09  0.0000E+00  0.3077E+16
   -1.718759    2.86434  0.1466E-10  0.2929E-10  0.4034E-14  0.1000E-09  0.0000E+00  0.2714E+16
   -1.787511    3.02820  0.1465E-10  0.7428E-10  0.9933E-14  0.1000E-09  0.0000E+00  0.2344E+16
   -1.856262    3.19712  0.1465E-10  0.1892E-09  0.2458E-13  0.1000E-09  0.0000E+00  0.1938E+16
   -1.925014    3.37132  0.1464E-10  0.4794E-09  0.6056E-13  0.2067E-09  0.0000E+00  0.1491E+16
   -1.993765    3.55104  0.1462E-10  0.1208E-08  0.1484E-12  0.7583E-09  0.0000E+00  0.9958E+15
   -2.062515    3.73525  0.1460E-10  0.2952E-08  0.3531E-12  0.3927E-08  0.0000E+00  0.4571E+15
   -2.131266    3.91676  0.1458E-10  0.6683E-08  0.7839E-12  0.1256E-06  0.0000E+00  0.3115E+14
   -2.200016    4.01568  0.1458E-10  0.8005E-08  0.9464E-12  0.2901E-04  0.0000E+00 -0.4218E+12
   -2.268765    4.01659  0.1458E-10  0.8524E-08  0.1031E-11  0.2908E-04  0.0000E+00 -0.4348E+12
   -2.337514    4.01749  0.1458E-10  0.8911E-08  0.1125E-11  0.2804E-04  0.0000E+00 -0.4668E+12
   -2.406263    4.01843  0.1458E-10  0.9170E-08  0.1243E-11  0.2574E-04  0.0000E+00 -0.5278E+12
   -2.475011    4.01946  0.1458E-10  0.9286E-08  0.1411E-11  0.2199E-04  0.0000E+00 -0.6462E+12
   -2.543759    4.02069  0.1458E-10  0.9206E-08  0.1699E-11  0.1653E-04  0.0000E+00 -0.9121E+12
   -2.612506    4.02234  0.1458E-10  0.8742E-08  0.2378E-11  0.9206E-05  0.0000E+00 -0.1808E+13
   -2.681252    4.02541  0.1458E-10  0.6562E-08  0.6299E-11  0.1418E-05  0.0000E+00 -0.1644E+14
   -2.749998    4.04656  0.1458E-10  0.0000E+00  0.0000E+00  0.0000E+00  0.0000E+00  0.0000E+00
