 1 - depth, m
 2 - temperature, C
 3 - salinity, kg/kg
 4 - turbulent kinetic energy, m**2/s**2
 5 - dissipation rate, m**2/s**3
 6 - kinematic heat conductance, m**2/s
 7 - modulus of horizontal velocity, m/s
 8 - Richardson number, n/d
   -0.000000   -0.00000  0.1171E-09  0.1219E-13  0.7603E-17  0.1000E-09  0.0000E+00  0.5494E+16
   -0.068746    0.08335  0.6482E-10  0.1219E-13  0.7603E-17  0.1000E-09  0.0000E+00  0.5292E+16
   -0.137492    0.16547  0.4886E-10  0.1219E-13  0.7603E-17  0.1000E-09  0.0000E+00  0.5123E+16
   -0.206239    0.24681  0.4475E-10  0.1219E-13  0.7603E-17  0.1000E-09  0.0000E+00  0.4985E+16
   -0.274986    0.32779  0.4383E-10  0.1219E-13  0.7603E-17  0.1000E-09  0.0000E+00  0.4873E+16
   -0.343735    0.40884  0.4365E-10  0.1219E-13  0.7603E-17  0.1000E-09  0.0000E+00  0.4786E+16
   -0.412483    0.49038  0.4362E-10  0.1219E-13  0.7603E-17  0.1000E-09  0.0000E+00  0.4719E+16
   -0.481232    0.57281  0.4361E-10  0.1219E-13  0.7603E-17  0.1000E-09  0.0000E+00  0.4670E+16
   -0.549982    0.65650  0.4361E-10  0.1219E-13  0.7603E-17  0.1000E-09  0.0000E+00  0.4635E+16
   -0.618732    0.74182  0.4361E-10  0.1219E-13  0.7603E-17  0.1000E-09  0.0000E+00  0.4611E+16
   -0.687482    0.82911  0.4361E-10  0.1219E-13  0.7603E-17  0.1000E-09  0.0000E+00  0.4607E+16
   -0.756233    0.91895  0.4361E-10  0.1219E-13  0.7603E-17  0.1000E-09  0.0000E+00  0.4614E+16
   -0.824984    1.01180  0.4361E-10  0.1219E-13  0.7603E-17  0.1000E-09  0.0000E+00  0.4619E+16
   -0.893735    1.10790  0.4361E-10  0.1219E-13  0.7603E-17  0.1000E-09  0.0000E+00  0.4619E+16
   -0.962486    1.20747  0.4361E-10  0.1219E-13  0.7603E-17  0.1000E-09  0.0000E+00  0.4609E+16
   -1.031238    1.31069  0.4361E-10  0.1219E-13  0.7603E-17  0.1000E-09  0.0000E+00  0.4585E+16
   -1.099990    1.41769  0.4360E-10  0.1219E-13  0.7603E-17  0.1000E-09  0.0000E+00  0.4545E+16
   -1.168742    1.52856  0.4358E-10  0.1219E-13  0.7603E-17  0.1000E-09  0.0000E+00  0.4486E+16
   -1.237494    1.64333  0.4353E-10  0.1219E-13  0.7603E-17  0.1000E-09  0.0000E+00  0.4403E+16
   -1.306246    1.76198  0.4343E-10  0.1219E-13  0.7603E-17  0.1000E-09  0.0000E+00  0.4296E+16
   -1.374998    1.88443  0.4327E-10  0.1219E-13  0.7603E-17  0.1000E-09  0.0000E+00  0.4171E+16
   -1.443751    2.01082  0.4308E-10  0.1219E-13  0.7603E-17  0.1000E-09  0.0000E+00  0.4018E+16
   -1.512503    2.14105  0.4291E-10  0.1219E-13  0.7603E-17  0.1000E-09  0.0000E+00  0.3835E+16
   -1.581255    2.27486  0.4280E-10  0.1219E-13  0.7603E-17  0.1000E-09  0.0000E+00  0.3622E+16
   -1.650007    2.41194  0.4274E-10  0.1947E-13  0.7603E-17  0.1000E-09  0.0000E+00  0.3379E+16
   -1.718759    2.55192  0.4271E-10  0.7485E-13  0.1919E-16  0.1000E-09  0.0000E+00  0.3109E+16
   -1.787510    2.69440  0.4269E-10  0.2591E-12  0.6158E-16  0.1000E-09  0.0000E+00  0.2825E+16
   -1.856262    2.83943  0.4267E-10  0.8676E-12  0.1982E-15  0.1000E-09  0.0000E+00  0.2520E+16
   -1.925013    2.98681  0.4266E-10  0.2855E-11  0.6296E-15  0.1000E-09  0.0000E+00  0.2198E+16
   -1.993764    3.13634  0.4263E-10  0.9284E-11  0.1978E-14  0.1000E-09  0.0000E+00  0.1857E+16
   -2.062515    3.28755  0.4257E-10  0.2909E-10  0.5992E-14  0.1000E-09  0.0000E+00  0.1498E+16
   -2.131265    3.43959  0.4248E-10  0.8957E-10  0.1784E-13  0.1000E-09  0.0000E+00  0.1132E+16
   -2.200015    3.59201  0.4235E-10  0.2720E-09  0.5241E-13  0.3493E-09  0.0000E+00  0.7620E+15
   -2.268764    3.74407  0.4224E-10  0.8215E-09  0.1533E-12  0.1970E-08  0.0000E+00  0.3945E+15
   -2.337514    3.89438  0.4220E-10  0.2446E-08  0.4433E-12  0.3689E-07  0.0000E+00  0.5973E+14
   -2.406262    4.01516  0.4220E-10  0.4212E-08  0.7722E-12  0.9890E-05  0.0000E+00 -0.1016E+13
   -2.475010    4.01733  0.4220E-10  0.4844E-08  0.9612E-12  0.9642E-05  0.0000E+00 -0.1150E+13
   -2.543758    4.01961  0.4220E-10  0.5206E-08  0.1227E-11  0.7999E-05  0.0000E+00 -0.1558E+13
   -2.612505    4.02248  0.4220E-10  0.5233E-08  0.1791E-11  0.4881E-05  0.0000E+00 -0.3071E+13
   -2.681251    4.02754  0.4220E-10  0.4401E-08  0.4488E-11  0.1094E-05  0.0000E+00 -0.2308E+14
   -2.749997    4.05449  0.4220E-10  0.0000E+00  0.0000E+00  0.0000E+00  0.0000E+00  0.0000E+00
