 1 - depth, m
 2 - temperature, C
 3 - salinity, kg/kg
 4 - turbulent kinetic energy, m**2/s**2
 5 - dissipation rate, m**2/s**3
 6 - kinematic heat conductance, m**2/s
 7 - modulus of horizontal velocity, m/s
 8 - Richardson number, n/d
   -0.000000   -0.00000  0.1489E-09  0.1219E-13  0.7603E-17  0.1000E-09  0.0000E+00  0.5547E+16
   -0.068746    0.08417  0.8772E-10  0.1219E-13  0.7603E-17  0.1000E-09  0.0000E+00  0.5369E+16
   -0.137492    0.16751  0.6467E-10  0.1219E-13  0.7603E-17  0.1000E-09  0.0000E+00  0.5210E+16
   -0.206239    0.25029  0.5821E-10  0.1219E-13  0.7603E-17  0.1000E-09  0.0000E+00  0.5071E+16
   -0.274987    0.33277  0.5665E-10  0.1219E-13  0.7603E-17  0.1000E-09  0.0000E+00  0.4949E+16
   -0.343735    0.41522  0.5632E-10  0.1219E-13  0.7603E-17  0.1000E-09  0.0000E+00  0.4844E+16
   -0.412483    0.49793  0.5625E-10  0.1219E-13  0.7603E-17  0.1000E-09  0.0000E+00  0.4755E+16
   -0.481233    0.58119  0.5624E-10  0.1219E-13  0.7603E-17  0.1000E-09  0.0000E+00  0.4678E+16
   -0.549982    0.66526  0.5624E-10  0.1219E-13  0.7603E-17  0.1000E-09  0.0000E+00  0.4613E+16
   -0.618732    0.75041  0.5624E-10  0.1219E-13  0.7603E-17  0.1000E-09  0.0000E+00  0.4555E+16
   -0.687482    0.83689  0.5624E-10  0.1219E-13  0.7603E-17  0.1000E-09  0.0000E+00  0.4516E+16
   -0.756233    0.92518  0.5624E-10  0.1219E-13  0.7603E-17  0.1000E-09  0.0000E+00  0.4487E+16
   -0.824984    1.01562  0.5624E-10  0.1219E-13  0.7603E-17  0.1000E-09  0.0000E+00  0.4456E+16
   -0.893735    1.10839  0.5624E-10  0.1219E-13  0.7603E-17  0.1000E-09  0.0000E+00  0.4422E+16
   -0.962487    1.20366  0.5624E-10  0.1219E-13  0.7603E-17  0.1000E-09  0.0000E+00  0.4380E+16
   -1.031239    1.30153  0.5623E-10  0.1219E-13  0.7603E-17  0.1000E-09  0.0000E+00  0.4330E+16
   -1.099991    1.40208  0.5622E-10  0.1219E-13  0.7603E-17  0.1000E-09  0.0000E+00  0.4269E+16
   -1.168743    1.50537  0.5619E-10  0.1219E-13  0.7603E-17  0.1000E-09  0.0000E+00  0.4193E+16
   -1.237495    1.61139  0.5612E-10  0.1219E-13  0.7603E-17  0.1000E-09  0.0000E+00  0.4103E+16
   -1.306247    1.72012  0.5599E-10  0.1219E-13  0.7603E-17  0.1000E-09  0.0000E+00  0.3995E+16
   -1.374999    1.83147  0.5579E-10  0.1219E-13  0.7603E-17  0.1000E-09  0.0000E+00  0.3877E+16
   -1.443752    1.94555  0.5556E-10  0.1219E-13  0.7603E-17  0.1000E-09  0.0000E+00  0.3742E+16
   -1.512504    2.06227  0.5535E-10  0.1219E-13  0.7603E-17  0.1000E-09  0.0000E+00  0.3586E+16
   -1.581256    2.18144  0.5521E-10  0.1219E-13  0.7603E-17  0.1000E-09  0.0000E+00  0.3410E+16
   -1.650008    2.30282  0.5513E-10  0.1219E-13  0.7603E-17  0.1000E-09  0.0000E+00  0.3215E+16
   -1.718760    2.42613  0.5509E-10  0.1219E-13  0.7603E-17  0.1000E-09  0.0000E+00  0.3002E+16
   -1.787512    2.55107  0.5506E-10  0.1219E-13  0.7603E-17  0.1000E-09  0.0000E+00  0.2779E+16
   -1.856263    2.67758  0.5505E-10  0.1219E-13  0.7603E-17  0.1000E-09  0.0000E+00  0.2544E+16
   -1.925014    2.80547  0.5503E-10  0.1219E-13  0.7603E-17  0.1000E-09  0.0000E+00  0.2298E+16
   -1.993765    2.93456  0.5501E-10  0.1221E-13  0.7603E-17  0.1000E-09  0.0000E+00  0.2040E+16
   -2.062516    3.06450  0.5498E-10  0.5404E-13  0.2290E-16  0.1000E-09  0.0000E+00  0.1779E+16
   -2.131267    3.19529  0.5492E-10  0.2480E-12  0.9844E-16  0.1000E-09  0.0000E+00  0.1511E+16
   -2.200017    3.32674  0.5482E-10  0.1100E-11  0.4187E-15  0.1000E-09  0.0000E+00  0.1238E+16
   -2.268766    3.45863  0.5470E-10  0.4817E-11  0.1762E-14  0.1000E-09  0.0000E+00  0.9665E+15
   -2.337515    3.59140  0.5458E-10  0.2106E-10  0.7410E-14  0.1000E-09  0.0000E+00  0.6920E+15
   -2.406264    3.72543  0.5449E-10  0.9136E-10  0.3095E-13  0.3784E-09  0.0000E+00  0.4112E+15
   -2.475012    3.86091  0.5446E-10  0.3944E-09  0.1290E-12  0.5157E-08  0.0000E+00  0.1228E+15
   -2.543760    3.99468  0.5445E-10  0.1443E-08  0.4668E-12  0.1501E-05  0.0000E+00 -0.2829E+13
   -2.612507    4.00712  0.5445E-10  0.2140E-08  0.9873E-12  0.1549E-05  0.0000E+00 -0.5732E+13
   -2.681253    4.02045  0.5445E-10  0.2566E-08  0.2759E-11  0.7173E-06  0.0000E+00 -0.2920E+14
   -2.749999    4.05628  0.5445E-10  0.0000E+00  0.0000E+00  0.0000E+00  0.0000E+00  0.0000E+00
