 1 - depth, m
 2 - temperature, C
 3 - salinity, kg/kg
 4 - turbulent kinetic energy, m**2/s**2
 5 - dissipation rate, m**2/s**3
 6 - kinematic heat conductance, m**2/s
 7 - modulus of horizontal velocity, m/s
 8 - Richardson number, n/d
   -0.000000    8.30443  0.2839E-11  0.2005E-04  0.1261E-05  0.3502E-04  0.3457E-01 -0.9310E-02
   -0.068746    8.33332  0.2839E-11  0.1791E-04  0.3921E-06  0.8885E-04  0.2217E-01 -0.2608E-01
   -0.137492    8.34364  0.2839E-11  0.1697E-04  0.2148E-06  0.1437E-03  0.1794E-01 -0.4261E-01
   -0.206239    8.34984  0.2839E-11  0.1631E-04  0.1439E-06  0.2007E-03  0.1537E-01 -0.6023E-01
   -0.274987    8.35414  0.2839E-11  0.1578E-04  0.1066E-06  0.2599E-03  0.1357E-01 -0.7893E-01
   -0.343735    8.35735  0.2839E-11  0.1533E-04  0.8381E-07  0.3211E-03  0.1222E-01 -0.9872E-01
   -0.412484    8.35988  0.2839E-11  0.1496E-04  0.6861E-07  0.3843E-03  0.1114E-01 -0.1195E+00
   -0.481233    8.36193  0.2839E-11  0.1464E-04  0.5786E-07  0.4506E-03  0.1026E-01 -0.1369E+00
   -0.549983    8.36364  0.2839E-11  0.1437E-04  0.4995E-07  0.5398E-03  0.9517E-02 -0.7829E-01
   -0.618733    8.36503  0.2839E-11  0.1414E-04  0.4404E-07  0.8006E-03  0.8883E-02  0.5105E+02
   -0.687483    8.36601  0.2839E-11  0.1397E-04  0.3957E-07  0.1198E-02  0.8345E-02  0.3559E+02
   -0.756234    8.36669  0.2839E-11  0.1383E-04  0.3605E-07  0.1353E-02  0.7873E-02  0.2773E+02
   -0.824985    8.36724  0.2839E-11  0.1371E-04  0.3314E-07  0.1478E-02  0.7427E-02  0.6337E+02
   -0.893737    8.36772  0.2839E-11  0.1362E-04  0.3072E-07  0.1596E-02  0.7005E-02  0.1127E+03
   -0.962488    8.36815  0.2839E-11  0.1353E-04  0.2866E-07  0.1653E-02  0.6603E-02  0.2022E+02
   -1.031240    8.36855  0.2839E-11  0.1344E-04  0.2688E-07  0.1691E-02  0.6212E-02  0.2344E+02
   -1.099992    8.36894  0.2839E-11  0.1336E-04  0.2534E-07  0.1728E-02  0.5832E-02  0.2710E+02
   -1.168744    8.36931  0.2839E-11  0.1327E-04  0.2398E-07  0.1760E-02  0.5463E-02  0.3180E+02
   -1.237496    8.36967  0.2839E-11  0.1317E-04  0.2279E-07  0.1788E-02  0.5102E-02  0.3821E+02
   -1.306249    8.37001  0.2839E-11  0.1306E-04  0.2174E-07  0.1812E-02  0.4748E-02  0.4774E+02
   -1.375001    8.37035  0.2839E-11  0.1294E-04  0.2080E-07  0.1831E-02  0.4399E-02  0.6351E+02
   -1.443753    8.37068  0.2839E-11  0.1280E-04  0.1995E-07  0.1843E-02  0.4055E-02  0.9550E+02
   -1.512506    8.37100  0.2839E-11  0.1264E-04  0.1919E-07  0.1850E-02  0.3715E-02  0.1950E+03
   -1.581258    8.37131  0.2839E-11  0.1245E-04  0.1849E-07  0.1846E-02  0.3376E-02  0.3837E+05
   -1.650010    8.37162  0.2839E-11  0.1224E-04  0.1785E-07  0.1842E-02  0.3038E-02  0.2514E+05
   -1.718762    8.37193  0.2839E-11  0.1200E-04  0.1725E-07  0.1811E-02  0.2701E-02  0.7290E+04
   -1.787514    8.37224  0.2839E-11  0.1172E-04  0.1666E-07  0.1830E-02  0.2360E-02  0.2361E+02
   -1.856266    8.37254  0.2839E-11  0.1140E-04  0.1611E-07  0.1826E-02  0.2062E-02  0.6618E+01
   -1.925017    8.37284  0.2839E-11  0.1105E-04  0.1563E-07  0.1828E-02  0.1800E-02  0.3175E+01
   -1.993768    8.37314  0.2839E-11  0.1069E-04  0.1524E-07  0.1830E-02  0.1573E-02  0.2033E+01
   -2.062519    8.37343  0.2839E-11  0.1033E-04  0.1499E-07  0.1825E-02  0.1374E-02  0.1594E+01
   -2.131269    8.37373  0.2839E-11  0.9985E-05  0.1491E-07  0.1817E-02  0.1193E-02  0.1277E+01
   -2.200019    8.37402  0.2839E-11  0.9657E-05  0.1502E-07  0.1820E-02  0.1028E-02  0.1039E+01
   -2.268769    8.37430  0.2839E-11  0.9349E-05  0.1534E-07  0.1767E-02  0.8778E-03  0.7905E+00
   -2.337518    8.37460  0.2839E-11  0.9060E-05  0.1593E-07  0.1629E-02  0.7472E-03  0.5879E+00
   -2.406267    8.37492  0.2839E-11  0.8797E-05  0.1685E-07  0.1447E-02  0.6373E-03  0.4280E+00
   -2.475015    8.37527  0.2839E-11  0.8561E-05  0.1818E-07  0.1301E-02  0.5478E-03  0.3389E+00
   -2.543763    8.37567  0.2839E-11  0.8308E-05  0.2044E-07  0.1104E-02  0.4788E-03  0.7112E+00
   -2.612510    8.37612  0.2839E-11  0.7879E-05  0.2662E-07  0.5651E-03  0.4114E-03  0.2181E+03
   -2.681256    8.37703  0.2839E-11  0.4915E-05  0.1032E-06  0.3055E-04  0.3177E-03 -0.5288E+03
   -2.750002    8.39295  0.2839E-11  0.0000E+00  0.0000E+00  0.0000E+00  0.3174E-03  0.0000E+00
