 1 - depth, m
 2 - temperature, C
 3 - salinity, kg/kg
 4 - turbulent kinetic energy, m**2/s**2
 5 - dissipation rate, m**2/s**3
 6 - kinematic heat conductance, m**2/s
 7 - modulus of horizontal velocity, m/s
 8 - Richardson number, n/d
   -0.000000    9.28921  0.7281E-10  0.2723E-06  0.1272E-07  0.3128E-06  0.1875E-01  0.1175E+03
   -0.068746    7.70002  0.7332E-10  0.4049E-07  0.5484E-09  0.2787E-06  0.9601E-02  0.6969E+02
   -0.137492    5.99042  0.7376E-10  0.1172E-06  0.2580E-09  0.8428E-06  0.3995E-02  0.6734E+02
   -0.206239    5.18537  0.7383E-10  0.3084E-06  0.2453E-09  0.2399E-05  0.1513E-02  0.2724E+03
   -0.274987    4.87900  0.7384E-10  0.5810E-06  0.2735E-09  0.7372E-05  0.5299E-03  0.1165E+04
   -0.343735    4.77292  0.7384E-10  0.7314E-06  0.3081E-09  0.2088E-04  0.1201E-03  0.2020E+04
   -0.412484    4.76192  0.7384E-10  0.8035E-06  0.3318E-09  0.5302E-04  0.6816E-04  0.2391E+04
   -0.481233    4.75969  0.7384E-10  0.8585E-06  0.3526E-09  0.9790E-04  0.5463E-04  0.2233E+04
   -0.549983    4.75875  0.7384E-10  0.9095E-06  0.3738E-09  0.1536E-03  0.4669E-04  0.1631E+04
   -0.618733    4.75832  0.7384E-10  0.9590E-06  0.3963E-09  0.2177E-03  0.4099E-04  0.6300E+03
   -0.687484    4.75816  0.7384E-10  0.1008E-05  0.4202E-09  0.2883E-03  0.3652E-04 -0.3133E+03
   -0.756235    4.75815  0.7384E-10  0.1055E-05  0.4455E-09  0.4099E-03  0.3281E-04  0.5931E+06
   -0.824986    4.75825  0.7384E-10  0.1091E-05  0.4658E-09  0.8277E-03  0.2974E-04  0.3082E+05
   -0.893737    4.75836  0.7384E-10  0.1119E-05  0.4831E-09  0.8836E-03  0.2806E-04  0.7009E+04
   -0.962489    4.75851  0.7384E-10  0.1148E-05  0.5015E-09  0.8846E-03  0.2660E-04  0.2163E+05
   -1.031241    4.75872  0.7384E-10  0.1178E-05  0.5219E-09  0.8902E-03  0.2516E-04  0.3567E+04
   -1.099993    4.75899  0.7384E-10  0.1210E-05  0.5443E-09  0.8919E-03  0.2375E-04  0.4180E+04
   -1.168745    4.75932  0.7384E-10  0.1242E-05  0.5684E-09  0.8942E-03  0.2236E-04  0.4878E+04
   -1.237497    4.75971  0.7384E-10  0.1274E-05  0.5941E-09  0.8961E-03  0.2100E-04  0.5619E+04
   -1.306249    4.76016  0.7384E-10  0.1307E-05  0.6212E-09  0.8975E-03  0.1965E-04  0.6405E+04
   -1.375002    4.76069  0.7384E-10  0.1339E-05  0.6496E-09  0.8975E-03  0.1832E-04  0.7243E+04
   -1.443754    4.76128  0.7384E-10  0.1370E-05  0.6792E-09  0.8962E-03  0.1700E-04  0.8139E+04
   -1.512507    4.76194  0.7384E-10  0.1399E-05  0.7099E-09  0.8929E-03  0.1569E-04  0.9104E+04
   -1.581259    4.76268  0.7384E-10  0.1427E-05  0.7415E-09  0.8878E-03  0.1439E-04  0.1015E+05
   -1.650011    4.76350  0.7384E-10  0.1453E-05  0.7738E-09  0.8802E-03  0.1310E-04  0.1138E+05
   -1.718763    4.76440  0.7384E-10  0.1476E-05  0.8069E-09  0.8705E-03  0.1180E-04  0.1364E+05
   -1.787515    4.76539  0.7385E-10  0.1497E-05  0.8419E-09  0.8580E-03  0.1050E-04  0.1657E+05
   -1.856267    4.76643  0.7385E-10  0.1516E-05  0.8810E-09  0.8420E-03  0.9325E-05  0.2382E+05
   -1.925018    4.76751  0.7385E-10  0.1534E-05  0.9254E-09  0.8213E-03  0.8270E-05  0.3493E+05
   -1.993769    4.76866  0.7385E-10  0.1551E-05  0.9768E-09  0.7960E-03  0.7331E-05  0.5271E+05
   -2.062520    4.76988  0.7385E-10  0.1564E-05  0.1035E-08  0.7665E-03  0.6484E-05  0.8137E+05
   -2.131270    4.77121  0.7385E-10  0.1576E-05  0.1100E-08  0.7328E-03  0.5686E-05  0.1184E+06
   -2.200021    4.77266  0.7385E-10  0.1583E-05  0.1176E-08  0.6946E-03  0.4929E-05  0.1817E+06
   -2.268770    4.77425  0.7385E-10  0.1587E-05  0.1265E-08  0.6512E-03  0.4206E-05  0.2880E+06
   -2.337519    4.77600  0.7385E-10  0.1586E-05  0.1381E-08  0.6000E-03  0.3535E-05  0.5168E+06
   -2.406268    4.77797  0.7385E-10  0.1579E-05  0.1536E-08  0.5399E-03  0.2919E-05  0.1087E+07
   -2.475017    4.78021  0.7385E-10  0.1563E-05  0.1766E-08  0.4684E-03  0.2352E-05  0.2901E+07
   -2.543764    4.78287  0.7385E-10  0.1533E-05  0.2144E-08  0.3801E-03  0.1833E-05  0.2187E+08
   -2.612511    4.78624  0.7385E-10  0.1477E-05  0.2923E-08  0.2844E-03  0.1350E-05  0.8442E+09
   -2.681258    4.79096  0.7385E-10  0.1034E-05  0.1095E-07  0.1634E-04  0.9335E-06 -0.2691E+10
   -2.750004    4.87656  0.7385E-10  0.0000E+00  0.0000E+00  0.0000E+00  0.9331E-06  0.0000E+00
