 1 - depth, m
 2 - temperature, C
 3 - salinity, kg/kg
 4 - turbulent kinetic energy, m**2/s**2
 5 - dissipation rate, m**2/s**3
 6 - kinematic heat conductance, m**2/s
 7 - modulus of horizontal velocity, m/s
 8 - Richardson number, n/d
   -0.000000    0.00000  0.0000E+00  0.1218E-13  0.7602E-17  0.1000E-09  0.0000E+00  0.6026E+16
   -0.068749    0.09180  0.3358E-16  0.1218E-13  0.7602E-17  0.1000E-09  0.0000E+00  0.4149E+16
   -0.137500    0.15629  0.3197E-17  0.1218E-13  0.7602E-17  0.1000E-09  0.0000E+00  0.3709E+16
   -0.206250    0.21479  0.7695E-13  0.1218E-13  0.7602E-17  0.1000E-09  0.0000E+00  0.3716E+16
   -0.275002    0.27436  0.2281E-11  0.1218E-13  0.7602E-17  0.1000E-09  0.0000E+00  0.3852E+16
   -0.343753    0.33721  0.6655E-11  0.1218E-13  0.7602E-17  0.1000E-09  0.0000E+00  0.4014E+16
   -0.412506    0.40396  0.1161E-10  0.1218E-13  0.7602E-17  0.1000E-09  0.0000E+00  0.4166E+16
   -0.481259    0.47468  0.1559E-10  0.1218E-13  0.7602E-17  0.1000E-09  0.0000E+00  0.4297E+16
   -0.550012    0.54926  0.1790E-10  0.1218E-13  0.7602E-17  0.1000E-09  0.0000E+00  0.4404E+16
   -0.618766    0.62751  0.1865E-10  0.1218E-13  0.7602E-17  0.1000E-09  0.0000E+00  0.4487E+16
   -0.687520    0.70929  0.1837E-10  0.1218E-13  0.7602E-17  0.1000E-09  0.0000E+00  0.4536E+16
   -0.756274    0.79420  0.1763E-10  0.1218E-13  0.7602E-17  0.1000E-09  0.0000E+00  0.4556E+16
   -0.825029    0.88196  0.1682E-10  0.1218E-13  0.7602E-17  0.1000E-09  0.0000E+00  0.4555E+16
   -0.893784    0.97241  0.1616E-10  0.1218E-13  0.7602E-17  0.1000E-09  0.0000E+00  0.4535E+16
   -0.962539    1.06538  0.1569E-10  0.1218E-13  0.7602E-17  0.1000E-09  0.0000E+00  0.4496E+16
   -1.031295    1.16073  0.1539E-10  0.1218E-13  0.7602E-17  0.1000E-09  0.0000E+00  0.4441E+16
   -1.100050    1.25833  0.1522E-10  0.1218E-13  0.7602E-17  0.1000E-09  0.0000E+00  0.4370E+16
   -1.168806    1.35808  0.1512E-10  0.1218E-13  0.7602E-17  0.1000E-09  0.0000E+00  0.4286E+16
   -1.237562    1.45991  0.1507E-10  0.1218E-13  0.7602E-17  0.1000E-09  0.0000E+00  0.4189E+16
   -1.306318    1.56376  0.1504E-10  0.1218E-13  0.7602E-17  0.1000E-09  0.0000E+00  0.4081E+16
   -1.375074    1.66958  0.1502E-10  0.1218E-13  0.7602E-17  0.1000E-09  0.0000E+00  0.3975E+16
   -1.443830    1.77773  0.1500E-10  0.1218E-13  0.7602E-17  0.1000E-09  0.0000E+00  0.3870E+16
   -1.512586    1.88855  0.1497E-10  0.1218E-13  0.7602E-17  0.1000E-09  0.0000E+00  0.3774E+16
   -1.581342    2.00281  0.1494E-10  0.1218E-13  0.7602E-17  0.1000E-09  0.0000E+00  0.3720E+16
   -1.650098    2.12251  0.1491E-10  0.1218E-13  0.7602E-17  0.1000E-09  0.0000E+00  0.3808E+16
   -1.718853    2.25387  0.1487E-10  0.1225E-13  0.7742E-17  0.1000E-09  0.0000E+00  0.4240E+16
   -1.787609    2.41400  0.1483E-10  0.1618E-13  0.1100E-16  0.1000E-09  0.0000E+00  0.3351E+16
   -1.856364    2.55358  0.1479E-10  0.5429E-13  0.4045E-16  0.1000E-09  0.0000E+00  0.2803E+16
   -1.925119    2.68192  0.1476E-10  0.3763E-12  0.2763E-15  0.1000E-09  0.0000E+00  0.2235E+16
   -1.993874    2.79372  0.1473E-10  0.2956E-11  0.2079E-14  0.1032E-09  0.0000E+00  0.1778E+16
   -2.062628    2.89036  0.1470E-10  0.2213E-10  0.1494E-13  0.1383E-09  0.0000E+00  0.1828E+16
   -2.131382    3.00049  0.1468E-10  0.1601E-09  0.1037E-12  0.3772E-09  0.0000E+00  0.1776E+16
   -2.200136    3.12163  0.1466E-10  0.1104E-08  0.6885E-12  0.1514E-08  0.0000E+00  0.1773E+16
   -2.268889    3.26685  0.1465E-10  0.6627E-08  0.4038E-11  0.1583E-07  0.0000E+00  0.1486E+16
   -2.337642    3.44753  0.1463E-10  0.1245E-07  0.7876E-11  0.4969E-05  0.0000E+00  0.1088E+16
   -2.406395    3.60450  0.1462E-10  0.1748E-07  0.1173E-10  0.9059E-05  0.0000E+00  0.7907E+15
   -2.475147    3.74619  0.1461E-10  0.2181E-07  0.1595E-10  0.1111E-04  0.0000E+00  0.5133E+15
   -2.543898    3.89265  0.1461E-10  0.2553E-07  0.2127E-10  0.1162E-04  0.0000E+00  0.1986E+15
   -2.612649    4.01256  0.1460E-10  0.2840E-07  0.3098E-10  0.9458E-05  0.0000E+00  0.5820E+12
   -2.681399    4.07975  0.1460E-10  0.2478E-07  0.8042E-10  0.2370E-05  0.0000E+00 -0.1122E+15
   -2.750148    4.13137  0.1460E-10  0.0000E+00  0.0000E+00  0.0000E+00  0.0000E+00  0.0000E+00
