 1 - depth, m
 2 - temperature, C
 3 - salinity, kg/kg
 4 - turbulent kinetic energy, m**2/s**2
 5 - dissipation rate, m**2/s**3
 6 - kinematic heat conductance, m**2/s
 7 - modulus of horizontal velocity, m/s
 8 - Richardson number, n/d
   -0.000000    8.27545  0.1943E-10  0.1995E-04  0.1217E-05  0.3497E-04  0.3446E-01 -0.9203E-02
   -0.068746    8.30405  0.1943E-10  0.1791E-04  0.3864E-06  0.8893E-04  0.2218E-01 -0.2577E-01
   -0.137492    8.31431  0.1943E-10  0.1698E-04  0.2134E-06  0.1437E-03  0.1794E-01 -0.4207E-01
   -0.206239    8.32047  0.1943E-10  0.1632E-04  0.1435E-06  0.2007E-03  0.1538E-01 -0.5943E-01
   -0.274987    8.32474  0.1943E-10  0.1579E-04  0.1065E-06  0.2596E-03  0.1358E-01 -0.7783E-01
   -0.343735    8.32794  0.1943E-10  0.1534E-04  0.8383E-07  0.3204E-03  0.1222E-01 -0.9727E-01
   -0.412484    8.33045  0.1943E-10  0.1496E-04  0.6865E-07  0.3830E-03  0.1115E-01 -0.1177E+00
   -0.481233    8.33250  0.1943E-10  0.1464E-04  0.5790E-07  0.4484E-03  0.1026E-01 -0.1357E+00
   -0.549983    8.33420  0.1943E-10  0.1436E-04  0.4999E-07  0.5326E-03  0.9518E-02 -0.9584E-01
   -0.618733    8.33560  0.1943E-10  0.1413E-04  0.4404E-07  0.7578E-03  0.8881E-02  0.9976E+01
   -0.687483    8.33661  0.1943E-10  0.1395E-04  0.3955E-07  0.1193E-02  0.8337E-02  0.6851E+02
   -0.756234    8.33729  0.1943E-10  0.1381E-04  0.3602E-07  0.1330E-02  0.7867E-02  0.5087E+03
   -0.824985    8.33786  0.1943E-10  0.1369E-04  0.3311E-07  0.1469E-02  0.7419E-02  0.1506E+02
   -0.893737    8.33834  0.1943E-10  0.1359E-04  0.3068E-07  0.1584E-02  0.6998E-02  0.3640E+02
   -0.962488    8.33876  0.1943E-10  0.1350E-04  0.2861E-07  0.1655E-02  0.6595E-02  0.2026E+02
   -1.031240    8.33916  0.1943E-10  0.1341E-04  0.2683E-07  0.1691E-02  0.6205E-02  0.2353E+02
   -1.099992    8.33954  0.1943E-10  0.1332E-04  0.2528E-07  0.1727E-02  0.5825E-02  0.2735E+02
   -1.168744    8.33991  0.1943E-10  0.1323E-04  0.2393E-07  0.1759E-02  0.5457E-02  0.3216E+02
   -1.237496    8.34027  0.1943E-10  0.1313E-04  0.2274E-07  0.1787E-02  0.5096E-02  0.3881E+02
   -1.306249    8.34061  0.1943E-10  0.1301E-04  0.2168E-07  0.1811E-02  0.4743E-02  0.4871E+02
   -1.375001    8.34094  0.1943E-10  0.1289E-04  0.2074E-07  0.1829E-02  0.4395E-02  0.6533E+02
   -1.443753    8.34127  0.1943E-10  0.1275E-04  0.1989E-07  0.1841E-02  0.4051E-02  0.9970E+02
   -1.512506    8.34159  0.1943E-10  0.1259E-04  0.1913E-07  0.1848E-02  0.3711E-02  0.2134E+03
   -1.581258    8.34190  0.1943E-10  0.1240E-04  0.1843E-07  0.1844E-02  0.3374E-02  0.7264E+05
   -1.650010    8.34221  0.1943E-10  0.1219E-04  0.1779E-07  0.1840E-02  0.3036E-02  0.2493E+05
   -1.718762    8.34251  0.1943E-10  0.1195E-04  0.1719E-07  0.1810E-02  0.2700E-02  0.7191E+04
   -1.787514    8.34281  0.1943E-10  0.1167E-04  0.1660E-07  0.1828E-02  0.2359E-02  0.2397E+02
   -1.856266    8.34311  0.1943E-10  0.1135E-04  0.1604E-07  0.1826E-02  0.2062E-02  0.6638E+01
   -1.925017    8.34341  0.1943E-10  0.1100E-04  0.1556E-07  0.1827E-02  0.1801E-02  0.3172E+01
   -1.993768    8.34370  0.1943E-10  0.1064E-04  0.1517E-07  0.1829E-02  0.1574E-02  0.2029E+01
   -2.062519    8.34400  0.1943E-10  0.1029E-04  0.1492E-07  0.1825E-02  0.1375E-02  0.1590E+01
   -2.131269    8.34429  0.1943E-10  0.9946E-05  0.1483E-07  0.1816E-02  0.1194E-02  0.1274E+01
   -2.200019    8.34457  0.1943E-10  0.9620E-05  0.1493E-07  0.1820E-02  0.1029E-02  0.1036E+01
   -2.268769    8.34486  0.1943E-10  0.9314E-05  0.1524E-07  0.1766E-02  0.8791E-03  0.7876E+00
   -2.337518    8.34515  0.1943E-10  0.9026E-05  0.1582E-07  0.1628E-02  0.7484E-03  0.5854E+00
   -2.406267    8.34546  0.1943E-10  0.8764E-05  0.1673E-07  0.1448E-02  0.6383E-03  0.4262E+00
   -2.475015    8.34582  0.1943E-10  0.8529E-05  0.1804E-07  0.1302E-02  0.5486E-03  0.3400E+00
   -2.543763    8.34621  0.1943E-10  0.8276E-05  0.2028E-07  0.1096E-02  0.4793E-03  0.7837E+00
   -2.612510    8.34666  0.1943E-10  0.7849E-05  0.2639E-07  0.5624E-03  0.4113E-03  0.2251E+03
   -2.681256    8.34755  0.1943E-10  0.4897E-05  0.1020E-06  0.3022E-04  0.3176E-03 -0.5559E+03
   -2.750002    8.36362  0.1943E-10  0.0000E+00  0.0000E+00  0.0000E+00  0.3172E-03  0.0000E+00
