 1 - depth, m
 2 - temperature, C
 3 - salinity, kg/kg
 4 - turbulent kinetic energy, m**2/s**2
 5 - dissipation rate, m**2/s**3
 6 - kinematic heat conductance, m**2/s
 7 - modulus of horizontal velocity, m/s
 8 - Richardson number, n/d
   -0.000000   -0.00000  0.2862E-10  0.2453E-07  0.6474E-10  0.3686E-07  0.9246E-06  0.3806E+16
   -0.068745    0.12673  0.2178E-10  0.1932E-06  0.3823E-10  0.5158E-07  0.8597E-06  0.1706E+16
   -0.137491    0.18289  0.2031E-10  0.6106E-06  0.2885E-10  0.1955E-06  0.7297E-06  0.3835E+15
   -0.206237    0.19561  0.1988E-10  0.6378E-06  0.2946E-10  0.3716E-02  0.5564E-06  0.7417E+13
   -0.274984    0.19656  0.1983E-10  0.6490E-06  0.2991E-10  0.3879E-02  0.3850E-06 -0.9572E+10
   -0.343732    0.19699  0.1980E-10  0.6579E-06  0.3029E-10  0.4003E-02  0.2335E-06 -0.4040E+11
   -0.412480    0.19724  0.1977E-10  0.6627E-06  0.3049E-10  0.4142E-02  0.1172E-06 -0.5632E+11
   -0.481228    0.19730  0.1975E-10  0.6630E-06  0.3049E-10  0.4250E-02  0.6618E-07 -0.6552E+11
   -0.549977    0.19730  0.1975E-10  0.6632E-06  0.3049E-10  0.4261E-02  0.6589E-07 -0.7043E+11
   -0.618726    0.19730  0.1975E-10  0.6633E-06  0.3049E-10  0.4264E-02  0.6563E-07 -0.7119E+11
   -0.687476    0.19729  0.1975E-10  0.6634E-06  0.3048E-10  0.4266E-02  0.6538E-07 -0.6918E+11
   -0.756226    0.19729  0.1975E-10  0.6633E-06  0.3047E-10  0.4260E-02  0.6516E-07 -0.6493E+11
   -0.824976    0.19729  0.1975E-10  0.6632E-06  0.3045E-10  0.4253E-02  0.6496E-07 -0.5748E+11
   -0.893727    0.19729  0.1975E-10  0.6630E-06  0.3044E-10  0.4219E-02  0.6478E-07 -0.5148E+11
   -0.962478    0.19728  0.1975E-10  0.6627E-06  0.3042E-10  0.4197E-02  0.6463E-07 -0.4070E+11
   -1.031229    0.19728  0.1975E-10  0.6624E-06  0.3040E-10  0.4153E-02  0.6450E-07 -0.2051E+11
   -1.099980    0.19728  0.1975E-10  0.6621E-06  0.3038E-10  0.4147E-02  0.6440E-07  0.2435E+10
   -1.168732    0.19728  0.1975E-10  0.6618E-06  0.3036E-10  0.4213E-02  0.6431E-07  0.7561E+11
   -1.237483    0.19728  0.1975E-10  0.6613E-06  0.3034E-10  0.1985E-03  0.6426E-07  0.1003E+14
   -1.306235    0.19815  0.1972E-10  0.6171E-06  0.2851E-10  0.1431E-06  0.4184E-07  0.4306E+15
   -1.374986    0.21459  0.1956E-10  0.3807E-06  0.1774E-10  0.3359E-07  0.2157E-07  0.1182E+16
   -1.443738    0.25628  0.1941E-10  0.2194E-06  0.1036E-10  0.1175E-07  0.1054E-07  0.1997E+16
   -1.512490    0.32665  0.1936E-10  0.1233E-06  0.5908E-11  0.4593E-08  0.5004E-08  0.2934E+16
   -1.581241    0.43234  0.1934E-10  0.6842E-07  0.3327E-11  0.1907E-08  0.2314E-08  0.4023E+16
   -1.649992    0.58234  0.1931E-10  0.3770E-07  0.1864E-11  0.8398E-09  0.1007E-08  0.5187E+16
   -1.718744    0.78627  0.1930E-10  0.2088E-07  0.1055E-11  0.4147E-09  0.3207E-09  0.6569E+16
   -1.787495    1.04811  0.1929E-10  0.1156E-07  0.6073E-12  0.3035E-09  0.2091E-10  0.8311E+16
   -1.856246    1.27701  0.1928E-10  0.6197E-08  0.3598E-12  0.2252E-09  0.1259E-11  0.8733E+16
   -1.924996    1.48298  0.1928E-10  0.3113E-08  0.2447E-12  0.1806E-09  0.6940E-13  0.7670E+16
   -1.993747    1.68041  0.1928E-10  0.1540E-08  0.2574E-12  0.1745E-09  0.4157E-14  0.8331E+16
   -2.062497    1.91790  0.1927E-10  0.1649E-08  0.5607E-12  0.2546E-09  0.3204E-15  0.1154E+17
   -2.131246    2.30379  0.1926E-10  0.5523E-08  0.2097E-11  0.8808E-09  0.2316E-16  0.1278E+17
   -2.199996    2.88803  0.1924E-10  0.2341E-07  0.8733E-11  0.7505E-08  0.1561E-17  0.8603E+16
   -2.268745    3.68659  0.1916E-10  0.4939E-07  0.1960E-10  0.2356E-04  0.7265E-19  0.1492E+16
   -2.337493    4.10842  0.1912E-10  0.5894E-07  0.2399E-10  0.5991E-04  0.1988E-20 -0.4718E+13
   -2.406241    4.11092  0.1912E-10  0.6274E-07  0.2674E-10  0.5850E-04  0.7454E-21 -0.5045E+13
   -2.474989    4.11353  0.1912E-10  0.6520E-07  0.3033E-10  0.5309E-04  0.2624E-21 -0.5864E+13
   -2.543736    4.11650  0.1912E-10  0.6612E-07  0.3613E-10  0.4255E-04  0.8241E-22 -0.7880E+13
   -2.612482    4.12039  0.1912E-10  0.6439E-07  0.4912E-10  0.2633E-04  0.1998E-22 -0.1450E+14
   -2.681228    4.12726  0.1912E-10  0.4888E-07  0.1340E-09  0.4092E-05  0.2710E-23 -0.1453E+15
   -2.749973    4.18286  0.1912E-10  0.0000E+00  0.0000E+00  0.0000E+00  0.2726E-23  0.0000E+00
