 1 - depth, m
 2 - temperature, C
 3 - salinity, kg/kg
 4 - turbulent kinetic energy, m**2/s**2
 5 - dissipation rate, m**2/s**3
 6 - kinematic heat conductance, m**2/s
 7 - modulus of horizontal velocity, m/s
 8 - Richardson number, n/d
   -0.000000   -0.00000  0.1210E-12  0.1219E-13  0.7603E-17  0.1000E-09  0.0000E+00  0.6920E+16
   -0.068746    0.10529  0.7707E-12  0.1219E-13  0.7603E-17  0.1000E-09  0.0000E+00  0.6845E+16
   -0.137493    0.21253  0.1364E-11  0.1219E-13  0.7603E-17  0.1000E-09  0.0000E+00  0.6749E+16
   -0.206240    0.32153  0.1671E-11  0.1219E-13  0.7603E-17  0.1000E-09  0.0000E+00  0.6633E+16
   -0.274988    0.43213  0.1732E-11  0.1219E-13  0.7603E-17  0.1000E-09  0.0000E+00  0.6500E+16
   -0.343736    0.54417  0.1662E-11  0.1219E-13  0.7603E-17  0.1000E-09  0.0000E+00  0.6352E+16
   -0.412485    0.65752  0.1552E-11  0.1219E-13  0.7603E-17  0.1000E-09  0.0000E+00  0.6189E+16
   -0.481234    0.77203  0.1452E-11  0.1219E-13  0.7603E-17  0.1000E-09  0.0000E+00  0.6014E+16
   -0.549984    0.88758  0.1380E-11  0.1219E-13  0.7603E-17  0.1000E-09  0.0000E+00  0.5827E+16
   -0.618734    1.00404  0.1336E-11  0.1219E-13  0.7603E-17  0.1000E-09  0.0000E+00  0.5630E+16
   -0.687485    1.12129  0.1312E-11  0.1219E-13  0.7603E-17  0.1000E-09  0.0000E+00  0.5424E+16
   -0.756236    1.23922  0.1300E-11  0.1219E-13  0.7603E-17  0.1000E-09  0.0000E+00  0.5211E+16
   -0.824987    1.35771  0.1294E-11  0.1219E-13  0.7603E-17  0.1000E-09  0.0000E+00  0.4990E+16
   -0.893739    1.47666  0.1291E-11  0.1219E-13  0.7603E-17  0.1000E-09  0.0000E+00  0.4763E+16
   -0.962491    1.59597  0.1290E-11  0.1219E-13  0.7603E-17  0.1000E-09  0.0000E+00  0.4532E+16
   -1.031243    1.71553  0.1288E-11  0.1219E-13  0.7603E-17  0.1000E-09  0.0000E+00  0.4297E+16
   -1.099995    1.83528  0.1287E-11  0.1219E-13  0.7603E-17  0.1000E-09  0.0000E+00  0.4060E+16
   -1.168747    1.95512  0.1285E-11  0.1219E-13  0.7603E-17  0.1000E-09  0.0000E+00  0.3820E+16
   -1.237500    2.07499  0.1282E-11  0.1219E-13  0.7603E-17  0.1000E-09  0.0000E+00  0.3580E+16
   -1.306252    2.19482  0.1279E-11  0.1219E-13  0.7603E-17  0.1000E-09  0.0000E+00  0.3339E+16
   -1.375005    2.31456  0.1276E-11  0.1219E-13  0.7603E-17  0.1000E-09  0.0000E+00  0.3099E+16
   -1.443757    2.43418  0.1272E-11  0.1219E-13  0.7603E-17  0.1000E-09  0.0000E+00  0.2860E+16
   -1.512510    2.55364  0.1269E-11  0.1219E-13  0.7603E-17  0.1000E-09  0.0000E+00  0.2623E+16
   -1.581262    2.67293  0.1265E-11  0.1219E-13  0.7603E-17  0.1000E-09  0.0000E+00  0.2386E+16
   -1.650014    2.79203  0.1263E-11  0.4435E-13  0.9738E-17  0.1000E-09  0.0000E+00  0.2152E+16
   -1.718766    2.91093  0.1260E-11  0.1382E-12  0.2455E-16  0.1000E-09  0.0000E+00  0.1919E+16
   -1.787518    3.02957  0.1258E-11  0.3985E-12  0.6690E-16  0.1000E-09  0.0000E+00  0.1662E+16
   -1.856270    3.14600  0.1257E-11  0.1126E-11  0.1826E-15  0.1000E-09  0.0000E+00  0.1414E+16
   -1.925022    3.25977  0.1255E-11  0.3145E-11  0.4942E-15  0.1000E-09  0.0000E+00  0.1174E+16
   -1.993773    3.37026  0.1254E-11  0.8709E-11  0.1328E-14  0.1000E-09  0.0000E+00  0.9526E+15
   -2.062524    3.47741  0.1254E-11  0.2336E-10  0.3457E-14  0.1000E-09  0.0000E+00  0.7669E+15
   -2.131275    3.58410  0.1253E-11  0.6175E-10  0.8871E-14  0.1000E-09  0.0000E+00  0.5858E+15
   -2.200025    3.69068  0.1253E-11  0.1615E-09  0.2254E-13  0.2822E-09  0.0000E+00  0.4057E+15
   -2.268775    3.79711  0.1252E-11  0.4217E-09  0.5717E-13  0.1282E-08  0.0000E+00  0.2264E+15
   -2.337524    3.90288  0.1252E-11  0.1103E-08  0.1456E-12  0.1380E-07  0.0000E+00  0.5304E+14
   -2.406273    4.00024  0.1252E-11  0.1943E-08  0.2580E-12  0.6465E-05  0.0000E+00 -0.5378E+12
   -2.475021    4.00252  0.1252E-11  0.2263E-08  0.3244E-12  0.6489E-05  0.0000E+00 -0.6100E+12
   -2.543769    4.00477  0.1252E-11  0.2425E-08  0.4099E-12  0.5422E-05  0.0000E+00 -0.8178E+12
   -2.612516    4.00741  0.1252E-11  0.2371E-08  0.5763E-12  0.3182E-05  0.0000E+00 -0.1568E+13
   -2.681263    4.01172  0.1252E-11  0.1737E-08  0.1316E-11  0.5104E-06  0.0000E+00 -0.1117E+14
   -2.750009    4.03183  0.1252E-11  0.0000E+00  0.0000E+00  0.0000E+00  0.0000E+00  0.0000E+00
