 1 - depth, m
 2 - temperature, C
 3 - salinity, kg/kg
 4 - turbulent kinetic energy, m**2/s**2
 5 - dissipation rate, m**2/s**3
 6 - kinematic heat conductance, m**2/s
 7 - modulus of horizontal velocity, m/s
 8 - Richardson number, n/d
   -0.000000   -0.00000  0.8251E-11  0.1219E-13  0.7603E-17  0.1000E-09  0.0000E+00  0.8166E+16
   -0.068746    0.12458  0.5162E-11  0.1219E-13  0.7603E-17  0.1000E-09  0.0000E+00  0.7838E+16
   -0.137492    0.24833  0.3693E-11  0.1219E-13  0.7603E-17  0.1000E-09  0.0000E+00  0.7530E+16
   -0.206239    0.37147  0.3138E-11  0.1219E-13  0.7603E-17  0.1000E-09  0.0000E+00  0.7239E+16
   -0.274987    0.49420  0.2960E-11  0.1219E-13  0.7603E-17  0.1000E-09  0.0000E+00  0.6964E+16
   -0.343735    0.61674  0.2910E-11  0.1219E-13  0.7603E-17  0.1000E-09  0.0000E+00  0.6702E+16
   -0.412483    0.73928  0.2897E-11  0.1219E-13  0.7603E-17  0.1000E-09  0.0000E+00  0.6451E+16
   -0.481232    0.86203  0.2895E-11  0.1219E-13  0.7603E-17  0.1000E-09  0.0000E+00  0.6209E+16
   -0.549982    0.98517  0.2894E-11  0.1219E-13  0.7603E-17  0.1000E-09  0.0000E+00  0.5974E+16
   -0.618732    1.10887  0.2894E-11  0.1219E-13  0.7603E-17  0.1000E-09  0.0000E+00  0.5743E+16
   -0.687482    1.23330  0.2894E-11  0.1219E-13  0.7603E-17  0.1000E-09  0.0000E+00  0.5524E+16
   -0.756233    1.35880  0.2894E-11  0.1219E-13  0.7603E-17  0.1000E-09  0.0000E+00  0.5310E+16
   -0.824984    1.48563  0.2893E-11  0.1219E-13  0.7603E-17  0.1000E-09  0.0000E+00  0.5092E+16
   -0.893735    1.61390  0.2893E-11  0.1219E-13  0.7603E-17  0.1000E-09  0.0000E+00  0.4869E+16
   -0.962487    1.74369  0.2892E-11  0.2542E-13  0.7603E-17  0.1000E-09  0.0000E+00  0.4639E+16
   -1.031239    1.87505  0.2889E-11  0.8682E-13  0.1204E-16  0.1000E-09  0.0000E+00  0.4402E+16
   -1.099990    2.00803  0.2883E-11  0.2245E-12  0.2637E-16  0.1000E-09  0.0000E+00  0.4155E+16
   -1.168742    2.14264  0.2875E-11  0.5293E-12  0.5899E-16  0.1000E-09  0.0000E+00  0.3898E+16
   -1.237495    2.27885  0.2864E-11  0.1207E-11  0.1305E-15  0.1000E-09  0.0000E+00  0.3630E+16
   -1.306247    2.41662  0.2851E-11  0.2712E-11  0.2852E-15  0.1000E-09  0.0000E+00  0.3352E+16
   -1.374999    2.55588  0.2838E-11  0.6021E-11  0.6170E-15  0.1000E-09  0.0000E+00  0.3065E+16
   -1.443751    2.69665  0.2828E-11  0.1323E-10  0.1322E-14  0.1000E-09  0.0000E+00  0.2768E+16
   -1.512503    2.83886  0.2821E-11  0.2882E-10  0.2807E-14  0.1000E-09  0.0000E+00  0.2460E+16
   -1.581256    2.98234  0.2816E-11  0.6216E-10  0.5907E-14  0.1000E-09  0.0000E+00  0.2142E+16
   -1.650008    3.12693  0.2813E-11  0.1329E-09  0.1232E-13  0.1000E-09  0.0000E+00  0.1815E+16
   -1.718760    3.27243  0.2811E-11  0.2816E-09  0.2548E-13  0.1000E-09  0.0000E+00  0.1483E+16
   -1.787511    3.41869  0.2809E-11  0.6050E-09  0.5342E-13  0.2345E-09  0.0000E+00  0.1159E+16
   -1.856263    3.56758  0.2807E-11  0.1312E-08  0.1131E-12  0.7032E-09  0.0000E+00  0.8180E+15
   -1.925014    3.71897  0.2804E-11  0.2839E-08  0.2390E-12  0.2654E-08  0.0000E+00  0.4582E+15
   -1.993765    3.87159  0.2803E-11  0.6055E-08  0.4989E-12  0.2529E-07  0.0000E+00  0.1001E+15
   -2.062516    4.00599  0.2803E-11  0.6856E-08  0.5681E-12  0.3411E-04  0.0000E+00 -0.2042E+12
   -2.131266    4.00664  0.2803E-11  0.7190E-08  0.6044E-12  0.3453E-04  0.0000E+00 -0.2083E+12
   -2.200016    4.00729  0.2803E-11  0.7452E-08  0.6429E-12  0.3414E-04  0.0000E+00 -0.2174E+12
   -2.268766    4.00794  0.2803E-11  0.7648E-08  0.6863E-12  0.3292E-04  0.0000E+00 -0.2328E+12
   -2.337515    4.00862  0.2803E-11  0.7783E-08  0.7400E-12  0.3071E-04  0.0000E+00 -0.2580E+12
   -2.406263    4.00934  0.2803E-11  0.7847E-08  0.8124E-12  0.2736E-04  0.0000E+00 -0.3002E+12
   -2.475011    4.01016  0.2803E-11  0.7821E-08  0.9217E-12  0.2265E-04  0.0000E+00 -0.3781E+12
   -2.543759    4.01115  0.2803E-11  0.7653E-08  0.1116E-11  0.1641E-04  0.0000E+00 -0.5508E+12
   -2.612506    4.01253  0.2803E-11  0.7173E-08  0.1590E-11  0.8646E-05  0.0000E+00 -0.1141E+13
   -2.681252    4.01517  0.2803E-11  0.5134E-08  0.4461E-11  0.1126E-05  0.0000E+00 -0.1186E+14
   -2.749998    4.03477  0.2803E-11  0.0000E+00  0.0000E+00  0.0000E+00  0.0000E+00  0.0000E+00
