 1 - depth, m
 2 - temperature, C
 3 - salinity, kg/kg
 4 - turbulent kinetic energy, m**2/s**2
 5 - dissipation rate, m**2/s**3
 6 - kinematic heat conductance, m**2/s
 7 - modulus of horizontal velocity, m/s
 8 - Richardson number, n/d
   -0.000000    5.54226  0.2552E-10  0.1815E-04  0.1284E-05  0.3206E-04  0.3139E-01 -0.1565E-01
   -0.068746    5.59841  0.2552E-10  0.1566E-04  0.3716E-06  0.8095E-04  0.1970E-01 -0.4311E-01
   -0.137492    5.61827  0.2552E-10  0.1471E-04  0.1960E-06  0.1323E-03  0.1583E-01 -0.7587E-01
   -0.206239    5.63006  0.2552E-10  0.1408E-04  0.1289E-06  0.1895E-03  0.1349E-01 -0.9531E-01
   -0.274987    5.63809  0.2552E-10  0.1358E-04  0.9456E-07  0.2620E-03  0.1185E-01  0.1385E+02
   -0.343735    5.64392  0.2552E-10  0.1316E-04  0.7399E-07  0.3380E-03  0.1062E-01  0.3314E+02
   -0.412484    5.64840  0.2552E-10  0.1280E-04  0.6037E-07  0.4175E-03  0.9652E-02  0.3249E+02
   -0.481233    5.65197  0.2552E-10  0.1249E-04  0.5076E-07  0.5009E-03  0.8850E-02  0.8781E+01
   -0.549983    5.65489  0.2552E-10  0.1222E-04  0.4365E-07  0.5856E-03  0.8170E-02  0.1490E+02
   -0.618733    5.65734  0.2552E-10  0.1198E-04  0.3820E-07  0.6760E-03  0.7578E-02  0.1285E+02
   -0.687483    5.65943  0.2552E-10  0.1176E-04  0.3392E-07  0.7632E-03  0.7055E-02  0.1448E+02
   -0.756234    5.66123  0.2552E-10  0.1157E-04  0.3048E-07  0.8382E-03  0.6585E-02  0.6622E+01
   -0.824985    5.66283  0.2552E-10  0.1139E-04  0.2767E-07  0.9119E-03  0.6156E-02  0.8188E+01
   -0.893736    5.66424  0.2552E-10  0.1122E-04  0.2535E-07  0.9923E-03  0.5762E-02  0.9065E+01
   -0.962488    5.66550  0.2552E-10  0.1107E-04  0.2340E-07  0.1112E-02  0.5395E-02  0.2683E+02
   -1.031240    5.66658  0.2552E-10  0.1092E-04  0.2176E-07  0.1251E-02  0.5053E-02  0.3808E+02
   -1.099992    5.66753  0.2552E-10  0.1078E-04  0.2035E-07  0.1364E-02  0.4729E-02  0.1631E+02
   -1.168744    5.66836  0.2552E-10  0.1064E-04  0.1914E-07  0.1456E-02  0.4419E-02  0.2766E+02
   -1.237496    5.66912  0.2552E-10  0.1051E-04  0.1807E-07  0.1531E-02  0.4120E-02  0.3874E+02
   -1.306248    5.66980  0.2552E-10  0.1037E-04  0.1714E-07  0.1601E-02  0.3829E-02  0.4887E+02
   -1.375001    5.67044  0.2552E-10  0.1023E-04  0.1630E-07  0.1655E-02  0.3546E-02  0.9339E+02
   -1.443753    5.67103  0.2552E-10  0.1008E-04  0.1556E-07  0.1693E-02  0.3268E-02  0.2171E+03
   -1.512505    5.67159  0.2552E-10  0.9923E-05  0.1490E-07  0.1718E-02  0.2995E-02  0.5131E+03
   -1.581258    5.67212  0.2552E-10  0.9756E-05  0.1429E-07  0.1718E-02  0.2725E-02  0.2905E+06
   -1.650010    5.67264  0.2552E-10  0.9576E-05  0.1374E-07  0.1720E-02  0.2457E-02  0.5827E+04
   -1.718762    5.67314  0.2552E-10  0.9381E-05  0.1324E-07  0.1697E-02  0.2192E-02  0.2246E+04
   -1.787513    5.67364  0.2552E-10  0.9162E-05  0.1275E-07  0.1739E-02  0.1925E-02  0.2287E+02
   -1.856265    5.67411  0.2552E-10  0.8926E-05  0.1229E-07  0.1759E-02  0.1693E-02  0.5090E+01
   -1.925016    5.67457  0.2552E-10  0.8677E-05  0.1187E-07  0.1772E-02  0.1489E-02  0.2408E+01
   -1.993768    5.67502  0.2552E-10  0.8420E-05  0.1152E-07  0.1770E-02  0.1312E-02  0.1570E+01
   -2.062518    5.67547  0.2552E-10  0.8170E-05  0.1125E-07  0.1749E-02  0.1157E-02  0.1245E+01
   -2.131269    5.67591  0.2552E-10  0.7931E-05  0.1108E-07  0.1714E-02  0.1015E-02  0.1005E+01
   -2.200019    5.67635  0.2552E-10  0.7705E-05  0.1103E-07  0.1654E-02  0.8858E-03  0.8644E+00
   -2.268768    5.67680  0.2552E-10  0.7493E-05  0.1111E-07  0.1574E-02  0.7669E-03  0.3903E+01
   -2.337518    5.67726  0.2552E-10  0.7289E-05  0.1136E-07  0.1392E-02  0.6624E-03  0.5154E+02
   -2.406266    5.67778  0.2552E-10  0.7087E-05  0.1185E-07  0.1171E-02  0.5708E-03  0.3139E+03
   -2.475015    5.67839  0.2552E-10  0.6872E-05  0.1274E-07  0.9635E-03  0.4896E-03  0.9668E+02
   -2.543762    5.67912  0.2552E-10  0.6606E-05  0.1454E-07  0.7231E-03  0.4126E-03  0.4433E+03
   -2.612509    5.68010  0.2552E-10  0.6187E-05  0.1936E-07  0.3867E-03  0.3328E-03  0.1094E+03
   -2.681256    5.68184  0.2552E-10  0.3791E-05  0.7151E-07  0.2587E-04  0.2423E-03 -0.3622E+05
   -2.750002    5.70623  0.2552E-10  0.0000E+00  0.0000E+00  0.0000E+00  0.2419E-03  0.0000E+00
