 1 - depth, m
 2 - temperature, C
 3 - salinity, kg/kg
 4 - turbulent kinetic energy, m**2/s**2
 5 - dissipation rate, m**2/s**3
 6 - kinematic heat conductance, m**2/s
 7 - modulus of horizontal velocity, m/s
 8 - Richardson number, n/d
   -0.000000   -0.00000  0.1913E-10  0.1219E-13  0.7603E-17  0.1000E-09  0.0000E+00  0.7629E+16
   -0.068746    0.11626  0.1137E-10  0.1219E-13  0.7603E-17  0.1000E-09  0.0000E+00  0.7331E+16
   -0.137492    0.23160  0.8174E-11  0.1219E-13  0.7603E-17  0.1000E-09  0.0000E+00  0.7054E+16
   -0.206239    0.34626  0.7065E-11  0.1219E-13  0.7603E-17  0.1000E-09  0.0000E+00  0.6798E+16
   -0.274987    0.46050  0.6736E-11  0.1219E-13  0.7603E-17  0.1000E-09  0.0000E+00  0.6560E+16
   -0.343735    0.57460  0.6651E-11  0.1219E-13  0.7603E-17  0.1000E-09  0.0000E+00  0.6338E+16
   -0.412483    0.68881  0.6631E-11  0.1219E-13  0.7603E-17  0.1000E-09  0.0000E+00  0.6130E+16
   -0.481232    0.80339  0.6627E-11  0.1219E-13  0.7603E-17  0.1000E-09  0.0000E+00  0.5933E+16
   -0.549982    0.91857  0.6626E-11  0.1219E-13  0.7603E-17  0.1000E-09  0.0000E+00  0.5744E+16
   -0.618732    1.03460  0.6626E-11  0.1219E-13  0.7603E-17  0.1000E-09  0.0000E+00  0.5561E+16
   -0.687482    1.15167  0.6626E-11  0.1219E-13  0.7603E-17  0.1000E-09  0.0000E+00  0.5391E+16
   -0.756233    1.27022  0.6626E-11  0.1219E-13  0.7603E-17  0.1000E-09  0.0000E+00  0.5226E+16
   -0.824984    1.39054  0.6625E-11  0.1219E-13  0.7603E-17  0.1000E-09  0.0000E+00  0.5057E+16
   -0.893735    1.51280  0.6625E-11  0.1219E-13  0.7603E-17  0.1000E-09  0.0000E+00  0.4881E+16
   -0.962487    1.63709  0.6623E-11  0.1219E-13  0.7603E-17  0.1000E-09  0.0000E+00  0.4697E+16
   -1.031238    1.76353  0.6618E-11  0.1219E-13  0.7603E-17  0.1000E-09  0.0000E+00  0.4503E+16
   -1.099990    1.89218  0.6608E-11  0.3172E-13  0.7603E-17  0.1000E-09  0.0000E+00  0.4297E+16
   -1.168742    2.02305  0.6592E-11  0.9944E-13  0.1484E-16  0.1000E-09  0.0000E+00  0.4077E+16
   -1.237494    2.15617  0.6567E-11  0.2611E-12  0.3517E-16  0.1000E-09  0.0000E+00  0.3843E+16
   -1.306247    2.29150  0.6538E-11  0.6454E-12  0.8346E-16  0.1000E-09  0.0000E+00  0.3594E+16
   -1.374999    2.42897  0.6508E-11  0.1558E-11  0.1955E-15  0.1000E-09  0.0000E+00  0.3333E+16
   -1.443751    2.56864  0.6483E-11  0.3707E-11  0.4523E-15  0.1000E-09  0.0000E+00  0.3056E+16
   -1.512503    2.71043  0.6466E-11  0.8718E-11  0.1035E-14  0.1000E-09  0.0000E+00  0.2764E+16
   -1.581255    2.85419  0.6455E-11  0.2028E-10  0.2343E-14  0.1000E-09  0.0000E+00  0.2456E+16
   -1.650007    2.99971  0.6448E-11  0.4666E-10  0.5249E-14  0.1000E-09  0.0000E+00  0.2134E+16
   -1.718759    3.14677  0.6444E-11  0.1062E-09  0.1164E-13  0.1000E-09  0.0000E+00  0.1801E+16
   -1.787511    3.29520  0.6441E-11  0.2453E-09  0.2617E-13  0.1000E-09  0.0000E+00  0.1476E+16
   -1.856263    3.44687  0.6437E-11  0.5706E-09  0.5931E-13  0.2671E-09  0.0000E+00  0.1130E+16
   -1.925014    3.60181  0.6431E-11  0.1323E-08  0.1341E-12  0.8977E-09  0.0000E+00  0.7599E+15
   -1.993765    3.75983  0.6424E-11  0.3053E-08  0.3017E-12  0.4197E-08  0.0000E+00  0.3656E+15
   -2.062516    3.91752  0.6421E-11  0.6531E-08  0.6336E-12  0.1002E-06  0.0000E+00  0.3177E+14
   -2.131266    4.01232  0.6421E-11  0.7540E-08  0.7364E-12  0.3272E-04  0.0000E+00 -0.2866E+12
   -2.200016    4.01302  0.6421E-11  0.7948E-08  0.7896E-12  0.3289E-04  0.0000E+00 -0.2930E+12
   -2.268765    4.01371  0.6421E-11  0.8255E-08  0.8464E-12  0.3213E-04  0.0000E+00 -0.3083E+12
   -2.337515    4.01442  0.6421E-11  0.8474E-08  0.9139E-12  0.3032E-04  0.0000E+00 -0.3362E+12
   -2.406263    4.01517  0.6421E-11  0.8602E-08  0.1002E-11  0.2733E-04  0.0000E+00 -0.3850E+12
   -2.475011    4.01601  0.6421E-11  0.8617E-08  0.1133E-11  0.2293E-04  0.0000E+00 -0.4765E+12
   -2.543759    4.01702  0.6421E-11  0.8465E-08  0.1361E-11  0.1688E-04  0.0000E+00 -0.6795E+12
   -2.612506    4.01840  0.6421E-11  0.7966E-08  0.1911E-11  0.9109E-05  0.0000E+00 -0.1363E+13
   -2.681252    4.02101  0.6421E-11  0.5777E-08  0.5208E-11  0.1243E-05  0.0000E+00 -0.1315E+14
   -2.749998    4.04001  0.6421E-11  0.0000E+00  0.0000E+00  0.0000E+00  0.0000E+00  0.0000E+00
