 1 - depth, m
 2 - temperature, C
 3 - salinity, kg/kg
 4 - turbulent kinetic energy, m**2/s**2
 5 - dissipation rate, m**2/s**3
 6 - kinematic heat conductance, m**2/s
 7 - modulus of horizontal velocity, m/s
 8 - Richardson number, n/d
   -0.000000   -0.00000  0.8120E-11  0.1219E-13  0.7603E-17  0.1000E-09  0.0000E+00  0.8400E+16
   -0.068746    0.12822  0.5296E-11  0.1219E-13  0.7603E-17  0.1000E-09  0.0000E+00  0.8063E+16
   -0.137492    0.25570  0.3803E-11  0.1219E-13  0.7603E-17  0.1000E-09  0.0000E+00  0.7740E+16
   -0.206239    0.38261  0.3191E-11  0.1219E-13  0.7603E-17  0.1000E-09  0.0000E+00  0.7432E+16
   -0.274987    0.50909  0.2979E-11  0.1219E-13  0.7603E-17  0.1000E-09  0.0000E+00  0.7136E+16
   -0.343735    0.63531  0.2916E-11  0.1219E-13  0.7603E-17  0.1000E-09  0.0000E+00  0.6852E+16
   -0.412483    0.76142  0.2899E-11  0.1219E-13  0.7603E-17  0.1000E-09  0.0000E+00  0.6577E+16
   -0.481233    0.88755  0.2895E-11  0.1219E-13  0.7603E-17  0.1000E-09  0.0000E+00  0.6310E+16
   -0.549982    1.01387  0.2894E-11  0.1219E-13  0.7603E-17  0.1000E-09  0.0000E+00  0.6048E+16
   -0.618732    1.14048  0.2894E-11  0.1219E-13  0.7603E-17  0.1000E-09  0.0000E+00  0.5792E+16
   -0.687482    1.26752  0.2894E-11  0.1219E-13  0.7603E-17  0.1000E-09  0.0000E+00  0.5547E+16
   -0.756233    1.39529  0.2894E-11  0.1219E-13  0.7603E-17  0.1000E-09  0.0000E+00  0.5306E+16
   -0.824984    1.52400  0.2893E-11  0.1219E-13  0.7603E-17  0.1000E-09  0.0000E+00  0.5064E+16
   -0.893735    1.65372  0.2893E-11  0.1219E-13  0.7603E-17  0.1000E-09  0.0000E+00  0.4818E+16
   -0.962487    1.78452  0.2891E-11  0.3164E-13  0.7603E-17  0.1000E-09  0.0000E+00  0.4568E+16
   -1.031239    1.91643  0.2888E-11  0.9929E-13  0.1269E-16  0.1000E-09  0.0000E+00  0.4312E+16
   -1.099991    2.04948  0.2882E-11  0.2474E-12  0.2737E-16  0.1000E-09  0.0000E+00  0.4050E+16
   -1.168743    2.18366  0.2874E-11  0.5689E-12  0.5993E-16  0.1000E-09  0.0000E+00  0.3780E+16
   -1.237495    2.31894  0.2862E-11  0.1270E-11  0.1298E-15  0.1000E-09  0.0000E+00  0.3504E+16
   -1.306247    2.45529  0.2850E-11  0.2793E-11  0.2780E-15  0.1000E-09  0.0000E+00  0.3221E+16
   -1.374999    2.59263  0.2838E-11  0.6076E-11  0.5897E-15  0.1000E-09  0.0000E+00  0.2932E+16
   -1.443751    2.73099  0.2828E-11  0.1309E-10  0.1239E-14  0.1000E-09  0.0000E+00  0.2636E+16
   -1.512504    2.87028  0.2821E-11  0.2795E-10  0.2582E-14  0.1000E-09  0.0000E+00  0.2334E+16
   -1.581256    3.01038  0.2816E-11  0.5915E-10  0.5331E-14  0.1000E-09  0.0000E+00  0.2026E+16
   -1.650008    3.15113  0.2813E-11  0.1241E-09  0.1092E-13  0.1000E-09  0.0000E+00  0.1712E+16
   -1.718760    3.29236  0.2811E-11  0.2581E-09  0.2217E-13  0.1000E-09  0.0000E+00  0.1396E+16
   -1.787512    3.43398  0.2809E-11  0.5443E-09  0.4564E-13  0.2131E-09  0.0000E+00  0.1090E+16
   -1.856263    3.57770  0.2807E-11  0.1159E-08  0.9490E-13  0.6267E-09  0.0000E+00  0.7705E+15
   -1.925014    3.72341  0.2804E-11  0.2465E-08  0.1972E-12  0.2296E-08  0.0000E+00  0.4370E+15
   -1.993765    3.87013  0.2803E-11  0.5182E-08  0.4059E-12  0.1989E-07  0.0000E+00  0.1037E+15
   -2.062516    4.00296  0.2803E-11  0.5909E-08  0.4656E-12  0.3071E-04  0.0000E+00 -0.1840E+12
   -2.131266    4.00365  0.2803E-11  0.6215E-08  0.4971E-12  0.3123E-04  0.0000E+00 -0.1882E+12
   -2.200016    4.00433  0.2803E-11  0.6458E-08  0.5306E-12  0.3099E-04  0.0000E+00 -0.1970E+12
   -2.268766    4.00501  0.2803E-11  0.6641E-08  0.5682E-12  0.2996E-04  0.0000E+00 -0.2117E+12
   -2.337515    4.00572  0.2803E-11  0.6769E-08  0.6148E-12  0.2800E-04  0.0000E+00 -0.2356E+12
   -2.406264    4.00648  0.2803E-11  0.6834E-08  0.6773E-12  0.2496E-04  0.0000E+00 -0.2756E+12
   -2.475012    4.00734  0.2803E-11  0.6818E-08  0.7715E-12  0.2066E-04  0.0000E+00 -0.3495E+12
   -2.543759    4.00837  0.2803E-11  0.6674E-08  0.9390E-12  0.1492E-04  0.0000E+00 -0.5144E+12
   -2.612506    4.00981  0.2803E-11  0.6248E-08  0.1348E-11  0.7791E-05  0.0000E+00 -0.1086E+13
   -2.681253    4.01260  0.2803E-11  0.4457E-08  0.3784E-11  0.1015E-05  0.0000E+00 -0.1160E+14
   -2.749998    4.03292  0.2803E-11  0.0000E+00  0.0000E+00  0.0000E+00  0.0000E+00  0.0000E+00
