 1 - depth, m
 2 - temperature, C
 3 - salinity, kg/kg
 4 - turbulent kinetic energy, m**2/s**2
 5 - dissipation rate, m**2/s**3
 6 - kinematic heat conductance, m**2/s
 7 - modulus of horizontal velocity, m/s
 8 - Richardson number, n/d
   -0.000000   -0.00000  0.2032E-11  0.1219E-13  0.7603E-17  0.1000E-09  0.0000E+00  0.5966E+16
   -0.068746    0.09060  0.1126E-11  0.1219E-13  0.7603E-17  0.1000E-09  0.0000E+00  0.5743E+16
   -0.137492    0.17998  0.8447E-12  0.1219E-13  0.7603E-17  0.1000E-09  0.0000E+00  0.5560E+16
   -0.206239    0.26871  0.7741E-12  0.1219E-13  0.7603E-17  0.1000E-09  0.0000E+00  0.5415E+16
   -0.274986    0.35734  0.7586E-12  0.1219E-13  0.7603E-17  0.1000E-09  0.0000E+00  0.5304E+16
   -0.343735    0.44643  0.7556E-12  0.1219E-13  0.7603E-17  0.1000E-09  0.0000E+00  0.5222E+16
   -0.412483    0.53653  0.7550E-12  0.1219E-13  0.7603E-17  0.1000E-09  0.0000E+00  0.5166E+16
   -0.481232    0.62819  0.7550E-12  0.1219E-13  0.7603E-17  0.1000E-09  0.0000E+00  0.5131E+16
   -0.549982    0.72193  0.7549E-12  0.1219E-13  0.7603E-17  0.1000E-09  0.0000E+00  0.5115E+16
   -0.618732    0.81828  0.7549E-12  0.1219E-13  0.7603E-17  0.1000E-09  0.0000E+00  0.5111E+16
   -0.687482    0.91773  0.7549E-12  0.1219E-13  0.7603E-17  0.1000E-09  0.0000E+00  0.5129E+16
   -0.756233    1.02107  0.7549E-12  0.1219E-13  0.7603E-17  0.1000E-09  0.0000E+00  0.5156E+16
   -0.824984    1.12892  0.7549E-12  0.1219E-13  0.7603E-17  0.1000E-09  0.0000E+00  0.5178E+16
   -0.893735    1.24170  0.7549E-12  0.1219E-13  0.7603E-17  0.1000E-09  0.0000E+00  0.5187E+16
   -0.962486    1.35976  0.7549E-12  0.1219E-13  0.7603E-17  0.1000E-09  0.0000E+00  0.5179E+16
   -1.031238    1.48345  0.7547E-12  0.3685E-13  0.7790E-17  0.1000E-09  0.0000E+00  0.5147E+16
   -1.099990    1.61302  0.7542E-12  0.1108E-12  0.1776E-16  0.1000E-09  0.0000E+00  0.5085E+16
   -1.168742    1.74868  0.7531E-12  0.2972E-12  0.4451E-16  0.1000E-09  0.0000E+00  0.4987E+16
   -1.237494    1.89058  0.7508E-12  0.7650E-12  0.1106E-15  0.1000E-09  0.0000E+00  0.4848E+16
   -1.306246    2.03878  0.7473E-12  0.1932E-11  0.2711E-15  0.1000E-09  0.0000E+00  0.4664E+16
   -1.374998    2.19329  0.7431E-12  0.4815E-11  0.6563E-15  0.1000E-09  0.0000E+00  0.4441E+16
   -1.443751    2.35435  0.7395E-12  0.1185E-10  0.1570E-14  0.1000E-09  0.0000E+00  0.4166E+16
   -1.512503    2.52193  0.7372E-12  0.2881E-10  0.3711E-14  0.1000E-09  0.0000E+00  0.3834E+16
   -1.581255    2.69576  0.7360E-12  0.6925E-10  0.8674E-14  0.1000E-09  0.0000E+00  0.3447E+16
   -1.650007    2.87554  0.7352E-12  0.1646E-09  0.2005E-13  0.1000E-09  0.0000E+00  0.3004E+16
   -1.718759    3.06084  0.7347E-12  0.3868E-09  0.4587E-13  0.1000E-09  0.0000E+00  0.2511E+16
   -1.787510    3.25135  0.7344E-12  0.9216E-09  0.1063E-12  0.2714E-09  0.0000E+00  0.1994E+16
   -1.856262    3.44951  0.7339E-12  0.2209E-08  0.2482E-12  0.8970E-09  0.0000E+00  0.1408E+16
   -1.925013    3.65522  0.7328E-12  0.5268E-08  0.5766E-12  0.3925E-08  0.0000E+00  0.7477E+15
   -1.993764    3.86578  0.7317E-12  0.1210E-07  0.1296E-11  0.6321E-07  0.0000E+00  0.1042E+15
   -2.062515    4.02162  0.7316E-12  0.1340E-07  0.1443E-11  0.5135E-04  0.0000E+00 -0.3446E+12
   -2.131265    4.02224  0.7316E-12  0.1394E-07  0.1520E-11  0.5149E-04  0.0000E+00 -0.3501E+12
   -2.200015    4.02286  0.7316E-12  0.1435E-07  0.1602E-11  0.5057E-04  0.0000E+00 -0.3632E+12
   -2.268765    4.02349  0.7316E-12  0.1465E-07  0.1695E-11  0.4854E-04  0.0000E+00 -0.3858E+12
   -2.337514    4.02414  0.7316E-12  0.1485E-07  0.1812E-11  0.4518E-04  0.0000E+00 -0.4233E+12
   -2.406262    4.02485  0.7316E-12  0.1492E-07  0.1971E-11  0.4028E-04  0.0000E+00 -0.4862E+12
   -2.475010    4.02565  0.7316E-12  0.1484E-07  0.2213E-11  0.3352E-04  0.0000E+00 -0.6010E+12
   -2.543758    4.02661  0.7316E-12  0.1452E-07  0.2643E-11  0.2460E-04  0.0000E+00 -0.8504E+12
   -2.612505    4.02794  0.7316E-12  0.1368E-07  0.3685E-11  0.1339E-04  0.0000E+00 -0.1663E+13
   -2.681251    4.03042  0.7316E-12  0.9875E-08  0.1043E-10  0.1716E-05  0.0000E+00 -0.1640E+14
   -2.749997    4.04988  0.7316E-12  0.0000E+00  0.0000E+00  0.0000E+00  0.0000E+00  0.0000E+00
