 1 - depth, m
 2 - temperature, C
 3 - salinity, kg/kg
 4 - turbulent kinetic energy, m**2/s**2
 5 - dissipation rate, m**2/s**3
 6 - kinematic heat conductance, m**2/s
 7 - modulus of horizontal velocity, m/s
 8 - Richardson number, n/d
   -0.000000   -0.00000  0.4752E-11  0.1219E-13  0.7603E-17  0.1000E-09  0.0000E+00  0.8249E+16
   -0.068746    0.12587  0.2972E-11  0.1219E-13  0.7603E-17  0.1000E-09  0.0000E+00  0.7916E+16
   -0.137492    0.25091  0.2132E-11  0.1219E-13  0.7603E-17  0.1000E-09  0.0000E+00  0.7603E+16
   -0.206239    0.37535  0.1817E-11  0.1219E-13  0.7603E-17  0.1000E-09  0.0000E+00  0.7307E+16
   -0.274987    0.49940  0.1716E-11  0.1219E-13  0.7603E-17  0.1000E-09  0.0000E+00  0.7028E+16
   -0.343735    0.62328  0.1688E-11  0.1219E-13  0.7603E-17  0.1000E-09  0.0000E+00  0.6761E+16
   -0.412483    0.74719  0.1681E-11  0.1219E-13  0.7603E-17  0.1000E-09  0.0000E+00  0.6506E+16
   -0.481232    0.87134  0.1679E-11  0.1219E-13  0.7603E-17  0.1000E-09  0.0000E+00  0.6259E+16
   -0.549982    0.99590  0.1679E-11  0.1219E-13  0.7603E-17  0.1000E-09  0.0000E+00  0.6020E+16
   -0.618732    1.12108  0.1679E-11  0.1219E-13  0.7603E-17  0.1000E-09  0.0000E+00  0.5785E+16
   -0.687482    1.24702  0.1679E-11  0.1219E-13  0.7603E-17  0.1000E-09  0.0000E+00  0.5562E+16
   -0.756233    1.37410  0.1678E-11  0.1219E-13  0.7603E-17  0.1000E-09  0.0000E+00  0.5343E+16
   -0.824984    1.50257  0.1678E-11  0.1219E-13  0.7603E-17  0.1000E-09  0.0000E+00  0.5121E+16
   -0.893735    1.63255  0.1678E-11  0.1219E-13  0.7603E-17  0.1000E-09  0.0000E+00  0.4893E+16
   -0.962487    1.76413  0.1678E-11  0.2320E-13  0.7603E-17  0.1000E-09  0.0000E+00  0.4658E+16
   -1.031239    1.89737  0.1677E-11  0.8236E-13  0.1205E-16  0.1000E-09  0.0000E+00  0.4414E+16
   -1.099990    2.03231  0.1674E-11  0.2179E-12  0.2695E-16  0.1000E-09  0.0000E+00  0.4160E+16
   -1.168742    2.16896  0.1671E-11  0.5240E-12  0.6152E-16  0.1000E-09  0.0000E+00  0.3896E+16
   -1.237495    2.30729  0.1665E-11  0.1219E-11  0.1387E-15  0.1000E-09  0.0000E+00  0.3620E+16
   -1.306247    2.44728  0.1658E-11  0.2793E-11  0.3092E-15  0.1000E-09  0.0000E+00  0.3333E+16
   -1.374999    2.58884  0.1651E-11  0.6323E-11  0.6818E-15  0.1000E-09  0.0000E+00  0.3037E+16
   -1.443751    2.73198  0.1645E-11  0.1417E-10  0.1489E-14  0.1000E-09  0.0000E+00  0.2729E+16
   -1.512503    2.87662  0.1641E-11  0.3143E-10  0.3219E-14  0.1000E-09  0.0000E+00  0.2410E+16
   -1.581256    3.02258  0.1638E-11  0.6907E-10  0.6896E-14  0.1000E-09  0.0000E+00  0.2080E+16
   -1.650008    3.16968  0.1636E-11  0.1503E-09  0.1464E-13  0.1000E-09  0.0000E+00  0.1742E+16
   -1.718760    3.31769  0.1635E-11  0.3242E-09  0.3079E-13  0.1121E-09  0.0000E+00  0.1398E+16
   -1.787511    3.46644  0.1633E-11  0.7091E-09  0.6569E-13  0.3151E-09  0.0000E+00  0.1061E+16
   -1.856263    3.61780  0.1631E-11  0.1564E-08  0.1414E-12  0.1020E-08  0.0000E+00  0.7053E+15
   -1.925014    3.77144  0.1629E-11  0.3437E-08  0.3034E-12  0.4641E-08  0.0000E+00  0.3325E+15
   -1.993765    3.92452  0.1628E-11  0.7107E-08  0.6170E-12  0.1226E-06  0.0000E+00  0.2527E+14
   -2.062516    4.01065  0.1628E-11  0.7993E-08  0.6979E-12  0.3830E-04  0.0000E+00 -0.2279E+12
   -2.131266    4.01124  0.1628E-11  0.8363E-08  0.7403E-12  0.3856E-04  0.0000E+00 -0.2319E+12
   -2.200016    4.01183  0.1628E-11  0.8652E-08  0.7849E-12  0.3798E-04  0.0000E+00 -0.2412E+12
   -2.268766    4.01242  0.1628E-11  0.8864E-08  0.8349E-12  0.3651E-04  0.0000E+00 -0.2571E+12
   -2.337515    4.01304  0.1628E-11  0.9006E-08  0.8969E-12  0.3400E-04  0.0000E+00 -0.2833E+12
   -2.406263    4.01371  0.1628E-11  0.9069E-08  0.9803E-12  0.3026E-04  0.0000E+00 -0.3273E+12
   -2.475011    4.01447  0.1628E-11  0.9028E-08  0.1106E-11  0.2507E-04  0.0000E+00 -0.4082E+12
   -2.543759    4.01538  0.1628E-11  0.8828E-08  0.1330E-11  0.1821E-04  0.0000E+00 -0.5862E+12
   -2.612506    4.01664  0.1628E-11  0.8279E-08  0.1876E-11  0.9670E-05  0.0000E+00 -0.1182E+13
   -2.681252    4.01903  0.1628E-11  0.5924E-08  0.5242E-11  0.1239E-05  0.0000E+00 -0.1171E+14
   -2.749998    4.03696  0.1628E-11  0.0000E+00  0.0000E+00  0.0000E+00  0.0000E+00  0.0000E+00
