 1 - depth, m
 2 - temperature, C
 3 - salinity, kg/kg
 4 - turbulent kinetic energy, m**2/s**2
 5 - dissipation rate, m**2/s**3
 6 - kinematic heat conductance, m**2/s
 7 - modulus of horizontal velocity, m/s
 8 - Richardson number, n/d
   -0.000000   -0.00000  0.2278E-10  0.1219E-13  0.7603E-17  0.1000E-09  0.0000E+00  0.4949E+16
   -0.068746    0.07500  0.1203E-10  0.1219E-13  0.7603E-17  0.1000E-09  0.0000E+00  0.4752E+16
   -0.137492    0.14848  0.9412E-11  0.1219E-13  0.7603E-17  0.1000E-09  0.0000E+00  0.4597E+16
   -0.206239    0.22101  0.8823E-11  0.1219E-13  0.7603E-17  0.1000E-09  0.0000E+00  0.4481E+16
   -0.274986    0.29319  0.8704E-11  0.1219E-13  0.7603E-17  0.1000E-09  0.0000E+00  0.4404E+16
   -0.343735    0.36562  0.8683E-11  0.1219E-13  0.7603E-17  0.1000E-09  0.0000E+00  0.4363E+16
   -0.412483    0.43892  0.8680E-11  0.1219E-13  0.7603E-17  0.1000E-09  0.0000E+00  0.4354E+16
   -0.481232    0.51370  0.8679E-11  0.1219E-13  0.7603E-17  0.1000E-09  0.0000E+00  0.4375E+16
   -0.549982    0.59061  0.8679E-11  0.1219E-13  0.7603E-17  0.1000E-09  0.0000E+00  0.4422E+16
   -0.618732    0.67026  0.8679E-11  0.1219E-13  0.7603E-17  0.1000E-09  0.0000E+00  0.4491E+16
   -0.687482    0.75328  0.8679E-11  0.1219E-13  0.7603E-17  0.1000E-09  0.0000E+00  0.4593E+16
   -0.756233    0.84058  0.8679E-11  0.1219E-13  0.7603E-17  0.1000E-09  0.0000E+00  0.4716E+16
   -0.824984    0.93294  0.8679E-11  0.1219E-13  0.7603E-17  0.1000E-09  0.0000E+00  0.4841E+16
   -0.893735    1.03091  0.8679E-11  0.1219E-13  0.7603E-17  0.1000E-09  0.0000E+00  0.4964E+16
   -0.962486    1.13504  0.8679E-11  0.1219E-13  0.7603E-17  0.1000E-09  0.0000E+00  0.5075E+16
   -1.031238    1.24580  0.8678E-11  0.1219E-13  0.7603E-17  0.1000E-09  0.0000E+00  0.5169E+16
   -1.099990    1.36363  0.8675E-11  0.1219E-13  0.7603E-17  0.1000E-09  0.0000E+00  0.5235E+16
   -1.168742    1.48889  0.8666E-11  0.4366E-13  0.9515E-17  0.1000E-09  0.0000E+00  0.5267E+16
   -1.237494    1.62189  0.8645E-11  0.1353E-12  0.2372E-16  0.1000E-09  0.0000E+00  0.5255E+16
   -1.306246    1.76282  0.8607E-11  0.3769E-12  0.6244E-16  0.1000E-09  0.0000E+00  0.5192E+16
   -1.374998    1.91181  0.8555E-11  0.1013E-11  0.1622E-15  0.1000E-09  0.0000E+00  0.5085E+16
   -1.443750    2.06932  0.8508E-11  0.2674E-11  0.4151E-15  0.1000E-09  0.0000E+00  0.4914E+16
   -1.512503    2.23540  0.8480E-11  0.6960E-11  0.1048E-14  0.1000E-09  0.0000E+00  0.4668E+16
   -1.581255    2.40981  0.8464E-11  0.1787E-10  0.2614E-14  0.1000E-09  0.0000E+00  0.4346E+16
   -1.650007    2.59221  0.8455E-11  0.4532E-10  0.6436E-14  0.1000E-09  0.0000E+00  0.3946E+16
   -1.718759    2.78211  0.8450E-11  0.1135E-09  0.1566E-13  0.1000E-09  0.0000E+00  0.3471E+16
   -1.787510    2.97900  0.8447E-11  0.2880E-09  0.3860E-13  0.1000E-09  0.0000E+00  0.2952E+16
   -1.856262    3.18433  0.8444E-11  0.7344E-09  0.9567E-13  0.2068E-09  0.0000E+00  0.2355E+16
   -1.925013    3.39821  0.8440E-11  0.1863E-08  0.2361E-12  0.7177E-09  0.0000E+00  0.1674E+16
   -1.993764    3.62054  0.8430E-11  0.4694E-08  0.5787E-12  0.3269E-08  0.0000E+00  0.9011E+15
   -2.062515    3.84762  0.8415E-11  0.1119E-07  0.1347E-11  0.4880E-07  0.0000E+00  0.1405E+15
   -2.131265    4.02289  0.8413E-11  0.1271E-07  0.1541E-11  0.4370E-04  0.0000E+00 -0.4382E+12
   -2.200015    4.02365  0.8413E-11  0.1332E-07  0.1640E-11  0.4380E-04  0.0000E+00 -0.4475E+12
   -2.268764    4.02441  0.8413E-11  0.1377E-07  0.1748E-11  0.4273E-04  0.0000E+00 -0.4701E+12
   -2.337513    4.02519  0.8413E-11  0.1409E-07  0.1879E-11  0.4034E-04  0.0000E+00 -0.5111E+12
   -2.406262    4.02602  0.8413E-11  0.1428E-07  0.2051E-11  0.3643E-04  0.0000E+00 -0.5829E+12
   -2.475010    4.02694  0.8413E-11  0.1429E-07  0.2308E-11  0.3071E-04  0.0000E+00 -0.7166E+12
   -2.543758    4.02805  0.8413E-11  0.1406E-07  0.2759E-11  0.2285E-04  0.0000E+00 -0.1010E+13
   -2.612505    4.02957  0.8413E-11  0.1330E-07  0.3837E-11  0.1267E-04  0.0000E+00 -0.1975E+13
   -2.681251    4.03240  0.8413E-11  0.9776E-08  0.1058E-10  0.1759E-05  0.0000E+00 -0.1905E+14
   -2.749997    4.05382  0.8413E-11  0.0000E+00  0.0000E+00  0.0000E+00  0.0000E+00  0.0000E+00
