 1 - depth, m
 2 - temperature, C
 3 - salinity, kg/kg
 4 - turbulent kinetic energy, m**2/s**2
 5 - dissipation rate, m**2/s**3
 6 - kinematic heat conductance, m**2/s
 7 - modulus of horizontal velocity, m/s
 8 - Richardson number, n/d
   -0.000000    0.00000  0.0000E+00  0.1219E-13  0.7603E-17  0.1000E-09  0.0000E+00  0.4719E+16
   -0.068746    0.07147  0.6542E-12  0.1219E-13  0.7603E-17  0.1000E-09  0.0000E+00  0.4835E+16
   -0.137493    0.14618  0.4816E-11  0.1219E-13  0.7603E-17  0.1000E-09  0.0000E+00  0.4979E+16
   -0.206241    0.22477  0.1007E-10  0.1219E-13  0.7603E-17  0.1000E-09  0.0000E+00  0.5133E+16
   -0.274989    0.30766  0.1382E-10  0.1219E-13  0.7603E-17  0.1000E-09  0.0000E+00  0.5273E+16
   -0.343738    0.39493  0.1534E-10  0.1219E-13  0.7603E-17  0.1000E-09  0.0000E+00  0.5377E+16
   -0.412487    0.48629  0.1520E-10  0.1219E-13  0.7603E-17  0.1000E-09  0.0000E+00  0.5434E+16
   -0.481236    0.58126  0.1430E-10  0.1219E-13  0.7603E-17  0.1000E-09  0.0000E+00  0.5442E+16
   -0.549987    0.67928  0.1330E-10  0.1219E-13  0.7603E-17  0.1000E-09  0.0000E+00  0.5406E+16
   -0.618737    0.77978  0.1251E-10  0.1219E-13  0.7603E-17  0.1000E-09  0.0000E+00  0.5332E+16
   -0.687488    0.88227  0.1198E-10  0.1219E-13  0.7603E-17  0.1000E-09  0.0000E+00  0.5226E+16
   -0.756239    0.98630  0.1167E-10  0.1219E-13  0.7603E-17  0.1000E-09  0.0000E+00  0.5096E+16
   -0.824991    1.09153  0.1150E-10  0.1219E-13  0.7603E-17  0.1000E-09  0.0000E+00  0.4950E+16
   -0.893743    1.19772  0.1142E-10  0.1219E-13  0.7603E-17  0.1000E-09  0.0000E+00  0.4791E+16
   -0.962495    1.30470  0.1138E-10  0.1219E-13  0.7603E-17  0.1000E-09  0.0000E+00  0.4623E+16
   -1.031247    1.41234  0.1136E-10  0.1219E-13  0.7603E-17  0.1000E-09  0.0000E+00  0.4448E+16
   -1.100000    1.52054  0.1135E-10  0.1219E-13  0.7603E-17  0.1000E-09  0.0000E+00  0.4268E+16
   -1.168752    1.62923  0.1134E-10  0.1219E-13  0.7603E-17  0.1000E-09  0.0000E+00  0.4086E+16
   -1.237505    1.73839  0.1133E-10  0.1219E-13  0.7603E-17  0.1000E-09  0.0000E+00  0.3901E+16
   -1.306258    1.84801  0.1131E-10  0.1219E-13  0.7603E-17  0.1000E-09  0.0000E+00  0.3717E+16
   -1.375010    1.95815  0.1129E-10  0.1219E-13  0.7603E-17  0.1000E-09  0.0000E+00  0.3536E+16
   -1.443763    2.06902  0.1127E-10  0.1219E-13  0.7603E-17  0.1000E-09  0.0000E+00  0.3358E+16
   -1.512516    2.18080  0.1125E-10  0.1219E-13  0.7603E-17  0.1000E-09  0.0000E+00  0.3182E+16
   -1.581269    2.29373  0.1122E-10  0.1219E-13  0.7603E-17  0.1000E-09  0.0000E+00  0.3005E+16
   -1.650021    2.40801  0.1119E-10  0.1219E-13  0.7603E-17  0.1000E-09  0.0000E+00  0.2826E+16
   -1.718774    2.52383  0.1117E-10  0.1219E-13  0.7603E-17  0.1000E-09  0.0000E+00  0.2638E+16
   -1.787526    2.64111  0.1115E-10  0.1219E-13  0.7603E-17  0.1000E-09  0.0000E+00  0.2372E+16
   -1.856278    2.75634  0.1113E-10  0.1219E-13  0.7603E-17  0.1000E-09  0.0000E+00  0.2107E+16
   -1.925030    2.86881  0.1112E-10  0.1219E-13  0.7603E-17  0.1000E-09  0.0000E+00  0.1844E+16
   -1.993782    2.97770  0.1111E-10  0.1219E-13  0.7603E-17  0.1000E-09  0.0000E+00  0.1605E+16
   -2.062533    3.08331  0.1109E-10  0.1219E-13  0.7603E-17  0.1000E-09  0.0000E+00  0.1433E+16
   -2.131284    3.18953  0.1108E-10  0.1219E-13  0.7603E-17  0.1000E-09  0.0000E+00  0.1267E+16
   -2.200034    3.29713  0.1107E-10  0.1219E-13  0.7603E-17  0.1000E-09  0.0000E+00  0.1098E+16
   -2.268784    3.40649  0.1107E-10  0.3040E-13  0.1837E-16  0.1000E-09  0.0000E+00  0.9184E+15
   -2.337534    3.51736  0.1106E-10  0.1755E-12  0.1017E-15  0.1000E-09  0.0000E+00  0.7299E+15
   -2.406283    3.62947  0.1105E-10  0.1044E-11  0.5824E-15  0.1000E-09  0.0000E+00  0.5334E+15
   -2.475032    3.74226  0.1105E-10  0.6191E-11  0.3336E-14  0.1000E-09  0.0000E+00  0.3314E+15
   -2.543780    3.85451  0.1105E-10  0.3668E-10  0.1920E-13  0.6790E-09  0.0000E+00  0.1321E+15
   -2.612528    3.96354  0.1105E-10  0.2188E-09  0.1136E-12  0.1038E-06  0.0000E+00 -0.5729E+13
   -2.681275    4.02177  0.1105E-10  0.6471E-09  0.5650E-12  0.2563E-06  0.0000E+00 -0.2089E+14
   -2.750021    4.04898  0.1105E-10  0.0000E+00  0.0000E+00  0.0000E+00  0.0000E+00  0.0000E+00
