 1 - depth, m
 2 - temperature, C
 3 - salinity, kg/kg
 4 - turbulent kinetic energy, m**2/s**2
 5 - dissipation rate, m**2/s**3
 6 - kinematic heat conductance, m**2/s
 7 - modulus of horizontal velocity, m/s
 8 - Richardson number, n/d
   -0.000000   -0.00000  0.2096E-11  0.1219E-13  0.7603E-17  0.1000E-09  0.0000E+00  0.7403E+16
   -0.068746    0.11276  0.1235E-11  0.1219E-13  0.7603E-17  0.1000E-09  0.0000E+00  0.7106E+16
   -0.137492    0.22438  0.8992E-12  0.1219E-13  0.7603E-17  0.1000E-09  0.0000E+00  0.6843E+16
   -0.206239    0.33531  0.7919E-12  0.1219E-13  0.7603E-17  0.1000E-09  0.0000E+00  0.6610E+16
   -0.274986    0.44598  0.7633E-12  0.1219E-13  0.7603E-17  0.1000E-09  0.0000E+00  0.6404E+16
   -0.343735    0.55681  0.7567E-12  0.1219E-13  0.7603E-17  0.1000E-09  0.0000E+00  0.6219E+16
   -0.412483    0.66820  0.7553E-12  0.1219E-13  0.7603E-17  0.1000E-09  0.0000E+00  0.6053E+16
   -0.481232    0.78054  0.7550E-12  0.1219E-13  0.7603E-17  0.1000E-09  0.0000E+00  0.5900E+16
   -0.549982    0.89419  0.7550E-12  0.1219E-13  0.7603E-17  0.1000E-09  0.0000E+00  0.5758E+16
   -0.618732    1.00951  0.7549E-12  0.1219E-13  0.7603E-17  0.1000E-09  0.0000E+00  0.5622E+16
   -0.687482    1.12680  0.7549E-12  0.1219E-13  0.7603E-17  0.1000E-09  0.0000E+00  0.5499E+16
   -0.756233    1.24665  0.7549E-12  0.1219E-13  0.7603E-17  0.1000E-09  0.0000E+00  0.5381E+16
   -0.824984    1.36947  0.7549E-12  0.1219E-13  0.7603E-17  0.1000E-09  0.0000E+00  0.5254E+16
   -0.893735    1.49551  0.7549E-12  0.5451E-13  0.8261E-17  0.1000E-09  0.0000E+00  0.5116E+16
   -0.962486    1.62496  0.7547E-12  0.1492E-12  0.1638E-16  0.1000E-09  0.0000E+00  0.4963E+16
   -1.031238    1.75801  0.7544E-12  0.3477E-12  0.3513E-16  0.1000E-09  0.0000E+00  0.4791E+16
   -1.099990    1.89476  0.7536E-12  0.7688E-12  0.7488E-16  0.1000E-09  0.0000E+00  0.4597E+16
   -1.168742    2.03531  0.7520E-12  0.1664E-11  0.1578E-15  0.1000E-09  0.0000E+00  0.4379E+16
   -1.237494    2.17967  0.7494E-12  0.3561E-11  0.3293E-15  0.1000E-09  0.0000E+00  0.4135E+16
   -1.306246    2.32785  0.7460E-12  0.7545E-11  0.6814E-15  0.1000E-09  0.0000E+00  0.3862E+16
   -1.374998    2.47975  0.7424E-12  0.1585E-10  0.1398E-14  0.1000E-09  0.0000E+00  0.3565E+16
   -1.443751    2.63546  0.7393E-12  0.3303E-10  0.2846E-14  0.1000E-09  0.0000E+00  0.3239E+16
   -1.512503    2.79483  0.7372E-12  0.6828E-10  0.5747E-14  0.1000E-09  0.0000E+00  0.2881E+16
   -1.581255    2.95762  0.7359E-12  0.1400E-09  0.1152E-13  0.1000E-09  0.0000E+00  0.2495E+16
   -1.650007    3.12350  0.7351E-12  0.2850E-09  0.2292E-13  0.1000E-09  0.0000E+00  0.2082E+16
   -1.718759    3.29209  0.7346E-12  0.5755E-09  0.4526E-13  0.1400E-09  0.0000E+00  0.1646E+16
   -1.787510    3.46303  0.7341E-12  0.1179E-08  0.9064E-13  0.3818E-09  0.0000E+00  0.1208E+16
   -1.856262    3.63899  0.7332E-12  0.2440E-08  0.1835E-12  0.1280E-08  0.0000E+00  0.7298E+15
   -1.925013    3.81942  0.7322E-12  0.5035E-08  0.3706E-12  0.8664E-08  0.0000E+00  0.2177E+15
   -1.993764    3.99664  0.7318E-12  0.5747E-08  0.4256E-12  0.2926E-04  0.0000E+00 -0.1569E+12
   -2.062515    3.99757  0.7318E-12  0.6070E-08  0.4565E-12  0.3076E-04  0.0000E+00 -0.1625E+12
   -2.131265    3.99846  0.7318E-12  0.6344E-08  0.4898E-12  0.3141E-04  0.0000E+00 -0.1715E+12
   -2.200015    3.99933  0.7318E-12  0.6572E-08  0.5267E-12  0.3126E-04  0.0000E+00 -0.1847E+12
   -2.268765    4.00020  0.7318E-12  0.6752E-08  0.5695E-12  0.3028E-04  0.0000E+00 -0.2038E+12
   -2.337514    4.00111  0.7318E-12  0.6887E-08  0.6233E-12  0.2831E-04  0.0000E+00 -0.2329E+12
   -2.406262    4.00208  0.7318E-12  0.6968E-08  0.6962E-12  0.2523E-04  0.0000E+00 -0.2800E+12
   -2.475010    4.00318  0.7318E-12  0.6974E-08  0.8058E-12  0.2084E-04  0.0000E+00 -0.3658E+12
   -2.543758    4.00451  0.7318E-12  0.6857E-08  0.9996E-12  0.1502E-04  0.0000E+00 -0.5573E+12
   -2.612505    4.00637  0.7318E-12  0.6464E-08  0.1470E-11  0.7849E-05  0.0000E+00 -0.1230E+13
   -2.681251    4.00996  0.7318E-12  0.4758E-08  0.4200E-11  0.1108E-05  0.0000E+00 -0.1372E+14
   -2.749997    4.03439  0.7318E-12  0.0000E+00  0.0000E+00  0.0000E+00  0.0000E+00  0.0000E+00
