 1 - depth, m
 2 - temperature, C
 3 - salinity, kg/kg
 4 - turbulent kinetic energy, m**2/s**2
 5 - dissipation rate, m**2/s**3
 6 - kinematic heat conductance, m**2/s
 7 - modulus of horizontal velocity, m/s
 8 - Richardson number, n/d
   -0.000000   -0.00000  0.2870E-12  0.1219E-13  0.7603E-17  0.1000E-09  0.0000E+00  0.6815E+16
   -0.068746    0.10367  0.1858E-11  0.1219E-13  0.7603E-17  0.1000E-09  0.0000E+00  0.6740E+16
   -0.137493    0.20920  0.3195E-11  0.1219E-13  0.7603E-17  0.1000E-09  0.0000E+00  0.6647E+16
   -0.206240    0.31644  0.3829E-11  0.1219E-13  0.7603E-17  0.1000E-09  0.0000E+00  0.6538E+16
   -0.274988    0.42526  0.3914E-11  0.1219E-13  0.7603E-17  0.1000E-09  0.0000E+00  0.6412E+16
   -0.343736    0.53553  0.3724E-11  0.1219E-13  0.7603E-17  0.1000E-09  0.0000E+00  0.6272E+16
   -0.412485    0.64711  0.3464E-11  0.1219E-13  0.7603E-17  0.1000E-09  0.0000E+00  0.6117E+16
   -0.481234    0.75988  0.3239E-11  0.1219E-13  0.7603E-17  0.1000E-09  0.0000E+00  0.5949E+16
   -0.549984    0.87368  0.3083E-11  0.1219E-13  0.7603E-17  0.1000E-09  0.0000E+00  0.5769E+16
   -0.618734    0.98839  0.2988E-11  0.1219E-13  0.7603E-17  0.1000E-09  0.0000E+00  0.5579E+16
   -0.687485    1.10388  0.2937E-11  0.1219E-13  0.7603E-17  0.1000E-09  0.0000E+00  0.5379E+16
   -0.756236    1.22003  0.2912E-11  0.1219E-13  0.7603E-17  0.1000E-09  0.0000E+00  0.5171E+16
   -0.824987    1.33672  0.2900E-11  0.1219E-13  0.7603E-17  0.1000E-09  0.0000E+00  0.4957E+16
   -0.893739    1.45385  0.2895E-11  0.1219E-13  0.7603E-17  0.1000E-09  0.0000E+00  0.4737E+16
   -0.962491    1.57130  0.2891E-11  0.1219E-13  0.7603E-17  0.1000E-09  0.0000E+00  0.4512E+16
   -1.031243    1.68899  0.2888E-11  0.1219E-13  0.7603E-17  0.1000E-09  0.0000E+00  0.4284E+16
   -1.099995    1.80684  0.2884E-11  0.1219E-13  0.7603E-17  0.1000E-09  0.0000E+00  0.4053E+16
   -1.168747    1.92476  0.2878E-11  0.1219E-13  0.7603E-17  0.1000E-09  0.0000E+00  0.3821E+16
   -1.237500    2.04270  0.2871E-11  0.1219E-13  0.7603E-17  0.1000E-09  0.0000E+00  0.3588E+16
   -1.306252    2.16060  0.2864E-11  0.1219E-13  0.7603E-17  0.1000E-09  0.0000E+00  0.3354E+16
   -1.375005    2.27842  0.2855E-11  0.1219E-13  0.7603E-17  0.1000E-09  0.0000E+00  0.3122E+16
   -1.443757    2.39615  0.2846E-11  0.1219E-13  0.7603E-17  0.1000E-09  0.0000E+00  0.2891E+16
   -1.512509    2.51377  0.2838E-11  0.1219E-13  0.7603E-17  0.1000E-09  0.0000E+00  0.2662E+16
   -1.581262    2.63126  0.2831E-11  0.1219E-13  0.7603E-17  0.1000E-09  0.0000E+00  0.2433E+16
   -1.650014    2.74863  0.2824E-11  0.1219E-13  0.7603E-17  0.1000E-09  0.0000E+00  0.2206E+16
   -1.718766    2.86587  0.2819E-11  0.1219E-13  0.7603E-17  0.1000E-09  0.0000E+00  0.1980E+16
   -1.787518    2.98291  0.2815E-11  0.4009E-13  0.1054E-16  0.1000E-09  0.0000E+00  0.1731E+16
   -1.856270    3.09802  0.2812E-11  0.1404E-12  0.3095E-16  0.1000E-09  0.0000E+00  0.1489E+16
   -1.925022    3.21078  0.2810E-11  0.4572E-12  0.9590E-16  0.1000E-09  0.0000E+00  0.1254E+16
   -1.993773    3.32057  0.2808E-11  0.1453E-11  0.2945E-15  0.1000E-09  0.0000E+00  0.1033E+16
   -2.062524    3.42725  0.2806E-11  0.4451E-11  0.8729E-15  0.1000E-09  0.0000E+00  0.8474E+15
   -2.131275    3.53330  0.2805E-11  0.1340E-10  0.2546E-14  0.1000E-09  0.0000E+00  0.6661E+15
   -2.200025    3.63888  0.2804E-11  0.3985E-10  0.7335E-14  0.1000E-09  0.0000E+00  0.4875E+15
   -2.268775    3.74390  0.2804E-11  0.1182E-09  0.2109E-13  0.3430E-09  0.0000E+00  0.3114E+15
   -2.337524    3.84802  0.2803E-11  0.3529E-09  0.6110E-13  0.2206E-08  0.0000E+00  0.1396E+15
   -2.406273    3.94989  0.2803E-11  0.1010E-08  0.1708E-12  0.1079E-06  0.0000E+00  0.6856E+13
   -2.475021    4.00761  0.2803E-11  0.1996E-08  0.3481E-12  0.5258E-05  0.0000E+00 -0.9413E+12
   -2.543769    4.01026  0.2803E-11  0.2332E-08  0.4601E-12  0.4783E-05  0.0000E+00 -0.1148E+13
   -2.612516    4.01315  0.2803E-11  0.2369E-08  0.6396E-12  0.3022E-05  0.0000E+00 -0.1993E+13
   -2.681263    4.01753  0.2803E-11  0.1762E-08  0.1373E-11  0.5162E-06  0.0000E+00 -0.1217E+14
   -2.750009    4.03660  0.2803E-11  0.0000E+00  0.0000E+00  0.0000E+00  0.0000E+00  0.0000E+00
