 1 - depth, m
 2 - temperature, C
 3 - salinity, kg/kg
 4 - turbulent kinetic energy, m**2/s**2
 5 - dissipation rate, m**2/s**3
 6 - kinematic heat conductance, m**2/s
 7 - modulus of horizontal velocity, m/s
 8 - Richardson number, n/d
   -0.000000   -0.00000  0.2566E-11  0.1219E-13  0.7603E-17  0.1000E-09  0.0000E+00  0.4704E+16
   -0.068746    0.07124  0.1354E-11  0.1219E-13  0.7603E-17  0.1000E-09  0.0000E+00  0.4505E+16
   -0.137492    0.14079  0.1064E-11  0.1219E-13  0.7603E-17  0.1000E-09  0.0000E+00  0.4350E+16
   -0.206239    0.20925  0.1000E-11  0.1219E-13  0.7603E-17  0.1000E-09  0.0000E+00  0.4237E+16
   -0.274986    0.27722  0.9878E-12  0.1219E-13  0.7603E-17  0.1000E-09  0.0000E+00  0.4162E+16
   -0.343734    0.34531  0.9857E-12  0.1219E-13  0.7603E-17  0.1000E-09  0.0000E+00  0.4124E+16
   -0.412483    0.41414  0.9854E-12  0.1219E-13  0.7603E-17  0.1000E-09  0.0000E+00  0.4119E+16
   -0.481232    0.48432  0.9853E-12  0.1219E-13  0.7603E-17  0.1000E-09  0.0000E+00  0.4146E+16
   -0.549982    0.55649  0.9853E-12  0.1219E-13  0.7603E-17  0.1000E-09  0.0000E+00  0.4200E+16
   -0.618732    0.63127  0.9853E-12  0.1219E-13  0.7603E-17  0.1000E-09  0.0000E+00  0.4278E+16
   -0.687482    0.70931  0.9853E-12  0.1219E-13  0.7603E-17  0.1000E-09  0.0000E+00  0.4392E+16
   -0.756232    0.79153  0.9853E-12  0.1219E-13  0.7603E-17  0.1000E-09  0.0000E+00  0.4529E+16
   -0.824983    0.87871  0.9853E-12  0.1219E-13  0.7603E-17  0.1000E-09  0.0000E+00  0.4674E+16
   -0.893735    0.97145  0.9853E-12  0.1219E-13  0.7603E-17  0.1000E-09  0.0000E+00  0.4820E+16
   -0.962486    1.07033  0.9853E-12  0.1219E-13  0.7603E-17  0.1000E-09  0.0000E+00  0.4959E+16
   -1.031238    1.17590  0.9851E-12  0.1219E-13  0.7603E-17  0.1000E-09  0.0000E+00  0.5086E+16
   -1.099990    1.28865  0.9847E-12  0.1219E-13  0.7603E-17  0.1000E-09  0.0000E+00  0.5190E+16
   -1.168742    1.40904  0.9833E-12  0.5864E-13  0.1066E-16  0.1000E-09  0.0000E+00  0.5264E+16
   -1.237494    1.53745  0.9802E-12  0.1725E-12  0.2521E-16  0.1000E-09  0.0000E+00  0.5300E+16
   -1.306246    1.67423  0.9748E-12  0.4460E-12  0.6156E-16  0.1000E-09  0.0000E+00  0.5288E+16
   -1.374998    1.81964  0.9684E-12  0.1109E-11  0.1482E-15  0.1000E-09  0.0000E+00  0.5236E+16
   -1.443750    1.97434  0.9634E-12  0.2711E-11  0.3521E-15  0.1000E-09  0.0000E+00  0.5122E+16
   -1.512502    2.13859  0.9607E-12  0.6545E-11  0.8271E-15  0.1000E-09  0.0000E+00  0.4930E+16
   -1.581255    2.31235  0.9591E-12  0.1563E-10  0.1922E-14  0.1000E-09  0.0000E+00  0.4655E+16
   -1.650007    2.49542  0.9580E-12  0.3691E-10  0.4422E-14  0.1000E-09  0.0000E+00  0.4291E+16
   -1.718758    2.68748  0.9573E-12  0.8629E-10  0.1007E-13  0.1000E-09  0.0000E+00  0.3838E+16
   -1.787510    2.88801  0.9569E-12  0.2047E-09  0.2326E-13  0.1000E-09  0.0000E+00  0.3316E+16
   -1.856261    3.09774  0.9567E-12  0.4891E-09  0.5416E-13  0.1035E-09  0.0000E+00  0.2706E+16
   -1.925013    3.31672  0.9565E-12  0.1166E-08  0.1258E-12  0.3202E-09  0.0000E+00  0.2002E+16
   -1.993764    3.54467  0.9559E-12  0.2768E-08  0.2915E-12  0.1239E-08  0.0000E+00  0.1199E+16
   -2.062514    3.77942  0.9541E-12  0.6372E-08  0.6552E-12  0.1001E-07  0.0000E+00  0.3339E+15
   -2.131265    4.00289  0.9530E-12  0.7503E-08  0.7770E-12  0.2873E-04  0.0000E+00 -0.3136E+12
   -2.200015    4.00406  0.9530E-12  0.7976E-08  0.8431E-12  0.2970E-04  0.0000E+00 -0.3257E+12
   -2.268764    4.00520  0.9530E-12  0.8350E-08  0.9160E-12  0.2962E-04  0.0000E+00 -0.3490E+12
   -2.337513    4.00634  0.9530E-12  0.8642E-08  0.1004E-11  0.2841E-04  0.0000E+00 -0.3885E+12
   -2.406262    4.00755  0.9530E-12  0.8844E-08  0.1120E-11  0.2593E-04  0.0000E+00 -0.4554E+12
   -2.475010    4.00888  0.9530E-12  0.8936E-08  0.1290E-11  0.2198E-04  0.0000E+00 -0.5791E+12
   -2.543757    4.01046  0.9530E-12  0.8863E-08  0.1584E-11  0.1635E-04  0.0000E+00 -0.8539E+12
   -2.612504    4.01262  0.9530E-12  0.8443E-08  0.2283E-11  0.8975E-05  0.0000E+00 -0.1792E+13
   -2.681251    4.01666  0.9530E-12  0.6457E-08  0.6260E-11  0.1433E-05  0.0000E+00 -0.1760E+14
   -2.749996    4.04261  0.9530E-12  0.0000E+00  0.0000E+00  0.0000E+00  0.0000E+00  0.0000E+00
