 1 - depth, m
 2 - temperature, C
 3 - salinity, kg/kg
 4 - turbulent kinetic energy, m**2/s**2
 5 - dissipation rate, m**2/s**3
 6 - kinematic heat conductance, m**2/s
 7 - modulus of horizontal velocity, m/s
 8 - Richardson number, n/d
   -0.000000   -0.00000  0.1360E-10  0.1219E-13  0.7603E-17  0.1000E-09  0.0000E+00  0.5847E+16
   -0.068746    0.08877  0.7522E-11  0.1219E-13  0.7603E-17  0.1000E-09  0.0000E+00  0.5629E+16
   -0.137492    0.17632  0.5637E-11  0.1219E-13  0.7603E-17  0.1000E-09  0.0000E+00  0.5451E+16
   -0.206239    0.26319  0.5165E-11  0.1219E-13  0.7603E-17  0.1000E-09  0.0000E+00  0.5309E+16
   -0.274986    0.34992  0.5062E-11  0.1219E-13  0.7603E-17  0.1000E-09  0.0000E+00  0.5200E+16
   -0.343735    0.43705  0.5042E-11  0.1219E-13  0.7603E-17  0.1000E-09  0.0000E+00  0.5119E+16
   -0.412483    0.52511  0.5038E-11  0.1219E-13  0.7603E-17  0.1000E-09  0.0000E+00  0.5064E+16
   -0.481232    0.61461  0.5038E-11  0.1219E-13  0.7603E-17  0.1000E-09  0.0000E+00  0.5030E+16
   -0.549982    0.70607  0.5038E-11  0.1219E-13  0.7603E-17  0.1000E-09  0.0000E+00  0.5014E+16
   -0.618732    0.79999  0.5038E-11  0.1219E-13  0.7603E-17  0.1000E-09  0.0000E+00  0.5010E+16
   -0.687482    0.89686  0.5038E-11  0.1219E-13  0.7603E-17  0.1000E-09  0.0000E+00  0.5029E+16
   -0.756233    0.99742  0.5038E-11  0.1219E-13  0.7603E-17  0.1000E-09  0.0000E+00  0.5059E+16
   -0.824984    1.10228  0.5038E-11  0.1219E-13  0.7603E-17  0.1000E-09  0.0000E+00  0.5083E+16
   -0.893735    1.21184  0.5038E-11  0.1219E-13  0.7603E-17  0.1000E-09  0.0000E+00  0.5098E+16
   -0.962486    1.32648  0.5037E-11  0.1219E-13  0.7603E-17  0.1000E-09  0.0000E+00  0.5098E+16
   -1.031238    1.44651  0.5036E-11  0.5336E-13  0.8734E-17  0.1000E-09  0.0000E+00  0.5076E+16
   -1.099990    1.57222  0.5032E-11  0.1499E-12  0.1838E-16  0.1000E-09  0.0000E+00  0.5028E+16
   -1.168742    1.70384  0.5024E-11  0.3631E-12  0.4135E-16  0.1000E-09  0.0000E+00  0.4948E+16
   -1.237494    1.84154  0.5007E-11  0.8387E-12  0.9223E-16  0.1000E-09  0.0000E+00  0.4831E+16
   -1.306246    1.98544  0.4982E-11  0.1900E-11  0.2032E-15  0.1000E-09  0.0000E+00  0.4672E+16
   -1.374998    2.13560  0.4954E-11  0.4251E-11  0.4431E-15  0.1000E-09  0.0000E+00  0.4478E+16
   -1.443751    2.29237  0.4930E-11  0.9415E-11  0.9570E-15  0.1000E-09  0.0000E+00  0.4235E+16
   -1.512503    2.45579  0.4916E-11  0.2066E-10  0.2048E-14  0.1000E-09  0.0000E+00  0.3937E+16
   -1.581255    2.62570  0.4907E-11  0.4492E-10  0.4344E-14  0.1000E-09  0.0000E+00  0.3583E+16
   -1.650007    2.80185  0.4902E-11  0.9679E-10  0.9135E-14  0.1000E-09  0.0000E+00  0.3172E+16
   -1.718759    2.98385  0.4899E-11  0.2068E-09  0.1905E-13  0.1000E-09  0.0000E+00  0.2708E+16
   -1.787510    3.17134  0.4897E-11  0.4481E-09  0.4029E-13  0.1000E-09  0.0000E+00  0.2225E+16
   -1.856262    3.36714  0.4895E-11  0.9802E-09  0.8605E-13  0.2627E-09  0.0000E+00  0.1668E+16
   -1.925013    3.57129  0.4891E-11  0.2143E-08  0.1838E-12  0.9067E-09  0.0000E+00  0.1032E+16
   -1.993764    3.78341  0.4884E-11  0.4662E-08  0.3909E-12  0.6172E-08  0.0000E+00  0.3225E+15
   -2.062515    3.99537  0.4880E-11  0.5498E-08  0.4642E-12  0.2360E-04  0.0000E+00 -0.2001E+12
   -2.131265    3.99669  0.4880E-11  0.5879E-08  0.5066E-12  0.2538E-04  0.0000E+00 -0.2110E+12
   -2.200015    3.99791  0.4880E-11  0.6201E-08  0.5531E-12  0.2620E-04  0.0000E+00 -0.2276E+12
   -2.268765    3.99910  0.4880E-11  0.6466E-08  0.6064E-12  0.2608E-04  0.0000E+00 -0.2520E+12
   -2.337514    4.00031  0.4880E-11  0.6680E-08  0.6725E-12  0.2491E-04  0.0000E+00 -0.2893E+12
   -2.406262    4.00157  0.4880E-11  0.6835E-08  0.7603E-12  0.2259E-04  0.0000E+00 -0.3498E+12
   -2.475010    4.00297  0.4880E-11  0.6911E-08  0.8902E-12  0.1897E-04  0.0000E+00 -0.4601E+12
   -2.543758    4.00465  0.4880E-11  0.6861E-08  0.1116E-11  0.1390E-04  0.0000E+00 -0.7068E+12
   -2.612505    4.00696  0.4880E-11  0.6534E-08  0.1655E-11  0.7439E-05  0.0000E+00 -0.1575E+13
   -2.681251    4.01136  0.4880E-11  0.4996E-08  0.4645E-11  0.1186E-05  0.0000E+00 -0.1666E+14
   -2.749997    4.03880  0.4880E-11  0.0000E+00  0.0000E+00  0.0000E+00  0.0000E+00  0.0000E+00
