 1 - depth, m
 2 - temperature, C
 3 - salinity, kg/kg
 4 - turbulent kinetic energy, m**2/s**2
 5 - dissipation rate, m**2/s**3
 6 - kinematic heat conductance, m**2/s
 7 - modulus of horizontal velocity, m/s
 8 - Richardson number, n/d
   -0.000000   -0.00000  0.1063E-10  0.1219E-13  0.7603E-17  0.1000E-09  0.0000E+00  0.6174E+16
   -0.068746    0.09380  0.5849E-11  0.1219E-13  0.7603E-17  0.1000E-09  0.0000E+00  0.5948E+16
   -0.137492    0.18650  0.4329E-11  0.1219E-13  0.7603E-17  0.1000E-09  0.0000E+00  0.5753E+16
   -0.206239    0.27852  0.3925E-11  0.1219E-13  0.7603E-17  0.1000E-09  0.0000E+00  0.5589E+16
   -0.274987    0.37030  0.3832E-11  0.1219E-13  0.7603E-17  0.1000E-09  0.0000E+00  0.5454E+16
   -0.343735    0.46231  0.3812E-11  0.1219E-13  0.7603E-17  0.1000E-09  0.0000E+00  0.5344E+16
   -0.412483    0.55500  0.3809E-11  0.1219E-13  0.7603E-17  0.1000E-09  0.0000E+00  0.5257E+16
   -0.481232    0.64884  0.3808E-11  0.1219E-13  0.7603E-17  0.1000E-09  0.0000E+00  0.5188E+16
   -0.549982    0.74427  0.3808E-11  0.1219E-13  0.7603E-17  0.1000E-09  0.0000E+00  0.5135E+16
   -0.618732    0.84173  0.3808E-11  0.1219E-13  0.7603E-17  0.1000E-09  0.0000E+00  0.5092E+16
   -0.687482    0.94162  0.3808E-11  0.1219E-13  0.7603E-17  0.1000E-09  0.0000E+00  0.5069E+16
   -0.756233    1.04460  0.3808E-11  0.1219E-13  0.7603E-17  0.1000E-09  0.0000E+00  0.5054E+16
   -0.824984    1.15119  0.3808E-11  0.1219E-13  0.7603E-17  0.1000E-09  0.0000E+00  0.5035E+16
   -0.893735    1.26172  0.3808E-11  0.1219E-13  0.7603E-17  0.1000E-09  0.0000E+00  0.5006E+16
   -0.962487    1.37648  0.3807E-11  0.1219E-13  0.7603E-17  0.1000E-09  0.0000E+00  0.4963E+16
   -1.031238    1.49572  0.3806E-11  0.1219E-13  0.7603E-17  0.1000E-09  0.0000E+00  0.4902E+16
   -1.099990    1.61963  0.3804E-11  0.1382E-13  0.7603E-17  0.1000E-09  0.0000E+00  0.4819E+16
   -1.168742    1.74838  0.3798E-11  0.6355E-13  0.1181E-16  0.1000E-09  0.0000E+00  0.4708E+16
   -1.237495    1.88205  0.3786E-11  0.1880E-12  0.2902E-16  0.1000E-09  0.0000E+00  0.4567E+16
   -1.306247    2.02071  0.3769E-11  0.4960E-12  0.7265E-16  0.1000E-09  0.0000E+00  0.4392E+16
   -1.374999    2.16432  0.3749E-11  0.1264E-11  0.1791E-15  0.1000E-09  0.0000E+00  0.4188E+16
   -1.443751    2.31310  0.3732E-11  0.3164E-11  0.4355E-15  0.1000E-09  0.0000E+00  0.3947E+16
   -1.512503    2.46698  0.3720E-11  0.7819E-11  0.1046E-14  0.1000E-09  0.0000E+00  0.3665E+16
   -1.581256    2.62577  0.3713E-11  0.1909E-10  0.2482E-14  0.1000E-09  0.0000E+00  0.3341E+16
   -1.650008    2.78919  0.3709E-11  0.4606E-10  0.5824E-14  0.1000E-09  0.0000E+00  0.2977E+16
   -1.718759    2.95691  0.3707E-11  0.1099E-09  0.1352E-13  0.1000E-09  0.0000E+00  0.2577E+16
   -1.787511    3.12863  0.3706E-11  0.2658E-09  0.3180E-13  0.1000E-09  0.0000E+00  0.2162E+16
   -1.856263    3.30594  0.3704E-11  0.6468E-09  0.7529E-13  0.2248E-09  0.0000E+00  0.1704E+16
   -1.925014    3.48899  0.3702E-11  0.1568E-08  0.1777E-12  0.7543E-09  0.0000E+00  0.1199E+16
   -1.993765    3.67768  0.3697E-11  0.3778E-08  0.4173E-12  0.3315E-08  0.0000E+00  0.6404E+15
   -2.062516    3.86893  0.3692E-11  0.8641E-08  0.9330E-12  0.4701E-07  0.0000E+00  0.1006E+15
   -2.131266    4.01705  0.3691E-11  0.9883E-08  0.1074E-11  0.3816E-04  0.0000E+00 -0.3534E+12
   -2.200016    4.01778  0.3691E-11  0.1038E-07  0.1146E-11  0.3830E-04  0.0000E+00 -0.3611E+12
   -2.268765    4.01850  0.3691E-11  0.1075E-07  0.1224E-11  0.3739E-04  0.0000E+00 -0.3795E+12
   -2.337515    4.01924  0.3691E-11  0.1101E-07  0.1318E-11  0.3530E-04  0.0000E+00 -0.4129E+12
   -2.406263    4.02003  0.3691E-11  0.1116E-07  0.1441E-11  0.3186E-04  0.0000E+00 -0.4714E+12
   -2.475011    4.02092  0.3691E-11  0.1118E-07  0.1624E-11  0.2681E-04  0.0000E+00 -0.5803E+12
   -2.543759    4.02197  0.3691E-11  0.1099E-07  0.1943E-11  0.1987E-04  0.0000E+00 -0.8200E+12
   -2.612506    4.02341  0.3691E-11  0.1039E-07  0.2709E-11  0.1092E-04  0.0000E+00 -0.1610E+13
   -2.681252    4.02609  0.3691E-11  0.7684E-08  0.7337E-11  0.1560E-05  0.0000E+00 -0.1473E+14
   -2.749998    4.04516  0.3691E-11  0.0000E+00  0.0000E+00  0.0000E+00  0.0000E+00  0.0000E+00
