 1 - depth, m
 2 - temperature, C
 3 - salinity, kg/kg
 4 - turbulent kinetic energy, m**2/s**2
 5 - dissipation rate, m**2/s**3
 6 - kinematic heat conductance, m**2/s
 7 - modulus of horizontal velocity, m/s
 8 - Richardson number, n/d
   -0.000000   -0.00000  0.9211E-10  0.2452E-04  0.2221E-05  0.4198E-04  0.4624E-01  0.4940E-02
   -0.068745    0.01101  0.9210E-10  0.2008E-04  0.6153E-06  0.8437E-04  0.3320E-01  0.1136E-01
   -0.137491    0.01606  0.9209E-10  0.1829E-04  0.3051E-06  0.1203E-03  0.2865E-01  0.1790E-01
   -0.206237    0.01949  0.9209E-10  0.1699E-04  0.1921E-06  0.1507E-03  0.2570E-01  0.2470E-01
   -0.274984    0.02214  0.9208E-10  0.1591E-04  0.1371E-06  0.1758E-03  0.2352E-01  0.3190E-01
   -0.343732    0.02433  0.9208E-10  0.1494E-04  0.1050E-06  0.1960E-03  0.2179E-01  0.3959E-01
   -0.412480    0.02624  0.9208E-10  0.1406E-04  0.8379E-07  0.2117E-03  0.2034E-01  0.4785E-01
   -0.481228    0.02796  0.9208E-10  0.1323E-04  0.6881E-07  0.2234E-03  0.1910E-01  0.5677E-01
   -0.549977    0.02955  0.9207E-10  0.1245E-04  0.5764E-07  0.2314E-03  0.1801E-01  0.6646E-01
   -0.618727    0.03105  0.9207E-10  0.1171E-04  0.4901E-07  0.2360E-03  0.1703E-01  0.7703E-01
   -0.687476    0.03249  0.9207E-10  0.1101E-04  0.4214E-07  0.2376E-03  0.1614E-01  0.8862E-01
   -0.756226    0.03389  0.9207E-10  0.1035E-04  0.3657E-07  0.2364E-03  0.1532E-01  0.1014E+00
   -0.824977    0.03527  0.9207E-10  0.9719E-05  0.3197E-07  0.2329E-03  0.1456E-01  0.1154E+00
   -0.893728    0.03665  0.9207E-10  0.9119E-05  0.2812E-07  0.2272E-03  0.1385E-01  0.1310E+00
   -0.962479    0.03804  0.9207E-10  0.8551E-05  0.2488E-07  0.2198E-03  0.1317E-01  0.1483E+00
   -1.031230    0.03946  0.9206E-10  0.8014E-05  0.2212E-07  0.2109E-03  0.1253E-01  0.1676E+00
   -1.099981    0.04092  0.9206E-10  0.7510E-05  0.1979E-07  0.2010E-03  0.1192E-01  0.1892E+00
   -1.168732    0.04245  0.9206E-10  0.7041E-05  0.1782E-07  0.1906E-03  0.1133E-01  0.2134E+00
   -1.237484    0.04405  0.9206E-10  0.6613E-05  0.1619E-07  0.1802E-03  0.1077E-01  0.2410E+00
   -1.306236    0.04574  0.9206E-10  0.6233E-05  0.1488E-07  0.1707E-03  0.1021E-01  0.2728E+00
   -1.374987    0.04755  0.9206E-10  0.5911E-05  0.1391E-07  0.1629E-03  0.9678E-02  0.3103E+00
   -1.443739    0.04948  0.9206E-10  0.5661E-05  0.1331E-07  0.1579E-03  0.9154E-02  0.3599E+00
   -1.512490    0.05154  0.9206E-10  0.5503E-05  0.1312E-07  0.1566E-03  0.8644E-02  0.4538E+00
   -1.581242    0.05374  0.9205E-10  0.5458E-05  0.1344E-07  0.1604E-03  0.8149E-02  0.5440E+00
   -1.649993    0.05607  0.9205E-10  0.5562E-05  0.1442E-07  0.1607E-03  0.7671E-02  0.8970E+00
   -1.718745    0.05878  0.9205E-10  0.5929E-05  0.1701E-07  0.6664E-04  0.6890E-02  0.1614E+00
   -1.787496    0.06849  0.9205E-10  0.4531E-05  0.1195E-07  0.1406E-03  0.1209E-02  0.4964E+01
   -1.856247    0.07177  0.9205E-10  0.3752E-05  0.9395E-08  0.1151E-03  0.8637E-03  0.3653E+01
   -1.924997    0.07732  0.9204E-10  0.3064E-05  0.7310E-08  0.9323E-04  0.6078E-03  0.2579E+02
   -1.993748    0.08743  0.9204E-10  0.2477E-05  0.5643E-08  0.7387E-04  0.4323E-03 -0.5200E+02
   -2.062498    0.09409  0.9203E-10  0.1970E-05  0.4320E-08  0.5284E-04  0.3195E-03  0.1129E+05
   -2.131248    0.10725  0.9202E-10  0.1516E-05  0.3224E-08  0.3559E-04  0.2241E-03  0.7563E+07
   -2.199997    0.14703  0.9200E-10  0.1123E-05  0.2326E-08  0.2276E-04  0.1432E-03  0.4710E+10
   -2.268746    0.22706  0.9198E-10  0.8375E-06  0.1681E-08  0.1382E-04  0.8586E-04  0.3091E+13
   -2.337495    0.32887  0.9197E-10  0.6255E-06  0.1227E-08  0.6624E-05  0.5264E-04  0.1455E+16
   -2.406243    0.47212  0.9197E-10  0.4012E-06  0.7786E-09  0.8953E-06  0.2939E-04  0.4950E+16
   -2.474990    0.76418  0.9197E-10  0.1206E-06  0.2342E-09  0.4475E-07  0.6459E-05  0.1289E+17
   -2.543737    1.45893  0.9197E-10  0.1321E-07  0.2659E-10  0.3160E-08  0.2552E-06  0.1867E+17
   -2.612483    2.59144  0.9203E-10  0.3795E-08  0.9189E-11  0.1951E-06  0.4558E-08  0.5925E+16
   -2.681229    3.95654  0.9220E-10  0.2728E-07  0.1001E-09  0.2433E-05  0.5052E-10  0.3853E+15
   -2.749974    4.31935  0.9220E-10  0.0000E+00  0.0000E+00  0.0000E+00  0.5157E-10  0.0000E+00
