 1 - depth, m
 2 - temperature, C
 3 - salinity, kg/kg
 4 - turbulent kinetic energy, m**2/s**2
 5 - dissipation rate, m**2/s**3
 6 - kinematic heat conductance, m**2/s
 7 - modulus of horizontal velocity, m/s
 8 - Richardson number, n/d
   -0.000000   -0.00000  0.4061E-13  0.1218E-13  0.7603E-17  0.1000E-09  0.0000E+00  0.6232E+16
   -0.068747    0.09469  0.8386E-12  0.1218E-13  0.7603E-17  0.1000E-09  0.0000E+00  0.6406E+16
   -0.137495    0.19465  0.1834E-11  0.1218E-13  0.7603E-17  0.1000E-09  0.0000E+00  0.6421E+16
   -0.206243    0.29774  0.2557E-11  0.1218E-13  0.7603E-17  0.1000E-09  0.0000E+00  0.6358E+16
   -0.274992    0.40293  0.2870E-11  0.1218E-13  0.7603E-17  0.1000E-09  0.0000E+00  0.6257E+16
   -0.343742    0.50976  0.2880E-11  0.1218E-13  0.7603E-17  0.1000E-09  0.0000E+00  0.6135E+16
   -0.412492    0.61799  0.2742E-11  0.1218E-13  0.7603E-17  0.1000E-09  0.0000E+00  0.5998E+16
   -0.481242    0.72748  0.2572E-11  0.1218E-13  0.7603E-17  0.1000E-09  0.0000E+00  0.5849E+16
   -0.549993    0.83812  0.2429E-11  0.1218E-13  0.7603E-17  0.1000E-09  0.0000E+00  0.5688E+16
   -0.618745    0.94979  0.2330E-11  0.1218E-13  0.7603E-17  0.1000E-09  0.0000E+00  0.5517E+16
   -0.687496    1.06239  0.2270E-11  0.1218E-13  0.7603E-17  0.1000E-09  0.0000E+00  0.5337E+16
   -0.756248    1.17583  0.2238E-11  0.1218E-13  0.7603E-17  0.1000E-09  0.0000E+00  0.5148E+16
   -0.825001    1.29000  0.2221E-11  0.1218E-13  0.7603E-17  0.1000E-09  0.0000E+00  0.4953E+16
   -0.893753    1.40481  0.2213E-11  0.1218E-13  0.7603E-17  0.1000E-09  0.0000E+00  0.4750E+16
   -0.962506    1.52017  0.2209E-11  0.1218E-13  0.7603E-17  0.1000E-09  0.0000E+00  0.4542E+16
   -1.031259    1.63600  0.2207E-11  0.1218E-13  0.7603E-17  0.1000E-09  0.0000E+00  0.4330E+16
   -1.100013    1.75222  0.2204E-11  0.1218E-13  0.7603E-17  0.1000E-09  0.0000E+00  0.4113E+16
   -1.168766    1.86876  0.2201E-11  0.1218E-13  0.7603E-17  0.1000E-09  0.0000E+00  0.3894E+16
   -1.237520    1.98555  0.2197E-11  0.1218E-13  0.7603E-17  0.1000E-09  0.0000E+00  0.3672E+16
   -1.306273    2.10253  0.2193E-11  0.1218E-13  0.7603E-17  0.1000E-09  0.0000E+00  0.3448E+16
   -1.375027    2.21966  0.2187E-11  0.1218E-13  0.7603E-17  0.1000E-09  0.0000E+00  0.3224E+16
   -1.443781    2.33689  0.2181E-11  0.1218E-13  0.7603E-17  0.1000E-09  0.0000E+00  0.2999E+16
   -1.512534    2.45421  0.2175E-11  0.1218E-13  0.7603E-17  0.1000E-09  0.0000E+00  0.2774E+16
   -1.581288    2.57158  0.2169E-11  0.1218E-13  0.7603E-17  0.1000E-09  0.0000E+00  0.2549E+16
   -1.650041    2.68903  0.2164E-11  0.1218E-13  0.7603E-17  0.1000E-09  0.0000E+00  0.2328E+16
   -1.718794    2.80668  0.2159E-11  0.1218E-13  0.7603E-17  0.1000E-09  0.0000E+00  0.2109E+16
   -1.787548    2.92471  0.2156E-11  0.2943E-13  0.8333E-17  0.1000E-09  0.0000E+00  0.1851E+16
   -1.856300    3.04056  0.2153E-11  0.1040E-12  0.2384E-16  0.1000E-09  0.0000E+00  0.1601E+16
   -1.925053    3.15390  0.2150E-11  0.3464E-12  0.7526E-16  0.1000E-09  0.0000E+00  0.1358E+16
   -1.993806    3.26401  0.2148E-11  0.1126E-11  0.2359E-15  0.1000E-09  0.0000E+00  0.1130E+16
   -2.062558    3.37073  0.2146E-11  0.3520E-11  0.7134E-15  0.1000E-09  0.0000E+00  0.9466E+15
   -2.131309    3.47724  0.2145E-11  0.1082E-10  0.2121E-14  0.1000E-09  0.0000E+00  0.7663E+15
   -2.200061    3.58380  0.2144E-11  0.3279E-10  0.6224E-14  0.1000E-09  0.0000E+00  0.5871E+15
   -2.268812    3.69053  0.2143E-11  0.9906E-10  0.1821E-13  0.2271E-09  0.0000E+00  0.4074E+15
   -2.337562    3.79740  0.2143E-11  0.3014E-09  0.5370E-13  0.1198E-08  0.0000E+00  0.2277E+15
   -2.406312    3.90446  0.2143E-11  0.9098E-09  0.1574E-12  0.1587E-07  0.0000E+00  0.5033E+14
   -2.475062    4.00387  0.2143E-11  0.1923E-08  0.3345E-12  0.4978E-05  0.0000E+00 -0.9299E+12
   -2.543811    4.00698  0.2143E-11  0.2257E-08  0.4428E-12  0.4639E-05  0.0000E+00 -0.1134E+13
   -2.612559    4.01023  0.2143E-11  0.2299E-08  0.6156E-12  0.2967E-05  0.0000E+00 -0.1965E+13
   -2.681307    4.01501  0.2143E-11  0.1705E-08  0.1315E-11  0.5024E-06  0.0000E+00 -0.1186E+14
   -2.750054    4.03467  0.2143E-11  0.0000E+00  0.0000E+00  0.0000E+00  0.0000E+00  0.0000E+00
