 1 - depth, m
 2 - temperature, C
 3 - salinity, kg/kg
 4 - turbulent kinetic energy, m**2/s**2
 5 - dissipation rate, m**2/s**3
 6 - kinematic heat conductance, m**2/s
 7 - modulus of horizontal velocity, m/s
 8 - Richardson number, n/d
   -0.000000   -0.00000  0.6342E-10  0.1122E-07  0.2735E-10  0.1562E-07  0.1178E-10  0.7785E+16
   -0.068745    0.11869  0.4901E-10  0.9281E-07  0.1725E-10  0.2120E-07  0.1067E-10  0.4420E+16
   -0.137491    0.18789  0.4445E-10  0.2775E-06  0.1452E-10  0.8754E-07  0.9341E-11  0.1751E+16
   -0.206238    0.21565  0.4367E-10  0.3342E-06  0.1509E-10  0.9707E-03  0.8372E-11  0.5137E+15
   -0.274985    0.22385  0.4361E-10  0.3578E-06  0.1546E-10  0.1054E-02  0.8359E-11  0.7894E+14
   -0.343733    0.22511  0.4360E-10  0.3586E-06  0.1547E-10  0.2213E-02  0.8359E-11  0.1969E+12
   -0.412481    0.22511  0.4360E-10  0.3588E-06  0.1547E-10  0.2575E-02  0.8358E-11 -0.3609E+11
   -0.481230    0.22511  0.4360E-10  0.3589E-06  0.1547E-10  0.2591E-02  0.8357E-11 -0.4795E+11
   -0.549979    0.22511  0.4360E-10  0.3590E-06  0.1547E-10  0.2593E-02  0.8356E-11 -0.5766E+11
   -0.618729    0.22511  0.4360E-10  0.3591E-06  0.1547E-10  0.2598E-02  0.8355E-11 -0.5905E+11
   -0.687479    0.22511  0.4360E-10  0.3592E-06  0.1546E-10  0.2597E-02  0.8354E-11 -0.6088E+11
   -0.756230    0.22511  0.4360E-10  0.3591E-06  0.1546E-10  0.2595E-02  0.8353E-11 -0.5563E+11
   -0.824980    0.22511  0.4360E-10  0.3591E-06  0.1545E-10  0.2590E-02  0.8352E-11 -0.5080E+11
   -0.893731    0.22511  0.4360E-10  0.3590E-06  0.1545E-10  0.2585E-02  0.8351E-11 -0.4100E+11
   -0.962482    0.22511  0.4360E-10  0.3589E-06  0.1544E-10  0.2530E-02  0.8350E-11 -0.3044E+11
   -1.031234    0.22511  0.4360E-10  0.3588E-06  0.1543E-10  0.2459E-02  0.8349E-11 -0.1525E+11
   -1.099985    0.22511  0.4360E-10  0.3586E-06  0.1542E-10  0.1999E-02  0.8348E-11  0.1495E+11
   -1.168737    0.22511  0.4360E-10  0.3583E-06  0.1542E-10  0.1089E-02  0.8347E-11  0.2393E+14
   -1.237489    0.22549  0.4360E-10  0.3473E-06  0.1518E-10  0.1030E-02  0.8346E-11  0.1891E+15
   -1.306241    0.22852  0.4360E-10  0.3226E-06  0.1461E-10  0.1458E-04  0.8344E-11  0.6470E+15
   -1.374993    0.23891  0.4358E-10  0.2887E-06  0.1359E-10  0.4759E-07  0.8316E-11  0.1974E+16
   -1.443745    0.27075  0.4338E-10  0.1922E-06  0.9285E-11  0.1304E-07  0.6906E-11  0.3946E+16
   -1.512497    0.33523  0.4298E-10  0.1212E-06  0.6019E-11  0.5193E-08  0.5251E-11  0.6149E+16
   -1.581248    0.43813  0.4280E-10  0.7461E-07  0.3810E-11  0.2334E-08  0.3679E-11  0.8431E+16
   -1.650000    0.58453  0.4275E-10  0.4532E-07  0.2381E-11  0.1132E-08  0.2227E-11  0.1056E+17
   -1.718752    0.77789  0.4272E-10  0.2751E-07  0.1489E-11  0.6083E-09  0.8706E-12  0.1205E+17
   -1.787503    1.01448  0.4270E-10  0.1666E-07  0.9343E-12  0.4569E-09  0.5899E-13  0.1048E+17
   -1.856254    1.23785  0.4268E-10  0.9853E-08  0.5824E-12  0.3402E-09  0.3678E-14  0.9169E+16
   -1.925005    1.45040  0.4267E-10  0.5572E-08  0.3674E-12  0.2451E-09  0.2093E-15  0.8482E+16
   -1.993756    1.66551  0.4267E-10  0.2905E-08  0.2542E-12  0.1676E-09  0.1297E-16  0.9042E+16
   -2.062506    1.92080  0.4267E-10  0.1536E-08  0.2529E-12  0.1341E-09  0.1045E-17  0.1126E+17
   -2.131256    2.29237  0.4264E-10  0.1638E-08  0.4944E-12  0.2130E-09  0.7870E-19  0.1176E+17
   -2.200006    2.80053  0.4258E-10  0.4881E-08  0.1672E-11  0.8756E-09  0.5510E-20  0.8742E+16
   -2.268755    3.42500  0.4238E-10  0.1892E-07  0.6423E-11  0.1271E-07  0.2633E-21  0.2445E+16
   -2.337504    4.04060  0.4213E-10  0.2524E-07  0.8567E-11  0.3070E-04  0.7162E-23  0.9051E+12
   -2.406252    4.05356  0.4213E-10  0.2765E-07  0.9737E-11  0.3119E-04  0.2632E-23 -0.2837E+13
   -2.475000    4.05682  0.4213E-10  0.2919E-07  0.1121E-10  0.2843E-04  0.9013E-24 -0.3362E+13
   -2.543747    4.06036  0.4213E-10  0.2995E-07  0.1359E-10  0.2285E-04  0.2738E-24 -0.4659E+13
   -2.612494    4.06490  0.4213E-10  0.2953E-07  0.1904E-10  0.1418E-04  0.6333E-25 -0.9207E+13
   -2.681240    4.07303  0.4213E-10  0.2403E-07  0.5195E-10  0.2862E-05  0.7992E-26 -0.8409E+14
   -2.749985    4.12147  0.4213E-10  0.0000E+00  0.0000E+00  0.0000E+00  0.8279E-26  0.0000E+00
