 1 - depth, m
 2 - temperature, C
 3 - salinity, kg/kg
 4 - turbulent kinetic energy, m**2/s**2
 5 - dissipation rate, m**2/s**3
 6 - kinematic heat conductance, m**2/s
 7 - modulus of horizontal velocity, m/s
 8 - Richardson number, n/d
   -0.000000    7.74902  0.6462E-11  0.5715E-04  0.1084E-04  0.5538E-04  0.6988E-01 -0.6650E-02
   -0.068746    7.79443  0.6462E-11  0.3580E-04  0.2347E-05  0.9268E-04  0.3551E-01 -0.1018E-01
   -0.137492    7.80576  0.6462E-11  0.3069E-04  0.9611E-06  0.1367E-03  0.2849E-01 -0.1650E-01
   -0.206239    7.81318  0.6462E-11  0.2812E-04  0.5166E-06  0.1877E-03  0.2418E-01 -0.2320E-01
   -0.274987    7.81856  0.6462E-11  0.2660E-04  0.3315E-06  0.2435E-03  0.2111E-01 -0.3064E-01
   -0.343735    7.82263  0.6462E-11  0.2555E-04  0.2382E-06  0.3026E-03  0.1879E-01 -0.3869E-01
   -0.412484    7.82583  0.6462E-11  0.2475E-04  0.1838E-06  0.3636E-03  0.1697E-01 -0.4714E-01
   -0.481233    7.82842  0.6462E-11  0.2409E-04  0.1487E-06  0.4257E-03  0.1548E-01 -0.5581E-01
   -0.549983    7.83058  0.6462E-11  0.2352E-04  0.1244E-06  0.4882E-03  0.1423E-01 -0.6459E-01
   -0.618733    7.83241  0.6462E-11  0.2302E-04  0.1066E-06  0.5506E-03  0.1317E-01 -0.7335E-01
   -0.687483    7.83398  0.6462E-11  0.2258E-04  0.9318E-07  0.6123E-03  0.1224E-01 -0.8200E-01
   -0.756234    7.83536  0.6462E-11  0.2218E-04  0.8268E-07  0.6733E-03  0.1141E-01 -0.8978E-01
   -0.824985    7.83659  0.6462E-11  0.2181E-04  0.7432E-07  0.7365E-03  0.1068E-01 -0.8951E-01
   -0.893736    7.83768  0.6462E-11  0.2148E-04  0.6753E-07  0.8258E-03  0.1001E-01  0.4366E-02
   -0.962488    7.83863  0.6462E-11  0.2117E-04  0.6198E-07  0.1069E-02  0.9393E-02  0.2093E+03
   -1.031240    7.83940  0.6462E-11  0.2089E-04  0.5739E-07  0.1414E-02  0.8832E-02  0.3014E+03
   -1.099992    7.84000  0.6462E-11  0.2063E-04  0.5354E-07  0.1670E-02  0.8310E-02  0.1431E+03
   -1.168744    7.84049  0.6462E-11  0.2038E-04  0.5025E-07  0.1897E-02  0.7810E-02  0.6776E+02
   -1.237496    7.84090  0.6462E-11  0.2014E-04  0.4739E-07  0.1973E-02  0.7331E-02  0.5298E+02
   -1.306248    7.84127  0.6462E-11  0.1990E-04  0.4488E-07  0.2061E-02  0.6860E-02  0.1268E+03
   -1.375001    7.84161  0.6462E-11  0.1965E-04  0.4266E-07  0.2110E-02  0.6403E-02  0.1117E+04
   -1.443753    7.84193  0.6462E-11  0.1939E-04  0.4068E-07  0.2156E-02  0.5953E-02  0.1629E+04
   -1.512505    7.84224  0.6462E-11  0.1911E-04  0.3890E-07  0.2198E-02  0.5510E-02  0.2262E+05
   -1.581258    7.84252  0.6462E-11  0.1882E-04  0.3729E-07  0.2226E-02  0.5074E-02  0.1095E+06
   -1.650010    7.84279  0.6462E-11  0.1849E-04  0.3581E-07  0.2244E-02  0.4640E-02  0.8700E+03
   -1.718762    7.84305  0.6462E-11  0.1814E-04  0.3443E-07  0.2225E-02  0.4209E-02  0.1381E+03
   -1.787513    7.84331  0.6462E-11  0.1773E-04  0.3307E-07  0.2258E-02  0.3777E-02  0.2249E+03
   -1.856265    7.84356  0.6462E-11  0.1727E-04  0.3177E-07  0.2255E-02  0.3390E-02  0.1120E+02
   -1.925016    7.84380  0.6462E-11  0.1678E-04  0.3055E-07  0.2247E-02  0.3040E-02  0.4221E+01
   -1.993768    7.84404  0.6462E-11  0.1627E-04  0.2945E-07  0.2225E-02  0.2726E-02  0.8407E+01
   -2.062518    7.84428  0.6462E-11  0.1575E-04  0.2856E-07  0.2186E-02  0.2440E-02  0.3105E+01
   -2.131269    7.84452  0.6462E-11  0.1525E-04  0.2792E-07  0.2135E-02  0.2171E-02  0.3241E+02
   -2.200019    7.84476  0.6462E-11  0.1476E-04  0.2758E-07  0.2057E-02  0.1919E-02  0.2024E+01
   -2.268768    7.84501  0.6462E-11  0.1428E-04  0.2758E-07  0.1976E-02  0.1681E-02  0.1848E+02
   -2.337518    7.84526  0.6462E-11  0.1382E-04  0.2803E-07  0.1921E-02  0.1464E-02  0.1927E+02
   -2.406266    7.84552  0.6462E-11  0.1335E-04  0.2910E-07  0.1542E-02  0.1271E-02  0.8764E+02
   -2.475015    7.84585  0.6462E-11  0.1287E-04  0.3120E-07  0.1168E-02  0.1098E-02  0.7641E+03
   -2.543762    7.84628  0.6462E-11  0.1227E-04  0.3567E-07  0.6623E-03  0.9375E-03  0.2281E+03
   -2.612509    7.84696  0.6462E-11  0.1136E-04  0.4763E-07  0.3595E-03  0.7643E-03 -0.1354E+01
   -2.681256    7.84818  0.6462E-11  0.6807E-05  0.1672E-06  0.3410E-04  0.5777E-03 -0.3174E+05
   -2.750002    7.86078  0.6462E-11  0.0000E+00  0.0000E+00  0.0000E+00  0.5765E-03  0.0000E+00
