 1 - depth, m
 2 - temperature, C
 3 - salinity, kg/kg
 4 - turbulent kinetic energy, m**2/s**2
 5 - dissipation rate, m**2/s**3
 6 - kinematic heat conductance, m**2/s
 7 - modulus of horizontal velocity, m/s
 8 - Richardson number, n/d
   -0.000000   14.77108  0.5011E-11  0.2692E-04  0.2341E-05  0.3549E-04  0.4234E-01 -0.1388E-01
   -0.068746   14.80470  0.5011E-11  0.2227E-04  0.6292E-06  0.9415E-04  0.2536E-01 -0.4455E-01
   -0.137492   14.81500  0.5011E-11  0.2087E-04  0.3181E-06  0.1592E-03  0.2045E-01 -0.7323E-01
   -0.206239   14.82093  0.5011E-11  0.2009E-04  0.2041E-06  0.2341E-03  0.1755E-01 -0.1054E+00
   -0.274987   14.82479  0.5011E-11  0.1958E-04  0.1478E-06  0.3197E-03  0.1560E-01 -0.1354E+00
   -0.343735   14.82751  0.5011E-11  0.1924E-04  0.1153E-06  0.4445E-03  0.1420E-01  0.1534E+00
   -0.412484   14.82944  0.5011E-11  0.1902E-04  0.9492E-07  0.6907E-03  0.1313E-01  0.1756E+02
   -0.481233   14.83076  0.5011E-11  0.1892E-04  0.8152E-07  0.1074E-02  0.1229E-01  0.3466E+02
   -0.549983   14.83154  0.5011E-11  0.1891E-04  0.7225E-07  0.1470E-02  0.1161E-01  0.9754E+01
   -0.618733   14.83206  0.5011E-11  0.1897E-04  0.6513E-07  0.1483E-02  0.1102E-01  0.1149E+02
   -0.687483   14.83257  0.5011E-11  0.1907E-04  0.5931E-07  0.1576E-02  0.1043E-01  0.1256E+02
   -0.756234   14.83303  0.5011E-11  0.1918E-04  0.5458E-07  0.1643E-02  0.9877E-02  0.1334E+02
   -0.824985   14.83347  0.5011E-11  0.1929E-04  0.5066E-07  0.1717E-02  0.9349E-02  0.1438E+02
   -0.893736   14.83388  0.5011E-11  0.1940E-04  0.4738E-07  0.1785E-02  0.8841E-02  0.1543E+02
   -0.962488   14.83427  0.5011E-11  0.1950E-04  0.4459E-07  0.1852E-02  0.8350E-02  0.1663E+02
   -1.031240   14.83464  0.5011E-11  0.1958E-04  0.4221E-07  0.1916E-02  0.7872E-02  0.1796E+02
   -1.099992   14.83500  0.5011E-11  0.1963E-04  0.4015E-07  0.1977E-02  0.7406E-02  0.1949E+02
   -1.168744   14.83535  0.5011E-11  0.1966E-04  0.3837E-07  0.2033E-02  0.6947E-02  0.2128E+02
   -1.237496   14.83568  0.5011E-11  0.1965E-04  0.3681E-07  0.2084E-02  0.6496E-02  0.2348E+02
   -1.306248   14.83600  0.5011E-11  0.1960E-04  0.3544E-07  0.2128E-02  0.6049E-02  0.2626E+02
   -1.375000   14.83631  0.5011E-11  0.1951E-04  0.3424E-07  0.2163E-02  0.5605E-02  0.3001E+02
   -1.443753   14.83662  0.5011E-11  0.1936E-04  0.3317E-07  0.2185E-02  0.5163E-02  0.3537E+02
   -1.512505   14.83693  0.5011E-11  0.1915E-04  0.3221E-07  0.2194E-02  0.4722E-02  0.4388E+02
   -1.581257   14.83723  0.5011E-11  0.1888E-04  0.3135E-07  0.2185E-02  0.4280E-02  0.5916E+02
   -1.650009   14.83754  0.5011E-11  0.1854E-04  0.3055E-07  0.2159E-02  0.3834E-02  0.9340E+02
   -1.718761   14.83784  0.5011E-11  0.1810E-04  0.2981E-07  0.2107E-02  0.3385E-02  0.1589E+03
   -1.787513   14.83816  0.5011E-11  0.1756E-04  0.2907E-07  0.2050E-02  0.2929E-02  0.1587E+02
   -1.856265   14.83848  0.5011E-11  0.1693E-04  0.2844E-07  0.1987E-02  0.2534E-02  0.6145E+01
   -1.925016   14.83882  0.5011E-11  0.1624E-04  0.2799E-07  0.1931E-02  0.2190E-02  0.3281E+01
   -1.993767   14.83916  0.5011E-11  0.1550E-04  0.2782E-07  0.1890E-02  0.1897E-02  0.2181E+01
   -2.062518   14.83951  0.5011E-11  0.1476E-04  0.2801E-07  0.1854E-02  0.1646E-02  0.1718E+01
   -2.131268   14.83987  0.5011E-11  0.1404E-04  0.2863E-07  0.1823E-02  0.1423E-02  0.1376E+01
   -2.200018   14.84023  0.5011E-11  0.1336E-04  0.2974E-07  0.1759E-02  0.1223E-02  0.1111E+01
   -2.268768   14.84061  0.5011E-11  0.1272E-04  0.3143E-07  0.1578E-02  0.1047E-02  0.8485E+00
   -2.337517   14.84104  0.5011E-11  0.1213E-04  0.3399E-07  0.1354E-02  0.9000E-03  0.1100E+01
   -2.406266   14.84155  0.5011E-11  0.1151E-04  0.3847E-07  0.1210E-02  0.7806E-03  0.9476E+02
   -2.475014   14.84216  0.5011E-11  0.1069E-04  0.4915E-07  0.9072E-03  0.6763E-03  0.1974E+03
   -2.543762   14.84338  0.5011E-11  0.9446E-05  0.7015E-07  0.7322E-03  0.5462E-03  0.1303E+03
   -2.612509   14.84451  0.5011E-11  0.7510E-05  0.1338E-06  0.3622E-03  0.4284E-03  0.4629E+04
   -2.681255   14.84979  0.5011E-11  0.4636E-05  0.3898E-06  0.1423E-03  0.2510E-03  0.5503E+03
   -2.750001   14.85609  0.5011E-11  0.0000E+00  0.0000E+00  0.0000E+00  0.3727E-03  0.0000E+00
