 1 - depth, m
 2 - temperature, C
 3 - salinity, kg/kg
 4 - turbulent kinetic energy, m**2/s**2
 5 - dissipation rate, m**2/s**3
 6 - kinematic heat conductance, m**2/s
 7 - modulus of horizontal velocity, m/s
 8 - Richardson number, n/d
   -0.000000   -0.00000  0.1602E-11  0.1219E-13  0.7603E-17  0.1000E-09  0.0000E+00  0.7235E+16
   -0.068746    0.11017  0.9426E-12  0.1219E-13  0.7603E-17  0.1000E-09  0.0000E+00  0.6948E+16
   -0.137492    0.21919  0.6861E-12  0.1219E-13  0.7603E-17  0.1000E-09  0.0000E+00  0.6695E+16
   -0.206239    0.32752  0.6045E-12  0.1219E-13  0.7603E-17  0.1000E-09  0.0000E+00  0.6471E+16
   -0.274986    0.43557  0.5828E-12  0.1219E-13  0.7603E-17  0.1000E-09  0.0000E+00  0.6273E+16
   -0.343735    0.54374  0.5777E-12  0.1219E-13  0.7603E-17  0.1000E-09  0.0000E+00  0.6096E+16
   -0.412483    0.65244  0.5766E-12  0.1219E-13  0.7603E-17  0.1000E-09  0.0000E+00  0.5938E+16
   -0.481232    0.76204  0.5764E-12  0.1219E-13  0.7603E-17  0.1000E-09  0.0000E+00  0.5793E+16
   -0.549982    0.87288  0.5764E-12  0.1219E-13  0.7603E-17  0.1000E-09  0.0000E+00  0.5658E+16
   -0.618732    0.98531  0.5764E-12  0.1219E-13  0.7603E-17  0.1000E-09  0.0000E+00  0.5530E+16
   -0.687482    1.09963  0.5764E-12  0.1219E-13  0.7603E-17  0.1000E-09  0.0000E+00  0.5415E+16
   -0.756233    1.21639  0.5764E-12  0.1219E-13  0.7603E-17  0.1000E-09  0.0000E+00  0.5305E+16
   -0.824984    1.33598  0.5764E-12  0.1219E-13  0.7603E-17  0.1000E-09  0.0000E+00  0.5187E+16
   -0.893735    1.45864  0.5763E-12  0.1219E-13  0.7603E-17  0.1000E-09  0.0000E+00  0.5058E+16
   -0.962486    1.58454  0.5762E-12  0.1219E-13  0.7603E-17  0.1000E-09  0.0000E+00  0.4916E+16
   -1.031238    1.71385  0.5760E-12  0.5368E-13  0.9683E-17  0.1000E-09  0.0000E+00  0.4756E+16
   -1.099990    1.84667  0.5754E-12  0.1565E-12  0.2213E-16  0.1000E-09  0.0000E+00  0.4576E+16
   -1.168742    1.98308  0.5742E-12  0.3994E-12  0.5306E-16  0.1000E-09  0.0000E+00  0.4374E+16
   -1.237494    2.12310  0.5722E-12  0.9780E-12  0.1256E-15  0.1000E-09  0.0000E+00  0.4148E+16
   -1.306246    2.26671  0.5696E-12  0.2351E-11  0.2934E-15  0.1000E-09  0.0000E+00  0.3896E+16
   -1.374998    2.41387  0.5669E-12  0.5581E-11  0.6774E-15  0.1000E-09  0.0000E+00  0.3622E+16
   -1.443751    2.56466  0.5645E-12  0.1310E-10  0.1547E-14  0.1000E-09  0.0000E+00  0.3321E+16
   -1.512503    2.71900  0.5629E-12  0.3040E-10  0.3495E-14  0.1000E-09  0.0000E+00  0.2992E+16
   -1.581255    2.87668  0.5619E-12  0.6981E-10  0.7814E-14  0.1000E-09  0.0000E+00  0.2635E+16
   -1.650007    3.03747  0.5613E-12  0.1587E-09  0.1730E-13  0.1000E-09  0.0000E+00  0.2253E+16
   -1.718759    3.20107  0.5610E-12  0.3569E-09  0.3791E-13  0.1044E-09  0.0000E+00  0.1849E+16
   -1.787510    3.36726  0.5606E-12  0.8141E-09  0.8424E-13  0.2973E-09  0.0000E+00  0.1442E+16
   -1.856262    3.53829  0.5602E-12  0.1870E-08  0.1886E-12  0.9627E-09  0.0000E+00  0.9970E+15
   -1.925013    3.71398  0.5594E-12  0.4279E-08  0.4209E-12  0.4179E-08  0.0000E+00  0.5124E+15
   -1.993764    3.89172  0.5589E-12  0.9399E-08  0.9061E-12  0.7272E-07  0.0000E+00  0.6310E+14
   -2.062515    4.01633  0.5589E-12  0.1048E-07  0.1015E-11  0.4492E-04  0.0000E+00 -0.2802E+12
   -2.131265    4.01692  0.5589E-12  0.1092E-07  0.1072E-11  0.4509E-04  0.0000E+00 -0.2847E+12
   -2.200015    4.01750  0.5589E-12  0.1126E-07  0.1132E-11  0.4432E-04  0.0000E+00 -0.2955E+12
   -2.268765    4.01810  0.5589E-12  0.1151E-07  0.1201E-11  0.4255E-04  0.0000E+00 -0.3141E+12
   -2.337514    4.01873  0.5589E-12  0.1168E-07  0.1285E-11  0.3959E-04  0.0000E+00 -0.3450E+12
   -2.406262    4.01940  0.5589E-12  0.1174E-07  0.1400E-11  0.3527E-04  0.0000E+00 -0.3968E+12
   -2.475010    4.02016  0.5589E-12  0.1168E-07  0.1574E-11  0.2929E-04  0.0000E+00 -0.4917E+12
   -2.543758    4.02107  0.5589E-12  0.1143E-07  0.1884E-11  0.2141E-04  0.0000E+00 -0.6984E+12
   -2.612505    4.02233  0.5589E-12  0.1076E-07  0.2635E-11  0.1155E-04  0.0000E+00 -0.1376E+13
   -2.681251    4.02469  0.5589E-12  0.7825E-08  0.7333E-11  0.1532E-05  0.0000E+00 -0.1293E+14
   -2.749997    4.04221  0.5589E-12  0.0000E+00  0.0000E+00  0.0000E+00  0.0000E+00  0.0000E+00
