 1 - depth, m
 2 - temperature, C
 3 - salinity, kg/kg
 4 - turbulent kinetic energy, m**2/s**2
 5 - dissipation rate, m**2/s**3
 6 - kinematic heat conductance, m**2/s
 7 - modulus of horizontal velocity, m/s
 8 - Richardson number, n/d
   -0.000000   -0.00000  0.4824E-10  0.1499E-10  0.6518E-14  0.1000E-09  0.1102E-33  0.5030E+16
   -0.068746    0.07624  0.3018E-10  0.5429E-10  0.4860E-14  0.1000E-09  0.8810E-34  0.4198E+16
   -0.137492    0.14110  0.2677E-10  0.1170E-09  0.5085E-14  0.1000E-09  0.7162E-34  0.3338E+16
   -0.206239    0.19352  0.2616E-10  0.1957E-09  0.5925E-14  0.1000E-09  0.5942E-34  0.2523E+16
   -0.274986    0.23366  0.2608E-10  0.2846E-09  0.7038E-14  0.1000E-09  0.4988E-34  0.1807E+16
   -0.343734    0.26269  0.2607E-10  0.3784E-09  0.8262E-14  0.1009E-09  0.4194E-34  0.1220E+16
   -0.412483    0.28243  0.2607E-10  0.4718E-09  0.9490E-14  0.1163E-09  0.3511E-34  0.7702E+15
   -0.481232    0.29495  0.2607E-10  0.5600E-09  0.1064E-13  0.1706E-09  0.2922E-34  0.4503E+15
   -0.549982    0.30229  0.2607E-10  0.6387E-09  0.1165E-13  0.3283E-09  0.2418E-34  0.2420E+15
   -0.618732    0.30624  0.2607E-10  0.7040E-09  0.1248E-13  0.8012E-09  0.1996E-34  0.1229E+15
   -0.687482    0.30825  0.2607E-10  0.7535E-09  0.1307E-13  0.1688E-08  0.1647E-34  0.7931E+14
   -0.756233    0.30955  0.2607E-10  0.7856E-09  0.1344E-13  0.1173E-08  0.1363E-34  0.9901E+14
   -0.824983    0.31117  0.2607E-10  0.8000E-09  0.1355E-13  0.5257E-09  0.1127E-34  0.1808E+15
   -0.893735    0.31413  0.2607E-10  0.7968E-09  0.1342E-13  0.2636E-09  0.9319E-35  0.3383E+15
   -0.962486    0.31968  0.2607E-10  0.7772E-09  0.1307E-13  0.1587E-09  0.7694E-35  0.5933E+15
   -1.031238    0.32942  0.2607E-10  0.7429E-09  0.1252E-13  0.1163E-09  0.6339E-35  0.9721E+15
   -1.099990    0.34545  0.2607E-10  0.6962E-09  0.1180E-13  0.1016E-09  0.5203E-35  0.1500E+16
   -1.168742    0.37034  0.2607E-10  0.6398E-09  0.1095E-13  0.1000E-09  0.4246E-35  0.2197E+16
   -1.237494    0.40711  0.2606E-10  0.5762E-09  0.1000E-13  0.1000E-09  0.3437E-35  0.3070E+16
   -1.306246    0.45917  0.2602E-10  0.5081E-09  0.8997E-14  0.1000E-09  0.2751E-35  0.4108E+16
   -1.374998    0.53013  0.2587E-10  0.4379E-09  0.7974E-14  0.1000E-09  0.2166E-35  0.5356E+16
   -1.443750    0.62504  0.2561E-10  0.3679E-09  0.6971E-14  0.1000E-09  0.1666E-35  0.6691E+16
   -1.512502    0.74773  0.2548E-10  0.3000E-09  0.6028E-14  0.1000E-09  0.1234E-35  0.7996E+16
   -1.581255    0.90110  0.2544E-10  0.2360E-09  0.5187E-14  0.1000E-09  0.8552E-36  0.9159E+16
   -1.650007    1.08727  0.2541E-10  0.1777E-09  0.4502E-14  0.1000E-09  0.5161E-36  0.1006E+17
   -1.718758    1.30733  0.2539E-10  0.1271E-09  0.4060E-14  0.1000E-09  0.2018E-36  0.1055E+17
   -1.787510    1.56057  0.2538E-10  0.8496E-10  0.4027E-14  0.1000E-09  0.1370E-37  0.1015E+17
   -1.856262    1.83320  0.2537E-10  0.5453E-10  0.4920E-14  0.1000E-09  0.8563E-39  0.9426E+16
   -1.925013    2.12331  0.2537E-10  0.4675E-10  0.8734E-14  0.1000E-09  0.4888E-40  0.8390E+16
   -1.993764    2.42789  0.2537E-10  0.9274E-10  0.2341E-13  0.1000E-09  0.3039E-41  0.7108E+16
   -2.062514    2.74474  0.2536E-10  0.2932E-09  0.7494E-13  0.1000E-09  0.2457E-42  0.5718E+16
   -2.131265    3.07851  0.2534E-10  0.9978E-09  0.2469E-12  0.3122E-09  0.1859E-43  0.4023E+16
   -2.200015    3.42358  0.2527E-10  0.3372E-08  0.8051E-12  0.1926E-08  0.1307E-44  0.2125E+16
   -2.268764    3.76931  0.2521E-10  0.1107E-07  0.2556E-11  0.3778E-07  0.6277E-46  0.3429E+15
   -2.337513    4.04476  0.2521E-10  0.1510E-07  0.3525E-11  0.2778E-04  0.1969E-47 -0.1645E+13
   -2.406262    4.04653  0.2521E-10  0.1652E-07  0.4025E-11  0.2734E-04  0.5387E-48 -0.1749E+13
   -2.475010    4.04836  0.2521E-10  0.1744E-07  0.4652E-11  0.2480E-04  0.1337E-48 -0.2039E+13
   -2.543757    4.05042  0.2521E-10  0.1785E-07  0.5639E-11  0.1985E-04  0.2837E-49 -0.2755E+13
   -2.612504    4.05311  0.2521E-10  0.1747E-07  0.7849E-11  0.1208E-04  0.4289E-50 -0.5207E+13
   -2.681251    4.05792  0.2521E-10  0.1395E-07  0.2038E-10  0.2256E-05  0.3227E-51 -0.4428E+14
   -2.749996    4.09017  0.2521E-10  0.0000E+00  0.0000E+00  0.0000E+00  0.3410E-51  0.0000E+00
