 1 - depth, m
 2 - temperature, C
 3 - salinity, kg/kg
 4 - turbulent kinetic energy, m**2/s**2
 5 - dissipation rate, m**2/s**3
 6 - kinematic heat conductance, m**2/s
 7 - modulus of horizontal velocity, m/s
 8 - Richardson number, n/d
   -0.000000   -0.00000  0.1907E-10  0.1219E-13  0.7603E-17  0.1000E-09  0.0000E+00  0.7499E+16
   -0.068746    0.11424  0.1123E-10  0.1219E-13  0.7603E-17  0.1000E-09  0.0000E+00  0.7201E+16
   -0.137492    0.22742  0.8096E-11  0.1219E-13  0.7603E-17  0.1000E-09  0.0000E+00  0.6929E+16
   -0.206239    0.33988  0.7033E-11  0.1219E-13  0.7603E-17  0.1000E-09  0.0000E+00  0.6682E+16
   -0.274987    0.45192  0.6725E-11  0.1219E-13  0.7603E-17  0.1000E-09  0.0000E+00  0.6454E+16
   -0.343735    0.56384  0.6648E-11  0.1219E-13  0.7603E-17  0.1000E-09  0.0000E+00  0.6245E+16
   -0.412483    0.67595  0.6630E-11  0.1219E-13  0.7603E-17  0.1000E-09  0.0000E+00  0.6050E+16
   -0.481232    0.78853  0.6627E-11  0.1219E-13  0.7603E-17  0.1000E-09  0.0000E+00  0.5867E+16
   -0.549982    0.90183  0.6626E-11  0.1219E-13  0.7603E-17  0.1000E-09  0.0000E+00  0.5692E+16
   -0.618732    1.01611  0.6626E-11  0.1219E-13  0.7603E-17  0.1000E-09  0.0000E+00  0.5523E+16
   -0.687482    1.13160  0.6626E-11  0.1219E-13  0.7603E-17  0.1000E-09  0.0000E+00  0.5368E+16
   -0.756233    1.24873  0.6626E-11  0.1219E-13  0.7603E-17  0.1000E-09  0.0000E+00  0.5218E+16
   -0.824984    1.36784  0.6625E-11  0.1219E-13  0.7603E-17  0.1000E-09  0.0000E+00  0.5063E+16
   -0.893735    1.48908  0.6625E-11  0.1219E-13  0.7603E-17  0.1000E-09  0.0000E+00  0.4901E+16
   -0.962487    1.61259  0.6623E-11  0.1219E-13  0.7603E-17  0.1000E-09  0.0000E+00  0.4729E+16
   -1.031238    1.73847  0.6618E-11  0.1219E-13  0.7603E-17  0.1000E-09  0.0000E+00  0.4547E+16
   -1.099990    1.86680  0.6609E-11  0.2950E-13  0.7603E-17  0.1000E-09  0.0000E+00  0.4350E+16
   -1.168742    1.99762  0.6593E-11  0.9500E-13  0.1453E-16  0.1000E-09  0.0000E+00  0.4139E+16
   -1.237494    2.13093  0.6569E-11  0.2525E-12  0.3458E-16  0.1000E-09  0.0000E+00  0.3912E+16
   -1.306246    2.26671  0.6539E-11  0.6288E-12  0.8260E-16  0.1000E-09  0.0000E+00  0.3668E+16
   -1.374999    2.40489  0.6508E-11  0.1528E-11  0.1947E-15  0.1000E-09  0.0000E+00  0.3411E+16
   -1.443751    2.54556  0.6483E-11  0.3658E-11  0.4532E-15  0.1000E-09  0.0000E+00  0.3136E+16
   -1.512503    2.68862  0.6466E-11  0.8656E-11  0.1043E-14  0.1000E-09  0.0000E+00  0.2843E+16
   -1.581255    2.83391  0.6455E-11  0.2025E-10  0.2375E-14  0.1000E-09  0.0000E+00  0.2533E+16
   -1.650007    2.98123  0.6448E-11  0.4687E-10  0.5350E-14  0.1000E-09  0.0000E+00  0.2206E+16
   -1.718759    3.13033  0.6444E-11  0.1073E-09  0.1193E-13  0.1000E-09  0.0000E+00  0.1866E+16
   -1.787511    3.28103  0.6441E-11  0.2492E-09  0.2697E-13  0.1000E-09  0.0000E+00  0.1533E+16
   -1.856262    3.43529  0.6437E-11  0.5827E-09  0.6142E-13  0.2657E-09  0.0000E+00  0.1176E+16
   -1.925014    3.59317  0.6431E-11  0.1359E-08  0.1396E-12  0.8946E-09  0.0000E+00  0.7937E+15
   -1.993765    3.75450  0.6424E-11  0.3150E-08  0.3156E-12  0.4190E-08  0.0000E+00  0.3830E+15
   -2.062515    3.91583  0.6421E-11  0.6770E-08  0.6656E-12  0.1002E-06  0.0000E+00  0.3337E+14
   -2.131266    4.01294  0.6421E-11  0.7806E-08  0.7725E-12  0.3340E-04  0.0000E+00 -0.2943E+12
   -2.200016    4.01363  0.6421E-11  0.8224E-08  0.8279E-12  0.3355E-04  0.0000E+00 -0.3008E+12
   -2.268765    4.01433  0.6421E-11  0.8538E-08  0.8869E-12  0.3277E-04  0.0000E+00 -0.3164E+12
   -2.337514    4.01504  0.6421E-11  0.8762E-08  0.9573E-12  0.3093E-04  0.0000E+00 -0.3449E+12
   -2.406263    4.01580  0.6421E-11  0.8892E-08  0.1049E-11  0.2788E-04  0.0000E+00 -0.3948E+12
   -2.475011    4.01664  0.6421E-11  0.8907E-08  0.1185E-11  0.2339E-04  0.0000E+00 -0.4881E+12
   -2.543758    4.01765  0.6421E-11  0.8751E-08  0.1423E-11  0.1723E-04  0.0000E+00 -0.6951E+12
   -2.612505    4.01904  0.6421E-11  0.8239E-08  0.1997E-11  0.9323E-05  0.0000E+00 -0.1390E+13
   -2.681252    4.02164  0.6421E-11  0.5988E-08  0.5437E-11  0.1279E-05  0.0000E+00 -0.1333E+14
   -2.749997    4.04063  0.6421E-11  0.0000E+00  0.0000E+00  0.0000E+00  0.0000E+00  0.0000E+00
