 1 - depth, m
 2 - temperature, C
 3 - salinity, kg/kg
 4 - turbulent kinetic energy, m**2/s**2
 5 - dissipation rate, m**2/s**3
 6 - kinematic heat conductance, m**2/s
 7 - modulus of horizontal velocity, m/s
 8 - Richardson number, n/d
   -0.000000   10.06597  0.1124E-10  0.8406E-06  0.2545E-07  0.1728E-05  0.2123E-01  0.1479E+03
   -0.068746    9.06012  0.1135E-10  0.1723E-06  0.5766E-08  0.2013E-06  0.1385E-01  0.2552E+03
   -0.137492    7.56772  0.1140E-10  0.8049E-07  0.4647E-09  0.3085E-07  0.6717E-02  0.3312E+03
   -0.206239    6.13383  0.1146E-10  0.3308E-06  0.4696E-09  0.2809E-06  0.2659E-02  0.5240E+03
   -0.274987    5.52028  0.1146E-10  0.7169E-06  0.4461E-09  0.3008E-05  0.9386E-03  0.3940E+04
   -0.343735    5.28845  0.1147E-10  0.1082E-05  0.5319E-09  0.1715E-04  0.2396E-03  0.1166E+05
   -0.412484    5.25246  0.1147E-10  0.1196E-05  0.5708E-09  0.5437E-04  0.7944E-04  0.1476E+05
   -0.481233    5.24970  0.1147E-10  0.1273E-05  0.6038E-09  0.1104E-03  0.6224E-04  0.1414E+05
   -0.549983    5.24872  0.1147E-10  0.1344E-05  0.6373E-09  0.1799E-03  0.5319E-04  0.1082E+05
   -0.618733    5.24828  0.1147E-10  0.1412E-05  0.6729E-09  0.2601E-03  0.4686E-04  0.5325E+04
   -0.687484    5.24810  0.1147E-10  0.1480E-05  0.7112E-09  0.3484E-03  0.4193E-04  0.2193E+04
   -0.756235    5.24807  0.1147E-10  0.1546E-05  0.7515E-09  0.5219E-03  0.3787E-04  0.1945E+07
   -0.824986    5.24812  0.1147E-10  0.1593E-05  0.7831E-09  0.1074E-02  0.3453E-04  0.7009E+04
   -0.893737    5.24819  0.1147E-10  0.1632E-05  0.8104E-09  0.1102E-02  0.3280E-04  0.6541E+04
   -0.962489    5.24830  0.1147E-10  0.1672E-05  0.8403E-09  0.1096E-02  0.3120E-04  0.8418E+04
   -1.031241    5.24845  0.1147E-10  0.1715E-05  0.8736E-09  0.1096E-02  0.2962E-04  0.1036E+05
   -1.099993    5.24865  0.1147E-10  0.1759E-05  0.9101E-09  0.1098E-02  0.2805E-04  0.1234E+05
   -1.168745    5.24891  0.1147E-10  0.1805E-05  0.9495E-09  0.1100E-02  0.2651E-04  0.1446E+05
   -1.237497    5.24921  0.1147E-10  0.1851E-05  0.9915E-09  0.1103E-02  0.2498E-04  0.1666E+05
   -1.306249    5.24957  0.1147E-10  0.1896E-05  0.1036E-08  0.1104E-02  0.2347E-04  0.1904E+05
   -1.375002    5.24998  0.1147E-10  0.1942E-05  0.1082E-08  0.1104E-02  0.2198E-04  0.2150E+05
   -1.443754    5.25044  0.1147E-10  0.1985E-05  0.1131E-08  0.1102E-02  0.2050E-04  0.2419E+05
   -1.512507    5.25097  0.1147E-10  0.2027E-05  0.1181E-08  0.1098E-02  0.1904E-04  0.2700E+05
   -1.581259    5.25155  0.1147E-10  0.2066E-05  0.1232E-08  0.1091E-02  0.1757E-04  0.3012E+05
   -1.650011    5.25220  0.1147E-10  0.2103E-05  0.1285E-08  0.1082E-02  0.1611E-04  0.3361E+05
   -1.718763    5.25292  0.1147E-10  0.2135E-05  0.1339E-08  0.1069E-02  0.1465E-04  0.3952E+05
   -1.787515    5.25370  0.1147E-10  0.2164E-05  0.1396E-08  0.1054E-02  0.1318E-04  0.4713E+05
   -1.856267    5.25452  0.1147E-10  0.2190E-05  0.1460E-08  0.1033E-02  0.1184E-04  0.6480E+05
   -1.925018    5.25538  0.1147E-10  0.2215E-05  0.1532E-08  0.1008E-02  0.1062E-04  0.9028E+05
   -1.993769    5.25628  0.1147E-10  0.2237E-05  0.1616E-08  0.9759E-03  0.9519E-05  0.1295E+06
   -2.062520    5.25724  0.1147E-10  0.2255E-05  0.1710E-08  0.9391E-03  0.8511E-05  0.1883E+06
   -2.131270    5.25829  0.1147E-10  0.2270E-05  0.1816E-08  0.8969E-03  0.7550E-05  0.2615E+06
   -2.200020    5.25943  0.1147E-10  0.2280E-05  0.1940E-08  0.8493E-03  0.6630E-05  0.3774E+06
   -2.268770    5.26069  0.1147E-10  0.2284E-05  0.2087E-08  0.7952E-03  0.5742E-05  0.5628E+06
   -2.337519    5.26208  0.1147E-10  0.2281E-05  0.2275E-08  0.7317E-03  0.4906E-05  0.9244E+06
   -2.406268    5.26364  0.1147E-10  0.2270E-05  0.2531E-08  0.6569E-03  0.4124E-05  0.1717E+07
   -2.475016    5.26542  0.1147E-10  0.2246E-05  0.2906E-08  0.5687E-03  0.3394E-05  0.3730E+07
   -2.543764    5.26755  0.1147E-10  0.2202E-05  0.3527E-08  0.4586E-03  0.2710E-05  0.1103E+08
   -2.612511    5.27027  0.1147E-10  0.2120E-05  0.4799E-08  0.3500E-03  0.2059E-05  0.5176E+08
   -2.681258    5.27395  0.1147E-10  0.1477E-05  0.1806E-07  0.1969E-04  0.1490E-05 -0.2266E+10
   -2.750004    5.34171  0.1147E-10  0.0000E+00  0.0000E+00  0.0000E+00  0.1490E-05  0.0000E+00
