 1 - depth, m
 2 - temperature, C
 3 - salinity, kg/kg
 4 - turbulent kinetic energy, m**2/s**2
 5 - dissipation rate, m**2/s**3
 6 - kinematic heat conductance, m**2/s
 7 - modulus of horizontal velocity, m/s
 8 - Richardson number, n/d
   -0.000000   -0.00000  0.1734E-17  0.1219E-13  0.7603E-17  0.1000E-09  0.0000E+00  0.4430E+16
   -0.068746    0.06706  0.0000E+00  0.1219E-13  0.7603E-17  0.1000E-09  0.0000E+00  0.4559E+16
   -0.137493    0.13738  0.1654E-12  0.1219E-13  0.7603E-17  0.1000E-09  0.0000E+00  0.4729E+16
   -0.206240    0.21179  0.8019E-12  0.1219E-13  0.7603E-17  0.1000E-09  0.0000E+00  0.4914E+16
   -0.274988    0.29081  0.1628E-11  0.1219E-13  0.7603E-17  0.1000E-09  0.0000E+00  0.5088E+16
   -0.343737    0.37455  0.2310E-11  0.1219E-13  0.7603E-17  0.1000E-09  0.0000E+00  0.5231E+16
   -0.412486    0.46285  0.2694E-11  0.1219E-13  0.7603E-17  0.1000E-09  0.0000E+00  0.5333E+16
   -0.481236    0.55536  0.2803E-11  0.1219E-13  0.7603E-17  0.1000E-09  0.0000E+00  0.5391E+16
   -0.549986    0.65164  0.2739E-11  0.1219E-13  0.7603E-17  0.1000E-09  0.0000E+00  0.5407E+16
   -0.618736    0.75124  0.2607E-11  0.1219E-13  0.7603E-17  0.1000E-09  0.0000E+00  0.5384E+16
   -0.687487    0.85375  0.2473E-11  0.1219E-13  0.7603E-17  0.1000E-09  0.0000E+00  0.5323E+16
   -0.756238    0.95869  0.2368E-11  0.1219E-13  0.7603E-17  0.1000E-09  0.0000E+00  0.5231E+16
   -0.824990    1.06568  0.2297E-11  0.1219E-13  0.7603E-17  0.1000E-09  0.0000E+00  0.5115E+16
   -0.893741    1.17443  0.2254E-11  0.1219E-13  0.7603E-17  0.1000E-09  0.0000E+00  0.4979E+16
   -0.962493    1.28470  0.2230E-11  0.1219E-13  0.7603E-17  0.1000E-09  0.0000E+00  0.4828E+16
   -1.031246    1.39632  0.2218E-11  0.1219E-13  0.7603E-17  0.1000E-09  0.0000E+00  0.4664E+16
   -1.099998    1.50913  0.2212E-11  0.1219E-13  0.7603E-17  0.1000E-09  0.0000E+00  0.4490E+16
   -1.168750    1.62302  0.2208E-11  0.1219E-13  0.7603E-17  0.1000E-09  0.0000E+00  0.4308E+16
   -1.237503    1.73795  0.2205E-11  0.1219E-13  0.7603E-17  0.1000E-09  0.0000E+00  0.4121E+16
   -1.306256    1.85391  0.2202E-11  0.1219E-13  0.7603E-17  0.1000E-09  0.0000E+00  0.3932E+16
   -1.375008    1.97098  0.2198E-11  0.1219E-13  0.7603E-17  0.1000E-09  0.0000E+00  0.3743E+16
   -1.443761    2.08936  0.2194E-11  0.1219E-13  0.7603E-17  0.1000E-09  0.0000E+00  0.3554E+16
   -1.512514    2.20929  0.2189E-11  0.1219E-13  0.7603E-17  0.1000E-09  0.0000E+00  0.3364E+16
   -1.581266    2.33105  0.2183E-11  0.1219E-13  0.7603E-17  0.1000E-09  0.0000E+00  0.3172E+16
   -1.650019    2.45493  0.2177E-11  0.1219E-13  0.7603E-17  0.1000E-09  0.0000E+00  0.2972E+16
   -1.718771    2.58116  0.2171E-11  0.1219E-13  0.7603E-17  0.1000E-09  0.0000E+00  0.2757E+16
   -1.787523    2.70963  0.2166E-11  0.1219E-13  0.7603E-17  0.1000E-09  0.0000E+00  0.2436E+16
   -1.856275    2.83527  0.2161E-11  0.1219E-13  0.7603E-17  0.1000E-09  0.0000E+00  0.2115E+16
   -1.925027    2.95699  0.2157E-11  0.1219E-13  0.7603E-17  0.1000E-09  0.0000E+00  0.1800E+16
   -1.993779    3.07350  0.2154E-11  0.5635E-13  0.1875E-16  0.1000E-09  0.0000E+00  0.1518E+16
   -2.062530    3.18504  0.2151E-11  0.2263E-12  0.6884E-16  0.1000E-09  0.0000E+00  0.1327E+16
   -2.131281    3.29740  0.2149E-11  0.8598E-12  0.2508E-15  0.1000E-09  0.0000E+00  0.1142E+16
   -2.200031    3.41160  0.2147E-11  0.3192E-11  0.8968E-15  0.1000E-09  0.0000E+00  0.9507E+15
   -2.268781    3.52815  0.2145E-11  0.1175E-10  0.3182E-14  0.1000E-09  0.0000E+00  0.7464E+15
   -2.337531    3.64688  0.2144E-11  0.4339E-10  0.1133E-13  0.1083E-09  0.0000E+00  0.5302E+15
   -2.406280    3.76764  0.2143E-11  0.1594E-09  0.4019E-13  0.6710E-09  0.0000E+00  0.3020E+15
   -2.475028    3.88959  0.2143E-11  0.5837E-09  0.1424E-12  0.9904E-08  0.0000E+00  0.7067E+14
   -2.543776    4.00471  0.2143E-11  0.1649E-08  0.4016E-12  0.2974E-05  0.0000E+00 -0.1807E+13
   -2.612524    4.01018  0.2143E-11  0.1914E-08  0.5949E-12  0.2312E-05  0.0000E+00 -0.2758E+13
   -2.681271    4.01668  0.2143E-11  0.1490E-08  0.1176E-11  0.4564E-06  0.0000E+00 -0.1321E+14
   -2.750017    4.03740  0.2143E-11  0.0000E+00  0.0000E+00  0.0000E+00  0.0000E+00  0.0000E+00
