 1 - depth, m
 2 - temperature, C
 3 - salinity, kg/kg
 4 - turbulent kinetic energy, m**2/s**2
 5 - dissipation rate, m**2/s**3
 6 - kinematic heat conductance, m**2/s
 7 - modulus of horizontal velocity, m/s
 8 - Richardson number, n/d
   -0.000000   -0.00000  0.8176E-10  0.1219E-13  0.7603E-17  0.1000E-09  0.0000E+00  0.7575E+16
   -0.068746    0.11541  0.6772E-10  0.1219E-13  0.7603E-17  0.1000E-09  0.0000E+00  0.7333E+16
   -0.137492    0.23075  0.5202E-10  0.1219E-13  0.7603E-17  0.1000E-09  0.0000E+00  0.7087E+16
   -0.206239    0.34592  0.4225E-10  0.1219E-13  0.7603E-17  0.1000E-09  0.0000E+00  0.6838E+16
   -0.274987    0.46083  0.3727E-10  0.1219E-13  0.7603E-17  0.1000E-09  0.0000E+00  0.6587E+16
   -0.343735    0.57541  0.3506E-10  0.1219E-13  0.7603E-17  0.1000E-09  0.0000E+00  0.6335E+16
   -0.412484    0.68959  0.3418E-10  0.1219E-13  0.7603E-17  0.1000E-09  0.0000E+00  0.6084E+16
   -0.481233    0.80331  0.3387E-10  0.1219E-13  0.7603E-17  0.1000E-09  0.0000E+00  0.5834E+16
   -0.549983    0.91653  0.3377E-10  0.1219E-13  0.7603E-17  0.1000E-09  0.0000E+00  0.5585E+16
   -0.618733    1.02920  0.3374E-10  0.1219E-13  0.7603E-17  0.1000E-09  0.0000E+00  0.5339E+16
   -0.687483    1.14128  0.3373E-10  0.1219E-13  0.7603E-17  0.1000E-09  0.0000E+00  0.5099E+16
   -0.756234    1.25284  0.3372E-10  0.1219E-13  0.7603E-17  0.1000E-09  0.0000E+00  0.4865E+16
   -0.824985    1.36391  0.3371E-10  0.1219E-13  0.7603E-17  0.1000E-09  0.0000E+00  0.4634E+16
   -0.893736    1.47446  0.3368E-10  0.1219E-13  0.7603E-17  0.1000E-09  0.0000E+00  0.4404E+16
   -0.962488    1.58445  0.3364E-10  0.1219E-13  0.7603E-17  0.1000E-09  0.0000E+00  0.4177E+16
   -1.031239    1.69384  0.3358E-10  0.1219E-13  0.7603E-17  0.1000E-09  0.0000E+00  0.3953E+16
   -1.099991    1.80261  0.3350E-10  0.1219E-13  0.7603E-17  0.1000E-09  0.0000E+00  0.3732E+16
   -1.168744    1.91071  0.3339E-10  0.1219E-13  0.7603E-17  0.1000E-09  0.0000E+00  0.3513E+16
   -1.237496    2.01809  0.3327E-10  0.1219E-13  0.7603E-17  0.1000E-09  0.0000E+00  0.3298E+16
   -1.306248    2.12472  0.3315E-10  0.1219E-13  0.7603E-17  0.1000E-09  0.0000E+00  0.3087E+16
   -1.375000    2.23055  0.3303E-10  0.1219E-13  0.7603E-17  0.1000E-09  0.0000E+00  0.2880E+16
   -1.443753    2.33560  0.3294E-10  0.1219E-13  0.7603E-17  0.1000E-09  0.0000E+00  0.2678E+16
   -1.512505    2.43984  0.3286E-10  0.1219E-13  0.7603E-17  0.1000E-09  0.0000E+00  0.2479E+16
   -1.581257    2.54323  0.3281E-10  0.1219E-13  0.7603E-17  0.1000E-09  0.0000E+00  0.2285E+16
   -1.650009    2.64571  0.3277E-10  0.1219E-13  0.7603E-17  0.1000E-09  0.0000E+00  0.2094E+16
   -1.718761    2.74723  0.3275E-10  0.1219E-13  0.7603E-17  0.1000E-09  0.0000E+00  0.1908E+16
   -1.787513    2.84778  0.3273E-10  0.1219E-13  0.7603E-17  0.1000E-09  0.0000E+00  0.1737E+16
   -1.856264    2.94791  0.3271E-10  0.1219E-13  0.7603E-17  0.1000E-09  0.0000E+00  0.1568E+16
   -1.925016    3.04760  0.3270E-10  0.1219E-13  0.7603E-17  0.1000E-09  0.0000E+00  0.1402E+16
   -1.993767    3.14682  0.3268E-10  0.1219E-13  0.7603E-17  0.1000E-09  0.0000E+00  0.1236E+16
   -2.062518    3.24541  0.3266E-10  0.1219E-13  0.7603E-17  0.1000E-09  0.0000E+00  0.1074E+16
   -2.131268    3.34338  0.3264E-10  0.1396E-13  0.7797E-17  0.1000E-09  0.0000E+00  0.9148E+15
   -2.200018    3.44073  0.3262E-10  0.6684E-13  0.3449E-16  0.1000E-09  0.0000E+00  0.7591E+15
   -2.268768    3.53742  0.3261E-10  0.3538E-12  0.1752E-15  0.1000E-09  0.0000E+00  0.6085E+15
   -2.337517    3.63374  0.3261E-10  0.1872E-11  0.8920E-15  0.1000E-09  0.0000E+00  0.4609E+15
   -2.406266    3.72989  0.3260E-10  0.9802E-11  0.4505E-14  0.1000E-09  0.0000E+00  0.3151E+15
   -2.475014    3.82614  0.3260E-10  0.5114E-10  0.2275E-13  0.6490E-09  0.0000E+00  0.1694E+15
   -2.543761    3.92254  0.3260E-10  0.2647E-09  0.1150E-12  0.1645E-07  0.0000E+00  0.2730E+14
   -2.612508    4.01044  0.3260E-10  0.1200E-08  0.5511E-12  0.9963E-06  0.0000E+00 -0.6068E+13
   -2.681255    4.02315  0.3260E-10  0.1444E-08  0.1362E-11  0.4613E-06  0.0000E+00 -0.2248E+14
   -2.750001    4.05134  0.3260E-10  0.0000E+00  0.0000E+00  0.0000E+00  0.0000E+00  0.0000E+00
