 1 - depth, m
 2 - temperature, C
 3 - salinity, kg/kg
 4 - turbulent kinetic energy, m**2/s**2
 5 - dissipation rate, m**2/s**3
 6 - kinematic heat conductance, m**2/s
 7 - modulus of horizontal velocity, m/s
 8 - Richardson number, n/d
   -0.000000   -0.02716  0.1927E-10  0.5064E-04  0.1026E-04  0.5463E-04  0.7392E-01  0.2647E-01
   -0.068746    0.01293  0.1927E-10  0.3142E-04  0.2262E-05  0.8303E-04  0.4500E-01  0.8550E-02
   -0.137492    0.02203  0.1927E-10  0.2602E-04  0.9026E-06  0.1110E-03  0.3869E-01  0.1710E-01
   -0.206239    0.02779  0.1927E-10  0.2288E-04  0.4645E-06  0.1378E-03  0.3470E-01  0.2411E-01
   -0.274987    0.03244  0.1927E-10  0.2075E-04  0.2874E-06  0.1612E-03  0.3173E-01  0.3205E-01
   -0.343735    0.03640  0.1927E-10  0.1910E-04  0.2005E-06  0.1805E-03  0.2939E-01  0.4115E-01
   -0.412484    0.03989  0.1927E-10  0.1771E-04  0.1508E-06  0.1951E-03  0.2747E-01  0.5161E-01
   -0.481233    0.04310  0.1927E-10  0.1646E-04  0.1189E-06  0.2049E-03  0.2584E-01  0.6368E-01
   -0.549983    0.04613  0.1927E-10  0.1532E-04  0.9685E-07  0.2098E-03  0.2443E-01  0.7766E-01
   -0.618733    0.04907  0.1927E-10  0.1424E-04  0.8067E-07  0.2102E-03  0.2317E-01  0.9400E-01
   -0.687483    0.05200  0.1927E-10  0.1322E-04  0.6833E-07  0.2063E-03  0.2202E-01  0.1133E+00
   -0.756234    0.05498  0.1927E-10  0.1226E-04  0.5864E-07  0.1986E-03  0.2097E-01  0.1364E+00
   -0.824985    0.05810  0.1927E-10  0.1133E-04  0.5086E-07  0.1874E-03  0.1998E-01  0.1646E+00
   -0.893737    0.06143  0.1927E-10  0.1045E-04  0.4452E-07  0.1732E-03  0.1905E-01  0.1997E+00
   -0.962488    0.06512  0.1927E-10  0.9598E-05  0.3928E-07  0.1566E-03  0.1815E-01  0.2444E+00
   -1.031240    0.06936  0.1927E-10  0.8778E-05  0.3493E-07  0.1382E-03  0.1728E-01  0.3020E+00
   -1.099992    0.07456  0.1927E-10  0.7985E-05  0.3130E-07  0.1191E-03  0.1640E-01  0.3734E+00
   -1.168744    0.08188  0.1927E-10  0.7207E-05  0.2829E-07  0.1003E-03  0.1548E-01  0.4468E+00
   -1.237497    0.09701  0.1927E-10  0.6425E-05  0.2567E-07  0.8325E-04  0.1441E-01  0.5814E+00
   -1.306249    0.15006  0.1927E-10  0.5698E-05  0.2342E-07  0.6864E-04  0.1301E-01  0.9566E+00
   -1.375001    0.22349  0.1927E-10  0.5044E-05  0.2160E-07  0.5658E-04  0.1150E-01  0.2372E+01
   -1.443754    0.29812  0.1927E-10  0.4461E-05  0.2016E-07  0.4728E-04  0.9997E-02  0.1088E+02
   -1.512506    0.37578  0.1928E-10  0.3948E-05  0.1910E-07  0.4086E-04  0.8509E-02  0.8035E+02
   -1.581258    0.46849  0.1928E-10  0.3520E-05  0.1839E-07  0.3702E-04  0.6989E-02  0.7530E+03
   -1.650010    0.59427  0.1928E-10  0.3207E-05  0.1797E-07  0.3492E-04  0.5406E-02  0.6535E+04
   -1.718762    0.77991  0.1928E-10  0.3023E-05  0.1780E-07  0.1806E-04  0.3686E-02  0.6333E+05
   -1.787514    1.05099  0.1928E-10  0.2032E-05  0.1042E-07  0.2181E-04  0.1447E-02  0.9665E+07
   -1.856266    1.30040  0.1928E-10  0.1380E-05  0.6474E-08  0.1290E-04  0.8293E-03  0.1411E+10
   -1.925017    1.50311  0.1929E-10  0.8418E-06  0.3683E-08  0.5614E-05  0.4660E-03  0.7351E+11
   -1.993768    1.63325  0.1929E-10  0.3993E-06  0.1659E-08  0.1034E-05  0.2345E-03 -0.6405E+14
   -2.062519    1.71212  0.1929E-10  0.9108E-07  0.3670E-09  0.4173E-07  0.8428E-04  0.5270E+15
   -2.131270    1.85986  0.1929E-10  0.7269E-08  0.2961E-10  0.8061E-08  0.1040E-04  0.2593E+16
   -2.200020    2.05086  0.1929E-10  0.3349E-09  0.2227E-11  0.7748E-09  0.7995E-06  0.5687E+16
   -2.268769    2.34438  0.1929E-10  0.1298E-10  0.1007E-11  0.1206E-09  0.3651E-07  0.7256E+16
   -2.337518    2.73469  0.1929E-10  0.4419E-11  0.1000E-11  0.1000E-09  0.1356E-08  0.6764E+16
   -2.406267    3.20719  0.1929E-10  0.4419E-11  0.1000E-11  0.1000E-09  0.4332E-10  0.4200E+16
   -2.475015    3.71916  0.1929E-10  0.4419E-11  0.1000E-11  0.1000E-09  0.1162E-11 -0.6446E+15
   -2.543763    4.32993  0.1929E-10  0.4419E-11  0.1000E-11  0.1000E-09  0.2617E-13 -0.1015E+17
   -2.612510    5.19013  0.1929E-10  0.4419E-11  0.1000E-11  0.1000E-09  0.4401E-15 -0.2050E+17
   -2.681257    6.02157  0.1929E-10  0.4419E-11  0.1000E-11  0.1000E-09  0.4822E-17 -0.8388E+16
   -2.750003    6.27504  0.1929E-10  0.0000E+00  0.0000E+00  0.0000E+00  0.4142E-17  0.0000E+00
