 1 - depth, m
 2 - temperature, C
 3 - salinity, kg/kg
 4 - turbulent kinetic energy, m**2/s**2
 5 - dissipation rate, m**2/s**3
 6 - kinematic heat conductance, m**2/s
 7 - modulus of horizontal velocity, m/s
 8 - Richardson number, n/d
   -0.000000    2.59959  0.3732E-11  0.3437E-04  0.3782E-05  0.3369E-04  0.6236E-01  0.1624E-02
   -0.068746    2.64529  0.3732E-11  0.2548E-04  0.9226E-06  0.7799E-04  0.4049E-01  0.6050E-02
   -0.137492    2.66028  0.3732E-11  0.2270E-04  0.4364E-06  0.1179E-03  0.3454E-01  0.9714E-02
   -0.206239    2.67026  0.3732E-11  0.2100E-04  0.2692E-06  0.1548E-03  0.3078E-01  0.1379E-01
   -0.274987    2.67774  0.3732E-11  0.1965E-04  0.1894E-06  0.1875E-03  0.2809E-01  0.1834E-01
   -0.343735    2.68378  0.3732E-11  0.1846E-04  0.1432E-06  0.2153E-03  0.2602E-01  0.2332E-01
   -0.412484    2.68893  0.3732E-11  0.1737E-04  0.1132E-06  0.2381E-03  0.2434E-01  0.2870E-01
   -0.481233    2.69348  0.3732E-11  0.1635E-04  0.9207E-07  0.2564E-03  0.2292E-01  0.3452E-01
   -0.549983    2.69762  0.3732E-11  0.1539E-04  0.7647E-07  0.2704E-03  0.2169E-01  0.4082E-01
   -0.618733    2.70146  0.3732E-11  0.1448E-04  0.6447E-07  0.2805E-03  0.2061E-01  0.4771E-01
   -0.687483    2.70510  0.3733E-11  0.1361E-04  0.5495E-07  0.2871E-03  0.1963E-01  0.5529E-01
   -0.756234    2.70858  0.3733E-11  0.1277E-04  0.4724E-07  0.2906E-03  0.1875E-01  0.6372E-01
   -0.824985    2.71195  0.3733E-11  0.1198E-04  0.4086E-07  0.2914E-03  0.1794E-01  0.7319E-01
   -0.893737    2.71525  0.3733E-11  0.1121E-04  0.3552E-07  0.2898E-03  0.1720E-01  0.8401E-01
   -0.962488    2.71851  0.3733E-11  0.1049E-04  0.3100E-07  0.2862E-03  0.1651E-01  0.9658E-01
   -1.031240    2.72174  0.3733E-11  0.9803E-05  0.2714E-07  0.2813E-03  0.1587E-01  0.1115E+00
   -1.099992    2.72498  0.3733E-11  0.9161E-05  0.2386E-07  0.2755E-03  0.1527E-01  0.1298E+00
   -1.168744    2.72822  0.3733E-11  0.8570E-05  0.2108E-07  0.2697E-03  0.1471E-01  0.1530E+00
   -1.237497    2.73147  0.3733E-11  0.8042E-05  0.1878E-07  0.2649E-03  0.1420E-01  0.1834E+00
   -1.306249    2.73473  0.3733E-11  0.7593E-05  0.1695E-07  0.2622E-03  0.1373E-01  0.2235E+00
   -1.375001    2.73797  0.3733E-11  0.7239E-05  0.1560E-07  0.2625E-03  0.1330E-01  0.2832E+00
   -1.443754    2.74119  0.3733E-11  0.7000E-05  0.1475E-07  0.2669E-03  0.1291E-01  0.3701E+00
   -1.512506    2.74437  0.3733E-11  0.6888E-05  0.1443E-07  0.2753E-03  0.1258E-01  0.5174E+00
   -1.581258    2.74758  0.3733E-11  0.6930E-05  0.1474E-07  0.2901E-03  0.1228E-01  0.9364E+00
   -1.650010    2.75104  0.3733E-11  0.7214E-05  0.1603E-07  0.2183E-03  0.1200E-01  0.9382E+00
   -1.718762    2.77313  0.3733E-11  0.7023E-05  0.1586E-07  0.1172E-03  0.7843E-02  0.8050E+00
   -1.787514    2.80720  0.3733E-11  0.5857E-05  0.1232E-07  0.2628E-03  0.8846E-03  0.6778E+01
   -1.856266    2.81114  0.3733E-11  0.5160E-05  0.1036E-07  0.2236E-03  0.7181E-03  0.3609E+01
   -1.925017    2.81509  0.3733E-11  0.4516E-05  0.8665E-08  0.1911E-03  0.5837E-03  0.5741E+01
   -1.993768    2.81936  0.3733E-11  0.3913E-05  0.7202E-08  0.1566E-03  0.4751E-03  0.9883E+01
   -2.062519    2.82437  0.3733E-11  0.3355E-05  0.5946E-08  0.1227E-03  0.3856E-03  0.1496E+02
   -2.131269    2.83074  0.3733E-11  0.2845E-05  0.4884E-08  0.8941E-04  0.3045E-03  0.2556E+02
   -2.200020    2.83988  0.3733E-11  0.2359E-05  0.3949E-08  0.5786E-04  0.2306E-03  0.4711E+02
   -2.268769    2.86173  0.3733E-11  0.1843E-05  0.3031E-08  0.3079E-04  0.1568E-03  0.2400E+03
   -2.337518    2.97730  0.3733E-11  0.1248E-05  0.2016E-08  0.1226E-04  0.8584E-04  0.6658E+04
   -2.406267    3.28375  0.3733E-11  0.7590E-06  0.1195E-08  0.1175E-04  0.3527E-04 -0.4795E+05
   -2.475015    3.49993  0.3733E-11  0.3896E-06  0.5923E-09  0.1189E-04  0.8459E-05 -0.9999E+06
   -2.543763    3.72636  0.3733E-11  0.2011E-06  0.3014E-09  0.1523E-04  0.1047E-05 -0.1224E+08
   -2.612510    3.97933  0.3733E-11  0.1509E-06  0.2515E-09  0.1741E-04  0.2574E-06 -0.1349E+10
   -2.681257    4.04594  0.3733E-11  0.9138E-07  0.4419E-09  0.4336E-05  0.9023E-07 -0.4613E+14
   -2.750002    4.14721  0.3733E-11  0.0000E+00  0.0000E+00  0.0000E+00  0.9658E-07  0.0000E+00
