 1 - depth, m
 2 - temperature, C
 3 - salinity, kg/kg
 4 - turbulent kinetic energy, m**2/s**2
 5 - dissipation rate, m**2/s**3
 6 - kinematic heat conductance, m**2/s
 7 - modulus of horizontal velocity, m/s
 8 - Richardson number, n/d
   -0.000000   -0.00000  0.8796E-10  0.1219E-13  0.7603E-17  0.1000E-09  0.0000E+00  0.7669E+16
   -0.068746    0.11688  0.6741E-10  0.1219E-13  0.7603E-17  0.1000E-09  0.0000E+00  0.7403E+16
   -0.137492    0.23339  0.5091E-10  0.1219E-13  0.7603E-17  0.1000E-09  0.0000E+00  0.7139E+16
   -0.206239    0.34950  0.4143E-10  0.1219E-13  0.7603E-17  0.1000E-09  0.0000E+00  0.6876E+16
   -0.274987    0.46519  0.3681E-10  0.1219E-13  0.7603E-17  0.1000E-09  0.0000E+00  0.6615E+16
   -0.343735    0.58042  0.3484E-10  0.1219E-13  0.7603E-17  0.1000E-09  0.0000E+00  0.6355E+16
   -0.412484    0.69515  0.3410E-10  0.1219E-13  0.7603E-17  0.1000E-09  0.0000E+00  0.6098E+16
   -0.481233    0.80936  0.3384E-10  0.1219E-13  0.7603E-17  0.1000E-09  0.0000E+00  0.5844E+16
   -0.549982    0.92302  0.3376E-10  0.1219E-13  0.7603E-17  0.1000E-09  0.0000E+00  0.5592E+16
   -0.618732    1.03610  0.3374E-10  0.1219E-13  0.7603E-17  0.1000E-09  0.0000E+00  0.5344E+16
   -0.687483    1.14859  0.3373E-10  0.1219E-13  0.7603E-17  0.1000E-09  0.0000E+00  0.5104E+16
   -0.756233    1.26055  0.3372E-10  0.1219E-13  0.7603E-17  0.1000E-09  0.0000E+00  0.4869E+16
   -0.824984    1.37204  0.3371E-10  0.1219E-13  0.7603E-17  0.1000E-09  0.0000E+00  0.4636E+16
   -0.893736    1.48303  0.3368E-10  0.1219E-13  0.7603E-17  0.1000E-09  0.0000E+00  0.4407E+16
   -0.962487    1.59350  0.3365E-10  0.1219E-13  0.7603E-17  0.1000E-09  0.0000E+00  0.4179E+16
   -1.031239    1.70340  0.3359E-10  0.1219E-13  0.7603E-17  0.1000E-09  0.0000E+00  0.3955E+16
   -1.099991    1.81270  0.3350E-10  0.1219E-13  0.7603E-17  0.1000E-09  0.0000E+00  0.3733E+16
   -1.168743    1.92138  0.3339E-10  0.1219E-13  0.7603E-17  0.1000E-09  0.0000E+00  0.3514E+16
   -1.237495    2.02938  0.3327E-10  0.1219E-13  0.7603E-17  0.1000E-09  0.0000E+00  0.3298E+16
   -1.306247    2.13667  0.3315E-10  0.1219E-13  0.7603E-17  0.1000E-09  0.0000E+00  0.3085E+16
   -1.375000    2.24319  0.3303E-10  0.1219E-13  0.7603E-17  0.1000E-09  0.0000E+00  0.2878E+16
   -1.443752    2.34897  0.3293E-10  0.1219E-13  0.7603E-17  0.1000E-09  0.0000E+00  0.2674E+16
   -1.512504    2.45398  0.3286E-10  0.1219E-13  0.7603E-17  0.1000E-09  0.0000E+00  0.2473E+16
   -1.581256    2.55816  0.3280E-10  0.1219E-13  0.7603E-17  0.1000E-09  0.0000E+00  0.2277E+16
   -1.650008    2.66146  0.3277E-10  0.1219E-13  0.7603E-17  0.1000E-09  0.0000E+00  0.2084E+16
   -1.718760    2.76380  0.3274E-10  0.1219E-13  0.7603E-17  0.1000E-09  0.0000E+00  0.1896E+16
   -1.787512    2.86516  0.3273E-10  0.1219E-13  0.7603E-17  0.1000E-09  0.0000E+00  0.1724E+16
   -1.856264    2.96620  0.3271E-10  0.1219E-13  0.7603E-17  0.1000E-09  0.0000E+00  0.1553E+16
   -1.925015    3.06689  0.3270E-10  0.1219E-13  0.7603E-17  0.1000E-09  0.0000E+00  0.1385E+16
   -1.993766    3.16722  0.3268E-10  0.1219E-13  0.7603E-17  0.1000E-09  0.0000E+00  0.1217E+16
   -2.062517    3.26698  0.3266E-10  0.1219E-13  0.7603E-17  0.1000E-09  0.0000E+00  0.1051E+16
   -2.131267    3.36607  0.3264E-10  0.2912E-13  0.1413E-16  0.1000E-09  0.0000E+00  0.8879E+15
   -2.200017    3.46444  0.3262E-10  0.1397E-12  0.6331E-16  0.1000E-09  0.0000E+00  0.7284E+15
   -2.268767    3.56199  0.3261E-10  0.6816E-12  0.2966E-15  0.1000E-09  0.0000E+00  0.5745E+15
   -2.337516    3.65899  0.3261E-10  0.3319E-11  0.1391E-14  0.1000E-09  0.0000E+00  0.4241E+15
   -2.406265    3.75559  0.3260E-10  0.1602E-10  0.6478E-14  0.1162E-09  0.0000E+00  0.2763E+15
   -2.475013    3.85192  0.3260E-10  0.7709E-10  0.3019E-13  0.1123E-08  0.0000E+00  0.1299E+15
   -2.543760    3.94762  0.3260E-10  0.3645E-09  0.1398E-12  0.6173E-07  0.0000E+00  0.5213E+13
   -2.612507    4.01516  0.3260E-10  0.1359E-08  0.6163E-12  0.1161E-05  0.0000E+00 -0.5949E+13
   -2.681254    4.02621  0.3260E-10  0.1561E-08  0.1481E-11  0.4889E-06  0.0000E+00 -0.2258E+14
   -2.749999    4.05321  0.3260E-10  0.0000E+00  0.0000E+00  0.0000E+00  0.0000E+00  0.0000E+00
