 1 - depth, m
 2 - temperature, C
 3 - salinity, kg/kg
 4 - turbulent kinetic energy, m**2/s**2
 5 - dissipation rate, m**2/s**3
 6 - kinematic heat conductance, m**2/s
 7 - modulus of horizontal velocity, m/s
 8 - Richardson number, n/d
   -0.000000   -0.00000  0.1869E-10  0.1219E-13  0.7603E-17  0.1000E-09  0.0000E+00  0.8141E+16
   -0.068746    0.12419  0.1204E-10  0.1219E-13  0.7603E-17  0.1000E-09  0.0000E+00  0.7819E+16
   -0.137492    0.24762  0.8632E-11  0.1219E-13  0.7603E-17  0.1000E-09  0.0000E+00  0.7513E+16
   -0.206239    0.37045  0.7270E-11  0.1219E-13  0.7603E-17  0.1000E-09  0.0000E+00  0.7222E+16
   -0.274987    0.49284  0.6809E-11  0.1219E-13  0.7603E-17  0.1000E-09  0.0000E+00  0.6944E+16
   -0.343735    0.61497  0.6673E-11  0.1219E-13  0.7603E-17  0.1000E-09  0.0000E+00  0.6677E+16
   -0.412483    0.73697  0.6637E-11  0.1219E-13  0.7603E-17  0.1000E-09  0.0000E+00  0.6420E+16
   -0.481233    0.85902  0.6628E-11  0.1219E-13  0.7603E-17  0.1000E-09  0.0000E+00  0.6171E+16
   -0.549982    0.98126  0.6626E-11  0.1219E-13  0.7603E-17  0.1000E-09  0.0000E+00  0.5928E+16
   -0.618732    1.10382  0.6626E-11  0.1219E-13  0.7603E-17  0.1000E-09  0.0000E+00  0.5690E+16
   -0.687482    1.22683  0.6626E-11  0.1219E-13  0.7603E-17  0.1000E-09  0.0000E+00  0.5463E+16
   -0.756233    1.35060  0.6625E-11  0.1219E-13  0.7603E-17  0.1000E-09  0.0000E+00  0.5242E+16
   -0.824984    1.47535  0.6625E-11  0.1219E-13  0.7603E-17  0.1000E-09  0.0000E+00  0.5019E+16
   -0.893735    1.60117  0.6624E-11  0.1219E-13  0.7603E-17  0.1000E-09  0.0000E+00  0.4793E+16
   -0.962487    1.72812  0.6621E-11  0.1219E-13  0.7603E-17  0.1000E-09  0.0000E+00  0.4562E+16
   -1.031239    1.85624  0.6614E-11  0.1219E-13  0.7603E-17  0.1000E-09  0.0000E+00  0.4325E+16
   -1.099991    1.98557  0.6603E-11  0.3957E-13  0.7603E-17  0.1000E-09  0.0000E+00  0.4082E+16
   -1.168743    2.11609  0.6585E-11  0.1152E-12  0.1579E-16  0.1000E-09  0.0000E+00  0.3832E+16
   -1.237495    2.24779  0.6561E-11  0.2907E-12  0.3676E-16  0.1000E-09  0.0000E+00  0.3574E+16
   -1.306247    2.38063  0.6533E-11  0.6990E-12  0.8518E-16  0.1000E-09  0.0000E+00  0.3308E+16
   -1.374999    2.51453  0.6505E-11  0.1646E-11  0.1949E-15  0.1000E-09  0.0000E+00  0.3037E+16
   -1.443751    2.64954  0.6482E-11  0.3827E-11  0.4409E-15  0.1000E-09  0.0000E+00  0.2759E+16
   -1.512504    2.78556  0.6466E-11  0.8797E-11  0.9867E-15  0.1000E-09  0.0000E+00  0.2473E+16
   -1.581256    2.92246  0.6455E-11  0.2001E-10  0.2186E-14  0.1000E-09  0.0000E+00  0.2180E+16
   -1.650008    3.06009  0.6448E-11  0.4506E-10  0.4795E-14  0.1000E-09  0.0000E+00  0.1881E+16
   -1.718760    3.19827  0.6444E-11  0.1004E-09  0.1042E-13  0.1000E-09  0.0000E+00  0.1579E+16
   -1.787511    3.33688  0.6440E-11  0.2271E-09  0.2294E-13  0.1000E-09  0.0000E+00  0.1287E+16
   -1.856263    3.47745  0.6435E-11  0.5173E-09  0.5096E-13  0.2636E-09  0.0000E+00  0.9837E+15
   -1.925014    3.61995  0.6429E-11  0.1176E-08  0.1130E-12  0.8607E-09  0.0000E+00  0.6679E+15
   -1.993765    3.76415  0.6424E-11  0.2662E-08  0.2496E-12  0.3747E-08  0.0000E+00  0.3387E+15
   -2.062516    3.90741  0.6422E-11  0.5699E-08  0.5236E-12  0.5969E-07  0.0000E+00  0.4429E+14
   -2.131266    4.01027  0.6422E-11  0.6607E-08  0.6111E-12  0.3032E-04  0.0000E+00 -0.2573E+12
   -2.200016    4.01095  0.6422E-11  0.6973E-08  0.6562E-12  0.3050E-04  0.0000E+00 -0.2631E+12
   -2.268766    4.01162  0.6422E-11  0.7248E-08  0.7043E-12  0.2980E-04  0.0000E+00 -0.2771E+12
   -2.337515    4.01231  0.6422E-11  0.7445E-08  0.7613E-12  0.2813E-04  0.0000E+00 -0.3025E+12
   -2.406264    4.01304  0.6422E-11  0.7558E-08  0.8358E-12  0.2534E-04  0.0000E+00 -0.3470E+12
   -2.475012    4.01386  0.6422E-11  0.7571E-08  0.9458E-12  0.2121E-04  0.0000E+00 -0.4306E+12
   -2.543759    4.01484  0.6422E-11  0.7433E-08  0.1139E-11  0.1555E-04  0.0000E+00 -0.6171E+12
   -2.612506    4.01619  0.6422E-11  0.6978E-08  0.1605E-11  0.8314E-05  0.0000E+00 -0.1252E+13
   -2.681253    4.01875  0.6422E-11  0.5010E-08  0.4381E-11  0.1110E-05  0.0000E+00 -0.1235E+14
   -2.749998    4.03759  0.6422E-11  0.0000E+00  0.0000E+00  0.0000E+00  0.0000E+00  0.0000E+00
