 1 - depth, m
 2 - temperature, C
 3 - salinity, kg/kg
 4 - turbulent kinetic energy, m**2/s**2
 5 - dissipation rate, m**2/s**3
 6 - kinematic heat conductance, m**2/s
 7 - modulus of horizontal velocity, m/s
 8 - Richardson number, n/d
   -0.000000   -0.00000  0.3695E-11  0.1219E-13  0.7603E-17  0.1000E-09  0.0000E+00  0.8015E+16
   -0.068746    0.12224  0.2219E-11  0.1219E-13  0.7603E-17  0.1000E-09  0.0000E+00  0.7693E+16
   -0.137492    0.24357  0.1597E-11  0.1219E-13  0.7603E-17  0.1000E-09  0.0000E+00  0.7394E+16
   -0.206239    0.36426  0.1379E-11  0.1219E-13  0.7603E-17  0.1000E-09  0.0000E+00  0.7116E+16
   -0.274987    0.48459  0.1313E-11  0.1219E-13  0.7603E-17  0.1000E-09  0.0000E+00  0.6856E+16
   -0.343735    0.60484  0.1296E-11  0.1219E-13  0.7603E-17  0.1000E-09  0.0000E+00  0.6613E+16
   -0.412483    0.72526  0.1292E-11  0.1219E-13  0.7603E-17  0.1000E-09  0.0000E+00  0.6384E+16
   -0.481232    0.84614  0.1291E-11  0.1219E-13  0.7603E-17  0.1000E-09  0.0000E+00  0.6165E+16
   -0.549982    0.96772  0.1290E-11  0.1219E-13  0.7603E-17  0.1000E-09  0.0000E+00  0.5955E+16
   -0.618732    1.09024  0.1290E-11  0.1219E-13  0.7603E-17  0.1000E-09  0.0000E+00  0.5750E+16
   -0.687482    1.21394  0.1290E-11  0.1219E-13  0.7603E-17  0.1000E-09  0.0000E+00  0.5557E+16
   -0.756233    1.33925  0.1290E-11  0.1219E-13  0.7603E-17  0.1000E-09  0.0000E+00  0.5369E+16
   -0.824984    1.46649  0.1290E-11  0.1219E-13  0.7603E-17  0.1000E-09  0.0000E+00  0.5175E+16
   -0.893735    1.59583  0.1290E-11  0.3223E-13  0.7603E-17  0.1000E-09  0.0000E+00  0.4974E+16
   -0.962487    1.72739  0.1290E-11  0.1004E-12  0.1109E-16  0.1000E-09  0.0000E+00  0.4762E+16
   -1.031238    1.86128  0.1289E-11  0.2387E-12  0.2181E-16  0.1000E-09  0.0000E+00  0.4539E+16
   -1.099990    1.99757  0.1288E-11  0.5148E-12  0.4428E-16  0.1000E-09  0.0000E+00  0.4301E+16
   -1.168742    2.13628  0.1285E-11  0.1071E-11  0.8922E-16  0.1000E-09  0.0000E+00  0.4049E+16
   -1.237495    2.27745  0.1280E-11  0.2191E-11  0.1780E-15  0.1000E-09  0.0000E+00  0.3780E+16
   -1.306247    2.42103  0.1275E-11  0.4436E-11  0.3520E-15  0.1000E-09  0.0000E+00  0.3494E+16
   -1.374999    2.56699  0.1269E-11  0.8906E-11  0.6906E-15  0.1000E-09  0.0000E+00  0.3195E+16
   -1.443751    2.71538  0.1264E-11  0.1774E-10  0.1345E-14  0.1000E-09  0.0000E+00  0.2878E+16
   -1.512503    2.86616  0.1261E-11  0.3507E-10  0.2600E-14  0.1000E-09  0.0000E+00  0.2543E+16
   -1.581256    3.01914  0.1259E-11  0.6884E-10  0.4993E-14  0.1000E-09  0.0000E+00  0.2191E+16
   -1.650008    3.17411  0.1257E-11  0.1342E-09  0.9519E-14  0.1000E-09  0.0000E+00  0.1822E+16
   -1.718759    3.33079  0.1256E-11  0.2596E-09  0.1803E-13  0.1000E-09  0.0000E+00  0.1441E+16
   -1.787511    3.48897  0.1255E-11  0.5096E-09  0.3462E-13  0.1653E-09  0.0000E+00  0.1066E+16
   -1.856263    3.65134  0.1254E-11  0.1011E-08  0.6724E-13  0.5191E-09  0.0000E+00  0.6592E+15
   -1.925014    3.81781  0.1252E-11  0.2009E-08  0.1308E-12  0.2987E-08  0.0000E+00  0.2227E+15
   -1.993765    3.98624  0.1252E-11  0.2627E-08  0.1722E-12  0.7923E-05  0.0000E+00 -0.7159E+11
   -2.062516    3.98932  0.1252E-11  0.2984E-08  0.2024E-12  0.1319E-04  0.0000E+00 -0.1160E+12
   -2.131266    3.99119  0.1252E-11  0.3293E-08  0.2339E-12  0.1593E-04  0.0000E+00 -0.1378E+12
   -2.200016    3.99275  0.1252E-11  0.3566E-08  0.2679E-12  0.1740E-04  0.0000E+00 -0.1594E+12
   -2.268765    3.99417  0.1252E-11  0.3803E-08  0.3062E-12  0.1788E-04  0.0000E+00 -0.1858E+12
   -2.337515    3.99555  0.1252E-11  0.4007E-08  0.3525E-12  0.1739E-04  0.0000E+00 -0.2226E+12
   -2.406263    3.99698  0.1252E-11  0.4172E-08  0.4124E-12  0.1593E-04  0.0000E+00 -0.2798E+12
   -2.475011    3.99854  0.1252E-11  0.4281E-08  0.4987E-12  0.1342E-04  0.0000E+00 -0.3823E+12
   -2.543759    4.00039  0.1252E-11  0.4300E-08  0.6448E-12  0.9790E-05  0.0000E+00 -0.6124E+12
   -2.612506    4.00294  0.1252E-11  0.4118E-08  0.9857E-12  0.5147E-05  0.0000E+00 -0.1443E+13
   -2.681252    4.00777  0.1252E-11  0.3157E-08  0.2722E-11  0.8379E-06  0.0000E+00 -0.1493E+14
   -2.749998    4.03497  0.1252E-11  0.0000E+00  0.0000E+00  0.0000E+00  0.0000E+00  0.0000E+00
