 1 - depth, m
 2 - temperature, C
 3 - salinity, kg/kg
 4 - turbulent kinetic energy, m**2/s**2
 5 - dissipation rate, m**2/s**3
 6 - kinematic heat conductance, m**2/s
 7 - modulus of horizontal velocity, m/s
 8 - Richardson number, n/d
   -0.000000   -0.00000  0.6786E-10  0.1219E-13  0.7603E-17  0.1000E-09  0.0000E+00  0.4623E+16
   -0.068746    0.07001  0.3583E-10  0.1219E-13  0.7603E-17  0.1000E-09  0.0000E+00  0.4441E+16
   -0.137492    0.13855  0.2820E-10  0.1219E-13  0.7603E-17  0.1000E-09  0.0000E+00  0.4298E+16
   -0.206239    0.20613  0.2649E-10  0.1219E-13  0.7603E-17  0.1000E-09  0.0000E+00  0.4192E+16
   -0.274986    0.27332  0.2615E-10  0.1219E-13  0.7603E-17  0.1000E-09  0.0000E+00  0.4121E+16
   -0.343735    0.34065  0.2608E-10  0.1219E-13  0.7603E-17  0.1000E-09  0.0000E+00  0.4084E+16
   -0.412483    0.40871  0.2607E-10  0.1219E-13  0.7603E-17  0.1000E-09  0.0000E+00  0.4078E+16
   -0.481232    0.47806  0.2607E-10  0.1219E-13  0.7603E-17  0.1000E-09  0.0000E+00  0.4099E+16
   -0.549982    0.54927  0.2607E-10  0.1219E-13  0.7603E-17  0.1000E-09  0.0000E+00  0.4145E+16
   -0.618732    0.62290  0.2607E-10  0.1219E-13  0.7603E-17  0.1000E-09  0.0000E+00  0.4212E+16
   -0.687482    0.69951  0.2607E-10  0.1219E-13  0.7603E-17  0.1000E-09  0.0000E+00  0.4311E+16
   -0.756233    0.77993  0.2607E-10  0.1219E-13  0.7603E-17  0.1000E-09  0.0000E+00  0.4431E+16
   -0.824984    0.86485  0.2607E-10  0.1219E-13  0.7603E-17  0.1000E-09  0.0000E+00  0.4555E+16
   -0.893735    0.95476  0.2607E-10  0.1219E-13  0.7603E-17  0.1000E-09  0.0000E+00  0.4678E+16
   -0.962486    1.05012  0.2607E-10  0.1219E-13  0.7603E-17  0.1000E-09  0.0000E+00  0.4794E+16
   -1.031238    1.15132  0.2607E-10  0.1219E-13  0.7603E-17  0.1000E-09  0.0000E+00  0.4895E+16
   -1.099990    1.25873  0.2606E-10  0.1219E-13  0.7603E-17  0.1000E-09  0.0000E+00  0.4975E+16
   -1.168742    1.37264  0.2604E-10  0.1219E-13  0.7603E-17  0.1000E-09  0.0000E+00  0.5027E+16
   -1.237494    1.49325  0.2599E-10  0.1219E-13  0.7603E-17  0.1000E-09  0.0000E+00  0.5044E+16
   -1.306246    1.62070  0.2588E-10  0.1219E-13  0.7603E-17  0.1000E-09  0.0000E+00  0.5019E+16
   -1.374998    1.75505  0.2573E-10  0.2262E-13  0.7603E-17  0.1000E-09  0.0000E+00  0.4961E+16
   -1.443751    1.89663  0.2558E-10  0.8121E-13  0.1648E-16  0.1000E-09  0.0000E+00  0.4852E+16
   -1.512503    2.04544  0.2548E-10  0.2441E-12  0.4512E-16  0.1000E-09  0.0000E+00  0.4684E+16
   -1.581255    2.20121  0.2543E-10  0.6922E-12  0.1230E-15  0.1000E-09  0.0000E+00  0.4454E+16
   -1.650007    2.36357  0.2540E-10  0.1918E-11  0.3298E-15  0.1000E-09  0.0000E+00  0.4161E+16
   -1.718759    2.53204  0.2539E-10  0.5227E-11  0.8710E-15  0.1000E-09  0.0000E+00  0.3809E+16
   -1.787510    2.70605  0.2538E-10  0.1443E-10  0.2330E-14  0.1000E-09  0.0000E+00  0.3409E+16
   -1.856262    2.88540  0.2537E-10  0.3990E-10  0.6247E-14  0.1000E-09  0.0000E+00  0.2962E+16
   -1.925013    3.06990  0.2536E-10  0.1096E-09  0.1664E-13  0.1000E-09  0.0000E+00  0.2471E+16
   -1.993764    3.25939  0.2535E-10  0.2988E-09  0.4405E-13  0.1160E-09  0.0000E+00  0.1933E+16
   -2.062515    3.45329  0.2532E-10  0.7896E-09  0.1131E-12  0.4284E-09  0.0000E+00  0.1343E+16
   -2.131265    3.64883  0.2528E-10  0.2055E-08  0.2859E-12  0.1978E-08  0.0000E+00  0.7351E+15
   -2.200015    3.84341  0.2524E-10  0.5223E-08  0.7074E-12  0.2320E-07  0.0000E+00  0.1545E+15
   -2.268764    4.01320  0.2523E-10  0.6774E-08  0.9258E-12  0.2121E-04  0.0000E+00 -0.5635E+12
   -2.337513    4.01450  0.2523E-10  0.7375E-08  0.1042E-11  0.2134E-04  0.0000E+00 -0.5915E+12
   -2.406262    4.01581  0.2523E-10  0.7808E-08  0.1177E-11  0.2024E-04  0.0000E+00 -0.6607E+12
   -2.475010    4.01721  0.2523E-10  0.8075E-08  0.1360E-11  0.1775E-04  0.0000E+00 -0.8050E+12
   -2.543758    4.01883  0.2523E-10  0.8139E-08  0.1663E-11  0.1365E-04  0.0000E+00 -0.1139E+13
   -2.612505    4.02100  0.2523E-10  0.7839E-08  0.2362E-11  0.7807E-05  0.0000E+00 -0.2292E+13
   -2.681251    4.02499  0.2523E-10  0.6138E-08  0.6150E-11  0.1394E-05  0.0000E+00 -0.2003E+14
   -2.749997    4.04999  0.2523E-10  0.0000E+00  0.0000E+00  0.0000E+00  0.0000E+00  0.0000E+00
