 1 - depth, m
 2 - temperature, C
 3 - salinity, kg/kg
 4 - turbulent kinetic energy, m**2/s**2
 5 - dissipation rate, m**2/s**3
 6 - kinematic heat conductance, m**2/s
 7 - modulus of horizontal velocity, m/s
 8 - Richardson number, n/d
   -0.000000   -0.00000  0.5640E-10  0.1219E-13  0.7603E-17  0.1000E-09  0.0000E+00  0.7730E+16
   -0.068746    0.11782  0.3519E-10  0.1219E-13  0.7603E-17  0.1000E-09  0.0000E+00  0.7432E+16
   -0.137492    0.23482  0.2521E-10  0.1219E-13  0.7603E-17  0.1000E-09  0.0000E+00  0.7150E+16
   -0.206239    0.35116  0.2146E-10  0.1219E-13  0.7603E-17  0.1000E-09  0.0000E+00  0.6883E+16
   -0.274987    0.46703  0.2025E-10  0.1219E-13  0.7603E-17  0.1000E-09  0.0000E+00  0.6629E+16
   -0.343735    0.58258  0.1991E-10  0.1219E-13  0.7603E-17  0.1000E-09  0.0000E+00  0.6388E+16
   -0.412483    0.69800  0.1983E-10  0.1219E-13  0.7603E-17  0.1000E-09  0.0000E+00  0.6156E+16
   -0.481232    0.81342  0.1981E-10  0.1219E-13  0.7603E-17  0.1000E-09  0.0000E+00  0.5933E+16
   -0.549982    0.92902  0.1981E-10  0.1219E-13  0.7603E-17  0.1000E-09  0.0000E+00  0.5717E+16
   -0.618732    1.04492  0.1980E-10  0.1219E-13  0.7603E-17  0.1000E-09  0.0000E+00  0.5505E+16
   -0.687482    1.16125  0.1980E-10  0.1219E-13  0.7603E-17  0.1000E-09  0.0000E+00  0.5306E+16
   -0.756233    1.27833  0.1980E-10  0.1219E-13  0.7603E-17  0.1000E-09  0.0000E+00  0.5113E+16
   -0.824984    1.39637  0.1980E-10  0.1219E-13  0.7603E-17  0.1000E-09  0.0000E+00  0.4917E+16
   -0.893735    1.51547  0.1980E-10  0.1219E-13  0.7603E-17  0.1000E-09  0.0000E+00  0.4719E+16
   -0.962487    1.63567  0.1980E-10  0.1219E-13  0.7603E-17  0.1000E-09  0.0000E+00  0.4516E+16
   -1.031239    1.75701  0.1978E-10  0.1219E-13  0.7603E-17  0.1000E-09  0.0000E+00  0.4308E+16
   -1.099990    1.87953  0.1976E-10  0.1219E-13  0.7603E-17  0.1000E-09  0.0000E+00  0.4094E+16
   -1.168742    2.00319  0.1971E-10  0.1219E-13  0.7603E-17  0.1000E-09  0.0000E+00  0.3872E+16
   -1.237495    2.12798  0.1965E-10  0.1219E-13  0.7603E-17  0.1000E-09  0.0000E+00  0.3643E+16
   -1.306247    2.25384  0.1957E-10  0.1219E-13  0.7603E-17  0.1000E-09  0.0000E+00  0.3406E+16
   -1.374999    2.38068  0.1949E-10  0.4771E-13  0.9382E-17  0.1000E-09  0.0000E+00  0.3164E+16
   -1.443751    2.50851  0.1941E-10  0.1430E-12  0.2217E-16  0.1000E-09  0.0000E+00  0.2915E+16
   -1.512503    2.63722  0.1936E-10  0.3796E-12  0.5547E-16  0.1000E-09  0.0000E+00  0.2658E+16
   -1.581256    2.76665  0.1932E-10  0.9701E-12  0.1372E-15  0.1000E-09  0.0000E+00  0.2394E+16
   -1.650008    2.89660  0.1930E-10  0.2436E-11  0.3346E-15  0.1000E-09  0.0000E+00  0.2125E+16
   -1.718760    3.02686  0.1929E-10  0.6038E-11  0.8067E-15  0.1000E-09  0.0000E+00  0.1853E+16
   -1.787511    3.15725  0.1928E-10  0.1518E-10  0.1971E-14  0.1000E-09  0.0000E+00  0.1592E+16
   -1.856263    3.28880  0.1927E-10  0.3834E-10  0.4845E-14  0.1000E-09  0.0000E+00  0.1324E+16
   -1.925014    3.42132  0.1925E-10  0.9645E-10  0.1186E-13  0.1000E-09  0.0000E+00  0.1047E+16
   -1.993765    3.55436  0.1922E-10  0.2415E-09  0.2891E-13  0.1928E-09  0.0000E+00  0.7626E+15
   -2.062516    3.68668  0.1919E-10  0.5875E-09  0.6850E-13  0.7286E-09  0.0000E+00  0.4778E+15
   -2.131266    3.81600  0.1918E-10  0.1408E-08  0.1600E-12  0.3837E-08  0.0000E+00  0.2115E+15
   -2.200016    3.94115  0.1917E-10  0.3135E-08  0.3498E-12  0.1388E-06  0.0000E+00  0.1250E+14
   -2.268766    4.00754  0.1917E-10  0.4142E-08  0.4674E-12  0.1615E-04  0.0000E+00 -0.3881E+12
   -2.337515    4.00867  0.1917E-10  0.4554E-08  0.5322E-12  0.1626E-04  0.0000E+00 -0.4081E+12
   -2.406263    4.00981  0.1917E-10  0.4846E-08  0.6060E-12  0.1537E-04  0.0000E+00 -0.4573E+12
   -2.475011    4.01102  0.1917E-10  0.5023E-08  0.7045E-12  0.1339E-04  0.0000E+00 -0.5606E+12
   -2.543759    4.01243  0.1917E-10  0.5054E-08  0.8663E-12  0.1015E-04  0.0000E+00 -0.8038E+12
   -2.612506    4.01433  0.1917E-10  0.4824E-08  0.1242E-11  0.5595E-05  0.0000E+00 -0.1669E+13
   -2.681252    4.01790  0.1917E-10  0.3642E-08  0.3227E-11  0.9190E-06  0.0000E+00 -0.1536E+14
   -2.749998    4.04072  0.1917E-10  0.0000E+00  0.0000E+00  0.0000E+00  0.0000E+00  0.0000E+00
