 1 - depth, m
 2 - temperature, C
 3 - salinity, kg/kg
 4 - turbulent kinetic energy, m**2/s**2
 5 - dissipation rate, m**2/s**3
 6 - kinematic heat conductance, m**2/s
 7 - modulus of horizontal velocity, m/s
 8 - Richardson number, n/d
   -0.000000   -0.00000  0.4676E-11  0.1219E-13  0.7603E-17  0.1000E-09  0.0000E+00  0.6334E+16
   -0.068746    0.09626  0.2559E-11  0.1219E-13  0.7603E-17  0.1000E-09  0.0000E+00  0.6095E+16
   -0.137492    0.19134  0.1902E-11  0.1219E-13  0.7603E-17  0.1000E-09  0.0000E+00  0.5892E+16
   -0.206239    0.28574  0.1728E-11  0.1219E-13  0.7603E-17  0.1000E-09  0.0000E+00  0.5723E+16
   -0.274987    0.37995  0.1689E-11  0.1219E-13  0.7603E-17  0.1000E-09  0.0000E+00  0.5585E+16
   -0.343735    0.47448  0.1680E-11  0.1219E-13  0.7603E-17  0.1000E-09  0.0000E+00  0.5475E+16
   -0.412483    0.56984  0.1679E-11  0.1219E-13  0.7603E-17  0.1000E-09  0.0000E+00  0.5388E+16
   -0.481232    0.66651  0.1679E-11  0.1219E-13  0.7603E-17  0.1000E-09  0.0000E+00  0.5320E+16
   -0.549982    0.76498  0.1679E-11  0.1219E-13  0.7603E-17  0.1000E-09  0.0000E+00  0.5268E+16
   -0.618732    0.86571  0.1679E-11  0.1219E-13  0.7603E-17  0.1000E-09  0.0000E+00  0.5226E+16
   -0.687482    0.96913  0.1679E-11  0.1219E-13  0.7603E-17  0.1000E-09  0.0000E+00  0.5203E+16
   -0.756233    1.07593  0.1679E-11  0.1219E-13  0.7603E-17  0.1000E-09  0.0000E+00  0.5187E+16
   -0.824984    1.18667  0.1679E-11  0.1219E-13  0.7603E-17  0.1000E-09  0.0000E+00  0.5165E+16
   -0.893735    1.30169  0.1678E-11  0.1219E-13  0.7603E-17  0.1000E-09  0.0000E+00  0.5131E+16
   -0.962487    1.42130  0.1678E-11  0.1219E-13  0.7603E-17  0.1000E-09  0.0000E+00  0.5080E+16
   -1.031238    1.54574  0.1678E-11  0.5385E-13  0.9496E-17  0.1000E-09  0.0000E+00  0.5007E+16
   -1.099990    1.67524  0.1677E-11  0.1556E-12  0.2133E-16  0.1000E-09  0.0000E+00  0.4908E+16
   -1.168742    1.80993  0.1674E-11  0.3922E-12  0.5042E-16  0.1000E-09  0.0000E+00  0.4778E+16
   -1.237494    1.94992  0.1670E-11  0.9475E-12  0.1178E-15  0.1000E-09  0.0000E+00  0.4613E+16
   -1.306247    2.09524  0.1663E-11  0.2247E-11  0.2715E-15  0.1000E-09  0.0000E+00  0.4410E+16
   -1.374999    2.24583  0.1654E-11  0.5264E-11  0.6191E-15  0.1000E-09  0.0000E+00  0.4173E+16
   -1.443751    2.40188  0.1646E-11  0.1220E-10  0.1397E-14  0.1000E-09  0.0000E+00  0.3894E+16
   -1.512503    2.56327  0.1641E-11  0.2797E-10  0.3120E-14  0.1000E-09  0.0000E+00  0.3570E+16
   -1.581255    2.72975  0.1638E-11  0.6349E-10  0.6900E-14  0.1000E-09  0.0000E+00  0.3200E+16
   -1.650007    2.90097  0.1636E-11  0.1427E-09  0.1511E-13  0.1000E-09  0.0000E+00  0.2787E+16
   -1.718759    3.07650  0.1635E-11  0.3177E-09  0.3280E-13  0.1000E-09  0.0000E+00  0.2336E+16
   -1.787511    3.25598  0.1634E-11  0.7172E-09  0.7219E-13  0.1962E-09  0.0000E+00  0.1873E+16
   -1.856262    3.44165  0.1633E-11  0.1632E-08  0.1602E-12  0.6006E-09  0.0000E+00  0.1358E+16
   -1.925014    3.63339  0.1631E-11  0.3705E-08  0.3549E-12  0.2295E-08  0.0000E+00  0.7872E+15
   -1.993765    3.82986  0.1628E-11  0.8296E-08  0.7768E-12  0.2103E-07  0.0000E+00  0.1879E+15
   -2.062515    4.00926  0.1627E-11  0.9316E-08  0.8773E-12  0.4031E-04  0.0000E+00 -0.2623E+12
   -2.131266    4.00998  0.1627E-11  0.9741E-08  0.9303E-12  0.4080E-04  0.0000E+00 -0.2678E+12
   -2.200016    4.01069  0.1627E-11  0.1008E-07  0.9870E-12  0.4037E-04  0.0000E+00 -0.2794E+12
   -2.268765    4.01141  0.1627E-11  0.1033E-07  0.1051E-11  0.3896E-04  0.0000E+00 -0.2990E+12
   -2.337514    4.01216  0.1627E-11  0.1050E-07  0.1132E-11  0.3640E-04  0.0000E+00 -0.3310E+12
   -2.406263    4.01297  0.1627E-11  0.1059E-07  0.1240E-11  0.3253E-04  0.0000E+00 -0.3843E+12
   -2.475011    4.01387  0.1627E-11  0.1056E-07  0.1404E-11  0.2707E-04  0.0000E+00 -0.4817E+12
   -2.543759    4.01496  0.1627E-11  0.1035E-07  0.1695E-11  0.1980E-04  0.0000E+00 -0.6954E+12
   -2.612506    4.01647  0.1627E-11  0.9756E-08  0.2397E-11  0.1067E-04  0.0000E+00 -0.1407E+13
   -2.681252    4.01932  0.1627E-11  0.7171E-08  0.6691E-11  0.1475E-05  0.0000E+00 -0.1385E+14
   -2.749998    4.03977  0.1627E-11  0.0000E+00  0.0000E+00  0.0000E+00  0.0000E+00  0.0000E+00
