 1 - depth, m
 2 - temperature, C
 3 - salinity, kg/kg
 4 - turbulent kinetic energy, m**2/s**2
 5 - dissipation rate, m**2/s**3
 6 - kinematic heat conductance, m**2/s
 7 - modulus of horizontal velocity, m/s
 8 - Richardson number, n/d
   -0.000000   -0.00000  0.7152E-10  0.1219E-13  0.7603E-17  0.1000E-09  0.0000E+00  0.6561E+16
   -0.068746    0.09976  0.4234E-10  0.1219E-13  0.7603E-17  0.1000E-09  0.0000E+00  0.6318E+16
   -0.137492    0.19848  0.3084E-10  0.1219E-13  0.7603E-17  0.1000E-09  0.0000E+00  0.6103E+16
   -0.206239    0.29652  0.2727E-10  0.1219E-13  0.7603E-17  0.1000E-09  0.0000E+00  0.5913E+16
   -0.274987    0.39421  0.2634E-10  0.1219E-13  0.7603E-17  0.1000E-09  0.0000E+00  0.5745E+16
   -0.343735    0.49191  0.2613E-10  0.1219E-13  0.7603E-17  0.1000E-09  0.0000E+00  0.5596E+16
   -0.412483    0.58993  0.2608E-10  0.1219E-13  0.7603E-17  0.1000E-09  0.0000E+00  0.5462E+16
   -0.481232    0.68859  0.2607E-10  0.1219E-13  0.7603E-17  0.1000E-09  0.0000E+00  0.5341E+16
   -0.549982    0.78817  0.2607E-10  0.1219E-13  0.7603E-17  0.1000E-09  0.0000E+00  0.5229E+16
   -0.618732    0.88893  0.2607E-10  0.1219E-13  0.7603E-17  0.1000E-09  0.0000E+00  0.5124E+16
   -0.687482    0.99114  0.2607E-10  0.1219E-13  0.7603E-17  0.1000E-09  0.0000E+00  0.5034E+16
   -0.756233    1.09524  0.2607E-10  0.1219E-13  0.7603E-17  0.1000E-09  0.0000E+00  0.4949E+16
   -0.824984    1.20158  0.2607E-10  0.1219E-13  0.7603E-17  0.1000E-09  0.0000E+00  0.4861E+16
   -0.893735    1.31032  0.2607E-10  0.1219E-13  0.7603E-17  0.1000E-09  0.0000E+00  0.4765E+16
   -0.962486    1.42161  0.2607E-10  0.1219E-13  0.7603E-17  0.1000E-09  0.0000E+00  0.4660E+16
   -1.031238    1.53554  0.2606E-10  0.1219E-13  0.7603E-17  0.1000E-09  0.0000E+00  0.4544E+16
   -1.099990    1.65219  0.2604E-10  0.1219E-13  0.7603E-17  0.1000E-09  0.0000E+00  0.4413E+16
   -1.168742    1.77159  0.2599E-10  0.1219E-13  0.7603E-17  0.1000E-09  0.0000E+00  0.4266E+16
   -1.237494    1.89374  0.2591E-10  0.1219E-13  0.7603E-17  0.1000E-09  0.0000E+00  0.4102E+16
   -1.306246    2.01860  0.2580E-10  0.1219E-13  0.7603E-17  0.1000E-09  0.0000E+00  0.3920E+16
   -1.374999    2.14608  0.2567E-10  0.2666E-13  0.7603E-17  0.1000E-09  0.0000E+00  0.3724E+16
   -1.443751    2.27625  0.2556E-10  0.8912E-13  0.1435E-16  0.1000E-09  0.0000E+00  0.3509E+16
   -1.512503    2.40900  0.2548E-10  0.2420E-12  0.3469E-16  0.1000E-09  0.0000E+00  0.3274E+16
   -1.581255    2.54413  0.2543E-10  0.6135E-12  0.8425E-16  0.1000E-09  0.0000E+00  0.3019E+16
   -1.650007    2.68139  0.2540E-10  0.1516E-11  0.2018E-15  0.1000E-09  0.0000E+00  0.2746E+16
   -1.718759    2.82049  0.2539E-10  0.3689E-11  0.4770E-15  0.1000E-09  0.0000E+00  0.2457E+16
   -1.787511    2.96118  0.2538E-10  0.9092E-11  0.1142E-14  0.1000E-09  0.0000E+00  0.2174E+16
   -1.856262    3.10451  0.2537E-10  0.2252E-10  0.2751E-14  0.1000E-09  0.0000E+00  0.1874E+16
   -1.925013    3.25050  0.2535E-10  0.5556E-10  0.6601E-14  0.1000E-09  0.0000E+00  0.1557E+16
   -1.993764    3.39922  0.2533E-10  0.1364E-09  0.1577E-13  0.1000E-09  0.0000E+00  0.1220E+16
   -2.062515    3.55026  0.2530E-10  0.3257E-09  0.3666E-13  0.2173E-09  0.0000E+00  0.8581E+15
   -2.131265    3.70132  0.2526E-10  0.7674E-09  0.8413E-13  0.8642E-09  0.0000E+00  0.4950E+15
   -2.200015    3.85126  0.2524E-10  0.1786E-08  0.1909E-12  0.6796E-08  0.0000E+00  0.1425E+15
   -2.268765    3.99437  0.2524E-10  0.2626E-08  0.2825E-12  0.9091E-05  0.0000E+00 -0.3293E+12
   -2.337514    3.99665  0.2524E-10  0.3015E-08  0.3415E-12  0.1013E-04  0.0000E+00 -0.3682E+12
   -2.406262    3.99872  0.2524E-10  0.3326E-08  0.4123E-12  0.1012E-04  0.0000E+00 -0.4397E+12
   -2.475011    4.00080  0.2524E-10  0.3557E-08  0.5093E-12  0.9094E-05  0.0000E+00 -0.5783E+12
   -2.543758    4.00316  0.2524E-10  0.3686E-08  0.6691E-12  0.7002E-05  0.0000E+00 -0.9021E+12
   -2.612505    4.00629  0.2524E-10  0.3629E-08  0.1035E-11  0.3914E-05  0.0000E+00 -0.2089E+13
   -2.681251    4.01211  0.2524E-10  0.3010E-08  0.2770E-11  0.8234E-06  0.0000E+00 -0.1867E+14
   -2.749997    4.04154  0.2524E-10  0.0000E+00  0.0000E+00  0.0000E+00  0.0000E+00  0.0000E+00
