 1 - depth, m
 2 - temperature, C
 3 - salinity, kg/kg
 4 - turbulent kinetic energy, m**2/s**2
 5 - dissipation rate, m**2/s**3
 6 - kinematic heat conductance, m**2/s
 7 - modulus of horizontal velocity, m/s
 8 - Richardson number, n/d
   -0.000000   -0.00000  0.9405E-10  0.1219E-13  0.7603E-17  0.1000E-09  0.0000E+00  0.6361E+16
   -0.068746    0.09668  0.5511E-10  0.1219E-13  0.7603E-17  0.1000E-09  0.0000E+00  0.6125E+16
   -0.137492    0.19225  0.3993E-10  0.1219E-13  0.7603E-17  0.1000E-09  0.0000E+00  0.5917E+16
   -0.206239    0.28708  0.3526E-10  0.1219E-13  0.7603E-17  0.1000E-09  0.0000E+00  0.5733E+16
   -0.274986    0.38149  0.3406E-10  0.1219E-13  0.7603E-17  0.1000E-09  0.0000E+00  0.5571E+16
   -0.343735    0.47581  0.3379E-10  0.1219E-13  0.7603E-17  0.1000E-09  0.0000E+00  0.5428E+16
   -0.412483    0.57037  0.3374E-10  0.1219E-13  0.7603E-17  0.1000E-09  0.0000E+00  0.5300E+16
   -0.481232    0.66547  0.3373E-10  0.1219E-13  0.7603E-17  0.1000E-09  0.0000E+00  0.5186E+16
   -0.549982    0.76138  0.3373E-10  0.1219E-13  0.7603E-17  0.1000E-09  0.0000E+00  0.5082E+16
   -0.618732    0.85838  0.3373E-10  0.1219E-13  0.7603E-17  0.1000E-09  0.0000E+00  0.4985E+16
   -0.687482    0.95672  0.3373E-10  0.1219E-13  0.7603E-17  0.1000E-09  0.0000E+00  0.4905E+16
   -0.756233    1.05685  0.3373E-10  0.1219E-13  0.7603E-17  0.1000E-09  0.0000E+00  0.4831E+16
   -0.824984    1.15912  0.3373E-10  0.1219E-13  0.7603E-17  0.1000E-09  0.0000E+00  0.4755E+16
   -0.893735    1.26371  0.3373E-10  0.1219E-13  0.7603E-17  0.1000E-09  0.0000E+00  0.4673E+16
   -0.962486    1.37075  0.3372E-10  0.1219E-13  0.7603E-17  0.1000E-09  0.0000E+00  0.4583E+16
   -1.031238    1.48037  0.3370E-10  0.1219E-13  0.7603E-17  0.1000E-09  0.0000E+00  0.4482E+16
   -1.099990    1.59265  0.3365E-10  0.1219E-13  0.7603E-17  0.1000E-09  0.0000E+00  0.4369E+16
   -1.168742    1.70764  0.3357E-10  0.1219E-13  0.7603E-17  0.1000E-09  0.0000E+00  0.4242E+16
   -1.237494    1.82533  0.3343E-10  0.1219E-13  0.7603E-17  0.1000E-09  0.0000E+00  0.4098E+16
   -1.306246    1.94572  0.3326E-10  0.1219E-13  0.7603E-17  0.1000E-09  0.0000E+00  0.3937E+16
   -1.374998    2.06873  0.3308E-10  0.1219E-13  0.7603E-17  0.1000E-09  0.0000E+00  0.3763E+16
   -1.443751    2.19447  0.3295E-10  0.1219E-13  0.7603E-17  0.1000E-09  0.0000E+00  0.3572E+16
   -1.512503    2.32285  0.3286E-10  0.2319E-13  0.7603E-17  0.1000E-09  0.0000E+00  0.3360E+16
   -1.581255    2.45369  0.3280E-10  0.8224E-13  0.1587E-16  0.1000E-09  0.0000E+00  0.3129E+16
   -1.650007    2.58676  0.3277E-10  0.2414E-12  0.4218E-16  0.1000E-09  0.0000E+00  0.2878E+16
   -1.718759    2.72179  0.3274E-10  0.6668E-12  0.1119E-15  0.1000E-09  0.0000E+00  0.2611E+16
   -1.787511    2.85851  0.3273E-10  0.1847E-11  0.2999E-15  0.1000E-09  0.0000E+00  0.2343E+16
   -1.856262    2.99749  0.3272E-10  0.5117E-11  0.8051E-15  0.1000E-09  0.0000E+00  0.2061E+16
   -1.925013    3.13867  0.3271E-10  0.1407E-10  0.2147E-14  0.1000E-09  0.0000E+00  0.1764E+16
   -1.993764    3.28203  0.3270E-10  0.3839E-10  0.5684E-14  0.1000E-09  0.0000E+00  0.1451E+16
   -2.062515    3.42722  0.3268E-10  0.1015E-09  0.1460E-13  0.1000E-09  0.0000E+00  0.1118E+16
   -2.131265    3.57292  0.3265E-10  0.2647E-09  0.3696E-13  0.2405E-09  0.0000E+00  0.7813E+15
   -2.200015    3.71858  0.3262E-10  0.6825E-09  0.9260E-13  0.1060E-08  0.0000E+00  0.4440E+15
   -2.268765    3.86312  0.3260E-10  0.1748E-08  0.2307E-12  0.9912E-08  0.0000E+00  0.1177E+15
   -2.337514    3.99899  0.3260E-10  0.2817E-08  0.3745E-12  0.8477E-05  0.0000E+00 -0.5186E+12
   -2.406262    4.00138  0.3260E-10  0.3270E-08  0.4636E-12  0.8946E-05  0.0000E+00 -0.5825E+12
   -2.475010    4.00367  0.3260E-10  0.3599E-08  0.5777E-12  0.8338E-05  0.0000E+00 -0.7325E+12
   -2.543758    4.00618  0.3260E-10  0.3797E-08  0.7591E-12  0.6618E-05  0.0000E+00 -0.1101E+13
   -2.612505    4.00945  0.3260E-10  0.3789E-08  0.1168E-11  0.3826E-05  0.0000E+00 -0.2456E+13
   -2.681251    4.01545  0.3260E-10  0.3228E-08  0.3085E-11  0.8695E-06  0.0000E+00 -0.2055E+14
   -2.749997    4.04525  0.3260E-10  0.0000E+00  0.0000E+00  0.0000E+00  0.0000E+00  0.0000E+00
