 1 - depth, m
 2 - temperature, C
 3 - salinity, kg/kg
 4 - turbulent kinetic energy, m**2/s**2
 5 - dissipation rate, m**2/s**3
 6 - kinematic heat conductance, m**2/s
 7 - modulus of horizontal velocity, m/s
 8 - Richardson number, n/d
   -0.000000   -0.00000  0.8360E-11  0.1219E-13  0.7603E-17  0.1000E-09  0.0000E+00  0.7729E+16
   -0.068746    0.11780  0.4932E-11  0.1219E-13  0.7603E-17  0.1000E-09  0.0000E+00  0.7420E+16
   -0.137492    0.23462  0.3550E-11  0.1219E-13  0.7603E-17  0.1000E-09  0.0000E+00  0.7136E+16
   -0.206239    0.35073  0.3077E-11  0.1219E-13  0.7603E-17  0.1000E-09  0.0000E+00  0.6875E+16
   -0.274987    0.46645  0.2939E-11  0.1219E-13  0.7603E-17  0.1000E-09  0.0000E+00  0.6635E+16
   -0.343735    0.58208  0.2904E-11  0.1219E-13  0.7603E-17  0.1000E-09  0.0000E+00  0.6412E+16
   -0.412483    0.69793  0.2896E-11  0.1219E-13  0.7603E-17  0.1000E-09  0.0000E+00  0.6204E+16
   -0.481232    0.81426  0.2894E-11  0.1219E-13  0.7603E-17  0.1000E-09  0.0000E+00  0.6007E+16
   -0.549982    0.93136  0.2894E-11  0.1219E-13  0.7603E-17  0.1000E-09  0.0000E+00  0.5819E+16
   -0.618732    1.04947  0.2894E-11  0.1219E-13  0.7603E-17  0.1000E-09  0.0000E+00  0.5636E+16
   -0.687482    1.16883  0.2894E-11  0.1219E-13  0.7603E-17  0.1000E-09  0.0000E+00  0.5466E+16
   -0.756233    1.28989  0.2894E-11  0.1219E-13  0.7603E-17  0.1000E-09  0.0000E+00  0.5301E+16
   -0.824984    1.41296  0.2894E-11  0.1219E-13  0.7603E-17  0.1000E-09  0.0000E+00  0.5130E+16
   -0.893735    1.53820  0.2893E-11  0.1219E-13  0.7603E-17  0.1000E-09  0.0000E+00  0.4951E+16
   -0.962487    1.66576  0.2892E-11  0.1970E-13  0.7603E-17  0.1000E-09  0.0000E+00  0.4761E+16
   -1.031238    1.79571  0.2890E-11  0.7534E-13  0.1126E-16  0.1000E-09  0.0000E+00  0.4560E+16
   -1.099990    1.92813  0.2885E-11  0.2023E-12  0.2490E-16  0.1000E-09  0.0000E+00  0.4344E+16
   -1.168742    2.06304  0.2877E-11  0.4869E-12  0.5663E-16  0.1000E-09  0.0000E+00  0.4112E+16
   -1.237494    2.20045  0.2866E-11  0.1130E-11  0.1273E-15  0.1000E-09  0.0000E+00  0.3864E+16
   -1.306247    2.34030  0.2852E-11  0.2578E-11  0.2825E-15  0.1000E-09  0.0000E+00  0.3598E+16
   -1.374999    2.48253  0.2839E-11  0.5814E-11  0.6206E-15  0.1000E-09  0.0000E+00  0.3318E+16
   -1.443751    2.62716  0.2828E-11  0.1298E-10  0.1350E-14  0.1000E-09  0.0000E+00  0.3021E+16
   -1.512503    2.77411  0.2821E-11  0.2869E-10  0.2909E-14  0.1000E-09  0.0000E+00  0.2705E+16
   -1.581255    2.92318  0.2816E-11  0.6280E-10  0.6210E-14  0.1000E-09  0.0000E+00  0.2373E+16
   -1.650007    3.07414  0.2813E-11  0.1362E-09  0.1314E-13  0.1000E-09  0.0000E+00  0.2025E+16
   -1.718759    3.22675  0.2811E-11  0.2928E-09  0.2755E-13  0.1000E-09  0.0000E+00  0.1665E+16
   -1.787511    3.38080  0.2810E-11  0.6382E-09  0.5858E-13  0.2274E-09  0.0000E+00  0.1311E+16
   -1.856263    3.53838  0.2808E-11  0.1403E-08  0.1257E-12  0.6862E-09  0.0000E+00  0.9321E+15
   -1.925014    3.69936  0.2805E-11  0.3079E-08  0.2694E-12  0.2602E-08  0.0000E+00  0.5266E+15
   -1.993765    3.86247  0.2803E-11  0.6658E-08  0.5698E-12  0.2476E-07  0.0000E+00  0.1169E+15
   -2.062515    4.00713  0.2802E-11  0.7518E-08  0.6471E-12  0.3591E-04  0.0000E+00 -0.2200E+12
   -2.131266    4.00779  0.2802E-11  0.7877E-08  0.6877E-12  0.3634E-04  0.0000E+00 -0.2245E+12
   -2.200016    4.00845  0.2802E-11  0.8159E-08  0.7309E-12  0.3592E-04  0.0000E+00 -0.2342E+12
   -2.268765    4.00911  0.2802E-11  0.8369E-08  0.7796E-12  0.3464E-04  0.0000E+00 -0.2507E+12
   -2.337514    4.00980  0.2802E-11  0.8514E-08  0.8401E-12  0.3232E-04  0.0000E+00 -0.2777E+12
   -2.406263    4.01055  0.2802E-11  0.8583E-08  0.9217E-12  0.2882E-04  0.0000E+00 -0.3229E+12
   -2.475011    4.01138  0.2802E-11  0.8556E-08  0.1045E-11  0.2390E-04  0.0000E+00 -0.4060E+12
   -2.543759    4.01239  0.2802E-11  0.8377E-08  0.1264E-11  0.1736E-04  0.0000E+00 -0.5899E+12
   -2.612506    4.01380  0.2802E-11  0.7865E-08  0.1797E-11  0.9211E-05  0.0000E+00 -0.1213E+13
   -2.681252    4.01649  0.2802E-11  0.5674E-08  0.5039E-11  0.1220E-05  0.0000E+00 -0.1245E+14
   -2.749998    4.03631  0.2802E-11  0.0000E+00  0.0000E+00  0.0000E+00  0.0000E+00  0.0000E+00
