 1 - depth, m
 2 - temperature, C
 3 - salinity, kg/kg
 4 - turbulent kinetic energy, m**2/s**2
 5 - dissipation rate, m**2/s**3
 6 - kinematic heat conductance, m**2/s
 7 - modulus of horizontal velocity, m/s
 8 - Richardson number, n/d
   -0.000000    0.00000  0.5250E-23  0.1218E-13  0.7603E-17  0.1000E-09  0.0000E+00  0.4606E+16
   -0.068749    0.06974  0.3951E-12  0.1218E-13  0.7603E-17  0.1000E-09  0.0000E+00  0.4828E+16
   -0.137498    0.14430  0.4115E-11  0.1218E-13  0.7603E-17  0.1000E-09  0.0000E+00  0.4978E+16
   -0.206249    0.22282  0.9293E-11  0.1218E-13  0.7603E-17  0.1000E-09  0.0000E+00  0.5103E+16
   -0.274999    0.30518  0.1330E-10  0.1218E-13  0.7603E-17  0.1000E-09  0.0000E+00  0.5210E+16
   -0.343751    0.39133  0.1515E-10  0.1218E-13  0.7603E-17  0.1000E-09  0.0000E+00  0.5293E+16
   -0.412503    0.48116  0.1524E-10  0.1218E-13  0.7603E-17  0.1000E-09  0.0000E+00  0.5344E+16
   -0.481255    0.57440  0.1444E-10  0.1218E-13  0.7603E-17  0.1000E-09  0.0000E+00  0.5359E+16
   -0.550008    0.67069  0.1345E-10  0.1218E-13  0.7603E-17  0.1000E-09  0.0000E+00  0.5338E+16
   -0.618761    0.76961  0.1262E-10  0.1218E-13  0.7603E-17  0.1000E-09  0.0000E+00  0.5282E+16
   -0.687514    0.87077  0.1205E-10  0.1218E-13  0.7603E-17  0.1000E-09  0.0000E+00  0.5193E+16
   -0.756268    0.97372  0.1171E-10  0.1218E-13  0.7603E-17  0.1000E-09  0.0000E+00  0.5078E+16
   -0.825022    1.07809  0.1152E-10  0.1218E-13  0.7603E-17  0.1000E-09  0.0000E+00  0.4944E+16
   -0.893777    1.18362  0.1143E-10  0.1218E-13  0.7603E-17  0.1000E-09  0.0000E+00  0.4794E+16
   -0.962532    1.29009  0.1139E-10  0.1218E-13  0.7603E-17  0.1000E-09  0.0000E+00  0.4634E+16
   -1.031287    1.39734  0.1136E-10  0.1218E-13  0.7603E-17  0.1000E-09  0.0000E+00  0.4465E+16
   -1.100042    1.50527  0.1135E-10  0.1218E-13  0.7603E-17  0.1000E-09  0.0000E+00  0.4290E+16
   -1.168797    1.61380  0.1134E-10  0.1218E-13  0.7603E-17  0.1000E-09  0.0000E+00  0.4112E+16
   -1.237552    1.72290  0.1133E-10  0.1218E-13  0.7603E-17  0.1000E-09  0.0000E+00  0.3932E+16
   -1.306308    1.83258  0.1132E-10  0.1218E-13  0.7603E-17  0.1000E-09  0.0000E+00  0.3751E+16
   -1.375063    1.94289  0.1130E-10  0.1218E-13  0.7603E-17  0.1000E-09  0.0000E+00  0.3572E+16
   -1.443818    2.05401  0.1128E-10  0.1218E-13  0.7603E-17  0.1000E-09  0.0000E+00  0.3395E+16
   -1.512574    2.16609  0.1125E-10  0.1218E-13  0.7603E-17  0.1000E-09  0.0000E+00  0.3217E+16
   -1.581329    2.27928  0.1122E-10  0.1218E-13  0.7603E-17  0.1000E-09  0.0000E+00  0.3037E+16
   -1.650084    2.39375  0.1120E-10  0.1218E-13  0.7603E-17  0.1000E-09  0.0000E+00  0.2857E+16
   -1.718840    2.50971  0.1117E-10  0.1218E-13  0.7603E-17  0.1000E-09  0.0000E+00  0.2672E+16
   -1.787594    2.62734  0.1115E-10  0.1218E-13  0.7603E-17  0.1000E-09  0.0000E+00  0.2405E+16
   -1.856349    2.74293  0.1113E-10  0.1218E-13  0.7603E-17  0.1000E-09  0.0000E+00  0.2142E+16
   -1.925104    2.85597  0.1112E-10  0.1218E-13  0.7603E-17  0.1000E-09  0.0000E+00  0.1880E+16
   -1.993858    2.96564  0.1111E-10  0.1218E-13  0.7603E-17  0.1000E-09  0.0000E+00  0.1638E+16
   -2.062612    3.07208  0.1110E-10  0.1218E-13  0.7603E-17  0.1000E-09  0.0000E+00  0.1463E+16
   -2.131365    3.17914  0.1108E-10  0.1218E-13  0.7603E-17  0.1000E-09  0.0000E+00  0.1292E+16
   -2.200118    3.28738  0.1108E-10  0.1218E-13  0.7603E-17  0.1000E-09  0.0000E+00  0.1119E+16
   -2.268871    3.39713  0.1107E-10  0.1653E-13  0.1078E-16  0.1000E-09  0.0000E+00  0.9344E+15
   -2.337624    3.50793  0.1106E-10  0.9331E-13  0.5943E-16  0.1000E-09  0.0000E+00  0.7432E+15
   -2.406375    3.61945  0.1105E-10  0.5928E-12  0.3640E-15  0.1000E-09  0.0000E+00  0.5472E+15
   -2.475127    3.73121  0.1105E-10  0.3764E-11  0.2235E-14  0.1000E-09  0.0000E+00  0.3484E+15
   -2.543877    3.84230  0.1105E-10  0.2388E-10  0.1380E-13  0.4240E-09  0.0000E+00  0.1530E+15
   -2.612628    3.95103  0.1105E-10  0.1538E-09  0.8828E-13  0.4641E-07  0.0000E+00 -0.3394E+13
   -2.681377    4.02764  0.1105E-10  0.6605E-09  0.5937E-12  0.2592E-06  0.0000E+00 -0.2239E+14
   -2.750126    4.05391  0.1105E-10  0.0000E+00  0.0000E+00  0.0000E+00  0.0000E+00  0.0000E+00
