 1 - depth, m
 2 - temperature, C
 3 - salinity, kg/kg
 4 - turbulent kinetic energy, m**2/s**2
 5 - dissipation rate, m**2/s**3
 6 - kinematic heat conductance, m**2/s
 7 - modulus of horizontal velocity, m/s
 8 - Richardson number, n/d
   -0.000000   -0.00000  0.2002E-19  0.1267E-06  0.3011E-08  0.3390E-06  0.2799E-02  0.2608E+17
   -0.068749    0.48271  0.3900E-18  0.2667E-07  0.6980E-09  0.4261E-07  0.1586E-02  0.1487E+17
   -0.137499    0.84625  0.4023E-17  0.1806E-08  0.2081E-10  0.2015E-08  0.6394E-03  0.7983E+16
   -0.206249    1.06214  0.5167E-17  0.3691E-08  0.1915E-11  0.1201E-08  0.2092E-03  0.3878E+16
   -0.275000    1.16914  0.5289E-18  0.1215E-07  0.1779E-11  0.3629E-08  0.6578E-04  0.1547E+16
   -0.343752    1.21320  0.4429E-12  0.3031E-07  0.3359E-11  0.7317E-07  0.1782E-04  0.2957E+15
   -0.412504    1.22045  0.1516E-11  0.3164E-07  0.3658E-11  0.1233E-03  0.2246E-05  0.5977E+14
   -0.481257    1.22168  0.1867E-11  0.3176E-07  0.3640E-11  0.1280E-03  0.2175E-05  0.1280E+15
   -0.550010    1.22435  0.2205E-11  0.3112E-07  0.3448E-11  0.1230E-03  0.2116E-05  0.3106E+15
   -0.618763    1.23092  0.2608E-11  0.2975E-07  0.3150E-11  0.8950E-04  0.2070E-05  0.6312E+15
   -0.687517    1.24449  0.3019E-11  0.2574E-07  0.2535E-11  0.3502E-04  0.2038E-05  0.1055E+16
   -0.756271    1.26784  0.3358E-11  0.1616E-07  0.1517E-11  0.1007E-07  0.1965E-05  0.1441E+16
   -0.825025    1.30284  0.3461E-11  0.6528E-08  0.6274E-12  0.2366E-08  0.6238E-06  0.1771E+16
   -0.893780    1.34791  0.3340E-11  0.2481E-08  0.2499E-12  0.7710E-09  0.1709E-06  0.2060E+16
   -0.962535    1.40172  0.3202E-11  0.9033E-09  0.1042E-12  0.3133E-09  0.4373E-07  0.2311E+16
   -1.031290    1.46340  0.3088E-11  0.3536E-09  0.7010E-13  0.2086E-09  0.1058E-07  0.2527E+16
   -1.100045    1.53232  0.3007E-11  0.3950E-09  0.1509E-12  0.3207E-09  0.2426E-08  0.2722E+16
   -1.168801    1.60850  0.2956E-11  0.1529E-08  0.6260E-12  0.9445E-09  0.5288E-09  0.2963E+16
   -1.237556    1.69467  0.2925E-11  0.7009E-08  0.2772E-11  0.2662E-08  0.1102E-09  0.3540E+16
   -1.306312    1.80552  0.2908E-11  0.3101E-07  0.1180E-10  0.5863E-08  0.2208E-10  0.5577E+16
   -1.375068    2.00626  0.2898E-11  0.1282E-06  0.4704E-10  0.1614E-07  0.4118E-11  0.9897E+16
   -1.443823    2.49939  0.2885E-11  0.2937E-06  0.1064E-09  0.6477E-04  0.9518E-13  0.9564E+16
   -1.512579    3.15468  0.2870E-11  0.4415E-06  0.1611E-09  0.2284E-03  0.8409E-13  0.7252E+16
   -1.581335    3.71933  0.2857E-11  0.5592E-06  0.2058E-09  0.3692E-03  0.7312E-13  0.3782E+16
   -1.650090    4.13497  0.2847E-11  0.6030E-06  0.2233E-09  0.4914E-03  0.6331E-13  0.4016E+15
   -1.718845    4.24418  0.2844E-11  0.6081E-06  0.2266E-09  0.5352E-03  0.5366E-13 -0.4000E+13
   -1.787601    4.24519  0.2844E-11  0.6117E-06  0.2301E-09  0.5318E-03  0.4493E-13 -0.4067E+13
   -1.856356    4.24621  0.2844E-11  0.6148E-06  0.2343E-09  0.5274E-03  0.3722E-13 -0.4161E+13
   -1.925110    4.24724  0.2844E-11  0.6173E-06  0.2395E-09  0.5204E-03  0.3105E-13 -0.4293E+13
   -1.993865    4.24831  0.2844E-11  0.6191E-06  0.2458E-09  0.5104E-03  0.2572E-13 -0.4450E+13
   -2.062619    4.24940  0.2844E-11  0.6200E-06  0.2532E-09  0.4977E-03  0.2147E-13 -0.4600E+13
   -2.131373    4.25052  0.2844E-11  0.6201E-06  0.2620E-09  0.4822E-03  0.1759E-13 -0.4785E+13
   -2.200126    4.25168  0.2844E-11  0.6192E-06  0.2725E-09  0.4638E-03  0.1432E-13 -0.5017E+13
   -2.268879    4.25289  0.2844E-11  0.6172E-06  0.2856E-09  0.4415E-03  0.1131E-13 -0.5311E+13
   -2.337632    4.25417  0.2844E-11  0.6139E-06  0.3029E-09  0.4142E-03  0.8837E-14 -0.5700E+13
   -2.406384    4.25552  0.2844E-11  0.6090E-06  0.3270E-09  0.3808E-03  0.6689E-14 -0.6247E+13
   -2.475135    4.25701  0.2844E-11  0.6017E-06  0.3628E-09  0.3390E-03  0.4962E-14 -0.7077E+13
   -2.543886    4.25867  0.2844E-11  0.5906E-06  0.4226E-09  0.2885E-03  0.3511E-14 -0.8375E+13
   -2.612637    4.26064  0.2844E-11  0.5674E-06  0.5717E-09  0.1572E-03  0.2397E-14 -0.1545E+14
   -2.681386    4.26426  0.2844E-11  0.3763E-06  0.2288E-08  0.9330E-05  0.1151E-14 -0.2936E+15
   -2.750136    4.32541  0.2844E-11  0.0000E+00  0.0000E+00  0.0000E+00  0.1079E-14  0.0000E+00
