 1 - depth, m
 2 - temperature, C
 3 - salinity, kg/kg
 4 - turbulent kinetic energy, m**2/s**2
 5 - dissipation rate, m**2/s**3
 6 - kinematic heat conductance, m**2/s
 7 - modulus of horizontal velocity, m/s
 8 - Richardson number, n/d
   -0.000000   -0.00000  0.6235E-11  0.1219E-13  0.7603E-17  0.1000E-09  0.0000E+00  0.7534E+16
   -0.068746    0.11478  0.3698E-11  0.1219E-13  0.7603E-17  0.1000E-09  0.0000E+00  0.7242E+16
   -0.137492    0.22865  0.2676E-11  0.1219E-13  0.7603E-17  0.1000E-09  0.0000E+00  0.6976E+16
   -0.206239    0.34192  0.2335E-11  0.1219E-13  0.7603E-17  0.1000E-09  0.0000E+00  0.6733E+16
   -0.274987    0.45490  0.2239E-11  0.1219E-13  0.7603E-17  0.1000E-09  0.0000E+00  0.6510E+16
   -0.343735    0.56791  0.2215E-11  0.1219E-13  0.7603E-17  0.1000E-09  0.0000E+00  0.6304E+16
   -0.412483    0.68125  0.2210E-11  0.1219E-13  0.7603E-17  0.1000E-09  0.0000E+00  0.6114E+16
   -0.481232    0.79523  0.2209E-11  0.1219E-13  0.7603E-17  0.1000E-09  0.0000E+00  0.5935E+16
   -0.549982    0.91013  0.2209E-11  0.1219E-13  0.7603E-17  0.1000E-09  0.0000E+00  0.5765E+16
   -0.618732    1.02624  0.2209E-11  0.1219E-13  0.7603E-17  0.1000E-09  0.0000E+00  0.5601E+16
   -0.687482    1.14383  0.2209E-11  0.1219E-13  0.7603E-17  0.1000E-09  0.0000E+00  0.5450E+16
   -0.756233    1.26336  0.2209E-11  0.1219E-13  0.7603E-17  0.1000E-09  0.0000E+00  0.5304E+16
   -0.824984    1.38520  0.2209E-11  0.1219E-13  0.7603E-17  0.1000E-09  0.0000E+00  0.5151E+16
   -0.893735    1.50952  0.2209E-11  0.1219E-13  0.7603E-17  0.1000E-09  0.0000E+00  0.4990E+16
   -0.962487    1.63649  0.2208E-11  0.1502E-13  0.7603E-17  0.1000E-09  0.0000E+00  0.4817E+16
   -1.031238    1.76620  0.2207E-11  0.6595E-13  0.1066E-16  0.1000E-09  0.0000E+00  0.4629E+16
   -1.099990    1.89874  0.2205E-11  0.1844E-12  0.2394E-16  0.1000E-09  0.0000E+00  0.4426E+16
   -1.168742    2.03416  0.2200E-11  0.4544E-12  0.5557E-16  0.1000E-09  0.0000E+00  0.4204E+16
   -1.237494    2.17244  0.2193E-11  0.1076E-11  0.1273E-15  0.1000E-09  0.0000E+00  0.3963E+16
   -1.306247    2.31355  0.2184E-11  0.2504E-11  0.2881E-15  0.1000E-09  0.0000E+00  0.3701E+16
   -1.374999    2.45742  0.2174E-11  0.5755E-11  0.6447E-15  0.1000E-09  0.0000E+00  0.3423E+16
   -1.443751    2.60409  0.2165E-11  0.1308E-10  0.1428E-14  0.1000E-09  0.0000E+00  0.3124E+16
   -1.512503    2.75345  0.2159E-11  0.2945E-10  0.3131E-14  0.1000E-09  0.0000E+00  0.2803E+16
   -1.581255    2.90531  0.2155E-11  0.6563E-10  0.6800E-14  0.1000E-09  0.0000E+00  0.2463E+16
   -1.650007    3.05945  0.2153E-11  0.1449E-09  0.1463E-13  0.1000E-09  0.0000E+00  0.2104E+16
   -1.718759    3.21558  0.2151E-11  0.3167E-09  0.3119E-13  0.1000E-09  0.0000E+00  0.1730E+16
   -1.787511    3.37352  0.2150E-11  0.7020E-09  0.6742E-13  0.2523E-09  0.0000E+00  0.1360E+16
   -1.856262    3.53534  0.2148E-11  0.1569E-08  0.1470E-12  0.7787E-09  0.0000E+00  0.9605E+15
   -1.925014    3.70088  0.2144E-11  0.3497E-08  0.3198E-12  0.3063E-08  0.0000E+00  0.5312E+15
   -1.993765    3.86851  0.2142E-11  0.7643E-08  0.6838E-12  0.3331E-07  0.0000E+00  0.1042E+15
   -2.062515    4.01060  0.2142E-11  0.8579E-08  0.7718E-12  0.3943E-04  0.0000E+00 -0.2409E+12
   -2.131266    4.01122  0.2142E-11  0.8965E-08  0.8177E-12  0.3974E-04  0.0000E+00 -0.2453E+12
   -2.200016    4.01184  0.2142E-11  0.9268E-08  0.8665E-12  0.3918E-04  0.0000E+00 -0.2553E+12
   -2.268765    4.01247  0.2142E-11  0.9491E-08  0.9215E-12  0.3769E-04  0.0000E+00 -0.2724E+12
   -2.337514    4.01313  0.2142E-11  0.9641E-08  0.9899E-12  0.3513E-04  0.0000E+00 -0.3005E+12
   -2.406263    4.01383  0.2142E-11  0.9707E-08  0.1082E-11  0.3130E-04  0.0000E+00 -0.3477E+12
   -2.475011    4.01463  0.2142E-11  0.9667E-08  0.1222E-11  0.2597E-04  0.0000E+00 -0.4342E+12
   -2.543759    4.01559  0.2142E-11  0.9459E-08  0.1471E-11  0.1891E-04  0.0000E+00 -0.6243E+12
   -2.612506    4.01692  0.2142E-11  0.8887E-08  0.2076E-11  0.1010E-04  0.0000E+00 -0.1259E+13
   -2.681252    4.01945  0.2142E-11  0.6422E-08  0.5803E-11  0.1331E-05  0.0000E+00 -0.1246E+14
   -2.749998    4.03817  0.2142E-11  0.0000E+00  0.0000E+00  0.0000E+00  0.0000E+00  0.0000E+00
