 1 - depth, m
 2 - temperature, C
 3 - salinity, kg/kg
 4 - turbulent kinetic energy, m**2/s**2
 5 - dissipation rate, m**2/s**3
 6 - kinematic heat conductance, m**2/s
 7 - modulus of horizontal velocity, m/s
 8 - Richardson number, n/d
   -0.000000   -0.00000  0.1839E-12  0.1219E-13  0.7603E-17  0.1000E-09  0.0000E+00  0.6769E+16
   -0.068746    0.10296  0.1263E-11  0.1219E-13  0.7603E-17  0.1000E-09  0.0000E+00  0.6700E+16
   -0.137493    0.20783  0.2285E-11  0.1219E-13  0.7603E-17  0.1000E-09  0.0000E+00  0.6613E+16
   -0.206240    0.31446  0.2836E-11  0.1219E-13  0.7603E-17  0.1000E-09  0.0000E+00  0.6507E+16
   -0.274988    0.42270  0.2962E-11  0.1219E-13  0.7603E-17  0.1000E-09  0.0000E+00  0.6384E+16
   -0.343736    0.53239  0.2852E-11  0.1219E-13  0.7603E-17  0.1000E-09  0.0000E+00  0.6246E+16
   -0.412485    0.64341  0.2667E-11  0.1219E-13  0.7603E-17  0.1000E-09  0.0000E+00  0.6093E+16
   -0.481234    0.75559  0.2494E-11  0.1219E-13  0.7603E-17  0.1000E-09  0.0000E+00  0.5928E+16
   -0.549984    0.86883  0.2369E-11  0.1219E-13  0.7603E-17  0.1000E-09  0.0000E+00  0.5752E+16
   -0.618734    0.98299  0.2291E-11  0.1219E-13  0.7603E-17  0.1000E-09  0.0000E+00  0.5565E+16
   -0.687485    1.09796  0.2248E-11  0.1219E-13  0.7603E-17  0.1000E-09  0.0000E+00  0.5369E+16
   -0.756236    1.21363  0.2226E-11  0.1219E-13  0.7603E-17  0.1000E-09  0.0000E+00  0.5165E+16
   -0.824987    1.32988  0.2215E-11  0.1219E-13  0.7603E-17  0.1000E-09  0.0000E+00  0.4955E+16
   -0.893739    1.44663  0.2210E-11  0.1219E-13  0.7603E-17  0.1000E-09  0.0000E+00  0.4738E+16
   -0.962490    1.56376  0.2208E-11  0.1219E-13  0.7603E-17  0.1000E-09  0.0000E+00  0.4517E+16
   -1.031242    1.68120  0.2206E-11  0.1219E-13  0.7603E-17  0.1000E-09  0.0000E+00  0.4293E+16
   -1.099995    1.79886  0.2203E-11  0.1219E-13  0.7603E-17  0.1000E-09  0.0000E+00  0.4065E+16
   -1.168747    1.91667  0.2200E-11  0.1219E-13  0.7603E-17  0.1000E-09  0.0000E+00  0.3835E+16
   -1.237499    2.03456  0.2195E-11  0.1219E-13  0.7603E-17  0.1000E-09  0.0000E+00  0.3604E+16
   -1.306252    2.15248  0.2190E-11  0.1219E-13  0.7603E-17  0.1000E-09  0.0000E+00  0.3372E+16
   -1.375004    2.27038  0.2184E-11  0.1219E-13  0.7603E-17  0.1000E-09  0.0000E+00  0.3141E+16
   -1.443757    2.38824  0.2178E-11  0.1219E-13  0.7603E-17  0.1000E-09  0.0000E+00  0.2911E+16
   -1.512509    2.50603  0.2172E-11  0.1219E-13  0.7603E-17  0.1000E-09  0.0000E+00  0.2681E+16
   -1.581262    2.62375  0.2167E-11  0.1219E-13  0.7603E-17  0.1000E-09  0.0000E+00  0.2453E+16
   -1.650014    2.74138  0.2162E-11  0.1219E-13  0.7603E-17  0.1000E-09  0.0000E+00  0.2226E+16
   -1.718766    2.85892  0.2157E-11  0.1219E-13  0.7603E-17  0.1000E-09  0.0000E+00  0.1999E+16
   -1.787518    2.97629  0.2154E-11  0.3851E-13  0.1032E-16  0.1000E-09  0.0000E+00  0.1748E+16
   -1.856270    3.09167  0.2151E-11  0.1357E-12  0.3045E-16  0.1000E-09  0.0000E+00  0.1503E+16
   -1.925021    3.20462  0.2149E-11  0.4457E-12  0.9519E-16  0.1000E-09  0.0000E+00  0.1265E+16
   -1.993773    3.31450  0.2147E-11  0.1430E-11  0.2948E-15  0.1000E-09  0.0000E+00  0.1044E+16
   -2.062524    3.42117  0.2145E-11  0.4417E-11  0.8813E-15  0.1000E-09  0.0000E+00  0.8576E+15
   -2.131274    3.52721  0.2144E-11  0.1341E-10  0.2591E-14  0.1000E-09  0.0000E+00  0.6765E+15
   -2.200024    3.63282  0.2143E-11  0.4020E-10  0.7523E-14  0.1000E-09  0.0000E+00  0.4980E+15
   -2.268774    3.73795  0.2143E-11  0.1201E-09  0.2179E-13  0.3431E-09  0.0000E+00  0.3217E+15
   -2.337524    3.84229  0.2143E-11  0.3614E-09  0.6358E-13  0.2151E-08  0.0000E+00  0.1490E+15
   -2.406272    3.94457  0.2143E-11  0.1049E-08  0.1800E-12  0.8383E-07  0.0000E+00  0.9685E+13
   -2.475021    4.00886  0.2143E-11  0.2086E-08  0.3667E-12  0.5473E-05  0.0000E+00 -0.9584E+12
   -2.543769    4.01142  0.2143E-11  0.2425E-08  0.4804E-12  0.4964E-05  0.0000E+00 -0.1159E+13
   -2.612516    4.01421  0.2143E-11  0.2455E-08  0.6620E-12  0.3134E-05  0.0000E+00 -0.1989E+13
   -2.681263    4.01844  0.2143E-11  0.1811E-08  0.1413E-11  0.5243E-06  0.0000E+00 -0.1205E+14
   -2.750008    4.03703  0.2143E-11  0.0000E+00  0.0000E+00  0.0000E+00  0.0000E+00  0.0000E+00
