 1 - depth, m
 2 - temperature, C
 3 - salinity, kg/kg
 4 - turbulent kinetic energy, m**2/s**2
 5 - dissipation rate, m**2/s**3
 6 - kinematic heat conductance, m**2/s
 7 - modulus of horizontal velocity, m/s
 8 - Richardson number, n/d
   -0.000000   -0.00000  0.1603E-10  0.1219E-13  0.7603E-17  0.1000E-09  0.0000E+00  0.4109E+16
   -0.068746    0.06216  0.8808E-11  0.1219E-13  0.7603E-17  0.1000E-09  0.0000E+00  0.3924E+16
   -0.137492    0.12252  0.7075E-11  0.1219E-13  0.7603E-17  0.1000E-09  0.0000E+00  0.3775E+16
   -0.206239    0.18155  0.6708E-11  0.1219E-13  0.7603E-17  0.1000E-09  0.0000E+00  0.3662E+16
   -0.274986    0.23977  0.6639E-11  0.1219E-13  0.7603E-17  0.1000E-09  0.0000E+00  0.3585E+16
   -0.343735    0.29771  0.6628E-11  0.1219E-13  0.7603E-17  0.1000E-09  0.0000E+00  0.3544E+16
   -0.412483    0.35594  0.6626E-11  0.1219E-13  0.7603E-17  0.1000E-09  0.0000E+00  0.3538E+16
   -0.481232    0.41507  0.6626E-11  0.1219E-13  0.7603E-17  0.1000E-09  0.0000E+00  0.3567E+16
   -0.549982    0.47577  0.6626E-11  0.1219E-13  0.7603E-17  0.1000E-09  0.0000E+00  0.3630E+16
   -0.618732    0.53871  0.6626E-11  0.1219E-13  0.7603E-17  0.1000E-09  0.0000E+00  0.3726E+16
   -0.687482    0.60460  0.6626E-11  0.1219E-13  0.7603E-17  0.1000E-09  0.0000E+00  0.3867E+16
   -0.756233    0.67445  0.6626E-11  0.1219E-13  0.7603E-17  0.1000E-09  0.0000E+00  0.4043E+16
   -0.824984    0.74918  0.6626E-11  0.1219E-13  0.7603E-17  0.1000E-09  0.0000E+00  0.4238E+16
   -0.893735    0.82952  0.6626E-11  0.1219E-13  0.7603E-17  0.1000E-09  0.0000E+00  0.4447E+16
   -0.962486    0.91622  0.6626E-11  0.1219E-13  0.7603E-17  0.1000E-09  0.0000E+00  0.4662E+16
   -1.031238    1.00996  0.6625E-11  0.1219E-13  0.7603E-17  0.1000E-09  0.0000E+00  0.4875E+16
   -1.099990    1.11142  0.6624E-11  0.1219E-13  0.7603E-17  0.1000E-09  0.0000E+00  0.5077E+16
   -1.168742    1.22121  0.6618E-11  0.1219E-13  0.7603E-17  0.1000E-09  0.0000E+00  0.5255E+16
   -1.237494    1.33989  0.6603E-11  0.1264E-13  0.7603E-17  0.1000E-09  0.0000E+00  0.5400E+16
   -1.306246    1.46794  0.6572E-11  0.6114E-13  0.1257E-16  0.1000E-09  0.0000E+00  0.5501E+16
   -1.374998    1.60575  0.6528E-11  0.1891E-12  0.3284E-16  0.1000E-09  0.0000E+00  0.5566E+16
   -1.443751    1.75419  0.6489E-11  0.5245E-12  0.8678E-16  0.1000E-09  0.0000E+00  0.5565E+16
   -1.512503    1.91361  0.6468E-11  0.1409E-11  0.2256E-15  0.1000E-09  0.0000E+00  0.5479E+16
   -1.581255    2.08406  0.6457E-11  0.3720E-11  0.5779E-15  0.1000E-09  0.0000E+00  0.5298E+16
   -1.650007    2.26541  0.6449E-11  0.9689E-11  0.1462E-14  0.1000E-09  0.0000E+00  0.5015E+16
   -1.718759    2.45737  0.6445E-11  0.2492E-10  0.3651E-14  0.1000E-09  0.0000E+00  0.4624E+16
   -1.787511    2.65943  0.6442E-11  0.6497E-10  0.9246E-14  0.1000E-09  0.0000E+00  0.4111E+16
   -1.856262    2.87010  0.6441E-11  0.1702E-09  0.2353E-13  0.1000E-09  0.0000E+00  0.3512E+16
   -1.925013    3.08927  0.6440E-11  0.4434E-09  0.5963E-13  0.1075E-09  0.0000E+00  0.2827E+16
   -1.993764    3.31684  0.6439E-11  0.1149E-08  0.1503E-12  0.3734E-09  0.0000E+00  0.2050E+16
   -2.062515    3.55187  0.6434E-11  0.2892E-08  0.3683E-12  0.1587E-08  0.0000E+00  0.1182E+16
   -2.131265    3.78983  0.6421E-11  0.7123E-08  0.8840E-12  0.1510E-07  0.0000E+00  0.2986E+15
   -2.200015    4.01039  0.6414E-11  0.8606E-08  0.1076E-11  0.2847E-04  0.0000E+00 -0.4656E+12
   -2.268765    4.01160  0.6414E-11  0.9191E-08  0.1178E-11  0.2895E-04  0.0000E+00 -0.4839E+12
   -2.337514    4.01280  0.6414E-11  0.9641E-08  0.1294E-11  0.2820E-04  0.0000E+00 -0.5246E+12
   -2.406262    4.01403  0.6414E-11  0.9959E-08  0.1440E-11  0.2612E-04  0.0000E+00 -0.6000E+12
   -2.475010    4.01538  0.6414E-11  0.1013E-07  0.1650E-11  0.2247E-04  0.0000E+00 -0.7440E+12
   -2.543758    4.01697  0.6414E-11  0.1009E-07  0.2007E-11  0.1701E-04  0.0000E+00 -0.1066E+13
   -2.612505    4.01912  0.6414E-11  0.9660E-08  0.2843E-11  0.9599E-05  0.0000E+00 -0.2148E+13
   -2.681251    4.02307  0.6414E-11  0.7481E-08  0.7560E-11  0.1611E-05  0.0000E+00 -0.1937E+14
   -2.749997    4.04816  0.6414E-11  0.0000E+00  0.0000E+00  0.0000E+00  0.0000E+00  0.0000E+00
