 1 - depth, m
 2 - temperature, C
 3 - salinity, kg/kg
 4 - turbulent kinetic energy, m**2/s**2
 5 - dissipation rate, m**2/s**3
 6 - kinematic heat conductance, m**2/s
 7 - modulus of horizontal velocity, m/s
 8 - Richardson number, n/d
   -0.000000   -0.00000  0.1450E-12  0.1219E-13  0.7603E-17  0.1000E-09  0.0000E+00  0.6824E+16
   -0.068746    0.10382  0.9643E-12  0.1219E-13  0.7603E-17  0.1000E-09  0.0000E+00  0.6752E+16
   -0.137493    0.20954  0.1738E-11  0.1219E-13  0.7603E-17  0.1000E-09  0.0000E+00  0.6661E+16
   -0.206240    0.31701  0.2155E-11  0.1219E-13  0.7603E-17  0.1000E-09  0.0000E+00  0.6552E+16
   -0.274988    0.42609  0.2250E-11  0.1219E-13  0.7603E-17  0.1000E-09  0.0000E+00  0.6426E+16
   -0.343736    0.53662  0.2166E-11  0.1219E-13  0.7603E-17  0.1000E-09  0.0000E+00  0.6284E+16
   -0.412485    0.64846  0.2025E-11  0.1219E-13  0.7603E-17  0.1000E-09  0.0000E+00  0.6128E+16
   -0.481234    0.76148  0.1895E-11  0.1219E-13  0.7603E-17  0.1000E-09  0.0000E+00  0.5959E+16
   -0.549984    0.87554  0.1800E-11  0.1219E-13  0.7603E-17  0.1000E-09  0.0000E+00  0.5779E+16
   -0.618734    0.99052  0.1741E-11  0.1219E-13  0.7603E-17  0.1000E-09  0.0000E+00  0.5588E+16
   -0.687485    1.10630  0.1708E-11  0.1219E-13  0.7603E-17  0.1000E-09  0.0000E+00  0.5389E+16
   -0.756236    1.22277  0.1691E-11  0.1219E-13  0.7603E-17  0.1000E-09  0.0000E+00  0.5182E+16
   -0.824987    1.33982  0.1683E-11  0.1219E-13  0.7603E-17  0.1000E-09  0.0000E+00  0.4967E+16
   -0.893739    1.45735  0.1680E-11  0.1219E-13  0.7603E-17  0.1000E-09  0.0000E+00  0.4748E+16
   -0.962490    1.57526  0.1678E-11  0.1219E-13  0.7603E-17  0.1000E-09  0.0000E+00  0.4523E+16
   -1.031242    1.69346  0.1676E-11  0.1219E-13  0.7603E-17  0.1000E-09  0.0000E+00  0.4294E+16
   -1.099995    1.81186  0.1674E-11  0.1219E-13  0.7603E-17  0.1000E-09  0.0000E+00  0.4063E+16
   -1.168747    1.93039  0.1672E-11  0.1219E-13  0.7603E-17  0.1000E-09  0.0000E+00  0.3830E+16
   -1.237499    2.04899  0.1669E-11  0.1219E-13  0.7603E-17  0.1000E-09  0.0000E+00  0.3596E+16
   -1.306252    2.16758  0.1665E-11  0.1219E-13  0.7603E-17  0.1000E-09  0.0000E+00  0.3361E+16
   -1.375004    2.28614  0.1660E-11  0.1219E-13  0.7603E-17  0.1000E-09  0.0000E+00  0.3127E+16
   -1.443757    2.40462  0.1656E-11  0.1219E-13  0.7603E-17  0.1000E-09  0.0000E+00  0.2893E+16
   -1.512509    2.52302  0.1651E-11  0.1219E-13  0.7603E-17  0.1000E-09  0.0000E+00  0.2661E+16
   -1.581262    2.64130  0.1647E-11  0.1219E-13  0.7603E-17  0.1000E-09  0.0000E+00  0.2430E+16
   -1.650014    2.75948  0.1643E-11  0.1219E-13  0.7603E-17  0.1000E-09  0.0000E+00  0.2200E+16
   -1.718766    2.87755  0.1640E-11  0.1369E-13  0.7603E-17  0.1000E-09  0.0000E+00  0.1972E+16
   -1.787518    2.99544  0.1637E-11  0.6141E-13  0.1341E-16  0.1000E-09  0.0000E+00  0.1719E+16
   -1.856270    3.11136  0.1635E-11  0.2011E-12  0.3781E-16  0.1000E-09  0.0000E+00  0.1474E+16
   -1.925021    3.22487  0.1633E-11  0.6039E-12  0.1087E-15  0.1000E-09  0.0000E+00  0.1236E+16
   -1.993773    3.33535  0.1632E-11  0.1775E-11  0.3098E-15  0.1000E-09  0.0000E+00  0.1014E+16
   -2.062523    3.44272  0.1631E-11  0.5048E-11  0.8560E-15  0.1000E-09  0.0000E+00  0.8268E+15
   -2.131274    3.54956  0.1630E-11  0.1416E-10  0.2334E-14  0.1000E-09  0.0000E+00  0.6436E+15
   -2.200024    3.65604  0.1629E-11  0.3936E-10  0.6311E-14  0.1000E-09  0.0000E+00  0.4620E+15
   -2.268774    3.76191  0.1629E-11  0.1095E-09  0.1707E-13  0.3059E-09  0.0000E+00  0.2829E+15
   -2.337523    3.86658  0.1629E-11  0.3076E-09  0.4671E-13  0.2143E-08  0.0000E+00  0.1099E+15
   -2.406272    3.96825  0.1629E-11  0.8057E-09  0.1203E-12  0.3087E-06  0.0000E+00  0.1103E+13
   -2.475021    4.00008  0.1629E-11  0.1506E-08  0.2443E-12  0.4115E-05  0.0000E+00 -0.8035E+12
   -2.543769    4.00341  0.1629E-11  0.1807E-08  0.3412E-12  0.3837E-05  0.0000E+00 -0.1047E+13
   -2.612516    4.00696  0.1629E-11  0.1875E-08  0.4984E-12  0.2453E-05  0.0000E+00 -0.1943E+13
   -2.681262    4.01229  0.1629E-11  0.1441E-08  0.1092E-11  0.4516E-06  0.0000E+00 -0.1200E+14
   -2.750008    4.03329  0.1629E-11  0.0000E+00  0.0000E+00  0.0000E+00  0.0000E+00  0.0000E+00
