 1 - depth, m
 2 - temperature, C
 3 - salinity, kg/kg
 4 - turbulent kinetic energy, m**2/s**2
 5 - dissipation rate, m**2/s**3
 6 - kinematic heat conductance, m**2/s
 7 - modulus of horizontal velocity, m/s
 8 - Richardson number, n/d
   -0.000000    9.29642  0.8541E-11  0.1541E-04  0.7409E-06  0.3466E-04  0.2743E-01 -0.2314E-01
   -0.068746    9.33225  0.8541E-11  0.1442E-04  0.2559E-06  0.9095E-04  0.1791E-01 -0.6052E-01
   -0.137492    9.34515  0.8541E-11  0.1384E-04  0.1459E-06  0.1543E-03  0.1445E-01 -0.1018E+00
   -0.206239    9.35249  0.8541E-11  0.1343E-04  0.9965E-07  0.2255E-03  0.1244E-01 -0.1480E+00
   -0.274987    9.35734  0.8541E-11  0.1313E-04  0.7482E-07  0.3074E-03  0.1108E-01 -0.1862E+00
   -0.343735    9.36080  0.8541E-11  0.1292E-04  0.5972E-07  0.4562E-03  0.1008E-01  0.4019E+00
   -0.412484    9.36313  0.8541E-11  0.1278E-04  0.5021E-07  0.8571E-03  0.9325E-02  0.8360E+02
   -0.481233    9.36448  0.8541E-11  0.1272E-04  0.4383E-07  0.1080E-02  0.8768E-02  0.1425E+02
   -0.549983    9.36545  0.8541E-11  0.1271E-04  0.3903E-07  0.1218E-02  0.8265E-02  0.1794E+02
   -0.618733    9.36624  0.8541E-11  0.1273E-04  0.3528E-07  0.1308E-02  0.7803E-02  0.7492E+02
   -0.687483    9.36695  0.8541E-11  0.1277E-04  0.3223E-07  0.1366E-02  0.7369E-02  0.1065E+02
   -0.756234    9.36762  0.8541E-11  0.1282E-04  0.2970E-07  0.1424E-02  0.6955E-02  0.1139E+02
   -0.824985    9.36824  0.8541E-11  0.1287E-04  0.2758E-07  0.1478E-02  0.6559E-02  0.1204E+02
   -0.893736    9.36884  0.8541E-11  0.1291E-04  0.2578E-07  0.1531E-02  0.6180E-02  0.1272E+02
   -0.962488    9.36940  0.8541E-11  0.1294E-04  0.2424E-07  0.1581E-02  0.5813E-02  0.1343E+02
   -1.031240    9.36994  0.8541E-11  0.1296E-04  0.2291E-07  0.1629E-02  0.5458E-02  0.1419E+02
   -1.099992    9.37045  0.8541E-11  0.1296E-04  0.2175E-07  0.1673E-02  0.5112E-02  0.1505E+02
   -1.168744    9.37094  0.8541E-11  0.1294E-04  0.2073E-07  0.1713E-02  0.4773E-02  0.1603E+02
   -1.237496    9.37141  0.8541E-11  0.1290E-04  0.1984E-07  0.1748E-02  0.4442E-02  0.1723E+02
   -1.306248    9.37187  0.8541E-11  0.1284E-04  0.1905E-07  0.1777E-02  0.4115E-02  0.1870E+02
   -1.375001    9.37231  0.8541E-11  0.1275E-04  0.1836E-07  0.1799E-02  0.3793E-02  0.2067E+02
   -1.443753    9.37275  0.8541E-11  0.1263E-04  0.1774E-07  0.1812E-02  0.3474E-02  0.2343E+02
   -1.512505    9.37317  0.8541E-11  0.1248E-04  0.1719E-07  0.1815E-02  0.3158E-02  0.2777E+02
   -1.581258    9.37359  0.8541E-11  0.1229E-04  0.1670E-07  0.1806E-02  0.2843E-02  0.3557E+02
   -1.650010    9.37401  0.8541E-11  0.1207E-04  0.1627E-07  0.1789E-02  0.2529E-02  0.5442E+02
   -1.718762    9.37442  0.8541E-11  0.1181E-04  0.1588E-07  0.1749E-02  0.2216E-02  0.1090E+03
   -1.787514    9.37484  0.8541E-11  0.1150E-04  0.1552E-07  0.1747E-02  0.1900E-02  0.9551E+01
   -1.856265    9.37526  0.8541E-11  0.1115E-04  0.1523E-07  0.1744E-02  0.1631E-02  0.4314E+01
   -1.925017    9.37568  0.8541E-11  0.1078E-04  0.1504E-07  0.1757E-02  0.1400E-02  0.2535E+01
   -1.993768    9.37609  0.8541E-11  0.1040E-04  0.1499E-07  0.1789E-02  0.1207E-02  0.1789E+01
   -2.062518    9.37649  0.8541E-11  0.1003E-04  0.1509E-07  0.1817E-02  0.1045E-02  0.1455E+01
   -2.131269    9.37688  0.8541E-11  0.9681E-05  0.1537E-07  0.1763E-02  0.9022E-03  0.1191E+01
   -2.200019    9.37728  0.8541E-11  0.9352E-05  0.1585E-07  0.1659E-02  0.7761E-03  0.9776E+00
   -2.268769    9.37770  0.8541E-11  0.9053E-05  0.1655E-07  0.1521E-02  0.6654E-03  0.7635E+00
   -2.337518    9.37817  0.8541E-11  0.8776E-05  0.1755E-07  0.1364E-02  0.5729E-03  0.6113E+00
   -2.406266    9.37869  0.8541E-11  0.8511E-05  0.1898E-07  0.1233E-02  0.4974E-03  0.6511E+00
   -2.475015    9.37925  0.8541E-11  0.8224E-05  0.2140E-07  0.1037E-02  0.4340E-03  0.2928E+01
   -2.543762    9.37996  0.8541E-11  0.7843E-05  0.2626E-07  0.9099E-03  0.3727E-03  0.2367E+03
   -2.612509    9.38087  0.8541E-11  0.7122E-05  0.4126E-07  0.4705E-03  0.3139E-03 -0.1484E+04
   -2.681256    9.38396  0.8541E-11  0.4309E-05  0.1510E-06  0.6679E-04  0.2160E-03 -0.7601E+04
   -2.750002    9.39555  0.8541E-11  0.0000E+00  0.0000E+00  0.0000E+00  0.2412E-03  0.0000E+00
