 1 - depth, m
 2 - temperature, C
 3 - salinity, kg/kg
 4 - turbulent kinetic energy, m**2/s**2
 5 - dissipation rate, m**2/s**3
 6 - kinematic heat conductance, m**2/s
 7 - modulus of horizontal velocity, m/s
 8 - Richardson number, n/d
   -0.000000   -0.00000  0.3008E-12  0.1219E-13  0.7603E-17  0.1000E-09  0.0000E+00  0.6931E+16
   -0.068746    0.10546  0.1576E-11  0.1219E-13  0.7603E-17  0.1000E-09  0.0000E+00  0.6842E+16
   -0.137493    0.21266  0.2555E-11  0.1219E-13  0.7603E-17  0.1000E-09  0.0000E+00  0.6740E+16
   -0.206240    0.32152  0.2967E-11  0.1219E-13  0.7603E-17  0.1000E-09  0.0000E+00  0.6621E+16
   -0.274988    0.43192  0.2982E-11  0.1219E-13  0.7603E-17  0.1000E-09  0.0000E+00  0.6487E+16
   -0.343736    0.54373  0.2816E-11  0.1219E-13  0.7603E-17  0.1000E-09  0.0000E+00  0.6338E+16
   -0.412485    0.65681  0.2615E-11  0.1219E-13  0.7603E-17  0.1000E-09  0.0000E+00  0.6174E+16
   -0.481234    0.77101  0.2449E-11  0.1219E-13  0.7603E-17  0.1000E-09  0.0000E+00  0.5997E+16
   -0.549984    0.88618  0.2337E-11  0.1219E-13  0.7603E-17  0.1000E-09  0.0000E+00  0.5808E+16
   -0.618734    1.00220  0.2272E-11  0.1219E-13  0.7603E-17  0.1000E-09  0.0000E+00  0.5609E+16
   -0.687485    1.11892  0.2237E-11  0.1219E-13  0.7603E-17  0.1000E-09  0.0000E+00  0.5401E+16
   -0.756236    1.23622  0.2221E-11  0.1219E-13  0.7603E-17  0.1000E-09  0.0000E+00  0.5186E+16
   -0.824987    1.35400  0.2213E-11  0.1219E-13  0.7603E-17  0.1000E-09  0.0000E+00  0.4964E+16
   -0.893738    1.47214  0.2209E-11  0.1219E-13  0.7603E-17  0.1000E-09  0.0000E+00  0.4737E+16
   -0.962490    1.59054  0.2207E-11  0.1219E-13  0.7603E-17  0.1000E-09  0.0000E+00  0.4506E+16
   -1.031242    1.70910  0.2205E-11  0.1219E-13  0.7603E-17  0.1000E-09  0.0000E+00  0.4272E+16
   -1.099994    1.82775  0.2202E-11  0.1219E-13  0.7603E-17  0.1000E-09  0.0000E+00  0.4036E+16
   -1.168747    1.94641  0.2199E-11  0.1219E-13  0.7603E-17  0.1000E-09  0.0000E+00  0.3798E+16
   -1.237499    2.06500  0.2194E-11  0.1219E-13  0.7603E-17  0.1000E-09  0.0000E+00  0.3561E+16
   -1.306251    2.18348  0.2189E-11  0.1219E-13  0.7603E-17  0.1000E-09  0.0000E+00  0.3323E+16
   -1.375004    2.30181  0.2183E-11  0.1219E-13  0.7603E-17  0.1000E-09  0.0000E+00  0.3088E+16
   -1.443756    2.41996  0.2177E-11  0.1219E-13  0.7603E-17  0.1000E-09  0.0000E+00  0.2853E+16
   -1.512509    2.53792  0.2171E-11  0.1219E-13  0.7603E-17  0.1000E-09  0.0000E+00  0.2621E+16
   -1.581261    2.65569  0.2165E-11  0.1219E-13  0.7603E-17  0.1000E-09  0.0000E+00  0.2390E+16
   -1.650013    2.77326  0.2160E-11  0.1219E-13  0.7603E-17  0.1000E-09  0.0000E+00  0.2162E+16
   -1.718766    2.89063  0.2156E-11  0.4430E-13  0.9390E-17  0.1000E-09  0.0000E+00  0.1934E+16
   -1.787517    3.00774  0.2153E-11  0.1392E-12  0.2346E-16  0.1000E-09  0.0000E+00  0.1687E+16
   -1.856269    3.12295  0.2150E-11  0.3959E-12  0.6293E-16  0.1000E-09  0.0000E+00  0.1446E+16
   -1.925021    3.23586  0.2148E-11  0.1092E-11  0.1677E-15  0.1000E-09  0.0000E+00  0.1213E+16
   -1.993772    3.34595  0.2146E-11  0.2976E-11  0.4436E-15  0.1000E-09  0.0000E+00  0.9948E+15
   -2.062523    3.45319  0.2145E-11  0.7857E-11  0.1138E-14  0.1000E-09  0.0000E+00  0.8091E+15
   -2.131274    3.56003  0.2144E-11  0.2045E-10  0.2878E-14  0.1000E-09  0.0000E+00  0.6272E+15
   -2.200024    3.66677  0.2143E-11  0.5274E-10  0.7215E-14  0.1000E-09  0.0000E+00  0.4465E+15
   -2.268774    3.77337  0.2143E-11  0.1359E-09  0.1808E-13  0.3446E-09  0.0000E+00  0.2665E+15
   -2.337523    3.87950  0.2143E-11  0.3537E-09  0.4579E-13  0.2596E-08  0.0000E+00  0.8936E+14
   -2.406272    3.98332  0.2143E-11  0.7932E-09  0.1017E-12  0.1374E-05  0.0000E+00 -0.2999E+12
   -2.475020    3.99345  0.2143E-11  0.1200E-08  0.1773E-12  0.3189E-05  0.0000E+00 -0.6360E+12
   -2.543768    3.99780  0.2143E-11  0.1461E-08  0.2644E-12  0.3113E-05  0.0000E+00 -0.9474E+12
   -2.612515    4.00222  0.2143E-11  0.1554E-08  0.4131E-12  0.2027E-05  0.0000E+00 -0.1942E+13
   -2.681262    4.00869  0.2143E-11  0.1252E-08  0.9403E-12  0.4136E-06  0.0000E+00 -0.1228E+14
   -2.750008    4.03179  0.2143E-11  0.0000E+00  0.0000E+00  0.0000E+00  0.0000E+00  0.0000E+00
