 1 - depth, m
 2 - temperature, C
 3 - salinity, kg/kg
 4 - turbulent kinetic energy, m**2/s**2
 5 - dissipation rate, m**2/s**3
 6 - kinematic heat conductance, m**2/s
 7 - modulus of horizontal velocity, m/s
 8 - Richardson number, n/d
   -0.000000   11.58190  0.1133E-10  0.1075E-04  0.3816E-06  0.2822E-04  0.4979E-01  0.1745E-01
   -0.068746   11.56908  0.1133E-10  0.8923E-05  0.1544E-06  0.4361E-04  0.4252E-01  0.6004E-01
   -0.137492   11.55607  0.1133E-10  0.7232E-05  0.9140E-07  0.4305E-04  0.3879E-01  0.1331E+00
   -0.206239   11.53453  0.1133E-10  0.5559E-05  0.6397E-07  0.3307E-04  0.3581E-01  0.2283E+00
   -0.274987   11.44311  0.1134E-10  0.3778E-05  0.4430E-07  0.2067E-04  0.3220E-01  0.3927E+00
   -0.343735   10.80186  0.1137E-10  0.2330E-05  0.2927E-07  0.1053E-04  0.2596E-01  0.6639E+00
   -0.412484    9.85372  0.1140E-10  0.1399E-05  0.1844E-07  0.4060E-05  0.1885E-01  0.9437E+00
   -0.481233    8.94676  0.1143E-10  0.1137E-05  0.1042E-07  0.1425E-05  0.1193E-01  0.1936E+01
   -0.549983    8.23427  0.1145E-10  0.1179E-05  0.4198E-08  0.1501E-04  0.6253E-02  0.1831E+02
   -0.618733    7.74647  0.1146E-10  0.1491E-05  0.1367E-08  0.5412E-04  0.2363E-02  0.2976E+02
   -0.687484    7.57129  0.1146E-10  0.1752E-05  0.1236E-08  0.1161E-03  0.7136E-03  0.3308E+02
   -0.756234    7.53897  0.1146E-10  0.1903E-05  0.1174E-08  0.1989E-03  0.2496E-03  0.2796E+02
   -0.824986    7.53344  0.1146E-10  0.1993E-05  0.1207E-08  0.3016E-03  0.1296E-03  0.5083E+02
   -0.893737    7.53319  0.1146E-10  0.2074E-05  0.1255E-08  0.5717E-03  0.1122E-03  0.7793E+03
   -0.962489    7.53315  0.1146E-10  0.2143E-05  0.1301E-08  0.9168E-03  0.1005E-03  0.3022E+03
   -1.031240    7.53316  0.1146E-10  0.2200E-05  0.1344E-08  0.1097E-02  0.9247E-04  0.2453E+03
   -1.099992    7.53321  0.1146E-10  0.2255E-05  0.1390E-08  0.1169E-02  0.8649E-04  0.3798E+03
   -1.168745    7.53329  0.1146E-10  0.2309E-05  0.1440E-08  0.1191E-02  0.8145E-04  0.1072E+02
   -1.237497    7.53340  0.1146E-10  0.2366E-05  0.1496E-08  0.1192E-02  0.7678E-04  0.1278E+02
   -1.306249    7.53353  0.1146E-10  0.2425E-05  0.1557E-08  0.1194E-02  0.7216E-04  0.1516E+02
   -1.375002    7.53370  0.1146E-10  0.2483E-05  0.1623E-08  0.1195E-02  0.6758E-04  0.1756E+02
   -1.443754    7.53390  0.1146E-10  0.2541E-05  0.1693E-08  0.1196E-02  0.6303E-04  0.2014E+02
   -1.512506    7.53413  0.1146E-10  0.2598E-05  0.1766E-08  0.1194E-02  0.5853E-04  0.2278E+02
   -1.581259    7.53439  0.1146E-10  0.2652E-05  0.1842E-08  0.1189E-02  0.5404E-04  0.2570E+02
   -1.650011    7.53469  0.1146E-10  0.2702E-05  0.1921E-08  0.1181E-02  0.4957E-04  0.2887E+02
   -1.718763    7.53502  0.1146E-10  0.2747E-05  0.2001E-08  0.1170E-02  0.4509E-04  0.3355E+02
   -1.787515    7.53540  0.1146E-10  0.2787E-05  0.2087E-08  0.1155E-02  0.4062E-04  0.3935E+02
   -1.856266    7.53579  0.1146E-10  0.2825E-05  0.2182E-08  0.1136E-02  0.3653E-04  0.5190E+02
   -1.925018    7.53620  0.1146E-10  0.2860E-05  0.2291E-08  0.1110E-02  0.3280E-04  0.6912E+02
   -1.993769    7.53663  0.1146E-10  0.2893E-05  0.2416E-08  0.1077E-02  0.2944E-04  0.9474E+02
   -2.062520    7.53709  0.1146E-10  0.2920E-05  0.2557E-08  0.1038E-02  0.2637E-04  0.1313E+03
   -2.131270    7.53760  0.1146E-10  0.2943E-05  0.2717E-08  0.9937E-03  0.2344E-04  0.1753E+03
   -2.200020    7.53816  0.1146E-10  0.2959E-05  0.2902E-08  0.9425E-03  0.2063E-04  0.2411E+03
   -2.268770    7.53877  0.1146E-10  0.2967E-05  0.3121E-08  0.8839E-03  0.1792E-04  0.3415E+03
   -2.337519    7.53945  0.1146E-10  0.2966E-05  0.3401E-08  0.8145E-03  0.1537E-04  0.5244E+03
   -2.406268    7.54022  0.1146E-10  0.2953E-05  0.3780E-08  0.7322E-03  0.1298E-04  0.8948E+03
   -2.475016    7.54110  0.1146E-10  0.2924E-05  0.4336E-08  0.6346E-03  0.1073E-04  0.1743E+04
   -2.543764    7.54215  0.1146E-10  0.2868E-05  0.5253E-08  0.5118E-03  0.8632E-05  0.4300E+04
   -2.612511    7.54350  0.1146E-10  0.2761E-05  0.7123E-08  0.3945E-03  0.6619E-05  0.1364E+05
   -2.681257    7.54532  0.1146E-10  0.1915E-05  0.2656E-07  0.2274E-04  0.4859E-05 -0.9320E+06
   -2.750003    7.57833  0.1146E-10  0.0000E+00  0.0000E+00  0.0000E+00  0.4858E-05  0.0000E+00
