 1 - depth, m
 2 - temperature, C
 3 - salinity, kg/kg
 4 - turbulent kinetic energy, m**2/s**2
 5 - dissipation rate, m**2/s**3
 6 - kinematic heat conductance, m**2/s
 7 - modulus of horizontal velocity, m/s
 8 - Richardson number, n/d
   -0.000000   -0.02614  0.5450E-10  0.5042E-04  0.9814E-05  0.5619E-04  0.7325E-01  0.1744E-01
   -0.068746    0.01371  0.5450E-10  0.3128E-04  0.2156E-05  0.8338E-04  0.4461E-01  0.8364E-02
   -0.137492    0.02274  0.5450E-10  0.2599E-04  0.8702E-06  0.1118E-03  0.3835E-01  0.1680E-01
   -0.206239    0.02840  0.5450E-10  0.2291E-04  0.4534E-06  0.1392E-03  0.3438E-01  0.2367E-01
   -0.274987    0.03297  0.5450E-10  0.2082E-04  0.2831E-06  0.1633E-03  0.3143E-01  0.3139E-01
   -0.343735    0.03685  0.5450E-10  0.1920E-04  0.1988E-06  0.1831E-03  0.2910E-01  0.4019E-01
   -0.412484    0.04027  0.5450E-10  0.1783E-04  0.1502E-06  0.1983E-03  0.2719E-01  0.5028E-01
   -0.481233    0.04339  0.5450E-10  0.1661E-04  0.1189E-06  0.2086E-03  0.2557E-01  0.6185E-01
   -0.549983    0.04633  0.5450E-10  0.1548E-04  0.9708E-07  0.2142E-03  0.2416E-01  0.7517E-01
   -0.618733    0.04918  0.5450E-10  0.1442E-04  0.8106E-07  0.2152E-03  0.2291E-01  0.9064E-01
   -0.687483    0.05200  0.5450E-10  0.1342E-04  0.6880E-07  0.2121E-03  0.2177E-01  0.1088E+00
   -0.756234    0.05486  0.5450E-10  0.1246E-04  0.5916E-07  0.2050E-03  0.2072E-01  0.1303E+00
   -0.824985    0.05782  0.5450E-10  0.1155E-04  0.5140E-07  0.1945E-03  0.1975E-01  0.1563E+00
   -0.893737    0.06095  0.5450E-10  0.1068E-04  0.4506E-07  0.1810E-03  0.1882E-01  0.1883E+00
   -0.962488    0.06437  0.5450E-10  0.9840E-05  0.3982E-07  0.1650E-03  0.1794E-01  0.2288E+00
   -1.031240    0.06822  0.5450E-10  0.9033E-05  0.3545E-07  0.1471E-03  0.1708E-01  0.2811E+00
   -1.099992    0.07275  0.5450E-10  0.8254E-05  0.3180E-07  0.1280E-03  0.1623E-01  0.3498E+00
   -1.168744    0.07856  0.5450E-10  0.7498E-05  0.2877E-07  0.1088E-03  0.1536E-01  0.4296E+00
   -1.237497    0.08779  0.5450E-10  0.6743E-05  0.2623E-07  0.9103E-04  0.1442E-01  0.5136E+00
   -1.306249    0.11800  0.5451E-10  0.6007E-05  0.2399E-07  0.7576E-04  0.1320E-01  0.7456E+00
   -1.375001    0.18421  0.5451E-10  0.5344E-05  0.2217E-07  0.6329E-04  0.1174E-01  0.1472E+01
   -1.443754    0.25876  0.5452E-10  0.4756E-05  0.2076E-07  0.5383E-04  0.1024E-01  0.5163E+01
   -1.512506    0.33648  0.5452E-10  0.4246E-05  0.1977E-07  0.4750E-04  0.8753E-02  0.3370E+02
   -1.581258    0.42628  0.5453E-10  0.3828E-05  0.1915E-07  0.4401E-04  0.7247E-02  0.3098E+03
   -1.650010    0.54827  0.5453E-10  0.3538E-05  0.1894E-07  0.4264E-04  0.5677E-02  0.2728E+04
   -1.718762    0.72148  0.5454E-10  0.3408E-05  0.1922E-07  0.2372E-04  0.4016E-02  0.2684E+05
   -1.787514    0.97389  0.5454E-10  0.2327E-05  0.1145E-07  0.2806E-04  0.1493E-02  0.4116E+07
   -1.856266    1.20873  0.5455E-10  0.1633E-05  0.7354E-08  0.1762E-04  0.8787E-03  0.6016E+09
   -1.925017    1.39688  0.5455E-10  0.1050E-05  0.4390E-08  0.8734E-05  0.5156E-03  0.3049E+11
   -1.993768    1.52035  0.5455E-10  0.5639E-06  0.2226E-08  0.2508E-05  0.2780E-03 -0.2849E+14
   -2.062519    1.59487  0.5456E-10  0.1904E-06  0.7229E-09  0.8386E-07  0.1215E-03  0.4546E+15
   -2.131270    1.76047  0.5456E-10  0.2034E-07  0.7724E-10  0.1397E-07  0.2029E-04  0.2471E+16
   -2.200020    1.97354  0.5456E-10  0.1209E-08  0.5432E-11  0.1939E-08  0.1801E-05  0.5514E+16
   -2.268769    2.26682  0.5457E-10  0.5143E-10  0.1132E-11  0.2030E-09  0.8769E-07  0.7196E+16
   -2.337519    2.65073  0.5457E-10  0.4419E-11  0.1000E-11  0.1000E-09  0.3320E-08  0.7020E+16
   -2.406267    3.11822  0.5457E-10  0.4419E-11  0.1000E-11  0.1000E-09  0.1072E-09  0.4780E+16
   -2.475015    3.63474  0.5457E-10  0.4419E-11  0.1000E-11  0.1000E-09  0.2891E-11  0.4930E+15
   -2.543763    4.20947  0.5457E-10  0.4419E-11  0.1000E-11  0.1000E-09  0.6529E-13 -0.8422E+16
   -2.612510    5.05718  0.5457E-10  0.4419E-11  0.1000E-11  0.1000E-09  0.1099E-14 -0.1881E+17
   -2.681257    5.88648  0.5457E-10  0.4419E-11  0.1000E-11  0.1000E-09  0.1205E-16 -0.9258E+16
   -2.750003    6.18219  0.5457E-10  0.0000E+00  0.0000E+00  0.0000E+00  0.9887E-17  0.0000E+00
