 1 - depth, m
 2 - temperature, C
 3 - salinity, kg/kg
 4 - turbulent kinetic energy, m**2/s**2
 5 - dissipation rate, m**2/s**3
 6 - kinematic heat conductance, m**2/s
 7 - modulus of horizontal velocity, m/s
 8 - Richardson number, n/d
   -0.000000    6.43918  0.6455E-11  0.9974E-05  0.3308E-06  0.2991E-04  0.2098E-01 -0.2417E-01
   -0.068746    6.48698  0.6455E-11  0.9605E-05  0.1271E-06  0.7711E-04  0.1382E-01 -0.6162E-01
   -0.137492    6.50489  0.6455E-11  0.9250E-05  0.7542E-07  0.1294E-03  0.1106E-01 -0.1042E+00
   -0.206239    6.51522  0.6455E-11  0.8961E-05  0.5243E-07  0.1871E-03  0.9430E-02 -0.1515E+00
   -0.274987    6.52214  0.6455E-11  0.8730E-05  0.3968E-07  0.2516E-03  0.8321E-02 -0.1969E+00
   -0.343735    6.52715  0.6455E-11  0.8548E-05  0.3173E-07  0.3471E-03  0.7502E-02  0.3503E+00
   -0.412484    6.53075  0.6455E-11  0.8409E-05  0.2653E-07  0.5503E-03  0.6873E-02  0.4570E+02
   -0.481233    6.53309  0.6455E-11  0.8316E-05  0.2305E-07  0.8437E-03  0.6391E-02  0.1001E+03
   -0.549983    6.53456  0.6455E-11  0.8263E-05  0.2057E-07  0.1062E-02  0.6007E-02  0.9971E+02
   -0.618733    6.53563  0.6455E-11  0.8236E-05  0.1860E-07  0.1132E-02  0.5659E-02  0.8973E+01
   -0.687483    6.53661  0.6455E-11  0.8220E-05  0.1698E-07  0.1175E-02  0.5327E-02  0.9688E+01
   -0.756234    6.53752  0.6455E-11  0.8209E-05  0.1562E-07  0.1216E-02  0.5012E-02  0.1018E+02
   -0.824985    6.53839  0.6455E-11  0.8201E-05  0.1447E-07  0.1256E-02  0.4712E-02  0.1062E+02
   -0.893737    6.53920  0.6455E-11  0.8190E-05  0.1349E-07  0.1294E-02  0.4424E-02  0.1104E+02
   -0.962488    6.53997  0.6455E-11  0.8174E-05  0.1265E-07  0.1330E-02  0.4147E-02  0.1147E+02
   -1.031240    6.54070  0.6455E-11  0.8152E-05  0.1191E-07  0.1363E-02  0.3880E-02  0.1191E+02
   -1.099992    6.54140  0.6455E-11  0.8122E-05  0.1127E-07  0.1393E-02  0.3620E-02  0.1240E+02
   -1.168744    6.54206  0.6455E-11  0.8082E-05  0.1070E-07  0.1420E-02  0.3368E-02  0.1295E+02
   -1.237496    6.54270  0.6455E-11  0.8031E-05  0.1020E-07  0.1444E-02  0.3122E-02  0.1359E+02
   -1.306249    6.54331  0.6455E-11  0.7969E-05  0.9751E-08  0.1463E-02  0.2881E-02  0.1436E+02
   -1.375001    6.54389  0.6455E-11  0.7894E-05  0.9353E-08  0.1478E-02  0.2644E-02  0.1530E+02
   -1.443753    6.54446  0.6455E-11  0.7805E-05  0.8998E-08  0.1488E-02  0.2411E-02  0.1651E+02
   -1.512506    6.54500  0.6455E-11  0.7702E-05  0.8680E-08  0.1493E-02  0.2181E-02  0.1811E+02
   -1.581258    6.54553  0.6455E-11  0.7584E-05  0.8397E-08  0.1490E-02  0.1954E-02  0.2039E+02
   -1.650010    6.54604  0.6455E-11  0.7451E-05  0.8144E-08  0.1485E-02  0.1727E-02  0.2375E+02
   -1.718762    6.54654  0.6455E-11  0.7300E-05  0.7918E-08  0.1460E-02  0.1503E-02  0.2704E+02
   -1.787514    6.54704  0.6455E-11  0.7127E-05  0.7712E-08  0.1495E-02  0.1278E-02  0.7035E+01
   -1.856266    6.54752  0.6455E-11  0.6941E-05  0.7541E-08  0.1527E-02  0.1088E-02  0.3504E+01
   -1.925017    6.54798  0.6455E-11  0.6747E-05  0.7418E-08  0.1577E-02  0.9270E-03  0.2152E+01
   -1.993768    6.54842  0.6455E-11  0.6552E-05  0.7353E-08  0.1642E-02  0.7941E-03  0.1559E+01
   -2.062519    6.54884  0.6455E-11  0.6368E-05  0.7357E-08  0.1681E-02  0.6835E-03  0.1283E+01
   -2.131269    6.54924  0.6455E-11  0.6197E-05  0.7436E-08  0.1622E-02  0.5873E-03  0.1056E+01
   -2.200019    6.54965  0.6455E-11  0.6040E-05  0.7593E-08  0.1513E-02  0.5031E-03  0.8732E+00
   -2.268769    6.55008  0.6455E-11  0.5900E-05  0.7837E-08  0.1399E-02  0.4300E-03  0.6908E+00
   -2.337518    6.55053  0.6455E-11  0.5773E-05  0.8181E-08  0.1286E-02  0.3690E-03  0.5451E+00
   -2.406267    6.55102  0.6455E-11  0.5658E-05  0.8654E-08  0.1191E-02  0.3198E-03  0.5007E+00
   -2.475015    6.55153  0.6455E-11  0.5541E-05  0.9372E-08  0.1076E-02  0.2796E-03  0.6867E+00
   -2.543763    6.55209  0.6455E-11  0.5403E-05  0.1061E-07  0.9753E-03  0.2420E-03  0.1259E+01
   -2.612510    6.55270  0.6455E-11  0.5168E-05  0.1382E-07  0.5545E-03  0.2076E-03  0.1040E+02
   -2.681256    6.55374  0.6455E-11  0.3301E-05  0.5628E-07  0.2528E-04  0.1584E-03 -0.6981E+03
   -2.750002    6.57598  0.6455E-11  0.0000E+00  0.0000E+00  0.0000E+00  0.1583E-03  0.0000E+00
