 1 - depth, m
 2 - temperature, C
 3 - salinity, kg/kg
 4 - turbulent kinetic energy, m**2/s**2
 5 - dissipation rate, m**2/s**3
 6 - kinematic heat conductance, m**2/s
 7 - modulus of horizontal velocity, m/s
 8 - Richardson number, n/d
   -0.000000   -0.00000  0.1973E-10  0.1846E-05  0.2813E-07  0.1089E-04  0.1168E-01  0.2952E-01
   -0.068745    0.00748  0.1971E-10  0.1578E-05  0.1148E-07  0.1811E-04  0.8361E-02  0.6100E-01
   -0.137490    0.01134  0.1970E-10  0.1318E-05  0.6485E-08  0.2109E-04  0.6729E-02  0.9436E-01
   -0.206236    0.01417  0.1969E-10  0.1087E-05  0.4116E-08  0.2136E-04  0.5615E-02  0.1301E+00
   -0.274983    0.01655  0.1968E-10  0.8831E-06  0.2754E-08  0.1997E-04  0.4750E-02  0.1697E+00
   -0.343730    0.01871  0.1967E-10  0.7048E-06  0.1887E-08  0.1763E-04  0.4033E-02  0.2152E+00
   -0.412478    0.02081  0.1966E-10  0.5498E-06  0.1299E-08  0.1483E-04  0.3410E-02  0.2707E+00
   -0.481226    0.02297  0.1965E-10  0.4171E-06  0.8869E-09  0.1196E-04  0.2851E-02  0.3490E+00
   -0.549974    0.02546  0.1964E-10  0.3073E-06  0.5950E-09  0.9326E-05  0.2333E-02  0.5384E+00
   -0.618723    0.02885  0.1962E-10  0.2222E-06  0.3944E-09  0.7126E-05  0.1849E-02  0.1251E+01
   -0.687473    0.03324  0.1960E-10  0.1595E-06  0.2609E-09  0.5360E-05  0.1426E-02  0.3515E+01
   -0.756223    0.03762  0.1957E-10  0.1134E-06  0.1723E-09  0.3938E-05  0.1086E-02  0.9810E+01
   -0.824973    0.04123  0.1954E-10  0.7900E-07  0.1122E-09  0.2795E-05  0.8242E-03  0.2745E+02
   -0.893723    0.04411  0.1952E-10  0.5331E-07  0.7120E-10  0.1897E-05  0.6226E-03  0.8018E+02
   -0.962473    0.04648  0.1950E-10  0.3442E-07  0.4346E-10  0.1214E-05  0.4658E-03  0.2513E+03
   -1.031224    0.04850  0.1948E-10  0.2092E-07  0.2511E-10  0.7188E-06  0.3430E-03  0.8823E+03
   -1.099975    0.05030  0.1947E-10  0.1167E-07  0.1339E-10  0.3826E-06  0.2468E-03  0.3800E+04
   -1.168726    0.05201  0.1945E-10  0.5745E-08  0.6346E-11  0.1753E-06  0.1719E-03  0.2263E+05
   -1.237477    0.05377  0.1943E-10  0.2345E-08  0.2508E-11  0.6510E-07  0.1146E-03  0.1881E+06
   -1.306229    0.05588  0.1942E-10  0.7331E-09  0.7599E-12  0.1872E-07  0.7236E-04  0.1880E+07
   -1.374980    0.05899  0.1941E-10  0.1582E-09  0.1616E-12  0.3092E-08  0.4326E-04  0.2214E+08
   -1.443731    0.06608  0.1939E-10  0.2596E-10  0.2677E-13  0.3763E-09  0.2470E-04  0.2203E+09
   -1.512482    0.08161  0.1937E-10  0.5527E-11  0.4907E-14  0.1149E-09  0.1380E-04  0.1930E+10
   -1.581234    0.11346  0.1935E-10  0.9103E-11  0.3123E-14  0.1003E-09  0.7526E-05  0.1473E+11
   -1.649985    0.17472  0.1933E-10  0.2706E-10  0.5427E-14  0.1000E-09  0.3800E-05  0.8195E+11
   -1.718736    0.28351  0.1930E-10  0.6173E-10  0.1042E-13  0.1000E-09  0.1338E-05  0.5500E+12
   -1.787486    0.45389  0.1929E-10  0.1203E-09  0.1873E-13  0.1074E-09  0.8896E-07  0.8761E+14
   -1.856237    0.56935  0.1928E-10  0.2091E-09  0.3074E-13  0.1473E-09  0.5454E-08  0.1543E+16
   -1.924987    0.64013  0.1928E-10  0.3163E-09  0.4418E-13  0.1287E-08  0.3057E-09  0.1452E+16
   -1.993737    0.67207  0.1928E-10  0.3457E-09  0.4799E-13  0.2685E-06  0.1824E-10  0.1872E+16
   -2.062487    0.70795  0.1928E-10  0.3172E-09  0.4911E-13  0.1246E-09  0.2923E-11  0.8499E+16
   -2.131236    0.87321  0.1927E-10  0.2273E-09  0.5796E-13  0.1024E-09  0.2300E-12  0.1632E+17
   -2.199985    1.21302  0.1926E-10  0.3409E-09  0.1752E-12  0.1005E-09  0.1672E-13  0.2247E+17
   -2.268734    1.76682  0.1923E-10  0.1586E-08  0.9280E-12  0.2205E-09  0.8176E-15  0.2298E+17
   -2.337482    2.54749  0.1919E-10  0.9412E-08  0.5490E-11  0.2312E-08  0.3256E-16  0.1485E+17
   -2.406230    3.56376  0.1910E-10  0.3584E-07  0.2306E-10  0.7137E-05  0.1103E-17  0.1941E+16
   -2.474977    4.16242  0.1908E-10  0.5697E-07  0.3854E-10  0.3600E-04  0.2513E-19 -0.1304E+14
   -2.543724    4.16754  0.1908E-10  0.6263E-07  0.4699E-10  0.3231E-04  0.6389E-20 -0.1540E+14
   -2.612470    4.17344  0.1908E-10  0.6376E-07  0.6261E-10  0.2205E-04  0.1320E-20 -0.2502E+14
   -2.681215    4.18268  0.1908E-10  0.5094E-07  0.1521E-09  0.4225E-05  0.1595E-21 -0.1861E+15
   -2.749960    4.23871  0.1908E-10  0.0000E+00  0.0000E+00  0.0000E+00  0.1695E-21  0.0000E+00
