 1 - depth, m
 2 - temperature, C
 3 - salinity, kg/kg
 4 - turbulent kinetic energy, m**2/s**2
 5 - dissipation rate, m**2/s**3
 6 - kinematic heat conductance, m**2/s
 7 - modulus of horizontal velocity, m/s
 8 - Richardson number, n/d
   -0.000000   -0.00000  0.7206E-13  0.1219E-13  0.7603E-17  0.1000E-09  0.0000E+00  0.6774E+16
   -0.068746    0.10304  0.5880E-12  0.1219E-13  0.7603E-17  0.1000E-09  0.0000E+00  0.6701E+16
   -0.137493    0.20792  0.1175E-11  0.1219E-13  0.7603E-17  0.1000E-09  0.0000E+00  0.6609E+16
   -0.206240    0.31449  0.1559E-11  0.1219E-13  0.7603E-17  0.1000E-09  0.0000E+00  0.6502E+16
   -0.274988    0.42264  0.1699E-11  0.1219E-13  0.7603E-17  0.1000E-09  0.0000E+00  0.6379E+16
   -0.343736    0.53223  0.1676E-11  0.1219E-13  0.7603E-17  0.1000E-09  0.0000E+00  0.6242E+16
   -0.412485    0.64317  0.1584E-11  0.1219E-13  0.7603E-17  0.1000E-09  0.0000E+00  0.6093E+16
   -0.481234    0.75534  0.1484E-11  0.1219E-13  0.7603E-17  0.1000E-09  0.0000E+00  0.5931E+16
   -0.549984    0.86863  0.1404E-11  0.1219E-13  0.7603E-17  0.1000E-09  0.0000E+00  0.5759E+16
   -0.618734    0.98292  0.1352E-11  0.1219E-13  0.7603E-17  0.1000E-09  0.0000E+00  0.5576E+16
   -0.687485    1.09812  0.1321E-11  0.1219E-13  0.7603E-17  0.1000E-09  0.0000E+00  0.5383E+16
   -0.756236    1.21411  0.1304E-11  0.1219E-13  0.7603E-17  0.1000E-09  0.0000E+00  0.5183E+16
   -0.824987    1.33078  0.1296E-11  0.1219E-13  0.7603E-17  0.1000E-09  0.0000E+00  0.4975E+16
   -0.893739    1.44804  0.1292E-11  0.1219E-13  0.7603E-17  0.1000E-09  0.0000E+00  0.4760E+16
   -0.962490    1.56580  0.1290E-11  0.1219E-13  0.7603E-17  0.1000E-09  0.0000E+00  0.4540E+16
   -1.031242    1.68396  0.1289E-11  0.1219E-13  0.7603E-17  0.1000E-09  0.0000E+00  0.4316E+16
   -1.099995    1.80244  0.1287E-11  0.1219E-13  0.7603E-17  0.1000E-09  0.0000E+00  0.4088E+16
   -1.168747    1.92116  0.1286E-11  0.1219E-13  0.7603E-17  0.1000E-09  0.0000E+00  0.3858E+16
   -1.237499    2.04006  0.1283E-11  0.1219E-13  0.7603E-17  0.1000E-09  0.0000E+00  0.3626E+16
   -1.306252    2.15908  0.1280E-11  0.1219E-13  0.7603E-17  0.1000E-09  0.0000E+00  0.3392E+16
   -1.375004    2.27816  0.1277E-11  0.1219E-13  0.7603E-17  0.1000E-09  0.0000E+00  0.3158E+16
   -1.443757    2.39728  0.1273E-11  0.1219E-13  0.7603E-17  0.1000E-09  0.0000E+00  0.2925E+16
   -1.512509    2.51640  0.1270E-11  0.1219E-13  0.7603E-17  0.1000E-09  0.0000E+00  0.2691E+16
   -1.581261    2.63549  0.1266E-11  0.1219E-13  0.7603E-17  0.1000E-09  0.0000E+00  0.2458E+16
   -1.650014    2.75455  0.1263E-11  0.1219E-13  0.7603E-17  0.1000E-09  0.0000E+00  0.2227E+16
   -1.718766    2.87356  0.1261E-11  0.2298E-13  0.7624E-17  0.1000E-09  0.0000E+00  0.1995E+16
   -1.787518    2.99246  0.1259E-11  0.8360E-13  0.1596E-16  0.1000E-09  0.0000E+00  0.1738E+16
   -1.856270    3.10931  0.1257E-11  0.2537E-12  0.4392E-16  0.1000E-09  0.0000E+00  0.1488E+16
   -1.925021    3.22366  0.1256E-11  0.7296E-12  0.1217E-15  0.1000E-09  0.0000E+00  0.1246E+16
   -1.993772    3.33489  0.1255E-11  0.2067E-11  0.3352E-15  0.1000E-09  0.0000E+00  0.1020E+16
   -2.062523    3.44290  0.1254E-11  0.5674E-11  0.8962E-15  0.1000E-09  0.0000E+00  0.8313E+15
   -2.131274    3.55044  0.1253E-11  0.1538E-10  0.2367E-14  0.1000E-09  0.0000E+00  0.6462E+15
   -2.200024    3.65771  0.1253E-11  0.4138E-10  0.6204E-14  0.1000E-09  0.0000E+00  0.4624E+15
   -2.268774    3.76449  0.1252E-11  0.1114E-09  0.1629E-13  0.2944E-09  0.0000E+00  0.2805E+15
   -2.337523    3.87020  0.1252E-11  0.3037E-09  0.4329E-13  0.2093E-08  0.0000E+00  0.1043E+15
   -2.406272    3.97295  0.1252E-11  0.7621E-09  0.1072E-12  0.4575E-06  0.0000E+00  0.4465E+12
   -2.475021    3.99760  0.1252E-11  0.1369E-08  0.2158E-12  0.3755E-05  0.0000E+00 -0.7495E+12
   -2.543768    4.00127  0.1252E-11  0.1660E-08  0.3096E-12  0.3547E-05  0.0000E+00 -0.1017E+13
   -2.612516    4.00513  0.1252E-11  0.1741E-08  0.4630E-12  0.2285E-05  0.0000E+00 -0.1948E+13
   -2.681262    4.01087  0.1252E-11  0.1360E-08  0.1025E-11  0.4351E-06  0.0000E+00 -0.1206E+14
   -2.750008    4.03262  0.1252E-11  0.0000E+00  0.0000E+00  0.0000E+00  0.0000E+00  0.0000E+00
