 1 - depth, m
 2 - temperature, C
 3 - salinity, kg/kg
 4 - turbulent kinetic energy, m**2/s**2
 5 - dissipation rate, m**2/s**3
 6 - kinematic heat conductance, m**2/s
 7 - modulus of horizontal velocity, m/s
 8 - Richardson number, n/d
   -0.000000   -0.00000  0.1218E-11  0.1219E-13  0.7603E-17  0.1000E-09  0.0000E+00  0.7109E+16
   -0.068746    0.10821  0.3901E-11  0.1219E-13  0.7603E-17  0.1000E-09  0.0000E+00  0.7015E+16
   -0.137493    0.21825  0.5141E-11  0.1219E-13  0.7603E-17  0.1000E-09  0.0000E+00  0.6902E+16
   -0.206240    0.32995  0.5356E-11  0.1219E-13  0.7603E-17  0.1000E-09  0.0000E+00  0.6769E+16
   -0.274988    0.44314  0.5093E-11  0.1219E-13  0.7603E-17  0.1000E-09  0.0000E+00  0.6617E+16
   -0.343736    0.55762  0.4695E-11  0.1219E-13  0.7603E-17  0.1000E-09  0.0000E+00  0.6448E+16
   -0.412485    0.67321  0.4342E-11  0.1219E-13  0.7603E-17  0.1000E-09  0.0000E+00  0.6263E+16
   -0.481234    0.78973  0.4096E-11  0.1219E-13  0.7603E-17  0.1000E-09  0.0000E+00  0.6065E+16
   -0.549984    0.90699  0.3949E-11  0.1219E-13  0.7603E-17  0.1000E-09  0.0000E+00  0.5855E+16
   -0.618734    1.02482  0.3871E-11  0.1219E-13  0.7603E-17  0.1000E-09  0.0000E+00  0.5636E+16
   -0.687485    1.14309  0.3834E-11  0.1219E-13  0.7603E-17  0.1000E-09  0.0000E+00  0.5409E+16
   -0.756236    1.26167  0.3818E-11  0.1219E-13  0.7603E-17  0.1000E-09  0.0000E+00  0.5177E+16
   -0.824987    1.38044  0.3810E-11  0.1219E-13  0.7603E-17  0.1000E-09  0.0000E+00  0.4940E+16
   -0.893739    1.49931  0.3806E-11  0.1219E-13  0.7603E-17  0.1000E-09  0.0000E+00  0.4700E+16
   -0.962490    1.61816  0.3803E-11  0.1219E-13  0.7603E-17  0.1000E-09  0.0000E+00  0.4458E+16
   -1.031242    1.73692  0.3799E-11  0.1219E-13  0.7603E-17  0.1000E-09  0.0000E+00  0.4214E+16
   -1.099994    1.85550  0.3794E-11  0.1219E-13  0.7603E-17  0.1000E-09  0.0000E+00  0.3970E+16
   -1.168747    1.97384  0.3787E-11  0.1219E-13  0.7603E-17  0.1000E-09  0.0000E+00  0.3727E+16
   -1.237499    2.09189  0.3778E-11  0.1219E-13  0.7603E-17  0.1000E-09  0.0000E+00  0.3486E+16
   -1.306252    2.20960  0.3768E-11  0.1219E-13  0.7603E-17  0.1000E-09  0.0000E+00  0.3246E+16
   -1.375004    2.32694  0.3757E-11  0.1219E-13  0.7603E-17  0.1000E-09  0.0000E+00  0.3010E+16
   -1.443757    2.44392  0.3746E-11  0.1219E-13  0.7603E-17  0.1000E-09  0.0000E+00  0.2776E+16
   -1.512509    2.56053  0.3736E-11  0.1219E-13  0.7603E-17  0.1000E-09  0.0000E+00  0.2546E+16
   -1.581261    2.67679  0.3727E-11  0.1219E-13  0.7603E-17  0.1000E-09  0.0000E+00  0.2318E+16
   -1.650014    2.79269  0.3719E-11  0.2197E-13  0.7603E-17  0.1000E-09  0.0000E+00  0.2094E+16
   -1.718766    2.90827  0.3713E-11  0.7935E-13  0.1461E-16  0.1000E-09  0.0000E+00  0.1872E+16
   -1.787518    3.02349  0.3709E-11  0.2348E-12  0.3841E-16  0.1000E-09  0.0000E+00  0.1634E+16
   -1.856270    3.13697  0.3705E-11  0.6566E-12  0.1029E-15  0.1000E-09  0.0000E+00  0.1403E+16
   -1.925021    3.24840  0.3702E-11  0.1801E-11  0.2732E-15  0.1000E-09  0.0000E+00  0.1179E+16
   -1.993772    3.35733  0.3699E-11  0.4891E-11  0.7200E-15  0.1000E-09  0.0000E+00  0.9687E+15
   -2.062523    3.46376  0.3697E-11  0.1287E-10  0.1840E-14  0.1000E-09  0.0000E+00  0.7861E+15
   -2.131274    3.56986  0.3695E-11  0.3338E-10  0.4636E-14  0.1000E-09  0.0000E+00  0.6072E+15
   -2.200024    3.67591  0.3694E-11  0.8571E-10  0.1157E-13  0.1370E-09  0.0000E+00  0.4293E+15
   -2.268774    3.78194  0.3694E-11  0.2198E-09  0.2884E-13  0.5822E-09  0.0000E+00  0.2516E+15
   -2.337523    3.88770  0.3694E-11  0.5683E-09  0.7253E-13  0.4822E-08  0.0000E+00  0.7609E+14
   -2.406272    3.99047  0.3694E-11  0.1140E-08  0.1452E-12  0.3185E-05  0.0000E+00 -0.4496E+12
   -2.475021    3.99500  0.3694E-11  0.1461E-08  0.2077E-12  0.3989E-05  0.0000E+00 -0.5858E+12
   -2.543768    3.99857  0.3694E-11  0.1670E-08  0.2896E-12  0.3623E-05  0.0000E+00 -0.8608E+12
   -2.612516    4.00245  0.3694E-11  0.1716E-08  0.4412E-12  0.2248E-05  0.0000E+00 -0.1789E+13
   -2.681262    4.00842  0.3694E-11  0.1356E-08  0.1022E-11  0.4376E-06  0.0000E+00 -0.1214E+14
   -2.750008    4.03147  0.3694E-11  0.0000E+00  0.0000E+00  0.0000E+00  0.0000E+00  0.0000E+00
