 1 - depth, m
 2 - temperature, C
 3 - salinity, kg/kg
 4 - turbulent kinetic energy, m**2/s**2
 5 - dissipation rate, m**2/s**3
 6 - kinematic heat conductance, m**2/s
 7 - modulus of horizontal velocity, m/s
 8 - Richardson number, n/d
   -0.000000   -0.00000  0.2611E-12  0.1219E-13  0.7603E-17  0.1000E-09  0.0000E+00  0.7181E+16
   -0.068746    0.10933  0.1085E-11  0.1219E-13  0.7603E-17  0.1000E-09  0.0000E+00  0.7085E+16
   -0.137493    0.22050  0.1606E-11  0.1219E-13  0.7603E-17  0.1000E-09  0.0000E+00  0.6968E+16
   -0.206240    0.33337  0.1774E-11  0.1219E-13  0.7603E-17  0.1000E-09  0.0000E+00  0.6832E+16
   -0.274988    0.44776  0.1737E-11  0.1219E-13  0.7603E-17  0.1000E-09  0.0000E+00  0.6679E+16
   -0.343736    0.56350  0.1622E-11  0.1219E-13  0.7603E-17  0.1000E-09  0.0000E+00  0.6510E+16
   -0.412485    0.68044  0.1502E-11  0.1219E-13  0.7603E-17  0.1000E-09  0.0000E+00  0.6326E+16
   -0.481234    0.79842  0.1411E-11  0.1219E-13  0.7603E-17  0.1000E-09  0.0000E+00  0.6129E+16
   -0.549984    0.91728  0.1353E-11  0.1219E-13  0.7603E-17  0.1000E-09  0.0000E+00  0.5920E+16
   -0.618734    1.03688  0.1320E-11  0.1219E-13  0.7603E-17  0.1000E-09  0.0000E+00  0.5701E+16
   -0.687485    1.15708  0.1303E-11  0.1219E-13  0.7603E-17  0.1000E-09  0.0000E+00  0.5474E+16
   -0.756236    1.27774  0.1296E-11  0.1219E-13  0.7603E-17  0.1000E-09  0.0000E+00  0.5239E+16
   -0.824987    1.39876  0.1292E-11  0.1219E-13  0.7603E-17  0.1000E-09  0.0000E+00  0.4999E+16
   -0.893739    1.52001  0.1290E-11  0.1219E-13  0.7603E-17  0.1000E-09  0.0000E+00  0.4755E+16
   -0.962490    1.64138  0.1289E-11  0.1219E-13  0.7603E-17  0.1000E-09  0.0000E+00  0.4507E+16
   -1.031242    1.76278  0.1288E-11  0.1219E-13  0.7603E-17  0.1000E-09  0.0000E+00  0.4257E+16
   -1.099995    1.88412  0.1286E-11  0.1219E-13  0.7603E-17  0.1000E-09  0.0000E+00  0.4005E+16
   -1.168747    2.00533  0.1284E-11  0.1219E-13  0.7603E-17  0.1000E-09  0.0000E+00  0.3754E+16
   -1.237499    2.12633  0.1281E-11  0.1219E-13  0.7603E-17  0.1000E-09  0.0000E+00  0.3504E+16
   -1.306252    2.24709  0.1278E-11  0.1219E-13  0.7603E-17  0.1000E-09  0.0000E+00  0.3254E+16
   -1.375004    2.36754  0.1274E-11  0.1219E-13  0.7603E-17  0.1000E-09  0.0000E+00  0.3008E+16
   -1.443757    2.48769  0.1271E-11  0.1219E-13  0.7603E-17  0.1000E-09  0.0000E+00  0.2763E+16
   -1.512509    2.60751  0.1267E-11  0.1219E-13  0.7603E-17  0.1000E-09  0.0000E+00  0.2521E+16
   -1.581262    2.72700  0.1264E-11  0.1219E-13  0.7603E-17  0.1000E-09  0.0000E+00  0.2282E+16
   -1.650014    2.84614  0.1261E-11  0.5450E-13  0.1172E-16  0.1000E-09  0.0000E+00  0.2046E+16
   -1.718766    2.96493  0.1259E-11  0.1711E-12  0.3080E-16  0.1000E-09  0.0000E+00  0.1811E+16
   -1.787518    3.08328  0.1257E-11  0.4964E-12  0.8495E-16  0.1000E-09  0.0000E+00  0.1558E+16
   -1.856270    3.19941  0.1256E-11  0.1415E-11  0.2342E-15  0.1000E-09  0.0000E+00  0.1312E+16
   -1.925021    3.31281  0.1255E-11  0.3992E-11  0.6405E-15  0.1000E-09  0.0000E+00  0.1076E+16
   -1.993773    3.42279  0.1254E-11  0.1117E-10  0.1739E-14  0.1000E-09  0.0000E+00  0.8573E+15
   -2.062524    3.52917  0.1253E-11  0.3028E-10  0.4579E-14  0.1000E-09  0.0000E+00  0.6724E+15
   -2.131274    3.63464  0.1253E-11  0.8092E-10  0.1189E-13  0.1224E-09  0.0000E+00  0.4934E+15
   -2.200024    3.73938  0.1252E-11  0.2140E-09  0.3055E-13  0.4877E-09  0.0000E+00  0.3179E+15
   -2.268774    3.84309  0.1252E-11  0.5648E-09  0.7839E-13  0.2697E-08  0.0000E+00  0.1471E+15
   -2.337524    3.94438  0.1252E-11  0.1445E-08  0.1961E-12  0.8896E-07  0.0000E+00  0.1047E+14
   -2.406272    4.00689  0.1252E-11  0.2397E-08  0.3307E-12  0.8046E-05  0.0000E+00 -0.5911E+12
   -2.475021    4.00865  0.1252E-11  0.2746E-08  0.4067E-12  0.7801E-05  0.0000E+00 -0.6575E+12
   -2.543769    4.01046  0.1252E-11  0.2909E-08  0.5026E-12  0.6414E-05  0.0000E+00 -0.8583E+12
   -2.612516    4.01263  0.1252E-11  0.2820E-08  0.6903E-12  0.3738E-05  0.0000E+00 -0.1586E+13
   -2.681263    4.01623  0.1252E-11  0.2028E-08  0.1568E-11  0.5665E-06  0.0000E+00 -0.1122E+14
   -2.750008    4.03456  0.1252E-11  0.0000E+00  0.0000E+00  0.0000E+00  0.0000E+00  0.0000E+00
