 1 - depth, m
 2 - temperature, C
 3 - salinity, kg/kg
 4 - turbulent kinetic energy, m**2/s**2
 5 - dissipation rate, m**2/s**3
 6 - kinematic heat conductance, m**2/s
 7 - modulus of horizontal velocity, m/s
 8 - Richardson number, n/d
   -0.000000   -0.00000  0.1203E-11  0.1219E-13  0.7603E-17  0.1000E-09  0.0000E+00  0.7105E+16
   -0.068746    0.10815  0.4590E-11  0.1219E-13  0.7603E-17  0.1000E-09  0.0000E+00  0.7009E+16
   -0.137493    0.21808  0.6501E-11  0.1219E-13  0.7603E-17  0.1000E-09  0.0000E+00  0.6894E+16
   -0.206240    0.32966  0.7012E-11  0.1219E-13  0.7603E-17  0.1000E-09  0.0000E+00  0.6762E+16
   -0.274988    0.44271  0.6781E-11  0.1219E-13  0.7603E-17  0.1000E-09  0.0000E+00  0.6612E+16
   -0.343736    0.55709  0.6293E-11  0.1219E-13  0.7603E-17  0.1000E-09  0.0000E+00  0.6446E+16
   -0.412485    0.67263  0.5822E-11  0.1219E-13  0.7603E-17  0.1000E-09  0.0000E+00  0.6266E+16
   -0.481234    0.78917  0.5474E-11  0.1219E-13  0.7603E-17  0.1000E-09  0.0000E+00  0.6072E+16
   -0.549984    0.90653  0.5258E-11  0.1219E-13  0.7603E-17  0.1000E-09  0.0000E+00  0.5866E+16
   -0.618734    1.02456  0.5140E-11  0.1219E-13  0.7603E-17  0.1000E-09  0.0000E+00  0.5650E+16
   -0.687485    1.14312  0.5081E-11  0.1219E-13  0.7603E-17  0.1000E-09  0.0000E+00  0.5426E+16
   -0.756236    1.26208  0.5054E-11  0.1219E-13  0.7603E-17  0.1000E-09  0.0000E+00  0.5196E+16
   -0.824987    1.38131  0.5042E-11  0.1219E-13  0.7603E-17  0.1000E-09  0.0000E+00  0.4960E+16
   -0.893739    1.50070  0.5036E-11  0.1219E-13  0.7603E-17  0.1000E-09  0.0000E+00  0.4720E+16
   -0.962490    1.62014  0.5031E-11  0.1219E-13  0.7603E-17  0.1000E-09  0.0000E+00  0.4477E+16
   -1.031242    1.73954  0.5025E-11  0.1219E-13  0.7603E-17  0.1000E-09  0.0000E+00  0.4232E+16
   -1.099995    1.85881  0.5018E-11  0.1219E-13  0.7603E-17  0.1000E-09  0.0000E+00  0.3987E+16
   -1.168747    1.97786  0.5008E-11  0.1219E-13  0.7603E-17  0.1000E-09  0.0000E+00  0.3742E+16
   -1.237499    2.09665  0.4996E-11  0.1219E-13  0.7603E-17  0.1000E-09  0.0000E+00  0.3498E+16
   -1.306252    2.21512  0.4982E-11  0.1219E-13  0.7603E-17  0.1000E-09  0.0000E+00  0.3256E+16
   -1.375004    2.33322  0.4967E-11  0.1219E-13  0.7603E-17  0.1000E-09  0.0000E+00  0.3016E+16
   -1.443757    2.45096  0.4952E-11  0.1219E-13  0.7603E-17  0.1000E-09  0.0000E+00  0.2779E+16
   -1.512509    2.56832  0.4938E-11  0.1219E-13  0.7603E-17  0.1000E-09  0.0000E+00  0.2546E+16
   -1.581262    2.68529  0.4926E-11  0.1219E-13  0.7603E-17  0.1000E-09  0.0000E+00  0.2315E+16
   -1.650014    2.80187  0.4916E-11  0.3605E-13  0.8117E-17  0.1000E-09  0.0000E+00  0.2087E+16
   -1.718766    2.91807  0.4908E-11  0.1112E-12  0.1946E-16  0.1000E-09  0.0000E+00  0.1862E+16
   -1.787518    3.03385  0.4901E-11  0.3179E-12  0.5219E-16  0.1000E-09  0.0000E+00  0.1620E+16
   -1.856270    3.14771  0.4896E-11  0.8883E-12  0.1408E-15  0.1000E-09  0.0000E+00  0.1385E+16
   -1.925021    3.25928  0.4892E-11  0.2451E-11  0.3765E-15  0.1000E-09  0.0000E+00  0.1159E+16
   -1.993773    3.36808  0.4889E-11  0.6709E-11  0.9997E-15  0.1000E-09  0.0000E+00  0.9470E+15
   -2.062523    3.47408  0.4886E-11  0.1779E-10  0.2574E-14  0.1000E-09  0.0000E+00  0.7654E+15
   -2.131274    3.57966  0.4885E-11  0.4649E-10  0.6532E-14  0.1000E-09  0.0000E+00  0.5880E+15
   -2.200024    3.68512  0.4884E-11  0.1203E-09  0.1641E-13  0.2025E-09  0.0000E+00  0.4118E+15
   -2.268774    3.79047  0.4883E-11  0.3106E-09  0.4119E-13  0.8854E-09  0.0000E+00  0.2362E+15
   -2.337524    3.89537  0.4883E-11  0.8067E-09  0.1041E-12  0.8181E-08  0.0000E+00  0.6420E+14
   -2.406272    3.99529  0.4883E-11  0.1508E-08  0.1950E-12  0.4780E-05  0.0000E+00 -0.4959E+12
   -2.475021    3.99831  0.4883E-11  0.1816E-08  0.2572E-12  0.5116E-05  0.0000E+00 -0.5882E+12
   -2.543769    4.00112  0.4883E-11  0.1994E-08  0.3392E-12  0.4398E-05  0.0000E+00 -0.8251E+12
   -2.612516    4.00433  0.4883E-11  0.1991E-08  0.4971E-12  0.2630E-05  0.0000E+00 -0.1666E+13
   -2.681262    4.00949  0.4883E-11  0.1521E-08  0.1152E-11  0.4721E-06  0.0000E+00 -0.1183E+14
   -2.750008    4.03156  0.4883E-11  0.0000E+00  0.0000E+00  0.0000E+00  0.0000E+00  0.0000E+00
