 1 - depth, m
 2 - temperature, C
 3 - salinity, kg/kg
 4 - turbulent kinetic energy, m**2/s**2
 5 - dissipation rate, m**2/s**3
 6 - kinematic heat conductance, m**2/s
 7 - modulus of horizontal velocity, m/s
 8 - Richardson number, n/d
   -0.000000   -0.00000  0.1942E-11  0.1219E-13  0.7603E-17  0.1000E-09  0.0000E+00  0.6971E+16
   -0.068746    0.10608  0.7643E-11  0.1219E-13  0.7603E-17  0.1000E-09  0.0000E+00  0.6883E+16
   -0.137493    0.21394  0.1103E-10  0.1219E-13  0.7603E-17  0.1000E-09  0.0000E+00  0.6774E+16
   -0.206240    0.32341  0.1202E-10  0.1219E-13  0.7603E-17  0.1000E-09  0.0000E+00  0.6648E+16
   -0.274988    0.43432  0.1169E-10  0.1219E-13  0.7603E-17  0.1000E-09  0.0000E+00  0.6504E+16
   -0.343736    0.54651  0.1087E-10  0.1219E-13  0.7603E-17  0.1000E-09  0.0000E+00  0.6345E+16
   -0.412485    0.65983  0.1006E-10  0.1219E-13  0.7603E-17  0.1000E-09  0.0000E+00  0.6172E+16
   -0.481234    0.77411  0.9454E-11  0.1219E-13  0.7603E-17  0.1000E-09  0.0000E+00  0.5987E+16
   -0.549984    0.88921  0.9074E-11  0.1219E-13  0.7603E-17  0.1000E-09  0.0000E+00  0.5790E+16
   -0.618734    1.00497  0.8864E-11  0.1219E-13  0.7603E-17  0.1000E-09  0.0000E+00  0.5583E+16
   -0.687485    1.12126  0.8759E-11  0.1219E-13  0.7603E-17  0.1000E-09  0.0000E+00  0.5369E+16
   -0.756236    1.23794  0.8710E-11  0.1219E-13  0.7603E-17  0.1000E-09  0.0000E+00  0.5148E+16
   -0.824987    1.35492  0.8688E-11  0.1219E-13  0.7603E-17  0.1000E-09  0.0000E+00  0.4921E+16
   -0.893739    1.47206  0.8677E-11  0.1219E-13  0.7603E-17  0.1000E-09  0.0000E+00  0.4691E+16
   -0.962490    1.58926  0.8670E-11  0.1219E-13  0.7603E-17  0.1000E-09  0.0000E+00  0.4457E+16
   -1.031242    1.70643  0.8661E-11  0.1219E-13  0.7603E-17  0.1000E-09  0.0000E+00  0.4221E+16
   -1.099995    1.82348  0.8649E-11  0.1219E-13  0.7603E-17  0.1000E-09  0.0000E+00  0.3985E+16
   -1.168747    1.94034  0.8634E-11  0.1219E-13  0.7603E-17  0.1000E-09  0.0000E+00  0.3748E+16
   -1.237499    2.05694  0.8615E-11  0.1219E-13  0.7603E-17  0.1000E-09  0.0000E+00  0.3513E+16
   -1.306252    2.17324  0.8592E-11  0.1219E-13  0.7603E-17  0.1000E-09  0.0000E+00  0.3278E+16
   -1.375004    2.28917  0.8568E-11  0.1219E-13  0.7603E-17  0.1000E-09  0.0000E+00  0.3047E+16
   -1.443757    2.40476  0.8543E-11  0.1219E-13  0.7603E-17  0.1000E-09  0.0000E+00  0.2818E+16
   -1.512509    2.51997  0.8519E-11  0.1219E-13  0.7603E-17  0.1000E-09  0.0000E+00  0.2592E+16
   -1.581262    2.63480  0.8498E-11  0.1219E-13  0.7603E-17  0.1000E-09  0.0000E+00  0.2369E+16
   -1.650014    2.74924  0.8481E-11  0.1219E-13  0.7603E-17  0.1000E-09  0.0000E+00  0.2148E+16
   -1.718766    2.86328  0.8466E-11  0.1219E-13  0.7603E-17  0.1000E-09  0.0000E+00  0.1930E+16
   -1.787518    2.97687  0.8455E-11  0.3039E-13  0.8635E-17  0.1000E-09  0.0000E+00  0.1695E+16
   -1.856270    3.08861  0.8446E-11  0.1076E-12  0.2500E-16  0.1000E-09  0.0000E+00  0.1466E+16
   -1.925021    3.19814  0.8439E-11  0.3592E-12  0.7919E-16  0.1000E-09  0.0000E+00  0.1244E+16
   -1.993773    3.30496  0.8433E-11  0.1171E-11  0.2490E-15  0.1000E-09  0.0000E+00  0.1036E+16
   -2.062523    3.40900  0.8428E-11  0.3671E-11  0.7548E-15  0.1000E-09  0.0000E+00  0.8590E+15
   -2.131274    3.51247  0.8424E-11  0.1131E-10  0.2249E-14  0.1000E-09  0.0000E+00  0.6868E+15
   -2.200024    3.61561  0.8422E-11  0.3436E-10  0.6617E-14  0.1000E-09  0.0000E+00  0.5170E+15
   -2.268774    3.71846  0.8421E-11  0.1040E-09  0.1940E-13  0.2818E-09  0.0000E+00  0.3489E+15
   -2.337524    3.82093  0.8421E-11  0.3170E-09  0.5729E-13  0.1586E-08  0.0000E+00  0.1824E+15
   -2.406272    3.92224  0.8420E-11  0.9518E-09  0.1672E-12  0.2835E-07  0.0000E+00  0.2872E+14
   -2.475021    4.00731  0.8420E-11  0.1992E-08  0.3534E-12  0.5070E-05  0.0000E+00 -0.9677E+12
   -2.543769    4.01007  0.8420E-11  0.2331E-08  0.4673E-12  0.4642E-05  0.0000E+00 -0.1179E+13
   -2.612516    4.01305  0.8420E-11  0.2375E-08  0.6542E-12  0.2944E-05  0.0000E+00 -0.2066E+13
   -2.681262    4.01760  0.8420E-11  0.1796E-08  0.1423E-11  0.5281E-06  0.0000E+00 -0.1283E+14
   -2.750008    4.03747  0.8420E-11  0.0000E+00  0.0000E+00  0.0000E+00  0.0000E+00  0.0000E+00
