 1 - depth, m
 2 - temperature, C
 3 - salinity, kg/kg
 4 - turbulent kinetic energy, m**2/s**2
 5 - dissipation rate, m**2/s**3
 6 - kinematic heat conductance, m**2/s
 7 - modulus of horizontal velocity, m/s
 8 - Richardson number, n/d
   -0.000000   -0.00000  0.1448E-10  0.1219E-13  0.7603E-17  0.1000E-09  0.0000E+00  0.7980E+16
   -0.068746    0.12169  0.8725E-11  0.1219E-13  0.7603E-17  0.1000E-09  0.0000E+00  0.7660E+16
   -0.137492    0.24248  0.6264E-11  0.1219E-13  0.7603E-17  0.1000E-09  0.0000E+00  0.7363E+16
   -0.206239    0.36263  0.5392E-11  0.1219E-13  0.7603E-17  0.1000E-09  0.0000E+00  0.7086E+16
   -0.274987    0.48240  0.5128E-11  0.1219E-13  0.7603E-17  0.1000E-09  0.0000E+00  0.6827E+16
   -0.343735    0.60204  0.5059E-11  0.1219E-13  0.7603E-17  0.1000E-09  0.0000E+00  0.6583E+16
   -0.412483    0.72180  0.5042E-11  0.1219E-13  0.7603E-17  0.1000E-09  0.0000E+00  0.6352E+16
   -0.481232    0.84192  0.5039E-11  0.1219E-13  0.7603E-17  0.1000E-09  0.0000E+00  0.6131E+16
   -0.549982    0.96264  0.5038E-11  0.1219E-13  0.7603E-17  0.1000E-09  0.0000E+00  0.5918E+16
   -0.618732    1.08417  0.5038E-11  0.1219E-13  0.7603E-17  0.1000E-09  0.0000E+00  0.5710E+16
   -0.687482    1.20672  0.5038E-11  0.1219E-13  0.7603E-17  0.1000E-09  0.0000E+00  0.5515E+16
   -0.756233    1.33070  0.5038E-11  0.1219E-13  0.7603E-17  0.1000E-09  0.0000E+00  0.5324E+16
   -0.824984    1.45642  0.5037E-11  0.1219E-13  0.7603E-17  0.1000E-09  0.0000E+00  0.5128E+16
   -0.893735    1.58399  0.5037E-11  0.1219E-13  0.7603E-17  0.1000E-09  0.0000E+00  0.4926E+16
   -0.962487    1.71354  0.5035E-11  0.1601E-13  0.7603E-17  0.1000E-09  0.0000E+00  0.4714E+16
   -1.031239    1.84515  0.5031E-11  0.6796E-13  0.1089E-16  0.1000E-09  0.0000E+00  0.4492E+16
   -1.099990    1.97885  0.5023E-11  0.1889E-12  0.2453E-16  0.1000E-09  0.0000E+00  0.4257E+16
   -1.168742    2.11468  0.5010E-11  0.4652E-12  0.5698E-16  0.1000E-09  0.0000E+00  0.4009E+16
   -1.237495    2.25261  0.4991E-11  0.1102E-11  0.1307E-15  0.1000E-09  0.0000E+00  0.3747E+16
   -1.306247    2.39260  0.4969E-11  0.2566E-11  0.2958E-15  0.1000E-09  0.0000E+00  0.3470E+16
   -1.374999    2.53457  0.4946E-11  0.5902E-11  0.6622E-15  0.1000E-09  0.0000E+00  0.3181E+16
   -1.443751    2.67855  0.4928E-11  0.1343E-10  0.1468E-14  0.1000E-09  0.0000E+00  0.2878E+16
   -1.512503    2.82445  0.4915E-11  0.3024E-10  0.3220E-14  0.1000E-09  0.0000E+00  0.2560E+16
   -1.581256    2.97209  0.4907E-11  0.6743E-10  0.6996E-14  0.1000E-09  0.0000E+00  0.2229E+16
   -1.650008    3.12126  0.4901E-11  0.1489E-09  0.1506E-13  0.1000E-09  0.0000E+00  0.1885E+16
   -1.718759    3.27172  0.4898E-11  0.3256E-09  0.3211E-13  0.1066E-09  0.0000E+00  0.1532E+16
   -1.787511    3.42331  0.4894E-11  0.7221E-09  0.6942E-13  0.2976E-09  0.0000E+00  0.1187E+16
   -1.856263    3.57813  0.4890E-11  0.1614E-08  0.1514E-12  0.9411E-09  0.0000E+00  0.8183E+15
   -1.925014    3.73594  0.4885E-11  0.3596E-08  0.3292E-12  0.3928E-08  0.0000E+00  0.4262E+15
   -1.993765    3.89453  0.4882E-11  0.7758E-08  0.6958E-12  0.5811E-07  0.0000E+00  0.6061E+14
   -2.062516    4.01260  0.4882E-11  0.8698E-08  0.7845E-12  0.4015E-04  0.0000E+00 -0.2428E+12
   -2.131266    4.01318  0.4882E-11  0.9086E-08  0.8306E-12  0.4037E-04  0.0000E+00 -0.2469E+12
   -2.200016    4.01376  0.4882E-11  0.9388E-08  0.8794E-12  0.3971E-04  0.0000E+00 -0.2566E+12
   -2.268766    4.01435  0.4882E-11  0.9609E-08  0.9344E-12  0.3815E-04  0.0000E+00 -0.2733E+12
   -2.337515    4.01497  0.4882E-11  0.9756E-08  0.1003E-11  0.3550E-04  0.0000E+00 -0.3011E+12
   -2.406263    4.01563  0.4882E-11  0.9819E-08  0.1095E-11  0.3160E-04  0.0000E+00 -0.3477E+12
   -2.475011    4.01638  0.4882E-11  0.9774E-08  0.1235E-11  0.2619E-04  0.0000E+00 -0.4333E+12
   -2.543759    4.01729  0.4882E-11  0.9559E-08  0.1485E-11  0.1906E-04  0.0000E+00 -0.6215E+12
   -2.612506    4.01854  0.4882E-11  0.8977E-08  0.2092E-11  0.1018E-04  0.0000E+00 -0.1250E+13
   -2.681252    4.02093  0.4882E-11  0.6477E-08  0.5848E-11  0.1335E-05  0.0000E+00 -0.1230E+14
   -2.749998    4.03894  0.4882E-11  0.0000E+00  0.0000E+00  0.0000E+00  0.0000E+00  0.0000E+00
