 1 - depth, m
 2 - temperature, C
 3 - salinity, kg/kg
 4 - turbulent kinetic energy, m**2/s**2
 5 - dissipation rate, m**2/s**3
 6 - kinematic heat conductance, m**2/s
 7 - modulus of horizontal velocity, m/s
 8 - Richardson number, n/d
   -0.000000   -0.00000  0.9689E-10  0.4239E-09  0.4013E-12  0.3575E-09  0.8636E-25  0.5586E+16
   -0.068746    0.08476  0.6314E-10  0.2890E-08  0.2661E-12  0.3132E-09  0.8055E-25  0.4300E+16
   -0.137492    0.15137  0.5734E-10  0.6868E-08  0.2552E-12  0.4223E-09  0.7192E-25  0.3097E+16
   -0.206239    0.20011  0.5637E-10  0.1199E-07  0.2829E-12  0.7147E-09  0.6140E-25  0.2066E+16
   -0.274986    0.23301  0.5625E-10  0.1805E-07  0.3303E-12  0.1418E-08  0.5047E-25  0.1255E+16
   -0.343734    0.25315  0.5624E-10  0.2486E-07  0.3896E-12  0.3337E-08  0.4007E-25  0.6713E+15
   -0.412483    0.26396  0.5624E-10  0.3212E-07  0.4545E-12  0.1072E-07  0.3066E-25  0.2939E+15
   -0.481232    0.26871  0.5624E-10  0.3721E-07  0.4981E-12  0.9264E-05  0.2270E-25  0.8604E+14
   -0.549981    0.27011  0.5624E-10  0.3868E-07  0.5093E-12  0.5356E-03  0.2205E-25  0.1350E+14
   -0.618731    0.27032  0.5624E-10  0.3879E-07  0.5101E-12  0.8389E-03  0.2204E-25  0.2308E+12
   -0.687482    0.27033  0.5624E-10  0.3880E-07  0.5102E-12  0.9272E-03  0.2204E-25 -0.6647E+10
   -0.756232    0.27033  0.5624E-10  0.3880E-07  0.5102E-12  0.9179E-03  0.2203E-25 -0.5734E+10
   -0.824983    0.27033  0.5624E-10  0.3879E-07  0.5101E-12  0.7853E-03  0.2202E-25  0.1025E+13
   -0.893734    0.27034  0.5624E-10  0.3863E-07  0.5087E-12  0.4350E-03  0.2202E-25  0.1755E+14
   -0.962486    0.27063  0.5624E-10  0.3733E-07  0.4963E-12  0.2982E-06  0.2201E-25  0.8521E+14
   -1.031237    0.27201  0.5624E-10  0.3304E-07  0.4495E-12  0.1261E-07  0.2117E-25  0.2543E+15
   -1.099989    0.27613  0.5624E-10  0.2778E-07  0.3889E-12  0.4227E-08  0.1796E-25  0.5511E+15
   -1.168741    0.28507  0.5624E-10  0.2292E-07  0.3302E-12  0.1819E-08  0.1491E-25  0.1015E+16
   -1.237493    0.30159  0.5624E-10  0.1861E-07  0.2760E-12  0.8850E-09  0.1222E-25  0.1679E+16
   -1.306245    0.32910  0.5622E-10  0.1490E-07  0.2274E-12  0.4672E-09  0.9872E-26  0.2561E+16
   -1.374998    0.37149  0.5616E-10  0.1178E-07  0.1851E-12  0.2573E-09  0.7840E-26  0.3727E+16
   -1.443750    0.43414  0.5592E-10  0.9199E-08  0.1489E-12  0.1560E-09  0.6075E-26  0.5070E+16
   -1.512502    0.52128  0.5545E-10  0.7110E-08  0.1186E-12  0.1120E-09  0.4530E-26  0.6478E+16
   -1.581254    0.63610  0.5520E-10  0.5447E-08  0.9384E-13  0.1000E-09  0.3158E-26  0.7844E+16
   -1.650006    0.78095  0.5514E-10  0.4147E-08  0.7392E-13  0.1000E-09  0.1913E-26  0.9060E+16
   -1.718758    0.95734  0.5510E-10  0.3152E-08  0.5835E-13  0.1000E-09  0.7496E-27  0.9966E+16
   -1.787509    1.16475  0.5507E-10  0.2376E-08  0.4607E-13  0.1000E-09  0.5089E-28  0.9311E+16
   -1.856261    1.37414  0.5505E-10  0.1749E-08  0.3620E-13  0.1000E-09  0.3182E-29  0.8622E+16
   -1.925012    1.58504  0.5504E-10  0.1239E-08  0.2852E-13  0.1000E-09  0.1816E-30  0.7933E+16
   -1.993763    1.79776  0.5504E-10  0.8216E-09  0.2301E-13  0.1000E-09  0.1129E-31  0.7483E+16
   -2.062514    2.02018  0.5504E-10  0.5000E-09  0.2029E-13  0.1000E-09  0.9134E-33  0.7756E+16
   -2.131264    2.28210  0.5502E-10  0.2732E-09  0.2185E-13  0.1000E-09  0.6911E-34  0.7555E+16
   -2.200014    2.58492  0.5497E-10  0.1640E-09  0.3372E-13  0.1000E-09  0.4859E-35  0.6649E+16
   -2.268763    2.92232  0.5490E-10  0.2648E-09  0.8927E-13  0.1005E-09  0.2329E-36  0.5094E+16
   -2.337512    3.28544  0.5471E-10  0.9847E-09  0.3434E-12  0.5684E-09  0.9142E-38  0.3055E+16
   -2.406261    3.66297  0.5442E-10  0.4169E-08  0.1404E-11  0.8823E-08  0.3061E-39  0.8093E+15
   -2.475009    4.02527  0.5441E-10  0.8984E-08  0.3046E-11  0.1055E-04  0.7838E-41 -0.3333E+13
   -2.543756    4.03048  0.5441E-10  0.1052E-07  0.4084E-11  0.9902E-05  0.9693E-42 -0.4209E+13
   -2.612503    4.03626  0.5441E-10  0.1131E-07  0.6133E-11  0.6840E-05  0.9211E-43 -0.7786E+13
   -2.681250    4.04545  0.5441E-10  0.1077E-07  0.1564E-10  0.2048E-05  0.4643E-44 -0.4985E+14
   -2.749995    4.08567  0.5441E-10  0.0000E+00  0.0000E+00  0.0000E+00  0.4936E-44  0.0000E+00
