 1 - depth, m
 2 - temperature, C
 3 - salinity, kg/kg
 4 - turbulent kinetic energy, m**2/s**2
 5 - dissipation rate, m**2/s**3
 6 - kinematic heat conductance, m**2/s
 7 - modulus of horizontal velocity, m/s
 8 - Richardson number, n/d
   -0.000000   14.60460  0.9750E-12  0.1466E-04  0.6327E-06  0.3497E-04  0.2621E-01 -0.3091E-01
   -0.068746   14.63073  0.9750E-12  0.1401E-04  0.2272E-06  0.9577E-04  0.1710E-01 -0.8158E-01
   -0.137492   14.63968  0.9750E-12  0.1358E-04  0.1317E-06  0.1683E-03  0.1383E-01 -0.1380E+00
   -0.206239   14.64451  0.9750E-12  0.1331E-04  0.9100E-07  0.2536E-03  0.1199E-01 -0.1981E+00
   -0.274987   14.64756  0.9750E-12  0.1316E-04  0.6926E-07  0.3788E-03  0.1077E-01 -0.8942E-01
   -0.343735   14.64954  0.9750E-12  0.1309E-04  0.5681E-07  0.7704E-03  0.9909E-02  0.1935E+03
   -0.412484   14.65049  0.9750E-12  0.1312E-04  0.4921E-07  0.1153E-02  0.9312E-02  0.6538E+01
   -0.481233   14.65110  0.9750E-12  0.1322E-04  0.4366E-07  0.1191E-02  0.8809E-02  0.7250E+01
   -0.549983   14.65166  0.9750E-12  0.1335E-04  0.3923E-07  0.1277E-02  0.8318E-02  0.7901E+01
   -0.618733   14.65217  0.9750E-12  0.1350E-04  0.3572E-07  0.1342E-02  0.7864E-02  0.8203E+01
   -0.687483   14.65265  0.9750E-12  0.1366E-04  0.3286E-07  0.1411E-02  0.7434E-02  0.8535E+01
   -0.756234   14.65310  0.9750E-12  0.1381E-04  0.3051E-07  0.1477E-02  0.7025E-02  0.8826E+01
   -0.824985   14.65352  0.9750E-12  0.1396E-04  0.2854E-07  0.1542E-02  0.6633E-02  0.9120E+01
   -0.893736   14.65391  0.9750E-12  0.1409E-04  0.2688E-07  0.1605E-02  0.6256E-02  0.9409E+01
   -0.962488   14.65429  0.9750E-12  0.1421E-04  0.2546E-07  0.1667E-02  0.5889E-02  0.9703E+01
   -1.031240   14.65465  0.9750E-12  0.1431E-04  0.2425E-07  0.1727E-02  0.5532E-02  0.1000E+02
   -1.099992   14.65500  0.9750E-12  0.1438E-04  0.2320E-07  0.1783E-02  0.5183E-02  0.1031E+02
   -1.168744   14.65533  0.9750E-12  0.1443E-04  0.2229E-07  0.1836E-02  0.4840E-02  0.1063E+02
   -1.237496   14.65565  0.9750E-12  0.1444E-04  0.2151E-07  0.1882E-02  0.4501E-02  0.1097E+02
   -1.306248   14.65597  0.9750E-12  0.1442E-04  0.2083E-07  0.1920E-02  0.4166E-02  0.1135E+02
   -1.375001   14.65627  0.9750E-12  0.1437E-04  0.2025E-07  0.1948E-02  0.3834E-02  0.1179E+02
   -1.443753   14.65658  0.9750E-12  0.1427E-04  0.1975E-07  0.1962E-02  0.3504E-02  0.1231E+02
   -1.512505   14.65688  0.9750E-12  0.1412E-04  0.1933E-07  0.1961E-02  0.3175E-02  0.1298E+02
   -1.581257   14.65718  0.9750E-12  0.1393E-04  0.1897E-07  0.1942E-02  0.2847E-02  0.1384E+02
   -1.650010   14.65749  0.9750E-12  0.1368E-04  0.1868E-07  0.1905E-02  0.2517E-02  0.1501E+02
   -1.718762   14.65780  0.9750E-12  0.1337E-04  0.1844E-07  0.1845E-02  0.2187E-02  0.1553E+02
   -1.787513   14.65813  0.9750E-12  0.1300E-04  0.1825E-07  0.1803E-02  0.1855E-02  0.6283E+01
   -1.856265   14.65846  0.9750E-12  0.1258E-04  0.1816E-07  0.1780E-02  0.1575E-02  0.3509E+01
   -1.925016   14.65879  0.9750E-12  0.1213E-04  0.1823E-07  0.1786E-02  0.1341E-02  0.2270E+01
   -1.993767   14.65913  0.9750E-12  0.1168E-04  0.1848E-07  0.1826E-02  0.1149E-02  0.1683E+01
   -2.062518   14.65946  0.9750E-12  0.1124E-04  0.1894E-07  0.1866E-02  0.9922E-03  0.1403E+01
   -2.131269   14.65978  0.9750E-12  0.1083E-04  0.1963E-07  0.1800E-02  0.8573E-03  0.1173E+01
   -2.200019   14.66012  0.9750E-12  0.1045E-04  0.2057E-07  0.1617E-02  0.7408E-03  0.9766E+00
   -2.268768   14.66049  0.9750E-12  0.1010E-04  0.2179E-07  0.1434E-02  0.6412E-03  0.7931E+00
   -2.337517   14.66092  0.9750E-12  0.9771E-05  0.2346E-07  0.1267E-02  0.5597E-03  0.7198E+00
   -2.406266   14.66140  0.9750E-12  0.9425E-05  0.2600E-07  0.1167E-02  0.4928E-03  0.3126E+02
   -2.475014   14.66193  0.9750E-12  0.8963E-05  0.3145E-07  0.9113E-03  0.4332E-03  0.2019E+03
   -2.543762   14.66284  0.9750E-12  0.8222E-05  0.4336E-07  0.7397E-03  0.3585E-03  0.1385E+03
   -2.612509   14.66386  0.9750E-12  0.6850E-05  0.7814E-07  0.3830E-03  0.2869E-03  0.2787E+04
   -2.681256   14.66798  0.9750E-12  0.4179E-05  0.2460E-06  0.1092E-03  0.1741E-03 -0.6060E+04
   -2.750001   14.67564  0.9750E-12  0.0000E+00  0.0000E+00  0.0000E+00  0.2340E-03  0.0000E+00
