 1 - depth, m
 2 - temperature, C
 3 - salinity, kg/kg
 4 - turbulent kinetic energy, m**2/s**2
 5 - dissipation rate, m**2/s**3
 6 - kinematic heat conductance, m**2/s
 7 - modulus of horizontal velocity, m/s
 8 - Richardson number, n/d
   -0.000000   -0.00000  0.2612E-11  0.1219E-13  0.7603E-17  0.1000E-09  0.0000E+00  0.4884E+16
   -0.068746    0.07401  0.1371E-11  0.1219E-13  0.7603E-17  0.1000E-09  0.0000E+00  0.4689E+16
   -0.137492    0.14648  0.1068E-11  0.1219E-13  0.7603E-17  0.1000E-09  0.0000E+00  0.4534E+16
   -0.206239    0.21798  0.1001E-11  0.1219E-13  0.7603E-17  0.1000E-09  0.0000E+00  0.4418E+16
   -0.274986    0.28907  0.9880E-12  0.1219E-13  0.7603E-17  0.1000E-09  0.0000E+00  0.4340E+16
   -0.343735    0.36034  0.9857E-12  0.1219E-13  0.7603E-17  0.1000E-09  0.0000E+00  0.4297E+16
   -0.412483    0.43240  0.9854E-12  0.1219E-13  0.7603E-17  0.1000E-09  0.0000E+00  0.4286E+16
   -0.481232    0.50586  0.9853E-12  0.1219E-13  0.7603E-17  0.1000E-09  0.0000E+00  0.4304E+16
   -0.549982    0.58132  0.9853E-12  0.1219E-13  0.7603E-17  0.1000E-09  0.0000E+00  0.4349E+16
   -0.618732    0.65941  0.9853E-12  0.1219E-13  0.7603E-17  0.1000E-09  0.0000E+00  0.4416E+16
   -0.687482    0.74072  0.9853E-12  0.1219E-13  0.7603E-17  0.1000E-09  0.0000E+00  0.4515E+16
   -0.756233    0.82616  0.9853E-12  0.1219E-13  0.7603E-17  0.1000E-09  0.0000E+00  0.4635E+16
   -0.824984    0.91647  0.9853E-12  0.1219E-13  0.7603E-17  0.1000E-09  0.0000E+00  0.4761E+16
   -0.893735    1.01223  0.9853E-12  0.1219E-13  0.7603E-17  0.1000E-09  0.0000E+00  0.4884E+16
   -0.962486    1.11396  0.9853E-12  0.1219E-13  0.7603E-17  0.1000E-09  0.0000E+00  0.5000E+16
   -1.031238    1.22217  0.9851E-12  0.1219E-13  0.7603E-17  0.1000E-09  0.0000E+00  0.5101E+16
   -1.099990    1.33733  0.9846E-12  0.1219E-13  0.7603E-17  0.1000E-09  0.0000E+00  0.5178E+16
   -1.168742    1.45983  0.9831E-12  0.5681E-13  0.1083E-16  0.1000E-09  0.0000E+00  0.5223E+16
   -1.237494    1.59003  0.9798E-12  0.1699E-12  0.2627E-16  0.1000E-09  0.0000E+00  0.5230E+16
   -1.306246    1.72821  0.9745E-12  0.4488E-12  0.6570E-16  0.1000E-09  0.0000E+00  0.5189E+16
   -1.374998    1.87458  0.9682E-12  0.1143E-11  0.1619E-15  0.1000E-09  0.0000E+00  0.5107E+16
   -1.443750    2.02969  0.9634E-12  0.2860E-11  0.3936E-15  0.1000E-09  0.0000E+00  0.4963E+16
   -1.512503    2.19369  0.9606E-12  0.7067E-11  0.9453E-15  0.1000E-09  0.0000E+00  0.4746E+16
   -1.581255    2.36645  0.9591E-12  0.1726E-10  0.2245E-14  0.1000E-09  0.0000E+00  0.4450E+16
   -1.650007    2.54772  0.9580E-12  0.4166E-10  0.5273E-14  0.1000E-09  0.0000E+00  0.4073E+16
   -1.718759    2.73708  0.9573E-12  0.9947E-10  0.1225E-13  0.1000E-09  0.0000E+00  0.3616E+16
   -1.787510    2.93402  0.9569E-12  0.2409E-09  0.2888E-13  0.1000E-09  0.0000E+00  0.3100E+16
   -1.856262    3.13927  0.9567E-12  0.5873E-09  0.6856E-13  0.1393E-09  0.0000E+00  0.2506E+16
   -1.925013    3.35285  0.9564E-12  0.1427E-08  0.1623E-12  0.4514E-09  0.0000E+00  0.1830E+16
   -1.993764    3.57452  0.9557E-12  0.3452E-08  0.3825E-12  0.1826E-08  0.0000E+00  0.1067E+16
   -2.062515    3.80183  0.9538E-12  0.8053E-08  0.8713E-12  0.1689E-07  0.0000E+00  0.2628E+15
   -2.131265    4.00984  0.9531E-12  0.9301E-08  0.1013E-11  0.3493E-04  0.0000E+00 -0.3514E+12
   -2.200015    4.01078  0.9531E-12  0.9806E-08  0.1087E-11  0.3546E-04  0.0000E+00 -0.3614E+12
   -2.268764    4.01170  0.9531E-12  0.1020E-07  0.1169E-11  0.3493E-04  0.0000E+00 -0.3828E+12
   -2.337513    4.01265  0.9531E-12  0.1048E-07  0.1267E-11  0.3320E-04  0.0000E+00 -0.4205E+12
   -2.406262    4.01365  0.9531E-12  0.1067E-07  0.1396E-11  0.3012E-04  0.0000E+00 -0.4854E+12
   -2.475010    4.01476  0.9531E-12  0.1072E-07  0.1587E-11  0.2545E-04  0.0000E+00 -0.6057E+12
   -2.543758    4.01609  0.9531E-12  0.1058E-07  0.1920E-11  0.1892E-04  0.0000E+00 -0.8711E+12
   -2.612505    4.01790  0.9531E-12  0.1004E-07  0.2712E-11  0.1043E-04  0.0000E+00 -0.1757E+13
   -2.681251    4.02128  0.9531E-12  0.7571E-08  0.7384E-11  0.1585E-05  0.0000E+00 -0.1660E+14
   -2.749997    4.04413  0.9531E-12  0.0000E+00  0.0000E+00  0.0000E+00  0.0000E+00  0.0000E+00
