 1 - depth, m
 2 - temperature, C
 3 - salinity, kg/kg
 4 - turbulent kinetic energy, m**2/s**2
 5 - dissipation rate, m**2/s**3
 6 - kinematic heat conductance, m**2/s
 7 - modulus of horizontal velocity, m/s
 8 - Richardson number, n/d
   -0.000000   -0.00000  0.3787E-12  0.1912E-04  0.1713E-05  0.3607E-04  0.5084E-01  0.6604E-01
   -0.068750    0.07136  0.3799E-12  0.1510E-04  0.4986E-06  0.5384E-04  0.4038E-01  0.1307E+00
   -0.137500    0.17776  0.3815E-12  0.1301E-04  0.2481E-06  0.6367E-04  0.3526E-01  0.2810E+00
   -0.206252    0.29995  0.3843E-12  0.1137E-04  0.1560E-06  0.6820E-04  0.3129E-01  0.1044E+01
   -0.275003    0.41847  0.3909E-12  0.9989E-05  0.1109E-06  0.6871E-04  0.2797E-01  0.5897E+01
   -0.343756    0.52052  0.4793E-12  0.8767E-05  0.8407E-07  0.6616E-04  0.2511E-01  0.1590E+02
   -0.412508    0.60234  0.7031E-12  0.7650E-05  0.6608E-07  0.1090E-03  0.2262E-01  0.3784E+06
   -0.481262    0.67188  0.7507E-12  0.6624E-05  0.5305E-07  0.1052E-03  0.2046E-01  0.7313E+04
   -0.550015    0.73530  0.7850E-12  0.5678E-05  0.4313E-07  0.9994E-04  0.1850E-01  0.1559E+05
   -0.618770    0.79503  0.8143E-12  0.4804E-05  0.3532E-07  0.9365E-04  0.1671E-01  0.6956E+05
   -0.687524    0.85242  0.8408E-12  0.3995E-05  0.2899E-07  0.6351E-04  0.1504E-01  0.3375E+04
   -0.756279    0.90869  0.8931E-12  0.3244E-05  0.2379E-07  0.2287E-04  0.1345E-01  0.2461E+06
   -0.825034    0.96962  0.1048E-11  0.2548E-05  0.1946E-07  0.1559E-04  0.1192E-01  0.1541E+08
   -0.893790    1.04257  0.1196E-11  0.1912E-05  0.1586E-07  0.9515E-05  0.1042E-01  0.1025E+10
   -0.962545    1.12864  0.1219E-11  0.1332E-05  0.1290E-07  0.4943E-05  0.8935E-02  0.7646E+11
   -1.031301    1.23384  0.1218E-11  0.8020E-06  0.1050E-07  0.2013E-05  0.7405E-02  0.6503E+13
   -1.100057    1.38358  0.1219E-11  0.3459E-06  0.7914E-08  0.4968E-06  0.5671E-02  0.5338E+14
   -1.168813    1.72564  0.1244E-11  0.1712E-06  0.3484E-08  0.1491E-06  0.3237E-02  0.1521E+15
   -1.237570    2.52115  0.1293E-11  0.4082E-06  0.1019E-08  0.1726E-05  0.9527E-03  0.4950E+15
   -1.306326    3.36164  0.1282E-11  0.5784E-06  0.5364E-09  0.1943E-03  0.3681E-03  0.1498E+16
   -1.375083    3.99649  0.1275E-11  0.6544E-06  0.4084E-09  0.4313E-03  0.2280E-03  0.7716E+15
   -1.443839    4.21072  0.1273E-11  0.6557E-06  0.3459E-09  0.5463E-03  0.1565E-03 -0.5200E+12
   -1.512595    4.21561  0.1273E-11  0.6570E-06  0.3156E-09  0.5421E-03  0.1145E-03 -0.4807E+12
   -1.581352    4.21894  0.1274E-11  0.6584E-06  0.2986E-09  0.5466E-03  0.8642E-04 -0.4886E+12
   -1.650108    4.22150  0.1274E-11  0.6595E-06  0.2881E-09  0.5496E-03  0.6519E-04 -0.5094E+12
   -1.718864    4.22362  0.1274E-11  0.6599E-06  0.2815E-09  0.5513E-03  0.4791E-04 -0.5270E+12
   -1.787620    4.22544  0.1274E-11  0.6598E-06  0.2775E-09  0.5517E-03  0.3342E-04 -0.5606E+12
   -1.856376    4.22707  0.1274E-11  0.6594E-06  0.2757E-09  0.5515E-03  0.2418E-04 -0.5907E+12
   -1.925131    4.22852  0.1274E-11  0.6587E-06  0.2760E-09  0.5476E-03  0.1802E-04 -0.6285E+12
   -1.993886    4.22988  0.1274E-11  0.6575E-06  0.2780E-09  0.5383E-03  0.1399E-04 -0.6593E+12
   -2.062641    4.23121  0.1274E-11  0.6557E-06  0.2818E-09  0.5248E-03  0.1114E-04 -0.6864E+12
   -2.131396    4.23254  0.1274E-11  0.6533E-06  0.2875E-09  0.5081E-03  0.8848E-05 -0.7061E+12
   -2.200150    4.23387  0.1274E-11  0.6503E-06  0.2953E-09  0.4876E-03  0.6931E-05 -0.7317E+12
   -2.268903    4.23521  0.1274E-11  0.6464E-06  0.3060E-09  0.4638E-03  0.5296E-05 -0.7595E+12
   -2.337657    4.23659  0.1274E-11  0.6414E-06  0.3212E-09  0.4352E-03  0.3975E-05 -0.7818E+12
   -2.406410    4.23803  0.1274E-11  0.6349E-06  0.3433E-09  0.4008E-03  0.2936E-05 -0.8198E+12
   -2.475162    4.23956  0.1274E-11  0.6262E-06  0.3774E-09  0.3549E-03  0.2106E-05 -0.9517E+12
   -2.543914    4.24128  0.1274E-11  0.6133E-06  0.4362E-09  0.2979E-03  0.1377E-05 -0.1187E+13
   -2.612665    4.24346  0.1274E-11  0.5878E-06  0.5862E-09  0.1549E-03  0.7873E-06 -0.3662E+13
   -2.681415    4.24755  0.1274E-11  0.3864E-06  0.2368E-08  0.9249E-05  0.3246E-06 -0.1388E+15
   -2.750165    4.30771  0.1274E-11  0.0000E+00  0.0000E+00  0.0000E+00  0.3249E-06  0.0000E+00
