 1 - depth, m
 2 - temperature, C
 3 - salinity, kg/kg
 4 - turbulent kinetic energy, m**2/s**2
 5 - dissipation rate, m**2/s**3
 6 - kinematic heat conductance, m**2/s
 7 - modulus of horizontal velocity, m/s
 8 - Richardson number, n/d
   -0.000000   -0.02795  0.1243E-11  0.5057E-04  0.1043E-04  0.5626E-04  0.7418E-01  0.6630E-01
   -0.068746    0.01238  0.1243E-11  0.3145E-04  0.2295E-05  0.8371E-04  0.4510E-01  0.8718E-02
   -0.137492    0.02160  0.1243E-11  0.2604E-04  0.9147E-06  0.1112E-03  0.3880E-01  0.1728E-01
   -0.206239    0.02740  0.1243E-11  0.2288E-04  0.4695E-06  0.1376E-03  0.3482E-01  0.2437E-01
   -0.274987    0.03207  0.1243E-11  0.2073E-04  0.2896E-06  0.1608E-03  0.3186E-01  0.3239E-01
   -0.343735    0.03605  0.1243E-11  0.1907E-04  0.2015E-06  0.1797E-03  0.2952E-01  0.4159E-01
   -0.412484    0.03957  0.1243E-11  0.1767E-04  0.1512E-06  0.1940E-03  0.2760E-01  0.5218E-01
   -0.481233    0.04281  0.1243E-11  0.1641E-04  0.1191E-06  0.2034E-03  0.2597E-01  0.6443E-01
   -0.549983    0.04587  0.1243E-11  0.1525E-04  0.9686E-07  0.2081E-03  0.2455E-01  0.7866E-01
   -0.618733    0.04885  0.1243E-11  0.1417E-04  0.8059E-07  0.2081E-03  0.2329E-01  0.9532E-01
   -0.687483    0.05183  0.1243E-11  0.1315E-04  0.6820E-07  0.2040E-03  0.2215E-01  0.1151E+00
   -0.756234    0.05486  0.1243E-11  0.1217E-04  0.5847E-07  0.1959E-03  0.2109E-01  0.1388E+00
   -0.824985    0.05804  0.1243E-11  0.1124E-04  0.5067E-07  0.1844E-03  0.2010E-01  0.1678E+00
   -0.893737    0.06146  0.1243E-11  0.1035E-04  0.4432E-07  0.1699E-03  0.1917E-01  0.2042E+00
   -0.962488    0.06526  0.1243E-11  0.9495E-05  0.3907E-07  0.1531E-03  0.1827E-01  0.2506E+00
   -1.031240    0.06966  0.1243E-11  0.8668E-05  0.3472E-07  0.1346E-03  0.1739E-01  0.3108E+00
   -1.099992    0.07515  0.1243E-11  0.7867E-05  0.3110E-07  0.1153E-03  0.1650E-01  0.3834E+00
   -1.168744    0.08321  0.1243E-11  0.7077E-05  0.2809E-07  0.9666E-04  0.1556E-01  0.4564E+00
   -1.237497    0.10275  0.1244E-11  0.6290E-05  0.2544E-07  0.7986E-04  0.1443E-01  0.6161E+00
   -1.306249    0.16254  0.1244E-11  0.5565E-05  0.2318E-07  0.6539E-04  0.1298E-01  0.1053E+01
   -1.375001    0.23740  0.1244E-11  0.4912E-05  0.2135E-07  0.5337E-04  0.1146E-01  0.2826E+01
   -1.443754    0.31259  0.1244E-11  0.4327E-05  0.1990E-07  0.4402E-04  0.9954E-02  0.1401E+02
   -1.512506    0.39153  0.1244E-11  0.3809E-05  0.1879E-07  0.3742E-04  0.8459E-02  0.1071E+03
   -1.581258    0.48715  0.1244E-11  0.3369E-05  0.1800E-07  0.3329E-04  0.6926E-02  0.1015E+04
   -1.650010    0.61727  0.1244E-11  0.3036E-05  0.1743E-07  0.3081E-04  0.5320E-02  0.8869E+04
   -1.718762    0.81138  0.1244E-11  0.2797E-05  0.1675E-07  0.1560E-04  0.3563E-02  0.8625E+05
   -1.787514    1.10108  0.1244E-11  0.1878E-05  0.9790E-08  0.1848E-04  0.1427E-02  0.1314E+08
   -1.856266    1.36252  0.1245E-11  0.1254E-05  0.5975E-08  0.1035E-04  0.8096E-03  0.1922E+10
   -1.925017    1.57689  0.1245E-11  0.7401E-06  0.3283E-08  0.3885E-05  0.4463E-03  0.1100E+12
   -1.993768    1.72465  0.1245E-11  0.3168E-06  0.1334E-08  0.2292E-06  0.2142E-03 -0.7089E+14
   -2.062519    1.83704  0.1245E-11  0.4761E-07  0.1938E-09  0.2295E-07  0.5917E-04  0.8237E+15
   -2.131270    2.04275  0.1245E-11  0.4801E-08  0.1498E-10  0.4163E-08  0.6390E-05  0.3814E+16
   -2.200020    2.39365  0.1245E-11  0.1268E-07  0.7641E-11  0.4319E-08  0.4676E-06  0.8750E+16
   -2.268769    3.05430  0.1245E-11  0.4573E-07  0.2390E-10  0.5752E-05  0.1506E-07  0.7682E+16
   -2.337519    3.77719  0.1245E-11  0.7504E-07  0.4090E-10  0.4112E-04  0.5009E-08  0.1645E+16
   -2.406267    4.13092  0.1245E-11  0.8843E-07  0.4999E-10  0.6494E-04  0.1770E-08 -0.8506E+13
   -2.475015    4.13515  0.1245E-11  0.9378E-07  0.5670E-10  0.6233E-04  0.6099E-09 -0.9338E+13
   -2.543763    4.13966  0.1245E-11  0.9633E-07  0.6685E-10  0.5142E-04  0.1929E-09 -0.1203E+14
   -2.612510    4.14524  0.1245E-11  0.9447E-07  0.8881E-10  0.3239E-04  0.4840E-10 -0.2119E+14
   -2.681257    4.15447  0.1245E-11  0.7089E-07  0.2330E-09  0.4898E-05  0.6968E-11 -0.2095E+15
   -2.750003    4.22207  0.1245E-11  0.0000E+00  0.0000E+00  0.0000E+00  0.6587E-11  0.0000E+00
