 1 - depth, m
 2 - temperature, C
 3 - salinity, kg/kg
 4 - turbulent kinetic energy, m**2/s**2
 5 - dissipation rate, m**2/s**3
 6 - kinematic heat conductance, m**2/s
 7 - modulus of horizontal velocity, m/s
 8 - Richardson number, n/d
   -0.000000   -0.00000  0.1811E-12  0.1219E-13  0.7603E-17  0.1000E-09  0.0000E+00  0.6687E+16
   -0.068746    0.10170  0.1591E-11  0.1219E-13  0.7603E-17  0.1000E-09  0.0000E+00  0.6631E+16
   -0.137493    0.20544  0.2956E-11  0.1219E-13  0.7603E-17  0.1000E-09  0.0000E+00  0.6555E+16
   -0.206240    0.31105  0.3709E-11  0.1219E-13  0.7603E-17  0.1000E-09  0.0000E+00  0.6459E+16
   -0.274988    0.41837  0.3892E-11  0.1219E-13  0.7603E-17  0.1000E-09  0.0000E+00  0.6345E+16
   -0.343736    0.52723  0.3754E-11  0.1219E-13  0.7603E-17  0.1000E-09  0.0000E+00  0.6214E+16
   -0.412485    0.63748  0.3510E-11  0.1219E-13  0.7603E-17  0.1000E-09  0.0000E+00  0.6068E+16
   -0.481234    0.74896  0.3280E-11  0.1219E-13  0.7603E-17  0.1000E-09  0.0000E+00  0.5908E+16
   -0.549984    0.86155  0.3112E-11  0.1219E-13  0.7603E-17  0.1000E-09  0.0000E+00  0.5736E+16
   -0.618734    0.97511  0.3006E-11  0.1219E-13  0.7603E-17  0.1000E-09  0.0000E+00  0.5554E+16
   -0.687485    1.08951  0.2947E-11  0.1219E-13  0.7603E-17  0.1000E-09  0.0000E+00  0.5361E+16
   -0.756236    1.20465  0.2917E-11  0.1219E-13  0.7603E-17  0.1000E-09  0.0000E+00  0.5161E+16
   -0.824987    1.32040  0.2903E-11  0.1219E-13  0.7603E-17  0.1000E-09  0.0000E+00  0.4954E+16
   -0.893739    1.43666  0.2896E-11  0.1219E-13  0.7603E-17  0.1000E-09  0.0000E+00  0.4740E+16
   -0.962491    1.55334  0.2892E-11  0.1219E-13  0.7603E-17  0.1000E-09  0.0000E+00  0.4522E+16
   -1.031243    1.67034  0.2888E-11  0.1219E-13  0.7603E-17  0.1000E-09  0.0000E+00  0.4299E+16
   -1.099995    1.78759  0.2884E-11  0.1219E-13  0.7603E-17  0.1000E-09  0.0000E+00  0.4074E+16
   -1.168747    1.90500  0.2879E-11  0.1219E-13  0.7603E-17  0.1000E-09  0.0000E+00  0.3846E+16
   -1.237500    2.02251  0.2873E-11  0.1219E-13  0.7603E-17  0.1000E-09  0.0000E+00  0.3617E+16
   -1.306252    2.14007  0.2865E-11  0.1219E-13  0.7603E-17  0.1000E-09  0.0000E+00  0.3387E+16
   -1.375005    2.25763  0.2857E-11  0.1219E-13  0.7603E-17  0.1000E-09  0.0000E+00  0.3158E+16
   -1.443757    2.37518  0.2848E-11  0.1219E-13  0.7603E-17  0.1000E-09  0.0000E+00  0.2929E+16
   -1.512510    2.49269  0.2840E-11  0.1219E-13  0.7603E-17  0.1000E-09  0.0000E+00  0.2701E+16
   -1.581262    2.61015  0.2832E-11  0.1219E-13  0.7603E-17  0.1000E-09  0.0000E+00  0.2474E+16
   -1.650014    2.72755  0.2826E-11  0.1219E-13  0.7603E-17  0.1000E-09  0.0000E+00  0.2249E+16
   -1.718766    2.84489  0.2820E-11  0.1219E-13  0.7603E-17  0.1000E-09  0.0000E+00  0.2023E+16
   -1.787518    2.96211  0.2816E-11  0.3486E-13  0.9676E-17  0.1000E-09  0.0000E+00  0.1772E+16
   -1.856270    3.07733  0.2813E-11  0.1238E-12  0.2862E-16  0.1000E-09  0.0000E+00  0.1527E+16
   -1.925022    3.19010  0.2810E-11  0.4127E-12  0.9067E-16  0.1000E-09  0.0000E+00  0.1289E+16
   -1.993773    3.29981  0.2808E-11  0.1343E-11  0.2848E-15  0.1000E-09  0.0000E+00  0.1067E+16
   -2.062524    3.40634  0.2806E-11  0.4206E-11  0.8625E-15  0.1000E-09  0.0000E+00  0.8824E+15
   -2.131275    3.51235  0.2805E-11  0.1294E-10  0.2568E-14  0.1000E-09  0.0000E+00  0.7021E+15
   -2.200025    3.61808  0.2804E-11  0.3931E-10  0.7550E-14  0.1000E-09  0.0000E+00  0.5239E+15
   -2.268775    3.72356  0.2804E-11  0.1189E-09  0.2212E-13  0.3231E-09  0.0000E+00  0.3470E+15
   -2.337524    3.82855  0.2803E-11  0.3621E-09  0.6530E-13  0.1915E-08  0.0000E+00  0.1722E+15
   -2.406273    3.93202  0.2803E-11  0.1077E-08  0.1891E-12  0.4789E-07  0.0000E+00  0.1878E+14
   -2.475021    4.00979  0.2803E-11  0.2178E-08  0.3882E-12  0.5629E-05  0.0000E+00 -0.9842E+12
   -2.543769    4.01233  0.2803E-11  0.2524E-08  0.5053E-12  0.5103E-05  0.0000E+00 -0.1182E+13
   -2.612517    4.01509  0.2803E-11  0.2551E-08  0.6930E-12  0.3223E-05  0.0000E+00 -0.2016E+13
   -2.681263    4.01926  0.2803E-11  0.1879E-08  0.1478E-11  0.5385E-06  0.0000E+00 -0.1221E+14
   -2.750009    4.03774  0.2803E-11  0.0000E+00  0.0000E+00  0.0000E+00  0.0000E+00  0.0000E+00
