 1 - depth, m
 2 - temperature, C
 3 - salinity, kg/kg
 4 - turbulent kinetic energy, m**2/s**2
 5 - dissipation rate, m**2/s**3
 6 - kinematic heat conductance, m**2/s
 7 - modulus of horizontal velocity, m/s
 8 - Richardson number, n/d
   -0.000000    0.92533  0.6423E-11  0.1342E-03  0.3770E-02  0.8803E-04  0.1084E+00 -0.2347E+00
   -0.068746    1.01840  0.6423E-11  0.8224E-04  0.1968E-02  0.1396E-03  0.5370E-01  0.3593E-01
   -0.137492    1.03746  0.6423E-11  0.6540E-04  0.1074E-02  0.1639E-03  0.4484E-01  0.1843E-01
   -0.206239    1.05072  0.6423E-11  0.5462E-04  0.5282E-03  0.1923E-03  0.3955E-01  0.2452E-01
   -0.274987    1.06100  0.6423E-11  0.4683E-04  0.2283E-03  0.2249E-03  0.3557E-01  0.3115E-01
   -0.343735    1.06939  0.6423E-11  0.4113E-04  0.8284E-04  0.2589E-03  0.3239E-01  0.3814E-01
   -0.412484    1.07648  0.6423E-11  0.3711E-04  0.2371E-04  0.2928E-03  0.2976E-01  0.4552E-01
   -0.481233    1.08264  0.6423E-11  0.3443E-04  0.5140E-05  0.3253E-03  0.2751E-01  0.5318E-01
   -0.549983    1.08810  0.6423E-11  0.3260E-04  0.9804E-06  0.3570E-03  0.2552E-01  0.6120E-01
   -0.618733    1.09300  0.6423E-11  0.3130E-04  0.3102E-06  0.3856E-03  0.2379E-01  0.6927E-01
   -0.687483    1.09747  0.6423E-11  0.3026E-04  0.2052E-06  0.4123E-03  0.2224E-01  0.7762E-01
   -0.756234    1.10162  0.6423E-11  0.2937E-04  0.1719E-06  0.4362E-03  0.2086E-01  0.8584E-01
   -0.824985    1.10551  0.6423E-11  0.2857E-04  0.1509E-06  0.4577E-03  0.1960E-01  0.9399E-01
   -0.893737    1.10922  0.6423E-11  0.2783E-04  0.1349E-06  0.4770E-03  0.1843E-01  0.1021E+00
   -0.962488    1.11277  0.6423E-11  0.2715E-04  0.1221E-06  0.4941E-03  0.1734E-01  0.1101E+00
   -1.031240    1.11621  0.6423E-11  0.2650E-04  0.1115E-06  0.5091E-03  0.1632E-01  0.1180E+00
   -1.099992    1.11956  0.6423E-11  0.2590E-04  0.1027E-06  0.5221E-03  0.1534E-01  0.1258E+00
   -1.168744    1.12284  0.6423E-11  0.2533E-04  0.9530E-07  0.5329E-03  0.1441E-01  0.1336E+00
   -1.237497    1.12606  0.6423E-11  0.2479E-04  0.8901E-07  0.5418E-03  0.1352E-01  0.1414E+00
   -1.306249    1.12924  0.6423E-11  0.2427E-04  0.8362E-07  0.5487E-03  0.1266E-01  0.1498E+00
   -1.375001    1.13236  0.6423E-11  0.2378E-04  0.7902E-07  0.5539E-03  0.1182E-01  0.1596E+00
   -1.443753    1.13541  0.6423E-11  0.2332E-04  0.7512E-07  0.5572E-03  0.1101E-01  0.1722E+00
   -1.512506    1.13833  0.6423E-11  0.2290E-04  0.7186E-07  0.5585E-03  0.1023E-01  0.1902E+00
   -1.581258    1.14108  0.6423E-11  0.2250E-04  0.6922E-07  0.5565E-03  0.9469E-02  0.2186E+00
   -1.650010    1.14363  0.6423E-11  0.2214E-04  0.6719E-07  0.5477E-03  0.8728E-02  0.3509E+00
   -1.718762    1.14600  0.6423E-11  0.2194E-04  0.6688E-07  0.4869E-03  0.7987E-02  0.4564E-01
   -1.787514    1.15027  0.6423E-11  0.2033E-04  0.5907E-07  0.5491E-03  0.4745E-02  0.3134E+01
   -1.856266    1.15259  0.6423E-11  0.1913E-04  0.5380E-07  0.5545E-03  0.4133E-02  0.7917E+00
   -1.925017    1.15495  0.6423E-11  0.1797E-04  0.4917E-07  0.5515E-03  0.3622E-02  0.1251E+01
   -1.993768    1.15741  0.6423E-11  0.1686E-04  0.4511E-07  0.5366E-03  0.3195E-02  0.2137E+01
   -2.062519    1.16006  0.6423E-11  0.1584E-04  0.4171E-07  0.5111E-03  0.2825E-02  0.3276E+01
   -2.131269    1.16323  0.6423E-11  0.1488E-04  0.3889E-07  0.4842E-03  0.2479E-02  0.5874E+01
   -2.200019    1.16747  0.6423E-11  0.1398E-04  0.3660E-07  0.4557E-03  0.2154E-02  0.1344E+02
   -2.268769    1.17650  0.6423E-11  0.1313E-04  0.3486E-07  0.4308E-03  0.1839E-02  0.2684E+03
   -2.337518    1.21150  0.6423E-11  0.1237E-04  0.3382E-07  0.4031E-03  0.1564E-02  0.1023E+06
   -2.406267    1.25948  0.6423E-11  0.1166E-04  0.3364E-07  0.3689E-03  0.1330E-02  0.8555E+08
   -2.475015    1.31101  0.6423E-11  0.1093E-04  0.3468E-07  0.3248E-03  0.1119E-02  0.1239E+12
   -2.543763    1.37978  0.6423E-11  0.1014E-04  0.3813E-07  0.2652E-03  0.9236E-03  0.3374E+15
   -2.612510    1.50261  0.6423E-11  0.9136E-05  0.4850E-07  0.1800E-03  0.7373E-03  0.3408E+16
   -2.681256    1.69554  0.6423E-11  0.5252E-05  0.1499E-06  0.2174E-04  0.5534E-03  0.1064E+16
   -2.750002    1.81197  0.6423E-11  0.0000E+00  0.0000E+00  0.0000E+00  0.5522E-03  0.0000E+00
