 1 - depth, m
 2 - temperature, C
 3 - salinity, kg/kg
 4 - turbulent kinetic energy, m**2/s**2
 5 - dissipation rate, m**2/s**3
 6 - kinematic heat conductance, m**2/s
 7 - modulus of horizontal velocity, m/s
 8 - Richardson number, n/d
   -0.000000   -0.00000  0.9358E-10  0.1219E-13  0.7603E-17  0.1000E-09  0.0000E+00  0.5943E+16
   -0.068746    0.09024  0.5336E-10  0.1219E-13  0.7603E-17  0.1000E-09  0.0000E+00  0.5740E+16
   -0.137492    0.17956  0.3889E-10  0.1219E-13  0.7603E-17  0.1000E-09  0.0000E+00  0.5560E+16
   -0.206239    0.26828  0.3490E-10  0.1219E-13  0.7603E-17  0.1000E-09  0.0000E+00  0.5404E+16
   -0.274987    0.35671  0.3397E-10  0.1219E-13  0.7603E-17  0.1000E-09  0.0000E+00  0.5269E+16
   -0.343735    0.44519  0.3377E-10  0.1219E-13  0.7603E-17  0.1000E-09  0.0000E+00  0.5153E+16
   -0.412483    0.53406  0.3374E-10  0.1219E-13  0.7603E-17  0.1000E-09  0.0000E+00  0.5055E+16
   -0.481233    0.62366  0.3373E-10  0.1219E-13  0.7603E-17  0.1000E-09  0.0000E+00  0.4973E+16
   -0.549982    0.71433  0.3373E-10  0.1219E-13  0.7603E-17  0.1000E-09  0.0000E+00  0.4902E+16
   -0.618732    0.80637  0.3373E-10  0.1219E-13  0.7603E-17  0.1000E-09  0.0000E+00  0.4840E+16
   -0.687482    0.90010  0.3373E-10  0.1219E-13  0.7603E-17  0.1000E-09  0.0000E+00  0.4797E+16
   -0.756233    0.99605  0.3373E-10  0.1219E-13  0.7603E-17  0.1000E-09  0.0000E+00  0.4763E+16
   -0.824984    1.09463  0.3373E-10  0.1219E-13  0.7603E-17  0.1000E-09  0.0000E+00  0.4727E+16
   -0.893735    1.19608  0.3373E-10  0.1219E-13  0.7603E-17  0.1000E-09  0.0000E+00  0.4685E+16
   -0.962487    1.30058  0.3372E-10  0.1219E-13  0.7603E-17  0.1000E-09  0.0000E+00  0.4634E+16
   -1.031239    1.40829  0.3370E-10  0.1219E-13  0.7603E-17  0.1000E-09  0.0000E+00  0.4570E+16
   -1.099991    1.51935  0.3367E-10  0.1219E-13  0.7603E-17  0.1000E-09  0.0000E+00  0.4492E+16
   -1.168743    1.63382  0.3359E-10  0.1219E-13  0.7603E-17  0.1000E-09  0.0000E+00  0.4396E+16
   -1.237495    1.75174  0.3345E-10  0.1219E-13  0.7603E-17  0.1000E-09  0.0000E+00  0.4280E+16
   -1.306247    1.87310  0.3327E-10  0.1219E-13  0.7603E-17  0.1000E-09  0.0000E+00  0.4142E+16
   -1.374999    1.99785  0.3309E-10  0.1219E-13  0.7603E-17  0.1000E-09  0.0000E+00  0.3988E+16
   -1.443752    2.12613  0.3295E-10  0.1219E-13  0.7603E-17  0.1000E-09  0.0000E+00  0.3811E+16
   -1.512504    2.25787  0.3286E-10  0.2853E-13  0.7603E-17  0.1000E-09  0.0000E+00  0.3607E+16
   -1.581256    2.39286  0.3280E-10  0.9304E-13  0.1879E-16  0.1000E-09  0.0000E+00  0.3377E+16
   -1.650008    2.53087  0.3277E-10  0.2764E-12  0.5237E-16  0.1000E-09  0.0000E+00  0.3122E+16
   -1.718760    2.67161  0.3274E-10  0.7908E-12  0.1445E-15  0.1000E-09  0.0000E+00  0.2844E+16
   -1.787512    2.81477  0.3273E-10  0.2281E-11  0.4032E-15  0.1000E-09  0.0000E+00  0.2553E+16
   -1.856263    2.96055  0.3272E-10  0.6576E-11  0.1126E-14  0.1000E-09  0.0000E+00  0.2245E+16
   -1.925014    3.10886  0.3272E-10  0.1880E-10  0.3118E-14  0.1000E-09  0.0000E+00  0.1919E+16
   -1.993765    3.25965  0.3270E-10  0.5331E-10  0.8572E-14  0.1000E-09  0.0000E+00  0.1574E+16
   -2.062516    3.41254  0.3268E-10  0.1463E-09  0.2283E-13  0.1000E-09  0.0000E+00  0.1207E+16
   -2.131267    3.56641  0.3265E-10  0.3956E-09  0.5988E-13  0.3658E-09  0.0000E+00  0.8323E+15
   -2.200017    3.72053  0.3262E-10  0.1057E-08  0.1553E-12  0.1735E-08  0.0000E+00  0.4547E+15
   -2.268766    3.87333  0.3260E-10  0.2785E-08  0.3980E-12  0.2084E-07  0.0000E+00  0.9631E+14
   -2.337515    4.00828  0.3260E-10  0.4180E-08  0.6033E-12  0.1238E-04  0.0000E+00 -0.6279E+12
   -2.406264    4.01003  0.3260E-10  0.4713E-08  0.7171E-12  0.1246E-04  0.0000E+00 -0.6812E+12
   -2.475012    4.01180  0.3260E-10  0.5074E-08  0.8588E-12  0.1136E-04  0.0000E+00 -0.8214E+12
   -2.543760    4.01378  0.3260E-10  0.5253E-08  0.1081E-11  0.8956E-05  0.0000E+00 -0.1170E+13
   -2.612507    4.01638  0.3260E-10  0.5152E-08  0.1583E-11  0.5187E-05  0.0000E+00 -0.2431E+13
   -2.681253    4.02116  0.3260E-10  0.4190E-08  0.4089E-11  0.1052E-05  0.0000E+00 -0.2048E+14
   -2.749999    4.04820  0.3260E-10  0.0000E+00  0.0000E+00  0.0000E+00  0.0000E+00  0.0000E+00
