 1 - depth, m
 2 - temperature, C
 3 - salinity, kg/kg
 4 - turbulent kinetic energy, m**2/s**2
 5 - dissipation rate, m**2/s**3
 6 - kinematic heat conductance, m**2/s
 7 - modulus of horizontal velocity, m/s
 8 - Richardson number, n/d
   -0.000000   -0.00000  0.1913E-11  0.8826E-12  0.1985E-15  0.1000E-09  0.2870E-39  0.4783E+16
   -0.068746    0.07245  0.1144E-11  0.2013E-11  0.1646E-15  0.1000E-09  0.2390E-39  0.4066E+16
   -0.137492    0.13518  0.1009E-11  0.3870E-11  0.1831E-15  0.1000E-09  0.2081E-39  0.3335E+16
   -0.206239    0.18746  0.9881E-12  0.6259E-11  0.2235E-15  0.1000E-09  0.1814E-39  0.2630E+16
   -0.274986    0.22924  0.9856E-12  0.9034E-11  0.2756E-15  0.1000E-09  0.1558E-39  0.1989E+16
   -0.343734    0.26117  0.9854E-12  0.1206E-10  0.3341E-15  0.1000E-09  0.1317E-39  0.1439E+16
   -0.412483    0.28446  0.9853E-12  0.1520E-10  0.3952E-15  0.1000E-09  0.1098E-39  0.9942E+15
   -0.481232    0.30064  0.9853E-12  0.1833E-10  0.4557E-15  0.1000E-09  0.9071E-40  0.6573E+15
   -0.549981    0.31137  0.9853E-12  0.2132E-10  0.5128E-15  0.1000E-09  0.7438E-40  0.4232E+15
   -0.618731    0.31830  0.9853E-12  0.2403E-10  0.5640E-15  0.1000E-09  0.6062E-40  0.2828E+15
   -0.687482    0.32294  0.9853E-12  0.2636E-10  0.6074E-15  0.1000E-09  0.4914E-40  0.2338E+15
   -0.756232    0.32679  0.9853E-12  0.2822E-10  0.6413E-15  0.1000E-09  0.3963E-40  0.2701E+15
   -0.824983    0.33123  0.9853E-12  0.2952E-10  0.6644E-15  0.1000E-09  0.3179E-40  0.3912E+15
   -0.893734    0.33767  0.9853E-12  0.3022E-10  0.6759E-15  0.1000E-09  0.2537E-40  0.6065E+15
   -0.962486    0.34769  0.9853E-12  0.3029E-10  0.6756E-15  0.1000E-09  0.2014E-40  0.9300E+15
   -1.031237    0.36311  0.9853E-12  0.2972E-10  0.6637E-15  0.1000E-09  0.1590E-40  0.1377E+16
   -1.099989    0.38606  0.9853E-12  0.2855E-10  0.6408E-15  0.1000E-09  0.1249E-40  0.1961E+16
   -1.168741    0.41901  0.9852E-12  0.2680E-10  0.6079E-15  0.1000E-09  0.9750E-41  0.2687E+16
   -1.237493    0.46470  0.9844E-12  0.2455E-10  0.5666E-15  0.1000E-09  0.7559E-41  0.3550E+16
   -1.306245    0.52603  0.9809E-12  0.2188E-10  0.5189E-15  0.1000E-09  0.5807E-41  0.4529E+16
   -1.374998    0.60599  0.9714E-12  0.1890E-10  0.4671E-15  0.1000E-09  0.4406E-41  0.5654E+16
   -1.443750    0.70871  0.9634E-12  0.1572E-10  0.4144E-15  0.1000E-09  0.3279E-41  0.6814E+16
   -1.512502    0.83721  0.9611E-12  0.1249E-10  0.3651E-15  0.1000E-09  0.2362E-41  0.7911E+16
   -1.581254    0.99368  0.9597E-12  0.9390E-11  0.3260E-15  0.1000E-09  0.1602E-41  0.8857E+16
   -1.650006    1.17974  0.9583E-12  0.6649E-11  0.3105E-15  0.1000E-09  0.9523E-42  0.9564E+16
   -1.718758    1.39636  0.9573E-12  0.4622E-11  0.3530E-15  0.1000E-09  0.3692E-42  0.9915E+16
   -1.787509    1.64294  0.9569E-12  0.3936E-11  0.5709E-15  0.1000E-09  0.2503E-43  0.9277E+16
   -1.856261    1.90100  0.9567E-12  0.6414E-11  0.1366E-14  0.1000E-09  0.1563E-44  0.8447E+16
   -1.925012    2.16879  0.9566E-12  0.1797E-10  0.4066E-14  0.1000E-09  0.8910E-46  0.7433E+16
   -1.993763    2.44367  0.9566E-12  0.5807E-10  0.1286E-13  0.1000E-09  0.5533E-47  0.6343E+16
   -2.062513    2.72619  0.9565E-12  0.1856E-09  0.3980E-13  0.1000E-09  0.4467E-48  0.5350E+16
   -2.131264    3.02870  0.9560E-12  0.5852E-09  0.1214E-12  0.1528E-09  0.3374E-49  0.4058E+16
   -2.200014    3.34942  0.9546E-12  0.1820E-08  0.3655E-12  0.7545E-09  0.2369E-50  0.2477E+16
   -2.268763    3.68303  0.9519E-12  0.5616E-08  0.1092E-11  0.7806E-08  0.1135E-51  0.7188E+15
   -2.337512    4.01042  0.9512E-12  0.8343E-08  0.1640E-11  0.1713E-04  0.3830E-53 -0.1137E+13
   -2.406261    4.01329  0.9512E-12  0.9396E-08  0.1953E-11  0.1767E-04  0.6992E-54 -0.1253E+13
   -2.475009    4.01613  0.9512E-12  0.1017E-07  0.2356E-11  0.1646E-04  0.1181E-54 -0.1531E+13
   -2.543756    4.01926  0.9512E-12  0.1064E-07  0.2995E-11  0.1333E-04  0.1703E-55 -0.2193E+13
   -2.612503    4.02329  0.9512E-12  0.1067E-07  0.4417E-11  0.8152E-05  0.1698E-56 -0.4473E+13
   -2.681249    4.03036  0.9512E-12  0.9269E-08  0.1160E-10  0.1902E-05  0.8198E-58 -0.3519E+14
   -2.749995    4.06656  0.9512E-12  0.0000E+00  0.0000E+00  0.0000E+00  0.8708E-58  0.0000E+00
