 1 - depth, m
 2 - temperature, C
 3 - salinity, kg/kg
 4 - turbulent kinetic energy, m**2/s**2
 5 - dissipation rate, m**2/s**3
 6 - kinematic heat conductance, m**2/s
 7 - modulus of horizontal velocity, m/s
 8 - Richardson number, n/d
   -0.000000   -0.00000  0.1301E-09  0.8983E-10  0.5916E-13  0.1047E-09  0.3588E-31  0.5066E+16
   -0.068746    0.07679  0.8298E-10  0.4536E-09  0.4095E-13  0.1018E-09  0.3043E-31  0.4113E+16
   -0.137492    0.14034  0.7495E-10  0.1031E-08  0.4019E-13  0.1075E-09  0.2669E-31  0.3169E+16
   -0.206239    0.19007  0.7359E-10  0.1755E-08  0.4460E-13  0.1294E-09  0.2319E-31  0.2307E+16
   -0.274986    0.22673  0.7341E-10  0.2577E-08  0.5125E-13  0.1873E-09  0.1972E-31  0.1577E+16
   -0.343734    0.25200  0.7339E-10  0.3449E-08  0.5882E-13  0.3241E-09  0.1642E-31  0.1002E+16
   -0.412483    0.26814  0.7339E-10  0.4320E-08  0.6646E-13  0.6525E-09  0.1342E-31  0.5809E+15
   -0.481232    0.27754  0.7339E-10  0.5135E-08  0.7347E-13  0.1530E-08  0.1081E-31  0.2992E+15
   -0.549982    0.28240  0.7339E-10  0.5836E-08  0.7926E-13  0.4696E-08  0.8626E-32  0.1295E+15
   -0.618731    0.28450  0.7339E-10  0.6314E-08  0.8302E-13  0.6942E-07  0.6914E-32  0.4116E+14
   -0.687482    0.28517  0.7339E-10  0.6445E-08  0.8419E-13  0.5045E-04  0.6239E-32  0.1279E+14
   -0.756232    0.28538  0.7339E-10  0.6512E-08  0.8472E-13  0.2870E-04  0.6226E-32  0.1590E+14
   -0.824983    0.28564  0.7339E-10  0.6517E-08  0.8461E-13  0.2575E-07  0.6202E-32  0.4914E+14
   -0.893735    0.28643  0.7339E-10  0.6301E-08  0.8253E-13  0.4665E-08  0.5528E-32  0.1312E+15
   -0.962486    0.28857  0.7339E-10  0.5951E-08  0.7892E-13  0.1748E-08  0.4739E-32  0.2832E+15
   -1.031238    0.29318  0.7339E-10  0.5509E-08  0.7412E-13  0.8086E-09  0.4007E-32  0.5321E+15
   -1.099990    0.30185  0.7339E-10  0.5007E-08  0.6844E-13  0.4198E-09  0.3348E-32  0.9060E+15
   -1.168742    0.31667  0.7339E-10  0.4473E-08  0.6221E-13  0.2409E-09  0.2765E-32  0.1429E+16
   -1.237494    0.34018  0.7339E-10  0.3933E-08  0.5572E-13  0.1555E-09  0.2257E-32  0.2118E+16
   -1.306246    0.37531  0.7337E-10  0.3409E-08  0.4923E-13  0.1162E-09  0.1816E-32  0.2972E+16
   -1.374998    0.42523  0.7328E-10  0.2915E-08  0.4295E-13  0.1013E-09  0.1435E-32  0.4040E+16
   -1.443750    0.49429  0.7295E-10  0.2461E-08  0.3705E-13  0.1000E-09  0.1107E-32  0.5227E+16
   -1.512502    0.58584  0.7232E-10  0.2056E-08  0.3164E-13  0.1000E-09  0.8213E-33  0.6438E+16
   -1.581254    0.70231  0.7199E-10  0.1700E-08  0.2681E-13  0.1000E-09  0.5702E-33  0.7593E+16
   -1.650006    0.84554  0.7190E-10  0.1395E-08  0.2260E-13  0.1000E-09  0.3444E-33  0.8604E+16
   -1.718758    1.01662  0.7185E-10  0.1139E-08  0.1902E-13  0.1000E-09  0.1347E-33  0.9339E+16
   -1.787510    1.21486  0.7181E-10  0.9195E-09  0.1595E-13  0.1000E-09  0.9146E-35  0.8881E+16
   -1.856261    1.41823  0.7179E-10  0.7251E-09  0.1326E-13  0.1000E-09  0.5717E-36  0.8315E+16
   -1.925013    1.62521  0.7178E-10  0.5522E-09  0.1095E-13  0.1000E-09  0.3263E-37  0.7659E+16
   -1.993763    1.83414  0.7178E-10  0.3973E-09  0.9066E-14  0.1000E-09  0.2029E-38  0.7095E+16
   -2.062514    2.04845  0.7177E-10  0.2658E-09  0.7791E-14  0.1000E-09  0.1641E-39  0.7066E+16
   -2.131264    2.28948  0.7174E-10  0.1590E-09  0.7411E-14  0.1000E-09  0.1241E-40  0.6728E+16
   -2.200014    2.55742  0.7168E-10  0.8178E-10  0.8789E-14  0.1000E-09  0.8726E-42  0.5954E+16
   -2.268764    2.84737  0.7157E-10  0.4956E-10  0.1604E-13  0.1000E-09  0.4184E-43  0.4806E+16
   -2.337513    3.15367  0.7133E-10  0.1189E-09  0.5767E-13  0.1000E-09  0.1642E-44  0.3373E+16
   -2.406261    3.46934  0.7090E-10  0.5985E-09  0.2873E-12  0.8130E-09  0.5494E-46  0.1789E+16
   -2.475009    3.78592  0.7090E-10  0.3161E-08  0.1458E-11  0.2628E-07  0.1530E-47  0.2808E+15
   -2.543757    4.05318  0.7090E-10  0.9154E-08  0.4274E-11  0.7827E-05  0.3451E-49 -0.6383E+13
   -2.612504    4.05903  0.7090E-10  0.1068E-07  0.6435E-11  0.6135E-05  0.2529E-50 -0.9929E+13
   -2.681250    4.06730  0.7090E-10  0.1046E-07  0.1529E-10  0.2008E-05  0.1094E-51 -0.5129E+14
   -2.749996    4.10084  0.7090E-10  0.0000E+00  0.0000E+00  0.0000E+00  0.1164E-51  0.0000E+00
