 1 - depth, m
 2 - temperature, C
 3 - salinity, kg/kg
 4 - turbulent kinetic energy, m**2/s**2
 5 - dissipation rate, m**2/s**3
 6 - kinematic heat conductance, m**2/s
 7 - modulus of horizontal velocity, m/s
 8 - Richardson number, n/d
   -0.000000    0.09214  0.1244E-11  0.1391E-04  0.6660E-06  0.2911E-04  0.3982E-01  0.3359E-01
   -0.068746    0.14516  0.1244E-11  0.1224E-04  0.2377E-06  0.5912E-04  0.3049E-01  0.3228E-01
   -0.137492    0.16175  0.1244E-11  0.1111E-04  0.1376E-06  0.7880E-04  0.2662E-01  0.5668E-01
   -0.206239    0.17279  0.1244E-11  0.1012E-04  0.9419E-07  0.9063E-04  0.2401E-01  0.7717E-01
   -0.274987    0.18187  0.1244E-11  0.9218E-05  0.6995E-07  0.9658E-04  0.2201E-01  0.9820E-01
   -0.343735    0.18993  0.1244E-11  0.8369E-05  0.5441E-07  0.9795E-04  0.2034E-01  0.1200E+00
   -0.412484    0.19746  0.1244E-11  0.7568E-05  0.4357E-07  0.9582E-04  0.1889E-01  0.1428E+00
   -0.481233    0.20472  0.1244E-11  0.6810E-05  0.3554E-07  0.9103E-04  0.1759E-01  0.1670E+00
   -0.549983    0.21193  0.1244E-11  0.6089E-05  0.2934E-07  0.8429E-04  0.1640E-01  0.1930E+00
   -0.618733    0.21924  0.1244E-11  0.5404E-05  0.2441E-07  0.7616E-04  0.1529E-01  0.2212E+00
   -0.687484    0.22684  0.1244E-11  0.4753E-05  0.2038E-07  0.6716E-04  0.1422E-01  0.2522E+00
   -0.756234    0.23490  0.1244E-11  0.4135E-05  0.1703E-07  0.5773E-04  0.1320E-01  0.2867E+00
   -0.824985    0.24366  0.1244E-11  0.3549E-05  0.1418E-07  0.4828E-04  0.1219E-01  0.3258E+00
   -0.893737    0.25347  0.1244E-11  0.2997E-05  0.1175E-07  0.3920E-04  0.1118E-01  0.3707E+00
   -0.962489    0.26493  0.1244E-11  0.2480E-05  0.9628E-08  0.3089E-04  0.1015E-01  0.4228E+00
   -1.031240    0.27924  0.1244E-11  0.1998E-05  0.7760E-08  0.2377E-04  0.9055E-02  0.4823E+00
   -1.099992    0.29988  0.1244E-11  0.1549E-05  0.6014E-08  0.1833E-04  0.7821E-02  0.5778E+00
   -1.168745    0.35000  0.1244E-11  0.1200E-05  0.4475E-08  0.1513E-04  0.6184E-02  0.1148E+01
   -1.237497    0.45942  0.1245E-11  0.1003E-05  0.3593E-08  0.1312E-04  0.4509E-02  0.2981E+01
   -1.306249    0.53927  0.1245E-11  0.8643E-06  0.3014E-08  0.1153E-04  0.3416E-02  0.1015E+02
   -1.375001    0.59348  0.1245E-11  0.7547E-06  0.2569E-08  0.1029E-04  0.2676E-02  0.4372E+02
   -1.443754    0.63910  0.1245E-11  0.6685E-06  0.2231E-08  0.9350E-05  0.2115E-02  0.2142E+03
   -1.512506    0.68195  0.1245E-11  0.6023E-06  0.1983E-08  0.8662E-05  0.1655E-02  0.1230E+04
   -1.581258    0.72591  0.1245E-11  0.5520E-06  0.1810E-08  0.8126E-05  0.1266E-02  0.9089E+04
   -1.650011    0.78074  0.1245E-11  0.5112E-06  0.1692E-08  0.7496E-05  0.9241E-03  0.7047E+05
   -1.718763    0.87066  0.1245E-11  0.4595E-06  0.1554E-08  0.4969E-05  0.5999E-03  0.6674E+06
   -1.787514    1.03705  0.1245E-11  0.3234E-06  0.1005E-08  0.5349E-05  0.2630E-03  0.9199E+08
   -1.856266    1.14149  0.1245E-11  0.2233E-06  0.6420E-09  0.3932E-05  0.1458E-03  0.1236E+11
   -1.925017    1.20309  0.1245E-11  0.1479E-06  0.3935E-09  0.2719E-05  0.8198E-04  0.1994E+12
   -1.993769    1.21166  0.1245E-11  0.9442E-07  0.2326E-09  0.1815E-05  0.4733E-04 -0.8586E+15
   -2.062519    1.16598  0.1245E-11  0.5599E-07  0.1300E-09  0.8537E-06  0.2881E-04  0.6827E+15
   -2.131270    1.19155  0.1245E-11  0.2810E-07  0.6259E-10  0.2826E-06  0.1526E-04  0.3910E+16
   -2.200020    1.29597  0.1245E-11  0.8811E-08  0.1977E-10  0.2831E-07  0.6188E-05  0.8299E+16
   -2.268770    1.52745  0.1245E-11  0.1928E-08  0.3670E-11  0.1671E-08  0.7269E-06  0.1165E+17
   -2.337519    1.91145  0.1245E-11  0.7553E-08  0.6251E-11  0.2182E-08  0.3237E-07  0.1361E+17
   -2.406268    2.57490  0.1245E-11  0.3045E-07  0.2605E-10  0.4471E-05  0.1125E-08  0.1044E+17
   -2.475016    3.34177  0.1245E-11  0.5744E-07  0.5437E-10  0.2254E-04  0.3215E-10  0.6084E+16
   -2.543764    3.92073  0.1245E-11  0.8232E-07  0.9109E-10  0.2938E-04  0.7611E-12  0.1487E+16
   -2.612511    4.23842  0.1245E-11  0.1027E-06  0.1481E-09  0.2640E-04  0.1258E-13 -0.5902E+14
   -2.681257    4.25412  0.1245E-11  0.8289E-07  0.3265E-09  0.5318E-05  0.9074E-15 -0.3264E+15
   -2.750003    4.32747  0.1245E-11  0.0000E+00  0.0000E+00  0.0000E+00  0.9832E-15  0.0000E+00
