 1 - depth, m
 2 - temperature, C
 3 - salinity, kg/kg
 4 - turbulent kinetic energy, m**2/s**2
 5 - dissipation rate, m**2/s**3
 6 - kinematic heat conductance, m**2/s
 7 - modulus of horizontal velocity, m/s
 8 - Richardson number, n/d
   -0.000000   -0.00000  0.2006E-11  0.1219E-13  0.7603E-17  0.1000E-09  0.0000E+00  0.5495E+16
   -0.068746    0.08337  0.1090E-11  0.1219E-13  0.7603E-17  0.1000E-09  0.0000E+00  0.5288E+16
   -0.137492    0.16543  0.8313E-12  0.1219E-13  0.7603E-17  0.1000E-09  0.0000E+00  0.5123E+16
   -0.206239    0.24676  0.7705E-12  0.1219E-13  0.7603E-17  0.1000E-09  0.0000E+00  0.4998E+16
   -0.274987    0.32795  0.7578E-12  0.1219E-13  0.7603E-17  0.1000E-09  0.0000E+00  0.4908E+16
   -0.343735    0.40959  0.7554E-12  0.1219E-13  0.7603E-17  0.1000E-09  0.0000E+00  0.4850E+16
   -0.412483    0.49226  0.7550E-12  0.1219E-13  0.7603E-17  0.1000E-09  0.0000E+00  0.4822E+16
   -0.481232    0.57656  0.7550E-12  0.1219E-13  0.7603E-17  0.1000E-09  0.0000E+00  0.4819E+16
   -0.549982    0.66308  0.7549E-12  0.1219E-13  0.7603E-17  0.1000E-09  0.0000E+00  0.4838E+16
   -0.618732    0.75238  0.7549E-12  0.1219E-13  0.7603E-17  0.1000E-09  0.0000E+00  0.4873E+16
   -0.687482    0.84504  0.7549E-12  0.1219E-13  0.7603E-17  0.1000E-09  0.0000E+00  0.4935E+16
   -0.756233    0.94192  0.7549E-12  0.1219E-13  0.7603E-17  0.1000E-09  0.0000E+00  0.5011E+16
   -0.824984    1.04372  0.7549E-12  0.1219E-13  0.7603E-17  0.1000E-09  0.0000E+00  0.5085E+16
   -0.893735    1.15095  0.7549E-12  0.1219E-13  0.7603E-17  0.1000E-09  0.0000E+00  0.5150E+16
   -0.962486    1.26406  0.7549E-12  0.1219E-13  0.7603E-17  0.1000E-09  0.0000E+00  0.5200E+16
   -1.031238    1.38348  0.7548E-12  0.4022E-13  0.8087E-17  0.1000E-09  0.0000E+00  0.5226E+16
   -1.099990    1.50957  0.7544E-12  0.1194E-12  0.1822E-16  0.1000E-09  0.0000E+00  0.5223E+16
   -1.168742    1.64264  0.7534E-12  0.3137E-12  0.4476E-16  0.1000E-09  0.0000E+00  0.5182E+16
   -1.237494    1.78291  0.7513E-12  0.7907E-12  0.1090E-15  0.1000E-09  0.0000E+00  0.5097E+16
   -1.306246    1.93056  0.7477E-12  0.1956E-11  0.2618E-15  0.1000E-09  0.0000E+00  0.4960E+16
   -1.374999    2.08563  0.7433E-12  0.4776E-11  0.6215E-15  0.1000E-09  0.0000E+00  0.4779E+16
   -1.443751    2.24850  0.7396E-12  0.1153E-10  0.1459E-14  0.1000E-09  0.0000E+00  0.4536E+16
   -1.512503    2.41916  0.7373E-12  0.2750E-10  0.3387E-14  0.1000E-09  0.0000E+00  0.4225E+16
   -1.581255    2.59737  0.7360E-12  0.6491E-10  0.7782E-14  0.1000E-09  0.0000E+00  0.3843E+16
   -1.650007    2.78275  0.7352E-12  0.1516E-09  0.1770E-13  0.1000E-09  0.0000E+00  0.3392E+16
   -1.718759    2.97481  0.7347E-12  0.3503E-09  0.3983E-13  0.1000E-09  0.0000E+00  0.2875E+16
   -1.787511    3.17308  0.7344E-12  0.8212E-09  0.9092E-13  0.1992E-09  0.0000E+00  0.2324E+16
   -1.856262    3.37970  0.7341E-12  0.1938E-08  0.2091E-12  0.6287E-09  0.0000E+00  0.1693E+16
   -1.925013    3.59448  0.7332E-12  0.4558E-08  0.4795E-12  0.2493E-08  0.0000E+00  0.9790E+15
   -1.993764    3.81565  0.7318E-12  0.1054E-07  0.1083E-11  0.2480E-07  0.0000E+00  0.2224E+15
   -2.062515    4.01437  0.7315E-12  0.1175E-07  0.1214E-11  0.4633E-04  0.0000E+00 -0.3157E+12
   -2.131265    4.01508  0.7315E-12  0.1225E-07  0.1283E-11  0.4674E-04  0.0000E+00 -0.3218E+12
   -2.200015    4.01579  0.7315E-12  0.1265E-07  0.1357E-11  0.4613E-04  0.0000E+00 -0.3352E+12
   -2.268765    4.01650  0.7315E-12  0.1294E-07  0.1442E-11  0.4445E-04  0.0000E+00 -0.3578E+12
   -2.337514    4.01725  0.7315E-12  0.1314E-07  0.1548E-11  0.4150E-04  0.0000E+00 -0.3949E+12
   -2.406262    4.01805  0.7315E-12  0.1323E-07  0.1692E-11  0.3708E-04  0.0000E+00 -0.4567E+12
   -2.475011    4.01896  0.7315E-12  0.1318E-07  0.1909E-11  0.3089E-04  0.0000E+00 -0.5697E+12
   -2.543758    4.02006  0.7315E-12  0.1292E-07  0.2295E-11  0.2267E-04  0.0000E+00 -0.8161E+12
   -2.612505    4.02157  0.7315E-12  0.1219E-07  0.3227E-11  0.1233E-04  0.0000E+00 -0.1628E+13
   -2.681251    4.02440  0.7315E-12  0.8929E-08  0.9093E-11  0.1666E-05  0.0000E+00 -0.1623E+14
   -2.749997    4.04568  0.7315E-12  0.0000E+00  0.0000E+00  0.0000E+00  0.0000E+00  0.0000E+00
