 1 - depth, m
 2 - temperature, C
 3 - salinity, kg/kg
 4 - turbulent kinetic energy, m**2/s**2
 5 - dissipation rate, m**2/s**3
 6 - kinematic heat conductance, m**2/s
 7 - modulus of horizontal velocity, m/s
 8 - Richardson number, n/d
   -0.000000   -0.00000  0.7735E-11  0.1219E-13  0.7603E-17  0.1000E-09  0.0000E+00  0.5346E+16
   -0.068746    0.08108  0.4187E-11  0.1219E-13  0.7603E-17  0.1000E-09  0.0000E+00  0.5145E+16
   -0.137492    0.16084  0.3186E-11  0.1219E-13  0.7603E-17  0.1000E-09  0.0000E+00  0.4985E+16
   -0.206239    0.23985  0.2953E-11  0.1219E-13  0.7603E-17  0.1000E-09  0.0000E+00  0.4862E+16
   -0.274987    0.31865  0.2904E-11  0.1219E-13  0.7603E-17  0.1000E-09  0.0000E+00  0.4774E+16
   -0.343735    0.39782  0.2896E-11  0.1219E-13  0.7603E-17  0.1000E-09  0.0000E+00  0.4716E+16
   -0.412483    0.47790  0.2894E-11  0.1219E-13  0.7603E-17  0.1000E-09  0.0000E+00  0.4688E+16
   -0.481232    0.55945  0.2894E-11  0.1219E-13  0.7603E-17  0.1000E-09  0.0000E+00  0.4684E+16
   -0.549982    0.64304  0.2894E-11  0.1219E-13  0.7603E-17  0.1000E-09  0.0000E+00  0.4701E+16
   -0.618732    0.72922  0.2894E-11  0.1219E-13  0.7603E-17  0.1000E-09  0.0000E+00  0.4735E+16
   -0.687482    0.81852  0.2894E-11  0.1219E-13  0.7603E-17  0.1000E-09  0.0000E+00  0.4796E+16
   -0.756233    0.91177  0.2894E-11  0.1219E-13  0.7603E-17  0.1000E-09  0.0000E+00  0.4872E+16
   -0.824984    1.00964  0.2894E-11  0.1219E-13  0.7603E-17  0.1000E-09  0.0000E+00  0.4947E+16
   -0.893735    1.11259  0.2894E-11  0.1219E-13  0.7603E-17  0.1000E-09  0.0000E+00  0.5015E+16
   -0.962486    1.22108  0.2894E-11  0.1219E-13  0.7603E-17  0.1000E-09  0.0000E+00  0.5070E+16
   -1.031238    1.33547  0.2893E-11  0.1219E-13  0.7603E-17  0.1000E-09  0.0000E+00  0.5105E+16
   -1.099990    1.45613  0.2891E-11  0.1219E-13  0.7603E-17  0.1000E-09  0.0000E+00  0.5114E+16
   -1.168742    1.58331  0.2886E-11  0.4834E-13  0.1016E-16  0.1000E-09  0.0000E+00  0.5089E+16
   -1.237494    1.71725  0.2876E-11  0.1488E-12  0.2539E-16  0.1000E-09  0.0000E+00  0.5025E+16
   -1.306246    1.85807  0.2861E-11  0.4099E-12  0.6619E-16  0.1000E-09  0.0000E+00  0.4915E+16
   -1.374999    2.00584  0.2843E-11  0.1090E-11  0.1701E-15  0.1000E-09  0.0000E+00  0.4766E+16
   -1.443751    2.16093  0.2830E-11  0.2845E-11  0.4307E-15  0.1000E-09  0.0000E+00  0.4563E+16
   -1.512503    2.32334  0.2822E-11  0.7324E-11  0.1076E-14  0.1000E-09  0.0000E+00  0.4298E+16
   -1.581255    2.49287  0.2817E-11  0.1861E-10  0.2655E-14  0.1000E-09  0.0000E+00  0.3970E+16
   -1.650007    2.66923  0.2814E-11  0.4669E-10  0.6471E-14  0.1000E-09  0.0000E+00  0.3579E+16
   -1.718759    2.85202  0.2812E-11  0.1157E-09  0.1558E-13  0.1000E-09  0.0000E+00  0.3127E+16
   -1.787511    3.04086  0.2811E-11  0.2907E-09  0.3803E-13  0.1000E-09  0.0000E+00  0.2642E+16
   -1.856262    3.23724  0.2810E-11  0.7337E-09  0.9332E-13  0.2272E-09  0.0000E+00  0.2090E+16
   -1.925013    3.44138  0.2809E-11  0.1843E-08  0.2280E-12  0.7906E-09  0.0000E+00  0.1467E+16
   -1.993764    3.65327  0.2805E-11  0.4596E-08  0.5534E-12  0.3685E-08  0.0000E+00  0.7642E+15
   -2.062515    3.86917  0.2802E-11  0.1075E-07  0.1266E-11  0.6610E-07  0.0000E+00  0.9736E+14
   -2.131265    4.02262  0.2801E-11  0.1222E-07  0.1447E-11  0.4319E-04  0.0000E+00 -0.4198E+12
   -2.200015    4.02335  0.2801E-11  0.1280E-07  0.1540E-11  0.4325E-04  0.0000E+00 -0.4285E+12
   -2.268765    4.02408  0.2801E-11  0.1323E-07  0.1641E-11  0.4216E-04  0.0000E+00 -0.4495E+12
   -2.337514    4.02483  0.2801E-11  0.1353E-07  0.1762E-11  0.3977E-04  0.0000E+00 -0.4881E+12
   -2.406262    4.02563  0.2801E-11  0.1371E-07  0.1922E-11  0.3589E-04  0.0000E+00 -0.5555E+12
   -2.475011    4.02652  0.2801E-11  0.1371E-07  0.2159E-11  0.3023E-04  0.0000E+00 -0.6811E+12
   -2.543758    4.02759  0.2801E-11  0.1348E-07  0.2575E-11  0.2247E-04  0.0000E+00 -0.9564E+12
   -2.612505    4.02905  0.2801E-11  0.1274E-07  0.3572E-11  0.1242E-04  0.0000E+00 -0.1858E+13
   -2.681251    4.03174  0.2801E-11  0.9331E-08  0.9795E-11  0.1706E-05  0.0000E+00 -0.1753E+14
   -2.749997    4.05191  0.2801E-11  0.0000E+00  0.0000E+00  0.0000E+00  0.0000E+00  0.0000E+00
