 1 - depth, m
 2 - temperature, C
 3 - salinity, kg/kg
 4 - turbulent kinetic energy, m**2/s**2
 5 - dissipation rate, m**2/s**3
 6 - kinematic heat conductance, m**2/s
 7 - modulus of horizontal velocity, m/s
 8 - Richardson number, n/d
   -0.000000   -0.00000  0.4225E-10  0.1219E-13  0.7603E-17  0.1000E-09  0.0000E+00  0.6957E+16
   -0.068746    0.10587  0.2462E-10  0.1219E-13  0.7603E-17  0.1000E-09  0.0000E+00  0.6686E+16
   -0.137492    0.21059  0.1793E-10  0.1219E-13  0.7603E-17  0.1000E-09  0.0000E+00  0.6445E+16
   -0.206239    0.31455  0.1579E-10  0.1219E-13  0.7603E-17  0.1000E-09  0.0000E+00  0.6230E+16
   -0.274986    0.41812  0.1521E-10  0.1219E-13  0.7603E-17  0.1000E-09  0.0000E+00  0.6039E+16
   -0.343735    0.52165  0.1508E-10  0.1219E-13  0.7603E-17  0.1000E-09  0.0000E+00  0.5868E+16
   -0.412483    0.62549  0.1505E-10  0.1219E-13  0.7603E-17  0.1000E-09  0.0000E+00  0.5714E+16
   -0.481232    0.72996  0.1504E-10  0.1219E-13  0.7603E-17  0.1000E-09  0.0000E+00  0.5573E+16
   -0.549982    0.83537  0.1504E-10  0.1219E-13  0.7603E-17  0.1000E-09  0.0000E+00  0.5441E+16
   -0.618732    0.94200  0.1504E-10  0.1219E-13  0.7603E-17  0.1000E-09  0.0000E+00  0.5316E+16
   -0.687482    1.05013  0.1504E-10  0.1219E-13  0.7603E-17  0.1000E-09  0.0000E+00  0.5206E+16
   -0.756233    1.16023  0.1504E-10  0.1219E-13  0.7603E-17  0.1000E-09  0.0000E+00  0.5102E+16
   -0.824984    1.27266  0.1504E-10  0.1219E-13  0.7603E-17  0.1000E-09  0.0000E+00  0.4993E+16
   -0.893735    1.38762  0.1504E-10  0.1219E-13  0.7603E-17  0.1000E-09  0.0000E+00  0.4876E+16
   -0.962486    1.50525  0.1504E-10  0.1219E-13  0.7603E-17  0.1000E-09  0.0000E+00  0.4748E+16
   -1.031238    1.62567  0.1503E-10  0.1219E-13  0.7603E-17  0.1000E-09  0.0000E+00  0.4608E+16
   -1.099990    1.74897  0.1502E-10  0.1219E-13  0.7603E-17  0.1000E-09  0.0000E+00  0.4452E+16
   -1.168742    1.87519  0.1500E-10  0.1219E-13  0.7603E-17  0.1000E-09  0.0000E+00  0.4279E+16
   -1.237494    2.00434  0.1495E-10  0.3856E-13  0.7987E-17  0.1000E-09  0.0000E+00  0.4087E+16
   -1.306246    2.13640  0.1489E-10  0.1155E-12  0.1819E-16  0.1000E-09  0.0000E+00  0.3875E+16
   -1.374998    2.27128  0.1482E-10  0.3076E-12  0.4531E-16  0.1000E-09  0.0000E+00  0.3648E+16
   -1.443751    2.40906  0.1475E-10  0.7863E-12  0.1118E-15  0.1000E-09  0.0000E+00  0.3400E+16
   -1.512503    2.54966  0.1471E-10  0.1972E-11  0.2722E-15  0.1000E-09  0.0000E+00  0.3129E+16
   -1.581255    2.69285  0.1468E-10  0.4879E-11  0.6542E-15  0.1000E-09  0.0000E+00  0.2838E+16
   -1.650007    2.83840  0.1467E-10  0.1192E-10  0.1554E-14  0.1000E-09  0.0000E+00  0.2527E+16
   -1.718759    2.98602  0.1466E-10  0.2879E-10  0.3648E-14  0.1000E-09  0.0000E+00  0.2199E+16
   -1.787510    3.13544  0.1465E-10  0.7047E-10  0.8681E-14  0.1000E-09  0.0000E+00  0.1877E+16
   -1.856262    3.28830  0.1464E-10  0.1735E-09  0.2079E-13  0.1000E-09  0.0000E+00  0.1534E+16
   -1.925013    3.44472  0.1463E-10  0.4254E-09  0.4960E-13  0.2164E-09  0.0000E+00  0.1166E+16
   -1.993764    3.60480  0.1461E-10  0.1038E-08  0.1179E-12  0.7798E-09  0.0000E+00  0.7688E+15
   -2.062515    3.76753  0.1459E-10  0.2459E-08  0.2721E-12  0.3977E-08  0.0000E+00  0.3478E+15
   -2.131265    3.92659  0.1459E-10  0.5405E-08  0.5870E-12  0.1280E-06  0.0000E+00  0.2281E+14
   -2.200015    4.01189  0.1459E-10  0.6534E-08  0.7156E-12  0.2564E-04  0.0000E+00 -0.3624E+12
   -2.268765    4.01278  0.1459E-10  0.6984E-08  0.7829E-12  0.2577E-04  0.0000E+00 -0.3741E+12
   -2.337514    4.01367  0.1459E-10  0.7319E-08  0.8579E-12  0.2488E-04  0.0000E+00 -0.4027E+12
   -2.406262    4.01459  0.1459E-10  0.7545E-08  0.9511E-12  0.2285E-04  0.0000E+00 -0.4571E+12
   -2.475010    4.01561  0.1459E-10  0.7648E-08  0.1084E-11  0.1948E-04  0.0000E+00 -0.5628E+12
   -2.543758    4.01681  0.1459E-10  0.7582E-08  0.1311E-11  0.1457E-04  0.0000E+00 -0.8018E+12
   -2.612505    4.01844  0.1459E-10  0.7184E-08  0.1848E-11  0.8011E-05  0.0000E+00 -0.1620E+13
   -2.681251    4.02152  0.1459E-10  0.5335E-08  0.4917E-11  0.1207E-05  0.0000E+00 -0.1526E+14
   -2.749997    4.04278  0.1459E-10  0.0000E+00  0.0000E+00  0.0000E+00  0.0000E+00  0.0000E+00
