 1 - depth, m
 2 - temperature, C
 3 - salinity, kg/kg
 4 - turbulent kinetic energy, m**2/s**2
 5 - dissipation rate, m**2/s**3
 6 - kinematic heat conductance, m**2/s
 7 - modulus of horizontal velocity, m/s
 8 - Richardson number, n/d
   -0.000000   14.58338  0.1970E-10  0.1466E-04  0.6326E-06  0.3496E-04  0.2622E-01 -0.3073E-01
   -0.068746   14.60940  0.1970E-10  0.1400E-04  0.2272E-06  0.9561E-04  0.1711E-01 -0.8100E-01
   -0.137492   14.61831  0.1970E-10  0.1357E-04  0.1317E-06  0.1678E-03  0.1384E-01 -0.1369E+00
   -0.206239   14.62313  0.1970E-10  0.1330E-04  0.9100E-07  0.2525E-03  0.1199E-01 -0.1966E+00
   -0.274987   14.62619  0.1970E-10  0.1314E-04  0.6924E-07  0.3747E-03  0.1078E-01 -0.1056E+00
   -0.343735   14.62817  0.1970E-10  0.1306E-04  0.5672E-07  0.7503E-03  0.9906E-02  0.1042E+03
   -0.412484   14.62915  0.1970E-10  0.1309E-04  0.4910E-07  0.1154E-02  0.9303E-02  0.6547E+01
   -0.481233   14.62975  0.1970E-10  0.1318E-04  0.4356E-07  0.1189E-02  0.8803E-02  0.7262E+01
   -0.549983   14.63031  0.1970E-10  0.1331E-04  0.3913E-07  0.1276E-02  0.8311E-02  0.7950E+01
   -0.618733   14.63082  0.1970E-10  0.1346E-04  0.3562E-07  0.1340E-02  0.7857E-02  0.8250E+01
   -0.687483   14.63129  0.1970E-10  0.1361E-04  0.3277E-07  0.1409E-02  0.7427E-02  0.8587E+01
   -0.756234   14.63174  0.1970E-10  0.1376E-04  0.3041E-07  0.1474E-02  0.7018E-02  0.8881E+01
   -0.824985   14.63215  0.1970E-10  0.1390E-04  0.2844E-07  0.1539E-02  0.6627E-02  0.9178E+01
   -0.893736   14.63255  0.1970E-10  0.1404E-04  0.2678E-07  0.1602E-02  0.6249E-02  0.9471E+01
   -0.962488   14.63292  0.1970E-10  0.1415E-04  0.2536E-07  0.1663E-02  0.5883E-02  0.9770E+01
   -1.031240   14.63328  0.1970E-10  0.1425E-04  0.2415E-07  0.1722E-02  0.5527E-02  0.1007E+02
   -1.099992   14.63362  0.1970E-10  0.1432E-04  0.2310E-07  0.1779E-02  0.5178E-02  0.1039E+02
   -1.168744   14.63395  0.1970E-10  0.1436E-04  0.2219E-07  0.1831E-02  0.4835E-02  0.1072E+02
   -1.237496   14.63427  0.1970E-10  0.1438E-04  0.2141E-07  0.1877E-02  0.4497E-02  0.1108E+02
   -1.306248   14.63459  0.1970E-10  0.1436E-04  0.2073E-07  0.1915E-02  0.4162E-02  0.1147E+02
   -1.375001   14.63489  0.1970E-10  0.1430E-04  0.2015E-07  0.1942E-02  0.3831E-02  0.1192E+02
   -1.443753   14.63519  0.1970E-10  0.1420E-04  0.1964E-07  0.1957E-02  0.3501E-02  0.1247E+02
   -1.512505   14.63549  0.1970E-10  0.1406E-04  0.1922E-07  0.1956E-02  0.3173E-02  0.1316E+02
   -1.581257   14.63579  0.1970E-10  0.1387E-04  0.1886E-07  0.1937E-02  0.2845E-02  0.1406E+02
   -1.650010   14.63610  0.1970E-10  0.1362E-04  0.1856E-07  0.1902E-02  0.2516E-02  0.1527E+02
   -1.718762   14.63641  0.1970E-10  0.1332E-04  0.1832E-07  0.1842E-02  0.2187E-02  0.1583E+02
   -1.787513   14.63673  0.1970E-10  0.1295E-04  0.1812E-07  0.1801E-02  0.1855E-02  0.6346E+01
   -1.856265   14.63706  0.1970E-10  0.1253E-04  0.1803E-07  0.1779E-02  0.1575E-02  0.3532E+01
   -1.925016   14.63739  0.1970E-10  0.1209E-04  0.1809E-07  0.1785E-02  0.1341E-02  0.2281E+01
   -1.993767   14.63772  0.1970E-10  0.1164E-04  0.1833E-07  0.1824E-02  0.1149E-02  0.1688E+01
   -2.062518   14.63805  0.1970E-10  0.1121E-04  0.1878E-07  0.1868E-02  0.9916E-03  0.1406E+01
   -2.131269   14.63837  0.1970E-10  0.1080E-04  0.1945E-07  0.1805E-02  0.8563E-03  0.1176E+01
   -2.200019   14.63870  0.1970E-10  0.1042E-04  0.2037E-07  0.1621E-02  0.7394E-03  0.9770E+00
   -2.268768   14.63907  0.1970E-10  0.1007E-04  0.2158E-07  0.1432E-02  0.6393E-03  0.7843E+00
   -2.337517   14.63949  0.1970E-10  0.9754E-05  0.2318E-07  0.1270E-02  0.5574E-03  0.6808E+00
   -2.406266   14.63996  0.1970E-10  0.9419E-05  0.2558E-07  0.1165E-02  0.4913E-03  0.1075E+01
   -2.475014   14.64049  0.1970E-10  0.8983E-05  0.3048E-07  0.9097E-03  0.4317E-03  0.3344E+02
   -2.543762   14.64131  0.1970E-10  0.8316E-05  0.4095E-07  0.7718E-03  0.3602E-03  0.3619E+02
   -2.612509   14.64223  0.1970E-10  0.7057E-05  0.7257E-07  0.3570E-03  0.2931E-03  0.2492E+03
   -2.681256   14.64616  0.1970E-10  0.4302E-05  0.2299E-06  0.1099E-03  0.1784E-03 -0.2779E+04
   -2.750001   14.65287  0.1970E-10  0.0000E+00  0.0000E+00  0.0000E+00  0.2305E-03  0.0000E+00
