 1 - depth, m
 2 - temperature, C
 3 - salinity, kg/kg
 4 - turbulent kinetic energy, m**2/s**2
 5 - dissipation rate, m**2/s**3
 6 - kinematic heat conductance, m**2/s
 7 - modulus of horizontal velocity, m/s
 8 - Richardson number, n/d
   -0.000000   -0.00000  0.1264E-09  0.4796E-09  0.4665E-12  0.4117E-09  0.2801E-24  0.5641E+16
   -0.068746    0.08561  0.8267E-10  0.3344E-08  0.3082E-12  0.3606E-09  0.2519E-24  0.4328E+16
   -0.137492    0.15267  0.7490E-10  0.7984E-08  0.2957E-12  0.4887E-09  0.2143E-24  0.3100E+16
   -0.206239    0.20148  0.7358E-10  0.1400E-07  0.3291E-12  0.8367E-09  0.1764E-24  0.2052E+16
   -0.274986    0.23417  0.7341E-10  0.2118E-07  0.3869E-12  0.1694E-08  0.1420E-24  0.1231E+16
   -0.343734    0.25392  0.7339E-10  0.2936E-07  0.4600E-12  0.4125E-08  0.1118E-24  0.6445E+15
   -0.412483    0.26431  0.7339E-10  0.3820E-07  0.5413E-12  0.1463E-07  0.8559E-25  0.2696E+15
   -0.481232    0.26867  0.7339E-10  0.4331E-07  0.5855E-12  0.1420E-03  0.6397E-25  0.7074E+14
   -0.549981    0.26981  0.7339E-10  0.4466E-07  0.5960E-12  0.6887E-03  0.6346E-25  0.8805E+13
   -0.618731    0.26996  0.7339E-10  0.4470E-07  0.5963E-12  0.9975E-03  0.6343E-25  0.1297E+11
   -0.687482    0.26996  0.7339E-10  0.4471E-07  0.5964E-12  0.1055E-02  0.6341E-25 -0.7760E+10
   -0.756232    0.26996  0.7339E-10  0.4471E-07  0.5963E-12  0.1057E-02  0.6339E-25 -0.6851E+10
   -0.824983    0.26996  0.7339E-10  0.4470E-07  0.5962E-12  0.9479E-03  0.6337E-25  0.2507E+12
   -0.893734    0.26996  0.7339E-10  0.4461E-07  0.5955E-12  0.6033E-03  0.6336E-25  0.1122E+14
   -0.962486    0.27014  0.7339E-10  0.4343E-07  0.5841E-12  0.2697E-04  0.6334E-25  0.6641E+14
   -1.031237    0.27122  0.7339E-10  0.3925E-07  0.5385E-12  0.1868E-07  0.6281E-25  0.2215E+15
   -1.099989    0.27481  0.7339E-10  0.3268E-07  0.4617E-12  0.5563E-08  0.5348E-25  0.5042E+15
   -1.168741    0.28298  0.7339E-10  0.2667E-07  0.3882E-12  0.2290E-08  0.4448E-25  0.9513E+15
   -1.237493    0.29846  0.7339E-10  0.2144E-07  0.3215E-12  0.1084E-08  0.3655E-25  0.1598E+16
   -1.306245    0.32461  0.7337E-10  0.1700E-07  0.2627E-12  0.5615E-09  0.2964E-25  0.2461E+16
   -1.374998    0.36529  0.7329E-10  0.1333E-07  0.2122E-12  0.3048E-09  0.2363E-25  0.3605E+16
   -1.443750    0.42575  0.7297E-10  0.1034E-07  0.1695E-12  0.1784E-09  0.1837E-25  0.4921E+16
   -1.512502    0.51007  0.7233E-10  0.7938E-08  0.1342E-12  0.1207E-09  0.1373E-25  0.6295E+16
   -1.581254    0.62119  0.7199E-10  0.6050E-08  0.1055E-12  0.1009E-09  0.9586E-26  0.7620E+16
   -1.650006    0.76111  0.7190E-10  0.4591E-08  0.8257E-13  0.1000E-09  0.5814E-26  0.8789E+16
   -1.718758    0.93090  0.7185E-10  0.3487E-08  0.6479E-13  0.1000E-09  0.2279E-26  0.9656E+16
   -1.787509    1.12966  0.7181E-10  0.2639E-08  0.5078E-13  0.1000E-09  0.1548E-27  0.9049E+16
   -1.856261    1.33011  0.7179E-10  0.1965E-08  0.3946E-13  0.1000E-09  0.9676E-29  0.8408E+16
   -1.925012    1.53169  0.7178E-10  0.1426E-08  0.3041E-13  0.1000E-09  0.5524E-30  0.7775E+16
   -1.993763    1.73481  0.7178E-10  0.9905E-09  0.2330E-13  0.1000E-09  0.3435E-31  0.7382E+16
   -2.062514    1.94705  0.7178E-10  0.6511E-09  0.1831E-13  0.1000E-09  0.2779E-32  0.7749E+16
   -2.131264    2.19762  0.7175E-10  0.3919E-09  0.1563E-13  0.1000E-09  0.2103E-33  0.7663E+16
   -2.200014    2.48734  0.7168E-10  0.2057E-09  0.1624E-13  0.1000E-09  0.1478E-34  0.6878E+16
   -2.268763    2.80822  0.7158E-10  0.1040E-09  0.2464E-13  0.1000E-09  0.7088E-36  0.5473E+16
   -2.337512    3.14936  0.7134E-10  0.1514E-09  0.7134E-13  0.1011E-09  0.2781E-37  0.3653E+16
   -2.406261    3.49754  0.7089E-10  0.6990E-09  0.3437E-12  0.1020E-08  0.9306E-39  0.1707E+16
   -2.475009    3.83831  0.7090E-10  0.3656E-08  0.1736E-11  0.7079E-07  0.2591E-40  0.1319E+15
   -2.543756    4.06058  0.7090E-10  0.1019E-07  0.4975E-11  0.8345E-05  0.6028E-42 -0.7003E+13
   -2.612503    4.06638  0.7090E-10  0.1191E-07  0.7516E-11  0.6549E-05  0.4450E-43 -0.1093E+14
   -2.681250    4.07468  0.7090E-10  0.1165E-07  0.1799E-10  0.2116E-05  0.1948E-44 -0.5733E+14
   -2.749995    4.10935  0.7090E-10  0.0000E+00  0.0000E+00  0.0000E+00  0.2068E-44  0.0000E+00
