 1 - depth, m
 2 - temperature, C
 3 - salinity, kg/kg
 4 - turbulent kinetic energy, m**2/s**2
 5 - dissipation rate, m**2/s**3
 6 - kinematic heat conductance, m**2/s
 7 - modulus of horizontal velocity, m/s
 8 - Richardson number, n/d
   -0.000000   -0.00000  0.4109E-11  0.1276E-10  0.5344E-14  0.1000E-09  0.9588E-34  0.5093E+16
   -0.068746    0.07720  0.2556E-11  0.4491E-10  0.4012E-14  0.1000E-09  0.7749E-34  0.4248E+16
   -0.137492    0.14285  0.2268E-11  0.9629E-10  0.4221E-14  0.1000E-09  0.6307E-34  0.3378E+16
   -0.206239    0.19593  0.2216E-11  0.1609E-09  0.4939E-14  0.1000E-09  0.5216E-34  0.2555E+16
   -0.274986    0.23661  0.2210E-11  0.2339E-09  0.5888E-14  0.1000E-09  0.4363E-34  0.1833E+16
   -0.343734    0.26608  0.2209E-11  0.3112E-09  0.6931E-14  0.1000E-09  0.3661E-34  0.1240E+16
   -0.412483    0.28616  0.2209E-11  0.3884E-09  0.7979E-14  0.1095E-09  0.3063E-34  0.7857E+15
   -0.481232    0.29894  0.2209E-11  0.4615E-09  0.8966E-14  0.1506E-09  0.2549E-34  0.4623E+15
   -0.549982    0.30649  0.2209E-11  0.5271E-09  0.9837E-14  0.2735E-09  0.2110E-34  0.2514E+15
   -0.618732    0.31060  0.2209E-11  0.5820E-09  0.1055E-13  0.6281E-09  0.1740E-34  0.1313E+15
   -0.687482    0.31275  0.2209E-11  0.6241E-09  0.1108E-13  0.1232E-08  0.1433E-34  0.8716E+14
   -0.756233    0.31418  0.2209E-11  0.6520E-09  0.1140E-13  0.8911E-09  0.1182E-34  0.1077E+15
   -0.824983    0.31594  0.2209E-11  0.6652E-09  0.1152E-13  0.4212E-09  0.9740E-35  0.1926E+15
   -0.893735    0.31910  0.2209E-11  0.6638E-09  0.1143E-13  0.2212E-09  0.8018E-35  0.3551E+15
   -0.962486    0.32493  0.2209E-11  0.6487E-09  0.1115E-13  0.1408E-09  0.6593E-35  0.6170E+15
   -1.031238    0.33508  0.2209E-11  0.6212E-09  0.1069E-13  0.1094E-09  0.5410E-35  0.1004E+16
   -1.099990    0.35166  0.2209E-11  0.5832E-09  0.1009E-13  0.1003E-09  0.4425E-35  0.1540E+16
   -1.168742    0.37726  0.2209E-11  0.5367E-09  0.9373E-14  0.1000E-09  0.3600E-35  0.2245E+16
   -1.237494    0.41492  0.2208E-11  0.4839E-09  0.8570E-14  0.1000E-09  0.2907E-35  0.3124E+16
   -1.306246    0.46804  0.2204E-11  0.4270E-09  0.7716E-14  0.1000E-09  0.2322E-35  0.4165E+16
   -1.374998    0.54020  0.2191E-11  0.3680E-09  0.6843E-14  0.1000E-09  0.1826E-35  0.5411E+16
   -1.443750    0.63640  0.2168E-11  0.3088E-09  0.5985E-14  0.1000E-09  0.1403E-35  0.6740E+16
   -1.512503    0.76046  0.2159E-11  0.2512E-09  0.5177E-14  0.1000E-09  0.1038E-35  0.8036E+16
   -1.581255    0.91529  0.2156E-11  0.1967E-09  0.4458E-14  0.1000E-09  0.7194E-36  0.9192E+16
   -1.650007    1.10311  0.2153E-11  0.1470E-09  0.3879E-14  0.1000E-09  0.4340E-36  0.1009E+17
   -1.718758    1.32523  0.2152E-11  0.1040E-09  0.3525E-14  0.1000E-09  0.1697E-36  0.1058E+17
   -1.787510    1.58109  0.2151E-11  0.6864E-10  0.3568E-14  0.1000E-09  0.1152E-37  0.1001E+17
   -1.856262    1.85245  0.2150E-11  0.4424E-10  0.4571E-14  0.1000E-09  0.7200E-39  0.9183E+16
   -1.925013    2.13756  0.2150E-11  0.4201E-10  0.8788E-14  0.1000E-09  0.4110E-40  0.8110E+16
   -1.993764    2.43374  0.2150E-11  0.9530E-10  0.2520E-13  0.1000E-09  0.2555E-41  0.6888E+16
   -2.062514    2.74104  0.2149E-11  0.3158E-09  0.8326E-13  0.1000E-09  0.2066E-42  0.5671E+16
   -2.131265    3.07016  0.2148E-11  0.1097E-08  0.2795E-12  0.3479E-09  0.1563E-43  0.4090E+16
   -2.200015    3.41752  0.2142E-11  0.3769E-08  0.9265E-12  0.2149E-08  0.1099E-44  0.2194E+16
   -2.268764    3.77342  0.2135E-11  0.1250E-07  0.2975E-11  0.4659E-07  0.5278E-46  0.3236E+15
   -2.337513    4.05072  0.2135E-11  0.1683E-07  0.4047E-11  0.3030E-04  0.1636E-47 -0.1752E+13
   -2.406262    4.05244  0.2135E-11  0.1833E-07  0.4594E-11  0.2976E-04  0.4650E-48 -0.1857E+13
   -2.475010    4.05421  0.2135E-11  0.1930E-07  0.5274E-11  0.2700E-04  0.1200E-48 -0.2150E+13
   -2.543757    4.05620  0.2135E-11  0.1969E-07  0.6333E-11  0.2163E-04  0.2658E-49 -0.2868E+13
   -2.612504    4.05878  0.2135E-11  0.1919E-07  0.8689E-11  0.1317E-04  0.4223E-50 -0.5293E+13
   -2.681251    4.06330  0.2135E-11  0.1499E-07  0.2232E-10  0.2310E-05  0.3366E-51 -0.4466E+14
   -2.749996    4.09418  0.2135E-11  0.0000E+00  0.0000E+00  0.0000E+00  0.3552E-51  0.0000E+00
