 1 - depth, m
 2 - temperature, C
 3 - salinity, kg/kg
 4 - turbulent kinetic energy, m**2/s**2
 5 - dissipation rate, m**2/s**3
 6 - kinematic heat conductance, m**2/s
 7 - modulus of horizontal velocity, m/s
 8 - Richardson number, n/d
   -0.000000   -0.00000  0.4705E-11  0.1219E-13  0.7603E-17  0.1000E-09  0.0000E+00  0.7334E+16
   -0.068746    0.11168  0.1050E-10  0.1219E-13  0.7603E-17  0.1000E-09  0.0000E+00  0.7223E+16
   -0.137493    0.22515  0.1232E-10  0.1219E-13  0.7603E-17  0.1000E-09  0.0000E+00  0.7088E+16
   -0.206240    0.34016  0.1224E-10  0.1219E-13  0.7603E-17  0.1000E-09  0.0000E+00  0.6931E+16
   -0.274988    0.45645  0.1140E-10  0.1219E-13  0.7603E-17  0.1000E-09  0.0000E+00  0.6752E+16
   -0.343736    0.57380  0.1044E-10  0.1219E-13  0.7603E-17  0.1000E-09  0.0000E+00  0.6557E+16
   -0.412485    0.69199  0.9683E-11  0.1219E-13  0.7603E-17  0.1000E-09  0.0000E+00  0.6346E+16
   -0.481234    0.81080  0.9192E-11  0.1219E-13  0.7603E-17  0.1000E-09  0.0000E+00  0.6123E+16
   -0.549984    0.93006  0.8918E-11  0.1219E-13  0.7603E-17  0.1000E-09  0.0000E+00  0.5890E+16
   -0.618734    1.04960  0.8781E-11  0.1219E-13  0.7603E-17  0.1000E-09  0.0000E+00  0.5650E+16
   -0.687485    1.16927  0.8719E-11  0.1219E-13  0.7603E-17  0.1000E-09  0.0000E+00  0.5405E+16
   -0.756236    1.28896  0.8692E-11  0.1219E-13  0.7603E-17  0.1000E-09  0.0000E+00  0.5158E+16
   -0.824987    1.40859  0.8681E-11  0.1219E-13  0.7603E-17  0.1000E-09  0.0000E+00  0.4907E+16
   -0.893739    1.52804  0.8673E-11  0.1219E-13  0.7603E-17  0.1000E-09  0.0000E+00  0.4655E+16
   -0.962490    1.64723  0.8666E-11  0.1219E-13  0.7603E-17  0.1000E-09  0.0000E+00  0.4403E+16
   -1.031242    1.76608  0.8657E-11  0.1219E-13  0.7603E-17  0.1000E-09  0.0000E+00  0.4151E+16
   -1.099994    1.88452  0.8644E-11  0.1219E-13  0.7603E-17  0.1000E-09  0.0000E+00  0.3901E+16
   -1.168747    2.00248  0.8627E-11  0.1219E-13  0.7603E-17  0.1000E-09  0.0000E+00  0.3652E+16
   -1.237499    2.11991  0.8605E-11  0.1219E-13  0.7603E-17  0.1000E-09  0.0000E+00  0.3407E+16
   -1.306252    2.23678  0.8581E-11  0.1219E-13  0.7603E-17  0.1000E-09  0.0000E+00  0.3165E+16
   -1.375004    2.35303  0.8556E-11  0.1219E-13  0.7603E-17  0.1000E-09  0.0000E+00  0.2927E+16
   -1.443756    2.46869  0.8531E-11  0.1219E-13  0.7603E-17  0.1000E-09  0.0000E+00  0.2694E+16
   -1.512509    2.58375  0.8508E-11  0.1219E-13  0.7603E-17  0.1000E-09  0.0000E+00  0.2464E+16
   -1.581261    2.69820  0.8489E-11  0.1219E-13  0.7603E-17  0.1000E-09  0.0000E+00  0.2239E+16
   -1.650014    2.81206  0.8473E-11  0.1219E-13  0.7603E-17  0.1000E-09  0.0000E+00  0.2019E+16
   -1.718766    2.92534  0.8460E-11  0.3881E-13  0.8595E-17  0.1000E-09  0.0000E+00  0.1802E+16
   -1.787518    3.03804  0.8450E-11  0.1227E-12  0.2112E-16  0.1000E-09  0.0000E+00  0.1575E+16
   -1.856269    3.14904  0.8442E-11  0.3521E-12  0.5697E-16  0.1000E-09  0.0000E+00  0.1354E+16
   -1.925021    3.25807  0.8435E-11  0.9787E-12  0.1530E-15  0.1000E-09  0.0000E+00  0.1140E+16
   -1.993772    3.36473  0.8430E-11  0.2688E-11  0.4076E-15  0.1000E-09  0.0000E+00  0.9384E+15
   -2.062523    3.46899  0.8426E-11  0.7150E-11  0.1053E-14  0.1000E-09  0.0000E+00  0.7622E+15
   -2.131274    3.57276  0.8423E-11  0.1875E-10  0.2684E-14  0.1000E-09  0.0000E+00  0.5900E+15
   -2.200024    3.67628  0.8421E-11  0.4870E-10  0.6775E-14  0.1000E-09  0.0000E+00  0.4196E+15
   -2.268774    3.77950  0.8421E-11  0.1264E-09  0.1710E-13  0.3465E-09  0.0000E+00  0.2507E+15
   -2.337523    3.88218  0.8420E-11  0.3314E-09  0.4362E-13  0.2603E-08  0.0000E+00  0.8489E+14
   -2.406272    3.98256  0.8420E-11  0.7577E-09  0.9865E-13  0.1206E-05  0.0000E+00 -0.2754E+12
   -2.475020    3.99365  0.8420E-11  0.1177E-08  0.1776E-12  0.3045E-05  0.0000E+00 -0.6620E+12
   -2.543768    3.99807  0.8420E-11  0.1446E-08  0.2686E-12  0.2973E-05  0.0000E+00 -0.9929E+12
   -2.612515    4.00259  0.8420E-11  0.1552E-08  0.4267E-12  0.1942E-05  0.0000E+00 -0.2066E+13
   -2.681262    4.00931  0.8420E-11  0.1288E-08  0.9906E-12  0.4260E-06  0.0000E+00 -0.1316E+14
   -2.750008    4.03331  0.8420E-11  0.0000E+00  0.0000E+00  0.0000E+00  0.0000E+00  0.0000E+00
