 1 - depth, m
 2 - temperature, C
 3 - salinity, kg/kg
 4 - turbulent kinetic energy, m**2/s**2
 5 - dissipation rate, m**2/s**3
 6 - kinematic heat conductance, m**2/s
 7 - modulus of horizontal velocity, m/s
 8 - Richardson number, n/d
   -0.000000   -0.00000  0.3946E-18  0.1218E-13  0.7603E-17  0.1000E-09  0.0000E+00  0.4152E+16
   -0.068747    0.06281  0.1986E-18  0.1218E-13  0.7603E-17  0.1000E-09  0.0000E+00  0.4386E+16
   -0.137494    0.13036  0.0000E+00  0.1218E-13  0.7603E-17  0.1000E-09  0.0000E+00  0.4579E+16
   -0.206242    0.20224  0.1968E-12  0.1218E-13  0.7603E-17  0.1000E-09  0.0000E+00  0.4736E+16
   -0.274991    0.27814  0.6760E-12  0.1218E-13  0.7603E-17  0.1000E-09  0.0000E+00  0.4862E+16
   -0.343740    0.35784  0.1253E-11  0.1218E-13  0.7603E-17  0.1000E-09  0.0000E+00  0.4962E+16
   -0.412490    0.44113  0.1728E-11  0.1218E-13  0.7603E-17  0.1000E-09  0.0000E+00  0.5038E+16
   -0.481240    0.52788  0.2005E-11  0.1218E-13  0.7603E-17  0.1000E-09  0.0000E+00  0.5091E+16
   -0.549991    0.61793  0.2094E-11  0.1218E-13  0.7603E-17  0.1000E-09  0.0000E+00  0.5121E+16
   -0.618742    0.71117  0.2061E-11  0.1218E-13  0.7603E-17  0.1000E-09  0.0000E+00  0.5129E+16
   -0.687493    0.80745  0.1974E-11  0.1218E-13  0.7603E-17  0.1000E-09  0.0000E+00  0.5109E+16
   -0.756245    0.90650  0.1880E-11  0.1218E-13  0.7603E-17  0.1000E-09  0.0000E+00  0.5064E+16
   -0.824997    1.00810  0.1803E-11  0.1218E-13  0.7603E-17  0.1000E-09  0.0000E+00  0.4998E+16
   -0.893749    1.11209  0.1750E-11  0.1218E-13  0.7603E-17  0.1000E-09  0.0000E+00  0.4913E+16
   -0.962502    1.21829  0.1716E-11  0.1218E-13  0.7603E-17  0.1000E-09  0.0000E+00  0.4810E+16
   -1.031255    1.32658  0.1697E-11  0.1218E-13  0.7603E-17  0.1000E-09  0.0000E+00  0.4691E+16
   -1.100008    1.43681  0.1687E-11  0.1218E-13  0.7603E-17  0.1000E-09  0.0000E+00  0.4557E+16
   -1.168761    1.54889  0.1681E-11  0.1218E-13  0.7603E-17  0.1000E-09  0.0000E+00  0.4412E+16
   -1.237514    1.66275  0.1678E-11  0.1218E-13  0.7603E-17  0.1000E-09  0.0000E+00  0.4255E+16
   -1.306267    1.77834  0.1676E-11  0.1218E-13  0.7603E-17  0.1000E-09  0.0000E+00  0.4089E+16
   -1.375021    1.89566  0.1673E-11  0.1218E-13  0.7603E-17  0.1000E-09  0.0000E+00  0.3916E+16
   -1.443774    2.01480  0.1671E-11  0.1218E-13  0.7603E-17  0.1000E-09  0.0000E+00  0.3736E+16
   -1.512527    2.13585  0.1667E-11  0.1218E-13  0.7603E-17  0.1000E-09  0.0000E+00  0.3551E+16
   -1.581280    2.25898  0.1663E-11  0.1218E-13  0.7603E-17  0.1000E-09  0.0000E+00  0.3359E+16
   -1.650034    2.38442  0.1659E-11  0.1218E-13  0.7603E-17  0.1000E-09  0.0000E+00  0.3163E+16
   -1.718787    2.51254  0.1654E-11  0.1218E-13  0.7603E-17  0.1000E-09  0.0000E+00  0.2957E+16
   -1.787539    2.64359  0.1650E-11  0.1218E-13  0.7603E-17  0.1000E-09  0.0000E+00  0.2624E+16
   -1.856292    2.77194  0.1646E-11  0.1218E-13  0.7603E-17  0.1000E-09  0.0000E+00  0.2293E+16
   -1.925044    2.89669  0.1643E-11  0.1218E-13  0.7603E-17  0.1000E-09  0.0000E+00  0.1963E+16
   -1.993796    3.01643  0.1640E-11  0.1221E-13  0.7603E-17  0.1000E-09  0.0000E+00  0.1664E+16
   -2.062548    3.13115  0.1637E-11  0.4399E-13  0.1546E-16  0.1000E-09  0.0000E+00  0.1462E+16
   -2.131300    3.24675  0.1635E-11  0.1790E-12  0.5717E-16  0.1000E-09  0.0000E+00  0.1264E+16
   -2.200051    3.36398  0.1633E-11  0.6986E-12  0.2142E-15  0.1000E-09  0.0000E+00  0.1061E+16
   -2.268801    3.48323  0.1632E-11  0.2697E-11  0.7971E-15  0.1000E-09  0.0000E+00  0.8440E+15
   -2.337551    3.60410  0.1631E-11  0.1044E-10  0.2978E-14  0.1000E-09  0.0000E+00  0.6189E+15
   -2.406301    3.72657  0.1630E-11  0.4028E-10  0.1110E-13  0.1455E-09  0.0000E+00  0.3857E+15
   -2.475050    3.85074  0.1629E-11  0.1558E-09  0.4152E-13  0.1454E-08  0.0000E+00  0.1432E+15
   -2.543799    3.97547  0.1629E-11  0.5663E-09  0.1478E-12  0.4990E-06  0.0000E+00 -0.1301E+13
   -2.612547    4.00350  0.1629E-11  0.1170E-08  0.4111E-12  0.1401E-05  0.0000E+00 -0.3691E+13
   -2.681294    4.01401  0.1629E-11  0.1054E-08  0.8277E-12  0.3615E-06  0.0000E+00 -0.1439E+14
   -2.750041    4.03736  0.1629E-11  0.0000E+00  0.0000E+00  0.0000E+00  0.0000E+00  0.0000E+00
