 1 - depth, m
 2 - temperature, C
 3 - salinity, kg/kg
 4 - turbulent kinetic energy, m**2/s**2
 5 - dissipation rate, m**2/s**3
 6 - kinematic heat conductance, m**2/s
 7 - modulus of horizontal velocity, m/s
 8 - Richardson number, n/d
   -0.000000   -0.00000  0.8820E-10  0.1219E-13  0.7603E-17  0.1000E-09  0.0000E+00  0.4452E+16
   -0.068746    0.06739  0.4637E-10  0.1219E-13  0.7603E-17  0.1000E-09  0.0000E+00  0.4264E+16
   -0.137492    0.13312  0.3638E-10  0.1219E-13  0.7603E-17  0.1000E-09  0.0000E+00  0.4115E+16
   -0.206239    0.19771  0.3422E-10  0.1219E-13  0.7603E-17  0.1000E-09  0.0000E+00  0.4003E+16
   -0.274986    0.26169  0.3381E-10  0.1219E-13  0.7603E-17  0.1000E-09  0.0000E+00  0.3926E+16
   -0.343734    0.32559  0.3374E-10  0.1219E-13  0.7603E-17  0.1000E-09  0.0000E+00  0.3881E+16
   -0.412483    0.38994  0.3373E-10  0.1219E-13  0.7603E-17  0.1000E-09  0.0000E+00  0.3866E+16
   -0.481232    0.45528  0.3373E-10  0.1219E-13  0.7603E-17  0.1000E-09  0.0000E+00  0.3879E+16
   -0.549982    0.52216  0.3373E-10  0.1219E-13  0.7603E-17  0.1000E-09  0.0000E+00  0.3918E+16
   -0.618732    0.59113  0.3373E-10  0.1219E-13  0.7603E-17  0.1000E-09  0.0000E+00  0.3980E+16
   -0.687482    0.66274  0.3373E-10  0.1219E-13  0.7603E-17  0.1000E-09  0.0000E+00  0.4076E+16
   -0.756232    0.73781  0.3373E-10  0.1219E-13  0.7603E-17  0.1000E-09  0.0000E+00  0.4196E+16
   -0.824983    0.81704  0.3373E-10  0.1219E-13  0.7603E-17  0.1000E-09  0.0000E+00  0.4324E+16
   -0.893735    0.90094  0.3373E-10  0.1219E-13  0.7603E-17  0.1000E-09  0.0000E+00  0.4456E+16
   -0.962486    0.98998  0.3373E-10  0.1219E-13  0.7603E-17  0.1000E-09  0.0000E+00  0.4585E+16
   -1.031238    1.08461  0.3372E-10  0.1219E-13  0.7603E-17  0.1000E-09  0.0000E+00  0.4706E+16
   -1.099990    1.18522  0.3371E-10  0.1219E-13  0.7603E-17  0.1000E-09  0.0000E+00  0.4811E+16
   -1.168742    1.29215  0.3366E-10  0.1219E-13  0.7603E-17  0.1000E-09  0.0000E+00  0.4894E+16
   -1.237494    1.40567  0.3355E-10  0.1219E-13  0.7603E-17  0.1000E-09  0.0000E+00  0.4948E+16
   -1.306246    1.52599  0.3336E-10  0.1219E-13  0.7603E-17  0.1000E-09  0.0000E+00  0.4965E+16
   -1.374998    1.65323  0.3313E-10  0.1219E-13  0.7603E-17  0.1000E-09  0.0000E+00  0.4955E+16
   -1.443750    1.78784  0.3296E-10  0.1219E-13  0.7603E-17  0.1000E-09  0.0000E+00  0.4899E+16
   -1.512502    1.92990  0.3286E-10  0.1801E-13  0.7603E-17  0.1000E-09  0.0000E+00  0.4786E+16
   -1.581255    2.07924  0.3281E-10  0.7197E-13  0.1713E-16  0.1000E-09  0.0000E+00  0.4611E+16
   -1.650006    2.23555  0.3277E-10  0.2342E-12  0.5075E-16  0.1000E-09  0.0000E+00  0.4375E+16
   -1.718758    2.39842  0.3274E-10  0.7172E-12  0.1492E-15  0.1000E-09  0.0000E+00  0.4074E+16
   -1.787510    2.56729  0.3273E-10  0.2205E-11  0.4431E-15  0.1000E-09  0.0000E+00  0.3694E+16
   -1.856261    2.74053  0.3272E-10  0.6763E-11  0.1314E-14  0.1000E-09  0.0000E+00  0.3273E+16
   -1.925013    2.91777  0.3272E-10  0.2053E-10  0.3861E-14  0.1000E-09  0.0000E+00  0.2815E+16
   -1.993764    3.09863  0.3271E-10  0.6175E-10  0.1124E-13  0.1000E-09  0.0000E+00  0.2324E+16
   -2.062514    3.28277  0.3270E-10  0.1795E-09  0.3165E-13  0.1000E-09  0.0000E+00  0.1806E+16
   -2.131265    3.46989  0.3267E-10  0.5132E-09  0.8772E-13  0.3544E-09  0.0000E+00  0.1259E+16
   -2.200015    3.65912  0.3263E-10  0.1449E-08  0.2401E-12  0.1763E-08  0.0000E+00  0.6920E+15
   -2.268764    3.84828  0.3259E-10  0.4024E-08  0.6478E-12  0.2286E-07  0.0000E+00  0.1432E+15
   -2.337513    4.01449  0.3259E-10  0.5877E-08  0.9562E-12  0.1547E-04  0.0000E+00 -0.7988E+12
   -2.406262    4.01624  0.3259E-10  0.6566E-08  0.1123E-11  0.1548E-04  0.0000E+00 -0.8616E+12
   -2.475010    4.01803  0.3259E-10  0.7032E-08  0.1331E-11  0.1411E-04  0.0000E+00 -0.1028E+13
   -2.543757    4.02003  0.3259E-10  0.7265E-08  0.1658E-11  0.1120E-04  0.0000E+00 -0.1440E+13
   -2.612504    4.02266  0.3259E-10  0.7138E-08  0.2390E-11  0.6627E-05  0.0000E+00 -0.2891E+13
   -2.681250    4.02742  0.3259E-10  0.5856E-08  0.6127E-11  0.1365E-05  0.0000E+00 -0.2347E+14
   -2.749996    4.05478  0.3259E-10  0.0000E+00  0.0000E+00  0.0000E+00  0.0000E+00  0.0000E+00
