 1 - depth, m
 2 - temperature, C
 3 - salinity, kg/kg
 4 - turbulent kinetic energy, m**2/s**2
 5 - dissipation rate, m**2/s**3
 6 - kinematic heat conductance, m**2/s
 7 - modulus of horizontal velocity, m/s
 8 - Richardson number, n/d
   -0.000000   -0.00000  0.1104E-09  0.1219E-13  0.7603E-17  0.1000E-09  0.5566E-59  0.3892E+16
   -0.068746    0.05885  0.6439E-10  0.1219E-13  0.7603E-17  0.1000E-09  0.5232E-59  0.3440E+16
   -0.137492    0.11166  0.5754E-10  0.1219E-13  0.7603E-17  0.1000E-09  0.4703E-59  0.2969E+16
   -0.206239    0.15787  0.5642E-10  0.1219E-13  0.7603E-17  0.1000E-09  0.4073E-59  0.2507E+16
   -0.274987    0.19736  0.5626E-10  0.1219E-13  0.7603E-17  0.1000E-09  0.3444E-59  0.2072E+16
   -0.343735    0.23032  0.5624E-10  0.1219E-13  0.7603E-17  0.1000E-09  0.2871E-59  0.1679E+16
   -0.412483    0.25726  0.5624E-10  0.1219E-13  0.7603E-17  0.1000E-09  0.2374E-59  0.1339E+16
   -0.481232    0.27890  0.5624E-10  0.1219E-13  0.7603E-17  0.1000E-09  0.1952E-59  0.1061E+16
   -0.549982    0.29614  0.5624E-10  0.1219E-13  0.7603E-17  0.1000E-09  0.1596E-59  0.8521E+15
   -0.618732    0.31005  0.5624E-10  0.1219E-13  0.7603E-17  0.1000E-09  0.1299E-59  0.7162E+15
   -0.687482    0.32178  0.5624E-10  0.1219E-13  0.7603E-17  0.1000E-09  0.1050E-59  0.6694E+15
   -0.756233    0.33278  0.5624E-10  0.1219E-13  0.7603E-17  0.1000E-09  0.8432E-60  0.7114E+15
   -0.824984    0.34452  0.5624E-10  0.1219E-13  0.7603E-17  0.1000E-09  0.6727E-60  0.8397E+15
   -0.893735    0.35842  0.5624E-10  0.1219E-13  0.7603E-17  0.1000E-09  0.5331E-60  0.1059E+16
   -0.962487    0.37604  0.5624E-10  0.1219E-13  0.7603E-17  0.1000E-09  0.4197E-60  0.1375E+16
   -1.031238    0.39904  0.5624E-10  0.1219E-13  0.7603E-17  0.1000E-09  0.3282E-60  0.1790E+16
   -1.099990    0.42922  0.5624E-10  0.1219E-13  0.7603E-17  0.1000E-09  0.2549E-60  0.2304E+16
   -1.168742    0.46847  0.5624E-10  0.1219E-13  0.7603E-17  0.1000E-09  0.1965E-60  0.2913E+16
   -1.237494    0.51876  0.5623E-10  0.1219E-13  0.7603E-17  0.1000E-09  0.1502E-60  0.3606E+16
   -1.306247    0.58212  0.5621E-10  0.1219E-13  0.7603E-17  0.1000E-09  0.1138E-60  0.4364E+16
   -1.374999    0.66049  0.5611E-10  0.1219E-13  0.7603E-17  0.1000E-09  0.8501E-61  0.5214E+16
   -1.443751    0.75678  0.5585E-10  0.1219E-13  0.7603E-17  0.1000E-09  0.6233E-61  0.6075E+16
   -1.512503    0.87294  0.5543E-10  0.1219E-13  0.7603E-17  0.1000E-09  0.4429E-61  0.6880E+16
   -1.581255    1.01023  0.5520E-10  0.1219E-13  0.7603E-17  0.1000E-09  0.2969E-61  0.7572E+16
   -1.650007    1.16947  0.5513E-10  0.1219E-13  0.7603E-17  0.1000E-09  0.1749E-61  0.8098E+16
   -1.718759    1.35091  0.5509E-10  0.1219E-13  0.7603E-17  0.1000E-09  0.6746E-62  0.8379E+16
   -1.787511    1.55353  0.5506E-10  0.1219E-13  0.7603E-17  0.1000E-09  0.4569E-63  0.7902E+16
   -1.856263    1.76220  0.5505E-10  0.1219E-13  0.7603E-17  0.1000E-09  0.2849E-64  0.7299E+16
   -1.925014    1.97483  0.5504E-10  0.2227E-13  0.9861E-17  0.1000E-09  0.1623E-65  0.6583E+16
   -1.993765    2.18884  0.5504E-10  0.9947E-13  0.3967E-16  0.1000E-09  0.1007E-66  0.5873E+16
   -2.062516    2.40480  0.5503E-10  0.4409E-12  0.1679E-15  0.1000E-09  0.8120E-68  0.5410E+16
   -2.131266    2.63481  0.5501E-10  0.1905E-11  0.6961E-15  0.1000E-09  0.6126E-69  0.4797E+16
   -2.200016    2.87901  0.5496E-10  0.8051E-11  0.2824E-14  0.1000E-09  0.4296E-70  0.4000E+16
   -2.268765    3.13579  0.5486E-10  0.3366E-10  0.1134E-13  0.1000E-09  0.2056E-71  0.3040E+16
   -2.337514    3.40347  0.5467E-10  0.1406E-09  0.4554E-13  0.1192E-09  0.8057E-73  0.1941E+16
   -2.406263    3.68014  0.5443E-10  0.5826E-09  0.1815E-12  0.1256E-08  0.2693E-74  0.7318E+15
   -2.475011    3.96162  0.5441E-10  0.2106E-08  0.6410E-12  0.7156E-06  0.7458E-76  0.5905E+12
   -2.543759    4.00942  0.5441E-10  0.4469E-08  0.1695E-11  0.4423E-05  0.2126E-77 -0.4106E+13
   -2.612506    4.01884  0.5441E-10  0.5677E-08  0.3038E-11  0.3587E-05  0.9585E-79 -0.7756E+13
   -2.681252    4.03157  0.5441E-10  0.6257E-08  0.8109E-11  0.1421E-05  0.2645E-80 -0.4183E+14
   -2.749998    4.07230  0.5441E-10  0.0000E+00  0.0000E+00  0.0000E+00  0.2844E-80  0.0000E+00
