 1 - depth, m
 2 - temperature, C
 3 - salinity, kg/kg
 4 - turbulent kinetic energy, m**2/s**2
 5 - dissipation rate, m**2/s**3
 6 - kinematic heat conductance, m**2/s
 7 - modulus of horizontal velocity, m/s
 8 - Richardson number, n/d
   -0.000000   -0.00000  0.1143E-11  0.1219E-13  0.7603E-17  0.1000E-09  0.0000E+00  0.6048E+16
   -0.068746    0.09186  0.8998E-11  0.1219E-13  0.7603E-17  0.1000E-09  0.0000E+00  0.5996E+16
   -0.137493    0.18528  0.1804E-10  0.1219E-13  0.7603E-17  0.1000E-09  0.0000E+00  0.5932E+16
   -0.206240    0.28017  0.2401E-10  0.1219E-13  0.7603E-17  0.1000E-09  0.0000E+00  0.5856E+16
   -0.274988    0.37644  0.2618E-10  0.1219E-13  0.7603E-17  0.1000E-09  0.0000E+00  0.5767E+16
   -0.343736    0.47399  0.2582E-10  0.1219E-13  0.7603E-17  0.1000E-09  0.0000E+00  0.5667E+16
   -0.412485    0.57273  0.2437E-10  0.1219E-13  0.7603E-17  0.1000E-09  0.0000E+00  0.5555E+16
   -0.481235    0.67254  0.2281E-10  0.1219E-13  0.7603E-17  0.1000E-09  0.0000E+00  0.5433E+16
   -0.549985    0.77334  0.2157E-10  0.1219E-13  0.7603E-17  0.1000E-09  0.0000E+00  0.5302E+16
   -0.618735    0.87501  0.2075E-10  0.1219E-13  0.7603E-17  0.1000E-09  0.0000E+00  0.5162E+16
   -0.687486    0.97748  0.2027E-10  0.1219E-13  0.7603E-17  0.1000E-09  0.0000E+00  0.5014E+16
   -0.756237    1.08065  0.2002E-10  0.1219E-13  0.7603E-17  0.1000E-09  0.0000E+00  0.4859E+16
   -0.824988    1.18443  0.1989E-10  0.1219E-13  0.7603E-17  0.1000E-09  0.0000E+00  0.4698E+16
   -0.893740    1.28874  0.1983E-10  0.1219E-13  0.7603E-17  0.1000E-09  0.0000E+00  0.4531E+16
   -0.962492    1.39351  0.1980E-10  0.1219E-13  0.7603E-17  0.1000E-09  0.0000E+00  0.4359E+16
   -1.031244    1.49864  0.1978E-10  0.1219E-13  0.7603E-17  0.1000E-09  0.0000E+00  0.4183E+16
   -1.099996    1.60408  0.1976E-10  0.1219E-13  0.7603E-17  0.1000E-09  0.0000E+00  0.4003E+16
   -1.168748    1.70976  0.1973E-10  0.1219E-13  0.7603E-17  0.1000E-09  0.0000E+00  0.3821E+16
   -1.237501    1.81561  0.1970E-10  0.1219E-13  0.7603E-17  0.1000E-09  0.0000E+00  0.3637E+16
   -1.306253    1.92159  0.1965E-10  0.1219E-13  0.7603E-17  0.1000E-09  0.0000E+00  0.3452E+16
   -1.375006    2.02765  0.1960E-10  0.1219E-13  0.7603E-17  0.1000E-09  0.0000E+00  0.3267E+16
   -1.443759    2.13379  0.1955E-10  0.1219E-13  0.7603E-17  0.1000E-09  0.0000E+00  0.3081E+16
   -1.512511    2.23999  0.1950E-10  0.1219E-13  0.7603E-17  0.1000E-09  0.0000E+00  0.2895E+16
   -1.581264    2.34623  0.1944E-10  0.1219E-13  0.7603E-17  0.1000E-09  0.0000E+00  0.2710E+16
   -1.650016    2.45250  0.1940E-10  0.1219E-13  0.7603E-17  0.1000E-09  0.0000E+00  0.2524E+16
   -1.718768    2.55878  0.1936E-10  0.1219E-13  0.7603E-17  0.1000E-09  0.0000E+00  0.2338E+16
   -1.787520    2.66504  0.1933E-10  0.1219E-13  0.7603E-17  0.1000E-09  0.0000E+00  0.2136E+16
   -1.856272    2.77036  0.1930E-10  0.1219E-13  0.7603E-17  0.1000E-09  0.0000E+00  0.1935E+16
   -1.925024    2.87452  0.1928E-10  0.1219E-13  0.7603E-17  0.1000E-09  0.0000E+00  0.1735E+16
   -1.993775    2.97724  0.1926E-10  0.1219E-13  0.7603E-17  0.1000E-09  0.0000E+00  0.1544E+16
   -2.062526    3.07851  0.1924E-10  0.1219E-13  0.7603E-17  0.1000E-09  0.0000E+00  0.1376E+16
   -2.131277    3.17958  0.1923E-10  0.1219E-13  0.7603E-17  0.1000E-09  0.0000E+00  0.1211E+16
   -2.200027    3.28060  0.1921E-10  0.1219E-13  0.7603E-17  0.1000E-09  0.0000E+00  0.1047E+16
   -2.268777    3.38159  0.1920E-10  0.1219E-13  0.7603E-17  0.1000E-09  0.0000E+00  0.8839E+15
   -2.337527    3.48250  0.1919E-10  0.1254E-13  0.9453E-17  0.1000E-09  0.0000E+00  0.7210E+15
   -2.406276    3.58329  0.1919E-10  0.7763E-13  0.5814E-16  0.1000E-09  0.0000E+00  0.5590E+15
   -2.475024    3.68391  0.1918E-10  0.5632E-12  0.4091E-15  0.1000E-09  0.0000E+00  0.3980E+15
   -2.543772    3.78423  0.1918E-10  0.4099E-11  0.2904E-14  0.1000E-09  0.0000E+00  0.2385E+15
   -2.612519    3.88403  0.1918E-10  0.3068E-10  0.2148E-13  0.1056E-08  0.0000E+00  0.8186E+14
   -2.681266    3.98183  0.1918E-10  0.2458E-09  0.1799E-12  0.1260E-06  0.0000E+00 -0.1528E+14
   -2.750012    4.03071  0.1918E-10  0.0000E+00  0.0000E+00  0.0000E+00  0.0000E+00  0.0000E+00
