 1 - depth, m
 2 - temperature, C
 3 - salinity, kg/kg
 4 - turbulent kinetic energy, m**2/s**2
 5 - dissipation rate, m**2/s**3
 6 - kinematic heat conductance, m**2/s
 7 - modulus of horizontal velocity, m/s
 8 - Richardson number, n/d
   -0.000000   -0.00000  0.2461E-10  0.1219E-13  0.7603E-17  0.1000E-09  0.0000E+00  0.7469E+16
   -0.068746    0.11377  0.1438E-10  0.1219E-13  0.7603E-17  0.1000E-09  0.0000E+00  0.7177E+16
   -0.137492    0.22656  0.1044E-10  0.1219E-13  0.7603E-17  0.1000E-09  0.0000E+00  0.6910E+16
   -0.206239    0.33868  0.9146E-11  0.1219E-13  0.7603E-17  0.1000E-09  0.0000E+00  0.6668E+16
   -0.274987    0.45045  0.8789E-11  0.1219E-13  0.7603E-17  0.1000E-09  0.0000E+00  0.6448E+16
   -0.343735    0.56222  0.8702E-11  0.1219E-13  0.7603E-17  0.1000E-09  0.0000E+00  0.6247E+16
   -0.412483    0.67431  0.8684E-11  0.1219E-13  0.7603E-17  0.1000E-09  0.0000E+00  0.6063E+16
   -0.481232    0.78707  0.8680E-11  0.1219E-13  0.7603E-17  0.1000E-09  0.0000E+00  0.5891E+16
   -0.549982    0.90079  0.8679E-11  0.1219E-13  0.7603E-17  0.1000E-09  0.0000E+00  0.5729E+16
   -0.618732    1.01577  0.8679E-11  0.1219E-13  0.7603E-17  0.1000E-09  0.0000E+00  0.5572E+16
   -0.687482    1.13229  0.8679E-11  0.1219E-13  0.7603E-17  0.1000E-09  0.0000E+00  0.5430E+16
   -0.756233    1.25085  0.8679E-11  0.1219E-13  0.7603E-17  0.1000E-09  0.0000E+00  0.5292E+16
   -0.824984    1.37180  0.8679E-11  0.1219E-13  0.7603E-17  0.1000E-09  0.0000E+00  0.5148E+16
   -0.893735    1.49534  0.8678E-11  0.1219E-13  0.7603E-17  0.1000E-09  0.0000E+00  0.4994E+16
   -0.962487    1.62161  0.8677E-11  0.1787E-13  0.7603E-17  0.1000E-09  0.0000E+00  0.4828E+16
   -1.031238    1.75073  0.8672E-11  0.7168E-13  0.1088E-16  0.1000E-09  0.0000E+00  0.4647E+16
   -1.099990    1.88278  0.8663E-11  0.1944E-12  0.2396E-16  0.1000E-09  0.0000E+00  0.4449E+16
   -1.168742    2.01779  0.8645E-11  0.4688E-12  0.5446E-16  0.1000E-09  0.0000E+00  0.4232E+16
   -1.237495    2.15574  0.8616E-11  0.1088E-11  0.1223E-15  0.1000E-09  0.0000E+00  0.3995E+16
   -1.306247    2.29660  0.8578E-11  0.2481E-11  0.2714E-15  0.1000E-09  0.0000E+00  0.3737E+16
   -1.374999    2.44027  0.8537E-11  0.5592E-11  0.5959E-15  0.1000E-09  0.0000E+00  0.3461E+16
   -1.443751    2.58680  0.8503E-11  0.1247E-10  0.1295E-14  0.1000E-09  0.0000E+00  0.3164E+16
   -1.512503    2.73606  0.8478E-11  0.2756E-10  0.2789E-14  0.1000E-09  0.0000E+00  0.2845E+16
   -1.581256    2.88783  0.8464E-11  0.6029E-10  0.5951E-14  0.1000E-09  0.0000E+00  0.2505E+16
   -1.650008    3.04185  0.8455E-11  0.1307E-09  0.1258E-13  0.1000E-09  0.0000E+00  0.2146E+16
   -1.718759    3.19781  0.8449E-11  0.2807E-09  0.2637E-13  0.1000E-09  0.0000E+00  0.1773E+16
   -1.787511    3.35550  0.8444E-11  0.6116E-09  0.5603E-13  0.2029E-09  0.0000E+00  0.1405E+16
   -1.856263    3.51719  0.8437E-11  0.1344E-08  0.1202E-12  0.6063E-09  0.0000E+00  0.1009E+16
   -1.925014    3.68282  0.8427E-11  0.2948E-08  0.2574E-12  0.2255E-08  0.0000E+00  0.5808E+15
   -1.993765    3.85134  0.8419E-11  0.6388E-08  0.5455E-12  0.1979E-07  0.0000E+00  0.1400E+15
   -2.062516    4.00535  0.8418E-11  0.7244E-08  0.6222E-12  0.3433E-04  0.0000E+00 -0.2182E+12
   -2.131266    4.00607  0.8418E-11  0.7603E-08  0.6628E-12  0.3486E-04  0.0000E+00 -0.2231E+12
   -2.200016    4.00678  0.8418E-11  0.7888E-08  0.7062E-12  0.3455E-04  0.0000E+00 -0.2334E+12
   -2.268765    4.00749  0.8418E-11  0.8103E-08  0.7553E-12  0.3338E-04  0.0000E+00 -0.2506E+12
   -2.337515    4.00824  0.8418E-11  0.8254E-08  0.8164E-12  0.3120E-04  0.0000E+00 -0.2787E+12
   -2.406263    4.00903  0.8418E-11  0.8333E-08  0.8989E-12  0.2784E-04  0.0000E+00 -0.3258E+12
   -2.475011    4.00993  0.8418E-11  0.8318E-08  0.1023E-11  0.2310E-04  0.0000E+00 -0.4125E+12
   -2.543759    4.01102  0.8418E-11  0.8155E-08  0.1245E-11  0.1679E-04  0.0000E+00 -0.6053E+12
   -2.612506    4.01254  0.8418E-11  0.7669E-08  0.1783E-11  0.8915E-05  0.0000E+00 -0.1266E+13
   -2.681252    4.01546  0.8418E-11  0.5590E-08  0.5012E-11  0.1226E-05  0.0000E+00 -0.1330E+14
   -2.749998    4.03678  0.8418E-11  0.0000E+00  0.0000E+00  0.0000E+00  0.0000E+00  0.0000E+00
