 1 - depth, m
 2 - temperature, C
 3 - salinity, kg/kg
 4 - turbulent kinetic energy, m**2/s**2
 5 - dissipation rate, m**2/s**3
 6 - kinematic heat conductance, m**2/s
 7 - modulus of horizontal velocity, m/s
 8 - Richardson number, n/d
   -0.000000    0.00536  0.1077E-11  0.2803E-04  0.3684E-05  0.4069E-04  0.6199E-01 -0.6643E+00
   -0.068746    0.05581  0.1080E-11  0.2095E-04  0.9531E-06  0.6487E-04  0.4794E-01  0.8384E-01
   -0.137493    0.10007  0.1085E-11  0.1787E-04  0.4304E-06  0.7908E-04  0.4262E-01  0.1268E+00
   -0.206240    0.18457  0.1092E-11  0.1567E-04  0.2549E-06  0.8723E-04  0.3840E-01  0.1736E+00
   -0.274988    0.28820  0.1115E-11  0.1388E-04  0.1747E-06  0.9062E-04  0.3474E-01  0.2458E+00
   -0.343736    0.38354  0.1344E-11  0.1232E-04  0.1297E-06  0.9001E-04  0.3156E-01  0.2519E+00
   -0.412485    0.46439  0.1566E-11  0.1090E-04  0.1009E-06  0.1057E-03  0.2878E-01  0.1138E+03
   -0.481235    0.53505  0.1664E-11  0.9603E-05  0.8086E-07  0.1017E-03  0.2635E-01  0.2857E+02
   -0.549984    0.59977  0.1738E-11  0.8398E-05  0.6599E-07  0.9536E-04  0.2416E-01  0.1398E+03
   -0.618735    0.66093  0.1799E-11  0.7275E-05  0.5452E-07  0.8709E-04  0.2215E-01  0.4238E+03
   -0.687485    0.71968  0.1852E-11  0.6227E-05  0.4541E-07  0.7494E-04  0.2028E-01  0.3340E+02
   -0.756236    0.77647  0.1900E-11  0.5246E-05  0.3803E-07  0.4000E-04  0.1852E-01  0.1041E+02
   -0.824988    0.83303  0.2050E-11  0.4321E-05  0.3197E-07  0.2880E-04  0.1684E-01  0.1654E+03
   -0.893739    0.89768  0.2481E-11  0.3453E-05  0.2698E-07  0.1942E-04  0.1520E-01  0.2005E+04
   -0.962491    0.97353  0.2575E-11  0.2634E-05  0.2292E-07  0.1172E-04  0.1358E-01  0.2425E+05
   -1.031243    1.06661  0.2583E-11  0.1856E-05  0.1970E-07  0.6154E-05  0.1189E-01  0.3163E+06
   -1.099995    1.19351  0.2590E-11  0.1130E-05  0.1697E-07  0.2668E-05  0.1001E-01  0.4764E+07
   -1.168747    1.42257  0.2627E-11  0.5611E-06  0.1202E-07  0.9349E-06  0.7573E-02  0.9575E+08
   -1.237500    2.08000  0.2756E-11  0.4554E-06  0.6441E-08  0.6755E-06  0.4236E-02  0.3044E+10
   -1.306252    2.98550  0.2807E-11  0.5464E-06  0.2596E-08  0.6982E-04  0.2004E-02  0.1219E+12
   -1.375005    3.81192  0.2824E-11  0.6007E-06  0.9912E-09  0.3108E-03  0.9598E-03  0.1064E+13
   -1.443757    4.14056  0.2834E-11  0.5900E-06  0.4837E-09  0.4454E-03  0.4640E-03 -0.6733E+11
   -1.512510    4.17086  0.2840E-11  0.5872E-06  0.3406E-09  0.4514E-03  0.2501E-03 -0.6095E+11
   -1.581262    4.18364  0.2843E-11  0.5874E-06  0.2920E-09  0.4592E-03  0.1534E-03 -0.6375E+11
   -1.650015    4.19017  0.2844E-11  0.5884E-06  0.2710E-09  0.4653E-03  0.1015E-03 -0.7224E+11
   -1.718767    4.19439  0.2844E-11  0.5893E-06  0.2599E-09  0.4698E-03  0.6734E-04 -0.7397E+11
   -1.787519    4.19757  0.2845E-11  0.5897E-06  0.2534E-09  0.4735E-03  0.4210E-04 -0.9566E+11
   -1.856271    4.20014  0.2845E-11  0.5900E-06  0.2503E-09  0.4763E-03  0.2806E-04 -0.1111E+12
   -1.925022    4.20232  0.2845E-11  0.5901E-06  0.2495E-09  0.4792E-03  0.1955E-04 -0.1377E+12
   -1.993774    4.20418  0.2845E-11  0.5897E-06  0.2509E-09  0.4751E-03  0.1429E-04 -0.1623E+12
   -2.062525    4.20590  0.2845E-11  0.5887E-06  0.2540E-09  0.4640E-03  0.1096E-04 -0.1892E+12
   -2.131275    4.20759  0.2845E-11  0.5871E-06  0.2589E-09  0.4501E-03  0.8452E-05 -0.2166E+12
   -2.200025    4.20928  0.2845E-11  0.5848E-06  0.2658E-09  0.4336E-03  0.6432E-05 -0.2560E+12
   -2.268775    4.21096  0.2845E-11  0.5818E-06  0.2753E-09  0.4138E-03  0.4760E-05 -0.3066E+12
   -2.337525    4.21268  0.2846E-11  0.5776E-06  0.2889E-09  0.3894E-03  0.3451E-05 -0.3818E+12
   -2.406274    4.21446  0.2846E-11  0.5720E-06  0.3086E-09  0.3596E-03  0.2453E-05 -0.4830E+12
   -2.475022    4.21634  0.2846E-11  0.5643E-06  0.3391E-09  0.3212E-03  0.1698E-05 -0.6507E+12
   -2.543770    4.21840  0.2846E-11  0.5528E-06  0.3917E-09  0.2697E-03  0.1098E-05 -0.8980E+12
   -2.612517    4.22100  0.2846E-11  0.5294E-06  0.5264E-09  0.1392E-03  0.6070E-06 -0.2530E+13
   -2.681264    4.22595  0.2846E-11  0.3487E-06  0.2095E-08  0.8807E-05  0.2357E-06 -0.1201E+15
   -2.750010    4.29118  0.2846E-11  0.0000E+00  0.0000E+00  0.0000E+00  0.2360E-06  0.0000E+00
