 1 - depth, m
 2 - temperature, C
 3 - salinity, kg/kg
 4 - turbulent kinetic energy, m**2/s**2
 5 - dissipation rate, m**2/s**3
 6 - kinematic heat conductance, m**2/s
 7 - modulus of horizontal velocity, m/s
 8 - Richardson number, n/d
   -0.000000   -0.00000  0.6103E-17  0.1218E-13  0.7603E-17  0.1000E-09  0.0000E+00  0.4102E+16
   -0.068747    0.06205  0.4879E-19  0.1218E-13  0.7603E-17  0.1000E-09  0.0000E+00  0.4258E+16
   -0.137494    0.12759  0.2917E-12  0.1218E-13  0.7603E-17  0.1000E-09  0.0000E+00  0.4396E+16
   -0.206242    0.19652  0.3255E-11  0.1218E-13  0.7603E-17  0.1000E-09  0.0000E+00  0.4517E+16
   -0.274990    0.26877  0.8338E-11  0.1218E-13  0.7603E-17  0.1000E-09  0.0000E+00  0.4623E+16
   -0.343739    0.34430  0.1347E-10  0.1218E-13  0.7603E-17  0.1000E-09  0.0000E+00  0.4714E+16
   -0.412488    0.42306  0.1707E-10  0.1218E-13  0.7603E-17  0.1000E-09  0.0000E+00  0.4788E+16
   -0.481238    0.50500  0.1874E-10  0.1218E-13  0.7603E-17  0.1000E-09  0.0000E+00  0.4843E+16
   -0.549989    0.59000  0.1889E-10  0.1218E-13  0.7603E-17  0.1000E-09  0.0000E+00  0.4878E+16
   -0.618739    0.67795  0.1822E-10  0.1218E-13  0.7603E-17  0.1000E-09  0.0000E+00  0.4891E+16
   -0.687491    0.76869  0.1732E-10  0.1218E-13  0.7603E-17  0.1000E-09  0.0000E+00  0.4877E+16
   -0.756242    0.86195  0.1651E-10  0.1218E-13  0.7603E-17  0.1000E-09  0.0000E+00  0.4840E+16
   -0.824994    0.95749  0.1590E-10  0.1218E-13  0.7603E-17  0.1000E-09  0.0000E+00  0.4782E+16
   -0.893746    1.05510  0.1551E-10  0.1218E-13  0.7603E-17  0.1000E-09  0.0000E+00  0.4706E+16
   -0.962498    1.15461  0.1528E-10  0.1218E-13  0.7603E-17  0.1000E-09  0.0000E+00  0.4614E+16
   -1.031251    1.25586  0.1515E-10  0.1218E-13  0.7603E-17  0.1000E-09  0.0000E+00  0.4508E+16
   -1.100004    1.35872  0.1509E-10  0.1218E-13  0.7603E-17  0.1000E-09  0.0000E+00  0.4389E+16
   -1.168757    1.46309  0.1505E-10  0.1218E-13  0.7603E-17  0.1000E-09  0.0000E+00  0.4261E+16
   -1.237510    1.56890  0.1503E-10  0.1218E-13  0.7603E-17  0.1000E-09  0.0000E+00  0.4125E+16
   -1.306263    1.67613  0.1501E-10  0.1218E-13  0.7603E-17  0.1000E-09  0.0000E+00  0.3982E+16
   -1.375016    1.78479  0.1499E-10  0.1218E-13  0.7603E-17  0.1000E-09  0.0000E+00  0.3835E+16
   -1.443769    1.89499  0.1496E-10  0.1218E-13  0.7603E-17  0.1000E-09  0.0000E+00  0.3684E+16
   -1.512522    2.00682  0.1493E-10  0.1218E-13  0.7603E-17  0.1000E-09  0.0000E+00  0.3528E+16
   -1.581275    2.12040  0.1489E-10  0.1218E-13  0.7603E-17  0.1000E-09  0.0000E+00  0.3367E+16
   -1.650028    2.23589  0.1485E-10  0.1218E-13  0.7603E-17  0.1000E-09  0.0000E+00  0.3202E+16
   -1.718780    2.35349  0.1481E-10  0.1218E-13  0.7603E-17  0.1000E-09  0.0000E+00  0.3027E+16
   -1.787533    2.47328  0.1478E-10  0.1218E-13  0.7603E-17  0.1000E-09  0.0000E+00  0.2754E+16
   -1.856285    2.59143  0.1474E-10  0.1218E-13  0.7603E-17  0.1000E-09  0.0000E+00  0.2480E+16
   -1.925037    2.70734  0.1471E-10  0.1218E-13  0.7603E-17  0.1000E-09  0.0000E+00  0.2203E+16
   -1.993789    2.82018  0.1469E-10  0.1218E-13  0.7603E-17  0.1000E-09  0.0000E+00  0.1947E+16
   -2.062541    2.93010  0.1467E-10  0.1218E-13  0.7603E-17  0.1000E-09  0.0000E+00  0.1764E+16
   -2.131292    3.04084  0.1466E-10  0.1218E-13  0.7603E-17  0.1000E-09  0.0000E+00  0.1584E+16
   -2.200043    3.15291  0.1464E-10  0.1218E-13  0.7603E-17  0.1000E-09  0.0000E+00  0.1400E+16
   -2.268793    3.26655  0.1463E-10  0.1218E-13  0.7603E-17  0.1000E-09  0.0000E+00  0.1203E+16
   -2.337543    3.38129  0.1462E-10  0.1218E-13  0.7603E-17  0.1000E-09  0.0000E+00  0.9997E+15
   -2.406292    3.49691  0.1461E-10  0.2866E-13  0.1577E-16  0.1000E-09  0.0000E+00  0.7909E+15
   -2.475041    3.61318  0.1460E-10  0.1601E-12  0.8355E-16  0.1000E-09  0.0000E+00  0.5772E+15
   -2.543790    3.72960  0.1460E-10  0.9324E-12  0.4686E-15  0.1000E-09  0.0000E+00  0.3614E+15
   -2.612538    3.84522  0.1459E-10  0.5583E-11  0.2716E-14  0.1084E-09  0.0000E+00  0.1492E+15
   -2.681285    3.95655  0.1459E-10  0.3680E-10  0.1760E-13  0.3212E-07  0.0000E+00 -0.6525E+13
   -2.750031    4.02783  0.1459E-10  0.0000E+00  0.0000E+00  0.0000E+00  0.0000E+00  0.0000E+00
