 1 - depth, m
 2 - temperature, C
 3 - salinity, kg/kg
 4 - turbulent kinetic energy, m**2/s**2
 5 - dissipation rate, m**2/s**3
 6 - kinematic heat conductance, m**2/s
 7 - modulus of horizontal velocity, m/s
 8 - Richardson number, n/d
   -0.000000   -0.00000  0.9782E-10  0.5932E-06  0.7341E-08  0.4043E-05  0.7748E-02  0.8275E-01
   -0.068745    0.01316  0.9720E-10  0.4533E-06  0.2768E-08  0.5590E-05  0.5077E-02  0.1943E+00
   -0.137490    0.02200  0.9683E-10  0.3252E-06  0.1387E-08  0.5241E-05  0.3668E-02  0.5018E+00
   -0.206236    0.03057  0.9648E-10  0.2277E-06  0.7592E-09  0.4251E-05  0.2690E-02  0.1473E+01
   -0.274983    0.03935  0.9611E-10  0.1621E-06  0.4302E-09  0.3189E-05  0.1958E-02  0.3919E+01
   -0.343730    0.04731  0.9575E-10  0.1247E-06  0.2463E-09  0.2275E-05  0.1411E-02  0.7729E+01
   -0.412478    0.05350  0.9538E-10  0.9612E-07  0.1392E-09  0.9341E-04  0.1006E-02  0.3511E+02
   -0.481226    0.05800  0.9512E-10  0.7484E-07  0.7614E-10  0.1389E-03  0.7096E-03  0.1776E+03
   -0.549974    0.06140  0.9493E-10  0.6022E-07  0.3974E-10  0.1556E-03  0.4915E-03  0.3837E+05
   -0.618723    0.06404  0.9478E-10  0.5112E-07  0.1975E-10  0.1616E-03  0.3313E-03  0.3060E+06
   -0.687473    0.06610  0.9466E-10  0.4623E-07  0.9767E-11  0.1660E-03  0.2154E-03  0.2239E+06
   -0.756223    0.06773  0.9457E-10  0.4414E-07  0.5564E-11  0.1695E-03  0.1341E-03  0.1070E+06
   -0.824973    0.06901  0.9450E-10  0.4353E-07  0.4247E-11  0.1730E-03  0.8007E-04  0.9353E+05
   -0.893723    0.07001  0.9443E-10  0.4342E-07  0.3978E-11  0.1990E-03  0.4670E-04 -0.2006E+04
   -0.962474    0.07078  0.9437E-10  0.4331E-07  0.3928E-11  0.1768E-03  0.2737E-04  0.2424E+06
   -1.031224    0.07140  0.9432E-10  0.4303E-07  0.3879E-11  0.1713E-03  0.1645E-04  0.4356E+06
   -1.099975    0.07194  0.9427E-10  0.4257E-07  0.3799E-11  0.1688E-03  0.1029E-04  0.7169E+06
   -1.168726    0.07245  0.9422E-10  0.4196E-07  0.3690E-11  0.1678E-03  0.6800E-05  0.4545E+06
   -1.237478    0.07300  0.9418E-10  0.4115E-07  0.3548E-11  0.1581E-03  0.4813E-05  0.3168E+07
   -1.306229    0.07374  0.9412E-10  0.3971E-07  0.3324E-11  0.9740E-06  0.3645E-05  0.3722E+08
   -1.374980    0.07559  0.9400E-10  0.2568E-07  0.2042E-11  0.1379E-07  0.2335E-05  0.5007E+09
   -1.443731    0.08297  0.9385E-10  0.1032E-07  0.8579E-12  0.2678E-08  0.1067E-05  0.5376E+10
   -1.512483    0.09989  0.9379E-10  0.4068E-08  0.3629E-12  0.6867E-09  0.4880E-06  0.5202E+11
   -1.581234    0.13385  0.9373E-10  0.1978E-08  0.1972E-12  0.2742E-09  0.2307E-06  0.4602E+12
   -1.649985    0.19667  0.9366E-10  0.1808E-08  0.1974E-12  0.1990E-09  0.1069E-06  0.3308E+13
   -1.718736    0.30340  0.9359E-10  0.2954E-08  0.3227E-12  0.2212E-09  0.3617E-07  0.2951E+14
   -1.787487    0.46367  0.9353E-10  0.5856E-08  0.6193E-12  0.6215E-09  0.2392E-08  0.1196E+16
   -1.856237    0.57094  0.9349E-10  0.1189E-07  0.1214E-11  0.2601E-08  0.1462E-09  0.1889E+16
   -1.924988    0.63002  0.9346E-10  0.1548E-07  0.1594E-11  0.1407E-04  0.5596E-11  0.7257E+15
   -1.993738    0.64349  0.9346E-10  0.1579E-07  0.1629E-11  0.9190E-04  0.2488E-11  0.2081E+15
   -2.062487    0.64744  0.9346E-10  0.1551E-07  0.1600E-11  0.3518E-08  0.2277E-11  0.3824E+16
   -2.131237    0.71850  0.9345E-10  0.7889E-08  0.8465E-12  0.5600E-09  0.1770E-12  0.9416E+16
   -2.199986    0.89953  0.9339E-10  0.3858E-08  0.4434E-12  0.1960E-09  0.1238E-13  0.1536E+17
   -2.268734    1.22080  0.9332E-10  0.1778E-08  0.2530E-12  0.1146E-09  0.5899E-15  0.1944E+17
   -2.337483    1.69340  0.9323E-10  0.8232E-09  0.2697E-12  0.1000E-09  0.2300E-16  0.2058E+17
   -2.406230    2.33901  0.9311E-10  0.1446E-08  0.1071E-11  0.3627E-09  0.7648E-18  0.1648E+17
   -2.474977    3.16785  0.9283E-10  0.9689E-08  0.7375E-11  0.9790E-08  0.2116E-19  0.5413E+16
   -2.543724    4.09438  0.9247E-10  0.2852E-07  0.2195E-10  0.1440E-04  0.4627E-21 -0.1667E+14
   -2.612470    4.10512  0.9247E-10  0.3299E-07  0.3265E-10  0.1163E-04  0.3384E-22 -0.2654E+14
   -2.681215    4.11988  0.9247E-10  0.3168E-07  0.8193E-10  0.3426E-05  0.1609E-23 -0.1581E+15
   -2.749960    4.18297  0.9247E-10  0.0000E+00  0.0000E+00  0.0000E+00  0.1671E-23  0.0000E+00
