 1 - depth, m
 2 - temperature, C
 3 - salinity, kg/kg
 4 - turbulent kinetic energy, m**2/s**2
 5 - dissipation rate, m**2/s**3
 6 - kinematic heat conductance, m**2/s
 7 - modulus of horizontal velocity, m/s
 8 - Richardson number, n/d
   -0.000000   11.69028  0.4989E-11  0.1487E-04  0.6821E-06  0.3467E-04  0.2607E-01 -0.3535E-01
   -0.068746   11.72517  0.4989E-11  0.1414E-04  0.2399E-06  0.9777E-04  0.1689E-01 -0.9864E-01
   -0.137492   11.73695  0.4989E-11  0.1374E-04  0.1383E-06  0.1768E-03  0.1367E-01 -0.1674E+00
   -0.206239   11.74329  0.4989E-11  0.1348E-04  0.9569E-07  0.2996E-03  0.1187E-01  0.4536E+02
   -0.274987   11.74714  0.4989E-11  0.1333E-04  0.7328E-07  0.4775E-03  0.1069E-01  0.1959E+02
   -0.343735   11.74957  0.4989E-11  0.1326E-04  0.6011E-07  0.7476E-03  0.9860E-02  0.7924E+02
   -0.412484   11.75108  0.4989E-11  0.1328E-04  0.5172E-07  0.1050E-02  0.9234E-02  0.6963E+02
   -0.481233   11.75204  0.4989E-11  0.1336E-04  0.4576E-07  0.1201E-02  0.8710E-02  0.7900E+01
   -0.549983   11.75284  0.4989E-11  0.1348E-04  0.4108E-07  0.1258E-02  0.8222E-02  0.8856E+01
   -0.618733   11.75358  0.4989E-11  0.1359E-04  0.3731E-07  0.1328E-02  0.7759E-02  0.9571E+01
   -0.687483   11.75426  0.4989E-11  0.1371E-04  0.3422E-07  0.1392E-02  0.7322E-02  0.1013E+02
   -0.756234   11.75489  0.4989E-11  0.1382E-04  0.3164E-07  0.1457E-02  0.6906E-02  0.1068E+02
   -0.824985   11.75547  0.4989E-11  0.1391E-04  0.2946E-07  0.1520E-02  0.6508E-02  0.1119E+02
   -0.893736   11.75601  0.4989E-11  0.1398E-04  0.2759E-07  0.1582E-02  0.6125E-02  0.1171E+02
   -0.962488   11.75652  0.4989E-11  0.1402E-04  0.2596E-07  0.1641E-02  0.5755E-02  0.1223E+02
   -1.031240   11.75700  0.4989E-11  0.1404E-04  0.2454E-07  0.1698E-02  0.5395E-02  0.1277E+02
   -1.099992   11.75744  0.4989E-11  0.1404E-04  0.2329E-07  0.1752E-02  0.5045E-02  0.1335E+02
   -1.168744   11.75786  0.4989E-11  0.1400E-04  0.2219E-07  0.1801E-02  0.4704E-02  0.1399E+02
   -1.237496   11.75826  0.4989E-11  0.1393E-04  0.2120E-07  0.1844E-02  0.4370E-02  0.1471E+02
   -1.306249   11.75864  0.4989E-11  0.1383E-04  0.2032E-07  0.1879E-02  0.4042E-02  0.1556E+02
   -1.375001   11.75900  0.4989E-11  0.1370E-04  0.1953E-07  0.1905E-02  0.3719E-02  0.1660E+02
   -1.443753   11.75934  0.4989E-11  0.1353E-04  0.1883E-07  0.1921E-02  0.3402E-02  0.1793E+02
   -1.512506   11.75967  0.4989E-11  0.1334E-04  0.1820E-07  0.1926E-02  0.3089E-02  0.1974E+02
   -1.581258   11.75999  0.4989E-11  0.1310E-04  0.1764E-07  0.1919E-02  0.2779E-02  0.2234E+02
   -1.650010   11.76029  0.4989E-11  0.1284E-04  0.1715E-07  0.1902E-02  0.2473E-02  0.2640E+02
   -1.718762   11.76060  0.4989E-11  0.1253E-04  0.1671E-07  0.1864E-02  0.2170E-02  0.3067E+02
   -1.787514   11.76089  0.4989E-11  0.1219E-04  0.1632E-07  0.1859E-02  0.1867E-02  0.7548E+01
   -1.856265   11.76118  0.4989E-11  0.1181E-04  0.1600E-07  0.1857E-02  0.1608E-02  0.3765E+01
   -1.925017   11.76147  0.4989E-11  0.1141E-04  0.1579E-07  0.1872E-02  0.1386E-02  0.2312E+01
   -1.993768   11.76175  0.4989E-11  0.1100E-04  0.1571E-07  0.1897E-02  0.1199E-02  0.1660E+01
   -2.062519   11.76203  0.4989E-11  0.1061E-04  0.1580E-07  0.1890E-02  0.1041E-02  0.1345E+01
   -2.131269   11.76230  0.4989E-11  0.1024E-04  0.1606E-07  0.1852E-02  0.9026E-03  0.1096E+01
   -2.200019   11.76257  0.4989E-11  0.9889E-05  0.1654E-07  0.1772E-02  0.7796E-03  0.8965E+00
   -2.268769   11.76284  0.4989E-11  0.9572E-05  0.1725E-07  0.1646E-02  0.6714E-03  0.7044E+00
   -2.337518   11.76313  0.4989E-11  0.9277E-05  0.1828E-07  0.1475E-02  0.5801E-03  0.5877E+00
   -2.406267   11.76345  0.4989E-11  0.8997E-05  0.1976E-07  0.1330E-02  0.5044E-03  0.6450E+00
   -2.475015   11.76379  0.4989E-11  0.8696E-05  0.2234E-07  0.1122E-02  0.4419E-03  0.1509E+02
   -2.543762   11.76424  0.4989E-11  0.8300E-05  0.2740E-07  0.1003E-02  0.3811E-03  0.1951E+03
   -2.612510   11.76478  0.4989E-11  0.7578E-05  0.4211E-07  0.5303E-03  0.3238E-03  0.7944E+03
   -2.681256   11.76647  0.4989E-11  0.4618E-05  0.1556E-06  0.6052E-04  0.2311E-03 -0.2692E+05
   -2.750002   11.77459  0.4989E-11  0.0000E+00  0.0000E+00  0.0000E+00  0.2543E-03  0.0000E+00
