 1 - depth, m
 2 - temperature, C
 3 - salinity, kg/kg
 4 - turbulent kinetic energy, m**2/s**2
 5 - dissipation rate, m**2/s**3
 6 - kinematic heat conductance, m**2/s
 7 - modulus of horizontal velocity, m/s
 8 - Richardson number, n/d
   -0.000000   -0.00000  0.6871E-12  0.1219E-13  0.7603E-17  0.1000E-09  0.0000E+00  0.7091E+16
   -0.068746    0.10794  0.2641E-11  0.1219E-13  0.7603E-17  0.1000E-09  0.0000E+00  0.6997E+16
   -0.137493    0.21768  0.3742E-11  0.1219E-13  0.7603E-17  0.1000E-09  0.0000E+00  0.6884E+16
   -0.206240    0.32908  0.4035E-11  0.1219E-13  0.7603E-17  0.1000E-09  0.0000E+00  0.6753E+16
   -0.274988    0.44198  0.3901E-11  0.1219E-13  0.7603E-17  0.1000E-09  0.0000E+00  0.6605E+16
   -0.343736    0.55621  0.3618E-11  0.1219E-13  0.7603E-17  0.1000E-09  0.0000E+00  0.6441E+16
   -0.412485    0.67162  0.3346E-11  0.1219E-13  0.7603E-17  0.1000E-09  0.0000E+00  0.6261E+16
   -0.481234    0.78803  0.3145E-11  0.1219E-13  0.7603E-17  0.1000E-09  0.0000E+00  0.6069E+16
   -0.549984    0.90529  0.3021E-11  0.1219E-13  0.7603E-17  0.1000E-09  0.0000E+00  0.5864E+16
   -0.618734    1.02324  0.2953E-11  0.1219E-13  0.7603E-17  0.1000E-09  0.0000E+00  0.5650E+16
   -0.687485    1.14174  0.2919E-11  0.1219E-13  0.7603E-17  0.1000E-09  0.0000E+00  0.5427E+16
   -0.756236    1.26065  0.2903E-11  0.1219E-13  0.7603E-17  0.1000E-09  0.0000E+00  0.5198E+16
   -0.824987    1.37986  0.2896E-11  0.1219E-13  0.7603E-17  0.1000E-09  0.0000E+00  0.4963E+16
   -0.893739    1.49925  0.2893E-11  0.1219E-13  0.7603E-17  0.1000E-09  0.0000E+00  0.4724E+16
   -0.962490    1.61872  0.2890E-11  0.1219E-13  0.7603E-17  0.1000E-09  0.0000E+00  0.4482E+16
   -1.031242    1.73818  0.2886E-11  0.1219E-13  0.7603E-17  0.1000E-09  0.0000E+00  0.4238E+16
   -1.099995    1.85753  0.2882E-11  0.1219E-13  0.7603E-17  0.1000E-09  0.0000E+00  0.3994E+16
   -1.168747    1.97672  0.2876E-11  0.1219E-13  0.7603E-17  0.1000E-09  0.0000E+00  0.3749E+16
   -1.237499    2.09567  0.2868E-11  0.1219E-13  0.7603E-17  0.1000E-09  0.0000E+00  0.3505E+16
   -1.306252    2.21433  0.2860E-11  0.1219E-13  0.7603E-17  0.1000E-09  0.0000E+00  0.3263E+16
   -1.375004    2.33267  0.2851E-11  0.1219E-13  0.7603E-17  0.1000E-09  0.0000E+00  0.3024E+16
   -1.443757    2.45068  0.2843E-11  0.1219E-13  0.7603E-17  0.1000E-09  0.0000E+00  0.2787E+16
   -1.512509    2.56835  0.2835E-11  0.1219E-13  0.7603E-17  0.1000E-09  0.0000E+00  0.2553E+16
   -1.581262    2.68567  0.2828E-11  0.1219E-13  0.7603E-17  0.1000E-09  0.0000E+00  0.2322E+16
   -1.650014    2.80264  0.2822E-11  0.4101E-13  0.9074E-17  0.1000E-09  0.0000E+00  0.2093E+16
   -1.718766    2.91928  0.2817E-11  0.1273E-12  0.2244E-16  0.1000E-09  0.0000E+00  0.1867E+16
   -1.787518    3.03553  0.2814E-11  0.3655E-12  0.6076E-16  0.1000E-09  0.0000E+00  0.1623E+16
   -1.856270    3.14984  0.2811E-11  0.1028E-11  0.1650E-15  0.1000E-09  0.0000E+00  0.1386E+16
   -1.925021    3.26184  0.2808E-11  0.2856E-11  0.4443E-15  0.1000E-09  0.0000E+00  0.1158E+16
   -1.993773    3.37103  0.2807E-11  0.7869E-11  0.1188E-14  0.1000E-09  0.0000E+00  0.9448E+15
   -2.062524    3.47738  0.2805E-11  0.2100E-10  0.3077E-14  0.1000E-09  0.0000E+00  0.7621E+15
   -2.131274    3.58331  0.2804E-11  0.5525E-10  0.7859E-14  0.1000E-09  0.0000E+00  0.5836E+15
   -2.200024    3.68912  0.2804E-11  0.1438E-09  0.1987E-13  0.2486E-09  0.0000E+00  0.4061E+15
   -2.268774    3.79481  0.2803E-11  0.3737E-09  0.5018E-13  0.1111E-08  0.0000E+00  0.2293E+15
   -2.337524    3.89992  0.2803E-11  0.9749E-09  0.1274E-12  0.1117E-07  0.0000E+00  0.5740E+14
   -2.406272    3.99820  0.2803E-11  0.1757E-08  0.2307E-12  0.5764E-05  0.0000E+00 -0.5208E+12
   -2.475021    4.00073  0.2803E-11  0.2071E-08  0.2950E-12  0.5902E-05  0.0000E+00 -0.5998E+12
   -2.543769    4.00318  0.2803E-11  0.2238E-08  0.3788E-12  0.4975E-05  0.0000E+00 -0.8185E+12
   -2.612516    4.00604  0.2803E-11  0.2205E-08  0.5417E-12  0.2936E-05  0.0000E+00 -0.1606E+13
   -2.681263    4.01069  0.2803E-11  0.1645E-08  0.1246E-11  0.4949E-06  0.0000E+00 -0.1149E+14
   -2.750009    4.03172  0.2803E-11  0.0000E+00  0.0000E+00  0.0000E+00  0.0000E+00  0.0000E+00
