 1 - depth, m
 2 - temperature, C
 3 - salinity, kg/kg
 4 - turbulent kinetic energy, m**2/s**2
 5 - dissipation rate, m**2/s**3
 6 - kinematic heat conductance, m**2/s
 7 - modulus of horizontal velocity, m/s
 8 - Richardson number, n/d
   -0.000000   -0.00000  0.1480E-09  0.1219E-13  0.7603E-17  0.1000E-09  0.0000E+00  0.5705E+16
   -0.068746    0.08659  0.8914E-10  0.1219E-13  0.7603E-17  0.1000E-09  0.0000E+00  0.5510E+16
   -0.137492    0.17220  0.6549E-10  0.1219E-13  0.7603E-17  0.1000E-09  0.0000E+00  0.5340E+16
   -0.206239    0.25718  0.5847E-10  0.1219E-13  0.7603E-17  0.1000E-09  0.0000E+00  0.5191E+16
   -0.274987    0.34181  0.5672E-10  0.1219E-13  0.7603E-17  0.1000E-09  0.0000E+00  0.5062E+16
   -0.343735    0.42640  0.5633E-10  0.1219E-13  0.7603E-17  0.1000E-09  0.0000E+00  0.4949E+16
   -0.412483    0.51120  0.5626E-10  0.1219E-13  0.7603E-17  0.1000E-09  0.0000E+00  0.4850E+16
   -0.481232    0.59649  0.5624E-10  0.1219E-13  0.7603E-17  0.1000E-09  0.0000E+00  0.4762E+16
   -0.549982    0.68252  0.5624E-10  0.1219E-13  0.7603E-17  0.1000E-09  0.0000E+00  0.4685E+16
   -0.618732    0.76951  0.5624E-10  0.1219E-13  0.7603E-17  0.1000E-09  0.0000E+00  0.4615E+16
   -0.687482    0.85770  0.5624E-10  0.1219E-13  0.7603E-17  0.1000E-09  0.0000E+00  0.4561E+16
   -0.756233    0.94752  0.5624E-10  0.1219E-13  0.7603E-17  0.1000E-09  0.0000E+00  0.4516E+16
   -0.824984    1.03929  0.5624E-10  0.1219E-13  0.7603E-17  0.1000E-09  0.0000E+00  0.4470E+16
   -0.893735    1.13317  0.5624E-10  0.1219E-13  0.7603E-17  0.1000E-09  0.0000E+00  0.4420E+16
   -0.962486    1.22930  0.5624E-10  0.1219E-13  0.7603E-17  0.1000E-09  0.0000E+00  0.4363E+16
   -1.031238    1.32776  0.5623E-10  0.1219E-13  0.7603E-17  0.1000E-09  0.0000E+00  0.4299E+16
   -1.099990    1.42863  0.5622E-10  0.1219E-13  0.7603E-17  0.1000E-09  0.0000E+00  0.4223E+16
   -1.168742    1.53195  0.5618E-10  0.1219E-13  0.7603E-17  0.1000E-09  0.0000E+00  0.4135E+16
   -1.237494    1.63770  0.5611E-10  0.1219E-13  0.7603E-17  0.1000E-09  0.0000E+00  0.4034E+16
   -1.306246    1.74586  0.5598E-10  0.1219E-13  0.7603E-17  0.1000E-09  0.0000E+00  0.3917E+16
   -1.374999    1.85634  0.5578E-10  0.1219E-13  0.7603E-17  0.1000E-09  0.0000E+00  0.3791E+16
   -1.443751    1.96924  0.5556E-10  0.1219E-13  0.7603E-17  0.1000E-09  0.0000E+00  0.3650E+16
   -1.512503    2.08447  0.5535E-10  0.1219E-13  0.7603E-17  0.1000E-09  0.0000E+00  0.3491E+16
   -1.581255    2.20186  0.5521E-10  0.1219E-13  0.7603E-17  0.1000E-09  0.0000E+00  0.3314E+16
   -1.650007    2.32115  0.5513E-10  0.1219E-13  0.7603E-17  0.1000E-09  0.0000E+00  0.3119E+16
   -1.718759    2.44210  0.5509E-10  0.1219E-13  0.7603E-17  0.1000E-09  0.0000E+00  0.2909E+16
   -1.787511    2.56440  0.5506E-10  0.1219E-13  0.7603E-17  0.1000E-09  0.0000E+00  0.2695E+16
   -1.856262    2.68820  0.5505E-10  0.1219E-13  0.7603E-17  0.1000E-09  0.0000E+00  0.2470E+16
   -1.925013    2.81333  0.5503E-10  0.1219E-13  0.7603E-17  0.1000E-09  0.0000E+00  0.2235E+16
   -1.993764    2.93963  0.5501E-10  0.1219E-13  0.7603E-17  0.1000E-09  0.0000E+00  0.1989E+16
   -2.062515    3.06676  0.5497E-10  0.1722E-13  0.8438E-17  0.1000E-09  0.0000E+00  0.1737E+16
   -2.131265    3.19459  0.5491E-10  0.7763E-13  0.3454E-16  0.1000E-09  0.0000E+00  0.1480E+16
   -2.200015    3.32292  0.5482E-10  0.3682E-12  0.1567E-15  0.1000E-09  0.0000E+00  0.1218E+16
   -2.268765    3.45148  0.5470E-10  0.1727E-11  0.7057E-15  0.1000E-09  0.0000E+00  0.9588E+15
   -2.337514    3.58068  0.5458E-10  0.8083E-11  0.3175E-14  0.1000E-09  0.0000E+00  0.6978E+15
   -2.406263    3.71075  0.5449E-10  0.3748E-10  0.1417E-13  0.1642E-09  0.0000E+00  0.4328E+15
   -2.475011    3.84188  0.5446E-10  0.1732E-09  0.6316E-13  0.1913E-08  0.0000E+00  0.1622E+15
   -2.543758    3.97316  0.5445E-10  0.7503E-09  0.2679E-12  0.4234E-06  0.0000E+00 -0.2147E+13
   -2.612505    4.00756  0.5445E-10  0.1806E-08  0.9153E-12  0.1240E-05  0.0000E+00 -0.7065E+13
   -2.681251    4.02310  0.5445E-10  0.2413E-08  0.2640E-11  0.6793E-06  0.0000E+00 -0.3071E+14
   -2.749997    4.05896  0.5445E-10  0.0000E+00  0.0000E+00  0.0000E+00  0.0000E+00  0.0000E+00
