 1 - depth, m
 2 - temperature, C
 3 - salinity, kg/kg
 4 - turbulent kinetic energy, m**2/s**2
 5 - dissipation rate, m**2/s**3
 6 - kinematic heat conductance, m**2/s
 7 - modulus of horizontal velocity, m/s
 8 - Richardson number, n/d
   -0.000000    9.28702  0.3765E-11  0.1543E-04  0.7496E-06  0.3462E-04  0.2748E-01 -0.2304E-01
   -0.068746    9.32285  0.3765E-11  0.1441E-04  0.2571E-06  0.9081E-04  0.1791E-01 -0.6026E-01
   -0.137492    9.33572  0.3765E-11  0.1383E-04  0.1462E-06  0.1539E-03  0.1446E-01 -0.1013E+00
   -0.206239    9.34306  0.3765E-11  0.1342E-04  0.9970E-07  0.2250E-03  0.1244E-01 -0.1473E+00
   -0.274987    9.34791  0.3765E-11  0.1312E-04  0.7479E-07  0.3064E-03  0.1108E-01 -0.1859E+00
   -0.343735    9.35136  0.3765E-11  0.1290E-04  0.5966E-07  0.4523E-03  0.1008E-01  0.3320E+00
   -0.412484    9.35371  0.3765E-11  0.1276E-04  0.5013E-07  0.8522E-03  0.9321E-02  0.8820E+02
   -0.481233    9.35506  0.3765E-11  0.1270E-04  0.4375E-07  0.1078E-02  0.8763E-02  0.1547E+02
   -0.549983    9.35602  0.3765E-11  0.1269E-04  0.3896E-07  0.1216E-02  0.8260E-02  0.2544E+02
   -0.618733    9.35682  0.3765E-11  0.1271E-04  0.3521E-07  0.1307E-02  0.7799E-02  0.9768E+02
   -0.687483    9.35753  0.3765E-11  0.1275E-04  0.3216E-07  0.1365E-02  0.7365E-02  0.1065E+02
   -0.756234    9.35819  0.3765E-11  0.1280E-04  0.2964E-07  0.1423E-02  0.6951E-02  0.1140E+02
   -0.824985    9.35882  0.3765E-11  0.1284E-04  0.2753E-07  0.1477E-02  0.6556E-02  0.1205E+02
   -0.893736    9.35941  0.3765E-11  0.1289E-04  0.2573E-07  0.1530E-02  0.6177E-02  0.1273E+02
   -0.962488    9.35997  0.3765E-11  0.1292E-04  0.2419E-07  0.1580E-02  0.5810E-02  0.1344E+02
   -1.031240    9.36050  0.3765E-11  0.1293E-04  0.2286E-07  0.1628E-02  0.5455E-02  0.1422E+02
   -1.099992    9.36101  0.3765E-11  0.1293E-04  0.2171E-07  0.1672E-02  0.5109E-02  0.1508E+02
   -1.168744    9.36150  0.3765E-11  0.1292E-04  0.2069E-07  0.1712E-02  0.4771E-02  0.1608E+02
   -1.237496    9.36198  0.3765E-11  0.1288E-04  0.1980E-07  0.1747E-02  0.4439E-02  0.1727E+02
   -1.306248    9.36243  0.3765E-11  0.1281E-04  0.1902E-07  0.1776E-02  0.4113E-02  0.1878E+02
   -1.375001    9.36288  0.3765E-11  0.1272E-04  0.1832E-07  0.1798E-02  0.3791E-02  0.2076E+02
   -1.443753    9.36331  0.3765E-11  0.1260E-04  0.1770E-07  0.1810E-02  0.3473E-02  0.2358E+02
   -1.512505    9.36373  0.3765E-11  0.1245E-04  0.1715E-07  0.1814E-02  0.3157E-02  0.2795E+02
   -1.581258    9.36415  0.3765E-11  0.1227E-04  0.1667E-07  0.1805E-02  0.2842E-02  0.3596E+02
   -1.650010    9.36456  0.3765E-11  0.1205E-04  0.1623E-07  0.1788E-02  0.2528E-02  0.5508E+02
   -1.718762    9.36498  0.3765E-11  0.1179E-04  0.1584E-07  0.1748E-02  0.2215E-02  0.1118E+03
   -1.787514    9.36540  0.3765E-11  0.1148E-04  0.1549E-07  0.1746E-02  0.1900E-02  0.9588E+01
   -1.856265    9.36581  0.3765E-11  0.1114E-04  0.1520E-07  0.1743E-02  0.1630E-02  0.4324E+01
   -1.925017    9.36623  0.3765E-11  0.1077E-04  0.1501E-07  0.1757E-02  0.1400E-02  0.2538E+01
   -1.993768    9.36664  0.3765E-11  0.1039E-04  0.1495E-07  0.1789E-02  0.1207E-02  0.1790E+01
   -2.062518    9.36704  0.3765E-11  0.1002E-04  0.1505E-07  0.1817E-02  0.1045E-02  0.1455E+01
   -2.131269    9.36743  0.3765E-11  0.9668E-05  0.1532E-07  0.1763E-02  0.9021E-03  0.1191E+01
   -2.200019    9.36783  0.3765E-11  0.9341E-05  0.1580E-07  0.1660E-02  0.7760E-03  0.9782E+00
   -2.268769    9.36825  0.3765E-11  0.9042E-05  0.1650E-07  0.1523E-02  0.6653E-03  0.7638E+00
   -2.337518    9.36872  0.3765E-11  0.8766E-05  0.1748E-07  0.1366E-02  0.5726E-03  0.6107E+00
   -2.406266    9.36923  0.3765E-11  0.8502E-05  0.1890E-07  0.1233E-02  0.4970E-03  0.6483E+00
   -2.475015    9.36979  0.3765E-11  0.8218E-05  0.2129E-07  0.1040E-02  0.4335E-03  0.6525E+01
   -2.543762    9.37049  0.3765E-11  0.7844E-05  0.2604E-07  0.9173E-03  0.3728E-03  0.1793E+03
   -2.612509    9.37139  0.3765E-11  0.7137E-05  0.4077E-07  0.4729E-03  0.3146E-03  0.5365E+03
   -2.681256    9.37445  0.3765E-11  0.4320E-05  0.1503E-06  0.6613E-04  0.2170E-03 -0.7531E+04
   -2.750002    9.38601  0.3765E-11  0.0000E+00  0.0000E+00  0.0000E+00  0.2414E-03  0.0000E+00
