 1 - depth, m
 2 - temperature, C
 3 - salinity, kg/kg
 4 - turbulent kinetic energy, m**2/s**2
 5 - dissipation rate, m**2/s**3
 6 - kinematic heat conductance, m**2/s
 7 - modulus of horizontal velocity, m/s
 8 - Richardson number, n/d
   -0.000000   -0.00000  0.4326E-12  0.1219E-13  0.7603E-17  0.1000E-09  0.0000E+00  0.6919E+16
   -0.068746    0.10528  0.2223E-11  0.1219E-13  0.7603E-17  0.1000E-09  0.0000E+00  0.6850E+16
   -0.137493    0.21259  0.3478E-11  0.1219E-13  0.7603E-17  0.1000E-09  0.0000E+00  0.6757E+16
   -0.206240    0.32174  0.3950E-11  0.1219E-13  0.7603E-17  0.1000E-09  0.0000E+00  0.6643E+16
   -0.274988    0.43250  0.3920E-11  0.1219E-13  0.7603E-17  0.1000E-09  0.0000E+00  0.6509E+16
   -0.343736    0.54471  0.3677E-11  0.1219E-13  0.7603E-17  0.1000E-09  0.0000E+00  0.6357E+16
   -0.412485    0.65818  0.3407E-11  0.1219E-13  0.7603E-17  0.1000E-09  0.0000E+00  0.6191E+16
   -0.481234    0.77275  0.3192E-11  0.1219E-13  0.7603E-17  0.1000E-09  0.0000E+00  0.6011E+16
   -0.549984    0.88826  0.3050E-11  0.1219E-13  0.7603E-17  0.1000E-09  0.0000E+00  0.5819E+16
   -0.618734    1.00458  0.2969E-11  0.1219E-13  0.7603E-17  0.1000E-09  0.0000E+00  0.5617E+16
   -0.687485    1.12156  0.2927E-11  0.1219E-13  0.7603E-17  0.1000E-09  0.0000E+00  0.5406E+16
   -0.756236    1.23908  0.2907E-11  0.1219E-13  0.7603E-17  0.1000E-09  0.0000E+00  0.5188E+16
   -0.824987    1.35703  0.2898E-11  0.1219E-13  0.7603E-17  0.1000E-09  0.0000E+00  0.4963E+16
   -0.893739    1.47529  0.2893E-11  0.1219E-13  0.7603E-17  0.1000E-09  0.0000E+00  0.4734E+16
   -0.962491    1.59377  0.2890E-11  0.1219E-13  0.7603E-17  0.1000E-09  0.0000E+00  0.4500E+16
   -1.031243    1.71236  0.2887E-11  0.1219E-13  0.7603E-17  0.1000E-09  0.0000E+00  0.4264E+16
   -1.099995    1.83097  0.2883E-11  0.1219E-13  0.7603E-17  0.1000E-09  0.0000E+00  0.4027E+16
   -1.168747    1.94955  0.2877E-11  0.1219E-13  0.7603E-17  0.1000E-09  0.0000E+00  0.3788E+16
   -1.237500    2.06801  0.2870E-11  0.1219E-13  0.7603E-17  0.1000E-09  0.0000E+00  0.3550E+16
   -1.306252    2.18632  0.2862E-11  0.1219E-13  0.7603E-17  0.1000E-09  0.0000E+00  0.3312E+16
   -1.375005    2.30441  0.2853E-11  0.1219E-13  0.7603E-17  0.1000E-09  0.0000E+00  0.3076E+16
   -1.443757    2.42229  0.2845E-11  0.1219E-13  0.7603E-17  0.1000E-09  0.0000E+00  0.2842E+16
   -1.512510    2.53995  0.2836E-11  0.1219E-13  0.7603E-17  0.1000E-09  0.0000E+00  0.2610E+16
   -1.581262    2.65739  0.2829E-11  0.1219E-13  0.7603E-17  0.1000E-09  0.0000E+00  0.2380E+16
   -1.650014    2.77460  0.2823E-11  0.1219E-13  0.7603E-17  0.1000E-09  0.0000E+00  0.2153E+16
   -1.718766    2.89161  0.2818E-11  0.4280E-13  0.9162E-17  0.1000E-09  0.0000E+00  0.1927E+16
   -1.787518    3.00839  0.2814E-11  0.1346E-12  0.2281E-16  0.1000E-09  0.0000E+00  0.1681E+16
   -1.856270    3.12328  0.2811E-11  0.3837E-12  0.6129E-16  0.1000E-09  0.0000E+00  0.1442E+16
   -1.925022    3.23590  0.2809E-11  0.1060E-11  0.1637E-15  0.1000E-09  0.0000E+00  0.1210E+16
   -1.993773    3.34575  0.2807E-11  0.2896E-11  0.4337E-15  0.1000E-09  0.0000E+00  0.9935E+15
   -2.062524    3.45278  0.2806E-11  0.7661E-11  0.1115E-14  0.1000E-09  0.0000E+00  0.8086E+15
   -2.131275    3.55946  0.2805E-11  0.1998E-10  0.2826E-14  0.1000E-09  0.0000E+00  0.6276E+15
   -2.200025    3.66608  0.2804E-11  0.5163E-10  0.7097E-14  0.1000E-09  0.0000E+00  0.4474E+15
   -2.268775    3.77261  0.2803E-11  0.1333E-09  0.1782E-13  0.3381E-09  0.0000E+00  0.2678E+15
   -2.337524    3.87876  0.2803E-11  0.3477E-09  0.4523E-13  0.2532E-08  0.0000E+00  0.9057E+14
   -2.406273    3.98274  0.2803E-11  0.7855E-09  0.1011E-12  0.1291E-05  0.0000E+00 -0.2767E+12
   -2.475021    3.99358  0.2803E-11  0.1204E-08  0.1791E-12  0.3192E-05  0.0000E+00 -0.6453E+12
   -2.543769    3.99794  0.2803E-11  0.1469E-08  0.2675E-12  0.3115E-05  0.0000E+00 -0.9591E+12
   -2.612516    4.00236  0.2803E-11  0.1565E-08  0.4185E-12  0.2030E-05  0.0000E+00 -0.1964E+13
   -2.681263    4.00886  0.2803E-11  0.1265E-08  0.9540E-12  0.4172E-06  0.0000E+00 -0.1241E+14
   -2.750009    4.03207  0.2803E-11  0.0000E+00  0.0000E+00  0.0000E+00  0.0000E+00  0.0000E+00
