 1 - depth, m
 2 - temperature, C
 3 - salinity, kg/kg
 4 - turbulent kinetic energy, m**2/s**2
 5 - dissipation rate, m**2/s**3
 6 - kinematic heat conductance, m**2/s
 7 - modulus of horizontal velocity, m/s
 8 - Richardson number, n/d
   -0.000000   -0.00000  0.4433E-11  0.1219E-13  0.7603E-17  0.1000E-09  0.0000E+00  0.5232E+16
   -0.068746    0.07934  0.2384E-11  0.1219E-13  0.7603E-17  0.1000E-09  0.0000E+00  0.5037E+16
   -0.137492    0.15736  0.1836E-11  0.1219E-13  0.7603E-17  0.1000E-09  0.0000E+00  0.4881E+16
   -0.206239    0.23463  0.1710E-11  0.1219E-13  0.7603E-17  0.1000E-09  0.0000E+00  0.4763E+16
   -0.274987    0.31170  0.1684E-11  0.1219E-13  0.7603E-17  0.1000E-09  0.0000E+00  0.4681E+16
   -0.343735    0.38915  0.1679E-11  0.1219E-13  0.7603E-17  0.1000E-09  0.0000E+00  0.4632E+16
   -0.412483    0.46756  0.1679E-11  0.1219E-13  0.7603E-17  0.1000E-09  0.0000E+00  0.4613E+16
   -0.481232    0.54754  0.1679E-11  0.1219E-13  0.7603E-17  0.1000E-09  0.0000E+00  0.4620E+16
   -0.549982    0.62968  0.1679E-11  0.1219E-13  0.7603E-17  0.1000E-09  0.0000E+00  0.4651E+16
   -0.618732    0.71456  0.1679E-11  0.1219E-13  0.7603E-17  0.1000E-09  0.0000E+00  0.4700E+16
   -0.687482    0.80277  0.1679E-11  0.1219E-13  0.7603E-17  0.1000E-09  0.0000E+00  0.4778E+16
   -0.756233    0.89515  0.1679E-11  0.1219E-13  0.7603E-17  0.1000E-09  0.0000E+00  0.4871E+16
   -0.824984    0.99244  0.1679E-11  0.1219E-13  0.7603E-17  0.1000E-09  0.0000E+00  0.4964E+16
   -0.893735    1.09513  0.1679E-11  0.1219E-13  0.7603E-17  0.1000E-09  0.0000E+00  0.5051E+16
   -0.962487    1.20369  0.1678E-11  0.1219E-13  0.7603E-17  0.1000E-09  0.0000E+00  0.5124E+16
   -1.031238    1.31853  0.1678E-11  0.2449E-13  0.7603E-17  0.1000E-09  0.0000E+00  0.5175E+16
   -1.099990    1.44003  0.1678E-11  0.8439E-13  0.1162E-16  0.1000E-09  0.0000E+00  0.5198E+16
   -1.168742    1.56848  0.1676E-11  0.2168E-12  0.2500E-16  0.1000E-09  0.0000E+00  0.5186E+16
   -1.237494    1.70411  0.1672E-11  0.5053E-12  0.5516E-16  0.1000E-09  0.0000E+00  0.5131E+16
   -1.306246    1.84710  0.1665E-11  0.1138E-11  0.1204E-15  0.1000E-09  0.0000E+00  0.5028E+16
   -1.374999    1.99754  0.1656E-11  0.2523E-11  0.2597E-15  0.1000E-09  0.0000E+00  0.4886E+16
   -1.443751    2.15595  0.1647E-11  0.5531E-11  0.5545E-15  0.1000E-09  0.0000E+00  0.4687E+16
   -1.512503    2.32250  0.1641E-11  0.1200E-10  0.1173E-14  0.1000E-09  0.0000E+00  0.4425E+16
   -1.581255    2.49721  0.1638E-11  0.2581E-10  0.2459E-14  0.1000E-09  0.0000E+00  0.4095E+16
   -1.650007    2.68014  0.1636E-11  0.5499E-10  0.5111E-14  0.1000E-09  0.0000E+00  0.3697E+16
   -1.718759    2.87134  0.1635E-11  0.1161E-09  0.1053E-13  0.1000E-09  0.0000E+00  0.3226E+16
   -1.787511    3.07095  0.1635E-11  0.2488E-09  0.2201E-13  0.1000E-09  0.0000E+00  0.2719E+16
   -1.856262    3.28256  0.1634E-11  0.5380E-09  0.4645E-13  0.1127E-09  0.0000E+00  0.2097E+16
   -1.925014    3.50666  0.1633E-11  0.1163E-08  0.9805E-13  0.3709E-09  0.0000E+00  0.1345E+16
   -1.993765    3.74271  0.1630E-11  0.2509E-08  0.2066E-12  0.2256E-08  0.0000E+00  0.4660E+15
   -2.062515    3.98512  0.1627E-11  0.3409E-08  0.2827E-12  0.7129E-05  0.0000E+00 -0.8962E+11
   -2.131266    3.98990  0.1627E-11  0.3942E-08  0.3411E-12  0.1373E-04  0.0000E+00 -0.1895E+12
   -2.200015    3.99240  0.1627E-11  0.4386E-08  0.4010E-12  0.1668E-04  0.0000E+00 -0.2298E+12
   -2.268765    3.99446  0.1627E-11  0.4774E-08  0.4674E-12  0.1806E-04  0.0000E+00 -0.2719E+12
   -2.337514    3.99636  0.1627E-11  0.5116E-08  0.5466E-12  0.1817E-04  0.0000E+00 -0.3275E+12
   -2.406263    3.99826  0.1627E-11  0.5403E-08  0.6475E-12  0.1707E-04  0.0000E+00 -0.4117E+12
   -2.475011    4.00029  0.1627E-11  0.5617E-08  0.7901E-12  0.1473E-04  0.0000E+00 -0.5602E+12
   -2.543758    4.00265  0.1627E-11  0.5715E-08  0.1027E-11  0.1105E-04  0.0000E+00 -0.8871E+12
   -2.612505    4.00581  0.1627E-11  0.5568E-08  0.1566E-11  0.6083E-05  0.0000E+00 -0.2029E+13
   -2.681252    4.01159  0.1627E-11  0.4469E-08  0.4295E-11  0.1112E-05  0.0000E+00 -0.1943E+14
   -2.749997    4.04217  0.1627E-11  0.0000E+00  0.0000E+00  0.0000E+00  0.0000E+00  0.0000E+00
