 1 - depth, m
 2 - temperature, C
 3 - salinity, kg/kg
 4 - turbulent kinetic energy, m**2/s**2
 5 - dissipation rate, m**2/s**3
 6 - kinematic heat conductance, m**2/s
 7 - modulus of horizontal velocity, m/s
 8 - Richardson number, n/d
   -0.000000   -0.00000  0.6141E-11  0.1219E-13  0.7603E-17  0.1000E-09  0.0000E+00  0.8457E+16
   -0.068746    0.12910  0.4037E-11  0.1219E-13  0.7603E-17  0.1000E-09  0.0000E+00  0.8117E+16
   -0.137492    0.25750  0.2907E-11  0.1219E-13  0.7603E-17  0.1000E-09  0.0000E+00  0.7791E+16
   -0.206239    0.38532  0.2439E-11  0.1219E-13  0.7603E-17  0.1000E-09  0.0000E+00  0.7479E+16
   -0.274987    0.51273  0.2276E-11  0.1219E-13  0.7603E-17  0.1000E-09  0.0000E+00  0.7179E+16
   -0.343735    0.63987  0.2227E-11  0.1219E-13  0.7603E-17  0.1000E-09  0.0000E+00  0.6890E+16
   -0.412483    0.76688  0.2213E-11  0.1219E-13  0.7603E-17  0.1000E-09  0.0000E+00  0.6610E+16
   -0.481233    0.89391  0.2210E-11  0.1219E-13  0.7603E-17  0.1000E-09  0.0000E+00  0.6338E+16
   -0.549982    1.02109  0.2209E-11  0.1219E-13  0.7603E-17  0.1000E-09  0.0000E+00  0.6072E+16
   -0.618732    1.14854  0.2209E-11  0.1219E-13  0.7603E-17  0.1000E-09  0.0000E+00  0.5810E+16
   -0.687482    1.27639  0.2209E-11  0.1219E-13  0.7603E-17  0.1000E-09  0.0000E+00  0.5560E+16
   -0.756233    1.40493  0.2209E-11  0.1219E-13  0.7603E-17  0.1000E-09  0.0000E+00  0.5314E+16
   -0.824984    1.53436  0.2209E-11  0.1219E-13  0.7603E-17  0.1000E-09  0.0000E+00  0.5067E+16
   -0.893735    1.66476  0.2208E-11  0.1219E-13  0.7603E-17  0.1000E-09  0.0000E+00  0.4816E+16
   -0.962487    1.79619  0.2207E-11  0.2875E-13  0.7603E-17  0.1000E-09  0.0000E+00  0.4561E+16
   -1.031239    1.92867  0.2206E-11  0.9350E-13  0.1254E-16  0.1000E-09  0.0000E+00  0.4301E+16
   -1.099991    2.06223  0.2202E-11  0.2378E-12  0.2743E-16  0.1000E-09  0.0000E+00  0.4034E+16
   -1.168743    2.19687  0.2197E-11  0.5558E-12  0.6103E-16  0.1000E-09  0.0000E+00  0.3761E+16
   -1.237495    2.33255  0.2190E-11  0.1260E-11  0.1342E-15  0.1000E-09  0.0000E+00  0.3482E+16
   -1.306247    2.46923  0.2181E-11  0.2815E-11  0.2918E-15  0.1000E-09  0.0000E+00  0.3195E+16
   -1.374999    2.60684  0.2172E-11  0.6216E-11  0.6280E-15  0.1000E-09  0.0000E+00  0.2904E+16
   -1.443752    2.74540  0.2164E-11  0.1359E-10  0.1339E-14  0.1000E-09  0.0000E+00  0.2606E+16
   -1.512504    2.88482  0.2159E-11  0.2945E-10  0.2829E-14  0.1000E-09  0.0000E+00  0.2302E+16
   -1.581256    3.02498  0.2155E-11  0.6320E-10  0.5923E-14  0.1000E-09  0.0000E+00  0.1992E+16
   -1.650008    3.16573  0.2152E-11  0.1344E-09  0.1229E-13  0.1000E-09  0.0000E+00  0.1678E+16
   -1.718760    3.30688  0.2151E-11  0.2835E-09  0.2530E-13  0.1000E-09  0.0000E+00  0.1362E+16
   -1.787512    3.44835  0.2148E-11  0.6061E-09  0.5279E-13  0.2546E-09  0.0000E+00  0.1055E+16
   -1.856263    3.59176  0.2146E-11  0.1308E-08  0.1112E-12  0.7687E-09  0.0000E+00  0.7359E+15
   -1.925014    3.73692  0.2143E-11  0.2816E-08  0.2339E-12  0.2947E-08  0.0000E+00  0.4038E+15
   -1.993765    3.88242  0.2142E-11  0.5962E-08  0.4849E-12  0.3023E-07  0.0000E+00  0.8138E+14
   -2.062516    4.00661  0.2142E-11  0.6743E-08  0.5516E-12  0.3421E-04  0.0000E+00 -0.1994E+12
   -2.131266    4.00723  0.2142E-11  0.7068E-08  0.5864E-12  0.3457E-04  0.0000E+00 -0.2033E+12
   -2.200016    4.00784  0.2142E-11  0.7323E-08  0.6232E-12  0.3413E-04  0.0000E+00 -0.2119E+12
   -2.268766    4.00846  0.2142E-11  0.7512E-08  0.6645E-12  0.3286E-04  0.0000E+00 -0.2265E+12
   -2.337515    4.00910  0.2142E-11  0.7639E-08  0.7157E-12  0.3062E-04  0.0000E+00 -0.2506E+12
   -2.406264    4.00979  0.2142E-11  0.7698E-08  0.7845E-12  0.2726E-04  0.0000E+00 -0.2910E+12
   -2.475012    4.01057  0.2142E-11  0.7667E-08  0.8885E-12  0.2255E-04  0.0000E+00 -0.3655E+12
   -2.543759    4.01151  0.2142E-11  0.7495E-08  0.1074E-11  0.1631E-04  0.0000E+00 -0.5306E+12
   -2.612506    4.01282  0.2142E-11  0.7015E-08  0.1526E-11  0.8567E-05  0.0000E+00 -0.1093E+13
   -2.681253    4.01534  0.2142E-11  0.4984E-08  0.4278E-11  0.1090E-05  0.0000E+00 -0.1129E+14
   -2.749999    4.03411  0.2142E-11  0.0000E+00  0.0000E+00  0.0000E+00  0.0000E+00  0.0000E+00
