 1 - depth, m
 2 - temperature, C
 3 - salinity, kg/kg
 4 - turbulent kinetic energy, m**2/s**2
 5 - dissipation rate, m**2/s**3
 6 - kinematic heat conductance, m**2/s
 7 - modulus of horizontal velocity, m/s
 8 - Richardson number, n/d
   -0.000000   -0.00000  0.2693E-17  0.1219E-13  0.7603E-17  0.1000E-09  0.0000E+00  0.4518E+16
   -0.068746    0.06840  0.0000E+00  0.1219E-13  0.7603E-17  0.1000E-09  0.0000E+00  0.4653E+16
   -0.137494    0.14021  0.1781E-12  0.1219E-13  0.7603E-17  0.1000E-09  0.0000E+00  0.4773E+16
   -0.206241    0.21539  0.1311E-11  0.1219E-13  0.7603E-17  0.1000E-09  0.0000E+00  0.4884E+16
   -0.274989    0.29399  0.3079E-11  0.1219E-13  0.7603E-17  0.1000E-09  0.0000E+00  0.4984E+16
   -0.343738    0.37610  0.4755E-11  0.1219E-13  0.7603E-17  0.1000E-09  0.0000E+00  0.5071E+16
   -0.412488    0.46172  0.5860E-11  0.1219E-13  0.7603E-17  0.1000E-09  0.0000E+00  0.5141E+16
   -0.481237    0.55082  0.6317E-11  0.1219E-13  0.7603E-17  0.1000E-09  0.0000E+00  0.5188E+16
   -0.549988    0.64329  0.6303E-11  0.1219E-13  0.7603E-17  0.1000E-09  0.0000E+00  0.5211E+16
   -0.618738    0.73897  0.6053E-11  0.1219E-13  0.7603E-17  0.1000E-09  0.0000E+00  0.5207E+16
   -0.687490    0.83765  0.5748E-11  0.1219E-13  0.7603E-17  0.1000E-09  0.0000E+00  0.5172E+16
   -0.756241    0.93899  0.5485E-11  0.1219E-13  0.7603E-17  0.1000E-09  0.0000E+00  0.5108E+16
   -0.824993    1.04269  0.5296E-11  0.1219E-13  0.7603E-17  0.1000E-09  0.0000E+00  0.5021E+16
   -0.893745    1.14851  0.5176E-11  0.1219E-13  0.7603E-17  0.1000E-09  0.0000E+00  0.4914E+16
   -0.962497    1.25622  0.5106E-11  0.1219E-13  0.7603E-17  0.1000E-09  0.0000E+00  0.4788E+16
   -1.031249    1.36564  0.5069E-11  0.1219E-13  0.7603E-17  0.1000E-09  0.0000E+00  0.4648E+16
   -1.100002    1.47663  0.5049E-11  0.1219E-13  0.7603E-17  0.1000E-09  0.0000E+00  0.4496E+16
   -1.168755    1.58907  0.5038E-11  0.1219E-13  0.7603E-17  0.1000E-09  0.0000E+00  0.4334E+16
   -1.237508    1.70292  0.5030E-11  0.1219E-13  0.7603E-17  0.1000E-09  0.0000E+00  0.4164E+16
   -1.306260    1.81814  0.5023E-11  0.1219E-13  0.7603E-17  0.1000E-09  0.0000E+00  0.3988E+16
   -1.375013    1.93478  0.5014E-11  0.1219E-13  0.7603E-17  0.1000E-09  0.0000E+00  0.3807E+16
   -1.443766    2.05293  0.5003E-11  0.1219E-13  0.7603E-17  0.1000E-09  0.0000E+00  0.3622E+16
   -1.512519    2.17270  0.4990E-11  0.1219E-13  0.7603E-17  0.1000E-09  0.0000E+00  0.3431E+16
   -1.581272    2.29420  0.4977E-11  0.1219E-13  0.7603E-17  0.1000E-09  0.0000E+00  0.3234E+16
   -1.650025    2.41757  0.4962E-11  0.1219E-13  0.7603E-17  0.1000E-09  0.0000E+00  0.3030E+16
   -1.718777    2.54295  0.4948E-11  0.1219E-13  0.7603E-17  0.1000E-09  0.0000E+00  0.2815E+16
   -1.787530    2.67036  0.4936E-11  0.1219E-13  0.7603E-17  0.1000E-09  0.0000E+00  0.2504E+16
   -1.856282    2.79538  0.4925E-11  0.1219E-13  0.7603E-17  0.1000E-09  0.0000E+00  0.2196E+16
   -1.925034    2.91723  0.4915E-11  0.1219E-13  0.7603E-17  0.1000E-09  0.0000E+00  0.1891E+16
   -1.993786    3.03480  0.4908E-11  0.1219E-13  0.7603E-17  0.1000E-09  0.0000E+00  0.1612E+16
   -2.062537    3.14817  0.4901E-11  0.2740E-13  0.1057E-16  0.1000E-09  0.0000E+00  0.1413E+16
   -2.131288    3.26219  0.4896E-11  0.1129E-12  0.3880E-16  0.1000E-09  0.0000E+00  0.1216E+16
   -2.200039    3.37746  0.4892E-11  0.4597E-12  0.1512E-15  0.1000E-09  0.0000E+00  0.1015E+16
   -2.268789    3.49415  0.4889E-11  0.1851E-11  0.5863E-15  0.1000E-09  0.0000E+00  0.8043E+15
   -2.337539    3.61182  0.4887E-11  0.7463E-11  0.2279E-14  0.1000E-09  0.0000E+00  0.5873E+15
   -2.406288    3.73013  0.4885E-11  0.2995E-10  0.8829E-14  0.1213E-09  0.0000E+00  0.3666E+15
   -2.475037    3.84858  0.4884E-11  0.1203E-09  0.3430E-13  0.1174E-08  0.0000E+00  0.1453E+15
   -2.543786    3.96542  0.4883E-11  0.4661E-09  0.1297E-12  0.2345E-06  0.0000E+00 -0.3608E+12
   -2.612533    4.00846  0.4883E-11  0.1221E-08  0.4506E-12  0.1422E-05  0.0000E+00 -0.4107E+13
   -2.681280    4.01819  0.4883E-11  0.1111E-08  0.8923E-12  0.3745E-06  0.0000E+00 -0.1514E+14
   -2.750027    4.04064  0.4883E-11  0.0000E+00  0.0000E+00  0.0000E+00  0.0000E+00  0.0000E+00
