 1 - depth, m
 2 - temperature, C
 3 - salinity, kg/kg
 4 - turbulent kinetic energy, m**2/s**2
 5 - dissipation rate, m**2/s**3
 6 - kinematic heat conductance, m**2/s
 7 - modulus of horizontal velocity, m/s
 8 - Richardson number, n/d
   -0.000000   -0.00000  0.1694E-09  0.1219E-13  0.7603E-17  0.1000E-09  0.0000E+00  0.3442E+16
   -0.068746    0.05199  0.9378E-10  0.1219E-13  0.7603E-17  0.1000E-09  0.0000E+00  0.3277E+16
   -0.137492    0.10219  0.7743E-10  0.1219E-13  0.7603E-17  0.1000E-09  0.0000E+00  0.3137E+16
   -0.206239    0.15089  0.7410E-10  0.1219E-13  0.7603E-17  0.1000E-09  0.0000E+00  0.3022E+16
   -0.274987    0.19845  0.7350E-10  0.1219E-13  0.7603E-17  0.1000E-09  0.0000E+00  0.2935E+16
   -0.343735    0.24524  0.7341E-10  0.1219E-13  0.7603E-17  0.1000E-09  0.0000E+00  0.2876E+16
   -0.412483    0.29172  0.7339E-10  0.1219E-13  0.7603E-17  0.1000E-09  0.0000E+00  0.2848E+16
   -0.481232    0.33836  0.7339E-10  0.1219E-13  0.7603E-17  0.1000E-09  0.0000E+00  0.2851E+16
   -0.549982    0.38569  0.7339E-10  0.1219E-13  0.7603E-17  0.1000E-09  0.0000E+00  0.2884E+16
   -0.618732    0.43426  0.7339E-10  0.1219E-13  0.7603E-17  0.1000E-09  0.0000E+00  0.2949E+16
   -0.687482    0.48466  0.7339E-10  0.1219E-13  0.7603E-17  0.1000E-09  0.0000E+00  0.3061E+16
   -0.756233    0.53780  0.7339E-10  0.1219E-13  0.7603E-17  0.1000E-09  0.0000E+00  0.3210E+16
   -0.824984    0.59447  0.7339E-10  0.1219E-13  0.7603E-17  0.1000E-09  0.0000E+00  0.3384E+16
   -0.893735    0.65532  0.7339E-10  0.1219E-13  0.7603E-17  0.1000E-09  0.0000E+00  0.3578E+16
   -0.962487    0.72096  0.7339E-10  0.1219E-13  0.7603E-17  0.1000E-09  0.0000E+00  0.3788E+16
   -1.031238    0.79199  0.7339E-10  0.1219E-13  0.7603E-17  0.1000E-09  0.0000E+00  0.4006E+16
   -1.099990    0.86898  0.7339E-10  0.1219E-13  0.7603E-17  0.1000E-09  0.0000E+00  0.4226E+16
   -1.168742    0.95244  0.7338E-10  0.1219E-13  0.7603E-17  0.1000E-09  0.0000E+00  0.4440E+16
   -1.237494    1.04278  0.7335E-10  0.1219E-13  0.7603E-17  0.1000E-09  0.0000E+00  0.4637E+16
   -1.306246    1.14036  0.7326E-10  0.1219E-13  0.7603E-17  0.1000E-09  0.0000E+00  0.4809E+16
   -1.374999    1.24541  0.7304E-10  0.1219E-13  0.7603E-17  0.1000E-09  0.0000E+00  0.4969E+16
   -1.443751    1.35855  0.7267E-10  0.1219E-13  0.7603E-17  0.1000E-09  0.0000E+00  0.5088E+16
   -1.512503    1.47994  0.7226E-10  0.1219E-13  0.7603E-17  0.1000E-09  0.0000E+00  0.5151E+16
   -1.581255    1.60942  0.7201E-10  0.1219E-13  0.7603E-17  0.1000E-09  0.0000E+00  0.5151E+16
   -1.650007    1.74667  0.7190E-10  0.1219E-13  0.7603E-17  0.1000E-09  0.0000E+00  0.5082E+16
   -1.718759    1.89123  0.7184E-10  0.1219E-13  0.7603E-17  0.1000E-09  0.0000E+00  0.4939E+16
   -1.787511    2.04236  0.7181E-10  0.1219E-13  0.7603E-17  0.1000E-09  0.0000E+00  0.4640E+16
   -1.856262    2.19633  0.7179E-10  0.1219E-13  0.7603E-17  0.1000E-09  0.0000E+00  0.4299E+16
   -1.925013    2.35231  0.7178E-10  0.1219E-13  0.7603E-17  0.1000E-09  0.0000E+00  0.3922E+16
   -1.993764    2.50930  0.7177E-10  0.1219E-13  0.7603E-17  0.1000E-09  0.0000E+00  0.3530E+16
   -2.062515    2.66692  0.7175E-10  0.1219E-13  0.7603E-17  0.1000E-09  0.0000E+00  0.3190E+16
   -2.131265    2.82810  0.7170E-10  0.1219E-13  0.8230E-17  0.1000E-09  0.0000E+00  0.2822E+16
   -2.200015    2.99272  0.7160E-10  0.5888E-13  0.4309E-16  0.1000E-09  0.0000E+00  0.2422E+16
   -2.268765    3.16023  0.7143E-10  0.3967E-12  0.2783E-15  0.1000E-09  0.0000E+00  0.2004E+16
   -2.337514    3.33093  0.7120E-10  0.2676E-11  0.1795E-14  0.1000E-09  0.0000E+00  0.1564E+16
   -2.406263    3.50505  0.7098E-10  0.1775E-10  0.1140E-13  0.1000E-09  0.0000E+00  0.1101E+16
   -2.475011    3.68312  0.7091E-10  0.1165E-09  0.7181E-13  0.5838E-09  0.0000E+00  0.6087E+15
   -2.543758    3.86595  0.7090E-10  0.7517E-09  0.4472E-12  0.2041E-07  0.0000E+00  0.9597E+14
   -2.612505    4.03377  0.7090E-10  0.3749E-08  0.2306E-11  0.2238E-05  0.0000E+00 -0.1068E+14
   -2.681252    4.04645  0.7090E-10  0.4624E-08  0.5890E-11  0.1099E-05  0.0000E+00 -0.4115E+14
   -2.749997    4.08053  0.7090E-10  0.0000E+00  0.0000E+00  0.0000E+00  0.0000E+00  0.0000E+00
