 1 - depth, m
 2 - temperature, C
 3 - salinity, kg/kg
 4 - turbulent kinetic energy, m**2/s**2
 5 - dissipation rate, m**2/s**3
 6 - kinematic heat conductance, m**2/s
 7 - modulus of horizontal velocity, m/s
 8 - Richardson number, n/d
   -0.000000   -0.00000  0.6305E-11  0.1219E-13  0.7603E-17  0.1000E-09  0.0000E+00  0.8015E+16
   -0.068746    0.12223  0.3849E-11  0.1219E-13  0.7603E-17  0.1000E-09  0.0000E+00  0.7696E+16
   -0.137492    0.24362  0.2763E-11  0.1219E-13  0.7603E-17  0.1000E-09  0.0000E+00  0.7399E+16
   -0.206239    0.36439  0.2372E-11  0.1219E-13  0.7603E-17  0.1000E-09  0.0000E+00  0.7120E+16
   -0.274987    0.48480  0.2251E-11  0.1219E-13  0.7603E-17  0.1000E-09  0.0000E+00  0.6857E+16
   -0.343735    0.60507  0.2219E-11  0.1219E-13  0.7603E-17  0.1000E-09  0.0000E+00  0.6609E+16
   -0.412483    0.72543  0.2211E-11  0.1219E-13  0.7603E-17  0.1000E-09  0.0000E+00  0.6374E+16
   -0.481232    0.84612  0.2209E-11  0.1219E-13  0.7603E-17  0.1000E-09  0.0000E+00  0.6148E+16
   -0.549982    0.96735  0.2209E-11  0.1219E-13  0.7603E-17  0.1000E-09  0.0000E+00  0.5930E+16
   -0.618732    1.08933  0.2209E-11  0.1219E-13  0.7603E-17  0.1000E-09  0.0000E+00  0.5716E+16
   -0.687482    1.21224  0.2209E-11  0.1219E-13  0.7603E-17  0.1000E-09  0.0000E+00  0.5515E+16
   -0.756233    1.33649  0.2209E-11  0.1219E-13  0.7603E-17  0.1000E-09  0.0000E+00  0.5318E+16
   -0.824984    1.46235  0.2209E-11  0.1219E-13  0.7603E-17  0.1000E-09  0.0000E+00  0.5117E+16
   -0.893735    1.58996  0.2208E-11  0.1219E-13  0.7603E-17  0.1000E-09  0.0000E+00  0.4909E+16
   -0.962487    1.71941  0.2208E-11  0.1919E-13  0.7603E-17  0.1000E-09  0.0000E+00  0.4693E+16
   -1.031239    1.85079  0.2206E-11  0.7434E-13  0.1134E-16  0.1000E-09  0.0000E+00  0.4467E+16
   -1.099990    1.98413  0.2204E-11  0.2013E-12  0.2531E-16  0.1000E-09  0.0000E+00  0.4230E+16
   -1.168742    2.11945  0.2199E-11  0.4885E-12  0.5807E-16  0.1000E-09  0.0000E+00  0.3980E+16
   -1.237495    2.25675  0.2192E-11  0.1143E-11  0.1316E-15  0.1000E-09  0.0000E+00  0.3718E+16
   -1.306247    2.39597  0.2182E-11  0.2631E-11  0.2946E-15  0.1000E-09  0.0000E+00  0.3441E+16
   -1.374999    2.53705  0.2173E-11  0.5984E-11  0.6525E-15  0.1000E-09  0.0000E+00  0.3154E+16
   -1.443751    2.68001  0.2165E-11  0.1347E-10  0.1430E-14  0.1000E-09  0.0000E+00  0.2853E+16
   -1.512503    2.82475  0.2159E-11  0.3000E-10  0.3106E-14  0.1000E-09  0.0000E+00  0.2539E+16
   -1.581256    2.97112  0.2155E-11  0.6619E-10  0.6680E-14  0.1000E-09  0.0000E+00  0.2212E+16
   -1.650008    3.11892  0.2152E-11  0.1447E-09  0.1423E-13  0.1000E-09  0.0000E+00  0.1874E+16
   -1.718760    3.26794  0.2151E-11  0.3132E-09  0.3006E-13  0.1001E-09  0.0000E+00  0.1528E+16
   -1.787511    3.41802  0.2149E-11  0.6876E-09  0.6436E-13  0.2756E-09  0.0000E+00  0.1188E+16
   -1.856263    3.57106  0.2147E-11  0.1522E-08  0.1390E-12  0.8543E-09  0.0000E+00  0.8279E+15
   -1.925014    3.72688  0.2144E-11  0.3361E-08  0.2996E-12  0.3418E-08  0.0000E+00  0.4460E+15
   -1.993765    3.88364  0.2142E-11  0.7248E-08  0.6327E-12  0.4112E-07  0.0000E+00  0.7801E+14
   -2.062516    4.01060  0.2142E-11  0.8141E-08  0.7147E-12  0.3856E-04  0.0000E+00 -0.2299E+12
   -2.131266    4.01120  0.2142E-11  0.8510E-08  0.7573E-12  0.3883E-04  0.0000E+00 -0.2339E+12
   -2.200016    4.01179  0.2142E-11  0.8798E-08  0.8024E-12  0.3824E-04  0.0000E+00 -0.2433E+12
   -2.268766    4.01240  0.2142E-11  0.9010E-08  0.8532E-12  0.3676E-04  0.0000E+00 -0.2594E+12
   -2.337515    4.01302  0.2142E-11  0.9151E-08  0.9163E-12  0.3423E-04  0.0000E+00 -0.2860E+12
   -2.406263    4.01370  0.2142E-11  0.9212E-08  0.1001E-11  0.3047E-04  0.0000E+00 -0.3306E+12
   -2.475011    4.01446  0.2142E-11  0.9169E-08  0.1130E-11  0.2525E-04  0.0000E+00 -0.4126E+12
   -2.543759    4.01538  0.2142E-11  0.8966E-08  0.1360E-11  0.1835E-04  0.0000E+00 -0.5931E+12
   -2.612506    4.01665  0.2142E-11  0.8411E-08  0.1919E-11  0.9755E-05  0.0000E+00 -0.1197E+13
   -2.681252    4.01908  0.2142E-11  0.6034E-08  0.5367E-11  0.1260E-05  0.0000E+00 -0.1190E+14
   -2.749998    4.03724  0.2142E-11  0.0000E+00  0.0000E+00  0.0000E+00  0.0000E+00  0.0000E+00
