 1 - depth, m
 2 - temperature, C
 3 - salinity, kg/kg
 4 - turbulent kinetic energy, m**2/s**2
 5 - dissipation rate, m**2/s**3
 6 - kinematic heat conductance, m**2/s
 7 - modulus of horizontal velocity, m/s
 8 - Richardson number, n/d
   -0.000000    6.82593  0.1252E-11  0.4370E-04  0.8184E-05  0.5527E-04  0.5332E-01 -0.1770E-01
   -0.068746    6.87577  0.1252E-11  0.2897E-04  0.1904E-05  0.9516E-04  0.2858E-01 -0.2699E-01
   -0.137492    6.88966  0.1252E-11  0.2508E-04  0.7979E-06  0.1431E-03  0.2308E-01 -0.3890E-01
   -0.206239    6.89830  0.1252E-11  0.2307E-04  0.4253E-06  0.1970E-03  0.1976E-01 -0.5542E-01
   -0.274987    6.90447  0.1252E-11  0.2186E-04  0.2699E-06  0.2554E-03  0.1738E-01 -0.7318E-01
   -0.343735    6.90913  0.1252E-11  0.2104E-04  0.1923E-06  0.3179E-03  0.1557E-01 -0.8976E-01
   -0.412484    6.91279  0.1252E-11  0.2044E-04  0.1478E-06  0.3930E-03  0.1414E-01 -0.4723E-01
   -0.481233    6.91568  0.1252E-11  0.1996E-04  0.1195E-06  0.5326E-03  0.1297E-01  0.5426E+02
   -0.549983    6.91793  0.1252E-11  0.1957E-04  0.1001E-06  0.6662E-03  0.1200E-01  0.4299E+02
   -0.618733    6.91974  0.1252E-11  0.1924E-04  0.8614E-07  0.7695E-03  0.1116E-01  0.3275E+02
   -0.687483    6.92127  0.1252E-11  0.1895E-04  0.7561E-07  0.8758E-03  0.1043E-01  0.4102E+02
   -0.756234    6.92257  0.1252E-11  0.1870E-04  0.6742E-07  0.9819E-03  0.9765E-02  0.1189E+02
   -0.824985    6.92370  0.1252E-11  0.1847E-04  0.6091E-07  0.1084E-02  0.9165E-02  0.6290E+02
   -0.893737    6.92469  0.1252E-11  0.1826E-04  0.5561E-07  0.1184E-02  0.8612E-02  0.1004E+02
   -0.962488    6.92557  0.1252E-11  0.1807E-04  0.5124E-07  0.1295E-02  0.8097E-02  0.1653E+02
   -1.031240    6.92635  0.1252E-11  0.1788E-04  0.4759E-07  0.1376E-02  0.7613E-02  0.1289E+02
   -1.099992    6.92706  0.1252E-11  0.1770E-04  0.4448E-07  0.1474E-02  0.7151E-02  0.2425E+02
   -1.168744    6.92771  0.1252E-11  0.1753E-04  0.4182E-07  0.1517E-02  0.6711E-02  0.2005E+02
   -1.237497    6.92831  0.1252E-11  0.1734E-04  0.3951E-07  0.1556E-02  0.6285E-02  0.2603E+02
   -1.306249    6.92888  0.1252E-11  0.1715E-04  0.3749E-07  0.1586E-02  0.5872E-02  0.3488E+02
   -1.375001    6.92943  0.1252E-11  0.1696E-04  0.3571E-07  0.1611E-02  0.5469E-02  0.5377E+02
   -1.443754    6.92994  0.1252E-11  0.1674E-04  0.3413E-07  0.1629E-02  0.5075E-02  0.1203E+03
   -1.512506    6.93044  0.1252E-11  0.1651E-04  0.3271E-07  0.1641E-02  0.4687E-02  0.1853E+04
   -1.581258    6.93092  0.1252E-11  0.1626E-04  0.3142E-07  0.1644E-02  0.4304E-02  0.9586E+04
   -1.650010    6.93138  0.1252E-11  0.1598E-04  0.3023E-07  0.1643E-02  0.3922E-02  0.4387E+04
   -1.718762    6.93182  0.1252E-11  0.1567E-04  0.2911E-07  0.1622E-02  0.3541E-02  0.2784E+04
   -1.787514    6.93226  0.1252E-11  0.1532E-04  0.2801E-07  0.1655E-02  0.3157E-02  0.1966E+02
   -1.856266    6.93268  0.1252E-11  0.1493E-04  0.2699E-07  0.1668E-02  0.2821E-02  0.4410E+01
   -1.925017    6.93309  0.1252E-11  0.1452E-04  0.2606E-07  0.1680E-02  0.2525E-02  0.2047E+01
   -1.993768    6.93349  0.1252E-11  0.1409E-04  0.2526E-07  0.1687E-02  0.2265E-02  0.1281E+01
   -2.062519    6.93388  0.1252E-11  0.1367E-04  0.2465E-07  0.1682E-02  0.2032E-02  0.1005E+01
   -2.131269    6.93426  0.1252E-11  0.1327E-04  0.2424E-07  0.1662E-02  0.1815E-02  0.1641E+03
   -2.200019    6.93464  0.1252E-11  0.1287E-04  0.2407E-07  0.1614E-02  0.1611E-02  0.1452E+01
   -2.268769    6.93503  0.1252E-11  0.1249E-04  0.2419E-07  0.1551E-02  0.1419E-02  0.4413E+00
   -2.337518    6.93542  0.1252E-11  0.1211E-04  0.2469E-07  0.1460E-02  0.1243E-02  0.6869E+00
   -2.406267    6.93583  0.1252E-11  0.1173E-04  0.2572E-07  0.1335E-02  0.1084E-02  0.3886E+01
   -2.475015    6.93628  0.1252E-11  0.1133E-04  0.2763E-07  0.1115E-02  0.9422E-03  0.8446E+00
   -2.543763    6.93679  0.1252E-11  0.1085E-04  0.3150E-07  0.8654E-03  0.8099E-03  0.3901E+02
   -2.612510    6.93746  0.1252E-11  0.1012E-04  0.4177E-07  0.4218E-03  0.6734E-03  0.8903E+02
   -2.681257    6.93873  0.1252E-11  0.6120E-05  0.1495E-06  0.3216E-04  0.5163E-03 -0.1808E+05
   -2.750002    6.95505  0.1252E-11  0.0000E+00  0.0000E+00  0.0000E+00  0.5155E-03  0.0000E+00
