 1 - depth, m
 2 - temperature, C
 3 - salinity, kg/kg
 4 - turbulent kinetic energy, m**2/s**2
 5 - dissipation rate, m**2/s**3
 6 - kinematic heat conductance, m**2/s
 7 - modulus of horizontal velocity, m/s
 8 - Richardson number, n/d
   -0.000000   -0.00000  0.1286E-11  0.1219E-13  0.7603E-17  0.1000E-09  0.0000E+00  0.6293E+16
   -0.068746    0.09563  0.8513E-11  0.1219E-13  0.7603E-17  0.1000E-09  0.0000E+00  0.6233E+16
   -0.137493    0.19287  0.1549E-10  0.1219E-13  0.7603E-17  0.1000E-09  0.0000E+00  0.6160E+16
   -0.206240    0.29167  0.1931E-10  0.1219E-13  0.7603E-17  0.1000E-09  0.0000E+00  0.6074E+16
   -0.274988    0.39191  0.2021E-10  0.1219E-13  0.7603E-17  0.1000E-09  0.0000E+00  0.5973E+16
   -0.343736    0.49348  0.1948E-10  0.1219E-13  0.7603E-17  0.1000E-09  0.0000E+00  0.5860E+16
   -0.412485    0.59625  0.1820E-10  0.1219E-13  0.7603E-17  0.1000E-09  0.0000E+00  0.5734E+16
   -0.481234    0.70010  0.1702E-10  0.1219E-13  0.7603E-17  0.1000E-09  0.0000E+00  0.5596E+16
   -0.549984    0.80491  0.1615E-10  0.1219E-13  0.7603E-17  0.1000E-09  0.0000E+00  0.5448E+16
   -0.618734    0.91056  0.1561E-10  0.1219E-13  0.7603E-17  0.1000E-09  0.0000E+00  0.5291E+16
   -0.687485    1.01696  0.1531E-10  0.1219E-13  0.7603E-17  0.1000E-09  0.0000E+00  0.5125E+16
   -0.756236    1.12399  0.1516E-10  0.1219E-13  0.7603E-17  0.1000E-09  0.0000E+00  0.4953E+16
   -0.824987    1.23157  0.1509E-10  0.1219E-13  0.7603E-17  0.1000E-09  0.0000E+00  0.4775E+16
   -0.893738    1.33961  0.1506E-10  0.1219E-13  0.7603E-17  0.1000E-09  0.0000E+00  0.4591E+16
   -0.962490    1.44802  0.1504E-10  0.1219E-13  0.7603E-17  0.1000E-09  0.0000E+00  0.4402E+16
   -1.031242    1.55672  0.1502E-10  0.1219E-13  0.7603E-17  0.1000E-09  0.0000E+00  0.4210E+16
   -1.099994    1.66563  0.1501E-10  0.1219E-13  0.7603E-17  0.1000E-09  0.0000E+00  0.4015E+16
   -1.168747    1.77468  0.1498E-10  0.1219E-13  0.7603E-17  0.1000E-09  0.0000E+00  0.3818E+16
   -1.237499    1.88382  0.1496E-10  0.1219E-13  0.7603E-17  0.1000E-09  0.0000E+00  0.3619E+16
   -1.306251    1.99300  0.1492E-10  0.1219E-13  0.7603E-17  0.1000E-09  0.0000E+00  0.3420E+16
   -1.375004    2.10216  0.1488E-10  0.1219E-13  0.7603E-17  0.1000E-09  0.0000E+00  0.3221E+16
   -1.443756    2.21130  0.1484E-10  0.1219E-13  0.7603E-17  0.1000E-09  0.0000E+00  0.3023E+16
   -1.512509    2.32042  0.1480E-10  0.1219E-13  0.7603E-17  0.1000E-09  0.0000E+00  0.2825E+16
   -1.581261    2.42950  0.1476E-10  0.1219E-13  0.7603E-17  0.1000E-09  0.0000E+00  0.2628E+16
   -1.650013    2.53853  0.1473E-10  0.1219E-13  0.7603E-17  0.1000E-09  0.0000E+00  0.2432E+16
   -1.718766    2.64750  0.1470E-10  0.1219E-13  0.7603E-17  0.1000E-09  0.0000E+00  0.2236E+16
   -1.787518    2.75637  0.1468E-10  0.1219E-13  0.7603E-17  0.1000E-09  0.0000E+00  0.2021E+16
   -1.856269    2.86405  0.1466E-10  0.1219E-13  0.7603E-17  0.1000E-09  0.0000E+00  0.1810E+16
   -1.925021    2.97030  0.1465E-10  0.1219E-13  0.7603E-17  0.1000E-09  0.0000E+00  0.1601E+16
   -1.993772    3.07476  0.1464E-10  0.1219E-13  0.7603E-17  0.1000E-09  0.0000E+00  0.1402E+16
   -2.062523    3.17741  0.1462E-10  0.1219E-13  0.7603E-17  0.1000E-09  0.0000E+00  0.1230E+16
   -2.131274    3.27980  0.1461E-10  0.1219E-13  0.7603E-17  0.1000E-09  0.0000E+00  0.1061E+16
   -2.200024    3.38210  0.1461E-10  0.2792E-13  0.1466E-16  0.1000E-09  0.0000E+00  0.8935E+15
   -2.268774    3.48432  0.1460E-10  0.1426E-12  0.7057E-16  0.1000E-09  0.0000E+00  0.7263E+15
   -2.337523    3.58640  0.1460E-10  0.7533E-12  0.3582E-15  0.1000E-09  0.0000E+00  0.5601E+15
   -2.406272    3.68829  0.1459E-10  0.3941E-11  0.1805E-14  0.1000E-09  0.0000E+00  0.3950E+15
   -2.475020    3.78989  0.1459E-10  0.2055E-10  0.9089E-14  0.1925E-09  0.0000E+00  0.2314E+15
   -2.543768    3.89090  0.1459E-10  0.1070E-09  0.4596E-13  0.2944E-08  0.0000E+00  0.7130E+14
   -2.612515    3.98901  0.1459E-10  0.5365E-09  0.2309E-12  0.4495E-06  0.0000E+00 -0.5190E+13
   -2.681262    4.01222  0.1459E-10  0.7742E-09  0.6455E-12  0.2931E-06  0.0000E+00 -0.1811E+14
   -2.750008    4.04094  0.1459E-10  0.0000E+00  0.0000E+00  0.0000E+00  0.0000E+00  0.0000E+00
