 1 - depth, m
 2 - temperature, C
 3 - salinity, kg/kg
 4 - turbulent kinetic energy, m**2/s**2
 5 - dissipation rate, m**2/s**3
 6 - kinematic heat conductance, m**2/s
 7 - modulus of horizontal velocity, m/s
 8 - Richardson number, n/d
   -0.000000   -0.00000  0.5249E-10  0.1219E-13  0.7603E-17  0.1000E-09  0.0000E+00  0.5223E+16
   -0.068746    0.07920  0.2852E-10  0.1219E-13  0.7603E-17  0.1000E-09  0.0000E+00  0.5030E+16
   -0.137492    0.15712  0.2180E-10  0.1219E-13  0.7603E-17  0.1000E-09  0.0000E+00  0.4875E+16
   -0.206239    0.23429  0.2021E-10  0.1219E-13  0.7603E-17  0.1000E-09  0.0000E+00  0.4756E+16
   -0.274987    0.31123  0.1988E-10  0.1219E-13  0.7603E-17  0.1000E-09  0.0000E+00  0.4668E+16
   -0.343735    0.38846  0.1982E-10  0.1219E-13  0.7603E-17  0.1000E-09  0.0000E+00  0.4611E+16
   -0.412483    0.46650  0.1981E-10  0.1219E-13  0.7603E-17  0.1000E-09  0.0000E+00  0.4580E+16
   -0.481232    0.54588  0.1980E-10  0.1219E-13  0.7603E-17  0.1000E-09  0.0000E+00  0.4572E+16
   -0.549982    0.62710  0.1980E-10  0.1219E-13  0.7603E-17  0.1000E-09  0.0000E+00  0.4584E+16
   -0.618732    0.71068  0.1980E-10  0.1219E-13  0.7603E-17  0.1000E-09  0.0000E+00  0.4612E+16
   -0.687482    0.79711  0.1980E-10  0.1219E-13  0.7603E-17  0.1000E-09  0.0000E+00  0.4667E+16
   -0.756233    0.88715  0.1980E-10  0.1219E-13  0.7603E-17  0.1000E-09  0.0000E+00  0.4736E+16
   -0.824984    0.98142  0.1980E-10  0.1219E-13  0.7603E-17  0.1000E-09  0.0000E+00  0.4804E+16
   -0.893735    1.08034  0.1980E-10  0.1219E-13  0.7603E-17  0.1000E-09  0.0000E+00  0.4867E+16
   -0.962486    1.18429  0.1980E-10  0.1219E-13  0.7603E-17  0.1000E-09  0.0000E+00  0.4918E+16
   -1.031238    1.29358  0.1980E-10  0.1219E-13  0.7603E-17  0.1000E-09  0.0000E+00  0.4951E+16
   -1.099990    1.40851  0.1979E-10  0.1219E-13  0.7603E-17  0.1000E-09  0.0000E+00  0.4960E+16
   -1.168742    1.52928  0.1977E-10  0.1219E-13  0.7603E-17  0.1000E-09  0.0000E+00  0.4940E+16
   -1.237494    1.65605  0.1973E-10  0.2273E-13  0.7603E-17  0.1000E-09  0.0000E+00  0.4886E+16
   -1.306246    1.78891  0.1965E-10  0.8142E-13  0.1447E-16  0.1000E-09  0.0000E+00  0.4793E+16
   -1.374999    1.92785  0.1954E-10  0.2317E-12  0.3653E-16  0.1000E-09  0.0000E+00  0.4667E+16
   -1.443751    2.07317  0.1943E-10  0.6130E-12  0.9258E-16  0.1000E-09  0.0000E+00  0.4495E+16
   -1.512503    2.22481  0.1936E-10  0.1580E-11  0.2312E-15  0.1000E-09  0.0000E+00  0.4271E+16
   -1.581255    2.38254  0.1933E-10  0.4009E-11  0.5696E-15  0.1000E-09  0.0000E+00  0.3994E+16
   -1.650007    2.54601  0.1930E-10  0.1004E-10  0.1386E-14  0.1000E-09  0.0000E+00  0.3664E+16
   -1.718759    2.71480  0.1929E-10  0.2484E-10  0.3331E-14  0.1000E-09  0.0000E+00  0.3284E+16
   -1.787511    2.88844  0.1928E-10  0.6228E-10  0.8116E-14  0.1000E-09  0.0000E+00  0.2876E+16
   -1.856262    3.06765  0.1928E-10  0.1570E-09  0.1988E-13  0.1000E-09  0.0000E+00  0.2423E+16
   -1.925013    3.25243  0.1927E-10  0.3938E-09  0.4853E-13  0.1283E-09  0.0000E+00  0.1925E+16
   -1.993764    3.44284  0.1925E-10  0.9833E-09  0.1179E-12  0.4370E-09  0.0000E+00  0.1373E+16
   -2.062515    3.63795  0.1922E-10  0.2384E-08  0.2784E-12  0.1841E-08  0.0000E+00  0.7691E+15
   -2.131265    3.83280  0.1917E-10  0.5651E-08  0.6434E-12  0.1805E-07  0.0000E+00  0.1811E+15
   -2.200015    4.00837  0.1916E-10  0.6893E-08  0.7910E-12  0.2499E-04  0.0000E+00 -0.3929E+12
   -2.268765    4.00948  0.1916E-10  0.7384E-08  0.8687E-12  0.2537E-04  0.0000E+00 -0.4081E+12
   -2.337514    4.01058  0.1916E-10  0.7760E-08  0.9571E-12  0.2467E-04  0.0000E+00 -0.4428E+12
   -2.406262    4.01171  0.1916E-10  0.8024E-08  0.1069E-11  0.2278E-04  0.0000E+00 -0.5078E+12
   -2.475011    4.01296  0.1916E-10  0.8164E-08  0.1228E-11  0.1951E-04  0.0000E+00 -0.6332E+12
   -2.543758    4.01444  0.1916E-10  0.8131E-08  0.1502E-11  0.1466E-04  0.0000E+00 -0.9173E+12
   -2.612505    4.01645  0.1916E-10  0.7759E-08  0.2150E-11  0.8143E-05  0.0000E+00 -0.1897E+13
   -2.681251    4.02023  0.1916E-10  0.5956E-08  0.5772E-11  0.1350E-05  0.0000E+00 -0.1800E+14
   -2.749997    4.04505  0.1916E-10  0.0000E+00  0.0000E+00  0.0000E+00  0.0000E+00  0.0000E+00
