 1 - depth, m
 2 - temperature, C
 3 - salinity, kg/kg
 4 - turbulent kinetic energy, m**2/s**2
 5 - dissipation rate, m**2/s**3
 6 - kinematic heat conductance, m**2/s
 7 - modulus of horizontal velocity, m/s
 8 - Richardson number, n/d
   -0.000000   -0.00000  0.2296E-10  0.1219E-13  0.7603E-17  0.1000E-09  0.0000E+00  0.5309E+16
   -0.068746    0.08051  0.1243E-10  0.1219E-13  0.7603E-17  0.1000E-09  0.0000E+00  0.5110E+16
   -0.137492    0.15972  0.9525E-11  0.1219E-13  0.7603E-17  0.1000E-09  0.0000E+00  0.4952E+16
   -0.206239    0.23817  0.8851E-11  0.1219E-13  0.7603E-17  0.1000E-09  0.0000E+00  0.4831E+16
   -0.274987    0.31643  0.8710E-11  0.1219E-13  0.7603E-17  0.1000E-09  0.0000E+00  0.4745E+16
   -0.343735    0.39506  0.8684E-11  0.1219E-13  0.7603E-17  0.1000E-09  0.0000E+00  0.4691E+16
   -0.412483    0.47463  0.8680E-11  0.1219E-13  0.7603E-17  0.1000E-09  0.0000E+00  0.4666E+16
   -0.481232    0.55573  0.8679E-11  0.1219E-13  0.7603E-17  0.1000E-09  0.0000E+00  0.4667E+16
   -0.549982    0.63892  0.8679E-11  0.1219E-13  0.7603E-17  0.1000E-09  0.0000E+00  0.4690E+16
   -0.618732    0.72478  0.8679E-11  0.1219E-13  0.7603E-17  0.1000E-09  0.0000E+00  0.4730E+16
   -0.687482    0.81386  0.8679E-11  0.1219E-13  0.7603E-17  0.1000E-09  0.0000E+00  0.4798E+16
   -0.756233    0.90700  0.8679E-11  0.1219E-13  0.7603E-17  0.1000E-09  0.0000E+00  0.4882E+16
   -0.824984    1.00490  0.8679E-11  0.1219E-13  0.7603E-17  0.1000E-09  0.0000E+00  0.4964E+16
   -0.893735    1.10804  0.8679E-11  0.1219E-13  0.7603E-17  0.1000E-09  0.0000E+00  0.5039E+16
   -0.962486    1.21687  0.8679E-11  0.1219E-13  0.7603E-17  0.1000E-09  0.0000E+00  0.5100E+16
   -1.031238    1.33178  0.8678E-11  0.1219E-13  0.7603E-17  0.1000E-09  0.0000E+00  0.5140E+16
   -1.099990    1.45310  0.8674E-11  0.1219E-13  0.7603E-17  0.1000E-09  0.0000E+00  0.5153E+16
   -1.168742    1.58112  0.8664E-11  0.4849E-13  0.1025E-16  0.1000E-09  0.0000E+00  0.5130E+16
   -1.237494    1.71603  0.8641E-11  0.1498E-12  0.2575E-16  0.1000E-09  0.0000E+00  0.5066E+16
   -1.306246    1.85797  0.8602E-11  0.4145E-12  0.6744E-16  0.1000E-09  0.0000E+00  0.4955E+16
   -1.374999    2.00699  0.8552E-11  0.1107E-11  0.1740E-15  0.1000E-09  0.0000E+00  0.4804E+16
   -1.443751    2.16346  0.8508E-11  0.2902E-11  0.4423E-15  0.1000E-09  0.0000E+00  0.4597E+16
   -1.512503    2.32740  0.8480E-11  0.7500E-11  0.1109E-14  0.1000E-09  0.0000E+00  0.4327E+16
   -1.581255    2.49860  0.8464E-11  0.1912E-10  0.2744E-14  0.1000E-09  0.0000E+00  0.3992E+16
   -1.650007    2.67676  0.8455E-11  0.4813E-10  0.6706E-14  0.1000E-09  0.0000E+00  0.3592E+16
   -1.718759    2.86152  0.8450E-11  0.1196E-09  0.1618E-13  0.1000E-09  0.0000E+00  0.3131E+16
   -1.787511    3.05253  0.8446E-11  0.3011E-09  0.3956E-13  0.1000E-09  0.0000E+00  0.2642E+16
   -1.856262    3.25204  0.8444E-11  0.7614E-09  0.9721E-13  0.2379E-09  0.0000E+00  0.2079E+16
   -1.925013    3.46060  0.8439E-11  0.1915E-08  0.2377E-12  0.8436E-09  0.0000E+00  0.1434E+16
   -1.993764    3.67883  0.8426E-11  0.4779E-08  0.5771E-12  0.4265E-08  0.0000E+00  0.6884E+15
   -2.062515    3.90299  0.8415E-11  0.1078E-07  0.1277E-11  0.1449E-06  0.0000E+00  0.4518E+14
   -2.131265    4.02112  0.8414E-11  0.1226E-07  0.1461E-11  0.4317E-04  0.0000E+00 -0.4256E+12
   -2.200015    4.02189  0.8414E-11  0.1285E-07  0.1557E-11  0.4317E-04  0.0000E+00 -0.4341E+12
   -2.268765    4.02266  0.8414E-11  0.1329E-07  0.1659E-11  0.4204E-04  0.0000E+00 -0.4553E+12
   -2.337514    4.02345  0.8414E-11  0.1360E-07  0.1783E-11  0.3963E-04  0.0000E+00 -0.4942E+12
   -2.406263    4.02429  0.8414E-11  0.1378E-07  0.1945E-11  0.3575E-04  0.0000E+00 -0.5626E+12
   -2.475011    4.02523  0.8414E-11  0.1379E-07  0.2187E-11  0.3009E-04  0.0000E+00 -0.6904E+12
   -2.543758    4.02634  0.8414E-11  0.1355E-07  0.2611E-11  0.2235E-04  0.0000E+00 -0.9712E+12
   -2.612505    4.02786  0.8414E-11  0.1281E-07  0.3629E-11  0.1237E-04  0.0000E+00 -0.1895E+13
   -2.681251    4.03068  0.8414E-11  0.9413E-08  0.9970E-11  0.1722E-05  0.0000E+00 -0.1811E+14
   -2.749997    4.05175  0.8414E-11  0.0000E+00  0.0000E+00  0.0000E+00  0.0000E+00  0.0000E+00
