 1 - depth, m
 2 - temperature, C
 3 - salinity, kg/kg
 4 - turbulent kinetic energy, m**2/s**2
 5 - dissipation rate, m**2/s**3
 6 - kinematic heat conductance, m**2/s
 7 - modulus of horizontal velocity, m/s
 8 - Richardson number, n/d
   -0.000000   -0.00000  0.2148E-11  0.1219E-13  0.7603E-17  0.1000E-09  0.0000E+00  0.6518E+16
   -0.068746    0.09910  0.9831E-11  0.1219E-13  0.7603E-17  0.1000E-09  0.0000E+00  0.6466E+16
   -0.137493    0.20013  0.1488E-10  0.1219E-13  0.7603E-17  0.1000E-09  0.0000E+00  0.6390E+16
   -0.206240    0.30289  0.1645E-10  0.1219E-13  0.7603E-17  0.1000E-09  0.0000E+00  0.6293E+16
   -0.274988    0.40716  0.1586E-10  0.1219E-13  0.7603E-17  0.1000E-09  0.0000E+00  0.6178E+16
   -0.343736    0.51275  0.1453E-10  0.1219E-13  0.7603E-17  0.1000E-09  0.0000E+00  0.6047E+16
   -0.412485    0.61950  0.1328E-10  0.1219E-13  0.7603E-17  0.1000E-09  0.0000E+00  0.5901E+16
   -0.481235    0.72725  0.1240E-10  0.1219E-13  0.7603E-17  0.1000E-09  0.0000E+00  0.5743E+16
   -0.549984    0.83584  0.1188E-10  0.1219E-13  0.7603E-17  0.1000E-09  0.0000E+00  0.5573E+16
   -0.618735    0.94513  0.1159E-10  0.1219E-13  0.7603E-17  0.1000E-09  0.0000E+00  0.5394E+16
   -0.687485    1.05499  0.1146E-10  0.1219E-13  0.7603E-17  0.1000E-09  0.0000E+00  0.5208E+16
   -0.756236    1.16533  0.1140E-10  0.1219E-13  0.7603E-17  0.1000E-09  0.0000E+00  0.5015E+16
   -0.824988    1.27603  0.1137E-10  0.1219E-13  0.7603E-17  0.1000E-09  0.0000E+00  0.4817E+16
   -0.893739    1.38699  0.1136E-10  0.1219E-13  0.7603E-17  0.1000E-09  0.0000E+00  0.4614E+16
   -0.962491    1.49812  0.1135E-10  0.1219E-13  0.7603E-17  0.1000E-09  0.0000E+00  0.4407E+16
   -1.031243    1.60933  0.1134E-10  0.1219E-13  0.7603E-17  0.1000E-09  0.0000E+00  0.4199E+16
   -1.099995    1.72056  0.1133E-10  0.1219E-13  0.7603E-17  0.1000E-09  0.0000E+00  0.3988E+16
   -1.168748    1.83174  0.1132E-10  0.1219E-13  0.7603E-17  0.1000E-09  0.0000E+00  0.3777E+16
   -1.237500    1.94280  0.1130E-10  0.1219E-13  0.7603E-17  0.1000E-09  0.0000E+00  0.3566E+16
   -1.306253    2.05372  0.1127E-10  0.1219E-13  0.7603E-17  0.1000E-09  0.0000E+00  0.3355E+16
   -1.375005    2.16444  0.1125E-10  0.1219E-13  0.7603E-17  0.1000E-09  0.0000E+00  0.3147E+16
   -1.443758    2.27498  0.1122E-10  0.1219E-13  0.7603E-17  0.1000E-09  0.0000E+00  0.2940E+16
   -1.512510    2.38534  0.1119E-10  0.1219E-13  0.7603E-17  0.1000E-09  0.0000E+00  0.2735E+16
   -1.581263    2.49552  0.1117E-10  0.1219E-13  0.7603E-17  0.1000E-09  0.0000E+00  0.2532E+16
   -1.650015    2.60553  0.1115E-10  0.1219E-13  0.7603E-17  0.1000E-09  0.0000E+00  0.2330E+16
   -1.718767    2.71539  0.1113E-10  0.1219E-13  0.7603E-17  0.1000E-09  0.0000E+00  0.2131E+16
   -1.787519    2.82508  0.1112E-10  0.1219E-13  0.7603E-17  0.1000E-09  0.0000E+00  0.1913E+16
   -1.856271    2.93349  0.1110E-10  0.1219E-13  0.7603E-17  0.1000E-09  0.0000E+00  0.1700E+16
   -1.925023    3.04034  0.1109E-10  0.1219E-13  0.7603E-17  0.1000E-09  0.0000E+00  0.1490E+16
   -1.993774    3.14529  0.1108E-10  0.1219E-13  0.7603E-17  0.1000E-09  0.0000E+00  0.1290E+16
   -2.062525    3.24830  0.1107E-10  0.1424E-13  0.7616E-17  0.1000E-09  0.0000E+00  0.1117E+16
   -2.131276    3.35098  0.1106E-10  0.6425E-13  0.2471E-16  0.1000E-09  0.0000E+00  0.9465E+15
   -2.200026    3.45348  0.1106E-10  0.2797E-12  0.1015E-15  0.1000E-09  0.0000E+00  0.7777E+15
   -2.268776    3.55577  0.1105E-10  0.1192E-11  0.4164E-15  0.1000E-09  0.0000E+00  0.6098E+15
   -2.337525    3.65771  0.1105E-10  0.5079E-11  0.1711E-14  0.1000E-09  0.0000E+00  0.4435E+15
   -2.406274    3.75915  0.1105E-10  0.2151E-10  0.6999E-14  0.1252E-09  0.0000E+00  0.2796E+15
   -2.475022    3.85982  0.1105E-10  0.9116E-10  0.2871E-13  0.1179E-08  0.0000E+00  0.1194E+15
   -2.543770    3.95854  0.1105E-10  0.3776E-09  0.1162E-12  0.1171E-06  0.0000E+00  0.1049E+13
   -2.612518    4.01159  0.1105E-10  0.1165E-08  0.4532E-12  0.1253E-05  0.0000E+00 -0.4523E+13
   -2.681264    4.02119  0.1105E-10  0.1133E-08  0.9404E-12  0.3824E-06  0.0000E+00 -0.1657E+14
   -2.750010    4.04404  0.1105E-10  0.0000E+00  0.0000E+00  0.0000E+00  0.0000E+00  0.0000E+00
