 1 - depth, m
 2 - temperature, C
 3 - salinity, kg/kg
 4 - turbulent kinetic energy, m**2/s**2
 5 - dissipation rate, m**2/s**3
 6 - kinematic heat conductance, m**2/s
 7 - modulus of horizontal velocity, m/s
 8 - Richardson number, n/d
   -0.000000   13.24810  0.4330E-10  0.1377E-04  0.5838E-06  0.3258E-04  0.2683E-01 -0.1396E-01
   -0.068746   13.26014  0.4330E-10  0.1302E-04  0.2141E-06  0.8101E-04  0.1789E-01 -0.3170E-01
   -0.137492   13.26421  0.4330E-10  0.1245E-04  0.1253E-06  0.1292E-03  0.1445E-01 -0.4670E-01
   -0.206239   13.26640  0.4330E-10  0.1198E-04  0.8635E-07  0.1774E-03  0.1235E-01 -0.6021E-01
   -0.274987   13.26778  0.4330E-10  0.1158E-04  0.6471E-07  0.2263E-03  0.1088E-01 -0.7331E-01
   -0.343735   13.26873  0.4330E-10  0.1126E-04  0.5108E-07  0.2767E-03  0.9752E-02 -0.8709E-01
   -0.412484   13.26944  0.4330E-10  0.1099E-04  0.4182E-07  0.3306E-03  0.8857E-02 -0.9980E-01
   -0.481233   13.26999  0.4330E-10  0.1077E-04  0.3524E-07  0.4005E-03  0.8124E-02 -0.4906E-01
   -0.549983   13.27042  0.4330E-10  0.1060E-04  0.3047E-07  0.5735E-03  0.7514E-02  0.8292E+01
   -0.618733   13.27073  0.4330E-10  0.1048E-04  0.2695E-07  0.6982E-03  0.7009E-02  0.1529E+02
   -0.687483   13.27099  0.4330E-10  0.1041E-04  0.2425E-07  0.8127E-03  0.6571E-02  0.2419E+02
   -0.756234   13.27122  0.4330E-10  0.1036E-04  0.2217E-07  0.9603E-03  0.6185E-02  0.2096E+02
   -0.824985   13.27143  0.4331E-10  0.1035E-04  0.2056E-07  0.1184E-02  0.5841E-02  0.4683E+02
   -0.893737   13.27161  0.4331E-10  0.1036E-04  0.1930E-07  0.1593E-02  0.5529E-02  0.5554E+02
   -0.962488   13.27176  0.4331E-10  0.1040E-04  0.1828E-07  0.1574E-02  0.5244E-02  0.7152E+01
   -1.031240   13.27191  0.4331E-10  0.1045E-04  0.1741E-07  0.1608E-02  0.4954E-02  0.8371E+01
   -1.099992   13.27207  0.4331E-10  0.1051E-04  0.1670E-07  0.1617E-02  0.4671E-02  0.9677E+01
   -1.168744   13.27224  0.4331E-10  0.1057E-04  0.1611E-07  0.1631E-02  0.4388E-02  0.1132E+02
   -1.237496   13.27242  0.4331E-10  0.1064E-04  0.1562E-07  0.1640E-02  0.4107E-02  0.1332E+02
   -1.306249   13.27261  0.4331E-10  0.1070E-04  0.1523E-07  0.1648E-02  0.3824E-02  0.1583E+02
   -1.375001   13.27282  0.4331E-10  0.1075E-04  0.1491E-07  0.1653E-02  0.3539E-02  0.1910E+02
   -1.443753   13.27304  0.4331E-10  0.1078E-04  0.1466E-07  0.1653E-02  0.3251E-02  0.2359E+02
   -1.512506   13.27328  0.4331E-10  0.1078E-04  0.1446E-07  0.1649E-02  0.2959E-02  0.3042E+02
   -1.581258   13.27353  0.4331E-10  0.1076E-04  0.1430E-07  0.1635E-02  0.2662E-02  0.4245E+02
   -1.650010   13.27380  0.4331E-10  0.1069E-04  0.1418E-07  0.1615E-02  0.2358E-02  0.6870E+02
   -1.718762   13.27410  0.4331E-10  0.1057E-04  0.1408E-07  0.1577E-02  0.2048E-02  0.1080E+03
   -1.787514   13.27441  0.4331E-10  0.1038E-04  0.1398E-07  0.1585E-02  0.1730E-02  0.1126E+02
   -1.856265   13.27473  0.4331E-10  0.1014E-04  0.1394E-07  0.1601E-02  0.1463E-02  0.4707E+01
   -1.925017   13.27506  0.4331E-10  0.9880E-05  0.1399E-07  0.1642E-02  0.1240E-02  0.2724E+01
   -1.993768   13.27538  0.4331E-10  0.9604E-05  0.1418E-07  0.1690E-02  0.1058E-02  0.1946E+01
   -2.062519   13.27570  0.4331E-10  0.9334E-05  0.1451E-07  0.1698E-02  0.9078E-03  0.1619E+01
   -2.131269   13.27602  0.4331E-10  0.9074E-05  0.1500E-07  0.1670E-02  0.7786E-03  0.1375E+01
   -2.200019   13.27637  0.4331E-10  0.8828E-05  0.1567E-07  0.1536E-02  0.6664E-03  0.1167E+01
   -2.268769   13.27675  0.4331E-10  0.8601E-05  0.1653E-07  0.1381E-02  0.5701E-03  0.9507E+00
   -2.337518   13.27720  0.4331E-10  0.8389E-05  0.1764E-07  0.1244E-02  0.4915E-03  0.8366E+00
   -2.406267   13.27770  0.4331E-10  0.8177E-05  0.1919E-07  0.1136E-02  0.4288E-03  0.1028E+01
   -2.475015   13.27826  0.4331E-10  0.7924E-05  0.2183E-07  0.9663E-03  0.3744E-03  0.6950E+01
   -2.543763   13.27896  0.4331E-10  0.7563E-05  0.2714E-07  0.7864E-03  0.3186E-03  0.2823E+03
   -2.612510   13.27990  0.4331E-10  0.6885E-05  0.4261E-07  0.5165E-03  0.2616E-03  0.1161E+01
   -2.681256   13.28252  0.4331E-10  0.4391E-05  0.1489E-06  0.6311E-04  0.1821E-03 -0.1038E+05
   -2.750002   13.29733  0.4331E-10  0.0000E+00  0.0000E+00  0.0000E+00  0.2049E-03  0.0000E+00
