 1 - depth, m
 2 - temperature, C
 3 - salinity, kg/kg
 4 - turbulent kinetic energy, m**2/s**2
 5 - dissipation rate, m**2/s**3
 6 - kinematic heat conductance, m**2/s
 7 - modulus of horizontal velocity, m/s
 8 - Richardson number, n/d
   -0.000000   -0.00000  0.3387E-11  0.1219E-13  0.7603E-17  0.1000E-09  0.0000E+00  0.7165E+16
   -0.068746    0.10908  0.9518E-11  0.1219E-13  0.7603E-17  0.1000E-09  0.0000E+00  0.7078E+16
   -0.137493    0.22014  0.1197E-10  0.1219E-13  0.7603E-17  0.1000E-09  0.0000E+00  0.6964E+16
   -0.206240    0.33293  0.1223E-10  0.1219E-13  0.7603E-17  0.1000E-09  0.0000E+00  0.6826E+16
   -0.274988    0.44719  0.1153E-10  0.1219E-13  0.7603E-17  0.1000E-09  0.0000E+00  0.6666E+16
   -0.343736    0.56267  0.1060E-10  0.1219E-13  0.7603E-17  0.1000E-09  0.0000E+00  0.6486E+16
   -0.412485    0.67915  0.9811E-11  0.1219E-13  0.7603E-17  0.1000E-09  0.0000E+00  0.6291E+16
   -0.481234    0.79643  0.9276E-11  0.1219E-13  0.7603E-17  0.1000E-09  0.0000E+00  0.6083E+16
   -0.549984    0.91430  0.8966E-11  0.1219E-13  0.7603E-17  0.1000E-09  0.0000E+00  0.5863E+16
   -0.618734    1.03261  0.8806E-11  0.1219E-13  0.7603E-17  0.1000E-09  0.0000E+00  0.5635E+16
   -0.687485    1.15120  0.8730E-11  0.1219E-13  0.7603E-17  0.1000E-09  0.0000E+00  0.5401E+16
   -0.756236    1.26995  0.8697E-11  0.1219E-13  0.7603E-17  0.1000E-09  0.0000E+00  0.5162E+16
   -0.824987    1.38876  0.8683E-11  0.1219E-13  0.7603E-17  0.1000E-09  0.0000E+00  0.4919E+16
   -0.893739    1.50751  0.8675E-11  0.1219E-13  0.7603E-17  0.1000E-09  0.0000E+00  0.4674E+16
   -0.962490    1.62610  0.8667E-11  0.1219E-13  0.7603E-17  0.1000E-09  0.0000E+00  0.4427E+16
   -1.031242    1.74445  0.8658E-11  0.1219E-13  0.7603E-17  0.1000E-09  0.0000E+00  0.4180E+16
   -1.099995    1.86248  0.8646E-11  0.1219E-13  0.7603E-17  0.1000E-09  0.0000E+00  0.3934E+16
   -1.168747    1.98012  0.8629E-11  0.1219E-13  0.7603E-17  0.1000E-09  0.0000E+00  0.3689E+16
   -1.237499    2.09732  0.8609E-11  0.1219E-13  0.7603E-17  0.1000E-09  0.0000E+00  0.3446E+16
   -1.306252    2.21403  0.8585E-11  0.1219E-13  0.7603E-17  0.1000E-09  0.0000E+00  0.3207E+16
   -1.375004    2.33021  0.8560E-11  0.1219E-13  0.7603E-17  0.1000E-09  0.0000E+00  0.2971E+16
   -1.443757    2.44588  0.8535E-11  0.1219E-13  0.7603E-17  0.1000E-09  0.0000E+00  0.2739E+16
   -1.512509    2.56105  0.8512E-11  0.1219E-13  0.7603E-17  0.1000E-09  0.0000E+00  0.2511E+16
   -1.581262    2.67570  0.8492E-11  0.1219E-13  0.7603E-17  0.1000E-09  0.0000E+00  0.2287E+16
   -1.650014    2.78985  0.8475E-11  0.1219E-13  0.7603E-17  0.1000E-09  0.0000E+00  0.2067E+16
   -1.718766    2.90354  0.8462E-11  0.1219E-13  0.7603E-17  0.1000E-09  0.0000E+00  0.1850E+16
   -1.787518    3.01674  0.8452E-11  0.4008E-13  0.1036E-16  0.1000E-09  0.0000E+00  0.1618E+16
   -1.856270    3.12816  0.8443E-11  0.1392E-12  0.3001E-16  0.1000E-09  0.0000E+00  0.1394E+16
   -1.925021    3.23747  0.8436E-11  0.4482E-12  0.9194E-16  0.1000E-09  0.0000E+00  0.1175E+16
   -1.993773    3.34417  0.8431E-11  0.1409E-11  0.2792E-15  0.1000E-09  0.0000E+00  0.9702E+15
   -2.062524    3.44814  0.8426E-11  0.4268E-11  0.8193E-15  0.1000E-09  0.0000E+00  0.7931E+15
   -2.131274    3.55140  0.8423E-11  0.1272E-10  0.2366E-14  0.1000E-09  0.0000E+00  0.6207E+15
   -2.200024    3.65408  0.8422E-11  0.3744E-10  0.6753E-14  0.1000E-09  0.0000E+00  0.4513E+15
   -2.268774    3.75605  0.8421E-11  0.1100E-09  0.1924E-13  0.3417E-09  0.0000E+00  0.2851E+15
   -2.337524    3.85699  0.8420E-11  0.3254E-09  0.5528E-13  0.2250E-08  0.0000E+00  0.1238E+15
   -2.406273    3.95557  0.8420E-11  0.9182E-09  0.1525E-12  0.1370E-06  0.0000E+00  0.4523E+13
   -2.475021    4.00555  0.8420E-11  0.1820E-08  0.3148E-12  0.4755E-05  0.0000E+00 -0.9206E+12
   -2.543769    4.00839  0.8420E-11  0.2150E-08  0.4248E-12  0.4353E-05  0.0000E+00 -0.1146E+13
   -2.612516    4.01149  0.8420E-11  0.2206E-08  0.6052E-12  0.2760E-05  0.0000E+00 -0.2054E+13
   -2.681263    4.01625  0.8420E-11  0.1689E-08  0.1328E-11  0.5077E-06  0.0000E+00 -0.1283E+14
   -2.750009    4.03666  0.8420E-11  0.0000E+00  0.0000E+00  0.0000E+00  0.0000E+00  0.0000E+00
