 1 - depth, m
 2 - temperature, C
 3 - salinity, kg/kg
 4 - turbulent kinetic energy, m**2/s**2
 5 - dissipation rate, m**2/s**3
 6 - kinematic heat conductance, m**2/s
 7 - modulus of horizontal velocity, m/s
 8 - Richardson number, n/d
   -0.000000   -0.00000  0.8342E-10  0.1219E-13  0.7604E-17  0.1000E-09  0.8690E-52  0.4137E+16
   -0.068746    0.06259  0.4987E-10  0.1239E-13  0.7604E-17  0.1000E-09  0.6908E-52  0.3591E+16
   -0.137492    0.11778  0.4462E-10  0.1430E-13  0.7604E-17  0.1000E-09  0.5619E-52  0.3045E+16
   -0.206239    0.16527  0.4375E-10  0.1896E-13  0.7604E-17  0.1000E-09  0.4676E-52  0.2519E+16
   -0.274986    0.20503  0.4363E-10  0.2649E-13  0.7604E-17  0.1000E-09  0.3935E-52  0.2030E+16
   -0.343734    0.23738  0.4361E-10  0.3632E-13  0.7623E-17  0.1000E-09  0.3311E-52  0.1591E+16
   -0.412483    0.26296  0.4361E-10  0.4764E-13  0.7686E-17  0.1000E-09  0.2767E-52  0.1217E+16
   -0.481232    0.28266  0.4361E-10  0.5965E-13  0.7790E-17  0.1000E-09  0.2292E-52  0.9150E+15
   -0.549981    0.29753  0.4361E-10  0.7156E-13  0.7921E-17  0.1000E-09  0.1881E-52  0.6897E+15
   -0.618731    0.30879  0.4361E-10  0.8269E-13  0.8063E-17  0.1000E-09  0.1532E-52  0.5437E+15
   -0.687481    0.31769  0.4361E-10  0.9237E-13  0.8200E-17  0.1000E-09  0.1238E-52  0.4894E+15
   -0.756232    0.32572  0.4361E-10  0.1001E-12  0.8317E-17  0.1000E-09  0.9939E-53  0.5255E+15
   -0.824983    0.33437  0.4361E-10  0.1053E-12  0.8404E-17  0.1000E-09  0.7927E-53  0.6507E+15
   -0.893734    0.34510  0.4361E-10  0.1077E-12  0.8452E-17  0.1000E-09  0.6282E-53  0.8719E+15
   -0.962486    0.35954  0.4361E-10  0.1071E-12  0.8455E-17  0.1000E-09  0.4947E-53  0.1198E+16
   -1.031237    0.37947  0.4361E-10  0.1034E-12  0.8412E-17  0.1000E-09  0.3870E-53  0.1636E+16
   -1.099989    0.40688  0.4361E-10  0.9683E-13  0.8326E-17  0.1000E-09  0.3007E-53  0.2192E+16
   -1.168741    0.44396  0.4361E-10  0.8763E-13  0.8206E-17  0.1000E-09  0.2319E-53  0.2866E+16
   -1.237493    0.49308  0.4361E-10  0.7636E-13  0.8063E-17  0.1000E-09  0.1774E-53  0.3650E+16
   -1.306245    0.55672  0.4359E-10  0.6373E-13  0.7914E-17  0.1000E-09  0.1344E-53  0.4525E+16
   -1.374997    0.63738  0.4352E-10  0.5065E-13  0.7778E-17  0.1000E-09  0.1005E-53  0.5519E+16
   -1.443749    0.73863  0.4330E-10  0.3821E-13  0.7675E-17  0.1000E-09  0.7374E-54  0.6536E+16
   -1.512501    0.86302  0.4296E-10  0.2758E-13  0.7619E-17  0.1000E-09  0.5243E-54  0.7488E+16
   -1.581254    1.01225  0.4279E-10  0.1990E-13  0.7606E-17  0.1000E-09  0.3517E-54  0.8302E+16
   -1.650005    1.18747  0.4274E-10  0.1600E-13  0.7647E-17  0.1000E-09  0.2072E-54  0.8901E+16
   -1.718757    1.38909  0.4271E-10  0.3529E-13  0.1336E-16  0.1000E-09  0.7993E-55  0.9192E+16
   -1.787509    1.61606  0.4269E-10  0.1424E-12  0.5048E-16  0.1000E-09  0.5413E-56  0.8712E+16
   -1.856260    1.85429  0.4268E-10  0.5926E-12  0.2014E-15  0.1000E-09  0.3376E-57  0.8041E+16
   -1.925012    2.10177  0.4267E-10  0.2427E-11  0.7919E-15  0.1000E-09  0.1923E-58  0.7194E+16
   -1.993762    2.35579  0.4267E-10  0.9768E-11  0.3063E-14  0.1000E-09  0.1193E-59  0.6263E+16
   -2.062513    2.61590  0.4266E-10  0.3764E-10  0.1135E-13  0.1000E-09  0.9617E-61  0.5415E+16
   -2.131263    2.89073  0.4262E-10  0.1419E-09  0.4117E-13  0.1000E-09  0.7255E-62  0.4362E+16
   -2.200013    3.17893  0.4252E-10  0.5246E-09  0.1465E-12  0.2397E-09  0.5087E-63  0.3110E+16
   -2.268763    3.47733  0.4230E-10  0.1922E-08  0.5171E-12  0.1538E-08  0.2435E-64  0.1709E+16
   -2.337512    3.78097  0.4215E-10  0.6923E-08  0.1799E-11  0.2942E-07  0.9558E-66  0.3089E+15
   -2.406260    4.03956  0.4215E-10  0.1112E-07  0.2925E-11  0.1806E-04  0.2793E-67 -0.2088E+13
   -2.475008    4.04201  0.4215E-10  0.1249E-07  0.3525E-11  0.1748E-04  0.5130E-68 -0.2324E+13
   -2.543756    4.04462  0.4215E-10  0.1328E-07  0.4372E-11  0.1467E-04  0.8329E-69 -0.3046E+13
   -2.612503    4.04786  0.4215E-10  0.1335E-07  0.6162E-11  0.9315E-05  0.9734E-70 -0.5623E+13
   -2.681249    4.05345  0.4215E-10  0.1125E-07  0.1539E-10  0.2062E-05  0.5733E-71 -0.4118E+14
   -2.749994    4.08516  0.4215E-10  0.0000E+00  0.0000E+00  0.0000E+00  0.6067E-71  0.0000E+00
