 1 - depth, m
 2 - temperature, C
 3 - salinity, kg/kg
 4 - turbulent kinetic energy, m**2/s**2
 5 - dissipation rate, m**2/s**3
 6 - kinematic heat conductance, m**2/s
 7 - modulus of horizontal velocity, m/s
 8 - Richardson number, n/d
   -0.000000   -0.00000  0.7784E-11  0.1219E-13  0.7603E-17  0.1000E-09  0.0000E+00  0.5528E+16
   -0.068746    0.08388  0.4243E-11  0.1219E-13  0.7603E-17  0.1000E-09  0.0000E+00  0.5322E+16
   -0.137492    0.16648  0.3206E-11  0.1219E-13  0.7603E-17  0.1000E-09  0.0000E+00  0.5155E+16
   -0.206239    0.24835  0.2958E-11  0.1219E-13  0.7603E-17  0.1000E-09  0.0000E+00  0.5025E+16
   -0.274987    0.33004  0.2906E-11  0.1219E-13  0.7603E-17  0.1000E-09  0.0000E+00  0.4929E+16
   -0.343735    0.41210  0.2896E-11  0.1219E-13  0.7603E-17  0.1000E-09  0.0000E+00  0.4864E+16
   -0.412483    0.49507  0.2894E-11  0.1219E-13  0.7603E-17  0.1000E-09  0.0000E+00  0.4825E+16
   -0.481232    0.57950  0.2894E-11  0.1219E-13  0.7603E-17  0.1000E-09  0.0000E+00  0.4810E+16
   -0.549982    0.66593  0.2894E-11  0.1219E-13  0.7603E-17  0.1000E-09  0.0000E+00  0.4815E+16
   -0.618732    0.75488  0.2894E-11  0.1219E-13  0.7603E-17  0.1000E-09  0.0000E+00  0.4834E+16
   -0.687482    0.84688  0.2894E-11  0.1219E-13  0.7603E-17  0.1000E-09  0.0000E+00  0.4879E+16
   -0.756233    0.94270  0.2894E-11  0.1219E-13  0.7603E-17  0.1000E-09  0.0000E+00  0.4936E+16
   -0.824984    1.04298  0.2894E-11  0.1219E-13  0.7603E-17  0.1000E-09  0.0000E+00  0.4991E+16
   -0.893735    1.14817  0.2894E-11  0.1219E-13  0.7603E-17  0.1000E-09  0.0000E+00  0.5038E+16
   -0.962486    1.25866  0.2894E-11  0.1219E-13  0.7603E-17  0.1000E-09  0.0000E+00  0.5071E+16
   -1.031238    1.37480  0.2893E-11  0.1219E-13  0.7603E-17  0.1000E-09  0.0000E+00  0.5083E+16
   -1.099990    1.49690  0.2891E-11  0.1219E-13  0.7603E-17  0.1000E-09  0.0000E+00  0.5069E+16
   -1.168742    1.62520  0.2886E-11  0.5115E-13  0.1057E-16  0.1000E-09  0.0000E+00  0.5021E+16
   -1.237494    1.75988  0.2875E-11  0.1571E-12  0.2651E-16  0.1000E-09  0.0000E+00  0.4936E+16
   -1.306246    1.90106  0.2860E-11  0.4310E-12  0.6886E-16  0.1000E-09  0.0000E+00  0.4807E+16
   -1.374999    2.04878  0.2843E-11  0.1141E-11  0.1762E-15  0.1000E-09  0.0000E+00  0.4641E+16
   -1.443751    2.20336  0.2830E-11  0.2967E-11  0.4443E-15  0.1000E-09  0.0000E+00  0.4424E+16
   -1.512503    2.36482  0.2822E-11  0.7605E-11  0.1105E-14  0.1000E-09  0.0000E+00  0.4150E+16
   -1.581255    2.53295  0.2817E-11  0.1924E-10  0.2715E-14  0.1000E-09  0.0000E+00  0.3817E+16
   -1.650007    2.70748  0.2814E-11  0.4806E-10  0.6587E-14  0.1000E-09  0.0000E+00  0.3426E+16
   -1.718759    2.88806  0.2812E-11  0.1186E-09  0.1579E-13  0.1000E-09  0.0000E+00  0.2981E+16
   -1.787511    3.07437  0.2811E-11  0.2964E-09  0.3835E-13  0.1000E-09  0.0000E+00  0.2509E+16
   -1.856262    3.26832  0.2810E-11  0.7447E-09  0.9363E-13  0.2416E-09  0.0000E+00  0.1972E+16
   -1.925013    3.47033  0.2808E-11  0.1861E-08  0.2276E-12  0.8497E-09  0.0000E+00  0.1363E+16
   -1.993764    3.68071  0.2805E-11  0.4617E-08  0.5494E-12  0.4176E-08  0.0000E+00  0.6694E+15
   -2.062515    3.89565  0.2802E-11  0.1050E-07  0.1225E-11  0.1136E-06  0.0000E+00  0.5490E+14
   -2.131265    4.02146  0.2801E-11  0.1194E-07  0.1401E-11  0.4278E-04  0.0000E+00 -0.4126E+12
   -2.200015    4.02220  0.2801E-11  0.1251E-07  0.1492E-11  0.4279E-04  0.0000E+00 -0.4208E+12
   -2.268765    4.02294  0.2801E-11  0.1294E-07  0.1590E-11  0.4168E-04  0.0000E+00 -0.4413E+12
   -2.337514    4.02371  0.2801E-11  0.1324E-07  0.1707E-11  0.3930E-04  0.0000E+00 -0.4788E+12
   -2.406263    4.02451  0.2801E-11  0.1341E-07  0.1862E-11  0.3545E-04  0.0000E+00 -0.5446E+12
   -2.475011    4.02541  0.2801E-11  0.1341E-07  0.2091E-11  0.2984E-04  0.0000E+00 -0.6673E+12
   -2.543758    4.02649  0.2801E-11  0.1318E-07  0.2493E-11  0.2216E-04  0.0000E+00 -0.9365E+12
   -2.612505    4.02795  0.2801E-11  0.1245E-07  0.3458E-11  0.1224E-04  0.0000E+00 -0.1819E+13
   -2.681251    4.03065  0.2801E-11  0.9125E-08  0.9465E-11  0.1686E-05  0.0000E+00 -0.1707E+14
   -2.749997    4.05071  0.2801E-11  0.0000E+00  0.0000E+00  0.0000E+00  0.0000E+00  0.0000E+00
