 1 - depth, m
 2 - temperature, C
 3 - salinity, kg/kg
 4 - turbulent kinetic energy, m**2/s**2
 5 - dissipation rate, m**2/s**3
 6 - kinematic heat conductance, m**2/s
 7 - modulus of horizontal velocity, m/s
 8 - Richardson number, n/d
   -0.000000    8.24209  0.4260E-10  0.2000E-04  0.1236E-05  0.3499E-04  0.3451E-01 -0.9082E-02
   -0.068746    8.27053  0.4261E-10  0.1791E-04  0.3891E-06  0.8878E-04  0.2220E-01 -0.2540E-01
   -0.137492    8.28072  0.4261E-10  0.1697E-04  0.2141E-06  0.1434E-03  0.1796E-01 -0.4143E-01
   -0.206239    8.28686  0.4261E-10  0.1631E-04  0.1437E-06  0.2000E-03  0.1539E-01 -0.5850E-01
   -0.274987    8.29111  0.4261E-10  0.1577E-04  0.1066E-06  0.2585E-03  0.1359E-01 -0.7655E-01
   -0.343735    8.29429  0.4261E-10  0.1532E-04  0.8385E-07  0.3188E-03  0.1223E-01 -0.9558E-01
   -0.412484    8.29679  0.4261E-10  0.1494E-04  0.6866E-07  0.3808E-03  0.1115E-01 -0.1155E+00
   -0.481233    8.29883  0.4261E-10  0.1461E-04  0.5789E-07  0.4452E-03  0.1026E-01 -0.1340E+00
   -0.549983    8.30053  0.4261E-10  0.1433E-04  0.4996E-07  0.5246E-03  0.9514E-02 -0.1095E+00
   -0.618733    8.30194  0.4261E-10  0.1410E-04  0.4397E-07  0.7180E-03  0.8873E-02  0.1199E+01
   -0.687483    8.30298  0.4261E-10  0.1391E-04  0.3946E-07  0.1186E-02  0.8322E-02  0.3032E+02
   -0.756234    8.30367  0.4261E-10  0.1376E-04  0.3592E-07  0.1303E-02  0.7853E-02  0.7364E+02
   -0.824985    8.30424  0.4261E-10  0.1363E-04  0.3299E-07  0.1463E-02  0.7403E-02  0.1857E+02
   -0.893737    8.30472  0.4261E-10  0.1353E-04  0.3056E-07  0.1568E-02  0.6983E-02  0.7747E+02
   -0.962488    8.30515  0.4261E-10  0.1343E-04  0.2849E-07  0.1655E-02  0.6579E-02  0.3081E+02
   -1.031240    8.30554  0.4261E-10  0.1334E-04  0.2671E-07  0.1688E-02  0.6191E-02  0.2358E+02
   -1.099992    8.30592  0.4261E-10  0.1325E-04  0.2517E-07  0.1725E-02  0.5812E-02  0.2756E+02
   -1.168744    8.30628  0.4261E-10  0.1315E-04  0.2381E-07  0.1756E-02  0.5444E-02  0.3245E+02
   -1.237497    8.30664  0.4261E-10  0.1305E-04  0.2262E-07  0.1785E-02  0.5084E-02  0.3930E+02
   -1.306249    8.30698  0.4261E-10  0.1294E-04  0.2156E-07  0.1807E-02  0.4732E-02  0.4951E+02
   -1.375001    8.30731  0.4261E-10  0.1281E-04  0.2062E-07  0.1826E-02  0.4385E-02  0.6674E+02
   -1.443753    8.30763  0.4261E-10  0.1267E-04  0.1977E-07  0.1837E-02  0.4043E-02  0.1028E+03
   -1.512506    8.30794  0.4261E-10  0.1251E-04  0.1901E-07  0.1844E-02  0.3703E-02  0.2264E+03
   -1.581258    8.30825  0.4261E-10  0.1232E-04  0.1831E-07  0.1840E-02  0.3367E-02  0.2421E+05
   -1.650010    8.30856  0.4261E-10  0.1211E-04  0.1767E-07  0.1837E-02  0.3030E-02  0.2577E+05
   -1.718762    8.30886  0.4261E-10  0.1187E-04  0.1707E-07  0.1806E-02  0.2695E-02  0.7110E+04
   -1.787514    8.30916  0.4261E-10  0.1159E-04  0.1648E-07  0.1825E-02  0.2356E-02  0.2429E+02
   -1.856266    8.30945  0.4261E-10  0.1127E-04  0.1593E-07  0.1823E-02  0.2060E-02  0.6648E+01
   -1.925017    8.30974  0.4261E-10  0.1093E-04  0.1544E-07  0.1824E-02  0.1799E-02  0.3163E+01
   -1.993768    8.31004  0.4261E-10  0.1057E-04  0.1505E-07  0.1827E-02  0.1573E-02  0.2020E+01
   -2.062519    8.31032  0.4261E-10  0.1022E-04  0.1479E-07  0.1822E-02  0.1374E-02  0.1582E+01
   -2.131269    8.31061  0.4261E-10  0.9880E-05  0.1470E-07  0.1814E-02  0.1194E-02  0.1267E+01
   -2.200019    8.31089  0.4261E-10  0.9556E-05  0.1479E-07  0.1817E-02  0.1029E-02  0.1030E+01
   -2.268769    8.31117  0.4261E-10  0.9252E-05  0.1509E-07  0.1763E-02  0.8788E-03  0.7830E+00
   -2.337518    8.31146  0.4261E-10  0.8967E-05  0.1566E-07  0.1626E-02  0.7481E-03  0.5817E+00
   -2.406267    8.31177  0.4261E-10  0.8707E-05  0.1655E-07  0.1446E-02  0.6380E-03  0.4235E+00
   -2.475015    8.31212  0.4261E-10  0.8473E-05  0.1784E-07  0.1302E-02  0.5483E-03  0.3395E+00
   -2.543763    8.31251  0.4261E-10  0.8222E-05  0.2005E-07  0.1086E-02  0.4789E-03  0.8112E+00
   -2.612510    8.31296  0.4261E-10  0.7795E-05  0.2610E-07  0.5529E-03  0.4105E-03  0.2318E+03
   -2.681256    8.31386  0.4261E-10  0.4860E-05  0.1008E-06  0.3009E-04  0.3163E-03 -0.6057E+03
   -2.750002    8.32997  0.4261E-10  0.0000E+00  0.0000E+00  0.0000E+00  0.3159E-03  0.0000E+00
