 1 - depth, m
 2 - temperature, C
 3 - salinity, kg/kg
 4 - turbulent kinetic energy, m**2/s**2
 5 - dissipation rate, m**2/s**3
 6 - kinematic heat conductance, m**2/s
 7 - modulus of horizontal velocity, m/s
 8 - Richardson number, n/d
   -0.000000   -0.00000  0.5051E-13  0.1219E-13  0.7603E-17  0.1000E-09  0.0000E+00  0.6718E+16
   -0.068746    0.10218  0.5202E-12  0.1219E-13  0.7603E-17  0.1000E-09  0.0000E+00  0.6651E+16
   -0.137493    0.20624  0.1009E-11  0.1219E-13  0.7603E-17  0.1000E-09  0.0000E+00  0.6568E+16
   -0.206240    0.31208  0.1290E-11  0.1219E-13  0.7603E-17  0.1000E-09  0.0000E+00  0.6470E+16
   -0.274988    0.41961  0.1359E-11  0.1219E-13  0.7603E-17  0.1000E-09  0.0000E+00  0.6356E+16
   -0.343736    0.52871  0.1305E-11  0.1219E-13  0.7603E-17  0.1000E-09  0.0000E+00  0.6227E+16
   -0.412485    0.63925  0.1211E-11  0.1219E-13  0.7603E-17  0.1000E-09  0.0000E+00  0.6083E+16
   -0.481234    0.75109  0.1124E-11  0.1219E-13  0.7603E-17  0.1000E-09  0.0000E+00  0.5925E+16
   -0.549984    0.86410  0.1063E-11  0.1219E-13  0.7603E-17  0.1000E-09  0.0000E+00  0.5755E+16
   -0.618734    0.97815  0.1024E-11  0.1219E-13  0.7603E-17  0.1000E-09  0.0000E+00  0.5574E+16
   -0.687485    1.09310  0.1004E-11  0.1219E-13  0.7603E-17  0.1000E-09  0.0000E+00  0.5382E+16
   -0.756236    1.20884  0.9932E-12  0.1219E-13  0.7603E-17  0.1000E-09  0.0000E+00  0.5182E+16
   -0.824987    1.32525  0.9883E-12  0.1219E-13  0.7603E-17  0.1000E-09  0.0000E+00  0.4974E+16
   -0.893739    1.44223  0.9859E-12  0.1219E-13  0.7603E-17  0.1000E-09  0.0000E+00  0.4759E+16
   -0.962490    1.55968  0.9845E-12  0.1219E-13  0.7603E-17  0.1000E-09  0.0000E+00  0.4540E+16
   -1.031242    1.67749  0.9833E-12  0.1219E-13  0.7603E-17  0.1000E-09  0.0000E+00  0.4316E+16
   -1.099995    1.79560  0.9819E-12  0.1219E-13  0.7603E-17  0.1000E-09  0.0000E+00  0.4089E+16
   -1.168747    1.91393  0.9800E-12  0.1219E-13  0.7603E-17  0.1000E-09  0.0000E+00  0.3859E+16
   -1.237499    2.03241  0.9778E-12  0.1219E-13  0.7603E-17  0.1000E-09  0.0000E+00  0.3628E+16
   -1.306252    2.15099  0.9752E-12  0.1219E-13  0.7603E-17  0.1000E-09  0.0000E+00  0.3395E+16
   -1.375004    2.26961  0.9723E-12  0.1219E-13  0.7603E-17  0.1000E-09  0.0000E+00  0.3163E+16
   -1.443757    2.38827  0.9693E-12  0.1219E-13  0.7603E-17  0.1000E-09  0.0000E+00  0.2932E+16
   -1.512509    2.50695  0.9665E-12  0.1219E-13  0.7603E-17  0.1000E-09  0.0000E+00  0.2700E+16
   -1.581262    2.62563  0.9639E-12  0.1219E-13  0.7603E-17  0.1000E-09  0.0000E+00  0.2470E+16
   -1.650014    2.74430  0.9618E-12  0.1219E-13  0.7603E-17  0.1000E-09  0.0000E+00  0.2240E+16
   -1.718766    2.86297  0.9600E-12  0.1219E-13  0.7603E-17  0.1000E-09  0.0000E+00  0.2010E+16
   -1.787518    2.98156  0.9585E-12  0.4569E-13  0.1139E-16  0.1000E-09  0.0000E+00  0.1754E+16
   -1.856270    3.09813  0.9574E-12  0.1576E-12  0.3311E-16  0.1000E-09  0.0000E+00  0.1505E+16
   -1.925021    3.21219  0.9565E-12  0.5012E-12  0.1003E-15  0.1000E-09  0.0000E+00  0.1263E+16
   -1.993773    3.32309  0.9557E-12  0.1556E-11  0.3011E-15  0.1000E-09  0.0000E+00  0.1037E+16
   -2.062524    3.43068  0.9551E-12  0.4658E-11  0.8733E-15  0.1000E-09  0.0000E+00  0.8484E+15
   -2.131274    3.53768  0.9547E-12  0.1372E-10  0.2494E-14  0.1000E-09  0.0000E+00  0.6642E+15
   -2.200024    3.64425  0.9544E-12  0.3995E-10  0.7041E-14  0.1000E-09  0.0000E+00  0.4822E+15
   -2.268774    3.75024  0.9542E-12  0.1161E-09  0.1985E-13  0.3322E-09  0.0000E+00  0.3028E+15
   -2.337524    3.85522  0.9542E-12  0.3399E-09  0.5646E-13  0.2217E-08  0.0000E+00  0.1283E+15
   -2.406272    3.95764  0.9541E-12  0.9437E-09  0.1535E-12  0.1624E-06  0.0000E+00  0.3719E+13
   -2.475021    4.00503  0.9541E-12  0.1831E-08  0.3113E-12  0.4920E-05  0.0000E+00 -0.8928E+12
   -2.543769    4.00786  0.9541E-12  0.2154E-08  0.4170E-12  0.4503E-05  0.0000E+00 -0.1106E+13
   -2.612516    4.01092  0.9541E-12  0.2198E-08  0.5860E-12  0.2852E-05  0.0000E+00 -0.1949E+13
   -2.681263    4.01555  0.9541E-12  0.1641E-08  0.1260E-11  0.4905E-06  0.0000E+00 -0.1190E+14
   -2.750009    4.03504  0.9541E-12  0.0000E+00  0.0000E+00  0.0000E+00  0.0000E+00  0.0000E+00
