 1 - depth, m
 2 - temperature, C
 3 - salinity, kg/kg
 4 - turbulent kinetic energy, m**2/s**2
 5 - dissipation rate, m**2/s**3
 6 - kinematic heat conductance, m**2/s
 7 - modulus of horizontal velocity, m/s
 8 - Richardson number, n/d
   -0.000000    2.75791  0.5467E-10  0.6465E-05  0.1654E-06  0.2303E-04  0.2385E-01  0.2316E-01
   -0.068746    2.81388  0.5468E-10  0.5800E-05  0.7029E-07  0.4113E-04  0.1827E-01  0.4731E-01
   -0.137492    2.84367  0.5468E-10  0.5160E-05  0.4216E-07  0.5185E-04  0.1555E-01  0.7195E-01
   -0.206239    2.86605  0.5468E-10  0.4570E-05  0.2874E-07  0.5724E-04  0.1368E-01  0.9722E-01
   -0.274987    2.88527  0.5468E-10  0.4026E-05  0.2088E-07  0.5886E-04  0.1222E-01  0.1235E+00
   -0.343735    2.90304  0.5468E-10  0.3525E-05  0.1573E-07  0.5784E-04  0.1099E-01  0.1513E+00
   -0.412484    2.92030  0.5468E-10  0.3061E-05  0.1210E-07  0.5503E-04  0.9918E-02  0.1808E+00
   -0.481233    2.93776  0.5468E-10  0.2632E-05  0.9404E-08  0.5107E-04  0.8942E-02  0.2125E+00
   -0.549983    2.95609  0.5468E-10  0.2236E-05  0.7334E-08  0.4648E-04  0.8035E-02  0.2467E+00
   -0.618733    2.97611  0.5468E-10  0.1872E-05  0.5702E-08  0.4168E-04  0.7170E-02  0.2837E+00
   -0.687484    2.99912  0.5468E-10  0.1540E-05  0.4388E-08  0.3702E-04  0.6325E-02  0.3243E+00
   -0.756234    3.02761  0.5469E-10  0.1241E-05  0.3309E-08  0.3279E-04  0.5469E-02  0.3732E+00
   -0.824985    3.06840  0.5469E-10  0.9833E-06  0.2395E-08  0.2929E-04  0.4556E-02  0.4815E+00
   -0.893737    3.14225  0.5469E-10  0.7917E-06  0.1668E-08  0.2664E-04  0.3556E-02  0.7992E+00
   -0.962488    3.24121  0.5470E-10  0.6720E-06  0.1205E-08  0.2452E-04  0.2648E-02  0.1815E+01
   -1.031240    3.31323  0.5470E-10  0.5908E-06  0.9827E-09  0.2260E-04  0.2040E-02  0.5904E+01
   -1.099992    3.35149  0.5470E-10  0.5239E-06  0.8203E-09  0.2081E-04  0.1670E-02  0.2435E+02
   -1.168744    3.38155  0.5470E-10  0.4696E-06  0.6908E-09  0.1916E-04  0.1410E-02  0.1129E+03
   -1.237497    3.41459  0.5470E-10  0.4334E-06  0.5892E-09  0.1767E-04  0.1202E-02  0.6596E+03
   -1.306249    3.47254  0.5470E-10  0.4120E-06  0.5101E-09  0.2971E-04  0.1024E-02  0.5543E+04
   -1.375001    3.54450  0.5470E-10  0.3955E-06  0.4481E-09  0.6478E-04  0.8679E-03  0.6808E+05
   -1.443754    3.60831  0.5471E-10  0.3828E-06  0.4001E-09  0.9484E-04  0.7290E-03  0.1511E+07
   -1.512506    3.66337  0.5471E-10  0.3728E-06  0.3631E-09  0.1205E-03  0.6029E-03  0.1313E+08
   -1.581258    3.71112  0.5471E-10  0.3645E-06  0.3349E-09  0.1404E-03  0.4863E-03  0.1697E+08
   -1.650011    3.75530  0.5471E-10  0.3563E-06  0.3123E-09  0.1566E-03  0.3747E-03  0.4961E+09
   -1.718763    3.79959  0.5471E-10  0.3406E-06  0.2847E-09  0.1655E-03  0.2596E-03  0.4905E+07
   -1.787514    3.84894  0.5471E-10  0.3026E-06  0.2224E-09  0.1792E-03  0.1101E-03  0.7222E+07
   -1.856266    3.87492  0.5471E-10  0.2760E-06  0.1812E-09  0.1839E-03  0.6369E-04  0.1152E+08
   -1.925017    3.89290  0.5471E-10  0.2543E-06  0.1500E-09  0.1852E-03  0.3855E-04  0.2618E+09
   -1.993769    3.90457  0.5471E-10  0.2368E-06  0.1263E-09  0.1846E-03  0.2449E-04  0.5596E+10
   -2.062519    3.91411  0.5471E-10  0.2226E-06  0.1086E-09  0.1830E-03  0.1618E-04  0.3239E+12
   -2.131270    3.93087  0.5471E-10  0.2111E-06  0.9551E-10  0.1818E-03  0.1017E-04  0.2082E+14
   -2.200020    3.95175  0.5471E-10  0.2014E-06  0.8594E-10  0.1791E-03  0.5905E-05  0.1942E+14
   -2.268770    3.97665  0.5471E-10  0.1934E-06  0.7957E-10  0.1737E-03  0.2835E-05  0.6726E+13
   -2.337519    3.99948  0.5471E-10  0.1868E-06  0.7635E-10  0.1664E-03  0.1157E-05  0.5107E+11
   -2.406268    4.02026  0.5471E-10  0.1816E-06  0.7648E-10  0.1558E-03  0.3895E-06 -0.1886E+13
   -2.475016    4.03999  0.5471E-10  0.1772E-06  0.8074E-10  0.1416E-03  0.1007E-06 -0.2786E+13
   -2.543763    4.05862  0.5471E-10  0.1727E-06  0.9198E-10  0.1181E-03  0.2027E-07 -0.4572E+13
   -2.612511    4.07626  0.5471E-10  0.1655E-06  0.1250E-09  0.5987E-04  0.4385E-08 -0.9718E+13
   -2.681257    4.09292  0.5471E-10  0.1156E-06  0.4460E-09  0.5601E-05  0.1282E-08 -0.1380E+15
   -2.750003    4.17729  0.5471E-10  0.0000E+00  0.0000E+00  0.0000E+00  0.1277E-08  0.0000E+00
