 1 - depth, m
 2 - temperature, C
 3 - salinity, kg/kg
 4 - turbulent kinetic energy, m**2/s**2
 5 - dissipation rate, m**2/s**3
 6 - kinematic heat conductance, m**2/s
 7 - modulus of horizontal velocity, m/s
 8 - Richardson number, n/d
   -0.000000   -0.00000  0.3033E-10  0.1219E-13  0.7603E-17  0.1000E-09  0.1940E-61  0.3962E+16
   -0.068746    0.05991  0.1774E-10  0.1219E-13  0.7603E-17  0.1000E-09  0.1563E-61  0.3549E+16
   -0.137492    0.11443  0.1551E-10  0.1219E-13  0.7603E-17  0.1000E-09  0.1330E-61  0.3108E+16
   -0.206239    0.16284  0.1511E-10  0.1219E-13  0.7603E-17  0.1000E-09  0.1148E-61  0.2663E+16
   -0.274987    0.20485  0.1505E-10  0.1219E-13  0.7603E-17  0.1000E-09  0.9843E-62  0.2237E+16
   -0.343735    0.24054  0.1504E-10  0.1219E-13  0.7603E-17  0.1000E-09  0.8325E-62  0.1851E+16
   -0.412483    0.27033  0.1504E-10  0.1219E-13  0.7603E-17  0.1000E-09  0.6951E-62  0.1516E+16
   -0.481233    0.29493  0.1504E-10  0.1219E-13  0.7603E-17  0.1000E-09  0.5741E-62  0.1246E+16
   -0.549982    0.31528  0.1504E-10  0.1219E-13  0.7603E-17  0.1000E-09  0.4701E-62  0.1049E+16
   -0.618732    0.33251  0.1504E-10  0.1219E-13  0.7603E-17  0.1000E-09  0.3822E-62  0.9323E+15
   -0.687482    0.34789  0.1504E-10  0.1219E-13  0.7603E-17  0.1000E-09  0.3087E-62  0.9137E+15
   -0.756233    0.36304  0.1504E-10  0.1219E-13  0.7603E-17  0.1000E-09  0.2478E-62  0.9947E+15
   -0.824984    0.37960  0.1504E-10  0.1219E-13  0.7603E-17  0.1000E-09  0.1976E-62  0.1174E+16
   -0.893735    0.39925  0.1504E-10  0.1219E-13  0.7603E-17  0.1000E-09  0.1566E-62  0.1457E+16
   -0.962487    0.42381  0.1504E-10  0.1219E-13  0.7603E-17  0.1000E-09  0.1233E-62  0.1847E+16
   -1.031239    0.45519  0.1504E-10  0.1219E-13  0.7603E-17  0.1000E-09  0.9642E-63  0.2345E+16
   -1.099991    0.49546  0.1504E-10  0.1219E-13  0.7603E-17  0.1000E-09  0.7488E-63  0.2946E+16
   -1.168743    0.54677  0.1504E-10  0.1219E-13  0.7603E-17  0.1000E-09  0.5773E-63  0.3641E+16
   -1.237495    0.61132  0.1503E-10  0.1219E-13  0.7603E-17  0.1000E-09  0.4414E-63  0.4411E+16
   -1.306247    0.69130  0.1500E-10  0.1219E-13  0.7603E-17  0.1000E-09  0.3342E-63  0.5227E+16
   -1.374999    0.78882  0.1492E-10  0.1219E-13  0.7603E-17  0.1000E-09  0.2497E-63  0.6108E+16
   -1.443752    0.90689  0.1478E-10  0.1219E-13  0.7603E-17  0.1000E-09  0.1831E-63  0.6958E+16
   -1.512504    1.04748  0.1471E-10  0.1219E-13  0.7603E-17  0.1000E-09  0.1301E-63  0.7701E+16
   -1.581256    1.21179  0.1469E-10  0.3727E-13  0.1240E-16  0.1000E-09  0.8725E-64  0.8272E+16
   -1.650008    1.40046  0.1467E-10  0.1408E-12  0.4161E-16  0.1000E-09  0.5140E-64  0.8614E+16
   -1.718760    1.61356  0.1466E-10  0.5073E-12  0.1434E-15  0.1000E-09  0.1983E-64  0.8659E+16
   -1.787512    1.85000  0.1465E-10  0.1835E-11  0.4990E-15  0.1000E-09  0.1343E-65  0.8067E+16
   -1.856263    2.09774  0.1465E-10  0.6589E-11  0.1726E-14  0.1000E-09  0.8382E-67  0.7298E+16
   -1.925014    2.35508  0.1465E-10  0.2332E-10  0.5889E-14  0.1000E-09  0.4777E-68  0.6367E+16
   -1.993765    2.61981  0.1465E-10  0.8144E-10  0.1984E-13  0.1000E-09  0.2965E-69  0.5344E+16
   -2.062516    2.89160  0.1464E-10  0.2736E-09  0.6435E-13  0.1000E-09  0.2391E-70  0.4316E+16
   -2.131266    3.17657  0.1463E-10  0.9020E-09  0.2048E-12  0.3357E-09  0.1805E-71  0.3107E+16
   -2.200016    3.47319  0.1460E-10  0.2925E-08  0.6417E-12  0.1890E-08  0.1267E-72  0.1729E+16
   -2.268766    3.77675  0.1456E-10  0.9255E-08  0.1967E-11  0.3080E-07  0.6075E-74  0.3254E+15
   -2.337515    4.03645  0.1456E-10  0.1269E-07  0.2727E-11  0.2554E-04  0.1929E-75 -0.1399E+13
   -2.406264    4.03820  0.1456E-10  0.1390E-07  0.3119E-11  0.2523E-04  0.4873E-76 -0.1489E+13
   -2.475012    4.04001  0.1456E-10  0.1469E-07  0.3606E-11  0.2295E-04  0.1114E-76 -0.1735E+13
   -2.543759    4.04203  0.1456E-10  0.1504E-07  0.4362E-11  0.1838E-04  0.2169E-77 -0.2336E+13
   -2.612506    4.04465  0.1456E-10  0.1469E-07  0.6038E-11  0.1114E-04  0.2982E-78 -0.4370E+13
   -2.681253    4.04925  0.1456E-10  0.1166E-07  0.1537E-10  0.2055E-05  0.2015E-79 -0.3554E+14
   -2.749999    4.07853  0.1456E-10  0.0000E+00  0.0000E+00  0.0000E+00  0.2128E-79  0.0000E+00
