 1 - depth, m
 2 - temperature, C
 3 - salinity, kg/kg
 4 - turbulent kinetic energy, m**2/s**2
 5 - dissipation rate, m**2/s**3
 6 - kinematic heat conductance, m**2/s
 7 - modulus of horizontal velocity, m/s
 8 - Richardson number, n/d
   -0.000000   -0.00000  0.4957E-12  0.1219E-13  0.7603E-17  0.1000E-09  0.0000E+00  0.7096E+16
   -0.068746    0.10802  0.1942E-11  0.1219E-13  0.7603E-17  0.1000E-09  0.0000E+00  0.7002E+16
   -0.137493    0.21784  0.2804E-11  0.1219E-13  0.7603E-17  0.1000E-09  0.0000E+00  0.6888E+16
   -0.206240    0.32931  0.3057E-11  0.1219E-13  0.7603E-17  0.1000E-09  0.0000E+00  0.6755E+16
   -0.274988    0.44224  0.2973E-11  0.1219E-13  0.7603E-17  0.1000E-09  0.0000E+00  0.6606E+16
   -0.343736    0.55649  0.2766E-11  0.1219E-13  0.7603E-17  0.1000E-09  0.0000E+00  0.6441E+16
   -0.412485    0.67190  0.2560E-11  0.1219E-13  0.7603E-17  0.1000E-09  0.0000E+00  0.6261E+16
   -0.481234    0.78832  0.2406E-11  0.1219E-13  0.7603E-17  0.1000E-09  0.0000E+00  0.6069E+16
   -0.549984    0.90560  0.2309E-11  0.1219E-13  0.7603E-17  0.1000E-09  0.0000E+00  0.5865E+16
   -0.618734    1.02359  0.2256E-11  0.1219E-13  0.7603E-17  0.1000E-09  0.0000E+00  0.5652E+16
   -0.687485    1.14214  0.2229E-11  0.1219E-13  0.7603E-17  0.1000E-09  0.0000E+00  0.5430E+16
   -0.756236    1.26114  0.2217E-11  0.1219E-13  0.7603E-17  0.1000E-09  0.0000E+00  0.5202E+16
   -0.824987    1.38047  0.2211E-11  0.1219E-13  0.7603E-17  0.1000E-09  0.0000E+00  0.4968E+16
   -0.893739    1.50001  0.2208E-11  0.1219E-13  0.7603E-17  0.1000E-09  0.0000E+00  0.4729E+16
   -0.962490    1.61966  0.2207E-11  0.1219E-13  0.7603E-17  0.1000E-09  0.0000E+00  0.4488E+16
   -1.031242    1.73932  0.2204E-11  0.1219E-13  0.7603E-17  0.1000E-09  0.0000E+00  0.4244E+16
   -1.099995    1.85891  0.2202E-11  0.1219E-13  0.7603E-17  0.1000E-09  0.0000E+00  0.4000E+16
   -1.168747    1.97836  0.2198E-11  0.1219E-13  0.7603E-17  0.1000E-09  0.0000E+00  0.3755E+16
   -1.237499    2.09761  0.2193E-11  0.1219E-13  0.7603E-17  0.1000E-09  0.0000E+00  0.3511E+16
   -1.306252    2.21659  0.2187E-11  0.1219E-13  0.7603E-17  0.1000E-09  0.0000E+00  0.3268E+16
   -1.375004    2.33527  0.2181E-11  0.1219E-13  0.7603E-17  0.1000E-09  0.0000E+00  0.3028E+16
   -1.443757    2.45364  0.2175E-11  0.1219E-13  0.7603E-17  0.1000E-09  0.0000E+00  0.2790E+16
   -1.512509    2.57168  0.2169E-11  0.1219E-13  0.7603E-17  0.1000E-09  0.0000E+00  0.2554E+16
   -1.581262    2.68937  0.2164E-11  0.1219E-13  0.7603E-17  0.1000E-09  0.0000E+00  0.2322E+16
   -1.650014    2.80671  0.2159E-11  0.4406E-13  0.9698E-17  0.1000E-09  0.0000E+00  0.2092E+16
   -1.718766    2.92371  0.2155E-11  0.1374E-12  0.2445E-16  0.1000E-09  0.0000E+00  0.1864E+16
   -1.787518    3.04032  0.2152E-11  0.3964E-12  0.6667E-16  0.1000E-09  0.0000E+00  0.1618E+16
   -1.856270    3.15492  0.2150E-11  0.1121E-11  0.1821E-15  0.1000E-09  0.0000E+00  0.1380E+16
   -1.925021    3.26713  0.2148E-11  0.3133E-11  0.4933E-15  0.1000E-09  0.0000E+00  0.1150E+16
   -1.993773    3.37642  0.2146E-11  0.8683E-11  0.1326E-14  0.1000E-09  0.0000E+00  0.9356E+15
   -2.062523    3.48275  0.2145E-11  0.2331E-10  0.3455E-14  0.1000E-09  0.0000E+00  0.7526E+15
   -2.131274    3.58861  0.2144E-11  0.6166E-10  0.8875E-14  0.1000E-09  0.0000E+00  0.5741E+15
   -2.200024    3.69431  0.2143E-11  0.1614E-09  0.2256E-13  0.2888E-09  0.0000E+00  0.3969E+15
   -2.268774    3.79979  0.2143E-11  0.4217E-09  0.5728E-13  0.1318E-08  0.0000E+00  0.2206E+15
   -2.337523    3.90451  0.2143E-11  0.1104E-08  0.1460E-12  0.1441E-07  0.0000E+00  0.5088E+14
   -2.406272    4.00048  0.2143E-11  0.1946E-08  0.2588E-12  0.6463E-05  0.0000E+00 -0.5401E+12
   -2.475021    4.00273  0.2143E-11  0.2265E-08  0.3255E-12  0.6475E-05  0.0000E+00 -0.6126E+12
   -2.543769    4.00496  0.2143E-11  0.2428E-08  0.4115E-12  0.5404E-05  0.0000E+00 -0.8219E+12
   -2.612516    4.00759  0.2143E-11  0.2375E-08  0.5795E-12  0.3169E-05  0.0000E+00 -0.1580E+13
   -2.681262    4.01190  0.2143E-11  0.1746E-08  0.1327E-11  0.5134E-06  0.0000E+00 -0.1131E+14
   -2.750008    4.03213  0.2143E-11  0.0000E+00  0.0000E+00  0.0000E+00  0.0000E+00  0.0000E+00
