 1 - depth, m
 2 - temperature, C
 3 - salinity, kg/kg
 4 - turbulent kinetic energy, m**2/s**2
 5 - dissipation rate, m**2/s**3
 6 - kinematic heat conductance, m**2/s
 7 - modulus of horizontal velocity, m/s
 8 - Richardson number, n/d
   -0.000000   -0.00000  0.1189E-09  0.1219E-13  0.7603E-17  0.1000E-09  0.0000E+00  0.7436E+16
   -0.068746    0.11326  0.8302E-10  0.1219E-13  0.7603E-17  0.1000E-09  0.0000E+00  0.7167E+16
   -0.137492    0.22589  0.6187E-10  0.1219E-13  0.7603E-17  0.1000E-09  0.0000E+00  0.6905E+16
   -0.206239    0.33789  0.5101E-10  0.1219E-13  0.7603E-17  0.1000E-09  0.0000E+00  0.6648E+16
   -0.274987    0.44928  0.4627E-10  0.1219E-13  0.7603E-17  0.1000E-09  0.0000E+00  0.6396E+16
   -0.343735    0.56008  0.4447E-10  0.1219E-13  0.7603E-17  0.1000E-09  0.0000E+00  0.6149E+16
   -0.412483    0.67031  0.4386E-10  0.1219E-13  0.7603E-17  0.1000E-09  0.0000E+00  0.5907E+16
   -0.481233    0.77998  0.4368E-10  0.1219E-13  0.7603E-17  0.1000E-09  0.0000E+00  0.5670E+16
   -0.549982    0.88909  0.4363E-10  0.1219E-13  0.7603E-17  0.1000E-09  0.0000E+00  0.5437E+16
   -0.618732    0.99765  0.4362E-10  0.1219E-13  0.7603E-17  0.1000E-09  0.0000E+00  0.5207E+16
   -0.687482    1.10567  0.4361E-10  0.1219E-13  0.7603E-17  0.1000E-09  0.0000E+00  0.4988E+16
   -0.756233    1.21327  0.4361E-10  0.1219E-13  0.7603E-17  0.1000E-09  0.0000E+00  0.4774E+16
   -0.824984    1.32052  0.4361E-10  0.1219E-13  0.7603E-17  0.1000E-09  0.0000E+00  0.4563E+16
   -0.893735    1.42742  0.4360E-10  0.1219E-13  0.7603E-17  0.1000E-09  0.0000E+00  0.4353E+16
   -0.962487    1.53393  0.4359E-10  0.1219E-13  0.7603E-17  0.1000E-09  0.0000E+00  0.4146E+16
   -1.031239    1.64005  0.4356E-10  0.1219E-13  0.7603E-17  0.1000E-09  0.0000E+00  0.3939E+16
   -1.099991    1.74573  0.4352E-10  0.1219E-13  0.7603E-17  0.1000E-09  0.0000E+00  0.3735E+16
   -1.168743    1.85094  0.4346E-10  0.1219E-13  0.7603E-17  0.1000E-09  0.0000E+00  0.3532E+16
   -1.237495    1.95564  0.4336E-10  0.1219E-13  0.7603E-17  0.1000E-09  0.0000E+00  0.3332E+16
   -1.306247    2.05977  0.4325E-10  0.1219E-13  0.7603E-17  0.1000E-09  0.0000E+00  0.3133E+16
   -1.374999    2.16327  0.4312E-10  0.1219E-13  0.7603E-17  0.1000E-09  0.0000E+00  0.2938E+16
   -1.443751    2.26617  0.4299E-10  0.1219E-13  0.7603E-17  0.1000E-09  0.0000E+00  0.2746E+16
   -1.512504    2.36842  0.4288E-10  0.1219E-13  0.7603E-17  0.1000E-09  0.0000E+00  0.2556E+16
   -1.581256    2.46995  0.4280E-10  0.1219E-13  0.7603E-17  0.1000E-09  0.0000E+00  0.2368E+16
   -1.650008    2.57067  0.4274E-10  0.1219E-13  0.7603E-17  0.1000E-09  0.0000E+00  0.2183E+16
   -1.718760    2.67050  0.4270E-10  0.1219E-13  0.7603E-17  0.1000E-09  0.0000E+00  0.2002E+16
   -1.787511    2.76940  0.4267E-10  0.1219E-13  0.7603E-17  0.1000E-09  0.0000E+00  0.1844E+16
   -1.856263    2.86835  0.4264E-10  0.1219E-13  0.7603E-17  0.1000E-09  0.0000E+00  0.1686E+16
   -1.925014    2.96739  0.4260E-10  0.1219E-13  0.7603E-17  0.1000E-09  0.0000E+00  0.1529E+16
   -1.993765    3.06655  0.4254E-10  0.1219E-13  0.7603E-17  0.1000E-09  0.0000E+00  0.1369E+16
   -2.062516    3.16563  0.4247E-10  0.1219E-13  0.7603E-17  0.1000E-09  0.0000E+00  0.1205E+16
   -2.131266    3.26413  0.4239E-10  0.1219E-13  0.7603E-17  0.1000E-09  0.0000E+00  0.1043E+16
   -2.200016    3.36198  0.4232E-10  0.1219E-13  0.7603E-17  0.1000E-09  0.0000E+00  0.8840E+15
   -2.268766    3.45910  0.4227E-10  0.1450E-13  0.1082E-16  0.1000E-09  0.0000E+00  0.7313E+15
   -2.337515    3.55586  0.4224E-10  0.8997E-13  0.6627E-16  0.1000E-09  0.0000E+00  0.5821E+15
   -2.406264    3.65252  0.4222E-10  0.6304E-12  0.4500E-15  0.1000E-09  0.0000E+00  0.4349E+15
   -2.475012    3.74935  0.4221E-10  0.4417E-11  0.3068E-14  0.1000E-09  0.0000E+00  0.2885E+15
   -2.543759    3.84692  0.4221E-10  0.3093E-10  0.2110E-13  0.6694E-09  0.0000E+00  0.1396E+15
   -2.612506    3.94584  0.4221E-10  0.2199E-09  0.1512E-12  0.3919E-07  0.0000E+00 -0.4804E+12
   -2.681253    4.02755  0.4221E-10  0.1212E-08  0.1279E-11  0.3995E-06  0.0000E+00 -0.3060E+14
   -2.749998    4.06121  0.4221E-10  0.0000E+00  0.0000E+00  0.0000E+00  0.0000E+00  0.0000E+00
