 1 - depth, m
 2 - temperature, C
 3 - salinity, kg/kg
 4 - turbulent kinetic energy, m**2/s**2
 5 - dissipation rate, m**2/s**3
 6 - kinematic heat conductance, m**2/s
 7 - modulus of horizontal velocity, m/s
 8 - Richardson number, n/d
   -0.000000   -0.00000  0.2432E-10  0.1219E-13  0.7603E-17  0.1000E-09  0.0000E+00  0.8387E+16
   -0.068746    0.12801  0.1573E-10  0.1219E-13  0.7603E-17  0.1000E-09  0.0000E+00  0.8048E+16
   -0.137492    0.25525  0.1130E-10  0.1219E-13  0.7603E-17  0.1000E-09  0.0000E+00  0.7726E+16
   -0.206239    0.38190  0.9525E-11  0.1219E-13  0.7603E-17  0.1000E-09  0.0000E+00  0.7418E+16
   -0.274987    0.50811  0.8920E-11  0.1219E-13  0.7603E-17  0.1000E-09  0.0000E+00  0.7122E+16
   -0.343735    0.63404  0.8741E-11  0.1219E-13  0.7603E-17  0.1000E-09  0.0000E+00  0.6839E+16
   -0.412483    0.75985  0.8694E-11  0.1219E-13  0.7603E-17  0.1000E-09  0.0000E+00  0.6564E+16
   -0.481233    0.88567  0.8682E-11  0.1219E-13  0.7603E-17  0.1000E-09  0.0000E+00  0.6298E+16
   -0.549982    1.01166  0.8680E-11  0.1219E-13  0.7603E-17  0.1000E-09  0.0000E+00  0.6038E+16
   -0.618732    1.13794  0.8679E-11  0.1219E-13  0.7603E-17  0.1000E-09  0.0000E+00  0.5782E+16
   -0.687482    1.26464  0.8679E-11  0.1219E-13  0.7603E-17  0.1000E-09  0.0000E+00  0.5538E+16
   -0.756233    1.39207  0.8679E-11  0.1219E-13  0.7603E-17  0.1000E-09  0.0000E+00  0.5300E+16
   -0.824984    1.52044  0.8678E-11  0.1219E-13  0.7603E-17  0.1000E-09  0.0000E+00  0.5059E+16
   -0.893735    1.64982  0.8677E-11  0.1219E-13  0.7603E-17  0.1000E-09  0.0000E+00  0.4814E+16
   -0.962487    1.78028  0.8673E-11  0.3289E-13  0.7603E-17  0.1000E-09  0.0000E+00  0.4565E+16
   -1.031239    1.91184  0.8666E-11  0.1018E-12  0.1228E-16  0.1000E-09  0.0000E+00  0.4310E+16
   -1.099991    2.04452  0.8653E-11  0.2484E-12  0.2571E-16  0.1000E-09  0.0000E+00  0.4049E+16
   -1.168743    2.17831  0.8632E-11  0.5580E-12  0.5486E-16  0.1000E-09  0.0000E+00  0.3781E+16
   -1.237495    2.31318  0.8602E-11  0.1215E-11  0.1158E-15  0.1000E-09  0.0000E+00  0.3506E+16
   -1.306247    2.44908  0.8566E-11  0.2605E-11  0.2420E-15  0.1000E-09  0.0000E+00  0.3223E+16
   -1.374999    2.58592  0.8531E-11  0.5525E-11  0.5007E-15  0.1000E-09  0.0000E+00  0.2936E+16
   -1.443751    2.72373  0.8500E-11  0.1161E-10  0.1027E-14  0.1000E-09  0.0000E+00  0.2642E+16
   -1.512504    2.86241  0.8478E-11  0.2419E-10  0.2089E-14  0.1000E-09  0.0000E+00  0.2341E+16
   -1.581256    3.00182  0.8464E-11  0.4997E-10  0.4213E-14  0.1000E-09  0.0000E+00  0.2035E+16
   -1.650008    3.14181  0.8454E-11  0.1024E-09  0.8428E-14  0.1000E-09  0.0000E+00  0.1724E+16
   -1.718760    3.28219  0.8447E-11  0.2080E-09  0.1673E-13  0.1000E-09  0.0000E+00  0.1411E+16
   -1.787511    3.42284  0.8441E-11  0.4285E-09  0.3366E-13  0.1544E-09  0.0000E+00  0.1110E+16
   -1.856263    3.56570  0.8433E-11  0.8917E-09  0.6844E-13  0.4379E-09  0.0000E+00  0.7953E+15
   -1.925014    3.71073  0.8425E-11  0.1856E-08  0.1392E-12  0.1519E-08  0.0000E+00  0.4663E+15
   -1.993765    3.85744  0.8420E-11  0.3836E-08  0.2817E-12  0.1107E-07  0.0000E+00  0.1293E+15
   -2.062516    3.99724  0.8419E-11  0.4476E-08  0.3308E-12  0.2367E-04  0.0000E+00 -0.1587E+12
   -2.131266    3.99813  0.8419E-11  0.4756E-08  0.3578E-12  0.2463E-04  0.0000E+00 -0.1642E+12
   -2.200016    3.99898  0.8419E-11  0.4984E-08  0.3867E-12  0.2484E-04  0.0000E+00 -0.1742E+12
   -2.268766    3.99983  0.8419E-11  0.5164E-08  0.4195E-12  0.2430E-04  0.0000E+00 -0.1899E+12
   -2.337515    4.00070  0.8419E-11  0.5299E-08  0.4600E-12  0.2289E-04  0.0000E+00 -0.2150E+12
   -2.406264    4.00162  0.8419E-11  0.5384E-08  0.5142E-12  0.2051E-04  0.0000E+00 -0.2566E+12
   -2.475012    4.00266  0.8419E-11  0.5402E-08  0.5953E-12  0.1700E-04  0.0000E+00 -0.3336E+12
   -2.543759    4.00391  0.8419E-11  0.5313E-08  0.7388E-12  0.1225E-04  0.0000E+00 -0.5084E+12
   -2.612506    4.00567  0.8419E-11  0.4989E-08  0.1089E-11  0.6341E-05  0.0000E+00 -0.1137E+13
   -2.681253    4.00911  0.8419E-11  0.3636E-08  0.3058E-11  0.8995E-06  0.0000E+00 -0.1267E+14
   -2.749998    4.03255  0.8419E-11  0.0000E+00  0.0000E+00  0.0000E+00  0.0000E+00  0.0000E+00
