 1 - depth, m
 2 - temperature, C
 3 - salinity, kg/kg
 4 - turbulent kinetic energy, m**2/s**2
 5 - dissipation rate, m**2/s**3
 6 - kinematic heat conductance, m**2/s
 7 - modulus of horizontal velocity, m/s
 8 - Richardson number, n/d
   -0.000000   -0.00000  0.7805E-11  0.1219E-13  0.7603E-17  0.1000E-09  0.0000E+00  0.6626E+16
   -0.068746    0.10076  0.4648E-11  0.1219E-13  0.7603E-17  0.1000E-09  0.0000E+00  0.6392E+16
   -0.137492    0.20067  0.3376E-11  0.1219E-13  0.7603E-17  0.1000E-09  0.0000E+00  0.6187E+16
   -0.206239    0.30013  0.3008E-11  0.1219E-13  0.7603E-17  0.1000E-09  0.0000E+00  0.6009E+16
   -0.274987    0.39954  0.2918E-11  0.1219E-13  0.7603E-17  0.1000E-09  0.0000E+00  0.5854E+16
   -0.343735    0.49929  0.2898E-11  0.1219E-13  0.7603E-17  0.1000E-09  0.0000E+00  0.5720E+16
   -0.412483    0.59976  0.2895E-11  0.1219E-13  0.7603E-17  0.1000E-09  0.0000E+00  0.5604E+16
   -0.481232    0.70134  0.2894E-11  0.1219E-13  0.7603E-17  0.1000E-09  0.0000E+00  0.5503E+16
   -0.549982    0.80443  0.2894E-11  0.1219E-13  0.7603E-17  0.1000E-09  0.0000E+00  0.5414E+16
   -0.618732    0.90939  0.2894E-11  0.1219E-13  0.7603E-17  0.1000E-09  0.0000E+00  0.5332E+16
   -0.687482    1.01658  0.2894E-11  0.1219E-13  0.7603E-17  0.1000E-09  0.0000E+00  0.5267E+16
   -0.756233    1.12662  0.2894E-11  0.1219E-13  0.7603E-17  0.1000E-09  0.0000E+00  0.5208E+16
   -0.824984    1.23996  0.2894E-11  0.1219E-13  0.7603E-17  0.1000E-09  0.0000E+00  0.5143E+16
   -0.893735    1.35691  0.2894E-11  0.1219E-13  0.7603E-17  0.1000E-09  0.0000E+00  0.5067E+16
   -0.962487    1.47770  0.2893E-11  0.1569E-13  0.7603E-17  0.1000E-09  0.0000E+00  0.4977E+16
   -1.031239    1.60257  0.2892E-11  0.6734E-13  0.1006E-16  0.1000E-09  0.0000E+00  0.4869E+16
   -1.099990    1.73168  0.2888E-11  0.1828E-12  0.2145E-16  0.1000E-09  0.0000E+00  0.4738E+16
   -1.168742    1.86515  0.2882E-11  0.4342E-12  0.4773E-16  0.1000E-09  0.0000E+00  0.4582E+16
   -1.237495    2.00307  0.2871E-11  0.9882E-12  0.1051E-15  0.1000E-09  0.0000E+00  0.4398E+16
   -1.306247    2.14546  0.2856E-11  0.2208E-11  0.2285E-15  0.1000E-09  0.0000E+00  0.4182E+16
   -1.374999    2.29229  0.2841E-11  0.4877E-11  0.4919E-15  0.1000E-09  0.0000E+00  0.3940E+16
   -1.443751    2.44373  0.2829E-11  0.1066E-10  0.1049E-14  0.1000E-09  0.0000E+00  0.3663E+16
   -1.512503    2.59970  0.2821E-11  0.2310E-10  0.2217E-14  0.1000E-09  0.0000E+00  0.3350E+16
   -1.581256    2.75999  0.2817E-11  0.4961E-10  0.4646E-14  0.1000E-09  0.0000E+00  0.3000E+16
   -1.650008    2.92433  0.2814E-11  0.1056E-09  0.9654E-14  0.1000E-09  0.0000E+00  0.2615E+16
   -1.718760    3.09237  0.2812E-11  0.2229E-09  0.1989E-13  0.1000E-09  0.0000E+00  0.2199E+16
   -1.787511    3.26382  0.2810E-11  0.4772E-09  0.4158E-13  0.1191E-09  0.0000E+00  0.1777E+16
   -1.856263    3.44102  0.2809E-11  0.1031E-08  0.8775E-13  0.3409E-09  0.0000E+00  0.1310E+16
   -1.925014    3.62401  0.2807E-11  0.2228E-08  0.1852E-12  0.1186E-08  0.0000E+00  0.7948E+15
   -1.993765    3.81242  0.2803E-11  0.4785E-08  0.3891E-12  0.8377E-08  0.0000E+00  0.2363E+15
   -2.062516    3.99737  0.2802E-11  0.5570E-08  0.4559E-12  0.2593E-04  0.0000E+00 -0.1925E+12
   -2.131266    3.99843  0.2802E-11  0.5916E-08  0.4932E-12  0.2722E-04  0.0000E+00 -0.2003E+12
   -2.200016    3.99944  0.2802E-11  0.6203E-08  0.5337E-12  0.2764E-04  0.0000E+00 -0.2134E+12
   -2.268766    4.00044  0.2802E-11  0.6432E-08  0.5798E-12  0.2720E-04  0.0000E+00 -0.2336E+12
   -2.337515    4.00146  0.2802E-11  0.6610E-08  0.6370E-12  0.2576E-04  0.0000E+00 -0.2652E+12
   -2.406263    4.00254  0.2802E-11  0.6728E-08  0.7134E-12  0.2321E-04  0.0000E+00 -0.3170E+12
   -2.475011    4.00374  0.2802E-11  0.6768E-08  0.8271E-12  0.1938E-04  0.0000E+00 -0.4121E+12
   -2.543759    4.00519  0.2802E-11  0.6682E-08  0.1026E-11  0.1412E-04  0.0000E+00 -0.6249E+12
   -2.612506    4.00720  0.2802E-11  0.6320E-08  0.1506E-11  0.7478E-05  0.0000E+00 -0.1373E+13
   -2.681252    4.01104  0.2802E-11  0.4714E-08  0.4232E-11  0.1113E-05  0.0000E+00 -0.1478E+14
   -2.749998    4.03631  0.2802E-11  0.0000E+00  0.0000E+00  0.0000E+00  0.0000E+00  0.0000E+00
