 1 - depth, m
 2 - temperature, C
 3 - salinity, kg/kg
 4 - turbulent kinetic energy, m**2/s**2
 5 - dissipation rate, m**2/s**3
 6 - kinematic heat conductance, m**2/s
 7 - modulus of horizontal velocity, m/s
 8 - Richardson number, n/d
   -0.000000   -0.00000  0.2821E-11  0.1219E-13  0.7603E-17  0.1000E-09  0.0000E+00  0.7541E+16
   -0.068746    0.11490  0.1664E-11  0.1219E-13  0.7603E-17  0.1000E-09  0.0000E+00  0.7244E+16
   -0.137492    0.22880  0.1198E-11  0.1219E-13  0.7603E-17  0.1000E-09  0.0000E+00  0.6975E+16
   -0.206239    0.34205  0.1043E-11  0.1219E-13  0.7603E-17  0.1000E-09  0.0000E+00  0.6730E+16
   -0.274987    0.45499  0.9991E-12  0.1219E-13  0.7603E-17  0.1000E-09  0.0000E+00  0.6506E+16
   -0.343735    0.56794  0.9883E-12  0.1219E-13  0.7603E-17  0.1000E-09  0.0000E+00  0.6300E+16
   -0.412483    0.68121  0.9859E-12  0.1219E-13  0.7603E-17  0.1000E-09  0.0000E+00  0.6109E+16
   -0.481232    0.79510  0.9854E-12  0.1219E-13  0.7603E-17  0.1000E-09  0.0000E+00  0.5929E+16
   -0.549982    0.90989  0.9854E-12  0.1219E-13  0.7603E-17  0.1000E-09  0.0000E+00  0.5759E+16
   -0.618732    1.02586  0.9853E-12  0.1219E-13  0.7603E-17  0.1000E-09  0.0000E+00  0.5594E+16
   -0.687482    1.14327  0.9853E-12  0.1219E-13  0.7603E-17  0.1000E-09  0.0000E+00  0.5442E+16
   -0.756233    1.26259  0.9853E-12  0.1219E-13  0.7603E-17  0.1000E-09  0.0000E+00  0.5295E+16
   -0.824984    1.38418  0.9853E-12  0.1219E-13  0.7603E-17  0.1000E-09  0.0000E+00  0.5142E+16
   -0.893735    1.50821  0.9852E-12  0.1219E-13  0.7603E-17  0.1000E-09  0.0000E+00  0.4980E+16
   -0.962486    1.63485  0.9848E-12  0.1754E-13  0.7603E-17  0.1000E-09  0.0000E+00  0.4807E+16
   -1.031238    1.76420  0.9841E-12  0.7101E-13  0.1099E-16  0.1000E-09  0.0000E+00  0.4621E+16
   -1.099990    1.89635  0.9826E-12  0.1940E-12  0.2444E-16  0.1000E-09  0.0000E+00  0.4418E+16
   -1.168742    2.03136  0.9799E-12  0.4718E-12  0.5609E-16  0.1000E-09  0.0000E+00  0.4198E+16
   -1.237494    2.16921  0.9759E-12  0.1104E-11  0.1271E-15  0.1000E-09  0.0000E+00  0.3959E+16
   -1.306246    2.30989  0.9712E-12  0.2541E-11  0.2845E-15  0.1000E-09  0.0000E+00  0.3699E+16
   -1.374999    2.45332  0.9665E-12  0.5778E-11  0.6300E-15  0.1000E-09  0.0000E+00  0.3423E+16
   -1.443751    2.59956  0.9629E-12  0.1300E-10  0.1381E-14  0.1000E-09  0.0000E+00  0.3127E+16
   -1.512503    2.74850  0.9604E-12  0.2896E-10  0.2999E-14  0.1000E-09  0.0000E+00  0.2809E+16
   -1.581255    2.89997  0.9588E-12  0.6391E-10  0.6451E-14  0.1000E-09  0.0000E+00  0.2471E+16
   -1.650007    3.05373  0.9578E-12  0.1397E-09  0.1375E-13  0.1000E-09  0.0000E+00  0.2114E+16
   -1.718759    3.20952  0.9572E-12  0.3025E-09  0.2905E-13  0.1000E-09  0.0000E+00  0.1743E+16
   -1.787511    3.36715  0.9567E-12  0.6643E-09  0.6222E-13  0.2306E-09  0.0000E+00  0.1373E+16
   -1.856262    3.52858  0.9559E-12  0.1471E-08  0.1345E-12  0.7010E-09  0.0000E+00  0.9761E+15
   -1.925013    3.69367  0.9548E-12  0.3252E-08  0.2902E-12  0.2685E-08  0.0000E+00  0.5497E+15
   -1.993764    3.86101  0.9539E-12  0.7074E-08  0.6175E-12  0.2628E-07  0.0000E+00  0.1193E+15
   -2.062515    4.00828  0.9538E-12  0.7968E-08  0.6995E-12  0.3737E-04  0.0000E+00 -0.2290E+12
   -2.131265    4.00893  0.9538E-12  0.8339E-08  0.7425E-12  0.3777E-04  0.0000E+00 -0.2335E+12
   -2.200015    4.00958  0.9538E-12  0.8631E-08  0.7881E-12  0.3731E-04  0.0000E+00 -0.2434E+12
   -2.268765    4.01024  0.9538E-12  0.8848E-08  0.8396E-12  0.3596E-04  0.0000E+00 -0.2603E+12
   -2.337514    4.01092  0.9538E-12  0.8995E-08  0.9037E-12  0.3355E-04  0.0000E+00 -0.2879E+12
   -2.406262    4.01166  0.9538E-12  0.9065E-08  0.9901E-12  0.2991E-04  0.0000E+00 -0.3340E+12
   -2.475011    4.01249  0.9538E-12  0.9033E-08  0.1121E-11  0.2482E-04  0.0000E+00 -0.4188E+12
   -2.543758    4.01349  0.9538E-12  0.8842E-08  0.1353E-11  0.1805E-04  0.0000E+00 -0.6056E+12
   -2.612505    4.01488  0.9538E-12  0.8305E-08  0.1916E-11  0.9607E-05  0.0000E+00 -0.1234E+13
   -2.681251    4.01751  0.9538E-12  0.5994E-08  0.5364E-11  0.1268E-05  0.0000E+00 -0.1245E+14
   -2.749997    4.03694  0.9538E-12  0.0000E+00  0.0000E+00  0.0000E+00  0.0000E+00  0.0000E+00
