 1 - depth, m
 2 - temperature, C
 3 - salinity, kg/kg
 4 - turbulent kinetic energy, m**2/s**2
 5 - dissipation rate, m**2/s**3
 6 - kinematic heat conductance, m**2/s
 7 - modulus of horizontal velocity, m/s
 8 - Richardson number, n/d
   -0.000000   -0.00000  0.2815E-11  0.1219E-13  0.7603E-17  0.1000E-09  0.0000E+00  0.7274E+16
   -0.068746    0.11076  0.1625E-11  0.1219E-13  0.7603E-17  0.1000E-09  0.0000E+00  0.6985E+16
   -0.137492    0.22040  0.1178E-11  0.1219E-13  0.7603E-17  0.1000E-09  0.0000E+00  0.6726E+16
   -0.206239    0.32928  0.1035E-11  0.1219E-13  0.7603E-17  0.1000E-09  0.0000E+00  0.6496E+16
   -0.274987    0.43782  0.9967E-12  0.1219E-13  0.7603E-17  0.1000E-09  0.0000E+00  0.6291E+16
   -0.343735    0.54639  0.9877E-12  0.1219E-13  0.7603E-17  0.1000E-09  0.0000E+00  0.6107E+16
   -0.412483    0.65536  0.9858E-12  0.1219E-13  0.7603E-17  0.1000E-09  0.0000E+00  0.5941E+16
   -0.481232    0.76512  0.9854E-12  0.1219E-13  0.7603E-17  0.1000E-09  0.0000E+00  0.5788E+16
   -0.549982    0.87598  0.9853E-12  0.1219E-13  0.7603E-17  0.1000E-09  0.0000E+00  0.5646E+16
   -0.618732    0.98829  0.9853E-12  0.1219E-13  0.7603E-17  0.1000E-09  0.0000E+00  0.5510E+16
   -0.687482    1.10233  0.9853E-12  0.1219E-13  0.7603E-17  0.1000E-09  0.0000E+00  0.5389E+16
   -0.756233    1.21863  0.9853E-12  0.1219E-13  0.7603E-17  0.1000E-09  0.0000E+00  0.5272E+16
   -0.824984    1.33758  0.9853E-12  0.1219E-13  0.7603E-17  0.1000E-09  0.0000E+00  0.5149E+16
   -0.893735    1.45941  0.9852E-12  0.1219E-13  0.7603E-17  0.1000E-09  0.0000E+00  0.5016E+16
   -0.962487    1.58428  0.9849E-12  0.1742E-13  0.7603E-17  0.1000E-09  0.0000E+00  0.4871E+16
   -1.031238    1.71236  0.9843E-12  0.7076E-13  0.1087E-16  0.1000E-09  0.0000E+00  0.4709E+16
   -1.099990    1.84374  0.9829E-12  0.1929E-12  0.2404E-16  0.1000E-09  0.0000E+00  0.4529E+16
   -1.168742    1.97850  0.9803E-12  0.4671E-12  0.5490E-16  0.1000E-09  0.0000E+00  0.4328E+16
   -1.237494    2.11666  0.9764E-12  0.1089E-11  0.1239E-15  0.1000E-09  0.0000E+00  0.4105E+16
   -1.306246    2.25819  0.9715E-12  0.2494E-11  0.2760E-15  0.1000E-09  0.0000E+00  0.3858E+16
   -1.374999    2.40304  0.9667E-12  0.5645E-11  0.6087E-15  0.1000E-09  0.0000E+00  0.3590E+16
   -1.443751    2.55127  0.9629E-12  0.1265E-10  0.1329E-14  0.1000E-09  0.0000E+00  0.3297E+16
   -1.512503    2.70278  0.9604E-12  0.2806E-10  0.2875E-14  0.1000E-09  0.0000E+00  0.2978E+16
   -1.581255    2.85736  0.9588E-12  0.6168E-10  0.6162E-14  0.1000E-09  0.0000E+00  0.2633E+16
   -1.650007    3.01474  0.9578E-12  0.1343E-09  0.1309E-13  0.1000E-09  0.0000E+00  0.2265E+16
   -1.718759    3.17461  0.9572E-12  0.2898E-09  0.2756E-13  0.1000E-09  0.0000E+00  0.1877E+16
   -1.787511    3.33672  0.9567E-12  0.6343E-09  0.5883E-13  0.2010E-09  0.0000E+00  0.1490E+16
   -1.856262    3.50314  0.9561E-12  0.1401E-08  0.1268E-12  0.6029E-09  0.0000E+00  0.1070E+16
   -1.925013    3.67374  0.9550E-12  0.3087E-08  0.2728E-12  0.2252E-08  0.0000E+00  0.6164E+15
   -1.993764    3.84739  0.9539E-12  0.6719E-08  0.5809E-12  0.1991E-07  0.0000E+00  0.1483E+15
   -2.062515    4.00602  0.9537E-12  0.7597E-08  0.6607E-12  0.3565E-04  0.0000E+00 -0.2239E+12
   -2.131265    4.00673  0.9537E-12  0.7965E-08  0.7028E-12  0.3618E-04  0.0000E+00 -0.2288E+12
   -2.200015    4.00744  0.9537E-12  0.8256E-08  0.7477E-12  0.3586E-04  0.0000E+00 -0.2391E+12
   -2.268765    4.00815  0.9537E-12  0.8475E-08  0.7986E-12  0.3464E-04  0.0000E+00 -0.2565E+12
   -2.337514    4.00888  0.9537E-12  0.8627E-08  0.8617E-12  0.3238E-04  0.0000E+00 -0.2846E+12
   -2.406263    4.00967  0.9537E-12  0.8705E-08  0.9468E-12  0.2891E-04  0.0000E+00 -0.3317E+12
   -2.475011    4.01056  0.9537E-12  0.8684E-08  0.1075E-11  0.2401E-04  0.0000E+00 -0.4180E+12
   -2.543758    4.01164  0.9537E-12  0.8509E-08  0.1303E-11  0.1747E-04  0.0000E+00 -0.6087E+12
   -2.612505    4.01313  0.9537E-12  0.8000E-08  0.1855E-11  0.9293E-05  0.0000E+00 -0.1255E+13
   -2.681252    4.01597  0.9537E-12  0.5801E-08  0.5197E-11  0.1249E-05  0.0000E+00 -0.1287E+14
   -2.749997    4.03654  0.9537E-12  0.0000E+00  0.0000E+00  0.0000E+00  0.0000E+00  0.0000E+00
