 1 - depth, m
 2 - temperature, C
 3 - salinity, kg/kg
 4 - turbulent kinetic energy, m**2/s**2
 5 - dissipation rate, m**2/s**3
 6 - kinematic heat conductance, m**2/s
 7 - modulus of horizontal velocity, m/s
 8 - Richardson number, n/d
   -0.000000   -0.00000  0.8348E-11  0.1219E-13  0.7603E-17  0.1000E-09  0.0000E+00  0.7902E+16
   -0.068746    0.12049  0.5020E-11  0.1219E-13  0.7603E-17  0.1000E-09  0.0000E+00  0.7589E+16
   -0.137492    0.24009  0.3599E-11  0.1219E-13  0.7603E-17  0.1000E-09  0.0000E+00  0.7297E+16
   -0.206239    0.35905  0.3097E-11  0.1219E-13  0.7603E-17  0.1000E-09  0.0000E+00  0.7025E+16
   -0.274987    0.47764  0.2946E-11  0.1219E-13  0.7603E-17  0.1000E-09  0.0000E+00  0.6771E+16
   -0.343735    0.59610  0.2906E-11  0.1219E-13  0.7603E-17  0.1000E-09  0.0000E+00  0.6532E+16
   -0.412483    0.71469  0.2896E-11  0.1219E-13  0.7603E-17  0.1000E-09  0.0000E+00  0.6307E+16
   -0.481232    0.83365  0.2894E-11  0.1219E-13  0.7603E-17  0.1000E-09  0.0000E+00  0.6091E+16
   -0.549982    0.95322  0.2894E-11  0.1219E-13  0.7603E-17  0.1000E-09  0.0000E+00  0.5884E+16
   -0.618732    1.07362  0.2894E-11  0.1219E-13  0.7603E-17  0.1000E-09  0.0000E+00  0.5681E+16
   -0.687482    1.19506  0.2894E-11  0.1219E-13  0.7603E-17  0.1000E-09  0.0000E+00  0.5492E+16
   -0.756233    1.31794  0.2894E-11  0.1219E-13  0.7603E-17  0.1000E-09  0.0000E+00  0.5306E+16
   -0.824984    1.44256  0.2894E-11  0.1219E-13  0.7603E-17  0.1000E-09  0.0000E+00  0.5116E+16
   -0.893735    1.56906  0.2893E-11  0.1219E-13  0.7603E-17  0.1000E-09  0.0000E+00  0.4919E+16
   -0.962487    1.69756  0.2892E-11  0.2129E-13  0.7603E-17  0.1000E-09  0.0000E+00  0.4714E+16
   -1.031239    1.82814  0.2889E-11  0.7855E-13  0.1151E-16  0.1000E-09  0.0000E+00  0.4497E+16
   -1.099990    1.96084  0.2885E-11  0.2087E-12  0.2539E-16  0.1000E-09  0.0000E+00  0.4268E+16
   -1.168742    2.09569  0.2877E-11  0.4996E-12  0.5753E-16  0.1000E-09  0.0000E+00  0.4026E+16
   -1.237495    2.23268  0.2865E-11  0.1155E-11  0.1288E-15  0.1000E-09  0.0000E+00  0.3769E+16
   -1.306247    2.37176  0.2852E-11  0.2625E-11  0.2849E-15  0.1000E-09  0.0000E+00  0.3498E+16
   -1.374999    2.51286  0.2839E-11  0.5898E-11  0.6235E-15  0.1000E-09  0.0000E+00  0.3215E+16
   -1.443751    2.65600  0.2828E-11  0.1312E-10  0.1351E-14  0.1000E-09  0.0000E+00  0.2917E+16
   -1.512503    2.80110  0.2821E-11  0.2889E-10  0.2902E-14  0.1000E-09  0.0000E+00  0.2604E+16
   -1.581256    2.94798  0.2816E-11  0.6303E-10  0.6173E-14  0.1000E-09  0.0000E+00  0.2277E+16
   -1.650008    3.09644  0.2813E-11  0.1362E-09  0.1302E-13  0.1000E-09  0.0000E+00  0.1937E+16
   -1.718759    3.24625  0.2811E-11  0.2918E-09  0.2720E-13  0.1000E-09  0.0000E+00  0.1589E+16
   -1.787511    3.39725  0.2810E-11  0.6339E-09  0.5764E-13  0.2353E-09  0.0000E+00  0.1247E+16
   -1.856263    3.55142  0.2807E-11  0.1389E-08  0.1233E-12  0.7107E-09  0.0000E+00  0.8825E+15
   -1.925014    3.70865  0.2805E-11  0.3037E-08  0.2632E-12  0.2705E-08  0.0000E+00  0.4951E+15
   -1.993765    3.86761  0.2803E-11  0.6540E-08  0.5546E-12  0.2630E-07  0.0000E+00  0.1071E+15
   -2.062516    4.00719  0.2803E-11  0.7386E-08  0.6299E-12  0.3569E-04  0.0000E+00 -0.2162E+12
   -2.131266    4.00784  0.2803E-11  0.7738E-08  0.6694E-12  0.3609E-04  0.0000E+00 -0.2205E+12
   -2.200016    4.00849  0.2803E-11  0.8014E-08  0.7113E-12  0.3566E-04  0.0000E+00 -0.2300E+12
   -2.268766    4.00914  0.2803E-11  0.8220E-08  0.7585E-12  0.3437E-04  0.0000E+00 -0.2461E+12
   -2.337515    4.00982  0.2803E-11  0.8361E-08  0.8172E-12  0.3206E-04  0.0000E+00 -0.2725E+12
   -2.406263    4.01055  0.2803E-11  0.8428E-08  0.8963E-12  0.2857E-04  0.0000E+00 -0.3167E+12
   -2.475011    4.01137  0.2803E-11  0.8399E-08  0.1016E-11  0.2368E-04  0.0000E+00 -0.3980E+12
   -2.543759    4.01236  0.2803E-11  0.8220E-08  0.1228E-11  0.1719E-04  0.0000E+00 -0.5779E+12
   -2.612506    4.01374  0.2803E-11  0.7713E-08  0.1746E-11  0.9101E-05  0.0000E+00 -0.1188E+13
   -2.681252    4.01638  0.2803E-11  0.5547E-08  0.4895E-11  0.1196E-05  0.0000E+00 -0.1221E+14
   -2.749998    4.03594  0.2803E-11  0.0000E+00  0.0000E+00  0.0000E+00  0.0000E+00  0.0000E+00
