 1 - depth, m
 2 - temperature, C
 3 - salinity, kg/kg
 4 - turbulent kinetic energy, m**2/s**2
 5 - dissipation rate, m**2/s**3
 6 - kinematic heat conductance, m**2/s
 7 - modulus of horizontal velocity, m/s
 8 - Richardson number, n/d
   -0.000000   -0.00000  0.9657E-11  0.7740E-12  0.1690E-15  0.1000E-09  0.9799E-40  0.4757E+16
   -0.068746    0.07205  0.5860E-11  0.1732E-11  0.1406E-15  0.1000E-09  0.7828E-40  0.4049E+16
   -0.137492    0.13452  0.5170E-11  0.3308E-11  0.1566E-15  0.1000E-09  0.6365E-40  0.3328E+16
   -0.206239    0.18669  0.5054E-11  0.5338E-11  0.1911E-15  0.1000E-09  0.5285E-40  0.2633E+16
   -0.274986    0.22850  0.5039E-11  0.7695E-11  0.2357E-15  0.1000E-09  0.4439E-40  0.1999E+16
   -0.343734    0.26058  0.5038E-11  0.1027E-10  0.2858E-15  0.1000E-09  0.3732E-40  0.1453E+16
   -0.412483    0.28409  0.5038E-11  0.1294E-10  0.3381E-15  0.1000E-09  0.3120E-40  0.1010E+16
   -0.481232    0.30052  0.5038E-11  0.1560E-10  0.3898E-15  0.1000E-09  0.2588E-40  0.6727E+15
   -0.549981    0.31151  0.5038E-11  0.1813E-10  0.4387E-15  0.1000E-09  0.2128E-40  0.4367E+15
   -0.618731    0.31866  0.5038E-11  0.2042E-10  0.4826E-15  0.1000E-09  0.1737E-40  0.2938E+15
   -0.687482    0.32348  0.5038E-11  0.2238E-10  0.5196E-15  0.1000E-09  0.1408E-40  0.2428E+15
   -0.756232    0.32747  0.5038E-11  0.2393E-10  0.5482E-15  0.1000E-09  0.1135E-40  0.2779E+15
   -0.824983    0.33205  0.5038E-11  0.2499E-10  0.5675E-15  0.1000E-09  0.9095E-41  0.3984E+15
   -0.893734    0.33861  0.5038E-11  0.2552E-10  0.5766E-15  0.1000E-09  0.7249E-41  0.6140E+15
   -0.962486    0.34875  0.5038E-11  0.2549E-10  0.5753E-15  0.1000E-09  0.5748E-41  0.9389E+15
   -1.031237    0.36432  0.5038E-11  0.2491E-10  0.5636E-15  0.1000E-09  0.4533E-41  0.1389E+16
   -1.099989    0.38749  0.5038E-11  0.2378E-10  0.5422E-15  0.1000E-09  0.3555E-41  0.1979E+16
   -1.168741    0.42076  0.5037E-11  0.2216E-10  0.5120E-15  0.1000E-09  0.2771E-41  0.2716E+16
   -1.237493    0.46697  0.5034E-11  0.2009E-10  0.4743E-15  0.1000E-09  0.2145E-41  0.3595E+16
   -1.306245    0.52913  0.5020E-11  0.1766E-10  0.4310E-15  0.1000E-09  0.1645E-41  0.4596E+16
   -1.374997    0.61037  0.4977E-11  0.1498E-10  0.3843E-15  0.1000E-09  0.1246E-41  0.5754E+16
   -1.443750    0.71509  0.4932E-11  0.1214E-10  0.3374E-15  0.1000E-09  0.9257E-42  0.6952E+16
   -1.512502    0.84652  0.4918E-11  0.9306E-11  0.2945E-15  0.1000E-09  0.6660E-42  0.8084E+16
   -1.581254    1.00703  0.4910E-11  0.6636E-11  0.2630E-15  0.1000E-09  0.4512E-42  0.9056E+16
   -1.650006    1.19838  0.4904E-11  0.4367E-11  0.2587E-15  0.1000E-09  0.2679E-42  0.9770E+16
   -1.718758    1.42155  0.4899E-11  0.2866E-11  0.3310E-15  0.1000E-09  0.1038E-42  0.1010E+17
   -1.787509    1.67593  0.4897E-11  0.2923E-11  0.6762E-15  0.1000E-09  0.7037E-44  0.9503E+16
   -1.856261    1.94513  0.4896E-11  0.7174E-11  0.2058E-14  0.1000E-09  0.4393E-45  0.8667E+16
   -1.925012    2.22758  0.4895E-11  0.2548E-10  0.7248E-14  0.1000E-09  0.2505E-46  0.7603E+16
   -1.993763    2.52095  0.4895E-11  0.9460E-10  0.2596E-13  0.1000E-09  0.1555E-47  0.6400E+16
   -2.062513    2.82558  0.4894E-11  0.3394E-09  0.8968E-13  0.1001E-09  0.1255E-48  0.5169E+16
   -2.131264    3.15095  0.4891E-11  0.1193E-08  0.3036E-12  0.4267E-09  0.9483E-50  0.3624E+16
   -2.200014    3.49633  0.4882E-11  0.4116E-08  0.1010E-11  0.2928E-08  0.6659E-51  0.1760E+16
   -2.268763    3.85880  0.4870E-11  0.1278E-07  0.3057E-11  0.2022E-06  0.3193E-52  0.1038E+15
   -2.337512    4.04707  0.4870E-11  0.1711E-07  0.4144E-11  0.3107E-04  0.1019E-53 -0.1787E+13
   -2.406261    4.04894  0.4870E-11  0.1864E-07  0.4705E-11  0.3032E-04  0.2910E-54 -0.1890E+13
   -2.475009    4.05086  0.4870E-11  0.1961E-07  0.5397E-11  0.2736E-04  0.7547E-55 -0.2182E+13
   -2.543756    4.05300  0.4870E-11  0.2000E-07  0.6475E-11  0.2181E-04  0.1680E-55 -0.2903E+13
   -2.612503    4.05574  0.4870E-11  0.1947E-07  0.8879E-11  0.1323E-04  0.2686E-56 -0.5351E+13
   -2.681249    4.06052  0.4870E-11  0.1522E-07  0.2287E-10  0.2329E-05  0.2156E-57 -0.4553E+14
   -2.749995    4.09278  0.4870E-11  0.0000E+00  0.0000E+00  0.0000E+00  0.2269E-57  0.0000E+00
