 1 - depth, m
 2 - temperature, C
 3 - salinity, kg/kg
 4 - turbulent kinetic energy, m**2/s**2
 5 - dissipation rate, m**2/s**3
 6 - kinematic heat conductance, m**2/s
 7 - modulus of horizontal velocity, m/s
 8 - Richardson number, n/d
   -0.000000   -0.00000  0.1881E-10  0.1219E-13  0.7603E-17  0.1000E-09  0.0000E+00  0.7129E+16
   -0.068746    0.10852  0.1090E-10  0.1219E-13  0.7603E-17  0.1000E-09  0.0000E+00  0.6848E+16
   -0.137492    0.21591  0.7921E-11  0.1219E-13  0.7603E-17  0.1000E-09  0.0000E+00  0.6598E+16
   -0.206239    0.32254  0.6962E-11  0.1219E-13  0.7603E-17  0.1000E-09  0.0000E+00  0.6374E+16
   -0.274987    0.42879  0.6703E-11  0.1219E-13  0.7603E-17  0.1000E-09  0.0000E+00  0.6174E+16
   -0.343735    0.53502  0.6642E-11  0.1219E-13  0.7603E-17  0.1000E-09  0.0000E+00  0.5995E+16
   -0.412483    0.64159  0.6629E-11  0.1219E-13  0.7603E-17  0.1000E-09  0.0000E+00  0.5834E+16
   -0.481232    0.74885  0.6626E-11  0.1219E-13  0.7603E-17  0.1000E-09  0.0000E+00  0.5685E+16
   -0.549982    0.85712  0.6626E-11  0.1219E-13  0.7603E-17  0.1000E-09  0.0000E+00  0.5547E+16
   -0.618732    0.96670  0.6626E-11  0.1219E-13  0.7603E-17  0.1000E-09  0.0000E+00  0.5416E+16
   -0.687482    1.07787  0.6626E-11  0.1219E-13  0.7603E-17  0.1000E-09  0.0000E+00  0.5299E+16
   -0.756233    1.19115  0.6626E-11  0.1219E-13  0.7603E-17  0.1000E-09  0.0000E+00  0.5188E+16
   -0.824984    1.30689  0.6626E-11  0.1219E-13  0.7603E-17  0.1000E-09  0.0000E+00  0.5071E+16
   -0.893735    1.42531  0.6625E-11  0.1219E-13  0.7603E-17  0.1000E-09  0.0000E+00  0.4945E+16
   -0.962487    1.54658  0.6624E-11  0.1219E-13  0.7603E-17  0.1000E-09  0.0000E+00  0.4808E+16
   -1.031238    1.67082  0.6620E-11  0.1219E-13  0.7603E-17  0.1000E-09  0.0000E+00  0.4657E+16
   -1.099990    1.79814  0.6612E-11  0.2343E-13  0.7603E-17  0.1000E-09  0.0000E+00  0.4489E+16
   -1.168742    1.92859  0.6597E-11  0.8283E-13  0.1357E-16  0.1000E-09  0.0000E+00  0.4303E+16
   -1.237494    2.06221  0.6573E-11  0.2281E-12  0.3267E-16  0.1000E-09  0.0000E+00  0.4096E+16
   -1.306246    2.19898  0.6543E-11  0.5802E-12  0.7938E-16  0.1000E-09  0.0000E+00  0.3867E+16
   -1.374999    2.33883  0.6511E-11  0.1434E-11  0.1902E-15  0.1000E-09  0.0000E+00  0.3621E+16
   -1.443751    2.48187  0.6484E-11  0.3492E-11  0.4499E-15  0.1000E-09  0.0000E+00  0.3353E+16
   -1.512503    2.62802  0.6466E-11  0.8396E-11  0.1052E-14  0.1000E-09  0.0000E+00  0.3060E+16
   -1.581255    2.77709  0.6455E-11  0.1995E-10  0.2431E-14  0.1000E-09  0.0000E+00  0.2743E+16
   -1.650007    2.92885  0.6448E-11  0.4689E-10  0.5560E-14  0.1000E-09  0.0000E+00  0.2405E+16
   -1.718759    3.08304  0.6444E-11  0.1090E-09  0.1258E-13  0.1000E-09  0.0000E+00  0.2048E+16
   -1.787511    3.23944  0.6441E-11  0.2569E-09  0.2885E-13  0.1000E-09  0.0000E+00  0.1695E+16
   -1.856262    3.40004  0.6438E-11  0.6094E-09  0.6664E-13  0.2585E-09  0.0000E+00  0.1312E+16
   -1.925013    3.56492  0.6433E-11  0.1441E-08  0.1535E-12  0.8707E-09  0.0000E+00  0.8969E+15
   -1.993764    3.73397  0.6425E-11  0.3387E-08  0.3518E-12  0.4006E-08  0.0000E+00  0.4467E+15
   -2.062515    3.90377  0.6421E-11  0.7440E-08  0.7573E-12  0.8125E-07  0.0000E+00  0.4701E+14
   -2.131265    4.01489  0.6421E-11  0.8548E-08  0.8757E-12  0.3526E-04  0.0000E+00 -0.3151E+12
   -2.200015    4.01558  0.6421E-11  0.8992E-08  0.9368E-12  0.3538E-04  0.0000E+00 -0.3219E+12
   -2.268765    4.01628  0.6421E-11  0.9325E-08  0.1002E-11  0.3453E-04  0.0000E+00 -0.3383E+12
   -2.337514    4.01699  0.6421E-11  0.9563E-08  0.1080E-11  0.3258E-04  0.0000E+00 -0.3683E+12
   -2.406263    4.01775  0.6421E-11  0.9699E-08  0.1182E-11  0.2937E-04  0.0000E+00 -0.4209E+12
   -2.475011    4.01859  0.6421E-11  0.9712E-08  0.1334E-11  0.2466E-04  0.0000E+00 -0.5192E+12
   -2.543758    4.01960  0.6421E-11  0.9543E-08  0.1599E-11  0.1821E-04  0.0000E+00 -0.7367E+12
   -2.612505    4.02099  0.6421E-11  0.8995E-08  0.2236E-11  0.9909E-05  0.0000E+00 -0.1462E+13
   -2.681252    4.02358  0.6421E-11  0.6575E-08  0.6079E-11  0.1376E-05  0.0000E+00 -0.1377E+14
   -2.749997    4.04242  0.6420E-11  0.0000E+00  0.0000E+00  0.0000E+00  0.0000E+00  0.0000E+00
