 1 - depth, m
 2 - temperature, C
 3 - salinity, kg/kg
 4 - turbulent kinetic energy, m**2/s**2
 5 - dissipation rate, m**2/s**3
 6 - kinematic heat conductance, m**2/s
 7 - modulus of horizontal velocity, m/s
 8 - Richardson number, n/d
   -0.000000   -0.00000  0.1545E-11  0.1219E-13  0.7603E-17  0.1000E-09  0.0000E+00  0.6690E+16
   -0.068746    0.10175  0.9227E-12  0.1219E-13  0.7603E-17  0.1000E-09  0.0000E+00  0.6453E+16
   -0.137492    0.20266  0.6719E-12  0.1219E-13  0.7603E-17  0.1000E-09  0.0000E+00  0.6246E+16
   -0.206239    0.30313  0.5992E-12  0.1219E-13  0.7603E-17  0.1000E-09  0.0000E+00  0.6065E+16
   -0.274987    0.40357  0.5812E-12  0.1219E-13  0.7603E-17  0.1000E-09  0.0000E+00  0.5909E+16
   -0.343735    0.50438  0.5773E-12  0.1219E-13  0.7603E-17  0.1000E-09  0.0000E+00  0.5774E+16
   -0.412483    0.60597  0.5765E-12  0.1219E-13  0.7603E-17  0.1000E-09  0.0000E+00  0.5657E+16
   -0.481232    0.70873  0.5764E-12  0.1219E-13  0.7603E-17  0.1000E-09  0.0000E+00  0.5555E+16
   -0.549982    0.81306  0.5764E-12  0.1219E-13  0.7603E-17  0.1000E-09  0.0000E+00  0.5464E+16
   -0.618732    0.91933  0.5764E-12  0.1219E-13  0.7603E-17  0.1000E-09  0.0000E+00  0.5381E+16
   -0.687482    1.02793  0.5764E-12  0.1219E-13  0.7603E-17  0.1000E-09  0.0000E+00  0.5315E+16
   -0.756233    1.13945  0.5764E-12  0.1219E-13  0.7603E-17  0.1000E-09  0.0000E+00  0.5253E+16
   -0.824984    1.25437  0.5764E-12  0.1219E-13  0.7603E-17  0.1000E-09  0.0000E+00  0.5185E+16
   -0.893735    1.37298  0.5764E-12  0.1219E-13  0.7603E-17  0.1000E-09  0.0000E+00  0.5105E+16
   -0.962487    1.49554  0.5763E-12  0.1219E-13  0.7603E-17  0.1000E-09  0.0000E+00  0.5010E+16
   -1.031239    1.62224  0.5761E-12  0.5160E-13  0.9376E-17  0.1000E-09  0.0000E+00  0.4895E+16
   -1.099990    1.75325  0.5756E-12  0.1504E-12  0.2126E-16  0.1000E-09  0.0000E+00  0.4756E+16
   -1.168742    1.88867  0.5745E-12  0.3837E-12  0.5091E-16  0.1000E-09  0.0000E+00  0.4591E+16
   -1.237495    2.02858  0.5726E-12  0.9392E-12  0.1204E-15  0.1000E-09  0.0000E+00  0.4396E+16
   -1.306247    2.17298  0.5700E-12  0.2257E-11  0.2812E-15  0.1000E-09  0.0000E+00  0.4169E+16
   -1.374999    2.32182  0.5671E-12  0.5353E-11  0.6488E-15  0.1000E-09  0.0000E+00  0.3914E+16
   -1.443751    2.47524  0.5646E-12  0.1256E-10  0.1481E-14  0.1000E-09  0.0000E+00  0.3625E+16
   -1.512503    2.63317  0.5629E-12  0.2913E-10  0.3345E-14  0.1000E-09  0.0000E+00  0.3299E+16
   -1.581256    2.79538  0.5619E-12  0.6688E-10  0.7480E-14  0.1000E-09  0.0000E+00  0.2936E+16
   -1.650008    2.96163  0.5614E-12  0.1520E-09  0.1656E-13  0.1000E-09  0.0000E+00  0.2539E+16
   -1.718760    3.13158  0.5610E-12  0.3419E-09  0.3630E-13  0.1000E-09  0.0000E+00  0.2112E+16
   -1.787511    3.30498  0.5607E-12  0.7801E-09  0.8069E-13  0.2453E-09  0.0000E+00  0.1674E+16
   -1.856263    3.48383  0.5604E-12  0.1793E-08  0.1808E-12  0.7719E-09  0.0000E+00  0.1192E+16
   -1.925014    3.66798  0.5596E-12  0.4107E-08  0.4039E-12  0.3103E-08  0.0000E+00  0.6623E+15
   -1.993765    3.85558  0.5589E-12  0.9205E-08  0.8853E-12  0.3511E-07  0.0000E+00  0.1281E+15
   -2.062516    4.01395  0.5588E-12  0.1028E-07  0.9938E-12  0.4380E-04  0.0000E+00 -0.2780E+12
   -2.131266    4.01458  0.5588E-12  0.1072E-07  0.1050E-11  0.4408E-04  0.0000E+00 -0.2829E+12
   -2.200016    4.01521  0.5588E-12  0.1106E-07  0.1111E-11  0.4342E-04  0.0000E+00 -0.2941E+12
   -2.268766    4.01586  0.5588E-12  0.1131E-07  0.1179E-11  0.4176E-04  0.0000E+00 -0.3134E+12
   -2.337515    4.01653  0.5588E-12  0.1148E-07  0.1264E-11  0.3891E-04  0.0000E+00 -0.3451E+12
   -2.406263    4.01725  0.5588E-12  0.1156E-07  0.1380E-11  0.3470E-04  0.0000E+00 -0.3981E+12
   -2.475011    4.01806  0.5588E-12  0.1151E-07  0.1555E-11  0.2885E-04  0.0000E+00 -0.4952E+12
   -2.543759    4.01904  0.5588E-12  0.1127E-07  0.1866E-11  0.2110E-04  0.0000E+00 -0.7069E+12
   -2.612506    4.02039  0.5588E-12  0.1061E-07  0.2618E-11  0.1140E-04  0.0000E+00 -0.1404E+13
   -2.681252    4.02292  0.5588E-12  0.7760E-08  0.7292E-11  0.1540E-05  0.0000E+00 -0.1337E+14
   -2.749998    4.04153  0.5588E-12  0.0000E+00  0.0000E+00  0.0000E+00  0.0000E+00  0.0000E+00
