 1 - depth, m
 2 - temperature, C
 3 - salinity, kg/kg
 4 - turbulent kinetic energy, m**2/s**2
 5 - dissipation rate, m**2/s**3
 6 - kinematic heat conductance, m**2/s
 7 - modulus of horizontal velocity, m/s
 8 - Richardson number, n/d
   -0.000000   -0.00000  0.1241E-12  0.1219E-13  0.7603E-17  0.1000E-09  0.0000E+00  0.6791E+16
   -0.068746    0.10330  0.8836E-12  0.1219E-13  0.7603E-17  0.1000E-09  0.0000E+00  0.6710E+16
   -0.137493    0.20833  0.1658E-11  0.1219E-13  0.7603E-17  0.1000E-09  0.0000E+00  0.6615E+16
   -0.206240    0.31500  0.2109E-11  0.1219E-13  0.7603E-17  0.1000E-09  0.0000E+00  0.6506E+16
   -0.274988    0.42323  0.2237E-11  0.1219E-13  0.7603E-17  0.1000E-09  0.0000E+00  0.6382E+16
   -0.343736    0.53291  0.2174E-11  0.1219E-13  0.7603E-17  0.1000E-09  0.0000E+00  0.6245E+16
   -0.412485    0.64392  0.2039E-11  0.1219E-13  0.7603E-17  0.1000E-09  0.0000E+00  0.6094E+16
   -0.481234    0.75613  0.1908E-11  0.1219E-13  0.7603E-17  0.1000E-09  0.0000E+00  0.5930E+16
   -0.549984    0.86943  0.1810E-11  0.1219E-13  0.7603E-17  0.1000E-09  0.0000E+00  0.5755E+16
   -0.618734    0.98369  0.1747E-11  0.1219E-13  0.7603E-17  0.1000E-09  0.0000E+00  0.5570E+16
   -0.687485    1.09879  0.1712E-11  0.1219E-13  0.7603E-17  0.1000E-09  0.0000E+00  0.5375E+16
   -0.756236    1.21463  0.1693E-11  0.1219E-13  0.7603E-17  0.1000E-09  0.0000E+00  0.5172E+16
   -0.824987    1.33109  0.1684E-11  0.1219E-13  0.7603E-17  0.1000E-09  0.0000E+00  0.4962E+16
   -0.893738    1.44806  0.1680E-11  0.1219E-13  0.7603E-17  0.1000E-09  0.0000E+00  0.4746E+16
   -0.962490    1.56547  0.1678E-11  0.1219E-13  0.7603E-17  0.1000E-09  0.0000E+00  0.4525E+16
   -1.031242    1.68321  0.1676E-11  0.1219E-13  0.7603E-17  0.1000E-09  0.0000E+00  0.4300E+16
   -1.099994    1.80121  0.1674E-11  0.1219E-13  0.7603E-17  0.1000E-09  0.0000E+00  0.4073E+16
   -1.168747    1.91938  0.1672E-11  0.1219E-13  0.7603E-17  0.1000E-09  0.0000E+00  0.3842E+16
   -1.237499    2.03768  0.1669E-11  0.1219E-13  0.7603E-17  0.1000E-09  0.0000E+00  0.3611E+16
   -1.306251    2.15603  0.1665E-11  0.1219E-13  0.7603E-17  0.1000E-09  0.0000E+00  0.3378E+16
   -1.375004    2.27439  0.1661E-11  0.1219E-13  0.7603E-17  0.1000E-09  0.0000E+00  0.3146E+16
   -1.443756    2.39274  0.1656E-11  0.1219E-13  0.7603E-17  0.1000E-09  0.0000E+00  0.2914E+16
   -1.512509    2.51105  0.1651E-11  0.1219E-13  0.7603E-17  0.1000E-09  0.0000E+00  0.2683E+16
   -1.581261    2.62930  0.1647E-11  0.1219E-13  0.7603E-17  0.1000E-09  0.0000E+00  0.2453E+16
   -1.650013    2.74748  0.1643E-11  0.1219E-13  0.7603E-17  0.1000E-09  0.0000E+00  0.2224E+16
   -1.718766    2.86557  0.1640E-11  0.1219E-13  0.7603E-17  0.1000E-09  0.0000E+00  0.1995E+16
   -1.787518    2.98349  0.1637E-11  0.4281E-13  0.1096E-16  0.1000E-09  0.0000E+00  0.1742E+16
   -1.856269    3.09940  0.1635E-11  0.1489E-12  0.3204E-16  0.1000E-09  0.0000E+00  0.1495E+16
   -1.925021    3.21284  0.1633E-11  0.4791E-12  0.9820E-16  0.1000E-09  0.0000E+00  0.1256E+16
   -1.993772    3.32316  0.1632E-11  0.1505E-11  0.2981E-15  0.1000E-09  0.0000E+00  0.1032E+16
   -2.062523    3.43020  0.1631E-11  0.4558E-11  0.8742E-15  0.1000E-09  0.0000E+00  0.8448E+15
   -2.131274    3.53658  0.1630E-11  0.1358E-10  0.2523E-14  0.1000E-09  0.0000E+00  0.6623E+15
   -2.200024    3.64246  0.1629E-11  0.3994E-10  0.7195E-14  0.1000E-09  0.0000E+00  0.4824E+15
   -2.268774    3.74773  0.1629E-11  0.1172E-09  0.2048E-13  0.3397E-09  0.0000E+00  0.3054E+15
   -2.337523    3.85197  0.1629E-11  0.3466E-09  0.5877E-13  0.2223E-08  0.0000E+00  0.1332E+15
   -2.406272    3.95376  0.1629E-11  0.9772E-09  0.1620E-12  0.1310E-06  0.0000E+00  0.5145E+13
   -2.475020    4.00643  0.1629E-11  0.1914E-08  0.3291E-12  0.5108E-05  0.0000E+00 -0.9149E+12
   -2.543768    4.00915  0.1629E-11  0.2242E-08  0.4371E-12  0.4656E-05  0.0000E+00 -0.1122E+13
   -2.612515    4.01209  0.1629E-11  0.2280E-08  0.6096E-12  0.2943E-05  0.0000E+00 -0.1958E+13
   -2.681262    4.01656  0.1629E-11  0.1694E-08  0.1307E-11  0.5009E-06  0.0000E+00 -0.1193E+14
   -2.750008    4.03569  0.1629E-11  0.0000E+00  0.0000E+00  0.0000E+00  0.0000E+00  0.0000E+00
