 1 - depth, m
 2 - temperature, C
 3 - salinity, kg/kg
 4 - turbulent kinetic energy, m**2/s**2
 5 - dissipation rate, m**2/s**3
 6 - kinematic heat conductance, m**2/s
 7 - modulus of horizontal velocity, m/s
 8 - Richardson number, n/d
   -0.000000   14.72930  0.8633E-11  0.1468E-04  0.6347E-06  0.3506E-04  0.2612E-01 -0.3224E-01
   -0.068746   14.75625  0.8633E-11  0.1404E-04  0.2272E-06  0.9687E-04  0.1701E-01 -0.8570E-01
   -0.137492   14.76541  0.8633E-11  0.1363E-04  0.1316E-06  0.1716E-03  0.1376E-01 -0.1459E+00
   -0.206239   14.77033  0.8633E-11  0.1339E-04  0.9096E-07  0.2609E-03  0.1195E-01 -0.2076E+00
   -0.274987   14.77342  0.8633E-11  0.1325E-04  0.6935E-07  0.4100E-03  0.1076E-01  0.1045E+00
   -0.343735   14.77533  0.8633E-11  0.1321E-04  0.5737E-07  0.9195E-03  0.9914E-02  0.6490E+03
   -0.412484   14.77615  0.8633E-11  0.1327E-04  0.4995E-07  0.1140E-02  0.9361E-02  0.6497E+01
   -0.481233   14.77679  0.8633E-11  0.1340E-04  0.4428E-07  0.1205E-02  0.8839E-02  0.7311E+01
   -0.549983   14.77737  0.8633E-11  0.1356E-04  0.3984E-07  0.1280E-02  0.8351E-02  0.7743E+01
   -0.618733   14.77790  0.8633E-11  0.1373E-04  0.3631E-07  0.1350E-02  0.7894E-02  0.8066E+01
   -0.687483   14.77840  0.8633E-11  0.1391E-04  0.3344E-07  0.1420E-02  0.7463E-02  0.8367E+01
   -0.756234   14.77886  0.8633E-11  0.1408E-04  0.3107E-07  0.1488E-02  0.7053E-02  0.8646E+01
   -0.824985   14.77930  0.8633E-11  0.1424E-04  0.2909E-07  0.1555E-02  0.6660E-02  0.8919E+01
   -0.893736   14.77971  0.8633E-11  0.1439E-04  0.2741E-07  0.1621E-02  0.6280E-02  0.9186E+01
   -0.962488   14.78010  0.8633E-11  0.1452E-04  0.2598E-07  0.1685E-02  0.5912E-02  0.9453E+01
   -1.031240   14.78047  0.8633E-11  0.1463E-04  0.2475E-07  0.1748E-02  0.5553E-02  0.9717E+01
   -1.099992   14.78082  0.8633E-11  0.1470E-04  0.2370E-07  0.1808E-02  0.5201E-02  0.9985E+01
   -1.168744   14.78116  0.8633E-11  0.1476E-04  0.2278E-07  0.1863E-02  0.4855E-02  0.1026E+02
   -1.237496   14.78150  0.8633E-11  0.1477E-04  0.2199E-07  0.1912E-02  0.4514E-02  0.1055E+02
   -1.306248   14.78182  0.8633E-11  0.1475E-04  0.2131E-07  0.1953E-02  0.4177E-02  0.1086E+02
   -1.375001   14.78213  0.8633E-11  0.1469E-04  0.2072E-07  0.1981E-02  0.3843E-02  0.1122E+02
   -1.443753   14.78244  0.8633E-11  0.1459E-04  0.2022E-07  0.1996E-02  0.3511E-02  0.1165E+02
   -1.512505   14.78275  0.8633E-11  0.1444E-04  0.1980E-07  0.1994E-02  0.3180E-02  0.1220E+02
   -1.581257   14.78306  0.8633E-11  0.1423E-04  0.1944E-07  0.1972E-02  0.2850E-02  0.1291E+02
   -1.650010   14.78337  0.8633E-11  0.1397E-04  0.1915E-07  0.1933E-02  0.2519E-02  0.1386E+02
   -1.718762   14.78369  0.8633E-11  0.1366E-04  0.1892E-07  0.1869E-02  0.2188E-02  0.1421E+02
   -1.787513   14.78402  0.8633E-11  0.1327E-04  0.1875E-07  0.1821E-02  0.1855E-02  0.6003E+01
   -1.856265   14.78436  0.8633E-11  0.1284E-04  0.1868E-07  0.1795E-02  0.1575E-02  0.3415E+01
   -1.925016   14.78470  0.8633E-11  0.1238E-04  0.1877E-07  0.1801E-02  0.1341E-02  0.2232E+01
   -1.993767   14.78505  0.8633E-11  0.1191E-04  0.1906E-07  0.1842E-02  0.1149E-02  0.1663E+01
   -2.062518   14.78538  0.8633E-11  0.1146E-04  0.1956E-07  0.1882E-02  0.9927E-03  0.1389E+01
   -2.131269   14.78571  0.8633E-11  0.1104E-04  0.2029E-07  0.1807E-02  0.8585E-03  0.1163E+01
   -2.200019   14.78606  0.8633E-11  0.1064E-04  0.2128E-07  0.1621E-02  0.7427E-03  0.9690E+00
   -2.268768   14.78644  0.8633E-11  0.1029E-04  0.2257E-07  0.1437E-02  0.6438E-03  0.7922E+00
   -2.337517   14.78688  0.8633E-11  0.9951E-05  0.2433E-07  0.1269E-02  0.5628E-03  0.7228E+00
   -2.406266   14.78738  0.8633E-11  0.9591E-05  0.2703E-07  0.1168E-02  0.4960E-03  0.1776E+01
   -2.475014   14.78793  0.8633E-11  0.9104E-05  0.3293E-07  0.9074E-03  0.4361E-03  0.7439E+02
   -2.543762   14.78889  0.8633E-11  0.8318E-05  0.4579E-07  0.7362E-03  0.3597E-03  0.2878E+03
   -2.612509   14.78994  0.8633E-11  0.6889E-05  0.8282E-07  0.3834E-03  0.2874E-03 -0.3478E+04
   -2.681255   14.79427  0.8633E-11  0.4214E-05  0.2597E-06  0.1129E-03  0.1736E-03 -0.6285E+04
   -2.750001   14.80201  0.8633E-11  0.0000E+00  0.0000E+00  0.0000E+00  0.2364E-03  0.0000E+00
