 1 - depth, m
 2 - temperature, C
 3 - salinity, kg/kg
 4 - turbulent kinetic energy, m**2/s**2
 5 - dissipation rate, m**2/s**3
 6 - kinematic heat conductance, m**2/s
 7 - modulus of horizontal velocity, m/s
 8 - Richardson number, n/d
   -0.000000   -0.00000  0.1002E-16  0.1219E-13  0.7603E-17  0.1000E-09  0.0000E+00  0.4202E+16
   -0.068746    0.06357  0.0000E+00  0.1219E-13  0.7603E-17  0.1000E-09  0.0000E+00  0.4317E+16
   -0.137493    0.13006  0.9763E-12  0.1219E-13  0.7603E-17  0.1000E-09  0.0000E+00  0.4445E+16
   -0.206241    0.19982  0.5097E-11  0.1219E-13  0.7603E-17  0.1000E-09  0.0000E+00  0.4580E+16
   -0.274989    0.27316  0.1069E-10  0.1219E-13  0.7603E-17  0.1000E-09  0.0000E+00  0.4713E+16
   -0.343738    0.35027  0.1545E-10  0.1219E-13  0.7603E-17  0.1000E-09  0.0000E+00  0.4832E+16
   -0.412487    0.43117  0.1824E-10  0.1219E-13  0.7603E-17  0.1000E-09  0.0000E+00  0.4928E+16
   -0.481237    0.51574  0.1911E-10  0.1219E-13  0.7603E-17  0.1000E-09  0.0000E+00  0.4994E+16
   -0.549987    0.60372  0.1874E-10  0.1219E-13  0.7603E-17  0.1000E-09  0.0000E+00  0.5028E+16
   -0.618737    0.69482  0.1785E-10  0.1219E-13  0.7603E-17  0.1000E-09  0.0000E+00  0.5031E+16
   -0.687488    0.78872  0.1693E-10  0.1219E-13  0.7603E-17  0.1000E-09  0.0000E+00  0.4999E+16
   -0.756240    0.88500  0.1619E-10  0.1219E-13  0.7603E-17  0.1000E-09  0.0000E+00  0.4940E+16
   -0.824991    0.98332  0.1568E-10  0.1219E-13  0.7603E-17  0.1000E-09  0.0000E+00  0.4857E+16
   -0.893743    1.08342  0.1537E-10  0.1219E-13  0.7603E-17  0.1000E-09  0.0000E+00  0.4756E+16
   -0.962495    1.18507  0.1520E-10  0.1219E-13  0.7603E-17  0.1000E-09  0.0000E+00  0.4639E+16
   -1.031247    1.28809  0.1511E-10  0.1219E-13  0.7603E-17  0.1000E-09  0.0000E+00  0.4510E+16
   -1.100000    1.39235  0.1507E-10  0.1219E-13  0.7603E-17  0.1000E-09  0.0000E+00  0.4371E+16
   -1.168753    1.49774  0.1504E-10  0.1219E-13  0.7603E-17  0.1000E-09  0.0000E+00  0.4225E+16
   -1.237505    1.60423  0.1502E-10  0.1219E-13  0.7603E-17  0.1000E-09  0.0000E+00  0.4074E+16
   -1.306258    1.71182  0.1500E-10  0.1219E-13  0.7603E-17  0.1000E-09  0.0000E+00  0.3920E+16
   -1.375011    1.82056  0.1498E-10  0.1219E-13  0.7603E-17  0.1000E-09  0.0000E+00  0.3765E+16
   -1.443764    1.93065  0.1495E-10  0.1219E-13  0.7603E-17  0.1000E-09  0.0000E+00  0.3610E+16
   -1.512517    2.04225  0.1491E-10  0.1219E-13  0.7603E-17  0.1000E-09  0.0000E+00  0.3452E+16
   -1.581269    2.15553  0.1488E-10  0.1219E-13  0.7603E-17  0.1000E-09  0.0000E+00  0.3290E+16
   -1.650022    2.27067  0.1484E-10  0.1219E-13  0.7603E-17  0.1000E-09  0.0000E+00  0.3122E+16
   -1.718774    2.38781  0.1480E-10  0.1219E-13  0.7603E-17  0.1000E-09  0.0000E+00  0.2942E+16
   -1.787527    2.50690  0.1476E-10  0.1219E-13  0.7603E-17  0.1000E-09  0.0000E+00  0.2670E+16
   -1.856279    2.62418  0.1473E-10  0.1219E-13  0.7603E-17  0.1000E-09  0.0000E+00  0.2396E+16
   -1.925031    2.73898  0.1470E-10  0.1219E-13  0.7603E-17  0.1000E-09  0.0000E+00  0.2120E+16
   -1.993782    2.85044  0.1468E-10  0.1219E-13  0.7603E-17  0.1000E-09  0.0000E+00  0.1868E+16
   -2.062533    2.95881  0.1466E-10  0.1219E-13  0.7603E-17  0.1000E-09  0.0000E+00  0.1690E+16
   -2.131284    3.06796  0.1465E-10  0.1219E-13  0.7603E-17  0.1000E-09  0.0000E+00  0.1516E+16
   -2.200035    3.17856  0.1464E-10  0.1219E-13  0.7603E-17  0.1000E-09  0.0000E+00  0.1339E+16
   -2.268785    3.29093  0.1462E-10  0.1219E-13  0.7603E-17  0.1000E-09  0.0000E+00  0.1150E+16
   -2.337535    3.40473  0.1461E-10  0.1219E-13  0.8637E-17  0.1000E-09  0.0000E+00  0.9522E+15
   -2.406284    3.51975  0.1461E-10  0.6582E-13  0.4986E-16  0.1000E-09  0.0000E+00  0.7471E+15
   -2.475033    3.63574  0.1460E-10  0.4816E-12  0.3530E-15  0.1000E-09  0.0000E+00  0.5354E+15
   -2.543781    3.75208  0.1460E-10  0.3547E-11  0.2521E-14  0.1000E-09  0.0000E+00  0.3205E+15
   -2.612528    3.86776  0.1459E-10  0.2681E-10  0.1866E-13  0.7248E-09  0.0000E+00  0.1098E+15
   -2.681275    3.97926  0.1459E-10  0.2178E-09  0.1553E-12  0.1153E-06  0.0000E+00 -0.1449E+14
   -2.750022    4.02994  0.1459E-10  0.0000E+00  0.0000E+00  0.0000E+00  0.0000E+00  0.0000E+00
