 1 - depth, m
 2 - temperature, C
 3 - salinity, kg/kg
 4 - turbulent kinetic energy, m**2/s**2
 5 - dissipation rate, m**2/s**3
 6 - kinematic heat conductance, m**2/s
 7 - modulus of horizontal velocity, m/s
 8 - Richardson number, n/d
   -0.000000   -0.00000  0.7016E-10  0.2664E-07  0.7384E-10  0.5148E-07  0.4976E-03  0.4965E+15
   -0.068745    0.09364  0.6064E-10  0.1918E-06  0.4246E-10  0.7276E-07  0.2655E-03  0.1756E+15
   -0.137490    0.13508  0.5751E-10  0.5912E-06  0.3103E-10  0.2915E-06  0.1369E-03  0.3468E+14
   -0.206236    0.14618  0.5646E-10  0.6368E-06  0.3270E-10  0.3353E-02  0.6610E-04 -0.2582E+10
   -0.274982    0.14941  0.5619E-10  0.6634E-06  0.3402E-10  0.3710E-02  0.2708E-04 -0.1832E+11
   -0.343730    0.15081  0.5603E-10  0.6739E-06  0.3463E-10  0.3945E-02  0.8175E-05 -0.2797E+11
   -0.412477    0.15106  0.5597E-10  0.6744E-06  0.3464E-10  0.4048E-02  0.3564E-05 -0.3631E+11
   -0.481225    0.15106  0.5597E-10  0.6748E-06  0.3465E-10  0.4047E-02  0.3537E-05 -0.3936E+11
   -0.549974    0.15105  0.5597E-10  0.6751E-06  0.3465E-10  0.4048E-02  0.3511E-05 -0.4321E+11
   -0.618723    0.15105  0.5597E-10  0.6753E-06  0.3465E-10  0.4050E-02  0.3486E-05 -0.4202E+11
   -0.687472    0.15105  0.5597E-10  0.6754E-06  0.3464E-10  0.4051E-02  0.3464E-05 -0.4272E+11
   -0.756222    0.15104  0.5597E-10  0.6754E-06  0.3463E-10  0.4054E-02  0.3443E-05 -0.3890E+11
   -0.824972    0.15104  0.5597E-10  0.6752E-06  0.3461E-10  0.4055E-02  0.3424E-05 -0.3717E+11
   -0.893722    0.15104  0.5597E-10  0.6750E-06  0.3458E-10  0.4058E-02  0.3407E-05 -0.3163E+11
   -0.962472    0.15103  0.5597E-10  0.6747E-06  0.3456E-10  0.4060E-02  0.3392E-05 -0.2783E+11
   -1.031223    0.15103  0.5597E-10  0.6743E-06  0.3452E-10  0.4066E-02  0.3379E-05 -0.2111E+11
   -1.099974    0.15103  0.5597E-10  0.6738E-06  0.3449E-10  0.4074E-02  0.3368E-05 -0.1536E+11
   -1.168725    0.15103  0.5597E-10  0.6734E-06  0.3446E-10  0.4100E-02  0.3359E-05 -0.7751E+10
   -1.237476    0.15103  0.5597E-10  0.6730E-06  0.3444E-10  0.4212E-02  0.3352E-05  0.6088E+09
   -1.306227    0.15103  0.5597E-10  0.6725E-06  0.3441E-10  0.3700E-03  0.3347E-05  0.1544E+12
   -1.374978    0.15121  0.5596E-10  0.6546E-06  0.3338E-10  0.1784E-06  0.2885E-05  0.7486E+14
   -1.443729    0.16627  0.5563E-10  0.3945E-06  0.2025E-10  0.3767E-07  0.1410E-05  0.1856E+15
   -1.512481    0.20789  0.5529E-10  0.2200E-06  0.1144E-10  0.1249E-07  0.6310E-06  0.3290E+15
   -1.581232    0.27965  0.5519E-10  0.1200E-06  0.6327E-11  0.4648E-08  0.2734E-06  0.5106E+15
   -1.649983    0.38968  0.5515E-10  0.6504E-07  0.3476E-11  0.1859E-08  0.1127E-06  0.7190E+15
   -1.718734    0.54841  0.5511E-10  0.3557E-07  0.1927E-11  0.8256E-09  0.3468E-07  0.1253E+16
   -1.787484    0.76130  0.5507E-10  0.1970E-07  0.1082E-11  0.6459E-09  0.2249E-08  0.2370E+16
   -1.856235    0.92296  0.5505E-10  0.1086E-07  0.6060E-12  0.5222E-09  0.1348E-09  0.2820E+16
   -1.924985    1.03883  0.5504E-10  0.5904E-08  0.3381E-12  0.4503E-09  0.7399E-11  0.3506E+16
   -1.993735    1.11293  0.5504E-10  0.3071E-08  0.1882E-12  0.2748E-09  0.4411E-12  0.3242E+16
   -2.062485    1.18362  0.5504E-10  0.1491E-08  0.1139E-12  0.1140E-09  0.3376E-13  0.7852E+16
   -2.131234    1.36166  0.5503E-10  0.6570E-09  0.9903E-13  0.1000E-09  0.2425E-14  0.1252E+17
   -2.199983    1.67427  0.5499E-10  0.4599E-09  0.1918E-12  0.1154E-09  0.1624E-15  0.1574E+17
   -2.268731    2.14387  0.5494E-10  0.1566E-08  0.8260E-12  0.2989E-09  0.7530E-17  0.1545E+17
   -2.337479    2.77952  0.5485E-10  0.8574E-08  0.4493E-11  0.3036E-08  0.2874E-18  0.1009E+17
   -2.406227    3.60138  0.5456E-10  0.2683E-07  0.1524E-10  0.7819E-05  0.9393E-20  0.1792E+16
   -2.474974    4.11643  0.5434E-10  0.4252E-07  0.2555E-10  0.2946E-04  0.2217E-21 -0.1025E+14
   -2.543721    4.12166  0.5434E-10  0.4715E-07  0.3181E-10  0.2672E-04  0.4710E-22 -0.1246E+14
   -2.612466    4.12777  0.5434E-10  0.4853E-07  0.4368E-10  0.1830E-04  0.8123E-23 -0.2114E+14
   -2.681212    4.13761  0.5434E-10  0.4034E-07  0.1093E-09  0.3817E-05  0.8060E-24 -0.1586E+15
   -2.749956    4.19577  0.5434E-10  0.0000E+00  0.0000E+00  0.0000E+00  0.8063E-24  0.0000E+00
