 1 - depth, m
 2 - temperature, C
 3 - salinity, kg/kg
 4 - turbulent kinetic energy, m**2/s**2
 5 - dissipation rate, m**2/s**3
 6 - kinematic heat conductance, m**2/s
 7 - modulus of horizontal velocity, m/s
 8 - Richardson number, n/d
   -0.000000   -0.00000  0.1210E-09  0.1219E-13  0.7603E-17  0.1000E-09  0.0000E+00  0.6440E+16
   -0.068746    0.09790  0.7051E-10  0.1219E-13  0.7603E-17  0.1000E-09  0.0000E+00  0.6202E+16
   -0.137492    0.19472  0.5172E-10  0.1219E-13  0.7603E-17  0.1000E-09  0.0000E+00  0.5987E+16
   -0.206239    0.29076  0.4571E-10  0.1219E-13  0.7603E-17  0.1000E-09  0.0000E+00  0.5795E+16
   -0.274987    0.38630  0.4409E-10  0.1219E-13  0.7603E-17  0.1000E-09  0.0000E+00  0.5622E+16
   -0.343735    0.48164  0.4371E-10  0.1219E-13  0.7603E-17  0.1000E-09  0.0000E+00  0.5466E+16
   -0.412483    0.57704  0.4363E-10  0.1219E-13  0.7603E-17  0.1000E-09  0.0000E+00  0.5324E+16
   -0.481232    0.67277  0.4362E-10  0.1219E-13  0.7603E-17  0.1000E-09  0.0000E+00  0.5194E+16
   -0.549982    0.76907  0.4361E-10  0.1219E-13  0.7603E-17  0.1000E-09  0.0000E+00  0.5074E+16
   -0.618732    0.86616  0.4361E-10  0.1219E-13  0.7603E-17  0.1000E-09  0.0000E+00  0.4960E+16
   -0.687482    0.96425  0.4361E-10  0.1219E-13  0.7603E-17  0.1000E-09  0.0000E+00  0.4862E+16
   -0.756233    1.06375  0.4361E-10  0.1219E-13  0.7603E-17  0.1000E-09  0.0000E+00  0.4770E+16
   -0.824984    1.16496  0.4361E-10  0.1219E-13  0.7603E-17  0.1000E-09  0.0000E+00  0.4676E+16
   -0.893735    1.26801  0.4361E-10  0.1219E-13  0.7603E-17  0.1000E-09  0.0000E+00  0.4577E+16
   -0.962486    1.37300  0.4361E-10  0.1219E-13  0.7603E-17  0.1000E-09  0.0000E+00  0.4472E+16
   -1.031238    1.48001  0.4360E-10  0.1219E-13  0.7603E-17  0.1000E-09  0.0000E+00  0.4358E+16
   -1.099990    1.58908  0.4359E-10  0.1219E-13  0.7603E-17  0.1000E-09  0.0000E+00  0.4233E+16
   -1.168742    1.70022  0.4355E-10  0.1219E-13  0.7603E-17  0.1000E-09  0.0000E+00  0.4097E+16
   -1.237494    1.81341  0.4348E-10  0.1219E-13  0.7603E-17  0.1000E-09  0.0000E+00  0.3949E+16
   -1.306246    1.92859  0.4337E-10  0.1219E-13  0.7603E-17  0.1000E-09  0.0000E+00  0.3786E+16
   -1.374999    2.04567  0.4322E-10  0.1219E-13  0.7603E-17  0.1000E-09  0.0000E+00  0.3615E+16
   -1.443751    2.16469  0.4305E-10  0.1219E-13  0.7603E-17  0.1000E-09  0.0000E+00  0.3430E+16
   -1.512503    2.28556  0.4290E-10  0.1219E-13  0.7603E-17  0.1000E-09  0.0000E+00  0.3230E+16
   -1.581255    2.40808  0.4280E-10  0.1219E-13  0.7603E-17  0.1000E-09  0.0000E+00  0.3016E+16
   -1.650007    2.53200  0.4274E-10  0.1219E-13  0.7603E-17  0.1000E-09  0.0000E+00  0.2788E+16
   -1.718759    2.65705  0.4271E-10  0.1219E-13  0.7603E-17  0.1000E-09  0.0000E+00  0.2549E+16
   -1.787511    2.78297  0.4269E-10  0.1858E-13  0.7603E-17  0.1000E-09  0.0000E+00  0.2317E+16
   -1.856262    2.91042  0.4267E-10  0.7578E-13  0.2135E-16  0.1000E-09  0.0000E+00  0.2075E+16
   -1.925013    3.03927  0.4265E-10  0.2805E-12  0.7381E-16  0.1000E-09  0.0000E+00  0.1823E+16
   -1.993764    3.16939  0.4260E-10  0.1002E-11  0.2536E-15  0.1000E-09  0.0000E+00  0.1560E+16
   -2.062515    3.30032  0.4254E-10  0.3430E-11  0.8379E-15  0.1000E-09  0.0000E+00  0.1284E+16
   -2.131265    3.43112  0.4244E-10  0.1152E-10  0.2717E-14  0.1000E-09  0.0000E+00  0.1008E+16
   -2.200015    3.56140  0.4233E-10  0.3810E-10  0.8683E-14  0.1000E-09  0.0000E+00  0.7341E+15
   -2.268765    3.69074  0.4225E-10  0.1253E-09  0.2762E-13  0.2996E-09  0.0000E+00  0.4669E+15
   -2.337514    3.81906  0.4221E-10  0.4142E-09  0.8830E-13  0.2160E-08  0.0000E+00  0.2060E+15
   -2.406263    3.94482  0.4221E-10  0.1298E-08  0.2698E-12  0.1297E-06  0.0000E+00  0.8740E+13
   -2.475011    4.01096  0.4221E-10  0.2715E-08  0.5867E-12  0.5285E-05  0.0000E+00 -0.1399E+13
   -2.543758    4.01435  0.4221E-10  0.3264E-08  0.8208E-12  0.4875E-05  0.0000E+00 -0.1806E+13
   -2.612505    4.01820  0.4221E-10  0.3489E-08  0.1260E-11  0.3190E-05  0.0000E+00 -0.3487E+13
   -2.681251    4.02455  0.4221E-10  0.3135E-08  0.3123E-11  0.8435E-06  0.0000E+00 -0.2310E+14
   -2.749997    4.05274  0.4221E-10  0.0000E+00  0.0000E+00  0.0000E+00  0.0000E+00  0.0000E+00
