 1 - depth, m
 2 - temperature, C
 3 - salinity, kg/kg
 4 - turbulent kinetic energy, m**2/s**2
 5 - dissipation rate, m**2/s**3
 6 - kinematic heat conductance, m**2/s
 7 - modulus of horizontal velocity, m/s
 8 - Richardson number, n/d
   -0.000000   16.27990  0.1269E-11  0.1078E-04  0.3991E-06  0.3005E-04  0.2171E-01 -0.2543E-01
   -0.068746   16.29151  0.1269E-11  0.1030E-04  0.1484E-06  0.7789E-04  0.1415E-01 -0.6069E-01
   -0.137492   16.29516  0.1269E-11  0.9921E-05  0.8683E-07  0.1305E-03  0.1127E-01 -0.9624E-01
   -0.206239   16.29699  0.1269E-11  0.9629E-05  0.5972E-07  0.1941E-03  0.9576E-02 -0.8512E-01
   -0.274987   16.29806  0.1269E-11  0.9412E-05  0.4489E-07  0.2984E-03  0.8412E-02  0.3640E+02
   -0.343735   16.29872  0.1269E-11  0.9268E-05  0.3574E-07  0.3731E-03  0.7566E-02  0.2784E+01
   -0.412484   16.29920  0.1269E-11  0.9187E-05  0.2964E-07  0.4602E-03  0.6905E-02  0.2644E+01
   -0.481233   16.29957  0.1269E-11  0.9161E-05  0.2542E-07  0.5748E-03  0.6374E-02  0.5086E+01
   -0.549983   16.29986  0.1269E-11  0.9181E-05  0.2248E-07  0.7952E-03  0.5938E-02  0.8378E+02
   -0.618733   16.30008  0.1269E-11  0.9242E-05  0.2037E-07  0.9356E-03  0.5582E-02  0.3154E+02
   -0.687483   16.30027  0.1269E-11  0.9331E-05  0.1878E-07  0.1169E-02  0.5267E-02  0.4584E+02
   -0.756234   16.30044  0.1269E-11  0.9444E-05  0.1759E-07  0.1529E-02  0.4989E-02  0.4023E+01
   -0.824985   16.30058  0.1269E-11  0.9581E-05  0.1665E-07  0.1496E-02  0.4736E-02  0.4486E+01
   -0.893737   16.30074  0.1269E-11  0.9739E-05  0.1589E-07  0.1544E-02  0.4480E-02  0.5051E+01
   -0.962488   16.30090  0.1269E-11  0.9910E-05  0.1530E-07  0.1566E-02  0.4232E-02  0.5581E+01
   -1.031240   16.30108  0.1269E-11  0.1009E-04  0.1484E-07  0.1596E-02  0.3985E-02  0.6159E+01
   -1.099992   16.30126  0.1269E-11  0.1028E-04  0.1449E-07  0.1623E-02  0.3741E-02  0.6723E+01
   -1.168744   16.30146  0.1269E-11  0.1046E-04  0.1426E-07  0.1651E-02  0.3497E-02  0.7277E+01
   -1.237496   16.30167  0.1269E-11  0.1064E-04  0.1411E-07  0.1678E-02  0.3254E-02  0.7799E+01
   -1.306249   16.30190  0.1269E-11  0.1080E-04  0.1404E-07  0.1701E-02  0.3010E-02  0.8309E+01
   -1.375001   16.30213  0.1269E-11  0.1094E-04  0.1405E-07  0.1718E-02  0.2766E-02  0.8818E+01
   -1.443753   16.30239  0.1269E-11  0.1106E-04  0.1412E-07  0.1728E-02  0.2521E-02  0.9405E+01
   -1.512506   16.30266  0.1269E-11  0.1114E-04  0.1424E-07  0.1728E-02  0.2276E-02  0.1015E+02
   -1.581258   16.30295  0.1269E-11  0.1118E-04  0.1443E-07  0.1717E-02  0.2030E-02  0.1129E+02
   -1.650010   16.30326  0.1269E-11  0.1116E-04  0.1466E-07  0.1695E-02  0.1783E-02  0.1315E+02
   -1.718762   16.30360  0.1269E-11  0.1110E-04  0.1492E-07  0.1663E-02  0.1536E-02  0.1477E+02
   -1.787514   16.30396  0.1269E-11  0.1097E-04  0.1523E-07  0.1702E-02  0.1289E-02  0.4778E+01
   -1.856265   16.30432  0.1269E-11  0.1080E-04  0.1559E-07  0.1787E-02  0.1087E-02  0.2807E+01
   -1.925017   16.30467  0.1269E-11  0.1061E-04  0.1604E-07  0.1863E-02  0.9246E-03  0.1978E+01
   -1.993768   16.30501  0.1269E-11  0.1041E-04  0.1661E-07  0.1846E-02  0.7956E-03  0.1572E+01
   -2.062519   16.30536  0.1269E-11  0.1021E-04  0.1728E-07  0.1775E-02  0.6920E-03  0.1374E+01
   -2.131269   16.30573  0.1269E-11  0.1001E-04  0.1807E-07  0.1668E-02  0.6047E-03  0.1207E+01
   -2.200019   16.30615  0.1269E-11  0.9821E-05  0.1901E-07  0.1538E-02  0.5297E-03  0.1075E+01
   -2.268769   16.30661  0.1269E-11  0.9636E-05  0.2015E-07  0.1410E-02  0.4659E-03  0.1073E+01
   -2.337518   16.30713  0.1269E-11  0.9440E-05  0.2168E-07  0.1275E-02  0.4116E-03  0.1353E+01
   -2.406267   16.30771  0.1269E-11  0.9211E-05  0.2393E-07  0.1133E-02  0.3636E-03  0.2128E+01
   -2.475015   16.30839  0.1269E-11  0.8911E-05  0.2773E-07  0.9033E-03  0.3179E-03  0.4121E+01
   -2.543763   16.30927  0.1269E-11  0.8488E-05  0.3491E-07  0.8273E-03  0.2699E-03  0.9705E+01
   -2.612510   16.31024  0.1269E-11  0.7627E-05  0.5860E-07  0.3538E-03  0.2276E-03 -0.1198E+03
   -2.681256   16.31460  0.1269E-11  0.4778E-05  0.1955E-06  0.9942E-04  0.1454E-03 -0.6057E+03
   -2.750002   16.32344  0.1269E-11  0.0000E+00  0.0000E+00  0.0000E+00  0.1661E-03  0.0000E+00
