 1 - depth, m
 2 - temperature, C
 3 - salinity, kg/kg
 4 - turbulent kinetic energy, m**2/s**2
 5 - dissipation rate, m**2/s**3
 6 - kinematic heat conductance, m**2/s
 7 - modulus of horizontal velocity, m/s
 8 - Richardson number, n/d
   -0.000000   -0.00000  0.1654E-11  0.1219E-13  0.7603E-17  0.1000E-09  0.0000E+00  0.7952E+16
   -0.068746    0.12125  0.9923E-12  0.1219E-13  0.7603E-17  0.1000E-09  0.0000E+00  0.7633E+16
   -0.137492    0.24160  0.7136E-12  0.1219E-13  0.7603E-17  0.1000E-09  0.0000E+00  0.7338E+16
   -0.206239    0.36130  0.6158E-12  0.1219E-13  0.7603E-17  0.1000E-09  0.0000E+00  0.7064E+16
   -0.274987    0.48064  0.5864E-12  0.1219E-13  0.7603E-17  0.1000E-09  0.0000E+00  0.6808E+16
   -0.343735    0.59987  0.5787E-12  0.1219E-13  0.7603E-17  0.1000E-09  0.0000E+00  0.6569E+16
   -0.412483    0.71928  0.5769E-12  0.1219E-13  0.7603E-17  0.1000E-09  0.0000E+00  0.6342E+16
   -0.481232    0.83911  0.5765E-12  0.1219E-13  0.7603E-17  0.1000E-09  0.0000E+00  0.6127E+16
   -0.549982    0.95962  0.5764E-12  0.1219E-13  0.7603E-17  0.1000E-09  0.0000E+00  0.5919E+16
   -0.618732    1.08105  0.5764E-12  0.1219E-13  0.7603E-17  0.1000E-09  0.0000E+00  0.5717E+16
   -0.687482    1.20360  0.5764E-12  0.1219E-13  0.7603E-17  0.1000E-09  0.0000E+00  0.5527E+16
   -0.756233    1.32772  0.5764E-12  0.1219E-13  0.7603E-17  0.1000E-09  0.0000E+00  0.5342E+16
   -0.824984    1.45371  0.5764E-12  0.1219E-13  0.7603E-17  0.1000E-09  0.0000E+00  0.5152E+16
   -0.893735    1.58173  0.5763E-12  0.1219E-13  0.7603E-17  0.1000E-09  0.0000E+00  0.4954E+16
   -0.962487    1.71190  0.5761E-12  0.2386E-13  0.7603E-17  0.1000E-09  0.0000E+00  0.4746E+16
   -1.031238    1.84432  0.5757E-12  0.8372E-13  0.1219E-16  0.1000E-09  0.0000E+00  0.4527E+16
   -1.099990    1.97907  0.5750E-12  0.2209E-12  0.2730E-16  0.1000E-09  0.0000E+00  0.4295E+16
   -1.168742    2.11617  0.5736E-12  0.5309E-12  0.6233E-16  0.1000E-09  0.0000E+00  0.4049E+16
   -1.237495    2.25564  0.5716E-12  0.1236E-11  0.1406E-15  0.1000E-09  0.0000E+00  0.3786E+16
   -1.306247    2.39746  0.5691E-12  0.2830E-11  0.3132E-15  0.1000E-09  0.0000E+00  0.3508E+16
   -1.374999    2.54155  0.5665E-12  0.6407E-11  0.6906E-15  0.1000E-09  0.0000E+00  0.3216E+16
   -1.443751    2.68799  0.5644E-12  0.1435E-10  0.1507E-14  0.1000E-09  0.0000E+00  0.2907E+16
   -1.512503    2.83670  0.5629E-12  0.3184E-10  0.3258E-14  0.1000E-09  0.0000E+00  0.2582E+16
   -1.581256    2.98753  0.5619E-12  0.6993E-10  0.6976E-14  0.1000E-09  0.0000E+00  0.2240E+16
   -1.650008    3.14028  0.5613E-12  0.1521E-09  0.1480E-13  0.1000E-09  0.0000E+00  0.1883E+16
   -1.718759    3.29473  0.5609E-12  0.3279E-09  0.3111E-13  0.1046E-09  0.0000E+00  0.1514E+16
   -1.787511    3.45073  0.5605E-12  0.7167E-09  0.6632E-13  0.2936E-09  0.0000E+00  0.1149E+16
   -1.856263    3.61058  0.5599E-12  0.1580E-08  0.1426E-12  0.9593E-09  0.0000E+00  0.7563E+15
   -1.925014    3.77401  0.5592E-12  0.3469E-08  0.3058E-12  0.4637E-08  0.0000E+00  0.3354E+15
   -1.993765    3.93782  0.5590E-12  0.6933E-08  0.6029E-12  0.2050E-06  0.0000E+00  0.1463E+14
   -2.062516    4.00830  0.5590E-12  0.7822E-08  0.6843E-12  0.3722E-04  0.0000E+00 -0.2284E+12
   -2.131266    4.00895  0.5590E-12  0.8201E-08  0.7277E-12  0.3760E-04  0.0000E+00 -0.2328E+12
   -2.200016    4.00960  0.5590E-12  0.8498E-08  0.7733E-12  0.3713E-04  0.0000E+00 -0.2425E+12
   -2.268765    4.01026  0.5590E-12  0.8719E-08  0.8244E-12  0.3577E-04  0.0000E+00 -0.2591E+12
   -2.337515    4.01094  0.5590E-12  0.8870E-08  0.8876E-12  0.3337E-04  0.0000E+00 -0.2862E+12
   -2.406263    4.01167  0.5590E-12  0.8942E-08  0.9723E-12  0.2975E-04  0.0000E+00 -0.3317E+12
   -2.475011    4.01249  0.5590E-12  0.8913E-08  0.1100E-11  0.2468E-04  0.0000E+00 -0.4151E+12
   -2.543759    4.01348  0.5590E-12  0.8724E-08  0.1326E-11  0.1795E-04  0.0000E+00 -0.5986E+12
   -2.612506    4.01486  0.5590E-12  0.8191E-08  0.1876E-11  0.9542E-05  0.0000E+00 -0.1215E+13
   -2.681252    4.01745  0.5590E-12  0.5891E-08  0.5240E-11  0.1245E-05  0.0000E+00 -0.1216E+14
   -2.749998    4.03654  0.5590E-12  0.0000E+00  0.0000E+00  0.0000E+00  0.0000E+00  0.0000E+00
