 1 - depth, m
 2 - temperature, C
 3 - salinity, kg/kg
 4 - turbulent kinetic energy, m**2/s**2
 5 - dissipation rate, m**2/s**3
 6 - kinematic heat conductance, m**2/s
 7 - modulus of horizontal velocity, m/s
 8 - Richardson number, n/d
   -0.000000   -0.00000  0.1541E-11  0.1219E-13  0.7603E-17  0.1000E-09  0.0000E+00  0.6134E+16
   -0.068746    0.09319  0.1072E-10  0.1219E-13  0.7603E-17  0.1000E-09  0.0000E+00  0.6077E+16
   -0.137493    0.18792  0.1993E-10  0.1219E-13  0.7603E-17  0.1000E-09  0.0000E+00  0.6009E+16
   -0.206240    0.28412  0.2518E-10  0.1219E-13  0.7603E-17  0.1000E-09  0.0000E+00  0.5928E+16
   -0.274988    0.38170  0.2657E-10  0.1219E-13  0.7603E-17  0.1000E-09  0.0000E+00  0.5835E+16
   -0.343736    0.48058  0.2570E-10  0.1219E-13  0.7603E-17  0.1000E-09  0.0000E+00  0.5730E+16
   -0.412485    0.58063  0.2406E-10  0.1219E-13  0.7603E-17  0.1000E-09  0.0000E+00  0.5613E+16
   -0.481234    0.68175  0.2249E-10  0.1219E-13  0.7603E-17  0.1000E-09  0.0000E+00  0.5485E+16
   -0.549984    0.78382  0.2133E-10  0.1219E-13  0.7603E-17  0.1000E-09  0.0000E+00  0.5347E+16
   -0.618734    0.88673  0.2059E-10  0.1219E-13  0.7603E-17  0.1000E-09  0.0000E+00  0.5199E+16
   -0.687485    0.99037  0.2018E-10  0.1219E-13  0.7603E-17  0.1000E-09  0.0000E+00  0.5044E+16
   -0.756236    1.09466  0.1997E-10  0.1219E-13  0.7603E-17  0.1000E-09  0.0000E+00  0.4882E+16
   -0.824987    1.19949  0.1987E-10  0.1219E-13  0.7603E-17  0.1000E-09  0.0000E+00  0.4713E+16
   -0.893738    1.30478  0.1982E-10  0.1219E-13  0.7603E-17  0.1000E-09  0.0000E+00  0.4540E+16
   -0.962490    1.41044  0.1980E-10  0.1219E-13  0.7603E-17  0.1000E-09  0.0000E+00  0.4361E+16
   -1.031242    1.51639  0.1978E-10  0.1219E-13  0.7603E-17  0.1000E-09  0.0000E+00  0.4179E+16
   -1.099994    1.62256  0.1976E-10  0.1219E-13  0.7603E-17  0.1000E-09  0.0000E+00  0.3994E+16
   -1.168747    1.72887  0.1973E-10  0.1219E-13  0.7603E-17  0.1000E-09  0.0000E+00  0.3807E+16
   -1.237499    1.83528  0.1969E-10  0.1219E-13  0.7603E-17  0.1000E-09  0.0000E+00  0.3618E+16
   -1.306251    1.94172  0.1964E-10  0.1219E-13  0.7603E-17  0.1000E-09  0.0000E+00  0.3428E+16
   -1.375004    2.04817  0.1959E-10  0.1219E-13  0.7603E-17  0.1000E-09  0.0000E+00  0.3239E+16
   -1.443756    2.15460  0.1954E-10  0.1219E-13  0.7603E-17  0.1000E-09  0.0000E+00  0.3051E+16
   -1.512509    2.26103  0.1948E-10  0.1219E-13  0.7603E-17  0.1000E-09  0.0000E+00  0.2862E+16
   -1.581261    2.36742  0.1943E-10  0.1219E-13  0.7603E-17  0.1000E-09  0.0000E+00  0.2674E+16
   -1.650013    2.47376  0.1939E-10  0.1219E-13  0.7603E-17  0.1000E-09  0.0000E+00  0.2487E+16
   -1.718766    2.58005  0.1935E-10  0.1219E-13  0.7603E-17  0.1000E-09  0.0000E+00  0.2300E+16
   -1.787518    2.68625  0.1932E-10  0.1219E-13  0.7603E-17  0.1000E-09  0.0000E+00  0.2097E+16
   -1.856269    2.79144  0.1930E-10  0.1219E-13  0.7603E-17  0.1000E-09  0.0000E+00  0.1896E+16
   -1.925021    2.89541  0.1928E-10  0.1219E-13  0.7603E-17  0.1000E-09  0.0000E+00  0.1697E+16
   -1.993772    2.99787  0.1926E-10  0.1219E-13  0.7603E-17  0.1000E-09  0.0000E+00  0.1505E+16
   -2.062523    3.09882  0.1924E-10  0.1219E-13  0.7603E-17  0.1000E-09  0.0000E+00  0.1338E+16
   -2.131274    3.19952  0.1922E-10  0.1219E-13  0.7603E-17  0.1000E-09  0.0000E+00  0.1174E+16
   -2.200024    3.30014  0.1921E-10  0.1219E-13  0.7603E-17  0.1000E-09  0.0000E+00  0.1012E+16
   -2.268774    3.40070  0.1920E-10  0.1219E-13  0.7603E-17  0.1000E-09  0.0000E+00  0.8497E+15
   -2.337523    3.50117  0.1919E-10  0.1704E-13  0.1367E-16  0.1000E-09  0.0000E+00  0.6884E+15
   -2.406272    3.60150  0.1918E-10  0.1161E-12  0.9248E-16  0.1000E-09  0.0000E+00  0.5280E+15
   -2.475020    3.70166  0.1918E-10  0.8807E-12  0.6826E-15  0.1000E-09  0.0000E+00  0.3686E+15
   -2.543768    3.80154  0.1918E-10  0.6698E-11  0.5089E-14  0.1094E-09  0.0000E+00  0.2108E+15
   -2.612515    3.90093  0.1918E-10  0.5233E-10  0.3971E-13  0.2483E-08  0.0000E+00  0.5616E+14
   -2.681262    3.99752  0.1918E-10  0.4249E-09  0.3539E-12  0.1865E-06  0.0000E+00 -0.1954E+14
   -2.750008    4.03751  0.1918E-10  0.0000E+00  0.0000E+00  0.0000E+00  0.0000E+00  0.0000E+00
