 1 - depth, m
 2 - temperature, C
 3 - salinity, kg/kg
 4 - turbulent kinetic energy, m**2/s**2
 5 - dissipation rate, m**2/s**3
 6 - kinematic heat conductance, m**2/s
 7 - modulus of horizontal velocity, m/s
 8 - Richardson number, n/d
   -0.000000   -0.00000  0.4778E-11  0.1219E-13  0.7603E-17  0.1000E-09  0.0000E+00  0.8139E+16
   -0.068746    0.12415  0.2938E-11  0.1219E-13  0.7603E-17  0.1000E-09  0.0000E+00  0.7812E+16
   -0.137492    0.24747  0.2108E-11  0.1219E-13  0.7603E-17  0.1000E-09  0.0000E+00  0.7507E+16
   -0.206239    0.37018  0.1806E-11  0.1219E-13  0.7603E-17  0.1000E-09  0.0000E+00  0.7219E+16
   -0.274987    0.49252  0.1712E-11  0.1219E-13  0.7603E-17  0.1000E-09  0.0000E+00  0.6949E+16
   -0.343735    0.61472  0.1686E-11  0.1219E-13  0.7603E-17  0.1000E-09  0.0000E+00  0.6692E+16
   -0.412483    0.73699  0.1680E-11  0.1219E-13  0.7603E-17  0.1000E-09  0.0000E+00  0.6447E+16
   -0.481232    0.85957  0.1679E-11  0.1219E-13  0.7603E-17  0.1000E-09  0.0000E+00  0.6212E+16
   -0.549982    0.98267  0.1679E-11  0.1219E-13  0.7603E-17  0.1000E-09  0.0000E+00  0.5984E+16
   -0.618732    1.10647  0.1679E-11  0.1219E-13  0.7603E-17  0.1000E-09  0.0000E+00  0.5761E+16
   -0.687482    1.23117  0.1679E-11  0.1219E-13  0.7603E-17  0.1000E-09  0.0000E+00  0.5549E+16
   -0.756233    1.35716  0.1678E-11  0.1219E-13  0.7603E-17  0.1000E-09  0.0000E+00  0.5343E+16
   -0.824984    1.48471  0.1678E-11  0.1219E-13  0.7603E-17  0.1000E-09  0.0000E+00  0.5132E+16
   -0.893735    1.61396  0.1678E-11  0.1219E-13  0.7603E-17  0.1000E-09  0.0000E+00  0.4914E+16
   -0.962487    1.74500  0.1678E-11  0.2183E-13  0.7603E-17  0.1000E-09  0.0000E+00  0.4689E+16
   -1.031239    1.87791  0.1677E-11  0.7963E-13  0.1187E-16  0.1000E-09  0.0000E+00  0.4454E+16
   -1.099990    2.01273  0.1675E-11  0.2126E-12  0.2661E-16  0.1000E-09  0.0000E+00  0.4208E+16
   -1.168742    2.14948  0.1671E-11  0.5141E-12  0.6101E-16  0.1000E-09  0.0000E+00  0.3950E+16
   -1.237495    2.28816  0.1665E-11  0.1202E-11  0.1382E-15  0.1000E-09  0.0000E+00  0.3679E+16
   -1.306247    2.42871  0.1659E-11  0.2764E-11  0.3092E-15  0.1000E-09  0.0000E+00  0.3394E+16
   -1.374999    2.57107  0.1651E-11  0.6283E-11  0.6844E-15  0.1000E-09  0.0000E+00  0.3099E+16
   -1.443751    2.71526  0.1645E-11  0.1413E-10  0.1500E-14  0.1000E-09  0.0000E+00  0.2791E+16
   -1.512504    2.86118  0.1641E-11  0.3148E-10  0.3255E-14  0.1000E-09  0.0000E+00  0.2470E+16
   -1.581256    3.00867  0.1638E-11  0.6942E-10  0.6999E-14  0.1000E-09  0.0000E+00  0.2137E+16
   -1.650008    3.15753  0.1636E-11  0.1517E-09  0.1491E-13  0.1000E-09  0.0000E+00  0.1793E+16
   -1.718760    3.30753  0.1635E-11  0.3282E-09  0.3148E-13  0.1112E-09  0.0000E+00  0.1440E+16
   -1.787511    3.45849  0.1633E-11  0.7204E-09  0.6737E-13  0.3131E-09  0.0000E+00  0.1095E+16
   -1.856263    3.61241  0.1631E-11  0.1594E-08  0.1455E-12  0.1016E-08  0.0000E+00  0.7284E+15
   -1.925014    3.76895  0.1629E-11  0.3516E-08  0.3132E-12  0.4663E-08  0.0000E+00  0.3416E+15
   -1.993765    3.92523  0.1628E-11  0.7267E-08  0.6369E-12  0.1304E-06  0.0000E+00  0.2452E+14
   -2.062516    4.01083  0.1628E-11  0.8169E-08  0.7201E-12  0.3874E-04  0.0000E+00 -0.2323E+12
   -2.131266    4.01142  0.1628E-11  0.8547E-08  0.7637E-12  0.3901E-04  0.0000E+00 -0.2363E+12
   -2.200016    4.01202  0.1628E-11  0.8841E-08  0.8097E-12  0.3842E-04  0.0000E+00 -0.2457E+12
   -2.268766    4.01262  0.1628E-11  0.9057E-08  0.8612E-12  0.3694E-04  0.0000E+00 -0.2619E+12
   -2.337515    4.01325  0.1628E-11  0.9202E-08  0.9250E-12  0.3440E-04  0.0000E+00 -0.2886E+12
   -2.406263    4.01392  0.1628E-11  0.9266E-08  0.1011E-11  0.3063E-04  0.0000E+00 -0.3334E+12
   -2.475012    4.01468  0.1628E-11  0.9226E-08  0.1141E-11  0.2538E-04  0.0000E+00 -0.4157E+12
   -2.543759    4.01560  0.1628E-11  0.9022E-08  0.1372E-11  0.1845E-04  0.0000E+00 -0.5965E+12
   -2.612506    4.01688  0.1628E-11  0.8465E-08  0.1933E-11  0.9814E-05  0.0000E+00 -0.1201E+13
   -2.681252    4.01929  0.1628E-11  0.6070E-08  0.5400E-11  0.1264E-05  0.0000E+00 -0.1185E+14
   -2.749998    4.03732  0.1628E-11  0.0000E+00  0.0000E+00  0.0000E+00  0.0000E+00  0.0000E+00
