 1 - depth, m
 2 - temperature, C
 3 - salinity, kg/kg
 4 - turbulent kinetic energy, m**2/s**2
 5 - dissipation rate, m**2/s**3
 6 - kinematic heat conductance, m**2/s
 7 - modulus of horizontal velocity, m/s
 8 - Richardson number, n/d
   -0.000000   -0.00000  0.2164E-11  0.1219E-13  0.7603E-17  0.1000E-09  0.0000E+00  0.8094E+16
   -0.068746    0.12347  0.1294E-11  0.1219E-13  0.7603E-17  0.1000E-09  0.0000E+00  0.7766E+16
   -0.137492    0.24602  0.9321E-12  0.1219E-13  0.7603E-17  0.1000E-09  0.0000E+00  0.7462E+16
   -0.206239    0.36794  0.8055E-12  0.1219E-13  0.7603E-17  0.1000E-09  0.0000E+00  0.7180E+16
   -0.274987    0.48951  0.7677E-12  0.1219E-13  0.7603E-17  0.1000E-09  0.0000E+00  0.6917E+16
   -0.343735    0.61102  0.7578E-12  0.1219E-13  0.7603E-17  0.1000E-09  0.0000E+00  0.6671E+16
   -0.412483    0.73275  0.7555E-12  0.1219E-13  0.7603E-17  0.1000E-09  0.0000E+00  0.6438E+16
   -0.481232    0.85499  0.7551E-12  0.1219E-13  0.7603E-17  0.1000E-09  0.0000E+00  0.6217E+16
   -0.549982    0.97800  0.7550E-12  0.1219E-13  0.7603E-17  0.1000E-09  0.0000E+00  0.6004E+16
   -0.618732    1.10202  0.7549E-12  0.1219E-13  0.7603E-17  0.1000E-09  0.0000E+00  0.5796E+16
   -0.687482    1.22728  0.7549E-12  0.1219E-13  0.7603E-17  0.1000E-09  0.0000E+00  0.5600E+16
   -0.756233    1.35424  0.7549E-12  0.1219E-13  0.7603E-17  0.1000E-09  0.0000E+00  0.5407E+16
   -0.824984    1.48322  0.7549E-12  0.1219E-13  0.7603E-17  0.1000E-09  0.0000E+00  0.5208E+16
   -0.893735    1.61437  0.7548E-12  0.5652E-13  0.8788E-17  0.1000E-09  0.0000E+00  0.5001E+16
   -0.962487    1.74780  0.7546E-12  0.1565E-12  0.1810E-16  0.1000E-09  0.0000E+00  0.4782E+16
   -1.031238    1.88362  0.7541E-12  0.3711E-12  0.3977E-16  0.1000E-09  0.0000E+00  0.4550E+16
   -1.099990    2.02188  0.7531E-12  0.8375E-12  0.8663E-16  0.1000E-09  0.0000E+00  0.4304E+16
   -1.168742    2.16259  0.7513E-12  0.1852E-11  0.1864E-15  0.1000E-09  0.0000E+00  0.4041E+16
   -1.237495    2.30574  0.7486E-12  0.4047E-11  0.3971E-15  0.1000E-09  0.0000E+00  0.3761E+16
   -1.306247    2.45126  0.7453E-12  0.8755E-11  0.8378E-15  0.1000E-09  0.0000E+00  0.3463E+16
   -1.374999    2.59908  0.7419E-12  0.1877E-10  0.1752E-14  0.1000E-09  0.0000E+00  0.3151E+16
   -1.443751    2.74919  0.7391E-12  0.3988E-10  0.3634E-14  0.1000E-09  0.0000E+00  0.2821E+16
   -1.512503    2.90148  0.7371E-12  0.8399E-10  0.7473E-14  0.1000E-09  0.0000E+00  0.2475E+16
   -1.581255    3.05574  0.7359E-12  0.1754E-09  0.1524E-13  0.1000E-09  0.0000E+00  0.2112E+16
   -1.650008    3.21174  0.7351E-12  0.3634E-09  0.3084E-13  0.1000E-09  0.0000E+00  0.1735E+16
   -1.718759    3.36920  0.7345E-12  0.7466E-09  0.6190E-13  0.2337E-09  0.0000E+00  0.1348E+16
   -1.787511    3.52780  0.7338E-12  0.1555E-08  0.1260E-12  0.6652E-09  0.0000E+00  0.9636E+15
   -1.856263    3.68974  0.7328E-12  0.3269E-08  0.2588E-12  0.2379E-08  0.0000E+00  0.5534E+15
   -1.925014    3.85384  0.7321E-12  0.6806E-08  0.5274E-12  0.1984E-07  0.0000E+00  0.1351E+15
   -1.993765    4.00420  0.7319E-12  0.7582E-08  0.5906E-12  0.3932E-04  0.0000E+00 -0.1789E+12
   -2.062516    4.00482  0.7319E-12  0.7916E-08  0.6242E-12  0.4004E-04  0.0000E+00 -0.1824E+12
   -2.131266    4.00544  0.7319E-12  0.8190E-08  0.6599E-12  0.3991E-04  0.0000E+00 -0.1891E+12
   -2.200016    4.00606  0.7319E-12  0.8406E-08  0.6992E-12  0.3899E-04  0.0000E+00 -0.2000E+12
   -2.268765    4.00670  0.7319E-12  0.8564E-08  0.7448E-12  0.3723E-04  0.0000E+00 -0.2167E+12
   -2.337515    4.00737  0.7319E-12  0.8667E-08  0.8027E-12  0.3443E-04  0.0000E+00 -0.2426E+12
   -2.406263    4.00809  0.7319E-12  0.8703E-08  0.8820E-12  0.3044E-04  0.0000E+00 -0.2851E+12
   -2.475011    4.00891  0.7319E-12  0.8650E-08  0.1003E-11  0.2502E-04  0.0000E+00 -0.3625E+12
   -2.543759    4.00991  0.7319E-12  0.8452E-08  0.1219E-11  0.1799E-04  0.0000E+00 -0.5332E+12
   -2.612506    4.01131  0.7319E-12  0.7927E-08  0.1749E-11  0.9429E-05  0.0000E+00 -0.1114E+13
   -2.681252    4.01401  0.7319E-12  0.5696E-08  0.5012E-11  0.1217E-05  0.0000E+00 -0.1190E+14
   -2.749998    4.03413  0.7319E-12  0.0000E+00  0.0000E+00  0.0000E+00  0.0000E+00  0.0000E+00
