 1 - depth, m
 2 - temperature, C
 3 - salinity, kg/kg
 4 - turbulent kinetic energy, m**2/s**2
 5 - dissipation rate, m**2/s**3
 6 - kinematic heat conductance, m**2/s
 7 - modulus of horizontal velocity, m/s
 8 - Richardson number, n/d
   -0.000000   -0.00000  0.3451E-11  0.1219E-13  0.7603E-17  0.1000E-09  0.0000E+00  0.5702E+16
   -0.068746    0.08655  0.1897E-11  0.1219E-13  0.7603E-17  0.1000E-09  0.0000E+00  0.5489E+16
   -0.137492    0.17183  0.1434E-11  0.1219E-13  0.7603E-17  0.1000E-09  0.0000E+00  0.5316E+16
   -0.206239    0.25641  0.1321E-11  0.1219E-13  0.7603E-17  0.1000E-09  0.0000E+00  0.5180E+16
   -0.274987    0.34083  0.1296E-11  0.1219E-13  0.7603E-17  0.1000E-09  0.0000E+00  0.5078E+16
   -0.343735    0.42566  0.1291E-11  0.1219E-13  0.7603E-17  0.1000E-09  0.0000E+00  0.5006E+16
   -0.412483    0.51145  0.1291E-11  0.1219E-13  0.7603E-17  0.1000E-09  0.0000E+00  0.4962E+16
   -0.481232    0.59875  0.1290E-11  0.1219E-13  0.7603E-17  0.1000E-09  0.0000E+00  0.4941E+16
   -0.549982    0.68810  0.1290E-11  0.1219E-13  0.7603E-17  0.1000E-09  0.0000E+00  0.4938E+16
   -0.618732    0.78004  0.1290E-11  0.1219E-13  0.7603E-17  0.1000E-09  0.0000E+00  0.4951E+16
   -0.687482    0.87510  0.1290E-11  0.1219E-13  0.7603E-17  0.1000E-09  0.0000E+00  0.4988E+16
   -0.756233    0.97405  0.1290E-11  0.1219E-13  0.7603E-17  0.1000E-09  0.0000E+00  0.5036E+16
   -0.824984    1.07756  0.1290E-11  0.1219E-13  0.7603E-17  0.1000E-09  0.0000E+00  0.5082E+16
   -0.893735    1.18607  0.1290E-11  0.1219E-13  0.7603E-17  0.1000E-09  0.0000E+00  0.5118E+16
   -0.962487    1.30000  0.1290E-11  0.1219E-13  0.7603E-17  0.1000E-09  0.0000E+00  0.5139E+16
   -1.031238    1.41972  0.1290E-11  0.5271E-13  0.9196E-17  0.1000E-09  0.0000E+00  0.5139E+16
   -1.099990    1.54556  0.1289E-11  0.1514E-12  0.2032E-16  0.1000E-09  0.0000E+00  0.5111E+16
   -1.168742    1.67779  0.1288E-11  0.3786E-12  0.4754E-16  0.1000E-09  0.0000E+00  0.5048E+16
   -1.237494    1.81663  0.1284E-11  0.9064E-12  0.1100E-15  0.1000E-09  0.0000E+00  0.4946E+16
   -1.306246    1.96222  0.1279E-11  0.2130E-11  0.2515E-15  0.1000E-09  0.0000E+00  0.4799E+16
   -1.374999    2.11465  0.1272E-11  0.4946E-11  0.5686E-15  0.1000E-09  0.0000E+00  0.4610E+16
   -1.443751    2.27425  0.1265E-11  0.1136E-10  0.1272E-14  0.1000E-09  0.0000E+00  0.4368E+16
   -1.512503    2.44104  0.1261E-11  0.2584E-10  0.2820E-14  0.1000E-09  0.0000E+00  0.4063E+16
   -1.581255    2.61479  0.1259E-11  0.5820E-10  0.6192E-14  0.1000E-09  0.0000E+00  0.3695E+16
   -1.650007    2.79515  0.1258E-11  0.1298E-09  0.1347E-13  0.1000E-09  0.0000E+00  0.3265E+16
   -1.718759    2.98167  0.1257E-11  0.2870E-09  0.2904E-13  0.1000E-09  0.0000E+00  0.2776E+16
   -1.787511    3.17389  0.1256E-11  0.6436E-09  0.6352E-13  0.1431E-09  0.0000E+00  0.2259E+16
   -1.856262    3.37405  0.1256E-11  0.1456E-08  0.1402E-12  0.4274E-09  0.0000E+00  0.1670E+16
   -1.925014    3.58207  0.1255E-11  0.3286E-08  0.3089E-12  0.1566E-08  0.0000E+00  0.1004E+16
   -1.993765    3.79701  0.1252E-11  0.7355E-08  0.6758E-12  0.1235E-07  0.0000E+00  0.2788E+15
   -2.062515    4.00398  0.1251E-11  0.8343E-08  0.7713E-12  0.3588E-04  0.0000E+00 -0.2502E+12
   -2.131266    4.00487  0.1251E-11  0.8763E-08  0.8227E-12  0.3674E-04  0.0000E+00 -0.2570E+12
   -2.200015    4.00573  0.1251E-11  0.9101E-08  0.8782E-12  0.3668E-04  0.0000E+00 -0.2701E+12
   -2.268765    4.00660  0.1251E-11  0.9362E-08  0.9416E-12  0.3565E-04  0.0000E+00 -0.2914E+12
   -2.337514    4.00750  0.1251E-11  0.9553E-08  0.1021E-11  0.3350E-04  0.0000E+00 -0.3255E+12
   -2.406263    4.00846  0.1251E-11  0.9662E-08  0.1127E-11  0.3005E-04  0.0000E+00 -0.3819E+12
   -2.475011    4.00953  0.1251E-11  0.9667E-08  0.1286E-11  0.2508E-04  0.0000E+00 -0.4849E+12
   -2.543758    4.01083  0.1251E-11  0.9507E-08  0.1567E-11  0.1837E-04  0.0000E+00 -0.7119E+12
   -2.612505    4.01262  0.1251E-11  0.8988E-08  0.2244E-11  0.9900E-05  0.0000E+00 -0.1479E+13
   -2.681252    4.01599  0.1251E-11  0.6689E-08  0.6281E-11  0.1431E-05  0.0000E+00 -0.1504E+14
   -2.749997    4.03924  0.1251E-11  0.0000E+00  0.0000E+00  0.0000E+00  0.0000E+00  0.0000E+00
