 1 - depth, m
 2 - temperature, C
 3 - salinity, kg/kg
 4 - turbulent kinetic energy, m**2/s**2
 5 - dissipation rate, m**2/s**3
 6 - kinematic heat conductance, m**2/s
 7 - modulus of horizontal velocity, m/s
 8 - Richardson number, n/d
   -0.000000   -0.00000  0.4072E-10  0.1219E-13  0.7603E-17  0.1000E-09  0.0000E+00  0.5719E+16
   -0.068746    0.08681  0.2249E-10  0.1219E-13  0.7603E-17  0.1000E-09  0.0000E+00  0.5505E+16
   -0.137492    0.17236  0.1686E-10  0.1219E-13  0.7603E-17  0.1000E-09  0.0000E+00  0.5330E+16
   -0.206239    0.25718  0.1544E-10  0.1219E-13  0.7603E-17  0.1000E-09  0.0000E+00  0.5189E+16
   -0.274986    0.34178  0.1512E-10  0.1219E-13  0.7603E-17  0.1000E-09  0.0000E+00  0.5079E+16
   -0.343735    0.42665  0.1506E-10  0.1219E-13  0.7603E-17  0.1000E-09  0.0000E+00  0.4996E+16
   -0.412483    0.51228  0.1505E-10  0.1219E-13  0.7603E-17  0.1000E-09  0.0000E+00  0.4936E+16
   -0.481232    0.59914  0.1504E-10  0.1219E-13  0.7603E-17  0.1000E-09  0.0000E+00  0.4896E+16
   -0.549982    0.68769  0.1504E-10  0.1219E-13  0.7603E-17  0.1000E-09  0.0000E+00  0.4873E+16
   -0.618732    0.77839  0.1504E-10  0.1219E-13  0.7603E-17  0.1000E-09  0.0000E+00  0.4862E+16
   -0.687482    0.87165  0.1504E-10  0.1219E-13  0.7603E-17  0.1000E-09  0.0000E+00  0.4872E+16
   -0.756233    0.96816  0.1504E-10  0.1219E-13  0.7603E-17  0.1000E-09  0.0000E+00  0.4893E+16
   -0.824984    1.06846  0.1504E-10  0.1219E-13  0.7603E-17  0.1000E-09  0.0000E+00  0.4911E+16
   -0.893735    1.17290  0.1504E-10  0.1219E-13  0.7603E-17  0.1000E-09  0.0000E+00  0.4920E+16
   -0.962486    1.28177  0.1504E-10  0.1219E-13  0.7603E-17  0.1000E-09  0.0000E+00  0.4916E+16
   -1.031238    1.39533  0.1504E-10  0.1219E-13  0.7603E-17  0.1000E-09  0.0000E+00  0.4895E+16
   -1.099990    1.51381  0.1503E-10  0.1219E-13  0.7603E-17  0.1000E-09  0.0000E+00  0.4850E+16
   -1.168742    1.63735  0.1501E-10  0.1219E-13  0.7603E-17  0.1000E-09  0.0000E+00  0.4779E+16
   -1.237494    1.76606  0.1498E-10  0.2202E-13  0.7603E-17  0.1000E-09  0.0000E+00  0.4677E+16
   -1.306246    1.89999  0.1491E-10  0.8002E-13  0.1510E-16  0.1000E-09  0.0000E+00  0.4540E+16
   -1.374998    2.03911  0.1484E-10  0.2336E-12  0.3942E-16  0.1000E-09  0.0000E+00  0.4375E+16
   -1.443750    2.18365  0.1476E-10  0.6365E-12  0.1030E-15  0.1000E-09  0.0000E+00  0.4171E+16
   -1.512503    2.33356  0.1471E-10  0.1691E-11  0.2650E-15  0.1000E-09  0.0000E+00  0.3924E+16
   -1.581255    2.48863  0.1468E-10  0.4421E-11  0.6720E-15  0.1000E-09  0.0000E+00  0.3633E+16
   -1.650007    2.64855  0.1467E-10  0.1140E-10  0.1681E-14  0.1000E-09  0.0000E+00  0.3299E+16
   -1.718759    2.81298  0.1466E-10  0.2901E-10  0.4154E-14  0.1000E-09  0.0000E+00  0.2926E+16
   -1.787510    2.98154  0.1465E-10  0.7481E-10  0.1040E-13  0.1000E-09  0.0000E+00  0.2538E+16
   -1.856262    3.15548  0.1465E-10  0.1937E-09  0.2615E-13  0.1000E-09  0.0000E+00  0.2109E+16
   -1.925013    3.33498  0.1464E-10  0.4987E-09  0.6543E-13  0.2035E-09  0.0000E+00  0.1636E+16
   -1.993764    3.52023  0.1463E-10  0.1276E-08  0.1628E-12  0.7454E-09  0.0000E+00  0.1111E+16
   -2.062515    3.71025  0.1460E-10  0.3167E-08  0.3930E-12  0.3717E-08  0.0000E+00  0.5377E+15
   -2.131265    3.89812  0.1458E-10  0.7408E-08  0.8996E-12  0.8583E-07  0.0000E+00  0.5277E+14
   -2.200015    4.01868  0.1458E-10  0.8829E-08  0.1080E-11  0.3088E-04  0.0000E+00 -0.4517E+12
   -2.268764    4.01956  0.1458E-10  0.9379E-08  0.1173E-11  0.3090E-04  0.0000E+00 -0.4651E+12
   -2.337513    4.02044  0.1458E-10  0.9788E-08  0.1278E-11  0.2975E-04  0.0000E+00 -0.4984E+12
   -2.406262    4.02136  0.1458E-10  0.1006E-07  0.1408E-11  0.2731E-04  0.0000E+00 -0.5622E+12
   -2.475010    4.02237  0.1458E-10  0.1018E-07  0.1594E-11  0.2334E-04  0.0000E+00 -0.6860E+12
   -2.543758    4.02356  0.1458E-10  0.1009E-07  0.1914E-11  0.1757E-04  0.0000E+00 -0.9632E+12
   -2.612504    4.02518  0.1458E-10  0.9583E-08  0.2667E-11  0.9844E-05  0.0000E+00 -0.1890E+13
   -2.681251    4.02817  0.1458E-10  0.7218E-08  0.7042E-11  0.1525E-05  0.0000E+00 -0.1684E+14
   -2.749996    4.04879  0.1458E-10  0.0000E+00  0.0000E+00  0.0000E+00  0.0000E+00  0.0000E+00
