 1 - depth, m
 2 - temperature, C
 3 - salinity, kg/kg
 4 - turbulent kinetic energy, m**2/s**2
 5 - dissipation rate, m**2/s**3
 6 - kinematic heat conductance, m**2/s
 7 - modulus of horizontal velocity, m/s
 8 - Richardson number, n/d
   -0.000000    8.42748  0.9622E-12  0.3020E-04  0.2997E-05  0.3417E-04  0.4720E-01 -0.5475E-02
   -0.068746    8.46610  0.9622E-12  0.2371E-04  0.7577E-06  0.8702E-04  0.2759E-01 -0.1935E-01
   -0.137492    8.47795  0.9622E-12  0.2192E-04  0.3707E-06  0.1415E-03  0.2220E-01 -0.3138E-01
   -0.206239    8.48519  0.9622E-12  0.2092E-04  0.2340E-06  0.2004E-03  0.1891E-01 -0.4450E-01
   -0.274987    8.49016  0.9622E-12  0.2021E-04  0.1678E-06  0.2626E-03  0.1663E-01 -0.5871E-01
   -0.343735    8.49385  0.9622E-12  0.1964E-04  0.1295E-06  0.3273E-03  0.1493E-01 -0.7378E-01
   -0.412484    8.49671  0.9622E-12  0.1916E-04  0.1047E-06  0.3940E-03  0.1359E-01 -0.8955E-01
   -0.481233    8.49903  0.9622E-12  0.1876E-04  0.8748E-07  0.4625E-03  0.1250E-01 -0.1054E+00
   -0.549983    8.50095  0.9622E-12  0.1842E-04  0.7500E-07  0.5360E-03  0.1159E-01 -0.1114E+00
   -0.618733    8.50257  0.9622E-12  0.1812E-04  0.6563E-07  0.6464E-03  0.1080E-01  0.8683E-01
   -0.687483    8.50390  0.9622E-12  0.1788E-04  0.5851E-07  0.9396E-03  0.1012E-01  0.6667E+02
   -0.756234    8.50491  0.9622E-12  0.1769E-04  0.5298E-07  0.1189E-02  0.9537E-02  0.1085E+03
   -0.824985    8.50566  0.9622E-12  0.1753E-04  0.4862E-07  0.1663E-02  0.9000E-02  0.1285E+03
   -0.893737    8.50615  0.9622E-12  0.1741E-04  0.4507E-07  0.1783E-02  0.8520E-02  0.1812E+02
   -0.962488    8.50659  0.9622E-12  0.1730E-04  0.4201E-07  0.1834E-02  0.8044E-02  0.2279E+02
   -1.031240    8.50701  0.9622E-12  0.1720E-04  0.3938E-07  0.1879E-02  0.7584E-02  0.2704E+02
   -1.099992    8.50741  0.9622E-12  0.1709E-04  0.3710E-07  0.1923E-02  0.7138E-02  0.3244E+02
   -1.168744    8.50779  0.9622E-12  0.1699E-04  0.3512E-07  0.1961E-02  0.6704E-02  0.3958E+02
   -1.237497    8.50816  0.9622E-12  0.1687E-04  0.3337E-07  0.1996E-02  0.6279E-02  0.4973E+02
   -1.306249    8.50852  0.9622E-12  0.1674E-04  0.3183E-07  0.2025E-02  0.5863E-02  0.6547E+02
   -1.375001    8.50887  0.9622E-12  0.1660E-04  0.3046E-07  0.2048E-02  0.5453E-02  0.9307E+02
   -1.443754    8.50921  0.9622E-12  0.1643E-04  0.2923E-07  0.2064E-02  0.5048E-02  0.1522E+03
   -1.512506    8.50954  0.9622E-12  0.1624E-04  0.2811E-07  0.2075E-02  0.4647E-02  0.3413E+03
   -1.581258    8.50986  0.9622E-12  0.1602E-04  0.2709E-07  0.2073E-02  0.4249E-02  0.4369E+05
   -1.650010    8.51018  0.9622E-12  0.1576E-04  0.2614E-07  0.2071E-02  0.3851E-02  0.5084E+05
   -1.718762    8.51050  0.9622E-12  0.1546E-04  0.2524E-07  0.2040E-02  0.3453E-02  0.1702E+05
   -1.787514    8.51081  0.9622E-12  0.1510E-04  0.2435E-07  0.2055E-02  0.3051E-02  0.3859E+02
   -1.856266    8.51112  0.9622E-12  0.1470E-04  0.2350E-07  0.2042E-02  0.2695E-02  0.8609E+01
   -1.925017    8.51143  0.9622E-12  0.1426E-04  0.2272E-07  0.2029E-02  0.2377E-02  0.3782E+01
   -1.993768    8.51174  0.9622E-12  0.1378E-04  0.2207E-07  0.2010E-02  0.2097E-02  0.2327E+01
   -2.062519    8.51206  0.9622E-12  0.1331E-04  0.2161E-07  0.1983E-02  0.1847E-02  0.1799E+01
   -2.131269    8.51237  0.9622E-12  0.1285E-04  0.2138E-07  0.1949E-02  0.1616E-02  0.1422E+01
   -2.200020    8.51268  0.9622E-12  0.1240E-04  0.2141E-07  0.1919E-02  0.1402E-02  0.1138E+01
   -2.268769    8.51300  0.9622E-12  0.1197E-04  0.2178E-07  0.1915E-02  0.1204E-02  0.8504E+00
   -2.337518    8.51331  0.9622E-12  0.1156E-04  0.2256E-07  0.1866E-02  0.1027E-02  0.6227E+00
   -2.406267    8.51363  0.9622E-12  0.1117E-04  0.2387E-07  0.1648E-02  0.8750E-03  0.4386E+00
   -2.475015    8.51399  0.9622E-12  0.1083E-04  0.2584E-07  0.1434E-02  0.7483E-03  0.3040E+00
   -2.543763    8.51440  0.9622E-12  0.1049E-04  0.2895E-07  0.1279E-02  0.6499E-03  0.4194E+00
   -2.612510    8.51485  0.9622E-12  0.9940E-05  0.3729E-07  0.5571E-03  0.5675E-03  0.7690E+03
   -2.681257    8.51590  0.9622E-12  0.6130E-05  0.1426E-06  0.3342E-04  0.4445E-03 -0.2818E+03
   -2.750002    8.53280  0.9622E-12  0.0000E+00  0.0000E+00  0.0000E+00  0.4439E-03  0.0000E+00
