 1 - depth, m
 2 - temperature, C
 3 - salinity, kg/kg
 4 - turbulent kinetic energy, m**2/s**2
 5 - dissipation rate, m**2/s**3
 6 - kinematic heat conductance, m**2/s
 7 - modulus of horizontal velocity, m/s
 8 - Richardson number, n/d
   -0.000000   -0.00000  0.5300E-10  0.1219E-13  0.7603E-17  0.1000E-09  0.0000E+00  0.5478E+16
   -0.068746    0.08310  0.2909E-10  0.1219E-13  0.7603E-17  0.1000E-09  0.0000E+00  0.5277E+16
   -0.137492    0.16498  0.2200E-10  0.1219E-13  0.7603E-17  0.1000E-09  0.0000E+00  0.5113E+16
   -0.206239    0.24615  0.2027E-10  0.1219E-13  0.7603E-17  0.1000E-09  0.0000E+00  0.4984E+16
   -0.274987    0.32710  0.1989E-10  0.1219E-13  0.7603E-17  0.1000E-09  0.0000E+00  0.4885E+16
   -0.343735    0.40834  0.1982E-10  0.1219E-13  0.7603E-17  0.1000E-09  0.0000E+00  0.4815E+16
   -0.412483    0.49036  0.1981E-10  0.1219E-13  0.7603E-17  0.1000E-09  0.0000E+00  0.4769E+16
   -0.481232    0.57367  0.1981E-10  0.1219E-13  0.7603E-17  0.1000E-09  0.0000E+00  0.4745E+16
   -0.549982    0.65875  0.1980E-10  0.1219E-13  0.7603E-17  0.1000E-09  0.0000E+00  0.4738E+16
   -0.618732    0.74606  0.1980E-10  0.1219E-13  0.7603E-17  0.1000E-09  0.0000E+00  0.4745E+16
   -0.687482    0.83607  0.1980E-10  0.1219E-13  0.7603E-17  0.1000E-09  0.0000E+00  0.4776E+16
   -0.756233    0.92948  0.1980E-10  0.1219E-13  0.7603E-17  0.1000E-09  0.0000E+00  0.4819E+16
   -0.824984    1.02688  0.1980E-10  0.1219E-13  0.7603E-17  0.1000E-09  0.0000E+00  0.4859E+16
   -0.893735    1.12862  0.1980E-10  0.1219E-13  0.7603E-17  0.1000E-09  0.0000E+00  0.4892E+16
   -0.962487    1.23504  0.1980E-10  0.1219E-13  0.7603E-17  0.1000E-09  0.0000E+00  0.4912E+16
   -1.031238    1.34642  0.1980E-10  0.1219E-13  0.7603E-17  0.1000E-09  0.0000E+00  0.4914E+16
   -1.099990    1.46298  0.1979E-10  0.1219E-13  0.7603E-17  0.1000E-09  0.0000E+00  0.4893E+16
   -1.168742    1.58491  0.1977E-10  0.1219E-13  0.7603E-17  0.1000E-09  0.0000E+00  0.4844E+16
   -1.237494    1.71231  0.1972E-10  0.2417E-13  0.7603E-17  0.1000E-09  0.0000E+00  0.4763E+16
   -1.306246    1.84523  0.1964E-10  0.8430E-13  0.1485E-16  0.1000E-09  0.0000E+00  0.4645E+16
   -1.374999    1.98366  0.1953E-10  0.2384E-12  0.3756E-16  0.1000E-09  0.0000E+00  0.4497E+16
   -1.443751    2.12782  0.1943E-10  0.6301E-12  0.9520E-16  0.1000E-09  0.0000E+00  0.4307E+16
   -1.512503    2.27764  0.1936E-10  0.1624E-11  0.2377E-15  0.1000E-09  0.0000E+00  0.4071E+16
   -1.581255    2.43289  0.1932E-10  0.4121E-11  0.5857E-15  0.1000E-09  0.0000E+00  0.3788E+16
   -1.650007    2.59322  0.1930E-10  0.1032E-10  0.1425E-14  0.1000E-09  0.0000E+00  0.3459E+16
   -1.718759    2.75824  0.1929E-10  0.2554E-10  0.3426E-14  0.1000E-09  0.0000E+00  0.3088E+16
   -1.787511    2.92750  0.1928E-10  0.6404E-10  0.8346E-14  0.1000E-09  0.0000E+00  0.2696E+16
   -1.856262    3.10190  0.1928E-10  0.1614E-09  0.2045E-13  0.1000E-09  0.0000E+00  0.2264E+16
   -1.925014    3.28147  0.1927E-10  0.4049E-09  0.4990E-13  0.1418E-09  0.0000E+00  0.1790E+16
   -1.993764    3.46628  0.1925E-10  0.1011E-08  0.1212E-12  0.4859E-09  0.0000E+00  0.1269E+16
   -2.062515    3.65540  0.1921E-10  0.2450E-08  0.2861E-12  0.2075E-08  0.0000E+00  0.7013E+15
   -2.131265    3.84378  0.1917E-10  0.5794E-08  0.6598E-12  0.2160E-07  0.0000E+00  0.1550E+15
   -2.200015    4.00991  0.1917E-10  0.7038E-08  0.8077E-12  0.2570E-04  0.0000E+00 -0.3941E+12
   -2.268765    4.01095  0.1917E-10  0.7527E-08  0.8851E-12  0.2600E-04  0.0000E+00 -0.4085E+12
   -2.337514    4.01199  0.1917E-10  0.7899E-08  0.9728E-12  0.2522E-04  0.0000E+00 -0.4421E+12
   -2.406263    4.01306  0.1917E-10  0.8156E-08  0.1083E-11  0.2324E-04  0.0000E+00 -0.5052E+12
   -2.475011    4.01424  0.1917E-10  0.8287E-08  0.1241E-11  0.1988E-04  0.0000E+00 -0.6274E+12
   -2.543758    4.01564  0.1917E-10  0.8242E-08  0.1513E-11  0.1493E-04  0.0000E+00 -0.9039E+12
   -2.612505    4.01755  0.1917E-10  0.7853E-08  0.2154E-11  0.8289E-05  0.0000E+00 -0.1854E+13
   -2.681252    4.02113  0.1917E-10  0.5989E-08  0.5771E-11  0.1348E-05  0.0000E+00 -0.1753E+14
   -2.749997    4.04506  0.1917E-10  0.0000E+00  0.0000E+00  0.0000E+00  0.0000E+00  0.0000E+00
