 1 - depth, m
 2 - temperature, C
 3 - salinity, kg/kg
 4 - turbulent kinetic energy, m**2/s**2
 5 - dissipation rate, m**2/s**3
 6 - kinematic heat conductance, m**2/s
 7 - modulus of horizontal velocity, m/s
 8 - Richardson number, n/d
   -0.000000   -0.00000  0.4258E-10  0.1219E-13  0.7603E-17  0.1000E-09  0.0000E+00  0.7016E+16
   -0.068746    0.10678  0.2469E-10  0.1219E-13  0.7603E-17  0.1000E-09  0.0000E+00  0.6743E+16
   -0.137492    0.21244  0.1797E-10  0.1219E-13  0.7603E-17  0.1000E-09  0.0000E+00  0.6498E+16
   -0.206239    0.31734  0.1580E-10  0.1219E-13  0.7603E-17  0.1000E-09  0.0000E+00  0.6279E+16
   -0.274987    0.42182  0.1522E-10  0.1219E-13  0.7603E-17  0.1000E-09  0.0000E+00  0.6083E+16
   -0.343735    0.52623  0.1508E-10  0.1219E-13  0.7603E-17  0.1000E-09  0.0000E+00  0.5907E+16
   -0.412483    0.63091  0.1505E-10  0.1219E-13  0.7603E-17  0.1000E-09  0.0000E+00  0.5747E+16
   -0.481232    0.73618  0.1504E-10  0.1219E-13  0.7603E-17  0.1000E-09  0.0000E+00  0.5600E+16
   -0.549982    0.84233  0.1504E-10  0.1219E-13  0.7603E-17  0.1000E-09  0.0000E+00  0.5463E+16
   -0.618732    0.94966  0.1504E-10  0.1219E-13  0.7603E-17  0.1000E-09  0.0000E+00  0.5332E+16
   -0.687482    1.05842  0.1504E-10  0.1219E-13  0.7603E-17  0.1000E-09  0.0000E+00  0.5217E+16
   -0.756233    1.16908  0.1504E-10  0.1219E-13  0.7603E-17  0.1000E-09  0.0000E+00  0.5107E+16
   -0.824984    1.28201  0.1504E-10  0.1219E-13  0.7603E-17  0.1000E-09  0.0000E+00  0.4992E+16
   -0.893735    1.39738  0.1504E-10  0.1219E-13  0.7603E-17  0.1000E-09  0.0000E+00  0.4869E+16
   -0.962487    1.51533  0.1504E-10  0.1219E-13  0.7603E-17  0.1000E-09  0.0000E+00  0.4737E+16
   -1.031238    1.63599  0.1503E-10  0.1219E-13  0.7603E-17  0.1000E-09  0.0000E+00  0.4591E+16
   -1.099990    1.75943  0.1502E-10  0.1219E-13  0.7603E-17  0.1000E-09  0.0000E+00  0.4431E+16
   -1.168742    1.88569  0.1499E-10  0.1219E-13  0.7603E-17  0.1000E-09  0.0000E+00  0.4254E+16
   -1.237494    2.01478  0.1495E-10  0.3892E-13  0.8024E-17  0.1000E-09  0.0000E+00  0.4059E+16
   -1.306246    2.14667  0.1489E-10  0.1165E-12  0.1826E-16  0.1000E-09  0.0000E+00  0.3845E+16
   -1.374999    2.28128  0.1482E-10  0.3096E-12  0.4541E-16  0.1000E-09  0.0000E+00  0.3615E+16
   -1.443751    2.41868  0.1475E-10  0.7899E-12  0.1119E-15  0.1000E-09  0.0000E+00  0.3366E+16
   -1.512503    2.55877  0.1471E-10  0.1978E-11  0.2718E-15  0.1000E-09  0.0000E+00  0.3095E+16
   -1.581255    2.70135  0.1468E-10  0.4884E-11  0.6521E-15  0.1000E-09  0.0000E+00  0.2804E+16
   -1.650007    2.84616  0.1467E-10  0.1191E-10  0.1546E-14  0.1000E-09  0.0000E+00  0.2495E+16
   -1.718759    2.99293  0.1466E-10  0.2872E-10  0.3625E-14  0.1000E-09  0.0000E+00  0.2169E+16
   -1.787511    3.14141  0.1465E-10  0.7019E-10  0.8612E-14  0.1000E-09  0.0000E+00  0.1851E+16
   -1.856262    3.29322  0.1464E-10  0.1725E-09  0.2059E-13  0.1000E-09  0.0000E+00  0.1512E+16
   -1.925013    3.44849  0.1463E-10  0.4224E-09  0.4906E-13  0.2173E-09  0.0000E+00  0.1149E+16
   -1.993764    3.60729  0.1461E-10  0.1029E-08  0.1164E-12  0.7816E-09  0.0000E+00  0.7576E+15
   -2.062515    3.76861  0.1459E-10  0.2435E-08  0.2684E-12  0.3969E-08  0.0000E+00  0.3437E+15
   -2.131265    3.92621  0.1459E-10  0.5353E-08  0.5791E-12  0.1243E-06  0.0000E+00  0.2320E+14
   -2.200015    4.01183  0.1459E-10  0.6474E-08  0.7062E-12  0.2551E-04  0.0000E+00 -0.3596E+12
   -2.268765    4.01271  0.1459E-10  0.6920E-08  0.7728E-12  0.2564E-04  0.0000E+00 -0.3713E+12
   -2.337514    4.01359  0.1459E-10  0.7252E-08  0.8469E-12  0.2475E-04  0.0000E+00 -0.3997E+12
   -2.406263    4.01451  0.1459E-10  0.7476E-08  0.9389E-12  0.2273E-04  0.0000E+00 -0.4537E+12
   -2.475011    4.01552  0.1459E-10  0.7579E-08  0.1070E-11  0.1938E-04  0.0000E+00 -0.5587E+12
   -2.543758    4.01672  0.1459E-10  0.7513E-08  0.1294E-11  0.1449E-04  0.0000E+00 -0.7962E+12
   -2.612505    4.01835  0.1459E-10  0.7117E-08  0.1826E-11  0.7961E-05  0.0000E+00 -0.1610E+13
   -2.681252    4.02141  0.1459E-10  0.5282E-08  0.4857E-11  0.1197E-05  0.0000E+00 -0.1519E+14
   -2.749997    4.04263  0.1459E-10  0.0000E+00  0.0000E+00  0.0000E+00  0.0000E+00  0.0000E+00
