 1 - depth, m
 2 - temperature, C
 3 - salinity, kg/kg
 4 - turbulent kinetic energy, m**2/s**2
 5 - dissipation rate, m**2/s**3
 6 - kinematic heat conductance, m**2/s
 7 - modulus of horizontal velocity, m/s
 8 - Richardson number, n/d
   -0.000000   -0.00000  0.1799E-11  0.1219E-13  0.7603E-17  0.1000E-09  0.0000E+00  0.6165E+16
   -0.068746    0.09366  0.1169E-10  0.1219E-13  0.7603E-17  0.1000E-09  0.0000E+00  0.6117E+16
   -0.137493    0.18902  0.2089E-10  0.1219E-13  0.7603E-17  0.1000E-09  0.0000E+00  0.6052E+16
   -0.206240    0.28595  0.2571E-10  0.1219E-13  0.7603E-17  0.1000E-09  0.0000E+00  0.5971E+16
   -0.274988    0.38431  0.2669E-10  0.1219E-13  0.7603E-17  0.1000E-09  0.0000E+00  0.5876E+16
   -0.343736    0.48396  0.2560E-10  0.1219E-13  0.7603E-17  0.1000E-09  0.0000E+00  0.5767E+16
   -0.412485    0.58477  0.2388E-10  0.1219E-13  0.7603E-17  0.1000E-09  0.0000E+00  0.5645E+16
   -0.481234    0.68662  0.2233E-10  0.1219E-13  0.7603E-17  0.1000E-09  0.0000E+00  0.5512E+16
   -0.549984    0.78938  0.2121E-10  0.1219E-13  0.7603E-17  0.1000E-09  0.0000E+00  0.5370E+16
   -0.618734    0.89295  0.2052E-10  0.1219E-13  0.7603E-17  0.1000E-09  0.0000E+00  0.5218E+16
   -0.687485    0.99720  0.2014E-10  0.1219E-13  0.7603E-17  0.1000E-09  0.0000E+00  0.5059E+16
   -0.756236    1.10206  0.1995E-10  0.1219E-13  0.7603E-17  0.1000E-09  0.0000E+00  0.4893E+16
   -0.824987    1.20743  0.1986E-10  0.1219E-13  0.7603E-17  0.1000E-09  0.0000E+00  0.4721E+16
   -0.893739    1.31321  0.1982E-10  0.1219E-13  0.7603E-17  0.1000E-09  0.0000E+00  0.4543E+16
   -0.962490    1.41932  0.1979E-10  0.1219E-13  0.7603E-17  0.1000E-09  0.0000E+00  0.4361E+16
   -1.031242    1.52568  0.1978E-10  0.1219E-13  0.7603E-17  0.1000E-09  0.0000E+00  0.4176E+16
   -1.099995    1.63221  0.1975E-10  0.1219E-13  0.7603E-17  0.1000E-09  0.0000E+00  0.3988E+16
   -1.168747    1.73884  0.1972E-10  0.1219E-13  0.7603E-17  0.1000E-09  0.0000E+00  0.3798E+16
   -1.237499    1.84552  0.1969E-10  0.1219E-13  0.7603E-17  0.1000E-09  0.0000E+00  0.3607E+16
   -1.306252    1.95218  0.1964E-10  0.1219E-13  0.7603E-17  0.1000E-09  0.0000E+00  0.3415E+16
   -1.375004    2.05880  0.1959E-10  0.1219E-13  0.7603E-17  0.1000E-09  0.0000E+00  0.3224E+16
   -1.443757    2.16536  0.1953E-10  0.1219E-13  0.7603E-17  0.1000E-09  0.0000E+00  0.3034E+16
   -1.512509    2.27186  0.1948E-10  0.1219E-13  0.7603E-17  0.1000E-09  0.0000E+00  0.2844E+16
   -1.581262    2.37829  0.1943E-10  0.1219E-13  0.7603E-17  0.1000E-09  0.0000E+00  0.2655E+16
   -1.650014    2.48463  0.1939E-10  0.1219E-13  0.7603E-17  0.1000E-09  0.0000E+00  0.2468E+16
   -1.718766    2.59090  0.1935E-10  0.1219E-13  0.7603E-17  0.1000E-09  0.0000E+00  0.2280E+16
   -1.787518    2.69705  0.1932E-10  0.1219E-13  0.7603E-17  0.1000E-09  0.0000E+00  0.2077E+16
   -1.856270    2.80216  0.1930E-10  0.1219E-13  0.7603E-17  0.1000E-09  0.0000E+00  0.1875E+16
   -1.925021    2.90601  0.1928E-10  0.1219E-13  0.7603E-17  0.1000E-09  0.0000E+00  0.1677E+16
   -1.993773    3.00832  0.1926E-10  0.1219E-13  0.7603E-17  0.1000E-09  0.0000E+00  0.1486E+16
   -2.062523    3.10906  0.1924E-10  0.1219E-13  0.7603E-17  0.1000E-09  0.0000E+00  0.1319E+16
   -2.131274    3.20956  0.1922E-10  0.1219E-13  0.7603E-17  0.1000E-09  0.0000E+00  0.1156E+16
   -2.200024    3.30995  0.1921E-10  0.1219E-13  0.7603E-17  0.1000E-09  0.0000E+00  0.9939E+15
   -2.268774    3.41026  0.1920E-10  0.1219E-13  0.7603E-17  0.1000E-09  0.0000E+00  0.8324E+15
   -2.337523    3.51046  0.1919E-10  0.1995E-13  0.1617E-16  0.1000E-09  0.0000E+00  0.6719E+15
   -2.406272    3.61050  0.1918E-10  0.1394E-12  0.1119E-15  0.1000E-09  0.0000E+00  0.5124E+15
   -2.475021    3.71035  0.1918E-10  0.1063E-11  0.8313E-15  0.1000E-09  0.0000E+00  0.3541E+15
   -2.543769    3.80993  0.1918E-10  0.8129E-11  0.6241E-14  0.1419E-09  0.0000E+00  0.1973E+15
   -2.612516    3.90903  0.1918E-10  0.6380E-10  0.4911E-13  0.3569E-08  0.0000E+00  0.4417E+14
   -2.681262    4.00465  0.1918E-10  0.5104E-09  0.4437E-12  0.2127E-06  0.0000E+00 -0.2120E+14
   -2.750008    4.04149  0.1918E-10  0.0000E+00  0.0000E+00  0.0000E+00  0.0000E+00  0.0000E+00
