 1 - depth, m
 2 - temperature, C
 3 - salinity, kg/kg
 4 - turbulent kinetic energy, m**2/s**2
 5 - dissipation rate, m**2/s**3
 6 - kinematic heat conductance, m**2/s
 7 - modulus of horizontal velocity, m/s
 8 - Richardson number, n/d
   -0.000000    8.53898  0.1945E-10  0.5655E-04  0.1036E-04  0.5316E-04  0.6972E-01 -0.6505E-02
   -0.068746    8.57619  0.1945E-10  0.3527E-04  0.2221E-05  0.9060E-04  0.3551E-01 -0.1847E-01
   -0.137492    8.58557  0.1945E-10  0.3038E-04  0.9142E-06  0.1350E-03  0.2850E-01 -0.1608E-01
   -0.206239    8.59169  0.1945E-10  0.2795E-04  0.4970E-06  0.1863E-03  0.2419E-01 -0.2259E-01
   -0.274987    8.59611  0.1945E-10  0.2651E-04  0.3223E-06  0.2425E-03  0.2112E-01 -0.2983E-01
   -0.343735    8.59944  0.1945E-10  0.2551E-04  0.2332E-06  0.3020E-03  0.1881E-01 -0.3772E-01
   -0.412484    8.60204  0.1945E-10  0.2474E-04  0.1808E-06  0.3637E-03  0.1699E-01 -0.4606E-01
   -0.481233    8.60415  0.1945E-10  0.2411E-04  0.1467E-06  0.4268E-03  0.1551E-01 -0.5472E-01
   -0.549983    8.60590  0.1945E-10  0.2356E-04  0.1230E-06  0.4904E-03  0.1427E-01 -0.6359E-01
   -0.618733    8.60738  0.1945E-10  0.2309E-04  0.1056E-06  0.5542E-03  0.1321E-01 -0.7258E-01
   -0.687483    8.60867  0.1945E-10  0.2267E-04  0.9248E-07  0.6178E-03  0.1229E-01 -0.8126E-01
   -0.756234    8.60979  0.1945E-10  0.2229E-04  0.8221E-07  0.6831E-03  0.1147E-01 -0.8475E-01
   -0.824985    8.61079  0.1945E-10  0.2195E-04  0.7403E-07  0.7673E-03  0.1074E-01 -0.1779E-01
   -0.893737    8.61167  0.1945E-10  0.2165E-04  0.6745E-07  0.9738E-03  0.1008E-01  0.9270E+02
   -0.962488    8.61238  0.1945E-10  0.2137E-04  0.6208E-07  0.1198E-02  0.9477E-02  0.2495E+02
   -1.031240    8.61298  0.1945E-10  0.2112E-04  0.5761E-07  0.1449E-02  0.8920E-02  0.9859E+02
   -1.099992    8.61347  0.1945E-10  0.2089E-04  0.5386E-07  0.1670E-02  0.8398E-02  0.6013E+02
   -1.168744    8.61388  0.1945E-10  0.2068E-04  0.5065E-07  0.1829E-02  0.7899E-02  0.9511E+02
   -1.237496    8.61424  0.1945E-10  0.2046E-04  0.4786E-07  0.1929E-02  0.7416E-02  0.5754E+02
   -1.306249    8.61458  0.1945E-10  0.2024E-04  0.4543E-07  0.1988E-02  0.6947E-02  0.6470E+02
   -1.375001    8.61490  0.1945E-10  0.2002E-04  0.4328E-07  0.2017E-02  0.6487E-02  0.1231E+03
   -1.443753    8.61521  0.1945E-10  0.1978E-04  0.4136E-07  0.2040E-02  0.6034E-02  0.7588E+03
   -1.512506    8.61551  0.1945E-10  0.1953E-04  0.3963E-07  0.2056E-02  0.5588E-02  0.1040E+05
   -1.581258    8.61580  0.1945E-10  0.1924E-04  0.3807E-07  0.2060E-02  0.5145E-02  0.5617E+06
   -1.650010    8.61608  0.1945E-10  0.1893E-04  0.3662E-07  0.2063E-02  0.4704E-02  0.1119E+04
   -1.718762    8.61636  0.1945E-10  0.1858E-04  0.3526E-07  0.2039E-02  0.4263E-02  0.1630E+03
   -1.787514    8.61664  0.1945E-10  0.1817E-04  0.3391E-07  0.2064E-02  0.3819E-02  0.5806E+02
   -1.856265    8.61691  0.1945E-10  0.1771E-04  0.3262E-07  0.2061E-02  0.3423E-02  0.2552E+02
   -1.925017    8.61718  0.1945E-10  0.1721E-04  0.3142E-07  0.2052E-02  0.3067E-02  0.3362E+01
   -1.993768    8.61745  0.1945E-10  0.1669E-04  0.3036E-07  0.2032E-02  0.2749E-02  0.1985E+01
   -2.062519    8.61772  0.1945E-10  0.1617E-04  0.2952E-07  0.1999E-02  0.2460E-02  0.1541E+01
   -2.131269    8.61799  0.1945E-10  0.1565E-04  0.2895E-07  0.1957E-02  0.2189E-02  0.4362E+02
   -2.200019    8.61826  0.1945E-10  0.1515E-04  0.2868E-07  0.1910E-02  0.1933E-02  0.9558E+00
   -2.268769    8.61853  0.1945E-10  0.1465E-04  0.2878E-07  0.1872E-02  0.1690E-02  0.2645E+01
   -2.337518    8.61882  0.1945E-10  0.1416E-04  0.2938E-07  0.1849E-02  0.1468E-02  0.5071E+00
   -2.406267    8.61910  0.1945E-10  0.1368E-04  0.3065E-07  0.1701E-02  0.1268E-02  0.8649E+00
   -2.475015    8.61941  0.1945E-10  0.1321E-04  0.3288E-07  0.1466E-02  0.1093E-02  0.3089E+02
   -2.543763    8.61977  0.1945E-10  0.1265E-04  0.3741E-07  0.9169E-03  0.9459E-03  0.1055E+04
   -2.612510    8.62032  0.1945E-10  0.1175E-04  0.4983E-07  0.3895E-03  0.7834E-03  0.1898E+04
   -2.681256    8.62157  0.1945E-10  0.7076E-05  0.1772E-06  0.3503E-04  0.5983E-03 -0.1326E+05
   -2.750002    8.63542  0.1945E-10  0.0000E+00  0.0000E+00  0.0000E+00  0.5973E-03  0.0000E+00
