 1 - depth, m
 2 - temperature, C
 3 - salinity, kg/kg
 4 - turbulent kinetic energy, m**2/s**2
 5 - dissipation rate, m**2/s**3
 6 - kinematic heat conductance, m**2/s
 7 - modulus of horizontal velocity, m/s
 8 - Richardson number, n/d
   -0.000000   10.43085  0.9663E-12  0.1455E-05  0.3818E-07  0.3740E-05  0.2406E-01  0.1126E+03
   -0.068746    9.80410  0.9740E-12  0.6089E-06  0.1441E-07  0.1343E-05  0.1750E-01  0.3631E+03
   -0.137492    8.78715  0.9773E-12  0.1215E-06  0.4027E-08  0.9327E-07  0.1082E-01  0.7947E+03
   -0.206239    7.40474  0.9800E-12  0.1767E-06  0.5008E-09  0.5483E-07  0.4968E-02  0.1168E+04
   -0.274987    6.19928  0.9831E-12  0.6000E-06  0.6278E-09  0.6306E-06  0.1803E-02  0.3117E+04
   -0.343735    5.76062  0.9834E-12  0.1089E-05  0.6570E-09  0.8792E-05  0.6101E-03  0.2560E+05
   -0.412484    5.62443  0.9834E-12  0.1368E-05  0.7181E-09  0.3386E-04  0.1419E-03  0.4647E+05
   -0.481233    5.61252  0.9834E-12  0.1475E-05  0.7610E-09  0.9088E-04  0.7445E-04  0.4913E+05
   -0.549983    5.61109  0.9834E-12  0.1559E-05  0.8009E-09  0.1636E-03  0.6182E-04  0.4094E+05
   -0.618733    5.61051  0.9834E-12  0.1638E-05  0.8435E-09  0.2490E-03  0.5396E-04  0.2513E+05
   -0.687484    5.61027  0.9834E-12  0.1717E-05  0.8895E-09  0.3426E-03  0.4810E-04  0.7604E+04
   -0.756235    5.61019  0.9834E-12  0.1794E-05  0.9389E-09  0.4847E-03  0.4337E-04  0.2718E+07
   -0.824986    5.61022  0.9834E-12  0.1854E-05  0.9811E-09  0.1059E-02  0.3945E-04  0.1836E+05
   -0.893737    5.61027  0.9834E-12  0.1901E-05  0.1016E-08  0.1193E-02  0.3708E-04  0.1538E+05
   -0.962489    5.61036  0.9834E-12  0.1947E-05  0.1052E-08  0.1181E-02  0.3533E-04  0.2033E+05
   -1.031241    5.61048  0.9834E-12  0.1996E-05  0.1093E-08  0.1180E-02  0.3357E-04  0.2523E+05
   -1.099993    5.61066  0.9834E-12  0.2047E-05  0.1138E-08  0.1182E-02  0.3184E-04  0.3044E+05
   -1.168745    5.61087  0.9834E-12  0.2099E-05  0.1186E-08  0.1185E-02  0.3013E-04  0.3573E+05
   -1.237497    5.61113  0.9834E-12  0.2153E-05  0.1238E-08  0.1188E-02  0.2843E-04  0.4151E+05
   -1.306249    5.61144  0.9834E-12  0.2206E-05  0.1293E-08  0.1189E-02  0.2676E-04  0.4737E+05
   -1.375002    5.61180  0.9834E-12  0.2259E-05  0.1351E-08  0.1190E-02  0.2510E-04  0.5388E+05
   -1.443754    5.61221  0.9834E-12  0.2310E-05  0.1411E-08  0.1188E-02  0.2345E-04  0.6049E+05
   -1.512507    5.61268  0.9834E-12  0.2359E-05  0.1474E-08  0.1183E-02  0.2182E-04  0.6793E+05
   -1.581259    5.61319  0.9834E-12  0.2405E-05  0.1538E-08  0.1177E-02  0.2019E-04  0.7554E+05
   -1.650011    5.61377  0.9834E-12  0.2447E-05  0.1604E-08  0.1166E-02  0.1857E-04  0.8473E+05
   -1.718763    5.61440  0.9834E-12  0.2485E-05  0.1671E-08  0.1153E-02  0.1694E-04  0.9876E+05
   -1.787515    5.61510  0.9834E-12  0.2518E-05  0.1742E-08  0.1137E-02  0.1531E-04  0.1177E+06
   -1.856267    5.61583  0.9834E-12  0.2550E-05  0.1822E-08  0.1115E-02  0.1381E-04  0.1591E+06
   -1.925018    5.61660  0.9834E-12  0.2578E-05  0.1912E-08  0.1087E-02  0.1244E-04  0.2196E+06
   -1.993769    5.61740  0.9834E-12  0.2604E-05  0.2016E-08  0.1053E-02  0.1119E-04  0.3090E+06
   -2.062520    5.61826  0.9834E-12  0.2627E-05  0.2133E-08  0.1013E-02  0.1005E-04  0.4440E+06
   -2.131270    5.61920  0.9834E-12  0.2644E-05  0.2267E-08  0.9681E-03  0.8956E-05  0.6057E+06
   -2.200021    5.62022  0.9834E-12  0.2655E-05  0.2420E-08  0.9167E-03  0.7904E-05  0.8630E+06
   -2.268770    5.62135  0.9834E-12  0.2660E-05  0.2603E-08  0.8583E-03  0.6886E-05  0.1260E+07
   -2.337519    5.62259  0.9834E-12  0.2657E-05  0.2838E-08  0.7896E-03  0.5921E-05  0.2028E+07
   -2.406268    5.62399  0.9834E-12  0.2644E-05  0.3156E-08  0.7088E-03  0.5015E-05  0.3640E+07
   -2.475016    5.62560  0.9834E-12  0.2616E-05  0.3624E-08  0.6134E-03  0.4161E-05  0.7600E+07
   -2.543764    5.62751  0.9834E-12  0.2566E-05  0.4396E-08  0.4941E-03  0.3357E-05  0.2071E+08
   -2.612511    5.62995  0.9834E-12  0.2470E-05  0.5976E-08  0.3792E-03  0.2583E-05  0.7842E+08
   -2.681258    5.63324  0.9834E-12  0.1716E-05  0.2251E-07  0.2133E-04  0.1904E-05 -0.4449E+10
   -2.750004    5.69383  0.9834E-12  0.0000E+00  0.0000E+00  0.0000E+00  0.1904E-05  0.0000E+00
