 1 - depth, m
 2 - temperature, C
 3 - salinity, kg/kg
 4 - turbulent kinetic energy, m**2/s**2
 5 - dissipation rate, m**2/s**3
 6 - kinematic heat conductance, m**2/s
 7 - modulus of horizontal velocity, m/s
 8 - Richardson number, n/d
   -0.000000   -0.00000  0.5162E-10  0.1219E-13  0.7603E-17  0.1000E-09  0.9381E-75  0.3633E+16
   -0.068746    0.05490  0.3145E-10  0.1219E-13  0.7603E-17  0.1000E-09  0.8711E-75  0.3310E+16
   -0.137492    0.10564  0.2702E-10  0.1219E-13  0.7603E-17  0.1000E-09  0.7646E-75  0.2973E+16
   -0.206239    0.15182  0.2621E-10  0.1219E-13  0.7603E-17  0.1000E-09  0.6494E-75  0.2635E+16
   -0.274987    0.19327  0.2609E-10  0.1219E-13  0.7603E-17  0.1000E-09  0.5427E-75  0.2311E+16
   -0.343735    0.23002  0.2607E-10  0.1219E-13  0.7603E-17  0.1000E-09  0.4502E-75  0.2014E+16
   -0.412483    0.26235  0.2607E-10  0.1219E-13  0.7603E-17  0.1000E-09  0.3720E-75  0.1757E+16
   -0.481233    0.29081  0.2607E-10  0.1219E-13  0.7603E-17  0.1000E-09  0.3063E-75  0.1553E+16
   -0.549982    0.31615  0.2607E-10  0.1219E-13  0.7603E-17  0.1000E-09  0.2509E-75  0.1412E+16
   -0.618732    0.33936  0.2607E-10  0.1219E-13  0.7603E-17  0.1000E-09  0.2043E-75  0.1344E+16
   -0.687483    0.36160  0.2607E-10  0.1219E-13  0.7603E-17  0.1000E-09  0.1653E-75  0.1371E+16
   -0.756233    0.38444  0.2607E-10  0.1219E-13  0.7603E-17  0.1000E-09  0.1328E-75  0.1495E+16
   -0.824984    0.40952  0.2607E-10  0.1219E-13  0.7603E-17  0.1000E-09  0.1060E-75  0.1713E+16
   -0.893736    0.43848  0.2607E-10  0.1219E-13  0.7603E-17  0.1000E-09  0.8402E-76  0.2026E+16
   -0.962487    0.47307  0.2607E-10  0.1219E-13  0.7603E-17  0.1000E-09  0.6615E-76  0.2436E+16
   -1.031239    0.51514  0.2607E-10  0.1219E-13  0.7603E-17  0.1000E-09  0.5174E-76  0.2937E+16
   -1.099991    0.56658  0.2607E-10  0.1219E-13  0.7603E-17  0.1000E-09  0.4019E-76  0.3519E+16
   -1.168743    0.62933  0.2607E-10  0.1219E-13  0.7603E-17  0.1000E-09  0.3099E-76  0.4167E+16
   -1.237495    0.70527  0.2605E-10  0.1219E-13  0.7603E-17  0.1000E-09  0.2370E-76  0.4857E+16
   -1.306247    0.79620  0.2599E-10  0.1219E-13  0.7603E-17  0.1000E-09  0.1795E-76  0.5559E+16
   -1.374999    0.90374  0.2583E-10  0.1219E-13  0.7603E-17  0.1000E-09  0.1341E-76  0.6284E+16
   -1.443752    1.03025  0.2560E-10  0.1219E-13  0.7603E-17  0.1000E-09  0.9836E-77  0.6948E+16
   -1.512504    1.17711  0.2549E-10  0.1219E-13  0.7603E-17  0.1000E-09  0.6991E-77  0.7488E+16
   -1.581256    1.34494  0.2544E-10  0.4024E-13  0.1318E-16  0.1000E-09  0.4688E-77  0.7856E+16
   -1.650008    1.53392  0.2541E-10  0.1517E-12  0.4427E-16  0.1000E-09  0.2762E-77  0.8012E+16
   -1.718760    1.74371  0.2539E-10  0.5431E-12  0.1516E-15  0.1000E-09  0.1066E-77  0.7912E+16
   -1.787512    1.97308  0.2538E-10  0.1952E-11  0.5242E-15  0.1000E-09  0.7221E-79  0.7348E+16
   -1.856263    2.21345  0.2537E-10  0.6961E-11  0.1801E-14  0.1000E-09  0.4506E-80  0.6623E+16
   -1.925015    2.46334  0.2537E-10  0.2447E-10  0.6103E-14  0.1000E-09  0.2568E-81  0.5752E+16
   -1.993766    2.72087  0.2537E-10  0.8488E-10  0.2042E-13  0.1000E-09  0.1594E-82  0.4779E+16
   -2.062516    2.98525  0.2535E-10  0.2832E-09  0.6575E-13  0.1000E-09  0.1286E-83  0.3763E+16
   -2.131267    3.25950  0.2532E-10  0.9268E-09  0.2077E-12  0.4042E-09  0.9707E-85  0.2615E+16
   -2.200017    3.54182  0.2526E-10  0.2982E-08  0.6458E-12  0.2422E-08  0.6812E-86  0.1356E+16
   -2.268766    3.82709  0.2522E-10  0.9231E-08  0.1940E-11  0.5543E-07  0.3268E-87  0.1767E+15
   -2.337515    4.03966  0.2522E-10  0.1259E-07  0.2674E-11  0.2583E-04  0.1050E-88 -0.1371E+13
   -2.406264    4.04128  0.2522E-10  0.1377E-07  0.3052E-11  0.2541E-04  0.2705E-89 -0.1455E+13
   -2.475012    4.04294  0.2522E-10  0.1453E-07  0.3516E-11  0.2305E-04  0.6297E-90 -0.1689E+13
   -2.543760    4.04482  0.2522E-10  0.1485E-07  0.4237E-11  0.1842E-04  0.1248E-90 -0.2261E+13
   -2.612507    4.04724  0.2522E-10  0.1447E-07  0.5836E-11  0.1115E-04  0.1749E-91 -0.4198E+13
   -2.681253    4.05149  0.2522E-10  0.1140E-07  0.1477E-10  0.2024E-05  0.1208E-92 -0.3387E+14
   -2.749999    4.07892  0.2522E-10  0.0000E+00  0.0000E+00  0.0000E+00  0.1276E-92  0.0000E+00
