 1 - depth, m
 2 - temperature, C
 3 - salinity, kg/kg
 4 - turbulent kinetic energy, m**2/s**2
 5 - dissipation rate, m**2/s**3
 6 - kinematic heat conductance, m**2/s
 7 - modulus of horizontal velocity, m/s
 8 - Richardson number, n/d
   -0.000000   -0.00000  0.6211E-11  0.1219E-13  0.7603E-17  0.1000E-09  0.0000E+00  0.7494E+16
   -0.068746    0.11416  0.1135E-10  0.1219E-13  0.7603E-17  0.1000E-09  0.0000E+00  0.7362E+16
   -0.137493    0.22992  0.1256E-10  0.1219E-13  0.7603E-17  0.1000E-09  0.0000E+00  0.7210E+16
   -0.206240    0.34709  0.1221E-10  0.1219E-13  0.7603E-17  0.1000E-09  0.0000E+00  0.7035E+16
   -0.274987    0.46541  0.1127E-10  0.1219E-13  0.7603E-17  0.1000E-09  0.0000E+00  0.6839E+16
   -0.343736    0.58463  0.1030E-10  0.1219E-13  0.7603E-17  0.1000E-09  0.0000E+00  0.6625E+16
   -0.412485    0.70449  0.9571E-11  0.1219E-13  0.7603E-17  0.1000E-09  0.0000E+00  0.6398E+16
   -0.481234    0.82479  0.9120E-11  0.1219E-13  0.7603E-17  0.1000E-09  0.0000E+00  0.6159E+16
   -0.549984    0.94535  0.8879E-11  0.1219E-13  0.7603E-17  0.1000E-09  0.0000E+00  0.5913E+16
   -0.618734    1.06601  0.8762E-11  0.1219E-13  0.7603E-17  0.1000E-09  0.0000E+00  0.5660E+16
   -0.687485    1.18664  0.8711E-11  0.1219E-13  0.7603E-17  0.1000E-09  0.0000E+00  0.5406E+16
   -0.756235    1.30716  0.8689E-11  0.1219E-13  0.7603E-17  0.1000E-09  0.0000E+00  0.5150E+16
   -0.824987    1.42749  0.8679E-11  0.1219E-13  0.7603E-17  0.1000E-09  0.0000E+00  0.4893E+16
   -0.893738    1.54755  0.8672E-11  0.1219E-13  0.7603E-17  0.1000E-09  0.0000E+00  0.4635E+16
   -0.962490    1.66725  0.8665E-11  0.1219E-13  0.7603E-17  0.1000E-09  0.0000E+00  0.4378E+16
   -1.031242    1.78653  0.8655E-11  0.1219E-13  0.7603E-17  0.1000E-09  0.0000E+00  0.4123E+16
   -1.099994    1.90533  0.8642E-11  0.1219E-13  0.7603E-17  0.1000E-09  0.0000E+00  0.3869E+16
   -1.168746    2.02359  0.8624E-11  0.1219E-13  0.7603E-17  0.1000E-09  0.0000E+00  0.3618E+16
   -1.237499    2.14126  0.8602E-11  0.1219E-13  0.7603E-17  0.1000E-09  0.0000E+00  0.3370E+16
   -1.306251    2.25829  0.8578E-11  0.1219E-13  0.7603E-17  0.1000E-09  0.0000E+00  0.3126E+16
   -1.375003    2.37464  0.8552E-11  0.1219E-13  0.7603E-17  0.1000E-09  0.0000E+00  0.2886E+16
   -1.443756    2.49032  0.8527E-11  0.1219E-13  0.7603E-17  0.1000E-09  0.0000E+00  0.2651E+16
   -1.512508    2.60531  0.8505E-11  0.1219E-13  0.7603E-17  0.1000E-09  0.0000E+00  0.2421E+16
   -1.581261    2.71961  0.8486E-11  0.1219E-13  0.7603E-17  0.1000E-09  0.0000E+00  0.2195E+16
   -1.650013    2.83321  0.8470E-11  0.3478E-13  0.7930E-17  0.1000E-09  0.0000E+00  0.1974E+16
   -1.718765    2.94613  0.8458E-11  0.1075E-12  0.1892E-16  0.1000E-09  0.0000E+00  0.1757E+16
   -1.787517    3.05835  0.8448E-11  0.3079E-12  0.5085E-16  0.1000E-09  0.0000E+00  0.1532E+16
   -1.856269    3.16886  0.8441E-11  0.8626E-12  0.1374E-15  0.1000E-09  0.0000E+00  0.1313E+16
   -1.925020    3.27740  0.8434E-11  0.2386E-11  0.3684E-15  0.1000E-09  0.0000E+00  0.1102E+16
   -1.993771    3.38358  0.8429E-11  0.6544E-11  0.9802E-15  0.1000E-09  0.0000E+00  0.9035E+15
   -2.062522    3.48738  0.8425E-11  0.1739E-10  0.2529E-14  0.1000E-09  0.0000E+00  0.7288E+15
   -2.131273    3.59065  0.8423E-11  0.4554E-10  0.6431E-14  0.1000E-09  0.0000E+00  0.5584E+15
   -2.200023    3.69366  0.8421E-11  0.1180E-09  0.1619E-13  0.2110E-09  0.0000E+00  0.3898E+15
   -2.268773    3.79641  0.8421E-11  0.3054E-09  0.4072E-13  0.9280E-09  0.0000E+00  0.2227E+15
   -2.337522    3.89860  0.8420E-11  0.7947E-09  0.1031E-12  0.8710E-08  0.0000E+00  0.5964E+14
   -2.406271    3.99552  0.8420E-11  0.1493E-08  0.1941E-12  0.4703E-05  0.0000E+00 -0.5010E+12
   -2.475019    3.99852  0.8420E-11  0.1800E-08  0.2567E-12  0.5013E-05  0.0000E+00 -0.5948E+12
   -2.543767    4.00131  0.8420E-11  0.1980E-08  0.3400E-12  0.4295E-05  0.0000E+00 -0.8390E+12
   -2.612514    4.00454  0.8420E-11  0.1981E-08  0.5025E-12  0.2564E-05  0.0000E+00 -0.1714E+13
   -2.681261    4.00979  0.8420E-11  0.1536E-08  0.1177E-11  0.4786E-06  0.0000E+00 -0.1230E+14
   -2.750007    4.03237  0.8420E-11  0.0000E+00  0.0000E+00  0.0000E+00  0.0000E+00  0.0000E+00
