 1 - depth, m
 2 - temperature, C
 3 - salinity, kg/kg
 4 - turbulent kinetic energy, m**2/s**2
 5 - dissipation rate, m**2/s**3
 6 - kinematic heat conductance, m**2/s
 7 - modulus of horizontal velocity, m/s
 8 - Richardson number, n/d
   -0.000000   -0.00000  0.3390E-11  0.1219E-13  0.7603E-17  0.1000E-09  0.1737E-54  0.4230E+16
   -0.068746    0.06401  0.1960E-11  0.1219E-13  0.7603E-17  0.1000E-09  0.1582E-54  0.3716E+16
   -0.137492    0.12117  0.1727E-11  0.1219E-13  0.7603E-17  0.1000E-09  0.1367E-54  0.3185E+16
   -0.206239    0.17090  0.1685E-11  0.1219E-13  0.7603E-17  0.1000E-09  0.1151E-54  0.2667E+16
   -0.274987    0.21307  0.1679E-11  0.1219E-13  0.7603E-17  0.1000E-09  0.9571E-55  0.2183E+16
   -0.343735    0.24796  0.1679E-11  0.1219E-13  0.7603E-17  0.1000E-09  0.7931E-55  0.1749E+16
   -0.412483    0.27617  0.1679E-11  0.1219E-13  0.7603E-17  0.1000E-09  0.6557E-55  0.1379E+16
   -0.481232    0.29858  0.1679E-11  0.1219E-13  0.7603E-17  0.1000E-09  0.5402E-55  0.1082E+16
   -0.549982    0.31627  0.1679E-11  0.1219E-13  0.7603E-17  0.1000E-09  0.4428E-55  0.8658E+15
   -0.618732    0.33048  0.1679E-11  0.1219E-13  0.7603E-17  0.1000E-09  0.3606E-55  0.7349E+15
   -0.687482    0.34259  0.1679E-11  0.1219E-13  0.7603E-17  0.1000E-09  0.2917E-55  0.7043E+15
   -0.756233    0.35424  0.1679E-11  0.1219E-13  0.7603E-17  0.1000E-09  0.2343E-55  0.7755E+15
   -0.824984    0.36711  0.1679E-11  0.1219E-13  0.7603E-17  0.1000E-09  0.1869E-55  0.9487E+15
   -0.893735    0.38293  0.1679E-11  0.1219E-13  0.7603E-17  0.1000E-09  0.1481E-55  0.1231E+16
   -0.962487    0.40356  0.1679E-11  0.1219E-13  0.7603E-17  0.1000E-09  0.1166E-55  0.1629E+16
   -1.031238    0.43105  0.1679E-11  0.1219E-13  0.7603E-17  0.1000E-09  0.9119E-56  0.2147E+16
   -1.099990    0.46764  0.1678E-11  0.1219E-13  0.7603E-17  0.1000E-09  0.7082E-56  0.2785E+16
   -1.168742    0.51571  0.1678E-11  0.1219E-13  0.7603E-17  0.1000E-09  0.5461E-56  0.3537E+16
   -1.237494    0.57780  0.1677E-11  0.1219E-13  0.7603E-17  0.1000E-09  0.4176E-56  0.4386E+16
   -1.306247    0.65647  0.1674E-11  0.1219E-13  0.7603E-17  0.1000E-09  0.3162E-56  0.5302E+16
   -1.374999    0.75428  0.1663E-11  0.1219E-13  0.7603E-17  0.1000E-09  0.2363E-56  0.6306E+16
   -1.443751    0.87483  0.1648E-11  0.3968E-13  0.1055E-16  0.1000E-09  0.1733E-56  0.7289E+16
   -1.512503    1.02061  0.1641E-11  0.1340E-12  0.3013E-16  0.1000E-09  0.1231E-56  0.8156E+16
   -1.581255    1.19320  0.1638E-11  0.4194E-12  0.8982E-16  0.1000E-09  0.8255E-57  0.8830E+16
   -1.650007    1.39360  0.1637E-11  0.1274E-11  0.2635E-15  0.1000E-09  0.4863E-57  0.9232E+16
   -1.718759    1.62206  0.1635E-11  0.3801E-11  0.7605E-15  0.1000E-09  0.1875E-57  0.9277E+16
   -1.787511    1.87747  0.1635E-11  0.1148E-10  0.2222E-14  0.1000E-09  0.1269E-58  0.8631E+16
   -1.856263    2.14791  0.1634E-11  0.3465E-10  0.6495E-14  0.1000E-09  0.7916E-60  0.7755E+16
   -1.925014    2.43187  0.1634E-11  0.1037E-09  0.1883E-13  0.1000E-09  0.4509E-61  0.6660E+16
   -1.993765    2.72737  0.1634E-11  0.3076E-09  0.5415E-13  0.1000E-09  0.2796E-62  0.5403E+16
   -2.062515    3.03379  0.1633E-11  0.8833E-09  0.1508E-12  0.1907E-09  0.2254E-63  0.4035E+16
   -2.131266    3.35481  0.1631E-11  0.2497E-08  0.4135E-12  0.8665E-09  0.1701E-64  0.2438E+16
   -2.200016    3.68625  0.1626E-11  0.6945E-08  0.1117E-11  0.8131E-08  0.1192E-65  0.7040E+15
   -2.268765    4.00878  0.1623E-11  0.9130E-08  0.1483E-11  0.2273E-04  0.4520E-67 -0.7766E+12
   -2.337514    4.01090  0.1623E-11  0.1001E-07  0.1687E-11  0.2349E-04  0.1104E-67 -0.8295E+12
   -2.406263    4.01298  0.1623E-11  0.1068E-07  0.1932E-11  0.2271E-04  0.2546E-68 -0.9446E+12
   -2.475011    4.01516  0.1623E-11  0.1114E-07  0.2269E-11  0.2022E-04  0.5196E-69 -0.1175E+13
   -2.543759    4.01766  0.1623E-11  0.1136E-07  0.2825E-11  0.1581E-04  0.8813E-70 -0.1698E+13
   -2.612506    4.02096  0.1623E-11  0.1112E-07  0.4092E-11  0.9294E-05  0.1018E-70 -0.3476E+13
   -2.681252    4.02687  0.1623E-11  0.9154E-08  0.1087E-10  0.1864E-05  0.5549E-72 -0.2996E+14
   -2.749998    4.06030  0.1623E-11  0.0000E+00  0.0000E+00  0.0000E+00  0.5870E-72  0.0000E+00
