 1 - depth, m
 2 - temperature, C
 3 - salinity, kg/kg
 4 - turbulent kinetic energy, m**2/s**2
 5 - dissipation rate, m**2/s**3
 6 - kinematic heat conductance, m**2/s
 7 - modulus of horizontal velocity, m/s
 8 - Richardson number, n/d
   -0.000000   -0.00000  0.1170E-12  0.1219E-13  0.7603E-17  0.1000E-09  0.0000E+00  0.6046E+16
   -0.068748    0.09182  0.5408E-11  0.1219E-13  0.7603E-17  0.1000E-09  0.0000E+00  0.6068E+16
   -0.137497    0.18636  0.1126E-10  0.1219E-13  0.7603E-17  0.1000E-09  0.0000E+00  0.6038E+16
   -0.206246    0.28299  0.1482E-10  0.1219E-13  0.7603E-17  0.1000E-09  0.0000E+00  0.5982E+16
   -0.274996    0.38145  0.1581E-10  0.1219E-13  0.7603E-17  0.1000E-09  0.0000E+00  0.5907E+16
   -0.343746    0.48155  0.1522E-10  0.1219E-13  0.7603E-17  0.1000E-09  0.0000E+00  0.5815E+16
   -0.412497    0.58314  0.1410E-10  0.1219E-13  0.7603E-17  0.1000E-09  0.0000E+00  0.5707E+16
   -0.481249    0.68607  0.1305E-10  0.1219E-13  0.7603E-17  0.1000E-09  0.0000E+00  0.5585E+16
   -0.550001    0.79019  0.1230E-10  0.1219E-13  0.7603E-17  0.1000E-09  0.0000E+00  0.5451E+16
   -0.618753    0.89537  0.1183E-10  0.1219E-13  0.7603E-17  0.1000E-09  0.0000E+00  0.5305E+16
   -0.687506    1.00148  0.1158E-10  0.1219E-13  0.7603E-17  0.1000E-09  0.0000E+00  0.5148E+16
   -0.756259    1.10840  0.1145E-10  0.1219E-13  0.7603E-17  0.1000E-09  0.0000E+00  0.4983E+16
   -0.825012    1.21601  0.1140E-10  0.1219E-13  0.7603E-17  0.1000E-09  0.0000E+00  0.4810E+16
   -0.893766    1.32421  0.1137E-10  0.1219E-13  0.7603E-17  0.1000E-09  0.0000E+00  0.4631E+16
   -0.962519    1.43290  0.1136E-10  0.1219E-13  0.7603E-17  0.1000E-09  0.0000E+00  0.4446E+16
   -1.031273    1.54200  0.1135E-10  0.1219E-13  0.7603E-17  0.1000E-09  0.0000E+00  0.4257E+16
   -1.100028    1.65142  0.1134E-10  0.1219E-13  0.7603E-17  0.1000E-09  0.0000E+00  0.4064E+16
   -1.168782    1.76111  0.1132E-10  0.1219E-13  0.7603E-17  0.1000E-09  0.0000E+00  0.3868E+16
   -1.237537    1.87099  0.1131E-10  0.1219E-13  0.7603E-17  0.1000E-09  0.0000E+00  0.3671E+16
   -1.306291    1.98102  0.1129E-10  0.1219E-13  0.7603E-17  0.1000E-09  0.0000E+00  0.3472E+16
   -1.375046    2.09116  0.1127E-10  0.1219E-13  0.7603E-17  0.1000E-09  0.0000E+00  0.3273E+16
   -1.443800    2.20143  0.1124E-10  0.1219E-13  0.7603E-17  0.1000E-09  0.0000E+00  0.3075E+16
   -1.512555    2.31183  0.1121E-10  0.1219E-13  0.7603E-17  0.1000E-09  0.0000E+00  0.2877E+16
   -1.581309    2.42234  0.1119E-10  0.1219E-13  0.7603E-17  0.1000E-09  0.0000E+00  0.2679E+16
   -1.650064    2.53299  0.1116E-10  0.1219E-13  0.7603E-17  0.1000E-09  0.0000E+00  0.2482E+16
   -1.718818    2.64381  0.1114E-10  0.1219E-13  0.7603E-17  0.1000E-09  0.0000E+00  0.2284E+16
   -1.787572    2.75482  0.1113E-10  0.1219E-13  0.7603E-17  0.1000E-09  0.0000E+00  0.2059E+16
   -1.856326    2.86446  0.1111E-10  0.1219E-13  0.7603E-17  0.1000E-09  0.0000E+00  0.1838E+16
   -1.925079    2.97247  0.1110E-10  0.1219E-13  0.7603E-17  0.1000E-09  0.0000E+00  0.1619E+16
   -1.993833    3.07842  0.1109E-10  0.1219E-13  0.7603E-17  0.1000E-09  0.0000E+00  0.1412E+16
   -2.062586    3.18230  0.1108E-10  0.1219E-13  0.7603E-17  0.1000E-09  0.0000E+00  0.1237E+16
   -2.131338    3.28602  0.1107E-10  0.1479E-13  0.7857E-17  0.1000E-09  0.0000E+00  0.1065E+16
   -2.200091    3.38979  0.1106E-10  0.6915E-13  0.3319E-16  0.1000E-09  0.0000E+00  0.8938E+15
   -2.268843    3.49366  0.1106E-10  0.3505E-12  0.1610E-15  0.1000E-09  0.0000E+00  0.7220E+15
   -2.337594    3.59751  0.1105E-10  0.1774E-11  0.7835E-15  0.1000E-09  0.0000E+00  0.5505E+15
   -2.406345    3.70126  0.1105E-10  0.8887E-11  0.3780E-14  0.1000E-09  0.0000E+00  0.3800E+15
   -2.475095    3.80486  0.1105E-10  0.4439E-10  0.1823E-13  0.4260E-09  0.0000E+00  0.2103E+15
   -2.543845    3.90797  0.1105E-10  0.2208E-09  0.8808E-13  0.8582E-08  0.0000E+00  0.4535E+14
   -2.612595    4.00513  0.1105E-10  0.9901E-09  0.4021E-12  0.9979E-06  0.0000E+00 -0.4890E+13
   -2.681343    4.01760  0.1105E-10  0.1033E-08  0.8602E-12  0.3576E-06  0.0000E+00 -0.1702E+14
   -2.750091    4.04246  0.1105E-10  0.0000E+00  0.0000E+00  0.0000E+00  0.0000E+00  0.0000E+00
