 1 - depth, m
 2 - temperature, C
 3 - salinity, kg/kg
 4 - turbulent kinetic energy, m**2/s**2
 5 - dissipation rate, m**2/s**3
 6 - kinematic heat conductance, m**2/s
 7 - modulus of horizontal velocity, m/s
 8 - Richardson number, n/d
   -0.000000   -0.00000  0.5130E-12  0.1219E-13  0.7603E-17  0.1000E-09  0.0000E+00  0.6563E+16
   -0.068746    0.09979  0.4139E-11  0.1219E-13  0.7603E-17  0.1000E-09  0.0000E+00  0.6494E+16
   -0.137493    0.20129  0.8136E-11  0.1219E-13  0.7603E-17  0.1000E-09  0.0000E+00  0.6409E+16
   -0.206240    0.30440  0.1065E-10  0.1219E-13  0.7603E-17  0.1000E-09  0.0000E+00  0.6310E+16
   -0.274988    0.40900  0.1150E-10  0.1219E-13  0.7603E-17  0.1000E-09  0.0000E+00  0.6198E+16
   -0.343736    0.51499  0.1128E-10  0.1219E-13  0.7603E-17  0.1000E-09  0.0000E+00  0.6072E+16
   -0.412485    0.62227  0.1063E-10  0.1219E-13  0.7603E-17  0.1000E-09  0.0000E+00  0.5935E+16
   -0.481234    0.73074  0.9945E-11  0.1219E-13  0.7603E-17  0.1000E-09  0.0000E+00  0.5785E+16
   -0.549984    0.84027  0.9417E-11  0.1219E-13  0.7603E-17  0.1000E-09  0.0000E+00  0.5625E+16
   -0.618734    0.95075  0.9071E-11  0.1219E-13  0.7603E-17  0.1000E-09  0.0000E+00  0.5454E+16
   -0.687485    1.06208  0.8871E-11  0.1219E-13  0.7603E-17  0.1000E-09  0.0000E+00  0.5274E+16
   -0.756236    1.17415  0.8766E-11  0.1219E-13  0.7603E-17  0.1000E-09  0.0000E+00  0.5087E+16
   -0.824987    1.28685  0.8714E-11  0.1219E-13  0.7603E-17  0.1000E-09  0.0000E+00  0.4892E+16
   -0.893739    1.40008  0.8690E-11  0.1219E-13  0.7603E-17  0.1000E-09  0.0000E+00  0.4692E+16
   -0.962491    1.51376  0.8677E-11  0.1219E-13  0.7603E-17  0.1000E-09  0.0000E+00  0.4486E+16
   -1.031243    1.62779  0.8668E-11  0.1219E-13  0.7603E-17  0.1000E-09  0.0000E+00  0.4276E+16
   -1.099995    1.74209  0.8657E-11  0.1219E-13  0.7603E-17  0.1000E-09  0.0000E+00  0.4063E+16
   -1.168747    1.85658  0.8645E-11  0.1219E-13  0.7603E-17  0.1000E-09  0.0000E+00  0.3847E+16
   -1.237499    1.97121  0.8628E-11  0.1219E-13  0.7603E-17  0.1000E-09  0.0000E+00  0.3630E+16
   -1.306252    2.08591  0.8608E-11  0.1219E-13  0.7603E-17  0.1000E-09  0.0000E+00  0.3412E+16
   -1.375004    2.20064  0.8585E-11  0.1219E-13  0.7603E-17  0.1000E-09  0.0000E+00  0.3193E+16
   -1.443757    2.31538  0.8561E-11  0.1219E-13  0.7603E-17  0.1000E-09  0.0000E+00  0.2975E+16
   -1.512509    2.43010  0.8537E-11  0.1219E-13  0.7603E-17  0.1000E-09  0.0000E+00  0.2758E+16
   -1.581262    2.54478  0.8515E-11  0.1219E-13  0.7603E-17  0.1000E-09  0.0000E+00  0.2541E+16
   -1.650014    2.65939  0.8495E-11  0.1219E-13  0.7603E-17  0.1000E-09  0.0000E+00  0.2324E+16
   -1.718766    2.77392  0.8478E-11  0.1219E-13  0.7603E-17  0.1000E-09  0.0000E+00  0.2108E+16
   -1.787518    2.88829  0.8465E-11  0.1219E-13  0.7603E-17  0.1000E-09  0.0000E+00  0.1869E+16
   -1.856270    3.00096  0.8454E-11  0.1219E-13  0.7603E-17  0.1000E-09  0.0000E+00  0.1635E+16
   -1.925022    3.11153  0.8445E-11  0.2159E-13  0.7742E-17  0.1000E-09  0.0000E+00  0.1406E+16
   -1.993773    3.21947  0.8438E-11  0.8392E-13  0.2522E-16  0.1000E-09  0.0000E+00  0.1191E+16
   -2.062524    3.32468  0.8432E-11  0.3155E-12  0.9029E-16  0.1000E-09  0.0000E+00  0.1009E+16
   -2.131274    3.42938  0.8427E-11  0.1156E-11  0.3185E-15  0.1000E-09  0.0000E+00  0.8319E+15
   -2.200025    3.53375  0.8424E-11  0.4156E-11  0.1105E-14  0.1000E-09  0.0000E+00  0.6567E+15
   -2.268774    3.63774  0.8422E-11  0.1485E-10  0.3812E-14  0.1000E-09  0.0000E+00  0.4835E+15
   -2.337524    3.74124  0.8421E-11  0.5328E-10  0.1322E-13  0.2131E-09  0.0000E+00  0.3128E+15
   -2.406273    3.84402  0.8421E-11  0.1904E-09  0.4571E-13  0.1571E-08  0.0000E+00  0.1454E+15
   -2.475021    3.94501  0.8420E-11  0.6635E-09  0.1551E-12  0.7292E-07  0.0000E+00  0.8476E+13
   -2.543769    4.01133  0.8420E-11  0.1707E-08  0.4185E-12  0.3114E-05  0.0000E+00 -0.1842E+13
   -2.612516    4.01565  0.8420E-11  0.1965E-08  0.6204E-12  0.2304E-05  0.0000E+00 -0.2827E+13
   -2.681263    4.02127  0.8420E-11  0.1563E-08  0.1260E-11  0.4782E-06  0.0000E+00 -0.1407E+14
   -2.750009    4.04125  0.8420E-11  0.0000E+00  0.0000E+00  0.0000E+00  0.0000E+00  0.0000E+00
