 1 - depth, m
 2 - temperature, C
 3 - salinity, kg/kg
 4 - turbulent kinetic energy, m**2/s**2
 5 - dissipation rate, m**2/s**3
 6 - kinematic heat conductance, m**2/s
 7 - modulus of horizontal velocity, m/s
 8 - Richardson number, n/d
   -0.000000    2.83035  0.1468E-10  0.6480E-05  0.1661E-06  0.2309E-04  0.2363E-01  0.2188E-01
   -0.068746    2.88683  0.1468E-10  0.5826E-05  0.7039E-07  0.4167E-04  0.1804E-01  0.4480E-01
   -0.137492    2.91662  0.1468E-10  0.5196E-05  0.4218E-07  0.5297E-04  0.1533E-01  0.6821E-01
   -0.206239    2.93885  0.1468E-10  0.4616E-05  0.2876E-07  0.5896E-04  0.1347E-01  0.9225E-01
   -0.274987    2.95781  0.1468E-10  0.4083E-05  0.2093E-07  0.6115E-04  0.1203E-01  0.1173E+00
   -0.343735    2.97521  0.1468E-10  0.3591E-05  0.1580E-07  0.6066E-04  0.1083E-01  0.1437E+00
   -0.412484    2.99198  0.1468E-10  0.3137E-05  0.1218E-07  0.5829E-04  0.9772E-02  0.1719E+00
   -0.481233    3.00878  0.1468E-10  0.2716E-05  0.9507E-08  0.5469E-04  0.8822E-02  0.2021E+00
   -0.549983    3.02623  0.1468E-10  0.2328E-05  0.7457E-08  0.5037E-04  0.7943E-02  0.2349E+00
   -0.618733    3.04500  0.1468E-10  0.1970E-05  0.5842E-08  0.4574E-04  0.7112E-02  0.2704E+00
   -0.687484    3.06609  0.1468E-10  0.1644E-05  0.4546E-08  0.4114E-04  0.6307E-02  0.3093E+00
   -0.756234    3.09130  0.1468E-10  0.1348E-05  0.3487E-08  0.3688E-04  0.5504E-02  0.3533E+00
   -0.824985    3.12470  0.1468E-10  0.1087E-05  0.2600E-08  0.3321E-04  0.4672E-02  0.4221E+00
   -0.893737    3.17959  0.1468E-10  0.8777E-06  0.1861E-08  0.3037E-04  0.3759E-02  0.6232E+00
   -0.962488    3.26828  0.1469E-10  0.7374E-06  0.1323E-08  0.2819E-04  0.2845E-02  0.1195E+01
   -1.031240    3.35398  0.1469E-10  0.6504E-06  0.1057E-08  0.2631E-04  0.2147E-02  0.3334E+01
   -1.099992    3.40098  0.1469E-10  0.5863E-06  0.8889E-09  0.2456E-04  0.1726E-02  0.1302E+02
   -1.168744    3.43761  0.1469E-10  0.5422E-06  0.7577E-09  0.2293E-04  0.1448E-02  0.6424E+02
   -1.237497    3.49718  0.1469E-10  0.5127E-06  0.6547E-09  0.3742E-04  0.1230E-02  0.4402E+03
   -1.306249    3.56623  0.1469E-10  0.4882E-06  0.5725E-09  0.7299E-04  0.1052E-02  0.4550E+04
   -1.375001    3.62609  0.1469E-10  0.4683E-06  0.5074E-09  0.1035E-03  0.8962E-03  0.5616E+05
   -1.443754    3.67763  0.1469E-10  0.4519E-06  0.4561E-09  0.1293E-03  0.7561E-03  0.8408E+06
   -1.512506    3.72190  0.1469E-10  0.4384E-06  0.4159E-09  0.1499E-03  0.6282E-03  0.1122E+07
   -1.581258    3.76128  0.1469E-10  0.4267E-06  0.3842E-09  0.1666E-03  0.5095E-03 -0.4278E+08
   -1.650010    3.79769  0.1469E-10  0.4146E-06  0.3576E-09  0.1797E-03  0.3956E-03  0.1218E+09
   -1.718763    3.83422  0.1469E-10  0.3944E-06  0.3246E-09  0.1859E-03  0.2777E-03  0.7664E+06
   -1.787514    3.87466  0.1469E-10  0.3529E-06  0.2598E-09  0.1983E-03  0.1266E-03  0.1316E+07
   -1.856266    3.89620  0.1469E-10  0.3227E-06  0.2154E-09  0.2018E-03  0.7646E-04  0.2151E+07
   -1.925017    3.91159  0.1469E-10  0.2975E-06  0.1808E-09  0.2019E-03  0.4834E-04  0.1931E+08
   -1.993769    3.92217  0.1469E-10  0.2764E-06  0.1536E-09  0.2003E-03  0.3200E-04  0.1513E+10
   -2.062519    3.93107  0.1469E-10  0.2588E-06  0.1328E-09  0.1974E-03  0.2191E-04  0.8422E+11
   -2.131270    3.94568  0.1469E-10  0.2439E-06  0.1168E-09  0.1940E-03  0.1439E-04  0.4331E+13
   -2.200020    3.96333  0.1469E-10  0.2310E-06  0.1046E-09  0.1897E-03  0.8874E-05  0.3974E+13
   -2.268770    3.98400  0.1469E-10  0.2199E-06  0.9597E-10  0.1837E-03  0.4740E-05 -0.1694E+12
   -2.337519    4.00298  0.1469E-10  0.2105E-06  0.9066E-10  0.1754E-03  0.2266E-05 -0.1111E+13
   -2.406268    4.02045  0.1469E-10  0.2024E-06  0.8887E-10  0.1636E-03  0.9611E-06 -0.1584E+13
   -2.475016    4.03715  0.1469E-10  0.1951E-06  0.9135E-10  0.1481E-03  0.3485E-06 -0.2308E+13
   -2.543763    4.05298  0.1469E-10  0.1876E-06  0.1011E-09  0.1245E-03  0.1066E-06 -0.3583E+13
   -2.612511    4.06799  0.1469E-10  0.1774E-06  0.1337E-09  0.6214E-04  0.2744E-07 -0.7667E+13
   -2.681257    4.08347  0.1469E-10  0.1216E-06  0.4746E-09  0.5617E-05  0.6445E-08 -0.9919E+14
   -2.750003    4.16836  0.1469E-10  0.0000E+00  0.0000E+00  0.0000E+00  0.6667E-08  0.0000E+00
