 1 - depth, m
 2 - temperature, C
 3 - salinity, kg/kg
 4 - turbulent kinetic energy, m**2/s**2
 5 - dissipation rate, m**2/s**3
 6 - kinematic heat conductance, m**2/s
 7 - modulus of horizontal velocity, m/s
 8 - Richardson number, n/d
   -0.000000   -0.00000  0.1819E-10  0.1219E-13  0.7603E-17  0.1000E-09  0.0000E+00  0.5864E+16
   -0.068746    0.08904  0.9969E-11  0.1219E-13  0.7603E-17  0.1000E-09  0.0000E+00  0.5640E+16
   -0.137492    0.17675  0.7448E-11  0.1219E-13  0.7603E-17  0.1000E-09  0.0000E+00  0.5455E+16
   -0.206239    0.26369  0.6804E-11  0.1219E-13  0.7603E-17  0.1000E-09  0.0000E+00  0.5305E+16
   -0.274986    0.35037  0.6660E-11  0.1219E-13  0.7603E-17  0.1000E-09  0.0000E+00  0.5188E+16
   -0.343735    0.43731  0.6632E-11  0.1219E-13  0.7603E-17  0.1000E-09  0.0000E+00  0.5098E+16
   -0.412483    0.52501  0.6627E-11  0.1219E-13  0.7603E-17  0.1000E-09  0.0000E+00  0.5033E+16
   -0.481232    0.61396  0.6626E-11  0.1219E-13  0.7603E-17  0.1000E-09  0.0000E+00  0.4988E+16
   -0.549982    0.70463  0.6626E-11  0.1219E-13  0.7603E-17  0.1000E-09  0.0000E+00  0.4960E+16
   -0.618732    0.79749  0.6626E-11  0.1219E-13  0.7603E-17  0.1000E-09  0.0000E+00  0.4944E+16
   -0.687482    0.89298  0.6626E-11  0.1219E-13  0.7603E-17  0.1000E-09  0.0000E+00  0.4950E+16
   -0.756233    0.99180  0.6626E-11  0.1219E-13  0.7603E-17  0.1000E-09  0.0000E+00  0.4967E+16
   -0.824984    1.09451  0.6626E-11  0.1219E-13  0.7603E-17  0.1000E-09  0.0000E+00  0.4980E+16
   -0.893735    1.20147  0.6626E-11  0.1219E-13  0.7603E-17  0.1000E-09  0.0000E+00  0.4984E+16
   -0.962486    1.31303  0.6625E-11  0.1219E-13  0.7603E-17  0.1000E-09  0.0000E+00  0.4976E+16
   -1.031238    1.42948  0.6623E-11  0.1219E-13  0.7603E-17  0.1000E-09  0.0000E+00  0.4949E+16
   -1.099990    1.55105  0.6618E-11  0.1852E-13  0.7603E-17  0.1000E-09  0.0000E+00  0.4899E+16
   -1.168742    1.67795  0.6607E-11  0.7295E-13  0.1228E-16  0.1000E-09  0.0000E+00  0.4820E+16
   -1.237494    1.81032  0.6585E-11  0.2051E-12  0.2920E-16  0.1000E-09  0.0000E+00  0.4709E+16
   -1.306246    1.94824  0.6553E-11  0.5218E-12  0.7066E-16  0.1000E-09  0.0000E+00  0.4561E+16
   -1.374998    2.09173  0.6517E-11  0.1285E-11  0.1686E-15  0.1000E-09  0.0000E+00  0.4383E+16
   -1.443750    2.24105  0.6486E-11  0.3115E-11  0.3972E-15  0.1000E-09  0.0000E+00  0.4162E+16
   -1.512503    2.39616  0.6467E-11  0.7457E-11  0.9251E-15  0.1000E-09  0.0000E+00  0.3894E+16
   -1.581255    2.55687  0.6455E-11  0.1765E-10  0.2131E-14  0.1000E-09  0.0000E+00  0.3577E+16
   -1.650007    2.72286  0.6449E-11  0.4134E-10  0.4859E-14  0.1000E-09  0.0000E+00  0.3213E+16
   -1.718759    2.89376  0.6444E-11  0.9579E-10  0.1096E-13  0.1000E-09  0.0000E+00  0.2806E+16
   -1.787510    3.06917  0.6442E-11  0.2251E-09  0.2509E-13  0.1000E-09  0.0000E+00  0.2380E+16
   -1.856262    3.25061  0.6440E-11  0.5329E-09  0.5784E-13  0.1545E-09  0.0000E+00  0.1905E+16
   -1.925013    3.43816  0.6438E-11  0.1258E-08  0.1331E-12  0.4913E-09  0.0000E+00  0.1379E+16
   -1.993764    3.63174  0.6431E-11  0.2957E-08  0.3051E-12  0.1954E-08  0.0000E+00  0.7947E+15
   -2.062515    3.82918  0.6421E-11  0.6706E-08  0.6758E-12  0.1808E-07  0.0000E+00  0.1901E+15
   -2.131265    4.00770  0.6419E-11  0.7793E-08  0.7906E-12  0.3155E-04  0.0000E+00 -0.3056E+12
   -2.200015    4.00859  0.6419E-11  0.8234E-08  0.8509E-12  0.3205E-04  0.0000E+00 -0.3143E+12
   -2.268764    4.00947  0.6419E-11  0.8574E-08  0.9165E-12  0.3156E-04  0.0000E+00 -0.3331E+12
   -2.337513    4.01037  0.6419E-11  0.8826E-08  0.9953E-12  0.2998E-04  0.0000E+00 -0.3664E+12
   -2.406262    4.01133  0.6419E-11  0.8986E-08  0.1099E-11  0.2716E-04  0.0000E+00 -0.4238E+12
   -2.475010    4.01239  0.6419E-11  0.9032E-08  0.1252E-11  0.2289E-04  0.0000E+00 -0.5309E+12
   -2.543758    4.01366  0.6419E-11  0.8908E-08  0.1519E-11  0.1693E-04  0.0000E+00 -0.7689E+12
   -2.612504    4.01540  0.6419E-11  0.8431E-08  0.2158E-11  0.9227E-05  0.0000E+00 -0.1576E+13
   -2.681251    4.01867  0.6419E-11  0.6285E-08  0.5904E-11  0.1369E-05  0.0000E+00 -0.1545E+14
   -2.749996    4.04127  0.6419E-11  0.0000E+00  0.0000E+00  0.0000E+00  0.0000E+00  0.0000E+00
