 1 - depth, m
 2 - temperature, C
 3 - salinity, kg/kg
 4 - turbulent kinetic energy, m**2/s**2
 5 - dissipation rate, m**2/s**3
 6 - kinematic heat conductance, m**2/s
 7 - modulus of horizontal velocity, m/s
 8 - Richardson number, n/d
   -0.000000   14.61746  0.2878E-11  0.1467E-04  0.6336E-06  0.3496E-04  0.2621E-01 -0.3104E-01
   -0.068746   14.64370  0.2878E-11  0.1401E-04  0.2273E-06  0.9586E-04  0.1709E-01 -0.8203E-01
   -0.137492   14.65267  0.2878E-11  0.1359E-04  0.1317E-06  0.1686E-03  0.1383E-01 -0.1389E+00
   -0.206239   14.65751  0.2878E-11  0.1332E-04  0.9102E-07  0.2543E-03  0.1198E-01 -0.1993E+00
   -0.274987   14.66058  0.2878E-11  0.1317E-04  0.6929E-07  0.3817E-03  0.1077E-01 -0.7663E-01
   -0.343735   14.66255  0.2878E-11  0.1310E-04  0.5688E-07  0.7850E-03  0.9910E-02  0.1060E+03
   -0.412484   14.66349  0.2878E-11  0.1313E-04  0.4929E-07  0.1152E-02  0.9317E-02  0.6546E+01
   -0.481233   14.66409  0.2878E-11  0.1324E-04  0.4372E-07  0.1193E-02  0.8813E-02  0.7262E+01
   -0.549983   14.66466  0.2878E-11  0.1337E-04  0.3929E-07  0.1278E-02  0.8322E-02  0.7889E+01
   -0.618733   14.66518  0.2878E-11  0.1352E-04  0.3578E-07  0.1342E-02  0.7867E-02  0.8195E+01
   -0.687483   14.66566  0.2878E-11  0.1368E-04  0.3292E-07  0.1412E-02  0.7437E-02  0.8522E+01
   -0.756234   14.66610  0.2878E-11  0.1384E-04  0.3057E-07  0.1478E-02  0.7028E-02  0.8814E+01
   -0.824985   14.66653  0.2878E-11  0.1399E-04  0.2860E-07  0.1543E-02  0.6636E-02  0.9104E+01
   -0.893736   14.66692  0.2878E-11  0.1412E-04  0.2693E-07  0.1606E-02  0.6258E-02  0.9393E+01
   -0.962488   14.66730  0.2878E-11  0.1424E-04  0.2551E-07  0.1668E-02  0.5892E-02  0.9683E+01
   -1.031240   14.66766  0.2878E-11  0.1434E-04  0.2430E-07  0.1728E-02  0.5535E-02  0.9980E+01
   -1.099992   14.66801  0.2878E-11  0.1441E-04  0.2325E-07  0.1785E-02  0.5185E-02  0.1028E+02
   -1.168744   14.66835  0.2878E-11  0.1446E-04  0.2234E-07  0.1838E-02  0.4841E-02  0.1060E+02
   -1.237496   14.66867  0.2878E-11  0.1447E-04  0.2156E-07  0.1885E-02  0.4502E-02  0.1094E+02
   -1.306248   14.66898  0.2878E-11  0.1445E-04  0.2088E-07  0.1923E-02  0.4167E-02  0.1131E+02
   -1.375001   14.66929  0.2878E-11  0.1440E-04  0.2030E-07  0.1951E-02  0.3835E-02  0.1174E+02
   -1.443753   14.66960  0.2878E-11  0.1430E-04  0.1980E-07  0.1965E-02  0.3505E-02  0.1226E+02
   -1.512505   14.66990  0.2878E-11  0.1415E-04  0.1937E-07  0.1963E-02  0.3176E-02  0.1291E+02
   -1.581257   14.67020  0.2878E-11  0.1395E-04  0.1902E-07  0.1944E-02  0.2847E-02  0.1376E+02
   -1.650010   14.67051  0.2878E-11  0.1371E-04  0.1872E-07  0.1907E-02  0.2517E-02  0.1491E+02
   -1.718762   14.67082  0.2878E-11  0.1340E-04  0.1848E-07  0.1846E-02  0.2187E-02  0.1543E+02
   -1.787513   14.67115  0.2878E-11  0.1302E-04  0.1829E-07  0.1804E-02  0.1855E-02  0.6257E+01
   -1.856265   14.67148  0.2878E-11  0.1260E-04  0.1821E-07  0.1780E-02  0.1575E-02  0.3501E+01
   -1.925016   14.67182  0.2878E-11  0.1215E-04  0.1828E-07  0.1787E-02  0.1341E-02  0.2267E+01
   -1.993767   14.67216  0.2878E-11  0.1169E-04  0.1854E-07  0.1827E-02  0.1149E-02  0.1681E+01
   -2.062518   14.67248  0.2878E-11  0.1126E-04  0.1900E-07  0.1867E-02  0.9922E-03  0.1401E+01
   -2.131269   14.67281  0.2878E-11  0.1084E-04  0.1969E-07  0.1799E-02  0.8574E-03  0.1172E+01
   -2.200019   14.67314  0.2878E-11  0.1046E-04  0.2063E-07  0.1616E-02  0.7409E-03  0.9757E+00
   -2.268768   14.67352  0.2878E-11  0.1011E-04  0.2186E-07  0.1433E-02  0.6414E-03  0.7930E+00
   -2.337517   14.67395  0.2878E-11  0.9782E-05  0.2354E-07  0.1265E-02  0.5599E-03  0.7207E+00
   -2.406266   14.67444  0.2878E-11  0.9434E-05  0.2609E-07  0.1165E-02  0.4930E-03  0.1356E+01
   -2.475014   14.67497  0.2878E-11  0.8968E-05  0.3159E-07  0.9102E-03  0.4333E-03  0.4811E+02
   -2.543762   14.67588  0.2878E-11  0.8220E-05  0.4366E-07  0.7361E-03  0.3584E-03  0.1079E+04
   -2.612509   14.67691  0.2878E-11  0.6840E-05  0.7878E-07  0.3841E-03  0.2865E-03 -0.1494E+05
   -2.681255   14.68103  0.2878E-11  0.4180E-05  0.2478E-06  0.1094E-03  0.1740E-03 -0.5424E+04
   -2.750001   14.68882  0.2878E-11  0.0000E+00  0.0000E+00  0.0000E+00  0.2343E-03  0.0000E+00
