 1 - depth, m
 2 - temperature, C
 3 - salinity, kg/kg
 4 - turbulent kinetic energy, m**2/s**2
 5 - dissipation rate, m**2/s**3
 6 - kinematic heat conductance, m**2/s
 7 - modulus of horizontal velocity, m/s
 8 - Richardson number, n/d
   -0.000000    0.10602  0.7315E-12  0.1386E-04  0.6591E-06  0.2920E-04  0.3986E-01  0.3361E-01
   -0.068746    0.15889  0.7315E-12  0.1223E-04  0.2370E-06  0.5900E-04  0.3059E-01  0.3338E-01
   -0.137492    0.17582  0.7315E-12  0.1110E-04  0.1375E-06  0.7840E-04  0.2671E-01  0.5810E-01
   -0.206239    0.18715  0.7315E-12  0.1011E-04  0.9424E-07  0.8994E-04  0.2410E-01  0.7904E-01
   -0.274987    0.19651  0.7315E-12  0.9201E-05  0.7000E-07  0.9560E-04  0.2208E-01  0.1005E+00
   -0.343735    0.20484  0.7315E-12  0.8347E-05  0.5446E-07  0.9673E-04  0.2040E-01  0.1228E+00
   -0.412484    0.21263  0.7315E-12  0.7542E-05  0.4359E-07  0.9439E-04  0.1895E-01  0.1461E+00
   -0.481233    0.22017  0.7316E-12  0.6779E-05  0.3555E-07  0.8944E-04  0.1764E-01  0.1708E+00
   -0.549983    0.22767  0.7316E-12  0.6055E-05  0.2934E-07  0.8260E-04  0.1643E-01  0.1973E+00
   -0.618733    0.23531  0.7316E-12  0.5366E-05  0.2439E-07  0.7443E-04  0.1530E-01  0.2261E+00
   -0.687484    0.24326  0.7316E-12  0.4711E-05  0.2034E-07  0.6546E-04  0.1422E-01  0.2577E+00
   -0.756234    0.25174  0.7316E-12  0.4091E-05  0.1697E-07  0.5612E-04  0.1318E-01  0.2929E+00
   -0.824985    0.26102  0.7316E-12  0.3503E-05  0.1411E-07  0.4682E-04  0.1215E-01  0.3328E+00
   -0.893737    0.27150  0.7316E-12  0.2951E-05  0.1166E-07  0.3798E-04  0.1112E-01  0.3786E+00
   -0.962489    0.28390  0.7316E-12  0.2434E-05  0.9526E-08  0.3000E-04  0.1005E-01  0.4317E+00
   -1.031240    0.29982  0.7316E-12  0.1954E-05  0.7633E-08  0.2330E-04  0.8912E-02  0.4916E+00
   -1.099992    0.32457  0.7316E-12  0.1509E-05  0.5820E-08  0.1851E-04  0.7585E-02  0.6501E+00
   -1.168745    0.39741  0.7317E-12  0.1205E-05  0.4416E-08  0.1573E-04  0.5805E-02  0.1437E+01
   -1.237497    0.50176  0.7318E-12  0.1025E-05  0.3621E-08  0.1373E-04  0.4304E-02  0.4060E+01
   -1.306249    0.57006  0.7318E-12  0.8871E-06  0.3045E-08  0.1213E-04  0.3338E-02  0.1503E+02
   -1.375001    0.62011  0.7318E-12  0.7768E-06  0.2599E-08  0.1087E-04  0.2651E-02  0.6734E+02
   -1.443754    0.66423  0.7318E-12  0.6899E-06  0.2259E-08  0.9914E-05  0.2111E-02  0.3347E+03
   -1.512506    0.70612  0.7318E-12  0.6229E-06  0.2009E-08  0.9209E-05  0.1662E-02  0.1940E+04
   -1.581258    0.74925  0.7319E-12  0.5718E-06  0.1835E-08  0.8657E-05  0.1276E-02  0.1442E+05
   -1.650011    0.80309  0.7319E-12  0.5304E-06  0.1716E-08  0.8014E-05  0.9353E-03  0.1112E+06
   -1.718763    0.89139  0.7319E-12  0.4783E-06  0.1580E-08  0.5189E-05  0.6109E-03  0.1041E+07
   -1.787514    1.05499  0.7319E-12  0.3389E-06  0.1028E-08  0.5777E-05  0.2693E-03  0.1440E+09
   -1.856266    1.15763  0.7319E-12  0.2369E-06  0.6640E-09  0.4324E-05  0.1505E-03  0.1923E+11
   -1.925017    1.21804  0.7319E-12  0.1598E-06  0.4141E-09  0.3066E-05  0.8561E-04  0.2393E+12
   -1.993769    1.22602  0.7319E-12  0.1046E-06  0.2511E-09  0.2103E-05  0.5021E-04 -0.1050E+16
   -2.062519    1.17828  0.7319E-12  0.6460E-07  0.1462E-09  0.1061E-05  0.3112E-04  0.5493E+15
   -2.131270    1.20030  0.7319E-12  0.3537E-07  0.7669E-10  0.4110E-06  0.1716E-04  0.3514E+16
   -2.200020    1.29411  0.7319E-12  0.1431E-07  0.3084E-10  0.6477E-07  0.7784E-05  0.7295E+16
   -2.268770    1.49422  0.7319E-12  0.2743E-08  0.6706E-11  0.3143E-08  0.1480E-05  0.9469E+16
   -2.337519    1.79085  0.7319E-12  0.2614E-09  0.1518E-11  0.3140E-09  0.7837E-07  0.1065E+17
   -2.406268    2.18168  0.7320E-12  0.2177E-10  0.1018E-11  0.1127E-09  0.2862E-08  0.1054E+17
   -2.475016    2.67687  0.7320E-12  0.4419E-11  0.1000E-11  0.1000E-09  0.8428E-10  0.8255E+16
   -2.543764    3.26418  0.7320E-12  0.4419E-11  0.1000E-11  0.1000E-09  0.2041E-11  0.3286E+16
   -2.612511    4.00144  0.7320E-12  0.4419E-11  0.1000E-11  0.1000E-09  0.3607E-13 -0.7035E+16
   -2.681257    4.87709  0.7320E-12  0.4419E-11  0.1000E-11  0.1000E-09  0.4074E-15 -0.3543E+16
   -2.750003    5.10697  0.7320E-12  0.0000E+00  0.0000E+00  0.0000E+00  0.6682E-15  0.0000E+00
