 1 - depth, m
 2 - temperature, C
 3 - salinity, kg/kg
 4 - turbulent kinetic energy, m**2/s**2
 5 - dissipation rate, m**2/s**3
 6 - kinematic heat conductance, m**2/s
 7 - modulus of horizontal velocity, m/s
 8 - Richardson number, n/d
   -0.000000   -0.00000  0.1592E-11  0.1219E-13  0.7603E-17  0.1000E-09  0.0000E+00  0.6126E+16
   -0.068746    0.09306  0.8699E-12  0.1219E-13  0.7603E-17  0.1000E-09  0.0000E+00  0.5890E+16
   -0.137492    0.18483  0.6494E-12  0.1219E-13  0.7603E-17  0.1000E-09  0.0000E+00  0.5694E+16
   -0.206239    0.27584  0.5924E-12  0.1219E-13  0.7603E-17  0.1000E-09  0.0000E+00  0.5535E+16
   -0.274986    0.36664  0.5795E-12  0.1219E-13  0.7603E-17  0.1000E-09  0.0000E+00  0.5409E+16
   -0.343735    0.45778  0.5769E-12  0.1219E-13  0.7603E-17  0.1000E-09  0.0000E+00  0.5311E+16
   -0.412483    0.54976  0.5765E-12  0.1219E-13  0.7603E-17  0.1000E-09  0.0000E+00  0.5239E+16
   -0.481232    0.64312  0.5764E-12  0.1219E-13  0.7603E-17  0.1000E-09  0.0000E+00  0.5186E+16
   -0.549982    0.73834  0.5764E-12  0.1219E-13  0.7603E-17  0.1000E-09  0.0000E+00  0.5150E+16
   -0.618732    0.83590  0.5764E-12  0.1219E-13  0.7603E-17  0.1000E-09  0.0000E+00  0.5126E+16
   -0.687482    0.93626  0.5764E-12  0.1219E-13  0.7603E-17  0.1000E-09  0.0000E+00  0.5122E+16
   -0.756233    1.04015  0.5764E-12  0.1219E-13  0.7603E-17  0.1000E-09  0.0000E+00  0.5127E+16
   -0.824984    1.14813  0.5764E-12  0.1219E-13  0.7603E-17  0.1000E-09  0.0000E+00  0.5126E+16
   -0.893735    1.26059  0.5764E-12  0.1219E-13  0.7603E-17  0.1000E-09  0.0000E+00  0.5116E+16
   -0.962486    1.37787  0.5763E-12  0.1219E-13  0.7603E-17  0.1000E-09  0.0000E+00  0.5089E+16
   -1.031238    1.50027  0.5762E-12  0.5715E-13  0.9640E-17  0.1000E-09  0.0000E+00  0.5041E+16
   -1.099990    1.62805  0.5758E-12  0.1631E-12  0.2133E-16  0.1000E-09  0.0000E+00  0.4967E+16
   -1.168742    1.76141  0.5748E-12  0.4039E-12  0.4949E-16  0.1000E-09  0.0000E+00  0.4862E+16
   -1.237494    1.90050  0.5731E-12  0.9576E-12  0.1135E-15  0.1000E-09  0.0000E+00  0.4720E+16
   -1.306246    2.04540  0.5704E-12  0.2229E-11  0.2569E-15  0.1000E-09  0.0000E+00  0.4538E+16
   -1.374998    2.19612  0.5673E-12  0.5126E-11  0.5755E-15  0.1000E-09  0.0000E+00  0.4321E+16
   -1.443751    2.35291  0.5646E-12  0.1167E-10  0.1276E-14  0.1000E-09  0.0000E+00  0.4057E+16
   -1.512503    2.51571  0.5629E-12  0.2629E-10  0.2803E-14  0.1000E-09  0.0000E+00  0.3743E+16
   -1.581255    2.68428  0.5619E-12  0.5868E-10  0.6100E-14  0.1000E-09  0.0000E+00  0.3377E+16
   -1.650007    2.85828  0.5614E-12  0.1297E-09  0.1316E-13  0.1000E-09  0.0000E+00  0.2960E+16
   -1.718759    3.03726  0.5610E-12  0.2843E-09  0.2812E-13  0.1000E-09  0.0000E+00  0.2499E+16
   -1.787510    3.22081  0.5608E-12  0.6319E-09  0.6097E-13  0.1536E-09  0.0000E+00  0.2020E+16
   -1.856262    3.41114  0.5605E-12  0.1417E-08  0.1334E-12  0.4582E-09  0.0000E+00  0.1482E+16
   -1.925013    3.60812  0.5600E-12  0.3171E-08  0.2916E-12  0.1681E-08  0.0000E+00  0.8830E+15
   -1.993764    3.81078  0.5590E-12  0.7034E-08  0.6323E-12  0.1345E-07  0.0000E+00  0.2393E+15
   -2.062515    4.00407  0.5587E-12  0.7982E-08  0.7218E-12  0.3528E-04  0.0000E+00 -0.2400E+12
   -2.131265    4.00492  0.5587E-12  0.8383E-08  0.7698E-12  0.3608E-04  0.0000E+00 -0.2463E+12
   -2.200015    4.00574  0.5587E-12  0.8705E-08  0.8215E-12  0.3597E-04  0.0000E+00 -0.2586E+12
   -2.268764    4.00658  0.5587E-12  0.8953E-08  0.8804E-12  0.3492E-04  0.0000E+00 -0.2787E+12
   -2.337514    4.00744  0.5587E-12  0.9133E-08  0.9537E-12  0.3278E-04  0.0000E+00 -0.3111E+12
   -2.406262    4.00836  0.5587E-12  0.9234E-08  0.1052E-11  0.2937E-04  0.0000E+00 -0.3647E+12
   -2.475010    4.00939  0.5587E-12  0.9234E-08  0.1201E-11  0.2448E-04  0.0000E+00 -0.4628E+12
   -2.543758    4.01063  0.5587E-12  0.9074E-08  0.1462E-11  0.1790E-04  0.0000E+00 -0.6793E+12
   -2.612505    4.01236  0.5587E-12  0.8566E-08  0.2093E-11  0.9605E-05  0.0000E+00 -0.1413E+13
   -2.681251    4.01562  0.5587E-12  0.6334E-08  0.5864E-11  0.1365E-05  0.0000E+00 -0.1448E+14
   -2.749997    4.03835  0.5587E-12  0.0000E+00  0.0000E+00  0.0000E+00  0.0000E+00  0.0000E+00
