 1 - depth, m
 2 - temperature, C
 3 - salinity, kg/kg
 4 - turbulent kinetic energy, m**2/s**2
 5 - dissipation rate, m**2/s**3
 6 - kinematic heat conductance, m**2/s
 7 - modulus of horizontal velocity, m/s
 8 - Richardson number, n/d
   -0.000000   -0.00000  0.6432E-12  0.1219E-13  0.7603E-17  0.1000E-09  0.0000E+00  0.6643E+16
   -0.068746    0.10102  0.4133E-11  0.1219E-13  0.7603E-17  0.1000E-09  0.0000E+00  0.6578E+16
   -0.137493    0.20389  0.7204E-11  0.1219E-13  0.7603E-17  0.1000E-09  0.0000E+00  0.6492E+16
   -0.206240    0.30843  0.8713E-11  0.1219E-13  0.7603E-17  0.1000E-09  0.0000E+00  0.6390E+16
   -0.274988    0.41449  0.8952E-11  0.1219E-13  0.7603E-17  0.1000E-09  0.0000E+00  0.6271E+16
   -0.343736    0.52194  0.8541E-11  0.1219E-13  0.7603E-17  0.1000E-09  0.0000E+00  0.6139E+16
   -0.412485    0.63066  0.7952E-11  0.1219E-13  0.7603E-17  0.1000E-09  0.0000E+00  0.5993E+16
   -0.481234    0.74050  0.7435E-11  0.1219E-13  0.7603E-17  0.1000E-09  0.0000E+00  0.5835E+16
   -0.549984    0.85136  0.7071E-11  0.1219E-13  0.7603E-17  0.1000E-09  0.0000E+00  0.5666E+16
   -0.618735    0.96311  0.6849E-11  0.1219E-13  0.7603E-17  0.1000E-09  0.0000E+00  0.5487E+16
   -0.687485    1.07562  0.6729E-11  0.1219E-13  0.7603E-17  0.1000E-09  0.0000E+00  0.5299E+16
   -0.756236    1.18878  0.6670E-11  0.1219E-13  0.7603E-17  0.1000E-09  0.0000E+00  0.5104E+16
   -0.824987    1.30251  0.6642E-11  0.1219E-13  0.7603E-17  0.1000E-09  0.0000E+00  0.4901E+16
   -0.893739    1.41668  0.6628E-11  0.1219E-13  0.7603E-17  0.1000E-09  0.0000E+00  0.4694E+16
   -0.962491    1.53121  0.6621E-11  0.1219E-13  0.7603E-17  0.1000E-09  0.0000E+00  0.4481E+16
   -1.031243    1.64599  0.6613E-11  0.1219E-13  0.7603E-17  0.1000E-09  0.0000E+00  0.4265E+16
   -1.099995    1.76097  0.6605E-11  0.1219E-13  0.7603E-17  0.1000E-09  0.0000E+00  0.4047E+16
   -1.168747    1.87605  0.6593E-11  0.1219E-13  0.7603E-17  0.1000E-09  0.0000E+00  0.3826E+16
   -1.237500    1.99119  0.6579E-11  0.1219E-13  0.7603E-17  0.1000E-09  0.0000E+00  0.3605E+16
   -1.306252    2.10632  0.6562E-11  0.1219E-13  0.7603E-17  0.1000E-09  0.0000E+00  0.3383E+16
   -1.375005    2.22140  0.6543E-11  0.1219E-13  0.7603E-17  0.1000E-09  0.0000E+00  0.3162E+16
   -1.443757    2.33642  0.6524E-11  0.1219E-13  0.7603E-17  0.1000E-09  0.0000E+00  0.2941E+16
   -1.512510    2.45138  0.6506E-11  0.1219E-13  0.7603E-17  0.1000E-09  0.0000E+00  0.2722E+16
   -1.581262    2.56625  0.6489E-11  0.1219E-13  0.7603E-17  0.1000E-09  0.0000E+00  0.2504E+16
   -1.650014    2.68104  0.6474E-11  0.1219E-13  0.7603E-17  0.1000E-09  0.0000E+00  0.2287E+16
   -1.718767    2.79573  0.6463E-11  0.1219E-13  0.7603E-17  0.1000E-09  0.0000E+00  0.2071E+16
   -1.787519    2.91030  0.6454E-11  0.1219E-13  0.7603E-17  0.1000E-09  0.0000E+00  0.1834E+16
   -1.856270    3.02326  0.6446E-11  0.1679E-13  0.7603E-17  0.1000E-09  0.0000E+00  0.1601E+16
   -1.925022    3.13427  0.6440E-11  0.7166E-13  0.1733E-16  0.1000E-09  0.0000E+00  0.1374E+16
   -1.993773    3.24287  0.6435E-11  0.2480E-12  0.5429E-16  0.1000E-09  0.0000E+00  0.1161E+16
   -2.062524    3.34901  0.6431E-11  0.7897E-12  0.1661E-15  0.1000E-09  0.0000E+00  0.9777E+15
   -2.131275    3.45483  0.6428E-11  0.2453E-11  0.4991E-15  0.1000E-09  0.0000E+00  0.7987E+15
   -2.200025    3.56054  0.6426E-11  0.7513E-11  0.1480E-14  0.1000E-09  0.0000E+00  0.6206E+15
   -2.268775    3.66614  0.6424E-11  0.2293E-10  0.4374E-14  0.1000E-09  0.0000E+00  0.4433E+15
   -2.337524    3.77149  0.6423E-11  0.7053E-10  0.1304E-13  0.2469E-09  0.0000E+00  0.2673E+15
   -2.406273    3.87629  0.6423E-11  0.2170E-09  0.3892E-13  0.2070E-08  0.0000E+00  0.9447E+14
   -2.475022    3.97895  0.6423E-11  0.6136E-09  0.1081E-12  0.6657E-06  0.0000E+00 -0.4648E+12
   -2.543770    3.99712  0.6423E-11  0.1124E-08  0.2430E-12  0.2112E-05  0.0000E+00 -0.1382E+13
   -2.612517    4.00344  0.6423E-11  0.1354E-08  0.4097E-12  0.1637E-05  0.0000E+00 -0.2583E+13
   -2.681263    4.01128  0.6423E-11  0.1165E-08  0.9014E-12  0.3937E-06  0.0000E+00 -0.1364E+14
   -2.750009    4.03495  0.6423E-11  0.0000E+00  0.0000E+00  0.0000E+00  0.0000E+00  0.0000E+00
