 1 - depth, m
 2 - temperature, C
 3 - salinity, kg/kg
 4 - turbulent kinetic energy, m**2/s**2
 5 - dissipation rate, m**2/s**3
 6 - kinematic heat conductance, m**2/s
 7 - modulus of horizontal velocity, m/s
 8 - Richardson number, n/d
   -0.000000   -0.00000  0.3667E-10  0.1219E-13  0.7603E-17  0.1000E-09  0.0000E+00  0.4239E+16
   -0.068746    0.06415  0.2022E-10  0.1219E-13  0.7603E-17  0.1000E-09  0.0000E+00  0.4057E+16
   -0.137492    0.12660  0.1614E-10  0.1219E-13  0.7603E-17  0.1000E-09  0.0000E+00  0.3914E+16
   -0.206239    0.18788  0.1525E-10  0.1219E-13  0.7603E-17  0.1000E-09  0.0000E+00  0.3808E+16
   -0.274986    0.24855  0.1508E-10  0.1219E-13  0.7603E-17  0.1000E-09  0.0000E+00  0.3739E+16
   -0.343734    0.30915  0.1505E-10  0.1219E-13  0.7603E-17  0.1000E-09  0.0000E+00  0.3706E+16
   -0.412483    0.37028  0.1504E-10  0.1219E-13  0.7603E-17  0.1000E-09  0.0000E+00  0.3706E+16
   -0.481232    0.43252  0.1504E-10  0.1219E-13  0.7603E-17  0.1000E-09  0.0000E+00  0.3739E+16
   -0.549982    0.49651  0.1504E-10  0.1219E-13  0.7603E-17  0.1000E-09  0.0000E+00  0.3803E+16
   -0.618732    0.56290  0.1504E-10  0.1219E-13  0.7603E-17  0.1000E-09  0.0000E+00  0.3895E+16
   -0.687482    0.63235  0.1504E-10  0.1219E-13  0.7603E-17  0.1000E-09  0.0000E+00  0.4029E+16
   -0.756232    0.70581  0.1504E-10  0.1219E-13  0.7603E-17  0.1000E-09  0.0000E+00  0.4193E+16
   -0.824983    0.78416  0.1504E-10  0.1219E-13  0.7603E-17  0.1000E-09  0.0000E+00  0.4371E+16
   -0.893735    0.86804  0.1504E-10  0.1219E-13  0.7603E-17  0.1000E-09  0.0000E+00  0.4557E+16
   -0.962486    0.95809  0.1504E-10  0.1219E-13  0.7603E-17  0.1000E-09  0.0000E+00  0.4743E+16
   -1.031238    1.05492  0.1504E-10  0.1219E-13  0.7603E-17  0.1000E-09  0.0000E+00  0.4923E+16
   -1.099990    1.15909  0.1504E-10  0.1219E-13  0.7603E-17  0.1000E-09  0.0000E+00  0.5086E+16
   -1.168742    1.27111  0.1503E-10  0.1219E-13  0.7603E-17  0.1000E-09  0.0000E+00  0.5223E+16
   -1.237494    1.39141  0.1500E-10  0.1334E-13  0.7603E-17  0.1000E-09  0.0000E+00  0.5324E+16
   -1.306246    1.52036  0.1495E-10  0.6263E-13  0.1186E-16  0.1000E-09  0.0000E+00  0.5381E+16
   -1.374998    1.65823  0.1486E-10  0.1872E-12  0.2944E-16  0.1000E-09  0.0000E+00  0.5401E+16
   -1.443750    1.80572  0.1477E-10  0.4984E-12  0.7444E-16  0.1000E-09  0.0000E+00  0.5359E+16
   -1.512502    1.96308  0.1471E-10  0.1282E-11  0.1854E-15  0.1000E-09  0.0000E+00  0.5240E+16
   -1.581254    2.13024  0.1468E-10  0.3242E-11  0.4552E-15  0.1000E-09  0.0000E+00  0.5035E+16
   -1.650006    2.30700  0.1467E-10  0.8092E-11  0.1104E-14  0.1000E-09  0.0000E+00  0.4741E+16
   -1.718758    2.49301  0.1466E-10  0.1996E-10  0.2648E-14  0.1000E-09  0.0000E+00  0.4354E+16
   -1.787510    2.68774  0.1465E-10  0.4991E-10  0.6438E-14  0.1000E-09  0.0000E+00  0.3882E+16
   -1.856261    2.89083  0.1465E-10  0.1255E-09  0.1575E-13  0.1000E-09  0.0000E+00  0.3330E+16
   -1.925013    3.10226  0.1465E-10  0.3144E-09  0.3839E-13  0.1000E-09  0.0000E+00  0.2698E+16
   -1.993763    3.32201  0.1464E-10  0.7840E-09  0.9319E-13  0.2400E-09  0.0000E+00  0.1977E+16
   -2.062514    3.54915  0.1463E-10  0.1901E-08  0.2201E-12  0.9616E-09  0.0000E+00  0.1166E+16
   -2.131264    3.77882  0.1459E-10  0.4532E-08  0.5116E-12  0.7746E-08  0.0000E+00  0.3365E+15
   -2.200014    3.99991  0.1457E-10  0.5738E-08  0.6533E-12  0.1962E-04  0.0000E+00 -0.3760E+12
   -2.268764    4.00158  0.1457E-10  0.6245E-08  0.7330E-12  0.2070E-04  0.0000E+00 -0.3996E+12
   -2.337513    4.00317  0.1457E-10  0.6655E-08  0.8259E-12  0.2065E-04  0.0000E+00 -0.4447E+12
   -2.406261    4.00478  0.1457E-10  0.6971E-08  0.9439E-12  0.1939E-04  0.0000E+00 -0.5241E+12
   -2.475010    4.00651  0.1457E-10  0.7180E-08  0.1112E-11  0.1680E-04  0.0000E+00 -0.6741E+12
   -2.543757    4.00854  0.1457E-10  0.7237E-08  0.1398E-11  0.1271E-04  0.0000E+00 -0.1013E+13
   -2.612504    4.01128  0.1457E-10  0.6996E-08  0.2066E-11  0.7110E-05  0.0000E+00 -0.2200E+13
   -2.681250    4.01639  0.1457E-10  0.5602E-08  0.5605E-11  0.1321E-05  0.0000E+00 -0.2077E+14
   -2.749996    4.04596  0.1457E-10  0.0000E+00  0.0000E+00  0.0000E+00  0.0000E+00  0.0000E+00
