 1 - depth, m
 2 - temperature, C
 3 - salinity, kg/kg
 4 - turbulent kinetic energy, m**2/s**2
 5 - dissipation rate, m**2/s**3
 6 - kinematic heat conductance, m**2/s
 7 - modulus of horizontal velocity, m/s
 8 - Richardson number, n/d
   -0.000000   -0.00000  0.1174E-09  0.1219E-13  0.7603E-17  0.1000E-09  0.0000E+00  0.5783E+16
   -0.068746    0.08778  0.6702E-10  0.1219E-13  0.7603E-17  0.1000E-09  0.0000E+00  0.5587E+16
   -0.137492    0.17464  0.4972E-10  0.1219E-13  0.7603E-17  0.1000E-09  0.0000E+00  0.5415E+16
   -0.206239    0.26088  0.4501E-10  0.1219E-13  0.7603E-17  0.1000E-09  0.0000E+00  0.5265E+16
   -0.274987    0.34683  0.4390E-10  0.1219E-13  0.7603E-17  0.1000E-09  0.0000E+00  0.5138E+16
   -0.343735    0.43283  0.4366E-10  0.1219E-13  0.7603E-17  0.1000E-09  0.0000E+00  0.5030E+16
   -0.412483    0.51921  0.4362E-10  0.1219E-13  0.7603E-17  0.1000E-09  0.0000E+00  0.4939E+16
   -0.481233    0.60632  0.4361E-10  0.1219E-13  0.7603E-17  0.1000E-09  0.0000E+00  0.4864E+16
   -0.549982    0.69447  0.4361E-10  0.1219E-13  0.7603E-17  0.1000E-09  0.0000E+00  0.4800E+16
   -0.618732    0.78399  0.4361E-10  0.1219E-13  0.7603E-17  0.1000E-09  0.0000E+00  0.4746E+16
   -0.687482    0.87516  0.4361E-10  0.1219E-13  0.7603E-17  0.1000E-09  0.0000E+00  0.4710E+16
   -0.756233    0.96851  0.4361E-10  0.1219E-13  0.7603E-17  0.1000E-09  0.0000E+00  0.4683E+16
   -0.824984    1.06444  0.4361E-10  0.1219E-13  0.7603E-17  0.1000E-09  0.0000E+00  0.4653E+16
   -0.893735    1.16315  0.4361E-10  0.1219E-13  0.7603E-17  0.1000E-09  0.0000E+00  0.4618E+16
   -0.962487    1.26483  0.4361E-10  0.1219E-13  0.7603E-17  0.1000E-09  0.0000E+00  0.4574E+16
   -1.031239    1.36960  0.4361E-10  0.1219E-13  0.7603E-17  0.1000E-09  0.0000E+00  0.4518E+16
   -1.099991    1.47758  0.4360E-10  0.1219E-13  0.7603E-17  0.1000E-09  0.0000E+00  0.4446E+16
   -1.168743    1.58880  0.4357E-10  0.1219E-13  0.7603E-17  0.1000E-09  0.0000E+00  0.4358E+16
   -1.237495    1.70328  0.4352E-10  0.1219E-13  0.7603E-17  0.1000E-09  0.0000E+00  0.4250E+16
   -1.306247    1.82097  0.4341E-10  0.1219E-13  0.7603E-17  0.1000E-09  0.0000E+00  0.4121E+16
   -1.374999    1.94181  0.4326E-10  0.1219E-13  0.7603E-17  0.1000E-09  0.0000E+00  0.3977E+16
   -1.443751    2.06587  0.4307E-10  0.1219E-13  0.7603E-17  0.1000E-09  0.0000E+00  0.3811E+16
   -1.512504    2.19305  0.4291E-10  0.1219E-13  0.7603E-17  0.1000E-09  0.0000E+00  0.3620E+16
   -1.581256    2.32313  0.4280E-10  0.1219E-13  0.7603E-17  0.1000E-09  0.0000E+00  0.3405E+16
   -1.650008    2.45584  0.4274E-10  0.1672E-13  0.7603E-17  0.1000E-09  0.0000E+00  0.3167E+16
   -1.718760    2.59085  0.4271E-10  0.6930E-13  0.1718E-16  0.1000E-09  0.0000E+00  0.2908E+16
   -1.787511    2.72783  0.4269E-10  0.2374E-12  0.5339E-16  0.1000E-09  0.0000E+00  0.2642E+16
   -1.856263    2.86701  0.4267E-10  0.7739E-12  0.1670E-15  0.1000E-09  0.0000E+00  0.2359E+16
   -1.925014    3.00823  0.4265E-10  0.2475E-11  0.5157E-15  0.1000E-09  0.0000E+00  0.2062E+16
   -1.993765    3.15138  0.4262E-10  0.7819E-11  0.1575E-14  0.1000E-09  0.0000E+00  0.1749E+16
   -2.062516    3.29603  0.4256E-10  0.2383E-10  0.4643E-14  0.1000E-09  0.0000E+00  0.1420E+16
   -2.131266    3.44138  0.4246E-10  0.7139E-10  0.1346E-13  0.1000E-09  0.0000E+00  0.1085E+16
   -2.200016    3.58706  0.4234E-10  0.2110E-09  0.3852E-13  0.2616E-09  0.0000E+00  0.7480E+15
   -2.268766    3.73254  0.4224E-10  0.6211E-09  0.1098E-12  0.1352E-08  0.0000E+00  0.4122E+15
   -2.337515    3.87707  0.4221E-10  0.1823E-08  0.3127E-12  0.1742E-07  0.0000E+00  0.9015E+14
   -2.406264    4.00720  0.4220E-10  0.3288E-08  0.5687E-12  0.7953E-05  0.0000E+00 -0.8946E+12
   -2.475012    4.00978  0.4220E-10  0.3841E-08  0.7248E-12  0.7902E-05  0.0000E+00 -0.1032E+13
   -2.543759    4.01243  0.4220E-10  0.4175E-08  0.9482E-12  0.6588E-05  0.0000E+00 -0.1440E+13
   -2.612506    4.01575  0.4220E-10  0.4239E-08  0.1428E-11  0.4003E-05  0.0000E+00 -0.2969E+13
   -2.681253    4.02160  0.4220E-10  0.3659E-08  0.3651E-11  0.9533E-06  0.0000E+00 -0.2258E+14
   -2.749998    4.05057  0.4220E-10  0.0000E+00  0.0000E+00  0.0000E+00  0.0000E+00  0.0000E+00
