 1 - depth, m
 2 - temperature, C
 3 - salinity, kg/kg
 4 - turbulent kinetic energy, m**2/s**2
 5 - dissipation rate, m**2/s**3
 6 - kinematic heat conductance, m**2/s
 7 - modulus of horizontal velocity, m/s
 8 - Richardson number, n/d
   -0.000000   -0.00000  0.5995E-11  0.1219E-13  0.7603E-17  0.1000E-09  0.0000E+00  0.6547E+16
   -0.068746    0.09955  0.1988E-10  0.1219E-13  0.7603E-17  0.1000E-09  0.0000E+00  0.6474E+16
   -0.137493    0.20072  0.2661E-10  0.1219E-13  0.7603E-17  0.1000E-09  0.0000E+00  0.6383E+16
   -0.206240    0.30338  0.2788E-10  0.1219E-13  0.7603E-17  0.1000E-09  0.0000E+00  0.6276E+16
   -0.274988    0.40737  0.2656E-10  0.1219E-13  0.7603E-17  0.1000E-09  0.0000E+00  0.6153E+16
   -0.343736    0.51254  0.2449E-10  0.1219E-13  0.7603E-17  0.1000E-09  0.0000E+00  0.6015E+16
   -0.412485    0.61870  0.2264E-10  0.1219E-13  0.7603E-17  0.1000E-09  0.0000E+00  0.5863E+16
   -0.481234    0.72570  0.2134E-10  0.1219E-13  0.7603E-17  0.1000E-09  0.0000E+00  0.5698E+16
   -0.549984    0.83337  0.2056E-10  0.1219E-13  0.7603E-17  0.1000E-09  0.0000E+00  0.5523E+16
   -0.618734    0.94157  0.2015E-10  0.1219E-13  0.7603E-17  0.1000E-09  0.0000E+00  0.5339E+16
   -0.687485    1.05014  0.1995E-10  0.1219E-13  0.7603E-17  0.1000E-09  0.0000E+00  0.5148E+16
   -0.756236    1.15899  0.1986E-10  0.1219E-13  0.7603E-17  0.1000E-09  0.0000E+00  0.4952E+16
   -0.824987    1.26800  0.1982E-10  0.1219E-13  0.7603E-17  0.1000E-09  0.0000E+00  0.4752E+16
   -0.893738    1.37708  0.1980E-10  0.1219E-13  0.7603E-17  0.1000E-09  0.0000E+00  0.4547E+16
   -0.962490    1.48612  0.1978E-10  0.1219E-13  0.7603E-17  0.1000E-09  0.0000E+00  0.4341E+16
   -1.031242    1.59504  0.1976E-10  0.1219E-13  0.7603E-17  0.1000E-09  0.0000E+00  0.4133E+16
   -1.099994    1.70376  0.1974E-10  0.1219E-13  0.7603E-17  0.1000E-09  0.0000E+00  0.3924E+16
   -1.168747    1.81223  0.1970E-10  0.1219E-13  0.7603E-17  0.1000E-09  0.0000E+00  0.3716E+16
   -1.237499    1.92040  0.1966E-10  0.1219E-13  0.7603E-17  0.1000E-09  0.0000E+00  0.3509E+16
   -1.306251    2.02820  0.1961E-10  0.1219E-13  0.7603E-17  0.1000E-09  0.0000E+00  0.3304E+16
   -1.375004    2.13563  0.1955E-10  0.1219E-13  0.7603E-17  0.1000E-09  0.0000E+00  0.3102E+16
   -1.443756    2.24269  0.1950E-10  0.1219E-13  0.7603E-17  0.1000E-09  0.0000E+00  0.2903E+16
   -1.512509    2.34939  0.1944E-10  0.1219E-13  0.7603E-17  0.1000E-09  0.0000E+00  0.2706E+16
   -1.581261    2.45574  0.1940E-10  0.1219E-13  0.7603E-17  0.1000E-09  0.0000E+00  0.2512E+16
   -1.650013    2.56172  0.1936E-10  0.1219E-13  0.7603E-17  0.1000E-09  0.0000E+00  0.2320E+16
   -1.718766    2.66737  0.1933E-10  0.1219E-13  0.7603E-17  0.1000E-09  0.0000E+00  0.2131E+16
   -1.787518    2.77267  0.1930E-10  0.1219E-13  0.7603E-17  0.1000E-09  0.0000E+00  0.1931E+16
   -1.856269    2.87685  0.1928E-10  0.1219E-13  0.7603E-17  0.1000E-09  0.0000E+00  0.1734E+16
   -1.925021    2.97972  0.1926E-10  0.1219E-13  0.7603E-17  0.1000E-09  0.0000E+00  0.1540E+16
   -1.993772    3.08104  0.1924E-10  0.1219E-13  0.7603E-17  0.1000E-09  0.0000E+00  0.1355E+16
   -2.062523    3.18077  0.1923E-10  0.1219E-13  0.7603E-17  0.1000E-09  0.0000E+00  0.1191E+16
   -2.131274    3.28015  0.1921E-10  0.1219E-13  0.7603E-17  0.1000E-09  0.0000E+00  0.1031E+16
   -2.200024    3.37932  0.1920E-10  0.1219E-13  0.7603E-17  0.1000E-09  0.0000E+00  0.8720E+15
   -2.268774    3.47829  0.1919E-10  0.2918E-13  0.1800E-16  0.1000E-09  0.0000E+00  0.7144E+15
   -2.337523    3.57700  0.1918E-10  0.1704E-12  0.1011E-15  0.1000E-09  0.0000E+00  0.5582E+15
   -2.406272    3.67538  0.1918E-10  0.1030E-11  0.5897E-15  0.1000E-09  0.0000E+00  0.4035E+15
   -2.475020    3.77329  0.1918E-10  0.6208E-11  0.3443E-14  0.1000E-09  0.0000E+00  0.2509E+15
   -2.543768    3.87043  0.1918E-10  0.3739E-10  0.2024E-13  0.8955E-09  0.0000E+00  0.1020E+15
   -2.612515    3.96573  0.1918E-10  0.2264E-09  0.1229E-12  0.9678E-07  0.0000E+00 -0.5965E+13
   -2.681262    4.02075  0.1918E-10  0.7219E-09  0.6516E-12  0.2767E-06  0.0000E+00 -0.2234E+14
   -2.750008    4.04988  0.1918E-10  0.0000E+00  0.0000E+00  0.0000E+00  0.0000E+00  0.0000E+00
