 1 - depth, m
 2 - temperature, C
 3 - salinity, kg/kg
 4 - turbulent kinetic energy, m**2/s**2
 5 - dissipation rate, m**2/s**3
 6 - kinematic heat conductance, m**2/s
 7 - modulus of horizontal velocity, m/s
 8 - Richardson number, n/d
   -0.000000    6.40325  0.3302E-10  0.9970E-05  0.3305E-06  0.2989E-04  0.2102E-01 -0.2372E-01
   -0.068746    6.45083  0.3302E-10  0.9599E-05  0.1271E-06  0.7686E-04  0.1386E-01 -0.6038E-01
   -0.137492    6.46871  0.3302E-10  0.9241E-05  0.7543E-07  0.1287E-03  0.1108E-01 -0.1020E+00
   -0.206239    6.47904  0.3302E-10  0.8947E-05  0.5244E-07  0.1856E-03  0.9452E-02 -0.1481E+00
   -0.274987    6.48598  0.3302E-10  0.8712E-05  0.3968E-07  0.2488E-03  0.8337E-02 -0.1937E+00
   -0.343735    6.49101  0.3302E-10  0.8524E-05  0.3171E-07  0.3378E-03  0.7512E-02 -0.6379E-03
   -0.412484    6.49467  0.3302E-10  0.8379E-05  0.2646E-07  0.5285E-03  0.6877E-02  0.4570E+02
   -0.481233    6.49708  0.3302E-10  0.8279E-05  0.2296E-07  0.8231E-03  0.6388E-02  0.9883E+02
   -0.549983    6.49859  0.3302E-10  0.8221E-05  0.2046E-07  0.1044E-02  0.6001E-02  0.8699E+02
   -0.618733    6.49968  0.3302E-10  0.8188E-05  0.1850E-07  0.1133E-02  0.5652E-02  0.9025E+01
   -0.687483    6.50065  0.3302E-10  0.8167E-05  0.1688E-07  0.1171E-02  0.5321E-02  0.9774E+01
   -0.756234    6.50156  0.3302E-10  0.8153E-05  0.1552E-07  0.1213E-02  0.5006E-02  0.1031E+02
   -0.824985    6.50242  0.3302E-10  0.8140E-05  0.1438E-07  0.1253E-02  0.4705E-02  0.1076E+02
   -0.893737    6.50323  0.3302E-10  0.8126E-05  0.1340E-07  0.1290E-02  0.4418E-02  0.1121E+02
   -0.962488    6.50400  0.3302E-10  0.8108E-05  0.1256E-07  0.1325E-02  0.4141E-02  0.1165E+02
   -1.031240    6.50473  0.3302E-10  0.8083E-05  0.1182E-07  0.1358E-02  0.3874E-02  0.1212E+02
   -1.099992    6.50542  0.3302E-10  0.8051E-05  0.1118E-07  0.1388E-02  0.3615E-02  0.1263E+02
   -1.168744    6.50608  0.3302E-10  0.8009E-05  0.1061E-07  0.1414E-02  0.3363E-02  0.1321E+02
   -1.237496    6.50671  0.3302E-10  0.7957E-05  0.1011E-07  0.1438E-02  0.3117E-02  0.1388E+02
   -1.306249    6.50732  0.3302E-10  0.7894E-05  0.9665E-08  0.1457E-02  0.2877E-02  0.1469E+02
   -1.375001    6.50790  0.3302E-10  0.7818E-05  0.9267E-08  0.1472E-02  0.2641E-02  0.1569E+02
   -1.443753    6.50846  0.3302E-10  0.7729E-05  0.8912E-08  0.1481E-02  0.2408E-02  0.1698E+02
   -1.512506    6.50900  0.3302E-10  0.7627E-05  0.8595E-08  0.1486E-02  0.2179E-02  0.1871E+02
   -1.581258    6.50953  0.3302E-10  0.7509E-05  0.8311E-08  0.1483E-02  0.1951E-02  0.2119E+02
   -1.650010    6.51004  0.3302E-10  0.7376E-05  0.8058E-08  0.1479E-02  0.1726E-02  0.2489E+02
   -1.718762    6.51054  0.3302E-10  0.7226E-05  0.7831E-08  0.1454E-02  0.1502E-02  0.2864E+02
   -1.787514    6.51103  0.3302E-10  0.7055E-05  0.7624E-08  0.1489E-02  0.1277E-02  0.7159E+01
   -1.856266    6.51151  0.3302E-10  0.6870E-05  0.7451E-08  0.1521E-02  0.1087E-02  0.3529E+01
   -1.925017    6.51196  0.3302E-10  0.6678E-05  0.7325E-08  0.1571E-02  0.9266E-03  0.2157E+01
   -1.993768    6.51240  0.3302E-10  0.6485E-05  0.7257E-08  0.1635E-02  0.7939E-03  0.1558E+01
   -2.062519    6.51282  0.3302E-10  0.6302E-05  0.7256E-08  0.1672E-02  0.6832E-03  0.1281E+01
   -2.131269    6.51322  0.3302E-10  0.6132E-05  0.7329E-08  0.1613E-02  0.5870E-03  0.1053E+01
   -2.200019    6.51363  0.3302E-10  0.5977E-05  0.7480E-08  0.1506E-02  0.5027E-03  0.8701E+00
   -2.268769    6.51405  0.3302E-10  0.5838E-05  0.7716E-08  0.1392E-02  0.4295E-03  0.6877E+00
   -2.337518    6.51450  0.3302E-10  0.5713E-05  0.8052E-08  0.1281E-02  0.3684E-03  0.5421E+00
   -2.406267    6.51498  0.3302E-10  0.5599E-05  0.8515E-08  0.1186E-02  0.3191E-03  0.4968E+00
   -2.475015    6.51549  0.3302E-10  0.5482E-05  0.9216E-08  0.1072E-02  0.2788E-03  0.6805E+00
   -2.543763    6.51605  0.3302E-10  0.5347E-05  0.1042E-07  0.9732E-03  0.2412E-03  0.1249E+01
   -2.612510    6.51665  0.3302E-10  0.5114E-05  0.1358E-07  0.5433E-03  0.2070E-03  0.1068E+02
   -2.681256    6.51770  0.3302E-10  0.3264E-05  0.5532E-07  0.2512E-04  0.1574E-03 -0.7207E+03
   -2.750002    6.54009  0.3302E-10  0.0000E+00  0.0000E+00  0.0000E+00  0.1573E-03  0.0000E+00
