 1 - depth, m
 2 - temperature, C
 3 - salinity, kg/kg
 4 - turbulent kinetic energy, m**2/s**2
 5 - dissipation rate, m**2/s**3
 6 - kinematic heat conductance, m**2/s
 7 - modulus of horizontal velocity, m/s
 8 - Richardson number, n/d
   -0.000000   -0.00000  0.8263E-11  0.1219E-13  0.7603E-17  0.1000E-09  0.0000E+00  0.7402E+16
   -0.068746    0.11274  0.4813E-11  0.1219E-13  0.7603E-17  0.1000E-09  0.0000E+00  0.7114E+16
   -0.137492    0.22450  0.3484E-11  0.1219E-13  0.7603E-17  0.1000E-09  0.0000E+00  0.6853E+16
   -0.206239    0.33559  0.3050E-11  0.1219E-13  0.7603E-17  0.1000E-09  0.0000E+00  0.6615E+16
   -0.274987    0.44636  0.2930E-11  0.1219E-13  0.7603E-17  0.1000E-09  0.0000E+00  0.6400E+16
   -0.343735    0.55714  0.2901E-11  0.1219E-13  0.7603E-17  0.1000E-09  0.0000E+00  0.6204E+16
   -0.412483    0.66827  0.2895E-11  0.1219E-13  0.7603E-17  0.1000E-09  0.0000E+00  0.6025E+16
   -0.481232    0.78008  0.2894E-11  0.1219E-13  0.7603E-17  0.1000E-09  0.0000E+00  0.5859E+16
   -0.549982    0.89290  0.2894E-11  0.1219E-13  0.7603E-17  0.1000E-09  0.0000E+00  0.5702E+16
   -0.618732    1.00703  0.2894E-11  0.1219E-13  0.7603E-17  0.1000E-09  0.0000E+00  0.5552E+16
   -0.687482    1.12274  0.2894E-11  0.1219E-13  0.7603E-17  0.1000E-09  0.0000E+00  0.5416E+16
   -0.756233    1.24054  0.2894E-11  0.1219E-13  0.7603E-17  0.1000E-09  0.0000E+00  0.5284E+16
   -0.824984    1.36081  0.2894E-11  0.1219E-13  0.7603E-17  0.1000E-09  0.0000E+00  0.5146E+16
   -0.893735    1.48374  0.2893E-11  0.1219E-13  0.7603E-17  0.1000E-09  0.0000E+00  0.4999E+16
   -0.962487    1.60949  0.2893E-11  0.1823E-13  0.7603E-17  0.1000E-09  0.0000E+00  0.4839E+16
   -1.031238    1.73819  0.2891E-11  0.7240E-13  0.1098E-16  0.1000E-09  0.0000E+00  0.4664E+16
   -1.099990    1.86994  0.2886E-11  0.1961E-12  0.2421E-16  0.1000E-09  0.0000E+00  0.4472E+16
   -1.168742    2.00477  0.2879E-11  0.4729E-12  0.5509E-16  0.1000E-09  0.0000E+00  0.4261E+16
   -1.237495    2.14270  0.2868E-11  0.1098E-11  0.1239E-15  0.1000E-09  0.0000E+00  0.4029E+16
   -1.306247    2.28369  0.2853E-11  0.2508E-11  0.2752E-15  0.1000E-09  0.0000E+00  0.3775E+16
   -1.374999    2.42767  0.2840E-11  0.5659E-11  0.6048E-15  0.1000E-09  0.0000E+00  0.3502E+16
   -1.443751    2.57468  0.2829E-11  0.1264E-10  0.1316E-14  0.1000E-09  0.0000E+00  0.3207E+16
   -1.512503    2.72463  0.2821E-11  0.2795E-10  0.2838E-14  0.1000E-09  0.0000E+00  0.2889E+16
   -1.581256    2.87729  0.2816E-11  0.6123E-10  0.6063E-14  0.1000E-09  0.0000E+00  0.2548E+16
   -1.650008    3.03242  0.2813E-11  0.1329E-09  0.1284E-13  0.1000E-09  0.0000E+00  0.2187E+16
   -1.718759    3.18972  0.2812E-11  0.2858E-09  0.2694E-13  0.1000E-09  0.0000E+00  0.1809E+16
   -1.787511    3.34897  0.2810E-11  0.6235E-09  0.5732E-13  0.2033E-09  0.0000E+00  0.1435E+16
   -1.856263    3.51233  0.2808E-11  0.1372E-08  0.1231E-12  0.6083E-09  0.0000E+00  0.1030E+16
   -1.925014    3.67973  0.2805E-11  0.3014E-08  0.2641E-12  0.2266E-08  0.0000E+00  0.5930E+15
   -1.993765    3.85009  0.2803E-11  0.6540E-08  0.5604E-12  0.1997E-07  0.0000E+00  0.1426E+15
   -2.062516    4.00569  0.2802E-11  0.7403E-08  0.6381E-12  0.3504E-04  0.0000E+00 -0.2199E+12
   -2.131266    4.00640  0.2802E-11  0.7764E-08  0.6791E-12  0.3556E-04  0.0000E+00 -0.2248E+12
   -2.200016    4.00710  0.2802E-11  0.8050E-08  0.7229E-12  0.3524E-04  0.0000E+00 -0.2350E+12
   -2.268765    4.00781  0.2802E-11  0.8266E-08  0.7723E-12  0.3405E-04  0.0000E+00 -0.2521E+12
   -2.337515    4.00855  0.2802E-11  0.8416E-08  0.8338E-12  0.3182E-04  0.0000E+00 -0.2799E+12
   -2.406263    4.00934  0.2802E-11  0.8493E-08  0.9167E-12  0.2840E-04  0.0000E+00 -0.3265E+12
   -2.475011    4.01022  0.2802E-11  0.8473E-08  0.1042E-11  0.2358E-04  0.0000E+00 -0.4121E+12
   -2.543759    4.01130  0.2802E-11  0.8304E-08  0.1264E-11  0.1714E-04  0.0000E+00 -0.6016E+12
   -2.612506    4.01279  0.2802E-11  0.7805E-08  0.1803E-11  0.9105E-05  0.0000E+00 -0.1246E+13
   -2.681252    4.01564  0.2802E-11  0.5661E-08  0.5057E-11  0.1229E-05  0.0000E+00 -0.1290E+14
   -2.749998    4.03639  0.2802E-11  0.0000E+00  0.0000E+00  0.0000E+00  0.0000E+00  0.0000E+00
