 1 - depth, m
 2 - temperature, C
 3 - salinity, kg/kg
 4 - turbulent kinetic energy, m**2/s**2
 5 - dissipation rate, m**2/s**3
 6 - kinematic heat conductance, m**2/s
 7 - modulus of horizontal velocity, m/s
 8 - Richardson number, n/d
   -0.000000   -0.00000  0.1893E-10  0.1219E-13  0.7603E-17  0.1000E-09  0.0000E+00  0.7894E+16
   -0.068746    0.12036  0.1172E-10  0.1219E-13  0.7603E-17  0.1000E-09  0.0000E+00  0.7584E+16
   -0.137492    0.23989  0.8387E-11  0.1219E-13  0.7603E-17  0.1000E-09  0.0000E+00  0.7294E+16
   -0.206239    0.35880  0.7155E-11  0.1219E-13  0.7603E-17  0.1000E-09  0.0000E+00  0.7021E+16
   -0.274987    0.47730  0.6767E-11  0.1219E-13  0.7603E-17  0.1000E-09  0.0000E+00  0.6763E+16
   -0.343735    0.59560  0.6660E-11  0.1219E-13  0.7603E-17  0.1000E-09  0.0000E+00  0.6518E+16
   -0.412483    0.71391  0.6633E-11  0.1219E-13  0.7603E-17  0.1000E-09  0.0000E+00  0.6285E+16
   -0.481232    0.83242  0.6627E-11  0.1219E-13  0.7603E-17  0.1000E-09  0.0000E+00  0.6061E+16
   -0.549982    0.95134  0.6626E-11  0.1219E-13  0.7603E-17  0.1000E-09  0.0000E+00  0.5844E+16
   -0.618732    1.07083  0.6626E-11  0.1219E-13  0.7603E-17  0.1000E-09  0.0000E+00  0.5632E+16
   -0.687482    1.19106  0.6626E-11  0.1219E-13  0.7603E-17  0.1000E-09  0.0000E+00  0.5433E+16
   -0.756233    1.31240  0.6626E-11  0.1219E-13  0.7603E-17  0.1000E-09  0.0000E+00  0.5239E+16
   -0.824984    1.43512  0.6625E-11  0.1219E-13  0.7603E-17  0.1000E-09  0.0000E+00  0.5041E+16
   -0.893735    1.55932  0.6624E-11  0.1219E-13  0.7603E-17  0.1000E-09  0.0000E+00  0.4839E+16
   -0.962487    1.68510  0.6622E-11  0.1219E-13  0.7603E-17  0.1000E-09  0.0000E+00  0.4630E+16
   -1.031239    1.81253  0.6616E-11  0.1219E-13  0.7603E-17  0.1000E-09  0.0000E+00  0.4413E+16
   -1.099990    1.94165  0.6606E-11  0.3553E-13  0.7603E-17  0.1000E-09  0.0000E+00  0.4187E+16
   -1.168742    2.07248  0.6589E-11  0.1071E-12  0.1534E-16  0.1000E-09  0.0000E+00  0.3951E+16
   -1.237495    2.20500  0.6564E-11  0.2757E-12  0.3605E-16  0.1000E-09  0.0000E+00  0.3704E+16
   -1.306247    2.33919  0.6535E-11  0.6725E-12  0.8459E-16  0.1000E-09  0.0000E+00  0.3445E+16
   -1.374999    2.47498  0.6506E-11  0.1605E-11  0.1959E-15  0.1000E-09  0.0000E+00  0.3178E+16
   -1.443751    2.61239  0.6483E-11  0.3776E-11  0.4486E-15  0.1000E-09  0.0000E+00  0.2899E+16
   -1.512503    2.75137  0.6466E-11  0.8787E-11  0.1016E-14  0.1000E-09  0.0000E+00  0.2609E+16
   -1.581256    2.89174  0.6455E-11  0.2022E-10  0.2277E-14  0.1000E-09  0.0000E+00  0.2308E+16
   -1.650008    3.03335  0.6448E-11  0.4607E-10  0.5051E-14  0.1000E-09  0.0000E+00  0.1998E+16
   -1.718760    3.17597  0.6444E-11  0.1039E-09  0.1109E-13  0.1000E-09  0.0000E+00  0.1680E+16
   -1.787511    3.31947  0.6440E-11  0.2375E-09  0.2471E-13  0.1000E-09  0.0000E+00  0.1372E+16
   -1.856263    3.46553  0.6436E-11  0.5471E-09  0.5547E-13  0.2696E-09  0.0000E+00  0.1047E+16
   -1.925014    3.61416  0.6430E-11  0.1257E-08  0.1243E-12  0.8970E-09  0.0000E+00  0.7049E+15
   -1.993765    3.76511  0.6424E-11  0.2875E-08  0.2773E-12  0.4091E-08  0.0000E+00  0.3446E+15
   -2.062516    3.91528  0.6422E-11  0.6141E-08  0.5812E-12  0.8463E-07  0.0000E+00  0.3456E+14
   -2.131266    4.01152  0.6421E-11  0.7103E-08  0.6766E-12  0.3165E-04  0.0000E+00 -0.2729E+12
   -2.200016    4.01220  0.6421E-11  0.7492E-08  0.7260E-12  0.3181E-04  0.0000E+00 -0.2790E+12
   -2.268766    4.01288  0.6421E-11  0.7783E-08  0.7786E-12  0.3108E-04  0.0000E+00 -0.2937E+12
   -2.337515    4.01358  0.6421E-11  0.7992E-08  0.8411E-12  0.2933E-04  0.0000E+00 -0.3204E+12
   -2.406263    4.01432  0.6421E-11  0.8113E-08  0.9228E-12  0.2643E-04  0.0000E+00 -0.3671E+12
   -2.475011    4.01514  0.6421E-11  0.8127E-08  0.1043E-11  0.2215E-04  0.0000E+00 -0.4548E+12
   -2.543759    4.01613  0.6421E-11  0.7981E-08  0.1255E-11  0.1627E-04  0.0000E+00 -0.6498E+12
   -2.612506    4.01749  0.6421E-11  0.7502E-08  0.1765E-11  0.8746E-05  0.0000E+00 -0.1310E+13
   -2.681252    4.02007  0.6421E-11  0.5414E-08  0.4812E-11  0.1180E-05  0.0000E+00 -0.1276E+14
   -2.749998    4.03894  0.6421E-11  0.0000E+00  0.0000E+00  0.0000E+00  0.0000E+00  0.0000E+00
