 1 - depth, m
 2 - temperature, C
 3 - salinity, kg/kg
 4 - turbulent kinetic energy, m**2/s**2
 5 - dissipation rate, m**2/s**3
 6 - kinematic heat conductance, m**2/s
 7 - modulus of horizontal velocity, m/s
 8 - Richardson number, n/d
   -0.000000   -0.00000  0.1431E-10  0.1219E-13  0.7603E-17  0.1000E-09  0.0000E+00  0.8242E+16
   -0.068746    0.12575  0.8971E-11  0.1219E-13  0.7603E-17  0.1000E-09  0.0000E+00  0.7908E+16
   -0.137492    0.25067  0.6427E-11  0.1219E-13  0.7603E-17  0.1000E-09  0.0000E+00  0.7595E+16
   -0.206239    0.37497  0.5464E-11  0.1219E-13  0.7603E-17  0.1000E-09  0.0000E+00  0.7299E+16
   -0.274987    0.49885  0.5153E-11  0.1219E-13  0.7603E-17  0.1000E-09  0.0000E+00  0.7018E+16
   -0.343735    0.62254  0.5066E-11  0.1219E-13  0.7603E-17  0.1000E-09  0.0000E+00  0.6750E+16
   -0.412483    0.74622  0.5044E-11  0.1219E-13  0.7603E-17  0.1000E-09  0.0000E+00  0.6494E+16
   -0.481232    0.87010  0.5039E-11  0.1219E-13  0.7603E-17  0.1000E-09  0.0000E+00  0.6246E+16
   -0.549982    0.99435  0.5038E-11  0.1219E-13  0.7603E-17  0.1000E-09  0.0000E+00  0.6005E+16
   -0.618732    1.11914  0.5038E-11  0.1219E-13  0.7603E-17  0.1000E-09  0.0000E+00  0.5769E+16
   -0.687482    1.24464  0.5038E-11  0.1219E-13  0.7603E-17  0.1000E-09  0.0000E+00  0.5545E+16
   -0.756233    1.37121  0.5038E-11  0.1219E-13  0.7603E-17  0.1000E-09  0.0000E+00  0.5325E+16
   -0.824984    1.49908  0.5037E-11  0.1219E-13  0.7603E-17  0.1000E-09  0.0000E+00  0.5102E+16
   -0.893735    1.62837  0.5036E-11  0.1219E-13  0.7603E-17  0.1000E-09  0.0000E+00  0.4873E+16
   -0.962487    1.75916  0.5034E-11  0.2015E-13  0.7603E-17  0.1000E-09  0.0000E+00  0.4638E+16
   -1.031239    1.89150  0.5030E-11  0.7626E-13  0.1149E-16  0.1000E-09  0.0000E+00  0.4395E+16
   -1.099990    2.02543  0.5021E-11  0.2052E-12  0.2565E-16  0.1000E-09  0.0000E+00  0.4143E+16
   -1.168742    2.16095  0.5008E-11  0.4965E-12  0.5873E-16  0.1000E-09  0.0000E+00  0.3880E+16
   -1.237495    2.29803  0.4989E-11  0.1160E-11  0.1328E-15  0.1000E-09  0.0000E+00  0.3607E+16
   -1.306247    2.43664  0.4967E-11  0.2664E-11  0.2968E-15  0.1000E-09  0.0000E+00  0.3324E+16
   -1.374999    2.57669  0.4945E-11  0.6046E-11  0.6561E-15  0.1000E-09  0.0000E+00  0.3032E+16
   -1.443751    2.71820  0.4927E-11  0.1358E-10  0.1436E-14  0.1000E-09  0.0000E+00  0.2730E+16
   -1.512503    2.86108  0.4915E-11  0.3020E-10  0.3112E-14  0.1000E-09  0.0000E+00  0.2418E+16
   -1.581256    3.00518  0.4907E-11  0.6652E-10  0.6682E-14  0.1000E-09  0.0000E+00  0.2096E+16
   -1.650008    3.15031  0.4901E-11  0.1451E-09  0.1421E-13  0.1000E-09  0.0000E+00  0.1766E+16
   -1.718760    3.29625  0.4898E-11  0.3136E-09  0.2996E-13  0.1066E-09  0.0000E+00  0.1430E+16
   -1.787511    3.44287  0.4894E-11  0.6874E-09  0.6405E-13  0.2952E-09  0.0000E+00  0.1104E+16
   -1.856263    3.59207  0.4889E-11  0.1519E-08  0.1381E-12  0.9246E-09  0.0000E+00  0.7599E+15
   -1.925014    3.74361  0.4884E-11  0.3347E-08  0.2971E-12  0.3799E-08  0.0000E+00  0.3978E+15
   -1.993765    3.89541  0.4882E-11  0.7164E-08  0.6231E-12  0.5263E-07  0.0000E+00  0.5994E+14
   -2.062516    4.01111  0.4882E-11  0.8051E-08  0.7041E-12  0.3836E-04  0.0000E+00 -0.2284E+12
   -2.131266    4.01169  0.4882E-11  0.8418E-08  0.7463E-12  0.3860E-04  0.0000E+00 -0.2324E+12
   -2.200016    4.01227  0.4882E-11  0.8703E-08  0.7909E-12  0.3799E-04  0.0000E+00 -0.2416E+12
   -2.268766    4.01285  0.4882E-11  0.8913E-08  0.8410E-12  0.3651E-04  0.0000E+00 -0.2575E+12
   -2.337515    4.01347  0.4882E-11  0.9053E-08  0.9033E-12  0.3397E-04  0.0000E+00 -0.2839E+12
   -2.406263    4.01413  0.4882E-11  0.9113E-08  0.9874E-12  0.3023E-04  0.0000E+00 -0.3283E+12
   -2.475011    4.01487  0.4882E-11  0.9071E-08  0.1115E-11  0.2504E-04  0.0000E+00 -0.4099E+12
   -2.543759    4.01577  0.4882E-11  0.8870E-08  0.1342E-11  0.1819E-04  0.0000E+00 -0.5899E+12
   -2.612506    4.01702  0.4882E-11  0.8320E-08  0.1895E-11  0.9663E-05  0.0000E+00 -0.1194E+13
   -2.681252    4.01941  0.4882E-11  0.5971E-08  0.5305E-11  0.1252E-05  0.0000E+00 -0.1195E+14
   -2.749998    4.03752  0.4882E-11  0.0000E+00  0.0000E+00  0.0000E+00  0.0000E+00  0.0000E+00
