 1 - depth, m
 2 - temperature, C
 3 - salinity, kg/kg
 4 - turbulent kinetic energy, m**2/s**2
 5 - dissipation rate, m**2/s**3
 6 - kinematic heat conductance, m**2/s
 7 - modulus of horizontal velocity, m/s
 8 - Richardson number, n/d
   -0.000000    7.98506  0.9582E-10  0.2312E-04  0.1599E-05  0.3328E-04  0.5732E-01  0.5178E-02
   -0.068746    7.96130  0.9583E-10  0.1930E-04  0.4937E-06  0.7297E-04  0.4338E-01  0.1667E-01
   -0.137492    7.95027  0.9583E-10  0.1723E-04  0.2657E-06  0.1013E-03  0.3842E-01  0.3013E-01
   -0.206239    7.94165  0.9583E-10  0.1557E-04  0.1747E-06  0.1201E-03  0.3522E-01  0.4734E-01
   -0.274987    7.93382  0.9583E-10  0.1409E-04  0.1264E-06  0.1300E-03  0.3283E-01  0.6894E-01
   -0.343735    7.92603  0.9583E-10  0.1270E-04  0.9668E-07  0.1320E-03  0.3087E-01  0.9563E-01
   -0.412484    7.91762  0.9583E-10  0.1139E-04  0.7659E-07  0.1275E-03  0.2918E-01  0.1281E+00
   -0.481233    7.90778  0.9583E-10  0.1012E-04  0.6222E-07  0.1179E-03  0.2763E-01  0.1666E+00
   -0.549983    7.89493  0.9584E-10  0.8895E-05  0.5156E-07  0.1050E-03  0.2616E-01  0.2089E+00
   -0.618733    7.87521  0.9584E-10  0.7687E-05  0.4341E-07  0.9025E-04  0.2465E-01  0.2499E+00
   -0.687484    7.83599  0.9585E-10  0.6486E-05  0.3628E-07  0.7501E-04  0.2295E-01  0.2879E+00
   -0.756235    7.71907  0.9587E-10  0.5369E-05  0.2966E-07  0.6030E-04  0.2072E-01  0.3253E+00
   -0.824986    7.56946  0.9591E-10  0.4385E-05  0.2411E-07  0.4672E-04  0.1824E-01  0.4100E+00
   -0.893737    7.41859  0.9594E-10  0.3537E-05  0.1943E-07  0.3482E-04  0.1579E-01  0.6472E+00
   -0.962489    7.27604  0.9597E-10  0.2811E-05  0.1546E-07  0.2761E-04  0.1347E-01  0.1391E+01
   -1.031241    7.14336  0.9599E-10  0.2193E-05  0.1207E-07  0.2801E-04  0.1132E-01  0.1962E+01
   -1.099993    7.02074  0.9602E-10  0.1670E-05  0.9153E-08  0.3830E-04  0.9314E-02  0.1954E+01
   -1.168745    6.90477  0.9604E-10  0.1231E-05  0.6558E-08  0.6125E-04  0.7417E-02  0.2027E+01
   -1.237497    6.77673  0.9607E-10  0.8895E-06  0.4200E-08  0.1199E-03  0.5486E-02  0.2550E+03
   -1.306250    6.61528  0.9611E-10  0.7042E-06  0.2157E-08  0.1947E-03  0.3449E-02  0.1835E+03
   -1.375002    6.43410  0.9615E-10  0.7321E-06  0.7949E-09  0.2513E-03  0.1574E-02  0.1965E+03
   -1.443754    6.32081  0.9618E-10  0.8388E-06  0.6194E-09  0.3067E-03  0.4965E-03  0.2446E+03
   -1.512507    6.30000  0.9618E-10  0.9075E-06  0.5849E-09  0.3664E-03  0.1641E-03  0.2979E+03
   -1.581259    6.29848  0.9618E-10  0.9498E-06  0.6004E-09  0.4391E-03  0.9967E-04  0.3131E+03
   -1.650011    6.29865  0.9618E-10  0.9849E-06  0.6232E-09  0.4960E-03  0.8162E-04  0.4023E+03
   -1.718763    6.29890  0.9618E-10  0.1016E-05  0.6486E-09  0.5217E-03  0.6853E-04  0.8063E+02
   -1.787515    6.29921  0.9618E-10  0.1045E-05  0.6771E-09  0.5247E-03  0.5739E-04  0.4047E+02
   -1.856267    6.29956  0.9618E-10  0.1074E-05  0.7104E-09  0.5267E-03  0.4803E-04  0.6065E+02
   -1.925018    6.29993  0.9618E-10  0.1102E-05  0.7493E-09  0.5252E-03  0.4026E-04  0.9299E+02
   -1.993769    6.30033  0.9618E-10  0.1131E-05  0.7953E-09  0.5203E-03  0.3389E-04  0.1489E+03
   -2.062520    6.30077  0.9618E-10  0.1158E-05  0.8475E-09  0.5113E-03  0.2858E-04  0.2512E+03
   -2.131271    6.30127  0.9618E-10  0.1183E-05  0.9064E-09  0.4984E-03  0.2387E-04  0.3886E+03
   -2.200021    6.30183  0.9618E-10  0.1204E-05  0.9736E-09  0.4812E-03  0.1966E-04  0.6427E+03
   -2.268770    6.30247  0.9618E-10  0.1221E-05  0.1052E-08  0.4592E-03  0.1585E-04  0.1075E+04
   -2.337520    6.30319  0.9618E-10  0.1233E-05  0.1150E-08  0.4306E-03  0.1254E-04  0.2095E+04
   -2.406268    6.30400  0.9618E-10  0.1238E-05  0.1279E-08  0.3944E-03  0.9704E-05  0.5069E+04
   -2.475017    6.30495  0.9618E-10  0.1235E-05  0.1465E-08  0.3482E-03  0.7287E-05  0.1870E+05
   -2.543764    6.30609  0.9618E-10  0.1218E-05  0.1764E-08  0.2882E-03  0.5246E-05  0.1118E+08
   -2.612512    6.30755  0.9618E-10  0.1176E-05  0.2372E-08  0.2172E-03  0.3507E-05  0.5805E+07
   -2.681258    6.30964  0.9618E-10  0.8363E-06  0.7965E-08  0.1561E-04  0.2125E-05 -0.5253E+07
   -2.750004    6.34227  0.9618E-10  0.0000E+00  0.0000E+00  0.0000E+00  0.2126E-05  0.0000E+00
