 1 - depth, m
 2 - temperature, C
 3 - salinity, kg/kg
 4 - turbulent kinetic energy, m**2/s**2
 5 - dissipation rate, m**2/s**3
 6 - kinematic heat conductance, m**2/s
 7 - modulus of horizontal velocity, m/s
 8 - Richardson number, n/d
   -0.000000   -0.00000  0.2708E-11  0.1219E-13  0.7603E-17  0.1000E-09  0.0000E+00  0.7436E+16
   -0.068746    0.11327  0.6093E-11  0.1219E-13  0.7603E-17  0.1000E-09  0.0000E+00  0.7324E+16
   -0.137493    0.22839  0.7156E-11  0.1219E-13  0.7603E-17  0.1000E-09  0.0000E+00  0.7185E+16
   -0.206240    0.34510  0.7112E-11  0.1219E-13  0.7603E-17  0.1000E-09  0.0000E+00  0.7023E+16
   -0.274988    0.46316  0.6625E-11  0.1219E-13  0.7603E-17  0.1000E-09  0.0000E+00  0.6840E+16
   -0.343736    0.58231  0.6068E-11  0.1219E-13  0.7603E-17  0.1000E-09  0.0000E+00  0.6639E+16
   -0.412485    0.70233  0.5625E-11  0.1219E-13  0.7603E-17  0.1000E-09  0.0000E+00  0.6422E+16
   -0.481234    0.82301  0.5338E-11  0.1219E-13  0.7603E-17  0.1000E-09  0.0000E+00  0.6192E+16
   -0.549984    0.94416  0.5177E-11  0.1219E-13  0.7603E-17  0.1000E-09  0.0000E+00  0.5953E+16
   -0.618734    1.06561  0.5098E-11  0.1219E-13  0.7603E-17  0.1000E-09  0.0000E+00  0.5706E+16
   -0.687485    1.18720  0.5061E-11  0.1219E-13  0.7603E-17  0.1000E-09  0.0000E+00  0.5454E+16
   -0.756236    1.30885  0.5045E-11  0.1219E-13  0.7603E-17  0.1000E-09  0.0000E+00  0.5199E+16
   -0.824987    1.43044  0.5038E-11  0.1219E-13  0.7603E-17  0.1000E-09  0.0000E+00  0.4942E+16
   -0.893739    1.55188  0.5034E-11  0.1219E-13  0.7603E-17  0.1000E-09  0.0000E+00  0.4682E+16
   -0.962490    1.67308  0.5029E-11  0.1219E-13  0.7603E-17  0.1000E-09  0.0000E+00  0.4423E+16
   -1.031242    1.79396  0.5023E-11  0.1219E-13  0.7603E-17  0.1000E-09  0.0000E+00  0.4164E+16
   -1.099994    1.91444  0.5015E-11  0.1219E-13  0.7603E-17  0.1000E-09  0.0000E+00  0.3907E+16
   -1.168747    2.03448  0.5004E-11  0.1219E-13  0.7603E-17  0.1000E-09  0.0000E+00  0.3652E+16
   -1.237499    2.15402  0.4991E-11  0.1219E-13  0.7603E-17  0.1000E-09  0.0000E+00  0.3400E+16
   -1.306252    2.27302  0.4976E-11  0.1219E-13  0.7603E-17  0.1000E-09  0.0000E+00  0.3151E+16
   -1.375004    2.39144  0.4961E-11  0.1219E-13  0.7603E-17  0.1000E-09  0.0000E+00  0.2906E+16
   -1.443757    2.50930  0.4946E-11  0.1219E-13  0.7603E-17  0.1000E-09  0.0000E+00  0.2665E+16
   -1.512509    2.62657  0.4932E-11  0.1219E-13  0.7603E-17  0.1000E-09  0.0000E+00  0.2429E+16
   -1.581261    2.74326  0.4921E-11  0.1219E-13  0.7603E-17  0.1000E-09  0.0000E+00  0.2196E+16
   -1.650014    2.85936  0.4912E-11  0.5016E-13  0.1108E-16  0.1000E-09  0.0000E+00  0.1968E+16
   -1.718766    2.97488  0.4904E-11  0.1584E-12  0.2909E-16  0.1000E-09  0.0000E+00  0.1743E+16
   -1.787518    3.08977  0.4899E-11  0.4637E-12  0.8088E-16  0.1000E-09  0.0000E+00  0.1506E+16
   -1.856270    3.20270  0.4894E-11  0.1334E-11  0.2249E-15  0.1000E-09  0.0000E+00  0.1276E+16
   -1.925021    3.31327  0.4890E-11  0.3794E-11  0.6199E-15  0.1000E-09  0.0000E+00  0.1055E+16
   -1.993772    3.42097  0.4887E-11  0.1070E-10  0.1696E-14  0.1000E-09  0.0000E+00  0.8482E+15
   -2.062523    3.52566  0.4885E-11  0.2923E-10  0.4497E-14  0.1000E-09  0.0000E+00  0.6694E+15
   -2.131274    3.62954  0.4884E-11  0.7869E-10  0.1176E-13  0.1204E-09  0.0000E+00  0.4960E+15
   -2.200024    3.73280  0.4883E-11  0.2096E-09  0.3042E-13  0.4740E-09  0.0000E+00  0.3256E+15
   -2.268774    3.83523  0.4883E-11  0.5568E-09  0.7854E-13  0.2502E-08  0.0000E+00  0.1589E+15
   -2.337523    3.93567  0.4883E-11  0.1451E-08  0.1997E-12  0.5844E-07  0.0000E+00  0.1663E+14
   -2.406272    4.00739  0.4883E-11  0.2433E-08  0.3394E-12  0.8033E-05  0.0000E+00 -0.6030E+12
   -2.475020    4.00914  0.4883E-11  0.2786E-08  0.4172E-12  0.7785E-05  0.0000E+00 -0.6703E+12
   -2.543768    4.01094  0.4883E-11  0.2952E-08  0.5161E-12  0.6395E-05  0.0000E+00 -0.8765E+12
   -2.612516    4.01312  0.4883E-11  0.2865E-08  0.7116E-12  0.3729E-05  0.0000E+00 -0.1629E+13
   -2.681262    4.01675  0.4883E-11  0.2080E-08  0.1628E-11  0.5810E-06  0.0000E+00 -0.1168E+14
   -2.750008    4.03549  0.4883E-11  0.0000E+00  0.0000E+00  0.0000E+00  0.0000E+00  0.0000E+00
