 1 - depth, m
 2 - temperature, C
 3 - salinity, kg/kg
 4 - turbulent kinetic energy, m**2/s**2
 5 - dissipation rate, m**2/s**3
 6 - kinematic heat conductance, m**2/s
 7 - modulus of horizontal velocity, m/s
 8 - Richardson number, n/d
   -0.000000    0.00000  0.0000E+00  0.1218E-13  0.7603E-17  0.1000E-09  0.0000E+00  0.5010E+16
   -0.068746    0.07593  0.3269E-12  0.1218E-13  0.7603E-17  0.1000E-09  0.0000E+00  0.5418E+16
   -0.137493    0.15986  0.1202E-11  0.1218E-13  0.7603E-17  0.1000E-09  0.0000E+00  0.5731E+16
   -0.206241    0.25081  0.2092E-11  0.1218E-13  0.7603E-17  0.1000E-09  0.0000E+00  0.5928E+16
   -0.274989    0.34744  0.2660E-11  0.1218E-13  0.7603E-17  0.1000E-09  0.0000E+00  0.6019E+16
   -0.343737    0.44843  0.2865E-11  0.1218E-13  0.7603E-17  0.1000E-09  0.0000E+00  0.6026E+16
   -0.412487    0.55270  0.2827E-11  0.1218E-13  0.7603E-17  0.1000E-09  0.0000E+00  0.5971E+16
   -0.481236    0.65943  0.2682E-11  0.1218E-13  0.7603E-17  0.1000E-09  0.0000E+00  0.5872E+16
   -0.549986    0.76805  0.2524E-11  0.1218E-13  0.7603E-17  0.1000E-09  0.0000E+00  0.5743E+16
   -0.618737    0.87815  0.2398E-11  0.1218E-13  0.7603E-17  0.1000E-09  0.0000E+00  0.5594E+16
   -0.687488    0.98948  0.2312E-11  0.1218E-13  0.7603E-17  0.1000E-09  0.0000E+00  0.5427E+16
   -0.756239    1.10181  0.2261E-11  0.1218E-13  0.7603E-17  0.1000E-09  0.0000E+00  0.5248E+16
   -0.824991    1.21499  0.2233E-11  0.1218E-13  0.7603E-17  0.1000E-09  0.0000E+00  0.5060E+16
   -0.893743    1.32889  0.2219E-11  0.1218E-13  0.7603E-17  0.1000E-09  0.0000E+00  0.4865E+16
   -0.962495    1.44343  0.2212E-11  0.1218E-13  0.7603E-17  0.1000E-09  0.0000E+00  0.4664E+16
   -1.031247    1.55852  0.2209E-11  0.1218E-13  0.7603E-17  0.1000E-09  0.0000E+00  0.4457E+16
   -1.099999    1.67409  0.2206E-11  0.1218E-13  0.7603E-17  0.1000E-09  0.0000E+00  0.4246E+16
   -1.168752    1.79005  0.2203E-11  0.1218E-13  0.7603E-17  0.1000E-09  0.0000E+00  0.4031E+16
   -1.237505    1.90635  0.2200E-11  0.1218E-13  0.7603E-17  0.1000E-09  0.0000E+00  0.3814E+16
   -1.306257    2.02293  0.2196E-11  0.1218E-13  0.7603E-17  0.1000E-09  0.0000E+00  0.3594E+16
   -1.375010    2.13975  0.2191E-11  0.1218E-13  0.7603E-17  0.1000E-09  0.0000E+00  0.3376E+16
   -1.443763    2.25688  0.2185E-11  0.1218E-13  0.7603E-17  0.1000E-09  0.0000E+00  0.3159E+16
   -1.512516    2.37440  0.2179E-11  0.1218E-13  0.7603E-17  0.1000E-09  0.0000E+00  0.2945E+16
   -1.581268    2.49249  0.2173E-11  0.1218E-13  0.7603E-17  0.1000E-09  0.0000E+00  0.2736E+16
   -1.650021    2.61151  0.2168E-11  0.1218E-13  0.7603E-17  0.1000E-09  0.0000E+00  0.2534E+16
   -1.718773    2.73201  0.2162E-11  0.1218E-13  0.7603E-17  0.1000E-09  0.0000E+00  0.2334E+16
   -1.787526    2.85456  0.2158E-11  0.1322E-13  0.7603E-17  0.1000E-09  0.0000E+00  0.2044E+16
   -1.856278    2.97421  0.2155E-11  0.5224E-13  0.1301E-16  0.1000E-09  0.0000E+00  0.1761E+16
   -1.925030    3.09027  0.2152E-11  0.1810E-12  0.3900E-16  0.1000E-09  0.0000E+00  0.1484E+16
   -1.993781    3.20148  0.2149E-11  0.5825E-12  0.1198E-15  0.1000E-09  0.0000E+00  0.1233E+16
   -2.062532    3.30784  0.2147E-11  0.1786E-11  0.3550E-15  0.1000E-09  0.0000E+00  0.1058E+16
   -2.131283    3.41488  0.2146E-11  0.5371E-11  0.1033E-14  0.1000E-09  0.0000E+00  0.8874E+15
   -2.200034    3.52352  0.2144E-11  0.1593E-10  0.2965E-14  0.1000E-09  0.0000E+00  0.7132E+15
   -2.268784    3.63459  0.2144E-11  0.4707E-10  0.8487E-14  0.1034E-09  0.0000E+00  0.5286E+15
   -2.337534    3.74851  0.2143E-11  0.1402E-09  0.2449E-13  0.3782E-09  0.0000E+00  0.3312E+15
   -2.406283    3.86633  0.2143E-11  0.4170E-09  0.7068E-13  0.3227E-08  0.0000E+00  0.1129E+15
   -2.475031    3.98743  0.2143E-11  0.1020E-08  0.1715E-12  0.1996E-05  0.0000E+00 -0.7154E+12
   -2.543780    3.99679  0.2143E-11  0.1433E-08  0.2857E-12  0.2866E-05  0.0000E+00 -0.1175E+13
   -2.612527    4.00245  0.2143E-11  0.1601E-08  0.4464E-12  0.2091E-05  0.0000E+00 -0.2197E+13
   -2.681274    4.00957  0.2143E-11  0.1270E-08  0.9568E-12  0.4121E-06  0.0000E+00 -0.1218E+14
   -2.750020    4.03209  0.2143E-11  0.0000E+00  0.0000E+00  0.0000E+00  0.0000E+00  0.0000E+00
