 1 - depth, m
 2 - temperature, C
 3 - salinity, kg/kg
 4 - turbulent kinetic energy, m**2/s**2
 5 - dissipation rate, m**2/s**3
 6 - kinematic heat conductance, m**2/s
 7 - modulus of horizontal velocity, m/s
 8 - Richardson number, n/d
   -0.000000   -0.00000  0.2157E-11  0.1219E-13  0.7603E-17  0.1000E-09  0.0000E+00  0.8226E+16
   -0.068746    0.12552  0.1311E-11  0.1219E-13  0.7603E-17  0.1000E-09  0.0000E+00  0.7893E+16
   -0.137492    0.25017  0.9421E-12  0.1219E-13  0.7603E-17  0.1000E-09  0.0000E+00  0.7581E+16
   -0.206239    0.37422  0.8097E-12  0.1219E-13  0.7603E-17  0.1000E-09  0.0000E+00  0.7290E+16
   -0.274987    0.49792  0.7691E-12  0.1219E-13  0.7603E-17  0.1000E-09  0.0000E+00  0.7016E+16
   -0.343735    0.62154  0.7582E-12  0.1219E-13  0.7603E-17  0.1000E-09  0.0000E+00  0.6758E+16
   -0.412483    0.74532  0.7556E-12  0.1219E-13  0.7603E-17  0.1000E-09  0.0000E+00  0.6512E+16
   -0.481232    0.86951  0.7551E-12  0.1219E-13  0.7603E-17  0.1000E-09  0.0000E+00  0.6277E+16
   -0.549982    0.99436  0.7550E-12  0.1219E-13  0.7603E-17  0.1000E-09  0.0000E+00  0.6049E+16
   -0.618732    1.12008  0.7550E-12  0.1219E-13  0.7603E-17  0.1000E-09  0.0000E+00  0.5826E+16
   -0.687482    1.24689  0.7549E-12  0.1219E-13  0.7603E-17  0.1000E-09  0.0000E+00  0.5615E+16
   -0.756233    1.37519  0.7549E-12  0.1219E-13  0.7603E-17  0.1000E-09  0.0000E+00  0.5407E+16
   -0.824984    1.50530  0.7549E-12  0.1219E-13  0.7603E-17  0.1000E-09  0.0000E+00  0.5194E+16
   -0.893735    1.63734  0.7548E-12  0.5737E-13  0.8878E-17  0.1000E-09  0.0000E+00  0.4973E+16
   -0.962487    1.77144  0.7546E-12  0.1588E-12  0.1833E-16  0.1000E-09  0.0000E+00  0.4742E+16
   -1.031239    1.90765  0.7540E-12  0.3763E-12  0.4027E-16  0.1000E-09  0.0000E+00  0.4499E+16
   -1.099990    2.04604  0.7530E-12  0.8487E-12  0.8767E-16  0.1000E-09  0.0000E+00  0.4243E+16
   -1.168742    2.18661  0.7511E-12  0.1876E-11  0.1886E-15  0.1000E-09  0.0000E+00  0.3973E+16
   -1.237495    2.32933  0.7485E-12  0.4097E-11  0.4014E-15  0.1000E-09  0.0000E+00  0.3687E+16
   -1.306247    2.47416  0.7452E-12  0.8860E-11  0.8466E-15  0.1000E-09  0.0000E+00  0.3386E+16
   -1.374999    2.62100  0.7419E-12  0.1898E-10  0.1770E-14  0.1000E-09  0.0000E+00  0.3073E+16
   -1.443751    2.76987  0.7391E-12  0.4031E-10  0.3668E-14  0.1000E-09  0.0000E+00  0.2744E+16
   -1.512503    2.92064  0.7371E-12  0.8486E-10  0.7539E-14  0.1000E-09  0.0000E+00  0.2401E+16
   -1.581256    3.07313  0.7359E-12  0.1771E-09  0.1537E-13  0.1000E-09  0.0000E+00  0.2044E+16
   -1.650008    3.22713  0.7351E-12  0.3667E-09  0.3107E-13  0.1000E-09  0.0000E+00  0.1676E+16
   -1.718760    3.38237  0.7344E-12  0.7529E-09  0.6232E-13  0.2445E-09  0.0000E+00  0.1297E+16
   -1.787511    3.53855  0.7337E-12  0.1568E-08  0.1267E-12  0.6982E-09  0.0000E+00  0.9237E+15
   -1.856263    3.69777  0.7328E-12  0.3292E-08  0.2602E-12  0.2514E-08  0.0000E+00  0.5265E+15
   -1.925014    3.85879  0.7321E-12  0.6843E-08  0.5294E-12  0.2154E-07  0.0000E+00  0.1249E+15
   -1.993765    4.00472  0.7320E-12  0.7616E-08  0.5923E-12  0.3971E-04  0.0000E+00 -0.1786E+12
   -2.062516    4.00533  0.7320E-12  0.7948E-08  0.6257E-12  0.4038E-04  0.0000E+00 -0.1819E+12
   -2.131266    4.00593  0.7320E-12  0.8220E-08  0.6610E-12  0.4020E-04  0.0000E+00 -0.1885E+12
   -2.200016    4.00654  0.7320E-12  0.8433E-08  0.6999E-12  0.3925E-04  0.0000E+00 -0.1992E+12
   -2.268766    4.00716  0.7320E-12  0.8589E-08  0.7451E-12  0.3744E-04  0.0000E+00 -0.2155E+12
   -2.337515    4.00781  0.7320E-12  0.8689E-08  0.8023E-12  0.3461E-04  0.0000E+00 -0.2411E+12
   -2.406263    4.00851  0.7320E-12  0.8722E-08  0.8808E-12  0.3057E-04  0.0000E+00 -0.2830E+12
   -2.475011    4.00931  0.7320E-12  0.8666E-08  0.1001E-11  0.2512E-04  0.0000E+00 -0.3593E+12
   -2.543759    4.01029  0.7320E-12  0.8464E-08  0.1215E-11  0.1806E-04  0.0000E+00 -0.5274E+12
   -2.612506    4.01165  0.7320E-12  0.7934E-08  0.1741E-11  0.9456E-05  0.0000E+00 -0.1098E+13
   -2.681252    4.01428  0.7320E-12  0.5687E-08  0.4990E-11  0.1211E-05  0.0000E+00 -0.1170E+14
   -2.749998    4.03402  0.7320E-12  0.0000E+00  0.0000E+00  0.0000E+00  0.0000E+00  0.0000E+00
