 1 - depth, m
 2 - temperature, C
 3 - salinity, kg/kg
 4 - turbulent kinetic energy, m**2/s**2
 5 - dissipation rate, m**2/s**3
 6 - kinematic heat conductance, m**2/s
 7 - modulus of horizontal velocity, m/s
 8 - Richardson number, n/d
   -0.000000   -0.00000  0.9349E-10  0.1219E-13  0.7603E-17  0.1000E-09  0.0000E+00  0.5519E+16
   -0.068746    0.08374  0.5091E-10  0.1219E-13  0.7603E-17  0.1000E-09  0.0000E+00  0.5312E+16
   -0.137492    0.16618  0.3790E-10  0.1219E-13  0.7603E-17  0.1000E-09  0.0000E+00  0.5139E+16
   -0.206239    0.24779  0.3461E-10  0.1219E-13  0.7603E-17  0.1000E-09  0.0000E+00  0.4999E+16
   -0.274986    0.32903  0.3390E-10  0.1219E-13  0.7603E-17  0.1000E-09  0.0000E+00  0.4886E+16
   -0.343735    0.41033  0.3376E-10  0.1219E-13  0.7603E-17  0.1000E-09  0.0000E+00  0.4799E+16
   -0.412483    0.49214  0.3373E-10  0.1219E-13  0.7603E-17  0.1000E-09  0.0000E+00  0.4734E+16
   -0.481232    0.57487  0.3373E-10  0.1219E-13  0.7603E-17  0.1000E-09  0.0000E+00  0.4687E+16
   -0.549982    0.65893  0.3373E-10  0.1219E-13  0.7603E-17  0.1000E-09  0.0000E+00  0.4656E+16
   -0.618732    0.74471  0.3373E-10  0.1219E-13  0.7603E-17  0.1000E-09  0.0000E+00  0.4636E+16
   -0.687482    0.83258  0.3373E-10  0.1219E-13  0.7603E-17  0.1000E-09  0.0000E+00  0.4639E+16
   -0.756233    0.92316  0.3373E-10  0.1219E-13  0.7603E-17  0.1000E-09  0.0000E+00  0.4652E+16
   -0.824984    1.01692  0.3373E-10  0.1219E-13  0.7603E-17  0.1000E-09  0.0000E+00  0.4665E+16
   -0.893735    1.11417  0.3373E-10  0.1219E-13  0.7603E-17  0.1000E-09  0.0000E+00  0.4672E+16
   -0.962486    1.21514  0.3372E-10  0.1219E-13  0.7603E-17  0.1000E-09  0.0000E+00  0.4670E+16
   -1.031238    1.32008  0.3371E-10  0.1219E-13  0.7603E-17  0.1000E-09  0.0000E+00  0.4654E+16
   -1.099990    1.42914  0.3368E-10  0.1219E-13  0.7603E-17  0.1000E-09  0.0000E+00  0.4622E+16
   -1.168742    1.54246  0.3361E-10  0.1219E-13  0.7603E-17  0.1000E-09  0.0000E+00  0.4568E+16
   -1.237494    1.66012  0.3348E-10  0.1219E-13  0.7603E-17  0.1000E-09  0.0000E+00  0.4491E+16
   -1.306246    1.78215  0.3330E-10  0.1219E-13  0.7603E-17  0.1000E-09  0.0000E+00  0.4386E+16
   -1.374998    1.90850  0.3310E-10  0.1219E-13  0.7603E-17  0.1000E-09  0.0000E+00  0.4262E+16
   -1.443750    2.03939  0.3295E-10  0.1219E-13  0.7603E-17  0.1000E-09  0.0000E+00  0.4107E+16
   -1.512503    2.17477  0.3286E-10  0.2627E-13  0.7603E-17  0.1000E-09  0.0000E+00  0.3918E+16
   -1.581255    2.31441  0.3280E-10  0.8850E-13  0.1904E-16  0.1000E-09  0.0000E+00  0.3694E+16
   -1.650007    2.45805  0.3277E-10  0.2711E-12  0.5466E-16  0.1000E-09  0.0000E+00  0.3435E+16
   -1.718758    2.60534  0.3274E-10  0.7992E-12  0.1553E-15  0.1000E-09  0.0000E+00  0.3144E+16
   -1.787510    2.75589  0.3273E-10  0.2374E-11  0.4459E-15  0.1000E-09  0.0000E+00  0.2829E+16
   -1.856262    2.90961  0.3272E-10  0.7044E-11  0.1281E-14  0.1000E-09  0.0000E+00  0.2491E+16
   -1.925013    3.06637  0.3272E-10  0.2071E-10  0.3646E-14  0.1000E-09  0.0000E+00  0.2129E+16
   -1.993764    3.22603  0.3271E-10  0.6035E-10  0.1029E-13  0.1000E-09  0.0000E+00  0.1744E+16
   -2.062514    3.38820  0.3269E-10  0.1701E-09  0.2813E-13  0.1073E-09  0.0000E+00  0.1334E+16
   -2.131265    3.55172  0.3266E-10  0.4721E-09  0.7569E-13  0.4224E-09  0.0000E+00  0.9109E+15
   -2.200015    3.71571  0.3262E-10  0.1293E-08  0.2012E-12  0.2114E-08  0.0000E+00  0.4833E+15
   -2.268764    3.87809  0.3260E-10  0.3473E-08  0.5256E-12  0.3076E-07  0.0000E+00  0.8598E+14
   -2.337513    4.01362  0.3260E-10  0.5089E-08  0.7783E-12  0.1440E-04  0.0000E+00 -0.7085E+12
   -2.406262    4.01523  0.3260E-10  0.5692E-08  0.9148E-12  0.1437E-04  0.0000E+00 -0.7628E+12
   -2.475010    4.01687  0.3260E-10  0.6094E-08  0.1084E-11  0.1305E-04  0.0000E+00 -0.9090E+12
   -2.543757    4.01871  0.3260E-10  0.6283E-08  0.1348E-11  0.1031E-04  0.0000E+00 -0.1273E+13
   -2.612504    4.02113  0.3260E-10  0.6146E-08  0.1941E-11  0.6025E-05  0.0000E+00 -0.2567E+13
   -2.681251    4.02556  0.3260E-10  0.4959E-08  0.4966E-11  0.1194E-05  0.0000E+00 -0.2125E+14
   -2.749996    4.05154  0.3260E-10  0.0000E+00  0.0000E+00  0.0000E+00  0.0000E+00  0.0000E+00
