 1 - depth, m
 2 - temperature, C
 3 - salinity, kg/kg
 4 - turbulent kinetic energy, m**2/s**2
 5 - dissipation rate, m**2/s**3
 6 - kinematic heat conductance, m**2/s
 7 - modulus of horizontal velocity, m/s
 8 - Richardson number, n/d
   -0.000000   -0.00000  0.4060E-11  0.1219E-13  0.7603E-17  0.1000E-09  0.0000E+00  0.4274E+16
   -0.068746    0.06468  0.2245E-11  0.1219E-13  0.7603E-17  0.1000E-09  0.0000E+00  0.4089E+16
   -0.137492    0.12765  0.1797E-11  0.1219E-13  0.7603E-17  0.1000E-09  0.0000E+00  0.3945E+16
   -0.206239    0.18944  0.1701E-11  0.1219E-13  0.7603E-17  0.1000E-09  0.0000E+00  0.3839E+16
   -0.274986    0.25063  0.1682E-11  0.1219E-13  0.7603E-17  0.1000E-09  0.0000E+00  0.3771E+16
   -0.343735    0.31179  0.1679E-11  0.1219E-13  0.7603E-17  0.1000E-09  0.0000E+00  0.3741E+16
   -0.412483    0.37355  0.1679E-11  0.1219E-13  0.7603E-17  0.1000E-09  0.0000E+00  0.3747E+16
   -0.481232    0.43655  0.1679E-11  0.1219E-13  0.7603E-17  0.1000E-09  0.0000E+00  0.3789E+16
   -0.549982    0.50148  0.1679E-11  0.1219E-13  0.7603E-17  0.1000E-09  0.0000E+00  0.3864E+16
   -0.618732    0.56906  0.1679E-11  0.1219E-13  0.7603E-17  0.1000E-09  0.0000E+00  0.3971E+16
   -0.687482    0.64000  0.1679E-11  0.1219E-13  0.7603E-17  0.1000E-09  0.0000E+00  0.4122E+16
   -0.756233    0.71536  0.1679E-11  0.1219E-13  0.7603E-17  0.1000E-09  0.0000E+00  0.4304E+16
   -0.824984    0.79606  0.1679E-11  0.1219E-13  0.7603E-17  0.1000E-09  0.0000E+00  0.4503E+16
   -0.893735    0.88286  0.1679E-11  0.1219E-13  0.7603E-17  0.1000E-09  0.0000E+00  0.4710E+16
   -0.962486    0.97647  0.1679E-11  0.1219E-13  0.7603E-17  0.1000E-09  0.0000E+00  0.4918E+16
   -1.031238    1.07760  0.1678E-11  0.1219E-13  0.7603E-17  0.1000E-09  0.0000E+00  0.5118E+16
   -1.099990    1.18691  0.1678E-11  0.1219E-13  0.7603E-17  0.1000E-09  0.0000E+00  0.5299E+16
   -1.168742    1.30500  0.1677E-11  0.4978E-13  0.1002E-16  0.1000E-09  0.0000E+00  0.5450E+16
   -1.237494    1.43240  0.1674E-11  0.1507E-12  0.2440E-16  0.1000E-09  0.0000E+00  0.5559E+16
   -1.306246    1.56958  0.1668E-11  0.4057E-12  0.6207E-16  0.1000E-09  0.0000E+00  0.5615E+16
   -1.374998    1.71689  0.1658E-11  0.1053E-11  0.1558E-15  0.1000E-09  0.0000E+00  0.5625E+16
   -1.443751    1.87516  0.1647E-11  0.2685E-11  0.3858E-15  0.1000E-09  0.0000E+00  0.5559E+16
   -1.512503    2.04468  0.1641E-11  0.6756E-11  0.9435E-15  0.1000E-09  0.0000E+00  0.5399E+16
   -1.581255    2.22541  0.1638E-11  0.1680E-10  0.2281E-14  0.1000E-09  0.0000E+00  0.5136E+16
   -1.650007    2.41714  0.1636E-11  0.4128E-10  0.5452E-14  0.1000E-09  0.0000E+00  0.4763E+16
   -1.718759    2.61943  0.1635E-11  0.1003E-09  0.1289E-13  0.1000E-09  0.0000E+00  0.4277E+16
   -1.787510    2.83168  0.1635E-11  0.2473E-09  0.3090E-13  0.1000E-09  0.0000E+00  0.3698E+16
   -1.856262    3.05417  0.1634E-11  0.6131E-09  0.7457E-13  0.1260E-09  0.0000E+00  0.3013E+16
   -1.925013    3.28688  0.1634E-11  0.1515E-08  0.1794E-12  0.4121E-09  0.0000E+00  0.2217E+16
   -1.993764    3.52944  0.1632E-11  0.3725E-08  0.4298E-12  0.1676E-08  0.0000E+00  0.1306E+16
   -2.062515    3.77919  0.1628E-11  0.8836E-08  0.9951E-12  0.1528E-07  0.0000E+00  0.3323E+15
   -2.131265    4.01048  0.1626E-11  0.1018E-07  0.1154E-11  0.3657E-04  0.0000E+00 -0.3799E+12
   -2.200015    4.01147  0.1626E-11  0.1073E-07  0.1238E-11  0.3716E-04  0.0000E+00 -0.3909E+12
   -2.268764    4.01244  0.1626E-11  0.1115E-07  0.1330E-11  0.3662E-04  0.0000E+00 -0.4142E+12
   -2.337514    4.01344  0.1626E-11  0.1147E-07  0.1442E-11  0.3484E-04  0.0000E+00 -0.4551E+12
   -2.406262    4.01449  0.1626E-11  0.1167E-07  0.1589E-11  0.3164E-04  0.0000E+00 -0.5253E+12
   -2.475010    4.01565  0.1626E-11  0.1172E-07  0.1805E-11  0.2676E-04  0.0000E+00 -0.6554E+12
   -2.543758    4.01705  0.1626E-11  0.1158E-07  0.2183E-11  0.1993E-04  0.0000E+00 -0.9416E+12
   -2.612505    4.01895  0.1626E-11  0.1099E-07  0.3080E-11  0.1103E-04  0.0000E+00 -0.1894E+13
   -2.681251    4.02247  0.1626E-11  0.8283E-08  0.8431E-11  0.1665E-05  0.0000E+00 -0.1813E+14
   -2.749997    4.04650  0.1626E-11  0.0000E+00  0.0000E+00  0.0000E+00  0.0000E+00  0.0000E+00
