 1 - depth, m
 2 - temperature, C
 3 - salinity, kg/kg
 4 - turbulent kinetic energy, m**2/s**2
 5 - dissipation rate, m**2/s**3
 6 - kinematic heat conductance, m**2/s
 7 - modulus of horizontal velocity, m/s
 8 - Richardson number, n/d
   -0.000000    4.99691  0.4929E-11  0.8115E-04  0.1846E-04  0.8860E-04  0.8598E-01 -0.2014E-01
   -0.068746    5.08368  0.4930E-11  0.4792E-04  0.4069E-05  0.1125E-03  0.4105E-01 -0.8444E-02
   -0.137492    5.10181  0.4930E-11  0.3940E-04  0.1644E-05  0.1478E-03  0.3316E-01 -0.7032E-02
   -0.206239    5.11401  0.4930E-11  0.3504E-04  0.8403E-06  0.1924E-03  0.2842E-01 -0.9771E-02
   -0.274987    5.12331  0.4930E-11  0.3251E-04  0.5115E-06  0.2430E-03  0.2493E-01 -0.1279E-01
   -0.343735    5.13061  0.4930E-11  0.3089E-04  0.3526E-06  0.2972E-03  0.2222E-01 -0.1608E-01
   -0.412484    5.13647  0.4930E-11  0.2972E-04  0.2644E-06  0.3537E-03  0.2006E-01 -0.1958E-01
   -0.481233    5.14128  0.4930E-11  0.2882E-04  0.2097E-06  0.4113E-03  0.1828E-01 -0.2323E-01
   -0.549983    5.14530  0.4930E-11  0.2806E-04  0.1729E-06  0.4692E-03  0.1679E-01 -0.2693E-01
   -0.618733    5.14873  0.4930E-11  0.2741E-04  0.1466E-06  0.5267E-03  0.1550E-01 -0.3063E-01
   -0.687483    5.15170  0.4930E-11  0.2684E-04  0.1271E-06  0.5831E-03  0.1438E-01 -0.3427E-01
   -0.756234    5.15432  0.4930E-11  0.2631E-04  0.1120E-06  0.6380E-03  0.1339E-01 -0.3779E-01
   -0.824985    5.15664  0.4930E-11  0.2583E-04  0.1000E-06  0.6909E-03  0.1249E-01 -0.4114E-01
   -0.893736    5.15873  0.4930E-11  0.2539E-04  0.9035E-07  0.7415E-03  0.1168E-01 -0.4429E-01
   -0.962488    5.16062  0.4930E-11  0.2498E-04  0.8243E-07  0.7893E-03  0.1093E-01 -0.4717E-01
   -1.031240    5.16235  0.4930E-11  0.2458E-04  0.7582E-07  0.8340E-03  0.1024E-01 -0.4975E-01
   -1.099992    5.16394  0.4930E-11  0.2421E-04  0.7026E-07  0.8751E-03  0.9597E-02 -0.5197E-01
   -1.168744    5.16541  0.4930E-11  0.2385E-04  0.6552E-07  0.9124E-03  0.8988E-02 -0.5362E-01
   -1.237496    5.16678  0.4930E-11  0.2349E-04  0.6145E-07  0.9459E-03  0.8410E-02 -0.5408E-01
   -1.306248    5.16807  0.4930E-11  0.2314E-04  0.5792E-07  0.9767E-03  0.7857E-02 -0.5049E-01
   -1.375001    5.16927  0.4930E-11  0.2279E-04  0.5482E-07  0.1008E-02  0.7325E-02 -0.2515E-01
   -1.443753    5.17041  0.4930E-11  0.2243E-04  0.5209E-07  0.1052E-02  0.6810E-02  0.2889E+01
   -1.512505    5.17147  0.4930E-11  0.2206E-04  0.4964E-07  0.1090E-02  0.6307E-02  0.1842E+03
   -1.581257    5.17248  0.4930E-11  0.2167E-04  0.4741E-07  0.1118E-02  0.5812E-02  0.5568E+04
   -1.650009    5.17344  0.4930E-11  0.2125E-04  0.4535E-07  0.1126E-02  0.5320E-02  0.6473E+03
   -1.718761    5.17437  0.4930E-11  0.2078E-04  0.4339E-07  0.1124E-02  0.4827E-02  0.1255E+02
   -1.787513    5.17527  0.4930E-11  0.2026E-04  0.4148E-07  0.1181E-02  0.4331E-02  0.3003E+02
   -1.856265    5.17612  0.4930E-11  0.1971E-04  0.3970E-07  0.1218E-02  0.3905E-02  0.5957E+01
   -1.925016    5.17693  0.4930E-11  0.1914E-04  0.3808E-07  0.1240E-02  0.3530E-02  0.1502E+01
   -1.993767    5.17771  0.4930E-11  0.1857E-04  0.3665E-07  0.1239E-02  0.3201E-02  0.1495E+01
   -2.062518    5.17848  0.4930E-11  0.1801E-04  0.3548E-07  0.1209E-02  0.2904E-02  0.6672E+01
   -2.131268    5.17925  0.4930E-11  0.1746E-04  0.3460E-07  0.1172E-02  0.2622E-02  0.5607E+02
   -2.200018    5.18002  0.4930E-11  0.1693E-04  0.3404E-07  0.1078E-02  0.2353E-02  0.1240E+03
   -2.268768    5.18081  0.4930E-11  0.1641E-04  0.3387E-07  0.9854E-03  0.2093E-02  0.9461E+03
   -2.337517    5.18164  0.4930E-11  0.1587E-04  0.3421E-07  0.9076E-03  0.1846E-02  0.2445E+00
   -2.406266    5.18252  0.4930E-11  0.1530E-04  0.3535E-07  0.8193E-03  0.1613E-02 -0.2474E+00
   -2.475014    5.18347  0.4930E-11  0.1467E-04  0.3787E-07  0.7055E-03  0.1391E-02 -0.3161E+00
   -2.543762    5.18455  0.4930E-11  0.1391E-04  0.4332E-07  0.5545E-03  0.1174E-02 -0.3890E+00
   -2.612509    5.18589  0.4930E-11  0.1282E-04  0.5755E-07  0.3528E-03  0.9549E-03 -0.5468E+00
   -2.681255    5.18794  0.4930E-11  0.7618E-05  0.1976E-06  0.3559E-04  0.7253E-03 -0.4468E+05
   -2.750001    5.20764  0.4930E-11  0.0000E+00  0.0000E+00  0.0000E+00  0.7235E-03  0.0000E+00
