 1 - depth, m
 2 - temperature, C
 3 - salinity, kg/kg
 4 - turbulent kinetic energy, m**2/s**2
 5 - dissipation rate, m**2/s**3
 6 - kinematic heat conductance, m**2/s
 7 - modulus of horizontal velocity, m/s
 8 - Richardson number, n/d
   -0.000000   -0.00000  0.5894E-12  0.1219E-13  0.7603E-17  0.1000E-09  0.0000E+00  0.6604E+16
   -0.068746    0.10043  0.4520E-11  0.1219E-13  0.7603E-17  0.1000E-09  0.0000E+00  0.6533E+16
   -0.137493    0.20256  0.8549E-11  0.1219E-13  0.7603E-17  0.1000E-09  0.0000E+00  0.6447E+16
   -0.206240    0.30633  0.1091E-10  0.1219E-13  0.7603E-17  0.1000E-09  0.0000E+00  0.6348E+16
   -0.274988    0.41162  0.1158E-10  0.1219E-13  0.7603E-17  0.1000E-09  0.0000E+00  0.6235E+16
   -0.343736    0.51835  0.1125E-10  0.1219E-13  0.7603E-17  0.1000E-09  0.0000E+00  0.6108E+16
   -0.412485    0.62638  0.1056E-10  0.1219E-13  0.7603E-17  0.1000E-09  0.0000E+00  0.5967E+16
   -0.481234    0.73558  0.9876E-11  0.1219E-13  0.7603E-17  0.1000E-09  0.0000E+00  0.5814E+16
   -0.549984    0.84584  0.9364E-11  0.1219E-13  0.7603E-17  0.1000E-09  0.0000E+00  0.5649E+16
   -0.618734    0.95703  0.9037E-11  0.1219E-13  0.7603E-17  0.1000E-09  0.0000E+00  0.5474E+16
   -0.687485    1.06903  0.8851E-11  0.1219E-13  0.7603E-17  0.1000E-09  0.0000E+00  0.5290E+16
   -0.756236    1.18173  0.8756E-11  0.1219E-13  0.7603E-17  0.1000E-09  0.0000E+00  0.5098E+16
   -0.824987    1.29502  0.8709E-11  0.1219E-13  0.7603E-17  0.1000E-09  0.0000E+00  0.4900E+16
   -0.893738    1.40880  0.8688E-11  0.1219E-13  0.7603E-17  0.1000E-09  0.0000E+00  0.4695E+16
   -0.962490    1.52297  0.8676E-11  0.1219E-13  0.7603E-17  0.1000E-09  0.0000E+00  0.4485E+16
   -1.031242    1.63745  0.8667E-11  0.1219E-13  0.7603E-17  0.1000E-09  0.0000E+00  0.4272E+16
   -1.099994    1.75216  0.8656E-11  0.1219E-13  0.7603E-17  0.1000E-09  0.0000E+00  0.4056E+16
   -1.168747    1.86701  0.8643E-11  0.1219E-13  0.7603E-17  0.1000E-09  0.0000E+00  0.3837E+16
   -1.237499    1.98194  0.8626E-11  0.1219E-13  0.7603E-17  0.1000E-09  0.0000E+00  0.3617E+16
   -1.306251    2.09689  0.8606E-11  0.1219E-13  0.7603E-17  0.1000E-09  0.0000E+00  0.3396E+16
   -1.375004    2.21182  0.8583E-11  0.1219E-13  0.7603E-17  0.1000E-09  0.0000E+00  0.3176E+16
   -1.443756    2.32672  0.8559E-11  0.1219E-13  0.7603E-17  0.1000E-09  0.0000E+00  0.2957E+16
   -1.512509    2.44155  0.8535E-11  0.1219E-13  0.7603E-17  0.1000E-09  0.0000E+00  0.2738E+16
   -1.581261    2.55631  0.8512E-11  0.1219E-13  0.7603E-17  0.1000E-09  0.0000E+00  0.2520E+16
   -1.650014    2.67098  0.8493E-11  0.1219E-13  0.7603E-17  0.1000E-09  0.0000E+00  0.2303E+16
   -1.718766    2.78555  0.8476E-11  0.1219E-13  0.7603E-17  0.1000E-09  0.0000E+00  0.2087E+16
   -1.787518    2.89994  0.8463E-11  0.1219E-13  0.7603E-17  0.1000E-09  0.0000E+00  0.1848E+16
   -1.856269    3.01263  0.8453E-11  0.1219E-13  0.7603E-17  0.1000E-09  0.0000E+00  0.1615E+16
   -1.925021    3.12323  0.8444E-11  0.2770E-13  0.9106E-17  0.1000E-09  0.0000E+00  0.1386E+16
   -1.993772    3.23121  0.8437E-11  0.1059E-12  0.2954E-16  0.1000E-09  0.0000E+00  0.1171E+16
   -2.062523    3.33649  0.8431E-11  0.3824E-12  0.1018E-15  0.1000E-09  0.0000E+00  0.9900E+15
   -2.131274    3.44128  0.8427E-11  0.1345E-11  0.3452E-15  0.1000E-09  0.0000E+00  0.8128E+15
   -2.200024    3.54575  0.8424E-11  0.4651E-11  0.1153E-14  0.1000E-09  0.0000E+00  0.6373E+15
   -2.268774    3.64983  0.8422E-11  0.1600E-10  0.3833E-14  0.1000E-09  0.0000E+00  0.4638E+15
   -2.337523    3.75335  0.8421E-11  0.5531E-10  0.1282E-13  0.2209E-09  0.0000E+00  0.2929E+15
   -2.406272    3.85600  0.8421E-11  0.1908E-09  0.4284E-13  0.1697E-08  0.0000E+00  0.1262E+15
   -2.475020    3.95652  0.8420E-11  0.6351E-09  0.1392E-12  0.1326E-06  0.0000E+00  0.3308E+13
   -2.543768    4.00793  0.8420E-11  0.1545E-08  0.3690E-12  0.2865E-05  0.0000E+00 -0.1743E+13
   -2.612515    4.01258  0.8420E-11  0.1797E-08  0.5610E-12  0.2129E-05  0.0000E+00 -0.2763E+13
   -2.681262    4.01860  0.8420E-11  0.1452E-08  0.1157E-11  0.4552E-06  0.0000E+00 -0.1392E+14
   -2.750008    4.03943  0.8420E-11  0.0000E+00  0.0000E+00  0.0000E+00  0.0000E+00  0.0000E+00
