 1 - depth, m
 2 - temperature, C
 3 - salinity, kg/kg
 4 - turbulent kinetic energy, m**2/s**2
 5 - dissipation rate, m**2/s**3
 6 - kinematic heat conductance, m**2/s
 7 - modulus of horizontal velocity, m/s
 8 - Richardson number, n/d
   -0.000000   -0.00000  0.5750E-11  0.1219E-13  0.7603E-17  0.1000E-09  0.0000E+00  0.4824E+16
   -0.068746    0.07309  0.3039E-11  0.1219E-13  0.7603E-17  0.1000E-09  0.0000E+00  0.4628E+16
   -0.137492    0.14459  0.2390E-11  0.1219E-13  0.7603E-17  0.1000E-09  0.0000E+00  0.4474E+16
   -0.206239    0.21509  0.2244E-11  0.1219E-13  0.7603E-17  0.1000E-09  0.0000E+00  0.4360E+16
   -0.274986    0.28518  0.2215E-11  0.1219E-13  0.7603E-17  0.1000E-09  0.0000E+00  0.4286E+16
   -0.343735    0.35548  0.2210E-11  0.1219E-13  0.7603E-17  0.1000E-09  0.0000E+00  0.4248E+16
   -0.412483    0.42660  0.2209E-11  0.1219E-13  0.7603E-17  0.1000E-09  0.0000E+00  0.4243E+16
   -0.481232    0.49918  0.2209E-11  0.1219E-13  0.7603E-17  0.1000E-09  0.0000E+00  0.4268E+16
   -0.549982    0.57385  0.2209E-11  0.1219E-13  0.7603E-17  0.1000E-09  0.0000E+00  0.4321E+16
   -0.618732    0.65124  0.2209E-11  0.1219E-13  0.7603E-17  0.1000E-09  0.0000E+00  0.4396E+16
   -0.687482    0.73198  0.2209E-11  0.1219E-13  0.7603E-17  0.1000E-09  0.0000E+00  0.4506E+16
   -0.756233    0.81699  0.2209E-11  0.1219E-13  0.7603E-17  0.1000E-09  0.0000E+00  0.4637E+16
   -0.824984    0.90706  0.2209E-11  0.1219E-13  0.7603E-17  0.1000E-09  0.0000E+00  0.4774E+16
   -0.893735    1.00277  0.2209E-11  0.1219E-13  0.7603E-17  0.1000E-09  0.0000E+00  0.4910E+16
   -0.962486    1.10469  0.2209E-11  0.1219E-13  0.7603E-17  0.1000E-09  0.0000E+00  0.5037E+16
   -1.031238    1.21333  0.2209E-11  0.1219E-13  0.7603E-17  0.1000E-09  0.0000E+00  0.5148E+16
   -1.099990    1.32917  0.2208E-11  0.1219E-13  0.7603E-17  0.1000E-09  0.0000E+00  0.5234E+16
   -1.168742    1.45263  0.2206E-11  0.4921E-13  0.1014E-16  0.1000E-09  0.0000E+00  0.5287E+16
   -1.237494    1.58405  0.2201E-11  0.1503E-12  0.2506E-16  0.1000E-09  0.0000E+00  0.5298E+16
   -1.306246    1.72370  0.2192E-11  0.4096E-12  0.6459E-16  0.1000E-09  0.0000E+00  0.5258E+16
   -1.374998    1.87175  0.2179E-11  0.1077E-11  0.1642E-15  0.1000E-09  0.0000E+00  0.5174E+16
   -1.443751    2.02875  0.2167E-11  0.2781E-11  0.4116E-15  0.1000E-09  0.0000E+00  0.5024E+16
   -1.512503    2.19479  0.2159E-11  0.7087E-11  0.1019E-14  0.1000E-09  0.0000E+00  0.4798E+16
   -1.581255    2.36968  0.2155E-11  0.1783E-10  0.2490E-14  0.1000E-09  0.0000E+00  0.4490E+16
   -1.650007    2.55311  0.2153E-11  0.4432E-10  0.6016E-14  0.1000E-09  0.0000E+00  0.4098E+16
   -1.718759    2.74459  0.2151E-11  0.1089E-09  0.1437E-13  0.1000E-09  0.0000E+00  0.3626E+16
   -1.787510    2.94357  0.2151E-11  0.2712E-09  0.3480E-13  0.1000E-09  0.0000E+00  0.3097E+16
   -1.856262    3.15101  0.2150E-11  0.6793E-09  0.8477E-13  0.1734E-09  0.0000E+00  0.2489E+16
   -1.925013    3.36692  0.2149E-11  0.1694E-08  0.2057E-12  0.5832E-09  0.0000E+00  0.1796E+16
   -1.993764    3.59104  0.2146E-11  0.4200E-08  0.4968E-12  0.2498E-08  0.0000E+00  0.1013E+16
   -2.062515    3.82030  0.2141E-11  0.9972E-08  0.1151E-11  0.2809E-07  0.0000E+00  0.2088E+15
   -2.131265    4.01736  0.2140E-11  0.1138E-07  0.1322E-11  0.4061E-04  0.0000E+00 -0.4020E+12
   -2.200015    4.01818  0.2140E-11  0.1195E-07  0.1411E-11  0.4088E-04  0.0000E+00 -0.4115E+12
   -2.268764    4.01899  0.2140E-11  0.1237E-07  0.1507E-11  0.4001E-04  0.0000E+00 -0.4333E+12
   -2.337514    4.01983  0.2140E-11  0.1268E-07  0.1624E-11  0.3786E-04  0.0000E+00 -0.4725E+12
   -2.406262    4.02072  0.2140E-11  0.1286E-07  0.1777E-11  0.3424E-04  0.0000E+00 -0.5405E+12
   -2.475010    4.02171  0.2140E-11  0.1288E-07  0.2004E-11  0.2889E-04  0.0000E+00 -0.6668E+12
   -2.543758    4.02289  0.2140E-11  0.1268E-07  0.2402E-11  0.2149E-04  0.0000E+00 -0.9441E+12
   -2.612505    4.02450  0.2140E-11  0.1200E-07  0.3352E-11  0.1188E-04  0.0000E+00 -0.1857E+13
   -2.681251    4.02749  0.2140E-11  0.8879E-08  0.9181E-11  0.1686E-05  0.0000E+00 -0.1762E+14
   -2.749997    4.04914  0.2140E-11  0.0000E+00  0.0000E+00  0.0000E+00  0.0000E+00  0.0000E+00
