 1 - depth, m
 2 - temperature, C
 3 - salinity, kg/kg
 4 - turbulent kinetic energy, m**2/s**2
 5 - dissipation rate, m**2/s**3
 6 - kinematic heat conductance, m**2/s
 7 - modulus of horizontal velocity, m/s
 8 - Richardson number, n/d
   -0.000000   -0.00000  0.1208E-11  0.1219E-13  0.7603E-17  0.1000E-09  0.0000E+00  0.6280E+16
   -0.068746    0.09542  0.8166E-11  0.1219E-13  0.7603E-17  0.1000E-09  0.0000E+00  0.6216E+16
   -0.137493    0.19241  0.1514E-10  0.1219E-13  0.7603E-17  0.1000E-09  0.0000E+00  0.6141E+16
   -0.206240    0.29089  0.1911E-10  0.1219E-13  0.7603E-17  0.1000E-09  0.0000E+00  0.6054E+16
   -0.274988    0.39077  0.2016E-10  0.1219E-13  0.7603E-17  0.1000E-09  0.0000E+00  0.5954E+16
   -0.343736    0.49197  0.1951E-10  0.1219E-13  0.7603E-17  0.1000E-09  0.0000E+00  0.5842E+16
   -0.412485    0.59437  0.1827E-10  0.1219E-13  0.7603E-17  0.1000E-09  0.0000E+00  0.5717E+16
   -0.481234    0.69786  0.1708E-10  0.1219E-13  0.7603E-17  0.1000E-09  0.0000E+00  0.5582E+16
   -0.549984    0.80232  0.1620E-10  0.1219E-13  0.7603E-17  0.1000E-09  0.0000E+00  0.5436E+16
   -0.618734    0.90765  0.1564E-10  0.1219E-13  0.7603E-17  0.1000E-09  0.0000E+00  0.5281E+16
   -0.687485    1.01374  0.1533E-10  0.1219E-13  0.7603E-17  0.1000E-09  0.0000E+00  0.5118E+16
   -0.756236    1.12048  0.1517E-10  0.1219E-13  0.7603E-17  0.1000E-09  0.0000E+00  0.4948E+16
   -0.824987    1.22780  0.1509E-10  0.1219E-13  0.7603E-17  0.1000E-09  0.0000E+00  0.4771E+16
   -0.893738    1.33559  0.1506E-10  0.1219E-13  0.7603E-17  0.1000E-09  0.0000E+00  0.4589E+16
   -0.962490    1.44377  0.1504E-10  0.1219E-13  0.7603E-17  0.1000E-09  0.0000E+00  0.4402E+16
   -1.031242    1.55226  0.1502E-10  0.1219E-13  0.7603E-17  0.1000E-09  0.0000E+00  0.4211E+16
   -1.099994    1.66099  0.1501E-10  0.1219E-13  0.7603E-17  0.1000E-09  0.0000E+00  0.4018E+16
   -1.168747    1.76988  0.1499E-10  0.1219E-13  0.7603E-17  0.1000E-09  0.0000E+00  0.3822E+16
   -1.237499    1.87888  0.1496E-10  0.1219E-13  0.7603E-17  0.1000E-09  0.0000E+00  0.3625E+16
   -1.306251    1.98794  0.1492E-10  0.1219E-13  0.7603E-17  0.1000E-09  0.0000E+00  0.3426E+16
   -1.375004    2.09701  0.1489E-10  0.1219E-13  0.7603E-17  0.1000E-09  0.0000E+00  0.3229E+16
   -1.443756    2.20610  0.1484E-10  0.1219E-13  0.7603E-17  0.1000E-09  0.0000E+00  0.3031E+16
   -1.512509    2.31517  0.1480E-10  0.1219E-13  0.7603E-17  0.1000E-09  0.0000E+00  0.2834E+16
   -1.581261    2.42423  0.1477E-10  0.1219E-13  0.7603E-17  0.1000E-09  0.0000E+00  0.2637E+16
   -1.650013    2.53324  0.1473E-10  0.1219E-13  0.7603E-17  0.1000E-09  0.0000E+00  0.2441E+16
   -1.718766    2.64221  0.1470E-10  0.1219E-13  0.7603E-17  0.1000E-09  0.0000E+00  0.2245E+16
   -1.787517    2.75109  0.1468E-10  0.1219E-13  0.7603E-17  0.1000E-09  0.0000E+00  0.2031E+16
   -1.856269    2.85881  0.1467E-10  0.1219E-13  0.7603E-17  0.1000E-09  0.0000E+00  0.1820E+16
   -1.925021    2.96511  0.1465E-10  0.1219E-13  0.7603E-17  0.1000E-09  0.0000E+00  0.1611E+16
   -1.993772    3.06965  0.1464E-10  0.1219E-13  0.7603E-17  0.1000E-09  0.0000E+00  0.1412E+16
   -2.062523    3.17242  0.1463E-10  0.1219E-13  0.7603E-17  0.1000E-09  0.0000E+00  0.1239E+16
   -2.131273    3.27491  0.1461E-10  0.1219E-13  0.7603E-17  0.1000E-09  0.0000E+00  0.1070E+16
   -2.200024    3.37731  0.1461E-10  0.2044E-13  0.1115E-16  0.1000E-09  0.0000E+00  0.9020E+15
   -2.268773    3.47962  0.1460E-10  0.1035E-12  0.5303E-16  0.1000E-09  0.0000E+00  0.7344E+15
   -2.337523    3.58178  0.1460E-10  0.5584E-12  0.2749E-15  0.1000E-09  0.0000E+00  0.5677E+15
   -2.406272    3.68369  0.1459E-10  0.2987E-11  0.1417E-14  0.1000E-09  0.0000E+00  0.4022E+15
   -2.475020    3.78523  0.1459E-10  0.1592E-10  0.7293E-14  0.1496E-09  0.0000E+00  0.2386E+15
   -2.543768    3.88607  0.1459E-10  0.8473E-10  0.3772E-13  0.2194E-08  0.0000E+00  0.7873E+14
   -2.612515    3.98424  0.1459E-10  0.4404E-09  0.1960E-12  0.3371E-06  0.0000E+00 -0.5390E+13
   -2.681262    4.01266  0.1459E-10  0.7268E-09  0.6105E-12  0.2801E-06  0.0000E+00 -0.1866E+14
   -2.750008    4.04178  0.1459E-10  0.0000E+00  0.0000E+00  0.0000E+00  0.0000E+00  0.0000E+00
