 1 - depth, m
 2 - temperature, C
 3 - salinity, kg/kg
 4 - turbulent kinetic energy, m**2/s**2
 5 - dissipation rate, m**2/s**3
 6 - kinematic heat conductance, m**2/s
 7 - modulus of horizontal velocity, m/s
 8 - Richardson number, n/d
   -0.000000   -0.00000  0.1216E-09  0.1219E-13  0.7603E-17  0.1000E-09  0.0000E+00  0.6551E+16
   -0.068746    0.09961  0.7152E-10  0.1219E-13  0.7603E-17  0.1000E-09  0.0000E+00  0.6318E+16
   -0.137492    0.19832  0.5220E-10  0.1219E-13  0.7603E-17  0.1000E-09  0.0000E+00  0.6103E+16
   -0.206239    0.29634  0.4590E-10  0.1219E-13  0.7603E-17  0.1000E-09  0.0000E+00  0.5905E+16
   -0.274987    0.39390  0.4415E-10  0.1219E-13  0.7603E-17  0.1000E-09  0.0000E+00  0.5724E+16
   -0.343735    0.49122  0.4373E-10  0.1219E-13  0.7603E-17  0.1000E-09  0.0000E+00  0.5558E+16
   -0.412483    0.58854  0.4363E-10  0.1219E-13  0.7603E-17  0.1000E-09  0.0000E+00  0.5404E+16
   -0.481232    0.68609  0.4362E-10  0.1219E-13  0.7603E-17  0.1000E-09  0.0000E+00  0.5262E+16
   -0.549982    0.78408  0.4361E-10  0.1219E-13  0.7603E-17  0.1000E-09  0.0000E+00  0.5128E+16
   -0.618732    0.88273  0.4361E-10  0.1219E-13  0.7603E-17  0.1000E-09  0.0000E+00  0.5001E+16
   -0.687482    0.98220  0.4361E-10  0.1219E-13  0.7603E-17  0.1000E-09  0.0000E+00  0.4888E+16
   -0.756233    1.08291  0.4361E-10  0.1219E-13  0.7603E-17  0.1000E-09  0.0000E+00  0.4783E+16
   -0.824984    1.18512  0.4361E-10  0.1219E-13  0.7603E-17  0.1000E-09  0.0000E+00  0.4675E+16
   -0.893735    1.28895  0.4361E-10  0.1219E-13  0.7603E-17  0.1000E-09  0.0000E+00  0.4564E+16
   -0.962487    1.39451  0.4361E-10  0.1219E-13  0.7603E-17  0.1000E-09  0.0000E+00  0.4446E+16
   -1.031238    1.50185  0.4360E-10  0.1219E-13  0.7603E-17  0.1000E-09  0.0000E+00  0.4321E+16
   -1.099990    1.61100  0.4358E-10  0.1219E-13  0.7603E-17  0.1000E-09  0.0000E+00  0.4186E+16
   -1.168742    1.72197  0.4355E-10  0.1219E-13  0.7603E-17  0.1000E-09  0.0000E+00  0.4041E+16
   -1.237495    1.83474  0.4348E-10  0.1219E-13  0.7603E-17  0.1000E-09  0.0000E+00  0.3885E+16
   -1.306247    1.94923  0.4336E-10  0.1219E-13  0.7603E-17  0.1000E-09  0.0000E+00  0.3716E+16
   -1.374999    2.06536  0.4321E-10  0.1219E-13  0.7603E-17  0.1000E-09  0.0000E+00  0.3540E+16
   -1.443751    2.18317  0.4304E-10  0.1219E-13  0.7603E-17  0.1000E-09  0.0000E+00  0.3352E+16
   -1.512503    2.30253  0.4290E-10  0.1219E-13  0.7603E-17  0.1000E-09  0.0000E+00  0.3151E+16
   -1.581256    2.42327  0.4280E-10  0.1219E-13  0.7603E-17  0.1000E-09  0.0000E+00  0.2938E+16
   -1.650008    2.54516  0.4274E-10  0.1219E-13  0.7603E-17  0.1000E-09  0.0000E+00  0.2713E+16
   -1.718759    2.66795  0.4271E-10  0.1219E-13  0.7603E-17  0.1000E-09  0.0000E+00  0.2479E+16
   -1.787511    2.79139  0.4269E-10  0.1359E-13  0.7603E-17  0.1000E-09  0.0000E+00  0.2253E+16
   -1.856263    2.91612  0.4267E-10  0.6534E-13  0.1951E-16  0.1000E-09  0.0000E+00  0.2019E+16
   -1.925014    3.04203  0.4264E-10  0.2520E-12  0.6885E-16  0.1000E-09  0.0000E+00  0.1777E+16
   -1.993765    3.16902  0.4260E-10  0.9205E-12  0.2413E-15  0.1000E-09  0.0000E+00  0.1525E+16
   -2.062516    3.29667  0.4253E-10  0.3213E-11  0.8124E-15  0.1000E-09  0.0000E+00  0.1263E+16
   -2.131266    3.42420  0.4244E-10  0.1099E-10  0.2682E-14  0.1000E-09  0.0000E+00  0.1001E+16
   -2.200016    3.55130  0.4233E-10  0.3700E-10  0.8717E-14  0.1000E-09  0.0000E+00  0.7404E+15
   -2.268766    3.67767  0.4225E-10  0.1238E-09  0.2818E-13  0.2938E-09  0.0000E+00  0.4859E+15
   -2.337515    3.80335  0.4221E-10  0.4160E-09  0.9157E-13  0.1963E-08  0.0000E+00  0.2353E+15
   -2.406263    3.92718  0.4221E-10  0.1351E-08  0.2893E-12  0.6286E-07  0.0000E+00  0.2145E+14
   -2.475011    4.01390  0.4221E-10  0.2902E-08  0.6337E-12  0.5634E-05  0.0000E+00 -0.1433E+13
   -2.543759    4.01704  0.4221E-10  0.3454E-08  0.8701E-12  0.5173E-05  0.0000E+00 -0.1815E+13
   -2.612506    4.02061  0.4221E-10  0.3659E-08  0.1311E-11  0.3375E-05  0.0000E+00 -0.3434E+13
   -2.681252    4.02649  0.4221E-10  0.3229E-08  0.3208E-11  0.8608E-06  0.0000E+00 -0.2274E+14
   -2.749998    4.05354  0.4221E-10  0.0000E+00  0.0000E+00  0.0000E+00  0.0000E+00  0.0000E+00
