 1 - depth, m
 2 - temperature, C
 3 - salinity, kg/kg
 4 - turbulent kinetic energy, m**2/s**2
 5 - dissipation rate, m**2/s**3
 6 - kinematic heat conductance, m**2/s
 7 - modulus of horizontal velocity, m/s
 8 - Richardson number, n/d
   -0.000000   -0.00000  0.3451E-10  0.6568E-09  0.6881E-12  0.5424E-09  0.2961E-20  0.6337E+16
   -0.068746    0.09630  0.2280E-10  0.4863E-08  0.4597E-12  0.4954E-09  0.2699E-20  0.4703E+16
   -0.137492    0.16944  0.2032E-10  0.1175E-07  0.4555E-12  0.7297E-09  0.2315E-20  0.3206E+16
   -0.206239    0.22018  0.1986E-10  0.2082E-07  0.5271E-12  0.1413E-08  0.1912E-20  0.1971E+16
   -0.274986    0.25174  0.1981E-10  0.3190E-07  0.6430E-12  0.3406E-08  0.1537E-20  0.1059E+16
   -0.343734    0.26881  0.1981E-10  0.4482E-07  0.7895E-12  0.1124E-07  0.1206E-20  0.4630E+15
   -0.412483    0.27631  0.1980E-10  0.5637E-07  0.9217E-12  0.7115E-06  0.9297E-21  0.1292E+15
   -0.481232    0.27841  0.1980E-10  0.5938E-07  0.9528E-12  0.6998E-03  0.8874E-21  0.1364E+14
   -0.549981    0.27863  0.1980E-10  0.5946E-07  0.9537E-12  0.1094E-02  0.8871E-21  0.2814E+11
   -0.618731    0.27863  0.1980E-10  0.5948E-07  0.9540E-12  0.1161E-02  0.8868E-21 -0.1405E+11
   -0.687481    0.27863  0.1980E-10  0.5949E-07  0.9540E-12  0.1158E-02  0.8865E-21 -0.1571E+11
   -0.756232    0.27863  0.1980E-10  0.5948E-07  0.9539E-12  0.1161E-02  0.8862E-21 -0.1370E+11
   -0.824983    0.27863  0.1980E-10  0.5947E-07  0.9537E-12  0.1156E-02  0.8860E-21 -0.8726E+10
   -0.893734    0.27863  0.1980E-10  0.5944E-07  0.9532E-12  0.8822E-03  0.8857E-21  0.3036E+13
   -0.962486    0.27868  0.1980E-10  0.5845E-07  0.9416E-12  0.2481E-03  0.8855E-21  0.4804E+14
   -1.031237    0.27946  0.1980E-10  0.5283E-07  0.8687E-12  0.4162E-07  0.8849E-21  0.2081E+15
   -1.099989    0.28284  0.1980E-10  0.4189E-07  0.7129E-12  0.8558E-08  0.7877E-21  0.5304E+15
   -1.168741    0.29146  0.1980E-10  0.3239E-07  0.5719E-12  0.3085E-08  0.6712E-21  0.1060E+16
   -1.237493    0.30877  0.1980E-10  0.2468E-07  0.4521E-12  0.1328E-08  0.5628E-21  0.1851E+16
   -1.306245    0.33918  0.1978E-10  0.1855E-07  0.3528E-12  0.6364E-09  0.4642E-21  0.2927E+16
   -1.374997    0.38783  0.1967E-10  0.1375E-07  0.2717E-12  0.3226E-09  0.3752E-21  0.4367E+16
   -1.443749    0.46171  0.1946E-10  0.1006E-07  0.2066E-12  0.1773E-09  0.2950E-21  0.6017E+16
   -1.512502    0.56628  0.1936E-10  0.7250E-08  0.1553E-12  0.1164E-09  0.2225E-21  0.7713E+16
   -1.581254    0.70546  0.1933E-10  0.5150E-08  0.1157E-12  0.1001E-09  0.1564E-21  0.9300E+16
   -1.650006    0.88203  0.1931E-10  0.3604E-08  0.8586E-13  0.1000E-09  0.9531E-22  0.1063E+17
   -1.718757    1.09782  0.1929E-10  0.2489E-08  0.6432E-13  0.1000E-09  0.3746E-22  0.1155E+17
   -1.787509    1.35322  0.1929E-10  0.1672E-08  0.4936E-13  0.1000E-09  0.2544E-23  0.1113E+17
   -1.856260    1.62667  0.1928E-10  0.1060E-08  0.4022E-13  0.1000E-09  0.1591E-24  0.1057E+17
   -1.925012    1.92102  0.1928E-10  0.6225E-09  0.3843E-13  0.1000E-09  0.9083E-26  0.9785E+16
   -1.993762    2.23876  0.1928E-10  0.3741E-09  0.5054E-13  0.1000E-09  0.5649E-27  0.8712E+16
   -2.062513    2.58274  0.1927E-10  0.4285E-09  0.1051E-12  0.1000E-09  0.4571E-28  0.7369E+16
   -2.131263    2.96255  0.1926E-10  0.1172E-08  0.3214E-12  0.3139E-09  0.3460E-29  0.5231E+16
   -2.200013    3.36223  0.1921E-10  0.4082E-08  0.1095E-11  0.2089E-08  0.2433E-30  0.2670E+16
   -2.268763    3.76027  0.1913E-10  0.1413E-07  0.3672E-11  0.5153E-07  0.1168E-31  0.3621E+15
   -2.337512    4.05710  0.1913E-10  0.1923E-07  0.5056E-11  0.3106E-04  0.3659E-33 -0.2077E+13
   -2.406260    4.05895  0.1913E-10  0.2103E-07  0.5780E-11  0.3065E-04  0.1007E-33 -0.2217E+13
   -2.475008    4.06088  0.1913E-10  0.2224E-07  0.6701E-11  0.2789E-04  0.2526E-34 -0.2600E+13
   -2.543756    4.06307  0.1913E-10  0.2282E-07  0.8162E-11  0.2241E-04  0.5443E-35 -0.3538E+13
   -2.612503    4.06597  0.1913E-10  0.2242E-07  0.1144E-10  0.1376E-04  0.8388E-36 -0.6750E+13
   -2.681249    4.07122  0.1913E-10  0.1803E-07  0.3034E-10  0.2573E-05  0.6459E-37 -0.5981E+14
   -2.749995    4.10821  0.1913E-10  0.0000E+00  0.0000E+00  0.0000E+00  0.6790E-37  0.0000E+00
