 1 - depth, m
 2 - temperature, C
 3 - salinity, kg/kg
 4 - turbulent kinetic energy, m**2/s**2
 5 - dissipation rate, m**2/s**3
 6 - kinematic heat conductance, m**2/s
 7 - modulus of horizontal velocity, m/s
 8 - Richardson number, n/d
   -0.000000    7.77860  0.7364E-12  0.5749E-04  0.1082E-04  0.5643E-04  0.7007E-01 -0.1622E-01
   -0.068746    7.82461  0.7364E-12  0.3591E-04  0.2345E-05  0.9431E-04  0.3532E-01 -0.1046E-01
   -0.137492    7.83581  0.7365E-12  0.3077E-04  0.9676E-06  0.1383E-03  0.2837E-01 -0.1683E-01
   -0.206239    7.84318  0.7365E-12  0.2819E-04  0.5218E-06  0.1891E-03  0.2411E-01 -0.2364E-01
   -0.274987    7.84854  0.7365E-12  0.2664E-04  0.3345E-06  0.2448E-03  0.2107E-01 -0.3117E-01
   -0.343735    7.85261  0.7365E-12  0.2558E-04  0.2397E-06  0.3037E-03  0.1877E-01 -0.3931E-01
   -0.412484    7.85582  0.7365E-12  0.2476E-04  0.1846E-06  0.3647E-03  0.1696E-01 -0.4786E-01
   -0.481233    7.85842  0.7365E-12  0.2410E-04  0.1492E-06  0.4268E-03  0.1548E-01 -0.5666E-01
   -0.549983    7.86058  0.7365E-12  0.2353E-04  0.1247E-06  0.4894E-03  0.1423E-01 -0.6557E-01
   -0.618733    7.86242  0.7365E-12  0.2303E-04  0.1068E-06  0.5520E-03  0.1317E-01 -0.7448E-01
   -0.687483    7.86400  0.7365E-12  0.2259E-04  0.9331E-07  0.6140E-03  0.1224E-01 -0.8327E-01
   -0.756234    7.86539  0.7365E-12  0.2219E-04  0.8279E-07  0.6754E-03  0.1142E-01 -0.9088E-01
   -0.824985    7.86662  0.7365E-12  0.2182E-04  0.7441E-07  0.7406E-03  0.1068E-01 -0.8734E-01
   -0.893736    7.86771  0.7365E-12  0.2149E-04  0.6762E-07  0.8403E-03  0.1001E-01  0.6151E-01
   -0.962488    7.86866  0.7365E-12  0.2119E-04  0.6207E-07  0.1120E-02  0.9401E-02  0.1184E+03
   -1.031240    7.86941  0.7365E-12  0.2092E-04  0.5750E-07  0.1459E-02  0.8843E-02  0.3782E+03
   -1.099992    7.87000  0.7365E-12  0.2066E-04  0.5365E-07  0.1715E-02  0.8321E-02  0.1044E+03
   -1.168744    7.87047  0.7365E-12  0.2042E-04  0.5036E-07  0.1914E-02  0.7822E-02  0.1001E+03
   -1.237496    7.87088  0.7365E-12  0.2018E-04  0.4750E-07  0.1997E-02  0.7341E-02  0.7008E+02
   -1.306248    7.87125  0.7365E-12  0.1994E-04  0.4499E-07  0.2074E-02  0.6871E-02  0.1128E+03
   -1.375001    7.87159  0.7365E-12  0.1969E-04  0.4277E-07  0.2133E-02  0.6412E-02  0.3398E+03
   -1.443753    7.87190  0.7365E-12  0.1944E-04  0.4079E-07  0.2191E-02  0.5962E-02  0.8550E+04
   -1.512505    7.87220  0.7365E-12  0.1916E-04  0.3901E-07  0.2214E-02  0.5519E-02  0.4186E+05
   -1.581258    7.87249  0.7365E-12  0.1886E-04  0.3740E-07  0.2224E-02  0.5081E-02  0.7214E+05
   -1.650010    7.87276  0.7365E-12  0.1854E-04  0.3591E-07  0.2234E-02  0.4645E-02  0.8212E+03
   -1.718762    7.87303  0.7365E-12  0.1818E-04  0.3453E-07  0.2215E-02  0.4214E-02  0.1793E+03
   -1.787513    7.87329  0.7365E-12  0.1777E-04  0.3317E-07  0.2250E-02  0.3780E-02  0.6704E+02
   -1.856265    7.87354  0.7365E-12  0.1732E-04  0.3186E-07  0.2252E-02  0.3392E-02  0.1424E+02
   -1.925016    7.87379  0.7365E-12  0.1683E-04  0.3064E-07  0.2246E-02  0.3041E-02  0.1439E+03
   -1.993768    7.87403  0.7365E-12  0.1631E-04  0.2954E-07  0.2225E-02  0.2726E-02  0.3282E+01
   -2.062518    7.87427  0.7365E-12  0.1579E-04  0.2865E-07  0.2185E-02  0.2440E-02  0.3679E+01
   -2.131269    7.87451  0.7365E-12  0.1528E-04  0.2801E-07  0.2128E-02  0.2171E-02  0.2481E+01
   -2.200019    7.87476  0.7365E-12  0.1479E-04  0.2767E-07  0.2064E-02  0.1918E-02  0.1053E+02
   -2.268768    7.87501  0.7365E-12  0.1432E-04  0.2768E-07  0.1982E-02  0.1680E-02  0.7053E+01
   -2.337518    7.87526  0.7365E-12  0.1385E-04  0.2814E-07  0.1927E-02  0.1462E-02  0.5484E+01
   -2.406266    7.87552  0.7365E-12  0.1338E-04  0.2922E-07  0.1580E-02  0.1269E-02  0.8376E+01
   -2.475015    7.87584  0.7365E-12  0.1289E-04  0.3132E-07  0.1195E-02  0.1096E-02  0.4300E+03
   -2.543762    7.87626  0.7365E-12  0.1230E-04  0.3579E-07  0.6744E-03  0.9375E-03  0.6955E+02
   -2.612509    7.87695  0.7365E-12  0.1139E-04  0.4779E-07  0.3611E-03  0.7649E-03 -0.1298E+01
   -2.681256    7.87817  0.7365E-12  0.6828E-05  0.1679E-06  0.3417E-04  0.5786E-03 -0.3006E+05
   -2.750002    7.89084  0.7365E-12  0.0000E+00  0.0000E+00  0.0000E+00  0.5774E-03  0.0000E+00
