 1 - depth, m
 2 - temperature, C
 3 - salinity, kg/kg
 4 - turbulent kinetic energy, m**2/s**2
 5 - dissipation rate, m**2/s**3
 6 - kinematic heat conductance, m**2/s
 7 - modulus of horizontal velocity, m/s
 8 - Richardson number, n/d
   -0.000000   -0.00000  0.9207E-10  0.1219E-13  0.7603E-17  0.1000E-09  0.0000E+00  0.6174E+16
   -0.068746    0.09379  0.5469E-10  0.1219E-13  0.7603E-17  0.1000E-09  0.0000E+00  0.5951E+16
   -0.137492    0.18654  0.3961E-10  0.1219E-13  0.7603E-17  0.1000E-09  0.0000E+00  0.5758E+16
   -0.206239    0.27863  0.3514E-10  0.1219E-13  0.7603E-17  0.1000E-09  0.0000E+00  0.5589E+16
   -0.274987    0.37042  0.3403E-10  0.1219E-13  0.7603E-17  0.1000E-09  0.0000E+00  0.5442E+16
   -0.343735    0.46223  0.3379E-10  0.1219E-13  0.7603E-17  0.1000E-09  0.0000E+00  0.5314E+16
   -0.412483    0.55439  0.3374E-10  0.1219E-13  0.7603E-17  0.1000E-09  0.0000E+00  0.5201E+16
   -0.481232    0.64721  0.3373E-10  0.1219E-13  0.7603E-17  0.1000E-09  0.0000E+00  0.5102E+16
   -0.549982    0.74097  0.3373E-10  0.1219E-13  0.7603E-17  0.1000E-09  0.0000E+00  0.5012E+16
   -0.618732    0.83596  0.3373E-10  0.1219E-13  0.7603E-17  0.1000E-09  0.0000E+00  0.4930E+16
   -0.687482    0.93244  0.3373E-10  0.1219E-13  0.7603E-17  0.1000E-09  0.0000E+00  0.4865E+16
   -0.756233    1.03088  0.3373E-10  0.1219E-13  0.7603E-17  0.1000E-09  0.0000E+00  0.4808E+16
   -0.824984    1.13167  0.3373E-10  0.1219E-13  0.7603E-17  0.1000E-09  0.0000E+00  0.4747E+16
   -0.893735    1.23500  0.3373E-10  0.1219E-13  0.7603E-17  0.1000E-09  0.0000E+00  0.4681E+16
   -0.962486    1.34102  0.3372E-10  0.1219E-13  0.7603E-17  0.1000E-09  0.0000E+00  0.4607E+16
   -1.031238    1.44988  0.3370E-10  0.1219E-13  0.7603E-17  0.1000E-09  0.0000E+00  0.4521E+16
   -1.099990    1.56167  0.3366E-10  0.1219E-13  0.7603E-17  0.1000E-09  0.0000E+00  0.4422E+16
   -1.168742    1.67646  0.3358E-10  0.1219E-13  0.7603E-17  0.1000E-09  0.0000E+00  0.4307E+16
   -1.237494    1.79425  0.3344E-10  0.1219E-13  0.7603E-17  0.1000E-09  0.0000E+00  0.4174E+16
   -1.306246    1.91505  0.3327E-10  0.1219E-13  0.7603E-17  0.1000E-09  0.0000E+00  0.4022E+16
   -1.374999    2.03878  0.3309E-10  0.1219E-13  0.7603E-17  0.1000E-09  0.0000E+00  0.3857E+16
   -1.443751    2.16557  0.3295E-10  0.1219E-13  0.7603E-17  0.1000E-09  0.0000E+00  0.3671E+16
   -1.512503    2.29535  0.3286E-10  0.2721E-13  0.7603E-17  0.1000E-09  0.0000E+00  0.3463E+16
   -1.581255    2.42792  0.3280E-10  0.9035E-13  0.1761E-16  0.1000E-09  0.0000E+00  0.3232E+16
   -1.650007    2.56307  0.3277E-10  0.2647E-12  0.4784E-16  0.1000E-09  0.0000E+00  0.2980E+16
   -1.718759    2.70051  0.3274E-10  0.7413E-12  0.1290E-15  0.1000E-09  0.0000E+00  0.2708E+16
   -1.787511    2.83994  0.3273E-10  0.2089E-11  0.3518E-15  0.1000E-09  0.0000E+00  0.2431E+16
   -1.856262    2.98178  0.3272E-10  0.5886E-11  0.9606E-15  0.1000E-09  0.0000E+00  0.2137E+16
   -1.925013    3.12594  0.3271E-10  0.1646E-10  0.2604E-14  0.1000E-09  0.0000E+00  0.1829E+16
   -1.993764    3.27239  0.3270E-10  0.4566E-10  0.7006E-14  0.1000E-09  0.0000E+00  0.1502E+16
   -2.062515    3.42079  0.3268E-10  0.1227E-09  0.1828E-13  0.1000E-09  0.0000E+00  0.1156E+16
   -2.131265    3.56992  0.3265E-10  0.3249E-09  0.4698E-13  0.2973E-09  0.0000E+00  0.8034E+15
   -2.200015    3.71918  0.3262E-10  0.8507E-09  0.1195E-12  0.1351E-08  0.0000E+00  0.4493E+15
   -2.268765    3.86725  0.3260E-10  0.2206E-08  0.3013E-12  0.1398E-07  0.0000E+00  0.1089E+15
   -2.337514    4.00321  0.3260E-10  0.3422E-08  0.4715E-12  0.1034E-04  0.0000E+00 -0.5663E+12
   -2.406262    4.00523  0.3260E-10  0.3907E-08  0.5703E-12  0.1060E-04  0.0000E+00 -0.6230E+12
   -2.475011    4.00723  0.3260E-10  0.4245E-08  0.6949E-12  0.9743E-05  0.0000E+00 -0.7652E+12
   -2.543758    4.00944  0.3260E-10  0.4429E-08  0.8918E-12  0.7690E-05  0.0000E+00 -0.1118E+13
   -2.612505    4.01235  0.3260E-10  0.4374E-08  0.1337E-11  0.4436E-05  0.0000E+00 -0.2408E+13
   -2.681251    4.01770  0.3260E-10  0.3630E-08  0.3493E-11  0.9471E-06  0.0000E+00 -0.2037E+14
   -2.749997    4.04621  0.3260E-10  0.0000E+00  0.0000E+00  0.0000E+00  0.0000E+00  0.0000E+00
