 1 - depth, m
 2 - temperature, C
 3 - salinity, kg/kg
 4 - turbulent kinetic energy, m**2/s**2
 5 - dissipation rate, m**2/s**3
 6 - kinematic heat conductance, m**2/s
 7 - modulus of horizontal velocity, m/s
 8 - Richardson number, n/d
   -0.000000   -0.00000  0.2588E-11  0.1219E-13  0.7603E-17  0.1000E-09  0.6742E-68  0.3855E+16
   -0.068746    0.05829  0.1540E-11  0.1219E-13  0.7603E-17  0.1000E-09  0.5410E-68  0.3482E+16
   -0.137492    0.11174  0.1333E-11  0.1219E-13  0.7603E-17  0.1000E-09  0.4399E-68  0.3090E+16
   -0.206239    0.15984  0.1296E-11  0.1219E-13  0.7603E-17  0.1000E-09  0.3646E-68  0.2697E+16
   -0.274987    0.20235  0.1291E-11  0.1219E-13  0.7603E-17  0.1000E-09  0.3056E-68  0.2319E+16
   -0.343735    0.23932  0.1291E-11  0.1219E-13  0.7603E-17  0.1000E-09  0.2565E-68  0.1973E+16
   -0.412483    0.27108  0.1290E-11  0.1219E-13  0.7603E-17  0.1000E-09  0.2142E-68  0.1674E+16
   -0.481233    0.29826  0.1290E-11  0.1219E-13  0.7603E-17  0.1000E-09  0.1775E-68  0.1434E+16
   -0.549982    0.32172  0.1290E-11  0.1219E-13  0.7603E-17  0.1000E-09  0.1457E-68  0.1264E+16
   -0.618732    0.34252  0.1290E-11  0.1219E-13  0.7603E-17  0.1000E-09  0.1187E-68  0.1173E+16
   -0.687482    0.36194  0.1290E-11  0.1219E-13  0.7603E-17  0.1000E-09  0.9596E-69  0.1180E+16
   -0.756233    0.38158  0.1290E-11  0.1219E-13  0.7603E-17  0.1000E-09  0.7704E-69  0.1287E+16
   -0.824984    0.40313  0.1290E-11  0.1219E-13  0.7603E-17  0.1000E-09  0.6144E-69  0.1493E+16
   -0.893735    0.42832  0.1290E-11  0.1219E-13  0.7603E-17  0.1000E-09  0.4868E-69  0.1802E+16
   -0.962487    0.45898  0.1290E-11  0.1219E-13  0.7603E-17  0.1000E-09  0.3833E-69  0.2216E+16
   -1.031239    0.49706  0.1290E-11  0.1219E-13  0.7603E-17  0.1000E-09  0.2998E-69  0.2732E+16
   -1.099991    0.54462  0.1290E-11  0.1219E-13  0.7603E-17  0.1000E-09  0.2328E-69  0.3342E+16
   -1.168743    0.60378  0.1290E-11  0.1219E-13  0.7603E-17  0.1000E-09  0.1795E-69  0.4033E+16
   -1.237495    0.67664  0.1289E-11  0.1219E-13  0.7603E-17  0.1000E-09  0.1373E-69  0.4782E+16
   -1.306247    0.76530  0.1286E-11  0.1219E-13  0.7603E-17  0.1000E-09  0.1040E-69  0.5559E+16
   -1.374999    0.87173  0.1277E-11  0.1219E-13  0.7603E-17  0.1000E-09  0.7770E-70  0.6379E+16
   -1.443752    0.99876  0.1266E-11  0.4256E-13  0.1102E-16  0.1000E-09  0.5698E-70  0.7151E+16
   -1.512504    1.14826  0.1261E-11  0.1428E-12  0.3138E-16  0.1000E-09  0.4049E-70  0.7800E+16
   -1.581256    1.32135  0.1259E-11  0.4420E-12  0.9266E-16  0.1000E-09  0.2715E-70  0.8271E+16
   -1.650008    1.51875  0.1258E-11  0.1329E-11  0.2693E-15  0.1000E-09  0.1600E-70  0.8510E+16
   -1.718760    1.74068  0.1257E-11  0.3928E-11  0.7704E-15  0.1000E-09  0.6172E-71  0.8455E+16
   -1.787512    1.98639  0.1256E-11  0.1175E-10  0.2232E-14  0.1000E-09  0.4182E-72  0.7798E+16
   -1.856263    2.24459  0.1256E-11  0.3518E-10  0.6476E-14  0.1000E-09  0.2609E-73  0.6964E+16
   -1.925014    2.51421  0.1256E-11  0.1045E-09  0.1865E-13  0.1000E-09  0.1487E-74  0.5959E+16
   -1.993765    2.79369  0.1256E-11  0.3079E-09  0.5331E-13  0.1000E-09  0.9231E-76  0.4831E+16
   -2.062516    3.08302  0.1256E-11  0.8786E-09  0.1476E-12  0.2083E-09  0.7447E-77  0.3618E+16
   -2.131267    3.38660  0.1254E-11  0.2470E-08  0.4029E-12  0.9373E-09  0.5622E-78  0.2198E+16
   -2.200016    3.70141  0.1251E-11  0.6832E-08  0.1083E-11  0.8792E-08  0.3944E-79  0.6341E+15
   -2.268766    4.00921  0.1248E-11  0.8960E-08  0.1434E-11  0.2280E-04  0.1506E-80 -0.7561E+12
   -2.337515    4.01126  0.1248E-11  0.9812E-08  0.1630E-11  0.2354E-04  0.3605E-81 -0.8067E+12
   -2.406264    4.01326  0.1248E-11  0.1046E-07  0.1863E-11  0.2274E-04  0.8155E-82 -0.9167E+12
   -2.475012    4.01537  0.1248E-11  0.1091E-07  0.2183E-11  0.2025E-04  0.1633E-82 -0.1137E+13
   -2.543760    4.01778  0.1248E-11  0.1111E-07  0.2709E-11  0.1583E-04  0.2716E-83 -0.1635E+13
   -2.612507    4.02096  0.1248E-11  0.1085E-07  0.3902E-11  0.9298E-05  0.3075E-84 -0.3320E+13
   -2.681253    4.02663  0.1248E-11  0.8871E-08  0.1030E-10  0.1829E-05  0.1644E-85 -0.2830E+14
   -2.749999    4.05873  0.1248E-11  0.0000E+00  0.0000E+00  0.0000E+00  0.1740E-85  0.0000E+00
