 1 - depth, m
 2 - temperature, C
 3 - salinity, kg/kg
 4 - turbulent kinetic energy, m**2/s**2
 5 - dissipation rate, m**2/s**3
 6 - kinematic heat conductance, m**2/s
 7 - modulus of horizontal velocity, m/s
 8 - Richardson number, n/d
   -0.000000   -0.00000  0.1610E-10  0.1219E-13  0.7603E-17  0.1000E-09  0.0000E+00  0.4188E+16
   -0.068746    0.06336  0.8874E-11  0.1219E-13  0.7603E-17  0.1000E-09  0.0000E+00  0.4004E+16
   -0.137492    0.12498  0.7093E-11  0.1219E-13  0.7603E-17  0.1000E-09  0.0000E+00  0.3857E+16
   -0.206239    0.18534  0.6712E-11  0.1219E-13  0.7603E-17  0.1000E-09  0.0000E+00  0.3746E+16
   -0.274986    0.24496  0.6640E-11  0.1219E-13  0.7603E-17  0.1000E-09  0.0000E+00  0.3672E+16
   -0.343735    0.30440  0.6628E-11  0.1219E-13  0.7603E-17  0.1000E-09  0.0000E+00  0.3633E+16
   -0.412483    0.36423  0.6626E-11  0.1219E-13  0.7603E-17  0.1000E-09  0.0000E+00  0.3629E+16
   -0.481232    0.42506  0.6626E-11  0.1219E-13  0.7603E-17  0.1000E-09  0.0000E+00  0.3659E+16
   -0.549982    0.48753  0.6626E-11  0.1219E-13  0.7603E-17  0.1000E-09  0.0000E+00  0.3722E+16
   -0.618732    0.55230  0.6626E-11  0.1219E-13  0.7603E-17  0.1000E-09  0.0000E+00  0.3815E+16
   -0.687482    0.62008  0.6626E-11  0.1219E-13  0.7603E-17  0.1000E-09  0.0000E+00  0.3953E+16
   -0.756233    0.69185  0.6626E-11  0.1219E-13  0.7603E-17  0.1000E-09  0.0000E+00  0.4122E+16
   -0.824984    0.76850  0.6626E-11  0.1219E-13  0.7603E-17  0.1000E-09  0.0000E+00  0.4309E+16
   -0.893735    0.85074  0.6626E-11  0.1219E-13  0.7603E-17  0.1000E-09  0.0000E+00  0.4507E+16
   -0.962486    0.93926  0.6626E-11  0.1219E-13  0.7603E-17  0.1000E-09  0.0000E+00  0.4710E+16
   -1.031238    1.03474  0.6625E-11  0.1219E-13  0.7603E-17  0.1000E-09  0.0000E+00  0.4908E+16
   -1.099990    1.13782  0.6623E-11  0.1219E-13  0.7603E-17  0.1000E-09  0.0000E+00  0.5092E+16
   -1.168742    1.24907  0.6618E-11  0.1219E-13  0.7603E-17  0.1000E-09  0.0000E+00  0.5253E+16
   -1.237494    1.36902  0.6602E-11  0.1219E-13  0.7603E-17  0.1000E-09  0.0000E+00  0.5379E+16
   -1.306246    1.49812  0.6571E-11  0.5945E-13  0.1258E-16  0.1000E-09  0.0000E+00  0.5460E+16
   -1.374998    1.63672  0.6528E-11  0.1862E-12  0.3329E-16  0.1000E-09  0.0000E+00  0.5505E+16
   -1.443751    1.78562  0.6489E-11  0.5232E-12  0.8915E-16  0.1000E-09  0.0000E+00  0.5484E+16
   -1.512503    1.94516  0.6468E-11  0.1423E-11  0.2347E-15  0.1000E-09  0.0000E+00  0.5380E+16
   -1.581255    2.11533  0.6457E-11  0.3807E-11  0.6088E-15  0.1000E-09  0.0000E+00  0.5184E+16
   -1.650007    2.29595  0.6449E-11  0.1004E-10  0.1558E-14  0.1000E-09  0.0000E+00  0.4890E+16
   -1.718759    2.48672  0.6445E-11  0.2614E-10  0.3938E-14  0.1000E-09  0.0000E+00  0.4491E+16
   -1.787510    2.68707  0.6442E-11  0.6896E-10  0.1009E-13  0.1000E-09  0.0000E+00  0.3980E+16
   -1.856262    2.89570  0.6441E-11  0.1827E-09  0.2595E-13  0.1000E-09  0.0000E+00  0.3388E+16
   -1.925013    3.11250  0.6440E-11  0.4812E-09  0.6645E-13  0.1246E-09  0.0000E+00  0.2715E+16
   -1.993764    3.33736  0.6438E-11  0.1261E-08  0.1693E-12  0.4411E-09  0.0000E+00  0.1954E+16
   -2.062515    3.56936  0.6433E-11  0.3204E-08  0.4185E-12  0.1927E-08  0.0000E+00  0.1106E+16
   -2.131265    3.80367  0.6420E-11  0.7942E-08  0.1011E-11  0.2016E-07  0.0000E+00  0.2556E+15
   -2.200015    4.01454  0.6415E-11  0.9504E-08  0.1219E-11  0.3099E-04  0.0000E+00 -0.4921E+12
   -2.268764    4.01564  0.6415E-11  0.1011E-07  0.1328E-11  0.3130E-04  0.0000E+00 -0.5094E+12
   -2.337513    4.01673  0.6415E-11  0.1057E-07  0.1451E-11  0.3035E-04  0.0000E+00 -0.5494E+12
   -2.406262    4.01786  0.6415E-11  0.1089E-07  0.1607E-11  0.2802E-04  0.0000E+00 -0.6242E+12
   -2.475010    4.01910  0.6415E-11  0.1105E-07  0.1829E-11  0.2407E-04  0.0000E+00 -0.7677E+12
   -2.543758    4.02056  0.6415E-11  0.1098E-07  0.2209E-11  0.1822E-04  0.0000E+00 -0.1088E+13
   -2.612505    4.02253  0.6415E-11  0.1048E-07  0.3100E-11  0.1029E-04  0.0000E+00 -0.2155E+13
   -2.681251    4.02615  0.6415E-11  0.8029E-08  0.8228E-11  0.1664E-05  0.0000E+00 -0.1933E+14
   -2.749997    4.05000  0.6415E-11  0.0000E+00  0.0000E+00  0.0000E+00  0.0000E+00  0.0000E+00
