 1 - depth, m
 2 - temperature, C
 3 - salinity, kg/kg
 4 - turbulent kinetic energy, m**2/s**2
 5 - dissipation rate, m**2/s**3
 6 - kinematic heat conductance, m**2/s
 7 - modulus of horizontal velocity, m/s
 8 - Richardson number, n/d
   -0.000000   -0.00000  0.1635E-11  0.1219E-13  0.7603E-17  0.1000E-09  0.0000E+00  0.7432E+16
   -0.068746    0.11321  0.9511E-12  0.1219E-13  0.7603E-17  0.1000E-09  0.0000E+00  0.7138E+16
   -0.137492    0.22536  0.6910E-12  0.1219E-13  0.7603E-17  0.1000E-09  0.0000E+00  0.6873E+16
   -0.206239    0.33682  0.6065E-12  0.1219E-13  0.7603E-17  0.1000E-09  0.0000E+00  0.6634E+16
   -0.274987    0.44794  0.5834E-12  0.1219E-13  0.7603E-17  0.1000E-09  0.0000E+00  0.6419E+16
   -0.343735    0.55909  0.5779E-12  0.1219E-13  0.7603E-17  0.1000E-09  0.0000E+00  0.6224E+16
   -0.412483    0.67065  0.5767E-12  0.1219E-13  0.7603E-17  0.1000E-09  0.0000E+00  0.6047E+16
   -0.481232    0.78297  0.5764E-12  0.1219E-13  0.7603E-17  0.1000E-09  0.0000E+00  0.5883E+16
   -0.549982    0.89637  0.5764E-12  0.1219E-13  0.7603E-17  0.1000E-09  0.0000E+00  0.5729E+16
   -0.618732    1.01118  0.5764E-12  0.1219E-13  0.7603E-17  0.1000E-09  0.0000E+00  0.5581E+16
   -0.687482    1.12769  0.5764E-12  0.1219E-13  0.7603E-17  0.1000E-09  0.0000E+00  0.5447E+16
   -0.756233    1.24641  0.5764E-12  0.1219E-13  0.7603E-17  0.1000E-09  0.0000E+00  0.5317E+16
   -0.824984    1.36773  0.5764E-12  0.1219E-13  0.7603E-17  0.1000E-09  0.0000E+00  0.5180E+16
   -0.893735    1.49184  0.5763E-12  0.1219E-13  0.7603E-17  0.1000E-09  0.0000E+00  0.5033E+16
   -0.962487    1.61893  0.5762E-12  0.1219E-13  0.7603E-17  0.1000E-09  0.0000E+00  0.4873E+16
   -1.031238    1.74913  0.5759E-12  0.5711E-13  0.1005E-16  0.1000E-09  0.0000E+00  0.4697E+16
   -1.099990    1.88253  0.5753E-12  0.1657E-12  0.2302E-16  0.1000E-09  0.0000E+00  0.4502E+16
   -1.168742    2.01920  0.5740E-12  0.4201E-12  0.5487E-16  0.1000E-09  0.0000E+00  0.4288E+16
   -1.237494    2.15915  0.5721E-12  0.1022E-11  0.1290E-15  0.1000E-09  0.0000E+00  0.4051E+16
   -1.306247    2.30237  0.5695E-12  0.2441E-11  0.2994E-15  0.1000E-09  0.0000E+00  0.3791E+16
   -1.374999    2.44879  0.5668E-12  0.5754E-11  0.6868E-15  0.1000E-09  0.0000E+00  0.3511E+16
   -1.443751    2.59849  0.5645E-12  0.1341E-10  0.1558E-14  0.1000E-09  0.0000E+00  0.3207E+16
   -1.512503    2.75139  0.5629E-12  0.3094E-10  0.3498E-14  0.1000E-09  0.0000E+00  0.2878E+16
   -1.581255    2.90730  0.5619E-12  0.7059E-10  0.7773E-14  0.1000E-09  0.0000E+00  0.2525E+16
   -1.650007    3.06600  0.5613E-12  0.1594E-09  0.1710E-13  0.1000E-09  0.0000E+00  0.2149E+16
   -1.718759    3.22723  0.5609E-12  0.3564E-09  0.3725E-13  0.1080E-09  0.0000E+00  0.1754E+16
   -1.787511    3.39081  0.5606E-12  0.8079E-09  0.8226E-13  0.3080E-09  0.0000E+00  0.1359E+16
   -1.856262    3.55910  0.5601E-12  0.1845E-08  0.1831E-12  0.1004E-08  0.0000E+00  0.9278E+15
   -1.925014    3.73193  0.5593E-12  0.4194E-08  0.4060E-12  0.4506E-08  0.0000E+00  0.4583E+15
   -1.993765    3.90651  0.5589E-12  0.9039E-08  0.8589E-12  0.1001E-06  0.0000E+00  0.4334E+14
   -2.062515    4.01530  0.5589E-12  0.1009E-07  0.9637E-12  0.4399E-04  0.0000E+00 -0.2724E+12
   -2.131266    4.01590  0.5589E-12  0.1052E-07  0.1018E-11  0.4416E-04  0.0000E+00 -0.2768E+12
   -2.200016    4.01649  0.5589E-12  0.1086E-07  0.1076E-11  0.4340E-04  0.0000E+00 -0.2873E+12
   -2.268765    4.01709  0.5589E-12  0.1110E-07  0.1141E-11  0.4167E-04  0.0000E+00 -0.3055E+12
   -2.337514    4.01772  0.5589E-12  0.1126E-07  0.1223E-11  0.3878E-04  0.0000E+00 -0.3355E+12
   -2.406263    4.01839  0.5589E-12  0.1133E-07  0.1332E-11  0.3454E-04  0.0000E+00 -0.3861E+12
   -2.475011    4.01915  0.5589E-12  0.1127E-07  0.1499E-11  0.2868E-04  0.0000E+00 -0.4786E+12
   -2.543759    4.02007  0.5589E-12  0.1103E-07  0.1794E-11  0.2094E-04  0.0000E+00 -0.6804E+12
   -2.612506    4.02133  0.5589E-12  0.1037E-07  0.2511E-11  0.1128E-04  0.0000E+00 -0.1343E+13
   -2.681252    4.02370  0.5589E-12  0.7539E-08  0.6983E-11  0.1494E-05  0.0000E+00 -0.1264E+14
   -2.749998    4.04120  0.5589E-12  0.0000E+00  0.0000E+00  0.0000E+00  0.0000E+00  0.0000E+00
