 1 - depth, m
 2 - temperature, C
 3 - salinity, kg/kg
 4 - turbulent kinetic energy, m**2/s**2
 5 - dissipation rate, m**2/s**3
 6 - kinematic heat conductance, m**2/s
 7 - modulus of horizontal velocity, m/s
 8 - Richardson number, n/d
   -0.000000   -0.00000  0.8638E-11  0.1954E-05  0.3037E-07  0.1133E-04  0.1197E-01  0.2809E-01
   -0.068745    0.00738  0.8628E-11  0.1677E-05  0.1241E-07  0.1905E-04  0.8586E-02  0.5808E-01
   -0.137490    0.01117  0.8623E-11  0.1410E-05  0.7034E-08  0.2242E-04  0.6928E-02  0.8973E-01
   -0.206236    0.01393  0.8619E-11  0.1171E-05  0.4489E-08  0.2297E-04  0.5799E-02  0.1234E+00
   -0.274983    0.01623  0.8615E-11  0.9601E-06  0.3025E-08  0.2175E-04  0.4926E-02  0.1605E+00
   -0.343730    0.01830  0.8612E-11  0.7746E-06  0.2091E-08  0.1947E-04  0.4203E-02  0.2026E+00
   -0.412478    0.02028  0.8608E-11  0.6125E-06  0.1457E-08  0.1663E-04  0.3579E-02  0.2528E+00
   -0.481226    0.02227  0.8604E-11  0.4722E-06  0.1010E-08  0.1363E-04  0.3021E-02  0.3175E+00
   -0.549974    0.02444  0.8600E-11  0.3534E-06  0.6886E-09  0.1076E-04  0.2509E-02  0.4298E+00
   -0.618723    0.02719  0.8594E-11  0.2580E-06  0.4613E-09  0.8286E-05  0.2025E-02  0.8045E+00
   -0.687473    0.03105  0.8585E-11  0.1863E-06  0.3072E-09  0.6287E-05  0.1582E-02  0.2131E+01
   -0.756222    0.03544  0.8572E-11  0.1338E-06  0.2048E-09  0.4684E-05  0.1213E-02  0.5990E+01
   -0.824973    0.03931  0.8561E-11  0.9468E-07  0.1355E-09  0.3389E-05  0.9248E-03  0.1681E+02
   -0.893723    0.04240  0.8551E-11  0.6525E-07  0.8776E-10  0.2355E-05  0.7032E-03  0.4917E+02
   -0.962473    0.04493  0.8543E-11  0.4330E-07  0.5505E-10  0.1554E-05  0.5310E-03  0.1552E+03
   -1.031224    0.04708  0.8535E-11  0.2728E-07  0.3297E-10  0.9576E-06  0.3959E-03  0.5468E+03
   -1.099975    0.04900  0.8528E-11  0.1598E-07  0.1847E-10  0.5378E-06  0.2894E-03  0.2306E+04
   -1.168726    0.05082  0.8521E-11  0.8427E-08  0.9375E-11  0.2655E-06  0.2057E-03  0.1301E+05
   -1.237477    0.05268  0.8514E-11  0.3800E-08  0.4097E-11  0.1091E-06  0.1405E-03  0.1024E+06
   -1.306229    0.05488  0.8508E-11  0.1358E-08  0.1424E-11  0.3540E-07  0.9124E-04  0.9953E+06
   -1.374980    0.05812  0.8502E-11  0.3339E-09  0.3465E-12  0.6528E-08  0.5591E-04  0.1158E+08
   -1.443731    0.06536  0.8495E-11  0.6009E-10  0.6085E-13  0.7344E-09  0.3220E-04  0.1155E+09
   -1.512482    0.08115  0.8487E-11  0.2700E-10  0.1488E-13  0.1522E-09  0.1792E-04  0.1018E+10
   -1.581234    0.11354  0.8478E-11  0.7149E-10  0.1591E-13  0.1127E-09  0.9718E-05  0.7828E+10
   -1.649985    0.17587  0.8466E-11  0.1980E-09  0.3228E-13  0.1112E-09  0.4882E-05  0.4396E+11
   -1.718736    0.28653  0.8455E-11  0.4624E-09  0.6761E-13  0.1164E-09  0.1713E-05  0.2964E+12
   -1.787486    0.45968  0.8450E-11  0.9903E-09  0.1363E-12  0.2051E-09  0.1139E-06  0.4644E+14
   -1.856237    0.57532  0.8447E-11  0.1983E-08  0.2612E-12  0.6147E-09  0.6985E-08  0.1320E+16
   -1.924987    0.64299  0.8444E-11  0.3050E-08  0.3970E-12  0.1829E-06  0.3628E-09  0.1115E+16
   -1.993737    0.66716  0.8444E-11  0.3203E-08  0.4171E-12  0.1359E-04  0.4330E-10  0.1127E+16
   -2.062487    0.68870  0.8444E-11  0.3063E-08  0.4020E-12  0.5223E-09  0.3383E-10  0.6500E+16
   -2.131236    0.82229  0.8442E-11  0.1502E-08  0.2256E-12  0.1610E-09  0.2674E-11  0.1419E+17
   -2.199985    1.11584  0.8437E-11  0.7468E-09  0.2034E-12  0.1091E-09  0.1940E-12  0.2124E+17
   -2.268734    1.61424  0.8430E-11  0.1065E-08  0.6792E-12  0.1574E-09  0.9468E-14  0.2341E+17
   -2.337482    2.33327  0.8416E-11  0.6088E-08  0.4173E-11  0.1418E-08  0.3763E-15  0.1794E+17
   -2.406230    3.28813  0.8388E-11  0.3276E-07  0.2186E-10  0.1044E-05  0.1272E-16  0.4152E+16
   -2.474977    4.16491  0.8381E-11  0.5655E-07  0.3850E-10  0.3538E-04  0.2962E-18 -0.1367E+14
   -2.543724    4.17000  0.8381E-11  0.6264E-07  0.4705E-10  0.3231E-04  0.6457E-19 -0.1600E+14
   -2.612470    4.17575  0.8381E-11  0.6397E-07  0.6256E-10  0.2234E-04  0.1133E-19 -0.2559E+14
   -2.681215    4.18455  0.8381E-11  0.5090E-07  0.1503E-09  0.4234E-05  0.1127E-20 -0.1847E+15
   -2.749960    4.23826  0.8381E-11  0.0000E+00  0.0000E+00  0.0000E+00  0.1199E-20  0.0000E+00
