 1 - depth, m
 2 - temperature, C
 3 - salinity, kg/kg
 4 - turbulent kinetic energy, m**2/s**2
 5 - dissipation rate, m**2/s**3
 6 - kinematic heat conductance, m**2/s
 7 - modulus of horizontal velocity, m/s
 8 - Richardson number, n/d
   -0.000000   -0.00000  0.7459E-10  0.7569E-06  0.9578E-08  0.5093E-05  0.8443E-02  0.6134E-01
   -0.068745    0.01085  0.7434E-10  0.5914E-06  0.3685E-08  0.7259E-05  0.5681E-02  0.1289E+00
   -0.137490    0.01746  0.7419E-10  0.4349E-06  0.1892E-08  0.7035E-05  0.4241E-02  0.2519E+00
   -0.206236    0.02401  0.7402E-10  0.3094E-06  0.1064E-08  0.5898E-05  0.3210E-02  0.6196E+00
   -0.274983    0.03140  0.7382E-10  0.2149E-06  0.6186E-09  0.4578E-05  0.2405E-02  0.1780E+01
   -0.343730    0.03921  0.7359E-10  0.1480E-06  0.3649E-09  0.3372E-05  0.1775E-02  0.4821E+01
   -0.412478    0.04622  0.7337E-10  0.1039E-06  0.2151E-09  0.2365E-05  0.1296E-02  0.1058E+02
   -0.481226    0.05179  0.7316E-10  0.7330E-07  0.1243E-09  0.1869E-04  0.9352E-03  0.1196E+03
   -0.549974    0.05594  0.7299E-10  0.5095E-07  0.6909E-10  0.3967E-04  0.6665E-03  0.4416E+05
   -0.618723    0.05912  0.7285E-10  0.3579E-07  0.3636E-10  0.4597E-04  0.4663E-03  0.1944E+06
   -0.687473    0.06163  0.7275E-10  0.2636E-07  0.1792E-10  0.4950E-04  0.3176E-03  0.1420E+06
   -0.756223    0.06362  0.7267E-10  0.2113E-07  0.8409E-11  0.5306E-04  0.2087E-03  0.3392E+06
   -0.824973    0.06522  0.7260E-10  0.1867E-07  0.4188E-11  0.5467E-04  0.1313E-03  0.3638E+06
   -0.893723    0.06650  0.7254E-10  0.1777E-07  0.2739E-11  0.5534E-04  0.7892E-04  0.2522E+06
   -0.962474    0.06752  0.7248E-10  0.1745E-07  0.2375E-11  0.5483E-04  0.4594E-04  0.2934E+06
   -1.031224    0.06836  0.7243E-10  0.1715E-07  0.2254E-11  0.5307E-04  0.2653E-04  0.2144E+07
   -1.099975    0.06910  0.7239E-10  0.1669E-07  0.2135E-11  0.5066E-04  0.1548E-04  0.4445E+06
   -1.168726    0.06981  0.7234E-10  0.1607E-07  0.1984E-11  0.4815E-04  0.9219E-05  0.8300E+06
   -1.237478    0.07059  0.7230E-10  0.1515E-07  0.1793E-11  0.2859E-04  0.5663E-05  0.8639E+07
   -1.306229    0.07168  0.7225E-10  0.1342E-07  0.1482E-11  0.3470E-07  0.3584E-05  0.1016E+09
   -1.374980    0.07433  0.7215E-10  0.5319E-08  0.6018E-12  0.3732E-08  0.1935E-05  0.1305E+10
   -1.443731    0.08197  0.7209E-10  0.1860E-08  0.2217E-12  0.7422E-09  0.1020E-05  0.1380E+11
   -1.512483    0.09901  0.7204E-10  0.7633E-09  0.9606E-13  0.2499E-09  0.5501E-06  0.1330E+12
   -1.581234    0.13326  0.7199E-10  0.6235E-09  0.7872E-13  0.1671E-09  0.2980E-06  0.1185E+13
   -1.649985    0.19699  0.7193E-10  0.1033E-08  0.1245E-12  0.1652E-09  0.1514E-06  0.8831E+13
   -1.718736    0.30609  0.7188E-10  0.2076E-08  0.2393E-12  0.1901E-09  0.5374E-07  0.8253E+14
   -1.787487    0.47109  0.7184E-10  0.4277E-08  0.4725E-12  0.4991E-09  0.3583E-08  0.1696E+16
   -1.856237    0.58133  0.7180E-10  0.8661E-08  0.9186E-12  0.2040E-08  0.2205E-09  0.2329E+16
   -1.924988    0.64282  0.7178E-10  0.1117E-07  0.1187E-11  0.8777E-05  0.8442E-11  0.8808E+15
   -1.993738    0.65926  0.7178E-10  0.1142E-07  0.1215E-11  0.6352E-04  0.3815E-11  0.4261E+15
   -2.062487    0.66737  0.7178E-10  0.1120E-07  0.1192E-11  0.2017E-08  0.3539E-11  0.4800E+16
   -2.131237    0.75843  0.7178E-10  0.5693E-08  0.6378E-12  0.3766E-09  0.2727E-12  0.1112E+17
   -2.199986    0.97630  0.7172E-10  0.2728E-08  0.3398E-12  0.1549E-09  0.1911E-13  0.1732E+17
   -2.268734    1.35190  0.7166E-10  0.1200E-08  0.2236E-12  0.1074E-09  0.9119E-15  0.2073E+17
   -2.337483    1.89099  0.7155E-10  0.7370E-09  0.4201E-12  0.1220E-09  0.3560E-16  0.1996E+17
   -2.406230    2.60172  0.7136E-10  0.3050E-08  0.2408E-11  0.1043E-08  0.1185E-17  0.1323E+17
   -2.474977    3.49262  0.7091E-10  0.1875E-07  0.1530E-10  0.1314E-05  0.3285E-19  0.2028E+16
   -2.543724    4.17810  0.7068E-10  0.4441E-07  0.3808E-10  0.2142E-04  0.6796E-21 -0.2132E+14
   -2.612470    4.18575  0.7068E-10  0.4900E-07  0.5208E-10  0.1644E-04  0.9655E-22 -0.3089E+14
   -2.681215    4.19627  0.7068E-10  0.4193E-07  0.1187E-09  0.3873E-05  0.8463E-23 -0.1804E+15
   -2.749960    4.24728  0.7068E-10  0.0000E+00  0.0000E+00  0.0000E+00  0.8783E-23  0.0000E+00
