 1 - depth, m
 2 - temperature, C
 3 - salinity, kg/kg
 4 - turbulent kinetic energy, m**2/s**2
 5 - dissipation rate, m**2/s**3
 6 - kinematic heat conductance, m**2/s
 7 - modulus of horizontal velocity, m/s
 8 - Richardson number, n/d
   -0.000000   -0.00000  0.1060E-10  0.1219E-13  0.7603E-17  0.1000E-09  0.0000E+00  0.6030E+16
   -0.068746    0.09159  0.5772E-11  0.1219E-13  0.7603E-17  0.1000E-09  0.0000E+00  0.5801E+16
   -0.137492    0.18192  0.4300E-11  0.1219E-13  0.7603E-17  0.1000E-09  0.0000E+00  0.5609E+16
   -0.206239    0.27147  0.3917E-11  0.1219E-13  0.7603E-17  0.1000E-09  0.0000E+00  0.5450E+16
   -0.274987    0.36076  0.3830E-11  0.1219E-13  0.7603E-17  0.1000E-09  0.0000E+00  0.5323E+16
   -0.343735    0.45027  0.3812E-11  0.1219E-13  0.7603E-17  0.1000E-09  0.0000E+00  0.5223E+16
   -0.412483    0.54051  0.3809E-11  0.1219E-13  0.7603E-17  0.1000E-09  0.0000E+00  0.5147E+16
   -0.481232    0.63195  0.3808E-11  0.1219E-13  0.7603E-17  0.1000E-09  0.0000E+00  0.5091E+16
   -0.549982    0.72506  0.3808E-11  0.1219E-13  0.7603E-17  0.1000E-09  0.0000E+00  0.5051E+16
   -0.618732    0.82029  0.3808E-11  0.1219E-13  0.7603E-17  0.1000E-09  0.0000E+00  0.5023E+16
   -0.687482    0.91808  0.3808E-11  0.1219E-13  0.7603E-17  0.1000E-09  0.0000E+00  0.5015E+16
   -0.756233    1.01911  0.3808E-11  0.1219E-13  0.7603E-17  0.1000E-09  0.0000E+00  0.5017E+16
   -0.824984    1.12391  0.3808E-11  0.1219E-13  0.7603E-17  0.1000E-09  0.0000E+00  0.5014E+16
   -0.893735    1.23284  0.3808E-11  0.1219E-13  0.7603E-17  0.1000E-09  0.0000E+00  0.5002E+16
   -0.962486    1.34620  0.3808E-11  0.1219E-13  0.7603E-17  0.1000E-09  0.0000E+00  0.4977E+16
   -1.031238    1.46427  0.3807E-11  0.1219E-13  0.7603E-17  0.1000E-09  0.0000E+00  0.4933E+16
   -1.099990    1.58727  0.3804E-11  0.1403E-13  0.7603E-17  0.1000E-09  0.0000E+00  0.4866E+16
   -1.168742    1.71539  0.3798E-11  0.6395E-13  0.1179E-16  0.1000E-09  0.0000E+00  0.4770E+16
   -1.237494    1.84873  0.3787E-11  0.1884E-12  0.2885E-16  0.1000E-09  0.0000E+00  0.4643E+16
   -1.306246    1.98737  0.3770E-11  0.4953E-12  0.7197E-16  0.1000E-09  0.0000E+00  0.4481E+16
   -1.374999    2.13130  0.3749E-11  0.1257E-11  0.1768E-15  0.1000E-09  0.0000E+00  0.4288E+16
   -1.443751    2.28074  0.3732E-11  0.3137E-11  0.4284E-15  0.1000E-09  0.0000E+00  0.4055E+16
   -1.512503    2.43566  0.3720E-11  0.7725E-11  0.1026E-14  0.1000E-09  0.0000E+00  0.3778E+16
   -1.581255    2.59585  0.3713E-11  0.1880E-10  0.2426E-14  0.1000E-09  0.0000E+00  0.3455E+16
   -1.650007    2.76101  0.3709E-11  0.4522E-10  0.5677E-14  0.1000E-09  0.0000E+00  0.3089E+16
   -1.718759    2.93078  0.3707E-11  0.1076E-09  0.1314E-13  0.1000E-09  0.0000E+00  0.2682E+16
   -1.787511    3.10483  0.3706E-11  0.2594E-09  0.3082E-13  0.1000E-09  0.0000E+00  0.2258E+16
   -1.856262    3.28468  0.3704E-11  0.6296E-09  0.7280E-13  0.2071E-09  0.0000E+00  0.1789E+16
   -1.925013    3.47043  0.3702E-11  0.1522E-08  0.1714E-12  0.6874E-09  0.0000E+00  0.1269E+16
   -1.993764    3.66197  0.3698E-11  0.3661E-08  0.4017E-12  0.2943E-08  0.0000E+00  0.6945E+15
   -2.062515    3.85643  0.3692E-11  0.8401E-08  0.9009E-12  0.3641E-07  0.0000E+00  0.1257E+15
   -2.131265    4.01550  0.3691E-11  0.9627E-08  0.1039E-11  0.3729E-04  0.0000E+00 -0.3481E+12
   -2.200015    4.01625  0.3691E-11  0.1012E-07  0.1110E-11  0.3749E-04  0.0000E+00 -0.3560E+12
   -2.268765    4.01700  0.3691E-11  0.1048E-07  0.1187E-11  0.3665E-04  0.0000E+00 -0.3746E+12
   -2.337514    4.01777  0.3691E-11  0.1075E-07  0.1279E-11  0.3464E-04  0.0000E+00 -0.4083E+12
   -2.406262    4.01858  0.3691E-11  0.1090E-07  0.1401E-11  0.3128E-04  0.0000E+00 -0.4670E+12
   -2.475011    4.01950  0.3691E-11  0.1092E-07  0.1580E-11  0.2633E-04  0.0000E+00 -0.5764E+12
   -2.543758    4.02059  0.3691E-11  0.1075E-07  0.1895E-11  0.1952E-04  0.0000E+00 -0.8172E+12
   -2.612505    4.02208  0.3691E-11  0.1016E-07  0.2648E-11  0.1072E-04  0.0000E+00 -0.1614E+13
   -2.681251    4.02485  0.3691E-11  0.7527E-08  0.7183E-11  0.1542E-05  0.0000E+00 -0.1491E+14
   -2.749997    4.04454  0.3691E-11  0.0000E+00  0.0000E+00  0.0000E+00  0.0000E+00  0.0000E+00
