 1 - depth, m
 2 - temperature, C
 3 - salinity, kg/kg
 4 - turbulent kinetic energy, m**2/s**2
 5 - dissipation rate, m**2/s**3
 6 - kinematic heat conductance, m**2/s
 7 - modulus of horizontal velocity, m/s
 8 - Richardson number, n/d
   -0.000000   -0.00000  0.3742E-10  0.7187E-12  0.1534E-15  0.1000E-09  0.7446E-41  0.4665E+16
   -0.068746    0.07065  0.2304E-10  0.1588E-11  0.1275E-15  0.1000E-09  0.6965E-41  0.3983E+16
   -0.137492    0.13206  0.2036E-10  0.3019E-11  0.1414E-15  0.1000E-09  0.6275E-41  0.3287E+16
   -0.206239    0.18353  0.1988E-10  0.4863E-11  0.1722E-15  0.1000E-09  0.5455E-41  0.2613E+16
   -0.274986    0.22499  0.1981E-10  0.7009E-11  0.2121E-15  0.1000E-09  0.4627E-41  0.1996E+16
   -0.343734    0.25699  0.1981E-10  0.9352E-11  0.2570E-15  0.1000E-09  0.3865E-41  0.1462E+16
   -0.412483    0.28062  0.1980E-10  0.1179E-10  0.3041E-15  0.1000E-09  0.3200E-41  0.1025E+16
   -0.481232    0.29729  0.1980E-10  0.1422E-10  0.3508E-15  0.1000E-09  0.2635E-41  0.6899E+15
   -0.549981    0.30855  0.1980E-10  0.1655E-10  0.3951E-15  0.1000E-09  0.2158E-41  0.4523E+15
   -0.618731    0.31595  0.1980E-10  0.1866E-10  0.4351E-15  0.1000E-09  0.1759E-41  0.3056E+15
   -0.687482    0.32096  0.1980E-10  0.2048E-10  0.4691E-15  0.1000E-09  0.1425E-41  0.2506E+15
   -0.756232    0.32508  0.1980E-10  0.2193E-10  0.4958E-15  0.1000E-09  0.1148E-41  0.2817E+15
   -0.824983    0.32971  0.1980E-10  0.2294E-10  0.5140E-15  0.1000E-09  0.9199E-42  0.3974E+15
   -0.893734    0.33625  0.1980E-10  0.2346E-10  0.5232E-15  0.1000E-09  0.7327E-42  0.6073E+15
   -0.962486    0.34628  0.1980E-10  0.2348E-10  0.5230E-15  0.1000E-09  0.5802E-42  0.9254E+15
   -1.031237    0.36161  0.1980E-10  0.2298E-10  0.5135E-15  0.1000E-09  0.4569E-42  0.1368E+16
   -1.099989    0.38440  0.1980E-10  0.2197E-10  0.4950E-15  0.1000E-09  0.3577E-42  0.1950E+16
   -1.168741    0.41716  0.1980E-10  0.2050E-10  0.4685E-15  0.1000E-09  0.2783E-42  0.2679E+16
   -1.237493    0.46268  0.1980E-10  0.1862E-10  0.4350E-15  0.1000E-09  0.2150E-42  0.3552E+16
   -1.306245    0.52402  0.1976E-10  0.1640E-10  0.3962E-15  0.1000E-09  0.1645E-42  0.4551E+16
   -1.374997    0.60432  0.1965E-10  0.1392E-10  0.3543E-15  0.1000E-09  0.1244E-42  0.5708E+16
   -1.443750    0.70798  0.1946E-10  0.1131E-10  0.3119E-15  0.1000E-09  0.9219E-43  0.6908E+16
   -1.512502    0.83826  0.1936E-10  0.8683E-11  0.2732E-15  0.1000E-09  0.6620E-43  0.8042E+16
   -1.581254    0.99744  0.1933E-10  0.6212E-11  0.2449E-15  0.1000E-09  0.4478E-43  0.9013E+16
   -1.650006    1.18715  0.1931E-10  0.4111E-11  0.2416E-15  0.1000E-09  0.2656E-43  0.9720E+16
   -1.718758    1.40812  0.1929E-10  0.2726E-11  0.3078E-15  0.1000E-09  0.1028E-43  0.1005E+17
   -1.787509    1.65946  0.1929E-10  0.2776E-11  0.6178E-15  0.1000E-09  0.6971E-45  0.9511E+16
   -1.856261    1.92668  0.1928E-10  0.6629E-11  0.1836E-14  0.1000E-09  0.4351E-46  0.8715E+16
   -1.925012    2.20774  0.1928E-10  0.2295E-10  0.6323E-14  0.1000E-09  0.2480E-47  0.7663E+16
   -1.993763    2.49959  0.1928E-10  0.8342E-10  0.2220E-13  0.1000E-09  0.1540E-48  0.6442E+16
   -2.062513    2.80083  0.1927E-10  0.2934E-09  0.7528E-13  0.1000E-09  0.1243E-49  0.5187E+16
   -2.131264    3.11798  0.1925E-10  0.1012E-08  0.2503E-12  0.3468E-09  0.9388E-51  0.3675E+16
   -2.200014    3.44762  0.1919E-10  0.3427E-08  0.8181E-12  0.2125E-08  0.6591E-52  0.1959E+16
   -2.268763    3.78211  0.1914E-10  0.1122E-07  0.2594E-11  0.4392E-07  0.3162E-53  0.2995E+15
   -2.337512    4.04613  0.1913E-10  0.1528E-07  0.3571E-11  0.2814E-04  0.9935E-55 -0.1651E+13
   -2.406261    4.04787  0.1913E-10  0.1670E-07  0.4075E-11  0.2772E-04  0.2686E-55 -0.1756E+13
   -2.475009    4.04967  0.1913E-10  0.1764E-07  0.4706E-11  0.2518E-04  0.6583E-56 -0.2046E+13
   -2.543756    4.05170  0.1913E-10  0.1805E-07  0.5695E-11  0.2017E-04  0.1380E-56 -0.2758E+13
   -2.612503    4.05434  0.1913E-10  0.1765E-07  0.7900E-11  0.1228E-04  0.2060E-57 -0.5180E+13
   -2.681249    4.05905  0.1913E-10  0.1402E-07  0.2043E-10  0.2256E-05  0.1527E-58 -0.4377E+14
   -2.749995    4.09064  0.1913E-10  0.0000E+00  0.0000E+00  0.0000E+00  0.1610E-58  0.0000E+00
