 1 - depth, m
 2 - temperature, C
 3 - salinity, kg/kg
 4 - turbulent kinetic energy, m**2/s**2
 5 - dissipation rate, m**2/s**3
 6 - kinematic heat conductance, m**2/s
 7 - modulus of horizontal velocity, m/s
 8 - Richardson number, n/d
   -0.000000   -0.00000  0.2218E-15  0.1218E-13  0.7602E-17  0.1000E-09  0.0000E+00  0.6058E+16
   -0.068749    0.09243  0.4743E-18  0.1218E-13  0.7602E-17  0.1000E-09  0.0000E+00  0.4069E+16
   -0.137499    0.15571  0.5442E-14  0.1218E-13  0.7602E-17  0.1000E-09  0.0000E+00  0.3698E+16
   -0.206250    0.21398  0.1436E-13  0.1218E-13  0.7602E-17  0.1000E-09  0.0000E+00  0.3769E+16
   -0.275001    0.27434  0.3217E-12  0.1218E-13  0.7602E-17  0.1000E-09  0.0000E+00  0.3944E+16
   -0.343753    0.33866  0.1254E-11  0.1218E-13  0.7602E-17  0.1000E-09  0.0000E+00  0.4131E+16
   -0.412506    0.40739  0.2476E-11  0.1218E-13  0.7602E-17  0.1000E-09  0.0000E+00  0.4302E+16
   -0.481258    0.48052  0.3582E-11  0.1218E-13  0.7602E-17  0.1000E-09  0.0000E+00  0.4449E+16
   -0.550012    0.55790  0.4320E-11  0.1218E-13  0.7602E-17  0.1000E-09  0.0000E+00  0.4569E+16
   -0.618765    0.63935  0.4651E-11  0.1218E-13  0.7602E-17  0.1000E-09  0.0000E+00  0.4665E+16
   -0.687519    0.72474  0.4673E-11  0.1218E-13  0.7602E-17  0.1000E-09  0.0000E+00  0.4720E+16
   -0.756274    0.81361  0.4529E-11  0.1218E-13  0.7602E-17  0.1000E-09  0.0000E+00  0.4741E+16
   -0.825029    0.90563  0.4332E-11  0.1218E-13  0.7602E-17  0.1000E-09  0.0000E+00  0.4740E+16
   -0.893784    1.00060  0.4152E-11  0.1218E-13  0.7602E-17  0.1000E-09  0.0000E+00  0.4716E+16
   -0.962539    1.09835  0.4016E-11  0.1218E-13  0.7602E-17  0.1000E-09  0.0000E+00  0.4671E+16
   -1.031294    1.19873  0.3924E-11  0.1218E-13  0.7602E-17  0.1000E-09  0.0000E+00  0.4607E+16
   -1.100050    1.30158  0.3869E-11  0.1218E-13  0.7602E-17  0.1000E-09  0.0000E+00  0.4526E+16
   -1.168806    1.40678  0.3837E-11  0.1218E-13  0.7602E-17  0.1000E-09  0.0000E+00  0.4428E+16
   -1.237561    1.51425  0.3820E-11  0.1218E-13  0.7602E-17  0.1000E-09  0.0000E+00  0.4316E+16
   -1.306317    1.62390  0.3810E-11  0.1218E-13  0.7602E-17  0.1000E-09  0.0000E+00  0.4189E+16
   -1.375073    1.73564  0.3804E-11  0.1218E-13  0.7602E-17  0.1000E-09  0.0000E+00  0.4063E+16
   -1.443829    1.84980  0.3798E-11  0.1218E-13  0.7602E-17  0.1000E-09  0.0000E+00  0.3934E+16
   -1.512585    1.96670  0.3791E-11  0.1218E-13  0.7602E-17  0.1000E-09  0.0000E+00  0.3813E+16
   -1.581341    2.08711  0.3784E-11  0.1242E-13  0.7809E-17  0.1000E-09  0.0000E+00  0.3743E+16
   -1.650097    2.21347  0.3775E-11  0.1856E-13  0.1226E-16  0.1000E-09  0.0000E+00  0.3855E+16
   -1.718852    2.35406  0.3765E-11  0.7450E-13  0.5056E-16  0.1000E-09  0.0000E+00  0.4400E+16
   -1.787608    2.53223  0.3755E-11  0.5522E-12  0.3649E-15  0.1000E-09  0.0000E+00  0.3367E+16
   -1.856363    2.68573  0.3745E-11  0.4452E-11  0.2836E-14  0.1009E-09  0.0000E+00  0.2734E+16
   -1.925118    2.82541  0.3736E-11  0.3480E-10  0.2130E-13  0.1540E-09  0.0000E+00  0.2088E+16
   -1.993873    2.94399  0.3727E-11  0.2549E-09  0.1498E-12  0.9329E-09  0.0000E+00  0.1575E+16
   -2.062627    3.04259  0.3720E-11  0.1611E-08  0.9121E-12  0.2540E-08  0.0000E+00  0.1644E+16
   -2.131381    3.16044  0.3715E-11  0.8660E-08  0.4731E-11  0.9546E-08  0.0000E+00  0.1663E+16
   -2.200135    3.32119  0.3709E-11  0.1920E-07  0.1052E-10  0.3927E-05  0.0000E+00  0.1426E+16
   -2.268888    3.50717  0.3705E-11  0.2730E-07  0.1535E-10  0.1337E-04  0.0000E+00  0.1020E+16
   -2.337641    3.66298  0.3702E-11  0.3343E-07  0.1949E-10  0.1916E-04  0.0000E+00  0.7233E+15
   -2.406393    3.80341  0.3700E-11  0.3872E-07  0.2360E-10  0.2220E-04  0.0000E+00  0.4340E+15
   -2.475145    3.95646  0.3698E-11  0.4370E-07  0.2845E-10  0.2465E-04  0.0000E+00  0.9461E+14
   -2.543896    4.06549  0.3697E-11  0.4774E-07  0.3517E-10  0.2558E-04  0.0000E+00 -0.8974E+13
   -2.612647    4.07285  0.3697E-11  0.4800E-07  0.4751E-10  0.1747E-04  0.0000E+00 -0.1497E+14
   -2.681397    4.08306  0.3697E-11  0.3688E-07  0.1274E-09  0.3003E-05  0.0000E+00 -0.1170E+15
   -2.750146    4.13320  0.3697E-11  0.0000E+00  0.0000E+00  0.0000E+00  0.0000E+00  0.0000E+00
