 1 - depth, m
 2 - temperature, C
 3 - salinity, kg/kg
 4 - turbulent kinetic energy, m**2/s**2
 5 - dissipation rate, m**2/s**3
 6 - kinematic heat conductance, m**2/s
 7 - modulus of horizontal velocity, m/s
 8 - Richardson number, n/d
   -0.000000    8.58339  0.1255E-11  0.5639E-04  0.1125E-04  0.5206E-04  0.6984E-01 -0.3733E-02
   -0.068746    8.62121  0.1255E-11  0.3533E-04  0.2429E-05  0.9144E-04  0.3560E-01 -0.1006E-01
   -0.137492    8.63078  0.1255E-11  0.3043E-04  0.9509E-06  0.1362E-03  0.2853E-01 -0.1645E-01
   -0.206239    8.63700  0.1255E-11  0.2798E-04  0.5044E-06  0.1881E-03  0.2416E-01 -0.2318E-01
   -0.274987    8.64149  0.1255E-11  0.2654E-04  0.3242E-06  0.2445E-03  0.2108E-01 -0.3065E-01
   -0.343735    8.64485  0.1255E-11  0.2554E-04  0.2339E-06  0.3044E-03  0.1877E-01 -0.3877E-01
   -0.412484    8.64748  0.1255E-11  0.2478E-04  0.1811E-06  0.3666E-03  0.1696E-01 -0.4737E-01
   -0.481233    8.64960  0.1255E-11  0.2414E-04  0.1469E-06  0.4302E-03  0.1549E-01 -0.5629E-01
   -0.549983    8.65136  0.1255E-11  0.2360E-04  0.1231E-06  0.4944E-03  0.1425E-01 -0.6542E-01
   -0.618733    8.65286  0.1255E-11  0.2313E-04  0.1058E-06  0.5589E-03  0.1320E-01 -0.7467E-01
   -0.687483    8.65415  0.1255E-11  0.2271E-04  0.9257E-07  0.6233E-03  0.1228E-01 -0.8328E-01
   -0.756234    8.65528  0.1255E-11  0.2234E-04  0.8231E-07  0.6909E-03  0.1147E-01 -0.8309E-01
   -0.824985    8.65629  0.1255E-11  0.2200E-04  0.7414E-07  0.7871E-03  0.1075E-01  0.7856E-01
   -0.893737    8.65716  0.1255E-11  0.2170E-04  0.6758E-07  0.1025E-02  0.1009E-01  0.1255E+03
   -0.962488    8.65786  0.1255E-11  0.2143E-04  0.6222E-07  0.1251E-02  0.9494E-02  0.5386E+02
   -1.031240    8.65844  0.1255E-11  0.2119E-04  0.5778E-07  0.1516E-02  0.8939E-02  0.7306E+02
   -1.099992    8.65892  0.1255E-11  0.2097E-04  0.5403E-07  0.1702E-02  0.8419E-02  0.3932E+02
   -1.168744    8.65933  0.1255E-11  0.2075E-04  0.5082E-07  0.1872E-02  0.7918E-02  0.3394E+02
   -1.237496    8.65969  0.1255E-11  0.2054E-04  0.4804E-07  0.1963E-02  0.7436E-02  0.6176E+02
   -1.306249    8.66003  0.1255E-11  0.2033E-04  0.4560E-07  0.2013E-02  0.6965E-02  0.1271E+03
   -1.375001    8.66034  0.1255E-11  0.2011E-04  0.4345E-07  0.2049E-02  0.6504E-02  0.2026E+03
   -1.443753    8.66065  0.1255E-11  0.1988E-04  0.4153E-07  0.2076E-02  0.6050E-02  0.9017E+03
   -1.512506    8.66095  0.1255E-11  0.1962E-04  0.3981E-07  0.2092E-02  0.5602E-02  0.8017E+04
   -1.581258    8.66124  0.1255E-11  0.1934E-04  0.3824E-07  0.2095E-02  0.5158E-02  0.2394E+06
   -1.650010    8.66152  0.1255E-11  0.1903E-04  0.3679E-07  0.2098E-02  0.4715E-02  0.6600E+03
   -1.718762    8.66180  0.1255E-11  0.1868E-04  0.3543E-07  0.2073E-02  0.4273E-02  0.1462E+03
   -1.787514    8.66208  0.1255E-11  0.1826E-04  0.3408E-07  0.2098E-02  0.3827E-02  0.6037E+02
   -1.856265    8.66235  0.1255E-11  0.1780E-04  0.3279E-07  0.2093E-02  0.3430E-02  0.8828E+01
   -1.925017    8.66262  0.1255E-11  0.1730E-04  0.3159E-07  0.2083E-02  0.3072E-02  0.3474E+01
   -1.993768    8.66288  0.1255E-11  0.1677E-04  0.3052E-07  0.2062E-02  0.2752E-02  0.2117E+01
   -2.062519    8.66315  0.1255E-11  0.1625E-04  0.2968E-07  0.2029E-02  0.2462E-02  0.1595E+01
   -2.131269    8.66342  0.1255E-11  0.1572E-04  0.2910E-07  0.1985E-02  0.2189E-02  0.1254E+01
   -2.200019    8.66369  0.1255E-11  0.1522E-04  0.2884E-07  0.1938E-02  0.1931E-02  0.9934E+00
   -2.268769    8.66397  0.1255E-11  0.1472E-04  0.2896E-07  0.1900E-02  0.1688E-02  0.7040E+00
   -2.337518    8.66425  0.1255E-11  0.1422E-04  0.2957E-07  0.1878E-02  0.1465E-02  0.5543E+00
   -2.406267    8.66454  0.1255E-11  0.1374E-04  0.3086E-07  0.1730E-02  0.1265E-02  0.3687E+00
   -2.475015    8.66484  0.1255E-11  0.1326E-04  0.3312E-07  0.1488E-02  0.1090E-02  0.5306E+01
   -2.543763    8.66520  0.1255E-11  0.1270E-04  0.3767E-07  0.9574E-03  0.9434E-03  0.5909E+02
   -2.612510    8.66575  0.1255E-11  0.1181E-04  0.5013E-07  0.3942E-03  0.7833E-03  0.9746E+03
   -2.681256    8.66700  0.1255E-11  0.7114E-05  0.1786E-06  0.3514E-04  0.5991E-03 -0.1215E+05
   -2.750002    8.68091  0.1255E-11  0.0000E+00  0.0000E+00  0.0000E+00  0.5980E-03  0.0000E+00
