 1 - depth, m
 2 - temperature, C
 3 - salinity, kg/kg
 4 - turbulent kinetic energy, m**2/s**2
 5 - dissipation rate, m**2/s**3
 6 - kinematic heat conductance, m**2/s
 7 - modulus of horizontal velocity, m/s
 8 - Richardson number, n/d
   -0.000000   -0.00000  0.4479E-16  0.1218E-13  0.7602E-17  0.1000E-09  0.0000E+00  0.2257E+17
   -0.068749    0.35615  0.0000E+00  0.1218E-13  0.7602E-17  0.1000E-09  0.0000E+00  0.1103E+17
   -0.137498    0.54561  0.2960E-14  0.1218E-13  0.7602E-17  0.1000E-09  0.0000E+00  0.5127E+16
   -0.206248    0.63802  0.3619E-15  0.1218E-13  0.7602E-17  0.1000E-09  0.0000E+00  0.2472E+16
   -0.274999    0.68330  0.5846E-14  0.1218E-13  0.7602E-17  0.1000E-09  0.0000E+00  0.1542E+16
   -0.343750    0.71134  0.2677E-12  0.1218E-13  0.7602E-17  0.1000E-09  0.0000E+00  0.1449E+16
   -0.412501    0.73761  0.8586E-12  0.1218E-13  0.7602E-17  0.1000E-09  0.0000E+00  0.1715E+16
   -0.481253    0.76910  0.1561E-11  0.1218E-13  0.7602E-17  0.1000E-09  0.0000E+00  0.2103E+16
   -0.550006    0.80839  0.2159E-11  0.1218E-13  0.7602E-17  0.1000E-09  0.0000E+00  0.2506E+16
   -0.618759    0.85612  0.2538E-11  0.1218E-13  0.7602E-17  0.1000E-09  0.0000E+00  0.2888E+16
   -0.687512    0.91226  0.2694E-11  0.1218E-13  0.7602E-17  0.1000E-09  0.0000E+00  0.3187E+16
   -0.756266    0.97562  0.2689E-11  0.1218E-13  0.7602E-17  0.1000E-09  0.0000E+00  0.3414E+16
   -0.825020    1.04519  0.2602E-11  0.1218E-13  0.7602E-17  0.1000E-09  0.0000E+00  0.3597E+16
   -0.893774    1.12048  0.2492E-11  0.1218E-13  0.7602E-17  0.1000E-09  0.0000E+00  0.3737E+16
   -0.962529    1.20100  0.2394E-11  0.1289E-13  0.8032E-17  0.1000E-09  0.0000E+00  0.3836E+16
   -1.031283    1.28630  0.2320E-11  0.2761E-13  0.1659E-16  0.1000E-09  0.0000E+00  0.3897E+16
   -1.100038    1.37598  0.2271E-11  0.1275E-12  0.7291E-16  0.1000E-09  0.0000E+00  0.3922E+16
   -1.168793    1.46963  0.2242E-11  0.7303E-12  0.4010E-15  0.1000E-09  0.0000E+00  0.3913E+16
   -1.237548    1.56683  0.2225E-11  0.4227E-11  0.2234E-14  0.1000E-09  0.0000E+00  0.3863E+16
   -1.306304    1.66697  0.2215E-11  0.2390E-10  0.1215E-13  0.1035E-09  0.0000E+00  0.3763E+16
   -1.375059    1.76904  0.2210E-11  0.1312E-09  0.6405E-13  0.1545E-09  0.0000E+00  0.3773E+16
   -1.443814    1.87653  0.2206E-11  0.6969E-09  0.3260E-12  0.4579E-09  0.0000E+00  0.3880E+16
   -1.512569    1.99338  0.2203E-11  0.3550E-08  0.1591E-11  0.1543E-08  0.0000E+00  0.4299E+16
   -1.581324    2.13205  0.2199E-11  0.1710E-07  0.7350E-11  0.4011E-08  0.0000E+00  0.5796E+16
   -1.650079    2.34385  0.2194E-11  0.7546E-07  0.3123E-10  0.1333E-07  0.0000E+00  0.8087E+16
   -1.718834    2.78481  0.2186E-11  0.1641E-06  0.6644E-10  0.3983E-04  0.0000E+00  0.7189E+16
   -1.787589    3.34825  0.2177E-11  0.2242E-06  0.9064E-10  0.1281E-03  0.0000E+00  0.3272E+16
   -1.856343    3.68586  0.2170E-11  0.2630E-06  0.1067E-09  0.1838E-03  0.0000E+00  0.1470E+16
   -1.925098    3.88140  0.2165E-11  0.2904E-06  0.1190E-09  0.2174E-03  0.0000E+00  0.6555E+15
   -1.993852    3.99485  0.2162E-11  0.3130E-06  0.1306E-09  0.2384E-03  0.0000E+00  0.3735E+15
   -2.062605    4.07419  0.2161E-11  0.3328E-06  0.1421E-09  0.2520E-03  0.0000E+00  0.2881E+15
   -2.131359    4.15213  0.2159E-11  0.3438E-06  0.1506E-09  0.2636E-03  0.0000E+00  0.3822E+14
   -2.200112    4.18072  0.2159E-11  0.3483E-06  0.1575E-09  0.2657E-03  0.0000E+00 -0.5968E+13
   -2.268864    4.18277  0.2159E-11  0.3510E-06  0.1653E-09  0.2580E-03  0.0000E+00 -0.6317E+13
   -2.337616    4.18490  0.2159E-11  0.3523E-06  0.1753E-09  0.2465E-03  0.0000E+00 -0.6775E+13
   -2.406368    4.18714  0.2159E-11  0.3522E-06  0.1887E-09  0.2308E-03  0.0000E+00 -0.7428E+13
   -2.475119    4.18957  0.2159E-11  0.3500E-06  0.2085E-09  0.2085E-03  0.0000E+00 -0.8454E+13
   -2.543870    4.19229  0.2159E-11  0.3446E-06  0.2416E-09  0.1741E-03  0.0000E+00 -0.1035E+14
   -2.612620    4.19560  0.2159E-11  0.3309E-06  0.3234E-09  0.9988E-04  0.0000E+00 -0.1875E+14
   -2.681369    4.20150  0.2159E-11  0.2246E-06  0.1140E-08  0.7693E-05  0.0000E+00 -0.2927E+15
   -2.750118    4.27656  0.2159E-11  0.0000E+00  0.0000E+00  0.0000E+00  0.0000E+00  0.0000E+00
