 1 - depth, m
 2 - temperature, C
 3 - salinity, kg/kg
 4 - turbulent kinetic energy, m**2/s**2
 5 - dissipation rate, m**2/s**3
 6 - kinematic heat conductance, m**2/s
 7 - modulus of horizontal velocity, m/s
 8 - Richardson number, n/d
   -0.000000   -0.00000  0.2869E-11  0.2298E-05  0.3821E-07  0.1257E-04  0.1289E-01  0.2387E-01
   -0.068745    0.00717  0.2866E-11  0.1999E-05  0.1558E-07  0.2188E-04  0.9264E-02  0.4977E-01
   -0.137490    0.01075  0.2864E-11  0.1708E-05  0.8909E-08  0.2659E-04  0.7520E-02  0.7677E-01
   -0.206236    0.01331  0.2863E-11  0.1447E-05  0.5764E-08  0.2815E-04  0.6343E-02  0.1051E+00
   -0.274983    0.01539  0.2862E-11  0.1215E-05  0.3956E-08  0.2764E-04  0.5441E-02  0.1356E+00
   -0.343730    0.01721  0.2861E-11  0.1009E-05  0.2799E-08  0.2576E-04  0.4700E-02  0.1694E+00
   -0.412478    0.01890  0.2860E-11  0.8270E-06  0.2009E-08  0.2303E-04  0.4067E-02  0.2081E+00
   -0.481226    0.02052  0.2859E-11  0.6660E-06  0.1447E-08  0.1984E-04  0.3508E-02  0.2538E+00
   -0.549974    0.02214  0.2858E-11  0.5250E-06  0.1036E-08  0.1649E-04  0.3005E-02  0.3108E+00
   -0.618723    0.02387  0.2857E-11  0.4033E-06  0.7315E-09  0.1324E-04  0.2541E-02  0.3909E+00
   -0.687473    0.02587  0.2855E-11  0.3013E-06  0.5058E-09  0.1035E-04  0.2103E-02  0.5701E+00
   -0.756222    0.02864  0.2853E-11  0.2215E-06  0.3452E-09  0.7971E-05  0.1685E-02  0.1236E+01
   -0.824972    0.03230  0.2850E-11  0.1622E-06  0.2357E-09  0.6054E-05  0.1314E-02  0.3394E+01
   -0.893723    0.03594  0.2847E-11  0.1178E-06  0.1608E-09  0.4495E-05  0.1016E-02  0.9668E+01
   -0.962473    0.03896  0.2844E-11  0.8399E-07  0.1082E-09  0.3227E-05  0.7847E-03  0.2888E+02
   -1.031224    0.04144  0.2841E-11  0.5808E-07  0.7098E-10  0.2216E-05  0.6040E-03  0.9508E+02
   -1.099975    0.04359  0.2839E-11  0.3851E-07  0.4490E-10  0.1435E-05  0.4609E-03  0.3608E+03
   -1.168726    0.04556  0.2836E-11  0.2409E-07  0.2695E-10  0.8600E-06  0.3463E-03  0.1717E+04
   -1.237477    0.04750  0.2834E-11  0.1386E-07  0.1497E-10  0.4629E-06  0.2542E-03  0.1143E+05
   -1.306228    0.04968  0.2832E-11  0.7052E-08  0.7412E-11  0.2165E-06  0.1805E-03  0.1030E+06
   -1.374980    0.05269  0.2830E-11  0.2894E-08  0.3011E-11  0.7000E-07  0.1228E-03  0.1199E+07
   -1.443731    0.05924  0.2828E-11  0.8148E-09  0.8331E-12  0.1129E-07  0.7767E-04  0.1222E+08
   -1.512482    0.07365  0.2826E-11  0.2706E-09  0.1682E-12  0.9796E-09  0.4452E-04  0.1106E+09
   -1.581233    0.10397  0.2822E-11  0.4688E-09  0.1010E-12  0.2519E-09  0.2383E-04  0.8739E+09
   -1.649984    0.16367  0.2818E-11  0.1255E-08  0.1902E-12  0.2260E-09  0.1179E-04  0.5053E+10
   -1.718735    0.27142  0.2814E-11  0.3116E-08  0.4253E-12  0.2794E-09  0.4097E-05  0.3482E+11
   -1.787486    0.44143  0.2812E-11  0.7413E-08  0.9571E-12  0.9724E-09  0.2721E-06  0.5310E+13
   -1.856237    0.55100  0.2811E-11  0.1698E-07  0.2095E-11  0.5385E-08  0.1671E-07  0.6547E+15
   -1.924987    0.60845  0.2810E-11  0.1924E-07  0.2352E-11  0.3675E-04  0.5416E-09  0.5993E+15
   -1.993737    0.62092  0.2810E-11  0.1955E-07  0.2393E-11  0.9638E-04  0.3850E-09  0.2878E+15
   -2.062487    0.62638  0.2810E-11  0.1920E-07  0.2352E-11  0.5832E-08  0.3602E-09  0.3803E+16
   -2.131236    0.70911  0.2810E-11  0.8918E-08  0.1158E-11  0.6611E-09  0.2847E-10  0.9662E+16
   -2.199985    0.92738  0.2808E-11  0.3893E-08  0.5833E-12  0.2046E-09  0.1972E-11  0.1861E+17
   -2.268734    1.32762  0.2806E-11  0.1729E-08  0.4638E-12  0.1185E-09  0.9328E-13  0.2309E+17
   -2.337482    1.93427  0.2803E-11  0.2210E-08  0.1300E-11  0.3269E-09  0.3616E-14  0.2216E+17
   -2.406230    2.78451  0.2799E-11  0.1177E-07  0.7301E-11  0.4991E-08  0.1197E-15  0.1153E+17
   -2.474977    3.87586  0.2790E-11  0.3152E-07  0.2254E-10  0.1471E-04  0.3299E-17  0.4965E+15
   -2.543723    4.13740  0.2789E-11  0.4805E-07  0.4044E-10  0.2389E-04  0.6841E-19 -0.1831E+14
   -2.612469    4.14599  0.2789E-11  0.5146E-07  0.5499E-10  0.1732E-04  0.1245E-19 -0.2818E+14
   -2.681215    4.15856  0.2789E-11  0.4356E-07  0.1286E-09  0.3915E-05  0.1440E-20 -0.1817E+15
   -2.749959    4.22067  0.2789E-11  0.0000E+00  0.0000E+00  0.0000E+00  0.1471E-20  0.0000E+00
