 1 - depth, m
 2 - temperature, C
 3 - salinity, kg/kg
 4 - turbulent kinetic energy, m**2/s**2
 5 - dissipation rate, m**2/s**3
 6 - kinematic heat conductance, m**2/s
 7 - modulus of horizontal velocity, m/s
 8 - Richardson number, n/d
   -0.000000   -0.00000  0.5790E-11  0.1219E-13  0.7603E-17  0.1000E-09  0.0000E+00  0.4915E+16
   -0.068746    0.07448  0.3060E-11  0.1219E-13  0.7603E-17  0.1000E-09  0.0000E+00  0.4720E+16
   -0.137492    0.14745  0.2395E-11  0.1219E-13  0.7603E-17  0.1000E-09  0.0000E+00  0.4566E+16
   -0.206239    0.21948  0.2246E-11  0.1219E-13  0.7603E-17  0.1000E-09  0.0000E+00  0.4452E+16
   -0.274986    0.29114  0.2215E-11  0.1219E-13  0.7603E-17  0.1000E-09  0.0000E+00  0.4375E+16
   -0.343735    0.36305  0.2210E-11  0.1219E-13  0.7603E-17  0.1000E-09  0.0000E+00  0.4334E+16
   -0.412483    0.43581  0.2209E-11  0.1219E-13  0.7603E-17  0.1000E-09  0.0000E+00  0.4326E+16
   -0.481232    0.51004  0.2209E-11  0.1219E-13  0.7603E-17  0.1000E-09  0.0000E+00  0.4347E+16
   -0.549982    0.58636  0.2209E-11  0.1219E-13  0.7603E-17  0.1000E-09  0.0000E+00  0.4395E+16
   -0.618732    0.66540  0.2209E-11  0.1219E-13  0.7603E-17  0.1000E-09  0.0000E+00  0.4464E+16
   -0.687482    0.74777  0.2209E-11  0.1219E-13  0.7603E-17  0.1000E-09  0.0000E+00  0.4566E+16
   -0.756233    0.83439  0.2209E-11  0.1219E-13  0.7603E-17  0.1000E-09  0.0000E+00  0.4688E+16
   -0.824984    0.92600  0.2209E-11  0.1219E-13  0.7603E-17  0.1000E-09  0.0000E+00  0.4815E+16
   -0.893735    1.02319  0.2209E-11  0.1219E-13  0.7603E-17  0.1000E-09  0.0000E+00  0.4939E+16
   -0.962486    1.12649  0.2209E-11  0.1219E-13  0.7603E-17  0.1000E-09  0.0000E+00  0.5053E+16
   -1.031238    1.23640  0.2209E-11  0.1219E-13  0.7603E-17  0.1000E-09  0.0000E+00  0.5150E+16
   -1.099990    1.35335  0.2208E-11  0.1219E-13  0.7603E-17  0.1000E-09  0.0000E+00  0.5222E+16
   -1.168742    1.47775  0.2206E-11  0.4775E-13  0.1001E-16  0.1000E-09  0.0000E+00  0.5259E+16
   -1.237494    1.60991  0.2201E-11  0.1466E-12  0.2484E-16  0.1000E-09  0.0000E+00  0.5255E+16
   -1.306246    1.75006  0.2191E-11  0.4023E-12  0.6451E-16  0.1000E-09  0.0000E+00  0.5200E+16
   -1.374998    1.89835  0.2179E-11  0.1066E-11  0.1652E-15  0.1000E-09  0.0000E+00  0.5102E+16
   -1.443750    2.05527  0.2167E-11  0.2772E-11  0.4169E-15  0.1000E-09  0.0000E+00  0.4939E+16
   -1.512503    2.22089  0.2159E-11  0.7114E-11  0.1039E-14  0.1000E-09  0.0000E+00  0.4703E+16
   -1.581255    2.39502  0.2155E-11  0.1802E-10  0.2556E-14  0.1000E-09  0.0000E+00  0.4388E+16
   -1.650007    2.57732  0.2153E-11  0.4510E-10  0.6215E-14  0.1000E-09  0.0000E+00  0.3994E+16
   -1.718759    2.76734  0.2151E-11  0.1115E-09  0.1494E-13  0.1000E-09  0.0000E+00  0.3524E+16
   -1.787510    2.96454  0.2151E-11  0.2795E-09  0.3638E-13  0.1000E-09  0.0000E+00  0.3001E+16
   -1.856262    3.16997  0.2150E-11  0.7041E-09  0.8915E-13  0.1889E-09  0.0000E+00  0.2402E+16
   -1.925013    3.38369  0.2149E-11  0.1766E-08  0.2175E-12  0.6430E-09  0.0000E+00  0.1722E+16
   -1.993764    3.60548  0.2146E-11  0.4402E-08  0.5279E-12  0.2817E-08  0.0000E+00  0.9540E+15
   -2.062515    3.83207  0.2141E-11  0.1046E-07  0.1225E-11  0.3505E-07  0.0000E+00  0.1780E+15
   -2.131265    4.01976  0.2140E-11  0.1191E-07  0.1403E-11  0.4205E-04  0.0000E+00 -0.4141E+12
   -2.200015    4.02054  0.2140E-11  0.1249E-07  0.1495E-11  0.4224E-04  0.0000E+00 -0.4234E+12
   -2.268764    4.02132  0.2140E-11  0.1292E-07  0.1595E-11  0.4127E-04  0.0000E+00 -0.4451E+12
   -2.337513    4.02212  0.2140E-11  0.1323E-07  0.1716E-11  0.3901E-04  0.0000E+00 -0.4844E+12
   -2.406262    4.02298  0.2140E-11  0.1340E-07  0.1874E-11  0.3526E-04  0.0000E+00 -0.5528E+12
   -2.475010    4.02393  0.2140E-11  0.1342E-07  0.2110E-11  0.2973E-04  0.0000E+00 -0.6801E+12
   -2.543758    4.02506  0.2140E-11  0.1320E-07  0.2523E-11  0.2211E-04  0.0000E+00 -0.9589E+12
   -2.612505    4.02661  0.2140E-11  0.1249E-07  0.3509E-11  0.1223E-04  0.0000E+00 -0.1874E+13
   -2.681251    4.02948  0.2140E-11  0.9192E-08  0.9624E-11  0.1705E-05  0.0000E+00 -0.1776E+14
   -2.749997    4.05060  0.2140E-11  0.0000E+00  0.0000E+00  0.0000E+00  0.0000E+00  0.0000E+00
