 1 - depth, m
 2 - temperature, C
 3 - salinity, kg/kg
 4 - turbulent kinetic energy, m**2/s**2
 5 - dissipation rate, m**2/s**3
 6 - kinematic heat conductance, m**2/s
 7 - modulus of horizontal velocity, m/s
 8 - Richardson number, n/d
   -0.000000   -0.00000  0.1170E-12  0.1219E-13  0.7603E-17  0.1000E-09  0.0000E+00  0.7145E+16
   -0.068746    0.10877  0.5776E-12  0.1219E-13  0.7603E-17  0.1000E-09  0.0000E+00  0.7062E+16
   -0.137493    0.21957  0.9017E-12  0.1219E-13  0.7603E-17  0.1000E-09  0.0000E+00  0.6956E+16
   -0.206240    0.33221  0.1025E-11  0.1219E-13  0.7603E-17  0.1000E-09  0.0000E+00  0.6828E+16
   -0.274988    0.44649  0.1018E-11  0.1219E-13  0.7603E-17  0.1000E-09  0.0000E+00  0.6681E+16
   -0.343736    0.56222  0.9569E-12  0.1219E-13  0.7603E-17  0.1000E-09  0.0000E+00  0.6516E+16
   -0.412485    0.67921  0.8875E-12  0.1219E-13  0.7603E-17  0.1000E-09  0.0000E+00  0.6335E+16
   -0.481234    0.79732  0.8322E-12  0.1219E-13  0.7603E-17  0.1000E-09  0.0000E+00  0.6140E+16
   -0.549984    0.91637  0.7956E-12  0.1219E-13  0.7603E-17  0.1000E-09  0.0000E+00  0.5934E+16
   -0.618734    1.03622  0.7746E-12  0.1219E-13  0.7603E-17  0.1000E-09  0.0000E+00  0.5717E+16
   -0.687485    1.15672  0.7637E-12  0.1219E-13  0.7603E-17  0.1000E-09  0.0000E+00  0.5491E+16
   -0.756236    1.27776  0.7585E-12  0.1219E-13  0.7603E-17  0.1000E-09  0.0000E+00  0.5257E+16
   -0.824987    1.39920  0.7561E-12  0.1219E-13  0.7603E-17  0.1000E-09  0.0000E+00  0.5018E+16
   -0.893739    1.52093  0.7550E-12  0.1219E-13  0.7603E-17  0.1000E-09  0.0000E+00  0.4773E+16
   -0.962491    1.64283  0.7542E-12  0.1219E-13  0.7603E-17  0.1000E-09  0.0000E+00  0.4525E+16
   -1.031243    1.76481  0.7534E-12  0.1219E-13  0.7603E-17  0.1000E-09  0.0000E+00  0.4274E+16
   -1.099995    1.88678  0.7524E-12  0.1219E-13  0.7603E-17  0.1000E-09  0.0000E+00  0.4021E+16
   -1.168747    2.00866  0.7511E-12  0.1219E-13  0.7603E-17  0.1000E-09  0.0000E+00  0.3769E+16
   -1.237499    2.13037  0.7495E-12  0.1219E-13  0.7603E-17  0.1000E-09  0.0000E+00  0.3516E+16
   -1.306252    2.25186  0.7475E-12  0.1219E-13  0.7603E-17  0.1000E-09  0.0000E+00  0.3265E+16
   -1.375004    2.37308  0.7454E-12  0.1219E-13  0.7603E-17  0.1000E-09  0.0000E+00  0.3016E+16
   -1.443757    2.49402  0.7432E-12  0.1219E-13  0.7603E-17  0.1000E-09  0.0000E+00  0.2769E+16
   -1.512509    2.61466  0.7411E-12  0.1219E-13  0.7603E-17  0.1000E-09  0.0000E+00  0.2524E+16
   -1.581262    2.73500  0.7392E-12  0.1694E-13  0.7603E-17  0.1000E-09  0.0000E+00  0.2283E+16
   -1.650014    2.85503  0.7375E-12  0.6716E-13  0.1268E-16  0.1000E-09  0.0000E+00  0.2044E+16
   -1.718766    2.97478  0.7362E-12  0.1967E-12  0.3199E-16  0.1000E-09  0.0000E+00  0.1808E+16
   -1.787518    3.09418  0.7351E-12  0.5410E-12  0.8416E-16  0.1000E-09  0.0000E+00  0.1550E+16
   -1.856270    3.21134  0.7342E-12  0.1469E-11  0.2221E-15  0.1000E-09  0.0000E+00  0.1301E+16
   -1.925021    3.32575  0.7335E-12  0.3961E-11  0.5832E-15  0.1000E-09  0.0000E+00  0.1062E+16
   -1.993773    3.43671  0.7330E-12  0.1063E-10  0.1526E-14  0.1000E-09  0.0000E+00  0.8400E+15
   -2.062524    3.54399  0.7326E-12  0.2773E-10  0.3885E-14  0.1000E-09  0.0000E+00  0.6525E+15
   -2.131274    3.65037  0.7324E-12  0.7156E-10  0.9788E-14  0.1105E-09  0.0000E+00  0.4700E+15
   -2.200025    3.75586  0.7323E-12  0.1835E-09  0.2450E-13  0.4267E-09  0.0000E+00  0.2911E+15
   -2.268774    3.85964  0.7322E-12  0.4711E-09  0.6147E-13  0.2574E-08  0.0000E+00  0.1199E+15
   -2.337524    3.95901  0.7322E-12  0.1152E-08  0.1480E-12  0.1779E-06  0.0000E+00  0.3993E+13
   -2.406273    4.00233  0.7322E-12  0.1926E-08  0.2548E-12  0.6629E-05  0.0000E+00 -0.5337E+12
   -2.475021    4.00436  0.7322E-12  0.2249E-08  0.3228E-12  0.6563E-05  0.0000E+00 -0.6120E+12
   -2.543769    4.00643  0.7322E-12  0.2416E-08  0.4101E-12  0.5455E-05  0.0000E+00 -0.8278E+12
   -2.612516    4.00893  0.7322E-12  0.2370E-08  0.5791E-12  0.3197E-05  0.0000E+00 -0.1598E+13
   -2.681263    4.01310  0.7322E-12  0.1742E-08  0.1324E-11  0.5134E-06  0.0000E+00 -0.1132E+14
   -2.750009    4.03285  0.7322E-12  0.0000E+00  0.0000E+00  0.0000E+00  0.0000E+00  0.0000E+00
