 1 - depth, m
 2 - temperature, C
 3 - salinity, kg/kg
 4 - turbulent kinetic energy, m**2/s**2
 5 - dissipation rate, m**2/s**3
 6 - kinematic heat conductance, m**2/s
 7 - modulus of horizontal velocity, m/s
 8 - Richardson number, n/d
   -0.000000   -0.00000  0.2672E-11  0.1219E-13  0.7603E-17  0.1000E-09  0.0000E+00  0.5769E+16
   -0.068746    0.08757  0.1474E-11  0.1219E-13  0.7603E-17  0.1000E-09  0.0000E+00  0.5554E+16
   -0.137492    0.17391  0.1103E-11  0.1219E-13  0.7603E-17  0.1000E-09  0.0000E+00  0.5379E+16
   -0.206239    0.25956  0.1010E-11  0.1219E-13  0.7603E-17  0.1000E-09  0.0000E+00  0.5238E+16
   -0.274986    0.34503  0.9900E-12  0.1219E-13  0.7603E-17  0.1000E-09  0.0000E+00  0.5130E+16
   -0.343735    0.43085  0.9861E-12  0.1219E-13  0.7603E-17  0.1000E-09  0.0000E+00  0.5051E+16
   -0.412483    0.51755  0.9855E-12  0.1219E-13  0.7603E-17  0.1000E-09  0.0000E+00  0.4996E+16
   -0.481232    0.60563  0.9854E-12  0.1219E-13  0.7603E-17  0.1000E-09  0.0000E+00  0.4964E+16
   -0.549982    0.69561  0.9853E-12  0.1219E-13  0.7603E-17  0.1000E-09  0.0000E+00  0.4949E+16
   -0.618732    0.78797  0.9853E-12  0.1219E-13  0.7603E-17  0.1000E-09  0.0000E+00  0.4947E+16
   -0.687482    0.88320  0.9853E-12  0.1219E-13  0.7603E-17  0.1000E-09  0.0000E+00  0.4968E+16
   -0.756233    0.98203  0.9853E-12  0.1219E-13  0.7603E-17  0.1000E-09  0.0000E+00  0.4999E+16
   -0.824984    1.08506  0.9853E-12  0.1219E-13  0.7603E-17  0.1000E-09  0.0000E+00  0.5027E+16
   -0.893735    1.19269  0.9853E-12  0.1219E-13  0.7603E-17  0.1000E-09  0.0000E+00  0.5046E+16
   -0.962486    1.30528  0.9852E-12  0.1219E-13  0.7603E-17  0.1000E-09  0.0000E+00  0.5051E+16
   -1.031238    1.42314  0.9849E-12  0.1818E-13  0.7615E-17  0.1000E-09  0.0000E+00  0.5035E+16
   -1.099990    1.54655  0.9841E-12  0.4742E-13  0.1007E-16  0.1000E-09  0.0000E+00  0.4993E+16
   -1.168742    1.67572  0.9821E-12  0.1452E-12  0.2096E-16  0.1000E-09  0.0000E+00  0.4921E+16
   -1.237494    1.81081  0.9785E-12  0.3869E-12  0.5150E-16  0.1000E-09  0.0000E+00  0.4812E+16
   -1.306246    1.95190  0.9733E-12  0.9790E-12  0.1256E-15  0.1000E-09  0.0000E+00  0.4664E+16
   -1.374998    2.09902  0.9676E-12  0.2418E-11  0.3012E-15  0.1000E-09  0.0000E+00  0.4481E+16
   -1.443751    2.25251  0.9632E-12  0.5874E-11  0.7111E-15  0.1000E-09  0.0000E+00  0.4253E+16
   -1.512503    2.41238  0.9606E-12  0.1405E-10  0.1655E-14  0.1000E-09  0.0000E+00  0.3972E+16
   -1.581255    2.57846  0.9590E-12  0.3314E-10  0.3796E-14  0.1000E-09  0.0000E+00  0.3639E+16
   -1.650007    2.75051  0.9579E-12  0.7705E-10  0.8593E-14  0.1000E-09  0.0000E+00  0.3253E+16
   -1.718759    2.92828  0.9573E-12  0.1767E-09  0.1919E-13  0.1000E-09  0.0000E+00  0.2819E+16
   -1.787510    3.11169  0.9569E-12  0.4098E-09  0.4333E-13  0.1059E-09  0.0000E+00  0.2378E+16
   -1.856262    3.30436  0.9566E-12  0.9543E-09  0.9828E-13  0.2669E-09  0.0000E+00  0.1875E+16
   -1.925013    3.50899  0.9560E-12  0.2209E-08  0.2217E-12  0.8794E-09  0.0000E+00  0.1280E+16
   -1.993764    3.73093  0.9546E-12  0.5069E-08  0.4961E-12  0.4925E-08  0.0000E+00  0.5063E+15
   -2.062515    3.97196  0.9534E-12  0.7391E-08  0.7417E-12  0.1405E-04  0.0000E+00  0.5940E+13
   -2.131265    4.00130  0.9534E-12  0.8141E-08  0.8296E-12  0.3037E-04  0.0000E+00 -0.2780E+12
   -2.200015    4.00263  0.9534E-12  0.8568E-08  0.8936E-12  0.3121E-04  0.0000E+00 -0.2924E+12
   -2.268765    4.00387  0.9534E-12  0.8902E-08  0.9633E-12  0.3097E-04  0.0000E+00 -0.3150E+12
   -2.337514    4.00510  0.9534E-12  0.9152E-08  0.1047E-11  0.2957E-04  0.0000E+00 -0.3510E+12
   -2.406262    4.00636  0.9534E-12  0.9310E-08  0.1157E-11  0.2687E-04  0.0000E+00 -0.4105E+12
   -2.475010    4.00772  0.9534E-12  0.9353E-08  0.1318E-11  0.2268E-04  0.0000E+00 -0.5194E+12
   -2.543758    4.00932  0.9534E-12  0.9222E-08  0.1600E-11  0.1676E-04  0.0000E+00 -0.7610E+12
   -2.612505    4.01147  0.9534E-12  0.8726E-08  0.2274E-11  0.9138E-05  0.0000E+00 -0.1584E+13
   -2.681251    4.01539  0.9534E-12  0.6491E-08  0.6251E-11  0.1362E-05  0.0000E+00 -0.1580E+14
   -2.749997    4.04011  0.9534E-12  0.0000E+00  0.0000E+00  0.0000E+00  0.0000E+00  0.0000E+00
