 1 - depth, m
 2 - temperature, C
 3 - salinity, kg/kg
 4 - turbulent kinetic energy, m**2/s**2
 5 - dissipation rate, m**2/s**3
 6 - kinematic heat conductance, m**2/s
 7 - modulus of horizontal velocity, m/s
 8 - Richardson number, n/d
   -0.000000    0.41467  0.6487E-12  0.9429E-04  0.4345E-04  0.7518E-04  0.1075E+00  0.9568E-01
   -0.068746    0.38992  0.6497E-12  0.5875E-04  0.1335E-04  0.1373E-03  0.6347E-01  0.1114E-01
   -0.137492    0.39519  0.6503E-12  0.4652E-04  0.5083E-05  0.1590E-03  0.5575E-01  0.1903E-01
   -0.206240    0.39976  0.6509E-12  0.3922E-04  0.1811E-05  0.1797E-03  0.5110E-01  0.2738E-01
   -0.274987    0.40396  0.6516E-12  0.3440E-04  0.8544E-06  0.2005E-03  0.4754E-01  0.3699E-01
   -0.343736    0.40820  0.6523E-12  0.3087E-04  0.5199E-06  0.2186E-03  0.4466E-01  0.4807E-01
   -0.412485    0.41257  0.6531E-12  0.2810E-04  0.3602E-06  0.2329E-03  0.4225E-01  0.6099E-01
   -0.481234    0.41722  0.6541E-12  0.2580E-04  0.2687E-06  0.2427E-03  0.4017E-01  0.7626E-01
   -0.549984    0.42233  0.6554E-12  0.2378E-04  0.2105E-06  0.2482E-03  0.3832E-01  0.9413E-01
   -0.618734    0.42818  0.6570E-12  0.2195E-04  0.1706E-06  0.2495E-03  0.3664E-01  0.1148E+00
   -0.687484    0.43520  0.6592E-12  0.2025E-04  0.1418E-06  0.2470E-03  0.3507E-01  0.1380E+00
   -0.756235    0.44422  0.6627E-12  0.1864E-04  0.1201E-06  0.2411E-03  0.3358E-01  0.1625E+00
   -0.824987    0.45714  0.6687E-12  0.1710E-04  0.1032E-06  0.2325E-03  0.3208E-01  0.1861E+00
   -0.893738    0.48044  0.6829E-12  0.1562E-04  0.8936E-07  0.2218E-03  0.3050E-01  0.2114E+00
   -0.962490    0.52326  0.7079E-12  0.1422E-04  0.7801E-07  0.2097E-03  0.2874E-01  0.2597E+00
   -1.031242    0.57764  0.7298E-12  0.1292E-04  0.6872E-07  0.1970E-03  0.2692E-01  0.6474E+00
   -1.099994    0.64115  0.7480E-12  0.1171E-04  0.6110E-07  0.1842E-03  0.2510E-01  0.5821E+01
   -1.168746    0.71332  0.7638E-12  0.1060E-04  0.5488E-07  0.1719E-03  0.2331E-01  0.7737E+02
   -1.237498    0.79432  0.7785E-12  0.9588E-05  0.4985E-07  0.1609E-03  0.2154E-01  0.1070E+04
   -1.306251    0.88481  0.7928E-12  0.8683E-05  0.4587E-07  0.1517E-03  0.1978E-01  0.1482E+05
   -1.375003    0.98741  0.8077E-12  0.7890E-05  0.4286E-07  0.1444E-03  0.1800E-01  0.2101E+06
   -1.443756    1.10876  0.8241E-12  0.7219E-05  0.4084E-07  0.1394E-03  0.1618E-01  0.3025E+07
   -1.512508    1.24872  0.8407E-12  0.6688E-05  0.3963E-07  0.1361E-03  0.1431E-01  0.4490E+08
   -1.581260    1.44276  0.8644E-12  0.6350E-05  0.3954E-07  0.1374E-03  0.1235E-01  0.7266E+09
   -1.650013    1.64079  0.8799E-12  0.6286E-05  0.4064E-07  0.2812E-04  0.1057E-01  0.1335E+11
   -1.718765    1.93337  0.8950E-12  0.5621E-05  0.3750E-07  0.1031E-03  0.3342E-02  0.3049E+12
   -1.787517    2.34677  0.9034E-12  0.4492E-05  0.2487E-07  0.9468E-04  0.1569E-02  0.5027E+14
   -1.856268    2.88484  0.9079E-12  0.3674E-05  0.1727E-07  0.1272E-03  0.9855E-03  0.3045E+15
   -1.925020    3.18676  0.9109E-12  0.2997E-05  0.1206E-07  0.1503E-03  0.6697E-03  0.4176E+15
   -1.993771    3.36854  0.9133E-12  0.2391E-05  0.8225E-08  0.1585E-03  0.4602E-03  0.4071E+15
   -2.062522    3.51513  0.9165E-12  0.1873E-05  0.5454E-08  0.1611E-03  0.2966E-03  0.2850E+15
   -2.131273    3.65172  0.9195E-12  0.1371E-05  0.3375E-08  0.1687E-03  0.1823E-03  0.1497E+14
   -2.200023    3.79643  0.9274E-12  0.8832E-06  0.1879E-08  0.1687E-03  0.8296E-04 -0.2256E+13
   -2.268772    3.91436  0.9336E-12  0.5013E-06  0.8076E-09  0.1681E-03  0.2609E-04 -0.2381E+13
   -2.337522    4.08442  0.9420E-12  0.3948E-06  0.4919E-09  0.1674E-03  0.5541E-05 -0.2530E+13
   -2.406271    4.12829  0.9437E-12  0.3634E-06  0.3875E-09  0.1621E-03  0.2469E-05 -0.2791E+13
   -2.475019    4.15499  0.9445E-12  0.3505E-06  0.3518E-09  0.1517E-03  0.1216E-05 -0.3264E+13
   -2.543767    4.16868  0.9447E-12  0.3397E-06  0.3562E-09  0.1310E-03  0.6023E-06 -0.4195E+13
   -2.612514    4.18004  0.9449E-12  0.3217E-06  0.4253E-09  0.7987E-04  0.2741E-06 -0.9133E+13
   -2.681260    4.19398  0.9450E-12  0.2188E-06  0.1188E-08  0.7716E-05  0.9680E-07 -0.1656E+15
   -2.750006    4.28995  0.9451E-12  0.0000E+00  0.0000E+00  0.0000E+00  0.1012E-06  0.0000E+00
