 1 - depth, m
 2 - temperature, C
 3 - salinity, kg/kg
 4 - turbulent kinetic energy, m**2/s**2
 5 - dissipation rate, m**2/s**3
 6 - kinematic heat conductance, m**2/s
 7 - modulus of horizontal velocity, m/s
 8 - Richardson number, n/d
   -0.000000   -0.00000  0.2578E-17  0.1219E-13  0.7603E-17  0.1000E-09  0.0000E+00  0.4449E+16
   -0.068746    0.06735  0.0000E+00  0.1219E-13  0.7603E-17  0.1000E-09  0.0000E+00  0.4557E+16
   -0.137493    0.13763  0.2189E-12  0.1219E-13  0.7603E-17  0.1000E-09  0.0000E+00  0.4717E+16
   -0.206240    0.21186  0.1060E-11  0.1219E-13  0.7603E-17  0.1000E-09  0.0000E+00  0.4900E+16
   -0.274988    0.29064  0.2149E-11  0.1219E-13  0.7603E-17  0.1000E-09  0.0000E+00  0.5076E+16
   -0.343737    0.37418  0.3044E-11  0.1219E-13  0.7603E-17  0.1000E-09  0.0000E+00  0.5222E+16
   -0.412486    0.46233  0.3544E-11  0.1219E-13  0.7603E-17  0.1000E-09  0.0000E+00  0.5326E+16
   -0.481235    0.55471  0.3682E-11  0.1219E-13  0.7603E-17  0.1000E-09  0.0000E+00  0.5385E+16
   -0.549985    0.65087  0.3595E-11  0.1219E-13  0.7603E-17  0.1000E-09  0.0000E+00  0.5401E+16
   -0.618736    0.75033  0.3419E-11  0.1219E-13  0.7603E-17  0.1000E-09  0.0000E+00  0.5377E+16
   -0.687487    0.85267  0.3241E-11  0.1219E-13  0.7603E-17  0.1000E-09  0.0000E+00  0.5314E+16
   -0.756238    0.95740  0.3103E-11  0.1219E-13  0.7603E-17  0.1000E-09  0.0000E+00  0.5221E+16
   -0.824989    1.06413  0.3009E-11  0.1219E-13  0.7603E-17  0.1000E-09  0.0000E+00  0.5104E+16
   -0.893741    1.17257  0.2953E-11  0.1219E-13  0.7603E-17  0.1000E-09  0.0000E+00  0.4968E+16
   -0.962493    1.28251  0.2922E-11  0.1219E-13  0.7603E-17  0.1000E-09  0.0000E+00  0.4816E+16
   -1.031245    1.39375  0.2906E-11  0.1219E-13  0.7603E-17  0.1000E-09  0.0000E+00  0.4652E+16
   -1.099997    1.50614  0.2897E-11  0.1219E-13  0.7603E-17  0.1000E-09  0.0000E+00  0.4479E+16
   -1.168750    1.61960  0.2892E-11  0.1219E-13  0.7603E-17  0.1000E-09  0.0000E+00  0.4298E+16
   -1.237502    1.73407  0.2887E-11  0.1219E-13  0.7603E-17  0.1000E-09  0.0000E+00  0.4113E+16
   -1.306255    1.84957  0.2883E-11  0.1219E-13  0.7603E-17  0.1000E-09  0.0000E+00  0.3925E+16
   -1.375007    1.96616  0.2877E-11  0.1219E-13  0.7603E-17  0.1000E-09  0.0000E+00  0.3738E+16
   -1.443760    2.08408  0.2870E-11  0.1219E-13  0.7603E-17  0.1000E-09  0.0000E+00  0.3552E+16
   -1.512513    2.20355  0.2862E-11  0.1219E-13  0.7603E-17  0.1000E-09  0.0000E+00  0.3364E+16
   -1.581265    2.32487  0.2854E-11  0.1219E-13  0.7603E-17  0.1000E-09  0.0000E+00  0.3173E+16
   -1.650018    2.44831  0.2846E-11  0.1219E-13  0.7603E-17  0.1000E-09  0.0000E+00  0.2975E+16
   -1.718770    2.57407  0.2838E-11  0.1219E-13  0.7603E-17  0.1000E-09  0.0000E+00  0.2760E+16
   -1.787522    2.70199  0.2831E-11  0.1219E-13  0.7603E-17  0.1000E-09  0.0000E+00  0.2442E+16
   -1.856274    2.82714  0.2824E-11  0.1219E-13  0.7603E-17  0.1000E-09  0.0000E+00  0.2124E+16
   -1.925026    2.94845  0.2820E-11  0.1219E-13  0.7603E-17  0.1000E-09  0.0000E+00  0.1812E+16
   -1.993777    3.06470  0.2816E-11  0.4621E-13  0.1546E-16  0.1000E-09  0.0000E+00  0.1533E+16
   -2.062528    3.17618  0.2812E-11  0.1836E-12  0.5547E-16  0.1000E-09  0.0000E+00  0.1343E+16
   -2.131279    3.28851  0.2810E-11  0.6935E-12  0.2007E-15  0.1000E-09  0.0000E+00  0.1158E+16
   -2.200030    3.40277  0.2808E-11  0.2560E-11  0.7135E-15  0.1000E-09  0.0000E+00  0.9681E+15
   -2.268780    3.51946  0.2806E-11  0.9369E-11  0.2517E-14  0.1000E-09  0.0000E+00  0.7641E+15
   -2.337529    3.63844  0.2805E-11  0.3439E-10  0.8911E-14  0.1000E-09  0.0000E+00  0.5474E+15
   -2.406278    3.75948  0.2804E-11  0.1257E-09  0.3144E-13  0.4986E-09  0.0000E+00  0.3181E+15
   -2.475027    3.88172  0.2804E-11  0.4586E-09  0.1110E-12  0.6507E-08  0.0000E+00  0.8444E+14
   -2.543775    3.99930  0.2803E-11  0.1350E-08  0.3246E-12  0.2365E-05  0.0000E+00 -0.1733E+13
   -2.612522    4.00609  0.2803E-11  0.1631E-08  0.5091E-12  0.1965E-05  0.0000E+00 -0.2783E+13
   -2.681269    4.01364  0.2803E-11  0.1320E-08  0.1031E-11  0.4219E-06  0.0000E+00 -0.1337E+14
   -2.750015    4.03586  0.2803E-11  0.0000E+00  0.0000E+00  0.0000E+00  0.0000E+00  0.0000E+00
