 1 - depth, m
 2 - temperature, C
 3 - salinity, kg/kg
 4 - turbulent kinetic energy, m**2/s**2
 5 - dissipation rate, m**2/s**3
 6 - kinematic heat conductance, m**2/s
 7 - modulus of horizontal velocity, m/s
 8 - Richardson number, n/d
   -0.000000   -0.00000  0.9970E-10  0.1219E-13  0.7603E-17  0.1000E-09  0.0000E+00  0.3624E+16
   -0.068746    0.05476  0.5538E-10  0.1219E-13  0.7603E-17  0.1000E-09  0.0000E+00  0.3438E+16
   -0.137492    0.10748  0.4592E-10  0.1219E-13  0.7603E-17  0.1000E-09  0.0000E+00  0.3283E+16
   -0.206239    0.15854  0.4401E-10  0.1219E-13  0.7603E-17  0.1000E-09  0.0000E+00  0.3160E+16
   -0.274986    0.20839  0.4367E-10  0.1219E-13  0.7603E-17  0.1000E-09  0.0000E+00  0.3070E+16
   -0.343735    0.25750  0.4362E-10  0.1219E-13  0.7603E-17  0.1000E-09  0.0000E+00  0.3015E+16
   -0.412483    0.30641  0.4361E-10  0.1219E-13  0.7603E-17  0.1000E-09  0.0000E+00  0.2995E+16
   -0.481232    0.35569  0.4361E-10  0.1219E-13  0.7603E-17  0.1000E-09  0.0000E+00  0.3012E+16
   -0.549982    0.40598  0.4361E-10  0.1219E-13  0.7603E-17  0.1000E-09  0.0000E+00  0.3066E+16
   -0.618732    0.45794  0.4361E-10  0.1219E-13  0.7603E-17  0.1000E-09  0.0000E+00  0.3156E+16
   -0.687482    0.51230  0.4361E-10  0.1219E-13  0.7603E-17  0.1000E-09  0.0000E+00  0.3299E+16
   -0.756233    0.57009  0.4361E-10  0.1219E-13  0.7603E-17  0.1000E-09  0.0000E+00  0.3484E+16
   -0.824984    0.63227  0.4361E-10  0.1219E-13  0.7603E-17  0.1000E-09  0.0000E+00  0.3698E+16
   -0.893735    0.69963  0.4361E-10  0.1219E-13  0.7603E-17  0.1000E-09  0.0000E+00  0.3934E+16
   -0.962486    0.77293  0.4361E-10  0.1219E-13  0.7603E-17  0.1000E-09  0.0000E+00  0.4187E+16
   -1.031238    0.85292  0.4361E-10  0.1219E-13  0.7603E-17  0.1000E-09  0.0000E+00  0.4448E+16
   -1.099990    0.94033  0.4361E-10  0.1219E-13  0.7603E-17  0.1000E-09  0.0000E+00  0.4707E+16
   -1.168742    1.03579  0.4361E-10  0.1219E-13  0.7603E-17  0.1000E-09  0.0000E+00  0.4953E+16
   -1.237494    1.13987  0.4359E-10  0.1219E-13  0.7603E-17  0.1000E-09  0.0000E+00  0.5174E+16
   -1.306246    1.25304  0.4353E-10  0.1219E-13  0.7603E-17  0.1000E-09  0.0000E+00  0.5358E+16
   -1.374998    1.37566  0.4340E-10  0.1219E-13  0.7603E-17  0.1000E-09  0.0000E+00  0.5516E+16
   -1.443750    1.50850  0.4318E-10  0.1219E-13  0.7603E-17  0.1000E-09  0.0000E+00  0.5616E+16
   -1.512503    1.65183  0.4294E-10  0.1219E-13  0.7603E-17  0.1000E-09  0.0000E+00  0.5637E+16
   -1.581255    1.80552  0.4280E-10  0.1219E-13  0.7603E-17  0.1000E-09  0.0000E+00  0.5569E+16
   -1.650007    1.96928  0.4274E-10  0.2142E-13  0.7603E-17  0.1000E-09  0.0000E+00  0.5407E+16
   -1.718759    2.14262  0.4271E-10  0.7885E-13  0.2139E-16  0.1000E-09  0.0000E+00  0.5143E+16
   -1.787510    2.32477  0.4269E-10  0.2799E-12  0.7151E-16  0.1000E-09  0.0000E+00  0.4728E+16
   -1.856262    2.51254  0.4268E-10  0.9728E-12  0.2391E-15  0.1000E-09  0.0000E+00  0.4252E+16
   -1.925013    2.70531  0.4267E-10  0.3327E-11  0.7883E-15  0.1000E-09  0.0000E+00  0.3721E+16
   -1.993764    2.90242  0.4266E-10  0.1123E-10  0.2567E-14  0.1000E-09  0.0000E+00  0.3146E+16
   -2.062515    3.10346  0.4263E-10  0.3648E-10  0.8055E-14  0.1000E-09  0.0000E+00  0.2545E+16
   -2.131265    3.30919  0.4256E-10  0.1163E-09  0.2481E-13  0.1000E-09  0.0000E+00  0.1898E+16
   -2.200015    3.51898  0.4242E-10  0.3654E-09  0.7533E-13  0.3165E-09  0.0000E+00  0.1210E+16
   -2.268764    3.73162  0.4225E-10  0.1141E-08  0.2274E-12  0.2329E-08  0.0000E+00  0.4954E+15
   -2.337513    3.94400  0.4218E-10  0.3187E-08  0.6225E-12  0.3081E-06  0.0000E+00  0.8594E+13
   -2.406262    4.01265  0.4218E-10  0.5213E-08  0.1052E-11  0.1096E-04  0.0000E+00 -0.1223E+13
   -2.475010    4.01546  0.4218E-10  0.6038E-08  0.1328E-11  0.1076E-04  0.0000E+00 -0.1408E+13
   -2.543758    4.01840  0.4218E-10  0.6547E-08  0.1719E-11  0.9016E-05  0.0000E+00 -0.1934E+13
   -2.612504    4.02204  0.4218E-10  0.6672E-08  0.2545E-11  0.5618E-05  0.0000E+00 -0.3831E+13
   -2.681251    4.02833  0.4218E-10  0.5833E-08  0.6468E-11  0.1370E-05  0.0000E+00 -0.2792E+14
   -2.749996    4.05934  0.4218E-10  0.0000E+00  0.0000E+00  0.0000E+00  0.0000E+00  0.0000E+00
