 1 - depth, m
 2 - temperature, C
 3 - salinity, kg/kg
 4 - turbulent kinetic energy, m**2/s**2
 5 - dissipation rate, m**2/s**3
 6 - kinematic heat conductance, m**2/s
 7 - modulus of horizontal velocity, m/s
 8 - Richardson number, n/d
   -0.000000   -0.00000  0.7434E-12  0.1219E-13  0.7603E-17  0.1000E-09  0.0000E+00  0.8061E+16
   -0.068746    0.12295  0.1055E-11  0.1219E-13  0.7603E-17  0.1000E-09  0.0000E+00  0.7890E+16
   -0.137492    0.24747  0.1105E-11  0.1219E-13  0.7603E-17  0.1000E-09  0.0000E+00  0.7688E+16
   -0.206240    0.37321  0.1055E-11  0.1219E-13  0.7603E-17  0.1000E-09  0.0000E+00  0.7459E+16
   -0.274987    0.49981  0.9652E-12  0.1219E-13  0.7603E-17  0.1000E-09  0.0000E+00  0.7210E+16
   -0.343736    0.62698  0.8811E-12  0.1219E-13  0.7603E-17  0.1000E-09  0.0000E+00  0.6945E+16
   -0.412485    0.75447  0.8218E-12  0.1219E-13  0.7603E-17  0.1000E-09  0.0000E+00  0.6668E+16
   -0.481234    0.88211  0.7868E-12  0.1219E-13  0.7603E-17  0.1000E-09  0.0000E+00  0.6385E+16
   -0.549984    1.00972  0.7689E-12  0.1219E-13  0.7603E-17  0.1000E-09  0.0000E+00  0.6098E+16
   -0.618734    1.13720  0.7605E-12  0.1219E-13  0.7603E-17  0.1000E-09  0.0000E+00  0.5808E+16
   -0.687484    1.26444  0.7570E-12  0.1219E-13  0.7603E-17  0.1000E-09  0.0000E+00  0.5520E+16
   -0.756235    1.39142  0.7555E-12  0.1219E-13  0.7603E-17  0.1000E-09  0.0000E+00  0.5233E+16
   -0.824987    1.51809  0.7548E-12  0.1219E-13  0.7603E-17  0.1000E-09  0.0000E+00  0.4946E+16
   -0.893738    1.64439  0.7542E-12  0.1219E-13  0.7603E-17  0.1000E-09  0.0000E+00  0.4661E+16
   -0.962490    1.77026  0.7536E-12  0.1219E-13  0.7603E-17  0.1000E-09  0.0000E+00  0.4378E+16
   -1.031242    1.89564  0.7526E-12  0.1219E-13  0.7603E-17  0.1000E-09  0.0000E+00  0.4098E+16
   -1.099994    2.02049  0.7514E-12  0.1219E-13  0.7603E-17  0.1000E-09  0.0000E+00  0.3820E+16
   -1.168746    2.14473  0.7497E-12  0.1219E-13  0.7603E-17  0.1000E-09  0.0000E+00  0.3545E+16
   -1.237498    2.26832  0.7477E-12  0.1219E-13  0.7603E-17  0.1000E-09  0.0000E+00  0.3274E+16
   -1.306251    2.39120  0.7455E-12  0.1219E-13  0.7603E-17  0.1000E-09  0.0000E+00  0.3008E+16
   -1.375003    2.51332  0.7432E-12  0.5482E-13  0.8868E-17  0.1000E-09  0.0000E+00  0.2746E+16
   -1.443756    2.63466  0.7410E-12  0.1534E-12  0.1863E-16  0.1000E-09  0.0000E+00  0.2489E+16
   -1.512508    2.75518  0.7391E-12  0.3692E-12  0.4164E-16  0.1000E-09  0.0000E+00  0.2237E+16
   -1.581261    2.87487  0.7374E-12  0.8467E-12  0.9213E-16  0.1000E-09  0.0000E+00  0.1992E+16
   -1.650013    2.99372  0.7361E-12  0.1902E-11  0.2012E-15  0.1000E-09  0.0000E+00  0.1752E+16
   -1.718765    3.11175  0.7350E-12  0.4220E-11  0.4347E-15  0.1000E-09  0.0000E+00  0.1518E+16
   -1.787517    3.22896  0.7341E-12  0.9485E-11  0.9513E-15  0.1000E-09  0.0000E+00  0.1278E+16
   -1.856269    3.34425  0.7334E-12  0.2147E-10  0.2099E-14  0.1000E-09  0.0000E+00  0.1047E+16
   -1.925020    3.45734  0.7329E-12  0.4852E-10  0.4622E-14  0.1000E-09  0.0000E+00  0.8262E+15
   -1.993771    3.56784  0.7326E-12  0.1093E-09  0.1015E-13  0.1000E-09  0.0000E+00  0.6197E+15
   -2.062522    3.67573  0.7323E-12  0.2401E-09  0.2176E-13  0.2554E-09  0.0000E+00  0.4335E+15
   -2.131273    3.78297  0.7322E-12  0.5209E-09  0.4606E-13  0.9337E-09  0.0000E+00  0.2510E+15
   -2.200023    3.88950  0.7322E-12  0.1118E-08  0.9656E-13  0.6705E-08  0.0000E+00  0.7325E+14
   -2.268773    3.99179  0.7322E-12  0.1648E-08  0.1431E-12  0.7064E-05  0.0000E+00 -0.2137E+12
   -2.337522    3.99390  0.7322E-12  0.1907E-08  0.1739E-12  0.8125E-05  0.0000E+00 -0.2411E+12
   -2.406271    3.99572  0.7322E-12  0.2107E-08  0.2095E-12  0.8241E-05  0.0000E+00 -0.2865E+12
   -2.475019    3.99750  0.7322E-12  0.2247E-08  0.2559E-12  0.7455E-05  0.0000E+00 -0.3713E+12
   -2.543767    3.99945  0.7322E-12  0.2306E-08  0.3288E-12  0.5729E-05  0.0000E+00 -0.5647E+12
   -2.612514    4.00195  0.7322E-12  0.2212E-08  0.4890E-12  0.3100E-05  0.0000E+00 -0.1260E+13
   -2.681261    4.00645  0.7322E-12  0.1642E-08  0.1220E-11  0.4978E-06  0.0000E+00 -0.1089E+14
   -2.750007    4.02869  0.7322E-12  0.0000E+00  0.0000E+00  0.0000E+00  0.0000E+00  0.0000E+00
