 1 - depth, m
 2 - temperature, C
 3 - salinity, kg/kg
 4 - turbulent kinetic energy, m**2/s**2
 5 - dissipation rate, m**2/s**3
 6 - kinematic heat conductance, m**2/s
 7 - modulus of horizontal velocity, m/s
 8 - Richardson number, n/d
   -0.000000   -0.00000  0.2392E-11  0.1219E-13  0.7603E-17  0.1000E-09  0.0000E+00  0.4070E+16
   -0.068746    0.06157  0.1302E-11  0.1219E-13  0.7603E-17  0.1000E-09  0.0000E+00  0.3882E+16
   -0.137492    0.12126  0.1049E-11  0.1219E-13  0.7603E-17  0.1000E-09  0.0000E+00  0.3730E+16
   -0.206239    0.17956  0.9964E-12  0.1219E-13  0.7603E-17  0.1000E-09  0.0000E+00  0.3614E+16
   -0.274987    0.23697  0.9870E-12  0.1219E-13  0.7603E-17  0.1000E-09  0.0000E+00  0.3535E+16
   -0.343735    0.29404  0.9856E-12  0.1219E-13  0.7603E-17  0.1000E-09  0.0000E+00  0.3493E+16
   -0.412483    0.35136  0.9854E-12  0.1219E-13  0.7603E-17  0.1000E-09  0.0000E+00  0.3487E+16
   -0.481232    0.40958  0.9853E-12  0.1219E-13  0.7603E-17  0.1000E-09  0.0000E+00  0.3519E+16
   -0.549982    0.46936  0.9853E-12  0.1219E-13  0.7603E-17  0.1000E-09  0.0000E+00  0.3587E+16
   -0.618732    0.53141  0.9853E-12  0.1219E-13  0.7603E-17  0.1000E-09  0.0000E+00  0.3689E+16
   -0.687482    0.59649  0.9853E-12  0.1219E-13  0.7603E-17  0.1000E-09  0.0000E+00  0.3839E+16
   -0.756233    0.66566  0.9853E-12  0.1219E-13  0.7603E-17  0.1000E-09  0.0000E+00  0.4027E+16
   -0.824984    0.73988  0.9853E-12  0.1219E-13  0.7603E-17  0.1000E-09  0.0000E+00  0.4236E+16
   -0.893735    0.81994  0.9853E-12  0.1219E-13  0.7603E-17  0.1000E-09  0.0000E+00  0.4461E+16
   -0.962486    0.90663  0.9853E-12  0.1219E-13  0.7603E-17  0.1000E-09  0.0000E+00  0.4695E+16
   -1.031238    1.00071  0.9852E-12  0.1219E-13  0.7603E-17  0.1000E-09  0.0000E+00  0.4927E+16
   -1.099990    1.10292  0.9849E-12  0.1219E-13  0.7603E-17  0.1000E-09  0.0000E+00  0.5148E+16
   -1.168742    1.21393  0.9839E-12  0.1219E-13  0.7603E-17  0.1000E-09  0.0000E+00  0.5345E+16
   -1.237494    1.33434  0.9813E-12  0.1219E-13  0.7603E-17  0.1000E-09  0.0000E+00  0.5507E+16
   -1.306246    1.46469  0.9760E-12  0.4665E-13  0.1123E-16  0.1000E-09  0.0000E+00  0.5620E+16
   -1.374999    1.60538  0.9690E-12  0.1521E-12  0.3084E-16  0.1000E-09  0.0000E+00  0.5693E+16
   -1.443751    1.75730  0.9636E-12  0.4525E-12  0.8736E-16  0.1000E-09  0.0000E+00  0.5692E+16
   -1.512503    1.92079  0.9608E-12  0.1305E-11  0.2434E-15  0.1000E-09  0.0000E+00  0.5599E+16
   -1.581255    2.09585  0.9592E-12  0.3696E-11  0.6674E-15  0.1000E-09  0.0000E+00  0.5402E+16
   -1.650007    2.28229  0.9581E-12  0.1031E-10  0.1803E-14  0.1000E-09  0.0000E+00  0.5095E+16
   -1.718759    2.47977  0.9573E-12  0.2832E-10  0.4800E-14  0.1000E-09  0.0000E+00  0.4672E+16
   -1.787511    2.68768  0.9569E-12  0.7881E-10  0.1294E-13  0.1000E-09  0.0000E+00  0.4116E+16
   -1.856262    2.90425  0.9567E-12  0.2197E-09  0.3500E-13  0.1000E-09  0.0000E+00  0.3473E+16
   -1.925013    3.12945  0.9566E-12  0.6082E-09  0.9399E-13  0.1744E-09  0.0000E+00  0.2743E+16
   -1.993764    3.36331  0.9563E-12  0.1671E-08  0.2507E-12  0.6653E-09  0.0000E+00  0.1918E+16
   -2.062515    3.60520  0.9552E-12  0.4442E-08  0.6473E-12  0.3311E-08  0.0000E+00  0.9954E+15
   -2.131265    3.84947  0.9530E-12  0.1124E-07  0.1598E-11  0.6148E-07  0.0000E+00  0.1332E+15
   -2.200015    4.02864  0.9527E-12  0.1318E-07  0.1887E-11  0.3916E-04  0.0000E+00 -0.6170E+12
   -2.268765    4.02956  0.9527E-12  0.1392E-07  0.2035E-11  0.3909E-04  0.0000E+00 -0.6342E+12
   -2.337514    4.03049  0.9527E-12  0.1446E-07  0.2202E-11  0.3761E-04  0.0000E+00 -0.6773E+12
   -2.406263    4.03145  0.9527E-12  0.1482E-07  0.2411E-11  0.3454E-04  0.0000E+00 -0.7597E+12
   -2.475011    4.03252  0.9527E-12  0.1496E-07  0.2712E-11  0.2959E-04  0.0000E+00 -0.9187E+12
   -2.543758    4.03377  0.9527E-12  0.1480E-07  0.3226E-11  0.2242E-04  0.0000E+00 -0.1271E+13
   -2.612505    4.03545  0.9527E-12  0.1406E-07  0.4437E-11  0.1271E-04  0.0000E+00 -0.2425E+13
   -2.681251    4.03851  0.9527E-12  0.1042E-07  0.1187E-10  0.1837E-05  0.0000E+00 -0.2210E+14
   -2.749997    4.06080  0.9527E-12  0.0000E+00  0.0000E+00  0.0000E+00  0.0000E+00  0.0000E+00
