 1 - depth, m
 2 - temperature, C
 3 - salinity, kg/kg
 4 - turbulent kinetic energy, m**2/s**2
 5 - dissipation rate, m**2/s**3
 6 - kinematic heat conductance, m**2/s
 7 - modulus of horizontal velocity, m/s
 8 - Richardson number, n/d
   -0.000000   -0.00000  0.2398E-13  0.2880E-05  0.6721E-07  0.9735E-05  0.1677E-01  0.1238E+17
   -0.068750    0.29271  0.2420E-13  0.2298E-05  0.3465E-07  0.1068E-04  0.1321E-01  0.6833E+16
   -0.137501    0.53286  0.2527E-13  0.1773E-05  0.2200E-07  0.9037E-05  0.1064E-01  0.3513E+16
   -0.206252    0.72194  0.2604E-13  0.1322E-05  0.1511E-07  0.6673E-05  0.8486E-02  0.1606E+16
   -0.275004    0.86242  0.2857E-13  0.9465E-06  0.1067E-07  0.4420E-05  0.6624E-02  0.5948E+15
   -0.343756    0.96246  0.8749E-13  0.6452E-06  0.7513E-08  0.2673E-05  0.5008E-02  0.1444E+15
   -0.412509    1.03251  0.2839E-12  0.4042E-06  0.5104E-08  0.1876E-04  0.3637E-02  0.5247E+14
   -0.481262    1.09056  0.3866E-12  0.2215E-06  0.3173E-08  0.1986E-04  0.2507E-02  0.1344E+15
   -0.550016    1.14274  0.4928E-12  0.9651E-07  0.1598E-08  0.1252E-04  0.1563E-02  0.3183E+15
   -0.618771    1.19076  0.6222E-12  0.2699E-07  0.4241E-09  0.5965E-06  0.8180E-03  0.5448E+15
   -0.687525    1.23187  0.7511E-12  0.3934E-08  0.2367E-10  0.1057E-07  0.3181E-03  0.7572E+15
   -0.756280    1.26405  0.9001E-12  0.7932E-09  0.6698E-12  0.1211E-08  0.9663E-04  0.9491E+15
   -0.825035    1.30131  0.9094E-12  0.2297E-09  0.6959E-13  0.2418E-09  0.2846E-04  0.1128E+16
   -0.893791    1.34798  0.8797E-12  0.7356E-10  0.2022E-13  0.1180E-09  0.8615E-05  0.1292E+16
   -0.962547    1.40351  0.8438E-12  0.4064E-10  0.1471E-13  0.1009E-09  0.2710E-05  0.1441E+16
   -1.031303    1.46707  0.8126E-12  0.1055E-09  0.4538E-13  0.1471E-09  0.8897E-06  0.1577E+16
   -1.100059    1.53808  0.7896E-12  0.4868E-09  0.2040E-12  0.3962E-09  0.3050E-06  0.1700E+16
   -1.168815    1.61686  0.7743E-12  0.2284E-08  0.9188E-12  0.1283E-08  0.1087E-06  0.1817E+16
   -1.237572    1.70773  0.7651E-12  0.1033E-07  0.3994E-11  0.3422E-08  0.3990E-07  0.1974E+16
   -1.306328    1.83297  0.7598E-12  0.4466E-07  0.1664E-10  0.7206E-08  0.1482E-07  0.2429E+16
   -1.375085    2.08850  0.7566E-12  0.1797E-06  0.6483E-10  0.2462E-07  0.5023E-08  0.4364E+16
   -1.443841    2.68762  0.7527E-12  0.3488E-06  0.1263E-09  0.1155E-03  0.3397E-09  0.7855E+16
   -1.512598    3.32086  0.7490E-12  0.4939E-06  0.1807E-09  0.2794E-03  0.1194E-09  0.6466E+16
   -1.581354    3.84674  0.7460E-12  0.6044E-06  0.2233E-09  0.4169E-03  0.1068E-09  0.2784E+16
   -1.650111    4.20395  0.7437E-12  0.6295E-06  0.2340E-09  0.5346E-03  0.9455E-10  0.1067E+15
   -1.718867    4.24766  0.7434E-12  0.6341E-06  0.2374E-09  0.5538E-03  0.8239E-10 -0.3093E+13
   -1.787623    4.24866  0.7434E-12  0.6377E-06  0.2411E-09  0.5505E-03  0.7048E-10 -0.3264E+13
   -1.856379    4.24968  0.7434E-12  0.6406E-06  0.2456E-09  0.5455E-03  0.6009E-10 -0.3353E+13
   -1.925134    4.25071  0.7434E-12  0.6429E-06  0.2510E-09  0.5377E-03  0.5123E-10 -0.3504E+13
   -1.993889    4.25177  0.7434E-12  0.6446E-06  0.2576E-09  0.5267E-03  0.4369E-10 -0.3648E+13
   -2.062644    4.25286  0.7434E-12  0.6453E-06  0.2654E-09  0.5132E-03  0.3725E-10 -0.3765E+13
   -2.131399    4.25398  0.7434E-12  0.6452E-06  0.2747E-09  0.4968E-03  0.3140E-10 -0.3883E+13
   -2.200153    4.25514  0.7434E-12  0.6441E-06  0.2859E-09  0.4772E-03  0.2610E-10 -0.4000E+13
   -2.268907    4.25635  0.7434E-12  0.6419E-06  0.2997E-09  0.4535E-03  0.2121E-10 -0.4138E+13
   -2.337660    4.25762  0.7434E-12  0.6384E-06  0.3180E-09  0.4247E-03  0.1692E-10 -0.4443E+13
   -2.406413    4.25898  0.7434E-12  0.6332E-06  0.3434E-09  0.3900E-03  0.1319E-10 -0.5068E+13
   -2.475166    4.26046  0.7434E-12  0.6255E-06  0.3813E-09  0.3474E-03  0.1001E-10 -0.6215E+13
   -2.543918    4.26213  0.7434E-12  0.6139E-06  0.4444E-09  0.2967E-03  0.7314E-11 -0.8053E+13
   -2.612669    4.26410  0.7434E-12  0.5899E-06  0.6009E-09  0.1625E-03  0.5089E-11 -0.1542E+14
   -2.681420    4.26769  0.7434E-12  0.3911E-06  0.2417E-08  0.9492E-05  0.2585E-11 -0.2987E+15
   -2.750170    4.32918  0.7434E-12  0.0000E+00  0.0000E+00  0.0000E+00  0.2575E-11  0.0000E+00
