 1 - depth, m
 2 - temperature, C
 3 - salinity, kg/kg
 4 - turbulent kinetic energy, m**2/s**2
 5 - dissipation rate, m**2/s**3
 6 - kinematic heat conductance, m**2/s
 7 - modulus of horizontal velocity, m/s
 8 - Richardson number, n/d
   -0.000000   -0.00000  0.1069E-10  0.1219E-13  0.7603E-17  0.1000E-09  0.0000E+00  0.8203E+16
   -0.068746    0.12515  0.6930E-11  0.1219E-13  0.7603E-17  0.1000E-09  0.0000E+00  0.7878E+16
   -0.137492    0.24955  0.4976E-11  0.1219E-13  0.7603E-17  0.1000E-09  0.0000E+00  0.7569E+16
   -0.206239    0.37338  0.4186E-11  0.1219E-13  0.7603E-17  0.1000E-09  0.0000E+00  0.7274E+16
   -0.274987    0.49679  0.3916E-11  0.1219E-13  0.7603E-17  0.1000E-09  0.0000E+00  0.6993E+16
   -0.343735    0.61994  0.3836E-11  0.1219E-13  0.7603E-17  0.1000E-09  0.0000E+00  0.6723E+16
   -0.412483    0.74301  0.3815E-11  0.1219E-13  0.7603E-17  0.1000E-09  0.0000E+00  0.6463E+16
   -0.481233    0.86614  0.3809E-11  0.1219E-13  0.7603E-17  0.1000E-09  0.0000E+00  0.6210E+16
   -0.549982    0.98948  0.3808E-11  0.1219E-13  0.7603E-17  0.1000E-09  0.0000E+00  0.5964E+16
   -0.618732    1.11318  0.3808E-11  0.1219E-13  0.7603E-17  0.1000E-09  0.0000E+00  0.5723E+16
   -0.687482    1.23736  0.3808E-11  0.1219E-13  0.7603E-17  0.1000E-09  0.0000E+00  0.5493E+16
   -0.756233    1.36234  0.3808E-11  0.1219E-13  0.7603E-17  0.1000E-09  0.0000E+00  0.5268E+16
   -0.824984    1.48833  0.3808E-11  0.1219E-13  0.7603E-17  0.1000E-09  0.0000E+00  0.5041E+16
   -0.893735    1.61542  0.3807E-11  0.1219E-13  0.7603E-17  0.1000E-09  0.0000E+00  0.4810E+16
   -0.962487    1.74367  0.3805E-11  0.1219E-13  0.7603E-17  0.1000E-09  0.0000E+00  0.4574E+16
   -1.031239    1.87314  0.3802E-11  0.1219E-13  0.7603E-17  0.1000E-09  0.0000E+00  0.4333E+16
   -1.099991    2.00384  0.3796E-11  0.4699E-13  0.8196E-17  0.1000E-09  0.0000E+00  0.4085E+16
   -1.168743    2.13577  0.3787E-11  0.1337E-12  0.1729E-16  0.1000E-09  0.0000E+00  0.3829E+16
   -1.237495    2.26893  0.3774E-11  0.3298E-12  0.3956E-16  0.1000E-09  0.0000E+00  0.3565E+16
   -1.306247    2.40325  0.3758E-11  0.7761E-12  0.8981E-16  0.1000E-09  0.0000E+00  0.3293E+16
   -1.374999    2.53867  0.3743E-11  0.1790E-11  0.2013E-15  0.1000E-09  0.0000E+00  0.3015E+16
   -1.443751    2.67517  0.3729E-11  0.4076E-11  0.4463E-15  0.1000E-09  0.0000E+00  0.2729E+16
   -1.512504    2.81264  0.3720E-11  0.9181E-11  0.9791E-15  0.1000E-09  0.0000E+00  0.2435E+16
   -1.581256    2.95090  0.3713E-11  0.2047E-10  0.2127E-14  0.1000E-09  0.0000E+00  0.2133E+16
   -1.650008    3.08973  0.3709E-11  0.4519E-10  0.4577E-14  0.1000E-09  0.0000E+00  0.1827E+16
   -1.718760    3.22894  0.3707E-11  0.9882E-10  0.9759E-14  0.1000E-09  0.0000E+00  0.1519E+16
   -1.787511    3.36845  0.3704E-11  0.2192E-09  0.2110E-13  0.1000E-09  0.0000E+00  0.1223E+16
   -1.856263    3.50987  0.3701E-11  0.4901E-09  0.4603E-13  0.2558E-09  0.0000E+00  0.9155E+15
   -1.925014    3.65335  0.3697E-11  0.1095E-08  0.1003E-12  0.8579E-09  0.0000E+00  0.5948E+15
   -1.993765    3.79860  0.3694E-11  0.2434E-08  0.2179E-12  0.4247E-08  0.0000E+00  0.2608E+15
   -2.062516    3.94163  0.3693E-11  0.4887E-08  0.4312E-12  0.1733E-06  0.0000E+00  0.1256E+14
   -2.131266    4.00633  0.3693E-11  0.5721E-08  0.5085E-12  0.2719E-04  0.0000E+00 -0.2372E+12
   -2.200016    4.00708  0.3693E-11  0.6070E-08  0.5497E-12  0.2756E-04  0.0000E+00 -0.2435E+12
   -2.268766    4.00781  0.3693E-11  0.6336E-08  0.5935E-12  0.2709E-04  0.0000E+00 -0.2577E+12
   -2.337515    4.00856  0.3693E-11  0.6531E-08  0.6453E-12  0.2567E-04  0.0000E+00 -0.2830E+12
   -2.406264    4.00936  0.3693E-11  0.6650E-08  0.7125E-12  0.2318E-04  0.0000E+00 -0.3268E+12
   -2.475012    4.01025  0.3693E-11  0.6678E-08  0.8111E-12  0.1943E-04  0.0000E+00 -0.4090E+12
   -2.543759    4.01132  0.3693E-11  0.6568E-08  0.9830E-12  0.1423E-04  0.0000E+00 -0.5929E+12
   -2.612506    4.01279  0.3693E-11  0.6169E-08  0.1397E-11  0.7563E-05  0.0000E+00 -0.1226E+13
   -2.681253    4.01560  0.3693E-11  0.4434E-08  0.3814E-11  0.1020E-05  0.0000E+00 -0.1235E+14
   -2.749998    4.03565  0.3693E-11  0.0000E+00  0.0000E+00  0.0000E+00  0.0000E+00  0.0000E+00
