 1 - depth, m
 2 - temperature, C
 3 - salinity, kg/kg
 4 - turbulent kinetic energy, m**2/s**2
 5 - dissipation rate, m**2/s**3
 6 - kinematic heat conductance, m**2/s
 7 - modulus of horizontal velocity, m/s
 8 - Richardson number, n/d
   -0.000000   -0.00000  0.8732E-13  0.1219E-13  0.7603E-17  0.1000E-09  0.0000E+00  0.6544E+16
   -0.068746    0.09950  0.1173E-11  0.1219E-13  0.7603E-17  0.1000E-09  0.0000E+00  0.6485E+16
   -0.137493    0.20085  0.2502E-11  0.1219E-13  0.7603E-17  0.1000E-09  0.0000E+00  0.6411E+16
   -0.206240    0.30397  0.3427E-11  0.1219E-13  0.7603E-17  0.1000E-09  0.0000E+00  0.6322E+16
   -0.274988    0.40875  0.3799E-11  0.1219E-13  0.7603E-17  0.1000E-09  0.0000E+00  0.6218E+16
   -0.343736    0.51508  0.3782E-11  0.1219E-13  0.7603E-17  0.1000E-09  0.0000E+00  0.6099E+16
   -0.412485    0.62284  0.3585E-11  0.1219E-13  0.7603E-17  0.1000E-09  0.0000E+00  0.5966E+16
   -0.481234    0.73190  0.3357E-11  0.1219E-13  0.7603E-17  0.1000E-09  0.0000E+00  0.5820E+16
   -0.549984    0.84216  0.3171E-11  0.1219E-13  0.7603E-17  0.1000E-09  0.0000E+00  0.5663E+16
   -0.618734    0.95349  0.3045E-11  0.1219E-13  0.7603E-17  0.1000E-09  0.0000E+00  0.5495E+16
   -0.687485    1.06579  0.2969E-11  0.1219E-13  0.7603E-17  0.1000E-09  0.0000E+00  0.5318E+16
   -0.756236    1.17896  0.2929E-11  0.1219E-13  0.7603E-17  0.1000E-09  0.0000E+00  0.5131E+16
   -0.824987    1.29287  0.2908E-11  0.1219E-13  0.7603E-17  0.1000E-09  0.0000E+00  0.4937E+16
   -0.893739    1.40744  0.2898E-11  0.1219E-13  0.7603E-17  0.1000E-09  0.0000E+00  0.4736E+16
   -0.962491    1.52258  0.2893E-11  0.1219E-13  0.7603E-17  0.1000E-09  0.0000E+00  0.4529E+16
   -1.031243    1.63819  0.2889E-11  0.1219E-13  0.7603E-17  0.1000E-09  0.0000E+00  0.4318E+16
   -1.099995    1.75420  0.2886E-11  0.1219E-13  0.7603E-17  0.1000E-09  0.0000E+00  0.4102E+16
   -1.168747    1.87053  0.2881E-11  0.1219E-13  0.7603E-17  0.1000E-09  0.0000E+00  0.3884E+16
   -1.237500    1.98711  0.2875E-11  0.1219E-13  0.7603E-17  0.1000E-09  0.0000E+00  0.3663E+16
   -1.306252    2.10390  0.2868E-11  0.1219E-13  0.7603E-17  0.1000E-09  0.0000E+00  0.3440E+16
   -1.375005    2.22084  0.2859E-11  0.1219E-13  0.7603E-17  0.1000E-09  0.0000E+00  0.3217E+16
   -1.443757    2.33790  0.2851E-11  0.1219E-13  0.7603E-17  0.1000E-09  0.0000E+00  0.2993E+16
   -1.512510    2.45507  0.2842E-11  0.1219E-13  0.7603E-17  0.1000E-09  0.0000E+00  0.2769E+16
   -1.581262    2.57231  0.2835E-11  0.1219E-13  0.7603E-17  0.1000E-09  0.0000E+00  0.2545E+16
   -1.650014    2.68961  0.2828E-11  0.1219E-13  0.7603E-17  0.1000E-09  0.0000E+00  0.2321E+16
   -1.718766    2.80696  0.2822E-11  0.1219E-13  0.7603E-17  0.1000E-09  0.0000E+00  0.2097E+16
   -1.787518    2.92429  0.2818E-11  0.2781E-13  0.7880E-17  0.1000E-09  0.0000E+00  0.1845E+16
   -1.856270    3.03972  0.2814E-11  0.9715E-13  0.2204E-16  0.1000E-09  0.0000E+00  0.1599E+16
   -1.925022    3.15280  0.2811E-11  0.3203E-12  0.6873E-16  0.1000E-09  0.0000E+00  0.1360E+16
   -1.993773    3.26296  0.2809E-11  0.1030E-11  0.2130E-15  0.1000E-09  0.0000E+00  0.1137E+16
   -2.062524    3.37015  0.2807E-11  0.3183E-11  0.6369E-15  0.1000E-09  0.0000E+00  0.9503E+15
   -2.131275    3.47700  0.2805E-11  0.9669E-11  0.1872E-14  0.1000E-09  0.0000E+00  0.7683E+15
   -2.200025    3.58381  0.2804E-11  0.2898E-10  0.5430E-14  0.1000E-09  0.0000E+00  0.5875E+15
   -2.268775    3.69065  0.2804E-11  0.8653E-10  0.1570E-13  0.1958E-09  0.0000E+00  0.4068E+15
   -2.337524    3.79741  0.2803E-11  0.2602E-09  0.4576E-13  0.1023E-08  0.0000E+00  0.2264E+15
   -2.406273    3.90358  0.2803E-11  0.7775E-09  0.1328E-12  0.1274E-07  0.0000E+00  0.5182E+14
   -2.475021    4.00162  0.2803E-11  0.1685E-08  0.2886E-12  0.4321E-05  0.0000E+00 -0.8929E+12
   -2.543769    4.00497  0.2803E-11  0.2004E-08  0.3904E-12  0.4093E-05  0.0000E+00 -0.1111E+13
   -2.612516    4.00845  0.2803E-11  0.2062E-08  0.5554E-12  0.2637E-05  0.0000E+00 -0.1986E+13
   -2.681263    4.01358  0.2803E-11  0.1564E-08  0.1202E-11  0.4762E-06  0.0000E+00 -0.1214E+14
   -2.750009    4.03421  0.2803E-11  0.0000E+00  0.0000E+00  0.0000E+00  0.0000E+00  0.0000E+00
