 1 - depth, m
 2 - temperature, C
 3 - salinity, kg/kg
 4 - turbulent kinetic energy, m**2/s**2
 5 - dissipation rate, m**2/s**3
 6 - kinematic heat conductance, m**2/s
 7 - modulus of horizontal velocity, m/s
 8 - Richardson number, n/d
   -0.000000   -0.00000  0.1084E-10  0.1219E-13  0.7603E-17  0.1000E-09  0.0000E+00  0.7992E+16
   -0.068746    0.12189  0.6773E-11  0.1219E-13  0.7603E-17  0.1000E-09  0.0000E+00  0.7676E+16
   -0.137492    0.24294  0.4851E-11  0.1219E-13  0.7603E-17  0.1000E-09  0.0000E+00  0.7379E+16
   -0.206239    0.36337  0.4127E-11  0.1219E-13  0.7603E-17  0.1000E-09  0.0000E+00  0.7100E+16
   -0.274987    0.48339  0.3895E-11  0.1219E-13  0.7603E-17  0.1000E-09  0.0000E+00  0.6836E+16
   -0.343735    0.60323  0.3829E-11  0.1219E-13  0.7603E-17  0.1000E-09  0.0000E+00  0.6585E+16
   -0.412483    0.72307  0.3813E-11  0.1219E-13  0.7603E-17  0.1000E-09  0.0000E+00  0.6346E+16
   -0.481232    0.84312  0.3809E-11  0.1219E-13  0.7603E-17  0.1000E-09  0.0000E+00  0.6115E+16
   -0.549982    0.96356  0.3808E-11  0.1219E-13  0.7603E-17  0.1000E-09  0.0000E+00  0.5892E+16
   -0.618732    1.08458  0.3808E-11  0.1219E-13  0.7603E-17  0.1000E-09  0.0000E+00  0.5673E+16
   -0.687482    1.20633  0.3808E-11  0.1219E-13  0.7603E-17  0.1000E-09  0.0000E+00  0.5467E+16
   -0.756233    1.32918  0.3808E-11  0.1219E-13  0.7603E-17  0.1000E-09  0.0000E+00  0.5265E+16
   -0.824984    1.45339  0.3808E-11  0.1219E-13  0.7603E-17  0.1000E-09  0.0000E+00  0.5060E+16
   -0.893735    1.57906  0.3807E-11  0.1219E-13  0.7603E-17  0.1000E-09  0.0000E+00  0.4851E+16
   -0.962487    1.70629  0.3806E-11  0.1288E-13  0.7603E-17  0.1000E-09  0.0000E+00  0.4634E+16
   -1.031239    1.83514  0.3803E-11  0.3513E-13  0.8137E-17  0.1000E-09  0.0000E+00  0.4410E+16
   -1.099990    1.96567  0.3798E-11  0.1056E-12  0.1327E-16  0.1000E-09  0.0000E+00  0.4177E+16
   -1.168742    2.09789  0.3789E-11  0.2660E-12  0.2924E-16  0.1000E-09  0.0000E+00  0.3934E+16
   -1.237495    2.23179  0.3776E-11  0.6237E-12  0.6544E-16  0.1000E-09  0.0000E+00  0.3680E+16
   -1.306247    2.36734  0.3760E-11  0.1420E-11  0.1445E-15  0.1000E-09  0.0000E+00  0.3414E+16
   -1.374999    2.50447  0.3743E-11  0.3177E-11  0.3146E-15  0.1000E-09  0.0000E+00  0.3140E+16
   -1.443751    2.64322  0.3730E-11  0.7012E-11  0.6763E-15  0.1000E-09  0.0000E+00  0.2855E+16
   -1.512503    2.78350  0.3720E-11  0.1528E-10  0.1436E-14  0.1000E-09  0.0000E+00  0.2557E+16
   -1.581256    2.92511  0.3713E-11  0.3289E-10  0.3011E-14  0.1000E-09  0.0000E+00  0.2247E+16
   -1.650008    3.06773  0.3709E-11  0.6994E-10  0.6242E-14  0.1000E-09  0.0000E+00  0.1927E+16
   -1.718760    3.21101  0.3707E-11  0.1470E-09  0.1279E-13  0.1000E-09  0.0000E+00  0.1601E+16
   -1.787511    3.35467  0.3705E-11  0.3123E-09  0.2647E-13  0.1126E-09  0.0000E+00  0.1293E+16
   -1.856263    3.50122  0.3702E-11  0.6674E-09  0.5513E-13  0.2880E-09  0.0000E+00  0.9766E+15
   -1.925014    3.65253  0.3698E-11  0.1421E-08  0.1144E-12  0.9095E-09  0.0000E+00  0.6385E+15
   -1.993765    3.81268  0.3694E-11  0.3001E-08  0.2356E-12  0.4969E-08  0.0000E+00  0.2356E+15
   -2.062516    3.98343  0.3693E-11  0.4023E-08  0.3203E-12  0.1136E-04  0.0000E+00  0.1016E+13
   -2.131266    3.99415  0.3693E-11  0.4451E-08  0.3615E-12  0.1950E-04  0.0000E+00 -0.1703E+12
   -2.200016    3.99560  0.3693E-11  0.4744E-08  0.3969E-12  0.2076E-04  0.0000E+00 -0.1855E+12
   -2.268766    3.99690  0.3693E-11  0.4980E-08  0.4356E-12  0.2104E-04  0.0000E+00 -0.2053E+12
   -2.337515    3.99814  0.3693E-11  0.5166E-08  0.4818E-12  0.2032E-04  0.0000E+00 -0.2347E+12
   -2.406263    3.99941  0.3693E-11  0.5294E-08  0.5416E-12  0.1857E-04  0.0000E+00 -0.2820E+12
   -2.475011    4.00078  0.3693E-11  0.5349E-08  0.6290E-12  0.1564E-04  0.0000E+00 -0.3685E+12
   -2.543759    4.00238  0.3693E-11  0.5292E-08  0.7802E-12  0.1143E-04  0.0000E+00 -0.5635E+12
   -2.612506    4.00455  0.3693E-11  0.4993E-08  0.1142E-11  0.6041E-05  0.0000E+00 -0.1260E+13
   -2.681252    4.00862  0.3693E-11  0.3671E-08  0.3142E-11  0.8959E-06  0.0000E+00 -0.1322E+14
   -2.749998    4.03315  0.3693E-11  0.0000E+00  0.0000E+00  0.0000E+00  0.0000E+00  0.0000E+00
