 1 - depth, m
 2 - temperature, C
 3 - salinity, kg/kg
 4 - turbulent kinetic energy, m**2/s**2
 5 - dissipation rate, m**2/s**3
 6 - kinematic heat conductance, m**2/s
 7 - modulus of horizontal velocity, m/s
 8 - Richardson number, n/d
   -0.000000   -0.00000  0.1542E-11  0.1219E-13  0.7603E-17  0.1000E-09  0.0000E+00  0.6769E+16
   -0.068746    0.10296  0.9275E-12  0.1219E-13  0.7603E-17  0.1000E-09  0.0000E+00  0.6521E+16
   -0.137492    0.20499  0.6748E-12  0.1219E-13  0.7603E-17  0.1000E-09  0.0000E+00  0.6307E+16
   -0.206239    0.30654  0.6001E-12  0.1219E-13  0.7603E-17  0.1000E-09  0.0000E+00  0.6122E+16
   -0.274987    0.40804  0.5815E-12  0.1219E-13  0.7603E-17  0.1000E-09  0.0000E+00  0.5961E+16
   -0.343735    0.50989  0.5774E-12  0.1219E-13  0.7603E-17  0.1000E-09  0.0000E+00  0.5822E+16
   -0.412483    0.61251  0.5766E-12  0.1219E-13  0.7603E-17  0.1000E-09  0.0000E+00  0.5700E+16
   -0.481232    0.71628  0.5764E-12  0.1219E-13  0.7603E-17  0.1000E-09  0.0000E+00  0.5592E+16
   -0.549982    0.82158  0.5764E-12  0.1219E-13  0.7603E-17  0.1000E-09  0.0000E+00  0.5496E+16
   -0.618732    0.92880  0.5764E-12  0.1219E-13  0.7603E-17  0.1000E-09  0.0000E+00  0.5406E+16
   -0.687482    1.03827  0.5764E-12  0.1219E-13  0.7603E-17  0.1000E-09  0.0000E+00  0.5333E+16
   -0.756233    1.15061  0.5764E-12  0.1219E-13  0.7603E-17  0.1000E-09  0.0000E+00  0.5264E+16
   -0.824984    1.26626  0.5764E-12  0.1219E-13  0.7603E-17  0.1000E-09  0.0000E+00  0.5188E+16
   -0.893735    1.38551  0.5764E-12  0.1219E-13  0.7603E-17  0.1000E-09  0.0000E+00  0.5101E+16
   -0.962487    1.50859  0.5763E-12  0.1219E-13  0.7603E-17  0.1000E-09  0.0000E+00  0.4998E+16
   -1.031238    1.63570  0.5761E-12  0.5160E-13  0.9392E-17  0.1000E-09  0.0000E+00  0.4876E+16
   -1.099990    1.76700  0.5755E-12  0.1505E-12  0.2133E-16  0.1000E-09  0.0000E+00  0.4730E+16
   -1.168742    1.90258  0.5745E-12  0.3843E-12  0.5112E-16  0.1000E-09  0.0000E+00  0.4559E+16
   -1.237494    2.04251  0.5726E-12  0.9415E-12  0.1211E-15  0.1000E-09  0.0000E+00  0.4359E+16
   -1.306247    2.18679  0.5700E-12  0.2264E-11  0.2829E-15  0.1000E-09  0.0000E+00  0.4128E+16
   -1.374999    2.33538  0.5671E-12  0.5377E-11  0.6535E-15  0.1000E-09  0.0000E+00  0.3870E+16
   -1.443751    2.48840  0.5646E-12  0.1262E-10  0.1493E-14  0.1000E-09  0.0000E+00  0.3579E+16
   -1.512503    2.64579  0.5629E-12  0.2932E-10  0.3376E-14  0.1000E-09  0.0000E+00  0.3253E+16
   -1.581255    2.80733  0.5619E-12  0.6738E-10  0.7554E-14  0.1000E-09  0.0000E+00  0.2891E+16
   -1.650007    2.97276  0.5614E-12  0.1532E-09  0.1674E-13  0.1000E-09  0.0000E+00  0.2496E+16
   -1.718759    3.14177  0.5610E-12  0.3451E-09  0.3672E-13  0.1000E-09  0.0000E+00  0.2072E+16
   -1.787511    3.31410  0.5607E-12  0.7879E-09  0.8169E-13  0.2537E-09  0.0000E+00  0.1639E+16
   -1.856262    3.49176  0.5603E-12  0.1812E-08  0.1832E-12  0.8021E-09  0.0000E+00  0.1162E+16
   -1.925014    3.67460  0.5596E-12  0.4153E-08  0.4095E-12  0.3257E-08  0.0000E+00  0.6396E+15
   -1.993765    3.86060  0.5589E-12  0.9298E-08  0.8966E-12  0.3869E-07  0.0000E+00  0.1177E+15
   -2.062515    4.01459  0.5588E-12  0.1038E-07  0.1006E-11  0.4417E-04  0.0000E+00 -0.2796E+12
   -2.131266    4.01521  0.5588E-12  0.1082E-07  0.1063E-11  0.4443E-04  0.0000E+00 -0.2844E+12
   -2.200016    4.01584  0.5588E-12  0.1116E-07  0.1123E-11  0.4374E-04  0.0000E+00 -0.2956E+12
   -2.268765    4.01647  0.5588E-12  0.1142E-07  0.1192E-11  0.4205E-04  0.0000E+00 -0.3148E+12
   -2.337514    4.01713  0.5588E-12  0.1158E-07  0.1278E-11  0.3918E-04  0.0000E+00 -0.3464E+12
   -2.406263    4.01784  0.5588E-12  0.1166E-07  0.1394E-11  0.3493E-04  0.0000E+00 -0.3994E+12
   -2.475011    4.01864  0.5588E-12  0.1160E-07  0.1570E-11  0.2903E-04  0.0000E+00 -0.4963E+12
   -2.543758    4.01960  0.5588E-12  0.1136E-07  0.1883E-11  0.2123E-04  0.0000E+00 -0.7077E+12
   -2.612505    4.02093  0.5588E-12  0.1070E-07  0.2640E-11  0.1147E-04  0.0000E+00 -0.1403E+13
   -2.681252    4.02343  0.5588E-12  0.7812E-08  0.7353E-11  0.1542E-05  0.0000E+00 -0.1334E+14
   -2.749997    4.04182  0.5588E-12  0.0000E+00  0.0000E+00  0.0000E+00  0.0000E+00  0.0000E+00
