 1 - depth, m
 2 - temperature, C
 3 - salinity, kg/kg
 4 - turbulent kinetic energy, m**2/s**2
 5 - dissipation rate, m**2/s**3
 6 - kinematic heat conductance, m**2/s
 7 - modulus of horizontal velocity, m/s
 8 - Richardson number, n/d
   -0.000000   -0.00000  0.8940E-13  0.1219E-13  0.7603E-17  0.1000E-09  0.0000E+00  0.7076E+16
   -0.068746    0.10770  0.5085E-12  0.1219E-13  0.7603E-17  0.1000E-09  0.0000E+00  0.6983E+16
   -0.137493    0.21721  0.8489E-12  0.1219E-13  0.7603E-17  0.1000E-09  0.0000E+00  0.6874E+16
   -0.206240    0.32841  0.1003E-11  0.1219E-13  0.7603E-17  0.1000E-09  0.0000E+00  0.6748E+16
   -0.274988    0.44120  0.1017E-11  0.1219E-13  0.7603E-17  0.1000E-09  0.0000E+00  0.6607E+16
   -0.343736    0.55543  0.9657E-12  0.1219E-13  0.7603E-17  0.1000E-09  0.0000E+00  0.6450E+16
   -0.412485    0.67097  0.8983E-12  0.1219E-13  0.7603E-17  0.1000E-09  0.0000E+00  0.6278E+16
   -0.481234    0.78768  0.8410E-12  0.1219E-13  0.7603E-17  0.1000E-09  0.0000E+00  0.6094E+16
   -0.549984    0.90542  0.8016E-12  0.1219E-13  0.7603E-17  0.1000E-09  0.0000E+00  0.5896E+16
   -0.618734    1.02403  0.7781E-12  0.1219E-13  0.7603E-17  0.1000E-09  0.0000E+00  0.5688E+16
   -0.687485    1.14339  0.7655E-12  0.1219E-13  0.7603E-17  0.1000E-09  0.0000E+00  0.5471E+16
   -0.756236    1.26336  0.7594E-12  0.1219E-13  0.7603E-17  0.1000E-09  0.0000E+00  0.5246E+16
   -0.824987    1.38382  0.7565E-12  0.1219E-13  0.7603E-17  0.1000E-09  0.0000E+00  0.5014E+16
   -0.893739    1.50466  0.7552E-12  0.1219E-13  0.7603E-17  0.1000E-09  0.0000E+00  0.4776E+16
   -0.962490    1.62577  0.7543E-12  0.1219E-13  0.7603E-17  0.1000E-09  0.0000E+00  0.4534E+16
   -1.031242    1.74705  0.7535E-12  0.1219E-13  0.7603E-17  0.1000E-09  0.0000E+00  0.4289E+16
   -1.099994    1.86841  0.7526E-12  0.1219E-13  0.7603E-17  0.1000E-09  0.0000E+00  0.4042E+16
   -1.168747    1.98978  0.7513E-12  0.1219E-13  0.7603E-17  0.1000E-09  0.0000E+00  0.3794E+16
   -1.237499    2.11107  0.7497E-12  0.1219E-13  0.7603E-17  0.1000E-09  0.0000E+00  0.3546E+16
   -1.306252    2.23224  0.7478E-12  0.1219E-13  0.7603E-17  0.1000E-09  0.0000E+00  0.3298E+16
   -1.375004    2.35324  0.7457E-12  0.1219E-13  0.7603E-17  0.1000E-09  0.0000E+00  0.3052E+16
   -1.443757    2.47405  0.7435E-12  0.1219E-13  0.7603E-17  0.1000E-09  0.0000E+00  0.2807E+16
   -1.512509    2.59463  0.7414E-12  0.1219E-13  0.7603E-17  0.1000E-09  0.0000E+00  0.2564E+16
   -1.581261    2.71496  0.7395E-12  0.1219E-13  0.7603E-17  0.1000E-09  0.0000E+00  0.2323E+16
   -1.650014    2.83503  0.7378E-12  0.5328E-13  0.1160E-16  0.1000E-09  0.0000E+00  0.2084E+16
   -1.718766    2.95482  0.7364E-12  0.1679E-12  0.3059E-16  0.1000E-09  0.0000E+00  0.1846E+16
   -1.787518    3.07421  0.7353E-12  0.4898E-12  0.8480E-16  0.1000E-09  0.0000E+00  0.1586E+16
   -1.856270    3.19122  0.7344E-12  0.1404E-11  0.2350E-15  0.1000E-09  0.0000E+00  0.1334E+16
   -1.925021    3.30530  0.7337E-12  0.3980E-11  0.6459E-15  0.1000E-09  0.0000E+00  0.1093E+16
   -1.993772    3.41571  0.7331E-12  0.1119E-10  0.1762E-14  0.1000E-09  0.0000E+00  0.8708E+15
   -2.062523    3.52230  0.7327E-12  0.3049E-10  0.4660E-14  0.1000E-09  0.0000E+00  0.6853E+15
   -2.131274    3.62801  0.7324E-12  0.8185E-10  0.1215E-13  0.1220E-09  0.0000E+00  0.5058E+15
   -2.200024    3.73311  0.7323E-12  0.2174E-09  0.3135E-13  0.4831E-09  0.0000E+00  0.3294E+15
   -2.268774    3.83734  0.7322E-12  0.5761E-09  0.8076E-13  0.2607E-08  0.0000E+00  0.1568E+15
   -2.337523    3.93935  0.7322E-12  0.1489E-08  0.2039E-12  0.7152E-07  0.0000E+00  0.1375E+14
   -2.406272    4.00758  0.7322E-12  0.2471E-08  0.3433E-12  0.8251E-05  0.0000E+00 -0.5997E+12
   -2.475021    4.00931  0.7322E-12  0.2825E-08  0.4207E-12  0.7986E-05  0.0000E+00 -0.6649E+12
   -2.543768    4.01109  0.7322E-12  0.2987E-08  0.5180E-12  0.6561E-05  0.0000E+00 -0.8643E+12
   -2.612516    4.01322  0.7322E-12  0.2892E-08  0.7086E-12  0.3825E-05  0.0000E+00 -0.1588E+13
   -2.681262    4.01676  0.7322E-12  0.2074E-08  0.1607E-11  0.5744E-06  0.0000E+00 -0.1119E+14
   -2.750008    4.03486  0.7322E-12  0.0000E+00  0.0000E+00  0.0000E+00  0.0000E+00  0.0000E+00
