 1 - depth, m
 2 - temperature, C
 3 - salinity, kg/kg
 4 - turbulent kinetic energy, m**2/s**2
 5 - dissipation rate, m**2/s**3
 6 - kinematic heat conductance, m**2/s
 7 - modulus of horizontal velocity, m/s
 8 - Richardson number, n/d
   -0.000000   -0.00000  0.6248E-11  0.1219E-13  0.7603E-17  0.1000E-09  0.0000E+00  0.7594E+16
   -0.068746    0.11572  0.3713E-11  0.1219E-13  0.7603E-17  0.1000E-09  0.0000E+00  0.7294E+16
   -0.137492    0.23045  0.2684E-11  0.1219E-13  0.7603E-17  0.1000E-09  0.0000E+00  0.7023E+16
   -0.206239    0.34454  0.2339E-11  0.1219E-13  0.7603E-17  0.1000E-09  0.0000E+00  0.6775E+16
   -0.274987    0.45834  0.2240E-11  0.1219E-13  0.7603E-17  0.1000E-09  0.0000E+00  0.6548E+16
   -0.343735    0.57214  0.2216E-11  0.1219E-13  0.7603E-17  0.1000E-09  0.0000E+00  0.6338E+16
   -0.412483    0.68625  0.2210E-11  0.1219E-13  0.7603E-17  0.1000E-09  0.0000E+00  0.6143E+16
   -0.481232    0.80098  0.2209E-11  0.1219E-13  0.7603E-17  0.1000E-09  0.0000E+00  0.5960E+16
   -0.549982    0.91660  0.2209E-11  0.1219E-13  0.7603E-17  0.1000E-09  0.0000E+00  0.5785E+16
   -0.618732    1.03339  0.2209E-11  0.1219E-13  0.7603E-17  0.1000E-09  0.0000E+00  0.5615E+16
   -0.687482    1.15158  0.2209E-11  0.1219E-13  0.7603E-17  0.1000E-09  0.0000E+00  0.5459E+16
   -0.756233    1.27166  0.2209E-11  0.1219E-13  0.7603E-17  0.1000E-09  0.0000E+00  0.5307E+16
   -0.824984    1.39397  0.2209E-11  0.1219E-13  0.7603E-17  0.1000E-09  0.0000E+00  0.5149E+16
   -0.893735    1.51869  0.2209E-11  0.1219E-13  0.7603E-17  0.1000E-09  0.0000E+00  0.4982E+16
   -0.962486    1.64595  0.2208E-11  0.1537E-13  0.7603E-17  0.1000E-09  0.0000E+00  0.4804E+16
   -1.031238    1.77587  0.2207E-11  0.6667E-13  0.1073E-16  0.1000E-09  0.0000E+00  0.4612E+16
   -1.099990    1.90853  0.2205E-11  0.1859E-12  0.2408E-16  0.1000E-09  0.0000E+00  0.4404E+16
   -1.168742    2.04395  0.2200E-11  0.4575E-12  0.5586E-16  0.1000E-09  0.0000E+00  0.4179E+16
   -1.237494    2.18215  0.2193E-11  0.1083E-11  0.1279E-15  0.1000E-09  0.0000E+00  0.3935E+16
   -1.306246    2.32307  0.2184E-11  0.2517E-11  0.2892E-15  0.1000E-09  0.0000E+00  0.3672E+16
   -1.374999    2.46664  0.2174E-11  0.5781E-11  0.6467E-15  0.1000E-09  0.0000E+00  0.3392E+16
   -1.443751    2.61292  0.2165E-11  0.1314E-10  0.1431E-14  0.1000E-09  0.0000E+00  0.3093E+16
   -1.512503    2.76179  0.2159E-11  0.2955E-10  0.3137E-14  0.1000E-09  0.0000E+00  0.2773E+16
   -1.581255    2.91307  0.2155E-11  0.6581E-10  0.6808E-14  0.1000E-09  0.0000E+00  0.2434E+16
   -1.650007    3.06652  0.2153E-11  0.1452E-09  0.1464E-13  0.1000E-09  0.0000E+00  0.2077E+16
   -1.718759    3.22189  0.2151E-11  0.3171E-09  0.3119E-13  0.1000E-09  0.0000E+00  0.1706E+16
   -1.787511    3.37898  0.2150E-11  0.7026E-09  0.6738E-13  0.2561E-09  0.0000E+00  0.1339E+16
   -1.856262    3.53985  0.2147E-11  0.1569E-08  0.1468E-12  0.7913E-09  0.0000E+00  0.9440E+15
   -1.925013    3.70434  0.2144E-11  0.3496E-08  0.3192E-12  0.3124E-08  0.0000E+00  0.5199E+15
   -1.993764    3.87074  0.2142E-11  0.7630E-08  0.6817E-12  0.3458E-07  0.0000E+00  0.1000E+15
   -2.062515    4.01075  0.2142E-11  0.8563E-08  0.7694E-12  0.3944E-04  0.0000E+00 -0.2404E+12
   -2.131265    4.01137  0.2142E-11  0.8949E-08  0.8151E-12  0.3974E-04  0.0000E+00 -0.2447E+12
   -2.200015    4.01198  0.2142E-11  0.9250E-08  0.8637E-12  0.3917E-04  0.0000E+00 -0.2547E+12
   -2.268765    4.01261  0.2142E-11  0.9473E-08  0.9184E-12  0.3769E-04  0.0000E+00 -0.2717E+12
   -2.337514    4.01326  0.2142E-11  0.9622E-08  0.9865E-12  0.3511E-04  0.0000E+00 -0.2997E+12
   -2.406263    4.01396  0.2142E-11  0.9688E-08  0.1079E-11  0.3128E-04  0.0000E+00 -0.3466E+12
   -2.475011    4.01475  0.2142E-11  0.9647E-08  0.1218E-11  0.2595E-04  0.0000E+00 -0.4328E+12
   -2.543758    4.01570  0.2142E-11  0.9438E-08  0.1465E-11  0.1890E-04  0.0000E+00 -0.6220E+12
   -2.612505    4.01702  0.2142E-11  0.8866E-08  0.2067E-11  0.1009E-04  0.0000E+00 -0.1254E+13
   -2.681251    4.01953  0.2142E-11  0.6403E-08  0.5778E-11  0.1326E-05  0.0000E+00 -0.1240E+14
   -2.749997    4.03815  0.2142E-11  0.0000E+00  0.0000E+00  0.0000E+00  0.0000E+00  0.0000E+00
