 1 - depth, m
 2 - temperature, C
 3 - salinity, kg/kg
 4 - turbulent kinetic energy, m**2/s**2
 5 - dissipation rate, m**2/s**3
 6 - kinematic heat conductance, m**2/s
 7 - modulus of horizontal velocity, m/s
 8 - Richardson number, n/d
   -0.000000   -0.00000  0.2238E-10  0.1219E-13  0.7603E-17  0.1000E-09  0.0000E+00  0.4763E+16
   -0.068746    0.07214  0.1189E-10  0.1219E-13  0.7603E-17  0.1000E-09  0.0000E+00  0.4562E+16
   -0.137492    0.14261  0.9373E-11  0.1219E-13  0.7603E-17  0.1000E-09  0.0000E+00  0.4407E+16
   -0.206239    0.21202  0.8813E-11  0.1219E-13  0.7603E-17  0.1000E-09  0.0000E+00  0.4295E+16
   -0.274986    0.28098  0.8702E-11  0.1219E-13  0.7603E-17  0.1000E-09  0.0000E+00  0.4222E+16
   -0.343734    0.35014  0.8683E-11  0.1219E-13  0.7603E-17  0.1000E-09  0.0000E+00  0.4186E+16
   -0.412483    0.42012  0.8680E-11  0.1219E-13  0.7603E-17  0.1000E-09  0.0000E+00  0.4185E+16
   -0.481232    0.49155  0.8679E-11  0.1219E-13  0.7603E-17  0.1000E-09  0.0000E+00  0.4214E+16
   -0.549982    0.56509  0.8679E-11  0.1219E-13  0.7603E-17  0.1000E-09  0.0000E+00  0.4272E+16
   -0.618732    0.64138  0.8679E-11  0.1219E-13  0.7603E-17  0.1000E-09  0.0000E+00  0.4353E+16
   -0.687482    0.72107  0.8679E-11  0.1219E-13  0.7603E-17  0.1000E-09  0.0000E+00  0.4471E+16
   -0.756232    0.80510  0.8679E-11  0.1219E-13  0.7603E-17  0.1000E-09  0.0000E+00  0.4612E+16
   -0.824983    0.89430  0.8679E-11  0.1219E-13  0.7603E-17  0.1000E-09  0.0000E+00  0.4759E+16
   -0.893735    0.98927  0.8679E-11  0.1219E-13  0.7603E-17  0.1000E-09  0.0000E+00  0.4905E+16
   -0.962486    1.09059  0.8679E-11  0.1219E-13  0.7603E-17  0.1000E-09  0.0000E+00  0.5044E+16
   -1.031238    1.19880  0.8678E-11  0.1219E-13  0.7603E-17  0.1000E-09  0.0000E+00  0.5166E+16
   -1.099990    1.31439  0.8675E-11  0.1219E-13  0.7603E-17  0.1000E-09  0.0000E+00  0.5263E+16
   -1.168742    1.43780  0.8667E-11  0.4532E-13  0.9657E-17  0.1000E-09  0.0000E+00  0.5326E+16
   -1.237494    1.56937  0.8647E-11  0.1395E-12  0.2390E-16  0.1000E-09  0.0000E+00  0.5346E+16
   -1.306246    1.70937  0.8610E-11  0.3846E-12  0.6229E-16  0.1000E-09  0.0000E+00  0.5313E+16
   -1.374998    1.85799  0.8557E-11  0.1023E-11  0.1602E-15  0.1000E-09  0.0000E+00  0.5235E+16
   -1.443750    2.01576  0.8509E-11  0.2673E-11  0.4060E-15  0.1000E-09  0.0000E+00  0.5089E+16
   -1.512502    2.18279  0.8480E-11  0.6888E-11  0.1016E-14  0.1000E-09  0.0000E+00  0.4863E+16
   -1.581255    2.35887  0.8465E-11  0.1752E-10  0.2509E-14  0.1000E-09  0.0000E+00  0.4553E+16
   -1.650007    2.54363  0.8455E-11  0.4402E-10  0.6126E-14  0.1000E-09  0.0000E+00  0.4157E+16
   -1.718758    2.73657  0.8450E-11  0.1093E-09  0.1478E-13  0.1000E-09  0.0000E+00  0.3678E+16
   -1.787510    2.93712  0.8447E-11  0.2750E-09  0.3614E-13  0.1000E-09  0.0000E+00  0.3145E+16
   -1.856261    3.14648  0.8444E-11  0.6955E-09  0.8889E-13  0.1790E-09  0.0000E+00  0.2527E+16
   -1.925013    3.36468  0.8441E-11  0.1751E-08  0.2177E-12  0.6088E-09  0.0000E+00  0.1821E+16
   -1.993764    3.59149  0.8432E-11  0.4382E-08  0.5303E-12  0.2651E-08  0.0000E+00  0.1018E+16
   -2.062514    3.82356  0.8416E-11  0.1047E-07  0.1237E-11  0.3160E-07  0.0000E+00  0.1994E+15
   -2.131265    4.01920  0.8413E-11  0.1194E-07  0.1420E-11  0.4160E-04  0.0000E+00 -0.4208E+12
   -2.200015    4.02001  0.8413E-11  0.1253E-07  0.1515E-11  0.4183E-04  0.0000E+00 -0.4306E+12
   -2.268764    4.02081  0.8413E-11  0.1297E-07  0.1618E-11  0.4090E-04  0.0000E+00 -0.4533E+12
   -2.337513    4.02164  0.8413E-11  0.1329E-07  0.1742E-11  0.3868E-04  0.0000E+00 -0.4943E+12
   -2.406262    4.02252  0.8413E-11  0.1348E-07  0.1907E-11  0.3497E-04  0.0000E+00 -0.5657E+12
   -2.475010    4.02351  0.8413E-11  0.1351E-07  0.2152E-11  0.2950E-04  0.0000E+00 -0.6985E+12
   -2.543757    4.02469  0.8413E-11  0.1330E-07  0.2581E-11  0.2195E-04  0.0000E+00 -0.9906E+12
   -2.612504    4.02630  0.8413E-11  0.1259E-07  0.3607E-11  0.1216E-04  0.0000E+00 -0.1956E+13
   -2.681251    4.02931  0.8413E-11  0.9329E-08  0.9932E-11  0.1734E-05  0.0000E+00 -0.1892E+14
   -2.749996    4.05163  0.8413E-11  0.0000E+00  0.0000E+00  0.0000E+00  0.0000E+00  0.0000E+00
