 1 - depth, m
 2 - temperature, C
 3 - salinity, kg/kg
 4 - turbulent kinetic energy, m**2/s**2
 5 - dissipation rate, m**2/s**3
 6 - kinematic heat conductance, m**2/s
 7 - modulus of horizontal velocity, m/s
 8 - Richardson number, n/d
   -0.000000    8.57240  0.9626E-12  0.5751E-04  0.1076E-04  0.6255E-04  0.7026E-01 -0.3757E-01
   -0.068746    8.61001  0.9626E-12  0.3564E-04  0.2294E-05  0.9273E-04  0.3546E-01 -0.5013E-01
   -0.137492    8.61935  0.9626E-12  0.3055E-04  0.9326E-06  0.1367E-03  0.2847E-01 -0.1641E-01
   -0.206239    8.62545  0.9626E-12  0.2803E-04  0.5031E-06  0.1876E-03  0.2417E-01 -0.2300E-01
   -0.274987    8.62988  0.9626E-12  0.2654E-04  0.3247E-06  0.2434E-03  0.2111E-01 -0.3036E-01
   -0.343735    8.63323  0.9626E-12  0.2552E-04  0.2343E-06  0.3027E-03  0.1880E-01 -0.3838E-01
   -0.412484    8.63585  0.9627E-12  0.2475E-04  0.1814E-06  0.3644E-03  0.1699E-01 -0.4687E-01
   -0.481233    8.63797  0.9627E-12  0.2411E-04  0.1471E-06  0.4275E-03  0.1551E-01 -0.5570E-01
   -0.549983    8.63974  0.9627E-12  0.2357E-04  0.1232E-06  0.4914E-03  0.1427E-01 -0.6475E-01
   -0.618733    8.64124  0.9627E-12  0.2309E-04  0.1058E-06  0.5554E-03  0.1321E-01 -0.7392E-01
   -0.687483    8.64253  0.9627E-12  0.2267E-04  0.9260E-07  0.6195E-03  0.1229E-01 -0.8251E-01
   -0.756234    8.64367  0.9627E-12  0.2230E-04  0.8231E-07  0.6867E-03  0.1147E-01 -0.8279E-01
   -0.824985    8.64467  0.9627E-12  0.2196E-04  0.7413E-07  0.7809E-03  0.1075E-01  0.4927E-01
   -0.893737    8.64554  0.9627E-12  0.2166E-04  0.6754E-07  0.1012E-02  0.1009E-01  0.1378E+03
   -0.962488    8.64626  0.9627E-12  0.2139E-04  0.6218E-07  0.1231E-02  0.9488E-02  0.1379E+02
   -1.031240    8.64684  0.9627E-12  0.2115E-04  0.5772E-07  0.1492E-02  0.8932E-02  0.1714E+03
   -1.099992    8.64733  0.9627E-12  0.2092E-04  0.5396E-07  0.1688E-02  0.8410E-02  0.5349E+02
   -1.168744    8.64774  0.9627E-12  0.2071E-04  0.5075E-07  0.1844E-02  0.7910E-02  0.3525E+02
   -1.237496    8.64811  0.9627E-12  0.2050E-04  0.4797E-07  0.1944E-02  0.7427E-02  0.4566E+02
   -1.306249    8.64844  0.9627E-12  0.2028E-04  0.4553E-07  0.2009E-02  0.6957E-02  0.1320E+03
   -1.375001    8.64876  0.9627E-12  0.2006E-04  0.4338E-07  0.2043E-02  0.6496E-02  0.4717E+03
   -1.443753    8.64906  0.9627E-12  0.1983E-04  0.4146E-07  0.2065E-02  0.6043E-02  0.7515E+03
   -1.512506    8.64936  0.9627E-12  0.1957E-04  0.3973E-07  0.2081E-02  0.5595E-02  0.6512E+04
   -1.581258    8.64965  0.9627E-12  0.1929E-04  0.3816E-07  0.2086E-02  0.5152E-02  0.2815E+06
   -1.650010    8.64994  0.9627E-12  0.1898E-04  0.3672E-07  0.2088E-02  0.4709E-02  0.1119E+04
   -1.718762    8.65021  0.9627E-12  0.1863E-04  0.3535E-07  0.2065E-02  0.4268E-02  0.1682E+03
   -1.787514    8.65049  0.9627E-12  0.1821E-04  0.3400E-07  0.2090E-02  0.3822E-02  0.6021E+02
   -1.856265    8.65076  0.9627E-12  0.1775E-04  0.3271E-07  0.2086E-02  0.3425E-02  0.8906E+01
   -1.925017    8.65103  0.9627E-12  0.1725E-04  0.3151E-07  0.2075E-02  0.3068E-02  0.3448E+01
   -1.993768    8.65130  0.9627E-12  0.1673E-04  0.3044E-07  0.2056E-02  0.2748E-02  0.4551E+02
   -2.062519    8.65156  0.9627E-12  0.1620E-04  0.2960E-07  0.2022E-02  0.2458E-02  0.1824E+01
   -2.131269    8.65183  0.9627E-12  0.1568E-04  0.2902E-07  0.1980E-02  0.2186E-02  0.1221E+02
   -2.200019    8.65210  0.9627E-12  0.1517E-04  0.2876E-07  0.1933E-02  0.1929E-02  0.9973E+00
   -2.268769    8.65238  0.9627E-12  0.1468E-04  0.2887E-07  0.1895E-02  0.1686E-02  0.9694E+00
   -2.337518    8.65266  0.9627E-12  0.1418E-04  0.2947E-07  0.1874E-02  0.1463E-02  0.4965E+00
   -2.406267    8.65294  0.9627E-12  0.1370E-04  0.3075E-07  0.1721E-02  0.1263E-02  0.4103E+00
   -2.475015    8.65325  0.9627E-12  0.1323E-04  0.3300E-07  0.1488E-02  0.1088E-02  0.9178E+03
   -2.543763    8.65361  0.9627E-12  0.1267E-04  0.3753E-07  0.9478E-03  0.9424E-03  0.2365E+02
   -2.612510    8.65415  0.9627E-12  0.1178E-04  0.4995E-07  0.3927E-03  0.7819E-03  0.2383E+04
   -2.681256    8.65540  0.9627E-12  0.7093E-05  0.1779E-06  0.3508E-04  0.5978E-03 -0.1238E+05
   -2.750002    8.66927  0.9627E-12  0.0000E+00  0.0000E+00  0.0000E+00  0.5967E-03  0.0000E+00
