 1 - depth, m
 2 - temperature, C
 3 - salinity, kg/kg
 4 - turbulent kinetic energy, m**2/s**2
 5 - dissipation rate, m**2/s**3
 6 - kinematic heat conductance, m**2/s
 7 - modulus of horizontal velocity, m/s
 8 - Richardson number, n/d
   -0.000000   -0.00000  0.1897E-10  0.1219E-13  0.7603E-17  0.1000E-09  0.0000E+00  0.7444E+16
   -0.068746    0.11340  0.1119E-10  0.1219E-13  0.7603E-17  0.1000E-09  0.0000E+00  0.7149E+16
   -0.137492    0.22573  0.8076E-11  0.1219E-13  0.7603E-17  0.1000E-09  0.0000E+00  0.6882E+16
   -0.206239    0.33736  0.7024E-11  0.1219E-13  0.7603E-17  0.1000E-09  0.0000E+00  0.6639E+16
   -0.274987    0.44859  0.6722E-11  0.1219E-13  0.7603E-17  0.1000E-09  0.0000E+00  0.6417E+16
   -0.343735    0.55975  0.6647E-11  0.1219E-13  0.7603E-17  0.1000E-09  0.0000E+00  0.6213E+16
   -0.412483    0.67113  0.6630E-11  0.1219E-13  0.7603E-17  0.1000E-09  0.0000E+00  0.6023E+16
   -0.481232    0.78301  0.6627E-11  0.1219E-13  0.7603E-17  0.1000E-09  0.0000E+00  0.5844E+16
   -0.549982    0.89565  0.6626E-11  0.1219E-13  0.7603E-17  0.1000E-09  0.0000E+00  0.5674E+16
   -0.618732    1.00932  0.6626E-11  0.1219E-13  0.7603E-17  0.1000E-09  0.0000E+00  0.5511E+16
   -0.687482    1.12425  0.6626E-11  0.1219E-13  0.7603E-17  0.1000E-09  0.0000E+00  0.5360E+16
   -0.756233    1.24088  0.6626E-11  0.1219E-13  0.7603E-17  0.1000E-09  0.0000E+00  0.5215E+16
   -0.824984    1.35954  0.6625E-11  0.1219E-13  0.7603E-17  0.1000E-09  0.0000E+00  0.5065E+16
   -0.893735    1.48042  0.6625E-11  0.1219E-13  0.7603E-17  0.1000E-09  0.0000E+00  0.4908E+16
   -0.962487    1.60364  0.6623E-11  0.1219E-13  0.7603E-17  0.1000E-09  0.0000E+00  0.4741E+16
   -1.031238    1.72931  0.6619E-11  0.1219E-13  0.7603E-17  0.1000E-09  0.0000E+00  0.4562E+16
   -1.099990    1.85751  0.6610E-11  0.2860E-13  0.7603E-17  0.1000E-09  0.0000E+00  0.4369E+16
   -1.168742    1.98829  0.6594E-11  0.9320E-13  0.1439E-16  0.1000E-09  0.0000E+00  0.4162E+16
   -1.237494    2.12165  0.6570E-11  0.2489E-12  0.3432E-16  0.1000E-09  0.0000E+00  0.3937E+16
   -1.306246    2.25756  0.6540E-11  0.6219E-12  0.8218E-16  0.1000E-09  0.0000E+00  0.3695E+16
   -1.374999    2.39598  0.6509E-11  0.1515E-11  0.1942E-15  0.1000E-09  0.0000E+00  0.3439E+16
   -1.443751    2.53697  0.6483E-11  0.3636E-11  0.4530E-15  0.1000E-09  0.0000E+00  0.3165E+16
   -1.512503    2.68046  0.6466E-11  0.8623E-11  0.1045E-14  0.1000E-09  0.0000E+00  0.2872E+16
   -1.581255    2.82627  0.6455E-11  0.2022E-10  0.2385E-14  0.1000E-09  0.0000E+00  0.2561E+16
   -1.650007    2.97420  0.6448E-11  0.4690E-10  0.5384E-14  0.1000E-09  0.0000E+00  0.2232E+16
   -1.718759    3.12401  0.6444E-11  0.1076E-09  0.1203E-13  0.1000E-09  0.0000E+00  0.1890E+16
   -1.787511    3.27551  0.6441E-11  0.2505E-09  0.2725E-13  0.1000E-09  0.0000E+00  0.1554E+16
   -1.856262    3.43065  0.6438E-11  0.5869E-09  0.6220E-13  0.2651E-09  0.0000E+00  0.1194E+16
   -1.925013    3.58949  0.6432E-11  0.1371E-08  0.1416E-12  0.8928E-09  0.0000E+00  0.8070E+15
   -1.993764    3.75187  0.6424E-11  0.3186E-08  0.3209E-12  0.4173E-08  0.0000E+00  0.3910E+15
   -2.062515    3.91437  0.6421E-11  0.6867E-08  0.6787E-12  0.9783E-07  0.0000E+00  0.3488E+14
   -2.131265    4.01323  0.6421E-11  0.7913E-08  0.7872E-12  0.3368E-04  0.0000E+00 -0.2973E+12
   -2.200015    4.01393  0.6421E-11  0.8335E-08  0.8434E-12  0.3383E-04  0.0000E+00 -0.3039E+12
   -2.268765    4.01462  0.6421E-11  0.8652E-08  0.9033E-12  0.3303E-04  0.0000E+00 -0.3196E+12
   -2.337514    4.01533  0.6421E-11  0.8878E-08  0.9747E-12  0.3117E-04  0.0000E+00 -0.3483E+12
   -2.406263    4.01609  0.6421E-11  0.9009E-08  0.1068E-11  0.2810E-04  0.0000E+00 -0.3985E+12
   -2.475011    4.01693  0.6421E-11  0.9023E-08  0.1206E-11  0.2358E-04  0.0000E+00 -0.4925E+12
   -2.543758    4.01794  0.6421E-11  0.8865E-08  0.1448E-11  0.1738E-04  0.0000E+00 -0.7009E+12
   -2.612505    4.01933  0.6421E-11  0.8348E-08  0.2030E-11  0.9410E-05  0.0000E+00 -0.1400E+13
   -2.681252    4.02193  0.6421E-11  0.6072E-08  0.5528E-11  0.1293E-05  0.0000E+00 -0.1339E+14
   -2.749997    4.04089  0.6421E-11  0.0000E+00  0.0000E+00  0.0000E+00  0.0000E+00  0.0000E+00
