 1 - depth, m
 2 - temperature, C
 3 - salinity, kg/kg
 4 - turbulent kinetic energy, m**2/s**2
 5 - dissipation rate, m**2/s**3
 6 - kinematic heat conductance, m**2/s
 7 - modulus of horizontal velocity, m/s
 8 - Richardson number, n/d
   -0.000000   -0.00000  0.2043E-10  0.1219E-13  0.7603E-17  0.1000E-09  0.0000E+00  0.3893E+16
   -0.068746    0.05886  0.1118E-10  0.1219E-13  0.7603E-17  0.1000E-09  0.0000E+00  0.3690E+16
   -0.137492    0.11554  0.9186E-11  0.1219E-13  0.7603E-17  0.1000E-09  0.0000E+00  0.3522E+16
   -0.206239    0.17047  0.8768E-11  0.1219E-13  0.7603E-17  0.1000E-09  0.0000E+00  0.3391E+16
   -0.274986    0.22417  0.8693E-11  0.1219E-13  0.7603E-17  0.1000E-09  0.0000E+00  0.3298E+16
   -0.343735    0.27720  0.8681E-11  0.1219E-13  0.7603E-17  0.1000E-09  0.0000E+00  0.3244E+16
   -0.412483    0.33016  0.8679E-11  0.1219E-13  0.7603E-17  0.1000E-09  0.0000E+00  0.3231E+16
   -0.481232    0.38372  0.8679E-11  0.1219E-13  0.7603E-17  0.1000E-09  0.0000E+00  0.3258E+16
   -0.549982    0.43860  0.8679E-11  0.1219E-13  0.7603E-17  0.1000E-09  0.0000E+00  0.3327E+16
   -0.618732    0.49559  0.8679E-11  0.1219E-13  0.7603E-17  0.1000E-09  0.0000E+00  0.3437E+16
   -0.687482    0.55552  0.8679E-11  0.1219E-13  0.7603E-17  0.1000E-09  0.0000E+00  0.3603E+16
   -0.756233    0.61955  0.8679E-11  0.1219E-13  0.7603E-17  0.1000E-09  0.0000E+00  0.3815E+16
   -0.824984    0.68878  0.8679E-11  0.1219E-13  0.7603E-17  0.1000E-09  0.0000E+00  0.4057E+16
   -0.893735    0.76412  0.8679E-11  0.1219E-13  0.7603E-17  0.1000E-09  0.0000E+00  0.4323E+16
   -0.962486    0.84651  0.8679E-11  0.1219E-13  0.7603E-17  0.1000E-09  0.0000E+00  0.4605E+16
   -1.031238    0.93686  0.8679E-11  0.1219E-13  0.7603E-17  0.1000E-09  0.0000E+00  0.4892E+16
   -1.099990    1.03603  0.8678E-11  0.1219E-13  0.7603E-17  0.1000E-09  0.0000E+00  0.5173E+16
   -1.168742    1.14484  0.8673E-11  0.1219E-13  0.7603E-17  0.1000E-09  0.0000E+00  0.5433E+16
   -1.237494    1.26403  0.8658E-11  0.1708E-13  0.7969E-17  0.1000E-09  0.0000E+00  0.5657E+16
   -1.306246    1.39421  0.8624E-11  0.6137E-13  0.1378E-16  0.1000E-09  0.0000E+00  0.5828E+16
   -1.374998    1.53589  0.8568E-11  0.1995E-12  0.3926E-16  0.1000E-09  0.0000E+00  0.5957E+16
   -1.443750    1.69010  0.8512E-11  0.6046E-12  0.1134E-15  0.1000E-09  0.0000E+00  0.6003E+16
   -1.512503    1.85723  0.8481E-11  0.1777E-11  0.3210E-15  0.1000E-09  0.0000E+00  0.5942E+16
   -1.581255    2.03727  0.8466E-11  0.5111E-11  0.8903E-15  0.1000E-09  0.0000E+00  0.5761E+16
   -1.650007    2.22997  0.8456E-11  0.1440E-10  0.2422E-14  0.1000E-09  0.0000E+00  0.5452E+16
   -1.718758    2.43492  0.8450E-11  0.3979E-10  0.6463E-14  0.1000E-09  0.0000E+00  0.5010E+16
   -1.787510    2.65147  0.8447E-11  0.1108E-09  0.1739E-13  0.1000E-09  0.0000E+00  0.4435E+16
   -1.856262    2.87884  0.8445E-11  0.3075E-09  0.4672E-13  0.1002E-09  0.0000E+00  0.3756E+16
   -1.925013    3.11770  0.8443E-11  0.8438E-09  0.1242E-12  0.2129E-09  0.0000E+00  0.2970E+16
   -1.993764    3.37014  0.8440E-11  0.2288E-08  0.3265E-12  0.8098E-09  0.0000E+00  0.2051E+16
   -2.062514    3.64060  0.8428E-11  0.5974E-08  0.8279E-12  0.4721E-08  0.0000E+00  0.9015E+15
   -2.131265    3.93001  0.8410E-11  0.1137E-07  0.1603E-11  0.7813E-05  0.0000E+00  0.3305E+14
   -2.200015    4.01811  0.8409E-11  0.1300E-07  0.1857E-11  0.3729E-04  0.0000E+00 -0.5861E+12
   -2.268764    4.01941  0.8409E-11  0.1371E-07  0.2006E-11  0.3733E-04  0.0000E+00 -0.6068E+12
   -2.337513    4.02069  0.8409E-11  0.1424E-07  0.2173E-11  0.3596E-04  0.0000E+00 -0.6520E+12
   -2.406262    4.02199  0.8409E-11  0.1458E-07  0.2384E-11  0.3302E-04  0.0000E+00 -0.7356E+12
   -2.475010    4.02339  0.8409E-11  0.1472E-07  0.2688E-11  0.2827E-04  0.0000E+00 -0.8960E+12
   -2.543757    4.02502  0.8409E-11  0.1456E-07  0.3210E-11  0.2135E-04  0.0000E+00 -0.1254E+13
   -2.612504    4.02716  0.8409E-11  0.1384E-07  0.4448E-11  0.1208E-04  0.0000E+00 -0.2447E+13
   -2.681251    4.03102  0.8409E-11  0.1034E-07  0.1202E-10  0.1831E-05  0.0000E+00 -0.2329E+14
   -2.749996    4.05718  0.8409E-11  0.0000E+00  0.0000E+00  0.0000E+00  0.0000E+00  0.0000E+00
