 1 - depth, m
 2 - temperature, C
 3 - salinity, kg/kg
 4 - turbulent kinetic energy, m**2/s**2
 5 - dissipation rate, m**2/s**3
 6 - kinematic heat conductance, m**2/s
 7 - modulus of horizontal velocity, m/s
 8 - Richardson number, n/d
   -0.000000   -0.00000  0.2173E-12  0.1219E-13  0.7603E-17  0.1000E-09  0.0000E+00  0.6965E+16
   -0.068746    0.10599  0.1153E-11  0.1219E-13  0.7603E-17  0.1000E-09  0.0000E+00  0.6873E+16
   -0.137493    0.21369  0.1903E-11  0.1219E-13  0.7603E-17  0.1000E-09  0.0000E+00  0.6766E+16
   -0.206240    0.32302  0.2236E-11  0.1219E-13  0.7603E-17  0.1000E-09  0.0000E+00  0.6644E+16
   -0.274988    0.43384  0.2263E-11  0.1219E-13  0.7603E-17  0.1000E-09  0.0000E+00  0.6507E+16
   -0.343736    0.54606  0.2145E-11  0.1219E-13  0.7603E-17  0.1000E-09  0.0000E+00  0.6355E+16
   -0.412485    0.65954  0.1994E-11  0.1219E-13  0.7603E-17  0.1000E-09  0.0000E+00  0.6190E+16
   -0.481234    0.77415  0.1867E-11  0.1219E-13  0.7603E-17  0.1000E-09  0.0000E+00  0.6012E+16
   -0.549984    0.88975  0.1780E-11  0.1219E-13  0.7603E-17  0.1000E-09  0.0000E+00  0.5823E+16
   -0.618734    1.00620  0.1729E-11  0.1219E-13  0.7603E-17  0.1000E-09  0.0000E+00  0.5623E+16
   -0.687485    1.12338  0.1702E-11  0.1219E-13  0.7603E-17  0.1000E-09  0.0000E+00  0.5414E+16
   -0.756236    1.24117  0.1688E-11  0.1219E-13  0.7603E-17  0.1000E-09  0.0000E+00  0.5197E+16
   -0.824987    1.35944  0.1682E-11  0.1219E-13  0.7603E-17  0.1000E-09  0.0000E+00  0.4974E+16
   -0.893738    1.47810  0.1679E-11  0.1219E-13  0.7603E-17  0.1000E-09  0.0000E+00  0.4746E+16
   -0.962490    1.59704  0.1677E-11  0.1219E-13  0.7603E-17  0.1000E-09  0.0000E+00  0.4513E+16
   -1.031242    1.71616  0.1676E-11  0.1219E-13  0.7603E-17  0.1000E-09  0.0000E+00  0.4278E+16
   -1.099994    1.83537  0.1674E-11  0.1219E-13  0.7603E-17  0.1000E-09  0.0000E+00  0.4040E+16
   -1.168747    1.95461  0.1671E-11  0.1219E-13  0.7603E-17  0.1000E-09  0.0000E+00  0.3800E+16
   -1.237499    2.07379  0.1668E-11  0.1219E-13  0.7603E-17  0.1000E-09  0.0000E+00  0.3561E+16
   -1.306251    2.19288  0.1664E-11  0.1219E-13  0.7603E-17  0.1000E-09  0.0000E+00  0.3321E+16
   -1.375004    2.31180  0.1659E-11  0.1219E-13  0.7603E-17  0.1000E-09  0.0000E+00  0.3083E+16
   -1.443756    2.43056  0.1655E-11  0.1219E-13  0.7603E-17  0.1000E-09  0.0000E+00  0.2846E+16
   -1.512509    2.54911  0.1650E-11  0.1219E-13  0.7603E-17  0.1000E-09  0.0000E+00  0.2611E+16
   -1.581261    2.66745  0.1646E-11  0.1219E-13  0.7603E-17  0.1000E-09  0.0000E+00  0.2378E+16
   -1.650014    2.78556  0.1642E-11  0.3528E-13  0.7945E-17  0.1000E-09  0.0000E+00  0.2147E+16
   -1.718766    2.90343  0.1639E-11  0.1086E-12  0.1878E-16  0.1000E-09  0.0000E+00  0.1917E+16
   -1.787518    3.02100  0.1636E-11  0.3086E-12  0.5004E-16  0.1000E-09  0.0000E+00  0.1666E+16
   -1.856269    3.13655  0.1634E-11  0.8573E-12  0.1341E-15  0.1000E-09  0.0000E+00  0.1423E+16
   -1.925021    3.24964  0.1633E-11  0.2351E-11  0.3565E-15  0.1000E-09  0.0000E+00  0.1188E+16
   -1.993772    3.35974  0.1631E-11  0.6396E-11  0.9411E-15  0.1000E-09  0.0000E+00  0.9698E+15
   -2.062523    3.46680  0.1630E-11  0.1686E-10  0.2409E-14  0.1000E-09  0.0000E+00  0.7846E+15
   -2.131274    3.57344  0.1630E-11  0.4381E-10  0.6080E-14  0.1000E-09  0.0000E+00  0.6036E+15
   -2.200024    3.67999  0.1629E-11  0.1127E-09  0.1519E-13  0.1822E-09  0.0000E+00  0.4238E+15
   -2.268774    3.78644  0.1629E-11  0.2894E-09  0.3792E-13  0.7877E-09  0.0000E+00  0.2445E+15
   -2.337523    3.89244  0.1629E-11  0.7482E-09  0.9539E-13  0.7022E-08  0.0000E+00  0.6861E+14
   -2.406272    3.99403  0.1629E-11  0.1414E-08  0.1805E-12  0.4441E-05  0.0000E+00 -0.4787E+12
   -2.475020    3.99731  0.1629E-11  0.1719E-08  0.2410E-12  0.4882E-05  0.0000E+00 -0.5757E+12
   -2.543768    4.00026  0.1629E-11  0.1900E-08  0.3203E-12  0.4247E-05  0.0000E+00 -0.8128E+12
   -2.612515    4.00359  0.1629E-11  0.1903E-08  0.4706E-12  0.2558E-05  0.0000E+00 -0.1642E+13
   -2.681262    4.00885  0.1629E-11  0.1449E-08  0.1082E-11  0.4539E-06  0.0000E+00 -0.1146E+14
   -2.750008    4.03071  0.1629E-11  0.0000E+00  0.0000E+00  0.0000E+00  0.0000E+00  0.0000E+00
