 1 - depth, m
 2 - temperature, C
 3 - salinity, kg/kg
 4 - turbulent kinetic energy, m**2/s**2
 5 - dissipation rate, m**2/s**3
 6 - kinematic heat conductance, m**2/s
 7 - modulus of horizontal velocity, m/s
 8 - Richardson number, n/d
   -0.000000   -0.00000  0.4809E-17  0.1219E-13  0.7603E-17  0.1000E-09  0.0000E+00  0.4416E+16
   -0.068746    0.06684  0.3285E-19  0.1219E-13  0.7603E-17  0.1000E-09  0.0000E+00  0.4529E+16
   -0.137493    0.13668  0.4193E-12  0.1219E-13  0.7603E-17  0.1000E-09  0.0000E+00  0.4657E+16
   -0.206240    0.20993  0.2221E-11  0.1219E-13  0.7603E-17  0.1000E-09  0.0000E+00  0.4795E+16
   -0.274988    0.28697  0.4677E-11  0.1219E-13  0.7603E-17  0.1000E-09  0.0000E+00  0.4929E+16
   -0.343737    0.36799  0.6782E-11  0.1219E-13  0.7603E-17  0.1000E-09  0.0000E+00  0.5048E+16
   -0.412486    0.45301  0.8018E-11  0.1219E-13  0.7603E-17  0.1000E-09  0.0000E+00  0.5142E+16
   -0.481236    0.54189  0.8411E-11  0.1219E-13  0.7603E-17  0.1000E-09  0.0000E+00  0.5203E+16
   -0.549986    0.63438  0.8257E-11  0.1219E-13  0.7603E-17  0.1000E-09  0.0000E+00  0.5230E+16
   -0.618736    0.73015  0.7869E-11  0.1219E-13  0.7603E-17  0.1000E-09  0.0000E+00  0.5223E+16
   -0.687487    0.82885  0.7461E-11  0.1219E-13  0.7603E-17  0.1000E-09  0.0000E+00  0.5180E+16
   -0.756238    0.93005  0.7134E-11  0.1219E-13  0.7603E-17  0.1000E-09  0.0000E+00  0.5106E+16
   -0.824990    1.03337  0.6910E-11  0.1219E-13  0.7603E-17  0.1000E-09  0.0000E+00  0.5008E+16
   -0.893741    1.13855  0.6773E-11  0.1219E-13  0.7603E-17  0.1000E-09  0.0000E+00  0.4891E+16
   -0.962493    1.24534  0.6697E-11  0.1219E-13  0.7603E-17  0.1000E-09  0.0000E+00  0.4757E+16
   -1.031245    1.35356  0.6656E-11  0.1219E-13  0.7603E-17  0.1000E-09  0.0000E+00  0.4610E+16
   -1.099998    1.46307  0.6635E-11  0.1219E-13  0.7603E-17  0.1000E-09  0.0000E+00  0.4453E+16
   -1.168750    1.57376  0.6623E-11  0.1219E-13  0.7603E-17  0.1000E-09  0.0000E+00  0.4289E+16
   -1.237503    1.68561  0.6613E-11  0.1219E-13  0.7603E-17  0.1000E-09  0.0000E+00  0.4119E+16
   -1.306256    1.79863  0.6603E-11  0.1219E-13  0.7603E-17  0.1000E-09  0.0000E+00  0.3946E+16
   -1.375008    1.91288  0.6591E-11  0.1219E-13  0.7603E-17  0.1000E-09  0.0000E+00  0.3772E+16
   -1.443761    2.02854  0.6577E-11  0.1219E-13  0.7603E-17  0.1000E-09  0.0000E+00  0.3596E+16
   -1.512514    2.14580  0.6560E-11  0.1219E-13  0.7603E-17  0.1000E-09  0.0000E+00  0.3417E+16
   -1.581266    2.26484  0.6542E-11  0.1219E-13  0.7603E-17  0.1000E-09  0.0000E+00  0.3233E+16
   -1.650019    2.38583  0.6523E-11  0.1219E-13  0.7603E-17  0.1000E-09  0.0000E+00  0.3041E+16
   -1.718771    2.50893  0.6505E-11  0.1219E-13  0.7603E-17  0.1000E-09  0.0000E+00  0.2836E+16
   -1.787523    2.63403  0.6489E-11  0.1219E-13  0.7603E-17  0.1000E-09  0.0000E+00  0.2535E+16
   -1.856275    2.75683  0.6475E-11  0.1219E-13  0.7603E-17  0.1000E-09  0.0000E+00  0.2233E+16
   -1.925027    2.87647  0.6464E-11  0.1219E-13  0.7603E-17  0.1000E-09  0.0000E+00  0.1935E+16
   -1.993778    2.99190  0.6455E-11  0.1219E-13  0.7603E-17  0.1000E-09  0.0000E+00  0.1663E+16
   -2.062530    3.10331  0.6447E-11  0.1219E-13  0.7603E-17  0.1000E-09  0.0000E+00  0.1471E+16
   -2.131280    3.21541  0.6441E-11  0.2445E-13  0.1241E-16  0.1000E-09  0.0000E+00  0.1284E+16
   -2.200031    3.32893  0.6436E-11  0.1193E-12  0.5647E-16  0.1000E-09  0.0000E+00  0.1093E+16
   -2.268781    3.44415  0.6432E-11  0.6007E-12  0.2726E-15  0.1000E-09  0.0000E+00  0.8902E+15
   -2.337530    3.56070  0.6429E-11  0.3017E-11  0.1315E-14  0.1000E-09  0.0000E+00  0.6796E+15
   -2.406279    3.67828  0.6426E-11  0.1500E-10  0.6289E-14  0.1000E-09  0.0000E+00  0.4629E+15
   -2.475028    3.79651  0.6425E-11  0.7425E-10  0.3002E-13  0.6128E-09  0.0000E+00  0.2420E+15
   -2.543776    3.91425  0.6423E-11  0.3644E-09  0.1429E-12  0.1833E-07  0.0000E+00  0.3306E+14
   -2.612524    4.01757  0.6423E-11  0.1501E-08  0.6099E-12  0.1602E-05  0.0000E+00 -0.5006E+13
   -2.681270    4.02652  0.6423E-11  0.1341E-08  0.1137E-11  0.4246E-06  0.0000E+00 -0.1673E+14
   -2.750017    4.04758  0.6423E-11  0.0000E+00  0.0000E+00  0.0000E+00  0.0000E+00  0.0000E+00
