 1 - depth, m
 2 - temperature, C
 3 - salinity, kg/kg
 4 - turbulent kinetic energy, m**2/s**2
 5 - dissipation rate, m**2/s**3
 6 - kinematic heat conductance, m**2/s
 7 - modulus of horizontal velocity, m/s
 8 - Richardson number, n/d
   -0.000000   -0.00000  0.9726E-13  0.1219E-13  0.7603E-17  0.1000E-09  0.0000E+00  0.6865E+16
   -0.068746    0.10444  0.7016E-12  0.1219E-13  0.7603E-17  0.1000E-09  0.0000E+00  0.6785E+16
   -0.137493    0.21070  0.1298E-11  0.1219E-13  0.7603E-17  0.1000E-09  0.0000E+00  0.6691E+16
   -0.206240    0.31871  0.1635E-11  0.1219E-13  0.7603E-17  0.1000E-09  0.0000E+00  0.6581E+16
   -0.274988    0.42833  0.1724E-11  0.1219E-13  0.7603E-17  0.1000E-09  0.0000E+00  0.6455E+16
   -0.343736    0.53945  0.1669E-11  0.1219E-13  0.7603E-17  0.1000E-09  0.0000E+00  0.6313E+16
   -0.412485    0.65192  0.1564E-11  0.1219E-13  0.7603E-17  0.1000E-09  0.0000E+00  0.6156E+16
   -0.481234    0.76560  0.1463E-11  0.1219E-13  0.7603E-17  0.1000E-09  0.0000E+00  0.5987E+16
   -0.549984    0.88037  0.1388E-11  0.1219E-13  0.7603E-17  0.1000E-09  0.0000E+00  0.5806E+16
   -0.618734    0.99609  0.1341E-11  0.1219E-13  0.7603E-17  0.1000E-09  0.0000E+00  0.5614E+16
   -0.687485    1.11265  0.1315E-11  0.1219E-13  0.7603E-17  0.1000E-09  0.0000E+00  0.5412E+16
   -0.756236    1.22992  0.1301E-11  0.1219E-13  0.7603E-17  0.1000E-09  0.0000E+00  0.5203E+16
   -0.824987    1.34780  0.1295E-11  0.1219E-13  0.7603E-17  0.1000E-09  0.0000E+00  0.4987E+16
   -0.893738    1.46618  0.1292E-11  0.1219E-13  0.7603E-17  0.1000E-09  0.0000E+00  0.4764E+16
   -0.962490    1.58497  0.1290E-11  0.1219E-13  0.7603E-17  0.1000E-09  0.0000E+00  0.4537E+16
   -1.031242    1.70406  0.1289E-11  0.1219E-13  0.7603E-17  0.1000E-09  0.0000E+00  0.4306E+16
   -1.099994    1.82339  0.1287E-11  0.1219E-13  0.7603E-17  0.1000E-09  0.0000E+00  0.4071E+16
   -1.168747    1.94286  0.1285E-11  0.1219E-13  0.7603E-17  0.1000E-09  0.0000E+00  0.3835E+16
   -1.237499    2.06240  0.1283E-11  0.1219E-13  0.7603E-17  0.1000E-09  0.0000E+00  0.3597E+16
   -1.306251    2.18196  0.1280E-11  0.1219E-13  0.7603E-17  0.1000E-09  0.0000E+00  0.3359E+16
   -1.375004    2.30149  0.1276E-11  0.1219E-13  0.7603E-17  0.1000E-09  0.0000E+00  0.3121E+16
   -1.443756    2.42094  0.1273E-11  0.1219E-13  0.7603E-17  0.1000E-09  0.0000E+00  0.2884E+16
   -1.512509    2.54031  0.1269E-11  0.1219E-13  0.7603E-17  0.1000E-09  0.0000E+00  0.2648E+16
   -1.581261    2.65955  0.1266E-11  0.1219E-13  0.7603E-17  0.1000E-09  0.0000E+00  0.2413E+16
   -1.650014    2.77867  0.1263E-11  0.3764E-13  0.8365E-17  0.1000E-09  0.0000E+00  0.2179E+16
   -1.718766    2.89765  0.1260E-11  0.1160E-12  0.2014E-16  0.1000E-09  0.0000E+00  0.1947E+16
   -1.787518    3.01642  0.1258E-11  0.3304E-12  0.5390E-16  0.1000E-09  0.0000E+00  0.1690E+16
   -1.856269    3.13304  0.1257E-11  0.9207E-12  0.1449E-15  0.1000E-09  0.0000E+00  0.1440E+16
   -1.925021    3.24706  0.1255E-11  0.2533E-11  0.3866E-15  0.1000E-09  0.0000E+00  0.1200E+16
   -1.993772    3.35786  0.1254E-11  0.6914E-11  0.1024E-14  0.1000E-09  0.0000E+00  0.9770E+15
   -2.062523    3.46540  0.1254E-11  0.1828E-10  0.2628E-14  0.1000E-09  0.0000E+00  0.7903E+15
   -2.131274    3.57256  0.1253E-11  0.4765E-10  0.6652E-14  0.1000E-09  0.0000E+00  0.6079E+15
   -2.200024    3.67968  0.1253E-11  0.1229E-09  0.1667E-13  0.1987E-09  0.0000E+00  0.4263E+15
   -2.268774    3.78677  0.1252E-11  0.3166E-09  0.4172E-13  0.8649E-09  0.0000E+00  0.2449E+15
   -2.337523    3.89347  0.1252E-11  0.8203E-09  0.1052E-12  0.7930E-08  0.0000E+00  0.6695E+14
   -2.406272    3.99523  0.1252E-11  0.1524E-08  0.1958E-12  0.4880E-05  0.0000E+00 -0.4907E+12
   -2.475020    3.99824  0.1252E-11  0.1830E-08  0.2572E-12  0.5225E-05  0.0000E+00 -0.5803E+12
   -2.543768    4.00103  0.1252E-11  0.2006E-08  0.3373E-12  0.4497E-05  0.0000E+00 -0.8090E+12
   -2.612515    4.00420  0.1252E-11  0.1996E-08  0.4902E-12  0.2689E-05  0.0000E+00 -0.1615E+13
   -2.681262    4.00925  0.1252E-11  0.1504E-08  0.1125E-11  0.4647E-06  0.0000E+00 -0.1135E+14
   -2.750008    4.03076  0.1252E-11  0.0000E+00  0.0000E+00  0.0000E+00  0.0000E+00  0.0000E+00
