 1 - depth, m
 2 - temperature, C
 3 - salinity, kg/kg
 4 - turbulent kinetic energy, m**2/s**2
 5 - dissipation rate, m**2/s**3
 6 - kinematic heat conductance, m**2/s
 7 - modulus of horizontal velocity, m/s
 8 - Richardson number, n/d
   -0.000000   -0.00000  0.9760E-10  0.1219E-13  0.7603E-17  0.1000E-09  0.0000E+00  0.6631E+16
   -0.068746    0.10083  0.5589E-10  0.1219E-13  0.7603E-17  0.1000E-09  0.0000E+00  0.6383E+16
   -0.137492    0.20061  0.4041E-10  0.1219E-13  0.7603E-17  0.1000E-09  0.0000E+00  0.6158E+16
   -0.206239    0.29960  0.3545E-10  0.1219E-13  0.7603E-17  0.1000E-09  0.0000E+00  0.5955E+16
   -0.274987    0.39808  0.3412E-10  0.1219E-13  0.7603E-17  0.1000E-09  0.0000E+00  0.5771E+16
   -0.343735    0.49634  0.3381E-10  0.1219E-13  0.7603E-17  0.1000E-09  0.0000E+00  0.5605E+16
   -0.412483    0.59467  0.3374E-10  0.1219E-13  0.7603E-17  0.1000E-09  0.0000E+00  0.5455E+16
   -0.481232    0.69333  0.3373E-10  0.1219E-13  0.7603E-17  0.1000E-09  0.0000E+00  0.5316E+16
   -0.549982    0.79260  0.3373E-10  0.1219E-13  0.7603E-17  0.1000E-09  0.0000E+00  0.5188E+16
   -0.618732    0.89269  0.3373E-10  0.1219E-13  0.7603E-17  0.1000E-09  0.0000E+00  0.5066E+16
   -0.687482    0.99385  0.3373E-10  0.1219E-13  0.7603E-17  0.1000E-09  0.0000E+00  0.4960E+16
   -0.756233    1.09650  0.3373E-10  0.1219E-13  0.7603E-17  0.1000E-09  0.0000E+00  0.4861E+16
   -0.824984    1.20095  0.3373E-10  0.1219E-13  0.7603E-17  0.1000E-09  0.0000E+00  0.4760E+16
   -0.893735    1.30736  0.3372E-10  0.1219E-13  0.7603E-17  0.1000E-09  0.0000E+00  0.4653E+16
   -0.962487    1.41584  0.3371E-10  0.1219E-13  0.7603E-17  0.1000E-09  0.0000E+00  0.4540E+16
   -1.031238    1.52648  0.3369E-10  0.1219E-13  0.7603E-17  0.1000E-09  0.0000E+00  0.4417E+16
   -1.099990    1.63936  0.3364E-10  0.1219E-13  0.7603E-17  0.1000E-09  0.0000E+00  0.4284E+16
   -1.168742    1.75449  0.3355E-10  0.1219E-13  0.7603E-17  0.1000E-09  0.0000E+00  0.4138E+16
   -1.237494    1.87188  0.3341E-10  0.1219E-13  0.7603E-17  0.1000E-09  0.0000E+00  0.3979E+16
   -1.306247    1.99148  0.3324E-10  0.1219E-13  0.7603E-17  0.1000E-09  0.0000E+00  0.3804E+16
   -1.374999    2.11322  0.3307E-10  0.1219E-13  0.7603E-17  0.1000E-09  0.0000E+00  0.3620E+16
   -1.443751    2.23718  0.3294E-10  0.1219E-13  0.7603E-17  0.1000E-09  0.0000E+00  0.3421E+16
   -1.512503    2.36327  0.3285E-10  0.1219E-13  0.7603E-17  0.1000E-09  0.0000E+00  0.3206E+16
   -1.581255    2.49131  0.3280E-10  0.4615E-13  0.9752E-17  0.1000E-09  0.0000E+00  0.2974E+16
   -1.650007    2.62108  0.3276E-10  0.1414E-12  0.2405E-16  0.1000E-09  0.0000E+00  0.2728E+16
   -1.718759    2.75235  0.3274E-10  0.3875E-12  0.6228E-16  0.1000E-09  0.0000E+00  0.2469E+16
   -1.787511    2.88486  0.3273E-10  0.1052E-11  0.1633E-15  0.1000E-09  0.0000E+00  0.2215E+16
   -1.856262    3.01937  0.3272E-10  0.2848E-11  0.4286E-15  0.1000E-09  0.0000E+00  0.1949E+16
   -1.925014    3.15583  0.3271E-10  0.7656E-11  0.1118E-14  0.1000E-09  0.0000E+00  0.1671E+16
   -1.993765    3.29427  0.3270E-10  0.2044E-10  0.2898E-14  0.1000E-09  0.0000E+00  0.1378E+16
   -2.062515    3.43428  0.3268E-10  0.5291E-10  0.7289E-14  0.1000E-09  0.0000E+00  0.1067E+16
   -2.131266    3.57455  0.3265E-10  0.1351E-09  0.1808E-13  0.1219E-09  0.0000E+00  0.7539E+15
   -2.200016    3.71462  0.3262E-10  0.3414E-09  0.4443E-13  0.5108E-09  0.0000E+00  0.4420E+15
   -2.268765    3.85375  0.3260E-10  0.8604E-09  0.1089E-12  0.4008E-08  0.0000E+00  0.1377E+15
   -2.337514    3.98904  0.3260E-10  0.1613E-08  0.2042E-12  0.3826E-05  0.0000E+00 -0.4032E+12
   -2.406263    3.99401  0.3260E-10  0.2073E-08  0.2895E-12  0.5306E-05  0.0000E+00 -0.5440E+12
   -2.475011    3.99766  0.3260E-10  0.2447E-08  0.3996E-12  0.5437E-05  0.0000E+00 -0.7498E+12
   -2.543759    4.00130  0.3260E-10  0.2727E-08  0.5719E-12  0.4540E-05  0.0000E+00 -0.1212E+13
   -2.612506    4.00578  0.3260E-10  0.2861E-08  0.9469E-12  0.2751E-05  0.0000E+00 -0.2867E+13
   -2.681252    4.01361  0.3260E-10  0.2644E-08  0.2542E-11  0.7495E-06  0.0000E+00 -0.2177E+14
   -2.749998    4.04569  0.3260E-10  0.0000E+00  0.0000E+00  0.0000E+00  0.0000E+00  0.0000E+00
