 1 - depth, m
 2 - temperature, C
 3 - salinity, kg/kg
 4 - turbulent kinetic energy, m**2/s**2
 5 - dissipation rate, m**2/s**3
 6 - kinematic heat conductance, m**2/s
 7 - modulus of horizontal velocity, m/s
 8 - Richardson number, n/d
   -0.000000   -0.00000  0.1431E-09  0.1219E-13  0.7603E-17  0.1000E-09  0.0000E+00  0.4319E+16
   -0.068746    0.06537  0.7675E-10  0.1219E-13  0.7603E-17  0.1000E-09  0.0000E+00  0.4151E+16
   -0.137492    0.12931  0.6064E-10  0.1219E-13  0.7603E-17  0.1000E-09  0.0000E+00  0.4015E+16
   -0.206239    0.19225  0.5709E-10  0.1219E-13  0.7603E-17  0.1000E-09  0.0000E+00  0.3911E+16
   -0.274986    0.25465  0.5639E-10  0.1219E-13  0.7603E-17  0.1000E-09  0.0000E+00  0.3836E+16
   -0.343735    0.31695  0.5626E-10  0.1219E-13  0.7603E-17  0.1000E-09  0.0000E+00  0.3791E+16
   -0.412483    0.37963  0.5624E-10  0.1219E-13  0.7603E-17  0.1000E-09  0.0000E+00  0.3772E+16
   -0.481232    0.44316  0.5624E-10  0.1219E-13  0.7603E-17  0.1000E-09  0.0000E+00  0.3778E+16
   -0.549982    0.50804  0.5624E-10  0.1219E-13  0.7603E-17  0.1000E-09  0.0000E+00  0.3806E+16
   -0.618732    0.57472  0.5624E-10  0.1219E-13  0.7603E-17  0.1000E-09  0.0000E+00  0.3854E+16
   -0.687482    0.64368  0.5624E-10  0.1219E-13  0.7603E-17  0.1000E-09  0.0000E+00  0.3934E+16
   -0.756233    0.71565  0.5624E-10  0.1219E-13  0.7603E-17  0.1000E-09  0.0000E+00  0.4034E+16
   -0.824984    0.79123  0.5624E-10  0.1219E-13  0.7603E-17  0.1000E-09  0.0000E+00  0.4142E+16
   -0.893735    0.87084  0.5624E-10  0.1219E-13  0.7603E-17  0.1000E-09  0.0000E+00  0.4252E+16
   -0.962486    0.95486  0.5624E-10  0.1219E-13  0.7603E-17  0.1000E-09  0.0000E+00  0.4360E+16
   -1.031238    1.04363  0.5624E-10  0.1219E-13  0.7603E-17  0.1000E-09  0.0000E+00  0.4460E+16
   -1.099990    1.13745  0.5623E-10  0.1219E-13  0.7603E-17  0.1000E-09  0.0000E+00  0.4547E+16
   -1.168742    1.23655  0.5622E-10  0.1219E-13  0.7603E-17  0.1000E-09  0.0000E+00  0.4616E+16
   -1.237494    1.34112  0.5618E-10  0.1219E-13  0.7603E-17  0.1000E-09  0.0000E+00  0.4660E+16
   -1.306246    1.45127  0.5608E-10  0.1219E-13  0.7603E-17  0.1000E-09  0.0000E+00  0.4676E+16
   -1.374998    1.56705  0.5590E-10  0.1219E-13  0.7603E-17  0.1000E-09  0.0000E+00  0.4672E+16
   -1.443751    1.68878  0.5564E-10  0.1219E-13  0.7603E-17  0.1000E-09  0.0000E+00  0.4632E+16
   -1.512503    1.81648  0.5538E-10  0.1219E-13  0.7603E-17  0.1000E-09  0.0000E+00  0.4547E+16
   -1.581255    1.94992  0.5521E-10  0.1219E-13  0.7603E-17  0.1000E-09  0.0000E+00  0.4416E+16
   -1.650007    2.08880  0.5513E-10  0.1219E-13  0.7603E-17  0.1000E-09  0.0000E+00  0.4238E+16
   -1.718759    2.23271  0.5509E-10  0.1219E-13  0.7603E-17  0.1000E-09  0.0000E+00  0.4010E+16
   -1.787510    2.38111  0.5506E-10  0.1219E-13  0.7603E-17  0.1000E-09  0.0000E+00  0.3711E+16
   -1.856262    2.53225  0.5505E-10  0.1219E-13  0.7603E-17  0.1000E-09  0.0000E+00  0.3383E+16
   -1.925013    2.68565  0.5504E-10  0.3046E-13  0.1102E-16  0.1000E-09  0.0000E+00  0.3031E+16
   -1.993764    2.84077  0.5503E-10  0.1244E-12  0.3973E-16  0.1000E-09  0.0000E+00  0.2660E+16
   -2.062515    2.99720  0.5500E-10  0.4841E-12  0.1477E-15  0.1000E-09  0.0000E+00  0.2294E+16
   -2.131265    3.15588  0.5496E-10  0.1835E-11  0.5388E-15  0.1000E-09  0.0000E+00  0.1910E+16
   -2.200015    3.31651  0.5487E-10  0.6826E-11  0.1930E-14  0.1000E-09  0.0000E+00  0.1509E+16
   -2.268764    3.47857  0.5475E-10  0.2519E-10  0.6863E-14  0.1000E-09  0.0000E+00  0.1099E+16
   -2.337513    3.64219  0.5459E-10  0.9320E-10  0.2449E-13  0.1826E-09  0.0000E+00  0.6793E+15
   -2.406262    3.80726  0.5447E-10  0.3430E-09  0.8701E-13  0.1752E-08  0.0000E+00  0.2500E+15
   -2.475010    3.97205  0.5445E-10  0.1138E-08  0.2825E-12  0.6521E-06  0.0000E+00 -0.4005E+12
   -2.543758    4.00232  0.5445E-10  0.2347E-08  0.7428E-12  0.2715E-05  0.0000E+00 -0.2826E+13
   -2.612505    4.01115  0.5445E-10  0.3066E-08  0.1415E-11  0.2221E-05  0.0000E+00 -0.5730E+13
   -2.681251    4.02304  0.5445E-10  0.3432E-08  0.3871E-11  0.8983E-06  0.0000E+00 -0.3175E+14
   -2.749997    4.05983  0.5445E-10  0.0000E+00  0.0000E+00  0.0000E+00  0.0000E+00  0.0000E+00
