 1 - depth, m
 2 - temperature, C
 3 - salinity, kg/kg
 4 - turbulent kinetic energy, m**2/s**2
 5 - dissipation rate, m**2/s**3
 6 - kinematic heat conductance, m**2/s
 7 - modulus of horizontal velocity, m/s
 8 - Richardson number, n/d
   -0.000000    9.29000  0.2847E-11  0.1543E-04  0.7496E-06  0.3461E-04  0.2748E-01 -0.2306E-01
   -0.068746    9.32585  0.2847E-11  0.1441E-04  0.2571E-06  0.9082E-04  0.1791E-01 -0.6033E-01
   -0.137492    9.33872  0.2847E-11  0.1383E-04  0.1462E-06  0.1540E-03  0.1446E-01 -0.1015E+00
   -0.206239    9.34606  0.2847E-11  0.1342E-04  0.9970E-07  0.2251E-03  0.1244E-01 -0.1475E+00
   -0.274987    9.35091  0.2847E-11  0.1312E-04  0.7479E-07  0.3066E-03  0.1108E-01 -0.1860E+00
   -0.343735    9.35437  0.2847E-11  0.1290E-04  0.5966E-07  0.4532E-03  0.1008E-01  0.3497E+00
   -0.412484    9.35671  0.2847E-11  0.1276E-04  0.5014E-07  0.8534E-03  0.9322E-02  0.7685E+02
   -0.481233    9.35806  0.2847E-11  0.1270E-04  0.4376E-07  0.1079E-02  0.8764E-02  0.1943E+02
   -0.549983    9.35902  0.2847E-11  0.1269E-04  0.3897E-07  0.1217E-02  0.8261E-02  0.1557E+02
   -0.618733    9.35982  0.2847E-11  0.1272E-04  0.3522E-07  0.1307E-02  0.7800E-02  0.5191E+02
   -0.687483    9.36053  0.2847E-11  0.1276E-04  0.3217E-07  0.1366E-02  0.7365E-02  0.1064E+02
   -0.756234    9.36119  0.2847E-11  0.1280E-04  0.2965E-07  0.1423E-02  0.6952E-02  0.1139E+02
   -0.824985    9.36182  0.2847E-11  0.1285E-04  0.2754E-07  0.1478E-02  0.6557E-02  0.1204E+02
   -0.893736    9.36241  0.2847E-11  0.1289E-04  0.2574E-07  0.1530E-02  0.6177E-02  0.1272E+02
   -0.962488    9.36297  0.2847E-11  0.1292E-04  0.2420E-07  0.1580E-02  0.5811E-02  0.1343E+02
   -1.031240    9.36350  0.2847E-11  0.1294E-04  0.2287E-07  0.1628E-02  0.5456E-02  0.1420E+02
   -1.099992    9.36402  0.2847E-11  0.1294E-04  0.2172E-07  0.1672E-02  0.5110E-02  0.1506E+02
   -1.168744    9.36451  0.2847E-11  0.1292E-04  0.2070E-07  0.1712E-02  0.4772E-02  0.1605E+02
   -1.237496    9.36498  0.2847E-11  0.1288E-04  0.1981E-07  0.1747E-02  0.4440E-02  0.1724E+02
   -1.306248    9.36543  0.2847E-11  0.1282E-04  0.1903E-07  0.1776E-02  0.4114E-02  0.1875E+02
   -1.375001    9.36588  0.2847E-11  0.1273E-04  0.1833E-07  0.1798E-02  0.3792E-02  0.2071E+02
   -1.443753    9.36631  0.2847E-11  0.1261E-04  0.1771E-07  0.1811E-02  0.3473E-02  0.2352E+02
   -1.512505    9.36673  0.2847E-11  0.1246E-04  0.1716E-07  0.1814E-02  0.3157E-02  0.2785E+02
   -1.581258    9.36715  0.2847E-11  0.1228E-04  0.1668E-07  0.1805E-02  0.2843E-02  0.3578E+02
   -1.650010    9.36757  0.2847E-11  0.1206E-04  0.1624E-07  0.1788E-02  0.2529E-02  0.5465E+02
   -1.718762    9.36798  0.2847E-11  0.1180E-04  0.1585E-07  0.1748E-02  0.2215E-02  0.1103E+03
   -1.787514    9.36840  0.2847E-11  0.1149E-04  0.1550E-07  0.1746E-02  0.1900E-02  0.9574E+01
   -1.856265    9.36882  0.2847E-11  0.1114E-04  0.1521E-07  0.1743E-02  0.1630E-02  0.4321E+01
   -1.925017    9.36923  0.2847E-11  0.1077E-04  0.1502E-07  0.1757E-02  0.1400E-02  0.2537E+01
   -1.993768    9.36964  0.2847E-11  0.1039E-04  0.1496E-07  0.1789E-02  0.1207E-02  0.1790E+01
   -2.062518    9.37004  0.2847E-11  0.1002E-04  0.1506E-07  0.1817E-02  0.1045E-02  0.1455E+01
   -2.131269    9.37043  0.2847E-11  0.9671E-05  0.1534E-07  0.1762E-02  0.9022E-03  0.1191E+01
   -2.200019    9.37083  0.2847E-11  0.9344E-05  0.1581E-07  0.1660E-02  0.7760E-03  0.9780E+00
   -2.268769    9.37126  0.2847E-11  0.9045E-05  0.1651E-07  0.1522E-02  0.6654E-03  0.7638E+00
   -2.337518    9.37172  0.2847E-11  0.8769E-05  0.1750E-07  0.1365E-02  0.5727E-03  0.6117E+00
   -2.406266    9.37224  0.2847E-11  0.8505E-05  0.1892E-07  0.1233E-02  0.4972E-03  0.6513E+00
   -2.475015    9.37280  0.2847E-11  0.8219E-05  0.2133E-07  0.1039E-02  0.4336E-03  0.7468E+01
   -2.543762    9.37351  0.2847E-11  0.7842E-05  0.2613E-07  0.9157E-03  0.3727E-03  0.1337E+03
   -2.612509    9.37441  0.2847E-11  0.7127E-05  0.4100E-07  0.4719E-03  0.3143E-03  0.6777E+03
   -2.681256    9.37750  0.2847E-11  0.4313E-05  0.1505E-06  0.6646E-04  0.2167E-03 -0.7234E+04
   -2.750002    9.38908  0.2847E-11  0.0000E+00  0.0000E+00  0.0000E+00  0.2414E-03  0.0000E+00
