 1 - depth, m
 2 - temperature, C
 3 - salinity, kg/kg
 4 - turbulent kinetic energy, m**2/s**2
 5 - dissipation rate, m**2/s**3
 6 - kinematic heat conductance, m**2/s
 7 - modulus of horizontal velocity, m/s
 8 - Richardson number, n/d
   -0.000000   13.05157  0.5716E-12  0.1375E-04  0.5810E-06  0.3247E-04  0.2673E-01 -0.1212E-01
   -0.068746   13.06226  0.5716E-12  0.1300E-04  0.2135E-06  0.8031E-04  0.1779E-01 -0.2702E-01
   -0.137492   13.06583  0.5716E-12  0.1244E-04  0.1252E-06  0.1273E-03  0.1434E-01 -0.3902E-01
   -0.206239   13.06772  0.5716E-12  0.1197E-04  0.8644E-07  0.1738E-03  0.1223E-01 -0.4934E-01
   -0.274987   13.06890  0.5716E-12  0.1158E-04  0.6492E-07  0.2202E-03  0.1073E-01 -0.5904E-01
   -0.343735   13.06972  0.5716E-12  0.1125E-04  0.5134E-07  0.2674E-03  0.9581E-02 -0.6924E-01
   -0.412484   13.07032  0.5716E-12  0.1097E-04  0.4210E-07  0.3164E-03  0.8661E-02 -0.8063E-01
   -0.481233   13.07079  0.5716E-12  0.1074E-04  0.3550E-07  0.3708E-03  0.7903E-02 -0.8496E-01
   -0.549983   13.07117  0.5716E-12  0.1055E-04  0.3065E-07  0.4553E-03  0.7266E-02  0.1570E+00
   -0.618733   13.07148  0.5716E-12  0.1041E-04  0.2703E-07  0.6198E-03  0.6726E-02  0.1421E+02
   -0.687483   13.07172  0.5716E-12  0.1031E-04  0.2430E-07  0.7495E-03  0.6266E-02  0.6965E+01
   -0.756234   13.07194  0.5716E-12  0.1024E-04  0.2218E-07  0.8644E-03  0.5862E-02  0.4351E+02
   -0.824985   13.07214  0.5716E-12  0.1020E-04  0.2053E-07  0.1032E-02  0.5499E-02  0.4362E+02
   -0.893737   13.07232  0.5716E-12  0.1019E-04  0.1923E-07  0.1311E-02  0.5172E-02  0.7796E+02
   -0.962488   13.07248  0.5716E-12  0.1019E-04  0.1821E-07  0.1608E-02  0.4871E-02  0.8513E+01
   -1.031240   13.07262  0.5716E-12  0.1021E-04  0.1737E-07  0.1564E-02  0.4584E-02  0.1074E+02
   -1.099992   13.07278  0.5716E-12  0.1024E-04  0.1665E-07  0.1581E-02  0.4290E-02  0.1385E+02
   -1.168744   13.07295  0.5716E-12  0.1027E-04  0.1605E-07  0.1577E-02  0.3999E-02  0.1823E+02
   -1.237496   13.07313  0.5716E-12  0.1030E-04  0.1555E-07  0.1573E-02  0.3705E-02  0.2553E+02
   -1.306249   13.07333  0.5716E-12  0.1031E-04  0.1512E-07  0.1574E-02  0.3407E-02  0.3910E+02
   -1.375001   13.07354  0.5716E-12  0.1030E-04  0.1475E-07  0.1544E-02  0.3105E-02  0.7651E+02
   -1.443753   13.07377  0.5716E-12  0.1027E-04  0.1442E-07  0.1582E-02  0.2791E-02  0.2093E+03
   -1.512506   13.07402  0.5716E-12  0.1019E-04  0.1411E-07  0.1455E-02  0.2486E-02  0.7391E+05
   -1.581258   13.07431  0.5716E-12  0.1009E-04  0.1388E-07  0.2390E-02  0.2121E-02  0.7559E+01
   -1.650010   13.07450  0.5716E-12  0.1001E-04  0.1377E-07  0.2184E-02  0.1960E-02  0.1214E+02
   -1.718762   13.07471  0.5716E-12  0.9903E-05  0.1370E-07  0.2018E-02  0.1773E-02  0.1237E+02
   -1.787514   13.07497  0.5716E-12  0.9775E-05  0.1367E-07  0.2112E-02  0.1565E-02  0.5297E+01
   -1.856265   13.07521  0.5716E-12  0.9632E-05  0.1370E-07  0.2135E-02  0.1396E-02  0.3565E+01
   -1.925017   13.07546  0.5716E-12  0.9484E-05  0.1381E-07  0.2014E-02  0.1239E-02  0.2101E+01
   -1.993768   13.07572  0.5716E-12  0.9333E-05  0.1400E-07  0.2140E-02  0.1124E-02  0.1800E+01
   -2.062519   13.07598  0.5716E-12  0.9200E-05  0.1427E-07  0.1864E-02  0.1016E-02  0.1806E+01
   -2.131269   13.07628  0.5716E-12  0.9029E-05  0.1476E-07  0.1391E-02  0.9427E-03  0.1815E+01
   -2.200019   13.07671  0.5716E-12  0.8837E-05  0.1543E-07  0.1726E-02  0.7550E-03  0.1310E+01
   -2.268769   13.07706  0.5716E-12  0.8696E-05  0.1609E-07  0.1407E-02  0.6872E-03  0.5957E+01
   -2.337518   13.07750  0.5716E-12  0.8509E-05  0.1722E-07  0.1337E-02  0.6207E-03  0.9894E+00
   -2.406267   13.07798  0.5716E-12  0.8264E-05  0.1912E-07  0.1122E-02  0.5247E-03  0.8497E+00
   -2.475015   13.07857  0.5716E-12  0.8003E-05  0.2192E-07  0.9546E-03  0.4541E-03  0.2197E+01
   -2.543763   13.07930  0.5716E-12  0.7649E-05  0.2717E-07  0.8157E-03  0.3855E-03  0.5641E+01
   -2.612510   13.08017  0.5716E-12  0.6987E-05  0.4276E-07  0.4892E-03  0.3212E-03  0.3522E+02
   -2.681256   13.08290  0.5716E-12  0.4468E-05  0.1466E-06  0.6929E-04  0.2223E-03 -0.1023E+04
   -2.750002   13.09649  0.5716E-12  0.0000E+00  0.0000E+00  0.0000E+00  0.2470E-03  0.0000E+00
