 1 - depth, m
 2 - temperature, C
 3 - salinity, kg/kg
 4 - turbulent kinetic energy, m**2/s**2
 5 - dissipation rate, m**2/s**3
 6 - kinematic heat conductance, m**2/s
 7 - modulus of horizontal velocity, m/s
 8 - Richardson number, n/d
   -0.000000   -0.00000  0.2725E-11  0.1219E-13  0.7603E-17  0.1000E-09  0.0000E+00  0.6991E+16
   -0.068746    0.10639  0.1609E-11  0.1219E-13  0.7603E-17  0.1000E-09  0.0000E+00  0.6721E+16
   -0.137492    0.21168  0.1168E-11  0.1219E-13  0.7603E-17  0.1000E-09  0.0000E+00  0.6483E+16
   -0.206239    0.31630  0.1031E-11  0.1219E-13  0.7603E-17  0.1000E-09  0.0000E+00  0.6275E+16
   -0.274987    0.42067  0.9953E-12  0.1219E-13  0.7603E-17  0.1000E-09  0.0000E+00  0.6092E+16
   -0.343735    0.52521  0.9873E-12  0.1219E-13  0.7603E-17  0.1000E-09  0.0000E+00  0.5932E+16
   -0.412483    0.63030  0.9857E-12  0.1219E-13  0.7603E-17  0.1000E-09  0.0000E+00  0.5789E+16
   -0.481232    0.73634  0.9854E-12  0.1219E-13  0.7603E-17  0.1000E-09  0.0000E+00  0.5661E+16
   -0.549982    0.84369  0.9853E-12  0.1219E-13  0.7603E-17  0.1000E-09  0.0000E+00  0.5544E+16
   -0.618732    0.95270  0.9853E-12  0.1219E-13  0.7603E-17  0.1000E-09  0.0000E+00  0.5434E+16
   -0.687482    1.06368  0.9853E-12  0.1219E-13  0.7603E-17  0.1000E-09  0.0000E+00  0.5338E+16
   -0.756233    1.17720  0.9853E-12  0.1219E-13  0.7603E-17  0.1000E-09  0.0000E+00  0.5248E+16
   -0.824984    1.29368  0.9853E-12  0.1219E-13  0.7603E-17  0.1000E-09  0.0000E+00  0.5150E+16
   -0.893735    1.41336  0.9852E-12  0.1219E-13  0.7603E-17  0.1000E-09  0.0000E+00  0.5043E+16
   -0.962486    1.53646  0.9850E-12  0.1794E-13  0.7603E-17  0.1000E-09  0.0000E+00  0.4922E+16
   -1.031238    1.66316  0.9844E-12  0.7180E-13  0.1078E-16  0.1000E-09  0.0000E+00  0.4784E+16
   -1.099990    1.79358  0.9832E-12  0.1939E-12  0.2355E-16  0.1000E-09  0.0000E+00  0.4626E+16
   -1.168742    1.92784  0.9807E-12  0.4650E-12  0.5321E-16  0.1000E-09  0.0000E+00  0.4444E+16
   -1.237494    2.06597  0.9768E-12  0.1073E-11  0.1188E-15  0.1000E-09  0.0000E+00  0.4238E+16
   -1.306246    2.20798  0.9719E-12  0.2432E-11  0.2622E-15  0.1000E-09  0.0000E+00  0.4004E+16
   -1.374999    2.35383  0.9669E-12  0.5452E-11  0.5728E-15  0.1000E-09  0.0000E+00  0.3747E+16
   -1.443751    2.50361  0.9630E-12  0.1210E-10  0.1239E-14  0.1000E-09  0.0000E+00  0.3460E+16
   -1.512503    2.65725  0.9605E-12  0.2659E-10  0.2656E-14  0.1000E-09  0.0000E+00  0.3143E+16
   -1.581255    2.81453  0.9589E-12  0.5790E-10  0.5642E-14  0.1000E-09  0.0000E+00  0.2795E+16
   -1.650007    2.97517  0.9579E-12  0.1250E-09  0.1188E-13  0.1000E-09  0.0000E+00  0.2418E+16
   -1.718759    3.13884  0.9572E-12  0.2673E-09  0.2480E-13  0.1000E-09  0.0000E+00  0.2017E+16
   -1.787511    3.30525  0.9568E-12  0.5801E-09  0.5253E-13  0.1658E-09  0.0000E+00  0.1613E+16
   -1.856262    3.47650  0.9562E-12  0.1270E-08  0.1123E-12  0.4881E-09  0.0000E+00  0.1171E+16
   -1.925013    3.65251  0.9552E-12  0.2778E-08  0.2399E-12  0.1769E-08  0.0000E+00  0.6901E+15
   -1.993764    3.83244  0.9540E-12  0.6022E-08  0.5085E-12  0.1408E-07  0.0000E+00  0.1836E+15
   -2.062515    4.00263  0.9537E-12  0.6863E-08  0.5831E-12  0.3241E-04  0.0000E+00 -0.2122E+12
   -2.131265    4.00344  0.9537E-12  0.7220E-08  0.6231E-12  0.3317E-04  0.0000E+00 -0.2178E+12
   -2.200015    4.00423  0.9537E-12  0.7507E-08  0.6659E-12  0.3308E-04  0.0000E+00 -0.2288E+12
   -2.268765    4.00503  0.9537E-12  0.7727E-08  0.7145E-12  0.3211E-04  0.0000E+00 -0.2467E+12
   -2.337514    4.00585  0.9536E-12  0.7885E-08  0.7748E-12  0.3012E-04  0.0000E+00 -0.2756E+12
   -2.406262    4.00673  0.9536E-12  0.7975E-08  0.8558E-12  0.2697E-04  0.0000E+00 -0.3236E+12
   -2.475011    4.00772  0.9536E-12  0.7973E-08  0.9776E-12  0.2242E-04  0.0000E+00 -0.4116E+12
   -2.543758    4.00891  0.9536E-12  0.7828E-08  0.1193E-11  0.1632E-04  0.0000E+00 -0.6070E+12
   -2.612505    4.01057  0.9536E-12  0.7368E-08  0.1714E-11  0.8659E-05  0.0000E+00 -0.1277E+13
   -2.681251    4.01372  0.9536E-12  0.5380E-08  0.4809E-11  0.1196E-05  0.0000E+00 -0.1342E+14
   -2.749997    4.03596  0.9536E-12  0.0000E+00  0.0000E+00  0.0000E+00  0.0000E+00  0.0000E+00
