 1 - depth, m
 2 - temperature, C
 3 - salinity, kg/kg
 4 - turbulent kinetic energy, m**2/s**2
 5 - dissipation rate, m**2/s**3
 6 - kinematic heat conductance, m**2/s
 7 - modulus of horizontal velocity, m/s
 8 - Richardson number, n/d
   -0.000000   -0.00000  0.1981E-09  0.1219E-13  0.7603E-17  0.1000E-09  0.0000E+00  0.4895E+16
   -0.068746    0.07416  0.1090E-09  0.1219E-13  0.7603E-17  0.1000E-09  0.0000E+00  0.4724E+16
   -0.137492    0.14720  0.8216E-10  0.1219E-13  0.7603E-17  0.1000E-09  0.0000E+00  0.4581E+16
   -0.206239    0.21945  0.7529E-10  0.1219E-13  0.7603E-17  0.1000E-09  0.0000E+00  0.4462E+16
   -0.274986    0.29128  0.7376E-10  0.1219E-13  0.7603E-17  0.1000E-09  0.0000E+00  0.4366E+16
   -0.343735    0.36303  0.7346E-10  0.1219E-13  0.7603E-17  0.1000E-09  0.0000E+00  0.4289E+16
   -0.412483    0.43502  0.7340E-10  0.1219E-13  0.7603E-17  0.1000E-09  0.0000E+00  0.4231E+16
   -0.481232    0.50758  0.7339E-10  0.1219E-13  0.7603E-17  0.1000E-09  0.0000E+00  0.4188E+16
   -0.549982    0.58102  0.7339E-10  0.1219E-13  0.7603E-17  0.1000E-09  0.0000E+00  0.4158E+16
   -0.618732    0.65562  0.7339E-10  0.1219E-13  0.7603E-17  0.1000E-09  0.0000E+00  0.4138E+16
   -0.687482    0.73167  0.7339E-10  0.1219E-13  0.7603E-17  0.1000E-09  0.0000E+00  0.4139E+16
   -0.756233    0.80965  0.7339E-10  0.1219E-13  0.7603E-17  0.1000E-09  0.0000E+00  0.4151E+16
   -0.824984    0.88994  0.7339E-10  0.1219E-13  0.7603E-17  0.1000E-09  0.0000E+00  0.4164E+16
   -0.893735    0.97275  0.7339E-10  0.1219E-13  0.7603E-17  0.1000E-09  0.0000E+00  0.4175E+16
   -0.962486    1.05824  0.7339E-10  0.1219E-13  0.7603E-17  0.1000E-09  0.0000E+00  0.4180E+16
   -1.031238    1.14654  0.7339E-10  0.1219E-13  0.7603E-17  0.1000E-09  0.0000E+00  0.4177E+16
   -1.099990    1.23775  0.7337E-10  0.1219E-13  0.7603E-17  0.1000E-09  0.0000E+00  0.4163E+16
   -1.168742    1.33194  0.7334E-10  0.1219E-13  0.7603E-17  0.1000E-09  0.0000E+00  0.4137E+16
   -1.237494    1.42910  0.7325E-10  0.1219E-13  0.7603E-17  0.1000E-09  0.0000E+00  0.4094E+16
   -1.306246    1.52922  0.7309E-10  0.1219E-13  0.7603E-17  0.1000E-09  0.0000E+00  0.4034E+16
   -1.374998    1.63221  0.7283E-10  0.1219E-13  0.7603E-17  0.1000E-09  0.0000E+00  0.3965E+16
   -1.443751    1.73819  0.7250E-10  0.1219E-13  0.7603E-17  0.1000E-09  0.0000E+00  0.3876E+16
   -1.512503    1.84708  0.7220E-10  0.1219E-13  0.7603E-17  0.1000E-09  0.0000E+00  0.3765E+16
   -1.581255    1.95865  0.7200E-10  0.1219E-13  0.7603E-17  0.1000E-09  0.0000E+00  0.3631E+16
   -1.650007    2.07262  0.7189E-10  0.1219E-13  0.7603E-17  0.1000E-09  0.0000E+00  0.3475E+16
   -1.718759    2.18866  0.7184E-10  0.1219E-13  0.7603E-17  0.1000E-09  0.0000E+00  0.3298E+16
   -1.787510    2.30642  0.7181E-10  0.1219E-13  0.7603E-17  0.1000E-09  0.0000E+00  0.3114E+16
   -1.856262    2.42597  0.7179E-10  0.1219E-13  0.7603E-17  0.1000E-09  0.0000E+00  0.2914E+16
   -1.925013    2.54708  0.7177E-10  0.1219E-13  0.7603E-17  0.1000E-09  0.0000E+00  0.2703E+16
   -1.993764    2.66957  0.7175E-10  0.1219E-13  0.7603E-17  0.1000E-09  0.0000E+00  0.2477E+16
   -2.062515    2.79305  0.7171E-10  0.1219E-13  0.7603E-17  0.1000E-09  0.0000E+00  0.2246E+16
   -2.131265    2.91754  0.7163E-10  0.1219E-13  0.7603E-17  0.1000E-09  0.0000E+00  0.2008E+16
   -2.200015    3.04290  0.7150E-10  0.1219E-13  0.7603E-17  0.1000E-09  0.0000E+00  0.1762E+16
   -2.268764    3.16890  0.7133E-10  0.1219E-13  0.7603E-17  0.1000E-09  0.0000E+00  0.1522E+16
   -2.337514    3.29626  0.7115E-10  0.1580E-13  0.1747E-16  0.1000E-09  0.0000E+00  0.1279E+16
   -2.406262    3.42557  0.7101E-10  0.1390E-12  0.1550E-15  0.1000E-09  0.0000E+00  0.1032E+16
   -2.475010    3.55764  0.7093E-10  0.1365E-11  0.1479E-14  0.1000E-09  0.0000E+00  0.7752E+15
   -2.543758    3.69416  0.7091E-10  0.1340E-10  0.1417E-13  0.1314E-09  0.0000E+00  0.4985E+15
   -2.612505    3.83822  0.7090E-10  0.1349E-09  0.1414E-12  0.3278E-08  0.0000E+00  0.1712E+15
   -2.681251    3.99632  0.7090E-10  0.1384E-08  0.1539E-11  0.4344E-06  0.0000E+00 -0.3403E+14
   -2.749997    4.05302  0.7090E-10  0.0000E+00  0.0000E+00  0.0000E+00  0.0000E+00  0.0000E+00
