 1 - depth, m
 2 - temperature, C
 3 - salinity, kg/kg
 4 - turbulent kinetic energy, m**2/s**2
 5 - dissipation rate, m**2/s**3
 6 - kinematic heat conductance, m**2/s
 7 - modulus of horizontal velocity, m/s
 8 - Richardson number, n/d
   -0.000000   -0.00000  0.5260E-18  0.1218E-13  0.7603E-17  0.1000E-09  0.0000E+00  0.4488E+16
   -0.068747    0.06795  0.0000E+00  0.1218E-13  0.7603E-17  0.1000E-09  0.0000E+00  0.4654E+16
   -0.137494    0.13976  0.2270E-13  0.1218E-13  0.7603E-17  0.1000E-09  0.0000E+00  0.4796E+16
   -0.206242    0.21528  0.2695E-12  0.1218E-13  0.7603E-17  0.1000E-09  0.0000E+00  0.4918E+16
   -0.274990    0.29444  0.6983E-12  0.1218E-13  0.7603E-17  0.1000E-09  0.0000E+00  0.5023E+16
   -0.343739    0.37719  0.1136E-11  0.1218E-13  0.7603E-17  0.1000E-09  0.0000E+00  0.5109E+16
   -0.412488    0.46348  0.1448E-11  0.1218E-13  0.7603E-17  0.1000E-09  0.0000E+00  0.5176E+16
   -0.481238    0.55325  0.1596E-11  0.1218E-13  0.7603E-17  0.1000E-09  0.0000E+00  0.5221E+16
   -0.549989    0.64639  0.1615E-11  0.1218E-13  0.7603E-17  0.1000E-09  0.0000E+00  0.5243E+16
   -0.618739    0.74276  0.1562E-11  0.1218E-13  0.7603E-17  0.1000E-09  0.0000E+00  0.5239E+16
   -0.687491    0.84219  0.1486E-11  0.1218E-13  0.7603E-17  0.1000E-09  0.0000E+00  0.5206E+16
   -0.756242    0.94438  0.1417E-11  0.1218E-13  0.7603E-17  0.1000E-09  0.0000E+00  0.5145E+16
   -0.824994    1.04905  0.1365E-11  0.1218E-13  0.7603E-17  0.1000E-09  0.0000E+00  0.5062E+16
   -0.893746    1.15599  0.1331E-11  0.1218E-13  0.7603E-17  0.1000E-09  0.0000E+00  0.4958E+16
   -0.962498    1.26499  0.1311E-11  0.1218E-13  0.7603E-17  0.1000E-09  0.0000E+00  0.4835E+16
   -1.031251    1.37589  0.1300E-11  0.1218E-13  0.7603E-17  0.1000E-09  0.0000E+00  0.4696E+16
   -1.100004    1.48853  0.1294E-11  0.1218E-13  0.7603E-17  0.1000E-09  0.0000E+00  0.4544E+16
   -1.168757    1.60280  0.1291E-11  0.1218E-13  0.7603E-17  0.1000E-09  0.0000E+00  0.4381E+16
   -1.237510    1.71864  0.1289E-11  0.1218E-13  0.7603E-17  0.1000E-09  0.0000E+00  0.4208E+16
   -1.306263    1.83601  0.1288E-11  0.1218E-13  0.7603E-17  0.1000E-09  0.0000E+00  0.4028E+16
   -1.375016    1.95493  0.1286E-11  0.1218E-13  0.7603E-17  0.1000E-09  0.0000E+00  0.3842E+16
   -1.443769    2.07547  0.1283E-11  0.1218E-13  0.7603E-17  0.1000E-09  0.0000E+00  0.3649E+16
   -1.512522    2.19773  0.1280E-11  0.1218E-13  0.7603E-17  0.1000E-09  0.0000E+00  0.3451E+16
   -1.581275    2.32184  0.1277E-11  0.1218E-13  0.7603E-17  0.1000E-09  0.0000E+00  0.3245E+16
   -1.650028    2.44794  0.1274E-11  0.1218E-13  0.7603E-17  0.1000E-09  0.0000E+00  0.3034E+16
   -1.718780    2.57624  0.1270E-11  0.1218E-13  0.7603E-17  0.1000E-09  0.0000E+00  0.2810E+16
   -1.787533    2.70679  0.1267E-11  0.1218E-13  0.7603E-17  0.1000E-09  0.0000E+00  0.2481E+16
   -1.856285    2.83459  0.1264E-11  0.1218E-13  0.7603E-17  0.1000E-09  0.0000E+00  0.2156E+16
   -1.925037    2.95874  0.1261E-11  0.1313E-13  0.7603E-17  0.1000E-09  0.0000E+00  0.1835E+16
   -1.993789    3.07791  0.1259E-11  0.6495E-13  0.2161E-16  0.1000E-09  0.0000E+00  0.1544E+16
   -2.062541    3.19211  0.1257E-11  0.2624E-12  0.8080E-16  0.1000E-09  0.0000E+00  0.1340E+16
   -2.131292    3.30684  0.1256E-11  0.1006E-11  0.2974E-15  0.1000E-09  0.0000E+00  0.1140E+16
   -2.200043    3.42280  0.1255E-11  0.3773E-11  0.1074E-14  0.1000E-09  0.0000E+00  0.9363E+15
   -2.268793    3.54027  0.1254E-11  0.1403E-10  0.3850E-14  0.1000E-09  0.0000E+00  0.7233E+15
   -2.337543    3.65894  0.1253E-11  0.5233E-10  0.1385E-13  0.1390E-09  0.0000E+00  0.5044E+15
   -2.406292    3.77882  0.1253E-11  0.1943E-09  0.4964E-13  0.8973E-09  0.0000E+00  0.2789E+15
   -2.475041    3.89952  0.1253E-11  0.7159E-09  0.1771E-12  0.1580E-07  0.0000E+00  0.5464E+14
   -2.543790    4.01009  0.1252E-11  0.1955E-08  0.4858E-12  0.3551E-05  0.0000E+00 -0.1901E+13
   -2.612538    4.01475  0.1252E-11  0.2217E-08  0.6941E-12  0.2666E-05  0.0000E+00 -0.2801E+13
   -2.681285    4.02046  0.1252E-11  0.1682E-08  0.1346E-11  0.4947E-06  0.0000E+00 -0.1325E+14
   -2.750031    4.03978  0.1252E-11  0.0000E+00  0.0000E+00  0.0000E+00  0.0000E+00  0.0000E+00
