 1 - depth, m
 2 - temperature, C
 3 - salinity, kg/kg
 4 - turbulent kinetic energy, m**2/s**2
 5 - dissipation rate, m**2/s**3
 6 - kinematic heat conductance, m**2/s
 7 - modulus of horizontal velocity, m/s
 8 - Richardson number, n/d
   -0.000000    0.00000  0.0000E+00  0.1218E-13  0.7603E-17  0.1000E-09  0.0000E+00  0.5029E+16
   -0.068746    0.07622  0.2445E-12  0.1218E-13  0.7603E-17  0.1000E-09  0.0000E+00  0.5438E+16
   -0.137493    0.16046  0.9066E-12  0.1218E-13  0.7603E-17  0.1000E-09  0.0000E+00  0.5753E+16
   -0.206241    0.25178  0.1583E-11  0.1218E-13  0.7603E-17  0.1000E-09  0.0000E+00  0.5953E+16
   -0.274989    0.34886  0.2017E-11  0.1218E-13  0.7603E-17  0.1000E-09  0.0000E+00  0.6048E+16
   -0.343738    0.45039  0.2175E-11  0.1218E-13  0.7603E-17  0.1000E-09  0.0000E+00  0.6058E+16
   -0.412487    0.55527  0.2148E-11  0.1218E-13  0.7603E-17  0.1000E-09  0.0000E+00  0.6003E+16
   -0.481236    0.66267  0.2039E-11  0.1218E-13  0.7603E-17  0.1000E-09  0.0000E+00  0.5904E+16
   -0.549986    0.77201  0.1919E-11  0.1218E-13  0.7603E-17  0.1000E-09  0.0000E+00  0.5774E+16
   -0.618737    0.88286  0.1823E-11  0.1218E-13  0.7603E-17  0.1000E-09  0.0000E+00  0.5622E+16
   -0.687488    0.99496  0.1758E-11  0.1218E-13  0.7603E-17  0.1000E-09  0.0000E+00  0.5453E+16
   -0.756239    1.10806  0.1719E-11  0.1218E-13  0.7603E-17  0.1000E-09  0.0000E+00  0.5271E+16
   -0.824991    1.22200  0.1697E-11  0.1218E-13  0.7603E-17  0.1000E-09  0.0000E+00  0.5080E+16
   -0.893743    1.33666  0.1687E-11  0.1218E-13  0.7603E-17  0.1000E-09  0.0000E+00  0.4881E+16
   -0.962495    1.45196  0.1681E-11  0.1218E-13  0.7603E-17  0.1000E-09  0.0000E+00  0.4677E+16
   -1.031247    1.56779  0.1678E-11  0.1218E-13  0.7603E-17  0.1000E-09  0.0000E+00  0.4467E+16
   -1.099999    1.68408  0.1676E-11  0.1218E-13  0.7603E-17  0.1000E-09  0.0000E+00  0.4252E+16
   -1.168752    1.80077  0.1674E-11  0.1218E-13  0.7603E-17  0.1000E-09  0.0000E+00  0.4034E+16
   -1.237505    1.91777  0.1672E-11  0.1218E-13  0.7603E-17  0.1000E-09  0.0000E+00  0.3813E+16
   -1.306257    2.03504  0.1669E-11  0.1218E-13  0.7603E-17  0.1000E-09  0.0000E+00  0.3591E+16
   -1.375010    2.15255  0.1665E-11  0.1218E-13  0.7603E-17  0.1000E-09  0.0000E+00  0.3370E+16
   -1.443763    2.27035  0.1661E-11  0.1218E-13  0.7603E-17  0.1000E-09  0.0000E+00  0.3150E+16
   -1.512516    2.38853  0.1656E-11  0.1218E-13  0.7603E-17  0.1000E-09  0.0000E+00  0.2933E+16
   -1.581268    2.50729  0.1652E-11  0.1218E-13  0.7603E-17  0.1000E-09  0.0000E+00  0.2722E+16
   -1.650021    2.62697  0.1647E-11  0.1218E-13  0.7603E-17  0.1000E-09  0.0000E+00  0.2517E+16
   -1.718773    2.74814  0.1644E-11  0.1218E-13  0.7603E-17  0.1000E-09  0.0000E+00  0.2314E+16
   -1.787526    2.87135  0.1640E-11  0.2702E-13  0.7913E-17  0.1000E-09  0.0000E+00  0.2020E+16
   -1.856278    2.99153  0.1638E-11  0.9593E-13  0.2207E-16  0.1000E-09  0.0000E+00  0.1733E+16
   -1.925030    3.10793  0.1635E-11  0.3198E-12  0.6943E-16  0.1000E-09  0.0000E+00  0.1453E+16
   -1.993781    3.21924  0.1634E-11  0.1037E-11  0.2170E-15  0.1000E-09  0.0000E+00  0.1201E+16
   -2.062532    3.32541  0.1632E-11  0.3234E-11  0.6539E-15  0.1000E-09  0.0000E+00  0.1026E+16
   -2.131283    3.43216  0.1631E-11  0.9898E-11  0.1935E-14  0.1000E-09  0.0000E+00  0.8549E+15
   -2.200034    3.54044  0.1630E-11  0.2987E-10  0.5649E-14  0.1000E-09  0.0000E+00  0.6812E+15
   -2.268784    3.65109  0.1629E-11  0.8975E-10  0.1643E-13  0.1683E-09  0.0000E+00  0.4972E+15
   -2.337534    3.76454  0.1629E-11  0.2715E-09  0.4812E-13  0.8155E-09  0.0000E+00  0.3005E+15
   -2.406283    3.88179  0.1629E-11  0.8173E-09  0.1405E-12  0.8466E-08  0.0000E+00  0.8445E+14
   -2.475032    3.99902  0.1629E-11  0.1765E-08  0.3035E-12  0.4431E-05  0.0000E+00 -0.8929E+12
   -2.543780    4.00295  0.1629E-11  0.2107E-08  0.4112E-12  0.4330E-05  0.0000E+00 -0.1118E+13
   -2.612527    4.00682  0.1629E-11  0.2172E-08  0.5798E-12  0.2841E-05  0.0000E+00 -0.1965E+13
   -2.681274    4.01224  0.1629E-11  0.1614E-08  0.1232E-11  0.4809E-06  0.0000E+00 -0.1162E+14
   -2.750020    4.03276  0.1629E-11  0.0000E+00  0.0000E+00  0.0000E+00  0.0000E+00  0.0000E+00
