 1 - depth, m
 2 - temperature, C
 3 - salinity, kg/kg
 4 - turbulent kinetic energy, m**2/s**2
 5 - dissipation rate, m**2/s**3
 6 - kinematic heat conductance, m**2/s
 7 - modulus of horizontal velocity, m/s
 8 - Richardson number, n/d
   -0.000000   -0.00000  0.1232E-09  0.1219E-13  0.7603E-17  0.1000E-09  0.0000E+00  0.6718E+16
   -0.068746    0.10218  0.7263E-10  0.1219E-13  0.7603E-17  0.1000E-09  0.0000E+00  0.6469E+16
   -0.137492    0.20337  0.5281E-10  0.1219E-13  0.7603E-17  0.1000E-09  0.0000E+00  0.6241E+16
   -0.206239    0.30379  0.4614E-10  0.1219E-13  0.7603E-17  0.1000E-09  0.0000E+00  0.6032E+16
   -0.274987    0.40368  0.4423E-10  0.1219E-13  0.7603E-17  0.1000E-09  0.0000E+00  0.5839E+16
   -0.343735    0.50328  0.4375E-10  0.1219E-13  0.7603E-17  0.1000E-09  0.0000E+00  0.5660E+16
   -0.412483    0.60280  0.4364E-10  0.1219E-13  0.7603E-17  0.1000E-09  0.0000E+00  0.5494E+16
   -0.481232    0.70245  0.4362E-10  0.1219E-13  0.7603E-17  0.1000E-09  0.0000E+00  0.5337E+16
   -0.549982    0.80241  0.4361E-10  0.1219E-13  0.7603E-17  0.1000E-09  0.0000E+00  0.5189E+16
   -0.618732    0.90287  0.4361E-10  0.1219E-13  0.7603E-17  0.1000E-09  0.0000E+00  0.5046E+16
   -0.687482    1.00398  0.4361E-10  0.1219E-13  0.7603E-17  0.1000E-09  0.0000E+00  0.4917E+16
   -0.756233    1.10609  0.4361E-10  0.1219E-13  0.7603E-17  0.1000E-09  0.0000E+00  0.4795E+16
   -0.824984    1.20947  0.4361E-10  0.1219E-13  0.7603E-17  0.1000E-09  0.0000E+00  0.4672E+16
   -0.893735    1.31422  0.4361E-10  0.1219E-13  0.7603E-17  0.1000E-09  0.0000E+00  0.4544E+16
   -0.962487    1.42040  0.4361E-10  0.1219E-13  0.7603E-17  0.1000E-09  0.0000E+00  0.4412E+16
   -1.031238    1.52807  0.4360E-10  0.1219E-13  0.7603E-17  0.1000E-09  0.0000E+00  0.4273E+16
   -1.099990    1.63725  0.4358E-10  0.1219E-13  0.7603E-17  0.1000E-09  0.0000E+00  0.4127E+16
   -1.168742    1.74794  0.4354E-10  0.1219E-13  0.7603E-17  0.1000E-09  0.0000E+00  0.3971E+16
   -1.237494    1.86010  0.4347E-10  0.1219E-13  0.7603E-17  0.1000E-09  0.0000E+00  0.3806E+16
   -1.306246    1.97367  0.4335E-10  0.1219E-13  0.7603E-17  0.1000E-09  0.0000E+00  0.3631E+16
   -1.374999    2.08856  0.4320E-10  0.1219E-13  0.7603E-17  0.1000E-09  0.0000E+00  0.3450E+16
   -1.443751    2.20480  0.4304E-10  0.1219E-13  0.7603E-17  0.1000E-09  0.0000E+00  0.3259E+16
   -1.512503    2.32227  0.4290E-10  0.1219E-13  0.7603E-17  0.1000E-09  0.0000E+00  0.3057E+16
   -1.581255    2.44080  0.4280E-10  0.1219E-13  0.7603E-17  0.1000E-09  0.0000E+00  0.2845E+16
   -1.650007    2.56018  0.4274E-10  0.1219E-13  0.7603E-17  0.1000E-09  0.0000E+00  0.2624E+16
   -1.718759    2.68018  0.4271E-10  0.1219E-13  0.7603E-17  0.1000E-09  0.0000E+00  0.2397E+16
   -1.787511    2.80057  0.4269E-10  0.1219E-13  0.7603E-17  0.1000E-09  0.0000E+00  0.2180E+16
   -1.856262    2.92208  0.4267E-10  0.5713E-13  0.1723E-16  0.1000E-09  0.0000E+00  0.1957E+16
   -1.925014    3.04464  0.4264E-10  0.2211E-12  0.6012E-16  0.1000E-09  0.0000E+00  0.1727E+16
   -1.993765    3.16820  0.4259E-10  0.8057E-12  0.2100E-15  0.1000E-09  0.0000E+00  0.1488E+16
   -2.062515    3.29238  0.4252E-10  0.2802E-11  0.7041E-15  0.1000E-09  0.0000E+00  0.1241E+16
   -2.131266    3.41646  0.4243E-10  0.9549E-11  0.2315E-14  0.1000E-09  0.0000E+00  0.9926E+15
   -2.200016    3.54019  0.4233E-10  0.3202E-10  0.7496E-14  0.1000E-09  0.0000E+00  0.7464E+15
   -2.268765    3.66334  0.4225E-10  0.1067E-09  0.2414E-13  0.2421E-09  0.0000E+00  0.5052E+15
   -2.337514    3.78611  0.4222E-10  0.3573E-09  0.7812E-13  0.1482E-08  0.0000E+00  0.2662E+15
   -2.406263    3.90773  0.4221E-10  0.1175E-08  0.2492E-12  0.2775E-07  0.0000E+00  0.4377E+14
   -2.475011    4.01062  0.4221E-10  0.2624E-08  0.5619E-12  0.5125E-05  0.0000E+00 -0.1370E+13
   -2.543758    4.01398  0.4221E-10  0.3144E-08  0.7793E-12  0.4747E-05  0.0000E+00 -0.1751E+13
   -2.612505    4.01776  0.4221E-10  0.3348E-08  0.1189E-11  0.3103E-05  0.0000E+00 -0.3367E+13
   -2.681252    4.02398  0.4221E-10  0.2988E-08  0.2934E-11  0.8122E-06  0.0000E+00 -0.2236E+14
   -2.749997    4.05170  0.4221E-10  0.0000E+00  0.0000E+00  0.0000E+00  0.0000E+00  0.0000E+00
