 1 - depth, m
 2 - temperature, C
 3 - salinity, kg/kg
 4 - turbulent kinetic energy, m**2/s**2
 5 - dissipation rate, m**2/s**3
 6 - kinematic heat conductance, m**2/s
 7 - modulus of horizontal velocity, m/s
 8 - Richardson number, n/d
   -0.000000   -0.00000  0.2938E-10  0.1219E-13  0.7603E-17  0.1000E-09  0.0000E+00  0.4976E+16
   -0.068746    0.07541  0.1610E-10  0.1219E-13  0.7603E-17  0.1000E-09  0.0000E+00  0.4790E+16
   -0.137492    0.14950  0.1243E-10  0.1219E-13  0.7603E-17  0.1000E-09  0.0000E+00  0.4641E+16
   -0.206239    0.22276  0.1157E-10  0.1219E-13  0.7603E-17  0.1000E-09  0.0000E+00  0.4526E+16
   -0.274987    0.29571  0.1140E-10  0.1219E-13  0.7603E-17  0.1000E-09  0.0000E+00  0.4444E+16
   -0.343735    0.36885  0.1136E-10  0.1219E-13  0.7603E-17  0.1000E-09  0.0000E+00  0.4391E+16
   -0.412483    0.44268  0.1136E-10  0.1219E-13  0.7603E-17  0.1000E-09  0.0000E+00  0.4365E+16
   -0.481232    0.51775  0.1136E-10  0.1219E-13  0.7603E-17  0.1000E-09  0.0000E+00  0.4364E+16
   -0.549982    0.59455  0.1136E-10  0.1219E-13  0.7603E-17  0.1000E-09  0.0000E+00  0.4385E+16
   -0.618732    0.67362  0.1136E-10  0.1219E-13  0.7603E-17  0.1000E-09  0.0000E+00  0.4423E+16
   -0.687482    0.75545  0.1136E-10  0.1219E-13  0.7603E-17  0.1000E-09  0.0000E+00  0.4490E+16
   -0.756233    0.84082  0.1136E-10  0.1219E-13  0.7603E-17  0.1000E-09  0.0000E+00  0.4574E+16
   -0.824984    0.93038  0.1136E-10  0.1219E-13  0.7603E-17  0.1000E-09  0.0000E+00  0.4661E+16
   -0.893735    1.02456  0.1136E-10  0.1219E-13  0.7603E-17  0.1000E-09  0.0000E+00  0.4745E+16
   -0.962486    1.12379  0.1136E-10  0.1219E-13  0.7603E-17  0.1000E-09  0.0000E+00  0.4822E+16
   -1.031238    1.22845  0.1136E-10  0.1219E-13  0.7603E-17  0.1000E-09  0.0000E+00  0.4884E+16
   -1.099990    1.33889  0.1135E-10  0.1219E-13  0.7603E-17  0.1000E-09  0.0000E+00  0.4926E+16
   -1.168742    1.45537  0.1135E-10  0.1219E-13  0.7603E-17  0.1000E-09  0.0000E+00  0.4943E+16
   -1.237494    1.57816  0.1133E-10  0.1219E-13  0.7603E-17  0.1000E-09  0.0000E+00  0.4928E+16
   -1.306246    1.70741  0.1131E-10  0.5184E-13  0.9483E-17  0.1000E-09  0.0000E+00  0.4875E+16
   -1.374999    1.84326  0.1126E-10  0.1519E-12  0.2171E-16  0.1000E-09  0.0000E+00  0.4794E+16
   -1.443751    1.98616  0.1120E-10  0.3904E-12  0.5242E-16  0.1000E-09  0.0000E+00  0.4667E+16
   -1.512503    2.13623  0.1116E-10  0.9632E-12  0.1250E-15  0.1000E-09  0.0000E+00  0.4487E+16
   -1.581255    2.29338  0.1113E-10  0.2334E-11  0.2943E-15  0.1000E-09  0.0000E+00  0.4248E+16
   -1.650007    2.45746  0.1112E-10  0.5582E-11  0.6849E-15  0.1000E-09  0.0000E+00  0.3951E+16
   -1.718759    2.62821  0.1111E-10  0.1320E-10  0.1576E-14  0.1000E-09  0.0000E+00  0.3594E+16
   -1.787511    2.80530  0.1110E-10  0.3166E-10  0.3679E-14  0.1000E-09  0.0000E+00  0.3191E+16
   -1.856262    2.98913  0.1110E-10  0.7643E-10  0.8645E-14  0.1000E-09  0.0000E+00  0.2733E+16
   -1.925013    3.17982  0.1110E-10  0.1840E-09  0.2027E-13  0.1000E-09  0.0000E+00  0.2217E+16
   -1.993764    3.37756  0.1109E-10  0.4412E-09  0.4736E-13  0.1476E-09  0.0000E+00  0.1634E+16
   -2.062515    3.58177  0.1108E-10  0.1030E-08  0.1078E-12  0.5607E-09  0.0000E+00  0.9792E+15
   -2.131265    3.78820  0.1105E-10  0.2371E-08  0.2421E-12  0.4005E-08  0.0000E+00  0.3079E+15
   -2.200015    3.99115  0.1103E-10  0.3309E-08  0.3405E-12  0.1026E-04  0.0000E+00 -0.2773E+12
   -2.268765    3.99399  0.1103E-10  0.3777E-08  0.4067E-12  0.1256E-04  0.0000E+00 -0.3235E+12
   -2.337514    3.99633  0.1103E-10  0.4181E-08  0.4846E-12  0.1346E-04  0.0000E+00 -0.3823E+12
   -2.406263    3.99852  0.1103E-10  0.4521E-08  0.5825E-12  0.1316E-04  0.0000E+00 -0.4738E+12
   -2.475011    4.00079  0.1103E-10  0.4785E-08  0.7197E-12  0.1167E-04  0.0000E+00 -0.6388E+12
   -2.543758    4.00338  0.1103E-10  0.4938E-08  0.9464E-12  0.8944E-05  0.0000E+00 -0.1009E+13
   -2.612505    4.00681  0.1103E-10  0.4870E-08  0.1462E-11  0.5033E-05  0.0000E+00 -0.2325E+13
   -2.681251    4.01309  0.1103E-10  0.4055E-08  0.3966E-11  0.1039E-05  0.0000E+00 -0.2102E+14
   -2.749997    4.04464  0.1103E-10  0.0000E+00  0.0000E+00  0.0000E+00  0.0000E+00  0.0000E+00
