 1 - depth, m
 2 - temperature, C
 3 - salinity, kg/kg
 4 - turbulent kinetic energy, m**2/s**2
 5 - dissipation rate, m**2/s**3
 6 - kinematic heat conductance, m**2/s
 7 - modulus of horizontal velocity, m/s
 8 - Richardson number, n/d
   -0.000000   -0.00000  0.1408E-10  0.1219E-13  0.7603E-17  0.1000E-09  0.0000E+00  0.8473E+16
   -0.068746    0.12934  0.9204E-11  0.1219E-13  0.7603E-17  0.1000E-09  0.0000E+00  0.8130E+16
   -0.137492    0.25796  0.6616E-11  0.1219E-13  0.7603E-17  0.1000E-09  0.0000E+00  0.7802E+16
   -0.206239    0.38598  0.5554E-11  0.1219E-13  0.7603E-17  0.1000E-09  0.0000E+00  0.7489E+16
   -0.274987    0.51358  0.5187E-11  0.1219E-13  0.7603E-17  0.1000E-09  0.0000E+00  0.7188E+16
   -0.343735    0.64091  0.5077E-11  0.1219E-13  0.7603E-17  0.1000E-09  0.0000E+00  0.6898E+16
   -0.412483    0.76811  0.5047E-11  0.1219E-13  0.7603E-17  0.1000E-09  0.0000E+00  0.6617E+16
   -0.481233    0.89533  0.5040E-11  0.1219E-13  0.7603E-17  0.1000E-09  0.0000E+00  0.6344E+16
   -0.549982    1.02270  0.5038E-11  0.1219E-13  0.7603E-17  0.1000E-09  0.0000E+00  0.6078E+16
   -0.618732    1.15036  0.5038E-11  0.1219E-13  0.7603E-17  0.1000E-09  0.0000E+00  0.5816E+16
   -0.687482    1.27843  0.5038E-11  0.1219E-13  0.7603E-17  0.1000E-09  0.0000E+00  0.5565E+16
   -0.756233    1.40720  0.5038E-11  0.1219E-13  0.7603E-17  0.1000E-09  0.0000E+00  0.5319E+16
   -0.824984    1.53689  0.5037E-11  0.1219E-13  0.7603E-17  0.1000E-09  0.0000E+00  0.5071E+16
   -0.893735    1.66756  0.5036E-11  0.1219E-13  0.7603E-17  0.1000E-09  0.0000E+00  0.4820E+16
   -0.962487    1.79929  0.5033E-11  0.2560E-13  0.7603E-17  0.1000E-09  0.0000E+00  0.4565E+16
   -1.031239    1.93209  0.5028E-11  0.8719E-13  0.1218E-16  0.1000E-09  0.0000E+00  0.4303E+16
   -1.099991    2.06599  0.5019E-11  0.2260E-12  0.2684E-16  0.1000E-09  0.0000E+00  0.4036E+16
   -1.168743    2.20098  0.5005E-11  0.5348E-12  0.6032E-16  0.1000E-09  0.0000E+00  0.3762E+16
   -1.237495    2.33703  0.4987E-11  0.1226E-11  0.1340E-15  0.1000E-09  0.0000E+00  0.3481E+16
   -1.306247    2.47408  0.4965E-11  0.2765E-11  0.2942E-15  0.1000E-09  0.0000E+00  0.3192E+16
   -1.374999    2.61206  0.4944E-11  0.6166E-11  0.6393E-15  0.1000E-09  0.0000E+00  0.2899E+16
   -1.443751    2.75099  0.4927E-11  0.1361E-10  0.1376E-14  0.1000E-09  0.0000E+00  0.2600E+16
   -1.512504    2.89078  0.4915E-11  0.2977E-10  0.2933E-14  0.1000E-09  0.0000E+00  0.2294E+16
   -1.581256    3.03128  0.4907E-11  0.6449E-10  0.6197E-14  0.1000E-09  0.0000E+00  0.1982E+16
   -1.650008    3.17235  0.4901E-11  0.1384E-09  0.1298E-13  0.1000E-09  0.0000E+00  0.1666E+16
   -1.718760    3.31379  0.4897E-11  0.2945E-09  0.2694E-13  0.1016E-09  0.0000E+00  0.1348E+16
   -1.787512    3.45549  0.4893E-11  0.6352E-09  0.5669E-13  0.2772E-09  0.0000E+00  0.1041E+16
   -1.856263    3.59918  0.4888E-11  0.1382E-08  0.1204E-12  0.8508E-09  0.0000E+00  0.7200E+15
   -1.925014    3.74464  0.4884E-11  0.3001E-08  0.2553E-12  0.3363E-08  0.0000E+00  0.3861E+15
   -1.993765    3.89016  0.4883E-11  0.6374E-08  0.5312E-12  0.3925E-07  0.0000E+00  0.6860E+14
   -2.062516    4.00853  0.4882E-11  0.7192E-08  0.6027E-12  0.3572E-04  0.0000E+00 -0.2096E+12
   -2.131266    4.00913  0.4882E-11  0.7531E-08  0.6400E-12  0.3601E-04  0.0000E+00 -0.2134E+12
   -2.200016    4.00972  0.4882E-11  0.7796E-08  0.6793E-12  0.3549E-04  0.0000E+00 -0.2222E+12
   -2.268766    4.01032  0.4882E-11  0.7991E-08  0.7236E-12  0.3413E-04  0.0000E+00 -0.2372E+12
   -2.337515    4.01094  0.4882E-11  0.8122E-08  0.7785E-12  0.3178E-04  0.0000E+00 -0.2621E+12
   -2.406264    4.01161  0.4882E-11  0.8181E-08  0.8525E-12  0.2827E-04  0.0000E+00 -0.3039E+12
   -2.475012    4.01236  0.4882E-11  0.8146E-08  0.9645E-12  0.2339E-04  0.0000E+00 -0.3809E+12
   -2.543759    4.01328  0.4882E-11  0.7964E-08  0.1164E-11  0.1694E-04  0.0000E+00 -0.5515E+12
   -2.612506    4.01456  0.4882E-11  0.7460E-08  0.1652E-11  0.8936E-05  0.0000E+00 -0.1131E+13
   -2.681253    4.01701  0.4882E-11  0.5323E-08  0.4631E-11  0.1148E-05  0.0000E+00 -0.1159E+14
   -2.749998    4.03553  0.4882E-11  0.0000E+00  0.0000E+00  0.0000E+00  0.0000E+00  0.0000E+00
