 1 - depth, m
 2 - temperature, C
 3 - salinity, kg/kg
 4 - turbulent kinetic energy, m**2/s**2
 5 - dissipation rate, m**2/s**3
 6 - kinematic heat conductance, m**2/s
 7 - modulus of horizontal velocity, m/s
 8 - Richardson number, n/d
   -0.000000   -0.00000  0.1402E-10  0.1219E-13  0.7603E-17  0.1000E-09  0.0000E+00  0.6438E+16
   -0.068746    0.09787  0.7816E-11  0.1219E-13  0.7603E-17  0.1000E-09  0.0000E+00  0.6203E+16
   -0.137492    0.19471  0.5755E-11  0.1219E-13  0.7603E-17  0.1000E-09  0.0000E+00  0.6001E+16
   -0.206239    0.29097  0.5200E-11  0.1219E-13  0.7603E-17  0.1000E-09  0.0000E+00  0.5828E+16
   -0.274987    0.38708  0.5071E-11  0.1219E-13  0.7603E-17  0.1000E-09  0.0000E+00  0.5683E+16
   -0.343735    0.48350  0.5044E-11  0.1219E-13  0.7603E-17  0.1000E-09  0.0000E+00  0.5563E+16
   -0.412483    0.58069  0.5039E-11  0.1219E-13  0.7603E-17  0.1000E-09  0.0000E+00  0.5465E+16
   -0.481232    0.67910  0.5038E-11  0.1219E-13  0.7603E-17  0.1000E-09  0.0000E+00  0.5385E+16
   -0.549982    0.77920  0.5038E-11  0.1219E-13  0.7603E-17  0.1000E-09  0.0000E+00  0.5319E+16
   -0.618732    0.88141  0.5038E-11  0.1219E-13  0.7603E-17  0.1000E-09  0.0000E+00  0.5262E+16
   -0.687482    0.98615  0.5038E-11  0.1219E-13  0.7603E-17  0.1000E-09  0.0000E+00  0.5225E+16
   -0.756233    1.09408  0.5038E-11  0.1219E-13  0.7603E-17  0.1000E-09  0.0000E+00  0.5194E+16
   -0.824984    1.20573  0.5038E-11  0.1219E-13  0.7603E-17  0.1000E-09  0.0000E+00  0.5157E+16
   -0.893735    1.32144  0.5037E-11  0.1219E-13  0.7603E-17  0.1000E-09  0.0000E+00  0.5108E+16
   -0.962487    1.44147  0.5037E-11  0.1219E-13  0.7603E-17  0.1000E-09  0.0000E+00  0.5044E+16
   -1.031239    1.56609  0.5035E-11  0.5731E-13  0.9722E-17  0.1000E-09  0.0000E+00  0.4959E+16
   -1.099990    1.69547  0.5030E-11  0.1640E-12  0.2163E-16  0.1000E-09  0.0000E+00  0.4848E+16
   -1.168743    1.82976  0.5020E-11  0.4075E-12  0.5040E-16  0.1000E-09  0.0000E+00  0.4709E+16
   -1.237495    1.96904  0.5003E-11  0.9700E-12  0.1160E-15  0.1000E-09  0.0000E+00  0.4536E+16
   -1.306247    2.11334  0.4978E-11  0.2266E-11  0.2635E-15  0.1000E-09  0.0000E+00  0.4328E+16
   -1.374999    2.26261  0.4951E-11  0.5230E-11  0.5922E-15  0.1000E-09  0.0000E+00  0.4089E+16
   -1.443751    2.41702  0.4929E-11  0.1194E-10  0.1317E-14  0.1000E-09  0.0000E+00  0.3810E+16
   -1.512504    2.57647  0.4915E-11  0.2700E-10  0.2901E-14  0.1000E-09  0.0000E+00  0.3489E+16
   -1.581256    2.74071  0.4907E-11  0.6042E-10  0.6329E-14  0.1000E-09  0.0000E+00  0.3126E+16
   -1.650008    2.90942  0.4902E-11  0.1339E-09  0.1368E-13  0.1000E-09  0.0000E+00  0.2723E+16
   -1.718760    3.08219  0.4899E-11  0.2941E-09  0.2930E-13  0.1000E-09  0.0000E+00  0.2285E+16
   -1.787511    3.25869  0.4896E-11  0.6552E-09  0.6363E-13  0.1761E-09  0.0000E+00  0.1839E+16
   -1.856263    3.44135  0.4894E-11  0.1472E-08  0.1394E-12  0.5287E-09  0.0000E+00  0.1342E+16
   -1.925014    3.63013  0.4889E-11  0.3299E-08  0.3050E-12  0.1963E-08  0.0000E+00  0.7909E+15
   -1.993765    3.82407  0.4882E-11  0.7313E-08  0.6611E-12  0.1652E-07  0.0000E+00  0.2035E+15
   -2.062516    4.00591  0.4880E-11  0.8269E-08  0.7518E-12  0.3669E-04  0.0000E+00 -0.2436E+12
   -2.131266    4.00669  0.4880E-11  0.8670E-08  0.8001E-12  0.3733E-04  0.0000E+00 -0.2493E+12
   -2.200016    4.00745  0.4880E-11  0.8989E-08  0.8519E-12  0.3707E-04  0.0000E+00 -0.2611E+12
   -2.268766    4.00823  0.4880E-11  0.9232E-08  0.9108E-12  0.3587E-04  0.0000E+00 -0.2805E+12
   -2.337515    4.00903  0.4880E-11  0.9404E-08  0.9842E-12  0.3358E-04  0.0000E+00 -0.3120E+12
   -2.406263    4.00989  0.4880E-11  0.9497E-08  0.1083E-11  0.3004E-04  0.0000E+00 -0.3646E+12
   -2.475012    4.01086  0.4880E-11  0.9485E-08  0.1233E-11  0.2500E-04  0.0000E+00 -0.4609E+12
   -2.543759    4.01203  0.4880E-11  0.9310E-08  0.1497E-11  0.1825E-04  0.0000E+00 -0.6735E+12
   -2.612506    4.01365  0.4880E-11  0.8780E-08  0.2138E-11  0.9796E-05  0.0000E+00 -0.1393E+13
   -2.681252    4.01673  0.4880E-11  0.6474E-08  0.5992E-11  0.1381E-05  0.0000E+00 -0.1424E+14
   -2.749998    4.03869  0.4880E-11  0.0000E+00  0.0000E+00  0.0000E+00  0.0000E+00  0.0000E+00
