 1 - depth, m
 2 - temperature, C
 3 - salinity, kg/kg
 4 - turbulent kinetic energy, m**2/s**2
 5 - dissipation rate, m**2/s**3
 6 - kinematic heat conductance, m**2/s
 7 - modulus of horizontal velocity, m/s
 8 - Richardson number, n/d
   -0.000000   -0.00000  0.1331E-12  0.1219E-13  0.7603E-17  0.1000E-09  0.0000E+00  0.7194E+16
   -0.068746    0.10952  0.6046E-12  0.1219E-13  0.7603E-17  0.1000E-09  0.0000E+00  0.7105E+16
   -0.137493    0.22103  0.9200E-12  0.1219E-13  0.7603E-17  0.1000E-09  0.0000E+00  0.6992E+16
   -0.206240    0.33430  0.1031E-11  0.1219E-13  0.7603E-17  0.1000E-09  0.0000E+00  0.6858E+16
   -0.274988    0.44915  0.1018E-11  0.1219E-13  0.7603E-17  0.1000E-09  0.0000E+00  0.6705E+16
   -0.343736    0.56541  0.9532E-12  0.1219E-13  0.7603E-17  0.1000E-09  0.0000E+00  0.6536E+16
   -0.412485    0.68290  0.8835E-12  0.1219E-13  0.7603E-17  0.1000E-09  0.0000E+00  0.6352E+16
   -0.481234    0.80148  0.8290E-12  0.1219E-13  0.7603E-17  0.1000E-09  0.0000E+00  0.6154E+16
   -0.549984    0.92097  0.7935E-12  0.1219E-13  0.7603E-17  0.1000E-09  0.0000E+00  0.5944E+16
   -0.618735    1.04124  0.7734E-12  0.1219E-13  0.7603E-17  0.1000E-09  0.0000E+00  0.5724E+16
   -0.687485    1.16213  0.7631E-12  0.1219E-13  0.7603E-17  0.1000E-09  0.0000E+00  0.5495E+16
   -0.756236    1.28353  0.7582E-12  0.1219E-13  0.7603E-17  0.1000E-09  0.0000E+00  0.5259E+16
   -0.824987    1.40530  0.7560E-12  0.1219E-13  0.7603E-17  0.1000E-09  0.0000E+00  0.5017E+16
   -0.893739    1.52732  0.7549E-12  0.1219E-13  0.7603E-17  0.1000E-09  0.0000E+00  0.4770E+16
   -0.962491    1.64949  0.7542E-12  0.1219E-13  0.7603E-17  0.1000E-09  0.0000E+00  0.4519E+16
   -1.031243    1.77171  0.7534E-12  0.1219E-13  0.7603E-17  0.1000E-09  0.0000E+00  0.4266E+16
   -1.099995    1.89387  0.7524E-12  0.1219E-13  0.7603E-17  0.1000E-09  0.0000E+00  0.4012E+16
   -1.168747    2.01591  0.7510E-12  0.1219E-13  0.7603E-17  0.1000E-09  0.0000E+00  0.3758E+16
   -1.237500    2.13776  0.7494E-12  0.1219E-13  0.7603E-17  0.1000E-09  0.0000E+00  0.3504E+16
   -1.306252    2.25935  0.7474E-12  0.1219E-13  0.7603E-17  0.1000E-09  0.0000E+00  0.3251E+16
   -1.375005    2.38064  0.7452E-12  0.1219E-13  0.7603E-17  0.1000E-09  0.0000E+00  0.3001E+16
   -1.443757    2.50161  0.7430E-12  0.1219E-13  0.7603E-17  0.1000E-09  0.0000E+00  0.2754E+16
   -1.512510    2.62226  0.7409E-12  0.1219E-13  0.7603E-17  0.1000E-09  0.0000E+00  0.2509E+16
   -1.581262    2.74256  0.7391E-12  0.2781E-13  0.7853E-17  0.1000E-09  0.0000E+00  0.2267E+16
   -1.650014    2.86252  0.7374E-12  0.9219E-13  0.1496E-16  0.1000E-09  0.0000E+00  0.2028E+16
   -1.718767    2.98217  0.7361E-12  0.2492E-12  0.3650E-16  0.1000E-09  0.0000E+00  0.1791E+16
   -1.787519    3.10144  0.7350E-12  0.6502E-12  0.9194E-16  0.1000E-09  0.0000E+00  0.1535E+16
   -1.856270    3.21851  0.7342E-12  0.1690E-11  0.2332E-15  0.1000E-09  0.0000E+00  0.1288E+16
   -1.925022    3.33293  0.7335E-12  0.4382E-11  0.5908E-15  0.1000E-09  0.0000E+00  0.1051E+16
   -1.993773    3.44408  0.7330E-12  0.1134E-10  0.1494E-14  0.1000E-09  0.0000E+00  0.8304E+15
   -2.062524    3.55178  0.7326E-12  0.2861E-10  0.3686E-14  0.1000E-09  0.0000E+00  0.6423E+15
   -2.131275    3.65874  0.7324E-12  0.7149E-10  0.8998E-14  0.1058E-09  0.0000E+00  0.4584E+15
   -2.200025    3.76488  0.7323E-12  0.1775E-09  0.2183E-13  0.3980E-09  0.0000E+00  0.2779E+15
   -2.268775    3.86948  0.7322E-12  0.4412E-09  0.5299E-13  0.2534E-08  0.0000E+00  0.1052E+15
   -2.337524    3.97102  0.7322E-12  0.1003E-08  0.1191E-12  0.4409E-06  0.0000E+00  0.9632E+12
   -2.406273    3.99730  0.7322E-12  0.1621E-08  0.2042E-12  0.5624E-05  0.0000E+00 -0.4788E+12
   -2.475022    3.99984  0.7322E-12  0.1924E-08  0.2677E-12  0.5686E-05  0.0000E+00 -0.5724E+12
   -2.543769    4.00233  0.7322E-12  0.2095E-08  0.3506E-12  0.4763E-05  0.0000E+00 -0.8035E+12
   -2.612517    4.00528  0.7322E-12  0.2078E-08  0.5099E-12  0.2801E-05  0.0000E+00 -0.1615E+13
   -2.681263    4.01012  0.7322E-12  0.1565E-08  0.1180E-11  0.4797E-06  0.0000E+00 -0.1153E+14
   -2.750009    4.03148  0.7322E-12  0.0000E+00  0.0000E+00  0.0000E+00  0.0000E+00  0.0000E+00
