 1 - depth, m
 2 - temperature, C
 3 - salinity, kg/kg
 4 - turbulent kinetic energy, m**2/s**2
 5 - dissipation rate, m**2/s**3
 6 - kinematic heat conductance, m**2/s
 7 - modulus of horizontal velocity, m/s
 8 - Richardson number, n/d
   -0.000000   -0.00000  0.2012E-11  0.1219E-13  0.7603E-17  0.1000E-09  0.0000E+00  0.5592E+16
   -0.068746    0.08485  0.1097E-11  0.1219E-13  0.7603E-17  0.1000E-09  0.0000E+00  0.5382E+16
   -0.137492    0.16841  0.8338E-12  0.1219E-13  0.7603E-17  0.1000E-09  0.0000E+00  0.5213E+16
   -0.206239    0.25126  0.7712E-12  0.1219E-13  0.7603E-17  0.1000E-09  0.0000E+00  0.5084E+16
   -0.274987    0.33398  0.7580E-12  0.1219E-13  0.7603E-17  0.1000E-09  0.0000E+00  0.4990E+16
   -0.343735    0.41715  0.7554E-12  0.1219E-13  0.7603E-17  0.1000E-09  0.0000E+00  0.4928E+16
   -0.412483    0.50135  0.7550E-12  0.1219E-13  0.7603E-17  0.1000E-09  0.0000E+00  0.4894E+16
   -0.481232    0.58717  0.7550E-12  0.1219E-13  0.7603E-17  0.1000E-09  0.0000E+00  0.4886E+16
   -0.549982    0.67519  0.7549E-12  0.1219E-13  0.7603E-17  0.1000E-09  0.0000E+00  0.4897E+16
   -0.618732    0.76598  0.7549E-12  0.1219E-13  0.7603E-17  0.1000E-09  0.0000E+00  0.4925E+16
   -0.687482    0.86008  0.7549E-12  0.1219E-13  0.7603E-17  0.1000E-09  0.0000E+00  0.4979E+16
   -0.756233    0.95833  0.7549E-12  0.1219E-13  0.7603E-17  0.1000E-09  0.0000E+00  0.5045E+16
   -0.824984    1.06144  0.7549E-12  0.1219E-13  0.7603E-17  0.1000E-09  0.0000E+00  0.5108E+16
   -0.893735    1.16988  0.7549E-12  0.1219E-13  0.7603E-17  0.1000E-09  0.0000E+00  0.5162E+16
   -0.962486    1.28409  0.7549E-12  0.1219E-13  0.7603E-17  0.1000E-09  0.0000E+00  0.5199E+16
   -1.031238    1.40447  0.7548E-12  0.3894E-13  0.7966E-17  0.1000E-09  0.0000E+00  0.5214E+16
   -1.099990    1.53137  0.7544E-12  0.1161E-12  0.1800E-16  0.1000E-09  0.0000E+00  0.5198E+16
   -1.168742    1.66506  0.7533E-12  0.3070E-12  0.4450E-16  0.1000E-09  0.0000E+00  0.5144E+16
   -1.237494    1.80576  0.7512E-12  0.7789E-12  0.1091E-15  0.1000E-09  0.0000E+00  0.5047E+16
   -1.306246    1.95361  0.7476E-12  0.1940E-11  0.2637E-15  0.1000E-09  0.0000E+00  0.4900E+16
   -1.374999    2.10863  0.7433E-12  0.4768E-11  0.6299E-15  0.1000E-09  0.0000E+00  0.4708E+16
   -1.443751    2.27119  0.7396E-12  0.1158E-10  0.1488E-14  0.1000E-09  0.0000E+00  0.4457E+16
   -1.512503    2.44124  0.7373E-12  0.2780E-10  0.3475E-14  0.1000E-09  0.0000E+00  0.4140E+16
   -1.581255    2.61855  0.7360E-12  0.6600E-10  0.8029E-14  0.1000E-09  0.0000E+00  0.3756E+16
   -1.650007    2.80273  0.7352E-12  0.1550E-09  0.1836E-13  0.1000E-09  0.0000E+00  0.3306E+16
   -1.718759    2.99331  0.7347E-12  0.3603E-09  0.4154E-13  0.1000E-09  0.0000E+00  0.2794E+16
   -1.787511    3.18983  0.7344E-12  0.8491E-09  0.9532E-13  0.2156E-09  0.0000E+00  0.2250E+16
   -1.856262    3.39448  0.7340E-12  0.2015E-08  0.2203E-12  0.6883E-09  0.0000E+00  0.1630E+16
   -1.925013    3.60704  0.7332E-12  0.4761E-08  0.5075E-12  0.2783E-08  0.0000E+00  0.9285E+15
   -1.993764    3.82557  0.7318E-12  0.1103E-07  0.1149E-11  0.2990E-07  0.0000E+00  0.1956E+15
   -2.062515    4.01649  0.7315E-12  0.1227E-07  0.1285E-11  0.4790E-04  0.0000E+00 -0.3248E+12
   -2.131265    4.01717  0.7315E-12  0.1278E-07  0.1357E-11  0.4823E-04  0.0000E+00 -0.3308E+12
   -2.200015    4.01785  0.7315E-12  0.1318E-07  0.1433E-11  0.4753E-04  0.0000E+00 -0.3441E+12
   -2.268765    4.01854  0.7315E-12  0.1348E-07  0.1521E-11  0.4575E-04  0.0000E+00 -0.3668E+12
   -2.337514    4.01926  0.7315E-12  0.1367E-07  0.1630E-11  0.4267E-04  0.0000E+00 -0.4040E+12
   -2.406263    4.02003  0.7315E-12  0.1376E-07  0.1779E-11  0.3810E-04  0.0000E+00 -0.4663E+12
   -2.475011    4.02090  0.7315E-12  0.1370E-07  0.2004E-11  0.3173E-04  0.0000E+00 -0.5801E+12
   -2.543758    4.02196  0.7315E-12  0.1343E-07  0.2405E-11  0.2329E-04  0.0000E+00 -0.8278E+12
   -2.612505    4.02341  0.7315E-12  0.1266E-07  0.3372E-11  0.1267E-04  0.0000E+00 -0.1642E+13
   -2.681251    4.02614  0.7315E-12  0.9230E-08  0.9516E-11  0.1684E-05  0.0000E+00 -0.1634E+14
   -2.749997    4.04692  0.7315E-12  0.0000E+00  0.0000E+00  0.0000E+00  0.0000E+00  0.0000E+00
