 1 - depth, m
 2 - temperature, C
 3 - salinity, kg/kg
 4 - turbulent kinetic energy, m**2/s**2
 5 - dissipation rate, m**2/s**3
 6 - kinematic heat conductance, m**2/s
 7 - modulus of horizontal velocity, m/s
 8 - Richardson number, n/d
   -0.000000   -0.00000  0.9939E-11  0.1219E-13  0.7603E-17  0.1000E-09  0.0000E+00  0.4731E+16
   -0.068746    0.07166  0.5243E-11  0.1219E-13  0.7603E-17  0.1000E-09  0.0000E+00  0.4536E+16
   -0.137492    0.14171  0.4120E-11  0.1219E-13  0.7603E-17  0.1000E-09  0.0000E+00  0.4382E+16
   -0.206239    0.21069  0.3869E-11  0.1219E-13  0.7603E-17  0.1000E-09  0.0000E+00  0.4267E+16
   -0.274986    0.27919  0.3818E-11  0.1219E-13  0.7603E-17  0.1000E-09  0.0000E+00  0.4190E+16
   -0.343735    0.34777  0.3810E-11  0.1219E-13  0.7603E-17  0.1000E-09  0.0000E+00  0.4147E+16
   -0.412483    0.41703  0.3808E-11  0.1219E-13  0.7603E-17  0.1000E-09  0.0000E+00  0.4138E+16
   -0.481232    0.48759  0.3808E-11  0.1219E-13  0.7603E-17  0.1000E-09  0.0000E+00  0.4158E+16
   -0.549982    0.56004  0.3808E-11  0.1219E-13  0.7603E-17  0.1000E-09  0.0000E+00  0.4205E+16
   -0.618732    0.63499  0.3808E-11  0.1219E-13  0.7603E-17  0.1000E-09  0.0000E+00  0.4275E+16
   -0.687482    0.71306  0.3808E-11  0.1219E-13  0.7603E-17  0.1000E-09  0.0000E+00  0.4379E+16
   -0.756233    0.79513  0.3808E-11  0.1219E-13  0.7603E-17  0.1000E-09  0.0000E+00  0.4506E+16
   -0.824984    0.88196  0.3808E-11  0.1219E-13  0.7603E-17  0.1000E-09  0.0000E+00  0.4640E+16
   -0.893735    0.97413  0.3808E-11  0.1219E-13  0.7603E-17  0.1000E-09  0.0000E+00  0.4774E+16
   -0.962486    1.07216  0.3808E-11  0.1219E-13  0.7603E-17  0.1000E-09  0.0000E+00  0.4903E+16
   -1.031238    1.17658  0.3807E-11  0.1219E-13  0.7603E-17  0.1000E-09  0.0000E+00  0.5019E+16
   -1.099990    1.28784  0.3806E-11  0.1219E-13  0.7603E-17  0.1000E-09  0.0000E+00  0.5113E+16
   -1.168742    1.40635  0.3803E-11  0.2453E-13  0.7886E-17  0.1000E-09  0.0000E+00  0.5178E+16
   -1.237494    1.53245  0.3794E-11  0.6878E-13  0.1272E-16  0.1000E-09  0.0000E+00  0.5205E+16
   -1.306246    1.66639  0.3777E-11  0.1988E-12  0.2986E-16  0.1000E-09  0.0000E+00  0.5186E+16
   -1.374998    1.80837  0.3754E-11  0.5294E-12  0.7564E-16  0.1000E-09  0.0000E+00  0.5130E+16
   -1.443751    1.95894  0.3733E-11  0.1364E-11  0.1893E-15  0.1000E-09  0.0000E+00  0.5015E+16
   -1.512503    2.11823  0.3721E-11  0.3452E-11  0.4666E-15  0.1000E-09  0.0000E+00  0.4829E+16
   -1.581255    2.28614  0.3714E-11  0.8606E-11  0.1134E-14  0.1000E-09  0.0000E+00  0.4568E+16
   -1.650007    2.46241  0.3710E-11  0.2116E-10  0.2718E-14  0.1000E-09  0.0000E+00  0.4230E+16
   -1.718759    2.64674  0.3707E-11  0.5133E-10  0.6430E-14  0.1000E-09  0.0000E+00  0.3816E+16
   -1.787510    2.83878  0.3706E-11  0.1260E-09  0.1539E-13  0.1000E-09  0.0000E+00  0.3348E+16
   -1.856262    3.03951  0.3705E-11  0.3105E-09  0.3698E-13  0.1004E-09  0.0000E+00  0.2818E+16
   -1.925013    3.25050  0.3704E-11  0.7608E-09  0.8837E-13  0.2030E-09  0.0000E+00  0.2215E+16
   -1.993764    3.47514  0.3702E-11  0.1851E-08  0.2098E-12  0.7117E-09  0.0000E+00  0.1491E+16
   -2.062515    3.71808  0.3696E-11  0.4361E-08  0.4823E-12  0.4253E-08  0.0000E+00  0.5616E+15
   -2.131265    3.97590  0.3689E-11  0.6455E-08  0.7331E-12  0.1165E-04  0.0000E+00  0.4485E+13
   -2.200015    3.99973  0.3689E-11  0.7263E-08  0.8434E-12  0.2340E-04  0.0000E+00 -0.3479E+12
   -2.268764    4.00159  0.3689E-11  0.7748E-08  0.9297E-12  0.2442E-04  0.0000E+00 -0.3781E+12
   -2.337513    4.00329  0.3689E-11  0.8133E-08  0.1029E-11  0.2411E-04  0.0000E+00 -0.4239E+12
   -2.406262    4.00498  0.3689E-11  0.8414E-08  0.1155E-11  0.2246E-04  0.0000E+00 -0.4992E+12
   -2.475010    4.00676  0.3689E-11  0.8572E-08  0.1334E-11  0.1934E-04  0.0000E+00 -0.6374E+12
   -2.543758    4.00880  0.3689E-11  0.8555E-08  0.1638E-11  0.1457E-04  0.0000E+00 -0.9457E+12
   -2.612505    4.01151  0.3689E-11  0.8186E-08  0.2353E-11  0.8125E-05  0.0000E+00 -0.2008E+13
   -2.681251    4.01640  0.3689E-11  0.6304E-08  0.6351E-11  0.1366E-05  0.0000E+00 -0.1913E+14
   -2.749997    4.04447  0.3689E-11  0.0000E+00  0.0000E+00  0.0000E+00  0.0000E+00  0.0000E+00
