 1 - depth, m
 2 - temperature, C
 3 - salinity, kg/kg
 4 - turbulent kinetic energy, m**2/s**2
 5 - dissipation rate, m**2/s**3
 6 - kinematic heat conductance, m**2/s
 7 - modulus of horizontal velocity, m/s
 8 - Richardson number, n/d
   -0.000000   -0.00000  0.8031E-11  0.1219E-13  0.7603E-17  0.1000E-09  0.0000E+00  0.6440E+16
   -0.068746    0.09789  0.4534E-11  0.1219E-13  0.7603E-17  0.1000E-09  0.0000E+00  0.6209E+16
   -0.137492    0.19483  0.3322E-11  0.1219E-13  0.7603E-17  0.1000E-09  0.0000E+00  0.6008E+16
   -0.206239    0.29121  0.2991E-11  0.1219E-13  0.7603E-17  0.1000E-09  0.0000E+00  0.5836E+16
   -0.274987    0.38746  0.2914E-11  0.1219E-13  0.7603E-17  0.1000E-09  0.0000E+00  0.5690E+16
   -0.343735    0.48400  0.2897E-11  0.1219E-13  0.7603E-17  0.1000E-09  0.0000E+00  0.5567E+16
   -0.412483    0.58127  0.2894E-11  0.1219E-13  0.7603E-17  0.1000E-09  0.0000E+00  0.5465E+16
   -0.481233    0.67971  0.2894E-11  0.1219E-13  0.7603E-17  0.1000E-09  0.0000E+00  0.5380E+16
   -0.549982    0.77974  0.2894E-11  0.1219E-13  0.7603E-17  0.1000E-09  0.0000E+00  0.5309E+16
   -0.618732    0.88177  0.2894E-11  0.1219E-13  0.7603E-17  0.1000E-09  0.0000E+00  0.5247E+16
   -0.687482    0.98621  0.2894E-11  0.1219E-13  0.7603E-17  0.1000E-09  0.0000E+00  0.5203E+16
   -0.756233    1.09369  0.2894E-11  0.1219E-13  0.7603E-17  0.1000E-09  0.0000E+00  0.5167E+16
   -0.824984    1.20473  0.2894E-11  0.1219E-13  0.7603E-17  0.1000E-09  0.0000E+00  0.5124E+16
   -0.893735    1.31963  0.2894E-11  0.1219E-13  0.7603E-17  0.1000E-09  0.0000E+00  0.5071E+16
   -0.962487    1.43869  0.2893E-11  0.1227E-13  0.7603E-17  0.1000E-09  0.0000E+00  0.5004E+16
   -1.031239    1.56213  0.2892E-11  0.5991E-13  0.9238E-17  0.1000E-09  0.0000E+00  0.4917E+16
   -1.099991    1.69017  0.2889E-11  0.1662E-12  0.1936E-16  0.1000E-09  0.0000E+00  0.4807E+16
   -1.168743    1.82296  0.2883E-11  0.3953E-12  0.4283E-16  0.1000E-09  0.0000E+00  0.4671E+16
   -1.237495    1.96060  0.2872E-11  0.8964E-12  0.9381E-16  0.1000E-09  0.0000E+00  0.4503E+16
   -1.306247    2.10316  0.2857E-11  0.1993E-11  0.2030E-15  0.1000E-09  0.0000E+00  0.4303E+16
   -1.374999    2.25062  0.2841E-11  0.4378E-11  0.4348E-15  0.1000E-09  0.0000E+00  0.4073E+16
   -1.443751    2.40321  0.2829E-11  0.9524E-11  0.9225E-15  0.1000E-09  0.0000E+00  0.3806E+16
   -1.512504    2.56087  0.2821E-11  0.2053E-10  0.1940E-14  0.1000E-09  0.0000E+00  0.3497E+16
   -1.581256    2.72341  0.2817E-11  0.4387E-10  0.4047E-14  0.1000E-09  0.0000E+00  0.3146E+16
   -1.650008    2.89052  0.2814E-11  0.9293E-10  0.8369E-14  0.1000E-09  0.0000E+00  0.2755E+16
   -1.718760    3.06185  0.2812E-11  0.1952E-09  0.1717E-13  0.1000E-09  0.0000E+00  0.2328E+16
   -1.787512    3.23707  0.2810E-11  0.4160E-09  0.3572E-13  0.1000E-09  0.0000E+00  0.1893E+16
   -1.856263    3.41869  0.2809E-11  0.8950E-09  0.7507E-13  0.2718E-09  0.0000E+00  0.1406E+16
   -1.925014    3.60678  0.2807E-11  0.1925E-08  0.1578E-12  0.9300E-09  0.0000E+00  0.8637E+15
   -1.993765    3.80115  0.2803E-11  0.4123E-08  0.3305E-12  0.6264E-08  0.0000E+00  0.2685E+15
   -2.062516    3.99466  0.2802E-11  0.4889E-08  0.3946E-12  0.2188E-04  0.0000E+00 -0.1826E+12
   -2.131266    3.99595  0.2802E-11  0.5240E-08  0.4319E-12  0.2363E-04  0.0000E+00 -0.1930E+12
   -2.200016    3.99716  0.2802E-11  0.5537E-08  0.4727E-12  0.2446E-04  0.0000E+00 -0.2085E+12
   -2.268766    3.99832  0.2802E-11  0.5782E-08  0.5193E-12  0.2438E-04  0.0000E+00 -0.2313E+12
   -2.337515    3.99949  0.2802E-11  0.5980E-08  0.5769E-12  0.2330E-04  0.0000E+00 -0.2659E+12
   -2.406264    4.00072  0.2802E-11  0.6123E-08  0.6533E-12  0.2114E-04  0.0000E+00 -0.3222E+12
   -2.475012    4.00208  0.2802E-11  0.6193E-08  0.7662E-12  0.1773E-04  0.0000E+00 -0.4248E+12
   -2.543759    4.00372  0.2802E-11  0.6146E-08  0.9624E-12  0.1295E-04  0.0000E+00 -0.6554E+12
   -2.612506    4.00597  0.2802E-11  0.5842E-08  0.1431E-11  0.6875E-05  0.0000E+00 -0.1473E+13
   -2.681253    4.01028  0.2802E-11  0.4432E-08  0.4011E-11  0.1077E-05  0.0000E+00 -0.1573E+14
   -2.749998    4.03715  0.2802E-11  0.0000E+00  0.0000E+00  0.0000E+00  0.0000E+00  0.0000E+00
