 1 - depth, m
 2 - temperature, C
 3 - salinity, kg/kg
 4 - turbulent kinetic energy, m**2/s**2
 5 - dissipation rate, m**2/s**3
 6 - kinematic heat conductance, m**2/s
 7 - modulus of horizontal velocity, m/s
 8 - Richardson number, n/d
   -0.000000   -0.00000  0.1191E-09  0.1219E-13  0.7603E-17  0.1000E-09  0.0000E+00  0.7436E+16
   -0.068746    0.11327  0.8351E-10  0.1219E-13  0.7603E-17  0.1000E-09  0.0000E+00  0.7171E+16
   -0.137492    0.22595  0.6236E-10  0.1219E-13  0.7603E-17  0.1000E-09  0.0000E+00  0.6910E+16
   -0.206239    0.33803  0.5137E-10  0.1219E-13  0.7603E-17  0.1000E-09  0.0000E+00  0.6653E+16
   -0.274987    0.44953  0.4646E-10  0.1219E-13  0.7603E-17  0.1000E-09  0.0000E+00  0.6401E+16
   -0.343735    0.56043  0.4455E-10  0.1219E-13  0.7603E-17  0.1000E-09  0.0000E+00  0.6154E+16
   -0.412483    0.67075  0.4390E-10  0.1219E-13  0.7603E-17  0.1000E-09  0.0000E+00  0.5910E+16
   -0.481233    0.78049  0.4369E-10  0.1219E-13  0.7603E-17  0.1000E-09  0.0000E+00  0.5671E+16
   -0.549982    0.88964  0.4363E-10  0.1219E-13  0.7603E-17  0.1000E-09  0.0000E+00  0.5436E+16
   -0.618732    0.99821  0.4362E-10  0.1219E-13  0.7603E-17  0.1000E-09  0.0000E+00  0.5205E+16
   -0.687482    1.10619  0.4361E-10  0.1219E-13  0.7603E-17  0.1000E-09  0.0000E+00  0.4983E+16
   -0.756233    1.21370  0.4361E-10  0.1219E-13  0.7603E-17  0.1000E-09  0.0000E+00  0.4767E+16
   -0.824984    1.32081  0.4361E-10  0.1219E-13  0.7603E-17  0.1000E-09  0.0000E+00  0.4554E+16
   -0.893735    1.42751  0.4360E-10  0.1219E-13  0.7603E-17  0.1000E-09  0.0000E+00  0.4343E+16
   -0.962487    1.53377  0.4359E-10  0.1219E-13  0.7603E-17  0.1000E-09  0.0000E+00  0.4134E+16
   -1.031239    1.63956  0.4356E-10  0.1219E-13  0.7603E-17  0.1000E-09  0.0000E+00  0.3926E+16
   -1.099991    1.74486  0.4352E-10  0.1219E-13  0.7603E-17  0.1000E-09  0.0000E+00  0.3721E+16
   -1.168743    1.84962  0.4345E-10  0.1219E-13  0.7603E-17  0.1000E-09  0.0000E+00  0.3518E+16
   -1.237495    1.95381  0.4336E-10  0.1219E-13  0.7603E-17  0.1000E-09  0.0000E+00  0.3317E+16
   -1.306247    2.05737  0.4324E-10  0.1219E-13  0.7603E-17  0.1000E-09  0.0000E+00  0.3118E+16
   -1.374999    2.16024  0.4311E-10  0.1219E-13  0.7603E-17  0.1000E-09  0.0000E+00  0.2924E+16
   -1.443751    2.26245  0.4299E-10  0.1219E-13  0.7603E-17  0.1000E-09  0.0000E+00  0.2732E+16
   -1.512504    2.36396  0.4288E-10  0.1219E-13  0.7603E-17  0.1000E-09  0.0000E+00  0.2543E+16
   -1.581256    2.46468  0.4280E-10  0.1219E-13  0.7603E-17  0.1000E-09  0.0000E+00  0.2357E+16
   -1.650008    2.56455  0.4274E-10  0.1219E-13  0.7603E-17  0.1000E-09  0.0000E+00  0.2174E+16
   -1.718760    2.66348  0.4270E-10  0.1219E-13  0.7603E-17  0.1000E-09  0.0000E+00  0.1995E+16
   -1.787512    2.76144  0.4267E-10  0.1219E-13  0.7603E-17  0.1000E-09  0.0000E+00  0.1839E+16
   -1.856263    2.85941  0.4264E-10  0.1219E-13  0.7603E-17  0.1000E-09  0.0000E+00  0.1684E+16
   -1.925014    2.95742  0.4259E-10  0.1219E-13  0.7603E-17  0.1000E-09  0.0000E+00  0.1530E+16
   -1.993765    3.05553  0.4254E-10  0.1219E-13  0.7603E-17  0.1000E-09  0.0000E+00  0.1373E+16
   -2.062516    3.15352  0.4247E-10  0.1219E-13  0.7603E-17  0.1000E-09  0.0000E+00  0.1211E+16
   -2.131266    3.25093  0.4239E-10  0.1219E-13  0.7603E-17  0.1000E-09  0.0000E+00  0.1053E+16
   -2.200016    3.34770  0.4232E-10  0.1219E-13  0.7603E-17  0.1000E-09  0.0000E+00  0.8971E+15
   -2.268766    3.44377  0.4227E-10  0.1219E-13  0.7603E-17  0.1000E-09  0.0000E+00  0.7479E+15
   -2.337515    3.53953  0.4224E-10  0.4226E-13  0.3553E-16  0.1000E-09  0.0000E+00  0.6021E+15
   -2.406264    3.63528  0.4222E-10  0.3188E-12  0.2636E-15  0.1000E-09  0.0000E+00  0.4582E+15
   -2.475012    3.73136  0.4221E-10  0.2477E-11  0.2004E-14  0.1000E-09  0.0000E+00  0.3149E+15
   -2.543759    3.82843  0.4221E-10  0.1930E-10  0.1543E-13  0.3985E-09  0.0000E+00  0.1684E+15
   -2.612506    3.92745  0.4221E-10  0.1539E-09  0.1249E-12  0.1413E-07  0.0000E+00  0.1663E+14
   -2.681253    4.02296  0.4221E-10  0.1122E-08  0.1175E-11  0.3755E-06  0.0000E+00 -0.3026E+14
   -2.749999    4.05849  0.4221E-10  0.0000E+00  0.0000E+00  0.0000E+00  0.0000E+00  0.0000E+00
