 1 - depth, m
 2 - temperature, C
 3 - salinity, kg/kg
 4 - turbulent kinetic energy, m**2/s**2
 5 - dissipation rate, m**2/s**3
 6 - kinematic heat conductance, m**2/s
 7 - modulus of horizontal velocity, m/s
 8 - Richardson number, n/d
   -0.000000   11.70225  0.1265E-11  0.1487E-04  0.6825E-06  0.3467E-04  0.2607E-01 -0.3547E-01
   -0.068746   11.73722  0.1265E-11  0.1415E-04  0.2399E-06  0.9786E-04  0.1688E-01 -0.9906E-01
   -0.137492   11.74902  0.1265E-11  0.1374E-04  0.1383E-06  0.1771E-03  0.1367E-01 -0.1679E+00
   -0.206239   11.75536  0.1265E-11  0.1349E-04  0.9571E-07  0.3006E-03  0.1186E-01  0.3608E+02
   -0.274987   11.75921  0.1265E-11  0.1333E-04  0.7331E-07  0.4799E-03  0.1069E-01  0.1933E+02
   -0.343735   11.76163  0.1265E-11  0.1327E-04  0.6015E-07  0.7509E-03  0.9860E-02  0.6389E+02
   -0.412484   11.76314  0.1265E-11  0.1330E-04  0.5177E-07  0.1054E-02  0.9236E-02  0.7450E+02
   -0.481233   11.76410  0.1265E-11  0.1338E-04  0.4581E-07  0.1201E-02  0.8713E-02  0.7888E+01
   -0.549983   11.76490  0.1265E-11  0.1349E-04  0.4113E-07  0.1259E-02  0.8224E-02  0.8839E+01
   -0.618733   11.76564  0.1265E-11  0.1361E-04  0.3736E-07  0.1328E-02  0.7761E-02  0.9544E+01
   -0.687483   11.76632  0.1265E-11  0.1373E-04  0.3427E-07  0.1393E-02  0.7324E-02  0.1009E+02
   -0.756234   11.76695  0.1265E-11  0.1384E-04  0.3169E-07  0.1458E-02  0.6908E-02  0.1064E+02
   -0.824985   11.76753  0.1265E-11  0.1393E-04  0.2950E-07  0.1521E-02  0.6510E-02  0.1116E+02
   -0.893736   11.76808  0.1265E-11  0.1400E-04  0.2763E-07  0.1583E-02  0.6127E-02  0.1167E+02
   -0.962488   11.76859  0.1265E-11  0.1405E-04  0.2601E-07  0.1643E-02  0.5756E-02  0.1219E+02
   -1.031240   11.76906  0.1265E-11  0.1407E-04  0.2459E-07  0.1700E-02  0.5397E-02  0.1272E+02
   -1.099992   11.76951  0.1265E-11  0.1406E-04  0.2333E-07  0.1754E-02  0.5047E-02  0.1329E+02
   -1.168744   11.76993  0.1265E-11  0.1403E-04  0.2223E-07  0.1803E-02  0.4705E-02  0.1392E+02
   -1.237496   11.77033  0.1265E-11  0.1396E-04  0.2124E-07  0.1846E-02  0.4371E-02  0.1464E+02
   -1.306249   11.77071  0.1265E-11  0.1386E-04  0.2036E-07  0.1882E-02  0.4043E-02  0.1548E+02
   -1.375001   11.77107  0.1265E-11  0.1373E-04  0.1957E-07  0.1908E-02  0.3720E-02  0.1650E+02
   -1.443753   11.77141  0.1265E-11  0.1356E-04  0.1887E-07  0.1924E-02  0.3403E-02  0.1782E+02
   -1.512506   11.77174  0.1265E-11  0.1336E-04  0.1824E-07  0.1929E-02  0.3089E-02  0.1960E+02
   -1.581258   11.77206  0.1265E-11  0.1313E-04  0.1768E-07  0.1921E-02  0.2780E-02  0.2215E+02
   -1.650010   11.77237  0.1265E-11  0.1286E-04  0.1719E-07  0.1904E-02  0.2473E-02  0.2614E+02
   -1.718762   11.77267  0.1265E-11  0.1256E-04  0.1675E-07  0.1866E-02  0.2170E-02  0.3030E+02
   -1.787514   11.77297  0.1265E-11  0.1221E-04  0.1636E-07  0.1860E-02  0.1867E-02  0.7517E+01
   -1.856265   11.77326  0.1265E-11  0.1183E-04  0.1604E-07  0.1859E-02  0.1608E-02  0.3758E+01
   -1.925017   11.77355  0.1265E-11  0.1144E-04  0.1583E-07  0.1874E-02  0.1386E-02  0.2310E+01
   -1.993768   11.77383  0.1265E-11  0.1103E-04  0.1575E-07  0.1898E-02  0.1199E-02  0.1659E+01
   -2.062519   11.77411  0.1265E-11  0.1063E-04  0.1584E-07  0.1890E-02  0.1041E-02  0.1345E+01
   -2.131269   11.77437  0.1265E-11  0.1026E-04  0.1611E-07  0.1852E-02  0.9026E-03  0.1096E+01
   -2.200019   11.77464  0.1265E-11  0.9909E-05  0.1659E-07  0.1772E-02  0.7796E-03  0.8965E+00
   -2.268769   11.77492  0.1265E-11  0.9591E-05  0.1731E-07  0.1647E-02  0.6714E-03  0.7042E+00
   -2.337518   11.77521  0.1265E-11  0.9295E-05  0.1834E-07  0.1476E-02  0.5801E-03  0.5903E+00
   -2.406267   11.77553  0.1265E-11  0.9015E-05  0.1983E-07  0.1329E-02  0.5045E-03  0.1418E+01
   -2.475015   11.77587  0.1265E-11  0.8714E-05  0.2241E-07  0.1125E-02  0.4419E-03  0.6728E+01
   -2.543762   11.77632  0.1265E-11  0.8319E-05  0.2745E-07  0.1002E-02  0.3815E-03  0.1577E+03
   -2.612510   11.77686  0.1265E-11  0.7597E-05  0.4222E-07  0.5286E-03  0.3241E-03  0.3509E+03
   -2.681256   11.77856  0.1265E-11  0.4633E-05  0.1563E-06  0.6045E-04  0.2314E-03 -0.4050E+05
   -2.750002   11.78666  0.1265E-11  0.0000E+00  0.0000E+00  0.0000E+00  0.2546E-03  0.0000E+00
