 1 - depth, m
 2 - temperature, C
 3 - salinity, kg/kg
 4 - turbulent kinetic energy, m**2/s**2
 5 - dissipation rate, m**2/s**3
 6 - kinematic heat conductance, m**2/s
 7 - modulus of horizontal velocity, m/s
 8 - Richardson number, n/d
   -0.000000    3.89246  0.2828E-11  0.3939E-04  0.5271E-05  0.3589E-04  0.5825E-01  0.8593E-04
   -0.068746    3.94252  0.2828E-11  0.2775E-04  0.1185E-05  0.8154E-04  0.3298E-01  0.1808E-03
   -0.137492    3.95738  0.2828E-11  0.2496E-04  0.5277E-06  0.1284E-03  0.2669E-01  0.2075E-03
   -0.206239    3.96696  0.2828E-11  0.2352E-04  0.3144E-06  0.1775E-03  0.2277E-01  0.2155E-03
   -0.274987    3.97381  0.2828E-11  0.2256E-04  0.2183E-06  0.2273E-03  0.2001E-01  0.2021E-03
   -0.343735    3.97904  0.2828E-11  0.2180E-04  0.1652E-06  0.2765E-03  0.1792E-01  0.1685E-03
   -0.412484    3.98323  0.2828E-11  0.2115E-04  0.1318E-06  0.3244E-03  0.1626E-01  0.1182E-03
   -0.481233    3.98671  0.2828E-11  0.2058E-04  0.1089E-06  0.3707E-03  0.1489E-01  0.5467E-04
   -0.549983    3.98968  0.2828E-11  0.2007E-04  0.9240E-07  0.4152E-03  0.1371E-01 -0.1946E-04
   -0.618733    3.99227  0.2828E-11  0.1960E-04  0.7994E-07  0.4578E-03  0.1270E-01 -0.1021E-03
   -0.687483    3.99457  0.2828E-11  0.1918E-04  0.7025E-07  0.4986E-03  0.1179E-01 -0.1914E-03
   -0.756234    3.99663  0.2828E-11  0.1878E-04  0.6254E-07  0.5374E-03  0.1098E-01 -0.2857E-03
   -0.824985    3.99850  0.2828E-11  0.1841E-04  0.5629E-07  0.5742E-03  0.1025E-01 -0.3834E-03
   -0.893737    4.00021  0.2828E-11  0.1807E-04  0.5114E-07  0.6088E-03  0.9572E-02 -0.4831E-03
   -0.962488    4.00179  0.2828E-11  0.1774E-04  0.4684E-07  0.6411E-03  0.8948E-02 -0.5829E-03
   -1.031240    4.00325  0.2828E-11  0.1744E-04  0.4322E-07  0.6708E-03  0.8365E-02 -0.6814E-03
   -1.099992    4.00461  0.2828E-11  0.1714E-04  0.4013E-07  0.6977E-03  0.7818E-02 -0.7768E-03
   -1.168744    4.00590  0.2828E-11  0.1686E-04  0.3748E-07  0.7217E-03  0.7299E-02 -0.8672E-03
   -1.237497    4.00711  0.2828E-11  0.1658E-04  0.3518E-07  0.7423E-03  0.6805E-02 -0.9510E-03
   -1.306249    4.00826  0.2828E-11  0.1630E-04  0.3316E-07  0.7593E-03  0.6330E-02 -0.1026E-02
   -1.375001    4.00936  0.2828E-11  0.1603E-04  0.3139E-07  0.7723E-03  0.5871E-02 -0.1091E-02
   -1.443754    4.01042  0.2828E-11  0.1575E-04  0.2980E-07  0.7806E-03  0.5425E-02 -0.1143E-02
   -1.512506    4.01143  0.2828E-11  0.1546E-04  0.2836E-07  0.7838E-03  0.4987E-02 -0.1181E-02
   -1.581258    4.01242  0.2828E-11  0.1515E-04  0.2704E-07  0.7808E-03  0.4553E-02 -0.1201E-02
   -1.650010    4.01339  0.2828E-11  0.1481E-04  0.2578E-07  0.7700E-03  0.4120E-02 -0.1201E-02
   -1.718762    4.01434  0.2828E-11  0.1443E-04  0.2455E-07  0.7535E-03  0.3680E-02 -0.1197E-02
   -1.787514    4.01529  0.2828E-11  0.1400E-04  0.2332E-07  0.8021E-03  0.3233E-02 -0.1614E-02
   -1.856266    4.01618  0.2828E-11  0.1355E-04  0.2218E-07  0.8303E-03  0.2864E-02 -0.2124E-02
   -1.925017    4.01702  0.2828E-11  0.1311E-04  0.2116E-07  0.8464E-03  0.2550E-02 -0.2796E-02
   -1.993768    4.01784  0.2828E-11  0.1267E-04  0.2025E-07  0.8464E-03  0.2280E-02 -0.3503E-02
   -2.062519    4.01865  0.2828E-11  0.1224E-04  0.1949E-07  0.8309E-03  0.2041E-02 -0.4014E-02
   -2.131269    4.01946  0.2828E-11  0.1183E-04  0.1890E-07  0.8086E-03  0.1816E-02 -0.4553E-02
   -2.200019    4.02027  0.2828E-11  0.1143E-04  0.1850E-07  0.7787E-03  0.1604E-02 -0.5095E-02
   -2.268769    4.02111  0.2828E-11  0.1104E-04  0.1833E-07  0.7439E-03  0.1401E-02 -0.6044E-02
   -2.337518    4.02196  0.2828E-11  0.1065E-04  0.1844E-07  0.6972E-03  0.1211E-02 -0.7334E-02
   -2.406267    4.02286  0.2828E-11  0.1024E-04  0.1898E-07  0.6340E-03  0.1035E-02 -0.9007E-02
   -2.475015    4.02383  0.2828E-11  0.9798E-05  0.2028E-07  0.5491E-03  0.8696E-03 -0.1131E-01
   -2.543763    4.02494  0.2828E-11  0.9271E-05  0.2316E-07  0.4347E-03  0.7126E-03 -0.1452E-01
   -2.612510    4.02631  0.2828E-11  0.8526E-05  0.3078E-07  0.2794E-03  0.5581E-03 -0.2179E-01
   -2.681257    4.02841  0.2828E-11  0.5049E-05  0.1061E-06  0.2867E-04  0.4012E-03 -0.3386E+04
   -2.750002    4.04831  0.2828E-11  0.0000E+00  0.0000E+00  0.0000E+00  0.4007E-03  0.0000E+00
