 1 - depth, m
 2 - temperature, C
 3 - salinity, kg/kg
 4 - turbulent kinetic energy, m**2/s**2
 5 - dissipation rate, m**2/s**3
 6 - kinematic heat conductance, m**2/s
 7 - modulus of horizontal velocity, m/s
 8 - Richardson number, n/d
   -0.000000   11.47891  0.9472E-10  0.1484E-04  0.6788E-06  0.3455E-04  0.2621E-01 -0.3307E-01
   -0.068746   11.51241  0.9472E-10  0.1409E-04  0.2398E-06  0.9574E-04  0.1703E-01 -0.9069E-01
   -0.137492   11.52389  0.9472E-10  0.1365E-04  0.1385E-06  0.1699E-03  0.1377E-01 -0.1555E+00
   -0.206239   11.53016  0.9472E-10  0.1335E-04  0.9560E-07  0.2775E-03  0.1192E-01  0.3537E+02
   -0.274987   11.53404  0.9472E-10  0.1316E-04  0.7287E-07  0.4372E-03  0.1070E-01  0.2828E+02
   -0.343735   11.53654  0.9472E-10  0.1304E-04  0.5941E-07  0.6838E-03  0.9834E-02  0.9342E+02
   -0.412484   11.53813  0.9472E-10  0.1301E-04  0.5078E-07  0.9659E-03  0.9185E-02  0.5700E+02
   -0.481233   11.53915  0.9472E-10  0.1305E-04  0.4477E-07  0.1206E-02  0.8646E-02  0.8312E+01
   -0.549983   11.53990  0.9472E-10  0.1312E-04  0.4016E-07  0.1240E-02  0.8164E-02  0.9201E+01
   -0.618733   11.54061  0.9472E-10  0.1320E-04  0.3639E-07  0.1312E-02  0.7699E-02  0.1018E+02
   -0.687483   11.54125  0.9472E-10  0.1328E-04  0.3332E-07  0.1372E-02  0.7263E-02  0.1077E+02
   -0.756234   11.54185  0.9472E-10  0.1336E-04  0.3075E-07  0.1434E-02  0.6848E-02  0.1143E+02
   -0.824985   11.54241  0.9472E-10  0.1342E-04  0.2858E-07  0.1493E-02  0.6451E-02  0.1202E+02
   -0.893737   11.54293  0.9472E-10  0.1346E-04  0.2672E-07  0.1552E-02  0.6069E-02  0.1263E+02
   -0.962488   11.54341  0.9472E-10  0.1349E-04  0.2510E-07  0.1607E-02  0.5701E-02  0.1326E+02
   -1.031240   11.54387  0.9472E-10  0.1349E-04  0.2369E-07  0.1661E-02  0.5344E-02  0.1392E+02
   -1.099992   11.54429  0.9472E-10  0.1347E-04  0.2245E-07  0.1711E-02  0.4997E-02  0.1463E+02
   -1.168744   11.54469  0.9472E-10  0.1342E-04  0.2135E-07  0.1756E-02  0.4659E-02  0.1543E+02
   -1.237496   11.54507  0.9472E-10  0.1335E-04  0.2036E-07  0.1796E-02  0.4328E-02  0.1636E+02
   -1.306249   11.54543  0.9472E-10  0.1325E-04  0.1949E-07  0.1830E-02  0.4004E-02  0.1746E+02
   -1.375001   11.54577  0.9472E-10  0.1311E-04  0.1870E-07  0.1855E-02  0.3686E-02  0.1883E+02
   -1.443753   11.54609  0.9472E-10  0.1295E-04  0.1800E-07  0.1872E-02  0.3372E-02  0.2062E+02
   -1.512506   11.54640  0.9472E-10  0.1276E-04  0.1736E-07  0.1879E-02  0.3064E-02  0.2308E+02
   -1.581258   11.54670  0.9472E-10  0.1254E-04  0.1680E-07  0.1875E-02  0.2759E-02  0.2672E+02
   -1.650010   11.54699  0.9472E-10  0.1229E-04  0.1629E-07  0.1864E-02  0.2457E-02  0.3264E+02
   -1.718762   11.54727  0.9472E-10  0.1201E-04  0.1584E-07  0.1831E-02  0.2159E-02  0.3953E+02
   -1.787514   11.54754  0.9472E-10  0.1169E-04  0.1543E-07  0.1835E-02  0.1861E-02  0.8148E+01
   -1.856265   11.54781  0.9472E-10  0.1134E-04  0.1509E-07  0.1838E-02  0.1606E-02  0.3906E+01
   -1.925017   11.54807  0.9472E-10  0.1097E-04  0.1484E-07  0.1856E-02  0.1387E-02  0.2351E+01
   -1.993768   11.54833  0.9472E-10  0.1059E-04  0.1471E-07  0.1882E-02  0.1201E-02  0.1670E+01
   -2.062519   11.54857  0.9472E-10  0.1022E-04  0.1473E-07  0.1883E-02  0.1044E-02  0.1348E+01
   -2.131269   11.54882  0.9472E-10  0.9875E-05  0.1491E-07  0.1852E-02  0.9044E-03  0.1095E+01
   -2.200019   11.54906  0.9472E-10  0.9552E-05  0.1529E-07  0.1786E-02  0.7806E-03  0.8939E+00
   -2.268769   11.54930  0.9472E-10  0.9256E-05  0.1588E-07  0.1677E-02  0.6710E-03  0.6977E+00
   -2.337518   11.54955  0.9472E-10  0.8983E-05  0.1675E-07  0.1513E-02  0.5780E-03  0.5625E+00
   -2.406267   11.54983  0.9472E-10  0.8729E-05  0.1799E-07  0.1358E-02  0.5008E-03  0.5398E+00
   -2.475015   11.55012  0.9472E-10  0.8475E-05  0.1993E-07  0.1170E-02  0.4373E-03  0.1094E+02
   -2.543763   11.55048  0.9472E-10  0.8173E-05  0.2346E-07  0.1079E-02  0.3808E-03  0.5026E+03
   -2.612510   11.55089  0.9472E-10  0.7636E-05  0.3370E-07  0.5658E-03  0.3298E-03  0.3618E+03
   -2.681256   11.55210  0.9472E-10  0.4702E-05  0.1322E-06  0.4887E-04  0.2450E-03 -0.1056E+05
   -2.750002   11.56117  0.9472E-10  0.0000E+00  0.0000E+00  0.0000E+00  0.2567E-03  0.0000E+00
