 1 - depth, m
 2 - temperature, C
 3 - salinity, kg/kg
 4 - turbulent kinetic energy, m**2/s**2
 5 - dissipation rate, m**2/s**3
 6 - kinematic heat conductance, m**2/s
 7 - modulus of horizontal velocity, m/s
 8 - Richardson number, n/d
   -0.000000   -0.00000  0.3638E-11  0.1219E-13  0.7603E-17  0.1000E-09  0.0000E+00  0.7433E+16
   -0.068746    0.11323  0.2119E-11  0.1219E-13  0.7603E-17  0.1000E-09  0.0000E+00  0.7135E+16
   -0.137492    0.22533  0.1543E-11  0.1219E-13  0.7603E-17  0.1000E-09  0.0000E+00  0.6868E+16
   -0.206239    0.33670  0.1356E-11  0.1219E-13  0.7603E-17  0.1000E-09  0.0000E+00  0.6629E+16
   -0.274987    0.44774  0.1306E-11  0.1219E-13  0.7603E-17  0.1000E-09  0.0000E+00  0.6416E+16
   -0.343735    0.55884  0.1294E-11  0.1219E-13  0.7603E-17  0.1000E-09  0.0000E+00  0.6224E+16
   -0.412483    0.67038  0.1291E-11  0.1219E-13  0.7603E-17  0.1000E-09  0.0000E+00  0.6049E+16
   -0.481232    0.78272  0.1291E-11  0.1219E-13  0.7603E-17  0.1000E-09  0.0000E+00  0.5888E+16
   -0.549982    0.89622  0.1290E-11  0.1219E-13  0.7603E-17  0.1000E-09  0.0000E+00  0.5737E+16
   -0.618732    1.01119  0.1290E-11  0.1219E-13  0.7603E-17  0.1000E-09  0.0000E+00  0.5592E+16
   -0.687482    1.12793  0.1290E-11  0.1219E-13  0.7603E-17  0.1000E-09  0.0000E+00  0.5461E+16
   -0.756233    1.24698  0.1290E-11  0.1219E-13  0.7603E-17  0.1000E-09  0.0000E+00  0.5334E+16
   -0.824984    1.36874  0.1290E-11  0.1219E-13  0.7603E-17  0.1000E-09  0.0000E+00  0.5201E+16
   -0.893735    1.49341  0.1290E-11  0.3837E-13  0.7603E-17  0.1000E-09  0.0000E+00  0.5056E+16
   -0.962487    1.62120  0.1290E-11  0.1139E-12  0.1330E-16  0.1000E-09  0.0000E+00  0.4899E+16
   -1.031238    1.75224  0.1290E-11  0.2764E-12  0.2848E-16  0.1000E-09  0.0000E+00  0.4725E+16
   -1.099990    1.88668  0.1288E-11  0.6239E-12  0.6133E-16  0.1000E-09  0.0000E+00  0.4532E+16
   -1.168742    2.02458  0.1286E-11  0.1367E-11  0.1301E-15  0.1000E-09  0.0000E+00  0.4319E+16
   -1.237494    2.16602  0.1282E-11  0.2942E-11  0.2721E-15  0.1000E-09  0.0000E+00  0.4082E+16
   -1.306246    2.31098  0.1276E-11  0.6242E-11  0.5609E-15  0.1000E-09  0.0000E+00  0.3819E+16
   -1.374999    2.45942  0.1270E-11  0.1306E-10  0.1141E-14  0.1000E-09  0.0000E+00  0.3536E+16
   -1.443751    2.61145  0.1265E-11  0.2699E-10  0.2290E-14  0.1000E-09  0.0000E+00  0.3226E+16
   -1.512503    2.76695  0.1261E-11  0.5502E-10  0.4537E-14  0.1000E-09  0.0000E+00  0.2886E+16
   -1.581255    2.92566  0.1259E-11  0.1108E-09  0.8877E-14  0.1000E-09  0.0000E+00  0.2521E+16
   -1.650007    3.08737  0.1257E-11  0.2202E-09  0.1716E-13  0.1000E-09  0.0000E+00  0.2136E+16
   -1.718759    3.25218  0.1257E-11  0.4326E-09  0.3277E-13  0.1079E-09  0.0000E+00  0.1736E+16
   -1.787511    3.42102  0.1256E-11  0.8580E-09  0.6319E-13  0.2387E-09  0.0000E+00  0.1345E+16
   -1.856262    3.60010  0.1254E-11  0.1713E-08  0.1227E-12  0.7103E-09  0.0000E+00  0.8744E+15
   -1.925013    3.79121  0.1253E-11  0.3407E-08  0.2377E-12  0.4025E-08  0.0000E+00  0.2987E+15
   -1.993764    3.98935  0.1252E-11  0.4076E-08  0.2855E-12  0.1600E-04  0.0000E+00 -0.1106E+12
   -2.062515    3.99137  0.1252E-11  0.4420E-08  0.3164E-12  0.1983E-04  0.0000E+00 -0.1332E+12
   -2.131265    3.99289  0.1252E-11  0.4721E-08  0.3498E-12  0.2201E-04  0.0000E+00 -0.1495E+12
   -2.200015    3.99424  0.1252E-11  0.4981E-08  0.3865E-12  0.2307E-04  0.0000E+00 -0.1678E+12
   -2.268765    3.99550  0.1252E-11  0.5200E-08  0.4283E-12  0.2314E-04  0.0000E+00 -0.1913E+12
   -2.337514    3.99676  0.1252E-11  0.5381E-08  0.4798E-12  0.2218E-04  0.0000E+00 -0.2250E+12
   -2.406263    3.99806  0.1252E-11  0.5515E-08  0.5477E-12  0.2013E-04  0.0000E+00 -0.2778E+12
   -2.475011    3.99949  0.1252E-11  0.5583E-08  0.6474E-12  0.1686E-04  0.0000E+00 -0.3725E+12
   -2.543758    4.00119  0.1252E-11  0.5544E-08  0.8192E-12  0.1227E-04  0.0000E+00 -0.5840E+12
   -2.612505    4.00352  0.1252E-11  0.5265E-08  0.1227E-11  0.6456E-05  0.0000E+00 -0.1336E+13
   -2.681252    4.00791  0.1252E-11  0.3943E-08  0.3451E-11  0.9729E-06  0.0000E+00 -0.1443E+14
   -2.749997    4.03436  0.1252E-11  0.0000E+00  0.0000E+00  0.0000E+00  0.0000E+00  0.0000E+00
