 1 - depth, m
 2 - temperature, C
 3 - salinity, kg/kg
 4 - turbulent kinetic energy, m**2/s**2
 5 - dissipation rate, m**2/s**3
 6 - kinematic heat conductance, m**2/s
 7 - modulus of horizontal velocity, m/s
 8 - Richardson number, n/d
   -0.000000   -0.00000  0.2464E-11  0.1219E-13  0.7603E-17  0.1000E-09  0.0000E+00  0.4414E+16
   -0.068746    0.06682  0.1336E-11  0.1219E-13  0.7603E-17  0.1000E-09  0.0000E+00  0.4222E+16
   -0.137492    0.13189  0.1058E-11  0.1219E-13  0.7603E-17  0.1000E-09  0.0000E+00  0.4072E+16
   -0.206239    0.19577  0.9987E-12  0.1219E-13  0.7603E-17  0.1000E-09  0.0000E+00  0.3963E+16
   -0.274986    0.25907  0.9875E-12  0.1219E-13  0.7603E-17  0.1000E-09  0.0000E+00  0.3892E+16
   -0.343734    0.32236  0.9856E-12  0.1219E-13  0.7603E-17  0.1000E-09  0.0000E+00  0.3858E+16
   -0.412483    0.38626  0.9854E-12  0.1219E-13  0.7603E-17  0.1000E-09  0.0000E+00  0.3858E+16
   -0.481232    0.45140  0.9853E-12  0.1219E-13  0.7603E-17  0.1000E-09  0.0000E+00  0.3892E+16
   -0.549982    0.51841  0.9853E-12  0.1219E-13  0.7603E-17  0.1000E-09  0.0000E+00  0.3956E+16
   -0.618732    0.58797  0.9853E-12  0.1219E-13  0.7603E-17  0.1000E-09  0.0000E+00  0.4048E+16
   -0.687482    0.66075  0.9853E-12  0.1219E-13  0.7603E-17  0.1000E-09  0.0000E+00  0.4181E+16
   -0.756232    0.73772  0.9853E-12  0.1219E-13  0.7603E-17  0.1000E-09  0.0000E+00  0.4342E+16
   -0.824983    0.81973  0.9853E-12  0.1219E-13  0.7603E-17  0.1000E-09  0.0000E+00  0.4515E+16
   -0.893735    0.90747  0.9853E-12  0.1219E-13  0.7603E-17  0.1000E-09  0.0000E+00  0.4695E+16
   -0.962486    1.00159  0.9853E-12  0.1219E-13  0.7603E-17  0.1000E-09  0.0000E+00  0.4874E+16
   -1.031238    1.10270  0.9852E-12  0.1219E-13  0.7603E-17  0.1000E-09  0.0000E+00  0.5042E+16
   -1.099990    1.21138  0.9848E-12  0.1219E-13  0.7603E-17  0.1000E-09  0.0000E+00  0.5192E+16
   -1.168742    1.32815  0.9836E-12  0.4083E-13  0.7798E-17  0.1000E-09  0.0000E+00  0.5313E+16
   -1.237494    1.45346  0.9807E-12  0.1191E-12  0.1667E-16  0.1000E-09  0.0000E+00  0.5395E+16
   -1.306246    1.58768  0.9753E-12  0.3036E-12  0.3942E-16  0.1000E-09  0.0000E+00  0.5427E+16
   -1.374998    1.73109  0.9687E-12  0.7391E-12  0.9260E-16  0.1000E-09  0.0000E+00  0.5420E+16
   -1.443750    1.88445  0.9635E-12  0.1765E-11  0.2149E-15  0.1000E-09  0.0000E+00  0.5348E+16
   -1.512502    2.04804  0.9607E-12  0.4161E-11  0.4929E-15  0.1000E-09  0.0000E+00  0.5195E+16
   -1.581255    2.22192  0.9591E-12  0.9702E-11  0.1119E-14  0.1000E-09  0.0000E+00  0.4955E+16
   -1.650007    2.40608  0.9580E-12  0.2239E-10  0.2515E-14  0.1000E-09  0.0000E+00  0.4625E+16
   -1.718758    2.60052  0.9573E-12  0.5115E-10  0.5599E-14  0.1000E-09  0.0000E+00  0.4201E+16
   -1.787510    2.80521  0.9569E-12  0.1186E-09  0.1264E-13  0.1000E-09  0.0000E+00  0.3695E+16
   -1.856261    3.02133  0.9567E-12  0.2769E-09  0.2878E-13  0.1000E-09  0.0000E+00  0.3084E+16
   -1.925013    3.24962  0.9565E-12  0.6456E-09  0.6542E-13  0.1420E-09  0.0000E+00  0.2348E+16
   -1.993764    3.49044  0.9561E-12  0.1501E-08  0.1484E-12  0.5160E-09  0.0000E+00  0.1466E+16
   -2.062514    3.74173  0.9546E-12  0.3396E-08  0.3277E-12  0.3562E-08  0.0000E+00  0.4697E+15
   -2.131265    3.99106  0.9529E-12  0.4396E-08  0.4277E-12  0.1390E-04  0.0000E+00 -0.2419E+12
   -2.200015    3.99365  0.9529E-12  0.4896E-08  0.4931E-12  0.1692E-04  0.0000E+00 -0.2790E+12
   -2.268764    3.99578  0.9529E-12  0.5326E-08  0.5667E-12  0.1843E-04  0.0000E+00 -0.3203E+12
   -2.337513    3.99774  0.9529E-12  0.5701E-08  0.6554E-12  0.1866E-04  0.0000E+00 -0.3779E+12
   -2.406262    3.99969  0.9529E-12  0.6013E-08  0.7693E-12  0.1764E-04  0.0000E+00 -0.4676E+12
   -2.475010    4.00176  0.9529E-12  0.6244E-08  0.9316E-12  0.1530E-04  0.0000E+00 -0.6280E+12
   -2.543757    4.00417  0.9529E-12  0.6349E-08  0.1203E-11  0.1156E-04  0.0000E+00 -0.9837E+12
   -2.612504    4.00739  0.9529E-12  0.6193E-08  0.1826E-11  0.6437E-05  0.0000E+00 -0.2225E+13
   -2.681251    4.01330  0.9529E-12  0.5033E-08  0.5003E-11  0.1224E-05  0.0000E+00 -0.2100E+14
   -2.749996    4.04471  0.9529E-12  0.0000E+00  0.0000E+00  0.0000E+00  0.0000E+00  0.0000E+00
