 1 - depth, m
 2 - temperature, C
 3 - salinity, kg/kg
 4 - turbulent kinetic energy, m**2/s**2
 5 - dissipation rate, m**2/s**3
 6 - kinematic heat conductance, m**2/s
 7 - modulus of horizontal velocity, m/s
 8 - Richardson number, n/d
   -0.000000   -0.00000  0.2411E-10  0.1219E-13  0.7603E-17  0.1000E-09  0.0000E+00  0.6227E+16
   -0.068746    0.09461  0.1315E-10  0.1219E-13  0.7603E-17  0.1000E-09  0.0000E+00  0.5988E+16
   -0.137492    0.18796  0.9803E-11  0.1219E-13  0.7603E-17  0.1000E-09  0.0000E+00  0.5788E+16
   -0.206239    0.28058  0.8928E-11  0.1219E-13  0.7603E-17  0.1000E-09  0.0000E+00  0.5623E+16
   -0.274987    0.37297  0.8729E-11  0.1219E-13  0.7603E-17  0.1000E-09  0.0000E+00  0.5489E+16
   -0.343735    0.46565  0.8688E-11  0.1219E-13  0.7603E-17  0.1000E-09  0.0000E+00  0.5384E+16
   -0.412483    0.55914  0.8681E-11  0.1219E-13  0.7603E-17  0.1000E-09  0.0000E+00  0.5302E+16
   -0.481232    0.65392  0.8679E-11  0.1219E-13  0.7603E-17  0.1000E-09  0.0000E+00  0.5240E+16
   -0.549982    0.75047  0.8679E-11  0.1219E-13  0.7603E-17  0.1000E-09  0.0000E+00  0.5193E+16
   -0.618732    0.84926  0.8679E-11  0.1219E-13  0.7603E-17  0.1000E-09  0.0000E+00  0.5157E+16
   -0.687482    0.95071  0.8679E-11  0.1219E-13  0.7603E-17  0.1000E-09  0.0000E+00  0.5141E+16
   -0.756233    1.05553  0.8679E-11  0.1219E-13  0.7603E-17  0.1000E-09  0.0000E+00  0.5133E+16
   -0.824984    1.16427  0.8679E-11  0.1219E-13  0.7603E-17  0.1000E-09  0.0000E+00  0.5119E+16
   -0.893735    1.27727  0.8679E-11  0.1219E-13  0.7603E-17  0.1000E-09  0.0000E+00  0.5095E+16
   -0.962486    1.39485  0.8678E-11  0.1219E-13  0.7603E-17  0.1000E-09  0.0000E+00  0.5054E+16
   -1.031238    1.51727  0.8676E-11  0.5496E-13  0.8761E-17  0.1000E-09  0.0000E+00  0.4993E+16
   -1.099990    1.64475  0.8670E-11  0.1534E-12  0.1824E-16  0.1000E-09  0.0000E+00  0.4907E+16
   -1.168742    1.77748  0.8657E-11  0.3676E-12  0.4057E-16  0.1000E-09  0.0000E+00  0.4791E+16
   -1.237494    1.91557  0.8631E-11  0.8394E-12  0.8947E-16  0.1000E-09  0.0000E+00  0.4641E+16
   -1.306246    2.05910  0.8592E-11  0.1879E-11  0.1949E-15  0.1000E-09  0.0000E+00  0.4453E+16
   -1.374999    2.20805  0.8545E-11  0.4158E-11  0.4203E-15  0.1000E-09  0.0000E+00  0.4234E+16
   -1.443751    2.36269  0.8505E-11  0.9106E-11  0.8978E-15  0.1000E-09  0.0000E+00  0.3972E+16
   -1.512503    2.52295  0.8479E-11  0.1976E-10  0.1901E-14  0.1000E-09  0.0000E+00  0.3662E+16
   -1.581255    2.68860  0.8464E-11  0.4250E-10  0.3990E-14  0.1000E-09  0.0000E+00  0.3305E+16
   -1.650007    2.85930  0.8455E-11  0.9063E-10  0.8305E-14  0.1000E-09  0.0000E+00  0.2902E+16
   -1.718759    3.03462  0.8449E-11  0.1916E-09  0.1714E-13  0.1000E-09  0.0000E+00  0.2457E+16
   -1.787511    3.21414  0.8446E-11  0.4109E-09  0.3589E-13  0.1000E-09  0.0000E+00  0.2005E+16
   -1.856262    3.40065  0.8442E-11  0.8897E-09  0.7590E-13  0.2586E-09  0.0000E+00  0.1494E+16
   -1.925013    3.59422  0.8434E-11  0.1926E-08  0.1605E-12  0.8877E-09  0.0000E+00  0.9206E+15
   -1.993764    3.79456  0.8421E-11  0.4151E-08  0.3383E-12  0.5978E-08  0.0000E+00  0.2881E+15
   -2.062515    3.99444  0.8416E-11  0.4940E-08  0.4055E-12  0.2147E-04  0.0000E+00 -0.1877E+12
   -2.131265    3.99580  0.8416E-11  0.5305E-08  0.4449E-12  0.2332E-04  0.0000E+00 -0.1991E+12
   -2.200015    3.99706  0.8416E-11  0.5614E-08  0.4882E-12  0.2422E-04  0.0000E+00 -0.2158E+12
   -2.268765    3.99827  0.8416E-11  0.5871E-08  0.5379E-12  0.2419E-04  0.0000E+00 -0.2402E+12
   -2.337514    3.99949  0.8416E-11  0.6082E-08  0.5993E-12  0.2316E-04  0.0000E+00 -0.2771E+12
   -2.406262    4.00077  0.8416E-11  0.6237E-08  0.6809E-12  0.2102E-04  0.0000E+00 -0.3370E+12
   -2.475011    4.00219  0.8416E-11  0.6319E-08  0.8015E-12  0.1764E-04  0.0000E+00 -0.4466E+12
   -2.543758    4.00389  0.8416E-11  0.6283E-08  0.1011E-11  0.1290E-04  0.0000E+00 -0.6931E+12
   -2.612505    4.00625  0.8416E-11  0.5990E-08  0.1512E-11  0.6876E-05  0.0000E+00 -0.1571E+13
   -2.681251    4.01077  0.8416E-11  0.4605E-08  0.4250E-11  0.1119E-05  0.0000E+00 -0.1673E+14
   -2.749997    4.03860  0.8416E-11  0.0000E+00  0.0000E+00  0.0000E+00  0.0000E+00  0.0000E+00
