 1 - depth, m
 2 - temperature, C
 3 - salinity, kg/kg
 4 - turbulent kinetic energy, m**2/s**2
 5 - dissipation rate, m**2/s**3
 6 - kinematic heat conductance, m**2/s
 7 - modulus of horizontal velocity, m/s
 8 - Richardson number, n/d
   -0.000000   -0.00000  0.1125E-09  0.1219E-13  0.7603E-17  0.1000E-09  0.0000E+00  0.4894E+16
   -0.068746    0.07416  0.6197E-10  0.1219E-13  0.7603E-17  0.1000E-09  0.0000E+00  0.4717E+16
   -0.137492    0.14707  0.4776E-10  0.1219E-13  0.7603E-17  0.1000E-09  0.0000E+00  0.4574E+16
   -0.206239    0.21922  0.4445E-10  0.1219E-13  0.7603E-17  0.1000E-09  0.0000E+00  0.4462E+16
   -0.274987    0.29105  0.4376E-10  0.1219E-13  0.7603E-17  0.1000E-09  0.0000E+00  0.4380E+16
   -0.343735    0.36304  0.4364E-10  0.1219E-13  0.7603E-17  0.1000E-09  0.0000E+00  0.4325E+16
   -0.412483    0.43564  0.4362E-10  0.1219E-13  0.7603E-17  0.1000E-09  0.0000E+00  0.4295E+16
   -0.481232    0.50931  0.4361E-10  0.1219E-13  0.7603E-17  0.1000E-09  0.0000E+00  0.4286E+16
   -0.549982    0.58453  0.4361E-10  0.1219E-13  0.7603E-17  0.1000E-09  0.0000E+00  0.4296E+16
   -0.618732    0.66172  0.4361E-10  0.1219E-13  0.7603E-17  0.1000E-09  0.0000E+00  0.4321E+16
   -0.687482    0.74133  0.4361E-10  0.1219E-13  0.7603E-17  0.1000E-09  0.0000E+00  0.4373E+16
   -0.756233    0.82404  0.4361E-10  0.1219E-13  0.7603E-17  0.1000E-09  0.0000E+00  0.4440E+16
   -0.824984    0.91042  0.4361E-10  0.1219E-13  0.7603E-17  0.1000E-09  0.0000E+00  0.4508E+16
   -0.893735    1.00081  0.4361E-10  0.1219E-13  0.7603E-17  0.1000E-09  0.0000E+00  0.4573E+16
   -0.962486    1.09554  0.4361E-10  0.1219E-13  0.7603E-17  0.1000E-09  0.0000E+00  0.4629E+16
   -1.031238    1.19488  0.4361E-10  0.1219E-13  0.7603E-17  0.1000E-09  0.0000E+00  0.4673E+16
   -1.099990    1.29906  0.4361E-10  0.1219E-13  0.7603E-17  0.1000E-09  0.0000E+00  0.4698E+16
   -1.168742    1.40823  0.4359E-10  0.1219E-13  0.7603E-17  0.1000E-09  0.0000E+00  0.4700E+16
   -1.237494    1.52252  0.4355E-10  0.1219E-13  0.7603E-17  0.1000E-09  0.0000E+00  0.4676E+16
   -1.306246    1.64195  0.4346E-10  0.1219E-13  0.7603E-17  0.1000E-09  0.0000E+00  0.4619E+16
   -1.374999    1.76651  0.4331E-10  0.1219E-13  0.7603E-17  0.1000E-09  0.0000E+00  0.4540E+16
   -1.443751    1.89643  0.4311E-10  0.1219E-13  0.7603E-17  0.1000E-09  0.0000E+00  0.4425E+16
   -1.512503    2.03164  0.4292E-10  0.1219E-13  0.7603E-17  0.1000E-09  0.0000E+00  0.4267E+16
   -1.581255    2.17189  0.4280E-10  0.1219E-13  0.7603E-17  0.1000E-09  0.0000E+00  0.4067E+16
   -1.650007    2.31684  0.4274E-10  0.2083E-13  0.7603E-17  0.1000E-09  0.0000E+00  0.3825E+16
   -1.718759    2.46606  0.4271E-10  0.7758E-13  0.2040E-16  0.1000E-09  0.0000E+00  0.3541E+16
   -1.787511    2.61907  0.4269E-10  0.2713E-12  0.6679E-16  0.1000E-09  0.0000E+00  0.3220E+16
   -1.856262    2.77530  0.4268E-10  0.9245E-12  0.2190E-15  0.1000E-09  0.0000E+00  0.2872E+16
   -1.925013    2.93443  0.4266E-10  0.3100E-11  0.7087E-15  0.1000E-09  0.0000E+00  0.2498E+16
   -1.993764    3.09614  0.4264E-10  0.1027E-10  0.2267E-14  0.1000E-09  0.0000E+00  0.2100E+16
   -2.062515    3.25990  0.4259E-10  0.3277E-10  0.6992E-14  0.1000E-09  0.0000E+00  0.1683E+16
   -2.131265    3.42506  0.4250E-10  0.1027E-09  0.2119E-13  0.1000E-09  0.0000E+00  0.1253E+16
   -2.200015    3.59105  0.4236E-10  0.3174E-09  0.6334E-13  0.3944E-09  0.0000E+00  0.8156E+15
   -2.268765    3.75690  0.4224E-10  0.9752E-09  0.1884E-12  0.2518E-08  0.0000E+00  0.3791E+15
   -2.337514    3.92037  0.4220E-10  0.2868E-08  0.5396E-12  0.9900E-07  0.0000E+00  0.2617E+14
   -2.406263    4.01806  0.4220E-10  0.4806E-08  0.9200E-12  0.1088E-04  0.0000E+00 -0.1111E+13
   -2.475011    4.02022  0.4220E-10  0.5513E-08  0.1141E-11  0.1057E-04  0.0000E+00 -0.1254E+13
   -2.543758    4.02251  0.4220E-10  0.5918E-08  0.1450E-11  0.8784E-05  0.0000E+00 -0.1688E+13
   -2.612505    4.02537  0.4220E-10  0.5950E-08  0.2101E-11  0.5400E-05  0.0000E+00 -0.3277E+13
   -2.681251    4.03040  0.4220E-10  0.5005E-08  0.5240E-11  0.1208E-05  0.0000E+00 -0.2425E+14
   -2.749997    4.05732  0.4220E-10  0.0000E+00  0.0000E+00  0.0000E+00  0.0000E+00  0.0000E+00
