 1 - depth, m
 2 - temperature, C
 3 - salinity, kg/kg
 4 - turbulent kinetic energy, m**2/s**2
 5 - dissipation rate, m**2/s**3
 6 - kinematic heat conductance, m**2/s
 7 - modulus of horizontal velocity, m/s
 8 - Richardson number, n/d
   -0.000000   -0.03460  0.2508E-10  0.2245E-04  0.2512E-05  0.3505E-04  0.4471E-01  0.1712E-01
   -0.068746   -0.00126  0.2508E-10  0.1733E-04  0.6051E-06  0.7117E-04  0.3087E-01  0.1143E-01
   -0.137492    0.00605  0.2508E-10  0.1552E-04  0.2793E-06  0.1016E-03  0.2647E-01  0.2322E-01
   -0.206239    0.01011  0.2508E-10  0.1426E-04  0.1679E-06  0.1268E-03  0.2365E-01  0.3183E-01
   -0.274987    0.01323  0.2508E-10  0.1325E-04  0.1166E-06  0.1471E-03  0.2156E-01  0.4080E-01
   -0.343735    0.01580  0.2508E-10  0.1237E-04  0.8772E-07  0.1629E-03  0.1990E-01  0.5025E-01
   -0.412484    0.01803  0.2508E-10  0.1157E-04  0.6926E-07  0.1746E-03  0.1852E-01  0.6029E-01
   -0.481233    0.02002  0.2508E-10  0.1083E-04  0.5641E-07  0.1826E-03  0.1734E-01  0.7103E-01
   -0.549983    0.02186  0.2508E-10  0.1013E-04  0.4695E-07  0.1872E-03  0.1630E-01  0.8263E-01
   -0.618733    0.02359  0.2508E-10  0.9477E-05  0.3970E-07  0.1889E-03  0.1537E-01  0.9524E-01
   -0.687483    0.02524  0.2508E-10  0.8855E-05  0.3398E-07  0.1878E-03  0.1452E-01  0.1091E+00
   -0.756234    0.02685  0.2508E-10  0.8265E-05  0.2936E-07  0.1844E-03  0.1374E-01  0.1243E+00
   -0.824985    0.02844  0.2508E-10  0.7705E-05  0.2558E-07  0.1790E-03  0.1301E-01  0.1412E+00
   -0.893737    0.03003  0.2508E-10  0.7173E-05  0.2243E-07  0.1717E-03  0.1233E-01  0.1602E+00
   -0.962488    0.03164  0.2508E-10  0.6669E-05  0.1979E-07  0.1629E-03  0.1169E-01  0.1815E+00
   -1.031240    0.03330  0.2508E-10  0.6193E-05  0.1757E-07  0.1529E-03  0.1107E-01  0.2057E+00
   -1.099992    0.03502  0.2508E-10  0.5745E-05  0.1570E-07  0.1421E-03  0.1048E-01  0.2335E+00
   -1.168744    0.03684  0.2508E-10  0.5328E-05  0.1414E-07  0.1309E-03  0.9908E-02  0.2658E+00
   -1.237497    0.03878  0.2508E-10  0.4946E-05  0.1287E-07  0.1199E-03  0.9352E-02  0.3037E+00
   -1.306249    0.04089  0.2508E-10  0.4603E-05  0.1188E-07  0.1096E-03  0.8806E-02  0.3492E+00
   -1.375001    0.04323  0.2508E-10  0.4310E-05  0.1120E-07  0.1008E-03  0.8265E-02  0.4050E+00
   -1.443754    0.04588  0.2508E-10  0.4077E-05  0.1085E-07  0.9413E-04  0.7726E-02  0.4751E+00
   -1.512506    0.04900  0.2508E-10  0.3916E-05  0.1090E-07  0.9018E-04  0.7178E-02  0.5672E+00
   -1.581258    0.05293  0.2508E-10  0.3838E-05  0.1142E-07  0.8965E-04  0.6606E-02  0.7628E+00
   -1.650010    0.05861  0.2508E-10  0.3956E-05  0.1324E-07  0.6950E-04  0.5969E-02  0.6458E+00
   -1.718762    0.07318  0.2508E-10  0.3550E-05  0.1195E-07  0.5785E-04  0.3403E-02  0.1633E+01
   -1.787514    0.12231  0.2508E-10  0.2693E-05  0.8361E-08  0.6782E-04  0.1044E-02  0.1352E+03
   -1.856266    0.17606  0.2508E-10  0.2144E-05  0.6189E-08  0.5515E-04  0.6247E-03  0.1583E+05
   -1.925017    0.21867  0.2509E-10  0.1704E-05  0.4586E-08  0.7454E-04  0.3905E-03 -0.1717E+06
   -1.993768    0.23335  0.2509E-10  0.1376E-05  0.3483E-08  0.8648E-04  0.2764E-03 -0.3991E+07
   -2.062519    0.23593  0.2509E-10  0.1098E-05  0.2644E-08  0.3290E-04  0.2108E-03  0.5901E+07
   -2.131270    0.24042  0.2509E-10  0.8516E-06  0.1977E-08  0.1698E-04  0.1559E-03  0.4410E+10
   -2.200020    0.28167  0.2509E-10  0.6309E-06  0.1436E-08  0.9390E-05  0.1093E-03  0.2297E+13
   -2.268769    0.39150  0.2509E-10  0.4394E-06  0.9844E-09  0.4046E-05  0.6677E-04  0.8980E+15
   -2.337519    0.58775  0.2509E-10  0.2603E-06  0.5785E-09  0.6063E-06  0.3570E-04  0.1417E+17
   -2.406267    0.98175  0.2509E-10  0.8270E-07  0.1809E-09  0.2883E-07  0.9881E-05  0.1996E+17
   -2.475016    1.84922  0.2511E-10  0.2066E-07  0.3281E-10  0.7073E-08  0.5493E-06  0.1410E+17
   -2.543763    3.33751  0.2519E-10  0.4082E-07  0.5201E-10  0.1130E-04  0.1347E-07  0.1600E+16
   -2.612510    4.23843  0.2523E-10  0.8054E-07  0.1324E-09  0.1946E-04  0.2194E-09 -0.6364E+14
   -2.681257    4.26219  0.2523E-10  0.7007E-07  0.2717E-09  0.4899E-05  0.1605E-10 -0.3166E+15
   -2.750003    4.33415  0.2523E-10  0.0000E+00  0.0000E+00  0.0000E+00  0.1606E-10  0.0000E+00
