 1 - depth, m
 2 - temperature, C
 3 - salinity, kg/kg
 4 - turbulent kinetic energy, m**2/s**2
 5 - dissipation rate, m**2/s**3
 6 - kinematic heat conductance, m**2/s
 7 - modulus of horizontal velocity, m/s
 8 - Richardson number, n/d
   -0.000000   -0.00000  0.9305E-11  0.1219E-13  0.7603E-17  0.1000E-09  0.0000E+00  0.4268E+16
   -0.068746    0.06459  0.5125E-11  0.1219E-13  0.7603E-17  0.1000E-09  0.0000E+00  0.4081E+16
   -0.137492    0.12743  0.4086E-11  0.1219E-13  0.7603E-17  0.1000E-09  0.0000E+00  0.3934E+16
   -0.206239    0.18905  0.3860E-11  0.1219E-13  0.7603E-17  0.1000E-09  0.0000E+00  0.3825E+16
   -0.274986    0.24999  0.3816E-11  0.1219E-13  0.7603E-17  0.1000E-09  0.0000E+00  0.3752E+16
   -0.343734    0.31082  0.3809E-11  0.1219E-13  0.7603E-17  0.1000E-09  0.0000E+00  0.3714E+16
   -0.412483    0.37212  0.3808E-11  0.1219E-13  0.7603E-17  0.1000E-09  0.0000E+00  0.3711E+16
   -0.481232    0.43449  0.3808E-11  0.1219E-13  0.7603E-17  0.1000E-09  0.0000E+00  0.3742E+16
   -0.549982    0.49857  0.3808E-11  0.1219E-13  0.7603E-17  0.1000E-09  0.0000E+00  0.3804E+16
   -0.618731    0.56501  0.3808E-11  0.1219E-13  0.7603E-17  0.1000E-09  0.0000E+00  0.3895E+16
   -0.687482    0.63450  0.3808E-11  0.1219E-13  0.7603E-17  0.1000E-09  0.0000E+00  0.4028E+16
   -0.756232    0.70799  0.3808E-11  0.1219E-13  0.7603E-17  0.1000E-09  0.0000E+00  0.4191E+16
   -0.824983    0.78635  0.3808E-11  0.1219E-13  0.7603E-17  0.1000E-09  0.0000E+00  0.4370E+16
   -0.893735    0.87027  0.3808E-11  0.1219E-13  0.7603E-17  0.1000E-09  0.0000E+00  0.4559E+16
   -0.962486    0.96043  0.3808E-11  0.1219E-13  0.7603E-17  0.1000E-09  0.0000E+00  0.4749E+16
   -1.031238    1.05746  0.3808E-11  0.1219E-13  0.7603E-17  0.1000E-09  0.0000E+00  0.4934E+16
   -1.099990    1.16199  0.3807E-11  0.1219E-13  0.7603E-17  0.1000E-09  0.0000E+00  0.5105E+16
   -1.168742    1.27456  0.3804E-11  0.1219E-13  0.7603E-17  0.1000E-09  0.0000E+00  0.5250E+16
   -1.237494    1.39568  0.3796E-11  0.1219E-13  0.7603E-17  0.1000E-09  0.0000E+00  0.5361E+16
   -1.306246    1.52577  0.3780E-11  0.5624E-13  0.1236E-16  0.1000E-09  0.0000E+00  0.5426E+16
   -1.374998    1.66516  0.3757E-11  0.1784E-12  0.3319E-16  0.1000E-09  0.0000E+00  0.5453E+16
   -1.443750    1.81463  0.3734E-11  0.5101E-12  0.9044E-16  0.1000E-09  0.0000E+00  0.5416E+16
   -1.512502    1.97446  0.3721E-11  0.1413E-11  0.2423E-15  0.1000E-09  0.0000E+00  0.5297E+16
   -1.581254    2.14463  0.3714E-11  0.3846E-11  0.6393E-15  0.1000E-09  0.0000E+00  0.5088E+16
   -1.650006    2.32495  0.3710E-11  0.1032E-10  0.1664E-14  0.1000E-09  0.0000E+00  0.4784E+16
   -1.718758    2.51509  0.3707E-11  0.2732E-10  0.4273E-14  0.1000E-09  0.0000E+00  0.4379E+16
   -1.787510    2.71449  0.3706E-11  0.7327E-10  0.1112E-13  0.1000E-09  0.0000E+00  0.3867E+16
   -1.856261    2.92189  0.3705E-11  0.1972E-09  0.2905E-13  0.1000E-09  0.0000E+00  0.3277E+16
   -1.925013    3.13721  0.3704E-11  0.5275E-09  0.7550E-13  0.1473E-09  0.0000E+00  0.2609E+16
   -1.993763    3.36037  0.3703E-11  0.1402E-08  0.1950E-12  0.5347E-09  0.0000E+00  0.1857E+16
   -2.062514    3.59047  0.3700E-11  0.3613E-08  0.4888E-12  0.2436E-08  0.0000E+00  0.1021E+16
   -2.131264    3.82233  0.3691E-11  0.9027E-08  0.1190E-11  0.3002E-07  0.0000E+00  0.2022E+15
   -2.200014    4.02002  0.3688E-11  0.1070E-07  0.1422E-11  0.3403E-04  0.0000E+00 -0.5297E+12
   -2.268764    4.02101  0.3688E-11  0.1135E-07  0.1541E-11  0.3417E-04  0.0000E+00 -0.5463E+12
   -2.337513    4.02200  0.3688E-11  0.1183E-07  0.1676E-11  0.3300E-04  0.0000E+00 -0.5863E+12
   -2.406261    4.02304  0.3688E-11  0.1215E-07  0.1846E-11  0.3038E-04  0.0000E+00 -0.6620E+12
   -2.475010    4.02417  0.3688E-11  0.1230E-07  0.2089E-11  0.2606E-04  0.0000E+00 -0.8076E+12
   -2.543757    4.02551  0.3688E-11  0.1219E-07  0.2504E-11  0.1972E-04  0.0000E+00 -0.1131E+13
   -2.612504    4.02731  0.3688E-11  0.1161E-07  0.3480E-11  0.1114E-04  0.0000E+00 -0.2202E+13
   -2.681250    4.03061  0.3688E-11  0.8756E-08  0.9248E-11  0.1712E-05  0.0000E+00 -0.1979E+14
   -2.749996    4.05333  0.3688E-11  0.0000E+00  0.0000E+00  0.0000E+00  0.0000E+00  0.0000E+00
