 1 - depth, m
 2 - temperature, C
 3 - salinity, kg/kg
 4 - turbulent kinetic energy, m**2/s**2
 5 - dissipation rate, m**2/s**3
 6 - kinematic heat conductance, m**2/s
 7 - modulus of horizontal velocity, m/s
 8 - Richardson number, n/d
   -0.000000   -0.00000  0.2327E-10  0.1219E-13  0.7603E-17  0.1000E-09  0.0000E+00  0.5767E+16
   -0.068746    0.08753  0.1285E-10  0.1219E-13  0.7603E-17  0.1000E-09  0.0000E+00  0.5553E+16
   -0.137492    0.17386  0.9676E-11  0.1219E-13  0.7603E-17  0.1000E-09  0.0000E+00  0.5379E+16
   -0.206239    0.25950  0.8891E-11  0.1219E-13  0.7603E-17  0.1000E-09  0.0000E+00  0.5240E+16
   -0.274987    0.34500  0.8720E-11  0.1219E-13  0.7603E-17  0.1000E-09  0.0000E+00  0.5134E+16
   -0.343735    0.43088  0.8686E-11  0.1219E-13  0.7603E-17  0.1000E-09  0.0000E+00  0.5057E+16
   -0.412483    0.51768  0.8680E-11  0.1219E-13  0.7603E-17  0.1000E-09  0.0000E+00  0.5006E+16
   -0.481232    0.60594  0.8679E-11  0.1219E-13  0.7603E-17  0.1000E-09  0.0000E+00  0.4977E+16
   -0.549982    0.69617  0.8679E-11  0.1219E-13  0.7603E-17  0.1000E-09  0.0000E+00  0.4966E+16
   -0.618732    0.78888  0.8679E-11  0.1219E-13  0.7603E-17  0.1000E-09  0.0000E+00  0.4968E+16
   -0.687482    0.88455  0.8679E-11  0.1219E-13  0.7603E-17  0.1000E-09  0.0000E+00  0.4993E+16
   -0.756233    0.98394  0.8679E-11  0.1219E-13  0.7603E-17  0.1000E-09  0.0000E+00  0.5029E+16
   -0.824984    1.08767  0.8679E-11  0.1219E-13  0.7603E-17  0.1000E-09  0.0000E+00  0.5060E+16
   -0.893735    1.19613  0.8679E-11  0.1219E-13  0.7603E-17  0.1000E-09  0.0000E+00  0.5082E+16
   -0.962487    1.30969  0.8678E-11  0.1219E-13  0.7603E-17  0.1000E-09  0.0000E+00  0.5088E+16
   -1.031238    1.42866  0.8677E-11  0.4699E-13  0.7923E-17  0.1000E-09  0.0000E+00  0.5073E+16
   -1.099990    1.55331  0.8672E-11  0.1317E-12  0.1607E-16  0.1000E-09  0.0000E+00  0.5031E+16
   -1.168742    1.68388  0.8660E-11  0.3175E-12  0.3568E-16  0.1000E-09  0.0000E+00  0.4957E+16
   -1.237494    1.82052  0.8636E-11  0.7270E-12  0.7869E-16  0.1000E-09  0.0000E+00  0.4847E+16
   -1.306246    1.96336  0.8597E-11  0.1629E-11  0.1713E-15  0.1000E-09  0.0000E+00  0.4694E+16
   -1.374999    2.11243  0.8549E-11  0.3602E-11  0.3685E-15  0.1000E-09  0.0000E+00  0.4508E+16
   -1.443751    2.26810  0.8507E-11  0.7876E-11  0.7846E-15  0.1000E-09  0.0000E+00  0.4272E+16
   -1.512503    2.43037  0.8479E-11  0.1704E-10  0.1654E-14  0.1000E-09  0.0000E+00  0.3981E+16
   -1.581255    2.59903  0.8464E-11  0.3651E-10  0.3452E-14  0.1000E-09  0.0000E+00  0.3634E+16
   -1.650007    2.77383  0.8455E-11  0.7745E-10  0.7138E-14  0.1000E-09  0.0000E+00  0.3234E+16
   -1.718759    2.95457  0.8450E-11  0.1628E-09  0.1463E-13  0.1000E-09  0.0000E+00  0.2787E+16
   -1.787511    3.14136  0.8446E-11  0.3467E-09  0.3038E-13  0.1000E-09  0.0000E+00  0.2331E+16
   -1.856262    3.33830  0.8443E-11  0.7452E-09  0.6367E-13  0.1809E-09  0.0000E+00  0.1790E+16
   -1.925013    3.54653  0.8436E-11  0.1600E-08  0.1334E-12  0.5942E-09  0.0000E+00  0.1142E+16
   -1.993764    3.76621  0.8423E-11  0.3423E-08  0.2787E-12  0.3727E-08  0.0000E+00  0.3802E+15
   -2.062515    3.99039  0.8415E-11  0.4226E-08  0.3465E-12  0.1530E-04  0.0000E+00 -0.1680E+12
   -2.131265    3.99249  0.8415E-11  0.4630E-08  0.3903E-12  0.1846E-04  0.0000E+00 -0.1917E+12
   -2.200015    3.99423  0.8415E-11  0.4983E-08  0.4387E-12  0.2024E-04  0.0000E+00 -0.2161E+12
   -2.268765    3.99581  0.8415E-11  0.5287E-08  0.4939E-12  0.2089E-04  0.0000E+00 -0.2472E+12
   -2.337514    3.99735  0.8415E-11  0.5547E-08  0.5616E-12  0.2042E-04  0.0000E+00 -0.2917E+12
   -2.406263    3.99893  0.8415E-11  0.5755E-08  0.6502E-12  0.1882E-04  0.0000E+00 -0.3618E+12
   -2.475011    4.00064  0.8415E-11  0.5893E-08  0.7790E-12  0.1597E-04  0.0000E+00 -0.4881E+12
   -2.543758    4.00267  0.8415E-11  0.5918E-08  0.9993E-12  0.1180E-04  0.0000E+00 -0.7711E+12
   -2.612505    4.00544  0.8415E-11  0.5698E-08  0.1516E-11  0.6366E-05  0.0000E+00 -0.1778E+13
   -2.681252    4.01066  0.8415E-11  0.4490E-08  0.4233E-11  0.1110E-05  0.0000E+00 -0.1821E+14
   -2.749997    4.04033  0.8415E-11  0.0000E+00  0.0000E+00  0.0000E+00  0.0000E+00  0.0000E+00
