 1 - depth, m
 2 - temperature, C
 3 - salinity, kg/kg
 4 - turbulent kinetic energy, m**2/s**2
 5 - dissipation rate, m**2/s**3
 6 - kinematic heat conductance, m**2/s
 7 - modulus of horizontal velocity, m/s
 8 - Richardson number, n/d
   -0.000000   -0.00000  0.1012E-10  0.1219E-13  0.7603E-17  0.1000E-09  0.6963E-74  0.3740E+16
   -0.068746    0.05653  0.6086E-11  0.1219E-13  0.7603E-17  0.1000E-09  0.5526E-74  0.3400E+16
   -0.137492    0.10868  0.5214E-11  0.1219E-13  0.7603E-17  0.1000E-09  0.4499E-74  0.3047E+16
   -0.206239    0.15607  0.5062E-11  0.1219E-13  0.7603E-17  0.1000E-09  0.3750E-74  0.2696E+16
   -0.274987    0.19852  0.5041E-11  0.1219E-13  0.7603E-17  0.1000E-09  0.3160E-74  0.2360E+16
   -0.343735    0.23610  0.5038E-11  0.1219E-13  0.7603E-17  0.1000E-09  0.2660E-74  0.2053E+16
   -0.412483    0.26912  0.5038E-11  0.1219E-13  0.7603E-17  0.1000E-09  0.2224E-74  0.1789E+16
   -0.481233    0.29815  0.5038E-11  0.1219E-13  0.7603E-17  0.1000E-09  0.1842E-74  0.1579E+16
   -0.549982    0.32398  0.5038E-11  0.1219E-13  0.7603E-17  0.1000E-09  0.1512E-74  0.1436E+16
   -0.618732    0.34764  0.5038E-11  0.1219E-13  0.7603E-17  0.1000E-09  0.1231E-74  0.1367E+16
   -0.687483    0.37032  0.5038E-11  0.1219E-13  0.7603E-17  0.1000E-09  0.9951E-75  0.1395E+16
   -0.756233    0.39361  0.5038E-11  0.1219E-13  0.7603E-17  0.1000E-09  0.7988E-75  0.1521E+16
   -0.824984    0.41920  0.5038E-11  0.1219E-13  0.7603E-17  0.1000E-09  0.6371E-75  0.1742E+16
   -0.893736    0.44873  0.5038E-11  0.1219E-13  0.7603E-17  0.1000E-09  0.5049E-75  0.2060E+16
   -0.962487    0.48402  0.5038E-11  0.1219E-13  0.7603E-17  0.1000E-09  0.3975E-75  0.2477E+16
   -1.031239    0.52695  0.5038E-11  0.1219E-13  0.7603E-17  0.1000E-09  0.3109E-75  0.2987E+16
   -1.099991    0.57948  0.5038E-11  0.1219E-13  0.7603E-17  0.1000E-09  0.2415E-75  0.3581E+16
   -1.168743    0.64361  0.5036E-11  0.1219E-13  0.7603E-17  0.1000E-09  0.1862E-75  0.4243E+16
   -1.237495    0.72132  0.5031E-11  0.1219E-13  0.7603E-17  0.1000E-09  0.1424E-75  0.4951E+16
   -1.306247    0.81452  0.5013E-11  0.1219E-13  0.7603E-17  0.1000E-09  0.1079E-75  0.5673E+16
   -1.374999    0.92500  0.4973E-11  0.1219E-13  0.7603E-17  0.1000E-09  0.8062E-76  0.6425E+16
   -1.443752    1.05540  0.4933E-11  0.3920E-13  0.1101E-16  0.1000E-09  0.5912E-76  0.7118E+16
   -1.512504    1.20739  0.4918E-11  0.1358E-12  0.3270E-16  0.1000E-09  0.4202E-76  0.7687E+16
   -1.581256    1.38193  0.4910E-11  0.4388E-12  0.1009E-15  0.1000E-09  0.2818E-76  0.8077E+16
   -1.650008    1.57957  0.4903E-11  0.1379E-11  0.3061E-15  0.1000E-09  0.1660E-76  0.8243E+16
   -1.718760    1.80039  0.4899E-11  0.4255E-11  0.9129E-15  0.1000E-09  0.6405E-77  0.8128E+16
   -1.787512    2.04354  0.4897E-11  0.1329E-10  0.2756E-14  0.1000E-09  0.4340E-78  0.7483E+16
   -1.856263    2.29918  0.4896E-11  0.4143E-10  0.8314E-14  0.1000E-09  0.2708E-79  0.6662E+16
   -1.925015    2.56619  0.4895E-11  0.1279E-09  0.2486E-13  0.1000E-09  0.1543E-80  0.5675E+16
   -1.993766    2.84308  0.4895E-11  0.3915E-09  0.7368E-13  0.1000E-09  0.9580E-82  0.4562E+16
   -2.062516    3.12966  0.4894E-11  0.1158E-08  0.2112E-12  0.3212E-09  0.7728E-83  0.3352E+16
   -2.131267    3.42881  0.4889E-11  0.3369E-08  0.5958E-12  0.1550E-08  0.5836E-84  0.1961E+16
   -2.200017    3.73709  0.4877E-11  0.9583E-08  0.1646E-11  0.1767E-07  0.4096E-85  0.4778E+15
   -2.268766    4.02291  0.4871E-11  0.1211E-07  0.2099E-11  0.2951E-04  0.1472E-86 -0.9006E+12
   -2.337515    4.02445  0.4871E-11  0.1308E-07  0.2339E-11  0.2969E-04  0.4316E-87 -0.9449E+12
   -2.406264    4.02601  0.4871E-11  0.1378E-07  0.2623E-11  0.2822E-04  0.1179E-87 -0.1052E+13
   -2.475012    4.02767  0.4871E-11  0.1421E-07  0.3010E-11  0.2489E-04  0.2848E-88 -0.1273E+13
   -2.543760    4.02960  0.4871E-11  0.1432E-07  0.3649E-11  0.1936E-04  0.5744E-89 -0.1776E+13
   -2.612507    4.03215  0.4871E-11  0.1384E-07  0.5114E-11  0.1134E-04  0.8012E-90 -0.3463E+13
   -2.681253    4.03675  0.4871E-11  0.1084E-07  0.1349E-10  0.1973E-05  0.5340E-91 -0.3071E+14
   -2.749999    4.06675  0.4871E-11  0.0000E+00  0.0000E+00  0.0000E+00  0.5642E-91  0.0000E+00
