 1 - depth, m
 2 - temperature, C
 3 - salinity, kg/kg
 4 - turbulent kinetic energy, m**2/s**2
 5 - dissipation rate, m**2/s**3
 6 - kinematic heat conductance, m**2/s
 7 - modulus of horizontal velocity, m/s
 8 - Richardson number, n/d
   -0.000000   -0.00000  0.3698E-17  0.1219E-13  0.7603E-17  0.1000E-09  0.0000E+00  0.4525E+16
   -0.068746    0.06851  0.2654E-19  0.1219E-13  0.7603E-17  0.1000E-09  0.0000E+00  0.4636E+16
   -0.137493    0.14005  0.3157E-12  0.1219E-13  0.7603E-17  0.1000E-09  0.0000E+00  0.4763E+16
   -0.206241    0.21507  0.1677E-11  0.1219E-13  0.7603E-17  0.1000E-09  0.0000E+00  0.4900E+16
   -0.274989    0.29393  0.3536E-11  0.1219E-13  0.7603E-17  0.1000E-09  0.0000E+00  0.5034E+16
   -0.343737    0.37686  0.5134E-11  0.1219E-13  0.7603E-17  0.1000E-09  0.0000E+00  0.5152E+16
   -0.412486    0.46388  0.6077E-11  0.1219E-13  0.7603E-17  0.1000E-09  0.0000E+00  0.5243E+16
   -0.481236    0.55485  0.6382E-11  0.1219E-13  0.7603E-17  0.1000E-09  0.0000E+00  0.5302E+16
   -0.549986    0.64950  0.6271E-11  0.1219E-13  0.7603E-17  0.1000E-09  0.0000E+00  0.5324E+16
   -0.618737    0.74749  0.5980E-11  0.1219E-13  0.7603E-17  0.1000E-09  0.0000E+00  0.5312E+16
   -0.687488    0.84848  0.5672E-11  0.1219E-13  0.7603E-17  0.1000E-09  0.0000E+00  0.5262E+16
   -0.756239    0.95200  0.5425E-11  0.1219E-13  0.7603E-17  0.1000E-09  0.0000E+00  0.5180E+16
   -0.824990    1.05768  0.5255E-11  0.1219E-13  0.7603E-17  0.1000E-09  0.0000E+00  0.5074E+16
   -0.893742    1.16522  0.5151E-11  0.1219E-13  0.7603E-17  0.1000E-09  0.0000E+00  0.4948E+16
   -0.962494    1.27440  0.5092E-11  0.1219E-13  0.7603E-17  0.1000E-09  0.0000E+00  0.4805E+16
   -1.031246    1.38500  0.5061E-11  0.1219E-13  0.7603E-17  0.1000E-09  0.0000E+00  0.4648E+16
   -1.099999    1.49688  0.5045E-11  0.1219E-13  0.7603E-17  0.1000E-09  0.0000E+00  0.4481E+16
   -1.168751    1.60994  0.5036E-11  0.1219E-13  0.7603E-17  0.1000E-09  0.0000E+00  0.4307E+16
   -1.237504    1.72415  0.5028E-11  0.1219E-13  0.7603E-17  0.1000E-09  0.0000E+00  0.4127E+16
   -1.306257    1.83950  0.5020E-11  0.1219E-13  0.7603E-17  0.1000E-09  0.0000E+00  0.3944E+16
   -1.375009    1.95607  0.5011E-11  0.1219E-13  0.7603E-17  0.1000E-09  0.0000E+00  0.3760E+16
   -1.443762    2.07403  0.5000E-11  0.1219E-13  0.7603E-17  0.1000E-09  0.0000E+00  0.3573E+16
   -1.512515    2.19357  0.4987E-11  0.1219E-13  0.7603E-17  0.1000E-09  0.0000E+00  0.3383E+16
   -1.581268    2.31485  0.4973E-11  0.1219E-13  0.7603E-17  0.1000E-09  0.0000E+00  0.3188E+16
   -1.650020    2.43805  0.4959E-11  0.1219E-13  0.7603E-17  0.1000E-09  0.0000E+00  0.2985E+16
   -1.718773    2.56330  0.4945E-11  0.1219E-13  0.7603E-17  0.1000E-09  0.0000E+00  0.2768E+16
   -1.787525    2.69050  0.4933E-11  0.1219E-13  0.7603E-17  0.1000E-09  0.0000E+00  0.2456E+16
   -1.856277    2.81514  0.4922E-11  0.1219E-13  0.7603E-17  0.1000E-09  0.0000E+00  0.2146E+16
   -1.925029    2.93631  0.4913E-11  0.1219E-13  0.7603E-17  0.1000E-09  0.0000E+00  0.1840E+16
   -1.993780    3.05291  0.4906E-11  0.1965E-13  0.8141E-17  0.1000E-09  0.0000E+00  0.1564E+16
   -2.062531    3.16514  0.4900E-11  0.7978E-13  0.2532E-16  0.1000E-09  0.0000E+00  0.1370E+16
   -2.131282    3.27816  0.4895E-11  0.3086E-12  0.9262E-16  0.1000E-09  0.0000E+00  0.1181E+16
   -2.200033    3.39277  0.4891E-11  0.1159E-11  0.3347E-15  0.1000E-09  0.0000E+00  0.9856E+15
   -2.268783    3.50932  0.4888E-11  0.4313E-11  0.1201E-14  0.1000E-09  0.0000E+00  0.7789E+15
   -2.337532    3.62751  0.4886E-11  0.1610E-10  0.4325E-14  0.1000E-09  0.0000E+00  0.5628E+15
   -2.406282    3.74710  0.4885E-11  0.5986E-10  0.1553E-13  0.2316E-09  0.0000E+00  0.3387E+15
   -2.475030    3.86753  0.4884E-11  0.2229E-09  0.5594E-13  0.2524E-08  0.0000E+00  0.1106E+15
   -2.543778    3.98614  0.4883E-11  0.7456E-09  0.1842E-12  0.1004E-05  0.0000E+00 -0.1628E+13
   -2.612526    4.00093  0.4883E-11  0.1154E-08  0.3850E-12  0.1352E-05  0.0000E+00 -0.3244E+13
   -2.681273    4.01136  0.4883E-11  0.1047E-08  0.8172E-12  0.3623E-06  0.0000E+00 -0.1425E+14
   -2.750019    4.03578  0.4883E-11  0.0000E+00  0.0000E+00  0.0000E+00  0.0000E+00  0.0000E+00
