 1 - depth, m
 2 - temperature, C
 3 - salinity, kg/kg
 4 - turbulent kinetic energy, m**2/s**2
 5 - dissipation rate, m**2/s**3
 6 - kinematic heat conductance, m**2/s
 7 - modulus of horizontal velocity, m/s
 8 - Richardson number, n/d
   -0.000000   -0.00000  0.1886E-10  0.1219E-13  0.7603E-17  0.1000E-09  0.0000E+00  0.8030E+16
   -0.068746    0.12248  0.1188E-10  0.1219E-13  0.7603E-17  0.1000E-09  0.0000E+00  0.7713E+16
   -0.137492    0.24413  0.8505E-11  0.1219E-13  0.7603E-17  0.1000E-09  0.0000E+00  0.7413E+16
   -0.206239    0.36516  0.7210E-11  0.1219E-13  0.7603E-17  0.1000E-09  0.0000E+00  0.7129E+16
   -0.274987    0.48576  0.6786E-11  0.1219E-13  0.7603E-17  0.1000E-09  0.0000E+00  0.6859E+16
   -0.343735    0.60610  0.6666E-11  0.1219E-13  0.7603E-17  0.1000E-09  0.0000E+00  0.6603E+16
   -0.412483    0.72638  0.6635E-11  0.1219E-13  0.7603E-17  0.1000E-09  0.0000E+00  0.6357E+16
   -0.481232    0.84677  0.6628E-11  0.1219E-13  0.7603E-17  0.1000E-09  0.0000E+00  0.6119E+16
   -0.549982    0.96745  0.6626E-11  0.1219E-13  0.7603E-17  0.1000E-09  0.0000E+00  0.5889E+16
   -0.618732    1.08858  0.6626E-11  0.1219E-13  0.7603E-17  0.1000E-09  0.0000E+00  0.5663E+16
   -0.687482    1.21030  0.6626E-11  0.1219E-13  0.7603E-17  0.1000E-09  0.0000E+00  0.5450E+16
   -0.756233    1.33295  0.6626E-11  0.1219E-13  0.7603E-17  0.1000E-09  0.0000E+00  0.5241E+16
   -0.824984    1.45677  0.6625E-11  0.1219E-13  0.7603E-17  0.1000E-09  0.0000E+00  0.5030E+16
   -0.893735    1.58185  0.6624E-11  0.1219E-13  0.7603E-17  0.1000E-09  0.0000E+00  0.4815E+16
   -0.962487    1.70828  0.6621E-11  0.1219E-13  0.7603E-17  0.1000E-09  0.0000E+00  0.4594E+16
   -1.031239    1.83611  0.6615E-11  0.1219E-13  0.7603E-17  0.1000E-09  0.0000E+00  0.4367E+16
   -1.099990    1.96538  0.6604E-11  0.3750E-13  0.7603E-17  0.1000E-09  0.0000E+00  0.4132E+16
   -1.168743    2.09608  0.6587E-11  0.1110E-12  0.1557E-16  0.1000E-09  0.0000E+00  0.3888E+16
   -1.237495    2.22822  0.6562E-11  0.2831E-12  0.3643E-16  0.1000E-09  0.0000E+00  0.3635E+16
   -1.306247    2.36174  0.6534E-11  0.6857E-12  0.8497E-16  0.1000E-09  0.0000E+00  0.3372E+16
   -1.374999    2.49658  0.6506E-11  0.1626E-11  0.1957E-15  0.1000E-09  0.0000E+00  0.3102E+16
   -1.443751    2.63276  0.6482E-11  0.3805E-11  0.4455E-15  0.1000E-09  0.0000E+00  0.2824E+16
   -1.512504    2.77022  0.6466E-11  0.8802E-11  0.1003E-14  0.1000E-09  0.0000E+00  0.2535E+16
   -1.581256    2.90881  0.6455E-11  0.2015E-10  0.2236E-14  0.1000E-09  0.0000E+00  0.2238E+16
   -1.650008    3.04835  0.6448E-11  0.4564E-10  0.4934E-14  0.1000E-09  0.0000E+00  0.1934E+16
   -1.718760    3.18866  0.6444E-11  0.1024E-09  0.1078E-13  0.1000E-09  0.0000E+00  0.1624E+16
   -1.787511    3.32959  0.6440E-11  0.2328E-09  0.2389E-13  0.1000E-09  0.0000E+00  0.1325E+16
   -1.856263    3.47278  0.6436E-11  0.5334E-09  0.5336E-13  0.2685E-09  0.0000E+00  0.1011E+16
   -1.925014    3.61819  0.6430E-11  0.1220E-08  0.1190E-12  0.8861E-09  0.0000E+00  0.6831E+15
   -1.993765    3.76560  0.6424E-11  0.2775E-08  0.2642E-12  0.3959E-08  0.0000E+00  0.3392E+15
   -2.062516    3.91209  0.6422E-11  0.5935E-08  0.5540E-12  0.7274E-07  0.0000E+00  0.3839E+14
   -2.131266    4.01103  0.6422E-11  0.6872E-08  0.6456E-12  0.3105E-04  0.0000E+00 -0.2655E+12
   -2.200016    4.01171  0.6422E-11  0.7249E-08  0.6930E-12  0.3122E-04  0.0000E+00 -0.2715E+12
   -2.268766    4.01238  0.6422E-11  0.7533E-08  0.7434E-12  0.3050E-04  0.0000E+00 -0.2858E+12
   -2.337515    4.01307  0.6422E-11  0.7736E-08  0.8032E-12  0.2879E-04  0.0000E+00 -0.3118E+12
   -2.406263    4.01381  0.6422E-11  0.7853E-08  0.8814E-12  0.2593E-04  0.0000E+00 -0.3575E+12
   -2.475012    4.01462  0.6422E-11  0.7866E-08  0.9969E-12  0.2172E-04  0.0000E+00 -0.4431E+12
   -2.543759    4.01561  0.6422E-11  0.7724E-08  0.1199E-11  0.1594E-04  0.0000E+00 -0.6339E+12
   -2.612506    4.01696  0.6422E-11  0.7256E-08  0.1688E-11  0.8547E-05  0.0000E+00 -0.1281E+13
   -2.681253    4.01952  0.6422E-11  0.5222E-08  0.4606E-11  0.1147E-05  0.0000E+00 -0.1255E+14
   -2.749998    4.03833  0.6422E-11  0.0000E+00  0.0000E+00  0.0000E+00  0.0000E+00  0.0000E+00
