 1 - depth, m
 2 - temperature, C
 3 - salinity, kg/kg
 4 - turbulent kinetic energy, m**2/s**2
 5 - dissipation rate, m**2/s**3
 6 - kinematic heat conductance, m**2/s
 7 - modulus of horizontal velocity, m/s
 8 - Richardson number, n/d
   -0.000000   -0.00000  0.5899E-11  0.1219E-13  0.7603E-17  0.1000E-09  0.0000E+00  0.6733E+16
   -0.068746    0.10241  0.3550E-11  0.1219E-13  0.7603E-17  0.1000E-09  0.0000E+00  0.6488E+16
   -0.137492    0.20388  0.2585E-11  0.1219E-13  0.7603E-17  0.1000E-09  0.0000E+00  0.6275E+16
   -0.206239    0.30488  0.2300E-11  0.1219E-13  0.7603E-17  0.1000E-09  0.0000E+00  0.6091E+16
   -0.274987    0.40581  0.2228E-11  0.1219E-13  0.7603E-17  0.1000E-09  0.0000E+00  0.5932E+16
   -0.343735    0.50708  0.2213E-11  0.1219E-13  0.7603E-17  0.1000E-09  0.0000E+00  0.5793E+16
   -0.412483    0.60909  0.2209E-11  0.1219E-13  0.7603E-17  0.1000E-09  0.0000E+00  0.5671E+16
   -0.481232    0.71221  0.2209E-11  0.1219E-13  0.7603E-17  0.1000E-09  0.0000E+00  0.5564E+16
   -0.549982    0.81684  0.2209E-11  0.1219E-13  0.7603E-17  0.1000E-09  0.0000E+00  0.5468E+16
   -0.618732    0.92332  0.2209E-11  0.1219E-13  0.7603E-17  0.1000E-09  0.0000E+00  0.5379E+16
   -0.687482    1.03202  0.2209E-11  0.1219E-13  0.7603E-17  0.1000E-09  0.0000E+00  0.5306E+16
   -0.756233    1.14351  0.2209E-11  0.1219E-13  0.7603E-17  0.1000E-09  0.0000E+00  0.5238E+16
   -0.824984    1.25827  0.2209E-11  0.1219E-13  0.7603E-17  0.1000E-09  0.0000E+00  0.5163E+16
   -0.893735    1.37656  0.2209E-11  0.1219E-13  0.7603E-17  0.1000E-09  0.0000E+00  0.5078E+16
   -0.962487    1.49862  0.2208E-11  0.1497E-13  0.7603E-17  0.1000E-09  0.0000E+00  0.4978E+16
   -1.031238    1.62465  0.2208E-11  0.6585E-13  0.1040E-16  0.1000E-09  0.0000E+00  0.4859E+16
   -1.099990    1.75480  0.2206E-11  0.1825E-12  0.2292E-16  0.1000E-09  0.0000E+00  0.4717E+16
   -1.168742    1.88919  0.2202E-11  0.4443E-12  0.5245E-16  0.1000E-09  0.0000E+00  0.4551E+16
   -1.237494    2.02786  0.2196E-11  0.1038E-11  0.1186E-15  0.1000E-09  0.0000E+00  0.4356E+16
   -1.306247    2.17083  0.2186E-11  0.2382E-11  0.2647E-15  0.1000E-09  0.0000E+00  0.4131E+16
   -1.374999    2.31806  0.2175E-11  0.5401E-11  0.5846E-15  0.1000E-09  0.0000E+00  0.3879E+16
   -1.443751    2.46965  0.2166E-11  0.1212E-10  0.1278E-14  0.1000E-09  0.0000E+00  0.3595E+16
   -1.512503    2.62555  0.2159E-11  0.2694E-10  0.2770E-14  0.1000E-09  0.0000E+00  0.3276E+16
   -1.581255    2.78552  0.2155E-11  0.5929E-10  0.5945E-14  0.1000E-09  0.0000E+00  0.2922E+16
   -1.650007    2.94928  0.2153E-11  0.1293E-09  0.1265E-13  0.1000E-09  0.0000E+00  0.2536E+16
   -1.718759    3.11651  0.2151E-11  0.2795E-09  0.2667E-13  0.1000E-09  0.0000E+00  0.2121E+16
   -1.787511    3.28691  0.2150E-11  0.6126E-09  0.5702E-13  0.1707E-09  0.0000E+00  0.1700E+16
   -1.856262    3.46266  0.2149E-11  0.1355E-08  0.1231E-12  0.5063E-09  0.0000E+00  0.1237E+16
   -1.925014    3.64372  0.2146E-11  0.2991E-08  0.2653E-12  0.1852E-08  0.0000E+00  0.7289E+15
   -1.993765    3.82918  0.2142E-11  0.6540E-08  0.5672E-12  0.1508E-07  0.0000E+00  0.1913E+15
   -2.062515    4.00396  0.2141E-11  0.7424E-08  0.6477E-12  0.3426E-04  0.0000E+00 -0.2241E+12
   -2.131266    4.00475  0.2141E-11  0.7798E-08  0.6907E-12  0.3496E-04  0.0000E+00 -0.2297E+12
   -2.200016    4.00553  0.2141E-11  0.8096E-08  0.7368E-12  0.3479E-04  0.0000E+00 -0.2408E+12
   -2.268765    4.00632  0.2141E-11  0.8324E-08  0.7891E-12  0.3372E-04  0.0000E+00 -0.2592E+12
   -2.337514    4.00713  0.2141E-11  0.8487E-08  0.8541E-12  0.3160E-04  0.0000E+00 -0.2889E+12
   -2.406263    4.00799  0.2141E-11  0.8576E-08  0.9415E-12  0.2828E-04  0.0000E+00 -0.3382E+12
   -2.475011    4.00897  0.2141E-11  0.8568E-08  0.1073E-11  0.2352E-04  0.0000E+00 -0.4288E+12
   -2.543758    4.01014  0.2141E-11  0.8409E-08  0.1306E-11  0.1714E-04  0.0000E+00 -0.6290E+12
   -2.612505    4.01177  0.2141E-11  0.7920E-08  0.1869E-11  0.9134E-05  0.0000E+00 -0.1311E+13
   -2.681252    4.01487  0.2141E-11  0.5795E-08  0.5242E-11  0.1264E-05  0.0000E+00 -0.1360E+14
   -2.749997    4.03683  0.2141E-11  0.0000E+00  0.0000E+00  0.0000E+00  0.0000E+00  0.0000E+00
