 1 - depth, m
 2 - temperature, C
 3 - salinity, kg/kg
 4 - turbulent kinetic energy, m**2/s**2
 5 - dissipation rate, m**2/s**3
 6 - kinematic heat conductance, m**2/s
 7 - modulus of horizontal velocity, m/s
 8 - Richardson number, n/d
   -0.000000   -0.00000  0.1105E-09  0.1219E-13  0.7603E-17  0.1000E-09  0.1055E-65  0.3692E+16
   -0.068746    0.05581  0.6506E-10  0.1219E-13  0.7603E-17  0.1000E-09  0.8315E-66  0.3319E+16
   -0.137492    0.10670  0.5764E-10  0.1219E-13  0.7603E-17  0.1000E-09  0.6862E-66  0.2920E+16
   -0.206239    0.15207  0.5643E-10  0.1219E-13  0.7603E-17  0.1000E-09  0.5811E-66  0.2517E+16
   -0.274987    0.19164  0.5626E-10  0.1219E-13  0.7603E-17  0.1000E-09  0.4944E-66  0.2130E+16
   -0.343735    0.22548  0.5624E-10  0.1219E-13  0.7603E-17  0.1000E-09  0.4178E-66  0.1776E+16
   -0.412483    0.25395  0.5624E-10  0.1219E-13  0.7603E-17  0.1000E-09  0.3494E-66  0.1467E+16
   -0.481233    0.27764  0.5624E-10  0.1219E-13  0.7603E-17  0.1000E-09  0.2891E-66  0.1214E+16
   -0.549982    0.29737  0.5624E-10  0.1219E-13  0.7603E-17  0.1000E-09  0.2371E-66  0.1024E+16
   -0.618732    0.31410  0.5624E-10  0.1219E-13  0.7603E-17  0.1000E-09  0.1929E-66  0.9047E+15
   -0.687482    0.32894  0.5624E-10  0.1219E-13  0.7603E-17  0.1000E-09  0.1558E-66  0.8736E+15
   -0.756233    0.34334  0.5624E-10  0.1219E-13  0.7603E-17  0.1000E-09  0.1251E-66  0.9310E+15
   -0.824984    0.35875  0.5624E-10  0.1219E-13  0.7603E-17  0.1000E-09  0.9972E-67  0.1074E+16
   -0.893735    0.37662  0.5624E-10  0.1219E-13  0.7603E-17  0.1000E-09  0.7902E-67  0.1308E+16
   -0.962487    0.39851  0.5624E-10  0.1219E-13  0.7603E-17  0.1000E-09  0.6221E-67  0.1635E+16
   -1.031239    0.42606  0.5624E-10  0.1219E-13  0.7603E-17  0.1000E-09  0.4865E-67  0.2056E+16
   -1.099991    0.46103  0.5624E-10  0.1219E-13  0.7603E-17  0.1000E-09  0.3778E-67  0.2568E+16
   -1.168743    0.50523  0.5624E-10  0.1219E-13  0.7603E-17  0.1000E-09  0.2913E-67  0.3163E+16
   -1.237495    0.56050  0.5623E-10  0.1219E-13  0.7603E-17  0.1000E-09  0.2227E-67  0.3829E+16
   -1.306247    0.62870  0.5621E-10  0.1219E-13  0.7603E-17  0.1000E-09  0.1686E-67  0.4544E+16
   -1.374999    0.71158  0.5611E-10  0.1219E-13  0.7603E-17  0.1000E-09  0.1260E-67  0.5332E+16
   -1.443752    0.81175  0.5584E-10  0.1219E-13  0.7603E-17  0.1000E-09  0.9240E-68  0.6115E+16
   -1.512504    0.93090  0.5543E-10  0.1219E-13  0.7603E-17  0.1000E-09  0.6566E-68  0.6831E+16
   -1.581256    1.07005  0.5520E-10  0.1219E-13  0.7603E-17  0.1000E-09  0.4402E-68  0.7432E+16
   -1.650008    1.22982  0.5513E-10  0.1219E-13  0.7603E-17  0.1000E-09  0.2594E-68  0.7871E+16
   -1.718760    1.41032  0.5509E-10  0.1219E-13  0.7603E-17  0.1000E-09  0.1001E-68  0.8083E+16
   -1.787512    1.61056  0.5506E-10  0.1219E-13  0.7603E-17  0.1000E-09  0.6779E-70  0.7609E+16
   -1.856263    1.81660  0.5505E-10  0.1219E-13  0.7603E-17  0.1000E-09  0.4229E-71  0.7016E+16
   -1.925014    2.02643  0.5504E-10  0.2354E-13  0.1021E-16  0.1000E-09  0.2410E-72  0.6318E+16
   -1.993765    2.23756  0.5504E-10  0.1048E-12  0.4090E-16  0.1000E-09  0.1496E-73  0.5619E+16
   -2.062516    2.45030  0.5503E-10  0.4601E-12  0.1715E-15  0.1000E-09  0.1207E-74  0.5139E+16
   -2.131266    2.67558  0.5501E-10  0.1968E-11  0.7034E-15  0.1000E-09  0.9107E-76  0.4527E+16
   -2.200016    2.91348  0.5496E-10  0.8231E-11  0.2824E-14  0.1000E-09  0.6388E-77  0.3758E+16
   -2.268766    3.16262  0.5486E-10  0.3404E-10  0.1122E-13  0.1000E-09  0.3059E-78  0.2848E+16
   -2.337515    3.42163  0.5467E-10  0.1406E-09  0.4452E-13  0.1243E-09  0.1199E-79  0.1820E+16
   -2.406264    3.68937  0.5444E-10  0.5760E-09  0.1754E-12  0.1289E-08  0.4009E-81  0.6886E+15
   -2.475012    3.96311  0.5441E-10  0.2052E-08  0.6105E-12  0.7494E-06  0.1111E-82  0.3753E+12
   -2.543759    4.00846  0.5441E-10  0.4302E-08  0.1606E-11  0.4322E-05  0.3120E-84 -0.3974E+13
   -2.612506    4.01791  0.5441E-10  0.5465E-08  0.2886E-11  0.3499E-05  0.1415E-85 -0.7555E+13
   -2.681253    4.03062  0.5441E-10  0.6010E-08  0.7707E-11  0.1378E-05  0.3912E-87 -0.4093E+14
   -2.749999    4.07113  0.5441E-10  0.0000E+00  0.0000E+00  0.0000E+00  0.4207E-87  0.0000E+00
