 1 - depth, m
 2 - temperature, C
 3 - salinity, kg/kg
 4 - turbulent kinetic energy, m**2/s**2
 5 - dissipation rate, m**2/s**3
 6 - kinematic heat conductance, m**2/s
 7 - modulus of horizontal velocity, m/s
 8 - Richardson number, n/d
   -0.000000   -0.00000  0.3142E-12  0.1219E-13  0.7603E-17  0.1000E-09  0.0000E+00  0.7255E+16
   -0.068746    0.11047  0.1173E-11  0.1219E-13  0.7603E-17  0.1000E-09  0.0000E+00  0.7150E+16
   -0.137493    0.22272  0.1659E-11  0.1219E-13  0.7603E-17  0.1000E-09  0.0000E+00  0.7026E+16
   -0.206240    0.33662  0.1790E-11  0.1219E-13  0.7603E-17  0.1000E-09  0.0000E+00  0.6884E+16
   -0.274988    0.45200  0.1733E-11  0.1219E-13  0.7603E-17  0.1000E-09  0.0000E+00  0.6726E+16
   -0.343736    0.56872  0.1610E-11  0.1219E-13  0.7603E-17  0.1000E-09  0.0000E+00  0.6551E+16
   -0.412485    0.68661  0.1490E-11  0.1219E-13  0.7603E-17  0.1000E-09  0.0000E+00  0.6362E+16
   -0.481234    0.80551  0.1402E-11  0.1219E-13  0.7603E-17  0.1000E-09  0.0000E+00  0.6158E+16
   -0.549984    0.92526  0.1347E-11  0.1219E-13  0.7603E-17  0.1000E-09  0.0000E+00  0.5943E+16
   -0.618734    1.04569  0.1317E-11  0.1219E-13  0.7603E-17  0.1000E-09  0.0000E+00  0.5718E+16
   -0.687485    1.16666  0.1302E-11  0.1219E-13  0.7603E-17  0.1000E-09  0.0000E+00  0.5485E+16
   -0.756236    1.28803  0.1295E-11  0.1219E-13  0.7603E-17  0.1000E-09  0.0000E+00  0.5245E+16
   -0.824987    1.40969  0.1292E-11  0.1219E-13  0.7603E-17  0.1000E-09  0.0000E+00  0.5000E+16
   -0.893739    1.53152  0.1290E-11  0.1219E-13  0.7603E-17  0.1000E-09  0.0000E+00  0.4750E+16
   -0.962490    1.65340  0.1289E-11  0.1219E-13  0.7603E-17  0.1000E-09  0.0000E+00  0.4498E+16
   -1.031242    1.77524  0.1288E-11  0.1219E-13  0.7603E-17  0.1000E-09  0.0000E+00  0.4244E+16
   -1.099994    1.89695  0.1286E-11  0.1219E-13  0.7603E-17  0.1000E-09  0.0000E+00  0.3989E+16
   -1.168747    2.01845  0.1284E-11  0.1219E-13  0.7603E-17  0.1000E-09  0.0000E+00  0.3735E+16
   -1.237499    2.13969  0.1281E-11  0.1219E-13  0.7603E-17  0.1000E-09  0.0000E+00  0.3482E+16
   -1.306252    2.26061  0.1278E-11  0.1219E-13  0.7603E-17  0.1000E-09  0.0000E+00  0.3230E+16
   -1.375004    2.38117  0.1274E-11  0.1219E-13  0.7603E-17  0.1000E-09  0.0000E+00  0.2982E+16
   -1.443757    2.50137  0.1270E-11  0.1219E-13  0.7603E-17  0.1000E-09  0.0000E+00  0.2736E+16
   -1.512509    2.62120  0.1267E-11  0.1219E-13  0.7603E-17  0.1000E-09  0.0000E+00  0.2494E+16
   -1.581261    2.74065  0.1264E-11  0.1270E-13  0.7603E-17  0.1000E-09  0.0000E+00  0.2255E+16
   -1.650014    2.85973  0.1261E-11  0.5860E-13  0.1190E-16  0.1000E-09  0.0000E+00  0.2019E+16
   -1.718766    2.97845  0.1259E-11  0.1794E-12  0.3055E-16  0.1000E-09  0.0000E+00  0.1785E+16
   -1.787518    3.09674  0.1257E-11  0.5072E-12  0.8226E-16  0.1000E-09  0.0000E+00  0.1533E+16
   -1.856270    3.21293  0.1256E-11  0.1413E-11  0.2221E-15  0.1000E-09  0.0000E+00  0.1290E+16
   -1.925021    3.32656  0.1255E-11  0.3902E-11  0.5961E-15  0.1000E-09  0.0000E+00  0.1056E+16
   -1.993772    3.43698  0.1254E-11  0.1072E-10  0.1592E-14  0.1000E-09  0.0000E+00  0.8374E+15
   -2.062523    3.54395  0.1253E-11  0.2859E-10  0.4131E-14  0.1000E-09  0.0000E+00  0.6504E+15
   -2.131274    3.64992  0.1253E-11  0.7527E-10  0.1058E-13  0.1162E-09  0.0000E+00  0.4685E+15
   -2.200024    3.75477  0.1252E-11  0.1964E-09  0.2686E-13  0.4678E-09  0.0000E+00  0.2912E+15
   -2.268774    3.85767  0.1252E-11  0.5115E-09  0.6810E-13  0.2794E-08  0.0000E+00  0.1231E+15
   -2.337523    3.95701  0.1252E-11  0.1263E-08  0.1650E-12  0.1650E-06  0.0000E+00  0.4383E+13
   -2.406272    4.00361  0.1252E-11  0.2097E-08  0.2812E-12  0.7201E-05  0.0000E+00 -0.5566E+12
   -2.475021    4.00555  0.1252E-11  0.2430E-08  0.3520E-12  0.7046E-05  0.0000E+00 -0.6287E+12
   -2.543768    4.00754  0.1252E-11  0.2594E-08  0.4421E-12  0.5814E-05  0.0000E+00 -0.8361E+12
   -2.612516    4.00992  0.1252E-11  0.2529E-08  0.6173E-12  0.3389E-05  0.0000E+00 -0.1585E+13
   -2.681262    4.01387  0.1252E-11  0.1844E-08  0.1410E-11  0.5331E-06  0.0000E+00 -0.1129E+14
   -2.750008    4.03323  0.1252E-11  0.0000E+00  0.0000E+00  0.0000E+00  0.0000E+00  0.0000E+00
