 1 - depth, m
 2 - temperature, C
 3 - salinity, kg/kg
 4 - turbulent kinetic energy, m**2/s**2
 5 - dissipation rate, m**2/s**3
 6 - kinematic heat conductance, m**2/s
 7 - modulus of horizontal velocity, m/s
 8 - Richardson number, n/d
   -0.000000    9.43555  0.2848E-11  0.2050E-04  0.1372E-05  0.3448E-04  0.3462E-01 -0.1504E-01
   -0.068746    9.47104  0.2848E-11  0.1808E-04  0.4131E-06  0.9035E-04  0.2173E-01 -0.4238E-01
   -0.137492    9.48321  0.2848E-11  0.1712E-04  0.2223E-06  0.1504E-03  0.1752E-01 -0.7070E-01
   -0.206239    9.49033  0.2848E-11  0.1650E-04  0.1476E-06  0.2165E-03  0.1502E-01 -0.1021E+00
   -0.274987    9.49511  0.2848E-11  0.1603E-04  0.1088E-06  0.2904E-03  0.1330E-01 -0.1259E+00
   -0.343735    9.49858  0.2848E-11  0.1567E-04  0.8559E-07  0.3996E-03  0.1203E-01  0.2110E+02
   -0.412484    9.50112  0.2848E-11  0.1539E-04  0.7043E-07  0.5577E-03  0.1106E-01  0.2429E+02
   -0.481233    9.50300  0.2848E-11  0.1518E-04  0.6002E-07  0.7806E-03  0.1027E-01  0.4814E+02
   -0.549983    9.50434  0.2848E-11  0.1504E-04  0.5257E-07  0.1025E-02  0.9626E-02  0.2764E+02
   -0.618733    9.50532  0.2848E-11  0.1496E-04  0.4700E-07  0.1255E-02  0.9067E-02  0.3211E+02
   -0.687483    9.50606  0.2848E-11  0.1491E-04  0.4267E-07  0.1444E-02  0.8563E-02  0.5822E+02
   -0.756234    9.50666  0.2848E-11  0.1488E-04  0.3915E-07  0.1510E-02  0.8094E-02  0.1347E+02
   -0.824985    9.50722  0.2848E-11  0.1487E-04  0.3618E-07  0.1567E-02  0.7641E-02  0.1508E+02
   -0.893737    9.50774  0.2848E-11  0.1486E-04  0.3367E-07  0.1620E-02  0.7208E-02  0.1649E+02
   -0.962488    9.50824  0.2848E-11  0.1484E-04  0.3153E-07  0.1671E-02  0.6790E-02  0.1807E+02
   -1.031240    9.50872  0.2848E-11  0.1482E-04  0.2968E-07  0.1719E-02  0.6386E-02  0.1985E+02
   -1.099992    9.50917  0.2848E-11  0.1478E-04  0.2807E-07  0.1763E-02  0.5993E-02  0.2194E+02
   -1.168744    9.50960  0.2848E-11  0.1473E-04  0.2666E-07  0.1803E-02  0.5609E-02  0.2451E+02
   -1.237496    9.51002  0.2848E-11  0.1466E-04  0.2542E-07  0.1839E-02  0.5234E-02  0.2783E+02
   -1.306249    9.51041  0.2848E-11  0.1457E-04  0.2432E-07  0.1869E-02  0.4866E-02  0.3237E+02
   -1.375001    9.51080  0.2848E-11  0.1446E-04  0.2333E-07  0.1893E-02  0.4503E-02  0.3906E+02
   -1.443753    9.51117  0.2848E-11  0.1432E-04  0.2245E-07  0.1910E-02  0.4144E-02  0.5009E+02
   -1.512506    9.51154  0.2848E-11  0.1415E-04  0.2166E-07  0.1918E-02  0.3789E-02  0.7161E+02
   -1.581258    9.51189  0.2848E-11  0.1394E-04  0.2094E-07  0.1916E-02  0.3435E-02  0.1310E+03
   -1.650010    9.51224  0.2848E-11  0.1370E-04  0.2027E-07  0.1908E-02  0.3082E-02  0.6927E+03
   -1.718762    9.51258  0.2848E-11  0.1342E-04  0.1966E-07  0.1876E-02  0.2730E-02  0.1837E+05
   -1.787514    9.51293  0.2848E-11  0.1309E-04  0.1906E-07  0.1880E-02  0.2374E-02  0.1778E+02
   -1.856265    9.51327  0.2848E-11  0.1271E-04  0.1851E-07  0.1871E-02  0.2065E-02  0.5989E+01
   -1.925017    9.51361  0.2848E-11  0.1230E-04  0.1806E-07  0.1867E-02  0.1795E-02  0.3096E+01
   -1.993768    9.51394  0.2848E-11  0.1187E-04  0.1773E-07  0.1870E-02  0.1562E-02  0.2050E+01
   -2.062519    9.51428  0.2848E-11  0.1144E-04  0.1759E-07  0.1868E-02  0.1360E-02  0.1621E+01
   -2.131269    9.51461  0.2848E-11  0.1103E-04  0.1766E-07  0.1845E-02  0.1178E-02  0.1303E+01
   -2.200019    9.51493  0.2848E-11  0.1064E-04  0.1797E-07  0.1809E-02  0.1014E-02  0.1057E+01
   -2.268769    9.51527  0.2848E-11  0.1027E-04  0.1857E-07  0.1744E-02  0.8654E-03  0.8090E+00
   -2.337518    9.51561  0.2848E-11  0.9929E-05  0.1952E-07  0.1581E-02  0.7376E-03  0.6051E+00
   -2.406267    9.51598  0.2848E-11  0.9617E-05  0.2090E-07  0.1391E-02  0.6312E-03  0.4660E+00
   -2.475015    9.51640  0.2848E-11  0.9330E-05  0.2290E-07  0.1206E-02  0.5451E-03  0.4455E+00
   -2.543763    9.51688  0.2848E-11  0.9033E-05  0.2615E-07  0.1161E-02  0.4756E-03  0.7052E+00
   -2.612510    9.51737  0.2848E-11  0.8536E-05  0.3559E-07  0.6125E-03  0.4172E-03  0.2258E+04
   -2.681256    9.51879  0.2848E-11  0.5253E-05  0.1467E-06  0.4501E-04  0.3152E-03 -0.1126E+05
   -2.750002    9.53162  0.2848E-11  0.0000E+00  0.0000E+00  0.0000E+00  0.3230E-03  0.0000E+00
