 1 - depth, m
 2 - temperature, C
 3 - salinity, kg/kg
 4 - turbulent kinetic energy, m**2/s**2
 5 - dissipation rate, m**2/s**3
 6 - kinematic heat conductance, m**2/s
 7 - modulus of horizontal velocity, m/s
 8 - Richardson number, n/d
   -0.000000   -0.00000  0.1188E-09  0.3003E-07  0.8299E-10  0.5917E-07  0.3280E-03  0.8387E+15
   -0.068745    0.09572  0.1031E-09  0.2142E-06  0.4848E-10  0.8509E-07  0.1821E-03  0.3301E+15
   -0.137490    0.13786  0.9738E-10  0.6539E-06  0.3512E-10  0.3662E-06  0.9610E-04  0.5494E+14
   -0.206236    0.14773  0.9567E-10  0.6985E-06  0.3666E-10  0.3645E-02  0.4514E-04 -0.3556E+10
   -0.274982    0.14995  0.9528E-10  0.7201E-06  0.3764E-10  0.4008E-02  0.1591E-04 -0.2146E+11
   -0.343730    0.15060  0.9509E-10  0.7221E-06  0.3773E-10  0.4237E-02  0.4104E-05 -0.3499E+11
   -0.412477    0.15061  0.9508E-10  0.7226E-06  0.3773E-10  0.4260E-02  0.3637E-05 -0.4259E+11
   -0.481225    0.15060  0.9508E-10  0.7230E-06  0.3773E-10  0.4259E-02  0.3615E-05 -0.4957E+11
   -0.549974    0.15060  0.9508E-10  0.7233E-06  0.3773E-10  0.4262E-02  0.3593E-05 -0.5087E+11
   -0.618723    0.15060  0.9508E-10  0.7236E-06  0.3773E-10  0.4263E-02  0.3574E-05 -0.5329E+11
   -0.687472    0.15060  0.9508E-10  0.7237E-06  0.3772E-10  0.4266E-02  0.3555E-05 -0.5054E+11
   -0.756222    0.15059  0.9508E-10  0.7237E-06  0.3770E-10  0.4268E-02  0.3539E-05 -0.4967E+11
   -0.824972    0.15059  0.9508E-10  0.7235E-06  0.3768E-10  0.4271E-02  0.3523E-05 -0.4431E+11
   -0.893722    0.15059  0.9508E-10  0.7233E-06  0.3766E-10  0.4289E-02  0.3509E-05 -0.4498E+11
   -0.962472    0.15058  0.9508E-10  0.7230E-06  0.3763E-10  0.4301E-02  0.3497E-05 -0.4049E+11
   -1.031223    0.15058  0.9508E-10  0.7226E-06  0.3760E-10  0.4281E-02  0.3487E-05 -0.2703E+11
   -1.099974    0.15058  0.9508E-10  0.7222E-06  0.3757E-10  0.4288E-02  0.3477E-05 -0.2016E+11
   -1.168725    0.15058  0.9508E-10  0.7218E-06  0.3754E-10  0.4311E-02  0.3470E-05 -0.1122E+11
   -1.237476    0.15058  0.9507E-10  0.7214E-06  0.3751E-10  0.4397E-02  0.3464E-05 -0.1708E+10
   -1.306227    0.15058  0.9507E-10  0.7209E-06  0.3748E-10  0.8320E-03  0.3459E-05  0.6999E+11
   -1.374978    0.15058  0.9507E-10  0.7195E-06  0.3741E-10  0.2942E-06  0.3449E-05  0.8696E+14
   -1.443729    0.16098  0.9466E-10  0.4520E-06  0.2363E-10  0.4967E-07  0.1829E-05  0.2768E+15
   -1.512481    0.19839  0.9397E-10  0.2542E-06  0.1347E-10  0.1600E-07  0.8445E-06  0.4955E+15
   -1.581232    0.26522  0.9373E-10  0.1392E-06  0.7488E-11  0.5925E-08  0.3729E-06  0.7515E+15
   -1.649983    0.36809  0.9365E-10  0.7553E-07  0.4127E-11  0.2365E-08  0.1556E-06  0.1037E+16
   -1.718734    0.51621  0.9358E-10  0.4134E-07  0.2294E-11  0.1043E-08  0.4825E-07  0.1620E+16
   -1.787484    0.71428  0.9352E-10  0.2293E-07  0.1291E-11  0.8224E-09  0.3135E-08  0.2512E+16
   -1.856235    0.86269  0.9348E-10  0.1268E-07  0.7245E-12  0.6858E-09  0.1881E-09  0.2707E+16
   -1.924985    0.96538  0.9346E-10  0.6948E-08  0.4045E-12  0.6587E-09  0.1034E-10  0.2831E+16
   -1.993735    1.02415  0.9346E-10  0.3693E-08  0.2223E-12  0.4370E-09  0.6174E-12  0.2294E+16
   -2.062485    1.07240  0.9346E-10  0.1886E-08  0.1242E-12  0.1244E-09  0.4734E-13  0.6517E+16
   -2.131234    1.21304  0.9344E-10  0.8834E-09  0.7818E-13  0.1000E-09  0.3405E-14  0.1103E+17
   -2.199983    1.46929  0.9337E-10  0.3721E-09  0.7715E-13  0.1000E-09  0.2283E-15  0.1469E+17
   -2.268731    1.85973  0.9330E-10  0.3473E-09  0.1850E-12  0.1057E-09  0.1059E-16  0.1579E+17
   -2.337479    2.38691  0.9320E-10  0.1599E-08  0.9686E-12  0.4089E-09  0.4046E-18  0.1361E+17
   -2.406227    3.06775  0.9303E-10  0.9793E-08  0.5809E-11  0.7357E-08  0.1322E-19  0.6594E+16
   -2.474974    3.89794  0.9262E-10  0.2550E-07  0.1657E-10  0.1285E-04  0.3546E-21  0.3601E+15
   -2.543721    4.12084  0.9255E-10  0.3877E-07  0.2947E-10  0.2023E-04  0.1428E-22 -0.1595E+14
   -2.612467    4.12892  0.9255E-10  0.4222E-07  0.4200E-10  0.1480E-04  0.1848E-23 -0.2593E+14
   -2.681212    4.14121  0.9255E-10  0.3788E-07  0.1045E-09  0.3723E-05  0.1482E-24 -0.1722E+15
   -2.749957    4.20336  0.9255E-10  0.0000E+00  0.0000E+00  0.0000E+00  0.1491E-24  0.0000E+00
