 1 - depth, m
 2 - temperature, C
 3 - salinity, kg/kg
 4 - turbulent kinetic energy, m**2/s**2
 5 - dissipation rate, m**2/s**3
 6 - kinematic heat conductance, m**2/s
 7 - modulus of horizontal velocity, m/s
 8 - Richardson number, n/d
   -0.000000   -0.00000  0.1427E-10  0.1219E-13  0.7603E-17  0.1000E-09  0.0000E+00  0.7371E+16
   -0.068746    0.11227  0.8293E-11  0.1219E-13  0.7603E-17  0.1000E-09  0.0000E+00  0.7077E+16
   -0.137492    0.22341  0.6027E-11  0.1219E-13  0.7603E-17  0.1000E-09  0.0000E+00  0.6813E+16
   -0.206239    0.33382  0.5295E-11  0.1219E-13  0.7603E-17  0.1000E-09  0.0000E+00  0.6578E+16
   -0.274987    0.44388  0.5097E-11  0.1219E-13  0.7603E-17  0.1000E-09  0.0000E+00  0.6367E+16
   -0.343735    0.55399  0.5050E-11  0.1219E-13  0.7603E-17  0.1000E-09  0.0000E+00  0.6177E+16
   -0.412483    0.66452  0.5040E-11  0.1219E-13  0.7603E-17  0.1000E-09  0.0000E+00  0.6005E+16
   -0.481232    0.77581  0.5038E-11  0.1219E-13  0.7603E-17  0.1000E-09  0.0000E+00  0.5846E+16
   -0.549982    0.88822  0.5038E-11  0.1219E-13  0.7603E-17  0.1000E-09  0.0000E+00  0.5697E+16
   -0.618732    1.00206  0.5038E-11  0.1219E-13  0.7603E-17  0.1000E-09  0.0000E+00  0.5555E+16
   -0.687482    1.11761  0.5038E-11  0.1219E-13  0.7603E-17  0.1000E-09  0.0000E+00  0.5426E+16
   -0.756233    1.23540  0.5038E-11  0.1219E-13  0.7603E-17  0.1000E-09  0.0000E+00  0.5301E+16
   -0.824984    1.35582  0.5038E-11  0.1219E-13  0.7603E-17  0.1000E-09  0.0000E+00  0.5169E+16
   -0.893735    1.47906  0.5037E-11  0.1219E-13  0.7603E-17  0.1000E-09  0.0000E+00  0.5027E+16
   -0.962487    1.60530  0.5036E-11  0.1219E-13  0.7603E-17  0.1000E-09  0.0000E+00  0.4872E+16
   -1.031238    1.73466  0.5033E-11  0.5761E-13  0.9984E-17  0.1000E-09  0.0000E+00  0.4701E+16
   -1.099990    1.86724  0.5027E-11  0.1662E-12  0.2264E-16  0.1000E-09  0.0000E+00  0.4511E+16
   -1.168742    2.00308  0.5015E-11  0.4181E-12  0.5348E-16  0.1000E-09  0.0000E+00  0.4300E+16
   -1.237494    2.14220  0.4997E-11  0.1008E-11  0.1247E-15  0.1000E-09  0.0000E+00  0.4068E+16
   -1.306246    2.28456  0.4973E-11  0.2387E-11  0.2870E-15  0.1000E-09  0.0000E+00  0.3811E+16
   -1.374999    2.43008  0.4948E-11  0.5582E-11  0.6530E-15  0.1000E-09  0.0000E+00  0.3536E+16
   -1.443751    2.57882  0.4929E-11  0.1291E-10  0.1470E-14  0.1000E-09  0.0000E+00  0.3236E+16
   -1.512503    2.73068  0.4915E-11  0.2953E-10  0.3275E-14  0.1000E-09  0.0000E+00  0.2911E+16
   -1.581255    2.88544  0.4907E-11  0.6688E-10  0.7226E-14  0.1000E-09  0.0000E+00  0.2562E+16
   -1.650007    3.04283  0.4902E-11  0.1499E-09  0.1579E-13  0.1000E-09  0.0000E+00  0.2191E+16
   -1.718759    3.20253  0.4898E-11  0.3329E-09  0.3416E-13  0.1000E-09  0.0000E+00  0.1802E+16
   -1.787511    3.36434  0.4895E-11  0.7494E-09  0.7494E-13  0.2695E-09  0.0000E+00  0.1415E+16
   -1.856262    3.53055  0.4892E-11  0.1700E-08  0.1658E-12  0.8475E-09  0.0000E+00  0.9953E+15
   -1.925013    3.70100  0.4886E-11  0.3843E-08  0.3657E-12  0.3445E-08  0.0000E+00  0.5401E+15
   -1.993764    3.87371  0.4882E-11  0.8474E-08  0.7890E-12  0.4272E-07  0.0000E+00  0.9369E+14
   -2.062515    4.01334  0.4881E-11  0.9482E-08  0.8877E-12  0.4190E-04  0.0000E+00 -0.2610E+12
   -2.131265    4.01395  0.4881E-11  0.9897E-08  0.9392E-12  0.4215E-04  0.0000E+00 -0.2655E+12
   -2.200015    4.01456  0.4881E-11  0.1022E-07  0.9938E-12  0.4149E-04  0.0000E+00 -0.2761E+12
   -2.268765    4.01518  0.4881E-11  0.1046E-07  0.1056E-11  0.3988E-04  0.0000E+00 -0.2942E+12
   -2.337514    4.01582  0.4881E-11  0.1062E-07  0.1133E-11  0.3714E-04  0.0000E+00 -0.3241E+12
   -2.406263    4.01651  0.4881E-11  0.1069E-07  0.1237E-11  0.3309E-04  0.0000E+00 -0.3743E+12
   -2.475011    4.01729  0.4881E-11  0.1064E-07  0.1395E-11  0.2747E-04  0.0000E+00 -0.4664E+12
   -2.543758    4.01824  0.4881E-11  0.1041E-07  0.1677E-11  0.2005E-04  0.0000E+00 -0.6682E+12
   -2.612505    4.01955  0.4881E-11  0.9797E-08  0.2360E-11  0.1078E-04  0.0000E+00 -0.1338E+13
   -2.681252    4.02203  0.4881E-11  0.7136E-08  0.6586E-11  0.1447E-05  0.0000E+00 -0.1300E+14
   -2.749997    4.04049  0.4881E-11  0.0000E+00  0.0000E+00  0.0000E+00  0.0000E+00  0.0000E+00
