 1 - depth, m
 2 - temperature, C
 3 - salinity, kg/kg
 4 - turbulent kinetic energy, m**2/s**2
 5 - dissipation rate, m**2/s**3
 6 - kinematic heat conductance, m**2/s
 7 - modulus of horizontal velocity, m/s
 8 - Richardson number, n/d
   -0.000000   -0.00000  0.4626E-11  0.1219E-13  0.7603E-17  0.1000E-09  0.0000E+00  0.6167E+16
   -0.068746    0.09370  0.2532E-11  0.1219E-13  0.7603E-17  0.1000E-09  0.0000E+00  0.5930E+16
   -0.137492    0.18611  0.1891E-11  0.1219E-13  0.7603E-17  0.1000E-09  0.0000E+00  0.5733E+16
   -0.206239    0.27778  0.1725E-11  0.1219E-13  0.7603E-17  0.1000E-09  0.0000E+00  0.5573E+16
   -0.274986    0.36927  0.1688E-11  0.1219E-13  0.7603E-17  0.1000E-09  0.0000E+00  0.5446E+16
   -0.343735    0.46112  0.1680E-11  0.1219E-13  0.7603E-17  0.1000E-09  0.0000E+00  0.5348E+16
   -0.412483    0.55384  0.1679E-11  0.1219E-13  0.7603E-17  0.1000E-09  0.0000E+00  0.5274E+16
   -0.481232    0.64795  0.1679E-11  0.1219E-13  0.7603E-17  0.1000E-09  0.0000E+00  0.5220E+16
   -0.549982    0.74395  0.1679E-11  0.1219E-13  0.7603E-17  0.1000E-09  0.0000E+00  0.5182E+16
   -0.618732    0.84231  0.1679E-11  0.1219E-13  0.7603E-17  0.1000E-09  0.0000E+00  0.5156E+16
   -0.687482    0.94349  0.1679E-11  0.1219E-13  0.7603E-17  0.1000E-09  0.0000E+00  0.5149E+16
   -0.756233    1.04821  0.1679E-11  0.1219E-13  0.7603E-17  0.1000E-09  0.0000E+00  0.5151E+16
   -0.824984    1.15704  0.1679E-11  0.1219E-13  0.7603E-17  0.1000E-09  0.0000E+00  0.5147E+16
   -0.893735    1.27035  0.1678E-11  0.1219E-13  0.7603E-17  0.1000E-09  0.0000E+00  0.5132E+16
   -0.962486    1.38847  0.1678E-11  0.1219E-13  0.7603E-17  0.1000E-09  0.0000E+00  0.5100E+16
   -1.031238    1.51169  0.1678E-11  0.5580E-13  0.9595E-17  0.1000E-09  0.0000E+00  0.5046E+16
   -1.099990    1.64023  0.1677E-11  0.1601E-12  0.2138E-16  0.1000E-09  0.0000E+00  0.4965E+16
   -1.168742    1.77428  0.1675E-11  0.3995E-12  0.5002E-16  0.1000E-09  0.0000E+00  0.4852E+16
   -1.237494    1.91397  0.1670E-11  0.9551E-12  0.1156E-15  0.1000E-09  0.0000E+00  0.4702E+16
   -1.306246    2.05934  0.1663E-11  0.2242E-11  0.2639E-15  0.1000E-09  0.0000E+00  0.4512E+16
   -1.374998    2.21038  0.1654E-11  0.5197E-11  0.5957E-15  0.1000E-09  0.0000E+00  0.4287E+16
   -1.443751    2.36729  0.1646E-11  0.1192E-10  0.1331E-14  0.1000E-09  0.0000E+00  0.4017E+16
   -1.512503    2.52999  0.1641E-11  0.2707E-10  0.2945E-14  0.1000E-09  0.0000E+00  0.3696E+16
   -1.581255    2.69822  0.1638E-11  0.6088E-10  0.6456E-14  0.1000E-09  0.0000E+00  0.3326E+16
   -1.650007    2.87161  0.1636E-11  0.1356E-09  0.1402E-13  0.1000E-09  0.0000E+00  0.2909E+16
   -1.718759    3.04972  0.1635E-11  0.2991E-09  0.3016E-13  0.1000E-09  0.0000E+00  0.2449E+16
   -1.787510    3.23214  0.1634E-11  0.6695E-09  0.6583E-13  0.1698E-09  0.0000E+00  0.1974E+16
   -1.856262    3.42116  0.1633E-11  0.1511E-08  0.1450E-12  0.5116E-09  0.0000E+00  0.1442E+16
   -1.925013    3.61664  0.1631E-11  0.3403E-08  0.3187E-12  0.1907E-08  0.0000E+00  0.8509E+15
   -1.993764    3.81748  0.1628E-11  0.7583E-08  0.6942E-12  0.1602E-07  0.0000E+00  0.2206E+15
   -2.062515    4.00619  0.1627E-11  0.8563E-08  0.7884E-12  0.3751E-04  0.0000E+00 -0.2497E+12
   -2.131265    4.00697  0.1627E-11  0.8974E-08  0.8386E-12  0.3817E-04  0.0000E+00 -0.2556E+12
   -2.200015    4.00775  0.1627E-11  0.9302E-08  0.8925E-12  0.3792E-04  0.0000E+00 -0.2677E+12
   -2.268764    4.00853  0.1627E-11  0.9551E-08  0.9537E-12  0.3671E-04  0.0000E+00 -0.2875E+12
   -2.337514    4.00934  0.1627E-11  0.9727E-08  0.1030E-11  0.3438E-04  0.0000E+00 -0.3197E+12
   -2.406262    4.01021  0.1627E-11  0.9822E-08  0.1133E-11  0.3077E-04  0.0000E+00 -0.3731E+12
   -2.475010    4.01119  0.1627E-11  0.9809E-08  0.1288E-11  0.2563E-04  0.0000E+00 -0.4709E+12
   -2.543758    4.01237  0.1627E-11  0.9628E-08  0.1562E-11  0.1874E-04  0.0000E+00 -0.6859E+12
   -2.612505    4.01400  0.1627E-11  0.9083E-08  0.2224E-11  0.1008E-04  0.0000E+00 -0.1409E+13
   -2.681251    4.01708  0.1627E-11  0.6697E-08  0.6221E-11  0.1414E-05  0.0000E+00 -0.1421E+14
   -2.749997    4.03886  0.1627E-11  0.0000E+00  0.0000E+00  0.0000E+00  0.0000E+00  0.0000E+00
