 1 - depth, m
 2 - temperature, C
 3 - salinity, kg/kg
 4 - turbulent kinetic energy, m**2/s**2
 5 - dissipation rate, m**2/s**3
 6 - kinematic heat conductance, m**2/s
 7 - modulus of horizontal velocity, m/s
 8 - Richardson number, n/d
   -0.000000   -0.00000  0.2180E-16  0.1218E-13  0.7602E-17  0.1000E-09  0.0000E+00  0.6369E+16
   -0.068749    0.09723  0.9297E-19  0.1218E-13  0.7602E-17  0.1000E-09  0.0000E+00  0.4283E+16
   -0.137499    0.16395  0.7880E-15  0.1218E-13  0.7602E-17  0.1000E-09  0.0000E+00  0.3865E+16
   -0.206250    0.22503  0.2544E-14  0.1218E-13  0.7602E-17  0.1000E-09  0.0000E+00  0.3923E+16
   -0.275001    0.28809  0.6759E-13  0.1218E-13  0.7602E-17  0.1000E-09  0.0000E+00  0.4099E+16
   -0.343753    0.35523  0.2550E-12  0.1218E-13  0.7602E-17  0.1000E-09  0.0000E+00  0.4288E+16
   -0.412506    0.42695  0.4972E-12  0.1218E-13  0.7602E-17  0.1000E-09  0.0000E+00  0.4461E+16
   -0.481258    0.50324  0.7143E-12  0.1218E-13  0.7602E-17  0.1000E-09  0.0000E+00  0.4606E+16
   -0.550012    0.58395  0.8578E-12  0.1218E-13  0.7602E-17  0.1000E-09  0.0000E+00  0.4723E+16
   -0.618765    0.66888  0.9210E-12  0.1218E-13  0.7602E-17  0.1000E-09  0.0000E+00  0.4812E+16
   -0.687519    0.75786  0.9243E-12  0.1218E-13  0.7602E-17  0.1000E-09  0.0000E+00  0.4860E+16
   -0.756274    0.85042  0.8954E-12  0.1218E-13  0.7602E-17  0.1000E-09  0.0000E+00  0.4872E+16
   -0.825029    0.94621  0.8568E-12  0.1218E-13  0.7602E-17  0.1000E-09  0.0000E+00  0.4860E+16
   -0.893784    1.04503  0.8216E-12  0.1218E-13  0.7602E-17  0.1000E-09  0.0000E+00  0.4824E+16
   -0.962539    1.14670  0.7951E-12  0.1218E-13  0.7602E-17  0.1000E-09  0.0000E+00  0.4766E+16
   -1.031294    1.25103  0.7774E-12  0.1218E-13  0.7602E-17  0.1000E-09  0.0000E+00  0.4687E+16
   -1.100050    1.35788  0.7667E-12  0.1218E-13  0.7602E-17  0.1000E-09  0.0000E+00  0.4591E+16
   -1.168806    1.46712  0.7606E-12  0.1218E-13  0.7602E-17  0.1000E-09  0.0000E+00  0.4477E+16
   -1.237561    1.57864  0.7572E-12  0.1218E-13  0.7602E-17  0.1000E-09  0.0000E+00  0.4349E+16
   -1.306317    1.69236  0.7553E-12  0.1218E-13  0.7602E-17  0.1000E-09  0.0000E+00  0.4205E+16
   -1.375073    1.80818  0.7540E-12  0.1218E-13  0.7602E-17  0.1000E-09  0.0000E+00  0.4061E+16
   -1.443829    1.92643  0.7528E-12  0.1218E-13  0.7602E-17  0.1000E-09  0.0000E+00  0.3913E+16
   -1.512585    2.04744  0.7515E-12  0.1263E-13  0.7962E-17  0.1000E-09  0.0000E+00  0.3773E+16
   -1.581341    2.17199  0.7499E-12  0.2044E-13  0.1313E-16  0.1000E-09  0.0000E+00  0.3680E+16
   -1.650097    2.30259  0.7481E-12  0.8265E-13  0.5232E-16  0.1000E-09  0.0000E+00  0.3760E+16
   -1.718852    2.44772  0.7461E-12  0.5474E-12  0.3311E-15  0.1000E-09  0.0000E+00  0.4236E+16
   -1.787608    2.63103  0.7440E-12  0.4175E-11  0.2411E-14  0.1001E-09  0.0000E+00  0.3194E+16
   -1.856363    2.78854  0.7420E-12  0.3247E-10  0.1802E-13  0.1236E-09  0.0000E+00  0.2550E+16
   -1.925118    2.93122  0.7402E-12  0.2458E-09  0.1316E-12  0.5290E-09  0.0000E+00  0.1914E+16
   -1.993873    3.05186  0.7385E-12  0.1659E-08  0.8614E-12  0.3655E-08  0.0000E+00  0.1447E+16
   -2.062627    3.15444  0.7370E-12  0.8571E-08  0.4346E-11  0.9509E-08  0.0000E+00  0.1560E+16
   -2.131381    3.29828  0.7358E-12  0.2092E-07  0.1053E-10  0.3192E-05  0.0000E+00  0.1374E+16
   -2.200135    3.47277  0.7347E-12  0.3089E-07  0.1582E-10  0.1454E-04  0.0000E+00  0.1093E+16
   -2.268888    3.63601  0.7339E-12  0.3802E-07  0.1994E-10  0.2270E-04  0.0000E+00  0.7759E+15
   -2.337641    3.77917  0.7334E-12  0.4368E-07  0.2346E-10  0.2737E-04  0.0000E+00  0.4983E+15
   -2.406393    3.92947  0.7330E-12  0.4901E-07  0.2726E-10  0.3115E-04  0.0000E+00  0.1484E+15
   -2.475145    4.05702  0.7328E-12  0.5331E-07  0.3172E-10  0.3577E-04  0.0000E+00 -0.5688E+13
   -2.543896    4.06380  0.7328E-12  0.5501E-07  0.3779E-10  0.3175E-04  0.0000E+00 -0.7371E+13
   -2.612647    4.06976  0.7328E-12  0.5424E-07  0.5072E-10  0.2056E-04  0.0000E+00 -0.1284E+14
   -2.681397    4.07875  0.7328E-12  0.4052E-07  0.1412E-09  0.3137E-05  0.0000E+00 -0.1135E+15
   -2.750147    4.12878  0.7328E-12  0.0000E+00  0.0000E+00  0.0000E+00  0.0000E+00  0.0000E+00
