 1 - depth, m
 2 - temperature, C
 3 - salinity, kg/kg
 4 - turbulent kinetic energy, m**2/s**2
 5 - dissipation rate, m**2/s**3
 6 - kinematic heat conductance, m**2/s
 7 - modulus of horizontal velocity, m/s
 8 - Richardson number, n/d
   -0.000000   -0.00000  0.1193E-10  0.1219E-13  0.7603E-17  0.1000E-09  0.1801-163  0.3887E+16
   -0.068746    0.05877  0.6498E-11  0.1219E-13  0.7603E-17  0.1000E-09  0.0000E+00  0.3684E+16
   -0.137492    0.11535  0.5330E-11  0.1219E-13  0.7603E-17  0.1000E-09  0.0000E+00  0.3515E+16
   -0.206239    0.17018  0.5088E-11  0.1219E-13  0.7603E-17  0.1000E-09  0.0000E+00  0.3384E+16
   -0.274986    0.22376  0.5045E-11  0.1219E-13  0.7603E-17  0.1000E-09  0.0000E+00  0.3290E+16
   -0.343735    0.27665  0.5039E-11  0.1219E-13  0.7603E-17  0.1000E-09  0.0000E+00  0.3235E+16
   -0.412483    0.32945  0.5038E-11  0.1219E-13  0.7603E-17  0.1000E-09  0.0000E+00  0.3221E+16
   -0.481232    0.38282  0.5038E-11  0.1219E-13  0.7603E-17  0.1000E-09  0.0000E+00  0.3247E+16
   -0.549982    0.43750  0.5038E-11  0.1219E-13  0.7603E-17  0.1000E-09  0.0000E+00  0.3314E+16
   -0.618732    0.49424  0.5038E-11  0.1219E-13  0.7603E-17  0.1000E-09  0.0000E+00  0.3423E+16
   -0.687482    0.55389  0.5038E-11  0.1219E-13  0.7603E-17  0.1000E-09  0.0000E+00  0.3587E+16
   -0.756233    0.61761  0.5038E-11  0.1219E-13  0.7603E-17  0.1000E-09  0.0000E+00  0.3798E+16
   -0.824984    0.68648  0.5038E-11  0.1219E-13  0.7603E-17  0.1000E-09  0.0000E+00  0.4039E+16
   -0.893735    0.76143  0.5038E-11  0.1219E-13  0.7603E-17  0.1000E-09  0.0000E+00  0.4305E+16
   -0.962486    0.84339  0.5038E-11  0.1219E-13  0.7603E-17  0.1000E-09  0.0000E+00  0.4587E+16
   -1.031238    0.93328  0.5037E-11  0.1219E-13  0.7603E-17  0.1000E-09  0.0000E+00  0.4876E+16
   -1.099990    1.03198  0.5036E-11  0.1219E-13  0.7603E-17  0.1000E-09  0.0000E+00  0.5158E+16
   -1.168742    1.14031  0.5033E-11  0.1220E-13  0.7603E-17  0.1000E-09  0.0000E+00  0.5421E+16
   -1.237494    1.25903  0.5022E-11  0.1827E-13  0.8097E-17  0.1000E-09  0.0000E+00  0.5649E+16
   -1.306246    1.38879  0.4999E-11  0.6495E-13  0.1435E-16  0.1000E-09  0.0000E+00  0.5826E+16
   -1.374998    1.53010  0.4963E-11  0.2097E-12  0.4086E-16  0.1000E-09  0.0000E+00  0.5961E+16
   -1.443750    1.68402  0.4933E-11  0.6332E-12  0.1177E-15  0.1000E-09  0.0000E+00  0.6014E+16
   -1.512503    1.85098  0.4917E-11  0.1855E-11  0.3323E-15  0.1000E-09  0.0000E+00  0.5960E+16
   -1.581255    2.03098  0.4909E-11  0.5317E-11  0.9190E-15  0.1000E-09  0.0000E+00  0.5786E+16
   -1.650007    2.22382  0.4903E-11  0.1493E-10  0.2493E-14  0.1000E-09  0.0000E+00  0.5482E+16
   -1.718758    2.42911  0.4899E-11  0.4111E-10  0.6635E-14  0.1000E-09  0.0000E+00  0.5042E+16
   -1.787510    2.64622  0.4897E-11  0.1141E-09  0.1781E-13  0.1000E-09  0.0000E+00  0.4466E+16
   -1.856262    2.87422  0.4896E-11  0.3159E-09  0.4774E-13  0.1003E-09  0.0000E+00  0.3784E+16
   -1.925013    3.11385  0.4895E-11  0.8644E-09  0.1266E-12  0.2152E-09  0.0000E+00  0.2996E+16
   -1.993764    3.36738  0.4893E-11  0.2339E-08  0.3325E-12  0.8161E-09  0.0000E+00  0.2072E+16
   -2.062514    3.63960  0.4887E-11  0.6094E-08  0.8420E-12  0.4768E-08  0.0000E+00  0.9077E+15
   -2.131265    3.93156  0.4877E-11  0.1144E-07  0.1612E-11  0.8479E-05  0.0000E+00  0.3281E+14
   -2.200015    4.01783  0.4876E-11  0.1305E-07  0.1864E-11  0.3741E-04  0.0000E+00 -0.5832E+12
   -2.268764    4.01915  0.4876E-11  0.1376E-07  0.2012E-11  0.3745E-04  0.0000E+00 -0.6042E+12
   -2.337513    4.02043  0.4876E-11  0.1428E-07  0.2179E-11  0.3608E-04  0.0000E+00 -0.6492E+12
   -2.406262    4.02174  0.4876E-11  0.1462E-07  0.2390E-11  0.3314E-04  0.0000E+00 -0.7325E+12
   -2.475010    4.02315  0.4876E-11  0.1475E-07  0.2693E-11  0.2837E-04  0.0000E+00 -0.8919E+12
   -2.543757    4.02478  0.4876E-11  0.1460E-07  0.3213E-11  0.2143E-04  0.0000E+00 -0.1247E+13
   -2.612504    4.02694  0.4876E-11  0.1387E-07  0.4447E-11  0.1212E-04  0.0000E+00 -0.2430E+13
   -2.681251    4.03080  0.4876E-11  0.1034E-07  0.1201E-10  0.1826E-05  0.0000E+00 -0.2306E+14
   -2.749996    4.05686  0.4876E-11  0.0000E+00  0.0000E+00  0.0000E+00  0.0000E+00  0.0000E+00
