 1 - depth, m
 2 - temperature, C
 3 - salinity, kg/kg
 4 - turbulent kinetic energy, m**2/s**2
 5 - dissipation rate, m**2/s**3
 6 - kinematic heat conductance, m**2/s
 7 - modulus of horizontal velocity, m/s
 8 - Richardson number, n/d
   -0.000000    2.20631  0.9557E-12  0.4459E-04  0.8036E-05  0.5323E-04  0.6875E-01  0.8751E-02
   -0.068746    2.26258  0.9557E-12  0.3024E-04  0.2077E-05  0.8444E-04  0.4257E-01  0.2575E-01
   -0.137492    2.28006  0.9557E-12  0.2579E-04  0.8808E-06  0.1193E-03  0.3628E-01  0.1408E-01
   -0.206239    2.29199  0.9557E-12  0.2310E-04  0.4328E-06  0.1524E-03  0.3232E-01  0.1968E-01
   -0.274987    2.30117  0.9557E-12  0.2125E-04  0.2632E-06  0.1819E-03  0.2943E-01  0.2590E-01
   -0.343735    2.30865  0.9557E-12  0.1979E-04  0.1848E-06  0.2070E-03  0.2718E-01  0.3267E-01
   -0.412484    2.31501  0.9557E-12  0.1852E-04  0.1405E-06  0.2276E-03  0.2534E-01  0.3997E-01
   -0.481233    2.32062  0.9557E-12  0.1738E-04  0.1117E-06  0.2438E-03  0.2379E-01  0.4777E-01
   -0.549983    2.32572  0.9557E-12  0.1632E-04  0.9151E-07  0.2558E-03  0.2244E-01  0.5615E-01
   -0.618733    2.33044  0.9558E-12  0.1533E-04  0.7645E-07  0.2641E-03  0.2125E-01  0.6520E-01
   -0.687483    2.33488  0.9558E-12  0.1439E-04  0.6478E-07  0.2689E-03  0.2019E-01  0.7507E-01
   -0.756234    2.33913  0.9558E-12  0.1349E-04  0.5546E-07  0.2708E-03  0.1922E-01  0.8593E-01
   -0.824985    2.34323  0.9558E-12  0.1265E-04  0.4787E-07  0.2701E-03  0.1833E-01  0.9809E-01
   -0.893737    2.34723  0.9558E-12  0.1184E-04  0.4159E-07  0.2673E-03  0.1751E-01  0.1119E+00
   -0.962488    2.35116  0.9558E-12  0.1109E-04  0.3633E-07  0.2630E-03  0.1674E-01  0.1281E+00
   -1.031240    2.35504  0.9558E-12  0.1038E-04  0.3192E-07  0.2579E-03  0.1603E-01  0.1477E+00
   -1.099992    2.35889  0.9558E-12  0.9738E-05  0.2824E-07  0.2529E-03  0.1537E-01  0.1727E+00
   -1.168744    2.36272  0.9558E-12  0.9166E-05  0.2524E-07  0.2489E-03  0.1476E-01  0.2039E+00
   -1.237496    2.36650  0.9558E-12  0.8685E-05  0.2288E-07  0.2469E-03  0.1420E-01  0.2479E+00
   -1.306249    2.37022  0.9558E-12  0.8312E-05  0.2118E-07  0.2480E-03  0.1368E-01  0.3122E+00
   -1.375001    2.37385  0.9558E-12  0.8078E-05  0.2020E-07  0.2542E-03  0.1322E-01  0.4712E+00
   -1.443753    2.37738  0.9558E-12  0.8062E-05  0.2029E-07  0.2215E-03  0.1280E-01  0.4018E+00
   -1.512506    2.38515  0.9558E-12  0.7748E-05  0.1919E-07  0.2549E-03  0.1083E-01  0.7019E+00
   -1.581258    2.38976  0.9558E-12  0.7621E-05  0.1896E-07  0.2606E-03  0.9999E-02  0.1031E+01
   -1.650010    2.39393  0.9558E-12  0.7767E-05  0.2006E-07  0.1845E-03  0.9386E-02  0.6957E+00
   -1.718762    2.40756  0.9558E-12  0.7114E-05  0.1824E-07  0.1686E-03  0.5111E-02  0.9751E+00
   -1.787514    2.42421  0.9558E-12  0.5980E-05  0.1432E-07  0.2162E-03  0.1169E-02  0.4539E+02
   -1.856265    2.42805  0.9558E-12  0.5198E-05  0.1187E-07  0.1862E-03  0.9353E-03  0.2836E+01
   -1.925017    2.43207  0.9558E-12  0.4477E-05  0.9778E-08  0.1572E-03  0.7483E-03  0.4611E+01
   -1.993768    2.43646  0.9558E-12  0.3805E-05  0.7975E-08  0.1273E-03  0.6007E-03  0.8319E+01
   -2.062519    2.44151  0.9558E-12  0.3195E-05  0.6462E-08  0.9631E-04  0.4827E-03  0.1314E+02
   -2.131269    2.44794  0.9558E-12  0.2640E-05  0.5190E-08  0.6684E-04  0.3771E-03  0.2347E+02
   -2.200019    2.45699  0.9558E-12  0.2128E-05  0.4106E-08  0.3955E-04  0.2823E-03  0.4896E+02
   -2.268769    2.47314  0.9558E-12  0.1604E-05  0.3075E-08  0.1535E-04  0.1927E-03  0.5459E+03
   -2.337518    2.53814  0.9558E-12  0.9192E-06  0.1760E-08  0.2176E-05  0.1042E-03  0.3191E+06
   -2.406267    2.97764  0.9559E-12  0.3671E-06  0.6924E-09  0.3906E-05  0.1979E-04  0.2463E+08
   -2.475015    3.65191  0.9559E-12  0.2047E-06  0.3652E-09  0.1784E-04  0.2688E-05 -0.3718E+10
   -2.543762    3.98423  0.9560E-12  0.1827E-06  0.3175E-09  0.2684E-04  0.1162E-05  0.5352E+12
   -2.612510    4.07674  0.9560E-12  0.1692E-06  0.3447E-09  0.2309E-04  0.6380E-06  0.7487E+12
   -2.681256    4.13027  0.9560E-12  0.1138E-06  0.7406E-09  0.4924E-05  0.3026E-06 -0.2635E+15
   -2.750002    4.24280  0.9560E-12  0.0000E+00  0.0000E+00  0.0000E+00  0.3088E-06  0.0000E+00
