 1 - depth, m
 2 - temperature, C
 3 - salinity, kg/kg
 4 - turbulent kinetic energy, m**2/s**2
 5 - dissipation rate, m**2/s**3
 6 - kinematic heat conductance, m**2/s
 7 - modulus of horizontal velocity, m/s
 8 - Richardson number, n/d
   -0.000000   -0.00000  0.2005E-09  0.1219E-13  0.7603E-17  0.1000E-09  0.0000E+00  0.4998E+16
   -0.068746    0.07575  0.1102E-09  0.1219E-13  0.7603E-17  0.1000E-09  0.0000E+00  0.4830E+16
   -0.137492    0.15046  0.8260E-10  0.1219E-13  0.7603E-17  0.1000E-09  0.0000E+00  0.4684E+16
   -0.206239    0.22443  0.7542E-10  0.1219E-13  0.7603E-17  0.1000E-09  0.0000E+00  0.4561E+16
   -0.274987    0.29797  0.7379E-10  0.1219E-13  0.7603E-17  0.1000E-09  0.0000E+00  0.4459E+16
   -0.343735    0.37141  0.7346E-10  0.1219E-13  0.7603E-17  0.1000E-09  0.0000E+00  0.4375E+16
   -0.412483    0.44504  0.7340E-10  0.1219E-13  0.7603E-17  0.1000E-09  0.0000E+00  0.4309E+16
   -0.481232    0.51918  0.7339E-10  0.1219E-13  0.7603E-17  0.1000E-09  0.0000E+00  0.4257E+16
   -0.549982    0.59412  0.7339E-10  0.1219E-13  0.7603E-17  0.1000E-09  0.0000E+00  0.4218E+16
   -0.618732    0.67013  0.7339E-10  0.1219E-13  0.7603E-17  0.1000E-09  0.0000E+00  0.4189E+16
   -0.687482    0.74748  0.7339E-10  0.1219E-13  0.7603E-17  0.1000E-09  0.0000E+00  0.4179E+16
   -0.756233    0.82664  0.7339E-10  0.1219E-13  0.7603E-17  0.1000E-09  0.0000E+00  0.4180E+16
   -0.824984    0.90797  0.7339E-10  0.1219E-13  0.7603E-17  0.1000E-09  0.0000E+00  0.4182E+16
   -0.893735    0.99166  0.7339E-10  0.1219E-13  0.7603E-17  0.1000E-09  0.0000E+00  0.4180E+16
   -0.962487    1.07785  0.7339E-10  0.1219E-13  0.7603E-17  0.1000E-09  0.0000E+00  0.4174E+16
   -1.031238    1.16667  0.7338E-10  0.1219E-13  0.7603E-17  0.1000E-09  0.0000E+00  0.4160E+16
   -1.099990    1.25820  0.7337E-10  0.1219E-13  0.7603E-17  0.1000E-09  0.0000E+00  0.4135E+16
   -1.168742    1.35248  0.7333E-10  0.1219E-13  0.7603E-17  0.1000E-09  0.0000E+00  0.4097E+16
   -1.237494    1.44952  0.7325E-10  0.1219E-13  0.7603E-17  0.1000E-09  0.0000E+00  0.4045E+16
   -1.306247    1.54928  0.7308E-10  0.1219E-13  0.7603E-17  0.1000E-09  0.0000E+00  0.3977E+16
   -1.374999    1.65167  0.7281E-10  0.1219E-13  0.7603E-17  0.1000E-09  0.0000E+00  0.3899E+16
   -1.443751    1.75681  0.7249E-10  0.1219E-13  0.7603E-17  0.1000E-09  0.0000E+00  0.3804E+16
   -1.512503    1.86459  0.7220E-10  0.1219E-13  0.7603E-17  0.1000E-09  0.0000E+00  0.3688E+16
   -1.581255    1.97480  0.7200E-10  0.1219E-13  0.7603E-17  0.1000E-09  0.0000E+00  0.3552E+16
   -1.650007    2.08717  0.7189E-10  0.1219E-13  0.7603E-17  0.1000E-09  0.0000E+00  0.3395E+16
   -1.718759    2.20139  0.7184E-10  0.1219E-13  0.7603E-17  0.1000E-09  0.0000E+00  0.3219E+16
   -1.787511    2.31714  0.7181E-10  0.1219E-13  0.7603E-17  0.1000E-09  0.0000E+00  0.3041E+16
   -1.856262    2.43462  0.7179E-10  0.1219E-13  0.7603E-17  0.1000E-09  0.0000E+00  0.2849E+16
   -1.925014    2.55365  0.7177E-10  0.1219E-13  0.7603E-17  0.1000E-09  0.0000E+00  0.2647E+16
   -1.993765    2.67409  0.7175E-10  0.1219E-13  0.7603E-17  0.1000E-09  0.0000E+00  0.2429E+16
   -2.062515    2.79556  0.7170E-10  0.1219E-13  0.7603E-17  0.1000E-09  0.0000E+00  0.2205E+16
   -2.131266    2.91796  0.7162E-10  0.1219E-13  0.7603E-17  0.1000E-09  0.0000E+00  0.1974E+16
   -2.200016    3.04114  0.7149E-10  0.1219E-13  0.7603E-17  0.1000E-09  0.0000E+00  0.1737E+16
   -2.268765    3.16489  0.7133E-10  0.1219E-13  0.7603E-17  0.1000E-09  0.0000E+00  0.1505E+16
   -2.337514    3.28993  0.7115E-10  0.1319E-13  0.1372E-16  0.1000E-09  0.0000E+00  0.1271E+16
   -2.406263    3.41686  0.7101E-10  0.1080E-12  0.1139E-15  0.1000E-09  0.0000E+00  0.1033E+16
   -2.475011    3.54649  0.7093E-10  0.1016E-11  0.1039E-14  0.1000E-09  0.0000E+00  0.7872E+15
   -2.543759    3.68048  0.7091E-10  0.9551E-11  0.9508E-14  0.1000E-09  0.0000E+00  0.5229E+15
   -2.612505    3.82190  0.7090E-10  0.9221E-10  0.9035E-13  0.1811E-08  0.0000E+00  0.2116E+15
   -2.681252    3.97860  0.7090E-10  0.9312E-09  0.9413E-12  0.3260E-06  0.0000E+00 -0.2829E+14
   -2.749998    4.04696  0.7090E-10  0.0000E+00  0.0000E+00  0.0000E+00  0.0000E+00  0.0000E+00
