 1 - depth, m
 2 - temperature, C
 3 - salinity, kg/kg
 4 - turbulent kinetic energy, m**2/s**2
 5 - dissipation rate, m**2/s**3
 6 - kinematic heat conductance, m**2/s
 7 - modulus of horizontal velocity, m/s
 8 - Richardson number, n/d
   -0.000000   -0.00000  0.2460E-10  0.1219E-13  0.7603E-17  0.1000E-09  0.0000E+00  0.7419E+16
   -0.068746    0.11300  0.1431E-10  0.1219E-13  0.7603E-17  0.1000E-09  0.0000E+00  0.7125E+16
   -0.137492    0.22494  0.1040E-10  0.1219E-13  0.7603E-17  0.1000E-09  0.0000E+00  0.6860E+16
   -0.206239    0.33617  0.9133E-11  0.1219E-13  0.7603E-17  0.1000E-09  0.0000E+00  0.6620E+16
   -0.274987    0.44704  0.8785E-11  0.1219E-13  0.7603E-17  0.1000E-09  0.0000E+00  0.6404E+16
   -0.343735    0.55791  0.8701E-11  0.1219E-13  0.7603E-17  0.1000E-09  0.0000E+00  0.6208E+16
   -0.412483    0.66914  0.8683E-11  0.1219E-13  0.7603E-17  0.1000E-09  0.0000E+00  0.6029E+16
   -0.481232    0.78106  0.8680E-11  0.1219E-13  0.7603E-17  0.1000E-09  0.0000E+00  0.5863E+16
   -0.549982    0.89401  0.8679E-11  0.1219E-13  0.7603E-17  0.1000E-09  0.0000E+00  0.5707E+16
   -0.618732    1.00827  0.8679E-11  0.1219E-13  0.7603E-17  0.1000E-09  0.0000E+00  0.5557E+16
   -0.687482    1.12414  0.8679E-11  0.1219E-13  0.7603E-17  0.1000E-09  0.0000E+00  0.5421E+16
   -0.756233    1.24211  0.8679E-11  0.1219E-13  0.7603E-17  0.1000E-09  0.0000E+00  0.5289E+16
   -0.824984    1.36257  0.8679E-11  0.1219E-13  0.7603E-17  0.1000E-09  0.0000E+00  0.5151E+16
   -0.893735    1.48571  0.8678E-11  0.1219E-13  0.7603E-17  0.1000E-09  0.0000E+00  0.5003E+16
   -0.962487    1.61167  0.8677E-11  0.1756E-13  0.7603E-17  0.1000E-09  0.0000E+00  0.4842E+16
   -1.031238    1.74058  0.8673E-11  0.7106E-13  0.1083E-16  0.1000E-09  0.0000E+00  0.4666E+16
   -1.099990    1.87252  0.8663E-11  0.1931E-12  0.2384E-16  0.1000E-09  0.0000E+00  0.4472E+16
   -1.168742    2.00753  0.8646E-11  0.4661E-12  0.5422E-16  0.1000E-09  0.0000E+00  0.4259E+16
   -1.237494    2.14560  0.8617E-11  0.1082E-11  0.1218E-15  0.1000E-09  0.0000E+00  0.4025E+16
   -1.306247    2.28668  0.8579E-11  0.2469E-11  0.2705E-15  0.1000E-09  0.0000E+00  0.3769E+16
   -1.374999    2.43070  0.8538E-11  0.5568E-11  0.5941E-15  0.1000E-09  0.0000E+00  0.3494E+16
   -1.443751    2.57768  0.8503E-11  0.1243E-10  0.1292E-14  0.1000E-09  0.0000E+00  0.3198E+16
   -1.512503    2.72752  0.8478E-11  0.2746E-10  0.2784E-14  0.1000E-09  0.0000E+00  0.2878E+16
   -1.581255    2.87998  0.8464E-11  0.6012E-10  0.5943E-14  0.1000E-09  0.0000E+00  0.2536E+16
   -1.650007    3.03479  0.8455E-11  0.1304E-09  0.1257E-13  0.1000E-09  0.0000E+00  0.2175E+16
   -1.718759    3.19163  0.8449E-11  0.2802E-09  0.2636E-13  0.1000E-09  0.0000E+00  0.1798E+16
   -1.787511    3.35028  0.8444E-11  0.6108E-09  0.5605E-13  0.1999E-09  0.0000E+00  0.1427E+16
   -1.856262    3.51304  0.8438E-11  0.1343E-08  0.1203E-12  0.5970E-09  0.0000E+00  0.1025E+16
   -1.925014    3.67983  0.8428E-11  0.2948E-08  0.2577E-12  0.2217E-08  0.0000E+00  0.5915E+15
   -1.993765    3.84962  0.8419E-11  0.6392E-08  0.5467E-12  0.1933E-07  0.0000E+00  0.1437E+15
   -2.062515    4.00523  0.8418E-11  0.7251E-08  0.6237E-12  0.3427E-04  0.0000E+00 -0.2187E+12
   -2.131266    4.00595  0.8418E-11  0.7611E-08  0.6646E-12  0.3482E-04  0.0000E+00 -0.2237E+12
   -2.200016    4.00667  0.8418E-11  0.7897E-08  0.7082E-12  0.3452E-04  0.0000E+00 -0.2341E+12
   -2.268765    4.00739  0.8418E-11  0.8114E-08  0.7576E-12  0.3336E-04  0.0000E+00 -0.2515E+12
   -2.337514    4.00814  0.8418E-11  0.8266E-08  0.8191E-12  0.3119E-04  0.0000E+00 -0.2798E+12
   -2.406263    4.00894  0.8418E-11  0.8346E-08  0.9021E-12  0.2784E-04  0.0000E+00 -0.3271E+12
   -2.475011    4.00984  0.8418E-11  0.8332E-08  0.1027E-11  0.2310E-04  0.0000E+00 -0.4144E+12
   -2.543759    4.01094  0.8418E-11  0.8170E-08  0.1250E-11  0.1679E-04  0.0000E+00 -0.6084E+12
   -2.612506    4.01247  0.8418E-11  0.7685E-08  0.1791E-11  0.8920E-05  0.0000E+00 -0.1273E+13
   -2.681252    4.01541  0.8418E-11  0.5607E-08  0.5035E-11  0.1231E-05  0.0000E+00 -0.1338E+14
   -2.749998    4.03686  0.8418E-11  0.0000E+00  0.0000E+00  0.0000E+00  0.0000E+00  0.0000E+00
