 1 - depth, m
 2 - temperature, C
 3 - salinity, kg/kg
 4 - turbulent kinetic energy, m**2/s**2
 5 - dissipation rate, m**2/s**3
 6 - kinematic heat conductance, m**2/s
 7 - modulus of horizontal velocity, m/s
 8 - Richardson number, n/d
   -0.000000   -0.00000  0.1382E-10  0.1219E-13  0.7603E-17  0.1000E-09  0.0000E+00  0.6041E+16
   -0.068746    0.09175  0.7585E-11  0.1219E-13  0.7603E-17  0.1000E-09  0.0000E+00  0.5808E+16
   -0.137492    0.18220  0.5665E-11  0.1219E-13  0.7603E-17  0.1000E-09  0.0000E+00  0.5618E+16
   -0.206239    0.27191  0.5173E-11  0.1219E-13  0.7603E-17  0.1000E-09  0.0000E+00  0.5464E+16
   -0.274986    0.36143  0.5064E-11  0.1219E-13  0.7603E-17  0.1000E-09  0.0000E+00  0.5344E+16
   -0.343735    0.45131  0.5042E-11  0.1219E-13  0.7603E-17  0.1000E-09  0.0000E+00  0.5252E+16
   -0.412483    0.54207  0.5038E-11  0.1219E-13  0.7603E-17  0.1000E-09  0.0000E+00  0.5185E+16
   -0.481232    0.63423  0.5038E-11  0.1219E-13  0.7603E-17  0.1000E-09  0.0000E+00  0.5138E+16
   -0.549982    0.72828  0.5038E-11  0.1219E-13  0.7603E-17  0.1000E-09  0.0000E+00  0.5108E+16
   -0.618732    0.82471  0.5038E-11  0.1219E-13  0.7603E-17  0.1000E-09  0.0000E+00  0.5089E+16
   -0.687482    0.92397  0.5038E-11  0.1219E-13  0.7603E-17  0.1000E-09  0.0000E+00  0.5092E+16
   -0.756233    1.02679  0.5038E-11  0.1219E-13  0.7603E-17  0.1000E-09  0.0000E+00  0.5104E+16
   -0.824984    1.13376  0.5038E-11  0.1219E-13  0.7603E-17  0.1000E-09  0.0000E+00  0.5111E+16
   -0.893735    1.24525  0.5038E-11  0.1219E-13  0.7603E-17  0.1000E-09  0.0000E+00  0.5107E+16
   -0.962486    1.36161  0.5037E-11  0.1219E-13  0.7603E-17  0.1000E-09  0.0000E+00  0.5087E+16
   -1.031238    1.48314  0.5036E-11  0.5744E-13  0.9363E-17  0.1000E-09  0.0000E+00  0.5047E+16
   -1.099990    1.61010  0.5032E-11  0.1620E-12  0.2020E-16  0.1000E-09  0.0000E+00  0.4979E+16
   -1.168742    1.74269  0.5023E-11  0.3945E-12  0.4592E-16  0.1000E-09  0.0000E+00  0.4881E+16
   -1.237494    1.88107  0.5006E-11  0.9179E-12  0.1033E-15  0.1000E-09  0.0000E+00  0.4747E+16
   -1.306246    2.02533  0.4981E-11  0.2096E-11  0.2294E-15  0.1000E-09  0.0000E+00  0.4573E+16
   -1.374998    2.17550  0.4953E-11  0.4728E-11  0.5043E-15  0.1000E-09  0.0000E+00  0.4363E+16
   -1.443750    2.33186  0.4930E-11  0.1056E-10  0.1098E-14  0.1000E-09  0.0000E+00  0.4108E+16
   -1.512503    2.49440  0.4916E-11  0.2335E-10  0.2368E-14  0.1000E-09  0.0000E+00  0.3800E+16
   -1.581255    2.66288  0.4907E-11  0.5118E-10  0.5063E-14  0.1000E-09  0.0000E+00  0.3439E+16
   -1.650007    2.83700  0.4902E-11  0.1112E-09  0.1073E-13  0.1000E-09  0.0000E+00  0.3027E+16
   -1.718759    3.01629  0.4899E-11  0.2393E-09  0.2255E-13  0.1000E-09  0.0000E+00  0.2567E+16
   -1.787510    3.20036  0.4897E-11  0.5227E-09  0.4806E-13  0.1169E-09  0.0000E+00  0.2094E+16
   -1.856262    3.39187  0.4894E-11  0.1152E-08  0.1034E-12  0.3387E-09  0.0000E+00  0.1555E+16
   -1.925013    3.59078  0.4890E-11  0.2537E-08  0.2224E-12  0.1195E-08  0.0000E+00  0.9478E+15
   -1.993764    3.79653  0.4883E-11  0.5553E-08  0.4760E-12  0.8612E-08  0.0000E+00  0.2815E+15
   -2.062515    3.99877  0.4880E-11  0.6422E-08  0.5541E-12  0.2854E-04  0.0000E+00 -0.2146E+12
   -2.131265    3.99983  0.4880E-11  0.6802E-08  0.5974E-12  0.2980E-04  0.0000E+00 -0.2227E+12
   -2.200015    4.00084  0.4880E-11  0.7115E-08  0.6445E-12  0.3016E-04  0.0000E+00 -0.2366E+12
   -2.268764    4.00185  0.4880E-11  0.7365E-08  0.6983E-12  0.2960E-04  0.0000E+00 -0.2584E+12
   -2.337513    4.00288  0.4880E-11  0.7559E-08  0.7653E-12  0.2800E-04  0.0000E+00 -0.2925E+12
   -2.406262    4.00397  0.4880E-11  0.7685E-08  0.8549E-12  0.2522E-04  0.0000E+00 -0.3486E+12
   -2.475010    4.00518  0.4880E-11  0.7725E-08  0.9886E-12  0.2108E-04  0.0000E+00 -0.4513E+12
   -2.543758    4.00665  0.4880E-11  0.7627E-08  0.1223E-11  0.1540E-04  0.0000E+00 -0.6802E+12
   -2.612504    4.00869  0.4880E-11  0.7228E-08  0.1787E-11  0.8234E-05  0.0000E+00 -0.1477E+13
   -2.681251    4.01256  0.4880E-11  0.5435E-08  0.5023E-11  0.1245E-05  0.0000E+00 -0.1567E+14
   -2.749996    4.03818  0.4880E-11  0.0000E+00  0.0000E+00  0.0000E+00  0.0000E+00  0.0000E+00
