 1 - depth, m
 2 - temperature, C
 3 - salinity, kg/kg
 4 - turbulent kinetic energy, m**2/s**2
 5 - dissipation rate, m**2/s**3
 6 - kinematic heat conductance, m**2/s
 7 - modulus of horizontal velocity, m/s
 8 - Richardson number, n/d
   -0.000000   -0.00000  0.7940E-13  0.1218E-13  0.7603E-17  0.1000E-09  0.0000E+00  0.6209E+16
   -0.068747    0.09433  0.1464E-11  0.1218E-13  0.7603E-17  0.1000E-09  0.0000E+00  0.6342E+16
   -0.137495    0.19328  0.3189E-11  0.1218E-13  0.7603E-17  0.1000E-09  0.0000E+00  0.6338E+16
   -0.206243    0.29498  0.4432E-11  0.1218E-13  0.7603E-17  0.1000E-09  0.0000E+00  0.6270E+16
   -0.274992    0.39860  0.4965E-11  0.1218E-13  0.7603E-17  0.1000E-09  0.0000E+00  0.6171E+16
   -0.343742    0.50380  0.4973E-11  0.1218E-13  0.7603E-17  0.1000E-09  0.0000E+00  0.6054E+16
   -0.412492    0.61037  0.4729E-11  0.1218E-13  0.7603E-17  0.1000E-09  0.0000E+00  0.5923E+16
   -0.481242    0.71820  0.4433E-11  0.1218E-13  0.7603E-17  0.1000E-09  0.0000E+00  0.5780E+16
   -0.549993    0.82717  0.4186E-11  0.1218E-13  0.7603E-17  0.1000E-09  0.0000E+00  0.5626E+16
   -0.618745    0.93718  0.4016E-11  0.1218E-13  0.7603E-17  0.1000E-09  0.0000E+00  0.5462E+16
   -0.687496    1.04813  0.3913E-11  0.1218E-13  0.7603E-17  0.1000E-09  0.0000E+00  0.5289E+16
   -0.756248    1.15992  0.3857E-11  0.1218E-13  0.7603E-17  0.1000E-09  0.0000E+00  0.5107E+16
   -0.825001    1.27246  0.3829E-11  0.1218E-13  0.7603E-17  0.1000E-09  0.0000E+00  0.4918E+16
   -0.893754    1.38565  0.3815E-11  0.1218E-13  0.7603E-17  0.1000E-09  0.0000E+00  0.4723E+16
   -0.962507    1.49941  0.3808E-11  0.1218E-13  0.7603E-17  0.1000E-09  0.0000E+00  0.4522E+16
   -1.031260    1.61367  0.3804E-11  0.1218E-13  0.7603E-17  0.1000E-09  0.0000E+00  0.4317E+16
   -1.100013    1.72833  0.3799E-11  0.1218E-13  0.7603E-17  0.1000E-09  0.0000E+00  0.4107E+16
   -1.168766    1.84334  0.3794E-11  0.1218E-13  0.7603E-17  0.1000E-09  0.0000E+00  0.3894E+16
   -1.237520    1.95863  0.3787E-11  0.1218E-13  0.7603E-17  0.1000E-09  0.0000E+00  0.3679E+16
   -1.306274    2.07415  0.3779E-11  0.1218E-13  0.7603E-17  0.1000E-09  0.0000E+00  0.3462E+16
   -1.375027    2.18985  0.3769E-11  0.1218E-13  0.7603E-17  0.1000E-09  0.0000E+00  0.3244E+16
   -1.443781    2.30571  0.3759E-11  0.1218E-13  0.7603E-17  0.1000E-09  0.0000E+00  0.3026E+16
   -1.512534    2.42171  0.3748E-11  0.1218E-13  0.7603E-17  0.1000E-09  0.0000E+00  0.2807E+16
   -1.581288    2.53784  0.3738E-11  0.1218E-13  0.7603E-17  0.1000E-09  0.0000E+00  0.2589E+16
   -1.650041    2.65410  0.3729E-11  0.1218E-13  0.7603E-17  0.1000E-09  0.0000E+00  0.2372E+16
   -1.718795    2.77058  0.3721E-11  0.1218E-13  0.7603E-17  0.1000E-09  0.0000E+00  0.2158E+16
   -1.787548    2.88746  0.3715E-11  0.1218E-13  0.7603E-17  0.1000E-09  0.0000E+00  0.1908E+16
   -1.856301    3.00248  0.3710E-11  0.1498E-13  0.7603E-17  0.1000E-09  0.0000E+00  0.1664E+16
   -1.925053    3.11535  0.3706E-11  0.6151E-13  0.1545E-16  0.1000E-09  0.0000E+00  0.1426E+16
   -1.993806    3.22547  0.3703E-11  0.2158E-12  0.4848E-16  0.1000E-09  0.0000E+00  0.1201E+16
   -2.062558    3.33269  0.3700E-11  0.6951E-12  0.1502E-15  0.1000E-09  0.0000E+00  0.1016E+16
   -2.131310    3.43980  0.3698E-11  0.2186E-11  0.4582E-15  0.1000E-09  0.0000E+00  0.8340E+15
   -2.200061    3.54696  0.3696E-11  0.6792E-11  0.1382E-14  0.1000E-09  0.0000E+00  0.6518E+15
   -2.268812    3.65418  0.3695E-11  0.2108E-10  0.4170E-14  0.1000E-09  0.0000E+00  0.4692E+15
   -2.337563    3.76120  0.3694E-11  0.6614E-10  0.1273E-13  0.2245E-09  0.0000E+00  0.2877E+15
   -2.406313    3.86776  0.3694E-11  0.2082E-09  0.3904E-13  0.1819E-08  0.0000E+00  0.1088E+15
   -2.475062    3.97258  0.3694E-11  0.6151E-09  0.1137E-12  0.4532E-06  0.0000E+00  0.2526E+12
   -2.543811    4.00011  0.3694E-11  0.1249E-08  0.2757E-12  0.2426E-05  0.0000E+00 -0.1461E+13
   -2.612559    4.00581  0.3694E-11  0.1484E-08  0.4445E-12  0.1855E-05  0.0000E+00 -0.2553E+13
   -2.681307    4.01295  0.3694E-11  0.1223E-08  0.9383E-12  0.4039E-06  0.0000E+00 -0.1308E+14
   -2.750054    4.03513  0.3694E-11  0.0000E+00  0.0000E+00  0.0000E+00  0.0000E+00  0.0000E+00
