 1 - depth, m
 2 - temperature, C
 3 - salinity, kg/kg
 4 - turbulent kinetic energy, m**2/s**2
 5 - dissipation rate, m**2/s**3
 6 - kinematic heat conductance, m**2/s
 7 - modulus of horizontal velocity, m/s
 8 - Richardson number, n/d
   -0.000000    2.46541  0.7330E-12  0.2039E-04  0.1300E-05  0.3362E-04  0.4670E-01  0.5823E-02
   -0.068746    2.50512  0.7330E-12  0.1750E-04  0.4125E-06  0.7367E-04  0.3436E-01  0.1490E-01
   -0.137492    2.52253  0.7330E-12  0.1592E-04  0.2255E-06  0.1049E-03  0.2981E-01  0.2463E-01
   -0.206239    2.53502  0.7330E-12  0.1467E-04  0.1499E-06  0.1291E-03  0.2689E-01  0.3580E-01
   -0.274987    2.54537  0.7330E-12  0.1356E-04  0.1095E-06  0.1466E-03  0.2473E-01  0.4870E-01
   -0.343735    2.55470  0.7330E-12  0.1253E-04  0.8446E-07  0.1579E-03  0.2300E-01  0.6369E-01
   -0.412484    2.56362  0.7330E-12  0.1157E-04  0.6749E-07  0.1638E-03  0.2153E-01  0.8126E-01
   -0.481233    2.57251  0.7330E-12  0.1066E-04  0.5525E-07  0.1648E-03  0.2025E-01  0.1020E+00
   -0.549983    2.58174  0.7330E-12  0.9795E-05  0.4604E-07  0.1618E-03  0.1910E-01  0.1268E+00
   -0.618733    2.59170  0.7330E-12  0.8973E-05  0.3890E-07  0.1552E-03  0.1804E-01  0.1566E+00
   -0.687483    2.60293  0.7330E-12  0.8187E-05  0.3324E-07  0.1460E-03  0.1703E-01  0.1924E+00
   -0.756234    2.61627  0.7330E-12  0.7432E-05  0.2868E-07  0.1348E-03  0.1606E-01  0.2347E+00
   -0.824985    2.63335  0.7330E-12  0.6704E-05  0.2497E-07  0.1227E-03  0.1509E-01  0.2819E+00
   -0.893737    2.65779  0.7330E-12  0.5996E-05  0.2194E-07  0.1109E-03  0.1408E-01  0.3256E+00
   -0.962488    2.69946  0.7331E-12  0.5301E-05  0.1938E-07  0.1002E-03  0.1293E-01  0.3509E+00
   -1.031240    2.79239  0.7331E-12  0.4655E-05  0.1675E-07  0.9119E-04  0.1148E-01  0.3710E+00
   -1.099992    3.05392  0.7332E-12  0.4176E-05  0.1432E-07  0.8385E-04  0.9615E-02  0.3284E+00
   -1.168744    3.24760  0.7333E-12  0.3758E-05  0.1231E-07  0.8567E-04  0.8156E-02  0.8857E-01
   -1.237497    3.34284  0.7333E-12  0.3397E-05  0.1069E-07  0.8800E-04  0.7098E-02  0.2825E+02
   -1.306249    3.41560  0.7334E-12  0.3090E-05  0.9370E-08  0.9270E-04  0.6217E-02  0.1368E+02
   -1.375001    3.47547  0.7334E-12  0.2836E-05  0.8315E-08  0.9983E-04  0.5455E-02  0.4759E+01
   -1.443754    3.52699  0.7334E-12  0.2638E-05  0.7499E-08  0.1116E-03  0.4784E-02  0.2256E+03
   -1.512506    3.57222  0.7334E-12  0.2497E-05  0.6920E-08  0.1234E-03  0.4188E-02  0.1595E+04
   -1.581258    3.61149  0.7335E-12  0.2418E-05  0.6596E-08  0.1366E-03  0.3664E-02  0.2291E+04
   -1.650010    3.64402  0.7335E-12  0.2430E-05  0.6699E-08  0.1193E-03  0.3206E-02  0.1181E+04
   -1.718762    3.67489  0.7335E-12  0.2203E-05  0.6095E-08  0.1481E-03  0.1584E-02  0.9060E+03
   -1.787514    3.69858  0.7335E-12  0.1754E-05  0.4353E-08  0.1505E-03  0.6428E-03  0.4271E+05
   -1.856266    3.72315  0.7335E-12  0.1435E-05  0.3241E-08  0.1473E-03  0.4188E-03  0.1754E+05
   -1.925017    3.75873  0.7335E-12  0.1172E-05  0.2415E-08  0.1440E-03  0.2781E-03  0.2419E+05
   -1.993768    3.79060  0.7335E-12  0.9462E-06  0.1779E-08  0.1414E-03  0.1916E-03  0.6284E+05
   -2.062519    3.81770  0.7335E-12  0.7502E-06  0.1282E-08  0.1392E-03  0.1344E-03  0.6113E+05
   -2.131269    3.84860  0.7335E-12  0.5761E-06  0.8798E-09  0.1378E-03  0.8821E-04  0.9161E+05
   -2.200019    3.89302  0.7336E-12  0.4250E-06  0.5546E-09  0.1377E-03  0.5091E-04  0.1803E+06
   -2.268769    3.94186  0.7336E-12  0.3135E-06  0.3329E-09  0.1376E-03  0.2179E-04  0.4436E+06
   -2.337518    3.97724  0.7336E-12  0.2283E-06  0.1812E-09  0.1353E-03  0.7356E-05  0.4643E+06
   -2.406267    4.02288  0.7336E-12  0.1912E-06  0.1178E-09  0.1302E-03  0.2282E-05 -0.4323E+06
   -2.475015    4.05923  0.7336E-12  0.1806E-06  0.1032E-09  0.1217E-03  0.1024E-05 -0.1009E+08
   -2.543763    4.07227  0.7336E-12  0.1744E-06  0.1080E-09  0.9245E-04  0.5452E-06 -0.7240E+09
   -2.612510    4.08120  0.7336E-12  0.1645E-06  0.1378E-09  0.4969E-04  0.2454E-06 -0.6400E+11
   -2.681257    4.09313  0.7336E-12  0.1117E-06  0.4146E-09  0.5483E-05  0.7338E-07 -0.1777E+14
   -2.750002    4.17380  0.7336E-12  0.0000E+00  0.0000E+00  0.0000E+00  0.7374E-07  0.0000E+00
