 1 - depth, m
 2 - temperature, C
 3 - salinity, kg/kg
 4 - turbulent kinetic energy, m**2/s**2
 5 - dissipation rate, m**2/s**3
 6 - kinematic heat conductance, m**2/s
 7 - modulus of horizontal velocity, m/s
 8 - Richardson number, n/d
   -0.000000   -0.00000  0.7497E-10  0.1219E-13  0.7603E-17  0.1000E-09  0.0000E+00  0.7101E+16
   -0.068746    0.10809  0.4406E-10  0.1219E-13  0.7603E-17  0.1000E-09  0.0000E+00  0.6830E+16
   -0.137492    0.21518  0.3180E-10  0.1219E-13  0.7603E-17  0.1000E-09  0.0000E+00  0.6582E+16
   -0.206239    0.32153  0.2766E-10  0.1219E-13  0.7603E-17  0.1000E-09  0.0000E+00  0.6354E+16
   -0.274987    0.42741  0.2646E-10  0.1219E-13  0.7603E-17  0.1000E-09  0.0000E+00  0.6144E+16
   -0.343735    0.53305  0.2616E-10  0.1219E-13  0.7603E-17  0.1000E-09  0.0000E+00  0.5949E+16
   -0.412483    0.63872  0.2609E-10  0.1219E-13  0.7603E-17  0.1000E-09  0.0000E+00  0.5767E+16
   -0.481232    0.74462  0.2608E-10  0.1219E-13  0.7603E-17  0.1000E-09  0.0000E+00  0.5595E+16
   -0.549982    0.85098  0.2607E-10  0.1219E-13  0.7603E-17  0.1000E-09  0.0000E+00  0.5431E+16
   -0.618732    0.95799  0.2607E-10  0.1219E-13  0.7603E-17  0.1000E-09  0.0000E+00  0.5273E+16
   -0.687482    1.06583  0.2607E-10  0.1219E-13  0.7603E-17  0.1000E-09  0.0000E+00  0.5128E+16
   -0.756233    1.17488  0.2607E-10  0.1219E-13  0.7603E-17  0.1000E-09  0.0000E+00  0.4989E+16
   -0.824984    1.28540  0.2607E-10  0.1219E-13  0.7603E-17  0.1000E-09  0.0000E+00  0.4848E+16
   -0.893735    1.39752  0.2607E-10  0.1219E-13  0.7603E-17  0.1000E-09  0.0000E+00  0.4702E+16
   -0.962487    1.51131  0.2606E-10  0.1219E-13  0.7603E-17  0.1000E-09  0.0000E+00  0.4549E+16
   -1.031238    1.62686  0.2605E-10  0.1219E-13  0.7603E-17  0.1000E-09  0.0000E+00  0.4388E+16
   -1.099990    1.74418  0.2602E-10  0.1219E-13  0.7603E-17  0.1000E-09  0.0000E+00  0.4218E+16
   -1.168742    1.86329  0.2597E-10  0.1219E-13  0.7603E-17  0.1000E-09  0.0000E+00  0.4037E+16
   -1.237494    1.98415  0.2589E-10  0.1219E-13  0.7603E-17  0.1000E-09  0.0000E+00  0.3844E+16
   -1.306246    2.10671  0.2578E-10  0.1219E-13  0.7603E-17  0.1000E-09  0.0000E+00  0.3640E+16
   -1.374999    2.23088  0.2566E-10  0.1219E-13  0.7603E-17  0.1000E-09  0.0000E+00  0.3427E+16
   -1.443751    2.35668  0.2555E-10  0.1219E-13  0.7603E-17  0.1000E-09  0.0000E+00  0.3202E+16
   -1.512503    2.48397  0.2548E-10  0.4147E-13  0.9392E-17  0.1000E-09  0.0000E+00  0.2965E+16
   -1.581255    2.61259  0.2543E-10  0.1302E-12  0.2379E-16  0.1000E-09  0.0000E+00  0.2715E+16
   -1.650007    2.74229  0.2540E-10  0.3692E-12  0.6384E-16  0.1000E-09  0.0000E+00  0.2456E+16
   -1.718759    2.87280  0.2539E-10  0.1011E-11  0.1690E-15  0.1000E-09  0.0000E+00  0.2188E+16
   -1.787511    3.00389  0.2537E-10  0.2797E-11  0.4528E-15  0.1000E-09  0.0000E+00  0.1930E+16
   -1.856262    3.13646  0.2536E-10  0.7744E-11  0.1216E-14  0.1000E-09  0.0000E+00  0.1663E+16
   -1.925014    3.27040  0.2535E-10  0.2129E-10  0.3244E-14  0.1000E-09  0.0000E+00  0.1388E+16
   -1.993765    3.40563  0.2532E-10  0.5815E-10  0.8603E-14  0.1000E-09  0.0000E+00  0.1102E+16
   -2.062515    3.54169  0.2529E-10  0.1540E-09  0.2213E-13  0.1399E-09  0.0000E+00  0.8040E+15
   -2.131266    3.67705  0.2526E-10  0.4020E-09  0.5614E-13  0.5594E-09  0.0000E+00  0.5100E+15
   -2.200016    3.81086  0.2524E-10  0.1037E-08  0.1409E-12  0.3172E-08  0.0000E+00  0.2252E+15
   -2.268765    3.94067  0.2524E-10  0.2516E-08  0.3348E-12  0.1300E-06  0.0000E+00  0.1234E+14
   -2.337514    4.00885  0.2524E-10  0.3701E-08  0.4999E-12  0.1207E-04  0.0000E+00 -0.5561E+12
   -2.406263    4.01038  0.2524E-10  0.4173E-08  0.5937E-12  0.1206E-04  0.0000E+00 -0.6012E+12
   -2.475011    4.01192  0.2524E-10  0.4483E-08  0.7076E-12  0.1095E-04  0.0000E+00 -0.7195E+12
   -2.543758    4.01366  0.2524E-10  0.4623E-08  0.8832E-12  0.8587E-05  0.0000E+00 -0.1014E+13
   -2.612505    4.01593  0.2524E-10  0.4495E-08  0.1275E-11  0.4911E-05  0.0000E+00 -0.2072E+13
   -2.681252    4.02010  0.2524E-10  0.3525E-08  0.3232E-11  0.9099E-06  0.0000E+00 -0.1748E+14
   -2.749997    4.04441  0.2524E-10  0.0000E+00  0.0000E+00  0.0000E+00  0.0000E+00  0.0000E+00
