 1 - depth, m
 2 - temperature, C
 3 - salinity, kg/kg
 4 - turbulent kinetic energy, m**2/s**2
 5 - dissipation rate, m**2/s**3
 6 - kinematic heat conductance, m**2/s
 7 - modulus of horizontal velocity, m/s
 8 - Richardson number, n/d
   -0.000000   -0.00000  0.1298E-17  0.1219E-13  0.7603E-17  0.1000E-09  0.0000E+00  0.4461E+16
   -0.068746    0.06753  0.0000E+00  0.1219E-13  0.7603E-17  0.1000E-09  0.0000E+00  0.4587E+16
   -0.137493    0.13829  0.1250E-12  0.1219E-13  0.7603E-17  0.1000E-09  0.0000E+00  0.4758E+16
   -0.206240    0.21318  0.6074E-12  0.1219E-13  0.7603E-17  0.1000E-09  0.0000E+00  0.4943E+16
   -0.274988    0.29270  0.1234E-11  0.1219E-13  0.7603E-17  0.1000E-09  0.0000E+00  0.5116E+16
   -0.343737    0.37697  0.1753E-11  0.1219E-13  0.7603E-17  0.1000E-09  0.0000E+00  0.5259E+16
   -0.412486    0.46583  0.2045E-11  0.1219E-13  0.7603E-17  0.1000E-09  0.0000E+00  0.5361E+16
   -0.481236    0.55891  0.2129E-11  0.1219E-13  0.7603E-17  0.1000E-09  0.0000E+00  0.5418E+16
   -0.549986    0.65578  0.2081E-11  0.1219E-13  0.7603E-17  0.1000E-09  0.0000E+00  0.5432E+16
   -0.618736    0.75600  0.1981E-11  0.1219E-13  0.7603E-17  0.1000E-09  0.0000E+00  0.5408E+16
   -0.687487    0.85915  0.1880E-11  0.1219E-13  0.7603E-17  0.1000E-09  0.0000E+00  0.5346E+16
   -0.756238    0.96475  0.1800E-11  0.1219E-13  0.7603E-17  0.1000E-09  0.0000E+00  0.5252E+16
   -0.824990    1.07241  0.1746E-11  0.1219E-13  0.7603E-17  0.1000E-09  0.0000E+00  0.5134E+16
   -0.893741    1.18184  0.1713E-11  0.1219E-13  0.7603E-17  0.1000E-09  0.0000E+00  0.4996E+16
   -0.962493    1.29282  0.1695E-11  0.1219E-13  0.7603E-17  0.1000E-09  0.0000E+00  0.4842E+16
   -1.031246    1.40514  0.1686E-11  0.1219E-13  0.7603E-17  0.1000E-09  0.0000E+00  0.4675E+16
   -1.099998    1.51865  0.1681E-11  0.1219E-13  0.7603E-17  0.1000E-09  0.0000E+00  0.4499E+16
   -1.168750    1.63325  0.1678E-11  0.1219E-13  0.7603E-17  0.1000E-09  0.0000E+00  0.4314E+16
   -1.237503    1.74889  0.1676E-11  0.1219E-13  0.7603E-17  0.1000E-09  0.0000E+00  0.4124E+16
   -1.306256    1.86555  0.1674E-11  0.1219E-13  0.7603E-17  0.1000E-09  0.0000E+00  0.3932E+16
   -1.375008    1.98332  0.1671E-11  0.1219E-13  0.7603E-17  0.1000E-09  0.0000E+00  0.3740E+16
   -1.443761    2.10240  0.1667E-11  0.1219E-13  0.7603E-17  0.1000E-09  0.0000E+00  0.3548E+16
   -1.512514    2.22302  0.1663E-11  0.1219E-13  0.7603E-17  0.1000E-09  0.0000E+00  0.3355E+16
   -1.581266    2.34547  0.1659E-11  0.1219E-13  0.7603E-17  0.1000E-09  0.0000E+00  0.3159E+16
   -1.650019    2.47002  0.1654E-11  0.1219E-13  0.7603E-17  0.1000E-09  0.0000E+00  0.2956E+16
   -1.718771    2.59693  0.1650E-11  0.1219E-13  0.7603E-17  0.1000E-09  0.0000E+00  0.2737E+16
   -1.787524    2.72606  0.1646E-11  0.1219E-13  0.7603E-17  0.1000E-09  0.0000E+00  0.2412E+16
   -1.856276    2.85226  0.1642E-11  0.1219E-13  0.7603E-17  0.1000E-09  0.0000E+00  0.2089E+16
   -1.925027    2.97441  0.1639E-11  0.1518E-13  0.7603E-17  0.1000E-09  0.0000E+00  0.1771E+16
   -1.993779    3.09118  0.1637E-11  0.6936E-13  0.2286E-16  0.1000E-09  0.0000E+00  0.1487E+16
   -2.062530    3.20276  0.1635E-11  0.2770E-12  0.8532E-16  0.1000E-09  0.0000E+00  0.1295E+16
   -2.131281    3.31508  0.1633E-11  0.1059E-11  0.3135E-15  0.1000E-09  0.0000E+00  0.1108E+16
   -2.200031    3.42913  0.1632E-11  0.3967E-11  0.1130E-14  0.1000E-09  0.0000E+00  0.9160E+15
   -2.268781    3.54538  0.1630E-11  0.1473E-10  0.4046E-14  0.1000E-09  0.0000E+00  0.7115E+15
   -2.337531    3.66362  0.1630E-11  0.5484E-10  0.1453E-13  0.1481E-09  0.0000E+00  0.4959E+15
   -2.406280    3.78363  0.1629E-11  0.2032E-09  0.5197E-13  0.9699E-09  0.0000E+00  0.2698E+15
   -2.475028    3.90435  0.1629E-11  0.7463E-09  0.1848E-12  0.1875E-07  0.0000E+00  0.4756E+14
   -2.543776    4.01181  0.1629E-11  0.2014E-08  0.5022E-12  0.3663E-05  0.0000E+00 -0.1916E+13
   -2.612524    4.01622  0.1629E-11  0.2273E-08  0.7121E-12  0.2727E-05  0.0000E+00 -0.2805E+13
   -2.681271    4.02171  0.1629E-11  0.1715E-08  0.1376E-11  0.5005E-06  0.0000E+00 -0.1323E+14
   -2.750017    4.04056  0.1629E-11  0.0000E+00  0.0000E+00  0.0000E+00  0.0000E+00  0.0000E+00
