 1 - depth, m
 2 - temperature, C
 3 - salinity, kg/kg
 4 - turbulent kinetic energy, m**2/s**2
 5 - dissipation rate, m**2/s**3
 6 - kinematic heat conductance, m**2/s
 7 - modulus of horizontal velocity, m/s
 8 - Richardson number, n/d
   -0.000000   -0.00000  0.7437E-18  0.1219E-13  0.7603E-17  0.1000E-09  0.0000E+00  0.4595E+16
   -0.068746    0.06959  0.0000E+00  0.1219E-13  0.7603E-17  0.1000E-09  0.0000E+00  0.4724E+16
   -0.137493    0.14252  0.5927E-13  0.1219E-13  0.7603E-17  0.1000E-09  0.0000E+00  0.4851E+16
   -0.206241    0.21899  0.3736E-12  0.1219E-13  0.7603E-17  0.1000E-09  0.0000E+00  0.4974E+16
   -0.274989    0.29914  0.8359E-12  0.1219E-13  0.7603E-17  0.1000E-09  0.0000E+00  0.5089E+16
   -0.343738    0.38311  0.1256E-11  0.1219E-13  0.7603E-17  0.1000E-09  0.0000E+00  0.5188E+16
   -0.412487    0.47092  0.1522E-11  0.1219E-13  0.7603E-17  0.1000E-09  0.0000E+00  0.5266E+16
   -0.481237    0.56249  0.1623E-11  0.1219E-13  0.7603E-17  0.1000E-09  0.0000E+00  0.5318E+16
   -0.549987    0.65766  0.1609E-11  0.1219E-13  0.7603E-17  0.1000E-09  0.0000E+00  0.5340E+16
   -0.618738    0.75621  0.1541E-11  0.1219E-13  0.7603E-17  0.1000E-09  0.0000E+00  0.5331E+16
   -0.687489    0.85786  0.1463E-11  0.1219E-13  0.7603E-17  0.1000E-09  0.0000E+00  0.5286E+16
   -0.756240    0.96220  0.1398E-11  0.1219E-13  0.7603E-17  0.1000E-09  0.0000E+00  0.5210E+16
   -0.824992    1.06889  0.1352E-11  0.1219E-13  0.7603E-17  0.1000E-09  0.0000E+00  0.5109E+16
   -0.893743    1.17766  0.1323E-11  0.1219E-13  0.7603E-17  0.1000E-09  0.0000E+00  0.4987E+16
   -0.962496    1.28825  0.1306E-11  0.1219E-13  0.7603E-17  0.1000E-09  0.0000E+00  0.4847E+16
   -1.031248    1.40048  0.1298E-11  0.1219E-13  0.7603E-17  0.1000E-09  0.0000E+00  0.4692E+16
   -1.100000    1.51419  0.1293E-11  0.1219E-13  0.7603E-17  0.1000E-09  0.0000E+00  0.4526E+16
   -1.168753    1.62927  0.1291E-11  0.1219E-13  0.7603E-17  0.1000E-09  0.0000E+00  0.4350E+16
   -1.237506    1.74568  0.1289E-11  0.1219E-13  0.7603E-17  0.1000E-09  0.0000E+00  0.4167E+16
   -1.306259    1.86340  0.1287E-11  0.1219E-13  0.7603E-17  0.1000E-09  0.0000E+00  0.3979E+16
   -1.375012    1.98248  0.1285E-11  0.1219E-13  0.7603E-17  0.1000E-09  0.0000E+00  0.3787E+16
   -1.443764    2.10306  0.1282E-11  0.1219E-13  0.7603E-17  0.1000E-09  0.0000E+00  0.3591E+16
   -1.512517    2.22527  0.1279E-11  0.1219E-13  0.7603E-17  0.1000E-09  0.0000E+00  0.3390E+16
   -1.581270    2.34924  0.1276E-11  0.1219E-13  0.7603E-17  0.1000E-09  0.0000E+00  0.3183E+16
   -1.650023    2.47513  0.1272E-11  0.1219E-13  0.7603E-17  0.1000E-09  0.0000E+00  0.2969E+16
   -1.718775    2.60308  0.1269E-11  0.1219E-13  0.7603E-17  0.1000E-09  0.0000E+00  0.2741E+16
   -1.787527    2.73306  0.1266E-11  0.1219E-13  0.7603E-17  0.1000E-09  0.0000E+00  0.2415E+16
   -1.856280    2.86024  0.1263E-11  0.1219E-13  0.7603E-17  0.1000E-09  0.0000E+00  0.2093E+16
   -1.925032    2.98368  0.1261E-11  0.1857E-13  0.7603E-17  0.1000E-09  0.0000E+00  0.1777E+16
   -1.993783    3.10211  0.1259E-11  0.7669E-13  0.2489E-16  0.1000E-09  0.0000E+00  0.1490E+16
   -2.062534    3.21557  0.1257E-11  0.3022E-12  0.9297E-16  0.1000E-09  0.0000E+00  0.1289E+16
   -2.131285    3.32955  0.1256E-11  0.1155E-11  0.3419E-15  0.1000E-09  0.0000E+00  0.1091E+16
   -2.200036    3.44474  0.1255E-11  0.4331E-11  0.1235E-14  0.1000E-09  0.0000E+00  0.8895E+15
   -2.268786    3.56134  0.1254E-11  0.1611E-10  0.4427E-14  0.1000E-09  0.0000E+00  0.6789E+15
   -2.337536    3.67902  0.1253E-11  0.6010E-10  0.1593E-13  0.1742E-09  0.0000E+00  0.4624E+15
   -2.406285    3.79756  0.1253E-11  0.2231E-09  0.5713E-13  0.1193E-08  0.0000E+00  0.2409E+15
   -2.475034    3.91605  0.1252E-11  0.8169E-09  0.2028E-12  0.2960E-07  0.0000E+00  0.3231E+14
   -2.543782    4.01489  0.1252E-11  0.2153E-08  0.5423E-12  0.3920E-05  0.0000E+00 -0.1963E+13
   -2.612530    4.01898  0.1252E-11  0.2414E-08  0.7611E-12  0.2886E-05  0.0000E+00 -0.2842E+13
   -2.681277    4.02413  0.1252E-11  0.1809E-08  0.1462E-11  0.5191E-06  0.0000E+00 -0.1332E+14
   -2.750023    4.04227  0.1252E-11  0.0000E+00  0.0000E+00  0.0000E+00  0.0000E+00  0.0000E+00
