 1 - depth, m
 2 - temperature, C
 3 - salinity, kg/kg
 4 - turbulent kinetic energy, m**2/s**2
 5 - dissipation rate, m**2/s**3
 6 - kinematic heat conductance, m**2/s
 7 - modulus of horizontal velocity, m/s
 8 - Richardson number, n/d
   -0.000000   12.25243  0.5016E-11  0.2938E-04  0.2854E-05  0.3361E-04  0.6681E-01 -0.1914E-02
   -0.068746   12.25951  0.5016E-11  0.2219E-04  0.7239E-06  0.7517E-04  0.4856E-01 -0.2587E-02
   -0.137492   12.26063  0.5016E-11  0.1932E-04  0.3472E-06  0.1081E-03  0.4321E-01  0.1402E-02
   -0.206239   12.26051  0.5016E-11  0.1728E-04  0.2135E-06  0.1328E-03  0.3982E-01  0.1059E-01
   -0.274987   12.25966  0.5016E-11  0.1553E-04  0.1485E-06  0.1481E-03  0.3736E-01  0.2670E-01
   -0.343735   12.25820  0.5016E-11  0.1393E-04  0.1106E-06  0.1533E-03  0.3541E-01  0.5185E-01
   -0.412484   12.25606  0.5016E-11  0.1243E-04  0.8603E-07  0.1490E-03  0.3376E-01  0.8859E-01
   -0.481233   12.25291  0.5016E-11  0.1099E-04  0.6915E-07  0.1370E-03  0.3228E-01  0.1390E+00
   -0.549983   12.24776  0.5016E-11  0.9578E-05  0.5727E-07  0.1198E-03  0.3086E-01  0.2002E+00
   -0.618733   12.23717  0.5016E-11  0.8151E-05  0.4909E-07  0.1002E-03  0.2936E-01  0.2581E+00
   -0.687483   12.20018  0.5017E-11  0.6662E-05  0.4100E-07  0.8071E-04  0.2739E-01  0.3188E+00
   -0.756234   12.01674  0.5021E-11  0.5346E-05  0.3301E-07  0.6258E-04  0.2413E-01  0.3966E+00
   -0.824985   11.80041  0.5026E-11  0.4314E-05  0.2653E-07  0.4635E-04  0.2041E-01  0.5307E+00
   -0.893737   11.61589  0.5030E-11  0.3531E-05  0.2112E-07  0.3413E-04  0.1688E-01  0.1666E+01
   -0.962488   11.46608  0.5033E-11  0.2900E-05  0.1656E-07  0.3435E-04  0.1377E-01  0.4143E+01
   -1.031240   11.34054  0.5036E-11  0.2373E-05  0.1273E-07  0.5199E-04  0.1102E-01  0.5152E+01
   -1.099992   11.22973  0.5038E-11  0.1952E-05  0.9454E-08  0.8670E-04  0.8511E-02  0.4990E+01
   -1.168744   11.12208  0.5041E-11  0.1666E-05  0.6711E-08  0.1683E-03  0.6143E-02  0.7253E+03
   -1.237497   11.01985  0.5044E-11  0.1528E-05  0.4421E-08  0.3286E-03  0.3980E-02  0.1426E+03
   -1.306249   10.93085  0.5046E-11  0.1527E-05  0.2569E-08  0.4217E-03  0.2171E-02  0.5273E+03
   -1.375001   10.86226  0.5048E-11  0.1626E-05  0.1550E-08  0.5116E-03  0.8436E-03  0.8782E+02
   -1.443754   10.83886  0.5049E-11  0.1745E-05  0.1418E-08  0.6023E-03  0.2799E-03  0.4495E+02
   -1.512506   10.83556  0.5049E-11  0.1816E-05  0.1432E-08  0.6832E-03  0.1331E-03  0.1838E+03
   -1.581258   10.83557  0.5049E-11  0.1877E-05  0.1481E-08  0.7662E-03  0.1103E-03  0.8899E+02
   -1.650010   10.83569  0.5049E-11  0.1932E-05  0.1539E-08  0.7934E-03  0.9616E-04  0.5117E+03
   -1.718762   10.83585  0.5049E-11  0.1984E-05  0.1603E-08  0.7810E-03  0.8458E-04  0.1938E+02
   -1.787514   10.83605  0.5049E-11  0.2033E-05  0.1673E-08  0.8131E-03  0.7338E-04  0.7541E+02
   -1.856266   10.83625  0.5049E-11  0.2080E-05  0.1752E-08  0.8105E-03  0.6404E-04  0.1077E+05
   -1.925017   10.83648  0.5049E-11  0.2125E-05  0.1841E-08  0.8173E-03  0.5597E-04  0.1410E+03
   -1.993768   10.83671  0.5049E-11  0.2170E-05  0.1947E-08  0.7811E-03  0.4912E-04  0.1598E+05
   -2.062519   10.83697  0.5049E-11  0.2213E-05  0.2068E-08  0.7462E-03  0.4299E-04  0.9831E+02
   -2.131269   10.83728  0.5049E-11  0.2252E-05  0.2208E-08  0.7238E-03  0.3715E-04  0.1285E+03
   -2.200019   10.83762  0.5049E-11  0.2284E-05  0.2366E-08  0.6954E-03  0.3175E-04  0.1908E+03
   -2.268769   10.83800  0.5049E-11  0.2309E-05  0.2552E-08  0.6604E-03  0.2671E-04  0.2905E+03
   -2.337518   10.83843  0.5049E-11  0.2324E-05  0.2784E-08  0.6161E-03  0.2214E-04  0.4918E+03
   -2.406267   10.83892  0.5049E-11  0.2328E-05  0.3092E-08  0.5610E-03  0.1804E-04  0.9500E+03
   -2.475015   10.83948  0.5049E-11  0.2316E-05  0.3536E-08  0.4924E-03  0.1436E-04  0.2216E+04
   -2.543763   10.84015  0.5049E-11  0.2281E-05  0.4257E-08  0.4039E-03  0.1107E-04  0.8004E+04
   -2.612510   10.84102  0.5049E-11  0.2198E-05  0.5714E-08  0.3104E-03  0.8074E-05  0.1223E+08
   -2.681257   10.84220  0.5049E-11  0.1538E-05  0.1978E-07  0.2091E-04  0.5554E-05 -0.9967E+06
   -2.750002   10.86085  0.5049E-11  0.0000E+00  0.0000E+00  0.0000E+00  0.5555E-05  0.0000E+00
