 1 - depth, m
 2 - temperature, C
 3 - salinity, kg/kg
 4 - turbulent kinetic energy, m**2/s**2
 5 - dissipation rate, m**2/s**3
 6 - kinematic heat conductance, m**2/s
 7 - modulus of horizontal velocity, m/s
 8 - Richardson number, n/d
   -0.000000   -0.00000  0.2099E-11  0.1219E-13  0.7603E-17  0.1000E-09  0.0000E+00  0.6352E+16
   -0.068746    0.09654  0.1146E-11  0.1219E-13  0.7603E-17  0.1000E-09  0.0000E+00  0.6107E+16
   -0.137492    0.19183  0.8530E-12  0.1219E-13  0.7603E-17  0.1000E-09  0.0000E+00  0.5902E+16
   -0.206239    0.28641  0.7766E-12  0.1219E-13  0.7603E-17  0.1000E-09  0.0000E+00  0.5734E+16
   -0.274987    0.38081  0.7593E-12  0.1219E-13  0.7603E-17  0.1000E-09  0.0000E+00  0.5598E+16
   -0.343735    0.47559  0.7557E-12  0.1219E-13  0.7603E-17  0.1000E-09  0.0000E+00  0.5491E+16
   -0.412483    0.57126  0.7551E-12  0.1219E-13  0.7603E-17  0.1000E-09  0.0000E+00  0.5409E+16
   -0.481232    0.66836  0.7550E-12  0.1219E-13  0.7603E-17  0.1000E-09  0.0000E+00  0.5346E+16
   -0.549982    0.76737  0.7549E-12  0.1219E-13  0.7603E-17  0.1000E-09  0.0000E+00  0.5299E+16
   -0.618732    0.86879  0.7549E-12  0.1219E-13  0.7603E-17  0.1000E-09  0.0000E+00  0.5263E+16
   -0.687482    0.97307  0.7549E-12  0.1219E-13  0.7603E-17  0.1000E-09  0.0000E+00  0.5245E+16
   -0.756233    1.08092  0.7549E-12  0.1219E-13  0.7603E-17  0.1000E-09  0.0000E+00  0.5235E+16
   -0.824984    1.19292  0.7549E-12  0.1219E-13  0.7603E-17  0.1000E-09  0.0000E+00  0.5217E+16
   -0.893735    1.30941  0.7549E-12  0.1228E-13  0.7603E-17  0.1000E-09  0.0000E+00  0.5186E+16
   -0.962486    1.43072  0.7549E-12  0.2281E-13  0.7992E-17  0.1000E-09  0.0000E+00  0.5137E+16
   -1.031238    1.55710  0.7546E-12  0.7696E-13  0.1239E-16  0.1000E-09  0.0000E+00  0.5064E+16
   -1.099990    1.68878  0.7541E-12  0.2162E-12  0.2968E-16  0.1000E-09  0.0000E+00  0.4963E+16
   -1.168742    1.82591  0.7528E-12  0.5588E-12  0.7286E-16  0.1000E-09  0.0000E+00  0.4829E+16
   -1.237494    1.96860  0.7504E-12  0.1398E-11  0.1760E-15  0.1000E-09  0.0000E+00  0.4657E+16
   -1.306246    2.11686  0.7469E-12  0.3430E-11  0.4183E-15  0.1000E-09  0.0000E+00  0.4445E+16
   -1.374999    2.27067  0.7428E-12  0.8278E-11  0.9789E-15  0.1000E-09  0.0000E+00  0.4199E+16
   -1.443751    2.43031  0.7394E-12  0.1967E-10  0.2257E-14  0.1000E-09  0.0000E+00  0.3909E+16
   -1.512503    2.59575  0.7372E-12  0.4606E-10  0.5130E-14  0.1000E-09  0.0000E+00  0.3570E+16
   -1.581255    2.76678  0.7359E-12  0.1063E-09  0.1150E-13  0.1000E-09  0.0000E+00  0.3183E+16
   -1.650007    2.94316  0.7352E-12  0.2417E-09  0.2541E-13  0.1000E-09  0.0000E+00  0.2749E+16
   -1.718759    3.12467  0.7347E-12  0.5422E-09  0.5542E-13  0.1240E-09  0.0000E+00  0.2276E+16
   -1.787511    3.31154  0.7343E-12  0.1229E-08  0.1221E-12  0.3436E-09  0.0000E+00  0.1808E+16
   -1.856262    3.51037  0.7337E-12  0.2794E-08  0.2702E-12  0.1098E-08  0.0000E+00  0.1250E+16
   -1.925013    3.72616  0.7325E-12  0.6298E-08  0.5933E-12  0.5798E-08  0.0000E+00  0.5207E+15
   -1.993764    3.96319  0.7317E-12  0.9492E-08  0.9132E-12  0.1578E-04  0.0000E+00  0.9919E+13
   -2.062515    4.00479  0.7317E-12  0.1031E-07  0.1002E-11  0.4101E-04  0.0000E+00 -0.2619E+12
   -2.131265    4.00580  0.7317E-12  0.1075E-07  0.1062E-11  0.4166E-04  0.0000E+00 -0.2700E+12
   -2.200015    4.00677  0.7317E-12  0.1109E-07  0.1126E-11  0.4127E-04  0.0000E+00 -0.2832E+12
   -2.268765    4.00772  0.7317E-12  0.1135E-07  0.1198E-11  0.3990E-04  0.0000E+00 -0.3042E+12
   -2.337514    4.00869  0.7317E-12  0.1152E-07  0.1288E-11  0.3733E-04  0.0000E+00 -0.3375E+12
   -2.406262    4.00971  0.7317E-12  0.1160E-07  0.1410E-11  0.3338E-04  0.0000E+00 -0.3925E+12
   -2.475011    4.01083  0.7317E-12  0.1156E-07  0.1593E-11  0.2779E-04  0.0000E+00 -0.4927E+12
   -2.543758    4.01216  0.7317E-12  0.1132E-07  0.1918E-11  0.2031E-04  0.0000E+00 -0.7125E+12
   -2.612505    4.01396  0.7317E-12  0.1065E-07  0.2707E-11  0.1096E-04  0.0000E+00 -0.1447E+13
   -2.681251    4.01726  0.7317E-12  0.7760E-08  0.7631E-11  0.1493E-05  0.0000E+00 -0.1474E+14
   -2.749997    4.03988  0.7317E-12  0.0000E+00  0.0000E+00  0.0000E+00  0.0000E+00  0.0000E+00
