 1 - depth, m
 2 - temperature, C
 3 - salinity, kg/kg
 4 - turbulent kinetic energy, m**2/s**2
 5 - dissipation rate, m**2/s**3
 6 - kinematic heat conductance, m**2/s
 7 - modulus of horizontal velocity, m/s
 8 - Richardson number, n/d
   -0.000000   -0.00000  0.1252E-17  0.1218E-13  0.7603E-17  0.1000E-09  0.0000E+00  0.4130E+16
   -0.068747    0.06248  0.0000E+00  0.1218E-13  0.7603E-17  0.1000E-09  0.0000E+00  0.4574E+16
   -0.137495    0.13294  0.2380E-12  0.1218E-13  0.7603E-17  0.1000E-09  0.0000E+00  0.4940E+16
   -0.206243    0.21061  0.8177E-12  0.1218E-13  0.7603E-17  0.1000E-09  0.0000E+00  0.5216E+16
   -0.274992    0.29450  0.1448E-11  0.1218E-13  0.7603E-17  0.1000E-09  0.0000E+00  0.5405E+16
   -0.343742    0.38365  0.1901E-11  0.1218E-13  0.7603E-17  0.1000E-09  0.0000E+00  0.5523E+16
   -0.412492    0.47721  0.2111E-11  0.1218E-13  0.7603E-17  0.1000E-09  0.0000E+00  0.5581E+16
   -0.481242    0.57452  0.2132E-11  0.1218E-13  0.7603E-17  0.1000E-09  0.0000E+00  0.5593E+16
   -0.549993    0.67508  0.2052E-11  0.1218E-13  0.7603E-17  0.1000E-09  0.0000E+00  0.5566E+16
   -0.618744    0.77846  0.1943E-11  0.1218E-13  0.7603E-17  0.1000E-09  0.0000E+00  0.5507E+16
   -0.687496    0.88433  0.1846E-11  0.1218E-13  0.7603E-17  0.1000E-09  0.0000E+00  0.5415E+16
   -0.756248    0.99228  0.1775E-11  0.1218E-13  0.7603E-17  0.1000E-09  0.0000E+00  0.5296E+16
   -0.825000    1.10196  0.1730E-11  0.1218E-13  0.7603E-17  0.1000E-09  0.0000E+00  0.5157E+16
   -0.893753    1.21313  0.1704E-11  0.1218E-13  0.7603E-17  0.1000E-09  0.0000E+00  0.5000E+16
   -0.962506    1.32556  0.1690E-11  0.1218E-13  0.7603E-17  0.1000E-09  0.0000E+00  0.4829E+16
   -1.031259    1.43908  0.1683E-11  0.1218E-13  0.7603E-17  0.1000E-09  0.0000E+00  0.4647E+16
   -1.100012    1.55354  0.1679E-11  0.1218E-13  0.7603E-17  0.1000E-09  0.0000E+00  0.4457E+16
   -1.168766    1.66883  0.1677E-11  0.1218E-13  0.7603E-17  0.1000E-09  0.0000E+00  0.4260E+16
   -1.237519    1.78489  0.1675E-11  0.1218E-13  0.7603E-17  0.1000E-09  0.0000E+00  0.4058E+16
   -1.306273    1.90167  0.1673E-11  0.1218E-13  0.7603E-17  0.1000E-09  0.0000E+00  0.3853E+16
   -1.375026    2.01919  0.1670E-11  0.1218E-13  0.7603E-17  0.1000E-09  0.0000E+00  0.3649E+16
   -1.443780    2.13759  0.1666E-11  0.1218E-13  0.7603E-17  0.1000E-09  0.0000E+00  0.3445E+16
   -1.512534    2.25706  0.1662E-11  0.1218E-13  0.7603E-17  0.1000E-09  0.0000E+00  0.3244E+16
   -1.581287    2.37788  0.1657E-11  0.1218E-13  0.7603E-17  0.1000E-09  0.0000E+00  0.3048E+16
   -1.650041    2.50056  0.1653E-11  0.1218E-13  0.7603E-17  0.1000E-09  0.0000E+00  0.2858E+16
   -1.718794    2.62586  0.1648E-11  0.1218E-13  0.7603E-17  0.1000E-09  0.0000E+00  0.2668E+16
   -1.787547    2.75456  0.1645E-11  0.1218E-13  0.7603E-17  0.1000E-09  0.0000E+00  0.2341E+16
   -1.856300    2.88006  0.1641E-11  0.1218E-13  0.7603E-17  0.1000E-09  0.0000E+00  0.2020E+16
   -1.925052    3.00138  0.1638E-11  0.2131E-13  0.8041E-17  0.1000E-09  0.0000E+00  0.1701E+16
   -1.993805    3.11677  0.1636E-11  0.8587E-13  0.2770E-16  0.1000E-09  0.0000E+00  0.1413E+16
   -2.062557    3.22605  0.1634E-11  0.3383E-12  0.1041E-15  0.1000E-09  0.0000E+00  0.1230E+16
   -2.131309    3.33611  0.1632E-11  0.1299E-11  0.3849E-15  0.1000E-09  0.0000E+00  0.1051E+16
   -2.200060    3.44789  0.1631E-11  0.4899E-11  0.1399E-14  0.1000E-09  0.0000E+00  0.8668E+15
   -2.268811    3.56195  0.1630E-11  0.1834E-10  0.5049E-14  0.1000E-09  0.0000E+00  0.6697E+15
   -2.337561    3.67795  0.1629E-11  0.6886E-10  0.1830E-13  0.1996E-09  0.0000E+00  0.4640E+15
   -2.406311    3.79632  0.1629E-11  0.2575E-09  0.6612E-13  0.1354E-08  0.0000E+00  0.2464E+15
   -2.475061    3.91757  0.1629E-11  0.9463E-09  0.2358E-12  0.3804E-07  0.0000E+00  0.2975E+14
   -2.543810    4.01722  0.1629E-11  0.2419E-08  0.6141E-12  0.4463E-05  0.0000E+00 -0.2009E+13
   -2.612558    4.02113  0.1629E-11  0.2682E-08  0.8410E-12  0.3266E-05  0.0000E+00 -0.2830E+13
   -2.681306    4.02598  0.1629E-11  0.1947E-08  0.1570E-11  0.5388E-06  0.0000E+00 -0.1268E+14
   -2.750053    4.04282  0.1629E-11  0.0000E+00  0.0000E+00  0.0000E+00  0.0000E+00  0.0000E+00
