 1 - depth, m
 2 - temperature, C
 3 - salinity, kg/kg
 4 - turbulent kinetic energy, m**2/s**2
 5 - dissipation rate, m**2/s**3
 6 - kinematic heat conductance, m**2/s
 7 - modulus of horizontal velocity, m/s
 8 - Richardson number, n/d
   -0.000000   -0.00000  0.3692E-11  0.1219E-13  0.7603E-17  0.1000E-09  0.0000E+00  0.8059E+16
   -0.068746    0.12292  0.2229E-11  0.1219E-13  0.7603E-17  0.1000E-09  0.0000E+00  0.7735E+16
   -0.137492    0.24494  0.1603E-11  0.1219E-13  0.7603E-17  0.1000E-09  0.0000E+00  0.7433E+16
   -0.206239    0.36634  0.1381E-11  0.1219E-13  0.7603E-17  0.1000E-09  0.0000E+00  0.7152E+16
   -0.274987    0.48737  0.1314E-11  0.1219E-13  0.7603E-17  0.1000E-09  0.0000E+00  0.6889E+16
   -0.343735    0.60831  0.1296E-11  0.1219E-13  0.7603E-17  0.1000E-09  0.0000E+00  0.6642E+16
   -0.412483    0.72941  0.1292E-11  0.1219E-13  0.7603E-17  0.1000E-09  0.0000E+00  0.6409E+16
   -0.481232    0.85094  0.1291E-11  0.1219E-13  0.7603E-17  0.1000E-09  0.0000E+00  0.6186E+16
   -0.549982    0.97314  0.1290E-11  0.1219E-13  0.7603E-17  0.1000E-09  0.0000E+00  0.5971E+16
   -0.618732    1.09624  0.1290E-11  0.1219E-13  0.7603E-17  0.1000E-09  0.0000E+00  0.5761E+16
   -0.687482    1.22047  0.1290E-11  0.1219E-13  0.7603E-17  0.1000E-09  0.0000E+00  0.5563E+16
   -0.756233    1.34624  0.1290E-11  0.1219E-13  0.7603E-17  0.1000E-09  0.0000E+00  0.5370E+16
   -0.824984    1.47389  0.1290E-11  0.1219E-13  0.7603E-17  0.1000E-09  0.0000E+00  0.5172E+16
   -0.893735    1.60357  0.1290E-11  0.3153E-13  0.7603E-17  0.1000E-09  0.0000E+00  0.4966E+16
   -0.962487    1.73539  0.1290E-11  0.9902E-13  0.1096E-16  0.1000E-09  0.0000E+00  0.4751E+16
   -1.031239    1.86946  0.1289E-11  0.2360E-12  0.2151E-16  0.1000E-09  0.0000E+00  0.4523E+16
   -1.099990    2.00585  0.1287E-11  0.5091E-12  0.4362E-16  0.1000E-09  0.0000E+00  0.4283E+16
   -1.168742    2.14460  0.1285E-11  0.1058E-11  0.8781E-16  0.1000E-09  0.0000E+00  0.4028E+16
   -1.237495    2.28571  0.1280E-11  0.2163E-11  0.1750E-15  0.1000E-09  0.0000E+00  0.3757E+16
   -1.306247    2.42916  0.1275E-11  0.4376E-11  0.3458E-15  0.1000E-09  0.0000E+00  0.3470E+16
   -1.374999    2.57489  0.1269E-11  0.8778E-11  0.6780E-15  0.1000E-09  0.0000E+00  0.3169E+16
   -1.443751    2.72296  0.1264E-11  0.1747E-10  0.1319E-14  0.1000E-09  0.0000E+00  0.2851E+16
   -1.512503    2.87329  0.1261E-11  0.3451E-10  0.2549E-14  0.1000E-09  0.0000E+00  0.2516E+16
   -1.581256    3.02569  0.1259E-11  0.6769E-10  0.4890E-14  0.1000E-09  0.0000E+00  0.2165E+16
   -1.650008    3.17993  0.1257E-11  0.1318E-09  0.9318E-14  0.1000E-09  0.0000E+00  0.1799E+16
   -1.718759    3.33573  0.1256E-11  0.2549E-09  0.1763E-13  0.1000E-09  0.0000E+00  0.1421E+16
   -1.787511    3.49289  0.1255E-11  0.4999E-09  0.3384E-13  0.1641E-09  0.0000E+00  0.1049E+16
   -1.856263    3.65405  0.1254E-11  0.9916E-09  0.6568E-13  0.5155E-09  0.0000E+00  0.6485E+15
   -1.925014    3.81914  0.1252E-11  0.1968E-08  0.1277E-12  0.2963E-08  0.0000E+00  0.2193E+15
   -1.993765    3.98611  0.1252E-11  0.2583E-08  0.1687E-12  0.7656E-05  0.0000E+00 -0.6881E+11
   -2.062516    3.98927  0.1252E-11  0.2941E-08  0.1989E-12  0.1300E-04  0.0000E+00 -0.1151E+12
   -2.131266    3.99115  0.1252E-11  0.3249E-08  0.2301E-12  0.1576E-04  0.0000E+00 -0.1370E+12
   -2.200016    3.99270  0.1252E-11  0.3521E-08  0.2639E-12  0.1723E-04  0.0000E+00 -0.1586E+12
   -2.268766    3.99413  0.1252E-11  0.3757E-08  0.3018E-12  0.1771E-04  0.0000E+00 -0.1850E+12
   -2.337515    3.99551  0.1252E-11  0.3961E-08  0.3478E-12  0.1724E-04  0.0000E+00 -0.2218E+12
   -2.406263    3.99694  0.1252E-11  0.4126E-08  0.4071E-12  0.1579E-04  0.0000E+00 -0.2788E+12
   -2.475011    3.99850  0.1252E-11  0.4236E-08  0.4925E-12  0.1330E-04  0.0000E+00 -0.3811E+12
   -2.543759    4.00035  0.1252E-11  0.4255E-08  0.6372E-12  0.9704E-05  0.0000E+00 -0.6109E+12
   -2.612506    4.00290  0.1252E-11  0.4075E-08  0.9746E-12  0.5100E-05  0.0000E+00 -0.1441E+13
   -2.681252    4.00773  0.1252E-11  0.3125E-08  0.2690E-11  0.8314E-06  0.0000E+00 -0.1490E+14
   -2.749998    4.03490  0.1252E-11  0.0000E+00  0.0000E+00  0.0000E+00  0.0000E+00  0.0000E+00
