 1 - depth, m
 2 - temperature, C
 3 - salinity, kg/kg
 4 - turbulent kinetic energy, m**2/s**2
 5 - dissipation rate, m**2/s**3
 6 - kinematic heat conductance, m**2/s
 7 - modulus of horizontal velocity, m/s
 8 - Richardson number, n/d
   -0.000000   -0.00000  0.3394E-11  0.1219E-13  0.7603E-17  0.1000E-09  0.2537E-61  0.3996E+16
   -0.068746    0.06043  0.1980E-11  0.1219E-13  0.7603E-17  0.1000E-09  0.2123E-61  0.3577E+16
   -0.137492    0.11539  0.1730E-11  0.1219E-13  0.7603E-17  0.1000E-09  0.1854E-61  0.3131E+16
   -0.206239    0.16418  0.1686E-11  0.1219E-13  0.7603E-17  0.1000E-09  0.1617E-61  0.2682E+16
   -0.274987    0.20652  0.1679E-11  0.1219E-13  0.7603E-17  0.1000E-09  0.1388E-61  0.2254E+16
   -0.343735    0.24249  0.1679E-11  0.1219E-13  0.7603E-17  0.1000E-09  0.1172E-61  0.1866E+16
   -0.412483    0.27254  0.1679E-11  0.1219E-13  0.7603E-17  0.1000E-09  0.9761E-62  0.1531E+16
   -0.481233    0.29740  0.1679E-11  0.1219E-13  0.7603E-17  0.1000E-09  0.8050E-62  0.1262E+16
   -0.549982    0.31802  0.1679E-11  0.1219E-13  0.7603E-17  0.1000E-09  0.6586E-62  0.1068E+16
   -0.618732    0.33557  0.1679E-11  0.1219E-13  0.7603E-17  0.1000E-09  0.5353E-62  0.9564E+15
   -0.687482    0.35137  0.1679E-11  0.1219E-13  0.7603E-17  0.1000E-09  0.4324E-62  0.9453E+15
   -0.756233    0.36705  0.1679E-11  0.1219E-13  0.7603E-17  0.1000E-09  0.3471E-62  0.1037E+16
   -0.824984    0.38434  0.1679E-11  0.1219E-13  0.7603E-17  0.1000E-09  0.2769E-62  0.1231E+16
   -0.893735    0.40497  0.1679E-11  0.1219E-13  0.7603E-17  0.1000E-09  0.2194E-62  0.1533E+16
   -0.962487    0.43085  0.1679E-11  0.1219E-13  0.7603E-17  0.1000E-09  0.1728E-62  0.1947E+16
   -1.031239    0.46402  0.1679E-11  0.1219E-13  0.7603E-17  0.1000E-09  0.1351E-62  0.2475E+16
   -1.099991    0.50664  0.1678E-11  0.1219E-13  0.7603E-17  0.1000E-09  0.1049E-62  0.3110E+16
   -1.168743    0.56101  0.1678E-11  0.1219E-13  0.7603E-17  0.1000E-09  0.8089E-63  0.3843E+16
   -1.237495    0.62948  0.1677E-11  0.1219E-13  0.7603E-17  0.1000E-09  0.6185E-63  0.4652E+16
   -1.306247    0.71438  0.1674E-11  0.1219E-13  0.7603E-17  0.1000E-09  0.4683E-63  0.5507E+16
   -1.374999    0.81799  0.1663E-11  0.1219E-13  0.7603E-17  0.1000E-09  0.3500E-63  0.6421E+16
   -1.443752    0.94351  0.1648E-11  0.4087E-13  0.1115E-16  0.1000E-09  0.2566E-63  0.7295E+16
   -1.512504    1.09304  0.1641E-11  0.1401E-12  0.3270E-16  0.1000E-09  0.1823E-63  0.8042E+16
   -1.581256    1.26790  0.1638E-11  0.4459E-12  0.9935E-16  0.1000E-09  0.1223E-63  0.8595E+16
   -1.650008    1.46879  0.1637E-11  0.1380E-11  0.2968E-15  0.1000E-09  0.7203E-64  0.8888E+16
   -1.718760    1.69582  0.1635E-11  0.4193E-11  0.8720E-15  0.1000E-09  0.2779E-64  0.8851E+16
   -1.787512    1.94793  0.1635E-11  0.1289E-10  0.2593E-14  0.1000E-09  0.1882E-65  0.8189E+16
   -1.856263    2.21403  0.1634E-11  0.3960E-10  0.7708E-14  0.1000E-09  0.1175E-66  0.7316E+16
   -1.925014    2.49260  0.1634E-11  0.1205E-09  0.2272E-13  0.1000E-09  0.6693E-68  0.6242E+16
   -1.993765    2.78158  0.1634E-11  0.3636E-09  0.6640E-13  0.1000E-09  0.4154E-69  0.5022E+16
   -2.062516    3.08019  0.1633E-11  0.1061E-08  0.1878E-12  0.2583E-09  0.3351E-70  0.3707E+16
   -2.131266    3.39170  0.1631E-11  0.3044E-08  0.5227E-12  0.1214E-08  0.2530E-71  0.2197E+16
   -2.200016    3.71225  0.1626E-11  0.8573E-08  0.1429E-11  0.1255E-07  0.1775E-72  0.5831E+15
   -2.268766    4.01684  0.1623E-11  0.1095E-07  0.1843E-11  0.2718E-04  0.6472E-74 -0.8455E+12
   -2.337515    4.01857  0.1623E-11  0.1187E-07  0.2065E-11  0.2754E-04  0.1806E-74 -0.8910E+12
   -2.406264    4.02029  0.1623E-11  0.1255E-07  0.2328E-11  0.2630E-04  0.4704E-75 -0.9978E+12
   -2.475012    4.02212  0.1623E-11  0.1298E-07  0.2687E-11  0.2325E-04  0.1083E-75 -0.1216E+13
   -2.543759    4.02423  0.1623E-11  0.1312E-07  0.3280E-11  0.1811E-04  0.2076E-76 -0.1712E+13
   -2.612506    4.02702  0.1623E-11  0.1271E-07  0.4634E-11  0.1061E-04  0.2739E-77 -0.3381E+13
   -2.681253    4.03202  0.1623E-11  0.1009E-07  0.1222E-10  0.1919E-05  0.1717E-78 -0.2968E+14
   -2.749999    4.06301  0.1623E-11  0.0000E+00  0.0000E+00  0.0000E+00  0.1816E-78  0.0000E+00
