 1 - depth, m
 2 - temperature, C
 3 - salinity, kg/kg
 4 - turbulent kinetic energy, m**2/s**2
 5 - dissipation rate, m**2/s**3
 6 - kinematic heat conductance, m**2/s
 7 - modulus of horizontal velocity, m/s
 8 - Richardson number, n/d
   -0.000000   -0.00000  0.2014E-11  0.1219E-13  0.7603E-17  0.1000E-09  0.1409E-66  0.3868E+16
   -0.068746    0.05848  0.1177E-11  0.1219E-13  0.7603E-17  0.1000E-09  0.1271E-66  0.3490E+16
   -0.137492    0.11206  0.1015E-11  0.1219E-13  0.7603E-17  0.1000E-09  0.1092E-66  0.3093E+16
   -0.206239    0.16021  0.9892E-12  0.1219E-13  0.7603E-17  0.1000E-09  0.9156E-67  0.2694E+16
   -0.274987    0.20268  0.9858E-12  0.1219E-13  0.7603E-17  0.1000E-09  0.7609E-67  0.2310E+16
   -0.343735    0.23951  0.9854E-12  0.1219E-13  0.7603E-17  0.1000E-09  0.6307E-67  0.1959E+16
   -0.412483    0.27104  0.9853E-12  0.1219E-13  0.7603E-17  0.1000E-09  0.5218E-67  0.1655E+16
   -0.481233    0.29790  0.9853E-12  0.1219E-13  0.7603E-17  0.1000E-09  0.4302E-67  0.1411E+16
   -0.549982    0.32096  0.9853E-12  0.1219E-13  0.7603E-17  0.1000E-09  0.3528E-67  0.1237E+16
   -0.618732    0.34133  0.9853E-12  0.1219E-13  0.7603E-17  0.1000E-09  0.2874E-67  0.1143E+16
   -0.687482    0.36025  0.9853E-12  0.1219E-13  0.7603E-17  0.1000E-09  0.2325E-67  0.1147E+16
   -0.756233    0.37934  0.9853E-12  0.1219E-13  0.7603E-17  0.1000E-09  0.1868E-67  0.1251E+16
   -0.824984    0.40029  0.9853E-12  0.1219E-13  0.7603E-17  0.1000E-09  0.1491E-67  0.1453E+16
   -0.893735    0.42478  0.9853E-12  0.1219E-13  0.7603E-17  0.1000E-09  0.1181E-67  0.1756E+16
   -0.962487    0.45462  0.9853E-12  0.1219E-13  0.7603E-17  0.1000E-09  0.9300E-68  0.2162E+16
   -1.031239    0.49173  0.9853E-12  0.1219E-13  0.7603E-17  0.1000E-09  0.7273E-68  0.2668E+16
   -1.099991    0.53810  0.9853E-12  0.1219E-13  0.7603E-17  0.1000E-09  0.5649E-68  0.3266E+16
   -1.168743    0.59579  0.9850E-12  0.1219E-13  0.7603E-17  0.1000E-09  0.4356E-68  0.3943E+16
   -1.237495    0.66684  0.9838E-12  0.1219E-13  0.7603E-17  0.1000E-09  0.3331E-68  0.4677E+16
   -1.306247    0.75326  0.9797E-12  0.1219E-13  0.7603E-17  0.1000E-09  0.2522E-68  0.5440E+16
   -1.374999    0.85692  0.9708E-12  0.1219E-13  0.7603E-17  0.1000E-09  0.1885E-68  0.6243E+16
   -1.443752    0.98054  0.9635E-12  0.1219E-13  0.7603E-17  0.1000E-09  0.1382E-68  0.7000E+16
   -1.512504    1.12582  0.9610E-12  0.1219E-13  0.7603E-17  0.1000E-09  0.9824E-69  0.7641E+16
   -1.581256    1.29380  0.9596E-12  0.3734E-13  0.1270E-16  0.1000E-09  0.6587E-69  0.8112E+16
   -1.650008    1.48501  0.9582E-12  0.1429E-12  0.4336E-16  0.1000E-09  0.3881E-69  0.8362E+16
   -1.718760    1.69953  0.9573E-12  0.5225E-12  0.1517E-15  0.1000E-09  0.1497E-69  0.8328E+16
   -1.787512    1.93630  0.9569E-12  0.1919E-11  0.5359E-15  0.1000E-09  0.1015E-70  0.7650E+16
   -1.856263    2.18198  0.9567E-12  0.6992E-11  0.1881E-14  0.1000E-09  0.6330E-72  0.6826E+16
   -1.925014    2.43477  0.9566E-12  0.2511E-10  0.6508E-14  0.1000E-09  0.3608E-73  0.5875E+16
   -1.993765    2.69245  0.9566E-12  0.8894E-10  0.2223E-13  0.1000E-09  0.2239E-74  0.4877E+16
   -2.062516    2.95535  0.9564E-12  0.3029E-09  0.7306E-13  0.1000E-09  0.1806E-75  0.3924E+16
   -2.131266    3.23195  0.9558E-12  0.1012E-08  0.2356E-12  0.4290E-09  0.1364E-76  0.2796E+16
   -2.200016    3.52199  0.9541E-12  0.3322E-08  0.7472E-12  0.2565E-08  0.9570E-78  0.1485E+16
   -2.268766    3.82178  0.9516E-12  0.1044E-07  0.2280E-11  0.6324E-07  0.4592E-79  0.1875E+15
   -2.337515    4.04400  0.9514E-12  0.1409E-07  0.3111E-11  0.2797E-04  0.1456E-80 -0.1483E+13
   -2.406264    4.04562  0.9514E-12  0.1537E-07  0.3534E-11  0.2748E-04  0.3877E-81 -0.1570E+13
   -2.475012    4.04728  0.9514E-12  0.1618E-07  0.4054E-11  0.2492E-04  0.9343E-82 -0.1814E+13
   -2.543759    4.04916  0.9514E-12  0.1650E-07  0.4856E-11  0.1995E-04  0.1924E-82 -0.2409E+13
   -2.612506    4.05156  0.9514E-12  0.1604E-07  0.6625E-11  0.1209E-04  0.2816E-83 -0.4403E+13
   -2.681253    4.05574  0.9514E-12  0.1246E-07  0.1670E-10  0.2096E-05  0.2045E-84 -0.3553E+14
   -2.749999    4.08307  0.9514E-12  0.0000E+00  0.0000E+00  0.0000E+00  0.2156E-84  0.0000E+00
