 1 - depth, m
 2 - temperature, C
 3 - salinity, kg/kg
 4 - turbulent kinetic energy, m**2/s**2
 5 - dissipation rate, m**2/s**3
 6 - kinematic heat conductance, m**2/s
 7 - modulus of horizontal velocity, m/s
 8 - Richardson number, n/d
   -0.000000   -0.00000  0.1079E-11  0.1301E-10  0.5486E-14  0.1000E-09  0.1846E-33  0.5123E+16
   -0.068746    0.07765  0.6668E-12  0.4602E-10  0.4121E-14  0.1000E-09  0.1455E-33  0.4268E+16
   -0.137492    0.14363  0.5914E-12  0.9874E-10  0.4341E-14  0.1000E-09  0.1199E-33  0.3388E+16
   -0.206239    0.19688  0.5782E-12  0.1649E-09  0.5084E-14  0.1000E-09  0.1014E-33  0.2558E+16
   -0.274986    0.23761  0.5766E-12  0.2398E-09  0.6062E-14  0.1000E-09  0.8627E-34  0.1829E+16
   -0.343734    0.26703  0.5764E-12  0.3189E-09  0.7136E-14  0.1001E-09  0.7299E-34  0.1233E+16
   -0.412483    0.28701  0.5764E-12  0.3977E-09  0.8213E-14  0.1110E-09  0.6120E-34  0.7778E+15
   -0.481232    0.29967  0.5764E-12  0.4723E-09  0.9223E-14  0.1555E-09  0.5091E-34  0.4551E+15
   -0.549982    0.30710  0.5764E-12  0.5388E-09  0.1011E-13  0.2881E-09  0.4210E-34  0.2459E+15
   -0.618732    0.31112  0.5764E-12  0.5943E-09  0.1084E-13  0.6732E-09  0.3471E-34  0.1278E+15
   -0.687482    0.31321  0.5764E-12  0.6364E-09  0.1136E-13  0.1316E-08  0.2860E-34  0.8554E+14
   -0.756233    0.31461  0.5764E-12  0.6640E-09  0.1168E-13  0.9151E-09  0.2362E-34  0.1078E+15
   -0.824983    0.31638  0.5764E-12  0.6764E-09  0.1179E-13  0.4262E-09  0.1949E-34  0.1946E+15
   -0.893735    0.31957  0.5764E-12  0.6740E-09  0.1168E-13  0.2229E-09  0.1608E-34  0.3596E+15
   -0.962486    0.32548  0.5764E-12  0.6576E-09  0.1138E-13  0.1415E-09  0.1324E-34  0.6244E+15
   -1.031238    0.33575  0.5764E-12  0.6287E-09  0.1090E-13  0.1096E-09  0.1089E-34  0.1015E+16
   -1.099990    0.35252  0.5764E-12  0.5893E-09  0.1027E-13  0.1003E-09  0.8920E-35  0.1554E+16
   -1.168742    0.37835  0.5763E-12  0.5414E-09  0.9520E-14  0.1000E-09  0.7268E-35  0.2261E+16
   -1.237494    0.41629  0.5761E-12  0.4875E-09  0.8690E-14  0.1000E-09  0.5876E-35  0.3138E+16
   -1.306246    0.46967  0.5748E-12  0.4296E-09  0.7810E-14  0.1000E-09  0.4698E-35  0.4174E+16
   -1.374998    0.54203  0.5706E-12  0.3699E-09  0.6915E-14  0.1000E-09  0.3697E-35  0.5408E+16
   -1.443750    0.63823  0.5651E-12  0.3103E-09  0.6038E-14  0.1000E-09  0.2842E-35  0.6719E+16
   -1.512502    0.76199  0.5631E-12  0.2525E-09  0.5214E-14  0.1000E-09  0.2105E-35  0.7995E+16
   -1.581255    0.91609  0.5623E-12  0.1980E-09  0.4481E-14  0.1000E-09  0.1459E-35  0.9131E+16
   -1.650007    1.10269  0.5615E-12  0.1484E-09  0.3891E-14  0.1000E-09  0.8803E-36  0.1001E+17
   -1.718758    1.32309  0.5611E-12  0.1055E-09  0.3521E-14  0.1000E-09  0.3442E-36  0.1050E+17
   -1.787510    1.57674  0.5608E-12  0.7011E-10  0.3538E-14  0.1000E-09  0.2337E-37  0.9897E+16
   -1.856262    1.84435  0.5607E-12  0.4545E-10  0.4463E-14  0.1000E-09  0.1461E-38  0.9065E+16
   -1.925013    2.12425  0.5606E-12  0.4208E-10  0.8350E-14  0.1000E-09  0.8337E-40  0.8012E+16
   -1.993764    2.41397  0.5606E-12  0.9105E-10  0.2326E-13  0.1000E-09  0.5184E-41  0.6844E+16
   -2.062514    2.71423  0.5605E-12  0.2942E-09  0.7537E-13  0.1000E-09  0.4192E-42  0.5727E+16
   -2.131265    3.03760  0.5602E-12  0.1005E-08  0.2491E-12  0.2996E-09  0.3171E-43  0.4235E+16
   -2.200015    3.38113  0.5592E-12  0.3405E-08  0.8142E-12  0.1731E-08  0.2230E-44  0.2396E+16
   -2.268764    3.73598  0.5574E-12  0.1126E-07  0.2605E-11  0.2831E-07  0.1071E-45  0.4677E+15
   -2.337513    4.04262  0.5573E-12  0.1533E-07  0.3584E-11  0.2818E-04  0.3325E-47 -0.1651E+13
   -2.406262    4.04446  0.5573E-12  0.1676E-07  0.4088E-11  0.2779E-04  0.9039E-48 -0.1756E+13
   -2.475010    4.04636  0.5573E-12  0.1769E-07  0.4719E-11  0.2526E-04  0.2231E-48 -0.2045E+13
   -2.543757    4.04850  0.5573E-12  0.1810E-07  0.5706E-11  0.2025E-04  0.4712E-49 -0.2754E+13
   -2.612504    4.05127  0.5573E-12  0.1769E-07  0.7904E-11  0.1233E-04  0.7094E-50 -0.5160E+13
   -2.681251    4.05616  0.5573E-12  0.1402E-07  0.2041E-10  0.2254E-05  0.5310E-51 -0.4354E+14
   -2.749996    4.08851  0.5573E-12  0.0000E+00  0.0000E+00  0.0000E+00  0.5612E-51  0.0000E+00
