 1 - depth, m
 2 - temperature, C
 3 - salinity, kg/kg
 4 - turbulent kinetic energy, m**2/s**2
 5 - dissipation rate, m**2/s**3
 6 - kinematic heat conductance, m**2/s
 7 - modulus of horizontal velocity, m/s
 8 - Richardson number, n/d
   -0.000000   -0.00000  0.7316E-11  0.1219E-13  0.7603E-17  0.1000E-09  0.0000E+00  0.4518E+16
   -0.068746    0.06841  0.3942E-11  0.1219E-13  0.7603E-17  0.1000E-09  0.0000E+00  0.4326E+16
   -0.137492    0.13513  0.3115E-11  0.1219E-13  0.7603E-17  0.1000E-09  0.0000E+00  0.4177E+16
   -0.206239    0.20073  0.2935E-11  0.1219E-13  0.7603E-17  0.1000E-09  0.0000E+00  0.4068E+16
   -0.274986    0.26580  0.2900E-11  0.1219E-13  0.7603E-17  0.1000E-09  0.0000E+00  0.3997E+16
   -0.343734    0.33095  0.2895E-11  0.1219E-13  0.7603E-17  0.1000E-09  0.0000E+00  0.3964E+16
   -0.412483    0.39679  0.2894E-11  0.1219E-13  0.7603E-17  0.1000E-09  0.0000E+00  0.3965E+16
   -0.481232    0.46397  0.2894E-11  0.1219E-13  0.7603E-17  0.1000E-09  0.0000E+00  0.3999E+16
   -0.549982    0.53312  0.2894E-11  0.1219E-13  0.7603E-17  0.1000E-09  0.0000E+00  0.4062E+16
   -0.618732    0.60490  0.2894E-11  0.1219E-13  0.7603E-17  0.1000E-09  0.0000E+00  0.4153E+16
   -0.687482    0.67998  0.2894E-11  0.1219E-13  0.7603E-17  0.1000E-09  0.0000E+00  0.4281E+16
   -0.756233    0.75932  0.2894E-11  0.1219E-13  0.7603E-17  0.1000E-09  0.0000E+00  0.4436E+16
   -0.824983    0.84376  0.2894E-11  0.1219E-13  0.7603E-17  0.1000E-09  0.0000E+00  0.4602E+16
   -0.893735    0.93395  0.2894E-11  0.1219E-13  0.7603E-17  0.1000E-09  0.0000E+00  0.4771E+16
   -0.962486    1.03051  0.2894E-11  0.1219E-13  0.7603E-17  0.1000E-09  0.0000E+00  0.4936E+16
   -1.031238    1.13404  0.2893E-11  0.1219E-13  0.7603E-17  0.1000E-09  0.0000E+00  0.5090E+16
   -1.099990    1.24508  0.2892E-11  0.1219E-13  0.7603E-17  0.1000E-09  0.0000E+00  0.5223E+16
   -1.168742    1.36413  0.2889E-11  0.5544E-13  0.1018E-16  0.1000E-09  0.0000E+00  0.5325E+16
   -1.237494    1.49163  0.2880E-11  0.1632E-12  0.2386E-16  0.1000E-09  0.0000E+00  0.5389E+16
   -1.306246    1.62796  0.2865E-11  0.4221E-12  0.5818E-16  0.1000E-09  0.0000E+00  0.5403E+16
   -1.374998    1.77340  0.2845E-11  0.1050E-11  0.1400E-15  0.1000E-09  0.0000E+00  0.5376E+16
   -1.443750    1.92871  0.2830E-11  0.2566E-11  0.3327E-15  0.1000E-09  0.0000E+00  0.5283E+16
   -1.512502    2.09415  0.2822E-11  0.6194E-11  0.7814E-15  0.1000E-09  0.0000E+00  0.5108E+16
   -1.581255    2.26972  0.2817E-11  0.1479E-10  0.1816E-14  0.1000E-09  0.0000E+00  0.4843E+16
   -1.650007    2.45524  0.2814E-11  0.3492E-10  0.4176E-14  0.1000E-09  0.0000E+00  0.4484E+16
   -1.718758    2.65038  0.2812E-11  0.8162E-10  0.9508E-14  0.1000E-09  0.0000E+00  0.4026E+16
   -1.787510    2.85464  0.2811E-11  0.1936E-09  0.2196E-13  0.1000E-09  0.0000E+00  0.3495E+16
   -1.856261    3.06884  0.2810E-11  0.4624E-09  0.5112E-13  0.1000E-09  0.0000E+00  0.2865E+16
   -1.925013    3.29306  0.2809E-11  0.1102E-08  0.1188E-12  0.2837E-09  0.0000E+00  0.2132E+16
   -1.993764    3.52710  0.2808E-11  0.2617E-08  0.2751E-12  0.1088E-08  0.0000E+00  0.1288E+16
   -2.062514    3.76882  0.2803E-11  0.6027E-08  0.6186E-12  0.8536E-08  0.0000E+00  0.3697E+15
   -2.131265    4.00115  0.2800E-11  0.7153E-08  0.7395E-12  0.2697E-04  0.0000E+00 -0.3102E+12
   -2.200015    4.00243  0.2800E-11  0.7630E-08  0.8061E-12  0.2812E-04  0.0000E+00 -0.3237E+12
   -2.268764    4.00367  0.2800E-11  0.8013E-08  0.8800E-12  0.2821E-04  0.0000E+00 -0.3488E+12
   -2.337513    4.00491  0.2800E-11  0.8316E-08  0.9696E-12  0.2717E-04  0.0000E+00 -0.3906E+12
   -2.406262    4.00621  0.2800E-11  0.8533E-08  0.1087E-11  0.2487E-04  0.0000E+00 -0.4609E+12
   -2.475010    4.00764  0.2800E-11  0.8645E-08  0.1260E-11  0.2112E-04  0.0000E+00 -0.5908E+12
   -2.543757    4.00934  0.2800E-11  0.8596E-08  0.1558E-11  0.1572E-04  0.0000E+00 -0.8800E+12
   -2.612504    4.01167  0.2800E-11  0.8212E-08  0.2263E-11  0.8644E-05  0.0000E+00 -0.1874E+13
   -2.681251    4.01601  0.2800E-11  0.6354E-08  0.6224E-11  0.1430E-05  0.0000E+00 -0.1849E+14
   -2.749996    4.04327  0.2800E-11  0.0000E+00  0.0000E+00  0.0000E+00  0.0000E+00  0.0000E+00
