 1 - depth, m
 2 - temperature, C
 3 - salinity, kg/kg
 4 - turbulent kinetic energy, m**2/s**2
 5 - dissipation rate, m**2/s**3
 6 - kinematic heat conductance, m**2/s
 7 - modulus of horizontal velocity, m/s
 8 - Richardson number, n/d
   -0.000000   -0.00000  0.7931E-10  0.1219E-13  0.7603E-17  0.1000E-09  0.0000E+00  0.7546E+16
   -0.068746    0.11497  0.6768E-10  0.1219E-13  0.7603E-17  0.1000E-09  0.0000E+00  0.7307E+16
   -0.137492    0.22987  0.5243E-10  0.1219E-13  0.7603E-17  0.1000E-09  0.0000E+00  0.7064E+16
   -0.206239    0.34463  0.4256E-10  0.1219E-13  0.7603E-17  0.1000E-09  0.0000E+00  0.6819E+16
   -0.274987    0.45917  0.3745E-10  0.1219E-13  0.7603E-17  0.1000E-09  0.0000E+00  0.6571E+16
   -0.343735    0.57342  0.3514E-10  0.1219E-13  0.7603E-17  0.1000E-09  0.0000E+00  0.6323E+16
   -0.412484    0.68731  0.3422E-10  0.1219E-13  0.7603E-17  0.1000E-09  0.0000E+00  0.6075E+16
   -0.481233    0.80078  0.3389E-10  0.1219E-13  0.7603E-17  0.1000E-09  0.0000E+00  0.5827E+16
   -0.549983    0.91378  0.3377E-10  0.1219E-13  0.7603E-17  0.1000E-09  0.0000E+00  0.5581E+16
   -0.618733    1.02625  0.3374E-10  0.1219E-13  0.7603E-17  0.1000E-09  0.0000E+00  0.5336E+16
   -0.687483    1.13815  0.3373E-10  0.1219E-13  0.7603E-17  0.1000E-09  0.0000E+00  0.5098E+16
   -0.756234    1.24955  0.3372E-10  0.1219E-13  0.7603E-17  0.1000E-09  0.0000E+00  0.4865E+16
   -0.824985    1.36045  0.3370E-10  0.1219E-13  0.7603E-17  0.1000E-09  0.0000E+00  0.4633E+16
   -0.893736    1.47083  0.3368E-10  0.1219E-13  0.7603E-17  0.1000E-09  0.0000E+00  0.4404E+16
   -0.962488    1.58065  0.3364E-10  0.1219E-13  0.7603E-17  0.1000E-09  0.0000E+00  0.4178E+16
   -1.031239    1.68987  0.3358E-10  0.1219E-13  0.7603E-17  0.1000E-09  0.0000E+00  0.3954E+16
   -1.099991    1.79846  0.3350E-10  0.1219E-13  0.7603E-17  0.1000E-09  0.0000E+00  0.3733E+16
   -1.168744    1.90636  0.3339E-10  0.1219E-13  0.7603E-17  0.1000E-09  0.0000E+00  0.3515E+16
   -1.237496    2.01355  0.3327E-10  0.1219E-13  0.7603E-17  0.1000E-09  0.0000E+00  0.3300E+16
   -1.306248    2.11997  0.3315E-10  0.1219E-13  0.7603E-17  0.1000E-09  0.0000E+00  0.3089E+16
   -1.375000    2.22559  0.3303E-10  0.1219E-13  0.7603E-17  0.1000E-09  0.0000E+00  0.2883E+16
   -1.443753    2.33042  0.3294E-10  0.1219E-13  0.7603E-17  0.1000E-09  0.0000E+00  0.2681E+16
   -1.512505    2.43444  0.3286E-10  0.1219E-13  0.7603E-17  0.1000E-09  0.0000E+00  0.2483E+16
   -1.581257    2.53760  0.3281E-10  0.1219E-13  0.7603E-17  0.1000E-09  0.0000E+00  0.2289E+16
   -1.650009    2.63986  0.3277E-10  0.1219E-13  0.7603E-17  0.1000E-09  0.0000E+00  0.2099E+16
   -1.718761    2.74116  0.3275E-10  0.1219E-13  0.7603E-17  0.1000E-09  0.0000E+00  0.1914E+16
   -1.787513    2.84148  0.3273E-10  0.1219E-13  0.7603E-17  0.1000E-09  0.0000E+00  0.1743E+16
   -1.856264    2.94138  0.3271E-10  0.1219E-13  0.7603E-17  0.1000E-09  0.0000E+00  0.1575E+16
   -1.925016    3.04082  0.3270E-10  0.1219E-13  0.7603E-17  0.1000E-09  0.0000E+00  0.1409E+16
   -1.993767    3.13978  0.3268E-10  0.1219E-13  0.7603E-17  0.1000E-09  0.0000E+00  0.1244E+16
   -2.062518    3.23811  0.3266E-10  0.1219E-13  0.7603E-17  0.1000E-09  0.0000E+00  0.1083E+16
   -2.131268    3.33585  0.3264E-10  0.1219E-13  0.7603E-17  0.1000E-09  0.0000E+00  0.9247E+15
   -2.200018    3.43299  0.3262E-10  0.5236E-13  0.2777E-16  0.1000E-09  0.0000E+00  0.7698E+15
   -2.268768    3.52951  0.3261E-10  0.2808E-12  0.1421E-15  0.1000E-09  0.0000E+00  0.6199E+15
   -2.337517    3.62570  0.3261E-10  0.1506E-11  0.7335E-15  0.1000E-09  0.0000E+00  0.4728E+15
   -2.406266    3.72178  0.3260E-10  0.7998E-11  0.3756E-14  0.1000E-09  0.0000E+00  0.3273E+15
   -2.475014    3.81801  0.3260E-10  0.4230E-10  0.1923E-13  0.5117E-09  0.0000E+00  0.1819E+15
   -2.543761    3.91453  0.3260E-10  0.2225E-09  0.9866E-13  0.1089E-07  0.0000E+00  0.3743E+14
   -2.612508    4.00572  0.3260E-10  0.1053E-08  0.4852E-12  0.8556E-06  0.0000E+00 -0.6047E+13
   -2.681255    4.02021  0.3260E-10  0.1337E-08  0.1251E-11  0.4360E-06  0.0000E+00 -0.2232E+14
   -2.750001    4.04956  0.3260E-10  0.0000E+00  0.0000E+00  0.0000E+00  0.0000E+00  0.0000E+00
