 1 - depth, m
 2 - temperature, C
 3 - salinity, kg/kg
 4 - turbulent kinetic energy, m**2/s**2
 5 - dissipation rate, m**2/s**3
 6 - kinematic heat conductance, m**2/s
 7 - modulus of horizontal velocity, m/s
 8 - Richardson number, n/d
   -0.000000   -0.00000  0.1080E-10  0.1219E-13  0.7603E-17  0.1000E-09  0.0000E+00  0.8090E+16
   -0.068746    0.12340  0.6841E-11  0.1219E-13  0.7603E-17  0.1000E-09  0.0000E+00  0.7770E+16
   -0.137492    0.24601  0.4903E-11  0.1219E-13  0.7603E-17  0.1000E-09  0.0000E+00  0.7467E+16
   -0.206239    0.36801  0.4151E-11  0.1219E-13  0.7603E-17  0.1000E-09  0.0000E+00  0.7181E+16
   -0.274987    0.48961  0.3903E-11  0.1219E-13  0.7603E-17  0.1000E-09  0.0000E+00  0.6908E+16
   -0.343735    0.61097  0.3832E-11  0.1219E-13  0.7603E-17  0.1000E-09  0.0000E+00  0.6649E+16
   -0.412483    0.73229  0.3813E-11  0.1219E-13  0.7603E-17  0.1000E-09  0.0000E+00  0.6399E+16
   -0.481233    0.85375  0.3809E-11  0.1219E-13  0.7603E-17  0.1000E-09  0.0000E+00  0.6159E+16
   -0.549982    0.97552  0.3808E-11  0.1219E-13  0.7603E-17  0.1000E-09  0.0000E+00  0.5925E+16
   -0.618732    1.09777  0.3808E-11  0.1219E-13  0.7603E-17  0.1000E-09  0.0000E+00  0.5696E+16
   -0.687482    1.22064  0.3808E-11  0.1219E-13  0.7603E-17  0.1000E-09  0.0000E+00  0.5479E+16
   -0.756233    1.34447  0.3808E-11  0.1219E-13  0.7603E-17  0.1000E-09  0.0000E+00  0.5267E+16
   -0.824984    1.46951  0.3808E-11  0.1219E-13  0.7603E-17  0.1000E-09  0.0000E+00  0.5052E+16
   -0.893735    1.59585  0.3807E-11  0.1219E-13  0.7603E-17  0.1000E-09  0.0000E+00  0.4833E+16
   -0.962487    1.72357  0.3806E-11  0.1239E-13  0.7603E-17  0.1000E-09  0.0000E+00  0.4608E+16
   -1.031239    1.85273  0.3803E-11  0.2909E-13  0.7924E-17  0.1000E-09  0.0000E+00  0.4376E+16
   -1.099991    1.98337  0.3797E-11  0.9127E-13  0.1208E-16  0.1000E-09  0.0000E+00  0.4135E+16
   -1.168743    2.11550  0.3788E-11  0.2357E-12  0.2661E-16  0.1000E-09  0.0000E+00  0.3886E+16
   -1.237495    2.24910  0.3775E-11  0.5606E-12  0.6011E-16  0.1000E-09  0.0000E+00  0.3628E+16
   -1.306247    2.38413  0.3759E-11  0.1290E-11  0.1339E-15  0.1000E-09  0.0000E+00  0.3359E+16
   -1.374999    2.52054  0.3743E-11  0.2914E-11  0.2940E-15  0.1000E-09  0.0000E+00  0.3083E+16
   -1.443751    2.65834  0.3730E-11  0.6486E-11  0.6367E-15  0.1000E-09  0.0000E+00  0.2798E+16
   -1.512504    2.79743  0.3720E-11  0.1425E-10  0.1361E-14  0.1000E-09  0.0000E+00  0.2501E+16
   -1.581256    2.93762  0.3713E-11  0.3089E-10  0.2873E-14  0.1000E-09  0.0000E+00  0.2194E+16
   -1.650008    3.07862  0.3709E-11  0.6612E-10  0.5992E-14  0.1000E-09  0.0000E+00  0.1879E+16
   -1.718760    3.22007  0.3707E-11  0.1398E-09  0.1235E-13  0.1000E-09  0.0000E+00  0.1560E+16
   -1.787511    3.36174  0.3704E-11  0.2988E-09  0.2570E-13  0.1107E-09  0.0000E+00  0.1259E+16
   -1.856263    3.50599  0.3701E-11  0.6423E-09  0.5383E-13  0.2886E-09  0.0000E+00  0.9510E+15
   -1.925014    3.65456  0.3698E-11  0.1375E-08  0.1123E-12  0.9143E-09  0.0000E+00  0.6243E+15
   -1.993765    3.81141  0.3694E-11  0.2920E-08  0.2327E-12  0.4885E-08  0.0000E+00  0.2379E+15
   -2.062516    3.97862  0.3693E-11  0.4139E-08  0.3353E-12  0.9545E-05  0.0000E+00  0.2013E+13
   -2.131266    3.99546  0.3693E-11  0.4623E-08  0.3814E-12  0.2050E-04  0.0000E+00 -0.1782E+12
   -2.200016    3.99684  0.3693E-11  0.4924E-08  0.4174E-12  0.2165E-04  0.0000E+00 -0.1921E+12
   -2.268766    3.99808  0.3693E-11  0.5163E-08  0.4565E-12  0.2183E-04  0.0000E+00 -0.2110E+12
   -2.337515    3.99927  0.3693E-11  0.5348E-08  0.5029E-12  0.2102E-04  0.0000E+00 -0.2393E+12
   -2.406264    4.00049  0.3693E-11  0.5473E-08  0.5629E-12  0.1916E-04  0.0000E+00 -0.2853E+12
   -2.475012    4.00179  0.3693E-11  0.5522E-08  0.6507E-12  0.1612E-04  0.0000E+00 -0.3698E+12
   -2.543759    4.00333  0.3693E-11  0.5454E-08  0.8028E-12  0.1178E-04  0.0000E+00 -0.5601E+12
   -2.612506    4.00540  0.3693E-11  0.5138E-08  0.1168E-11  0.6230E-05  0.0000E+00 -0.1237E+13
   -2.681253    4.00929  0.3693E-11  0.3754E-08  0.3207E-11  0.9060E-06  0.0000E+00 -0.1293E+14
   -2.749998    4.03311  0.3693E-11  0.0000E+00  0.0000E+00  0.0000E+00  0.0000E+00  0.0000E+00
