 1 - depth, m
 2 - temperature, C
 3 - salinity, kg/kg
 4 - turbulent kinetic energy, m**2/s**2
 5 - dissipation rate, m**2/s**3
 6 - kinematic heat conductance, m**2/s
 7 - modulus of horizontal velocity, m/s
 8 - Richardson number, n/d
   -0.000000   -0.00000  0.4042E-11  0.1219E-13  0.7603E-17  0.1000E-09  0.0000E+00  0.4188E+16
   -0.068746    0.06337  0.2228E-11  0.1219E-13  0.7603E-17  0.1000E-09  0.0000E+00  0.4003E+16
   -0.137492    0.12497  0.1793E-11  0.1219E-13  0.7603E-17  0.1000E-09  0.0000E+00  0.3857E+16
   -0.206239    0.18534  0.1700E-11  0.1219E-13  0.7603E-17  0.1000E-09  0.0000E+00  0.3749E+16
   -0.274987    0.24500  0.1682E-11  0.1219E-13  0.7603E-17  0.1000E-09  0.0000E+00  0.3679E+16
   -0.343735    0.30455  0.1679E-11  0.1219E-13  0.7603E-17  0.1000E-09  0.0000E+00  0.3646E+16
   -0.412483    0.36460  0.1679E-11  0.1219E-13  0.7603E-17  0.1000E-09  0.0000E+00  0.3651E+16
   -0.481232    0.42581  0.1679E-11  0.1219E-13  0.7603E-17  0.1000E-09  0.0000E+00  0.3692E+16
   -0.549982    0.48886  0.1679E-11  0.1219E-13  0.7603E-17  0.1000E-09  0.0000E+00  0.3769E+16
   -0.618732    0.55449  0.1679E-11  0.1219E-13  0.7603E-17  0.1000E-09  0.0000E+00  0.3878E+16
   -0.687482    0.62344  0.1679E-11  0.1219E-13  0.7603E-17  0.1000E-09  0.0000E+00  0.4034E+16
   -0.756233    0.69678  0.1679E-11  0.1219E-13  0.7603E-17  0.1000E-09  0.0000E+00  0.4224E+16
   -0.824984    0.77547  0.1679E-11  0.1219E-13  0.7603E-17  0.1000E-09  0.0000E+00  0.4432E+16
   -0.893735    0.86029  0.1679E-11  0.1219E-13  0.7603E-17  0.1000E-09  0.0000E+00  0.4652E+16
   -0.962486    0.95200  0.1679E-11  0.1219E-13  0.7603E-17  0.1000E-09  0.0000E+00  0.4874E+16
   -1.031238    1.05133  0.1678E-11  0.1219E-13  0.7603E-17  0.1000E-09  0.0000E+00  0.5090E+16
   -1.099990    1.15896  0.1678E-11  0.1219E-13  0.7603E-17  0.1000E-09  0.0000E+00  0.5289E+16
   -1.168742    1.27555  0.1677E-11  0.5135E-13  0.1005E-16  0.1000E-09  0.0000E+00  0.5459E+16
   -1.237494    1.40165  0.1674E-11  0.1541E-12  0.2416E-16  0.1000E-09  0.0000E+00  0.5588E+16
   -1.306246    1.53776  0.1668E-11  0.4095E-12  0.6066E-16  0.1000E-09  0.0000E+00  0.5665E+16
   -1.374999    1.68428  0.1658E-11  0.1049E-11  0.1503E-15  0.1000E-09  0.0000E+00  0.5696E+16
   -1.443751    1.84211  0.1647E-11  0.2638E-11  0.3673E-15  0.1000E-09  0.0000E+00  0.5652E+16
   -1.512503    2.01159  0.1641E-11  0.6553E-11  0.8869E-15  0.1000E-09  0.0000E+00  0.5511E+16
   -1.581255    2.19275  0.1638E-11  0.1609E-10  0.2118E-14  0.1000E-09  0.0000E+00  0.5264E+16
   -1.650007    2.38542  0.1636E-11  0.3905E-10  0.5002E-14  0.1000E-09  0.0000E+00  0.4902E+16
   -1.718759    2.58923  0.1635E-11  0.9376E-10  0.1169E-13  0.1000E-09  0.0000E+00  0.4422E+16
   -1.787511    2.80361  0.1635E-11  0.2284E-09  0.2771E-13  0.1000E-09  0.0000E+00  0.3840E+16
   -1.856262    3.02878  0.1634E-11  0.5599E-09  0.6614E-13  0.1073E-09  0.0000E+00  0.3145E+16
   -1.925013    3.26476  0.1634E-11  0.1368E-08  0.1575E-12  0.3439E-09  0.0000E+00  0.2332E+16
   -1.993764    3.51119  0.1632E-11  0.3329E-08  0.3734E-12  0.1364E-08  0.0000E+00  0.1395E+16
   -2.062515    3.76557  0.1628E-11  0.7837E-08  0.8579E-12  0.1154E-07  0.0000E+00  0.3794E+15
   -2.131265    4.00644  0.1626E-11  0.9114E-08  0.1005E-11  0.3317E-04  0.0000E+00 -0.3569E+12
   -2.200015    4.00754  0.1626E-11  0.9640E-08  0.1083E-11  0.3398E-04  0.0000E+00 -0.3689E+12
   -2.268765    4.00863  0.1626E-11  0.1005E-07  0.1170E-11  0.3370E-04  0.0000E+00 -0.3931E+12
   -2.337514    4.00973  0.1626E-11  0.1037E-07  0.1274E-11  0.3220E-04  0.0000E+00 -0.4346E+12
   -2.406262    4.01088  0.1626E-11  0.1058E-07  0.1412E-11  0.2933E-04  0.0000E+00 -0.5054E+12
   -2.475011    4.01216  0.1626E-11  0.1066E-07  0.1615E-11  0.2485E-04  0.0000E+00 -0.6363E+12
   -2.543758    4.01369  0.1626E-11  0.1055E-07  0.1967E-11  0.1853E-04  0.0000E+00 -0.9250E+12
   -2.612505    4.01577  0.1626E-11  0.1005E-07  0.2802E-11  0.1026E-04  0.0000E+00 -0.1894E+13
   -2.681251    4.01963  0.1626E-11  0.7679E-08  0.7651E-11  0.1623E-05  0.0000E+00 -0.1806E+14
   -2.749997    4.04477  0.1626E-11  0.0000E+00  0.0000E+00  0.0000E+00  0.0000E+00  0.0000E+00
