 1 - depth, m
 2 - temperature, C
 3 - salinity, kg/kg
 4 - turbulent kinetic energy, m**2/s**2
 5 - dissipation rate, m**2/s**3
 6 - kinematic heat conductance, m**2/s
 7 - modulus of horizontal velocity, m/s
 8 - Richardson number, n/d
   -0.000000   -0.00000  0.4014E-10  0.1219E-13  0.7603E-17  0.1000E-09  0.0000E+00  0.5381E+16
   -0.068746    0.08162  0.2196E-10  0.1219E-13  0.7603E-17  0.1000E-09  0.0000E+00  0.5182E+16
   -0.137492    0.16198  0.1666E-10  0.1219E-13  0.7603E-17  0.1000E-09  0.0000E+00  0.5021E+16
   -0.206239    0.24160  0.1538E-10  0.1219E-13  0.7603E-17  0.1000E-09  0.0000E+00  0.4895E+16
   -0.274987    0.32099  0.1511E-10  0.1219E-13  0.7603E-17  0.1000E-09  0.0000E+00  0.4801E+16
   -0.343735    0.40067  0.1505E-10  0.1219E-13  0.7603E-17  0.1000E-09  0.0000E+00  0.4736E+16
   -0.412483    0.48116  0.1505E-10  0.1219E-13  0.7603E-17  0.1000E-09  0.0000E+00  0.4697E+16
   -0.481232    0.56296  0.1504E-10  0.1219E-13  0.7603E-17  0.1000E-09  0.0000E+00  0.4680E+16
   -0.549982    0.64658  0.1504E-10  0.1219E-13  0.7603E-17  0.1000E-09  0.0000E+00  0.4682E+16
   -0.618732    0.73251  0.1504E-10  0.1219E-13  0.7603E-17  0.1000E-09  0.0000E+00  0.4699E+16
   -0.687482    0.82122  0.1504E-10  0.1219E-13  0.7603E-17  0.1000E-09  0.0000E+00  0.4741E+16
   -0.756233    0.91346  0.1504E-10  0.1219E-13  0.7603E-17  0.1000E-09  0.0000E+00  0.4796E+16
   -0.824984    1.00983  0.1504E-10  0.1219E-13  0.7603E-17  0.1000E-09  0.0000E+00  0.4849E+16
   -0.893735    1.11073  0.1504E-10  0.1219E-13  0.7603E-17  0.1000E-09  0.0000E+00  0.4896E+16
   -0.962486    1.21650  0.1504E-10  0.1219E-13  0.7603E-17  0.1000E-09  0.0000E+00  0.4930E+16
   -1.031238    1.32748  0.1504E-10  0.1219E-13  0.7603E-17  0.1000E-09  0.0000E+00  0.4947E+16
   -1.099990    1.44391  0.1503E-10  0.1219E-13  0.7603E-17  0.1000E-09  0.0000E+00  0.4940E+16
   -1.168742    1.56601  0.1502E-10  0.1219E-13  0.7603E-17  0.1000E-09  0.0000E+00  0.4904E+16
   -1.237494    1.69393  0.1498E-10  0.1820E-13  0.7603E-17  0.1000E-09  0.0000E+00  0.4835E+16
   -1.306246    1.82774  0.1492E-10  0.7235E-13  0.1426E-16  0.1000E-09  0.0000E+00  0.4727E+16
   -1.374999    1.96745  0.1484E-10  0.2167E-12  0.3754E-16  0.1000E-09  0.0000E+00  0.4588E+16
   -1.443751    2.11335  0.1476E-10  0.5986E-12  0.9918E-16  0.1000E-09  0.0000E+00  0.4405E+16
   -1.512503    2.26541  0.1471E-10  0.1608E-11  0.2578E-15  0.1000E-09  0.0000E+00  0.4172E+16
   -1.581255    2.42340  0.1468E-10  0.4247E-11  0.6604E-15  0.1000E-09  0.0000E+00  0.3887E+16
   -1.650007    2.58702  0.1467E-10  0.1106E-10  0.1669E-14  0.1000E-09  0.0000E+00  0.3552E+16
   -1.718759    2.75588  0.1466E-10  0.2843E-10  0.4164E-14  0.1000E-09  0.0000E+00  0.3169E+16
   -1.787511    2.92957  0.1465E-10  0.7404E-10  0.1052E-13  0.1000E-09  0.0000E+00  0.2761E+16
   -1.856262    3.10902  0.1465E-10  0.1936E-09  0.2672E-13  0.1000E-09  0.0000E+00  0.2306E+16
   -1.925013    3.29434  0.1464E-10  0.5032E-09  0.6748E-13  0.1903E-09  0.0000E+00  0.1804E+16
   -1.993764    3.48568  0.1463E-10  0.1300E-08  0.1695E-12  0.6920E-09  0.0000E+00  0.1246E+16
   -2.062515    3.68206  0.1460E-10  0.3256E-08  0.4129E-12  0.3315E-08  0.0000E+00  0.6336E+15
   -2.131265    3.87694  0.1458E-10  0.7795E-08  0.9657E-12  0.5738E-07  0.0000E+00  0.8510E+14
   -2.200015    4.01964  0.1458E-10  0.9275E-08  0.1158E-11  0.3170E-04  0.0000E+00 -0.4693E+12
   -2.268765    4.02053  0.1458E-10  0.9845E-08  0.1256E-11  0.3173E-04  0.0000E+00 -0.4832E+12
   -2.337514    4.02142  0.1458E-10  0.1027E-07  0.1367E-11  0.3056E-04  0.0000E+00 -0.5179E+12
   -2.406263    4.02235  0.1458E-10  0.1055E-07  0.1505E-11  0.2806E-04  0.0000E+00 -0.5841E+12
   -2.475011    4.02337  0.1458E-10  0.1067E-07  0.1704E-11  0.2400E-04  0.0000E+00 -0.7124E+12
   -2.543758    4.02458  0.1458E-10  0.1058E-07  0.2045E-11  0.1809E-04  0.0000E+00 -0.9995E+12
   -2.612505    4.02621  0.1458E-10  0.1006E-07  0.2847E-11  0.1017E-04  0.0000E+00 -0.1956E+13
   -2.681251    4.02923  0.1458E-10  0.7610E-08  0.7510E-11  0.1592E-05  0.0000E+00 -0.1727E+14
   -2.749997    4.04993  0.1458E-10  0.0000E+00  0.0000E+00  0.0000E+00  0.0000E+00  0.0000E+00
