 1 - depth, m
 2 - temperature, C
 3 - salinity, kg/kg
 4 - turbulent kinetic energy, m**2/s**2
 5 - dissipation rate, m**2/s**3
 6 - kinematic heat conductance, m**2/s
 7 - modulus of horizontal velocity, m/s
 8 - Richardson number, n/d
   -0.000000   -0.00000  0.7283E-17  0.1219E-13  0.7603E-17  0.1000E-09  0.0000E+00  0.4167E+16
   -0.068746    0.06304  0.0000E+00  0.1219E-13  0.7603E-17  0.1000E-09  0.0000E+00  0.4307E+16
   -0.137493    0.12936  0.5123E-12  0.1219E-13  0.7603E-17  0.1000E-09  0.0000E+00  0.4434E+16
   -0.206241    0.19892  0.3896E-11  0.1219E-13  0.7603E-17  0.1000E-09  0.0000E+00  0.4551E+16
   -0.274989    0.27177  0.9197E-11  0.1219E-13  0.7603E-17  0.1000E-09  0.0000E+00  0.4658E+16
   -0.343738    0.34794  0.1423E-10  0.1219E-13  0.7603E-17  0.1000E-09  0.0000E+00  0.4752E+16
   -0.412488    0.42742  0.1754E-10  0.1219E-13  0.7603E-17  0.1000E-09  0.0000E+00  0.4829E+16
   -0.481237    0.51017  0.1891E-10  0.1219E-13  0.7603E-17  0.1000E-09  0.0000E+00  0.4886E+16
   -0.549988    0.59608  0.1885E-10  0.1219E-13  0.7603E-17  0.1000E-09  0.0000E+00  0.4921E+16
   -0.618738    0.68499  0.1809E-10  0.1219E-13  0.7603E-17  0.1000E-09  0.0000E+00  0.4931E+16
   -0.687489    0.77671  0.1717E-10  0.1219E-13  0.7603E-17  0.1000E-09  0.0000E+00  0.4914E+16
   -0.756241    0.87093  0.1638E-10  0.1219E-13  0.7603E-17  0.1000E-09  0.0000E+00  0.4870E+16
   -0.824993    0.96738  0.1582E-10  0.1219E-13  0.7603E-17  0.1000E-09  0.0000E+00  0.4806E+16
   -0.893745    1.06583  0.1546E-10  0.1219E-13  0.7603E-17  0.1000E-09  0.0000E+00  0.4722E+16
   -0.962497    1.16608  0.1525E-10  0.1219E-13  0.7603E-17  0.1000E-09  0.0000E+00  0.4622E+16
   -1.031249    1.26796  0.1514E-10  0.1219E-13  0.7603E-17  0.1000E-09  0.0000E+00  0.4508E+16
   -1.100002    1.37133  0.1508E-10  0.1219E-13  0.7603E-17  0.1000E-09  0.0000E+00  0.4383E+16
   -1.168755    1.47610  0.1505E-10  0.1219E-13  0.7603E-17  0.1000E-09  0.0000E+00  0.4249E+16
   -1.237507    1.58221  0.1503E-10  0.1219E-13  0.7603E-17  0.1000E-09  0.0000E+00  0.4108E+16
   -1.306260    1.68964  0.1501E-10  0.1219E-13  0.7603E-17  0.1000E-09  0.0000E+00  0.3961E+16
   -1.375013    1.79842  0.1498E-10  0.1219E-13  0.7603E-17  0.1000E-09  0.0000E+00  0.3812E+16
   -1.443766    1.90866  0.1496E-10  0.1219E-13  0.7603E-17  0.1000E-09  0.0000E+00  0.3658E+16
   -1.512519    2.02049  0.1492E-10  0.1219E-13  0.7603E-17  0.1000E-09  0.0000E+00  0.3500E+16
   -1.581272    2.13401  0.1489E-10  0.1219E-13  0.7603E-17  0.1000E-09  0.0000E+00  0.3338E+16
   -1.650025    2.24937  0.1485E-10  0.1219E-13  0.7603E-17  0.1000E-09  0.0000E+00  0.3170E+16
   -1.718777    2.36675  0.1481E-10  0.1219E-13  0.7603E-17  0.1000E-09  0.0000E+00  0.2992E+16
   -1.787530    2.48617  0.1477E-10  0.1219E-13  0.7603E-17  0.1000E-09  0.0000E+00  0.2721E+16
   -1.856282    2.60393  0.1474E-10  0.1219E-13  0.7603E-17  0.1000E-09  0.0000E+00  0.2448E+16
   -1.925034    2.71944  0.1471E-10  0.1219E-13  0.7603E-17  0.1000E-09  0.0000E+00  0.2174E+16
   -1.993786    2.83187  0.1469E-10  0.1219E-13  0.7603E-17  0.1000E-09  0.0000E+00  0.1920E+16
   -2.062537    2.94139  0.1467E-10  0.1219E-13  0.7603E-17  0.1000E-09  0.0000E+00  0.1737E+16
   -2.131288    3.05169  0.1465E-10  0.1219E-13  0.7603E-17  0.1000E-09  0.0000E+00  0.1558E+16
   -2.200039    3.16330  0.1464E-10  0.1219E-13  0.7603E-17  0.1000E-09  0.0000E+00  0.1375E+16
   -2.268789    3.27648  0.1463E-10  0.1219E-13  0.7603E-17  0.1000E-09  0.0000E+00  0.1181E+16
   -2.337539    3.39078  0.1462E-10  0.1219E-13  0.7603E-17  0.1000E-09  0.0000E+00  0.9791E+15
   -2.406288    3.50598  0.1461E-10  0.4200E-13  0.2691E-16  0.1000E-09  0.0000E+00  0.7720E+15
   -2.475037    3.62188  0.1460E-10  0.2683E-12  0.1657E-15  0.1000E-09  0.0000E+00  0.5598E+15
   -2.543786    3.73795  0.1460E-10  0.1755E-11  0.1046E-14  0.1000E-09  0.0000E+00  0.3456E+15
   -2.612533    3.85329  0.1459E-10  0.1178E-10  0.6824E-14  0.2324E-09  0.0000E+00  0.1351E+15
   -2.681280    3.96460  0.1459E-10  0.8645E-10  0.4985E-13  0.5952E-07  0.0000E+00 -0.9571E+13
   -2.750027    4.02752  0.1459E-10  0.0000E+00  0.0000E+00  0.0000E+00  0.0000E+00  0.0000E+00
