 1 - depth, m
 2 - temperature, C
 3 - salinity, kg/kg
 4 - turbulent kinetic energy, m**2/s**2
 5 - dissipation rate, m**2/s**3
 6 - kinematic heat conductance, m**2/s
 7 - modulus of horizontal velocity, m/s
 8 - Richardson number, n/d
   -0.000000   -0.00000  0.9761E-18  0.1218E-13  0.7603E-17  0.1000E-09  0.0000E+00  0.4166E+16
   -0.068747    0.06302  0.0000E+00  0.1218E-13  0.7603E-17  0.1000E-09  0.0000E+00  0.4616E+16
   -0.137495    0.13415  0.1818E-12  0.1218E-13  0.7603E-17  0.1000E-09  0.0000E+00  0.4987E+16
   -0.206243    0.21259  0.6264E-12  0.1218E-13  0.7603E-17  0.1000E-09  0.0000E+00  0.5266E+16
   -0.274992    0.29735  0.1111E-11  0.1218E-13  0.7603E-17  0.1000E-09  0.0000E+00  0.5457E+16
   -0.343742    0.38743  0.1459E-11  0.1218E-13  0.7603E-17  0.1000E-09  0.0000E+00  0.5573E+16
   -0.412492    0.48196  0.1622E-11  0.1218E-13  0.7603E-17  0.1000E-09  0.0000E+00  0.5630E+16
   -0.481242    0.58029  0.1638E-11  0.1218E-13  0.7603E-17  0.1000E-09  0.0000E+00  0.5639E+16
   -0.549993    0.68188  0.1577E-11  0.1218E-13  0.7603E-17  0.1000E-09  0.0000E+00  0.5609E+16
   -0.618744    0.78631  0.1494E-11  0.1218E-13  0.7603E-17  0.1000E-09  0.0000E+00  0.5547E+16
   -0.687496    0.89324  0.1419E-11  0.1218E-13  0.7603E-17  0.1000E-09  0.0000E+00  0.5451E+16
   -0.756248    1.00226  0.1365E-11  0.1218E-13  0.7603E-17  0.1000E-09  0.0000E+00  0.5328E+16
   -0.825001    1.11300  0.1330E-11  0.1218E-13  0.7603E-17  0.1000E-09  0.0000E+00  0.5184E+16
   -0.893753    1.22524  0.1310E-11  0.1218E-13  0.7603E-17  0.1000E-09  0.0000E+00  0.5023E+16
   -0.962506    1.33874  0.1299E-11  0.1218E-13  0.7603E-17  0.1000E-09  0.0000E+00  0.4848E+16
   -1.031259    1.45333  0.1294E-11  0.1218E-13  0.7603E-17  0.1000E-09  0.0000E+00  0.4662E+16
   -1.100012    1.56886  0.1291E-11  0.1218E-13  0.7603E-17  0.1000E-09  0.0000E+00  0.4467E+16
   -1.168766    1.68522  0.1289E-11  0.1218E-13  0.7603E-17  0.1000E-09  0.0000E+00  0.4265E+16
   -1.237519    1.80233  0.1288E-11  0.1218E-13  0.7603E-17  0.1000E-09  0.0000E+00  0.4059E+16
   -1.306273    1.92017  0.1286E-11  0.1218E-13  0.7603E-17  0.1000E-09  0.0000E+00  0.3849E+16
   -1.375027    2.03874  0.1283E-11  0.1218E-13  0.7603E-17  0.1000E-09  0.0000E+00  0.3641E+16
   -1.443780    2.15818  0.1281E-11  0.1218E-13  0.7603E-17  0.1000E-09  0.0000E+00  0.3433E+16
   -1.512534    2.27867  0.1277E-11  0.1218E-13  0.7603E-17  0.1000E-09  0.0000E+00  0.3227E+16
   -1.581287    2.40052  0.1274E-11  0.1218E-13  0.7603E-17  0.1000E-09  0.0000E+00  0.3026E+16
   -1.650041    2.52420  0.1270E-11  0.1218E-13  0.7603E-17  0.1000E-09  0.0000E+00  0.2831E+16
   -1.718794    2.65051  0.1267E-11  0.1218E-13  0.7603E-17  0.1000E-09  0.0000E+00  0.2635E+16
   -1.787547    2.78023  0.1264E-11  0.1218E-13  0.7603E-17  0.1000E-09  0.0000E+00  0.2304E+16
   -1.856300    2.90661  0.1261E-11  0.1422E-13  0.7612E-17  0.1000E-09  0.0000E+00  0.1979E+16
   -1.925053    3.02865  0.1259E-11  0.4435E-13  0.1266E-16  0.1000E-09  0.0000E+00  0.1657E+16
   -1.993805    3.14457  0.1258E-11  0.1608E-12  0.4119E-16  0.1000E-09  0.0000E+00  0.1368E+16
   -2.062557    3.25418  0.1256E-11  0.5501E-12  0.1367E-15  0.1000E-09  0.0000E+00  0.1186E+16
   -2.131309    3.36481  0.1255E-11  0.1852E-11  0.4497E-15  0.1000E-09  0.0000E+00  0.1007E+16
   -2.200060    3.47759  0.1254E-11  0.6198E-11  0.1470E-14  0.1000E-09  0.0000E+00  0.8231E+15
   -2.268811    3.59330  0.1253E-11  0.2082E-10  0.4825E-14  0.1000E-09  0.0000E+00  0.6224E+15
   -2.337562    3.71170  0.1253E-11  0.7095E-10  0.1606E-13  0.1993E-09  0.0000E+00  0.4070E+15
   -2.406312    3.83263  0.1253E-11  0.2432E-09  0.5376E-13  0.1521E-08  0.0000E+00  0.1770E+15
   -2.475061    3.95410  0.1252E-11  0.8038E-09  0.1748E-12  0.1801E-06  0.0000E+00  0.4505E+13
   -2.543810    4.00942  0.1252E-11  0.1866E-08  0.4423E-12  0.3664E-05  0.0000E+00 -0.1728E+13
   -2.612558    4.01387  0.1252E-11  0.2116E-08  0.6366E-12  0.2720E-05  0.0000E+00 -0.2607E+13
   -2.681306    4.01943  0.1252E-11  0.1572E-08  0.1219E-11  0.4670E-06  0.0000E+00 -0.1213E+14
   -2.750053    4.03783  0.1252E-11  0.0000E+00  0.0000E+00  0.0000E+00  0.0000E+00  0.0000E+00
