 1 - depth, m
 2 - temperature, C
 3 - salinity, kg/kg
 4 - turbulent kinetic energy, m**2/s**2
 5 - dissipation rate, m**2/s**3
 6 - kinematic heat conductance, m**2/s
 7 - modulus of horizontal velocity, m/s
 8 - Richardson number, n/d
   -0.000000   11.68488  0.1661E-11  0.1487E-04  0.6823E-06  0.3466E-04  0.2608E-01 -0.3528E-01
   -0.068746   11.71973  0.1661E-11  0.1414E-04  0.2399E-06  0.9767E-04  0.1690E-01 -0.9837E-01
   -0.137492   11.73150  0.1661E-11  0.1373E-04  0.1383E-06  0.1765E-03  0.1368E-01 -0.1670E+00
   -0.206239   11.73784  0.1661E-11  0.1347E-04  0.9570E-07  0.2986E-03  0.1187E-01  0.3140E+02
   -0.274987   11.74170  0.1661E-11  0.1332E-04  0.7327E-07  0.4756E-03  0.1069E-01  0.1457E+02
   -0.343735   11.74413  0.1661E-11  0.1325E-04  0.6008E-07  0.7448E-03  0.9859E-02  0.9747E+02
   -0.412484   11.74564  0.1661E-11  0.1327E-04  0.5168E-07  0.1048E-02  0.9233E-02  0.9304E+02
   -0.481233   11.74661  0.1661E-11  0.1335E-04  0.4572E-07  0.1201E-02  0.8709E-02  0.7913E+01
   -0.549983   11.74740  0.1661E-11  0.1346E-04  0.4105E-07  0.1258E-02  0.8221E-02  0.8871E+01
   -0.618733   11.74814  0.1661E-11  0.1358E-04  0.3728E-07  0.1327E-02  0.7757E-02  0.9592E+01
   -0.687483   11.74881  0.1661E-11  0.1369E-04  0.3419E-07  0.1391E-02  0.7321E-02  0.1015E+02
   -0.756234   11.74944  0.1661E-11  0.1380E-04  0.3161E-07  0.1456E-02  0.6905E-02  0.1070E+02
   -0.824985   11.75002  0.1661E-11  0.1389E-04  0.2943E-07  0.1518E-02  0.6507E-02  0.1122E+02
   -0.893736   11.75057  0.1661E-11  0.1395E-04  0.2756E-07  0.1580E-02  0.6124E-02  0.1174E+02
   -0.962488   11.75108  0.1661E-11  0.1400E-04  0.2593E-07  0.1639E-02  0.5753E-02  0.1226E+02
   -1.031240   11.75155  0.1661E-11  0.1402E-04  0.2451E-07  0.1696E-02  0.5394E-02  0.1280E+02
   -1.099992   11.75200  0.1661E-11  0.1401E-04  0.2326E-07  0.1749E-02  0.5044E-02  0.1338E+02
   -1.168744   11.75242  0.1661E-11  0.1397E-04  0.2215E-07  0.1798E-02  0.4703E-02  0.1402E+02
   -1.237496   11.75281  0.1661E-11  0.1391E-04  0.2117E-07  0.1840E-02  0.4369E-02  0.1475E+02
   -1.306249   11.75319  0.1661E-11  0.1380E-04  0.2029E-07  0.1875E-02  0.4041E-02  0.1560E+02
   -1.375001   11.75355  0.1661E-11  0.1367E-04  0.1950E-07  0.1902E-02  0.3719E-02  0.1665E+02
   -1.443753   11.75389  0.1661E-11  0.1351E-04  0.1880E-07  0.1917E-02  0.3401E-02  0.1798E+02
   -1.512506   11.75422  0.1661E-11  0.1331E-04  0.1817E-07  0.1922E-02  0.3088E-02  0.1979E+02
   -1.581258   11.75454  0.1661E-11  0.1307E-04  0.1761E-07  0.1915E-02  0.2779E-02  0.2238E+02
   -1.650010   11.75485  0.1661E-11  0.1280E-04  0.1712E-07  0.1898E-02  0.2472E-02  0.2642E+02
   -1.718762   11.75515  0.1661E-11  0.1250E-04  0.1668E-07  0.1860E-02  0.2169E-02  0.3062E+02
   -1.787514   11.75544  0.1661E-11  0.1216E-04  0.1628E-07  0.1855E-02  0.1867E-02  0.7562E+01
   -1.856265   11.75574  0.1661E-11  0.1178E-04  0.1596E-07  0.1854E-02  0.1608E-02  0.3771E+01
   -1.925017   11.75602  0.1661E-11  0.1138E-04  0.1575E-07  0.1869E-02  0.1386E-02  0.2314E+01
   -1.993768   11.75631  0.1661E-11  0.1097E-04  0.1567E-07  0.1894E-02  0.1199E-02  0.1660E+01
   -2.062519   11.75658  0.1661E-11  0.1058E-04  0.1575E-07  0.1883E-02  0.1042E-02  0.1345E+01
   -2.131269   11.75685  0.1661E-11  0.1021E-04  0.1602E-07  0.1841E-02  0.9029E-03  0.1095E+01
   -2.200019   11.75712  0.1661E-11  0.9858E-05  0.1649E-07  0.1762E-02  0.7799E-03  0.8954E+00
   -2.268769   11.75739  0.1661E-11  0.9541E-05  0.1720E-07  0.1641E-02  0.6717E-03  0.7048E+00
   -2.337518   11.75768  0.1661E-11  0.9245E-05  0.1822E-07  0.1471E-02  0.5805E-03  0.5967E+00
   -2.406267   11.75800  0.1661E-11  0.8963E-05  0.1971E-07  0.1325E-02  0.5046E-03  0.6596E+00
   -2.475015   11.75835  0.1661E-11  0.8658E-05  0.2232E-07  0.1115E-02  0.4417E-03  0.1340E+02
   -2.543762   11.75881  0.1661E-11  0.8250E-05  0.2757E-07  0.9940E-03  0.3807E-03  0.1147E+03
   -2.612510   11.75937  0.1661E-11  0.7487E-05  0.4316E-07  0.5228E-03  0.3227E-03  0.3660E+03
   -2.681256   11.76114  0.1661E-11  0.4562E-05  0.1562E-06  0.6211E-04  0.2298E-03 -0.1272E+05
   -2.750002   11.76918  0.1661E-11  0.0000E+00  0.0000E+00  0.0000E+00  0.2547E-03  0.0000E+00
