 1 - depth, m
 2 - temperature, C
 3 - salinity, kg/kg
 4 - turbulent kinetic energy, m**2/s**2
 5 - dissipation rate, m**2/s**3
 6 - kinematic heat conductance, m**2/s
 7 - modulus of horizontal velocity, m/s
 8 - Richardson number, n/d
   -0.000000    6.46625  0.7356E-12  0.9976E-05  0.3310E-06  0.2992E-04  0.2096E-01 -0.2450E-01
   -0.068746    6.51421  0.7357E-12  0.9610E-05  0.1271E-06  0.7730E-04  0.1380E-01 -0.6254E-01
   -0.137492    6.53214  0.7357E-12  0.9257E-05  0.7541E-07  0.1300E-03  0.1104E-01 -0.1059E+00
   -0.206239    6.54247  0.7357E-12  0.8971E-05  0.5242E-07  0.1882E-03  0.9415E-02 -0.1541E+00
   -0.274987    6.54938  0.7357E-12  0.8744E-05  0.3968E-07  0.2537E-03  0.8310E-02 -0.1989E+00
   -0.343735    6.55436  0.7357E-12  0.8565E-05  0.3175E-07  0.3549E-03  0.7495E-02  0.2561E+02
   -0.412484    6.55792  0.7357E-12  0.8430E-05  0.2657E-07  0.5675E-03  0.6871E-02  0.4629E+02
   -0.481233    6.56020  0.7357E-12  0.8342E-05  0.2311E-07  0.8586E-03  0.6394E-02  0.9417E+02
   -0.549983    6.56165  0.7357E-12  0.8294E-05  0.2064E-07  0.1073E-02  0.6011E-02  0.9011E+02
   -0.618733    6.56271  0.7357E-12  0.8270E-05  0.1868E-07  0.1132E-02  0.5665E-02  0.8935E+01
   -0.687483    6.56369  0.7357E-12  0.8257E-05  0.1705E-07  0.1177E-02  0.5332E-02  0.9630E+01
   -0.756234    6.56461  0.7357E-12  0.8250E-05  0.1569E-07  0.1218E-02  0.5017E-02  0.1010E+02
   -0.824985    6.56548  0.7357E-12  0.8244E-05  0.1454E-07  0.1259E-02  0.4716E-02  0.1053E+02
   -0.893737    6.56629  0.7357E-12  0.8235E-05  0.1356E-07  0.1297E-02  0.4428E-02  0.1093E+02
   -0.962488    6.56706  0.7357E-12  0.8221E-05  0.1272E-07  0.1333E-02  0.4151E-02  0.1135E+02
   -1.031240    6.56780  0.7357E-12  0.8201E-05  0.1198E-07  0.1366E-02  0.3884E-02  0.1178E+02
   -1.099992    6.56850  0.7357E-12  0.8172E-05  0.1133E-07  0.1397E-02  0.3624E-02  0.1225E+02
   -1.168744    6.56916  0.7357E-12  0.8133E-05  0.1076E-07  0.1424E-02  0.3372E-02  0.1278E+02
   -1.237496    6.56980  0.7357E-12  0.8084E-05  0.1026E-07  0.1448E-02  0.3125E-02  0.1340E+02
   -1.306249    6.57041  0.7357E-12  0.8022E-05  0.9813E-08  0.1468E-02  0.2884E-02  0.1413E+02
   -1.375001    6.57099  0.7357E-12  0.7947E-05  0.9415E-08  0.1483E-02  0.2647E-02  0.1504E+02
   -1.443753    6.57156  0.7357E-12  0.7859E-05  0.9059E-08  0.1493E-02  0.2413E-02  0.1619E+02
   -1.512506    6.57211  0.7357E-12  0.7756E-05  0.8741E-08  0.1498E-02  0.2183E-02  0.1771E+02
   -1.581258    6.57264  0.7357E-12  0.7637E-05  0.8457E-08  0.1495E-02  0.1955E-02  0.1986E+02
   -1.650010    6.57315  0.7357E-12  0.7503E-05  0.8205E-08  0.1490E-02  0.1729E-02  0.2300E+02
   -1.718762    6.57366  0.7357E-12  0.7351E-05  0.7979E-08  0.1465E-02  0.1504E-02  0.2600E+02
   -1.787514    6.57415  0.7357E-12  0.7178E-05  0.7775E-08  0.1499E-02  0.1278E-02  0.6950E+01
   -1.856266    6.57463  0.7357E-12  0.6990E-05  0.7605E-08  0.1531E-02  0.1088E-02  0.3485E+01
   -1.925017    6.57510  0.7357E-12  0.6795E-05  0.7483E-08  0.1581E-02  0.9272E-03  0.2148E+01
   -1.993768    6.57554  0.7357E-12  0.6599E-05  0.7421E-08  0.1647E-02  0.7943E-03  0.1558E+01
   -2.062519    6.57596  0.7357E-12  0.6414E-05  0.7429E-08  0.1686E-02  0.6837E-03  0.1284E+01
   -2.131269    6.57637  0.7357E-12  0.6241E-05  0.7511E-08  0.1627E-02  0.5875E-03  0.1058E+01
   -2.200019    6.57678  0.7357E-12  0.6084E-05  0.7673E-08  0.1518E-02  0.5034E-03  0.8747E+00
   -2.268769    6.57721  0.7357E-12  0.5943E-05  0.7922E-08  0.1403E-02  0.4303E-03  0.6928E+00
   -2.337518    6.57766  0.7357E-12  0.5816E-05  0.8273E-08  0.1290E-02  0.3695E-03  0.5467E+00
   -2.406267    6.57815  0.7357E-12  0.5700E-05  0.8754E-08  0.1194E-02  0.3203E-03  0.5038E+00
   -2.475015    6.57867  0.7357E-12  0.5581E-05  0.9483E-08  0.1079E-02  0.2801E-03  0.6912E+00
   -2.543763    6.57923  0.7357E-12  0.5443E-05  0.1074E-07  0.9761E-03  0.2425E-03  0.1269E+01
   -2.612510    6.57984  0.7357E-12  0.5206E-05  0.1400E-07  0.5631E-03  0.2081E-03  0.1021E+02
   -2.681256    6.58087  0.7357E-12  0.3328E-05  0.5697E-07  0.2541E-04  0.1591E-03 -0.6858E+03
   -2.750002    6.60314  0.7357E-12  0.0000E+00  0.0000E+00  0.0000E+00  0.1590E-03  0.0000E+00
