 1 - depth, m
 2 - temperature, C
 3 - salinity, kg/kg
 4 - turbulent kinetic energy, m**2/s**2
 5 - dissipation rate, m**2/s**3
 6 - kinematic heat conductance, m**2/s
 7 - modulus of horizontal velocity, m/s
 8 - Richardson number, n/d
   -0.000000   -0.00000  0.5735E-13  0.2857E-05  0.7458E-07  0.9771E-05  0.1089E-01  0.1618E+16
   -0.068750    0.03756  0.5345E-13  0.2472E-05  0.3510E-07  0.1421E-04  0.8644E-02  0.1593E+16
   -0.137501    0.07162  0.5876E-13  0.2108E-05  0.2171E-07  0.1538E-04  0.7388E-02  0.1941E+16
   -0.206252    0.11231  0.5911E-13  0.1772E-05  0.1499E-07  0.1453E-04  0.6465E-02  0.2175E+16
   -0.275004    0.15959  0.1134E-12  0.1462E-05  0.1094E-07  0.1251E-04  0.5691E-02  0.2332E+16
   -0.343757    0.21337  0.2107E-12  0.1177E-05  0.8218E-08  0.9946E-05  0.4986E-02  0.2459E+16
   -0.412510    0.27399  0.3922E-12  0.9179E-06  0.6257E-08  0.7295E-05  0.4310E-02  0.2572E+16
   -0.481264    0.34205  0.6194E-12  0.6852E-06  0.4760E-08  0.4882E-05  0.3646E-02  0.2678E+16
   -0.550018    0.41819  0.8341E-12  0.4810E-06  0.3563E-08  0.2919E-05  0.2986E-02  0.2778E+16
   -0.618772    0.50282  0.9995E-12  0.3076E-06  0.2565E-08  0.1506E-05  0.2333E-02  0.2875E+16
   -0.687527    0.59617  0.1102E-11  0.1685E-06  0.1694E-08  0.6302E-06  0.1696E-02  0.2961E+16
   -0.756282    0.69770  0.1148E-11  0.6827E-07  0.9078E-09  0.1843E-06  0.1096E-02  0.3038E+16
   -0.825037    0.80576  0.1152E-11  0.1299E-07  0.2275E-09  0.2585E-07  0.5678E-03  0.3109E+16
   -0.893793    0.91414  0.1127E-11  0.5403E-09  0.7868E-11  0.1851E-08  0.1991E-03  0.3176E+16
   -0.962549    1.01391  0.1085E-11  0.1059E-10  0.1187E-12  0.1514E-09  0.5468E-04  0.3239E+16
   -1.031305    1.11337  0.1048E-11  0.2204E-12  0.1921E-14  0.1000E-09  0.1451E-04  0.3295E+16
   -1.100062    1.21533  0.1023E-11  0.1628E-13  0.4495E-16  0.1000E-09  0.3823E-05  0.3344E+16
   -1.168818    1.31983  0.1006E-11  0.1218E-13  0.8820E-17  0.1000E-09  0.1001E-05  0.3378E+16
   -1.237575    1.42675  0.9957E-12  0.1218E-13  0.7626E-17  0.1000E-09  0.2599E-06  0.3395E+16
   -1.306331    1.53596  0.9899E-12  0.1218E-13  0.7600E-17  0.1000E-09  0.6697E-07  0.3397E+16
   -1.375088    1.64728  0.9863E-12  0.1218E-13  0.7600E-17  0.1000E-09  0.1710E-07  0.3390E+16
   -1.443845    1.76096  0.9840E-12  0.1218E-13  0.7600E-17  0.1000E-09  0.4322E-08  0.3377E+16
   -1.512601    1.87722  0.9820E-12  0.1218E-13  0.7624E-17  0.1000E-09  0.1081E-08  0.3368E+16
   -1.581358    1.99677  0.9799E-12  0.1401E-13  0.9122E-17  0.1000E-09  0.2670E-09  0.3415E+16
   -1.650114    2.12293  0.9776E-12  0.3320E-13  0.2358E-16  0.1000E-09  0.6467E-10  0.3669E+16
   -1.718871    2.26660  0.9751E-12  0.1873E-12  0.1332E-15  0.1000E-09  0.1331E-10  0.4665E+16
   -1.787627    2.46344  0.9724E-12  0.1385E-11  0.9434E-15  0.1000E-09  0.7992E-12  0.3819E+16
   -1.856383    2.62966  0.9696E-12  0.1028E-10  0.6664E-14  0.1026E-09  0.4467E-13  0.3080E+16
   -1.925139    2.78038  0.9670E-12  0.7347E-10  0.4537E-13  0.2121E-09  0.2305E-14  0.2293E+16
   -1.993894    2.90534  0.9646E-12  0.4974E-09  0.2940E-12  0.1717E-08  0.1284E-15  0.1622E+16
   -2.062649    3.00286  0.9625E-12  0.2955E-08  0.1691E-11  0.3724E-08  0.9227E-17  0.1811E+16
   -2.131404    3.12932  0.9606E-12  0.1528E-07  0.8520E-11  0.1784E-07  0.6338E-18  0.1819E+16
   -2.200158    3.31673  0.9589E-12  0.2839E-07  0.1622E-10  0.8951E-05  0.1856E-19  0.1519E+16
   -2.268912    3.50765  0.9576E-12  0.3832E-07  0.2264E-10  0.1918E-04  0.1055E-19  0.1108E+16
   -2.337666    3.66870  0.9567E-12  0.4600E-07  0.2839E-10  0.2544E-04  0.6148E-20  0.6663E+15
   -2.406419    3.79562  0.9561E-12  0.5242E-07  0.3419E-10  0.2880E-04  0.3479E-20  0.5674E+15
   -2.475172    3.95333  0.9556E-12  0.5864E-07  0.4118E-10  0.3016E-04  0.1870E-20  0.1421E+15
   -2.543924    4.07491  0.9553E-12  0.6392E-07  0.5082E-10  0.3167E-04  0.9420E-21 -0.6832E+13
   -2.612675    4.09152  0.9553E-12  0.6439E-07  0.6841E-10  0.2199E-04  0.4137E-21 -0.1846E+14
   -2.681426    4.10193  0.9553E-12  0.4882E-07  0.1848E-09  0.3496E-05  0.1052E-21 -0.1470E+15
   -2.750176    4.15529  0.9553E-12  0.0000E+00  0.0000E+00  0.0000E+00  0.9746E-22  0.0000E+00
