 1 - depth, m
 2 - temperature, C
 3 - salinity, kg/kg
 4 - turbulent kinetic energy, m**2/s**2
 5 - dissipation rate, m**2/s**3
 6 - kinematic heat conductance, m**2/s
 7 - modulus of horizontal velocity, m/s
 8 - Richardson number, n/d
   -0.000000   -0.00000  0.3461E-10  0.8953E-06  0.1174E-07  0.5855E-05  0.8734E-02  0.7636E-01
   -0.068745    0.01228  0.3440E-10  0.7169E-06  0.4639E-08  0.8624E-05  0.5945E-02  0.1560E+00
   -0.137490    0.01938  0.3430E-10  0.5485E-06  0.2461E-08  0.8786E-05  0.4505E-02  0.3300E+00
   -0.206236    0.02534  0.3422E-10  0.4073E-06  0.1437E-08  0.7699E-05  0.3509E-02  0.8071E+00
   -0.274982    0.03094  0.3414E-10  0.2923E-06  0.8651E-09  0.6112E-05  0.2746E-02  0.2241E+01
   -0.343729    0.03638  0.3407E-10  0.2006E-06  0.5188E-09  0.4437E-05  0.2133E-02  0.6852E+01
   -0.412476    0.04181  0.3399E-10  0.1291E-06  0.3007E-09  0.2910E-05  0.1628E-02  0.2294E+02
   -0.481224    0.04752  0.3392E-10  0.7561E-07  0.1625E-09  0.1670E-05  0.1206E-02  0.8210E+02
   -0.549973    0.05381  0.3383E-10  0.3824E-07  0.7763E-10  0.7878E-06  0.8515E-03  0.2982E+03
   -0.618722    0.06083  0.3373E-10  0.1500E-07  0.2953E-10  0.2659E-06  0.5598E-03  0.1056E+04
   -0.687471    0.06856  0.3362E-10  0.3602E-08  0.7042E-11  0.4861E-07  0.3309E-03  0.3502E+04
   -0.756220    0.07662  0.3350E-10  0.4482E-09  0.8547E-12  0.5134E-08  0.1709E-03  0.1055E+05
   -0.824970    0.08396  0.3337E-10  0.4228E-10  0.7678E-13  0.6184E-09  0.8149E-04  0.2780E+05
   -0.893720    0.08954  0.3325E-10  0.4036E-11  0.6785E-14  0.1470E-09  0.3821E-04  0.5970E+05
   -0.962471    0.09322  0.3317E-10  0.4316E-12  0.6471E-15  0.1005E-09  0.1783E-04  0.9388E+05
   -1.031221    0.09537  0.3312E-10  0.6207E-13  0.7510E-16  0.1000E-09  0.8294E-05  0.1737E+06
   -1.099972    0.09663  0.3308E-10  0.3430E-13  0.2186E-16  0.1000E-09  0.3846E-05  0.1990E+07
   -1.168723    0.09777  0.3304E-10  0.9229E-13  0.2489E-16  0.1000E-09  0.1778E-05  0.2523E+08
   -1.237474    0.09978  0.3301E-10  0.2411E-12  0.4724E-16  0.1000E-09  0.8194E-06  0.2439E+09
   -1.306225    0.10424  0.3299E-10  0.5616E-12  0.9841E-16  0.1000E-09  0.3764E-06  0.2008E+10
   -1.374976    0.11378  0.3296E-10  0.1243E-11  0.2062E-15  0.1000E-09  0.1724E-06  0.1587E+11
   -1.443727    0.13421  0.3293E-10  0.2674E-11  0.4272E-15  0.1000E-09  0.7873E-07  0.1121E+12
   -1.512478    0.17252  0.3290E-10  0.5615E-11  0.8680E-15  0.1000E-09  0.3582E-07  0.7265E+12
   -1.581229    0.23771  0.3286E-10  0.1148E-10  0.1718E-14  0.1000E-09  0.1617E-07  0.4252E+13
   -1.649980    0.34089  0.3281E-10  0.2269E-10  0.3287E-14  0.1000E-09  0.6982E-08  0.1919E+14
   -1.718731    0.49414  0.3276E-10  0.4299E-10  0.6017E-14  0.1000E-09  0.2228E-08  0.1143E+15
   -1.787482    0.70339  0.3274E-10  0.7861E-10  0.1059E-13  0.1001E-09  0.1455E-09  0.3203E+16
   -1.856232    0.85389  0.3273E-10  0.1354E-09  0.1747E-13  0.1094E-09  0.8778E-11  0.4777E+16
   -1.924982    0.94931  0.3272E-10  0.2096E-09  0.2573E-13  0.2046E-09  0.4849E-12  0.1964E+16
   -1.993732    0.98941  0.3272E-10  0.2357E-09  0.2825E-13  0.2629E-06  0.2858E-13  0.9042E+15
   -2.062481    1.00847  0.3272E-10  0.2143E-09  0.2705E-13  0.1209E-09  0.3094E-14  0.5063E+16
   -2.131231    1.11487  0.3272E-10  0.1438E-09  0.2242E-13  0.1018E-09  0.2310E-15  0.9809E+16
   -2.199979    1.33314  0.3269E-10  0.1055E-09  0.3431E-13  0.1000E-09  0.1603E-16  0.1423E+17
   -2.268728    1.68779  0.3266E-10  0.2393E-09  0.1499E-12  0.1020E-09  0.7606E-18  0.1640E+17
   -2.337476    2.18608  0.3264E-10  0.1408E-08  0.9251E-12  0.3468E-09  0.2959E-19  0.1562E+17
   -2.406223    2.86120  0.3260E-10  0.9220E-08  0.5930E-11  0.5592E-08  0.9819E-21  0.9303E+16
   -2.474970    3.73854  0.3255E-10  0.2647E-07  0.1895E-10  0.1071E-04  0.2694E-22  0.1225E+16
   -2.543717    4.14351  0.3253E-10  0.4469E-07  0.3672E-10  0.2183E-04  0.7778E-24 -0.1899E+14
   -2.612463    4.15153  0.3253E-10  0.4882E-07  0.5162E-10  0.1631E-04  0.1065E-24 -0.2973E+14
   -2.681208    4.16346  0.3253E-10  0.4298E-07  0.1253E-09  0.3953E-05  0.8896E-26 -0.1916E+15
   -2.749952    4.22495  0.3253E-10  0.0000E+00  0.0000E+00  0.0000E+00  0.9089E-26  0.0000E+00
