 1 - depth, m
 2 - temperature, C
 3 - salinity, kg/kg
 4 - turbulent kinetic energy, m**2/s**2
 5 - dissipation rate, m**2/s**3
 6 - kinematic heat conductance, m**2/s
 7 - modulus of horizontal velocity, m/s
 8 - Richardson number, n/d
   -0.000000   -0.00000  0.1443E-10  0.1219E-13  0.7603E-17  0.1000E-09  0.0000E+00  0.8057E+16
   -0.068746    0.12289  0.8802E-11  0.1219E-13  0.7603E-17  0.1000E-09  0.0000E+00  0.7736E+16
   -0.137492    0.24493  0.6310E-11  0.1219E-13  0.7603E-17  0.1000E-09  0.0000E+00  0.7435E+16
   -0.206239    0.36635  0.5412E-11  0.1219E-13  0.7603E-17  0.1000E-09  0.0000E+00  0.7152E+16
   -0.274987    0.48739  0.5135E-11  0.1219E-13  0.7603E-17  0.1000E-09  0.0000E+00  0.6887E+16
   -0.343735    0.60828  0.5060E-11  0.1219E-13  0.7603E-17  0.1000E-09  0.0000E+00  0.6636E+16
   -0.412483    0.72926  0.5043E-11  0.1219E-13  0.7603E-17  0.1000E-09  0.0000E+00  0.6397E+16
   -0.481232    0.85055  0.5039E-11  0.1219E-13  0.7603E-17  0.1000E-09  0.0000E+00  0.6168E+16
   -0.549982    0.97237  0.5038E-11  0.1219E-13  0.7603E-17  0.1000E-09  0.0000E+00  0.5946E+16
   -0.618732    1.09493  0.5038E-11  0.1219E-13  0.7603E-17  0.1000E-09  0.0000E+00  0.5730E+16
   -0.687482    1.21840  0.5038E-11  0.1219E-13  0.7603E-17  0.1000E-09  0.0000E+00  0.5525E+16
   -0.756233    1.34319  0.5038E-11  0.1219E-13  0.7603E-17  0.1000E-09  0.0000E+00  0.5325E+16
   -0.824984    1.46958  0.5037E-11  0.1219E-13  0.7603E-17  0.1000E-09  0.0000E+00  0.5121E+16
   -0.893735    1.59770  0.5037E-11  0.1219E-13  0.7603E-17  0.1000E-09  0.0000E+00  0.4910E+16
   -0.962487    1.72765  0.5035E-11  0.1715E-13  0.7603E-17  0.1000E-09  0.0000E+00  0.4691E+16
   -1.031239    1.85950  0.5031E-11  0.7025E-13  0.1107E-16  0.1000E-09  0.0000E+00  0.4462E+16
   -1.099990    1.99329  0.5023E-11  0.1935E-12  0.2486E-16  0.1000E-09  0.0000E+00  0.4222E+16
   -1.168742    2.12904  0.5010E-11  0.4740E-12  0.5751E-16  0.1000E-09  0.0000E+00  0.3970E+16
   -1.237495    2.26674  0.4991E-11  0.1119E-11  0.1314E-15  0.1000E-09  0.0000E+00  0.3704E+16
   -1.306247    2.40633  0.4968E-11  0.2595E-11  0.2963E-15  0.1000E-09  0.0000E+00  0.3425E+16
   -1.374999    2.54773  0.4946E-11  0.5946E-11  0.6611E-15  0.1000E-09  0.0000E+00  0.3135E+16
   -1.443751    2.69099  0.4928E-11  0.1348E-10  0.1460E-14  0.1000E-09  0.0000E+00  0.2832E+16
   -1.512503    2.83599  0.4915E-11  0.3026E-10  0.3192E-14  0.1000E-09  0.0000E+00  0.2516E+16
   -1.581256    2.98258  0.4907E-11  0.6723E-10  0.6914E-14  0.1000E-09  0.0000E+00  0.2187E+16
   -1.650008    3.13054  0.4901E-11  0.1480E-09  0.1483E-13  0.1000E-09  0.0000E+00  0.1848E+16
   -1.718760    3.27966  0.4898E-11  0.3225E-09  0.3153E-13  0.1069E-09  0.0000E+00  0.1500E+16
   -1.787511    3.42978  0.4894E-11  0.7129E-09  0.6795E-13  0.2980E-09  0.0000E+00  0.1160E+16
   -1.856263    3.58292  0.4889E-11  0.1589E-08  0.1477E-12  0.9404E-09  0.0000E+00  0.7991E+15
   -1.925014    3.73886  0.4884E-11  0.3529E-08  0.3203E-12  0.3915E-08  0.0000E+00  0.4160E+15
   -1.993765    3.89540  0.4882E-11  0.7593E-08  0.6752E-12  0.5741E-07  0.0000E+00  0.5953E+14
   -2.062516    4.01221  0.4882E-11  0.8517E-08  0.7617E-12  0.3967E-04  0.0000E+00 -0.2387E+12
   -2.131266    4.01280  0.4882E-11  0.8899E-08  0.8067E-12  0.3989E-04  0.0000E+00 -0.2428E+12
   -2.200016    4.01338  0.4882E-11  0.9197E-08  0.8543E-12  0.3925E-04  0.0000E+00 -0.2524E+12
   -2.268766    4.01396  0.4882E-11  0.9415E-08  0.9079E-12  0.3770E-04  0.0000E+00 -0.2689E+12
   -2.337515    4.01458  0.4882E-11  0.9560E-08  0.9745E-12  0.3508E-04  0.0000E+00 -0.2962E+12
   -2.406263    4.01524  0.4882E-11  0.9622E-08  0.1065E-11  0.3122E-04  0.0000E+00 -0.3422E+12
   -2.475011    4.01599  0.4882E-11  0.9577E-08  0.1201E-11  0.2588E-04  0.0000E+00 -0.4267E+12
   -2.543759    4.01689  0.4882E-11  0.9366E-08  0.1444E-11  0.1882E-04  0.0000E+00 -0.6125E+12
   -2.612506    4.01814  0.4882E-11  0.8793E-08  0.2036E-11  0.1004E-04  0.0000E+00 -0.1234E+13
   -2.681252    4.02053  0.4882E-11  0.6334E-08  0.5694E-11  0.1311E-05  0.0000E+00 -0.1220E+14
   -2.749998    4.03855  0.4882E-11  0.0000E+00  0.0000E+00  0.0000E+00  0.0000E+00  0.0000E+00
