 1 - depth, m
 2 - temperature, C
 3 - salinity, kg/kg
 4 - turbulent kinetic energy, m**2/s**2
 5 - dissipation rate, m**2/s**3
 6 - kinematic heat conductance, m**2/s
 7 - modulus of horizontal velocity, m/s
 8 - Richardson number, n/d
   -0.000000   -0.00000  0.4327E-10  0.1219E-13  0.7603E-17  0.1000E-09  0.0000E+00  0.7555E+16
   -0.068746    0.11511  0.2599E-10  0.1219E-13  0.7603E-17  0.1000E-09  0.0000E+00  0.7264E+16
   -0.137492    0.22933  0.1867E-10  0.1219E-13  0.7603E-17  0.1000E-09  0.0000E+00  0.6992E+16
   -0.206239    0.34288  0.1609E-10  0.1219E-13  0.7603E-17  0.1000E-09  0.0000E+00  0.6739E+16
   -0.274987    0.45599  0.1531E-10  0.1219E-13  0.7603E-17  0.1000E-09  0.0000E+00  0.6501E+16
   -0.343735    0.56889  0.1511E-10  0.1219E-13  0.7603E-17  0.1000E-09  0.0000E+00  0.6278E+16
   -0.412483    0.68179  0.1506E-10  0.1219E-13  0.7603E-17  0.1000E-09  0.0000E+00  0.6068E+16
   -0.481232    0.79492  0.1505E-10  0.1219E-13  0.7603E-17  0.1000E-09  0.0000E+00  0.5867E+16
   -0.549982    0.90847  0.1504E-10  0.1219E-13  0.7603E-17  0.1000E-09  0.0000E+00  0.5674E+16
   -0.618732    1.02264  0.1504E-10  0.1219E-13  0.7603E-17  0.1000E-09  0.0000E+00  0.5486E+16
   -0.687482    1.13761  0.1504E-10  0.1219E-13  0.7603E-17  0.1000E-09  0.0000E+00  0.5312E+16
   -0.756233    1.25376  0.1504E-10  0.1219E-13  0.7603E-17  0.1000E-09  0.0000E+00  0.5143E+16
   -0.824984    1.37135  0.1504E-10  0.1219E-13  0.7603E-17  0.1000E-09  0.0000E+00  0.4971E+16
   -0.893735    1.49052  0.1504E-10  0.1219E-13  0.7603E-17  0.1000E-09  0.0000E+00  0.4794E+16
   -0.962487    1.61134  0.1504E-10  0.1219E-13  0.7603E-17  0.1000E-09  0.0000E+00  0.4610E+16
   -1.031238    1.73389  0.1503E-10  0.1219E-13  0.7603E-17  0.1000E-09  0.0000E+00  0.4418E+16
   -1.099990    1.85821  0.1501E-10  0.1219E-13  0.7603E-17  0.1000E-09  0.0000E+00  0.4216E+16
   -1.168742    1.98429  0.1498E-10  0.1219E-13  0.7603E-17  0.1000E-09  0.0000E+00  0.4004E+16
   -1.237495    2.11213  0.1493E-10  0.4190E-13  0.8288E-17  0.1000E-09  0.0000E+00  0.3780E+16
   -1.306247    2.24167  0.1487E-10  0.1241E-12  0.1871E-16  0.1000E-09  0.0000E+00  0.3544E+16
   -1.374999    2.37282  0.1481E-10  0.3247E-12  0.4578E-16  0.1000E-09  0.0000E+00  0.3299E+16
   -1.443751    2.50563  0.1475E-10  0.8150E-12  0.1110E-15  0.1000E-09  0.0000E+00  0.3043E+16
   -1.512503    2.63998  0.1471E-10  0.2007E-11  0.2653E-15  0.1000E-09  0.0000E+00  0.2774E+16
   -1.581256    2.77572  0.1468E-10  0.4877E-11  0.6266E-15  0.1000E-09  0.0000E+00  0.2495E+16
   -1.650008    2.91263  0.1467E-10  0.1171E-10  0.1463E-14  0.1000E-09  0.0000E+00  0.2205E+16
   -1.718759    3.05050  0.1466E-10  0.2780E-10  0.3378E-14  0.1000E-09  0.0000E+00  0.1908E+16
   -1.787511    3.18915  0.1465E-10  0.6689E-10  0.7906E-14  0.1000E-09  0.0000E+00  0.1622E+16
   -1.856263    3.33000  0.1464E-10  0.1620E-09  0.1863E-13  0.1000E-09  0.0000E+00  0.1324E+16
   -1.925014    3.47317  0.1463E-10  0.3908E-09  0.4377E-13  0.2202E-09  0.0000E+00  0.1011E+16
   -1.993765    3.61869  0.1461E-10  0.9389E-09  0.1024E-12  0.7654E-09  0.0000E+00  0.6806E+15
   -2.062516    3.76572  0.1459E-10  0.2191E-08  0.2330E-12  0.3528E-08  0.0000E+00  0.3357E+15
   -2.131266    3.90949  0.1459E-10  0.4892E-08  0.5092E-12  0.6190E-07  0.0000E+00  0.4140E+14
   -2.200016    4.01117  0.1459E-10  0.5934E-08  0.6225E-12  0.2436E-04  0.0000E+00 -0.3329E+12
   -2.268766    4.01202  0.1459E-10  0.6342E-08  0.6811E-12  0.2447E-04  0.0000E+00 -0.3435E+12
   -2.337515    4.01285  0.1459E-10  0.6646E-08  0.7462E-12  0.2360E-04  0.0000E+00 -0.3696E+12
   -2.406263    4.01373  0.1459E-10  0.6849E-08  0.8272E-12  0.2165E-04  0.0000E+00 -0.4196E+12
   -2.475011    4.01469  0.1459E-10  0.6939E-08  0.9425E-12  0.1843E-04  0.0000E+00 -0.5169E+12
   -2.543759    4.01583  0.1459E-10  0.6871E-08  0.1140E-11  0.1374E-04  0.0000E+00 -0.7379E+12
   -2.612506    4.01738  0.1459E-10  0.6494E-08  0.1610E-11  0.7490E-05  0.0000E+00 -0.1500E+13
   -2.681252    4.02033  0.1459E-10  0.4776E-08  0.4284E-11  0.1103E-05  0.0000E+00 -0.1433E+14
   -2.749998    4.04097  0.1459E-10  0.0000E+00  0.0000E+00  0.0000E+00  0.0000E+00  0.0000E+00
