 1 - depth, m
 2 - temperature, C
 3 - salinity, kg/kg
 4 - turbulent kinetic energy, m**2/s**2
 5 - dissipation rate, m**2/s**3
 6 - kinematic heat conductance, m**2/s
 7 - modulus of horizontal velocity, m/s
 8 - Richardson number, n/d
   -0.000000   -0.00000  0.2203E-10  0.1219E-13  0.7603E-17  0.1000E-09  0.0000E+00  0.4659E+16
   -0.068746    0.07056  0.1184E-10  0.1219E-13  0.7603E-17  0.1000E-09  0.0000E+00  0.4462E+16
   -0.137492    0.13944  0.9361E-11  0.1219E-13  0.7603E-17  0.1000E-09  0.0000E+00  0.4311E+16
   -0.206239    0.20725  0.8810E-11  0.1219E-13  0.7603E-17  0.1000E-09  0.0000E+00  0.4201E+16
   -0.274986    0.27460  0.8701E-11  0.1219E-13  0.7603E-17  0.1000E-09  0.0000E+00  0.4130E+16
   -0.343734    0.34210  0.8682E-11  0.1219E-13  0.7603E-17  0.1000E-09  0.0000E+00  0.4097E+16
   -0.412483    0.41040  0.8680E-11  0.1219E-13  0.7603E-17  0.1000E-09  0.0000E+00  0.4098E+16
   -0.481232    0.48012  0.8679E-11  0.1219E-13  0.7603E-17  0.1000E-09  0.0000E+00  0.4130E+16
   -0.549982    0.55193  0.8679E-11  0.1219E-13  0.7603E-17  0.1000E-09  0.0000E+00  0.4192E+16
   -0.618731    0.62647  0.8679E-11  0.1219E-13  0.7603E-17  0.1000E-09  0.0000E+00  0.4280E+16
   -0.687482    0.70441  0.8679E-11  0.1219E-13  0.7603E-17  0.1000E-09  0.0000E+00  0.4404E+16
   -0.756232    0.78672  0.8679E-11  0.1219E-13  0.7603E-17  0.1000E-09  0.0000E+00  0.4553E+16
   -0.824983    0.87422  0.8679E-11  0.1219E-13  0.7603E-17  0.1000E-09  0.0000E+00  0.4711E+16
   -0.893734    0.96756  0.8679E-11  0.1219E-13  0.7603E-17  0.1000E-09  0.0000E+00  0.4869E+16
   -0.962486    1.06734  0.8679E-11  0.1219E-13  0.7603E-17  0.1000E-09  0.0000E+00  0.5021E+16
   -1.031238    1.17413  0.8678E-11  0.1219E-13  0.7603E-17  0.1000E-09  0.0000E+00  0.5158E+16
   -1.099989    1.28845  0.8676E-11  0.1219E-13  0.7603E-17  0.1000E-09  0.0000E+00  0.5272E+16
   -1.168741    1.41076  0.8668E-11  0.4675E-13  0.9784E-17  0.1000E-09  0.0000E+00  0.5351E+16
   -1.237493    1.54145  0.8649E-11  0.1431E-12  0.2409E-16  0.1000E-09  0.0000E+00  0.5388E+16
   -1.306246    1.68083  0.8611E-11  0.3917E-12  0.6231E-16  0.1000E-09  0.0000E+00  0.5372E+16
   -1.374998    1.82910  0.8559E-11  0.1034E-11  0.1590E-15  0.1000E-09  0.0000E+00  0.5311E+16
   -1.443750    1.98687  0.8510E-11  0.2680E-11  0.4000E-15  0.1000E-09  0.0000E+00  0.5180E+16
   -1.512502    2.15427  0.8480E-11  0.6854E-11  0.9935E-15  0.1000E-09  0.0000E+00  0.4967E+16
   -1.581254    2.33110  0.8465E-11  0.1731E-10  0.2437E-14  0.1000E-09  0.0000E+00  0.4665E+16
   -1.650006    2.51704  0.8456E-11  0.4318E-10  0.5909E-14  0.1000E-09  0.0000E+00  0.4274E+16
   -1.718758    2.71157  0.8450E-11  0.1064E-09  0.1416E-13  0.1000E-09  0.0000E+00  0.3793E+16
   -1.787510    2.91410  0.8447E-11  0.2660E-09  0.3441E-13  0.1000E-09  0.0000E+00  0.3253E+16
   -1.856261    3.12569  0.8444E-11  0.6685E-09  0.8411E-13  0.1631E-09  0.0000E+00  0.2625E+16
   -1.925012    3.34638  0.8442E-11  0.1673E-08  0.2048E-12  0.5475E-09  0.0000E+00  0.1904E+16
   -1.993763    3.57588  0.8433E-11  0.4161E-08  0.4961E-12  0.2330E-08  0.0000E+00  0.1084E+16
   -2.062514    3.81112  0.8416E-11  0.9927E-08  0.1155E-11  0.2517E-07  0.0000E+00  0.2338E+15
   -2.131264    4.01654  0.8413E-11  0.1136E-07  0.1330E-11  0.3999E-04  0.0000E+00 -0.4074E+12
   -2.200014    4.01739  0.8413E-11  0.1193E-07  0.1421E-11  0.4031E-04  0.0000E+00 -0.4174E+12
   -2.268764    4.01823  0.8413E-11  0.1236E-07  0.1520E-11  0.3949E-04  0.0000E+00 -0.4402E+12
   -2.337513    4.01910  0.8413E-11  0.1268E-07  0.1640E-11  0.3739E-04  0.0000E+00 -0.4811E+12
   -2.406261    4.02003  0.8413E-11  0.1287E-07  0.1799E-11  0.3384E-04  0.0000E+00 -0.5520E+12
   -2.475009    4.02106  0.8413E-11  0.1291E-07  0.2034E-11  0.2856E-04  0.0000E+00 -0.6840E+12
   -2.543757    4.02229  0.8413E-11  0.1272E-07  0.2446E-11  0.2125E-04  0.0000E+00 -0.9746E+12
   -2.612504    4.02398  0.8413E-11  0.1205E-07  0.3431E-11  0.1177E-04  0.0000E+00 -0.1939E+13
   -2.681250    4.02714  0.8412E-11  0.8984E-08  0.9438E-11  0.1714E-05  0.0000E+00 -0.1877E+14
   -2.749996    4.05006  0.8412E-11  0.0000E+00  0.0000E+00  0.0000E+00  0.0000E+00  0.0000E+00
