 1 - depth, m
 2 - temperature, C
 3 - salinity, kg/kg
 4 - turbulent kinetic energy, m**2/s**2
 5 - dissipation rate, m**2/s**3
 6 - kinematic heat conductance, m**2/s
 7 - modulus of horizontal velocity, m/s
 8 - Richardson number, n/d
   -0.000000   -0.00000  0.4423E-11  0.1219E-13  0.7603E-17  0.1000E-09  0.6807E-68  0.3835E+16
   -0.068746    0.05798  0.2637E-11  0.1219E-13  0.7603E-17  0.1000E-09  0.5455E-68  0.3465E+16
   -0.137492    0.11117  0.2283E-11  0.1219E-13  0.7603E-17  0.1000E-09  0.4435E-68  0.3076E+16
   -0.206239    0.15904  0.2219E-11  0.1219E-13  0.7603E-17  0.1000E-09  0.3677E-68  0.2685E+16
   -0.274987    0.20136  0.2210E-11  0.1219E-13  0.7603E-17  0.1000E-09  0.3084E-68  0.2309E+16
   -0.343735    0.23815  0.2209E-11  0.1219E-13  0.7603E-17  0.1000E-09  0.2590E-68  0.1964E+16
   -0.412483    0.26976  0.2209E-11  0.1219E-13  0.7603E-17  0.1000E-09  0.2163E-68  0.1666E+16
   -0.481233    0.29679  0.2209E-11  0.1219E-13  0.7603E-17  0.1000E-09  0.1792E-68  0.1426E+16
   -0.549982    0.32010  0.2209E-11  0.1219E-13  0.7603E-17  0.1000E-09  0.1471E-68  0.1256E+16
   -0.618732    0.34077  0.2209E-11  0.1219E-13  0.7603E-17  0.1000E-09  0.1198E-68  0.1164E+16
   -0.687482    0.36003  0.2209E-11  0.1219E-13  0.7603E-17  0.1000E-09  0.9688E-69  0.1170E+16
   -0.756233    0.37950  0.2209E-11  0.1219E-13  0.7603E-17  0.1000E-09  0.7778E-69  0.1276E+16
   -0.824984    0.40087  0.2209E-11  0.1219E-13  0.7603E-17  0.1000E-09  0.6203E-69  0.1481E+16
   -0.893735    0.42584  0.2209E-11  0.1219E-13  0.7603E-17  0.1000E-09  0.4915E-69  0.1789E+16
   -0.962487    0.45625  0.2209E-11  0.1219E-13  0.7603E-17  0.1000E-09  0.3870E-69  0.2201E+16
   -1.031239    0.49405  0.2209E-11  0.1219E-13  0.7603E-17  0.1000E-09  0.3026E-69  0.2715E+16
   -1.099991    0.54129  0.2209E-11  0.1219E-13  0.7603E-17  0.1000E-09  0.2351E-69  0.3324E+16
   -1.168743    0.60006  0.2208E-11  0.1219E-13  0.7603E-17  0.1000E-09  0.1813E-69  0.4014E+16
   -1.237495    0.67249  0.2207E-11  0.1219E-13  0.7603E-17  0.1000E-09  0.1386E-69  0.4761E+16
   -1.306247    0.76064  0.2202E-11  0.1219E-13  0.7603E-17  0.1000E-09  0.1050E-69  0.5537E+16
   -1.374999    0.86647  0.2188E-11  0.1219E-13  0.7603E-17  0.1000E-09  0.7845E-70  0.6355E+16
   -1.443752    0.99276  0.2168E-11  0.3791E-13  0.9591E-17  0.1000E-09  0.5753E-70  0.7123E+16
   -1.512504    1.14133  0.2159E-11  0.1248E-12  0.2605E-16  0.1000E-09  0.4088E-70  0.7769E+16
   -1.581256    1.31324  0.2156E-11  0.3777E-12  0.7492E-16  0.1000E-09  0.2741E-70  0.8237E+16
   -1.650008    1.50911  0.2153E-11  0.1109E-11  0.2125E-15  0.1000E-09  0.1615E-70  0.8475E+16
   -1.718760    1.72910  0.2152E-11  0.3197E-11  0.5932E-15  0.1000E-09  0.6232E-71  0.8423E+16
   -1.787512    1.97238  0.2151E-11  0.9333E-11  0.1677E-14  0.1000E-09  0.4222E-72  0.7788E+16
   -1.856263    2.22812  0.2150E-11  0.2728E-10  0.4752E-14  0.1000E-09  0.2635E-73  0.6982E+16
   -1.925014    2.49541  0.2150E-11  0.7911E-10  0.1336E-13  0.1000E-09  0.1502E-74  0.6011E+16
   -1.993765    2.77314  0.2150E-11  0.2278E-09  0.3733E-13  0.1000E-09  0.9320E-76  0.4917E+16
   -2.062516    3.06182  0.2149E-11  0.6352E-09  0.1011E-12  0.1385E-09  0.7518E-77  0.3727E+16
   -2.131267    3.36598  0.2147E-11  0.1746E-08  0.2697E-12  0.5972E-09  0.5675E-78  0.2311E+16
   -2.200016    3.68287  0.2140E-11  0.4734E-08  0.7110E-12  0.5060E-08  0.3981E-79  0.7226E+15
   -2.268766    3.99968  0.2135E-11  0.6585E-08  0.9985E-12  0.1630E-04  0.1618E-80 -0.6538E+12
   -2.337515    4.00257  0.2135E-11  0.7395E-08  0.1174E-11  0.1780E-04  0.2995E-81 -0.7238E+12
   -2.406264    4.00523  0.2135E-11  0.8051E-08  0.1388E-11  0.1773E-04  0.5485E-82 -0.8521E+12
   -2.475012    4.00794  0.2135E-11  0.8554E-08  0.1681E-11  0.1608E-04  0.9061E-83 -0.1096E+13
   -2.543760    4.01098  0.2135E-11  0.8862E-08  0.2160E-11  0.1271E-04  0.1253E-83 -0.1641E+13
   -2.612507    4.01493  0.2135E-11  0.8823E-08  0.3235E-11  0.7553E-05  0.1175E-84 -0.3499E+13
   -2.681253    4.02190  0.2135E-11  0.7592E-08  0.8605E-11  0.1700E-05  0.5235E-86 -0.2858E+14
   -2.749999    4.05644  0.2135E-11  0.0000E+00  0.0000E+00  0.0000E+00  0.5563E-86  0.0000E+00
