 1 - depth, m
 2 - temperature, C
 3 - salinity, kg/kg
 4 - turbulent kinetic energy, m**2/s**2
 5 - dissipation rate, m**2/s**3
 6 - kinematic heat conductance, m**2/s
 7 - modulus of horizontal velocity, m/s
 8 - Richardson number, n/d
   -0.000000   -0.00000  0.1128E-09  0.1219E-13  0.7603E-17  0.1000E-09  0.0000E+00  0.4970E+16
   -0.068746    0.07532  0.6239E-10  0.1219E-13  0.7603E-17  0.1000E-09  0.0000E+00  0.4791E+16
   -0.137492    0.14943  0.4791E-10  0.1219E-13  0.7603E-17  0.1000E-09  0.0000E+00  0.4646E+16
   -0.206239    0.22277  0.4449E-10  0.1219E-13  0.7603E-17  0.1000E-09  0.0000E+00  0.4532E+16
   -0.274987    0.29580  0.4377E-10  0.1219E-13  0.7603E-17  0.1000E-09  0.0000E+00  0.4447E+16
   -0.343735    0.36899  0.4364E-10  0.1219E-13  0.7603E-17  0.1000E-09  0.0000E+00  0.4388E+16
   -0.412483    0.44278  0.4362E-10  0.1219E-13  0.7603E-17  0.1000E-09  0.0000E+00  0.4353E+16
   -0.481232    0.51764  0.4361E-10  0.1219E-13  0.7603E-17  0.1000E-09  0.0000E+00  0.4340E+16
   -0.549982    0.59402  0.4361E-10  0.1219E-13  0.7603E-17  0.1000E-09  0.0000E+00  0.4344E+16
   -0.618732    0.67233  0.4361E-10  0.1219E-13  0.7603E-17  0.1000E-09  0.0000E+00  0.4364E+16
   -0.687482    0.75301  0.4361E-10  0.1219E-13  0.7603E-17  0.1000E-09  0.0000E+00  0.4408E+16
   -0.756233    0.83674  0.4361E-10  0.1219E-13  0.7603E-17  0.1000E-09  0.0000E+00  0.4467E+16
   -0.824984    0.92404  0.4361E-10  0.1219E-13  0.7603E-17  0.1000E-09  0.0000E+00  0.4527E+16
   -0.893735    1.01527  0.4361E-10  0.1219E-13  0.7603E-17  0.1000E-09  0.0000E+00  0.4583E+16
   -0.962486    1.11072  0.4361E-10  0.1219E-13  0.7603E-17  0.1000E-09  0.0000E+00  0.4630E+16
   -1.031238    1.21065  0.4361E-10  0.1219E-13  0.7603E-17  0.1000E-09  0.0000E+00  0.4664E+16
   -1.099990    1.31528  0.4360E-10  0.1219E-13  0.7603E-17  0.1000E-09  0.0000E+00  0.4680E+16
   -1.168742    1.42476  0.4359E-10  0.1219E-13  0.7603E-17  0.1000E-09  0.0000E+00  0.4674E+16
   -1.237494    1.53918  0.4355E-10  0.1219E-13  0.7603E-17  0.1000E-09  0.0000E+00  0.4640E+16
   -1.306246    1.65857  0.4346E-10  0.1219E-13  0.7603E-17  0.1000E-09  0.0000E+00  0.4577E+16
   -1.374999    1.78291  0.4330E-10  0.1219E-13  0.7603E-17  0.1000E-09  0.0000E+00  0.4490E+16
   -1.443751    1.91241  0.4311E-10  0.1219E-13  0.7603E-17  0.1000E-09  0.0000E+00  0.4369E+16
   -1.512503    2.04700  0.4292E-10  0.1219E-13  0.7603E-17  0.1000E-09  0.0000E+00  0.4207E+16
   -1.581255    2.18641  0.4280E-10  0.1219E-13  0.7603E-17  0.1000E-09  0.0000E+00  0.4005E+16
   -1.650007    2.33031  0.4274E-10  0.2055E-13  0.7603E-17  0.1000E-09  0.0000E+00  0.3761E+16
   -1.718759    2.47830  0.4271E-10  0.7701E-13  0.2027E-16  0.1000E-09  0.0000E+00  0.3480E+16
   -1.787511    2.62989  0.4269E-10  0.2695E-12  0.6633E-16  0.1000E-09  0.0000E+00  0.3164E+16
   -1.856262    2.78459  0.4268E-10  0.9184E-12  0.2174E-15  0.1000E-09  0.0000E+00  0.2821E+16
   -1.925013    2.94211  0.4266E-10  0.3079E-11  0.7033E-15  0.1000E-09  0.0000E+00  0.2454E+16
   -1.993764    3.10213  0.4264E-10  0.1019E-10  0.2249E-14  0.1000E-09  0.0000E+00  0.2065E+16
   -2.062515    3.26413  0.4259E-10  0.3252E-10  0.6933E-14  0.1000E-09  0.0000E+00  0.1655E+16
   -2.131265    3.42745  0.4250E-10  0.1019E-09  0.2100E-13  0.1000E-09  0.0000E+00  0.1235E+16
   -2.200015    3.59153  0.4236E-10  0.3147E-09  0.6276E-13  0.3948E-09  0.0000E+00  0.8073E+15
   -2.268765    3.75543  0.4224E-10  0.9666E-09  0.1866E-12  0.2482E-08  0.0000E+00  0.3809E+15
   -2.337514    3.91700  0.4220E-10  0.2855E-08  0.5365E-12  0.8761E-07  0.0000E+00  0.2961E+14
   -2.406263    4.01834  0.4220E-10  0.4793E-08  0.9155E-12  0.1088E-04  0.0000E+00 -0.1106E+13
   -2.475011    4.02048  0.4220E-10  0.5495E-08  0.1134E-11  0.1057E-04  0.0000E+00 -0.1247E+13
   -2.543758    4.02273  0.4220E-10  0.5895E-08  0.1440E-11  0.8778E-05  0.0000E+00 -0.1677E+13
   -2.612505    4.02556  0.4220E-10  0.5924E-08  0.2084E-11  0.5393E-05  0.0000E+00 -0.3254E+13
   -2.681251    4.03054  0.4220E-10  0.4974E-08  0.5194E-11  0.1202E-05  0.0000E+00 -0.2410E+14
   -2.749997    4.05727  0.4220E-10  0.0000E+00  0.0000E+00  0.0000E+00  0.0000E+00  0.0000E+00
