 1 - depth, m
 2 - temperature, C
 3 - salinity, kg/kg
 4 - turbulent kinetic energy, m**2/s**2
 5 - dissipation rate, m**2/s**3
 6 - kinematic heat conductance, m**2/s
 7 - modulus of horizontal velocity, m/s
 8 - Richardson number, n/d
   -0.000000   -0.00000  0.3192E-10  0.1219E-13  0.7603E-17  0.1000E-09  0.0000E+00  0.7666E+16
   -0.068746    0.11682  0.2004E-10  0.1219E-13  0.7603E-17  0.1000E-09  0.0000E+00  0.7371E+16
   -0.137492    0.23282  0.1442E-10  0.1219E-13  0.7603E-17  0.1000E-09  0.0000E+00  0.7094E+16
   -0.206239    0.34818  0.1230E-10  0.1219E-13  0.7603E-17  0.1000E-09  0.0000E+00  0.6833E+16
   -0.274987    0.46309  0.1161E-10  0.1219E-13  0.7603E-17  0.1000E-09  0.0000E+00  0.6586E+16
   -0.343735    0.57775  0.1142E-10  0.1219E-13  0.7603E-17  0.1000E-09  0.0000E+00  0.6352E+16
   -0.412483    0.69232  0.1137E-10  0.1219E-13  0.7603E-17  0.1000E-09  0.0000E+00  0.6128E+16
   -0.481232    0.80699  0.1136E-10  0.1219E-13  0.7603E-17  0.1000E-09  0.0000E+00  0.5913E+16
   -0.549982    0.92192  0.1136E-10  0.1219E-13  0.7603E-17  0.1000E-09  0.0000E+00  0.5704E+16
   -0.618732    1.03727  0.1136E-10  0.1219E-13  0.7603E-17  0.1000E-09  0.0000E+00  0.5501E+16
   -0.687482    1.15318  0.1136E-10  0.1219E-13  0.7603E-17  0.1000E-09  0.0000E+00  0.5310E+16
   -0.756233    1.26998  0.1136E-10  0.1219E-13  0.7603E-17  0.1000E-09  0.0000E+00  0.5124E+16
   -0.824984    1.38791  0.1136E-10  0.1219E-13  0.7603E-17  0.1000E-09  0.0000E+00  0.4937E+16
   -0.893735    1.50706  0.1135E-10  0.1219E-13  0.7603E-17  0.1000E-09  0.0000E+00  0.4746E+16
   -0.962487    1.62751  0.1135E-10  0.1219E-13  0.7603E-17  0.1000E-09  0.0000E+00  0.4550E+16
   -1.031239    1.74932  0.1135E-10  0.1219E-13  0.7603E-17  0.1000E-09  0.0000E+00  0.4348E+16
   -1.099990    1.87252  0.1134E-10  0.1219E-13  0.7603E-17  0.1000E-09  0.0000E+00  0.4138E+16
   -1.168742    1.99712  0.1133E-10  0.1219E-13  0.7603E-17  0.1000E-09  0.0000E+00  0.3921E+16
   -1.237495    2.12312  0.1130E-10  0.4697E-13  0.8545E-17  0.1000E-09  0.0000E+00  0.3695E+16
   -1.306247    2.25048  0.1126E-10  0.1359E-12  0.1872E-16  0.1000E-09  0.0000E+00  0.3460E+16
   -1.374999    2.37913  0.1122E-10  0.3434E-12  0.4413E-16  0.1000E-09  0.0000E+00  0.3219E+16
   -1.443751    2.50913  0.1118E-10  0.8301E-12  0.1030E-15  0.1000E-09  0.0000E+00  0.2969E+16
   -1.512503    2.64041  0.1115E-10  0.1969E-11  0.2373E-15  0.1000E-09  0.0000E+00  0.2709E+16
   -1.581256    2.77283  0.1113E-10  0.4608E-11  0.5405E-15  0.1000E-09  0.0000E+00  0.2441E+16
   -1.650008    2.90625  0.1112E-10  0.1067E-10  0.1218E-14  0.1000E-09  0.0000E+00  0.2165E+16
   -1.718760    3.04049  0.1111E-10  0.2442E-10  0.2715E-14  0.1000E-09  0.0000E+00  0.1883E+16
   -1.787511    3.17542  0.1110E-10  0.5670E-10  0.6136E-14  0.1000E-09  0.0000E+00  0.1612E+16
   -1.856263    3.31238  0.1110E-10  0.1326E-09  0.1397E-13  0.1000E-09  0.0000E+00  0.1330E+16
   -1.925014    3.45151  0.1109E-10  0.3092E-09  0.3175E-13  0.1560E-09  0.0000E+00  0.1036E+16
   -1.993765    3.59295  0.1107E-10  0.7187E-09  0.7195E-13  0.5046E-09  0.0000E+00  0.7253E+15
   -2.062516    3.73611  0.1105E-10  0.1626E-08  0.1588E-12  0.2025E-08  0.0000E+00  0.3988E+15
   -2.131266    3.87753  0.1104E-10  0.3598E-08  0.3432E-12  0.1921E-07  0.0000E+00  0.9055E+14
   -2.200016    4.00316  0.1104E-10  0.4465E-08  0.4292E-12  0.1955E-04  0.0000E+00 -0.2771E+12
   -2.268766    4.00418  0.1104E-10  0.4812E-08  0.4747E-12  0.1993E-04  0.0000E+00 -0.2882E+12
   -2.337515    4.00518  0.1104E-10  0.5076E-08  0.5256E-12  0.1941E-04  0.0000E+00 -0.3134E+12
   -2.406263    4.00622  0.1104E-10  0.5260E-08  0.5890E-12  0.1790E-04  0.0000E+00 -0.3604E+12
   -2.475011    4.00734  0.1104E-10  0.5352E-08  0.6790E-12  0.1526E-04  0.0000E+00 -0.4516E+12
   -2.543759    4.00867  0.1104E-10  0.5316E-08  0.8328E-12  0.1133E-04  0.0000E+00 -0.6604E+12
   -2.612506    4.01048  0.1104E-10  0.5025E-08  0.1199E-11  0.6085E-05  0.0000E+00 -0.1399E+13
   -2.681252    4.01393  0.1104E-10  0.3708E-08  0.3203E-11  0.9188E-06  0.0000E+00 -0.1386E+14
   -2.749998    4.03664  0.1104E-10  0.0000E+00  0.0000E+00  0.0000E+00  0.0000E+00  0.0000E+00
