 1 - depth, m
 2 - temperature, C
 3 - salinity, kg/kg
 4 - turbulent kinetic energy, m**2/s**2
 5 - dissipation rate, m**2/s**3
 6 - kinematic heat conductance, m**2/s
 7 - modulus of horizontal velocity, m/s
 8 - Richardson number, n/d
   -0.000000   -0.00000  0.1118E-09  0.1219E-13  0.7603E-17  0.1000E-09  0.0000E+00  0.4596E+16
   -0.068746    0.06960  0.6005E-10  0.1219E-13  0.7603E-17  0.1000E-09  0.0000E+00  0.4421E+16
   -0.137492    0.13782  0.4718E-10  0.1219E-13  0.7603E-17  0.1000E-09  0.0000E+00  0.4281E+16
   -0.206239    0.20513  0.4431E-10  0.1219E-13  0.7603E-17  0.1000E-09  0.0000E+00  0.4175E+16
   -0.274987    0.27202  0.4373E-10  0.1219E-13  0.7603E-17  0.1000E-09  0.0000E+00  0.4100E+16
   -0.343735    0.33898  0.4363E-10  0.1219E-13  0.7603E-17  0.1000E-09  0.0000E+00  0.4056E+16
   -0.412483    0.40653  0.4361E-10  0.1219E-13  0.7603E-17  0.1000E-09  0.0000E+00  0.4039E+16
   -0.481232    0.47517  0.4361E-10  0.1219E-13  0.7603E-17  0.1000E-09  0.0000E+00  0.4047E+16
   -0.549982    0.54540  0.4361E-10  0.1219E-13  0.7603E-17  0.1000E-09  0.0000E+00  0.4078E+16
   -0.618732    0.61773  0.4361E-10  0.1219E-13  0.7603E-17  0.1000E-09  0.0000E+00  0.4127E+16
   -0.687482    0.69266  0.4361E-10  0.1219E-13  0.7603E-17  0.1000E-09  0.0000E+00  0.4207E+16
   -0.756233    0.77093  0.4361E-10  0.1219E-13  0.7603E-17  0.1000E-09  0.0000E+00  0.4306E+16
   -0.824984    0.85319  0.4361E-10  0.1219E-13  0.7603E-17  0.1000E-09  0.0000E+00  0.4410E+16
   -0.893735    0.93985  0.4361E-10  0.1219E-13  0.7603E-17  0.1000E-09  0.0000E+00  0.4513E+16
   -0.962487    1.03129  0.4361E-10  0.1219E-13  0.7603E-17  0.1000E-09  0.0000E+00  0.4609E+16
   -1.031238    1.12786  0.4361E-10  0.1219E-13  0.7603E-17  0.1000E-09  0.0000E+00  0.4694E+16
   -1.099990    1.22984  0.4361E-10  0.1219E-13  0.7603E-17  0.1000E-09  0.0000E+00  0.4760E+16
   -1.168742    1.33748  0.4359E-10  0.1219E-13  0.7603E-17  0.1000E-09  0.0000E+00  0.4804E+16
   -1.237494    1.45093  0.4356E-10  0.1219E-13  0.7603E-17  0.1000E-09  0.0000E+00  0.4818E+16
   -1.306246    1.57029  0.4348E-10  0.1219E-13  0.7603E-17  0.1000E-09  0.0000E+00  0.4797E+16
   -1.374999    1.69558  0.4333E-10  0.1219E-13  0.7603E-17  0.1000E-09  0.0000E+00  0.4751E+16
   -1.443751    1.82709  0.4312E-10  0.1219E-13  0.7603E-17  0.1000E-09  0.0000E+00  0.4664E+16
   -1.512503    1.96481  0.4292E-10  0.1219E-13  0.7603E-17  0.1000E-09  0.0000E+00  0.4527E+16
   -1.581255    2.10847  0.4280E-10  0.1219E-13  0.7603E-17  0.1000E-09  0.0000E+00  0.4340E+16
   -1.650007    2.25772  0.4274E-10  0.2270E-13  0.7603E-17  0.1000E-09  0.0000E+00  0.4101E+16
   -1.718759    2.41211  0.4271E-10  0.8132E-13  0.2103E-16  0.1000E-09  0.0000E+00  0.3813E+16
   -1.787511    2.57110  0.4269E-10  0.2811E-12  0.6849E-16  0.1000E-09  0.0000E+00  0.3473E+16
   -1.856262    2.73382  0.4268E-10  0.9521E-12  0.2234E-15  0.1000E-09  0.0000E+00  0.3100E+16
   -1.925013    2.89989  0.4267E-10  0.3177E-11  0.7195E-15  0.1000E-09  0.0000E+00  0.2696E+16
   -1.993764    3.06893  0.4264E-10  0.1047E-10  0.2291E-14  0.1000E-09  0.0000E+00  0.2263E+16
   -2.062515    3.24039  0.4260E-10  0.3327E-10  0.7034E-14  0.1000E-09  0.0000E+00  0.1808E+16
   -2.131265    3.41363  0.4251E-10  0.1038E-09  0.2123E-13  0.1000E-09  0.0000E+00  0.1337E+16
   -2.200015    3.58800  0.4237E-10  0.3194E-09  0.6319E-13  0.3757E-09  0.0000E+00  0.8544E+15
   -2.268765    3.76244  0.4224E-10  0.9774E-09  0.1872E-12  0.2548E-08  0.0000E+00  0.3723E+15
   -2.337514    3.93438  0.4219E-10  0.2795E-08  0.5229E-12  0.1645E-06  0.0000E+00  0.1463E+14
   -2.406263    4.01512  0.4219E-10  0.4665E-08  0.8928E-12  0.1049E-04  0.0000E+00 -0.1107E+13
   -2.475011    4.01748  0.4219E-10  0.5381E-08  0.1118E-11  0.1024E-04  0.0000E+00 -0.1260E+13
   -2.543758    4.01996  0.4219E-10  0.5803E-08  0.1433E-11  0.8528E-05  0.0000E+00 -0.1714E+13
   -2.612505    4.02307  0.4219E-10  0.5864E-08  0.2100E-11  0.5251E-05  0.0000E+00 -0.3372E+13
   -2.681252    4.02852  0.4219E-10  0.5000E-08  0.5284E-11  0.1211E-05  0.0000E+00 -0.2498E+14
   -2.749997    4.05683  0.4219E-10  0.0000E+00  0.0000E+00  0.0000E+00  0.0000E+00  0.0000E+00
