 1 - depth, m
 2 - temperature, C
 3 - salinity, kg/kg
 4 - turbulent kinetic energy, m**2/s**2
 5 - dissipation rate, m**2/s**3
 6 - kinematic heat conductance, m**2/s
 7 - modulus of horizontal velocity, m/s
 8 - Richardson number, n/d
   -0.000000   -0.00000  0.3019E-10  0.1219E-13  0.7603E-17  0.1000E-09  0.0000E+00  0.6168E+16
   -0.068746    0.09370  0.1782E-10  0.1219E-13  0.7603E-17  0.1000E-09  0.0000E+00  0.5957E+16
   -0.137492    0.18655  0.1311E-10  0.1219E-13  0.7603E-17  0.1000E-09  0.0000E+00  0.5773E+16
   -0.206239    0.27889  0.1177E-10  0.1219E-13  0.7603E-17  0.1000E-09  0.0000E+00  0.5612E+16
   -0.274987    0.37106  0.1144E-10  0.1219E-13  0.7603E-17  0.1000E-09  0.0000E+00  0.5474E+16
   -0.343735    0.46343  0.1137E-10  0.1219E-13  0.7603E-17  0.1000E-09  0.0000E+00  0.5357E+16
   -0.412483    0.55638  0.1136E-10  0.1219E-13  0.7603E-17  0.1000E-09  0.0000E+00  0.5258E+16
   -0.481233    0.65028  0.1136E-10  0.1219E-13  0.7603E-17  0.1000E-09  0.0000E+00  0.5174E+16
   -0.549982    0.74548  0.1136E-10  0.1219E-13  0.7603E-17  0.1000E-09  0.0000E+00  0.5102E+16
   -0.618732    0.84236  0.1136E-10  0.1219E-13  0.7603E-17  0.1000E-09  0.0000E+00  0.5040E+16
   -0.687482    0.94124  0.1136E-10  0.1219E-13  0.7603E-17  0.1000E-09  0.0000E+00  0.4996E+16
   -0.756233    1.04271  0.1136E-10  0.1219E-13  0.7603E-17  0.1000E-09  0.0000E+00  0.4960E+16
   -0.824984    1.14720  0.1136E-10  0.1219E-13  0.7603E-17  0.1000E-09  0.0000E+00  0.4920E+16
   -0.893735    1.25499  0.1136E-10  0.1219E-13  0.7603E-17  0.1000E-09  0.0000E+00  0.4872E+16
   -0.962487    1.36631  0.1136E-10  0.1219E-13  0.7603E-17  0.1000E-09  0.0000E+00  0.4813E+16
   -1.031239    1.48136  0.1135E-10  0.1219E-13  0.7603E-17  0.1000E-09  0.0000E+00  0.4739E+16
   -1.099991    1.60030  0.1135E-10  0.1219E-13  0.7603E-17  0.1000E-09  0.0000E+00  0.4647E+16
   -1.168743    1.72324  0.1134E-10  0.1219E-13  0.7603E-17  0.1000E-09  0.0000E+00  0.4534E+16
   -1.237495    1.85025  0.1132E-10  0.3185E-13  0.7603E-17  0.1000E-09  0.0000E+00  0.4396E+16
   -1.306247    1.98136  0.1129E-10  0.9970E-13  0.1633E-16  0.1000E-09  0.0000E+00  0.4232E+16
   -1.374999    2.11652  0.1124E-10  0.2709E-12  0.4084E-16  0.1000E-09  0.0000E+00  0.4046E+16
   -1.443752    2.25592  0.1120E-10  0.7006E-12  0.1017E-15  0.1000E-09  0.0000E+00  0.3831E+16
   -1.512504    2.39950  0.1116E-10  0.1774E-11  0.2498E-15  0.1000E-09  0.0000E+00  0.3583E+16
   -1.581256    2.54708  0.1113E-10  0.4427E-11  0.6055E-15  0.1000E-09  0.0000E+00  0.3304E+16
   -1.650008    2.69843  0.1112E-10  0.1091E-10  0.1450E-14  0.1000E-09  0.0000E+00  0.2993E+16
   -1.718760    2.85327  0.1111E-10  0.2658E-10  0.3434E-14  0.1000E-09  0.0000E+00  0.2654E+16
   -1.787512    3.01132  0.1110E-10  0.6561E-10  0.8240E-14  0.1000E-09  0.0000E+00  0.2304E+16
   -1.856263    3.17355  0.1110E-10  0.1629E-09  0.1989E-13  0.1000E-09  0.0000E+00  0.1925E+16
   -1.925014    3.34011  0.1110E-10  0.4026E-09  0.4785E-13  0.1606E-09  0.0000E+00  0.1516E+16
   -1.993765    3.51115  0.1109E-10  0.9906E-09  0.1146E-12  0.5457E-09  0.0000E+00  0.1068E+16
   -2.062516    3.68595  0.1106E-10  0.2368E-08  0.2668E-12  0.2326E-08  0.0000E+00  0.5834E+15
   -2.131267    3.85983  0.1104E-10  0.5511E-08  0.6062E-12  0.2539E-07  0.0000E+00  0.1210E+15
   -2.200017    4.01006  0.1104E-10  0.6677E-08  0.7401E-12  0.2553E-04  0.0000E+00 -0.3692E+12
   -2.268766    4.01103  0.1104E-10  0.7133E-08  0.8095E-12  0.2576E-04  0.0000E+00 -0.3819E+12
   -2.337515    4.01200  0.1104E-10  0.7476E-08  0.8876E-12  0.2494E-04  0.0000E+00 -0.4120E+12
   -2.406264    4.01300  0.1104E-10  0.7710E-08  0.9851E-12  0.2295E-04  0.0000E+00 -0.4689E+12
   -2.475012    4.01410  0.1104E-10  0.7820E-08  0.1124E-11  0.1961E-04  0.0000E+00 -0.5790E+12
   -2.543760    4.01540  0.1104E-10  0.7760E-08  0.1362E-11  0.1469E-04  0.0000E+00 -0.8275E+12
   -2.612507    4.01716  0.1104E-10  0.7363E-08  0.1926E-11  0.8102E-05  0.0000E+00 -0.1678E+13
   -2.681253    4.02046  0.1104E-10  0.5505E-08  0.5132E-11  0.1244E-05  0.0000E+00 -0.1582E+14
   -2.749999    4.04276  0.1104E-10  0.0000E+00  0.0000E+00  0.0000E+00  0.0000E+00  0.0000E+00
