 1 - depth, m
 2 - temperature, C
 3 - salinity, kg/kg
 4 - turbulent kinetic energy, m**2/s**2
 5 - dissipation rate, m**2/s**3
 6 - kinematic heat conductance, m**2/s
 7 - modulus of horizontal velocity, m/s
 8 - Richardson number, n/d
   -0.000000   -0.00000  0.1741E-11  0.6561E-05  0.2169E-06  0.1710E-04  0.2284E-01  0.1643E+17
   -0.068752    0.33800  0.1749E-11  0.5729E-05  0.1096E-06  0.2301E-04  0.1895E-01  0.9654E+16
   -0.137504    0.61537  0.1779E-11  0.5012E-05  0.7154E-07  0.2438E-04  0.1627E-01  0.4901E+16
   -0.206257    0.81816  0.3025E-11  0.4428E-05  0.5176E-07  0.2334E-04  0.1405E-01  0.1803E+16
   -0.275010    0.94177  0.6592E-11  0.3889E-05  0.3946E-07  0.4539E-03  0.1217E-01  0.7233E+14
   -0.343764    1.00834  0.7219E-11  0.3328E-05  0.3100E-07  0.2191E-02  0.1050E-01 -0.3570E+11
   -0.412518    1.06128  0.7457E-11  0.2821E-05  0.2475E-07  0.2182E-02  0.9066E-02 -0.6761E+11
   -0.481273    1.10883  0.7632E-11  0.2367E-05  0.1992E-07  0.2183E-02  0.7783E-02 -0.8107E+11
   -0.550029    1.15282  0.7774E-11  0.1961E-05  0.1604E-07  0.2186E-02  0.6620E-02 -0.8246E+11
   -0.618785    1.19425  0.7896E-11  0.1601E-05  0.1284E-07  0.2190E-02  0.5554E-02 -0.6937E+11
   -0.687541    1.23391  0.8003E-11  0.1287E-05  0.1015E-07  0.2194E-02  0.4572E-02 -0.4770E+11
   -0.756297    1.27192  0.8101E-11  0.1019E-05  0.7834E-08  0.2022E-02  0.3667E-02  0.1259E+14
   -0.825054    1.30821  0.8382E-11  0.7848E-06  0.5817E-08  0.1296E-02  0.2842E-02  0.2184E+15
   -0.893811    1.34676  0.9349E-11  0.5551E-06  0.4045E-08  0.4884E-04  0.2102E-02  0.6019E+15
   -0.962569    1.39186  0.1025E-10  0.3294E-06  0.2505E-08  0.4805E-06  0.1451E-02  0.8958E+15
   -1.031326    1.44806  0.1103E-10  0.1612E-06  0.1222E-08  0.1667E-06  0.8852E-03  0.1069E+16
   -1.100084    1.51822  0.1162E-10  0.6580E-07  0.3090E-09  0.3904E-07  0.4389E-03  0.1222E+16
   -1.168842    1.60356  0.1164E-10  0.3648E-07  0.1956E-10  0.1019E-07  0.1449E-03  0.1470E+16
   -1.237600    1.73584  0.1152E-10  0.7404E-07  0.2703E-10  0.1046E-07  0.3428E-04  0.2231E+16
   -1.306358    2.07276  0.1143E-10  0.2717E-06  0.9515E-10  0.3650E-07  0.7447E-05  0.4970E+16
   -1.375116    2.87058  0.1134E-10  0.4851E-06  0.1710E-09  0.1864E-03  0.2764E-06  0.8915E+16
   -1.443874    3.62035  0.1129E-10  0.6504E-06  0.2320E-09  0.4048E-03  0.1688E-06  0.5301E+16
   -1.512632    4.14109  0.1125E-10  0.7078E-06  0.2542E-09  0.5813E-03  0.1512E-06  0.5137E+15
   -1.581390    4.26369  0.1124E-10  0.7130E-06  0.2573E-09  0.6410E-03  0.1338E-06 -0.2123E+13
   -1.650148    4.26455  0.1124E-10  0.7167E-06  0.2604E-09  0.6378E-03  0.1179E-06 -0.2178E+13
   -1.718905    4.26543  0.1124E-10  0.7197E-06  0.2639E-09  0.6345E-03  0.1020E-06 -0.2159E+13
   -1.787663    4.26630  0.1124E-10  0.7220E-06  0.2680E-09  0.6290E-03  0.8729E-07 -0.2213E+13
   -1.856420    4.26719  0.1124E-10  0.7237E-06  0.2730E-09  0.6208E-03  0.7405E-07 -0.2271E+13
   -1.925177    4.26810  0.1124E-10  0.7248E-06  0.2791E-09  0.6084E-03  0.6314E-07 -0.2358E+13
   -1.993934    4.26904  0.1124E-10  0.7253E-06  0.2866E-09  0.5925E-03  0.5353E-07 -0.2450E+13
   -2.062691    4.27000  0.1124E-10  0.7249E-06  0.2955E-09  0.5742E-03  0.4560E-07 -0.2544E+13
   -2.131447    4.27100  0.1124E-10  0.7236E-06  0.3061E-09  0.5531E-03  0.3823E-07 -0.2649E+13
   -2.200203    4.27204  0.1124E-10  0.7214E-06  0.3189E-09  0.5290E-03  0.3182E-07 -0.2790E+13
   -2.268958    4.27313  0.1124E-10  0.7182E-06  0.3348E-09  0.5011E-03  0.2579E-07 -0.2962E+13
   -2.337713    4.27427  0.1124E-10  0.7135E-06  0.3560E-09  0.4679E-03  0.2067E-07 -0.3198E+13
   -2.406468    4.27550  0.1124E-10  0.7071E-06  0.3854E-09  0.4283E-03  0.1611E-07 -0.3520E+13
   -2.475222    4.27684  0.1124E-10  0.6982E-06  0.4293E-09  0.3804E-03  0.1231E-07 -0.4020E+13
   -2.543975    4.27836  0.1124E-10  0.6852E-06  0.5018E-09  0.3274E-03  0.9010E-08 -0.4761E+13
   -2.612728    4.28014  0.1124E-10  0.6589E-06  0.6802E-09  0.1798E-03  0.6360E-08 -0.9087E+13
   -2.681480    4.28341  0.1124E-10  0.4364E-06  0.2816E-08  0.9945E-05  0.3346E-08 -0.2006E+15
   -2.750232    4.34332  0.1124E-10  0.0000E+00  0.0000E+00  0.0000E+00  0.3214E-08  0.0000E+00
