 1 - depth, m
 2 - temperature, C
 3 - salinity, kg/kg
 4 - turbulent kinetic energy, m**2/s**2
 5 - dissipation rate, m**2/s**3
 6 - kinematic heat conductance, m**2/s
 7 - modulus of horizontal velocity, m/s
 8 - Richardson number, n/d
   -0.000000   -0.00000  0.2935E-10  0.1219E-13  0.7603E-17  0.1000E-09  0.0000E+00  0.4894E+16
   -0.068746    0.07415  0.1598E-10  0.1219E-13  0.7603E-17  0.1000E-09  0.0000E+00  0.4711E+16
   -0.137492    0.14697  0.1239E-10  0.1219E-13  0.7603E-17  0.1000E-09  0.0000E+00  0.4563E+16
   -0.206239    0.21894  0.1156E-10  0.1219E-13  0.7603E-17  0.1000E-09  0.0000E+00  0.4450E+16
   -0.274987    0.29056  0.1139E-10  0.1219E-13  0.7603E-17  0.1000E-09  0.0000E+00  0.4369E+16
   -0.343735    0.36235  0.1136E-10  0.1219E-13  0.7603E-17  0.1000E-09  0.0000E+00  0.4318E+16
   -0.412483    0.43482  0.1136E-10  0.1219E-13  0.7603E-17  0.1000E-09  0.0000E+00  0.4296E+16
   -0.481232    0.50850  0.1136E-10  0.1219E-13  0.7603E-17  0.1000E-09  0.0000E+00  0.4299E+16
   -0.549982    0.58393  0.1136E-10  0.1219E-13  0.7603E-17  0.1000E-09  0.0000E+00  0.4325E+16
   -0.618732    0.66164  0.1136E-10  0.1219E-13  0.7603E-17  0.1000E-09  0.0000E+00  0.4369E+16
   -0.687482    0.74215  0.1136E-10  0.1219E-13  0.7603E-17  0.1000E-09  0.0000E+00  0.4444E+16
   -0.756233    0.82625  0.1136E-10  0.1219E-13  0.7603E-17  0.1000E-09  0.0000E+00  0.4536E+16
   -0.824984    0.91458  0.1136E-10  0.1219E-13  0.7603E-17  0.1000E-09  0.0000E+00  0.4631E+16
   -0.893735    1.00763  0.1136E-10  0.1219E-13  0.7603E-17  0.1000E-09  0.0000E+00  0.4725E+16
   -0.962487    1.10583  0.1136E-10  0.1219E-13  0.7603E-17  0.1000E-09  0.0000E+00  0.4812E+16
   -1.031238    1.20956  0.1136E-10  0.1219E-13  0.7603E-17  0.1000E-09  0.0000E+00  0.4885E+16
   -1.099990    1.31919  0.1135E-10  0.1219E-13  0.7603E-17  0.1000E-09  0.0000E+00  0.4938E+16
   -1.168742    1.43502  0.1135E-10  0.1219E-13  0.7603E-17  0.1000E-09  0.0000E+00  0.4965E+16
   -1.237494    1.55729  0.1134E-10  0.1219E-13  0.7603E-17  0.1000E-09  0.0000E+00  0.4960E+16
   -1.306246    1.68619  0.1131E-10  0.4334E-13  0.8261E-17  0.1000E-09  0.0000E+00  0.4917E+16
   -1.374999    1.82184  0.1126E-10  0.1271E-12  0.1832E-16  0.1000E-09  0.0000E+00  0.4845E+16
   -1.443751    1.96472  0.1120E-10  0.3278E-12  0.4409E-16  0.1000E-09  0.0000E+00  0.4726E+16
   -1.512503    2.11496  0.1116E-10  0.8097E-12  0.1052E-15  0.1000E-09  0.0000E+00  0.4552E+16
   -1.581255    2.27247  0.1113E-10  0.1963E-11  0.2477E-15  0.1000E-09  0.0000E+00  0.4319E+16
   -1.650007    2.43711  0.1112E-10  0.4696E-11  0.5764E-15  0.1000E-09  0.0000E+00  0.4026E+16
   -1.718759    2.60866  0.1111E-10  0.1111E-10  0.1327E-14  0.1000E-09  0.0000E+00  0.3672E+16
   -1.787511    2.78686  0.1110E-10  0.2665E-10  0.3097E-14  0.1000E-09  0.0000E+00  0.3269E+16
   -1.856262    2.97209  0.1110E-10  0.6434E-10  0.7279E-14  0.1000E-09  0.0000E+00  0.2809E+16
   -1.925014    3.16458  0.1110E-10  0.1549E-09  0.1707E-13  0.1000E-09  0.0000E+00  0.2288E+16
   -1.993765    3.36459  0.1109E-10  0.3715E-09  0.3988E-13  0.1198E-09  0.0000E+00  0.1694E+16
   -2.062515    3.57160  0.1108E-10  0.8674E-09  0.9079E-13  0.4519E-09  0.0000E+00  0.1023E+16
   -2.131266    3.78126  0.1105E-10  0.1998E-08  0.2040E-12  0.3147E-08  0.0000E+00  0.3300E+15
   -2.200015    3.98864  0.1103E-10  0.2920E-08  0.3001E-12  0.7793E-05  0.0000E+00 -0.2493E+12
   -2.268765    3.99244  0.1103E-10  0.3426E-08  0.3716E-12  0.1086E-04  0.0000E+00 -0.3215E+12
   -2.337514    3.99518  0.1103E-10  0.3866E-08  0.4545E-12  0.1212E-04  0.0000E+00 -0.3913E+12
   -2.406263    3.99765  0.1103E-10  0.4242E-08  0.5577E-12  0.1209E-04  0.0000E+00 -0.4931E+12
   -2.475011    4.00015  0.1103E-10  0.4544E-08  0.7006E-12  0.1086E-04  0.0000E+00 -0.6726E+12
   -2.543758    4.00296  0.1103E-10  0.4737E-08  0.9338E-12  0.8403E-05  0.0000E+00 -0.1072E+13
   -2.612505    4.00666  0.1103E-10  0.4715E-08  0.1458E-11  0.4783E-05  0.0000E+00 -0.2480E+13
   -2.681252    4.01334  0.1103E-10  0.3989E-08  0.3943E-11  0.1028E-05  0.0000E+00 -0.2176E+14
   -2.749997    4.04556  0.1103E-10  0.0000E+00  0.0000E+00  0.0000E+00  0.0000E+00  0.0000E+00
