 1 - depth, m
 2 - temperature, C
 3 - salinity, kg/kg
 4 - turbulent kinetic energy, m**2/s**2
 5 - dissipation rate, m**2/s**3
 6 - kinematic heat conductance, m**2/s
 7 - modulus of horizontal velocity, m/s
 8 - Richardson number, n/d
   -0.000000   -0.00000  0.5885E-12  0.1219E-13  0.7603E-17  0.1000E-09  0.0000E+00  0.7161E+16
   -0.068746    0.10901  0.2093E-11  0.1219E-13  0.7603E-17  0.1000E-09  0.0000E+00  0.7061E+16
   -0.137493    0.21980  0.2890E-11  0.1219E-13  0.7603E-17  0.1000E-09  0.0000E+00  0.6942E+16
   -0.206240    0.33222  0.3081E-11  0.1219E-13  0.7603E-17  0.1000E-09  0.0000E+00  0.6806E+16
   -0.274988    0.44612  0.2963E-11  0.1219E-13  0.7603E-17  0.1000E-09  0.0000E+00  0.6653E+16
   -0.343736    0.56134  0.2744E-11  0.1219E-13  0.7603E-17  0.1000E-09  0.0000E+00  0.6483E+16
   -0.412485    0.67770  0.2539E-11  0.1219E-13  0.7603E-17  0.1000E-09  0.0000E+00  0.6298E+16
   -0.481234    0.79505  0.2391E-11  0.1219E-13  0.7603E-17  0.1000E-09  0.0000E+00  0.6100E+16
   -0.549984    0.91321  0.2300E-11  0.1219E-13  0.7603E-17  0.1000E-09  0.0000E+00  0.5890E+16
   -0.618734    1.03202  0.2251E-11  0.1219E-13  0.7603E-17  0.1000E-09  0.0000E+00  0.5670E+16
   -0.687485    1.15133  0.2226E-11  0.1219E-13  0.7603E-17  0.1000E-09  0.0000E+00  0.5442E+16
   -0.756236    1.27102  0.2215E-11  0.1219E-13  0.7603E-17  0.1000E-09  0.0000E+00  0.5208E+16
   -0.824987    1.39098  0.2211E-11  0.1219E-13  0.7603E-17  0.1000E-09  0.0000E+00  0.4969E+16
   -0.893738    1.51107  0.2208E-11  0.1219E-13  0.7603E-17  0.1000E-09  0.0000E+00  0.4725E+16
   -0.962490    1.63121  0.2206E-11  0.1219E-13  0.7603E-17  0.1000E-09  0.0000E+00  0.4480E+16
   -1.031242    1.75129  0.2204E-11  0.1219E-13  0.7603E-17  0.1000E-09  0.0000E+00  0.4232E+16
   -1.099994    1.87123  0.2201E-11  0.1219E-13  0.7603E-17  0.1000E-09  0.0000E+00  0.3984E+16
   -1.168747    1.99097  0.2197E-11  0.1219E-13  0.7603E-17  0.1000E-09  0.0000E+00  0.3737E+16
   -1.237499    2.11044  0.2193E-11  0.1219E-13  0.7603E-17  0.1000E-09  0.0000E+00  0.3490E+16
   -1.306251    2.22959  0.2187E-11  0.1219E-13  0.7603E-17  0.1000E-09  0.0000E+00  0.3246E+16
   -1.375004    2.34840  0.2181E-11  0.1219E-13  0.7603E-17  0.1000E-09  0.0000E+00  0.3004E+16
   -1.443756    2.46683  0.2174E-11  0.1219E-13  0.7603E-17  0.1000E-09  0.0000E+00  0.2765E+16
   -1.512509    2.58490  0.2168E-11  0.1219E-13  0.7603E-17  0.1000E-09  0.0000E+00  0.2528E+16
   -1.581261    2.70257  0.2163E-11  0.1219E-13  0.7603E-17  0.1000E-09  0.0000E+00  0.2295E+16
   -1.650013    2.81985  0.2159E-11  0.4718E-13  0.1043E-16  0.1000E-09  0.0000E+00  0.2065E+16
   -1.718766    2.93675  0.2155E-11  0.1483E-12  0.2693E-16  0.1000E-09  0.0000E+00  0.1837E+16
   -1.787518    3.05319  0.2152E-11  0.4319E-12  0.7432E-16  0.1000E-09  0.0000E+00  0.1592E+16
   -1.856269    3.16759  0.2149E-11  0.1234E-11  0.2052E-15  0.1000E-09  0.0000E+00  0.1354E+16
   -1.925021    3.27956  0.2147E-11  0.3488E-11  0.5619E-15  0.1000E-09  0.0000E+00  0.1125E+16
   -1.993772    3.38855  0.2146E-11  0.9771E-11  0.1527E-14  0.1000E-09  0.0000E+00  0.9121E+15
   -2.062523    3.49451  0.2144E-11  0.2651E-10  0.4020E-14  0.1000E-09  0.0000E+00  0.7302E+15
   -2.131274    3.59993  0.2143E-11  0.7086E-10  0.1043E-13  0.1000E-09  0.0000E+00  0.5529E+15
   -2.200024    3.70511  0.2143E-11  0.1874E-09  0.2679E-13  0.3608E-09  0.0000E+00  0.3771E+15
   -2.268774    3.80995  0.2143E-11  0.4945E-09  0.6869E-13  0.1718E-08  0.0000E+00  0.2027E+15
   -2.337523    3.91369  0.2143E-11  0.1301E-08  0.1761E-12  0.2263E-07  0.0000E+00  0.3887E+14
   -2.406272    4.00407  0.2143E-11  0.2231E-08  0.3044E-12  0.7422E-05  0.0000E+00 -0.5734E+12
   -2.475020    4.00603  0.2143E-11  0.2567E-08  0.3763E-12  0.7278E-05  0.0000E+00 -0.6407E+12
   -2.543768    4.00800  0.2143E-11  0.2728E-08  0.4681E-12  0.6013E-05  0.0000E+00 -0.8437E+12
   -2.612515    4.01036  0.2143E-11  0.2651E-08  0.6485E-12  0.3510E-05  0.0000E+00 -0.1583E+13
   -2.681262    4.01425  0.2143E-11  0.1923E-08  0.1479E-11  0.5474E-06  0.0000E+00 -0.1130E+14
   -2.750008    4.03347  0.2143E-11  0.0000E+00  0.0000E+00  0.0000E+00  0.0000E+00  0.0000E+00
