 1 - depth, m
 2 - temperature, C
 3 - salinity, kg/kg
 4 - turbulent kinetic energy, m**2/s**2
 5 - dissipation rate, m**2/s**3
 6 - kinematic heat conductance, m**2/s
 7 - modulus of horizontal velocity, m/s
 8 - Richardson number, n/d
   -0.000000   -0.00000  0.4737E-12  0.1219E-13  0.7603E-17  0.1000E-09  0.0000E+00  0.6801E+16
   -0.068746    0.10345  0.2613E-11  0.1219E-13  0.7603E-17  0.1000E-09  0.0000E+00  0.6718E+16
   -0.137493    0.20861  0.4331E-11  0.1219E-13  0.7603E-17  0.1000E-09  0.0000E+00  0.6620E+16
   -0.206240    0.31538  0.5091E-11  0.1219E-13  0.7603E-17  0.1000E-09  0.0000E+00  0.6507E+16
   -0.274988    0.42365  0.5149E-11  0.1219E-13  0.7603E-17  0.1000E-09  0.0000E+00  0.6380E+16
   -0.343736    0.53331  0.4875E-11  0.1219E-13  0.7603E-17  0.1000E-09  0.0000E+00  0.6239E+16
   -0.412485    0.64422  0.4528E-11  0.1219E-13  0.7603E-17  0.1000E-09  0.0000E+00  0.6084E+16
   -0.481234    0.75625  0.4238E-11  0.1219E-13  0.7603E-17  0.1000E-09  0.0000E+00  0.5916E+16
   -0.549984    0.86928  0.4040E-11  0.1219E-13  0.7603E-17  0.1000E-09  0.0000E+00  0.5737E+16
   -0.618734    0.98317  0.3922E-11  0.1219E-13  0.7603E-17  0.1000E-09  0.0000E+00  0.5548E+16
   -0.687485    1.09780  0.3860E-11  0.1219E-13  0.7603E-17  0.1000E-09  0.0000E+00  0.5350E+16
   -0.756236    1.21305  0.3830E-11  0.1219E-13  0.7603E-17  0.1000E-09  0.0000E+00  0.5145E+16
   -0.824987    1.32881  0.3816E-11  0.1219E-13  0.7603E-17  0.1000E-09  0.0000E+00  0.4933E+16
   -0.893739    1.44498  0.3809E-11  0.1219E-13  0.7603E-17  0.1000E-09  0.0000E+00  0.4716E+16
   -0.962490    1.56146  0.3805E-11  0.1219E-13  0.7603E-17  0.1000E-09  0.0000E+00  0.4494E+16
   -1.031242    1.67816  0.3801E-11  0.1219E-13  0.7603E-17  0.1000E-09  0.0000E+00  0.4270E+16
   -1.099994    1.79501  0.3796E-11  0.1219E-13  0.7603E-17  0.1000E-09  0.0000E+00  0.4043E+16
   -1.168747    1.91193  0.3790E-11  0.1219E-13  0.7603E-17  0.1000E-09  0.0000E+00  0.3814E+16
   -1.237499    2.02886  0.3782E-11  0.1219E-13  0.7603E-17  0.1000E-09  0.0000E+00  0.3585E+16
   -1.306252    2.14574  0.3773E-11  0.1219E-13  0.7603E-17  0.1000E-09  0.0000E+00  0.3355E+16
   -1.375004    2.26255  0.3762E-11  0.1219E-13  0.7603E-17  0.1000E-09  0.0000E+00  0.3127E+16
   -1.443757    2.37925  0.3752E-11  0.1219E-13  0.7603E-17  0.1000E-09  0.0000E+00  0.2899E+16
   -1.512509    2.49584  0.3741E-11  0.1219E-13  0.7603E-17  0.1000E-09  0.0000E+00  0.2673E+16
   -1.581261    2.61230  0.3732E-11  0.1219E-13  0.7603E-17  0.1000E-09  0.0000E+00  0.2448E+16
   -1.650014    2.72860  0.3723E-11  0.1219E-13  0.7603E-17  0.1000E-09  0.0000E+00  0.2225E+16
   -1.718766    2.84475  0.3717E-11  0.1219E-13  0.7603E-17  0.1000E-09  0.0000E+00  0.2002E+16
   -1.787518    2.96067  0.3712E-11  0.3312E-13  0.9288E-17  0.1000E-09  0.0000E+00  0.1758E+16
   -1.856270    3.07476  0.3707E-11  0.1176E-12  0.2730E-16  0.1000E-09  0.0000E+00  0.1520E+16
   -1.925021    3.18661  0.3704E-11  0.3927E-12  0.8659E-16  0.1000E-09  0.0000E+00  0.1288E+16
   -1.993772    3.29569  0.3701E-11  0.1280E-11  0.2723E-15  0.1000E-09  0.0000E+00  0.1072E+16
   -2.062523    3.40192  0.3698E-11  0.4015E-11  0.8260E-15  0.1000E-09  0.0000E+00  0.8877E+15
   -2.131274    3.50764  0.3696E-11  0.1237E-10  0.2463E-14  0.1000E-09  0.0000E+00  0.7084E+15
   -2.200024    3.61309  0.3695E-11  0.3761E-10  0.7247E-14  0.1000E-09  0.0000E+00  0.5311E+15
   -2.268774    3.71829  0.3694E-11  0.1139E-09  0.2126E-13  0.3034E-09  0.0000E+00  0.3551E+15
   -2.337523    3.82304  0.3694E-11  0.3473E-09  0.6281E-13  0.1752E-08  0.0000E+00  0.1810E+15
   -2.406272    3.92641  0.3694E-11  0.1039E-08  0.1828E-12  0.3662E-07  0.0000E+00  0.2408E+14
   -2.475020    4.00903  0.3694E-11  0.2128E-08  0.3789E-12  0.5472E-05  0.0000E+00 -0.9800E+12
   -2.543768    4.01163  0.3694E-11  0.2472E-08  0.4950E-12  0.4976E-05  0.0000E+00 -0.1181E+13
   -2.612516    4.01445  0.3694E-11  0.2503E-08  0.6823E-12  0.3146E-05  0.0000E+00 -0.2028E+13
   -2.681262    4.01873  0.3694E-11  0.1856E-08  0.1462E-11  0.5355E-06  0.0000E+00 -0.1237E+14
   -2.750008    4.03760  0.3694E-11  0.0000E+00  0.0000E+00  0.0000E+00  0.0000E+00  0.0000E+00
