 1 - depth, m
 2 - temperature, C
 3 - salinity, kg/kg
 4 - turbulent kinetic energy, m**2/s**2
 5 - dissipation rate, m**2/s**3
 6 - kinematic heat conductance, m**2/s
 7 - modulus of horizontal velocity, m/s
 8 - Richardson number, n/d
   -0.000000   -0.00000  0.1236E-09  0.1219E-13  0.7603E-17  0.1000E-09  0.0000E+00  0.6753E+16
   -0.068746    0.10272  0.7290E-10  0.1219E-13  0.7603E-17  0.1000E-09  0.0000E+00  0.6505E+16
   -0.137492    0.20447  0.5296E-10  0.1219E-13  0.7603E-17  0.1000E-09  0.0000E+00  0.6275E+16
   -0.206239    0.30548  0.4621E-10  0.1219E-13  0.7603E-17  0.1000E-09  0.0000E+00  0.6063E+16
   -0.274987    0.40595  0.4425E-10  0.1219E-13  0.7603E-17  0.1000E-09  0.0000E+00  0.5867E+16
   -0.343735    0.50611  0.4375E-10  0.1219E-13  0.7603E-17  0.1000E-09  0.0000E+00  0.5685E+16
   -0.412483    0.60616  0.4364E-10  0.1219E-13  0.7603E-17  0.1000E-09  0.0000E+00  0.5515E+16
   -0.481232    0.70630  0.4362E-10  0.1219E-13  0.7603E-17  0.1000E-09  0.0000E+00  0.5354E+16
   -0.549982    0.80672  0.4361E-10  0.1219E-13  0.7603E-17  0.1000E-09  0.0000E+00  0.5202E+16
   -0.618732    0.90759  0.4361E-10  0.1219E-13  0.7603E-17  0.1000E-09  0.0000E+00  0.5056E+16
   -0.687482    1.00907  0.4361E-10  0.1219E-13  0.7603E-17  0.1000E-09  0.0000E+00  0.4923E+16
   -0.756233    1.11150  0.4361E-10  0.1219E-13  0.7603E-17  0.1000E-09  0.0000E+00  0.4797E+16
   -0.824984    1.21514  0.4361E-10  0.1219E-13  0.7603E-17  0.1000E-09  0.0000E+00  0.4670E+16
   -0.893735    1.32009  0.4361E-10  0.1219E-13  0.7603E-17  0.1000E-09  0.0000E+00  0.4539E+16
   -0.962487    1.42640  0.4361E-10  0.1219E-13  0.7603E-17  0.1000E-09  0.0000E+00  0.4404E+16
   -1.031238    1.53414  0.4360E-10  0.1219E-13  0.7603E-17  0.1000E-09  0.0000E+00  0.4262E+16
   -1.099990    1.64331  0.4358E-10  0.1219E-13  0.7603E-17  0.1000E-09  0.0000E+00  0.4113E+16
   -1.168742    1.75392  0.4354E-10  0.1219E-13  0.7603E-17  0.1000E-09  0.0000E+00  0.3955E+16
   -1.237494    1.86593  0.4346E-10  0.1219E-13  0.7603E-17  0.1000E-09  0.0000E+00  0.3788E+16
   -1.306247    1.97927  0.4335E-10  0.1219E-13  0.7603E-17  0.1000E-09  0.0000E+00  0.3611E+16
   -1.374999    2.09386  0.4320E-10  0.1219E-13  0.7603E-17  0.1000E-09  0.0000E+00  0.3429E+16
   -1.443751    2.20971  0.4303E-10  0.1219E-13  0.7603E-17  0.1000E-09  0.0000E+00  0.3237E+16
   -1.512503    2.32672  0.4290E-10  0.1219E-13  0.7603E-17  0.1000E-09  0.0000E+00  0.3035E+16
   -1.581255    2.44472  0.4280E-10  0.1219E-13  0.7603E-17  0.1000E-09  0.0000E+00  0.2824E+16
   -1.650007    2.56351  0.4274E-10  0.1219E-13  0.7603E-17  0.1000E-09  0.0000E+00  0.2604E+16
   -1.718759    2.68285  0.4271E-10  0.1219E-13  0.7603E-17  0.1000E-09  0.0000E+00  0.2378E+16
   -1.787511    2.80253  0.4268E-10  0.1219E-13  0.7603E-17  0.1000E-09  0.0000E+00  0.2164E+16
   -1.856262    2.92331  0.4267E-10  0.5479E-13  0.1648E-16  0.1000E-09  0.0000E+00  0.1943E+16
   -1.925014    3.04511  0.4264E-10  0.2112E-12  0.5708E-16  0.1000E-09  0.0000E+00  0.1716E+16
   -1.993765    3.16789  0.4259E-10  0.7670E-12  0.1986E-15  0.1000E-09  0.0000E+00  0.1481E+16
   -2.062515    3.29130  0.4252E-10  0.2658E-11  0.6636E-15  0.1000E-09  0.0000E+00  0.1236E+16
   -2.131266    3.41460  0.4243E-10  0.9027E-11  0.2174E-14  0.1000E-09  0.0000E+00  0.9909E+15
   -2.200016    3.53757  0.4233E-10  0.3016E-10  0.7015E-14  0.1000E-09  0.0000E+00  0.7477E+15
   -2.268765    3.65999  0.4225E-10  0.1002E-09  0.2252E-13  0.2239E-09  0.0000E+00  0.5095E+15
   -2.337514    3.78208  0.4222E-10  0.3343E-09  0.7263E-13  0.1343E-08  0.0000E+00  0.2732E+15
   -2.406263    3.90321  0.4221E-10  0.1099E-08  0.2315E-12  0.2263E-07  0.0000E+00  0.5016E+14
   -2.475011    4.00885  0.4221E-10  0.2488E-08  0.5279E-12  0.4862E-05  0.0000E+00 -0.1342E+13
   -2.543759    4.01237  0.4221E-10  0.2996E-08  0.7383E-12  0.4531E-05  0.0000E+00 -0.1728E+13
   -2.612506    4.01631  0.4221E-10  0.3203E-08  0.1136E-11  0.2968E-05  0.0000E+00 -0.3357E+13
   -2.681252    4.02276  0.4221E-10  0.2883E-08  0.2821E-11  0.7911E-06  0.0000E+00 -0.2228E+14
   -2.749998    4.05093  0.4221E-10  0.0000E+00  0.0000E+00  0.0000E+00  0.0000E+00  0.0000E+00
