 1 - depth, m
 2 - temperature, C
 3 - salinity, kg/kg
 4 - turbulent kinetic energy, m**2/s**2
 5 - dissipation rate, m**2/s**3
 6 - kinematic heat conductance, m**2/s
 7 - modulus of horizontal velocity, m/s
 8 - Richardson number, n/d
   -0.000000    5.57638  0.1471E-10  0.1826E-04  0.1332E-05  0.3210E-04  0.3151E-01 -0.1601E-01
   -0.068746    5.63296  0.1471E-10  0.1566E-04  0.3786E-06  0.8098E-04  0.1970E-01 -0.4427E-01
   -0.137492    5.65288  0.1471E-10  0.1471E-04  0.1980E-06  0.1326E-03  0.1582E-01 -0.7801E-01
   -0.206239    5.66469  0.1471E-10  0.1408E-04  0.1296E-06  0.1906E-03  0.1348E-01 -0.9292E-01
   -0.274987    5.67271  0.1471E-10  0.1358E-04  0.9494E-07  0.2646E-03  0.1184E-01  0.3517E+02
   -0.343735    5.67854  0.1471E-10  0.1317E-04  0.7420E-07  0.3413E-03  0.1062E-01  0.1573E+02
   -0.412484    5.68301  0.1471E-10  0.1281E-04  0.6051E-07  0.4221E-03  0.9644E-02  0.1444E+02
   -0.481233    5.68657  0.1471E-10  0.1250E-04  0.5085E-07  0.5063E-03  0.8844E-02  0.1150E+02
   -0.549983    5.68948  0.1471E-10  0.1223E-04  0.4371E-07  0.5929E-03  0.8166E-02  0.7584E+01
   -0.618733    5.69193  0.1471E-10  0.1199E-04  0.3825E-07  0.6847E-03  0.7576E-02  0.8098E+01
   -0.687483    5.69400  0.1471E-10  0.1178E-04  0.3397E-07  0.7723E-03  0.7054E-02  0.7803E+01
   -0.756234    5.69580  0.1471E-10  0.1159E-04  0.3053E-07  0.8475E-03  0.6585E-02  0.1465E+02
   -0.824985    5.69738  0.1471E-10  0.1141E-04  0.2772E-07  0.9236E-03  0.6158E-02  0.8083E+01
   -0.893736    5.69879  0.1471E-10  0.1125E-04  0.2539E-07  0.1011E-02  0.5765E-02  0.2597E+02
   -0.962488    5.70003  0.1471E-10  0.1110E-04  0.2345E-07  0.1150E-02  0.5400E-02  0.3130E+02
   -1.031240    5.70109  0.1471E-10  0.1096E-04  0.2182E-07  0.1286E-02  0.5059E-02  0.3375E+02
   -1.099992    5.70201  0.1471E-10  0.1082E-04  0.2042E-07  0.1398E-02  0.4736E-02  0.4014E+02
   -1.168744    5.70283  0.1471E-10  0.1069E-04  0.1920E-07  0.1483E-02  0.4426E-02  0.4803E+02
   -1.237496    5.70357  0.1471E-10  0.1055E-04  0.1814E-07  0.1563E-02  0.4127E-02  0.6229E+02
   -1.306248    5.70425  0.1471E-10  0.1042E-04  0.1720E-07  0.1627E-02  0.3836E-02  0.4532E+02
   -1.375001    5.70487  0.1471E-10  0.1028E-04  0.1637E-07  0.1681E-02  0.3552E-02  0.6921E+02
   -1.443753    5.70545  0.1471E-10  0.1013E-04  0.1563E-07  0.1709E-02  0.3274E-02  0.1381E+03
   -1.512505    5.70601  0.1471E-10  0.9974E-05  0.1497E-07  0.1720E-02  0.3000E-02  0.5671E+03
   -1.581258    5.70655  0.1471E-10  0.9807E-05  0.1436E-07  0.1719E-02  0.2729E-02  0.5365E+06
   -1.650010    5.70707  0.1471E-10  0.9627E-05  0.1381E-07  0.1720E-02  0.2460E-02  0.6202E+04
   -1.718762    5.70758  0.1471E-10  0.9431E-05  0.1330E-07  0.1697E-02  0.2193E-02  0.2192E+04
   -1.787513    5.70807  0.1471E-10  0.9211E-05  0.1281E-07  0.1740E-02  0.1926E-02  0.2304E+02
   -1.856265    5.70855  0.1471E-10  0.8973E-05  0.1235E-07  0.1760E-02  0.1693E-02  0.5136E+01
   -1.925016    5.70902  0.1471E-10  0.8723E-05  0.1194E-07  0.1772E-02  0.1488E-02  0.2432E+01
   -1.993768    5.70947  0.1471E-10  0.8464E-05  0.1158E-07  0.1771E-02  0.1311E-02  0.1587E+01
   -2.062518    5.70992  0.1471E-10  0.8213E-05  0.1132E-07  0.1750E-02  0.1156E-02  0.1260E+01
   -2.131269    5.71036  0.1471E-10  0.7972E-05  0.1116E-07  0.1714E-02  0.1014E-02  0.1016E+01
   -2.200019    5.71081  0.1471E-10  0.7744E-05  0.1111E-07  0.1670E-02  0.8837E-03  0.8402E+00
   -2.268768    5.71125  0.1471E-10  0.7530E-05  0.1120E-07  0.1614E-02  0.7646E-03  0.7548E+00
   -2.337518    5.71171  0.1471E-10  0.7325E-05  0.1145E-07  0.1431E-02  0.6602E-03  0.2435E+02
   -2.406266    5.71223  0.1471E-10  0.7124E-05  0.1195E-07  0.1192E-02  0.5692E-03  0.2271E+03
   -2.475015    5.71283  0.1471E-10  0.6909E-05  0.1284E-07  0.9814E-03  0.4884E-03  0.1609E+03
   -2.543762    5.71355  0.1471E-10  0.6645E-05  0.1466E-07  0.7338E-03  0.4124E-03  0.2524E+03
   -2.612509    5.71452  0.1471E-10  0.6226E-05  0.1951E-07  0.3938E-03  0.3333E-03  0.1384E+03
   -2.681256    5.71626  0.1471E-10  0.3819E-05  0.7221E-07  0.2600E-04  0.2432E-03 -0.3319E+05
   -2.750001    5.74066  0.1471E-10  0.0000E+00  0.0000E+00  0.0000E+00  0.2427E-03  0.0000E+00
