 1 - depth, m
 2 - temperature, C
 3 - salinity, kg/kg
 4 - turbulent kinetic energy, m**2/s**2
 5 - dissipation rate, m**2/s**3
 6 - kinematic heat conductance, m**2/s
 7 - modulus of horizontal velocity, m/s
 8 - Richardson number, n/d
   -0.000000   14.48456  0.1137E-10  0.1581E-04  0.8142E-06  0.3375E-04  0.2832E-01 -0.2582E-01
   -0.068746   14.50888  0.1137E-10  0.1468E-04  0.2693E-06  0.9176E-04  0.1817E-01 -0.6892E-01
   -0.137492   14.51710  0.1137E-10  0.1412E-04  0.1513E-06  0.1585E-03  0.1467E-01 -0.1153E+00
   -0.206239   14.52165  0.1137E-10  0.1376E-04  0.1028E-06  0.2352E-03  0.1265E-01 -0.1648E+00
   -0.274987   14.52458  0.1137E-10  0.1351E-04  0.7721E-07  0.3368E-03  0.1131E-01 -0.1245E+00
   -0.343735   14.52656  0.1137E-10  0.1336E-04  0.6203E-07  0.5621E-03  0.1034E-01  0.3269E+02
   -0.412484   14.52782  0.1137E-10  0.1328E-04  0.5247E-07  0.8892E-03  0.9618E-02  0.3487E+02
   -0.481233   14.52860  0.1137E-10  0.1328E-04  0.4604E-07  0.1207E-02  0.9052E-02  0.3922E+02
   -0.549983   14.52910  0.1137E-10  0.1333E-04  0.4126E-07  0.1266E-02  0.8565E-02  0.8403E+01
   -0.618733   14.52956  0.1137E-10  0.1341E-04  0.3739E-07  0.1338E-02  0.8093E-02  0.9375E+01
   -0.687483   14.52998  0.1137E-10  0.1351E-04  0.3425E-07  0.1400E-02  0.7651E-02  0.9911E+01
   -0.756234   14.53038  0.1137E-10  0.1361E-04  0.3167E-07  0.1463E-02  0.7230E-02  0.1048E+02
   -0.824985   14.53075  0.1137E-10  0.1370E-04  0.2951E-07  0.1523E-02  0.6828E-02  0.1104E+02
   -0.893737   14.53110  0.1137E-10  0.1379E-04  0.2768E-07  0.1581E-02  0.6441E-02  0.1162E+02
   -0.962488   14.53143  0.1137E-10  0.1386E-04  0.2612E-07  0.1636E-02  0.6067E-02  0.1224E+02
   -1.031240   14.53175  0.1137E-10  0.1392E-04  0.2478E-07  0.1689E-02  0.5703E-02  0.1291E+02
   -1.099992   14.53205  0.1137E-10  0.1396E-04  0.2362E-07  0.1738E-02  0.5347E-02  0.1365E+02
   -1.168744   14.53234  0.1137E-10  0.1397E-04  0.2261E-07  0.1783E-02  0.4999E-02  0.1451E+02
   -1.237496   14.53263  0.1137E-10  0.1396E-04  0.2173E-07  0.1823E-02  0.4656E-02  0.1551E+02
   -1.306249   14.53290  0.1137E-10  0.1393E-04  0.2095E-07  0.1855E-02  0.4318E-02  0.1675E+02
   -1.375001   14.53317  0.1137E-10  0.1386E-04  0.2027E-07  0.1879E-02  0.3983E-02  0.1832E+02
   -1.443753   14.53343  0.1137E-10  0.1375E-04  0.1968E-07  0.1893E-02  0.3651E-02  0.2046E+02
   -1.512506   14.53369  0.1137E-10  0.1361E-04  0.1916E-07  0.1895E-02  0.3320E-02  0.2355E+02
   -1.581258   14.53395  0.1137E-10  0.1342E-04  0.1870E-07  0.1883E-02  0.2990E-02  0.2852E+02
   -1.650010   14.53421  0.1137E-10  0.1319E-04  0.1829E-07  0.1859E-02  0.2659E-02  0.3751E+02
   -1.718762   14.53448  0.1137E-10  0.1291E-04  0.1794E-07  0.1813E-02  0.2328E-02  0.5000E+02
   -1.787514   14.53475  0.1137E-10  0.1257E-04  0.1761E-07  0.1795E-02  0.1993E-02  0.9056E+01
   -1.856265   14.53502  0.1137E-10  0.1219E-04  0.1737E-07  0.1782E-02  0.1708E-02  0.4248E+01
   -1.925017   14.53530  0.1137E-10  0.1177E-04  0.1724E-07  0.1788E-02  0.1465E-02  0.2535E+01
   -1.993768   14.53557  0.1137E-10  0.1134E-04  0.1728E-07  0.1817E-02  0.1263E-02  0.1804E+01
   -2.062519   14.53584  0.1137E-10  0.1093E-04  0.1751E-07  0.1849E-02  0.1093E-02  0.1476E+01
   -2.131269   14.53610  0.1137E-10  0.1053E-04  0.1794E-07  0.1784E-02  0.9449E-03  0.1214E+01
   -2.200019   14.53637  0.1137E-10  0.1016E-04  0.1862E-07  0.1647E-02  0.8143E-03  0.9994E+00
   -2.268769   14.53667  0.1137E-10  0.9818E-05  0.1956E-07  0.1501E-02  0.7002E-03  0.7858E+00
   -2.337518   14.53700  0.1137E-10  0.9502E-05  0.2086E-07  0.1342E-02  0.6052E-03  0.6450E+00
   -2.406267   14.53736  0.1137E-10  0.9187E-05  0.2277E-07  0.1220E-02  0.5280E-03  0.8049E+00
   -2.475015   14.53777  0.1137E-10  0.8817E-05  0.2641E-07  0.9911E-03  0.4616E-03  0.5476E+01
   -2.543763   14.53834  0.1137E-10  0.8282E-05  0.3412E-07  0.8336E-03  0.3910E-03  0.2959E+03
   -2.612510   14.53909  0.1137E-10  0.7253E-05  0.5736E-07  0.4281E-03  0.3220E-03  0.2551E+03
   -2.681256   14.54176  0.1137E-10  0.4385E-05  0.1942E-06  0.8482E-04  0.2113E-03 -0.6937E+04
   -2.750002   14.54886  0.1137E-10  0.0000E+00  0.0000E+00  0.0000E+00  0.2536E-03  0.0000E+00
