 1 - depth, m
 2 - temperature, C
 3 - salinity, kg/kg
 4 - turbulent kinetic energy, m**2/s**2
 5 - dissipation rate, m**2/s**3
 6 - kinematic heat conductance, m**2/s
 7 - modulus of horizontal velocity, m/s
 8 - Richardson number, n/d
   -0.000000    9.45144  0.5644E-12  0.2050E-04  0.1368E-05  0.3451E-04  0.3459E-01 -0.1512E-01
   -0.068746    9.48697  0.5645E-12  0.1808E-04  0.4125E-06  0.9045E-04  0.2172E-01 -0.4260E-01
   -0.137492    9.49915  0.5645E-12  0.1712E-04  0.2222E-06  0.1506E-03  0.1751E-01 -0.7110E-01
   -0.206239    9.50627  0.5645E-12  0.1650E-04  0.1475E-06  0.2169E-03  0.1501E-01 -0.1027E+00
   -0.274987    9.51106  0.5645E-12  0.1604E-04  0.1088E-06  0.2912E-03  0.1330E-01 -0.1260E+00
   -0.343735    9.51453  0.5645E-12  0.1568E-04  0.8558E-07  0.4022E-03  0.1203E-01  0.1871E+02
   -0.412484    9.51707  0.5645E-12  0.1540E-04  0.7044E-07  0.5606E-03  0.1106E-01  0.2312E+02
   -0.481233    9.51894  0.5645E-12  0.1520E-04  0.6005E-07  0.7863E-03  0.1028E-01  0.3755E+02
   -0.549983    9.52028  0.5645E-12  0.1506E-04  0.5261E-07  0.1029E-02  0.9630E-02  0.6943E+02
   -0.618733    9.52125  0.5645E-12  0.1498E-04  0.4705E-07  0.1261E-02  0.9071E-02  0.1018E+03
   -0.687483    9.52199  0.5645E-12  0.1493E-04  0.4272E-07  0.1447E-02  0.8568E-02  0.4316E+02
   -0.756234    9.52259  0.5645E-12  0.1491E-04  0.3919E-07  0.1510E-02  0.8099E-02  0.1346E+02
   -0.824985    9.52315  0.5645E-12  0.1489E-04  0.3623E-07  0.1568E-02  0.7646E-02  0.1505E+02
   -0.893737    9.52368  0.5645E-12  0.1488E-04  0.3372E-07  0.1621E-02  0.7212E-02  0.1645E+02
   -0.962488    9.52418  0.5645E-12  0.1487E-04  0.3157E-07  0.1672E-02  0.6794E-02  0.1802E+02
   -1.031240    9.52465  0.5645E-12  0.1484E-04  0.2972E-07  0.1720E-02  0.6390E-02  0.1978E+02
   -1.099992    9.52511  0.5645E-12  0.1481E-04  0.2811E-07  0.1765E-02  0.5996E-02  0.2185E+02
   -1.168744    9.52554  0.5645E-12  0.1476E-04  0.2670E-07  0.1805E-02  0.5613E-02  0.2440E+02
   -1.237496    9.52595  0.5645E-12  0.1469E-04  0.2546E-07  0.1841E-02  0.5238E-02  0.2768E+02
   -1.306249    9.52635  0.5645E-12  0.1460E-04  0.2436E-07  0.1871E-02  0.4869E-02  0.3216E+02
   -1.375001    9.52674  0.5645E-12  0.1449E-04  0.2338E-07  0.1895E-02  0.4506E-02  0.3876E+02
   -1.443753    9.52711  0.5645E-12  0.1435E-04  0.2250E-07  0.1912E-02  0.4147E-02  0.4958E+02
   -1.512506    9.52748  0.5645E-12  0.1418E-04  0.2170E-07  0.1921E-02  0.3791E-02  0.7060E+02
   -1.581258    9.52783  0.5645E-12  0.1397E-04  0.2098E-07  0.1918E-02  0.3437E-02  0.1278E+03
   -1.650010    9.52818  0.5645E-12  0.1373E-04  0.2032E-07  0.1910E-02  0.3083E-02  0.6044E+03
   -1.718762    9.52853  0.5645E-12  0.1345E-04  0.1970E-07  0.1878E-02  0.2731E-02  0.1493E+05
   -1.787514    9.52887  0.5645E-12  0.1312E-04  0.1910E-07  0.1882E-02  0.2375E-02  0.1767E+02
   -1.856265    9.52921  0.5645E-12  0.1274E-04  0.1856E-07  0.1872E-02  0.2065E-02  0.5976E+01
   -1.925017    9.52955  0.5645E-12  0.1232E-04  0.1810E-07  0.1869E-02  0.1795E-02  0.3094E+01
   -1.993768    9.52989  0.5645E-12  0.1189E-04  0.1778E-07  0.1872E-02  0.1562E-02  0.2049E+01
   -2.062519    9.53022  0.5645E-12  0.1147E-04  0.1764E-07  0.1870E-02  0.1360E-02  0.1621E+01
   -2.131269    9.53055  0.5645E-12  0.1105E-04  0.1771E-07  0.1846E-02  0.1178E-02  0.1303E+01
   -2.200019    9.53089  0.5645E-12  0.1066E-04  0.1803E-07  0.1809E-02  0.1014E-02  0.1057E+01
   -2.268769    9.53122  0.5645E-12  0.1029E-04  0.1863E-07  0.1744E-02  0.8654E-03  0.8094E+00
   -2.337518    9.53156  0.5645E-12  0.9948E-05  0.1959E-07  0.1581E-02  0.7377E-03  0.6051E+00
   -2.406267    9.53193  0.5645E-12  0.9636E-05  0.2098E-07  0.1391E-02  0.6314E-03  0.4673E+00
   -2.475015    9.53235  0.5645E-12  0.9348E-05  0.2299E-07  0.1207E-02  0.5455E-03  0.4501E+00
   -2.543763    9.53283  0.5645E-12  0.9047E-05  0.2629E-07  0.1157E-02  0.4758E-03  0.7618E+00
   -2.612510    9.53333  0.5645E-12  0.8545E-05  0.3584E-07  0.6098E-03  0.4169E-03  0.1578E+04
   -2.681256    9.53476  0.5645E-12  0.5259E-05  0.1475E-06  0.4525E-04  0.3148E-03 -0.1048E+05
   -2.750002    9.54758  0.5645E-12  0.0000E+00  0.0000E+00  0.0000E+00  0.3229E-03  0.0000E+00
