 1 - depth, m
 2 - temperature, C
 3 - salinity, kg/kg
 4 - turbulent kinetic energy, m**2/s**2
 5 - dissipation rate, m**2/s**3
 6 - kinematic heat conductance, m**2/s
 7 - modulus of horizontal velocity, m/s
 8 - Richardson number, n/d
   -0.000000   -0.00000  0.6606E-10  0.1219E-13  0.7603E-17  0.1000E-09  0.0000E+00  0.4443E+16
   -0.068746    0.06726  0.3551E-10  0.1219E-13  0.7603E-17  0.1000E-09  0.0000E+00  0.4262E+16
   -0.137492    0.13295  0.2811E-10  0.1219E-13  0.7603E-17  0.1000E-09  0.0000E+00  0.4122E+16
   -0.206239    0.19764  0.2647E-10  0.1219E-13  0.7603E-17  0.1000E-09  0.0000E+00  0.4020E+16
   -0.274986    0.26188  0.2614E-10  0.1219E-13  0.7603E-17  0.1000E-09  0.0000E+00  0.3954E+16
   -0.343734    0.32624  0.2608E-10  0.1219E-13  0.7603E-17  0.1000E-09  0.0000E+00  0.3921E+16
   -0.412483    0.39128  0.2607E-10  0.1219E-13  0.7603E-17  0.1000E-09  0.0000E+00  0.3921E+16
   -0.481232    0.45759  0.2607E-10  0.1219E-13  0.7603E-17  0.1000E-09  0.0000E+00  0.3950E+16
   -0.549982    0.52574  0.2607E-10  0.1219E-13  0.7603E-17  0.1000E-09  0.0000E+00  0.4005E+16
   -0.618731    0.59634  0.2607E-10  0.1219E-13  0.7603E-17  0.1000E-09  0.0000E+00  0.4083E+16
   -0.687482    0.66995  0.2607E-10  0.1219E-13  0.7603E-17  0.1000E-09  0.0000E+00  0.4197E+16
   -0.756232    0.74745  0.2607E-10  0.1219E-13  0.7603E-17  0.1000E-09  0.0000E+00  0.4333E+16
   -0.824983    0.82958  0.2607E-10  0.1219E-13  0.7603E-17  0.1000E-09  0.0000E+00  0.4477E+16
   -0.893734    0.91687  0.2607E-10  0.1219E-13  0.7603E-17  0.1000E-09  0.0000E+00  0.4623E+16
   -0.962486    1.00982  0.2607E-10  0.1219E-13  0.7603E-17  0.1000E-09  0.0000E+00  0.4763E+16
   -1.031238    1.10889  0.2607E-10  0.1219E-13  0.7603E-17  0.1000E-09  0.0000E+00  0.4891E+16
   -1.099989    1.21449  0.2606E-10  0.1219E-13  0.7603E-17  0.1000E-09  0.0000E+00  0.4999E+16
   -1.168741    1.32695  0.2604E-10  0.1219E-13  0.7603E-17  0.1000E-09  0.0000E+00  0.5079E+16
   -1.237493    1.44654  0.2599E-10  0.1219E-13  0.7603E-17  0.1000E-09  0.0000E+00  0.5123E+16
   -1.306246    1.57344  0.2589E-10  0.1219E-13  0.7603E-17  0.1000E-09  0.0000E+00  0.5125E+16
   -1.374998    1.70774  0.2574E-10  0.2145E-13  0.7603E-17  0.1000E-09  0.0000E+00  0.5092E+16
   -1.443750    1.84984  0.2558E-10  0.7887E-13  0.1615E-16  0.1000E-09  0.0000E+00  0.5004E+16
   -1.512502    1.99976  0.2548E-10  0.2384E-12  0.4421E-16  0.1000E-09  0.0000E+00  0.4853E+16
   -1.581254    2.15725  0.2543E-10  0.6774E-12  0.1206E-15  0.1000E-09  0.0000E+00  0.4634E+16
   -1.650006    2.32195  0.2540E-10  0.1879E-11  0.3238E-15  0.1000E-09  0.0000E+00  0.4347E+16
   -1.718758    2.49335  0.2539E-10  0.5127E-11  0.8563E-15  0.1000E-09  0.0000E+00  0.3993E+16
   -1.787510    2.67086  0.2538E-10  0.1417E-10  0.2293E-14  0.1000E-09  0.0000E+00  0.3581E+16
   -1.856261    2.85400  0.2537E-10  0.3922E-10  0.6154E-14  0.1000E-09  0.0000E+00  0.3117E+16
   -1.925012    3.04255  0.2536E-10  0.1078E-09  0.1641E-13  0.1000E-09  0.0000E+00  0.2606E+16
   -1.993763    3.23632  0.2535E-10  0.2942E-09  0.4348E-13  0.1083E-09  0.0000E+00  0.2044E+16
   -2.062514    3.43472  0.2533E-10  0.7785E-09  0.1117E-12  0.3983E-09  0.0000E+00  0.1427E+16
   -2.131264    3.63509  0.2528E-10  0.2028E-08  0.2828E-12  0.1821E-08  0.0000E+00  0.7899E+15
   -2.200014    3.83487  0.2524E-10  0.5169E-08  0.7016E-12  0.2036E-07  0.0000E+00  0.1747E+15
   -2.268764    4.01216  0.2523E-10  0.6724E-08  0.9210E-12  0.2091E-04  0.0000E+00 -0.5648E+12
   -2.337513    4.01352  0.2523E-10  0.7329E-08  0.1038E-11  0.2109E-04  0.0000E+00 -0.5938E+12
   -2.406261    4.01488  0.2523E-10  0.7767E-08  0.1175E-11  0.2003E-04  0.0000E+00 -0.6647E+12
   -2.475009    4.01633  0.2523E-10  0.8041E-08  0.1361E-11  0.1759E-04  0.0000E+00 -0.8119E+12
   -2.543757    4.01801  0.2523E-10  0.8113E-08  0.1667E-11  0.1354E-04  0.0000E+00 -0.1153E+13
   -2.612504    4.02025  0.2523E-10  0.7823E-08  0.2376E-11  0.7747E-05  0.0000E+00 -0.2330E+13
   -2.681250    4.02439  0.2523E-10  0.6155E-08  0.6198E-11  0.1400E-05  0.0000E+00 -0.2039E+14
   -2.749996    4.04998  0.2523E-10  0.0000E+00  0.0000E+00  0.0000E+00  0.0000E+00  0.0000E+00
