 1 - depth, m
 2 - temperature, C
 3 - salinity, kg/kg
 4 - turbulent kinetic energy, m**2/s**2
 5 - dissipation rate, m**2/s**3
 6 - kinematic heat conductance, m**2/s
 7 - modulus of horizontal velocity, m/s
 8 - Richardson number, n/d
   -0.000000    8.30161  0.7214E-10  0.3013E-04  0.3031E-05  0.3435E-04  0.4715E-01 -0.5270E-02
   -0.068746    8.33909  0.7215E-10  0.2368E-04  0.7621E-06  0.8688E-04  0.2764E-01 -0.1833E-01
   -0.137492    8.35065  0.7215E-10  0.2190E-04  0.3717E-06  0.1411E-03  0.2225E-01 -0.2975E-01
   -0.206239    8.35772  0.7215E-10  0.2090E-04  0.2343E-06  0.1993E-03  0.1895E-01 -0.4211E-01
   -0.274987    8.36258  0.7215E-10  0.2018E-04  0.1680E-06  0.2604E-03  0.1666E-01 -0.5541E-01
   -0.343735    8.36619  0.7215E-10  0.1961E-04  0.1296E-06  0.3237E-03  0.1495E-01 -0.6944E-01
   -0.412484    8.36900  0.7215E-10  0.1912E-04  0.1048E-06  0.3886E-03  0.1360E-01 -0.8406E-01
   -0.481233    8.37128  0.7215E-10  0.1870E-04  0.8752E-07  0.4549E-03  0.1250E-01 -0.9902E-01
   -0.549983    8.37318  0.7215E-10  0.1835E-04  0.7498E-07  0.5235E-03  0.1157E-01 -0.1107E+00
   -0.618733    8.37478  0.7215E-10  0.1804E-04  0.6554E-07  0.6088E-03  0.1078E-01 -0.6161E-01
   -0.687483    8.37613  0.7215E-10  0.1777E-04  0.5831E-07  0.8158E-03  0.1009E-01  0.1508E+03
   -0.756234    8.37719  0.7215E-10  0.1756E-04  0.5267E-07  0.1072E-02  0.9487E-02  0.6863E+02
   -0.824985    8.37801  0.7215E-10  0.1737E-04  0.4821E-07  0.1427E-02  0.8945E-02  0.1593E+03
   -0.893737    8.37859  0.7215E-10  0.1723E-04  0.4461E-07  0.1800E-02  0.8452E-02  0.5346E+02
   -0.962488    8.37901  0.7215E-10  0.1710E-04  0.4158E-07  0.1826E-02  0.7990E-02  0.2181E+02
   -1.031240    8.37942  0.7215E-10  0.1698E-04  0.3894E-07  0.1883E-02  0.7531E-02  0.2722E+02
   -1.099992    8.37980  0.7215E-10  0.1687E-04  0.3667E-07  0.1920E-02  0.7089E-02  0.3267E+02
   -1.168744    8.38017  0.7215E-10  0.1675E-04  0.3469E-07  0.1960E-02  0.6658E-02  0.4052E+02
   -1.237497    8.38053  0.7215E-10  0.1662E-04  0.3294E-07  0.1993E-02  0.6237E-02  0.5154E+02
   -1.306249    8.38088  0.7215E-10  0.1649E-04  0.3140E-07  0.2021E-02  0.5824E-02  0.6919E+02
   -1.375001    8.38121  0.7215E-10  0.1633E-04  0.3003E-07  0.2043E-02  0.5418E-02  0.1010E+03
   -1.443754    8.38154  0.7215E-10  0.1616E-04  0.2880E-07  0.2059E-02  0.5018E-02  0.1738E+03
   -1.512506    8.38185  0.7215E-10  0.1597E-04  0.2768E-07  0.2069E-02  0.4621E-02  0.4496E+03
   -1.581258    8.38216  0.7215E-10  0.1574E-04  0.2666E-07  0.2067E-02  0.4227E-02  0.4711E+06
   -1.650010    8.38247  0.7215E-10  0.1549E-04  0.2572E-07  0.2065E-02  0.3833E-02  0.4993E+05
   -1.718762    8.38277  0.7215E-10  0.1519E-04  0.2482E-07  0.2034E-02  0.3439E-02  0.2041E+05
   -1.787514    8.38307  0.7215E-10  0.1484E-04  0.2393E-07  0.2051E-02  0.3042E-02  0.4082E+02
   -1.856266    8.38337  0.7215E-10  0.1445E-04  0.2308E-07  0.2040E-02  0.2690E-02  0.8638E+01
   -1.925017    8.38367  0.7215E-10  0.1401E-04  0.2231E-07  0.2027E-02  0.2376E-02  0.3737E+01
   -1.993768    8.38396  0.7215E-10  0.1355E-04  0.2165E-07  0.2010E-02  0.2098E-02  0.2287E+01
   -2.062519    8.38426  0.7215E-10  0.1310E-04  0.2117E-07  0.1984E-02  0.1850E-02  0.1766E+01
   -2.131269    8.38455  0.7215E-10  0.1265E-04  0.2092E-07  0.1950E-02  0.1620E-02  0.1395E+01
   -2.200020    8.38485  0.7215E-10  0.1221E-04  0.2092E-07  0.1920E-02  0.1407E-02  0.1117E+01
   -2.268769    8.38515  0.7215E-10  0.1179E-04  0.2124E-07  0.1914E-02  0.1209E-02  0.8331E+00
   -2.337518    8.38545  0.7215E-10  0.1139E-04  0.2196E-07  0.1868E-02  0.1033E-02  0.6094E+00
   -2.406267    8.38576  0.7215E-10  0.1101E-04  0.2319E-07  0.1654E-02  0.8804E-03  0.4280E+00
   -2.475015    8.38610  0.7215E-10  0.1067E-04  0.2505E-07  0.1451E-02  0.7529E-03  0.2991E+00
   -2.543763    8.38649  0.7215E-10  0.1033E-04  0.2808E-07  0.1237E-02  0.6544E-03  0.5026E+00
   -2.612510    8.38694  0.7215E-10  0.9773E-05  0.3632E-07  0.5146E-03  0.5677E-03  0.8603E+03
   -2.681257    8.38803  0.7215E-10  0.6005E-05  0.1383E-06  0.3298E-04  0.4409E-03 -0.3922E+03
   -2.750002    8.40494  0.7215E-10  0.0000E+00  0.0000E+00  0.0000E+00  0.4403E-03  0.0000E+00
