 1 - depth, m
 2 - temperature, C
 3 - salinity, kg/kg
 4 - turbulent kinetic energy, m**2/s**2
 5 - dissipation rate, m**2/s**3
 6 - kinematic heat conductance, m**2/s
 7 - modulus of horizontal velocity, m/s
 8 - Richardson number, n/d
   -0.000000   14.69813  0.2186E-11  0.2709E-04  0.2420E-05  0.3548E-04  0.4260E-01 -0.1349E-01
   -0.068746   14.73136  0.2186E-11  0.2228E-04  0.6407E-06  0.9352E-04  0.2544E-01 -0.4322E-01
   -0.137492   14.74150  0.2186E-11  0.2084E-04  0.3214E-06  0.1577E-03  0.2050E-01 -0.7093E-01
   -0.206239   14.74736  0.2186E-11  0.2005E-04  0.2053E-06  0.2312E-03  0.1758E-01 -0.1019E+00
   -0.274987   14.75119  0.2186E-11  0.1952E-04  0.1483E-06  0.3147E-03  0.1562E-01 -0.1322E+00
   -0.343735   14.75388  0.2186E-11  0.1916E-04  0.1154E-06  0.4297E-03  0.1420E-01  0.9979E-02
   -0.412484   14.75582  0.2186E-11  0.1892E-04  0.9479E-07  0.6638E-03  0.1311E-01  0.2583E+02
   -0.481233   14.75716  0.2186E-11  0.1880E-04  0.8115E-07  0.9980E-03  0.1227E-01  0.6060E+02
   -0.549983   14.75800  0.2186E-11  0.1877E-04  0.7179E-07  0.1485E-02  0.1157E-01  0.9874E+01
   -0.618733   14.75850  0.2186E-11  0.1881E-04  0.6472E-07  0.1475E-02  0.1099E-01  0.1148E+02
   -0.687483   14.75899  0.2186E-11  0.1889E-04  0.5888E-07  0.1573E-02  0.1040E-01  0.1272E+02
   -0.756234   14.75944  0.2186E-11  0.1899E-04  0.5417E-07  0.1637E-02  0.9848E-02  0.1345E+02
   -0.824985   14.75987  0.2186E-11  0.1909E-04  0.5025E-07  0.1710E-02  0.9321E-02  0.1454E+02
   -0.893736   14.76028  0.2186E-11  0.1919E-04  0.4698E-07  0.1777E-02  0.8815E-02  0.1562E+02
   -0.962488   14.76066  0.2186E-11  0.1928E-04  0.4420E-07  0.1843E-02  0.8326E-02  0.1687E+02
   -1.031240   14.76103  0.2186E-11  0.1936E-04  0.4182E-07  0.1905E-02  0.7850E-02  0.1826E+02
   -1.099992   14.76138  0.2186E-11  0.1941E-04  0.3977E-07  0.1964E-02  0.7385E-02  0.1988E+02
   -1.168744   14.76171  0.2186E-11  0.1943E-04  0.3800E-07  0.2018E-02  0.6929E-02  0.2180E+02
   -1.237496   14.76204  0.2186E-11  0.1942E-04  0.3644E-07  0.2067E-02  0.6479E-02  0.2417E+02
   -1.306248   14.76236  0.2186E-11  0.1937E-04  0.3508E-07  0.2109E-02  0.6034E-02  0.2720E+02
   -1.375000   14.76267  0.2186E-11  0.1927E-04  0.3388E-07  0.2142E-02  0.5593E-02  0.3133E+02
   -1.443753   14.76297  0.2186E-11  0.1913E-04  0.3282E-07  0.2164E-02  0.5153E-02  0.3732E+02
   -1.512505   14.76328  0.2186E-11  0.1892E-04  0.3186E-07  0.2172E-02  0.4714E-02  0.4703E+02
   -1.581257   14.76358  0.2186E-11  0.1866E-04  0.3100E-07  0.2163E-02  0.4273E-02  0.6506E+02
   -1.650009   14.76388  0.2186E-11  0.1832E-04  0.3021E-07  0.2138E-02  0.3829E-02  0.1080E+03
   -1.718761   14.76418  0.2186E-11  0.1789E-04  0.2946E-07  0.2087E-02  0.3382E-02  0.2047E+03
   -1.787513   14.76449  0.2186E-11  0.1736E-04  0.2872E-07  0.2034E-02  0.2928E-02  0.1660E+02
   -1.856265   14.76482  0.2186E-11  0.1674E-04  0.2808E-07  0.1974E-02  0.2533E-02  0.6275E+01
   -1.925016   14.76515  0.2186E-11  0.1605E-04  0.2762E-07  0.1921E-02  0.2190E-02  0.3318E+01
   -1.993767   14.76548  0.2186E-11  0.1532E-04  0.2743E-07  0.1881E-02  0.1897E-02  0.2196E+01
   -2.062518   14.76583  0.2186E-11  0.1460E-04  0.2759E-07  0.1845E-02  0.1647E-02  0.1728E+01
   -2.131268   14.76618  0.2186E-11  0.1389E-04  0.2817E-07  0.1815E-02  0.1423E-02  0.1383E+01
   -2.200018   14.76654  0.2186E-11  0.1321E-04  0.2925E-07  0.1754E-02  0.1223E-02  0.1116E+01
   -2.268768   14.76692  0.2186E-11  0.1258E-04  0.3089E-07  0.1572E-02  0.1046E-02  0.8504E+00
   -2.337517   14.76734  0.2186E-11  0.1199E-04  0.3338E-07  0.1347E-02  0.8990E-03  0.1294E+01
   -2.406266   14.76784  0.2186E-11  0.1138E-04  0.3775E-07  0.1205E-02  0.7792E-03  0.3756E+03
   -2.475014   14.76844  0.2186E-11  0.1057E-04  0.4822E-07  0.9007E-03  0.6752E-03  0.9308E+03
   -2.543762   14.76965  0.2186E-11  0.9334E-05  0.6880E-07  0.7259E-03  0.5445E-03  0.8082E+03
   -2.612509   14.77076  0.2186E-11  0.7400E-05  0.1310E-06  0.3527E-03  0.4258E-03  0.2344E+04
   -2.681255   14.77599  0.2186E-11  0.4564E-05  0.3786E-06  0.1424E-03  0.2479E-03  0.7972E+03
   -2.750001   14.78215  0.2186E-11  0.0000E+00  0.0000E+00  0.0000E+00  0.3700E-03  0.0000E+00
