 1 - depth, m
 2 - temperature, C
 3 - salinity, kg/kg
 4 - turbulent kinetic energy, m**2/s**2
 5 - dissipation rate, m**2/s**3
 6 - kinematic heat conductance, m**2/s
 7 - modulus of horizontal velocity, m/s
 8 - Richardson number, n/d
   -0.000000   -0.00000  0.1998E-09  0.1219E-13  0.7603E-17  0.1000E-09  0.0000E+00  0.5081E+16
   -0.068746    0.07702  0.1118E-09  0.1219E-13  0.7603E-17  0.1000E-09  0.0000E+00  0.4918E+16
   -0.137492    0.15314  0.8322E-10  0.1219E-13  0.7603E-17  0.1000E-09  0.0000E+00  0.4774E+16
   -0.206239    0.22861  0.7561E-10  0.1219E-13  0.7603E-17  0.1000E-09  0.0000E+00  0.4650E+16
   -0.274987    0.30370  0.7384E-10  0.1219E-13  0.7603E-17  0.1000E-09  0.0000E+00  0.4544E+16
   -0.343735    0.37868  0.7347E-10  0.1219E-13  0.7603E-17  0.1000E-09  0.0000E+00  0.4455E+16
   -0.412483    0.45384  0.7340E-10  0.1219E-13  0.7603E-17  0.1000E-09  0.0000E+00  0.4382E+16
   -0.481232    0.52945  0.7339E-10  0.1219E-13  0.7603E-17  0.1000E-09  0.0000E+00  0.4322E+16
   -0.549982    0.60579  0.7339E-10  0.1219E-13  0.7603E-17  0.1000E-09  0.0000E+00  0.4274E+16
   -0.618732    0.68312  0.7339E-10  0.1219E-13  0.7603E-17  0.1000E-09  0.0000E+00  0.4235E+16
   -0.687482    0.76168  0.7339E-10  0.1219E-13  0.7603E-17  0.1000E-09  0.0000E+00  0.4215E+16
   -0.756233    0.84192  0.7339E-10  0.1219E-13  0.7603E-17  0.1000E-09  0.0000E+00  0.4206E+16
   -0.824984    0.92419  0.7339E-10  0.1219E-13  0.7603E-17  0.1000E-09  0.0000E+00  0.4196E+16
   -0.893735    1.00865  0.7339E-10  0.1219E-13  0.7603E-17  0.1000E-09  0.0000E+00  0.4184E+16
   -0.962487    1.09545  0.7339E-10  0.1219E-13  0.7603E-17  0.1000E-09  0.0000E+00  0.4166E+16
   -1.031239    1.18469  0.7338E-10  0.1219E-13  0.7603E-17  0.1000E-09  0.0000E+00  0.4141E+16
   -1.099990    1.27645  0.7337E-10  0.1219E-13  0.7603E-17  0.1000E-09  0.0000E+00  0.4106E+16
   -1.168742    1.37075  0.7333E-10  0.1219E-13  0.7603E-17  0.1000E-09  0.0000E+00  0.4059E+16
   -1.237495    1.46760  0.7324E-10  0.1219E-13  0.7603E-17  0.1000E-09  0.0000E+00  0.3999E+16
   -1.306247    1.56694  0.7307E-10  0.1219E-13  0.7603E-17  0.1000E-09  0.0000E+00  0.3922E+16
   -1.374999    1.66871  0.7280E-10  0.1219E-13  0.7603E-17  0.1000E-09  0.0000E+00  0.3838E+16
   -1.443751    1.77298  0.7249E-10  0.1219E-13  0.7603E-17  0.1000E-09  0.0000E+00  0.3737E+16
   -1.512503    1.87966  0.7220E-10  0.1219E-13  0.7603E-17  0.1000E-09  0.0000E+00  0.3618E+16
   -1.581256    1.98856  0.7200E-10  0.1219E-13  0.7603E-17  0.1000E-09  0.0000E+00  0.3479E+16
   -1.650008    2.09940  0.7189E-10  0.1219E-13  0.7603E-17  0.1000E-09  0.0000E+00  0.3323E+16
   -1.718760    2.21192  0.7184E-10  0.1219E-13  0.7603E-17  0.1000E-09  0.0000E+00  0.3149E+16
   -1.787511    2.32580  0.7181E-10  0.1219E-13  0.7603E-17  0.1000E-09  0.0000E+00  0.2976E+16
   -1.856263    2.44136  0.7179E-10  0.1219E-13  0.7603E-17  0.1000E-09  0.0000E+00  0.2792E+16
   -1.925014    2.55844  0.7177E-10  0.1219E-13  0.7603E-17  0.1000E-09  0.0000E+00  0.2596E+16
   -1.993765    2.67693  0.7175E-10  0.1219E-13  0.7603E-17  0.1000E-09  0.0000E+00  0.2387E+16
   -2.062516    2.79647  0.7170E-10  0.1219E-13  0.7603E-17  0.1000E-09  0.0000E+00  0.2169E+16
   -2.131266    2.91688  0.7161E-10  0.1219E-13  0.7603E-17  0.1000E-09  0.0000E+00  0.1945E+16
   -2.200016    3.03800  0.7149E-10  0.1219E-13  0.7603E-17  0.1000E-09  0.0000E+00  0.1715E+16
   -2.268766    3.15965  0.7132E-10  0.1219E-13  0.7603E-17  0.1000E-09  0.0000E+00  0.1491E+16
   -2.337515    3.28251  0.7115E-10  0.1219E-13  0.1065E-16  0.1000E-09  0.0000E+00  0.1266E+16
   -2.406263    3.40717  0.7101E-10  0.7896E-13  0.7493E-16  0.1000E-09  0.0000E+00  0.1036E+16
   -2.475011    3.53442  0.7094E-10  0.6834E-12  0.6275E-15  0.1000E-09  0.0000E+00  0.7998E+15
   -2.543759    3.66581  0.7091E-10  0.5933E-11  0.5279E-14  0.1000E-09  0.0000E+00  0.5471E+15
   -2.612506    3.80422  0.7090E-10  0.5286E-10  0.4593E-13  0.8142E-09  0.0000E+00  0.2539E+15
   -2.681252    3.95801  0.7090E-10  0.5043E-09  0.4405E-12  0.2095E-06  0.0000E+00 -0.2130E+14
   -2.749998    4.04573  0.7090E-10  0.0000E+00  0.0000E+00  0.0000E+00  0.0000E+00  0.0000E+00
