 1 - depth, m
 2 - temperature, C
 3 - salinity, kg/kg
 4 - turbulent kinetic energy, m**2/s**2
 5 - dissipation rate, m**2/s**3
 6 - kinematic heat conductance, m**2/s
 7 - modulus of horizontal velocity, m/s
 8 - Richardson number, n/d
   -0.000000   -0.00000  0.3944E-10  0.1219E-13  0.7603E-17  0.1000E-09  0.0000E+00  0.4786E+16
   -0.068746    0.07251  0.2083E-10  0.1219E-13  0.7603E-17  0.1000E-09  0.0000E+00  0.4597E+16
   -0.137492    0.14352  0.1631E-10  0.1219E-13  0.7603E-17  0.1000E-09  0.0000E+00  0.4447E+16
   -0.206239    0.21358  0.1529E-10  0.1219E-13  0.7603E-17  0.1000E-09  0.0000E+00  0.4335E+16
   -0.274986    0.28322  0.1509E-10  0.1219E-13  0.7603E-17  0.1000E-09  0.0000E+00  0.4259E+16
   -0.343735    0.35303  0.1505E-10  0.1219E-13  0.7603E-17  0.1000E-09  0.0000E+00  0.4216E+16
   -0.412483    0.42356  0.1504E-10  0.1219E-13  0.7603E-17  0.1000E-09  0.0000E+00  0.4204E+16
   -0.481232    0.49541  0.1504E-10  0.1219E-13  0.7603E-17  0.1000E-09  0.0000E+00  0.4221E+16
   -0.549982    0.56916  0.1504E-10  0.1219E-13  0.7603E-17  0.1000E-09  0.0000E+00  0.4263E+16
   -0.618732    0.64540  0.1504E-10  0.1219E-13  0.7603E-17  0.1000E-09  0.0000E+00  0.4327E+16
   -0.687482    0.72469  0.1504E-10  0.1219E-13  0.7603E-17  0.1000E-09  0.0000E+00  0.4423E+16
   -0.756233    0.80791  0.1504E-10  0.1219E-13  0.7603E-17  0.1000E-09  0.0000E+00  0.4539E+16
   -0.824984    0.89577  0.1504E-10  0.1219E-13  0.7603E-17  0.1000E-09  0.0000E+00  0.4660E+16
   -0.893735    0.98879  0.1504E-10  0.1219E-13  0.7603E-17  0.1000E-09  0.0000E+00  0.4780E+16
   -0.962486    1.08747  0.1504E-10  0.1219E-13  0.7603E-17  0.1000E-09  0.0000E+00  0.4892E+16
   -1.031238    1.19224  0.1504E-10  0.1219E-13  0.7603E-17  0.1000E-09  0.0000E+00  0.4990E+16
   -1.099990    1.30352  0.1504E-10  0.1219E-13  0.7603E-17  0.1000E-09  0.0000E+00  0.5065E+16
   -1.168742    1.42164  0.1502E-10  0.1219E-13  0.7603E-17  0.1000E-09  0.0000E+00  0.5110E+16
   -1.237494    1.54687  0.1499E-10  0.1646E-13  0.7603E-17  0.1000E-09  0.0000E+00  0.5119E+16
   -1.306246    1.67941  0.1493E-10  0.6882E-13  0.1361E-16  0.1000E-09  0.0000E+00  0.5084E+16
   -1.374998    1.81936  0.1485E-10  0.2072E-12  0.3551E-16  0.1000E-09  0.0000E+00  0.5012E+16
   -1.443750    1.96716  0.1477E-10  0.5700E-12  0.9332E-16  0.1000E-09  0.0000E+00  0.4885E+16
   -1.512503    2.12287  0.1471E-10  0.1523E-11  0.2413E-15  0.1000E-09  0.0000E+00  0.4693E+16
   -1.581255    2.28628  0.1468E-10  0.4001E-11  0.6150E-15  0.1000E-09  0.0000E+00  0.4433E+16
   -1.650007    2.45705  0.1467E-10  0.1037E-10  0.1547E-14  0.1000E-09  0.0000E+00  0.4103E+16
   -1.718759    2.63476  0.1466E-10  0.2652E-10  0.3842E-14  0.1000E-09  0.0000E+00  0.3706E+16
   -1.787510    2.81886  0.1465E-10  0.6875E-10  0.9669E-14  0.1000E-09  0.0000E+00  0.3260E+16
   -1.856262    3.00970  0.1465E-10  0.1789E-09  0.2445E-13  0.1000E-09  0.0000E+00  0.2755E+16
   -1.925013    3.20726  0.1465E-10  0.4634E-09  0.6154E-13  0.1430E-09  0.0000E+00  0.2190E+16
   -1.993764    3.41159  0.1464E-10  0.1193E-08  0.1541E-12  0.5035E-09  0.0000E+00  0.1557E+16
   -2.062515    3.62165  0.1462E-10  0.2980E-08  0.3745E-12  0.2221E-08  0.0000E+00  0.8582E+15
   -2.131265    3.83177  0.1458E-10  0.7244E-08  0.8876E-12  0.2489E-07  0.0000E+00  0.1812E+15
   -2.200015    4.01447  0.1458E-10  0.8690E-08  0.1073E-11  0.2961E-04  0.0000E+00 -0.4567E+12
   -2.268764    4.01549  0.1458E-10  0.9252E-08  0.1169E-11  0.2983E-04  0.0000E+00 -0.4722E+12
   -2.337513    4.01650  0.1458E-10  0.9676E-08  0.1278E-11  0.2887E-04  0.0000E+00 -0.5088E+12
   -2.406262    4.01756  0.1458E-10  0.9966E-08  0.1415E-11  0.2659E-04  0.0000E+00 -0.5779E+12
   -2.475010    4.01872  0.1458E-10  0.1011E-07  0.1612E-11  0.2279E-04  0.0000E+00 -0.7111E+12
   -2.543758    4.02009  0.1458E-10  0.1004E-07  0.1948E-11  0.1719E-04  0.0000E+00 -0.1010E+13
   -2.612505    4.02195  0.1458E-10  0.9573E-08  0.2740E-11  0.9662E-05  0.0000E+00 -0.2014E+13
   -2.681251    4.02539  0.1458E-10  0.7320E-08  0.7272E-11  0.1567E-05  0.0000E+00 -0.1819E+14
   -2.749997    4.04836  0.1458E-10  0.0000E+00  0.0000E+00  0.0000E+00  0.0000E+00  0.0000E+00
