 1 - depth, m
 2 - temperature, C
 3 - salinity, kg/kg
 4 - turbulent kinetic energy, m**2/s**2
 5 - dissipation rate, m**2/s**3
 6 - kinematic heat conductance, m**2/s
 7 - modulus of horizontal velocity, m/s
 8 - Richardson number, n/d
   -0.000000   -0.00000  0.3831E-12  0.1219E-13  0.7603E-17  0.1000E-09  0.0000E+00  0.6890E+16
   -0.068746    0.10483  0.2123E-11  0.1219E-13  0.7603E-17  0.1000E-09  0.0000E+00  0.6815E+16
   -0.137493    0.21158  0.3407E-11  0.1219E-13  0.7603E-17  0.1000E-09  0.0000E+00  0.6723E+16
   -0.206240    0.32014  0.3923E-11  0.1219E-13  0.7603E-17  0.1000E-09  0.0000E+00  0.6612E+16
   -0.274988    0.43034  0.3921E-11  0.1219E-13  0.7603E-17  0.1000E-09  0.0000E+00  0.6482E+16
   -0.343736    0.54200  0.3691E-11  0.1219E-13  0.7603E-17  0.1000E-09  0.0000E+00  0.6335E+16
   -0.412485    0.65497  0.3422E-11  0.1219E-13  0.7603E-17  0.1000E-09  0.0000E+00  0.6172E+16
   -0.481234    0.76907  0.3204E-11  0.1219E-13  0.7603E-17  0.1000E-09  0.0000E+00  0.5996E+16
   -0.549984    0.88415  0.3058E-11  0.1219E-13  0.7603E-17  0.1000E-09  0.0000E+00  0.5807E+16
   -0.618734    1.00006  0.2974E-11  0.1219E-13  0.7603E-17  0.1000E-09  0.0000E+00  0.5608E+16
   -0.687485    1.11667  0.2930E-11  0.1219E-13  0.7603E-17  0.1000E-09  0.0000E+00  0.5400E+16
   -0.756236    1.23384  0.2908E-11  0.1219E-13  0.7603E-17  0.1000E-09  0.0000E+00  0.5185E+16
   -0.824987    1.35148  0.2899E-11  0.1219E-13  0.7603E-17  0.1000E-09  0.0000E+00  0.4963E+16
   -0.893739    1.46946  0.2894E-11  0.1219E-13  0.7603E-17  0.1000E-09  0.0000E+00  0.4735E+16
   -0.962490    1.58768  0.2890E-11  0.1219E-13  0.7603E-17  0.1000E-09  0.0000E+00  0.4504E+16
   -1.031242    1.70604  0.2887E-11  0.1219E-13  0.7603E-17  0.1000E-09  0.0000E+00  0.4270E+16
   -1.099995    1.82447  0.2883E-11  0.1219E-13  0.7603E-17  0.1000E-09  0.0000E+00  0.4034E+16
   -1.168747    1.94288  0.2877E-11  0.1219E-13  0.7603E-17  0.1000E-09  0.0000E+00  0.3797E+16
   -1.237499    2.06122  0.2870E-11  0.1219E-13  0.7603E-17  0.1000E-09  0.0000E+00  0.3560E+16
   -1.306252    2.17942  0.2862E-11  0.1219E-13  0.7603E-17  0.1000E-09  0.0000E+00  0.3323E+16
   -1.375004    2.29745  0.2854E-11  0.1219E-13  0.7603E-17  0.1000E-09  0.0000E+00  0.3088E+16
   -1.443757    2.41530  0.2845E-11  0.1219E-13  0.7603E-17  0.1000E-09  0.0000E+00  0.2855E+16
   -1.512509    2.53297  0.2837E-11  0.1219E-13  0.7603E-17  0.1000E-09  0.0000E+00  0.2624E+16
   -1.581262    2.65043  0.2830E-11  0.1219E-13  0.7603E-17  0.1000E-09  0.0000E+00  0.2395E+16
   -1.650014    2.76771  0.2823E-11  0.1219E-13  0.7603E-17  0.1000E-09  0.0000E+00  0.2168E+16
   -1.718766    2.88482  0.2818E-11  0.2141E-13  0.7606E-17  0.1000E-09  0.0000E+00  0.1942E+16
   -1.787518    3.00172  0.2815E-11  0.7986E-13  0.1551E-16  0.1000E-09  0.0000E+00  0.1695E+16
   -1.856270    3.11673  0.2812E-11  0.2447E-12  0.4278E-16  0.1000E-09  0.0000E+00  0.1455E+16
   -1.925021    3.22949  0.2809E-11  0.7071E-12  0.1191E-15  0.1000E-09  0.0000E+00  0.1222E+16
   -1.993773    3.33943  0.2807E-11  0.2011E-11  0.3292E-15  0.1000E-09  0.0000E+00  0.1005E+16
   -2.062523    3.44651  0.2806E-11  0.5544E-11  0.8833E-15  0.1000E-09  0.0000E+00  0.8191E+15
   -2.131274    3.55317  0.2805E-11  0.1509E-10  0.2342E-14  0.1000E-09  0.0000E+00  0.6372E+15
   -2.200024    3.65960  0.2804E-11  0.4073E-10  0.6160E-14  0.1000E-09  0.0000E+00  0.4565E+15
   -2.268774    3.76559  0.2803E-11  0.1101E-09  0.1623E-13  0.2966E-09  0.0000E+00  0.2774E+15
   -2.337524    3.87058  0.2803E-11  0.3011E-09  0.4329E-13  0.2107E-08  0.0000E+00  0.1035E+15
   -2.406272    3.97267  0.2803E-11  0.7595E-09  0.1077E-12  0.4417E-06  0.0000E+00  0.4781E+12
   -2.475021    3.99774  0.2803E-11  0.1373E-08  0.2179E-12  0.3729E-05  0.0000E+00 -0.7595E+12
   -2.543769    4.00142  0.2803E-11  0.1667E-08  0.3131E-12  0.3522E-05  0.0000E+00 -0.1032E+13
   -2.612516    4.00530  0.2803E-11  0.1751E-08  0.4701E-12  0.2269E-05  0.0000E+00 -0.1983E+13
   -2.681262    4.01109  0.2803E-11  0.1378E-08  0.1047E-11  0.4407E-06  0.0000E+00 -0.1234E+14
   -2.750008    4.03311  0.2803E-11  0.0000E+00  0.0000E+00  0.0000E+00  0.0000E+00  0.0000E+00
