 1 - depth, m
 2 - temperature, C
 3 - salinity, kg/kg
 4 - turbulent kinetic energy, m**2/s**2
 5 - dissipation rate, m**2/s**3
 6 - kinematic heat conductance, m**2/s
 7 - modulus of horizontal velocity, m/s
 8 - Richardson number, n/d
   -0.000000   -0.00000  0.5018E-10  0.1219E-13  0.7603E-17  0.1000E-09  0.0000E+00  0.4529E+16
   -0.068746    0.06858  0.2700E-10  0.1219E-13  0.7603E-17  0.1000E-09  0.0000E+00  0.4341E+16
   -0.137492    0.13553  0.2136E-10  0.1219E-13  0.7603E-17  0.1000E-09  0.0000E+00  0.4195E+16
   -0.206239    0.20143  0.2011E-10  0.1219E-13  0.7603E-17  0.1000E-09  0.0000E+00  0.4088E+16
   -0.274986    0.26685  0.1986E-10  0.1219E-13  0.7603E-17  0.1000E-09  0.0000E+00  0.4019E+16
   -0.343734    0.33238  0.1981E-10  0.1219E-13  0.7603E-17  0.1000E-09  0.0000E+00  0.3984E+16
   -0.412483    0.39859  0.1981E-10  0.1219E-13  0.7603E-17  0.1000E-09  0.0000E+00  0.3982E+16
   -0.481232    0.46609  0.1980E-10  0.1219E-13  0.7603E-17  0.1000E-09  0.0000E+00  0.4011E+16
   -0.549982    0.53550  0.1980E-10  0.1219E-13  0.7603E-17  0.1000E-09  0.0000E+00  0.4066E+16
   -0.618731    0.60740  0.1980E-10  0.1219E-13  0.7603E-17  0.1000E-09  0.0000E+00  0.4146E+16
   -0.687482    0.68242  0.1980E-10  0.1219E-13  0.7603E-17  0.1000E-09  0.0000E+00  0.4262E+16
   -0.756232    0.76145  0.1980E-10  0.1219E-13  0.7603E-17  0.1000E-09  0.0000E+00  0.4401E+16
   -0.824983    0.84527  0.1980E-10  0.1219E-13  0.7603E-17  0.1000E-09  0.0000E+00  0.4548E+16
   -0.893734    0.93445  0.1980E-10  0.1219E-13  0.7603E-17  0.1000E-09  0.0000E+00  0.4697E+16
   -0.962486    1.02951  0.1980E-10  0.1219E-13  0.7603E-17  0.1000E-09  0.0000E+00  0.4841E+16
   -1.031238    1.13097  0.1980E-10  0.1219E-13  0.7603E-17  0.1000E-09  0.0000E+00  0.4972E+16
   -1.099989    1.23926  0.1980E-10  0.1219E-13  0.7603E-17  0.1000E-09  0.0000E+00  0.5083E+16
   -1.168741    1.35478  0.1978E-10  0.1219E-13  0.7603E-17  0.1000E-09  0.0000E+00  0.5164E+16
   -1.237493    1.47785  0.1975E-10  0.1417E-13  0.7603E-17  0.1000E-09  0.0000E+00  0.5209E+16
   -1.306246    1.60871  0.1967E-10  0.6437E-13  0.1178E-16  0.1000E-09  0.0000E+00  0.5209E+16
   -1.374998    1.74752  0.1955E-10  0.1893E-12  0.2874E-16  0.1000E-09  0.0000E+00  0.5172E+16
   -1.443750    1.89480  0.1944E-10  0.4966E-12  0.7155E-16  0.1000E-09  0.0000E+00  0.5078E+16
   -1.512502    2.05067  0.1936E-10  0.1258E-11  0.1754E-15  0.1000E-09  0.0000E+00  0.4913E+16
   -1.581254    2.21494  0.1933E-10  0.3132E-11  0.4243E-15  0.1000E-09  0.0000E+00  0.4674E+16
   -1.650006    2.38729  0.1930E-10  0.7699E-11  0.1014E-14  0.1000E-09  0.0000E+00  0.4359E+16
   -1.718758    2.56729  0.1929E-10  0.1870E-10  0.2396E-14  0.1000E-09  0.0000E+00  0.3967E+16
   -1.787510    2.75434  0.1928E-10  0.4607E-10  0.5738E-14  0.1000E-09  0.0000E+00  0.3517E+16
   -1.856261    2.94865  0.1928E-10  0.1142E-09  0.1383E-13  0.1000E-09  0.0000E+00  0.3002E+16
   -1.925012    3.15012  0.1927E-10  0.2818E-09  0.3323E-13  0.1000E-09  0.0000E+00  0.2420E+16
   -1.993763    3.35873  0.1926E-10  0.6927E-09  0.7955E-13  0.2294E-09  0.0000E+00  0.1765E+16
   -2.062514    3.57356  0.1923E-10  0.1656E-08  0.1853E-12  0.9095E-09  0.0000E+00  0.1037E+16
   -2.131264    3.78988  0.1918E-10  0.3895E-08  0.4250E-12  0.7168E-08  0.0000E+00  0.3018E+15
   -2.200014    3.99808  0.1916E-10  0.5009E-08  0.5512E-12  0.1738E-04  0.0000E+00 -0.3483E+12
   -2.268764    3.99984  0.1916E-10  0.5487E-08  0.6238E-12  0.1857E-04  0.0000E+00 -0.3730E+12
   -2.337513    4.00150  0.1916E-10  0.5878E-08  0.7086E-12  0.1864E-04  0.0000E+00 -0.4184E+12
   -2.406261    4.00316  0.1916E-10  0.6185E-08  0.8166E-12  0.1757E-04  0.0000E+00 -0.4976E+12
   -2.475009    4.00495  0.1916E-10  0.6394E-08  0.9711E-12  0.1523E-04  0.0000E+00 -0.6471E+12
   -2.543757    4.00705  0.1916E-10  0.6467E-08  0.1233E-11  0.1151E-04  0.0000E+00 -0.9875E+12
   -2.612504    4.00990  0.1916E-10  0.6271E-08  0.1847E-11  0.6409E-05  0.0000E+00 -0.2195E+13
   -2.681250    4.01524  0.1916E-10  0.5074E-08  0.5042E-11  0.1229E-05  0.0000E+00 -0.2088E+14
   -2.749996    4.04550  0.1916E-10  0.0000E+00  0.0000E+00  0.0000E+00  0.0000E+00  0.0000E+00
