 1 - depth, m
 2 - temperature, C
 3 - salinity, kg/kg
 4 - turbulent kinetic energy, m**2/s**2
 5 - dissipation rate, m**2/s**3
 6 - kinematic heat conductance, m**2/s
 7 - modulus of horizontal velocity, m/s
 8 - Richardson number, n/d
   -0.000000   -0.00000  0.5458E-11  0.1219E-13  0.7603E-17  0.1000E-09  0.0000E+00  0.4435E+16
   -0.068746    0.06713  0.2984E-11  0.1219E-13  0.7603E-17  0.1000E-09  0.0000E+00  0.4243E+16
   -0.137492    0.13253  0.2374E-11  0.1219E-13  0.7603E-17  0.1000E-09  0.0000E+00  0.4095E+16
   -0.206239    0.19679  0.2240E-11  0.1219E-13  0.7603E-17  0.1000E-09  0.0000E+00  0.3988E+16
   -0.274986    0.26051  0.2214E-11  0.1219E-13  0.7603E-17  0.1000E-09  0.0000E+00  0.3920E+16
   -0.343734    0.32429  0.2210E-11  0.1219E-13  0.7603E-17  0.1000E-09  0.0000E+00  0.3889E+16
   -0.412483    0.38875  0.2209E-11  0.1219E-13  0.7603E-17  0.1000E-09  0.0000E+00  0.3893E+16
   -0.481232    0.45453  0.2209E-11  0.1219E-13  0.7603E-17  0.1000E-09  0.0000E+00  0.3930E+16
   -0.549982    0.52228  0.2209E-11  0.1219E-13  0.7603E-17  0.1000E-09  0.0000E+00  0.3999E+16
   -0.618732    0.59268  0.2209E-11  0.1219E-13  0.7603E-17  0.1000E-09  0.0000E+00  0.4095E+16
   -0.687482    0.66642  0.2209E-11  0.1219E-13  0.7603E-17  0.1000E-09  0.0000E+00  0.4231E+16
   -0.756232    0.74448  0.2209E-11  0.1219E-13  0.7603E-17  0.1000E-09  0.0000E+00  0.4396E+16
   -0.824983    0.82772  0.2209E-11  0.1219E-13  0.7603E-17  0.1000E-09  0.0000E+00  0.4572E+16
   -0.893735    0.91682  0.2209E-11  0.1219E-13  0.7603E-17  0.1000E-09  0.0000E+00  0.4754E+16
   -0.962486    1.01245  0.2209E-11  0.1219E-13  0.7603E-17  0.1000E-09  0.0000E+00  0.4933E+16
   -1.031238    1.11521  0.2209E-11  0.1219E-13  0.7603E-17  0.1000E-09  0.0000E+00  0.5101E+16
   -1.099990    1.22571  0.2208E-11  0.1219E-13  0.7603E-17  0.1000E-09  0.0000E+00  0.5249E+16
   -1.168742    1.34445  0.2206E-11  0.5554E-13  0.1038E-16  0.1000E-09  0.0000E+00  0.5367E+16
   -1.237494    1.47193  0.2202E-11  0.1645E-12  0.2465E-16  0.1000E-09  0.0000E+00  0.5445E+16
   -1.306246    1.60853  0.2193E-11  0.4295E-12  0.6077E-16  0.1000E-09  0.0000E+00  0.5472E+16
   -1.374998    1.75457  0.2180E-11  0.1079E-11  0.1478E-15  0.1000E-09  0.0000E+00  0.5457E+16
   -1.443750    1.91082  0.2167E-11  0.2664E-11  0.3546E-15  0.1000E-09  0.0000E+00  0.5373E+16
   -1.512502    2.07758  0.2159E-11  0.6496E-11  0.8410E-15  0.1000E-09  0.0000E+00  0.5203E+16
   -1.581255    2.25481  0.2155E-11  0.1566E-10  0.1973E-14  0.1000E-09  0.0000E+00  0.4939E+16
   -1.650006    2.44232  0.2153E-11  0.3735E-10  0.4581E-14  0.1000E-09  0.0000E+00  0.4574E+16
   -1.718758    2.63976  0.2151E-11  0.8814E-10  0.1053E-13  0.1000E-09  0.0000E+00  0.4108E+16
   -1.787510    2.84658  0.2151E-11  0.2110E-09  0.2454E-13  0.1000E-09  0.0000E+00  0.3561E+16
   -1.856261    3.06341  0.2150E-11  0.5088E-09  0.5763E-13  0.1028E-09  0.0000E+00  0.2915E+16
   -1.925013    3.29031  0.2149E-11  0.1223E-08  0.1351E-12  0.3183E-09  0.0000E+00  0.2162E+16
   -1.993764    3.52699  0.2148E-11  0.2930E-08  0.3155E-12  0.1239E-08  0.0000E+00  0.1297E+16
   -2.062514    3.77114  0.2142E-11  0.6800E-08  0.7148E-12  0.1010E-07  0.0000E+00  0.3612E+15
   -2.131265    4.00368  0.2139E-11  0.7981E-08  0.8449E-12  0.2994E-04  0.0000E+00 -0.3278E+12
   -2.200015    4.00485  0.2139E-11  0.8473E-08  0.9153E-12  0.3089E-04  0.0000E+00 -0.3401E+12
   -2.268764    4.00598  0.2139E-11  0.8862E-08  0.9930E-12  0.3077E-04  0.0000E+00 -0.3641E+12
   -2.337513    4.00713  0.2139E-11  0.9164E-08  0.1087E-11  0.2950E-04  0.0000E+00 -0.4047E+12
   -2.406262    4.00834  0.2139E-11  0.9373E-08  0.1211E-11  0.2692E-04  0.0000E+00 -0.4736E+12
   -2.475010    4.00968  0.2139E-11  0.9466E-08  0.1392E-11  0.2283E-04  0.0000E+00 -0.6009E+12
   -2.543757    4.01126  0.2139E-11  0.9386E-08  0.1707E-11  0.1700E-04  0.0000E+00 -0.8829E+12
   -2.612504    4.01343  0.2139E-11  0.8944E-08  0.2452E-11  0.9365E-05  0.0000E+00 -0.1840E+13
   -2.681251    4.01747  0.2139E-11  0.6855E-08  0.6715E-11  0.1501E-05  0.0000E+00 -0.1789E+14
   -2.749996    4.04337  0.2139E-11  0.0000E+00  0.0000E+00  0.0000E+00  0.0000E+00  0.0000E+00
