 1 - depth, m
 2 - temperature, C
 3 - salinity, kg/kg
 4 - turbulent kinetic energy, m**2/s**2
 5 - dissipation rate, m**2/s**3
 6 - kinematic heat conductance, m**2/s
 7 - modulus of horizontal velocity, m/s
 8 - Richardson number, n/d
   -0.000000   -0.00000  0.3147E-11  0.1219E-13  0.7603E-17  0.1000E-09  0.0000E+00  0.4376E+16
   -0.068746    0.06624  0.1736E-11  0.1219E-13  0.7603E-17  0.1000E-09  0.0000E+00  0.4185E+16
   -0.137492    0.13073  0.1385E-11  0.1219E-13  0.7603E-17  0.1000E-09  0.0000E+00  0.4037E+16
   -0.206239    0.19404  0.1308E-11  0.1219E-13  0.7603E-17  0.1000E-09  0.0000E+00  0.3929E+16
   -0.274986    0.25675  0.1293E-11  0.1219E-13  0.7603E-17  0.1000E-09  0.0000E+00  0.3859E+16
   -0.343734    0.31947  0.1291E-11  0.1219E-13  0.7603E-17  0.1000E-09  0.0000E+00  0.3827E+16
   -0.412483    0.38280  0.1291E-11  0.1219E-13  0.7603E-17  0.1000E-09  0.0000E+00  0.3831E+16
   -0.481232    0.44741  0.1290E-11  0.1219E-13  0.7603E-17  0.1000E-09  0.0000E+00  0.3869E+16
   -0.549982    0.51396  0.1290E-11  0.1219E-13  0.7603E-17  0.1000E-09  0.0000E+00  0.3941E+16
   -0.618732    0.58315  0.1290E-11  0.1219E-13  0.7603E-17  0.1000E-09  0.0000E+00  0.4042E+16
   -0.687482    0.65570  0.1290E-11  0.1219E-13  0.7603E-17  0.1000E-09  0.0000E+00  0.4185E+16
   -0.756232    0.73262  0.1290E-11  0.1219E-13  0.7603E-17  0.1000E-09  0.0000E+00  0.4359E+16
   -0.824983    0.81484  0.1290E-11  0.1219E-13  0.7603E-17  0.1000E-09  0.0000E+00  0.4548E+16
   -0.893735    0.90308  0.1290E-11  0.1219E-13  0.7603E-17  0.1000E-09  0.0000E+00  0.4744E+16
   -0.962486    0.99804  0.1290E-11  0.1219E-13  0.7603E-17  0.1000E-09  0.0000E+00  0.4940E+16
   -1.031238    1.10042  0.1290E-11  0.1219E-13  0.7603E-17  0.1000E-09  0.0000E+00  0.5126E+16
   -1.099990    1.21085  0.1290E-11  0.1219E-13  0.7603E-17  0.1000E-09  0.0000E+00  0.5294E+16
   -1.168742    1.32994  0.1289E-11  0.4426E-13  0.9501E-17  0.1000E-09  0.0000E+00  0.5431E+16
   -1.237494    1.45819  0.1287E-11  0.1364E-12  0.2348E-16  0.1000E-09  0.0000E+00  0.5526E+16
   -1.306246    1.59607  0.1281E-11  0.3766E-12  0.6129E-16  0.1000E-09  0.0000E+00  0.5568E+16
   -1.374998    1.74391  0.1273E-11  0.1004E-11  0.1579E-15  0.1000E-09  0.0000E+00  0.5565E+16
   -1.443750    1.90253  0.1266E-11  0.2628E-11  0.4012E-15  0.1000E-09  0.0000E+00  0.5486E+16
   -1.512502    2.07220  0.1261E-11  0.6786E-11  0.1006E-14  0.1000E-09  0.0000E+00  0.5315E+16
   -1.581254    2.25287  0.1259E-11  0.1730E-10  0.2492E-14  0.1000E-09  0.0000E+00  0.5042E+16
   -1.650006    2.44430  0.1258E-11  0.4358E-10  0.6098E-14  0.1000E-09  0.0000E+00  0.4661E+16
   -1.718758    2.64607  0.1257E-11  0.1084E-09  0.1475E-13  0.1000E-09  0.0000E+00  0.4172E+16
   -1.787510    2.85758  0.1256E-11  0.2737E-09  0.3619E-13  0.1000E-09  0.0000E+00  0.3590E+16
   -1.856261    3.07907  0.1256E-11  0.6942E-09  0.8927E-13  0.1564E-09  0.0000E+00  0.2906E+16
   -1.925013    3.31052  0.1256E-11  0.1753E-08  0.2194E-12  0.5281E-09  0.0000E+00  0.2116E+16
   -1.993763    3.55158  0.1255E-11  0.4402E-08  0.5364E-12  0.2254E-08  0.0000E+00  0.1212E+16
   -2.062514    3.79912  0.1251E-11  0.1060E-07  0.1261E-11  0.2405E-07  0.0000E+00  0.2675E+15
   -2.131264    4.01746  0.1251E-11  0.1210E-07  0.1447E-11  0.4170E-04  0.0000E+00 -0.4253E+12
   -2.200014    4.01832  0.1251E-11  0.1269E-07  0.1544E-11  0.4203E-04  0.0000E+00 -0.4358E+12
   -2.268764    4.01918  0.1251E-11  0.1314E-07  0.1650E-11  0.4118E-04  0.0000E+00 -0.4592E+12
   -2.337513    4.02006  0.1251E-11  0.1347E-07  0.1777E-11  0.3901E-04  0.0000E+00 -0.5012E+12
   -2.406261    4.02100  0.1251E-11  0.1366E-07  0.1946E-11  0.3532E-04  0.0000E+00 -0.5739E+12
   -2.475010    4.02204  0.1251E-11  0.1370E-07  0.2196E-11  0.2983E-04  0.0000E+00 -0.7087E+12
   -2.543757    4.02328  0.1251E-11  0.1349E-07  0.2634E-11  0.2222E-04  0.0000E+00 -0.1004E+13
   -2.612504    4.02498  0.1251E-11  0.1278E-07  0.3676E-11  0.1232E-04  0.0000E+00 -0.1977E+13
   -2.681250    4.02812  0.1251E-11  0.9452E-08  0.1012E-10  0.1743E-05  0.0000E+00 -0.1905E+14
   -2.749996    4.05098  0.1251E-11  0.0000E+00  0.0000E+00  0.0000E+00  0.0000E+00  0.0000E+00
