 1 - depth, m
 2 - temperature, C
 3 - salinity, kg/kg
 4 - turbulent kinetic energy, m**2/s**2
 5 - dissipation rate, m**2/s**3
 6 - kinematic heat conductance, m**2/s
 7 - modulus of horizontal velocity, m/s
 8 - Richardson number, n/d
   -0.000000   -0.00000  0.5887E-12  0.1219E-13  0.7603E-17  0.1000E-09  0.0000E+00  0.7306E+16
   -0.068746    0.11125  0.1770E-11  0.1219E-13  0.7603E-17  0.1000E-09  0.0000E+00  0.7206E+16
   -0.137493    0.22443  0.2282E-11  0.1219E-13  0.7603E-17  0.1000E-09  0.0000E+00  0.7084E+16
   -0.206240    0.33934  0.2358E-11  0.1219E-13  0.7603E-17  0.1000E-09  0.0000E+00  0.6941E+16
   -0.274988    0.45578  0.2235E-11  0.1219E-13  0.7603E-17  0.1000E-09  0.0000E+00  0.6777E+16
   -0.343736    0.57354  0.2059E-11  0.1219E-13  0.7603E-17  0.1000E-09  0.0000E+00  0.6593E+16
   -0.412485    0.69239  0.1906E-11  0.1219E-13  0.7603E-17  0.1000E-09  0.0000E+00  0.6393E+16
   -0.481234    0.81212  0.1800E-11  0.1219E-13  0.7603E-17  0.1000E-09  0.0000E+00  0.6180E+16
   -0.549984    0.93256  0.1738E-11  0.1219E-13  0.7603E-17  0.1000E-09  0.0000E+00  0.5954E+16
   -0.618734    1.05352  0.1705E-11  0.1219E-13  0.7603E-17  0.1000E-09  0.0000E+00  0.5719E+16
   -0.687485    1.17485  0.1689E-11  0.1219E-13  0.7603E-17  0.1000E-09  0.0000E+00  0.5477E+16
   -0.756236    1.29642  0.1682E-11  0.1219E-13  0.7603E-17  0.1000E-09  0.0000E+00  0.5230E+16
   -0.824987    1.41813  0.1679E-11  0.1219E-13  0.7603E-17  0.1000E-09  0.0000E+00  0.4978E+16
   -0.893738    1.53985  0.1678E-11  0.1219E-13  0.7603E-17  0.1000E-09  0.0000E+00  0.4724E+16
   -0.962490    1.66148  0.1676E-11  0.1219E-13  0.7603E-17  0.1000E-09  0.0000E+00  0.4468E+16
   -1.031242    1.78294  0.1675E-11  0.1219E-13  0.7603E-17  0.1000E-09  0.0000E+00  0.4211E+16
   -1.099994    1.90414  0.1673E-11  0.1219E-13  0.7603E-17  0.1000E-09  0.0000E+00  0.3955E+16
   -1.168747    2.02503  0.1670E-11  0.1219E-13  0.7603E-17  0.1000E-09  0.0000E+00  0.3700E+16
   -1.237499    2.14554  0.1666E-11  0.1219E-13  0.7603E-17  0.1000E-09  0.0000E+00  0.3447E+16
   -1.306251    2.26563  0.1661E-11  0.1219E-13  0.7603E-17  0.1000E-09  0.0000E+00  0.3196E+16
   -1.375004    2.38526  0.1657E-11  0.1219E-13  0.7603E-17  0.1000E-09  0.0000E+00  0.2950E+16
   -1.443756    2.50445  0.1652E-11  0.1219E-13  0.7603E-17  0.1000E-09  0.0000E+00  0.2707E+16
   -1.512509    2.62319  0.1647E-11  0.1219E-13  0.7603E-17  0.1000E-09  0.0000E+00  0.2467E+16
   -1.581261    2.74147  0.1643E-11  0.1219E-13  0.7603E-17  0.1000E-09  0.0000E+00  0.2231E+16
   -1.650014    2.85932  0.1640E-11  0.5540E-13  0.1177E-16  0.1000E-09  0.0000E+00  0.1999E+16
   -1.718766    2.97675  0.1637E-11  0.1732E-12  0.3079E-16  0.1000E-09  0.0000E+00  0.1769E+16
   -1.787518    3.09370  0.1635E-11  0.4997E-12  0.8443E-16  0.1000E-09  0.0000E+00  0.1523E+16
   -1.856269    3.20856  0.1633E-11  0.1417E-11  0.2315E-15  0.1000E-09  0.0000E+00  0.1284E+16
   -1.925021    3.32089  0.1632E-11  0.3973E-11  0.6298E-15  0.1000E-09  0.0000E+00  0.1055E+16
   -1.993772    3.43004  0.1631E-11  0.1106E-10  0.1702E-14  0.1000E-09  0.0000E+00  0.8409E+15
   -2.062523    3.53584  0.1630E-11  0.2983E-10  0.4459E-14  0.1000E-09  0.0000E+00  0.6580E+15
   -2.131274    3.64070  0.1629E-11  0.7935E-10  0.1152E-13  0.1217E-09  0.0000E+00  0.4809E+15
   -2.200024    3.74478  0.1629E-11  0.2089E-09  0.2950E-13  0.4868E-09  0.0000E+00  0.3075E+15
   -2.268774    3.84773  0.1629E-11  0.5489E-09  0.7538E-13  0.2740E-08  0.0000E+00  0.1392E+15
   -2.337523    3.94809  0.1629E-11  0.1391E-08  0.1870E-12  0.1042E-06  0.0000E+00  0.8401E+13
   -2.406272    4.00609  0.1629E-11  0.2311E-08  0.3163E-12  0.7801E-05  0.0000E+00 -0.5812E+12
   -2.475020    4.00789  0.1629E-11  0.2655E-08  0.3907E-12  0.7580E-05  0.0000E+00 -0.6488E+12
   -2.543768    4.00973  0.1629E-11  0.2817E-08  0.4849E-12  0.6237E-05  0.0000E+00 -0.8512E+12
   -2.612515    4.01194  0.1629E-11  0.2736E-08  0.6691E-12  0.3634E-05  0.0000E+00 -0.1585E+13
   -2.681262    4.01563  0.1629E-11  0.1976E-08  0.1523E-11  0.5573E-06  0.0000E+00 -0.1126E+14
   -2.750008    4.03424  0.1629E-11  0.0000E+00  0.0000E+00  0.0000E+00  0.0000E+00  0.0000E+00
