 1 - depth, m
 2 - temperature, C
 3 - salinity, kg/kg
 4 - turbulent kinetic energy, m**2/s**2
 5 - dissipation rate, m**2/s**3
 6 - kinematic heat conductance, m**2/s
 7 - modulus of horizontal velocity, m/s
 8 - Richardson number, n/d
   -0.000000    2.33038  0.1932E-10  0.2019E-04  0.1256E-05  0.3372E-04  0.4700E-01  0.6190E-02
   -0.068746    2.36896  0.1932E-10  0.1741E-04  0.4053E-06  0.7348E-04  0.3489E-01  0.1581E-01
   -0.137492    2.38607  0.1932E-10  0.1582E-04  0.2231E-06  0.1041E-03  0.3036E-01  0.2612E-01
   -0.206239    2.39839  0.1932E-10  0.1455E-04  0.1486E-06  0.1273E-03  0.2745E-01  0.3793E-01
   -0.274987    2.40864  0.1932E-10  0.1341E-04  0.1086E-06  0.1436E-03  0.2529E-01  0.5156E-01
   -0.343735    2.41792  0.1932E-10  0.1236E-04  0.8381E-07  0.1535E-03  0.2355E-01  0.6739E-01
   -0.412484    2.42681  0.1932E-10  0.1137E-04  0.6692E-07  0.1579E-03  0.2208E-01  0.8593E-01
   -0.481233    2.43571  0.1932E-10  0.1044E-04  0.5474E-07  0.1573E-03  0.2079E-01  0.1079E+00
   -0.549983    2.44497  0.1932E-10  0.9552E-05  0.4556E-07  0.1526E-03  0.1962E-01  0.1340E+00
   -0.618733    2.45498  0.1932E-10  0.8705E-05  0.3844E-07  0.1442E-03  0.1854E-01  0.1655E+00
   -0.687483    2.46628  0.1932E-10  0.7893E-05  0.3279E-07  0.1331E-03  0.1752E-01  0.2034E+00
   -0.756234    2.47971  0.1932E-10  0.7113E-05  0.2824E-07  0.1200E-03  0.1653E-01  0.2485E+00
   -0.824985    2.49686  0.1932E-10  0.6359E-05  0.2455E-07  0.1060E-03  0.1554E-01  0.2996E+00
   -0.893737    2.52121  0.1932E-10  0.5624E-05  0.2154E-07  0.9231E-04  0.1450E-01  0.3492E+00
   -0.962488    2.56234  0.1932E-10  0.4897E-05  0.1900E-07  0.7999E-04  0.1332E-01  0.3834E+00
   -1.031240    2.65737  0.1932E-10  0.4206E-05  0.1644E-07  0.6950E-04  0.1180E-01  0.4183E+00
   -1.099992    2.91001  0.1932E-10  0.3687E-05  0.1399E-07  0.6070E-04  0.9809E-02  0.5333E+00
   -1.168744    3.16418  0.1933E-10  0.3275E-05  0.1188E-07  0.5527E-04  0.8109E-02  0.4930E+00
   -1.237497    3.31397  0.1933E-10  0.2894E-05  0.1020E-07  0.9663E-04  0.6896E-02  0.6233E+03
   -1.306249    3.39633  0.1933E-10  0.2560E-05  0.8815E-08  0.9605E-04  0.5923E-02  0.2042E+02
   -1.375001    3.46640  0.1933E-10  0.2272E-05  0.7671E-08  0.9901E-04  0.5060E-02  0.1954E+02
   -1.443754    3.52997  0.1933E-10  0.2030E-05  0.6729E-08  0.1045E-03  0.4274E-02  0.2026E+02
   -1.512506    3.58959  0.1933E-10  0.1839E-05  0.5973E-08  0.1133E-03  0.3551E-02  0.1984E+02
   -1.581258    3.64476  0.1933E-10  0.1703E-05  0.5416E-08  0.1248E-03  0.2894E-02  0.2390E+02
   -1.650010    3.69240  0.1933E-10  0.1619E-05  0.5093E-08  0.1366E-03  0.2317E-02  0.1434E+04
   -1.718762    3.72952  0.1933E-10  0.1596E-05  0.5181E-08  0.1317E-03  0.1819E-02  0.8458E+03
   -1.787514    3.76199  0.1933E-10  0.1149E-05  0.3239E-08  0.1461E-03  0.5797E-03  0.3236E+04
   -1.856266    3.80188  0.1933E-10  0.8844E-06  0.2187E-08  0.1466E-03  0.3427E-03  0.6468E+04
   -1.925017    3.85221  0.1933E-10  0.6783E-06  0.1456E-08  0.1483E-03  0.2035E-03  0.2014E+05
   -1.993768    3.88841  0.1934E-10  0.5102E-06  0.9275E-09  0.1508E-03  0.1241E-03  0.7383E+05
   -2.062519    3.92055  0.1934E-10  0.3712E-06  0.5385E-09  0.1537E-03  0.7379E-04  0.4693E+05
   -2.131269    3.95831  0.1934E-10  0.2594E-06  0.2579E-09  0.1575E-03  0.3555E-04  0.6867E+05
   -2.200020    4.01738  0.1934E-10  0.2009E-06  0.1190E-09  0.1609E-03  0.1071E-04  0.6095E+05
   -2.268769    4.06021  0.1934E-10  0.1914E-06  0.9040E-10  0.1615E-03  0.3754E-05  0.9717E+05
   -2.337518    4.06883  0.1934E-10  0.1895E-06  0.8534E-10  0.1587E-03  0.2173E-05  0.9590E+05
   -2.406267    4.07448  0.1934E-10  0.1885E-06  0.8660E-10  0.1525E-03  0.1362E-05 -0.1558E+06
   -2.475015    4.07913  0.1934E-10  0.1869E-06  0.9196E-10  0.1404E-03  0.8570E-06 -0.2755E+07
   -2.543763    4.08363  0.1934E-10  0.1833E-06  0.1043E-09  0.1068E-03  0.5087E-06 -0.3332E+08
   -2.612510    4.08909  0.1934E-10  0.1741E-06  0.1382E-09  0.5552E-04  0.2421E-06 -0.7588E+09
   -2.681257    4.09824  0.1934E-10  0.1180E-06  0.4419E-09  0.5627E-05  0.7495E-07 -0.1767E+14
   -2.750002    4.17530  0.1934E-10  0.0000E+00  0.0000E+00  0.0000E+00  0.7511E-07  0.0000E+00
