 1 - depth, m
 2 - temperature, C
 3 - salinity, kg/kg
 4 - turbulent kinetic energy, m**2/s**2
 5 - dissipation rate, m**2/s**3
 6 - kinematic heat conductance, m**2/s
 7 - modulus of horizontal velocity, m/s
 8 - Richardson number, n/d
   -0.000000   -0.00000  0.9986E-12  0.1219E-13  0.7603E-17  0.1000E-09  0.0000E+00  0.7793E+16
   -0.068746    0.11879  0.1714E-11  0.1219E-13  0.7603E-17  0.1000E-09  0.0000E+00  0.7661E+16
   -0.137493    0.23950  0.1870E-11  0.1219E-13  0.7603E-17  0.1000E-09  0.0000E+00  0.7491E+16
   -0.206240    0.36167  0.1811E-11  0.1219E-13  0.7603E-17  0.1000E-09  0.0000E+00  0.7291E+16
   -0.274988    0.48492  0.1669E-11  0.1219E-13  0.7603E-17  0.1000E-09  0.0000E+00  0.7070E+16
   -0.343736    0.60899  0.1525E-11  0.1219E-13  0.7603E-17  0.1000E-09  0.0000E+00  0.6832E+16
   -0.412485    0.73365  0.1418E-11  0.1219E-13  0.7603E-17  0.1000E-09  0.0000E+00  0.6582E+16
   -0.481234    0.85870  0.1353E-11  0.1219E-13  0.7603E-17  0.1000E-09  0.0000E+00  0.6322E+16
   -0.549984    0.98398  0.1319E-11  0.1219E-13  0.7603E-17  0.1000E-09  0.0000E+00  0.6054E+16
   -0.618734    1.10933  0.1302E-11  0.1219E-13  0.7603E-17  0.1000E-09  0.0000E+00  0.5781E+16
   -0.687485    1.23464  0.1295E-11  0.1219E-13  0.7603E-17  0.1000E-09  0.0000E+00  0.5507E+16
   -0.756236    1.35981  0.1292E-11  0.1219E-13  0.7603E-17  0.1000E-09  0.0000E+00  0.5232E+16
   -0.824987    1.48479  0.1290E-11  0.1219E-13  0.7603E-17  0.1000E-09  0.0000E+00  0.4956E+16
   -0.893738    1.60949  0.1289E-11  0.1219E-13  0.7603E-17  0.1000E-09  0.0000E+00  0.4680E+16
   -0.962490    1.73384  0.1288E-11  0.1219E-13  0.7603E-17  0.1000E-09  0.0000E+00  0.4405E+16
   -1.031242    1.85778  0.1287E-11  0.1219E-13  0.7603E-17  0.1000E-09  0.0000E+00  0.4132E+16
   -1.099994    1.98124  0.1285E-11  0.1219E-13  0.7603E-17  0.1000E-09  0.0000E+00  0.3861E+16
   -1.168746    2.10418  0.1282E-11  0.1219E-13  0.7603E-17  0.1000E-09  0.0000E+00  0.3594E+16
   -1.237499    2.22654  0.1279E-11  0.1219E-13  0.7603E-17  0.1000E-09  0.0000E+00  0.3329E+16
   -1.306251    2.34829  0.1276E-11  0.1219E-13  0.7603E-17  0.1000E-09  0.0000E+00  0.3069E+16
   -1.375004    2.46938  0.1272E-11  0.1219E-13  0.7603E-17  0.1000E-09  0.0000E+00  0.2812E+16
   -1.443756    2.58979  0.1268E-11  0.1449E-13  0.7603E-17  0.1000E-09  0.0000E+00  0.2560E+16
   -1.512509    2.70949  0.1265E-11  0.6489E-13  0.1194E-16  0.1000E-09  0.0000E+00  0.2313E+16
   -1.581261    2.82846  0.1262E-11  0.1911E-12  0.2933E-16  0.1000E-09  0.0000E+00  0.2070E+16
   -1.650013    2.94667  0.1260E-11  0.5032E-12  0.7335E-16  0.1000E-09  0.0000E+00  0.1833E+16
   -1.718765    3.06412  0.1258E-11  0.1281E-11  0.1807E-15  0.1000E-09  0.0000E+00  0.1600E+16
   -1.787517    3.18076  0.1256E-11  0.3288E-11  0.4503E-15  0.1000E-09  0.0000E+00  0.1357E+16
   -1.856269    3.29519  0.1255E-11  0.8473E-11  0.1127E-14  0.1000E-09  0.0000E+00  0.1124E+16
   -1.925021    3.40702  0.1254E-11  0.2172E-10  0.2810E-14  0.1000E-09  0.0000E+00  0.9011E+15
   -1.993772    3.51569  0.1253E-11  0.5540E-10  0.6969E-14  0.1000E-09  0.0000E+00  0.6945E+15
   -2.062523    3.62108  0.1253E-11  0.1373E-09  0.1681E-13  0.1661E-09  0.0000E+00  0.5145E+15
   -2.131273    3.72548  0.1252E-11  0.3356E-09  0.4000E-13  0.5979E-09  0.0000E+00  0.3399E+15
   -2.200024    3.82891  0.1252E-11  0.8123E-09  0.9431E-13  0.2820E-08  0.0000E+00  0.1697E+15
   -2.268773    3.93018  0.1252E-11  0.1917E-08  0.2175E-12  0.4999E-07  0.0000E+00  0.2168E+14
   -2.337523    4.00596  0.1252E-11  0.2799E-08  0.3210E-12  0.1120E-04  0.0000E+00 -0.4070E+12
   -2.406272    4.00724  0.1252E-11  0.3134E-08  0.3762E-12  0.1113E-04  0.0000E+00 -0.4342E+12
   -2.475020    4.00853  0.1252E-11  0.3337E-08  0.4397E-12  0.1006E-04  0.0000E+00 -0.5081E+12
   -2.543768    4.00994  0.1252E-11  0.3398E-08  0.5334E-12  0.7838E-05  0.0000E+00 -0.6917E+12
   -2.612515    4.01174  0.1252E-11  0.3226E-08  0.7374E-12  0.4346E-05  0.0000E+00 -0.1341E+13
   -2.681261    4.01491  0.1252E-11  0.2286E-08  0.1769E-11  0.6151E-06  0.0000E+00 -0.1072E+14
   -2.750007    4.03308  0.1252E-11  0.0000E+00  0.0000E+00  0.0000E+00  0.0000E+00  0.0000E+00
