 1 - depth, m
 2 - temperature, C
 3 - salinity, kg/kg
 4 - turbulent kinetic energy, m**2/s**2
 5 - dissipation rate, m**2/s**3
 6 - kinematic heat conductance, m**2/s
 7 - modulus of horizontal velocity, m/s
 8 - Richardson number, n/d
   -0.000000   -0.00000  0.1114E-09  0.1219E-13  0.7603E-17  0.1000E-09  0.0000E+00  0.7339E+16
   -0.068746    0.11176  0.8559E-10  0.1219E-13  0.7603E-17  0.1000E-09  0.0000E+00  0.7095E+16
   -0.137492    0.22319  0.6503E-10  0.1219E-13  0.7603E-17  0.1000E-09  0.0000E+00  0.6852E+16
   -0.206239    0.33423  0.5323E-10  0.1219E-13  0.7603E-17  0.1000E-09  0.0000E+00  0.6609E+16
   -0.274987    0.44484  0.4748E-10  0.1219E-13  0.7603E-17  0.1000E-09  0.0000E+00  0.6367E+16
   -0.343735    0.55498  0.4502E-10  0.1219E-13  0.7603E-17  0.1000E-09  0.0000E+00  0.6127E+16
   -0.412484    0.66462  0.4408E-10  0.1219E-13  0.7603E-17  0.1000E-09  0.0000E+00  0.5889E+16
   -0.481233    0.77373  0.4375E-10  0.1219E-13  0.7603E-17  0.1000E-09  0.0000E+00  0.5652E+16
   -0.549982    0.88226  0.4365E-10  0.1219E-13  0.7603E-17  0.1000E-09  0.0000E+00  0.5418E+16
   -0.618732    0.99019  0.4362E-10  0.1219E-13  0.7603E-17  0.1000E-09  0.0000E+00  0.5187E+16
   -0.687483    1.09748  0.4361E-10  0.1219E-13  0.7603E-17  0.1000E-09  0.0000E+00  0.4963E+16
   -0.756233    1.20422  0.4361E-10  0.1219E-13  0.7603E-17  0.1000E-09  0.0000E+00  0.4745E+16
   -0.824984    1.31042  0.4360E-10  0.1219E-13  0.7603E-17  0.1000E-09  0.0000E+00  0.4529E+16
   -0.893736    1.41607  0.4360E-10  0.1219E-13  0.7603E-17  0.1000E-09  0.0000E+00  0.4315E+16
   -0.962487    1.52113  0.4358E-10  0.1219E-13  0.7603E-17  0.1000E-09  0.0000E+00  0.4104E+16
   -1.031239    1.62555  0.4355E-10  0.1219E-13  0.7603E-17  0.1000E-09  0.0000E+00  0.3895E+16
   -1.099991    1.72932  0.4350E-10  0.1219E-13  0.7603E-17  0.1000E-09  0.0000E+00  0.3689E+16
   -1.168743    1.83238  0.4343E-10  0.1219E-13  0.7603E-17  0.1000E-09  0.0000E+00  0.3486E+16
   -1.237495    1.93469  0.4334E-10  0.1219E-13  0.7603E-17  0.1000E-09  0.0000E+00  0.3286E+16
   -1.306247    2.03621  0.4322E-10  0.1219E-13  0.7603E-17  0.1000E-09  0.0000E+00  0.3089E+16
   -1.375000    2.13688  0.4310E-10  0.1219E-13  0.7603E-17  0.1000E-09  0.0000E+00  0.2897E+16
   -1.443752    2.23674  0.4298E-10  0.1219E-13  0.7603E-17  0.1000E-09  0.0000E+00  0.2709E+16
   -1.512504    2.33575  0.4288E-10  0.1219E-13  0.7603E-17  0.1000E-09  0.0000E+00  0.2525E+16
   -1.581256    2.43386  0.4280E-10  0.1219E-13  0.7603E-17  0.1000E-09  0.0000E+00  0.2344E+16
   -1.650008    2.53102  0.4275E-10  0.1219E-13  0.7603E-17  0.1000E-09  0.0000E+00  0.2167E+16
   -1.718760    2.62715  0.4270E-10  0.1219E-13  0.7603E-17  0.1000E-09  0.0000E+00  0.1995E+16
   -1.787512    2.72226  0.4267E-10  0.1219E-13  0.7603E-17  0.1000E-09  0.0000E+00  0.1847E+16
   -1.856264    2.81730  0.4263E-10  0.1219E-13  0.7603E-17  0.1000E-09  0.0000E+00  0.1699E+16
   -1.925015    2.91232  0.4259E-10  0.1219E-13  0.7603E-17  0.1000E-09  0.0000E+00  0.1554E+16
   -1.993766    3.00739  0.4253E-10  0.1219E-13  0.7603E-17  0.1000E-09  0.0000E+00  0.1406E+16
   -2.062517    3.10234  0.4246E-10  0.1219E-13  0.7603E-17  0.1000E-09  0.0000E+00  0.1254E+16
   -2.131267    3.19676  0.4239E-10  0.1219E-13  0.7603E-17  0.1000E-09  0.0000E+00  0.1105E+16
   -2.200017    3.29063  0.4233E-10  0.1219E-13  0.7603E-17  0.1000E-09  0.0000E+00  0.9582E+15
   -2.268767    3.38390  0.4228E-10  0.1219E-13  0.7603E-17  0.1000E-09  0.0000E+00  0.8177E+15
   -2.337516    3.47698  0.4224E-10  0.1219E-13  0.7638E-17  0.1000E-09  0.0000E+00  0.6804E+15
   -2.406265    3.57016  0.4222E-10  0.5335E-13  0.3644E-16  0.1000E-09  0.0000E+00  0.5447E+15
   -2.475013    3.66374  0.4221E-10  0.3583E-12  0.2377E-15  0.1000E-09  0.0000E+00  0.4097E+15
   -2.543760    3.75834  0.4221E-10  0.2446E-11  0.1577E-14  0.1000E-09  0.0000E+00  0.2727E+15
   -2.612507    3.85496  0.4221E-10  0.1720E-10  0.1085E-13  0.3782E-09  0.0000E+00  0.1284E+15
   -2.681254    3.95660  0.4221E-10  0.1323E-09  0.8388E-13  0.8081E-07  0.0000E+00 -0.1158E+14
   -2.749999    4.03493  0.4221E-10  0.0000E+00  0.0000E+00  0.0000E+00  0.0000E+00  0.0000E+00
