 1 - depth, m
 2 - temperature, C
 3 - salinity, kg/kg
 4 - turbulent kinetic energy, m**2/s**2
 5 - dissipation rate, m**2/s**3
 6 - kinematic heat conductance, m**2/s
 7 - modulus of horizontal velocity, m/s
 8 - Richardson number, n/d
   -0.000000   -0.00000  0.4745E-11  0.1219E-13  0.7603E-17  0.1000E-09  0.0000E+00  0.7680E+16
   -0.068746    0.11704  0.2822E-11  0.1219E-13  0.7603E-17  0.1000E-09  0.0000E+00  0.7374E+16
   -0.137492    0.23309  0.2041E-11  0.1219E-13  0.7603E-17  0.1000E-09  0.0000E+00  0.7097E+16
   -0.206239    0.34851  0.1778E-11  0.1219E-13  0.7603E-17  0.1000E-09  0.0000E+00  0.6844E+16
   -0.274987    0.46362  0.1702E-11  0.1219E-13  0.7603E-17  0.1000E-09  0.0000E+00  0.6612E+16
   -0.343735    0.57875  0.1684E-11  0.1219E-13  0.7603E-17  0.1000E-09  0.0000E+00  0.6397E+16
   -0.412483    0.69419  0.1680E-11  0.1219E-13  0.7603E-17  0.1000E-09  0.0000E+00  0.6197E+16
   -0.481232    0.81025  0.1679E-11  0.1219E-13  0.7603E-17  0.1000E-09  0.0000E+00  0.6008E+16
   -0.549982    0.92720  0.1679E-11  0.1219E-13  0.7603E-17  0.1000E-09  0.0000E+00  0.5827E+16
   -0.618732    1.04531  0.1679E-11  0.1219E-13  0.7603E-17  0.1000E-09  0.0000E+00  0.5652E+16
   -0.687482    1.16484  0.1679E-11  0.1219E-13  0.7603E-17  0.1000E-09  0.0000E+00  0.5490E+16
   -0.756233    1.28625  0.1679E-11  0.1219E-13  0.7603E-17  0.1000E-09  0.0000E+00  0.5332E+16
   -0.824984    1.40989  0.1678E-11  0.1219E-13  0.7603E-17  0.1000E-09  0.0000E+00  0.5168E+16
   -0.893735    1.53594  0.1678E-11  0.1219E-13  0.7603E-17  0.1000E-09  0.0000E+00  0.4995E+16
   -0.962486    1.66454  0.1678E-11  0.1368E-13  0.7603E-17  0.1000E-09  0.0000E+00  0.4811E+16
   -1.031238    1.79580  0.1677E-11  0.6330E-13  0.1062E-16  0.1000E-09  0.0000E+00  0.4612E+16
   -1.099990    1.92979  0.1675E-11  0.1802E-12  0.2420E-16  0.1000E-09  0.0000E+00  0.4398E+16
   -1.168742    2.06657  0.1672E-11  0.4504E-12  0.5698E-16  0.1000E-09  0.0000E+00  0.4166E+16
   -1.237494    2.20612  0.1667E-11  0.1081E-11  0.1323E-15  0.1000E-09  0.0000E+00  0.3915E+16
   -1.306246    2.34842  0.1660E-11  0.2550E-11  0.3034E-15  0.1000E-09  0.0000E+00  0.3645E+16
   -1.374999    2.49340  0.1652E-11  0.5939E-11  0.6875E-15  0.1000E-09  0.0000E+00  0.3359E+16
   -1.443751    2.64111  0.1645E-11  0.1368E-10  0.1542E-14  0.1000E-09  0.0000E+00  0.3053E+16
   -1.512503    2.79147  0.1641E-11  0.3117E-10  0.3422E-14  0.1000E-09  0.0000E+00  0.2726E+16
   -1.581255    2.94430  0.1638E-11  0.7032E-10  0.7519E-14  0.1000E-09  0.0000E+00  0.2379E+16
   -1.650007    3.09937  0.1636E-11  0.1570E-09  0.1636E-13  0.1000E-09  0.0000E+00  0.2015E+16
   -1.718759    3.25644  0.1635E-11  0.3472E-09  0.3526E-13  0.1097E-09  0.0000E+00  0.1636E+16
   -1.787511    3.41532  0.1634E-11  0.7785E-09  0.7705E-13  0.3113E-09  0.0000E+00  0.1260E+16
   -1.856262    3.57830  0.1632E-11  0.1759E-08  0.1697E-12  0.1012E-08  0.0000E+00  0.8529E+15
   -1.925013    3.74516  0.1629E-11  0.3957E-08  0.3726E-12  0.4571E-08  0.0000E+00  0.4146E+15
   -1.993764    3.91305  0.1628E-11  0.8415E-08  0.7781E-12  0.1085E-06  0.0000E+00  0.3613E+14
   -2.062515    4.01381  0.1628E-11  0.9412E-08  0.8752E-12  0.4222E-04  0.0000E+00 -0.2582E+12
   -2.131265    4.01441  0.1628E-11  0.9826E-08  0.9258E-12  0.4242E-04  0.0000E+00 -0.2625E+12
   -2.200015    4.01500  0.1628E-11  0.1015E-07  0.9793E-12  0.4172E-04  0.0000E+00 -0.2726E+12
   -2.268765    4.01560  0.1628E-11  0.1038E-07  0.1040E-11  0.4006E-04  0.0000E+00 -0.2900E+12
   -2.337514    4.01622  0.1628E-11  0.1054E-07  0.1114E-11  0.3729E-04  0.0000E+00 -0.3189E+12
   -2.406263    4.01690  0.1628E-11  0.1060E-07  0.1215E-11  0.3320E-04  0.0000E+00 -0.3673E+12
   -2.475011    4.01765  0.1628E-11  0.1055E-07  0.1368E-11  0.2755E-04  0.0000E+00 -0.4562E+12
   -2.543758    4.01857  0.1628E-11  0.1032E-07  0.1640E-11  0.2009E-04  0.0000E+00 -0.6504E+12
   -2.612505    4.01983  0.1628E-11  0.9698E-08  0.2301E-11  0.1078E-04  0.0000E+00 -0.1292E+13
   -2.681251    4.02221  0.1628E-11  0.7014E-08  0.6410E-11  0.1413E-05  0.0000E+00 -0.1236E+14
   -2.749997    4.03986  0.1628E-11  0.0000E+00  0.0000E+00  0.0000E+00  0.0000E+00  0.0000E+00
