 1 - depth, m
 2 - temperature, C
 3 - salinity, kg/kg
 4 - turbulent kinetic energy, m**2/s**2
 5 - dissipation rate, m**2/s**3
 6 - kinematic heat conductance, m**2/s
 7 - modulus of horizontal velocity, m/s
 8 - Richardson number, n/d
   -0.000000   -0.00000  0.1440E-09  0.1219E-13  0.7603E-17  0.1000E-09  0.0000E+00  0.4390E+16
   -0.068746    0.06644  0.7728E-10  0.1219E-13  0.7603E-17  0.1000E-09  0.0000E+00  0.4222E+16
   -0.137492    0.13150  0.6079E-10  0.1219E-13  0.7603E-17  0.1000E-09  0.0000E+00  0.4086E+16
   -0.206239    0.19559  0.5712E-10  0.1219E-13  0.7603E-17  0.1000E-09  0.0000E+00  0.3981E+16
   -0.274987    0.25917  0.5639E-10  0.1219E-13  0.7603E-17  0.1000E-09  0.0000E+00  0.3905E+16
   -0.343735    0.32269  0.5626E-10  0.1219E-13  0.7603E-17  0.1000E-09  0.0000E+00  0.3858E+16
   -0.412483    0.38660  0.5624E-10  0.1219E-13  0.7603E-17  0.1000E-09  0.0000E+00  0.3837E+16
   -0.481232    0.45138  0.5624E-10  0.1219E-13  0.7603E-17  0.1000E-09  0.0000E+00  0.3839E+16
   -0.549982    0.51749  0.5624E-10  0.1219E-13  0.7603E-17  0.1000E-09  0.0000E+00  0.3864E+16
   -0.618732    0.58539  0.5624E-10  0.1219E-13  0.7603E-17  0.1000E-09  0.0000E+00  0.3907E+16
   -0.687482    0.65554  0.5624E-10  0.1219E-13  0.7603E-17  0.1000E-09  0.0000E+00  0.3981E+16
   -0.756233    0.72865  0.5624E-10  0.1219E-13  0.7603E-17  0.1000E-09  0.0000E+00  0.4074E+16
   -0.824984    0.80532  0.5624E-10  0.1219E-13  0.7603E-17  0.1000E-09  0.0000E+00  0.4174E+16
   -0.893735    0.88594  0.5624E-10  0.1219E-13  0.7603E-17  0.1000E-09  0.0000E+00  0.4275E+16
   -0.962487    0.97086  0.5624E-10  0.1219E-13  0.7603E-17  0.1000E-09  0.0000E+00  0.4373E+16
   -1.031238    1.06042  0.5624E-10  0.1219E-13  0.7603E-17  0.1000E-09  0.0000E+00  0.4463E+16
   -1.099990    1.15489  0.5623E-10  0.1219E-13  0.7603E-17  0.1000E-09  0.0000E+00  0.4540E+16
   -1.168742    1.25449  0.5622E-10  0.1219E-13  0.7603E-17  0.1000E-09  0.0000E+00  0.4598E+16
   -1.237494    1.35939  0.5618E-10  0.1219E-13  0.7603E-17  0.1000E-09  0.0000E+00  0.4632E+16
   -1.306246    1.46969  0.5608E-10  0.1219E-13  0.7603E-17  0.1000E-09  0.0000E+00  0.4637E+16
   -1.374999    1.58540  0.5589E-10  0.1219E-13  0.7603E-17  0.1000E-09  0.0000E+00  0.4623E+16
   -1.443751    1.70685  0.5563E-10  0.1219E-13  0.7603E-17  0.1000E-09  0.0000E+00  0.4575E+16
   -1.512503    1.83404  0.5538E-10  0.1219E-13  0.7603E-17  0.1000E-09  0.0000E+00  0.4484E+16
   -1.581255    1.96674  0.5521E-10  0.1219E-13  0.7603E-17  0.1000E-09  0.0000E+00  0.4348E+16
   -1.650007    2.10463  0.5513E-10  0.1219E-13  0.7603E-17  0.1000E-09  0.0000E+00  0.4166E+16
   -1.718759    2.24734  0.5509E-10  0.1219E-13  0.7603E-17  0.1000E-09  0.0000E+00  0.3938E+16
   -1.787511    2.39431  0.5506E-10  0.1219E-13  0.7603E-17  0.1000E-09  0.0000E+00  0.3644E+16
   -1.856262    2.54396  0.5505E-10  0.1219E-13  0.7603E-17  0.1000E-09  0.0000E+00  0.3322E+16
   -1.925013    2.69580  0.5504E-10  0.2525E-13  0.9561E-17  0.1000E-09  0.0000E+00  0.2976E+16
   -1.993764    2.84931  0.5503E-10  0.1035E-12  0.3434E-16  0.1000E-09  0.0000E+00  0.2613E+16
   -2.062515    3.00409  0.5500E-10  0.4103E-12  0.1302E-15  0.1000E-09  0.0000E+00  0.2253E+16
   -2.131265    3.16097  0.5496E-10  0.1587E-11  0.4846E-15  0.1000E-09  0.0000E+00  0.1877E+16
   -2.200015    3.31966  0.5487E-10  0.6025E-11  0.1773E-14  0.1000E-09  0.0000E+00  0.1484E+16
   -2.268765    3.47962  0.5474E-10  0.2271E-10  0.6443E-14  0.1000E-09  0.0000E+00  0.1084E+16
   -2.337514    3.64097  0.5458E-10  0.8583E-10  0.2350E-13  0.1762E-09  0.0000E+00  0.6754E+15
   -2.406263    3.80354  0.5447E-10  0.3230E-09  0.8544E-13  0.1660E-08  0.0000E+00  0.2588E+15
   -2.475011    3.96563  0.5445E-10  0.1117E-08  0.2888E-12  0.4477E-06  0.0000E+00  0.4617E+12
   -2.543758    4.00557  0.5445E-10  0.2495E-08  0.8000E-12  0.2930E-05  0.0000E+00 -0.2939E+13
   -2.612505    4.01364  0.5445E-10  0.3210E-08  0.1473E-11  0.2354E-05  0.0000E+00 -0.5692E+13
   -2.681252    4.02470  0.5445E-10  0.3508E-08  0.3947E-11  0.9136E-06  0.0000E+00 -0.3143E+14
   -2.749997    4.06041  0.5445E-10  0.0000E+00  0.0000E+00  0.0000E+00  0.0000E+00  0.0000E+00
