 1 - depth, m
 2 - temperature, C
 3 - salinity, kg/kg
 4 - turbulent kinetic energy, m**2/s**2
 5 - dissipation rate, m**2/s**3
 6 - kinematic heat conductance, m**2/s
 7 - modulus of horizontal velocity, m/s
 8 - Richardson number, n/d
   -0.000000    8.24273  0.2559E-10  0.1992E-04  0.1219E-05  0.3498E-04  0.3446E-01 -0.9090E-02
   -0.068746    8.27114  0.2559E-10  0.1788E-04  0.3861E-06  0.8883E-04  0.2219E-01 -0.2541E-01
   -0.137492    8.28133  0.2559E-10  0.1696E-04  0.2131E-06  0.1435E-03  0.1795E-01 -0.4147E-01
   -0.206239    8.28745  0.2559E-10  0.1630E-04  0.1433E-06  0.2002E-03  0.1538E-01 -0.5855E-01
   -0.274987    8.29170  0.2559E-10  0.1577E-04  0.1064E-06  0.2587E-03  0.1359E-01 -0.7662E-01
   -0.343735    8.29488  0.2559E-10  0.1532E-04  0.8373E-07  0.3191E-03  0.1223E-01 -0.9568E-01
   -0.412484    8.29738  0.2559E-10  0.1494E-04  0.6858E-07  0.3812E-03  0.1115E-01 -0.1157E+00
   -0.481233    8.29942  0.2559E-10  0.1462E-04  0.5784E-07  0.4457E-03  0.1026E-01 -0.1341E+00
   -0.549983    8.30111  0.2559E-10  0.1434E-04  0.4992E-07  0.5254E-03  0.9513E-02 -0.1090E+00
   -0.618733    8.30252  0.2559E-10  0.1410E-04  0.4395E-07  0.7205E-03  0.8874E-02  0.1251E+01
   -0.687483    8.30356  0.2559E-10  0.1392E-04  0.3945E-07  0.1187E-02  0.8323E-02  0.3955E+02
   -0.756234    8.30424  0.2559E-10  0.1377E-04  0.3592E-07  0.1306E-02  0.7855E-02  0.7409E+02
   -0.824985    8.30481  0.2559E-10  0.1364E-04  0.3300E-07  0.1464E-02  0.7406E-02  0.2126E+02
   -0.893737    8.30529  0.2559E-10  0.1354E-04  0.3057E-07  0.1573E-02  0.6986E-02  0.4346E+02
   -0.962488    8.30572  0.2559E-10  0.1344E-04  0.2851E-07  0.1656E-02  0.6582E-02  0.2269E+02
   -1.031240    8.30611  0.2559E-10  0.1335E-04  0.2673E-07  0.1689E-02  0.6194E-02  0.2356E+02
   -1.099992    8.30649  0.2559E-10  0.1326E-04  0.2518E-07  0.1727E-02  0.5815E-02  0.2751E+02
   -1.168744    8.30686  0.2559E-10  0.1317E-04  0.2383E-07  0.1758E-02  0.5447E-02  0.3240E+02
   -1.237497    8.30721  0.2559E-10  0.1306E-04  0.2264E-07  0.1786E-02  0.5087E-02  0.3923E+02
   -1.306249    8.30755  0.2559E-10  0.1295E-04  0.2158E-07  0.1809E-02  0.4735E-02  0.4939E+02
   -1.375001    8.30788  0.2559E-10  0.1283E-04  0.2064E-07  0.1827E-02  0.4388E-02  0.6662E+02
   -1.443754    8.30820  0.2559E-10  0.1268E-04  0.1980E-07  0.1839E-02  0.4045E-02  0.1024E+03
   -1.512506    8.30852  0.2559E-10  0.1252E-04  0.1903E-07  0.1846E-02  0.3706E-02  0.2244E+03
   -1.581258    8.30882  0.2559E-10  0.1234E-04  0.1834E-07  0.1842E-02  0.3369E-02  0.5496E+05
   -1.650010    8.30913  0.2559E-10  0.1213E-04  0.1770E-07  0.1838E-02  0.3033E-02  0.2554E+05
   -1.718762    8.30943  0.2559E-10  0.1189E-04  0.1709E-07  0.1807E-02  0.2697E-02  0.7117E+04
   -1.787514    8.30973  0.2559E-10  0.1161E-04  0.1651E-07  0.1827E-02  0.2358E-02  0.2430E+02
   -1.856266    8.31003  0.2559E-10  0.1129E-04  0.1595E-07  0.1824E-02  0.2062E-02  0.6653E+01
   -1.925017    8.31032  0.2559E-10  0.1095E-04  0.1547E-07  0.1825E-02  0.1800E-02  0.3167E+01
   -1.993768    8.31061  0.2559E-10  0.1059E-04  0.1507E-07  0.1828E-02  0.1574E-02  0.2022E+01
   -2.062519    8.31090  0.2559E-10  0.1024E-04  0.1482E-07  0.1823E-02  0.1376E-02  0.1584E+01
   -2.131269    8.31119  0.2559E-10  0.9896E-05  0.1473E-07  0.1815E-02  0.1195E-02  0.1269E+01
   -2.200019    8.31147  0.2559E-10  0.9571E-05  0.1482E-07  0.1818E-02  0.1030E-02  0.1031E+01
   -2.268769    8.31175  0.2559E-10  0.9267E-05  0.1512E-07  0.1764E-02  0.8798E-03  0.7838E+00
   -2.337518    8.31204  0.2559E-10  0.8982E-05  0.1569E-07  0.1628E-02  0.7491E-03  0.5820E+00
   -2.406267    8.31235  0.2559E-10  0.8721E-05  0.1658E-07  0.1448E-02  0.6388E-03  0.4239E+00
   -2.475015    8.31270  0.2559E-10  0.8486E-05  0.1788E-07  0.1301E-02  0.5491E-03  0.3417E+00
   -2.543763    8.31309  0.2559E-10  0.8234E-05  0.2009E-07  0.1086E-02  0.4795E-03  0.8904E+00
   -2.612510    8.31354  0.2559E-10  0.7807E-05  0.2616E-07  0.5527E-03  0.4110E-03  0.2274E+03
   -2.681257    8.31444  0.2559E-10  0.4867E-05  0.1010E-06  0.3009E-04  0.3167E-03 -0.6151E+03
   -2.750002    8.33041  0.2559E-10  0.0000E+00  0.0000E+00  0.0000E+00  0.3163E-03  0.0000E+00
