 1 - depth, m
 2 - temperature, C
 3 - salinity, kg/kg
 4 - turbulent kinetic energy, m**2/s**2
 5 - dissipation rate, m**2/s**3
 6 - kinematic heat conductance, m**2/s
 7 - modulus of horizontal velocity, m/s
 8 - Richardson number, n/d
   -0.000000   -0.00000  0.3686E-11  0.1219E-13  0.7603E-17  0.1000E-09  0.0000E+00  0.8100E+16
   -0.068746    0.12356  0.2239E-11  0.1219E-13  0.7603E-17  0.1000E-09  0.0000E+00  0.7775E+16
   -0.137492    0.24625  0.1609E-11  0.1219E-13  0.7603E-17  0.1000E-09  0.0000E+00  0.7471E+16
   -0.206239    0.36832  0.1384E-11  0.1219E-13  0.7603E-17  0.1000E-09  0.0000E+00  0.7187E+16
   -0.274987    0.49003  0.1315E-11  0.1219E-13  0.7603E-17  0.1000E-09  0.0000E+00  0.6921E+16
   -0.343735    0.61164  0.1296E-11  0.1219E-13  0.7603E-17  0.1000E-09  0.0000E+00  0.6671E+16
   -0.412483    0.73340  0.1292E-11  0.1219E-13  0.7603E-17  0.1000E-09  0.0000E+00  0.6433E+16
   -0.481232    0.85556  0.1291E-11  0.1219E-13  0.7603E-17  0.1000E-09  0.0000E+00  0.6206E+16
   -0.549982    0.97836  0.1290E-11  0.1219E-13  0.7603E-17  0.1000E-09  0.0000E+00  0.5986E+16
   -0.618732    1.10202  0.1290E-11  0.1219E-13  0.7603E-17  0.1000E-09  0.0000E+00  0.5772E+16
   -0.687482    1.22675  0.1290E-11  0.1219E-13  0.7603E-17  0.1000E-09  0.0000E+00  0.5569E+16
   -0.756233    1.35298  0.1290E-11  0.1219E-13  0.7603E-17  0.1000E-09  0.0000E+00  0.5372E+16
   -0.824984    1.48102  0.1290E-11  0.1219E-13  0.7603E-17  0.1000E-09  0.0000E+00  0.5169E+16
   -0.893735    1.61102  0.1290E-11  0.3153E-13  0.7603E-17  0.1000E-09  0.0000E+00  0.4959E+16
   -0.962487    1.74310  0.1290E-11  0.9904E-13  0.1094E-16  0.1000E-09  0.0000E+00  0.4739E+16
   -1.031239    1.87735  0.1289E-11  0.2359E-12  0.2142E-16  0.1000E-09  0.0000E+00  0.4509E+16
   -1.099990    2.01384  0.1287E-11  0.5084E-12  0.4340E-16  0.1000E-09  0.0000E+00  0.4265E+16
   -1.168742    2.15260  0.1284E-11  0.1056E-11  0.8726E-16  0.1000E-09  0.0000E+00  0.4007E+16
   -1.237495    2.29365  0.1280E-11  0.2156E-11  0.1737E-15  0.1000E-09  0.0000E+00  0.3734E+16
   -1.306247    2.43694  0.1275E-11  0.4355E-11  0.3429E-15  0.1000E-09  0.0000E+00  0.3446E+16
   -1.374999    2.58243  0.1269E-11  0.8726E-11  0.6714E-15  0.1000E-09  0.0000E+00  0.3144E+16
   -1.443751    2.73014  0.1264E-11  0.1735E-10  0.1305E-14  0.1000E-09  0.0000E+00  0.2826E+16
   -1.512503    2.87999  0.1261E-11  0.3423E-10  0.2519E-14  0.1000E-09  0.0000E+00  0.2491E+16
   -1.581256    3.03179  0.1259E-11  0.6706E-10  0.4827E-14  0.1000E-09  0.0000E+00  0.2141E+16
   -1.650008    3.18531  0.1257E-11  0.1304E-09  0.9188E-14  0.1000E-09  0.0000E+00  0.1777E+16
   -1.718760    3.34027  0.1256E-11  0.2520E-09  0.1737E-13  0.1000E-09  0.0000E+00  0.1402E+16
   -1.787511    3.49649  0.1255E-11  0.4937E-09  0.3330E-13  0.1639E-09  0.0000E+00  0.1034E+16
   -1.856263    3.65654  0.1254E-11  0.9782E-09  0.6457E-13  0.5145E-09  0.0000E+00  0.6387E+15
   -1.925014    3.82040  0.1252E-11  0.1940E-08  0.1254E-12  0.2954E-08  0.0000E+00  0.2160E+15
   -1.993765    3.98604  0.1252E-11  0.2551E-08  0.1661E-12  0.7502E-05  0.0000E+00 -0.6708E+11
   -2.062516    3.98924  0.1252E-11  0.2908E-08  0.1960E-12  0.1288E-04  0.0000E+00 -0.1143E+12
   -2.131266    3.99112  0.1252E-11  0.3215E-08  0.2269E-12  0.1563E-04  0.0000E+00 -0.1361E+12
   -2.200016    3.99267  0.1252E-11  0.3485E-08  0.2604E-12  0.1711E-04  0.0000E+00 -0.1577E+12
   -2.268766    3.99409  0.1252E-11  0.3720E-08  0.2980E-12  0.1759E-04  0.0000E+00 -0.1840E+12
   -2.337515    3.99548  0.1252E-11  0.3923E-08  0.3435E-12  0.1712E-04  0.0000E+00 -0.2206E+12
   -2.406263    3.99690  0.1252E-11  0.4087E-08  0.4022E-12  0.1569E-04  0.0000E+00 -0.2774E+12
   -2.475011    3.99846  0.1252E-11  0.4196E-08  0.4868E-12  0.1321E-04  0.0000E+00 -0.3793E+12
   -2.543759    4.00031  0.1252E-11  0.4215E-08  0.6299E-12  0.9635E-05  0.0000E+00 -0.6083E+12
   -2.612506    4.00285  0.1252E-11  0.4037E-08  0.9639E-12  0.5061E-05  0.0000E+00 -0.1436E+13
   -2.681252    4.00768  0.1252E-11  0.3095E-08  0.2659E-11  0.8254E-06  0.0000E+00 -0.1485E+14
   -2.749998    4.03481  0.1252E-11  0.0000E+00  0.0000E+00  0.0000E+00  0.0000E+00  0.0000E+00
