 1 - depth, m
 2 - temperature, C
 3 - salinity, kg/kg
 4 - turbulent kinetic energy, m**2/s**2
 5 - dissipation rate, m**2/s**3
 6 - kinematic heat conductance, m**2/s
 7 - modulus of horizontal velocity, m/s
 8 - Richardson number, n/d
   -0.000000   -0.00000  0.1978E-10  0.4507E-09  0.4315E-12  0.3664E-09  0.2253E-23  0.5872E+16
   -0.068746    0.08914  0.1286E-10  0.3105E-08  0.2865E-12  0.3243E-09  0.1770E-23  0.4476E+16
   -0.137492    0.15860  0.1161E-10  0.7403E-08  0.2772E-12  0.4465E-09  0.1444E-23  0.3183E+16
   -0.206239    0.20882  0.1139E-10  0.1299E-07  0.3113E-12  0.7789E-09  0.1199E-23  0.2088E+16
   -0.274986    0.24215  0.1136E-10  0.1969E-07  0.3689E-12  0.1612E-08  0.9886E-24  0.1238E+16
   -0.343734    0.26207  0.1136E-10  0.2738E-07  0.4417E-12  0.4034E-08  0.7967E-24  0.6385E+15
   -0.412483    0.27239  0.1136E-10  0.3575E-07  0.5231E-12  0.1507E-07  0.6206E-24  0.2609E+15
   -0.481232    0.27662  0.1136E-10  0.4039E-07  0.5658E-12  0.1503E-03  0.4725E-24  0.6543E+14
   -0.549981    0.27768  0.1136E-10  0.4152E-07  0.5746E-12  0.6349E-03  0.4696E-24  0.8382E+13
   -0.618731    0.27781  0.1136E-10  0.4157E-07  0.5750E-12  0.8843E-03  0.4694E-24  0.4203E+11
   -0.687482    0.27782  0.1136E-10  0.4158E-07  0.5751E-12  0.9431E-03  0.4692E-24 -0.8287E+10
   -0.756232    0.27782  0.1136E-10  0.4158E-07  0.5751E-12  0.9364E-03  0.4691E-24 -0.7270E+10
   -0.824983    0.27782  0.1136E-10  0.4157E-07  0.5750E-12  0.8116E-03  0.4689E-24  0.7479E+12
   -0.893734    0.27783  0.1136E-10  0.4142E-07  0.5736E-12  0.4859E-03  0.4688E-24  0.1613E+14
   -0.962486    0.27809  0.1136E-10  0.4009E-07  0.5604E-12  0.6426E-06  0.4687E-24  0.8335E+14
   -1.031237    0.27944  0.1136E-10  0.3515E-07  0.5029E-12  0.1389E-07  0.4558E-24  0.2622E+15
   -1.099989    0.28370  0.1136E-10  0.2903E-07  0.4280E-12  0.4452E-08  0.3882E-24  0.5787E+15
   -1.168741    0.29311  0.1136E-10  0.2351E-07  0.3574E-12  0.1859E-08  0.3237E-24  0.1077E+16
   -1.237493    0.31069  0.1136E-10  0.1875E-07  0.2939E-12  0.8818E-09  0.2663E-24  0.1795E+16
   -1.306245    0.34019  0.1135E-10  0.1475E-07  0.2383E-12  0.4556E-09  0.2162E-24  0.2752E+16
   -1.374998    0.38591  0.1133E-10  0.1145E-07  0.1909E-12  0.2466E-09  0.1725E-24  0.4009E+16
   -1.443750    0.45363  0.1125E-10  0.8783E-08  0.1511E-12  0.1482E-09  0.1342E-24  0.5449E+16
   -1.512502    0.54793  0.1116E-10  0.6664E-08  0.1185E-12  0.1081E-09  0.1004E-24  0.6941E+16
   -1.581254    0.67217  0.1113E-10  0.5007E-08  0.9220E-13  0.1000E-09  0.7016E-25  0.8366E+16
   -1.650006    0.82878  0.1112E-10  0.3733E-08  0.7145E-13  0.1000E-09  0.4258E-25  0.9606E+16
   -1.718758    1.01932  0.1111E-10  0.2774E-08  0.5554E-13  0.1000E-09  0.1670E-25  0.1049E+17
   -1.787509    1.24331  0.1110E-10  0.2040E-08  0.4329E-13  0.1000E-09  0.1134E-26  0.9688E+16
   -1.856261    1.46869  0.1110E-10  0.1456E-08  0.3380E-13  0.1000E-09  0.7089E-28  0.8883E+16
   -1.925012    1.69564  0.1110E-10  0.9937E-09  0.2693E-13  0.1000E-09  0.4047E-29  0.8114E+16
   -1.993763    1.92561  0.1110E-10  0.6287E-09  0.2289E-13  0.1000E-09  0.2517E-30  0.7619E+16
   -2.062514    2.16882  0.1110E-10  0.3702E-09  0.2296E-13  0.1000E-09  0.2036E-31  0.7785E+16
   -2.131264    2.45798  0.1109E-10  0.2340E-09  0.3116E-13  0.1000E-09  0.1540E-32  0.7346E+16
   -2.200014    2.79520  0.1108E-10  0.2860E-09  0.6473E-13  0.1000E-09  0.1083E-33  0.6038E+16
   -2.268763    3.17337  0.1106E-10  0.7685E-09  0.1914E-12  0.2458E-09  0.5193E-35  0.3925E+16
   -2.337512    3.57983  0.1101E-10  0.2608E-08  0.6354E-12  0.2465E-08  0.2038E-36  0.1300E+16
   -2.406261    3.99337  0.1099E-10  0.5375E-08  0.1314E-11  0.6851E-05  0.6319E-38 -0.1508E+13
   -2.475009    4.00233  0.1099E-10  0.6826E-08  0.1891E-11  0.8664E-05  0.6711E-39 -0.2113E+13
   -2.543756    4.00931  0.1099E-10  0.7989E-08  0.2753E-11  0.8070E-05  0.6956E-40 -0.3262E+13
   -2.612503    4.01708  0.1099E-10  0.8842E-08  0.4570E-11  0.5549E-05  0.5339E-41 -0.7066E+13
   -2.681250    4.02933  0.1099E-10  0.9094E-08  0.1251E-10  0.1898E-05  0.2125E-42 -0.4616E+14
   -2.749995    4.07432  0.1099E-10  0.0000E+00  0.0000E+00  0.0000E+00  0.2276E-42  0.0000E+00
