 1 - depth, m
 2 - temperature, C
 3 - salinity, kg/kg
 4 - turbulent kinetic energy, m**2/s**2
 5 - dissipation rate, m**2/s**3
 6 - kinematic heat conductance, m**2/s
 7 - modulus of horizontal velocity, m/s
 8 - Richardson number, n/d
   -0.000000   -0.00000  0.2164E-11  0.1219E-13  0.7603E-17  0.1000E-09  0.0000E+00  0.8002E+16
   -0.068746    0.12203  0.1283E-11  0.1219E-13  0.7603E-17  0.1000E-09  0.0000E+00  0.7675E+16
   -0.137492    0.24307  0.9258E-12  0.1219E-13  0.7603E-17  0.1000E-09  0.0000E+00  0.7375E+16
   -0.206239    0.36343  0.8029E-12  0.1219E-13  0.7603E-17  0.1000E-09  0.0000E+00  0.7098E+16
   -0.274987    0.48343  0.7668E-12  0.1219E-13  0.7603E-17  0.1000E-09  0.0000E+00  0.6843E+16
   -0.343735    0.60340  0.7576E-12  0.1219E-13  0.7603E-17  0.1000E-09  0.0000E+00  0.6606E+16
   -0.412483    0.72363  0.7555E-12  0.1219E-13  0.7603E-17  0.1000E-09  0.0000E+00  0.6384E+16
   -0.481232    0.84444  0.7550E-12  0.1219E-13  0.7603E-17  0.1000E-09  0.0000E+00  0.6173E+16
   -0.549982    0.96610  0.7550E-12  0.1219E-13  0.7603E-17  0.1000E-09  0.0000E+00  0.5971E+16
   -0.618732    1.08888  0.7549E-12  0.1219E-13  0.7603E-17  0.1000E-09  0.0000E+00  0.5773E+16
   -0.687482    1.21303  0.7549E-12  0.1219E-13  0.7603E-17  0.1000E-09  0.0000E+00  0.5588E+16
   -0.756233    1.33901  0.7549E-12  0.1219E-13  0.7603E-17  0.1000E-09  0.0000E+00  0.5406E+16
   -0.824984    1.46716  0.7549E-12  0.1219E-13  0.7603E-17  0.1000E-09  0.0000E+00  0.5218E+16
   -0.893735    1.59763  0.7548E-12  0.5627E-13  0.8745E-17  0.1000E-09  0.0000E+00  0.5020E+16
   -0.962487    1.73058  0.7546E-12  0.1557E-12  0.1797E-16  0.1000E-09  0.0000E+00  0.4811E+16
   -1.031238    1.86608  0.7542E-12  0.3690E-12  0.3945E-16  0.1000E-09  0.0000E+00  0.4587E+16
   -1.099990    2.00421  0.7532E-12  0.8319E-12  0.8583E-16  0.1000E-09  0.0000E+00  0.4347E+16
   -1.168742    2.14499  0.7514E-12  0.1838E-11  0.1845E-15  0.1000E-09  0.0000E+00  0.4090E+16
   -1.237494    2.28841  0.7487E-12  0.4012E-11  0.3926E-15  0.1000E-09  0.0000E+00  0.3814E+16
   -1.306247    2.43440  0.7454E-12  0.8671E-11  0.8278E-15  0.1000E-09  0.0000E+00  0.3519E+16
   -1.374999    2.58289  0.7420E-12  0.1857E-10  0.1730E-14  0.1000E-09  0.0000E+00  0.3208E+16
   -1.443751    2.73388  0.7391E-12  0.3943E-10  0.3585E-14  0.1000E-09  0.0000E+00  0.2878E+16
   -1.512503    2.88724  0.7371E-12  0.8298E-10  0.7367E-14  0.1000E-09  0.0000E+00  0.2529E+16
   -1.581255    3.04277  0.7359E-12  0.1732E-09  0.1502E-13  0.1000E-09  0.0000E+00  0.2162E+16
   -1.650007    3.20021  0.7351E-12  0.3585E-09  0.3036E-13  0.1000E-09  0.0000E+00  0.1780E+16
   -1.718759    3.35927  0.7345E-12  0.7361E-09  0.6091E-13  0.2237E-09  0.0000E+00  0.1386E+16
   -1.787511    3.51960  0.7338E-12  0.1533E-08  0.1239E-12  0.6343E-09  0.0000E+00  0.9939E+15
   -1.856263    3.68348  0.7329E-12  0.3220E-08  0.2544E-12  0.2254E-08  0.0000E+00  0.5744E+15
   -1.925014    3.84978  0.7321E-12  0.6706E-08  0.5186E-12  0.1833E-07  0.0000E+00  0.1439E+15
   -1.993765    4.00357  0.7319E-12  0.7479E-08  0.5815E-12  0.3872E-04  0.0000E+00 -0.1780E+12
   -2.062515    4.00422  0.7319E-12  0.7814E-08  0.6151E-12  0.3948E-04  0.0000E+00 -0.1816E+12
   -2.131266    4.00485  0.7319E-12  0.8088E-08  0.6508E-12  0.3941E-04  0.0000E+00 -0.1885E+12
   -2.200016    4.00549  0.7319E-12  0.8305E-08  0.6901E-12  0.3854E-04  0.0000E+00 -0.1996E+12
   -2.268765    4.00614  0.7319E-12  0.8465E-08  0.7357E-12  0.3683E-04  0.0000E+00 -0.2164E+12
   -2.337514    4.00683  0.7319E-12  0.8571E-08  0.7936E-12  0.3408E-04  0.0000E+00 -0.2426E+12
   -2.406263    4.00757  0.7319E-12  0.8610E-08  0.8728E-12  0.3014E-04  0.0000E+00 -0.2855E+12
   -2.475011    4.00841  0.7319E-12  0.8561E-08  0.9936E-12  0.2478E-04  0.0000E+00 -0.3637E+12
   -2.543759    4.00944  0.7319E-12  0.8368E-08  0.1210E-11  0.1783E-04  0.0000E+00 -0.5361E+12
   -2.612506    4.01087  0.7319E-12  0.7851E-08  0.1738E-11  0.9344E-05  0.0000E+00 -0.1124E+13
   -2.681252    4.01364  0.7319E-12  0.5652E-08  0.4980E-11  0.1214E-05  0.0000E+00 -0.1207E+14
   -2.749998    4.03414  0.7319E-12  0.0000E+00  0.0000E+00  0.0000E+00  0.0000E+00  0.0000E+00
