 1 - depth, m
 2 - temperature, C
 3 - salinity, kg/kg
 4 - turbulent kinetic energy, m**2/s**2
 5 - dissipation rate, m**2/s**3
 6 - kinematic heat conductance, m**2/s
 7 - modulus of horizontal velocity, m/s
 8 - Richardson number, n/d
   -0.000000   -0.00000  0.1338E-10  0.1219E-13  0.7603E-17  0.1000E-09  0.2691E-67  0.3849E+16
   -0.068746    0.05819  0.7915E-11  0.1219E-13  0.7603E-17  0.1000E-09  0.2348E-67  0.3475E+16
   -0.137492    0.11153  0.6840E-11  0.1219E-13  0.7603E-17  0.1000E-09  0.2089E-67  0.3082E+16
   -0.206239    0.15951  0.6655E-11  0.1219E-13  0.7603E-17  0.1000E-09  0.1830E-67  0.2687E+16
   -0.274987    0.20187  0.6629E-11  0.1219E-13  0.7603E-17  0.1000E-09  0.1568E-67  0.2307E+16
   -0.343735    0.23864  0.6626E-11  0.1219E-13  0.7603E-17  0.1000E-09  0.1320E-67  0.1958E+16
   -0.412483    0.27015  0.6626E-11  0.1219E-13  0.7603E-17  0.1000E-09  0.1097E-67  0.1656E+16
   -0.481233    0.29702  0.6626E-11  0.1219E-13  0.7603E-17  0.1000E-09  0.9039E-68  0.1412E+16
   -0.549982    0.32010  0.6626E-11  0.1219E-13  0.7603E-17  0.1000E-09  0.7394E-68  0.1237E+16
   -0.618732    0.34045  0.6626E-11  0.1219E-13  0.7603E-17  0.1000E-09  0.6010E-68  0.1140E+16
   -0.687482    0.35932  0.6626E-11  0.1219E-13  0.7603E-17  0.1000E-09  0.4857E-68  0.1140E+16
   -0.756233    0.37828  0.6626E-11  0.1219E-13  0.7603E-17  0.1000E-09  0.3900E-68  0.1238E+16
   -0.824984    0.39899  0.6626E-11  0.1219E-13  0.7603E-17  0.1000E-09  0.3111E-68  0.1431E+16
   -0.893735    0.42310  0.6626E-11  0.1219E-13  0.7603E-17  0.1000E-09  0.2466E-68  0.1724E+16
   -0.962487    0.45238  0.6626E-11  0.1219E-13  0.7603E-17  0.1000E-09  0.1942E-68  0.2118E+16
   -1.031239    0.48869  0.6626E-11  0.1219E-13  0.7603E-17  0.1000E-09  0.1519E-68  0.2609E+16
   -1.099991    0.53398  0.6625E-11  0.1219E-13  0.7603E-17  0.1000E-09  0.1180E-68  0.3191E+16
   -1.168743    0.59025  0.6624E-11  0.1219E-13  0.7603E-17  0.1000E-09  0.9097E-69  0.3851E+16
   -1.237495    0.65949  0.6618E-11  0.1219E-13  0.7603E-17  0.1000E-09  0.6956E-69  0.4568E+16
   -1.306247    0.74365  0.6597E-11  0.1219E-13  0.7603E-17  0.1000E-09  0.5267E-69  0.5315E+16
   -1.374999    0.84457  0.6545E-11  0.1219E-13  0.7603E-17  0.1000E-09  0.3937E-69  0.6106E+16
   -1.443752    0.96490  0.6490E-11  0.1219E-13  0.7603E-17  0.1000E-09  0.2887E-69  0.6859E+16
   -1.512504    1.10636  0.6469E-11  0.1219E-13  0.7603E-17  0.1000E-09  0.2052E-69  0.7504E+16
   -1.581256    1.26998  0.6459E-11  0.4477E-13  0.1341E-16  0.1000E-09  0.1376E-69  0.7991E+16
   -1.650008    1.45637  0.6451E-11  0.1621E-12  0.4299E-16  0.1000E-09  0.8106E-70  0.8270E+16
   -1.718760    1.66569  0.6445E-11  0.5513E-12  0.1399E-15  0.1000E-09  0.3127E-70  0.8279E+16
   -1.787512    1.89703  0.6442E-11  0.1881E-11  0.4602E-15  0.1000E-09  0.2119E-71  0.7645E+16
   -1.856263    2.13713  0.6441E-11  0.6383E-11  0.1508E-14  0.1000E-09  0.1322E-72  0.6871E+16
   -1.925014    2.38437  0.6440E-11  0.2141E-10  0.4886E-14  0.1000E-09  0.7535E-74  0.5972E+16
   -1.993765    2.63663  0.6440E-11  0.7099E-10  0.1566E-13  0.1000E-09  0.4677E-75  0.5024E+16
   -2.062516    2.89425  0.6439E-11  0.2270E-09  0.4846E-13  0.1000E-09  0.3773E-76  0.4126E+16
   -2.131266    3.16544  0.6435E-11  0.7138E-09  0.1474E-12  0.2460E-09  0.2848E-77  0.3055E+16
   -2.200016    3.44954  0.6428E-11  0.2212E-08  0.4423E-12  0.1250E-08  0.1998E-78  0.1806E+16
   -2.268766    3.74333  0.6413E-11  0.6771E-08  0.1312E-11  0.1481E-07  0.9579E-80  0.4549E+15
   -2.337515    4.02064  0.6406E-11  0.9580E-08  0.1877E-11  0.2079E-04  0.3140E-81 -0.1154E+13
   -2.406264    4.02273  0.6406E-11  0.1061E-07  0.2178E-11  0.2085E-04  0.6701E-82 -0.1242E+13
   -2.475012    4.02485  0.6406E-11  0.1130E-07  0.2555E-11  0.1913E-04  0.1299E-82 -0.1470E+13
   -2.543759    4.02723  0.6406E-11  0.1165E-07  0.3141E-11  0.1538E-04  0.2137E-83 -0.2020E+13
   -2.612506    4.03027  0.6406E-11  0.1146E-07  0.4434E-11  0.9315E-05  0.2443E-84 -0.3886E+13
   -2.681253    4.03561  0.6406E-11  0.9373E-08  0.1128E-10  0.1873E-05  0.1353E-85 -0.3057E+14
   -2.749999    4.06593  0.6406E-11  0.0000E+00  0.0000E+00  0.0000E+00  0.1433E-85  0.0000E+00
