 1 - depth, m
 2 - temperature, C
 3 - salinity, kg/kg
 4 - turbulent kinetic energy, m**2/s**2
 5 - dissipation rate, m**2/s**3
 6 - kinematic heat conductance, m**2/s
 7 - modulus of horizontal velocity, m/s
 8 - Richardson number, n/d
   -0.000000   -0.00000  0.3678E-10  0.1368E-10  0.5816E-14  0.1000E-09  0.6561E-34  0.5051E+16
   -0.068746    0.07655  0.2292E-10  0.4871E-10  0.4350E-14  0.1000E-09  0.5458E-34  0.4216E+16
   -0.137492    0.14169  0.2034E-10  0.1047E-09  0.4562E-14  0.1000E-09  0.4484E-34  0.3355E+16
   -0.206239    0.19439  0.1987E-10  0.1749E-09  0.5325E-14  0.1000E-09  0.3699E-34  0.2540E+16
   -0.274986    0.23481  0.1981E-10  0.2544E-09  0.6335E-14  0.1000E-09  0.3075E-34  0.1824E+16
   -0.343734    0.26412  0.1981E-10  0.3384E-09  0.7447E-14  0.1002E-09  0.2567E-34  0.1235E+16
   -0.412483    0.28411  0.1980E-10  0.4223E-09  0.8565E-14  0.1117E-09  0.2142E-34  0.7830E+15
   -0.481232    0.29684  0.1980E-10  0.5017E-09  0.9615E-14  0.1569E-09  0.1780E-34  0.4607E+15
   -0.549982    0.30436  0.1980E-10  0.5727E-09  0.1054E-13  0.2907E-09  0.1473E-34  0.2498E+15
   -0.618732    0.30844  0.1980E-10  0.6322E-09  0.1130E-13  0.6848E-09  0.1216E-34  0.1286E+15
   -0.687482    0.31054  0.1980E-10  0.6775E-09  0.1186E-13  0.1387E-08  0.1002E-34  0.8415E+14
   -0.756233    0.31192  0.1980E-10  0.7075E-09  0.1220E-13  0.9914E-09  0.8271E-35  0.1042E+15
   -0.824983    0.31363  0.1980E-10  0.7216E-09  0.1232E-13  0.4603E-09  0.6823E-35  0.1876E+15
   -0.893735    0.31670  0.1980E-10  0.7199E-09  0.1222E-13  0.2375E-09  0.5622E-35  0.3476E+15
   -0.962486    0.32241  0.1980E-10  0.7033E-09  0.1192E-13  0.1477E-09  0.4627E-35  0.6058E+15
   -1.031238    0.33237  0.1980E-10  0.6734E-09  0.1143E-13  0.1120E-09  0.3800E-35  0.9881E+15
   -1.099990    0.34867  0.1980E-10  0.6321E-09  0.1079E-13  0.1007E-09  0.3111E-35  0.1520E+16
   -1.168742    0.37391  0.1980E-10  0.5818E-09  0.1002E-13  0.1000E-09  0.2532E-35  0.2219E+16
   -1.237494    0.41109  0.1980E-10  0.5247E-09  0.9169E-14  0.1000E-09  0.2046E-35  0.3094E+16
   -1.306246    0.46363  0.1977E-10  0.4632E-09  0.8258E-14  0.1000E-09  0.1634E-35  0.4133E+16
   -1.374998    0.53513  0.1966E-10  0.3996E-09  0.7328E-14  0.1000E-09  0.1285E-35  0.5380E+16
   -1.443750    0.63063  0.1946E-10  0.3359E-09  0.6414E-14  0.1000E-09  0.9876E-36  0.6714E+16
   -1.512503    0.75398  0.1936E-10  0.2738E-09  0.5552E-14  0.1000E-09  0.7309E-36  0.8016E+16
   -1.581255    0.90807  0.1933E-10  0.2151E-09  0.4783E-14  0.1000E-09  0.5064E-36  0.9176E+16
   -1.650007    1.09506  0.1931E-10  0.1616E-09  0.4159E-14  0.1000E-09  0.3055E-36  0.1007E+17
   -1.718758    1.31613  0.1929E-10  0.1151E-09  0.3764E-14  0.1000E-09  0.1194E-36  0.1056E+17
   -1.787510    1.57058  0.1929E-10  0.7650E-10  0.3765E-14  0.1000E-09  0.8108E-38  0.1009E+17
   -1.856262    1.84284  0.1928E-10  0.4906E-10  0.4688E-14  0.1000E-09  0.5068E-39  0.9321E+16
   -1.925013    2.13102  0.1928E-10  0.4364E-10  0.8607E-14  0.1000E-09  0.2893E-40  0.8266E+16
   -1.993764    2.43216  0.1928E-10  0.9180E-10  0.2381E-13  0.1000E-09  0.1799E-41  0.7004E+16
   -2.062514    2.74492  0.1927E-10  0.2975E-09  0.7758E-13  0.1000E-09  0.1454E-42  0.5685E+16
   -2.131265    3.07649  0.1925E-10  0.1025E-08  0.2586E-12  0.3257E-09  0.1100E-43  0.4039E+16
   -2.200015    3.42212  0.1920E-10  0.3502E-08  0.8520E-12  0.2019E-08  0.7736E-45  0.2146E+16
   -2.268764    3.77148  0.1913E-10  0.1159E-07  0.2727E-11  0.4139E-07  0.3715E-46  0.3333E+15
   -2.337513    4.04717  0.1913E-10  0.1578E-07  0.3756E-11  0.2845E-04  0.1162E-47 -0.1709E+13
   -2.406262    4.04894  0.1913E-10  0.1725E-07  0.4287E-11  0.2800E-04  0.3212E-48 -0.1818E+13
   -2.475010    4.05077  0.1913E-10  0.1822E-07  0.4953E-11  0.2541E-04  0.8053E-49 -0.2120E+13
   -2.543757    4.05284  0.1913E-10  0.1865E-07  0.6003E-11  0.2035E-04  0.1729E-49 -0.2864E+13
   -2.612504    4.05553  0.1913E-10  0.1825E-07  0.8353E-11  0.1240E-04  0.2649E-50 -0.5408E+13
   -2.681251    4.06035  0.1913E-10  0.1456E-07  0.2174E-10  0.2304E-05  0.2023E-51 -0.4626E+14
   -2.749996    4.09306  0.1913E-10  0.0000E+00  0.0000E+00  0.0000E+00  0.2137E-51  0.0000E+00
