 1 - depth, m
 2 - temperature, C
 3 - salinity, kg/kg
 4 - turbulent kinetic energy, m**2/s**2
 5 - dissipation rate, m**2/s**3
 6 - kinematic heat conductance, m**2/s
 7 - modulus of horizontal velocity, m/s
 8 - Richardson number, n/d
   -0.000000   -0.00000  0.8355E-10  0.1219E-13  0.7603E-17  0.1000E-09  0.0000E+00  0.4116E+16
   -0.068746    0.06226  0.4557E-10  0.1219E-13  0.7603E-17  0.1000E-09  0.0000E+00  0.3936E+16
   -0.137492    0.12280  0.3614E-10  0.1219E-13  0.7603E-17  0.1000E-09  0.0000E+00  0.3793E+16
   -0.206239    0.18212  0.3416E-10  0.1219E-13  0.7603E-17  0.1000E-09  0.0000E+00  0.3684E+16
   -0.274986    0.24069  0.3379E-10  0.1219E-13  0.7603E-17  0.1000E-09  0.0000E+00  0.3609E+16
   -0.343734    0.29903  0.3374E-10  0.1219E-13  0.7603E-17  0.1000E-09  0.0000E+00  0.3566E+16
   -0.412483    0.35765  0.3373E-10  0.1219E-13  0.7603E-17  0.1000E-09  0.0000E+00  0.3555E+16
   -0.481232    0.41711  0.3373E-10  0.1219E-13  0.7603E-17  0.1000E-09  0.0000E+00  0.3574E+16
   -0.549982    0.47797  0.3373E-10  0.1219E-13  0.7603E-17  0.1000E-09  0.0000E+00  0.3623E+16
   -0.618731    0.54083  0.3373E-10  0.1219E-13  0.7603E-17  0.1000E-09  0.0000E+00  0.3699E+16
   -0.687482    0.60629  0.3373E-10  0.1219E-13  0.7603E-17  0.1000E-09  0.0000E+00  0.3816E+16
   -0.756232    0.67525  0.3373E-10  0.1219E-13  0.7603E-17  0.1000E-09  0.0000E+00  0.3963E+16
   -0.824983    0.74850  0.3373E-10  0.1219E-13  0.7603E-17  0.1000E-09  0.0000E+00  0.4124E+16
   -0.893735    0.82664  0.3373E-10  0.1219E-13  0.7603E-17  0.1000E-09  0.0000E+00  0.4296E+16
   -0.962486    0.91025  0.3373E-10  0.1219E-13  0.7603E-17  0.1000E-09  0.0000E+00  0.4470E+16
   -1.031238    0.99988  0.3372E-10  0.1219E-13  0.7603E-17  0.1000E-09  0.0000E+00  0.4642E+16
   -1.099990    1.09604  0.3371E-10  0.1219E-13  0.7603E-17  0.1000E-09  0.0000E+00  0.4802E+16
   -1.168742    1.19918  0.3367E-10  0.1219E-13  0.7603E-17  0.1000E-09  0.0000E+00  0.4943E+16
   -1.237494    1.30969  0.3357E-10  0.1219E-13  0.7603E-17  0.1000E-09  0.0000E+00  0.5055E+16
   -1.306246    1.42787  0.3338E-10  0.1219E-13  0.7603E-17  0.1000E-09  0.0000E+00  0.5130E+16
   -1.374998    1.55393  0.3315E-10  0.1219E-13  0.7603E-17  0.1000E-09  0.0000E+00  0.5179E+16
   -1.443750    1.68849  0.3296E-10  0.1219E-13  0.7603E-17  0.1000E-09  0.0000E+00  0.5177E+16
   -1.512502    1.83171  0.3287E-10  0.1463E-13  0.7603E-17  0.1000E-09  0.0000E+00  0.5109E+16
   -1.581254    1.98346  0.3281E-10  0.6521E-13  0.1571E-16  0.1000E-09  0.0000E+00  0.4972E+16
   -1.650006    2.14350  0.3277E-10  0.2152E-12  0.4619E-16  0.1000E-09  0.0000E+00  0.4759E+16
   -1.718758    2.31144  0.3274E-10  0.6572E-12  0.1352E-15  0.1000E-09  0.0000E+00  0.4468E+16
   -1.787510    2.48665  0.3273E-10  0.2011E-11  0.3995E-15  0.1000E-09  0.0000E+00  0.4065E+16
   -1.856261    2.66662  0.3272E-10  0.6135E-11  0.1179E-14  0.1000E-09  0.0000E+00  0.3614E+16
   -1.925013    2.85089  0.3272E-10  0.1853E-10  0.3447E-14  0.1000E-09  0.0000E+00  0.3119E+16
   -1.993763    3.03895  0.3272E-10  0.5547E-10  0.9992E-14  0.1000E-09  0.0000E+00  0.2590E+16
   -2.062514    3.23050  0.3270E-10  0.1605E-09  0.2801E-13  0.1000E-09  0.0000E+00  0.2036E+16
   -2.131264    3.42591  0.3268E-10  0.4571E-09  0.7732E-13  0.2722E-09  0.0000E+00  0.1445E+16
   -2.200014    3.62443  0.3264E-10  0.1285E-08  0.2108E-12  0.1302E-08  0.0000E+00  0.8234E+15
   -2.268764    3.82416  0.3260E-10  0.3575E-08  0.5695E-12  0.1428E-07  0.0000E+00  0.2022E+15
   -2.337513    4.00928  0.3259E-10  0.5349E-08  0.8607E-12  0.1391E-04  0.0000E+00 -0.7743E+12
   -2.406261    4.01134  0.3259E-10  0.6027E-08  0.1023E-11  0.1411E-04  0.0000E+00 -0.8443E+12
   -2.475009    4.01340  0.3259E-10  0.6501E-08  0.1229E-11  0.1296E-04  0.0000E+00 -0.1023E+13
   -2.543757    4.01572  0.3259E-10  0.6760E-08  0.1554E-11  0.1032E-04  0.0000E+00 -0.1460E+13
   -2.612504    4.01873  0.3259E-10  0.6693E-08  0.2285E-11  0.6112E-05  0.0000E+00 -0.3014E+13
   -2.681250    4.02421  0.3259E-10  0.5617E-08  0.5942E-11  0.1331E-05  0.0000E+00 -0.2458E+14
   -2.749996    4.05396  0.3259E-10  0.0000E+00  0.0000E+00  0.0000E+00  0.0000E+00  0.0000E+00
