 1 - depth, m
 2 - temperature, C
 3 - salinity, kg/kg
 4 - turbulent kinetic energy, m**2/s**2
 5 - dissipation rate, m**2/s**3
 6 - kinematic heat conductance, m**2/s
 7 - modulus of horizontal velocity, m/s
 8 - Richardson number, n/d
   -0.000000   -0.00000  0.1551E-11  0.1219E-13  0.7603E-17  0.1000E-09  0.0000E+00  0.5840E+16
   -0.068746    0.08866  0.8591E-12  0.1219E-13  0.7603E-17  0.1000E-09  0.0000E+00  0.5622E+16
   -0.137492    0.17609  0.6447E-12  0.1219E-13  0.7603E-17  0.1000E-09  0.0000E+00  0.5444E+16
   -0.206239    0.26284  0.5910E-12  0.1219E-13  0.7603E-17  0.1000E-09  0.0000E+00  0.5302E+16
   -0.274986    0.34944  0.5792E-12  0.1219E-13  0.7603E-17  0.1000E-09  0.0000E+00  0.5193E+16
   -0.343735    0.43644  0.5769E-12  0.1219E-13  0.7603E-17  0.1000E-09  0.0000E+00  0.5112E+16
   -0.412483    0.52436  0.5765E-12  0.1219E-13  0.7603E-17  0.1000E-09  0.0000E+00  0.5058E+16
   -0.481232    0.61373  0.5764E-12  0.1219E-13  0.7603E-17  0.1000E-09  0.0000E+00  0.5024E+16
   -0.549982    0.70506  0.5764E-12  0.1219E-13  0.7603E-17  0.1000E-09  0.0000E+00  0.5009E+16
   -0.618732    0.79885  0.5764E-12  0.1219E-13  0.7603E-17  0.1000E-09  0.0000E+00  0.5006E+16
   -0.687482    0.89560  0.5764E-12  0.1219E-13  0.7603E-17  0.1000E-09  0.0000E+00  0.5026E+16
   -0.756233    0.99606  0.5764E-12  0.1219E-13  0.7603E-17  0.1000E-09  0.0000E+00  0.5057E+16
   -0.824984    1.10083  0.5764E-12  0.1219E-13  0.7603E-17  0.1000E-09  0.0000E+00  0.5083E+16
   -0.893735    1.21034  0.5764E-12  0.1219E-13  0.7603E-17  0.1000E-09  0.0000E+00  0.5101E+16
   -0.962486    1.32496  0.5763E-12  0.1219E-13  0.7603E-17  0.1000E-09  0.0000E+00  0.5103E+16
   -1.031238    1.44503  0.5762E-12  0.5601E-13  0.9145E-17  0.1000E-09  0.0000E+00  0.5084E+16
   -1.099990    1.57086  0.5759E-12  0.1578E-12  0.1958E-16  0.1000E-09  0.0000E+00  0.5039E+16
   -1.168742    1.70270  0.5750E-12  0.3838E-12  0.4439E-16  0.1000E-09  0.0000E+00  0.4963E+16
   -1.237494    1.84074  0.5733E-12  0.8914E-12  0.9962E-16  0.1000E-09  0.0000E+00  0.4848E+16
   -1.306246    1.98513  0.5706E-12  0.2031E-11  0.2209E-15  0.1000E-09  0.0000E+00  0.4692E+16
   -1.374998    2.13594  0.5674E-12  0.4573E-11  0.4847E-15  0.1000E-09  0.0000E+00  0.4499E+16
   -1.443751    2.29352  0.5647E-12  0.1019E-10  0.1054E-14  0.1000E-09  0.0000E+00  0.4255E+16
   -1.512503    2.45787  0.5630E-12  0.2251E-10  0.2269E-14  0.1000E-09  0.0000E+00  0.3954E+16
   -1.581255    2.62882  0.5620E-12  0.4926E-10  0.4845E-14  0.1000E-09  0.0000E+00  0.3595E+16
   -1.650007    2.80604  0.5614E-12  0.1068E-09  0.1026E-13  0.1000E-09  0.0000E+00  0.3177E+16
   -1.718759    2.98910  0.5610E-12  0.2297E-09  0.2153E-13  0.1000E-09  0.0000E+00  0.2705E+16
   -1.787510    3.17759  0.5608E-12  0.5012E-09  0.4584E-13  0.1058E-09  0.0000E+00  0.2209E+16
   -1.856262    3.37381  0.5606E-12  0.1104E-08  0.9857E-13  0.3052E-09  0.0000E+00  0.1644E+16
   -1.925013    3.57772  0.5601E-12  0.2429E-08  0.2119E-12  0.1071E-08  0.0000E+00  0.1007E+16
   -1.993764    3.78879  0.5592E-12  0.5315E-08  0.4535E-12  0.7568E-08  0.0000E+00  0.3052E+15
   -2.062515    3.99760  0.5587E-12  0.6178E-08  0.5306E-12  0.2717E-04  0.0000E+00 -0.2111E+12
   -2.131265    3.99874  0.5587E-12  0.6561E-08  0.5740E-12  0.2861E-04  0.0000E+00 -0.2201E+12
   -2.200015    3.99983  0.5587E-12  0.6879E-08  0.6213E-12  0.2914E-04  0.0000E+00 -0.2349E+12
   -2.268765    4.00089  0.5587E-12  0.7136E-08  0.6754E-12  0.2873E-04  0.0000E+00 -0.2575E+12
   -2.337514    4.00198  0.5587E-12  0.7337E-08  0.7425E-12  0.2727E-04  0.0000E+00 -0.2926E+12
   -2.406262    4.00313  0.5587E-12  0.7473E-08  0.8320E-12  0.2463E-04  0.0000E+00 -0.3500E+12
   -2.475010    4.00441  0.5587E-12  0.7525E-08  0.9649E-12  0.2063E-04  0.0000E+00 -0.4547E+12
   -2.543758    4.00595  0.5587E-12  0.7441E-08  0.1197E-11  0.1510E-04  0.0000E+00 -0.6877E+12
   -2.612505    4.00807  0.5587E-12  0.7060E-08  0.1753E-11  0.8077E-05  0.0000E+00 -0.1498E+13
   -2.681251    4.01209  0.5587E-12  0.5321E-08  0.4917E-11  0.1229E-05  0.0000E+00 -0.1580E+14
   -2.749997    4.03811  0.5587E-12  0.0000E+00  0.0000E+00  0.0000E+00  0.0000E+00  0.0000E+00
