 1 - depth, m
 2 - temperature, C
 3 - salinity, kg/kg
 4 - turbulent kinetic energy, m**2/s**2
 5 - dissipation rate, m**2/s**3
 6 - kinematic heat conductance, m**2/s
 7 - modulus of horizontal velocity, m/s
 8 - Richardson number, n/d
   -0.000000   -0.00000  0.1920E-17  0.1219E-13  0.7603E-17  0.1000E-09  0.0000E+00  0.4575E+16
   -0.068746    0.06927  0.0000E+00  0.1219E-13  0.7603E-17  0.1000E-09  0.0000E+00  0.4684E+16
   -0.137493    0.14157  0.1486E-12  0.1219E-13  0.7603E-17  0.1000E-09  0.0000E+00  0.4796E+16
   -0.206241    0.21713  0.8771E-12  0.1219E-13  0.7603E-17  0.1000E-09  0.0000E+00  0.4908E+16
   -0.274989    0.29618  0.1927E-11  0.1219E-13  0.7603E-17  0.1000E-09  0.0000E+00  0.5016E+16
   -0.343738    0.37886  0.2867E-11  0.1219E-13  0.7603E-17  0.1000E-09  0.0000E+00  0.5113E+16
   -0.412487    0.46526  0.3448E-11  0.1219E-13  0.7603E-17  0.1000E-09  0.0000E+00  0.5190E+16
   -0.481237    0.55533  0.3657E-11  0.1219E-13  0.7603E-17  0.1000E-09  0.0000E+00  0.5242E+16
   -0.549987    0.64891  0.3614E-11  0.1219E-13  0.7603E-17  0.1000E-09  0.0000E+00  0.5265E+16
   -0.618737    0.74578  0.3455E-11  0.1219E-13  0.7603E-17  0.1000E-09  0.0000E+00  0.5258E+16
   -0.687488    0.84567  0.3278E-11  0.1219E-13  0.7603E-17  0.1000E-09  0.0000E+00  0.5217E+16
   -0.756239    0.94819  0.3131E-11  0.1219E-13  0.7603E-17  0.1000E-09  0.0000E+00  0.5145E+16
   -0.824991    1.05300  0.3028E-11  0.1219E-13  0.7603E-17  0.1000E-09  0.0000E+00  0.5049E+16
   -0.893743    1.15981  0.2965E-11  0.1219E-13  0.7603E-17  0.1000E-09  0.0000E+00  0.4932E+16
   -0.962495    1.26841  0.2928E-11  0.1219E-13  0.7603E-17  0.1000E-09  0.0000E+00  0.4798E+16
   -1.031247    1.37859  0.2909E-11  0.1219E-13  0.7603E-17  0.1000E-09  0.0000E+00  0.4650E+16
   -1.100000    1.49021  0.2899E-11  0.1219E-13  0.7603E-17  0.1000E-09  0.0000E+00  0.4490E+16
   -1.168752    1.60318  0.2893E-11  0.1219E-13  0.7603E-17  0.1000E-09  0.0000E+00  0.4322E+16
   -1.237505    1.71745  0.2888E-11  0.1219E-13  0.7603E-17  0.1000E-09  0.0000E+00  0.4148E+16
   -1.306258    1.83302  0.2884E-11  0.1219E-13  0.7603E-17  0.1000E-09  0.0000E+00  0.3968E+16
   -1.375011    1.94994  0.2878E-11  0.1219E-13  0.7603E-17  0.1000E-09  0.0000E+00  0.3786E+16
   -1.443764    2.06835  0.2871E-11  0.1219E-13  0.7603E-17  0.1000E-09  0.0000E+00  0.3599E+16
   -1.512516    2.18838  0.2864E-11  0.1219E-13  0.7603E-17  0.1000E-09  0.0000E+00  0.3407E+16
   -1.581269    2.31015  0.2856E-11  0.1219E-13  0.7603E-17  0.1000E-09  0.0000E+00  0.3209E+16
   -1.650022    2.43380  0.2847E-11  0.1219E-13  0.7603E-17  0.1000E-09  0.0000E+00  0.3003E+16
   -1.718774    2.55944  0.2839E-11  0.1219E-13  0.7603E-17  0.1000E-09  0.0000E+00  0.2784E+16
   -1.787527    2.68701  0.2832E-11  0.1219E-13  0.7603E-17  0.1000E-09  0.0000E+00  0.2472E+16
   -1.856279    2.81214  0.2826E-11  0.1219E-13  0.7603E-17  0.1000E-09  0.0000E+00  0.2163E+16
   -1.925031    2.93400  0.2821E-11  0.1219E-13  0.7603E-17  0.1000E-09  0.0000E+00  0.1858E+16
   -1.993782    3.05151  0.2816E-11  0.2238E-13  0.8475E-17  0.1000E-09  0.0000E+00  0.1580E+16
   -2.062533    3.16481  0.2813E-11  0.8827E-13  0.2752E-16  0.1000E-09  0.0000E+00  0.1382E+16
   -2.131284    3.27881  0.2810E-11  0.3379E-12  0.1002E-15  0.1000E-09  0.0000E+00  0.1187E+16
   -2.200035    3.39419  0.2808E-11  0.1261E-11  0.3600E-15  0.1000E-09  0.0000E+00  0.9863E+15
   -2.268785    3.51118  0.2806E-11  0.4667E-11  0.1284E-14  0.1000E-09  0.0000E+00  0.7760E+15
   -2.337535    3.62949  0.2805E-11  0.1732E-10  0.4599E-14  0.1000E-09  0.0000E+00  0.5584E+15
   -2.406284    3.74889  0.2804E-11  0.6407E-10  0.1643E-13  0.2479E-09  0.0000E+00  0.3347E+15
   -2.475033    3.86901  0.2804E-11  0.2372E-09  0.5884E-13  0.2719E-08  0.0000E+00  0.1079E+15
   -2.543781    3.98736  0.2803E-11  0.7827E-09  0.1912E-12  0.1104E-05  0.0000E+00 -0.1627E+13
   -2.612528    4.00090  0.2803E-11  0.1169E-08  0.3846E-12  0.1386E-05  0.0000E+00 -0.3146E+13
   -2.681275    4.01110  0.2803E-11  0.1047E-08  0.8111E-12  0.3616E-06  0.0000E+00 -0.1396E+14
   -2.750022    4.03527  0.2803E-11  0.0000E+00  0.0000E+00  0.0000E+00  0.0000E+00  0.0000E+00
