 1 - depth, m
 2 - temperature, C
 3 - salinity, kg/kg
 4 - turbulent kinetic energy, m**2/s**2
 5 - dissipation rate, m**2/s**3
 6 - kinematic heat conductance, m**2/s
 7 - modulus of horizontal velocity, m/s
 8 - Richardson number, n/d
   -0.000000   -0.00000  0.4978E-11  0.1219E-13  0.7603E-17  0.1000E-09  0.0000E+00  0.6721E+16
   -0.068746    0.10222  0.1560E-10  0.1219E-13  0.7603E-17  0.1000E-09  0.0000E+00  0.6642E+16
   -0.137493    0.20615  0.2043E-10  0.1219E-13  0.7603E-17  0.1000E-09  0.0000E+00  0.6545E+16
   -0.206240    0.31162  0.2121E-10  0.1219E-13  0.7603E-17  0.1000E-09  0.0000E+00  0.6430E+16
   -0.274988    0.41846  0.2012E-10  0.1219E-13  0.7603E-17  0.1000E-09  0.0000E+00  0.6297E+16
   -0.343736    0.52649  0.1853E-10  0.1219E-13  0.7603E-17  0.1000E-09  0.0000E+00  0.6149E+16
   -0.412485    0.63554  0.1713E-10  0.1219E-13  0.7603E-17  0.1000E-09  0.0000E+00  0.5985E+16
   -0.481234    0.74542  0.1616E-10  0.1219E-13  0.7603E-17  0.1000E-09  0.0000E+00  0.5810E+16
   -0.549984    0.85597  0.1559E-10  0.1219E-13  0.7603E-17  0.1000E-09  0.0000E+00  0.5623E+16
   -0.618734    0.96702  0.1529E-10  0.1219E-13  0.7603E-17  0.1000E-09  0.0000E+00  0.5427E+16
   -0.687485    1.07844  0.1514E-10  0.1219E-13  0.7603E-17  0.1000E-09  0.0000E+00  0.5225E+16
   -0.756236    1.19011  0.1508E-10  0.1219E-13  0.7603E-17  0.1000E-09  0.0000E+00  0.5017E+16
   -0.824987    1.30192  0.1505E-10  0.1219E-13  0.7603E-17  0.1000E-09  0.0000E+00  0.4806E+16
   -0.893739    1.41378  0.1504E-10  0.1219E-13  0.7603E-17  0.1000E-09  0.0000E+00  0.4590E+16
   -0.962490    1.52559  0.1503E-10  0.1219E-13  0.7603E-17  0.1000E-09  0.0000E+00  0.4373E+16
   -1.031242    1.63727  0.1501E-10  0.1219E-13  0.7603E-17  0.1000E-09  0.0000E+00  0.4155E+16
   -1.099994    1.74873  0.1499E-10  0.1219E-13  0.7603E-17  0.1000E-09  0.0000E+00  0.3936E+16
   -1.168747    1.85993  0.1497E-10  0.1219E-13  0.7603E-17  0.1000E-09  0.0000E+00  0.3719E+16
   -1.237499    1.97081  0.1493E-10  0.1219E-13  0.7603E-17  0.1000E-09  0.0000E+00  0.3502E+16
   -1.306252    2.08132  0.1489E-10  0.1219E-13  0.7603E-17  0.1000E-09  0.0000E+00  0.3287E+16
   -1.375004    2.19144  0.1485E-10  0.1219E-13  0.7603E-17  0.1000E-09  0.0000E+00  0.3076E+16
   -1.443756    2.30119  0.1481E-10  0.1219E-13  0.7603E-17  0.1000E-09  0.0000E+00  0.2867E+16
   -1.512509    2.41056  0.1477E-10  0.1219E-13  0.7603E-17  0.1000E-09  0.0000E+00  0.2662E+16
   -1.581261    2.51957  0.1474E-10  0.1219E-13  0.7603E-17  0.1000E-09  0.0000E+00  0.2459E+16
   -1.650014    2.62822  0.1471E-10  0.1219E-13  0.7603E-17  0.1000E-09  0.0000E+00  0.2259E+16
   -1.718766    2.73653  0.1468E-10  0.1219E-13  0.7603E-17  0.1000E-09  0.0000E+00  0.2061E+16
   -1.787518    2.84448  0.1467E-10  0.1219E-13  0.7603E-17  0.1000E-09  0.0000E+00  0.1851E+16
   -1.856269    2.95117  0.1465E-10  0.1219E-13  0.7603E-17  0.1000E-09  0.0000E+00  0.1645E+16
   -1.925021    3.05636  0.1464E-10  0.1219E-13  0.7603E-17  0.1000E-09  0.0000E+00  0.1442E+16
   -1.993772    3.15975  0.1463E-10  0.1219E-13  0.7603E-17  0.1000E-09  0.0000E+00  0.1249E+16
   -2.062523    3.26130  0.1462E-10  0.1524E-13  0.7682E-17  0.1000E-09  0.0000E+00  0.1080E+16
   -2.131274    3.36245  0.1461E-10  0.6751E-13  0.2554E-16  0.1000E-09  0.0000E+00  0.9146E+15
   -2.200024    3.46335  0.1460E-10  0.2907E-12  0.1041E-15  0.1000E-09  0.0000E+00  0.7507E+15
   -2.268774    3.56398  0.1459E-10  0.1228E-11  0.4234E-15  0.1000E-09  0.0000E+00  0.5881E+15
   -2.337523    3.66426  0.1459E-10  0.5189E-11  0.1726E-14  0.1000E-09  0.0000E+00  0.4273E+15
   -2.406272    3.76407  0.1459E-10  0.2180E-10  0.7006E-14  0.1304E-09  0.0000E+00  0.2688E+15
   -2.475020    3.86316  0.1459E-10  0.9167E-10  0.2852E-13  0.1230E-08  0.0000E+00  0.1137E+15
   -2.543768    3.96037  0.1459E-10  0.3764E-09  0.1145E-12  0.1279E-06  0.0000E+00  0.6535E+12
   -2.612515    4.01063  0.1459E-10  0.1139E-08  0.4471E-12  0.1196E-05  0.0000E+00 -0.4577E+13
   -2.681262    4.02061  0.1459E-10  0.1141E-08  0.9567E-12  0.3858E-06  0.0000E+00 -0.1707E+14
   -2.750008    4.04425  0.1459E-10  0.0000E+00  0.0000E+00  0.0000E+00  0.0000E+00  0.0000E+00
