 1 - depth, m
 2 - temperature, C
 3 - salinity, kg/kg
 4 - turbulent kinetic energy, m**2/s**2
 5 - dissipation rate, m**2/s**3
 6 - kinematic heat conductance, m**2/s
 7 - modulus of horizontal velocity, m/s
 8 - Richardson number, n/d
   -0.000000   -0.00000  0.1523E-09  0.1219E-13  0.7603E-17  0.1000E-09  0.0000E+00  0.5917E+16
   -0.068746    0.08985  0.9011E-10  0.1219E-13  0.7603E-17  0.1000E-09  0.0000E+00  0.5708E+16
   -0.137492    0.17867  0.6618E-10  0.1219E-13  0.7603E-17  0.1000E-09  0.0000E+00  0.5522E+16
   -0.206239    0.26674  0.5873E-10  0.1219E-13  0.7603E-17  0.1000E-09  0.0000E+00  0.5357E+16
   -0.274986    0.35436  0.5679E-10  0.1219E-13  0.7603E-17  0.1000E-09  0.0000E+00  0.5211E+16
   -0.343735    0.44179  0.5635E-10  0.1219E-13  0.7603E-17  0.1000E-09  0.0000E+00  0.5081E+16
   -0.412483    0.52932  0.5626E-10  0.1219E-13  0.7603E-17  0.1000E-09  0.0000E+00  0.4966E+16
   -0.481232    0.61718  0.5624E-10  0.1219E-13  0.7603E-17  0.1000E-09  0.0000E+00  0.4862E+16
   -0.549982    0.70561  0.5624E-10  0.1219E-13  0.7603E-17  0.1000E-09  0.0000E+00  0.4768E+16
   -0.618732    0.79484  0.5624E-10  0.1219E-13  0.7603E-17  0.1000E-09  0.0000E+00  0.4680E+16
   -0.687482    0.88507  0.5624E-10  0.1219E-13  0.7603E-17  0.1000E-09  0.0000E+00  0.4609E+16
   -0.756233    0.97670  0.5624E-10  0.1219E-13  0.7603E-17  0.1000E-09  0.0000E+00  0.4545E+16
   -0.824984    1.07004  0.5624E-10  0.1219E-13  0.7603E-17  0.1000E-09  0.0000E+00  0.4480E+16
   -0.893735    1.16521  0.5624E-10  0.1219E-13  0.7603E-17  0.1000E-09  0.0000E+00  0.4411E+16
   -0.962486    1.26233  0.5624E-10  0.1219E-13  0.7603E-17  0.1000E-09  0.0000E+00  0.4337E+16
   -1.031238    1.36147  0.5623E-10  0.1219E-13  0.7603E-17  0.1000E-09  0.0000E+00  0.4255E+16
   -1.099990    1.46268  0.5621E-10  0.1219E-13  0.7603E-17  0.1000E-09  0.0000E+00  0.4163E+16
   -1.168742    1.56599  0.5617E-10  0.1219E-13  0.7603E-17  0.1000E-09  0.0000E+00  0.4061E+16
   -1.237494    1.67138  0.5610E-10  0.1219E-13  0.7603E-17  0.1000E-09  0.0000E+00  0.3946E+16
   -1.306246    1.77880  0.5596E-10  0.1219E-13  0.7603E-17  0.1000E-09  0.0000E+00  0.3818E+16
   -1.374998    1.88817  0.5576E-10  0.1219E-13  0.7603E-17  0.1000E-09  0.0000E+00  0.3683E+16
   -1.443751    1.99957  0.5554E-10  0.1219E-13  0.7603E-17  0.1000E-09  0.0000E+00  0.3534E+16
   -1.512503    2.11291  0.5535E-10  0.1219E-13  0.7603E-17  0.1000E-09  0.0000E+00  0.3370E+16
   -1.581255    2.22800  0.5521E-10  0.1219E-13  0.7603E-17  0.1000E-09  0.0000E+00  0.3191E+16
   -1.650007    2.34461  0.5513E-10  0.1219E-13  0.7603E-17  0.1000E-09  0.0000E+00  0.2998E+16
   -1.718759    2.46250  0.5509E-10  0.1219E-13  0.7603E-17  0.1000E-09  0.0000E+00  0.2792E+16
   -1.787511    2.58139  0.5506E-10  0.1219E-13  0.7603E-17  0.1000E-09  0.0000E+00  0.2588E+16
   -1.856262    2.70165  0.5505E-10  0.1219E-13  0.7603E-17  0.1000E-09  0.0000E+00  0.2375E+16
   -1.925013    2.82314  0.5503E-10  0.1219E-13  0.7603E-17  0.1000E-09  0.0000E+00  0.2153E+16
   -1.993764    2.94573  0.5501E-10  0.1219E-13  0.7603E-17  0.1000E-09  0.0000E+00  0.1920E+16
   -2.062515    3.06903  0.5497E-10  0.1219E-13  0.7603E-17  0.1000E-09  0.0000E+00  0.1680E+16
   -2.131265    3.19274  0.5490E-10  0.2610E-13  0.1458E-16  0.1000E-09  0.0000E+00  0.1436E+16
   -2.200015    3.31663  0.5481E-10  0.1364E-12  0.7213E-16  0.1000E-09  0.0000E+00  0.1190E+16
   -2.268765    3.44041  0.5469E-10  0.7363E-12  0.3734E-15  0.1000E-09  0.0000E+00  0.9477E+15
   -2.337514    3.56448  0.5457E-10  0.3961E-11  0.1929E-14  0.1000E-09  0.0000E+00  0.7059E+15
   -2.406262    3.68910  0.5449E-10  0.2106E-10  0.9873E-14  0.1063E-09  0.0000E+00  0.4626E+15
   -2.475010    3.81459  0.5446E-10  0.1114E-09  0.5040E-13  0.1143E-08  0.0000E+00  0.2152E+15
   -2.543758    3.94085  0.5445E-10  0.5739E-09  0.2532E-12  0.8742E-07  0.0000E+00  0.6437E+13
   -2.612505    4.02164  0.5445E-10  0.2186E-08  0.1161E-11  0.1523E-05  0.0000E+00 -0.7997E+13
   -2.681251    4.03395  0.5445E-10  0.2720E-08  0.3033E-11  0.7394E-06  0.0000E+00 -0.3159E+14
   -2.749997    4.06572  0.5445E-10  0.0000E+00  0.0000E+00  0.0000E+00  0.0000E+00  0.0000E+00
