 1 - depth, m
 2 - temperature, C
 3 - salinity, kg/kg
 4 - turbulent kinetic energy, m**2/s**2
 5 - dissipation rate, m**2/s**3
 6 - kinematic heat conductance, m**2/s
 7 - modulus of horizontal velocity, m/s
 8 - Richardson number, n/d
   -0.000000    8.88036  0.2160E-11  0.3402E-04  0.4452E-05  0.4135E-04  0.4861E-01 -0.8018E-02
   -0.068746    8.91007  0.2160E-11  0.2524E-04  0.1068E-05  0.9077E-04  0.2789E-01 -0.1768E-01
   -0.137492    8.91920  0.2160E-11  0.2283E-04  0.4841E-06  0.1427E-03  0.2249E-01 -0.2878E-01
   -0.206239    8.92482  0.2160E-11  0.2149E-04  0.2837E-06  0.1985E-03  0.1920E-01 -0.4066E-01
   -0.274987    8.92878  0.2160E-11  0.2059E-04  0.1937E-06  0.2570E-03  0.1688E-01 -0.5333E-01
   -0.343735    8.93176  0.2160E-11  0.1990E-04  0.1450E-06  0.3175E-03  0.1512E-01 -0.6667E-01
   -0.412484    8.93410  0.2160E-11  0.1935E-04  0.1150E-06  0.3797E-03  0.1373E-01 -0.8064E-01
   -0.481233    8.93601  0.2160E-11  0.1888E-04  0.9485E-07  0.4430E-03  0.1259E-01 -0.9510E-01
   -0.549983    8.93760  0.2160E-11  0.1848E-04  0.8049E-07  0.5082E-03  0.1163E-01 -0.1076E+00
   -0.618733    8.93895  0.2160E-11  0.1813E-04  0.6982E-07  0.5859E-03  0.1081E-01 -0.8357E-01
   -0.687483    8.94010  0.2160E-11  0.1783E-04  0.6166E-07  0.7564E-03  0.1009E-01  0.2286E+01
   -0.756234    8.94101  0.2160E-11  0.1757E-04  0.5536E-07  0.1147E-02  0.9465E-02  0.8350E+02
   -0.824985    8.94167  0.2160E-11  0.1735E-04  0.5035E-07  0.1312E-02  0.8913E-02  0.4744E+02
   -0.893737    8.94222  0.2160E-11  0.1716E-04  0.4622E-07  0.1466E-02  0.8394E-02  0.3333E+02
   -0.962488    8.94269  0.2160E-11  0.1699E-04  0.4278E-07  0.1559E-02  0.7907E-02  0.5576E+02
   -1.031240    8.94311  0.2160E-11  0.1683E-04  0.3986E-07  0.1665E-02  0.7442E-02  0.4585E+02
   -1.099992    8.94349  0.2160E-11  0.1668E-04  0.3737E-07  0.1748E-02  0.6997E-02  0.3427E+02
   -1.168744    8.94384  0.2160E-11  0.1652E-04  0.3522E-07  0.1839E-02  0.6567E-02  0.6185E+02
   -1.237496    8.94416  0.2160E-11  0.1637E-04  0.3334E-07  0.1902E-02  0.6150E-02  0.4902E+02
   -1.306249    8.94446  0.2160E-11  0.1621E-04  0.3170E-07  0.1972E-02  0.5742E-02  0.6987E+02
   -1.375001    8.94475  0.2160E-11  0.1604E-04  0.3023E-07  0.2018E-02  0.5343E-02  0.3531E+03
   -1.443753    8.94502  0.2160E-11  0.1585E-04  0.2893E-07  0.2046E-02  0.4949E-02  0.1122E+04
   -1.512506    8.94528  0.2160E-11  0.1565E-04  0.2775E-07  0.2058E-02  0.4559E-02  0.8178E+04
   -1.581258    8.94554  0.2160E-11  0.1542E-04  0.2668E-07  0.2056E-02  0.4172E-02  0.2616E+05
   -1.650010    8.94579  0.2160E-11  0.1516E-04  0.2568E-07  0.2055E-02  0.3786E-02  0.6184E+05
   -1.718762    8.94604  0.2160E-11  0.1487E-04  0.2476E-07  0.2025E-02  0.3401E-02  0.1752E+05
   -1.787514    8.94628  0.2160E-11  0.1452E-04  0.2384E-07  0.2044E-02  0.3013E-02  0.4217E+02
   -1.856265    8.94653  0.2160E-11  0.1414E-04  0.2296E-07  0.2035E-02  0.2669E-02  0.8258E+01
   -1.925017    8.94677  0.2160E-11  0.1372E-04  0.2216E-07  0.2026E-02  0.2361E-02  0.3561E+01
   -1.993768    8.94702  0.2160E-11  0.1327E-04  0.2147E-07  0.2013E-02  0.2090E-02  0.2184E+01
   -2.062519    8.94726  0.2160E-11  0.1284E-04  0.2095E-07  0.1991E-02  0.1847E-02  0.1689E+01
   -2.131269    8.94750  0.2160E-11  0.1241E-04  0.2065E-07  0.1963E-02  0.1622E-02  0.1336E+01
   -2.200019    8.94774  0.2160E-11  0.1199E-04  0.2058E-07  0.1939E-02  0.1414E-02  0.1072E+01
   -2.268769    8.94799  0.2160E-11  0.1159E-04  0.2081E-07  0.1933E-02  0.1220E-02  0.8011E+00
   -2.337518    8.94823  0.2160E-11  0.1121E-04  0.2140E-07  0.1832E-02  0.1048E-02  0.6051E+00
   -2.406267    8.94848  0.2160E-11  0.1085E-04  0.2247E-07  0.1594E-02  0.8983E-03  0.1651E+02
   -2.475015    8.94877  0.2160E-11  0.1051E-04  0.2419E-07  0.1311E-02  0.7726E-03  0.1426E+03
   -2.543763    8.94912  0.2160E-11  0.1013E-04  0.2733E-07  0.1079E-02  0.6675E-03  0.3777E+03
   -2.612510    8.94956  0.2160E-11  0.9523E-05  0.3582E-07  0.4841E-03  0.5646E-03  0.3087E+03
   -2.681256    8.95049  0.2160E-11  0.5830E-05  0.1330E-06  0.3231E-04  0.4333E-03 -0.7095E+04
   -2.750002    8.96393  0.2160E-11  0.0000E+00  0.0000E+00  0.0000E+00  0.4325E-03  0.0000E+00
