 1 - depth, m
 2 - temperature, C
 3 - salinity, kg/kg
 4 - turbulent kinetic energy, m**2/s**2
 5 - dissipation rate, m**2/s**3
 6 - kinematic heat conductance, m**2/s
 7 - modulus of horizontal velocity, m/s
 8 - Richardson number, n/d
   -0.000000   11.09623  0.7308E-10  0.1032E-04  0.3587E-06  0.2751E-04  0.4912E-01  0.2199E-01
   -0.068746   11.07986  0.7308E-10  0.8527E-05  0.1471E-06  0.4101E-04  0.4201E-01  0.7103E-01
   -0.137492   11.06335  0.7309E-10  0.6845E-05  0.8778E-07  0.3920E-04  0.3826E-01  0.1529E+00
   -0.206239   11.03401  0.7309E-10  0.5104E-05  0.6100E-07  0.2943E-04  0.3512E-01  0.2568E+00
   -0.274987   10.76396  0.7317E-10  0.3450E-05  0.4121E-07  0.1838E-04  0.3040E-01  0.4611E+00
   -0.343735    9.99172  0.7335E-10  0.2150E-05  0.2733E-07  0.9357E-05  0.2398E-01  0.7041E+00
   -0.412484    9.08717  0.7350E-10  0.1335E-05  0.1717E-07  0.3639E-05  0.1722E-01  0.9707E+00
   -0.481233    8.27558  0.7364E-10  0.1034E-05  0.9544E-08  0.1747E-05  0.1087E-01  0.2864E+01
   -0.549983    7.63025  0.7375E-10  0.1011E-05  0.3597E-08  0.1702E-04  0.5721E-02  0.1904E+02
   -0.618733    7.17676  0.7382E-10  0.1257E-05  0.1125E-08  0.5144E-04  0.2180E-02  0.2708E+02
   -0.687484    7.01764  0.7384E-10  0.1475E-05  0.1005E-08  0.1057E-03  0.6749E-03  0.2918E+02
   -0.756234    6.98746  0.7384E-10  0.1609E-05  0.9483E-09  0.1790E-03  0.2437E-03  0.2440E+02
   -0.824986    6.98185  0.7384E-10  0.1694E-05  0.9715E-09  0.2706E-03  0.1278E-03  0.2832E+02
   -0.893737    6.98151  0.7384E-10  0.1770E-05  0.1011E-08  0.4830E-03  0.1084E-03  0.1911E+04
   -0.962489    6.98146  0.7384E-10  0.1833E-05  0.1050E-08  0.8089E-03  0.9627E-04  0.7645E+03
   -1.031241    6.98147  0.7384E-10  0.1886E-05  0.1086E-08  0.9867E-03  0.8801E-04  0.3417E+03
   -1.099993    6.98152  0.7384E-10  0.1935E-05  0.1125E-08  0.1055E-02  0.8190E-04  0.2789E+03
   -1.168745    6.98160  0.7384E-10  0.1984E-05  0.1166E-08  0.1093E-02  0.7677E-04  0.1297E+02
   -1.237497    6.98171  0.7384E-10  0.2035E-05  0.1212E-08  0.1093E-02  0.7222E-04  0.1531E+02
   -1.306249    6.98185  0.7384E-10  0.2086E-05  0.1262E-08  0.1095E-02  0.6772E-04  0.1812E+02
   -1.375002    6.98202  0.7384E-10  0.2138E-05  0.1316E-08  0.1098E-02  0.6326E-04  0.2109E+02
   -1.443754    6.98223  0.7384E-10  0.2190E-05  0.1374E-08  0.1098E-02  0.5885E-04  0.2412E+02
   -1.512506    6.98247  0.7384E-10  0.2240E-05  0.1434E-08  0.1097E-02  0.5448E-04  0.2741E+02
   -1.581259    6.98274  0.7384E-10  0.2288E-05  0.1497E-08  0.1093E-02  0.5014E-04  0.3082E+02
   -1.650011    6.98305  0.7384E-10  0.2332E-05  0.1561E-08  0.1087E-02  0.4581E-04  0.3479E+02
   -1.718763    6.98339  0.7384E-10  0.2372E-05  0.1628E-08  0.1077E-02  0.4149E-04  0.4052E+02
   -1.787515    6.98378  0.7384E-10  0.2408E-05  0.1698E-08  0.1064E-02  0.3717E-04  0.4802E+02
   -1.856266    6.98419  0.7384E-10  0.2442E-05  0.1777E-08  0.1046E-02  0.3324E-04  0.6398E+02
   -1.925018    6.98461  0.7384E-10  0.2474E-05  0.1866E-08  0.1023E-02  0.2969E-04  0.8684E+02
   -1.993769    6.98506  0.7384E-10  0.2503E-05  0.1969E-08  0.9929E-03  0.2650E-04  0.1204E+03
   -2.062520    6.98554  0.7384E-10  0.2528E-05  0.2085E-08  0.9578E-03  0.2361E-04  0.1699E+03
   -2.131270    6.98607  0.7384E-10  0.2548E-05  0.2216E-08  0.9168E-03  0.2087E-04  0.2289E+03
   -2.200020    6.98665  0.7384E-10  0.2563E-05  0.2368E-08  0.8701E-03  0.1825E-04  0.3203E+03
   -2.268770    6.98729  0.7384E-10  0.2571E-05  0.2548E-08  0.8164E-03  0.1574E-04  0.4593E+03
   -2.337519    6.98800  0.7384E-10  0.2571E-05  0.2777E-08  0.7527E-03  0.1339E-04  0.7211E+03
   -2.406268    6.98880  0.7384E-10  0.2560E-05  0.3088E-08  0.6771E-03  0.1121E-04  0.1258E+04
   -2.475016    6.98972  0.7384E-10  0.2535E-05  0.3543E-08  0.5872E-03  0.9177E-05  0.2530E+04
   -2.543764    6.99081  0.7384E-10  0.2488E-05  0.4294E-08  0.4744E-03  0.7292E-05  0.6531E+04
   -2.612511    6.99223  0.7384E-10  0.2395E-05  0.5828E-08  0.3636E-03  0.5506E-05  0.2246E+05
   -2.681258    6.99415  0.7384E-10  0.1668E-05  0.2162E-07  0.2125E-04  0.3956E-05 -0.1421E+07
   -2.750003    7.02936  0.7384E-10  0.0000E+00  0.0000E+00  0.0000E+00  0.3956E-05  0.0000E+00
