 1 - depth, m
 2 - temperature, C
 3 - salinity, kg/kg
 4 - turbulent kinetic energy, m**2/s**2
 5 - dissipation rate, m**2/s**3
 6 - kinematic heat conductance, m**2/s
 7 - modulus of horizontal velocity, m/s
 8 - Richardson number, n/d
   -0.000000   -0.00000  0.1364E-10  0.1219E-13  0.7603E-17  0.1000E-09  0.0000E+00  0.6937E+16
   -0.068746    0.10555  0.8169E-11  0.1219E-13  0.7603E-17  0.1000E-09  0.0000E+00  0.6671E+16
   -0.137492    0.21003  0.5938E-11  0.1219E-13  0.7603E-17  0.1000E-09  0.0000E+00  0.6440E+16
   -0.206239    0.31390  0.5259E-11  0.1219E-13  0.7603E-17  0.1000E-09  0.0000E+00  0.6240E+16
   -0.274987    0.41761  0.5086E-11  0.1219E-13  0.7603E-17  0.1000E-09  0.0000E+00  0.6066E+16
   -0.343735    0.52159  0.5047E-11  0.1219E-13  0.7603E-17  0.1000E-09  0.0000E+00  0.5914E+16
   -0.412483    0.62623  0.5039E-11  0.1219E-13  0.7603E-17  0.1000E-09  0.0000E+00  0.5779E+16
   -0.481232    0.73194  0.5038E-11  0.1219E-13  0.7603E-17  0.1000E-09  0.0000E+00  0.5659E+16
   -0.549982    0.83908  0.5038E-11  0.1219E-13  0.7603E-17  0.1000E-09  0.0000E+00  0.5549E+16
   -0.618732    0.94800  0.5038E-11  0.1219E-13  0.7603E-17  0.1000E-09  0.0000E+00  0.5445E+16
   -0.687482    1.05903  0.5038E-11  0.1219E-13  0.7603E-17  0.1000E-09  0.0000E+00  0.5356E+16
   -0.756233    1.17274  0.5038E-11  0.1219E-13  0.7603E-17  0.1000E-09  0.0000E+00  0.5272E+16
   -0.824984    1.28957  0.5038E-11  0.1219E-13  0.7603E-17  0.1000E-09  0.0000E+00  0.5180E+16
   -0.893735    1.40976  0.5037E-11  0.1219E-13  0.7603E-17  0.1000E-09  0.0000E+00  0.5077E+16
   -0.962486    1.53352  0.5036E-11  0.1219E-13  0.7603E-17  0.1000E-09  0.0000E+00  0.4959E+16
   -1.031238    1.66103  0.5034E-11  0.5653E-13  0.9808E-17  0.1000E-09  0.0000E+00  0.4823E+16
   -1.099990    1.79241  0.5029E-11  0.1630E-12  0.2211E-16  0.1000E-09  0.0000E+00  0.4664E+16
   -1.168742    1.92775  0.5018E-11  0.4093E-12  0.5213E-16  0.1000E-09  0.0000E+00  0.4482E+16
   -1.237494    2.06708  0.5000E-11  0.9853E-12  0.1214E-15  0.1000E-09  0.0000E+00  0.4272E+16
   -1.306246    2.21040  0.4976E-11  0.2329E-11  0.2788E-15  0.1000E-09  0.0000E+00  0.4035E+16
   -1.374999    2.35763  0.4950E-11  0.5436E-11  0.6334E-15  0.1000E-09  0.0000E+00  0.3772E+16
   -1.443751    2.50890  0.4929E-11  0.1255E-10  0.1424E-14  0.1000E-09  0.0000E+00  0.3480E+16
   -1.512503    2.66409  0.4915E-11  0.2867E-10  0.3168E-14  0.1000E-09  0.0000E+00  0.3155E+16
   -1.581255    2.82300  0.4907E-11  0.6484E-10  0.6980E-14  0.1000E-09  0.0000E+00  0.2800E+16
   -1.650007    2.98532  0.4902E-11  0.1452E-09  0.1523E-13  0.1000E-09  0.0000E+00  0.2414E+16
   -1.718759    3.15073  0.4898E-11  0.3219E-09  0.3292E-13  0.1000E-09  0.0000E+00  0.2004E+16
   -1.787511    3.31895  0.4896E-11  0.7239E-09  0.7215E-13  0.2307E-09  0.0000E+00  0.1591E+16
   -1.856262    3.49228  0.4893E-11  0.1641E-08  0.1595E-12  0.7130E-09  0.0000E+00  0.1138E+16
   -1.925013    3.67058  0.4887E-11  0.3707E-08  0.3516E-12  0.2785E-08  0.0000E+00  0.6425E+15
   -1.993764    3.85227  0.4882E-11  0.8231E-08  0.7635E-12  0.2849E-07  0.0000E+00  0.1362E+15
   -2.062515    4.01100  0.4881E-11  0.9232E-08  0.8611E-12  0.4065E-04  0.0000E+00 -0.2582E+12
   -2.131265    4.01166  0.4881E-11  0.9646E-08  0.9122E-12  0.4101E-04  0.0000E+00 -0.2631E+12
   -2.200015    4.01231  0.4881E-11  0.9971E-08  0.9668E-12  0.4046E-04  0.0000E+00 -0.2741E+12
   -2.268765    4.01297  0.4881E-11  0.1021E-07  0.1029E-11  0.3897E-04  0.0000E+00 -0.2927E+12
   -2.337514    4.01367  0.4881E-11  0.1038E-07  0.1106E-11  0.3634E-04  0.0000E+00 -0.3233E+12
   -2.406262    4.01441  0.4881E-11  0.1045E-07  0.1210E-11  0.3241E-04  0.0000E+00 -0.3746E+12
   -2.475011    4.01525  0.4881E-11  0.1042E-07  0.1368E-11  0.2693E-04  0.0000E+00 -0.4686E+12
   -2.543758    4.01627  0.4881E-11  0.1020E-07  0.1649E-11  0.1967E-04  0.0000E+00 -0.6750E+12
   -2.612505    4.01767  0.4881E-11  0.9607E-08  0.2330E-11  0.1058E-04  0.0000E+00 -0.1363E+13
   -2.681251    4.02033  0.4881E-11  0.7027E-08  0.6507E-11  0.1443E-05  0.0000E+00 -0.1344E+14
   -2.749997    4.03992  0.4881E-11  0.0000E+00  0.0000E+00  0.0000E+00  0.0000E+00  0.0000E+00
