 1 - depth, m
 2 - temperature, C
 3 - salinity, kg/kg
 4 - turbulent kinetic energy, m**2/s**2
 5 - dissipation rate, m**2/s**3
 6 - kinematic heat conductance, m**2/s
 7 - modulus of horizontal velocity, m/s
 8 - Richardson number, n/d
   -0.000000    3.89181  0.3740E-11  0.3923E-04  0.5245E-05  0.3573E-04  0.5816E-01  0.8561E-04
   -0.068746    3.94187  0.3740E-11  0.2773E-04  0.1181E-05  0.8135E-04  0.3298E-01  0.1828E-03
   -0.137492    3.95677  0.3740E-11  0.2495E-04  0.5264E-06  0.1283E-03  0.2669E-01  0.2104E-03
   -0.206239    3.96636  0.3740E-11  0.2351E-04  0.3138E-06  0.1775E-03  0.2276E-01  0.2196E-03
   -0.274987    3.97321  0.3740E-11  0.2255E-04  0.2181E-06  0.2273E-03  0.2000E-01  0.2080E-03
   -0.343735    3.97844  0.3740E-11  0.2180E-04  0.1650E-06  0.2766E-03  0.1792E-01  0.1762E-03
   -0.412484    3.98263  0.3740E-11  0.2115E-04  0.1317E-06  0.3245E-03  0.1626E-01  0.1277E-03
   -0.481233    3.98611  0.3740E-11  0.2058E-04  0.1089E-06  0.3708E-03  0.1488E-01  0.6588E-04
   -0.549983    3.98909  0.3740E-11  0.2007E-04  0.9234E-07  0.4153E-03  0.1371E-01 -0.6431E-05
   -0.618733    3.99168  0.3740E-11  0.1960E-04  0.7989E-07  0.4580E-03  0.1269E-01 -0.8712E-04
   -0.687483    3.99397  0.3740E-11  0.1918E-04  0.7021E-07  0.4988E-03  0.1179E-01 -0.1744E-03
   -0.756234    3.99603  0.3740E-11  0.1878E-04  0.6251E-07  0.5376E-03  0.1098E-01 -0.2665E-03
   -0.824985    3.99790  0.3740E-11  0.1841E-04  0.5627E-07  0.5744E-03  0.1025E-01 -0.3620E-03
   -0.893737    3.99961  0.3740E-11  0.1807E-04  0.5113E-07  0.6090E-03  0.9572E-02 -0.4593E-03
   -0.962488    4.00118  0.3740E-11  0.1775E-04  0.4683E-07  0.6413E-03  0.8948E-02 -0.5568E-03
   -1.031240    4.00264  0.3740E-11  0.1744E-04  0.4321E-07  0.6710E-03  0.8365E-02 -0.6529E-03
   -1.099992    4.00401  0.3740E-11  0.1714E-04  0.4013E-07  0.6980E-03  0.7818E-02 -0.7459E-03
   -1.168744    4.00529  0.3740E-11  0.1686E-04  0.3748E-07  0.7219E-03  0.7299E-02 -0.8342E-03
   -1.237497    4.00650  0.3740E-11  0.1658E-04  0.3518E-07  0.7426E-03  0.6805E-02 -0.9160E-03
   -1.306249    4.00765  0.3740E-11  0.1631E-04  0.3317E-07  0.7596E-03  0.6331E-02 -0.9895E-03
   -1.375001    4.00875  0.3740E-11  0.1603E-04  0.3139E-07  0.7725E-03  0.5872E-02 -0.1053E-02
   -1.443754    4.00980  0.3740E-11  0.1575E-04  0.2981E-07  0.7809E-03  0.5426E-02 -0.1104E-02
   -1.512506    4.01082  0.3740E-11  0.1546E-04  0.2837E-07  0.7840E-03  0.4988E-02 -0.1142E-02
   -1.581258    4.01181  0.3740E-11  0.1515E-04  0.2705E-07  0.7810E-03  0.4554E-02 -0.1162E-02
   -1.650010    4.01277  0.3740E-11  0.1481E-04  0.2579E-07  0.7702E-03  0.4121E-02 -0.1163E-02
   -1.718762    4.01373  0.3740E-11  0.1443E-04  0.2456E-07  0.7536E-03  0.3681E-02 -0.1161E-02
   -1.787514    4.01468  0.3740E-11  0.1400E-04  0.2333E-07  0.8023E-03  0.3234E-02 -0.1562E-02
   -1.856266    4.01556  0.3740E-11  0.1356E-04  0.2220E-07  0.8304E-03  0.2865E-02 -0.2053E-02
   -1.925017    4.01640  0.3740E-11  0.1312E-04  0.2117E-07  0.8466E-03  0.2551E-02 -0.2700E-02
   -1.993768    4.01722  0.3740E-11  0.1267E-04  0.2026E-07  0.8466E-03  0.2281E-02 -0.3379E-02
   -2.062519    4.01803  0.3740E-11  0.1225E-04  0.1951E-07  0.8310E-03  0.2042E-02 -0.3869E-02
   -2.131269    4.01884  0.3740E-11  0.1183E-04  0.1892E-07  0.8088E-03  0.1817E-02 -0.4386E-02
   -2.200019    4.01966  0.3740E-11  0.1144E-04  0.1852E-07  0.7788E-03  0.1605E-02 -0.4906E-02
   -2.268769    4.02049  0.3740E-11  0.1105E-04  0.1834E-07  0.7440E-03  0.1401E-02 -0.5815E-02
   -2.337518    4.02134  0.3740E-11  0.1066E-04  0.1845E-07  0.6973E-03  0.1212E-02 -0.7049E-02
   -2.406267    4.02224  0.3740E-11  0.1025E-04  0.1900E-07  0.6341E-03  0.1036E-02 -0.8647E-02
   -2.475015    4.02321  0.3740E-11  0.9803E-05  0.2030E-07  0.5492E-03  0.8702E-03 -0.1084E-01
   -2.543763    4.02432  0.3740E-11  0.9276E-05  0.2318E-07  0.4348E-03  0.7131E-03 -0.1391E-01
   -2.612510    4.02569  0.3740E-11  0.8531E-05  0.3081E-07  0.2795E-03  0.5586E-03 -0.2084E-01
   -2.681257    4.02778  0.3740E-11  0.5051E-05  0.1062E-06  0.2868E-04  0.4017E-03 -0.3183E+04
   -2.750002    4.04767  0.3740E-11  0.0000E+00  0.0000E+00  0.0000E+00  0.4011E-03  0.0000E+00
