 1 - depth, m
 2 - temperature, C
 3 - salinity, kg/kg
 4 - turbulent kinetic energy, m**2/s**2
 5 - dissipation rate, m**2/s**3
 6 - kinematic heat conductance, m**2/s
 7 - modulus of horizontal velocity, m/s
 8 - Richardson number, n/d
   -0.000000   -0.00000  0.1098E-09  0.1219E-13  0.7603E-17  0.1000E-09  0.0000E+00  0.7319E+16
   -0.068746    0.11146  0.8571E-10  0.1219E-13  0.7603E-17  0.1000E-09  0.0000E+00  0.7079E+16
   -0.137492    0.22262  0.6541E-10  0.1219E-13  0.7603E-17  0.1000E-09  0.0000E+00  0.6839E+16
   -0.206239    0.33343  0.5351E-10  0.1219E-13  0.7603E-17  0.1000E-09  0.0000E+00  0.6598E+16
   -0.274987    0.44384  0.4764E-10  0.1219E-13  0.7603E-17  0.1000E-09  0.0000E+00  0.6358E+16
   -0.343735    0.55380  0.4509E-10  0.1219E-13  0.7603E-17  0.1000E-09  0.0000E+00  0.6120E+16
   -0.412484    0.66326  0.4411E-10  0.1219E-13  0.7603E-17  0.1000E-09  0.0000E+00  0.5882E+16
   -0.481233    0.77220  0.4377E-10  0.1219E-13  0.7603E-17  0.1000E-09  0.0000E+00  0.5647E+16
   -0.549982    0.88057  0.4366E-10  0.1219E-13  0.7603E-17  0.1000E-09  0.0000E+00  0.5414E+16
   -0.618732    0.98834  0.4362E-10  0.1219E-13  0.7603E-17  0.1000E-09  0.0000E+00  0.5183E+16
   -0.687483    1.09548  0.4361E-10  0.1219E-13  0.7603E-17  0.1000E-09  0.0000E+00  0.4960E+16
   -0.756233    1.20206  0.4361E-10  0.1219E-13  0.7603E-17  0.1000E-09  0.0000E+00  0.4742E+16
   -0.824984    1.30811  0.4360E-10  0.1219E-13  0.7603E-17  0.1000E-09  0.0000E+00  0.4526E+16
   -0.893736    1.41359  0.4360E-10  0.1219E-13  0.7603E-17  0.1000E-09  0.0000E+00  0.4312E+16
   -0.962487    1.51847  0.4358E-10  0.1219E-13  0.7603E-17  0.1000E-09  0.0000E+00  0.4101E+16
   -1.031239    1.62271  0.4355E-10  0.1219E-13  0.7603E-17  0.1000E-09  0.0000E+00  0.3893E+16
   -1.099991    1.72628  0.4350E-10  0.1219E-13  0.7603E-17  0.1000E-09  0.0000E+00  0.3687E+16
   -1.168743    1.82913  0.4343E-10  0.1219E-13  0.7603E-17  0.1000E-09  0.0000E+00  0.3484E+16
   -1.237495    1.93122  0.4334E-10  0.1219E-13  0.7603E-17  0.1000E-09  0.0000E+00  0.3284E+16
   -1.306248    2.03252  0.4322E-10  0.1219E-13  0.7603E-17  0.1000E-09  0.0000E+00  0.3088E+16
   -1.375000    2.13296  0.4310E-10  0.1219E-13  0.7603E-17  0.1000E-09  0.0000E+00  0.2897E+16
   -1.443752    2.23257  0.4299E-10  0.1219E-13  0.7603E-17  0.1000E-09  0.0000E+00  0.2709E+16
   -1.512504    2.33132  0.4288E-10  0.1219E-13  0.7603E-17  0.1000E-09  0.0000E+00  0.2526E+16
   -1.581257    2.42917  0.4281E-10  0.1219E-13  0.7603E-17  0.1000E-09  0.0000E+00  0.2346E+16
   -1.650009    2.52605  0.4275E-10  0.1219E-13  0.7603E-17  0.1000E-09  0.0000E+00  0.2169E+16
   -1.718761    2.62191  0.4270E-10  0.1219E-13  0.7603E-17  0.1000E-09  0.0000E+00  0.1998E+16
   -1.787512    2.71675  0.4267E-10  0.1219E-13  0.7603E-17  0.1000E-09  0.0000E+00  0.1850E+16
   -1.856264    2.81151  0.4263E-10  0.1219E-13  0.7603E-17  0.1000E-09  0.0000E+00  0.1703E+16
   -1.925015    2.90625  0.4258E-10  0.1219E-13  0.7603E-17  0.1000E-09  0.0000E+00  0.1559E+16
   -1.993766    3.00103  0.4253E-10  0.1219E-13  0.7603E-17  0.1000E-09  0.0000E+00  0.1412E+16
   -2.062517    3.09571  0.4246E-10  0.1219E-13  0.7603E-17  0.1000E-09  0.0000E+00  0.1261E+16
   -2.131267    3.18985  0.4239E-10  0.1219E-13  0.7603E-17  0.1000E-09  0.0000E+00  0.1112E+16
   -2.200017    3.28342  0.4233E-10  0.1219E-13  0.7603E-17  0.1000E-09  0.0000E+00  0.9660E+15
   -2.268767    3.37638  0.4228E-10  0.1219E-13  0.7603E-17  0.1000E-09  0.0000E+00  0.8260E+15
   -2.337516    3.46912  0.4224E-10  0.1219E-13  0.7603E-17  0.1000E-09  0.0000E+00  0.6893E+15
   -2.406265    3.56188  0.4222E-10  0.3351E-13  0.1905E-16  0.1000E-09  0.0000E+00  0.5543E+15
   -2.475013    3.65497  0.4221E-10  0.1932E-12  0.1050E-15  0.1000E-09  0.0000E+00  0.4203E+15
   -2.543760    3.74889  0.4221E-10  0.1151E-11  0.6048E-15  0.1000E-09  0.0000E+00  0.2849E+15
   -2.612508    3.84455  0.4221E-10  0.7066E-11  0.3605E-14  0.1219E-09  0.0000E+00  0.1441E+15
   -2.681254    3.94473  0.4221E-10  0.4784E-10  0.2404E-13  0.3911E-07  0.0000E+00 -0.7357E+13
   -2.750000    4.03799  0.4221E-10  0.0000E+00  0.0000E+00  0.0000E+00  0.0000E+00  0.0000E+00
