 1 - depth, m
 2 - temperature, C
 3 - salinity, kg/kg
 4 - turbulent kinetic energy, m**2/s**2
 5 - dissipation rate, m**2/s**3
 6 - kinematic heat conductance, m**2/s
 7 - modulus of horizontal velocity, m/s
 8 - Richardson number, n/d
   -0.000000   11.69483  0.5676E-12  0.1487E-04  0.6820E-06  0.3468E-04  0.2607E-01 -0.3539E-01
   -0.068746   11.72974  0.5676E-12  0.1414E-04  0.2399E-06  0.9780E-04  0.1689E-01 -0.9874E-01
   -0.137492   11.74151  0.5676E-12  0.1374E-04  0.1383E-06  0.1769E-03  0.1367E-01 -0.1675E+00
   -0.206239   11.74785  0.5676E-12  0.1348E-04  0.9569E-07  0.2999E-03  0.1186E-01  0.3821E+02
   -0.274987   11.75170  0.5676E-12  0.1333E-04  0.7329E-07  0.4778E-03  0.1069E-01  0.1415E+02
   -0.343735   11.75413  0.5676E-12  0.1327E-04  0.6011E-07  0.7481E-03  0.9857E-02  0.7652E+02
   -0.412484   11.75564  0.5676E-12  0.1329E-04  0.5173E-07  0.1052E-02  0.9232E-02  0.6407E+02
   -0.481233   11.75660  0.5676E-12  0.1337E-04  0.4577E-07  0.1201E-02  0.8709E-02  0.7894E+01
   -0.549983   11.75739  0.5676E-12  0.1348E-04  0.4109E-07  0.1259E-02  0.8220E-02  0.8850E+01
   -0.618733   11.75813  0.5676E-12  0.1360E-04  0.3732E-07  0.1328E-02  0.7757E-02  0.9558E+01
   -0.687483   11.75881  0.5676E-12  0.1372E-04  0.3423E-07  0.1393E-02  0.7320E-02  0.1011E+02
   -0.756234   11.75944  0.5676E-12  0.1382E-04  0.3165E-07  0.1458E-02  0.6904E-02  0.1066E+02
   -0.824985   11.76002  0.5676E-12  0.1391E-04  0.2947E-07  0.1521E-02  0.6506E-02  0.1117E+02
   -0.893736   11.76056  0.5676E-12  0.1399E-04  0.2760E-07  0.1582E-02  0.6123E-02  0.1169E+02
   -0.962488   11.76107  0.5676E-12  0.1403E-04  0.2597E-07  0.1642E-02  0.5753E-02  0.1221E+02
   -1.031240   11.76155  0.5676E-12  0.1405E-04  0.2455E-07  0.1700E-02  0.5394E-02  0.1274E+02
   -1.099992   11.76199  0.5676E-12  0.1405E-04  0.2330E-07  0.1753E-02  0.5044E-02  0.1332E+02
   -1.168744   11.76241  0.5676E-12  0.1401E-04  0.2219E-07  0.1802E-02  0.4703E-02  0.1395E+02
   -1.237496   11.76281  0.5676E-12  0.1394E-04  0.2120E-07  0.1846E-02  0.4368E-02  0.1466E+02
   -1.306249   11.76319  0.5676E-12  0.1385E-04  0.2032E-07  0.1881E-02  0.4040E-02  0.1550E+02
   -1.375001   11.76354  0.5676E-12  0.1371E-04  0.1954E-07  0.1908E-02  0.3718E-02  0.1653E+02
   -1.443753   11.76389  0.5676E-12  0.1355E-04  0.1883E-07  0.1924E-02  0.3401E-02  0.1783E+02
   -1.512506   11.76421  0.5676E-12  0.1335E-04  0.1821E-07  0.1929E-02  0.3088E-02  0.1960E+02
   -1.581258   11.76453  0.5676E-12  0.1312E-04  0.1765E-07  0.1922E-02  0.2779E-02  0.2211E+02
   -1.650010   11.76484  0.5676E-12  0.1285E-04  0.1715E-07  0.1905E-02  0.2472E-02  0.2600E+02
   -1.718762   11.76514  0.5676E-12  0.1255E-04  0.1671E-07  0.1868E-02  0.2169E-02  0.2996E+02
   -1.787514   11.76543  0.5676E-12  0.1221E-04  0.1632E-07  0.1863E-02  0.1866E-02  0.7518E+01
   -1.856265   11.76573  0.5676E-12  0.1183E-04  0.1600E-07  0.1861E-02  0.1607E-02  0.3761E+01
   -1.925017   11.76601  0.5676E-12  0.1143E-04  0.1579E-07  0.1876E-02  0.1386E-02  0.2312E+01
   -1.993768   11.76629  0.5676E-12  0.1103E-04  0.1571E-07  0.1902E-02  0.1199E-02  0.1660E+01
   -2.062519   11.76657  0.5676E-12  0.1064E-04  0.1579E-07  0.1895E-02  0.1041E-02  0.1346E+01
   -2.131269   11.76683  0.5676E-12  0.1026E-04  0.1606E-07  0.1858E-02  0.9025E-03  0.1097E+01
   -2.200019   11.76710  0.5676E-12  0.9918E-05  0.1653E-07  0.1780E-02  0.7795E-03  0.8975E+00
   -2.268769   11.76737  0.5676E-12  0.9602E-05  0.1723E-07  0.1656E-02  0.6711E-03  0.7047E+00
   -2.337518   11.76766  0.5676E-12  0.9309E-05  0.1825E-07  0.1485E-02  0.5797E-03  0.5839E+00
   -2.406267   11.76798  0.5676E-12  0.9033E-05  0.1970E-07  0.1338E-02  0.5039E-03  0.5993E+00
   -2.475015   11.76831  0.5676E-12  0.8742E-05  0.2215E-07  0.1134E-02  0.4415E-03  0.9642E+01
   -2.543762   11.76875  0.5676E-12  0.8367E-05  0.2691E-07  0.1023E-02  0.3821E-03  0.5400E+02
   -2.612510   11.76926  0.5676E-12  0.7681E-05  0.4087E-07  0.5427E-03  0.3266E-03  0.6030E+03
   -2.681256   11.77087  0.5676E-12  0.4681E-05  0.1541E-06  0.5891E-04  0.2348E-03 -0.1287E+05
   -2.750002   11.77900  0.5676E-12  0.0000E+00  0.0000E+00  0.0000E+00  0.2553E-03  0.0000E+00
