 1 - depth, m
 2 - temperature, C
 3 - salinity, kg/kg
 4 - turbulent kinetic energy, m**2/s**2
 5 - dissipation rate, m**2/s**3
 6 - kinematic heat conductance, m**2/s
 7 - modulus of horizontal velocity, m/s
 8 - Richardson number, n/d
   -0.000000    6.81043  0.2153E-11  0.4497E-04  0.9310E-05  0.5034E-04  0.5451E-01 -0.1475E-01
   -0.068746    6.86226  0.2153E-11  0.2978E-04  0.2088E-05  0.9804E-04  0.2867E-01 -0.2343E-01
   -0.137492    6.87637  0.2153E-11  0.2562E-04  0.8692E-06  0.1452E-03  0.2312E-01 -0.3872E-01
   -0.206239    6.88510  0.2153E-11  0.2342E-04  0.4603E-06  0.1975E-03  0.1982E-01 -0.5508E-01
   -0.274987    6.89130  0.2153E-11  0.2207E-04  0.2880E-06  0.2546E-03  0.1745E-01 -0.7263E-01
   -0.343735    6.89599  0.2153E-11  0.2116E-04  0.2022E-06  0.3159E-03  0.1564E-01 -0.8919E-01
   -0.412484    6.89967  0.2153E-11  0.2050E-04  0.1535E-06  0.3893E-03  0.1420E-01 -0.5269E-01
   -0.481233    6.90259  0.2153E-11  0.1999E-04  0.1230E-06  0.5260E-03  0.1302E-01  0.5370E+02
   -0.549983    6.90485  0.2153E-11  0.1958E-04  0.1024E-06  0.6601E-03  0.1204E-01  0.5389E+02
   -0.618733    6.90668  0.2153E-11  0.1923E-04  0.8774E-07  0.7630E-03  0.1119E-01  0.4037E+02
   -0.687483    6.90822  0.2153E-11  0.1893E-04  0.7674E-07  0.8691E-03  0.1045E-01  0.6685E+01
   -0.756234    6.90953  0.2153E-11  0.1867E-04  0.6825E-07  0.9740E-03  0.9784E-02  0.7397E+02
   -0.824985    6.91068  0.2153E-11  0.1844E-04  0.6152E-07  0.1075E-02  0.9180E-02  0.3449E+02
   -0.893737    6.91168  0.2153E-11  0.1823E-04  0.5608E-07  0.1174E-02  0.8623E-02  0.8495E+02
   -0.962488    6.91257  0.2153E-11  0.1803E-04  0.5159E-07  0.1267E-02  0.8104E-02  0.1060E+02
   -1.031240    6.91336  0.2153E-11  0.1784E-04  0.4785E-07  0.1367E-02  0.7617E-02  0.1196E+03
   -1.099992    6.91407  0.2153E-11  0.1766E-04  0.4468E-07  0.1457E-02  0.7154E-02  0.7081E+02
   -1.168744    6.91472  0.2153E-11  0.1748E-04  0.4197E-07  0.1511E-02  0.6712E-02  0.2019E+02
   -1.237497    6.91533  0.2153E-11  0.1729E-04  0.3962E-07  0.1547E-02  0.6285E-02  0.2551E+02
   -1.306249    6.91590  0.2153E-11  0.1710E-04  0.3757E-07  0.1578E-02  0.5871E-02  0.3431E+02
   -1.375001    6.91645  0.2154E-11  0.1690E-04  0.3576E-07  0.1602E-02  0.5467E-02  0.5234E+02
   -1.443754    6.91697  0.2154E-11  0.1668E-04  0.3416E-07  0.1621E-02  0.5072E-02  0.1033E+03
   -1.512506    6.91747  0.2154E-11  0.1645E-04  0.3272E-07  0.1633E-02  0.4683E-02  0.2178E+04
   -1.581258    6.91794  0.2154E-11  0.1620E-04  0.3141E-07  0.1636E-02  0.4299E-02  0.1031E+05
   -1.650010    6.91841  0.2154E-11  0.1592E-04  0.3020E-07  0.1636E-02  0.3917E-02  0.4166E+04
   -1.718762    6.91885  0.2154E-11  0.1561E-04  0.2907E-07  0.1615E-02  0.3535E-02  0.2804E+04
   -1.787514    6.91929  0.2154E-11  0.1525E-04  0.2796E-07  0.1648E-02  0.3151E-02  0.1961E+02
   -1.856266    6.91971  0.2154E-11  0.1486E-04  0.2692E-07  0.1661E-02  0.2815E-02  0.4515E+01
   -1.925017    6.92012  0.2154E-11  0.1445E-04  0.2599E-07  0.1673E-02  0.2519E-02  0.2705E+01
   -1.993768    6.92052  0.2154E-11  0.1403E-04  0.2518E-07  0.1681E-02  0.2258E-02  0.1293E+01
   -2.062519    6.92091  0.2154E-11  0.1361E-04  0.2455E-07  0.1676E-02  0.2026E-02  0.9872E+00
   -2.131269    6.92130  0.2154E-11  0.1320E-04  0.2413E-07  0.1656E-02  0.1809E-02  0.7836E+00
   -2.200019    6.92168  0.2154E-11  0.1281E-04  0.2395E-07  0.1608E-02  0.1605E-02  0.6211E+00
   -2.268769    6.92206  0.2154E-11  0.1243E-04  0.2406E-07  0.1545E-02  0.1414E-02  0.4651E+00
   -2.337518    6.92246  0.2154E-11  0.1205E-04  0.2454E-07  0.1456E-02  0.1238E-02  0.5817E+00
   -2.406267    6.92287  0.2154E-11  0.1167E-04  0.2555E-07  0.1327E-02  0.1079E-02  0.3869E+00
   -2.475015    6.92331  0.2154E-11  0.1127E-04  0.2744E-07  0.1119E-02  0.9373E-03  0.1736E+01
   -2.543763    6.92383  0.2154E-11  0.1080E-04  0.3127E-07  0.8610E-03  0.8054E-03  0.3551E+03
   -2.612510    6.92450  0.2154E-11  0.1006E-04  0.4145E-07  0.4190E-03  0.6691E-03  0.1133E+03
   -2.681257    6.92577  0.2154E-11  0.6086E-05  0.1482E-06  0.3207E-04  0.5124E-03 -0.1778E+05
   -2.750002    6.94205  0.2154E-11  0.0000E+00  0.0000E+00  0.0000E+00  0.5116E-03  0.0000E+00
