 1 - depth, m
 2 - temperature, C
 3 - salinity, kg/kg
 4 - turbulent kinetic energy, m**2/s**2
 5 - dissipation rate, m**2/s**3
 6 - kinematic heat conductance, m**2/s
 7 - modulus of horizontal velocity, m/s
 8 - Richardson number, n/d
   -0.000000   13.23826  0.1499E-10  0.2243E-04  0.1684E-05  0.3492E-04  0.3768E-01 -0.1125E-01
   -0.068746   13.25750  0.1499E-10  0.1928E-04  0.4804E-06  0.8934E-04  0.2359E-01 -0.3042E-01
   -0.137492   13.26371  0.1499E-10  0.1816E-04  0.2521E-06  0.1454E-03  0.1909E-01 -0.4758E-01
   -0.206239   13.26725  0.1499E-10  0.1744E-04  0.1654E-06  0.2042E-03  0.1637E-01 -0.6484E-01
   -0.274987   13.26959  0.1499E-10  0.1688E-04  0.1212E-06  0.2654E-03  0.1448E-01 -0.8230E-01
   -0.343735   13.27127  0.1499E-10  0.1643E-04  0.9467E-07  0.3298E-03  0.1305E-01 -0.9550E-01
   -0.412484   13.27254  0.1499E-10  0.1605E-04  0.7718E-07  0.4124E-03  0.1193E-01  0.1536E+00
   -0.481233   13.27352  0.1499E-10  0.1573E-04  0.6497E-07  0.5439E-03  0.1101E-01  0.5966E+01
   -0.549983   13.27428  0.1499E-10  0.1548E-04  0.5606E-07  0.6321E-03  0.1024E-01  0.3836E+01
   -0.618733   13.27491  0.1499E-10  0.1527E-04  0.4936E-07  0.7725E-03  0.9577E-02  0.1492E+02
   -0.687483   13.27542  0.1499E-10  0.1512E-04  0.4423E-07  0.9816E-03  0.9002E-02  0.4129E+02
   -0.756234   13.27582  0.1499E-10  0.1500E-04  0.4024E-07  0.1168E-02  0.8494E-02  0.2069E+02
   -0.824985   13.27616  0.1499E-10  0.1491E-04  0.3706E-07  0.1445E-02  0.8031E-02  0.1331E+03
   -0.893737   13.27641  0.1499E-10  0.1485E-04  0.3451E-07  0.1709E-02  0.7605E-02  0.1222E+03
   -0.962488   13.27662  0.1499E-10  0.1482E-04  0.3239E-07  0.1738E-02  0.7202E-02  0.1330E+02
   -1.031240   13.27683  0.1499E-10  0.1479E-04  0.3056E-07  0.1782E-02  0.6803E-02  0.1560E+02
   -1.099992   13.27704  0.1499E-10  0.1476E-04  0.2901E-07  0.1810E-02  0.6415E-02  0.1812E+02
   -1.168744   13.27724  0.1499E-10  0.1474E-04  0.2767E-07  0.1838E-02  0.6033E-02  0.2164E+02
   -1.237496   13.27745  0.1499E-10  0.1471E-04  0.2652E-07  0.1859E-02  0.5657E-02  0.2655E+02
   -1.306249   13.27766  0.1499E-10  0.1466E-04  0.2553E-07  0.1874E-02  0.5284E-02  0.3412E+02
   -1.375001   13.27787  0.1499E-10  0.1460E-04  0.2466E-07  0.1883E-02  0.4913E-02  0.4703E+02
   -1.443753   13.27808  0.1499E-10  0.1451E-04  0.2389E-07  0.1885E-02  0.4541E-02  0.7395E+02
   -1.512506   13.27830  0.1499E-10  0.1439E-04  0.2321E-07  0.1879E-02  0.4167E-02  0.1598E+03
   -1.581258   13.27853  0.1499E-10  0.1424E-04  0.2259E-07  0.1861E-02  0.3789E-02  0.3399E+05
   -1.650010   13.27876  0.1499E-10  0.1403E-04  0.2202E-07  0.1838E-02  0.3404E-02  0.3907E+05
   -1.718762   13.27901  0.1499E-10  0.1376E-04  0.2146E-07  0.1791E-02  0.3013E-02  0.1081E+05
   -1.787514   13.27927  0.1499E-10  0.1341E-04  0.2089E-07  0.1786E-02  0.2611E-02  0.3529E+02
   -1.856265   13.27953  0.1499E-10  0.1299E-04  0.2037E-07  0.1764E-02  0.2261E-02  0.8121E+01
   -1.925017   13.27980  0.1499E-10  0.1254E-04  0.1995E-07  0.1748E-02  0.1956E-02  0.3727E+01
   -1.993768   13.28007  0.1499E-10  0.1204E-04  0.1970E-07  0.1736E-02  0.1695E-02  0.2360E+01
   -2.062519   13.28034  0.1499E-10  0.1155E-04  0.1968E-07  0.1719E-02  0.1469E-02  0.1855E+01
   -2.131269   13.28063  0.1499E-10  0.1106E-04  0.1993E-07  0.1698E-02  0.1266E-02  0.1492E+01
   -2.200019   13.28092  0.1499E-10  0.1059E-04  0.2050E-07  0.1640E-02  0.1082E-02  0.1210E+01
   -2.268769   13.28123  0.1499E-10  0.1015E-04  0.2145E-07  0.1485E-02  0.9187E-03  0.9110E+00
   -2.337518   13.28157  0.1499E-10  0.9742E-05  0.2285E-07  0.1293E-02  0.7810E-03  0.6764E+00
   -2.406267   13.28198  0.1499E-10  0.9352E-05  0.2499E-07  0.1167E-02  0.6708E-03  0.1021E+01
   -2.475015   13.28243  0.1499E-10  0.8892E-05  0.2954E-07  0.9130E-03  0.5816E-03  0.3277E+03
   -2.543763   13.28319  0.1499E-10  0.8211E-05  0.3900E-07  0.7499E-03  0.4809E-03  0.1421E+03
   -2.612510   13.28411  0.1499E-10  0.7001E-05  0.6585E-07  0.3835E-03  0.3848E-03 -0.1996E+04
   -2.681256   13.28744  0.1499E-10  0.4191E-05  0.2109E-06  0.9244E-04  0.2389E-03 -0.4123E+04
   -2.750002   13.29536  0.1499E-10  0.0000E+00  0.0000E+00  0.0000E+00  0.3063E-03  0.0000E+00
