 1 - depth, m
 2 - temperature, C
 3 - salinity, kg/kg
 4 - turbulent kinetic energy, m**2/s**2
 5 - dissipation rate, m**2/s**3
 6 - kinematic heat conductance, m**2/s
 7 - modulus of horizontal velocity, m/s
 8 - Richardson number, n/d
   -0.000000    0.00000  0.0000E+00  0.1218E-13  0.7602E-17  0.1000E-09  0.0000E+00  0.6950E+16
   -0.068749    0.10620  0.1206E-16  0.1218E-13  0.7602E-17  0.1000E-09  0.0000E+00  0.4514E+16
   -0.137500    0.17678  0.2124E-17  0.1218E-13  0.7602E-17  0.1000E-09  0.0000E+00  0.3894E+16
   -0.206250    0.23857  0.1744E-13  0.1218E-13  0.7602E-17  0.1000E-09  0.0000E+00  0.3871E+16
   -0.275002    0.30102  0.6826E-12  0.1218E-13  0.7602E-17  0.1000E-09  0.0000E+00  0.4019E+16
   -0.343753    0.36707  0.2100E-11  0.1218E-13  0.7602E-17  0.1000E-09  0.0000E+00  0.4199E+16
   -0.412506    0.43751  0.3752E-11  0.1218E-13  0.7602E-17  0.1000E-09  0.0000E+00  0.4367E+16
   -0.481259    0.51240  0.5116E-11  0.1218E-13  0.7602E-17  0.1000E-09  0.0000E+00  0.4509E+16
   -0.550012    0.59159  0.5932E-11  0.1218E-13  0.7602E-17  0.1000E-09  0.0000E+00  0.4622E+16
   -0.618766    0.67486  0.6222E-11  0.1218E-13  0.7602E-17  0.1000E-09  0.0000E+00  0.4708E+16
   -0.687520    0.76202  0.6155E-11  0.1218E-13  0.7602E-17  0.1000E-09  0.0000E+00  0.4753E+16
   -0.756274    0.85264  0.5919E-11  0.1218E-13  0.7602E-17  0.1000E-09  0.0000E+00  0.4765E+16
   -0.825029    0.94636  0.5653E-11  0.1218E-13  0.7602E-17  0.1000E-09  0.0000E+00  0.4755E+16
   -0.893784    1.04300  0.5428E-11  0.1218E-13  0.7602E-17  0.1000E-09  0.0000E+00  0.4721E+16
   -0.962539    1.14237  0.5266E-11  0.1218E-13  0.7602E-17  0.1000E-09  0.0000E+00  0.4667E+16
   -1.031295    1.24432  0.5162E-11  0.1218E-13  0.7602E-17  0.1000E-09  0.0000E+00  0.4593E+16
   -1.100050    1.34870  0.5101E-11  0.1218E-13  0.7602E-17  0.1000E-09  0.0000E+00  0.4503E+16
   -1.168806    1.45538  0.5067E-11  0.1218E-13  0.7602E-17  0.1000E-09  0.0000E+00  0.4397E+16
   -1.237562    1.56428  0.5048E-11  0.1218E-13  0.7602E-17  0.1000E-09  0.0000E+00  0.4276E+16
   -1.306318    1.67532  0.5037E-11  0.1218E-13  0.7602E-17  0.1000E-09  0.0000E+00  0.4142E+16
   -1.375074    1.78842  0.5028E-11  0.1218E-13  0.7602E-17  0.1000E-09  0.0000E+00  0.4009E+16
   -1.443830    1.90397  0.5020E-11  0.1218E-13  0.7602E-17  0.1000E-09  0.0000E+00  0.3876E+16
   -1.512586    2.02235  0.5010E-11  0.1232E-13  0.7743E-17  0.1000E-09  0.0000E+00  0.3751E+16
   -1.581342    2.14440  0.4999E-11  0.1662E-13  0.1071E-16  0.1000E-09  0.0000E+00  0.3674E+16
   -1.650098    2.27261  0.4986E-11  0.5236E-13  0.3414E-16  0.1000E-09  0.0000E+00  0.3766E+16
   -1.718853    2.41524  0.4972E-11  0.3050E-12  0.1916E-15  0.1000E-09  0.0000E+00  0.4239E+16
   -1.787609    2.59474  0.4958E-11  0.2069E-11  0.1239E-14  0.1000E-09  0.0000E+00  0.3196E+16
   -1.856364    2.74788  0.4944E-11  0.1391E-10  0.7947E-14  0.1057E-09  0.0000E+00  0.2563E+16
   -1.925119    2.88606  0.4932E-11  0.9057E-10  0.4947E-13  0.2502E-09  0.0000E+00  0.1943E+16
   -1.993874    3.00283  0.4922E-11  0.5651E-09  0.2965E-12  0.1692E-08  0.0000E+00  0.1485E+16
   -2.062628    3.10168  0.4913E-11  0.3180E-08  0.1618E-11  0.4075E-08  0.0000E+00  0.1613E+16
   -2.131382    3.22984  0.4906E-11  0.1508E-07  0.7539E-11  0.3117E-07  0.0000E+00  0.1524E+16
   -2.200136    3.41245  0.4899E-11  0.2547E-07  0.1302E-10  0.1073E-04  0.0000E+00  0.1223E+16
   -2.268889    3.58386  0.4894E-11  0.3300E-07  0.1738E-10  0.1947E-04  0.0000E+00  0.8626E+15
   -2.337642    3.72734  0.4891E-11  0.3865E-07  0.2110E-10  0.2474E-04  0.0000E+00  0.5969E+15
   -2.406395    3.86031  0.4889E-11  0.4376E-07  0.2497E-10  0.2726E-04  0.0000E+00  0.2967E+15
   -2.475146    4.00003  0.4887E-11  0.4841E-07  0.2960E-10  0.3029E-04  0.0000E+00  0.4101E+14
   -2.543898    4.07114  0.4886E-11  0.5155E-07  0.3602E-10  0.2941E-04  0.0000E+00 -0.8424E+13
   -2.612648    4.07745  0.4886E-11  0.5141E-07  0.4867E-10  0.1942E-04  0.0000E+00 -0.1427E+14
   -2.681399    4.08668  0.4886E-11  0.3915E-07  0.1339E-09  0.3130E-05  0.0000E+00 -0.1190E+15
   -2.750148    4.13648  0.4886E-11  0.0000E+00  0.0000E+00  0.0000E+00  0.0000E+00  0.0000E+00
