 1 - depth, m
 2 - temperature, C
 3 - salinity, kg/kg
 4 - turbulent kinetic energy, m**2/s**2
 5 - dissipation rate, m**2/s**3
 6 - kinematic heat conductance, m**2/s
 7 - modulus of horizontal velocity, m/s
 8 - Richardson number, n/d
   -0.000000   -0.00000  0.6080E-11  0.1219E-13  0.7603E-17  0.1000E-09  0.0000E+00  0.7118E+16
   -0.068746    0.10835  0.3600E-11  0.1219E-13  0.7603E-17  0.1000E-09  0.0000E+00  0.6840E+16
   -0.137492    0.21560  0.2622E-11  0.1219E-13  0.7603E-17  0.1000E-09  0.0000E+00  0.6595E+16
   -0.206239    0.32218  0.2314E-11  0.1219E-13  0.7603E-17  0.1000E-09  0.0000E+00  0.6379E+16
   -0.274986    0.42850  0.2232E-11  0.1219E-13  0.7603E-17  0.1000E-09  0.0000E+00  0.6189E+16
   -0.343735    0.53498  0.2214E-11  0.1219E-13  0.7603E-17  0.1000E-09  0.0000E+00  0.6020E+16
   -0.412483    0.64200  0.2210E-11  0.1219E-13  0.7603E-17  0.1000E-09  0.0000E+00  0.5869E+16
   -0.481232    0.74993  0.2209E-11  0.1219E-13  0.7603E-17  0.1000E-09  0.0000E+00  0.5732E+16
   -0.549982    0.85913  0.2209E-11  0.1219E-13  0.7603E-17  0.1000E-09  0.0000E+00  0.5604E+16
   -0.618732    0.96994  0.2209E-11  0.1219E-13  0.7603E-17  0.1000E-09  0.0000E+00  0.5484E+16
   -0.687482    1.08266  0.2209E-11  0.1219E-13  0.7603E-17  0.1000E-09  0.0000E+00  0.5377E+16
   -0.756233    1.19785  0.2209E-11  0.1219E-13  0.7603E-17  0.1000E-09  0.0000E+00  0.5275E+16
   -0.824984    1.31590  0.2209E-11  0.1219E-13  0.7603E-17  0.1000E-09  0.0000E+00  0.5166E+16
   -0.893735    1.43705  0.2209E-11  0.1219E-13  0.7603E-17  0.1000E-09  0.0000E+00  0.5046E+16
   -0.962486    1.56149  0.2208E-11  0.1447E-13  0.7603E-17  0.1000E-09  0.0000E+00  0.4913E+16
   -1.031238    1.68937  0.2207E-11  0.6485E-13  0.1048E-16  0.1000E-09  0.0000E+00  0.4762E+16
   -1.099990    1.82081  0.2206E-11  0.1815E-12  0.2339E-16  0.1000E-09  0.0000E+00  0.4591E+16
   -1.168742    1.95587  0.2202E-11  0.4462E-12  0.5410E-16  0.1000E-09  0.0000E+00  0.4398E+16
   -1.237494    2.09459  0.2195E-11  0.1053E-11  0.1235E-15  0.1000E-09  0.0000E+00  0.4180E+16
   -1.306246    2.23695  0.2185E-11  0.2441E-11  0.2786E-15  0.1000E-09  0.0000E+00  0.3936E+16
   -1.374998    2.38288  0.2175E-11  0.5592E-11  0.6213E-15  0.1000E-09  0.0000E+00  0.3670E+16
   -1.443751    2.53246  0.2165E-11  0.1267E-10  0.1372E-14  0.1000E-09  0.0000E+00  0.3377E+16
   -1.512503    2.68559  0.2159E-11  0.2844E-10  0.2999E-14  0.1000E-09  0.0000E+00  0.3055E+16
   -1.581255    2.84204  0.2155E-11  0.6318E-10  0.6496E-14  0.1000E-09  0.0000E+00  0.2705E+16
   -1.650007    3.00154  0.2153E-11  0.1390E-09  0.1394E-13  0.1000E-09  0.0000E+00  0.2330E+16
   -1.718759    3.16376  0.2151E-11  0.3032E-09  0.2965E-13  0.1000E-09  0.0000E+00  0.1932E+16
   -1.787510    3.32843  0.2150E-11  0.6704E-09  0.6393E-13  0.2121E-09  0.0000E+00  0.1534E+16
   -1.856262    3.49773  0.2148E-11  0.1495E-08  0.1391E-12  0.6431E-09  0.0000E+00  0.1101E+16
   -1.925013    3.67153  0.2145E-11  0.3326E-08  0.3021E-12  0.2441E-08  0.0000E+00  0.6298E+15
   -1.993764    3.84852  0.2142E-11  0.7298E-08  0.6482E-12  0.2268E-07  0.0000E+00  0.1453E+15
   -2.062515    4.00789  0.2141E-11  0.8221E-08  0.7345E-12  0.3768E-04  0.0000E+00 -0.2366E+12
   -2.131265    4.00858  0.2141E-11  0.8606E-08  0.7798E-12  0.3814E-04  0.0000E+00 -0.2415E+12
   -2.200015    4.00926  0.2141E-11  0.8909E-08  0.8282E-12  0.3772E-04  0.0000E+00 -0.2520E+12
   -2.268765    4.00995  0.2141E-11  0.9136E-08  0.8829E-12  0.3639E-04  0.0000E+00 -0.2697E+12
   -2.337514    4.01067  0.2141E-11  0.9292E-08  0.9510E-12  0.3398E-04  0.0000E+00 -0.2986E+12
   -2.406262    4.01144  0.2141E-11  0.9368E-08  0.1043E-11  0.3033E-04  0.0000E+00 -0.3470E+12
   -2.475010    4.01231  0.2141E-11  0.9340E-08  0.1182E-11  0.2519E-04  0.0000E+00 -0.4358E+12
   -2.543758    4.01336  0.2141E-11  0.9149E-08  0.1428E-11  0.1835E-04  0.0000E+00 -0.6312E+12
   -2.612505    4.01481  0.2141E-11  0.8605E-08  0.2025E-11  0.9804E-05  0.0000E+00 -0.1289E+13
   -2.681251    4.01756  0.2141E-11  0.6253E-08  0.5668E-11  0.1319E-05  0.0000E+00 -0.1299E+14
   -2.749997    4.03765  0.2141E-11  0.0000E+00  0.0000E+00  0.0000E+00  0.0000E+00  0.0000E+00
