 1 - depth, m
 2 - temperature, C
 3 - salinity, kg/kg
 4 - turbulent kinetic energy, m**2/s**2
 5 - dissipation rate, m**2/s**3
 6 - kinematic heat conductance, m**2/s
 7 - modulus of horizontal velocity, m/s
 8 - Richardson number, n/d
   -0.000000   11.68280  0.9703E-12  0.1487E-04  0.6821E-06  0.3466E-04  0.2608E-01 -0.3526E-01
   -0.068746   11.71764  0.9703E-12  0.1414E-04  0.2399E-06  0.9768E-04  0.1689E-01 -0.9831E-01
   -0.137492   11.72940  0.9703E-12  0.1373E-04  0.1383E-06  0.1765E-03  0.1368E-01 -0.1669E+00
   -0.206239   11.73574  0.9703E-12  0.1347E-04  0.9569E-07  0.2988E-03  0.1187E-01  0.3822E+02
   -0.274987   11.73959  0.9703E-12  0.1332E-04  0.7327E-07  0.4755E-03  0.1069E-01  0.2335E+02
   -0.343735   11.74202  0.9703E-12  0.1326E-04  0.6007E-07  0.7447E-03  0.9856E-02  0.5047E+02
   -0.412484   11.74354  0.9703E-12  0.1327E-04  0.5168E-07  0.1048E-02  0.9230E-02  0.7030E+02
   -0.481233   11.74450  0.9703E-12  0.1335E-04  0.4572E-07  0.1202E-02  0.8706E-02  0.7905E+01
   -0.549983   11.74529  0.9703E-12  0.1346E-04  0.4105E-07  0.1258E-02  0.8218E-02  0.8863E+01
   -0.618733   11.74603  0.9703E-12  0.1358E-04  0.3727E-07  0.1327E-02  0.7755E-02  0.9583E+01
   -0.687483   11.74671  0.9703E-12  0.1370E-04  0.3419E-07  0.1392E-02  0.7318E-02  0.1014E+02
   -0.756234   11.74733  0.9703E-12  0.1380E-04  0.3161E-07  0.1456E-02  0.6902E-02  0.1069E+02
   -0.824985   11.74792  0.9703E-12  0.1389E-04  0.2943E-07  0.1519E-02  0.6504E-02  0.1121E+02
   -0.893737   11.74846  0.9703E-12  0.1396E-04  0.2755E-07  0.1581E-02  0.6121E-02  0.1172E+02
   -0.962488   11.74896  0.9703E-12  0.1401E-04  0.2593E-07  0.1641E-02  0.5751E-02  0.1225E+02
   -1.031240   11.74944  0.9703E-12  0.1403E-04  0.2451E-07  0.1698E-02  0.5392E-02  0.1279E+02
   -1.099992   11.74989  0.9703E-12  0.1402E-04  0.2326E-07  0.1751E-02  0.5042E-02  0.1337E+02
   -1.168744   11.75030  0.9703E-12  0.1398E-04  0.2215E-07  0.1800E-02  0.4701E-02  0.1401E+02
   -1.237496   11.75070  0.9703E-12  0.1392E-04  0.2117E-07  0.1843E-02  0.4367E-02  0.1473E+02
   -1.306249   11.75108  0.9703E-12  0.1382E-04  0.2029E-07  0.1879E-02  0.4039E-02  0.1558E+02
   -1.375001   11.75143  0.9703E-12  0.1369E-04  0.1950E-07  0.1905E-02  0.3717E-02  0.1662E+02
   -1.443753   11.75178  0.9703E-12  0.1352E-04  0.1880E-07  0.1921E-02  0.3400E-02  0.1794E+02
   -1.512506   11.75210  0.9703E-12  0.1332E-04  0.1817E-07  0.1927E-02  0.3087E-02  0.1974E+02
   -1.581258   11.75242  0.9703E-12  0.1309E-04  0.1761E-07  0.1919E-02  0.2778E-02  0.2229E+02
   -1.650010   11.75273  0.9703E-12  0.1283E-04  0.1711E-07  0.1903E-02  0.2472E-02  0.2626E+02
   -1.718762   11.75303  0.9703E-12  0.1253E-04  0.1667E-07  0.1866E-02  0.2169E-02  0.3032E+02
   -1.787514   11.75332  0.9703E-12  0.1218E-04  0.1628E-07  0.1861E-02  0.1866E-02  0.7549E+01
   -1.856265   11.75361  0.9703E-12  0.1181E-04  0.1596E-07  0.1860E-02  0.1607E-02  0.3768E+01
   -1.925017   11.75390  0.9703E-12  0.1141E-04  0.1574E-07  0.1875E-02  0.1386E-02  0.2314E+01
   -1.993768   11.75418  0.9703E-12  0.1101E-04  0.1566E-07  0.1901E-02  0.1199E-02  0.1661E+01
   -2.062519   11.75445  0.9703E-12  0.1061E-04  0.1574E-07  0.1895E-02  0.1041E-02  0.1346E+01
   -2.131269   11.75472  0.9703E-12  0.1024E-04  0.1601E-07  0.1856E-02  0.9026E-03  0.1097E+01
   -2.200019   11.75498  0.9703E-12  0.9898E-05  0.1647E-07  0.1778E-02  0.7796E-03  0.8977E+00
   -2.268769   11.75526  0.9703E-12  0.9583E-05  0.1717E-07  0.1655E-02  0.6712E-03  0.7050E+00
   -2.337518   11.75554  0.9703E-12  0.9290E-05  0.1818E-07  0.1485E-02  0.5798E-03  0.5838E+00
   -2.406267   11.75586  0.9703E-12  0.9014E-05  0.1963E-07  0.1340E-02  0.5040E-03  0.6014E+00
   -2.475015   11.75619  0.9703E-12  0.8722E-05  0.2209E-07  0.1132E-02  0.4415E-03  0.5610E+01
   -2.543762   11.75663  0.9703E-12  0.8343E-05  0.2691E-07  0.1021E-02  0.3816E-03  0.1661E+03
   -2.612510   11.75715  0.9703E-12  0.7650E-05  0.4096E-07  0.5407E-03  0.3259E-03 -0.3882E+03
   -2.681256   11.75877  0.9703E-12  0.4666E-05  0.1532E-06  0.5881E-04  0.2344E-03 -0.1105E+05
   -2.750002   11.76695  0.9703E-12  0.0000E+00  0.0000E+00  0.0000E+00  0.2552E-03  0.0000E+00
