 1 - depth, m
 2 - temperature, C
 3 - salinity, kg/kg
 4 - turbulent kinetic energy, m**2/s**2
 5 - dissipation rate, m**2/s**3
 6 - kinematic heat conductance, m**2/s
 7 - modulus of horizontal velocity, m/s
 8 - Richardson number, n/d
   -0.000000   -0.00000  0.7548E-10  0.4238E-09  0.4010E-12  0.3526E-09  0.1567E-24  0.5660E+16
   -0.068746    0.08589  0.4906E-10  0.2889E-08  0.2661E-12  0.3097E-09  0.1464E-24  0.4349E+16
   -0.137492    0.15329  0.4449E-10  0.6868E-08  0.2558E-12  0.4196E-09  0.1284E-24  0.3124E+16
   -0.206239    0.20249  0.4372E-10  0.1200E-07  0.2844E-12  0.7146E-09  0.1077E-24  0.2078E+16
   -0.274986    0.23560  0.4362E-10  0.1809E-07  0.3332E-12  0.1430E-08  0.8755E-25  0.1257E+16
   -0.343734    0.25578  0.4361E-10  0.2496E-07  0.3943E-12  0.3404E-08  0.6917E-25  0.6679E+15
   -0.412483    0.26655  0.4361E-10  0.3232E-07  0.4616E-12  0.1120E-07  0.5295E-25  0.2892E+15
   -0.481232    0.27123  0.4361E-10  0.3727E-07  0.5047E-12  0.2806E-04  0.3938E-25  0.8252E+14
   -0.549981    0.27257  0.4361E-10  0.3864E-07  0.5153E-12  0.5459E-03  0.3849E-25  0.1268E+14
   -0.618731    0.27277  0.4361E-10  0.3874E-07  0.5160E-12  0.8322E-03  0.3848E-25  0.2016E+12
   -0.687482    0.27278  0.4361E-10  0.3875E-07  0.5161E-12  0.9117E-03  0.3846E-25 -0.6954E+10
   -0.756232    0.27278  0.4361E-10  0.3875E-07  0.5161E-12  0.8997E-03  0.3845E-25 -0.5903E+10
   -0.824983    0.27278  0.4361E-10  0.3874E-07  0.5160E-12  0.7645E-03  0.3844E-25  0.1268E+13
   -0.893734    0.27280  0.4361E-10  0.3856E-07  0.5144E-12  0.4149E-03  0.3843E-25  0.1941E+14
   -0.962486    0.27311  0.4361E-10  0.3719E-07  0.5012E-12  0.1972E-06  0.3842E-25  0.9144E+14
   -1.031237    0.27459  0.4361E-10  0.3264E-07  0.4504E-12  0.1182E-07  0.3661E-25  0.2702E+15
   -1.099989    0.27898  0.4361E-10  0.2733E-07  0.3882E-12  0.3990E-08  0.3112E-25  0.5837E+15
   -1.168741    0.28846  0.4361E-10  0.2247E-07  0.3285E-12  0.1712E-08  0.2591E-25  0.1075E+16
   -1.237493    0.30599  0.4361E-10  0.1817E-07  0.2736E-12  0.8276E-09  0.2126E-25  0.1784E+16
   -1.306245    0.33527  0.4360E-10  0.1449E-07  0.2247E-12  0.4336E-09  0.1720E-25  0.2733E+16
   -1.374998    0.38061  0.4355E-10  0.1140E-07  0.1822E-12  0.2366E-09  0.1368E-25  0.4001E+16
   -1.443750    0.44809  0.4334E-10  0.8855E-08  0.1460E-12  0.1447E-09  0.1061E-25  0.5474E+16
   -1.512502    0.54269  0.4297E-10  0.6795E-08  0.1159E-12  0.1073E-09  0.7912E-26  0.7031E+16
   -1.581254    0.66835  0.4279E-10  0.5155E-08  0.9128E-13  0.1000E-09  0.5517E-26  0.8551E+16
   -1.650006    0.82831  0.4275E-10  0.3870E-08  0.7166E-13  0.1000E-09  0.3343E-26  0.9903E+16
   -1.718758    1.02494  0.4272E-10  0.2882E-08  0.5652E-13  0.1000E-09  0.1310E-26  0.1091E+17
   -1.787509    1.25865  0.4269E-10  0.2106E-08  0.4493E-13  0.1000E-09  0.8896E-28  0.1053E+17
   -1.856261    1.50611  0.4268E-10  0.1476E-08  0.3626E-13  0.1000E-09  0.5561E-29  0.9997E+16
   -1.925012    1.76765  0.4267E-10  0.9674E-09  0.3081E-13  0.1000E-09  0.3175E-30  0.9285E+16
   -1.993763    2.04310  0.4267E-10  0.5690E-09  0.2980E-13  0.1000E-09  0.1974E-31  0.8482E+16
   -2.062514    2.33582  0.4266E-10  0.3151E-09  0.3748E-13  0.1000E-09  0.1597E-32  0.7815E+16
   -2.131264    2.66331  0.4263E-10  0.2767E-09  0.7240E-13  0.1000E-09  0.1208E-33  0.6524E+16
   -2.200014    3.02043  0.4255E-10  0.7052E-09  0.2255E-12  0.2470E-09  0.8493E-35  0.4640E+16
   -2.268763    3.39627  0.4233E-10  0.2674E-08  0.8408E-12  0.1777E-08  0.4074E-36  0.2402E+16
   -2.337512    3.77761  0.4214E-10  0.1030E-07  0.3132E-11  0.5271E-07  0.1601E-37  0.3001E+15
   -2.406261    4.05934  0.4214E-10  0.1614E-07  0.4972E-11  0.2237E-04  0.4615E-39 -0.2853E+13
   -2.475009    4.06180  0.4214E-10  0.1803E-07  0.5940E-11  0.2153E-04  0.9983E-40 -0.3160E+13
   -2.543756    4.06442  0.4214E-10  0.1909E-07  0.7318E-11  0.1805E-04  0.1919E-40 -0.4116E+13
   -2.612503    4.06772  0.4214E-10  0.1915E-07  0.1025E-10  0.1153E-04  0.2699E-41 -0.7539E+13
   -2.681250    4.07344  0.4214E-10  0.1595E-07  0.2607E-10  0.2439E-05  0.1952E-42 -0.5844E+14
   -2.749995    4.10903  0.4214E-10  0.0000E+00  0.0000E+00  0.0000E+00  0.2058E-42  0.0000E+00
