 1 - depth, m
 2 - temperature, C
 3 - salinity, kg/kg
 4 - turbulent kinetic energy, m**2/s**2
 5 - dissipation rate, m**2/s**3
 6 - kinematic heat conductance, m**2/s
 7 - modulus of horizontal velocity, m/s
 8 - Richardson number, n/d
   -0.000000   -0.00000  0.2760E-11  0.1219E-13  0.7603E-17  0.1000E-09  0.0000E+00  0.6134E+16
   -0.068746    0.09318  0.1500E-11  0.1219E-13  0.7603E-17  0.1000E-09  0.0000E+00  0.5900E+16
   -0.137492    0.18510  0.1113E-11  0.1219E-13  0.7603E-17  0.1000E-09  0.0000E+00  0.5703E+16
   -0.206239    0.27627  0.1013E-11  0.1219E-13  0.7603E-17  0.1000E-09  0.0000E+00  0.5542E+16
   -0.274987    0.36721  0.9908E-12  0.1219E-13  0.7603E-17  0.1000E-09  0.0000E+00  0.5412E+16
   -0.343735    0.45841  0.9863E-12  0.1219E-13  0.7603E-17  0.1000E-09  0.0000E+00  0.5310E+16
   -0.412483    0.55039  0.9855E-12  0.1219E-13  0.7603E-17  0.1000E-09  0.0000E+00  0.5232E+16
   -0.481232    0.64365  0.9854E-12  0.1219E-13  0.7603E-17  0.1000E-09  0.0000E+00  0.5174E+16
   -0.549982    0.73865  0.9853E-12  0.1219E-13  0.7603E-17  0.1000E-09  0.0000E+00  0.5131E+16
   -0.618732    0.83585  0.9853E-12  0.1219E-13  0.7603E-17  0.1000E-09  0.0000E+00  0.5100E+16
   -0.687482    0.93570  0.9853E-12  0.1219E-13  0.7603E-17  0.1000E-09  0.0000E+00  0.5089E+16
   -0.756233    1.03888  0.9853E-12  0.1219E-13  0.7603E-17  0.1000E-09  0.0000E+00  0.5086E+16
   -0.824984    1.14594  0.9853E-12  0.1219E-13  0.7603E-17  0.1000E-09  0.0000E+00  0.5078E+16
   -0.893735    1.25722  0.9853E-12  0.1219E-13  0.7603E-17  0.1000E-09  0.0000E+00  0.5060E+16
   -0.962486    1.37304  0.9852E-12  0.1219E-13  0.7603E-17  0.1000E-09  0.0000E+00  0.5028E+16
   -1.031238    1.49368  0.9848E-12  0.5339E-13  0.8521E-17  0.1000E-09  0.0000E+00  0.4975E+16
   -1.099990    1.61938  0.9838E-12  0.1484E-12  0.1750E-16  0.1000E-09  0.0000E+00  0.4899E+16
   -1.168742    1.75033  0.9817E-12  0.3536E-12  0.3858E-16  0.1000E-09  0.0000E+00  0.4794E+16
   -1.237494    1.88667  0.9780E-12  0.8016E-12  0.8429E-16  0.1000E-09  0.0000E+00  0.4657E+16
   -1.306246    2.02851  0.9728E-12  0.1779E-11  0.1819E-15  0.1000E-09  0.0000E+00  0.4483E+16
   -1.374999    2.17589  0.9673E-12  0.3899E-11  0.3881E-15  0.1000E-09  0.0000E+00  0.4279E+16
   -1.443751    2.32912  0.9631E-12  0.8453E-11  0.8198E-15  0.1000E-09  0.0000E+00  0.4032E+16
   -1.512503    2.48821  0.9605E-12  0.1815E-10  0.1715E-14  0.1000E-09  0.0000E+00  0.3738E+16
   -1.581255    2.65299  0.9589E-12  0.3859E-10  0.3557E-14  0.1000E-09  0.0000E+00  0.3396E+16
   -1.650007    2.82323  0.9579E-12  0.8130E-10  0.7310E-14  0.1000E-09  0.0000E+00  0.3008E+16
   -1.718759    2.99878  0.9572E-12  0.1698E-09  0.1489E-13  0.1000E-09  0.0000E+00  0.2579E+16
   -1.787511    3.17973  0.9569E-12  0.3594E-09  0.3076E-13  0.1000E-09  0.0000E+00  0.2141E+16
   -1.856262    3.36966  0.9565E-12  0.7681E-09  0.6414E-13  0.2001E-09  0.0000E+00  0.1631E+16
   -1.925013    3.56941  0.9558E-12  0.1641E-08  0.1338E-12  0.6607E-09  0.0000E+00  0.1030E+16
   -1.993764    3.77891  0.9543E-12  0.3492E-08  0.2781E-12  0.4192E-08  0.0000E+00  0.3375E+15
   -2.062515    3.99131  0.9535E-12  0.4259E-08  0.3416E-12  0.1681E-04  0.0000E+00 -0.1678E+12
   -2.131265    3.99312  0.9535E-12  0.4634E-08  0.3813E-12  0.1953E-04  0.0000E+00 -0.1858E+12
   -2.200015    3.99468  0.9535E-12  0.4960E-08  0.4251E-12  0.2105E-04  0.0000E+00 -0.2066E+12
   -2.268765    3.99613  0.9535E-12  0.5237E-08  0.4750E-12  0.2153E-04  0.0000E+00 -0.2341E+12
   -2.337514    3.99755  0.9535E-12  0.5471E-08  0.5362E-12  0.2093E-04  0.0000E+00 -0.2740E+12
   -2.406262    3.99901  0.9535E-12  0.5653E-08  0.6163E-12  0.1921E-04  0.0000E+00 -0.3372E+12
   -2.475011    4.00061  0.9535E-12  0.5766E-08  0.7329E-12  0.1626E-04  0.0000E+00 -0.4512E+12
   -2.543758    4.00249  0.9535E-12  0.5766E-08  0.9325E-12  0.1197E-04  0.0000E+00 -0.7060E+12
   -2.612505    4.00507  0.9535E-12  0.5521E-08  0.1402E-11  0.6415E-05  0.0000E+00 -0.1609E+13
   -2.681251    4.00992  0.9535E-12  0.4261E-08  0.3901E-11  0.1055E-05  0.0000E+00 -0.1668E+14
   -2.749997    4.03816  0.9535E-12  0.0000E+00  0.0000E+00  0.0000E+00  0.0000E+00  0.0000E+00
