 1 - depth, m
 2 - temperature, C
 3 - salinity, kg/kg
 4 - turbulent kinetic energy, m**2/s**2
 5 - dissipation rate, m**2/s**3
 6 - kinematic heat conductance, m**2/s
 7 - modulus of horizontal velocity, m/s
 8 - Richardson number, n/d
   -0.000000   -0.00000  0.6757E-10  0.3632E-13  0.8912E-17  0.1000E-09  0.1297E-45  0.4495E+16
   -0.068746    0.06805  0.3925E-10  0.5546E-13  0.8671E-17  0.1000E-09  0.1022E-45  0.3867E+16
   -0.137492    0.12763  0.3451E-10  0.9016E-13  0.9102E-17  0.1000E-09  0.8433E-46  0.3238E+16
   -0.206239    0.17827  0.3382E-10  0.1380E-12  0.9967E-17  0.1000E-09  0.7137E-46  0.2632E+16
   -0.274986    0.21996  0.3374E-10  0.1964E-12  0.1116E-16  0.1000E-09  0.6071E-46  0.2072E+16
   -0.343734    0.25314  0.3373E-10  0.2629E-12  0.1260E-16  0.1000E-09  0.5130E-46  0.1578E+16
   -0.412483    0.27862  0.3373E-10  0.3347E-12  0.1421E-16  0.1000E-09  0.4291E-46  0.1165E+16
   -0.481232    0.29755  0.3373E-10  0.4089E-12  0.1590E-16  0.1000E-09  0.3552E-46  0.8389E+15
   -0.549981    0.31125  0.3373E-10  0.4827E-12  0.1759E-16  0.1000E-09  0.2913E-46  0.6031E+15
   -0.618731    0.32113  0.3373E-10  0.5531E-12  0.1923E-16  0.1000E-09  0.2371E-46  0.4566E+15
   -0.687481    0.32863  0.3373E-10  0.6174E-12  0.2072E-16  0.1000E-09  0.1917E-46  0.4080E+15
   -0.756232    0.33535  0.3373E-10  0.6730E-12  0.2201E-16  0.1000E-09  0.1539E-46  0.4536E+15
   -0.824983    0.34283  0.3373E-10  0.7175E-12  0.2305E-16  0.1000E-09  0.1229E-46  0.5910E+15
   -0.893734    0.35261  0.3373E-10  0.7489E-12  0.2379E-16  0.1000E-09  0.9746E-47  0.8262E+15
   -0.962486    0.36632  0.3373E-10  0.7657E-12  0.2419E-16  0.1000E-09  0.7683E-47  0.1167E+16
   -1.031237    0.38577  0.3373E-10  0.7667E-12  0.2424E-16  0.1000E-09  0.6018E-47  0.1619E+16
   -1.099989    0.41295  0.3373E-10  0.7517E-12  0.2393E-16  0.1000E-09  0.4682E-47  0.2187E+16
   -1.168741    0.45002  0.3372E-10  0.7206E-12  0.2326E-16  0.1000E-09  0.3617E-47  0.2869E+16
   -1.237493    0.49927  0.3369E-10  0.6743E-12  0.2228E-16  0.1000E-09  0.2772E-47  0.3651E+16
   -1.306245    0.56305  0.3356E-10  0.6142E-12  0.2100E-16  0.1000E-09  0.2104E-47  0.4512E+16
   -1.374997    0.64365  0.3323E-10  0.5425E-12  0.1951E-16  0.1000E-09  0.1576E-47  0.5478E+16
   -1.443749    0.74434  0.3296E-10  0.4620E-12  0.1787E-16  0.1000E-09  0.1159E-47  0.6454E+16
   -1.512501    0.86737  0.3288E-10  0.3762E-12  0.1621E-16  0.1000E-09  0.8255E-48  0.7360E+16
   -1.581253    1.01421  0.3283E-10  0.2899E-12  0.1466E-16  0.1000E-09  0.5546E-48  0.8132E+16
   -1.650005    1.18586  0.3278E-10  0.2086E-12  0.1346E-16  0.1000E-09  0.3272E-48  0.8706E+16
   -1.718757    1.38275  0.3275E-10  0.1400E-12  0.1298E-16  0.1000E-09  0.1263E-48  0.8990E+16
   -1.787509    1.60386  0.3273E-10  0.1066E-12  0.1776E-16  0.1000E-09  0.8556E-50  0.8397E+16
   -1.856260    1.83167  0.3272E-10  0.1650E-12  0.4505E-16  0.1000E-09  0.5337E-51  0.7667E+16
   -1.925011    2.06403  0.3272E-10  0.5187E-12  0.1522E-15  0.1000E-09  0.3041E-52  0.6818E+16
   -1.993762    2.29824  0.3272E-10  0.1930E-11  0.5513E-15  0.1000E-09  0.1887E-53  0.5978E+16
   -2.062513    2.53536  0.3272E-10  0.7046E-11  0.1943E-14  0.1000E-09  0.1522E-54  0.5384E+16
   -2.131263    2.78954  0.3270E-10  0.2524E-10  0.6721E-14  0.1000E-09  0.1148E-55  0.4597E+16
   -2.200013    3.06150  0.3267E-10  0.8887E-10  0.2287E-13  0.1000E-09  0.8054E-57  0.3576E+16
   -2.268763    3.35030  0.3263E-10  0.3109E-09  0.7740E-13  0.1694E-09  0.3856E-58  0.2327E+16
   -2.337512    3.65490  0.3257E-10  0.1093E-08  0.2634E-12  0.1555E-08  0.1511E-59  0.8607E+15
   -2.406260    3.97005  0.3257E-10  0.2993E-08  0.7199E-12  0.1754E-05  0.4996E-61  0.1008E+13
   -2.475008    4.00274  0.3257E-10  0.4982E-08  0.1394E-11  0.6521E-05  0.1965E-62 -0.2167E+13
   -2.543756    4.00997  0.3257E-10  0.6205E-08  0.2135E-11  0.6392E-05  0.1424E-63 -0.3264E+13
   -2.612502    4.01772  0.3257E-10  0.7099E-08  0.3624E-11  0.4546E-05  0.8139E-65 -0.6940E+13
   -2.681249    4.02971  0.3257E-10  0.7502E-08  0.9882E-11  0.1652E-05  0.2559E-66 -0.4279E+14
   -2.749994    4.07212  0.3257E-10  0.0000E+00  0.0000E+00  0.0000E+00  0.2778E-66  0.0000E+00
