 1 - depth, m
 2 - temperature, C
 3 - salinity, kg/kg
 4 - turbulent kinetic energy, m**2/s**2
 5 - dissipation rate, m**2/s**3
 6 - kinematic heat conductance, m**2/s
 7 - modulus of horizontal velocity, m/s
 8 - Richardson number, n/d
   -0.000000    8.42331  0.8520E-11  0.3064E-04  0.3195E-05  0.3425E-04  0.4776E-01 -0.5446E-02
   -0.068746    8.46244  0.8521E-11  0.2376E-04  0.7884E-06  0.8618E-04  0.2772E-01 -0.1920E-01
   -0.137492    8.47436  0.8521E-11  0.2192E-04  0.3797E-06  0.1402E-03  0.2229E-01 -0.3121E-01
   -0.206239    8.48167  0.8521E-11  0.2091E-04  0.2375E-06  0.1985E-03  0.1897E-01 -0.4428E-01
   -0.274987    8.48670  0.8521E-11  0.2018E-04  0.1695E-06  0.2604E-03  0.1667E-01 -0.5847E-01
   -0.343735    8.49042  0.8521E-11  0.1961E-04  0.1303E-06  0.3248E-03  0.1495E-01 -0.7354E-01
   -0.412484    8.49331  0.8521E-11  0.1913E-04  0.1051E-06  0.3912E-03  0.1361E-01 -0.8933E-01
   -0.481233    8.49565  0.8521E-11  0.1872E-04  0.8774E-07  0.4596E-03  0.1251E-01 -0.1052E+00
   -0.549983    8.49758  0.8521E-11  0.1837E-04  0.7514E-07  0.5330E-03  0.1159E-01 -0.1114E+00
   -0.618733    8.49922  0.8521E-11  0.1808E-04  0.6570E-07  0.6431E-03  0.1080E-01  0.8463E-01
   -0.687483    8.50056  0.8521E-11  0.1783E-04  0.5852E-07  0.9383E-03  0.1012E-01  0.6362E+01
   -0.756234    8.50157  0.8521E-11  0.1764E-04  0.5296E-07  0.1180E-02  0.9531E-02  0.1267E+03
   -0.824985    8.50233  0.8521E-11  0.1748E-04  0.4857E-07  0.1639E-02  0.8993E-02  0.1811E+03
   -0.893737    8.50283  0.8521E-11  0.1736E-04  0.4500E-07  0.1781E-02  0.8511E-02  0.1810E+02
   -0.962488    8.50327  0.8521E-11  0.1725E-04  0.4193E-07  0.1827E-02  0.8036E-02  0.2277E+02
   -1.031240    8.50369  0.8521E-11  0.1714E-04  0.3930E-07  0.1874E-02  0.7575E-02  0.2707E+02
   -1.099992    8.50409  0.8521E-11  0.1704E-04  0.3702E-07  0.1917E-02  0.7129E-02  0.3240E+02
   -1.168744    8.50448  0.8521E-11  0.1694E-04  0.3503E-07  0.1956E-02  0.6695E-02  0.3953E+02
   -1.237497    8.50485  0.8521E-11  0.1682E-04  0.3329E-07  0.1990E-02  0.6270E-02  0.4963E+02
   -1.306249    8.50521  0.8521E-11  0.1669E-04  0.3175E-07  0.2019E-02  0.5854E-02  0.6531E+02
   -1.375001    8.50556  0.8521E-11  0.1655E-04  0.3037E-07  0.2042E-02  0.5444E-02  0.9279E+02
   -1.443754    8.50590  0.8521E-11  0.1638E-04  0.2914E-07  0.2058E-02  0.5040E-02  0.1519E+03
   -1.512506    8.50624  0.8521E-11  0.1619E-04  0.2802E-07  0.2069E-02  0.4639E-02  0.3446E+03
   -1.581258    8.50656  0.8521E-11  0.1597E-04  0.2700E-07  0.2067E-02  0.4241E-02  0.1512E+05
   -1.650010    8.50688  0.8521E-11  0.1571E-04  0.2605E-07  0.2066E-02  0.3843E-02  0.5140E+05
   -1.718762    8.50720  0.8521E-11  0.1541E-04  0.2516E-07  0.2035E-02  0.3445E-02  0.1767E+05
   -1.787514    8.50751  0.8521E-11  0.1505E-04  0.2426E-07  0.2049E-02  0.3043E-02  0.3852E+02
   -1.856266    8.50782  0.8521E-11  0.1465E-04  0.2341E-07  0.2037E-02  0.2688E-02  0.8599E+01
   -1.925017    8.50813  0.8521E-11  0.1421E-04  0.2264E-07  0.2023E-02  0.2370E-02  0.3779E+01
   -1.993768    8.50845  0.8521E-11  0.1374E-04  0.2198E-07  0.2005E-02  0.2091E-02  0.2327E+01
   -2.062519    8.50876  0.8521E-11  0.1327E-04  0.2153E-07  0.1978E-02  0.1841E-02  0.1798E+01
   -2.131269    8.50907  0.8521E-11  0.1281E-04  0.2129E-07  0.1944E-02  0.1610E-02  0.1422E+01
   -2.200020    8.50938  0.8521E-11  0.1236E-04  0.2133E-07  0.1915E-02  0.1396E-02  0.1138E+01
   -2.268769    8.50970  0.8521E-11  0.1193E-04  0.2169E-07  0.1911E-02  0.1199E-02  0.8509E+00
   -2.337518    8.51002  0.8521E-11  0.1152E-04  0.2247E-07  0.1862E-02  0.1023E-02  0.6232E+00
   -2.406267    8.51034  0.8521E-11  0.1113E-04  0.2378E-07  0.1642E-02  0.8709E-03  0.4390E+00
   -2.475015    8.51070  0.8521E-11  0.1078E-04  0.2574E-07  0.1428E-02  0.7447E-03  0.3041E+00
   -2.543763    8.51111  0.8521E-11  0.1045E-04  0.2883E-07  0.1283E-02  0.6466E-03  0.4098E+00
   -2.612510    8.51156  0.8521E-11  0.9907E-05  0.3710E-07  0.5594E-03  0.5651E-03  0.1788E+04
   -2.681257    8.51261  0.8521E-11  0.6112E-05  0.1420E-06  0.3339E-04  0.4427E-03 -0.2739E+03
   -2.750002    8.52960  0.8521E-11  0.0000E+00  0.0000E+00  0.0000E+00  0.4421E-03  0.0000E+00
