 1 - depth, m
 2 - temperature, C
 3 - salinity, kg/kg
 4 - turbulent kinetic energy, m**2/s**2
 5 - dissipation rate, m**2/s**3
 6 - kinematic heat conductance, m**2/s
 7 - modulus of horizontal velocity, m/s
 8 - Richardson number, n/d
   -0.000000   -0.00000  0.2390E-10  0.1219E-13  0.7603E-17  0.1000E-09  0.0000E+00  0.7154E+16
   -0.068746    0.10891  0.1415E-10  0.1219E-13  0.7603E-17  0.1000E-09  0.0000E+00  0.6874E+16
   -0.137492    0.21672  0.1031E-10  0.1219E-13  0.7603E-17  0.1000E-09  0.0000E+00  0.6626E+16
   -0.206239    0.32385  0.9092E-11  0.1219E-13  0.7603E-17  0.1000E-09  0.0000E+00  0.6408E+16
   -0.274986    0.43071  0.8772E-11  0.1219E-13  0.7603E-17  0.1000E-09  0.0000E+00  0.6214E+16
   -0.343735    0.53769  0.8698E-11  0.1219E-13  0.7603E-17  0.1000E-09  0.0000E+00  0.6042E+16
   -0.412483    0.64519  0.8683E-11  0.1219E-13  0.7603E-17  0.1000E-09  0.0000E+00  0.5887E+16
   -0.481232    0.75358  0.8680E-11  0.1219E-13  0.7603E-17  0.1000E-09  0.0000E+00  0.5746E+16
   -0.549982    0.86320  0.8679E-11  0.1219E-13  0.7603E-17  0.1000E-09  0.0000E+00  0.5615E+16
   -0.618732    0.97438  0.8679E-11  0.1219E-13  0.7603E-17  0.1000E-09  0.0000E+00  0.5491E+16
   -0.687482    1.08744  0.8679E-11  0.1219E-13  0.7603E-17  0.1000E-09  0.0000E+00  0.5380E+16
   -0.756233    1.20290  0.8679E-11  0.1219E-13  0.7603E-17  0.1000E-09  0.0000E+00  0.5275E+16
   -0.824984    1.32117  0.8679E-11  0.1219E-13  0.7603E-17  0.1000E-09  0.0000E+00  0.5162E+16
   -0.893735    1.44248  0.8679E-11  0.1219E-13  0.7603E-17  0.1000E-09  0.0000E+00  0.5038E+16
   -0.962486    1.56700  0.8677E-11  0.1666E-13  0.7603E-17  0.1000E-09  0.0000E+00  0.4901E+16
   -1.031238    1.69487  0.8674E-11  0.6923E-13  0.1062E-16  0.1000E-09  0.0000E+00  0.4746E+16
   -1.099990    1.82621  0.8665E-11  0.1891E-12  0.2331E-16  0.1000E-09  0.0000E+00  0.4572E+16
   -1.168742    1.96106  0.8649E-11  0.4564E-12  0.5296E-16  0.1000E-09  0.0000E+00  0.4375E+16
   -1.237494    2.09944  0.8621E-11  0.1059E-11  0.1189E-15  0.1000E-09  0.0000E+00  0.4155E+16
   -1.306246    2.24133  0.8582E-11  0.2414E-11  0.2637E-15  0.1000E-09  0.0000E+00  0.3910E+16
   -1.374998    2.38663  0.8540E-11  0.5437E-11  0.5786E-15  0.1000E-09  0.0000E+00  0.3643E+16
   -1.443751    2.53542  0.8504E-11  0.1212E-10  0.1257E-14  0.1000E-09  0.0000E+00  0.3350E+16
   -1.512503    2.68759  0.8479E-11  0.2677E-10  0.2707E-14  0.1000E-09  0.0000E+00  0.3029E+16
   -1.581255    2.84290  0.8464E-11  0.5854E-10  0.5773E-14  0.1000E-09  0.0000E+00  0.2682E+16
   -1.650007    3.00106  0.8455E-11  0.1269E-09  0.1220E-13  0.1000E-09  0.0000E+00  0.2311E+16
   -1.718759    3.16173  0.8449E-11  0.2724E-09  0.2557E-13  0.1000E-09  0.0000E+00  0.1919E+16
   -1.787510    3.32464  0.8445E-11  0.5934E-09  0.5434E-13  0.1807E-09  0.0000E+00  0.1530E+16
   -1.856262    3.49214  0.8439E-11  0.1304E-08  0.1165E-12  0.5356E-09  0.0000E+00  0.1107E+16
   -1.925013    3.66418  0.8429E-11  0.2861E-08  0.2497E-12  0.1963E-08  0.0000E+00  0.6472E+15
   -1.993764    3.83983  0.8419E-11  0.6213E-08  0.5302E-12  0.1625E-07  0.0000E+00  0.1659E+15
   -2.062515    4.00386  0.8417E-11  0.7068E-08  0.6068E-12  0.3320E-04  0.0000E+00 -0.2171E+12
   -2.131265    4.00463  0.8417E-11  0.7430E-08  0.6477E-12  0.3385E-04  0.0000E+00 -0.2225E+12
   -2.200015    4.00539  0.8417E-11  0.7718E-08  0.6915E-12  0.3366E-04  0.0000E+00 -0.2333E+12
   -2.268765    4.00616  0.8417E-11  0.7939E-08  0.7412E-12  0.3260E-04  0.0000E+00 -0.2513E+12
   -2.337514    4.00695  0.8417E-11  0.8097E-08  0.8031E-12  0.3052E-04  0.0000E+00 -0.2804E+12
   -2.406262    4.00780  0.8417E-11  0.8183E-08  0.8865E-12  0.2728E-04  0.0000E+00 -0.3289E+12
   -2.475010    4.00875  0.8417E-11  0.8178E-08  0.1012E-11  0.2266E-04  0.0000E+00 -0.4183E+12
   -2.543758    4.00991  0.8417E-11  0.8027E-08  0.1235E-11  0.1648E-04  0.0000E+00 -0.6173E+12
   -2.612505    4.01153  0.8417E-11  0.7558E-08  0.1777E-11  0.8758E-05  0.0000E+00 -0.1302E+13
   -2.681251    4.01463  0.8417E-11  0.5543E-08  0.4998E-11  0.1229E-05  0.0000E+00 -0.1378E+14
   -2.749997    4.03692  0.8417E-11  0.0000E+00  0.0000E+00  0.0000E+00  0.0000E+00  0.0000E+00
