 1 - depth, m
 2 - temperature, C
 3 - salinity, kg/kg
 4 - turbulent kinetic energy, m**2/s**2
 5 - dissipation rate, m**2/s**3
 6 - kinematic heat conductance, m**2/s
 7 - modulus of horizontal velocity, m/s
 8 - Richardson number, n/d
   -0.000000   14.63288  0.5703E-12  0.1467E-04  0.6333E-06  0.3497E-04  0.2620E-01 -0.3117E-01
   -0.068746   14.65918  0.5703E-12  0.1401E-04  0.2273E-06  0.9596E-04  0.1709E-01 -0.8239E-01
   -0.137492   14.66817  0.5704E-12  0.1359E-04  0.1317E-06  0.1689E-03  0.1382E-01 -0.1395E+00
   -0.206239   14.67302  0.5704E-12  0.1332E-04  0.9101E-07  0.2549E-03  0.1199E-01 -0.2001E+00
   -0.274987   14.67608  0.5704E-12  0.1317E-04  0.6930E-07  0.3838E-03  0.1078E-01 -0.6642E-01
   -0.343735   14.67805  0.5704E-12  0.1311E-04  0.5693E-07  0.7969E-03  0.9914E-02  0.1829E+03
   -0.412484   14.67898  0.5704E-12  0.1314E-04  0.4935E-07  0.1151E-02  0.9325E-02  0.6558E+01
   -0.481233   14.67959  0.5704E-12  0.1325E-04  0.4378E-07  0.1193E-02  0.8819E-02  0.7273E+01
   -0.549983   14.68016  0.5704E-12  0.1339E-04  0.3935E-07  0.1277E-02  0.8328E-02  0.7882E+01
   -0.618733   14.68067  0.5704E-12  0.1354E-04  0.3583E-07  0.1343E-02  0.7873E-02  0.8187E+01
   -0.687483   14.68116  0.5704E-12  0.1370E-04  0.3297E-07  0.1412E-02  0.7443E-02  0.8514E+01
   -0.756234   14.68161  0.5704E-12  0.1386E-04  0.3062E-07  0.1478E-02  0.7033E-02  0.8804E+01
   -0.824985   14.68203  0.5704E-12  0.1401E-04  0.2865E-07  0.1543E-02  0.6641E-02  0.9093E+01
   -0.893736   14.68243  0.5704E-12  0.1414E-04  0.2698E-07  0.1607E-02  0.6263E-02  0.9379E+01
   -0.962488   14.68281  0.5704E-12  0.1426E-04  0.2556E-07  0.1669E-02  0.5896E-02  0.9668E+01
   -1.031240   14.68317  0.5704E-12  0.1436E-04  0.2435E-07  0.1729E-02  0.5539E-02  0.9960E+01
   -1.099992   14.68352  0.5704E-12  0.1443E-04  0.2330E-07  0.1785E-02  0.5189E-02  0.1026E+02
   -1.168744   14.68385  0.5704E-12  0.1448E-04  0.2239E-07  0.1838E-02  0.4845E-02  0.1057E+02
   -1.237496   14.68418  0.5704E-12  0.1449E-04  0.2161E-07  0.1884E-02  0.4506E-02  0.1091E+02
   -1.306248   14.68450  0.5704E-12  0.1447E-04  0.2093E-07  0.1922E-02  0.4170E-02  0.1128E+02
   -1.375001   14.68480  0.5704E-12  0.1441E-04  0.2035E-07  0.1949E-02  0.3838E-02  0.1170E+02
   -1.443753   14.68511  0.5704E-12  0.1431E-04  0.1985E-07  0.1963E-02  0.3507E-02  0.1221E+02
   -1.512505   14.68541  0.5704E-12  0.1416E-04  0.1942E-07  0.1961E-02  0.3177E-02  0.1285E+02
   -1.581257   14.68572  0.5704E-12  0.1396E-04  0.1907E-07  0.1940E-02  0.2848E-02  0.1369E+02
   -1.650010   14.68603  0.5704E-12  0.1371E-04  0.1877E-07  0.1903E-02  0.2518E-02  0.1482E+02
   -1.718762   14.68634  0.5704E-12  0.1340E-04  0.1854E-07  0.1841E-02  0.2188E-02  0.1530E+02
   -1.787513   14.68667  0.5704E-12  0.1302E-04  0.1835E-07  0.1798E-02  0.1856E-02  0.6235E+01
   -1.856265   14.68701  0.5704E-12  0.1259E-04  0.1827E-07  0.1775E-02  0.1575E-02  0.3492E+01
   -1.925016   14.68735  0.5704E-12  0.1214E-04  0.1834E-07  0.1782E-02  0.1341E-02  0.2262E+01
   -1.993767   14.68769  0.5704E-12  0.1168E-04  0.1861E-07  0.1823E-02  0.1149E-02  0.1678E+01
   -2.062518   14.68802  0.5704E-12  0.1124E-04  0.1908E-07  0.1862E-02  0.9923E-03  0.1398E+01
   -2.131269   14.68834  0.5704E-12  0.1082E-04  0.1978E-07  0.1783E-02  0.8576E-03  0.1168E+01
   -2.200019   14.68868  0.5704E-12  0.1043E-04  0.2073E-07  0.1599E-02  0.7414E-03  0.9714E+00
   -2.268768   14.68907  0.5704E-12  0.1008E-04  0.2197E-07  0.1417E-02  0.6421E-03  0.7904E+00
   -2.337517   14.68950  0.5704E-12  0.9751E-05  0.2368E-07  0.1251E-02  0.5608E-03  0.7303E+00
   -2.406266   14.69000  0.5704E-12  0.9397E-05  0.2628E-07  0.1153E-02  0.4939E-03  0.1303E+01
   -2.475014   14.69054  0.5704E-12  0.8922E-05  0.3192E-07  0.8925E-03  0.4340E-03  0.5992E+02
   -2.543762   14.69147  0.5704E-12  0.8152E-05  0.4440E-07  0.7199E-03  0.3582E-03  0.5374E+02
   -2.612509   14.69254  0.5704E-12  0.6710E-05  0.8112E-07  0.3599E-03  0.2852E-03  0.5716E+03
   -2.681255   14.69691  0.5704E-12  0.4068E-05  0.2532E-06  0.1137E-03  0.1691E-03 -0.7462E+04
   -2.750001   14.70417  0.5704E-12  0.0000E+00  0.0000E+00  0.0000E+00  0.2324E-03  0.0000E+00
