 1 - depth, m
 2 - temperature, C
 3 - salinity, kg/kg
 4 - turbulent kinetic energy, m**2/s**2
 5 - dissipation rate, m**2/s**3
 6 - kinematic heat conductance, m**2/s
 7 - modulus of horizontal velocity, m/s
 8 - Richardson number, n/d
   -0.000000   -0.00000  0.1019E-10  0.1219E-13  0.7603E-17  0.1000E-09  0.3541E-67  0.3861E+16
   -0.068746    0.05838  0.6019E-11  0.1219E-13  0.7603E-17  0.1000E-09  0.3230E-67  0.3485E+16
   -0.137492    0.11188  0.5199E-11  0.1219E-13  0.7603E-17  0.1000E-09  0.2908E-67  0.3091E+16
   -0.206239    0.15999  0.5060E-11  0.1219E-13  0.7603E-17  0.1000E-09  0.2543E-67  0.2694E+16
   -0.274987    0.20245  0.5040E-11  0.1219E-13  0.7603E-17  0.1000E-09  0.2169E-67  0.2312E+16
   -0.343735    0.23932  0.5038E-11  0.1219E-13  0.7603E-17  0.1000E-09  0.1819E-67  0.1963E+16
   -0.412483    0.27092  0.5038E-11  0.1219E-13  0.7603E-17  0.1000E-09  0.1508E-67  0.1661E+16
   -0.481233    0.29789  0.5038E-11  0.1219E-13  0.7603E-17  0.1000E-09  0.1241E-67  0.1419E+16
   -0.549982    0.32109  0.5038E-11  0.1219E-13  0.7603E-17  0.1000E-09  0.1015E-67  0.1247E+16
   -0.618732    0.34162  0.5038E-11  0.1219E-13  0.7603E-17  0.1000E-09  0.8250E-68  0.1155E+16
   -0.687482    0.36074  0.5038E-11  0.1219E-13  0.7603E-17  0.1000E-09  0.6668E-68  0.1162E+16
   -0.756233    0.38007  0.5038E-11  0.1219E-13  0.7603E-17  0.1000E-09  0.5355E-68  0.1269E+16
   -0.824984    0.40133  0.5038E-11  0.1219E-13  0.7603E-17  0.1000E-09  0.4273E-68  0.1476E+16
   -0.893735    0.42622  0.5038E-11  0.1219E-13  0.7603E-17  0.1000E-09  0.3387E-68  0.1786E+16
   -0.962487    0.45658  0.5038E-11  0.1219E-13  0.7603E-17  0.1000E-09  0.2667E-68  0.2201E+16
   -1.031239    0.49438  0.5038E-11  0.1219E-13  0.7603E-17  0.1000E-09  0.2086E-68  0.2718E+16
   -1.099991    0.54167  0.5038E-11  0.1219E-13  0.7603E-17  0.1000E-09  0.1620E-68  0.3330E+16
   -1.168743    0.60054  0.5037E-11  0.1219E-13  0.7603E-17  0.1000E-09  0.1249E-68  0.4022E+16
   -1.237495    0.67314  0.5032E-11  0.1219E-13  0.7603E-17  0.1000E-09  0.9554E-69  0.4774E+16
   -1.306247    0.76155  0.5014E-11  0.1219E-13  0.7603E-17  0.1000E-09  0.7234E-69  0.5554E+16
   -1.374999    0.86773  0.4973E-11  0.1219E-13  0.7603E-17  0.1000E-09  0.5406E-69  0.6378E+16
   -1.443752    0.99457  0.4932E-11  0.4037E-13  0.1083E-16  0.1000E-09  0.3964E-69  0.7155E+16
   -1.512504    1.14393  0.4917E-11  0.1371E-12  0.3129E-16  0.1000E-09  0.2818E-69  0.7809E+16
   -1.581256    1.31693  0.4910E-11  0.4319E-12  0.9401E-16  0.1000E-09  0.1889E-69  0.8284E+16
   -1.650008    1.51429  0.4903E-11  0.1322E-11  0.2780E-15  0.1000E-09  0.1113E-69  0.8526E+16
   -1.718760    1.73619  0.4899E-11  0.3974E-11  0.8084E-15  0.1000E-09  0.4295E-70  0.8472E+16
   -1.787512    1.98186  0.4897E-11  0.1209E-10  0.2381E-14  0.1000E-09  0.2910E-71  0.7839E+16
   -1.856263    2.24082  0.4896E-11  0.3680E-10  0.7016E-14  0.1000E-09  0.1816E-72  0.7018E+16
   -1.925014    2.51198  0.4895E-11  0.1110E-09  0.2051E-13  0.1000E-09  0.1035E-73  0.6014E+16
   -1.993765    2.79380  0.4895E-11  0.3321E-09  0.5947E-13  0.1000E-09  0.6423E-75  0.4871E+16
   -2.062516    3.08600  0.4894E-11  0.9611E-09  0.1670E-12  0.2350E-09  0.5181E-76  0.3624E+16
   -2.131266    3.39181  0.4889E-11  0.2739E-08  0.4617E-12  0.1083E-08  0.3912E-77  0.2177E+16
   -2.200016    3.70795  0.4878E-11  0.7669E-08  0.1256E-11  0.1069E-07  0.2745E-78  0.6036E+15
   -2.268766    4.01308  0.4871E-11  0.9945E-08  0.1644E-11  0.2478E-04  0.1025E-79 -0.8107E+12
   -2.337515    4.01497  0.4871E-11  0.1084E-07  0.1857E-11  0.2532E-04  0.2650E-80 -0.8599E+12
   -2.406264    4.01683  0.4871E-11  0.1151E-07  0.2111E-11  0.2431E-04  0.6421E-81 -0.9713E+12
   -2.475012    4.01881  0.4871E-11  0.1197E-07  0.2459E-11  0.2155E-04  0.1374E-81 -0.1197E+13
   -2.543759    4.02109  0.4871E-11  0.1215E-07  0.3035E-11  0.1681E-04  0.2443E-82 -0.1711E+13
   -2.612506    4.02412  0.4871E-11  0.1184E-07  0.4352E-11  0.9857E-05  0.2965E-83 -0.3455E+13
   -2.681253    4.02958  0.4871E-11  0.9601E-08  0.1155E-10  0.1895E-05  0.1700E-84 -0.3018E+14
   -2.749999    4.06201  0.4871E-11  0.0000E+00  0.0000E+00  0.0000E+00  0.1799E-84  0.0000E+00
