 1 - depth, m
 2 - temperature, C
 3 - salinity, kg/kg
 4 - turbulent kinetic energy, m**2/s**2
 5 - dissipation rate, m**2/s**3
 6 - kinematic heat conductance, m**2/s
 7 - modulus of horizontal velocity, m/s
 8 - Richardson number, n/d
   -0.000000   -0.00000  0.1678E-09  0.1219E-13  0.7603E-17  0.1000E-09  0.0000E+00  0.3399E+16
   -0.068746    0.05135  0.9315E-10  0.1219E-13  0.7603E-17  0.1000E-09  0.0000E+00  0.3227E+16
   -0.137492    0.10077  0.7729E-10  0.1219E-13  0.7603E-17  0.1000E-09  0.0000E+00  0.3080E+16
   -0.206239    0.14858  0.7407E-10  0.1219E-13  0.7603E-17  0.1000E-09  0.0000E+00  0.2960E+16
   -0.274986    0.19511  0.7349E-10  0.1219E-13  0.7603E-17  0.1000E-09  0.0000E+00  0.2866E+16
   -0.343735    0.24077  0.7340E-10  0.1219E-13  0.7603E-17  0.1000E-09  0.0000E+00  0.2803E+16
   -0.412483    0.28599  0.7339E-10  0.1219E-13  0.7603E-17  0.1000E-09  0.0000E+00  0.2769E+16
   -0.481232    0.33126  0.7339E-10  0.1219E-13  0.7603E-17  0.1000E-09  0.0000E+00  0.2768E+16
   -0.549982    0.37710  0.7339E-10  0.1219E-13  0.7603E-17  0.1000E-09  0.0000E+00  0.2799E+16
   -0.618732    0.42409  0.7339E-10  0.1219E-13  0.7603E-17  0.1000E-09  0.0000E+00  0.2862E+16
   -0.687482    0.47284  0.7339E-10  0.1219E-13  0.7603E-17  0.1000E-09  0.0000E+00  0.2974E+16
   -0.756233    0.52427  0.7339E-10  0.1219E-13  0.7603E-17  0.1000E-09  0.0000E+00  0.3126E+16
   -0.824984    0.57922  0.7339E-10  0.1219E-13  0.7603E-17  0.1000E-09  0.0000E+00  0.3305E+16
   -0.893735    0.63834  0.7339E-10  0.1219E-13  0.7603E-17  0.1000E-09  0.0000E+00  0.3507E+16
   -0.962486    0.70232  0.7339E-10  0.1219E-13  0.7603E-17  0.1000E-09  0.0000E+00  0.3727E+16
   -1.031238    0.77178  0.7339E-10  0.1219E-13  0.7603E-17  0.1000E-09  0.0000E+00  0.3959E+16
   -1.099990    0.84734  0.7339E-10  0.1219E-13  0.7603E-17  0.1000E-09  0.0000E+00  0.4195E+16
   -1.168742    0.92954  0.7338E-10  0.1219E-13  0.7603E-17  0.1000E-09  0.0000E+00  0.4426E+16
   -1.237494    1.01887  0.7335E-10  0.1219E-13  0.7603E-17  0.1000E-09  0.0000E+00  0.4642E+16
   -1.306246    1.11570  0.7326E-10  0.1219E-13  0.7603E-17  0.1000E-09  0.0000E+00  0.4834E+16
   -1.374998    1.22031  0.7305E-10  0.1219E-13  0.7603E-17  0.1000E-09  0.0000E+00  0.5014E+16
   -1.443750    1.33337  0.7268E-10  0.1219E-13  0.7603E-17  0.1000E-09  0.0000E+00  0.5153E+16
   -1.512503    1.45507  0.7227E-10  0.1219E-13  0.7603E-17  0.1000E-09  0.0000E+00  0.5234E+16
   -1.581255    1.58526  0.7201E-10  0.1219E-13  0.7603E-17  0.1000E-09  0.0000E+00  0.5248E+16
   -1.650007    1.72363  0.7190E-10  0.1219E-13  0.7603E-17  0.1000E-09  0.0000E+00  0.5190E+16
   -1.718759    1.86971  0.7184E-10  0.1219E-13  0.7603E-17  0.1000E-09  0.0000E+00  0.5053E+16
   -1.787510    2.02271  0.7181E-10  0.1219E-13  0.7603E-17  0.1000E-09  0.0000E+00  0.4748E+16
   -1.856262    2.17865  0.7179E-10  0.1219E-13  0.7603E-17  0.1000E-09  0.0000E+00  0.4398E+16
   -1.925013    2.33661  0.7178E-10  0.1219E-13  0.7603E-17  0.1000E-09  0.0000E+00  0.4009E+16
   -1.993764    2.49558  0.7177E-10  0.1219E-13  0.7603E-17  0.1000E-09  0.0000E+00  0.3607E+16
   -2.062515    2.65514  0.7175E-10  0.1219E-13  0.7603E-17  0.1000E-09  0.0000E+00  0.3261E+16
   -2.131265    2.81847  0.7170E-10  0.1219E-13  0.8572E-17  0.1000E-09  0.0000E+00  0.2886E+16
   -2.200015    2.98544  0.7160E-10  0.6377E-13  0.4670E-16  0.1000E-09  0.0000E+00  0.2475E+16
   -2.268764    3.15548  0.7144E-10  0.4310E-12  0.3021E-15  0.1000E-09  0.0000E+00  0.2045E+16
   -2.337513    3.32883  0.7120E-10  0.2906E-11  0.1948E-14  0.1000E-09  0.0000E+00  0.1591E+16
   -2.406262    3.50569  0.7098E-10  0.1926E-10  0.1236E-13  0.1000E-09  0.0000E+00  0.1112E+16
   -2.475010    3.68651  0.7091E-10  0.1264E-09  0.7778E-13  0.6376E-09  0.0000E+00  0.6036E+15
   -2.543758    3.87194  0.7090E-10  0.8128E-09  0.4832E-12  0.2512E-07  0.0000E+00  0.8236E+14
   -2.612504    4.03712  0.7090E-10  0.3967E-08  0.2459E-11  0.2363E-05  0.0000E+00 -0.1088E+14
   -2.681251    4.04933  0.7090E-10  0.4834E-08  0.6205E-11  0.1136E-05  0.0000E+00 -0.4174E+14
   -2.749996    4.08278  0.7090E-10  0.0000E+00  0.0000E+00  0.0000E+00  0.0000E+00  0.0000E+00
