 1 - depth, m
 2 - temperature, C
 3 - salinity, kg/kg
 4 - turbulent kinetic energy, m**2/s**2
 5 - dissipation rate, m**2/s**3
 6 - kinematic heat conductance, m**2/s
 7 - modulus of horizontal velocity, m/s
 8 - Richardson number, n/d
   -0.000000   -0.00000  0.2325E-10  0.1219E-13  0.7603E-17  0.1000E-09  0.0000E+00  0.6695E+16
   -0.068746    0.10182  0.1389E-10  0.1219E-13  0.7603E-17  0.1000E-09  0.0000E+00  0.6457E+16
   -0.137492    0.20280  0.1012E-10  0.1219E-13  0.7603E-17  0.1000E-09  0.0000E+00  0.6249E+16
   -0.206239    0.30333  0.9022E-11  0.1219E-13  0.7603E-17  0.1000E-09  0.0000E+00  0.6067E+16
   -0.274987    0.40381  0.8752E-11  0.1219E-13  0.7603E-17  0.1000E-09  0.0000E+00  0.5909E+16
   -0.343735    0.50463  0.8693E-11  0.1219E-13  0.7603E-17  0.1000E-09  0.0000E+00  0.5771E+16
   -0.412483    0.60618  0.8682E-11  0.1219E-13  0.7603E-17  0.1000E-09  0.0000E+00  0.5652E+16
   -0.481232    0.70885  0.8680E-11  0.1219E-13  0.7603E-17  0.1000E-09  0.0000E+00  0.5546E+16
   -0.549982    0.81302  0.8679E-11  0.1219E-13  0.7603E-17  0.1000E-09  0.0000E+00  0.5453E+16
   -0.618732    0.91906  0.8679E-11  0.1219E-13  0.7603E-17  0.1000E-09  0.0000E+00  0.5366E+16
   -0.687482    1.02733  0.8679E-11  0.1219E-13  0.7603E-17  0.1000E-09  0.0000E+00  0.5297E+16
   -0.756233    1.13844  0.8679E-11  0.1219E-13  0.7603E-17  0.1000E-09  0.0000E+00  0.5232E+16
   -0.824984    1.25284  0.8679E-11  0.1219E-13  0.7603E-17  0.1000E-09  0.0000E+00  0.5161E+16
   -0.893735    1.37083  0.8679E-11  0.1219E-13  0.7603E-17  0.1000E-09  0.0000E+00  0.5079E+16
   -0.962487    1.49263  0.8678E-11  0.1497E-13  0.7603E-17  0.1000E-09  0.0000E+00  0.4982E+16
   -1.031239    1.61845  0.8675E-11  0.6588E-13  0.1018E-16  0.1000E-09  0.0000E+00  0.4866E+16
   -1.099990    1.74842  0.8668E-11  0.1813E-12  0.2207E-16  0.1000E-09  0.0000E+00  0.4727E+16
   -1.168742    1.88266  0.8653E-11  0.4365E-12  0.4986E-16  0.1000E-09  0.0000E+00  0.4562E+16
   -1.237495    2.02120  0.8626E-11  0.1007E-11  0.1113E-15  0.1000E-09  0.0000E+00  0.4368E+16
   -1.306247    2.16405  0.8587E-11  0.2283E-11  0.2455E-15  0.1000E-09  0.0000E+00  0.4144E+16
   -1.374999    2.31114  0.8543E-11  0.5114E-11  0.5357E-15  0.1000E-09  0.0000E+00  0.3893E+16
   -1.443751    2.46261  0.8505E-11  0.1134E-10  0.1158E-14  0.1000E-09  0.0000E+00  0.3610E+16
   -1.512503    2.61835  0.8479E-11  0.2489E-10  0.2479E-14  0.1000E-09  0.0000E+00  0.3291E+16
   -1.581256    2.77812  0.8464E-11  0.5415E-10  0.5259E-14  0.1000E-09  0.0000E+00  0.2938E+16
   -1.650008    2.94163  0.8455E-11  0.1167E-09  0.1106E-13  0.1000E-09  0.0000E+00  0.2552E+16
   -1.718760    3.10853  0.8449E-11  0.2494E-09  0.2306E-13  0.1000E-09  0.0000E+00  0.2138E+16
   -1.787511    3.27853  0.8445E-11  0.5406E-09  0.4877E-13  0.1442E-09  0.0000E+00  0.1722E+16
   -1.856263    3.45404  0.8440E-11  0.1182E-08  0.1041E-12  0.4199E-09  0.0000E+00  0.1262E+16
   -1.925014    3.63507  0.8431E-11  0.2582E-08  0.2221E-12  0.1496E-08  0.0000E+00  0.7556E+15
   -1.993765    3.82106  0.8420E-11  0.5598E-08  0.4708E-12  0.1126E-07  0.0000E+00  0.2127E+15
   -2.062516    4.00049  0.8417E-11  0.6432E-08  0.5443E-12  0.2988E-04  0.0000E+00 -0.2087E+12
   -2.131266    4.00140  0.8417E-11  0.6791E-08  0.5843E-12  0.3083E-04  0.0000E+00 -0.2151E+12
   -2.200016    4.00228  0.8417E-11  0.7082E-08  0.6275E-12  0.3092E-04  0.0000E+00 -0.2272E+12
   -2.268766    4.00317  0.8417E-11  0.7310E-08  0.6767E-12  0.3015E-04  0.0000E+00 -0.2465E+12
   -2.337515    4.00407  0.8417E-11  0.7480E-08  0.7378E-12  0.2837E-04  0.0000E+00 -0.2773E+12
   -2.406263    4.00504  0.8417E-11  0.7585E-08  0.8201E-12  0.2544E-04  0.0000E+00 -0.3284E+12
   -2.475011    4.00613  0.8417E-11  0.7602E-08  0.9435E-12  0.2118E-04  0.0000E+00 -0.4224E+12
   -2.543759    4.00745  0.8417E-11  0.7483E-08  0.1161E-11  0.1542E-04  0.0000E+00 -0.6324E+12
   -2.612506    4.00928  0.8417E-11  0.7065E-08  0.1689E-11  0.8192E-05  0.0000E+00 -0.1364E+13
   -2.681252    4.01280  0.8417E-11  0.5245E-08  0.4757E-11  0.1198E-05  0.0000E+00 -0.1465E+14
   -2.749998    4.03703  0.8417E-11  0.0000E+00  0.0000E+00  0.0000E+00  0.0000E+00  0.0000E+00
