 1 - depth, m
 2 - temperature, C
 3 - salinity, kg/kg
 4 - turbulent kinetic energy, m**2/s**2
 5 - dissipation rate, m**2/s**3
 6 - kinematic heat conductance, m**2/s
 7 - modulus of horizontal velocity, m/s
 8 - Richardson number, n/d
   -0.000000   -0.00000  0.2665E-11  0.1219E-13  0.7603E-17  0.1000E-09  0.0000E+00  0.5681E+16
   -0.068746    0.08621  0.1465E-11  0.1219E-13  0.7603E-17  0.1000E-09  0.0000E+00  0.5471E+16
   -0.137492    0.17121  0.1099E-11  0.1219E-13  0.7603E-17  0.1000E-09  0.0000E+00  0.5299E+16
   -0.206239    0.25549  0.1009E-11  0.1219E-13  0.7603E-17  0.1000E-09  0.0000E+00  0.5162E+16
   -0.274987    0.33960  0.9897E-12  0.1219E-13  0.7603E-17  0.1000E-09  0.0000E+00  0.5058E+16
   -0.343735    0.42406  0.9861E-12  0.1219E-13  0.7603E-17  0.1000E-09  0.0000E+00  0.4983E+16
   -0.412483    0.50940  0.9854E-12  0.1219E-13  0.7603E-17  0.1000E-09  0.0000E+00  0.4934E+16
   -0.481232    0.59614  0.9854E-12  0.1219E-13  0.7603E-17  0.1000E-09  0.0000E+00  0.4907E+16
   -0.549982    0.68480  0.9853E-12  0.1219E-13  0.7603E-17  0.1000E-09  0.0000E+00  0.4898E+16
   -0.618732    0.77589  0.9853E-12  0.1219E-13  0.7603E-17  0.1000E-09  0.0000E+00  0.4904E+16
   -0.687482    0.86989  0.9853E-12  0.1219E-13  0.7603E-17  0.1000E-09  0.0000E+00  0.4933E+16
   -0.756233    0.96757  0.9853E-12  0.1219E-13  0.7603E-17  0.1000E-09  0.0000E+00  0.4973E+16
   -0.824984    1.06952  0.9853E-12  0.1219E-13  0.7603E-17  0.1000E-09  0.0000E+00  0.5011E+16
   -0.893735    1.17617  0.9853E-12  0.1219E-13  0.7603E-17  0.1000E-09  0.0000E+00  0.5039E+16
   -0.962487    1.28788  0.9852E-12  0.1219E-13  0.7603E-17  0.1000E-09  0.0000E+00  0.5054E+16
   -1.031238    1.40500  0.9849E-12  0.1219E-13  0.7603E-17  0.1000E-09  0.0000E+00  0.5048E+16
   -1.099990    1.52779  0.9841E-12  0.1219E-13  0.7603E-17  0.1000E-09  0.0000E+00  0.5017E+16
   -1.168742    1.65650  0.9822E-12  0.5548E-13  0.1114E-16  0.1000E-09  0.0000E+00  0.4954E+16
   -1.237494    1.79129  0.9787E-12  0.1694E-12  0.2794E-16  0.1000E-09  0.0000E+00  0.4855E+16
   -1.306246    1.93226  0.9734E-12  0.4607E-12  0.7199E-16  0.1000E-09  0.0000E+00  0.4714E+16
   -1.374999    2.07946  0.9677E-12  0.1208E-11  0.1826E-15  0.1000E-09  0.0000E+00  0.4538E+16
   -1.443751    2.23319  0.9632E-12  0.3114E-11  0.4563E-15  0.1000E-09  0.0000E+00  0.4315E+16
   -1.512503    2.39347  0.9606E-12  0.7912E-11  0.1125E-14  0.1000E-09  0.0000E+00  0.4037E+16
   -1.581255    2.56013  0.9590E-12  0.1984E-10  0.2740E-14  0.1000E-09  0.0000E+00  0.3705E+16
   -1.650007    2.73290  0.9579E-12  0.4913E-10  0.6589E-14  0.1000E-09  0.0000E+00  0.3318E+16
   -1.718759    2.91149  0.9573E-12  0.1201E-09  0.1566E-13  0.1000E-09  0.0000E+00  0.2880E+16
   -1.787511    3.09563  0.9569E-12  0.2977E-09  0.3769E-13  0.1000E-09  0.0000E+00  0.2417E+16
   -1.856262    3.28729  0.9566E-12  0.7414E-09  0.9123E-13  0.2453E-09  0.0000E+00  0.1893E+16
   -1.925013    3.48700  0.9561E-12  0.1837E-08  0.2199E-12  0.8617E-09  0.0000E+00  0.1298E+16
   -1.993764    3.69542  0.9547E-12  0.4518E-08  0.5262E-12  0.4331E-08  0.0000E+00  0.6182E+15
   -2.062515    3.90929  0.9534E-12  0.1001E-07  0.1145E-11  0.1540E-06  0.0000E+00  0.3833E+14
   -2.131265    4.01915  0.9534E-12  0.1140E-07  0.1312E-11  0.4179E-04  0.0000E+00 -0.3972E+12
   -2.200015    4.01991  0.9534E-12  0.1195E-07  0.1398E-11  0.4178E-04  0.0000E+00 -0.4050E+12
   -2.268765    4.02067  0.9534E-12  0.1236E-07  0.1490E-11  0.4069E-04  0.0000E+00 -0.4246E+12
   -2.337514    4.02146  0.9534E-12  0.1266E-07  0.1600E-11  0.3836E-04  0.0000E+00 -0.4606E+12
   -2.406263    4.02228  0.9534E-12  0.1282E-07  0.1745E-11  0.3459E-04  0.0000E+00 -0.5237E+12
   -2.475011    4.02320  0.9534E-12  0.1282E-07  0.1960E-11  0.2910E-04  0.0000E+00 -0.6414E+12
   -2.543758    4.02430  0.9534E-12  0.1260E-07  0.2337E-11  0.2159E-04  0.0000E+00 -0.8998E+12
   -2.612505    4.02578  0.9534E-12  0.1190E-07  0.3241E-11  0.1190E-04  0.0000E+00 -0.1747E+13
   -2.681252    4.02851  0.9534E-12  0.8727E-08  0.8840E-11  0.1648E-05  0.0000E+00 -0.1623E+14
   -2.749997    4.04839  0.9534E-12  0.0000E+00  0.0000E+00  0.0000E+00  0.0000E+00  0.0000E+00
