 1 - depth, m
 2 - temperature, C
 3 - salinity, kg/kg
 4 - turbulent kinetic energy, m**2/s**2
 5 - dissipation rate, m**2/s**3
 6 - kinematic heat conductance, m**2/s
 7 - modulus of horizontal velocity, m/s
 8 - Richardson number, n/d
   -0.000000   -0.00000  0.4256E-11  0.1219E-13  0.7603E-17  0.1000E-09  0.0000E+00  0.4667E+16
   -0.068746    0.07069  0.2290E-11  0.1219E-13  0.7603E-17  0.1000E-09  0.0000E+00  0.4471E+16
   -0.137492    0.13971  0.1811E-11  0.1219E-13  0.7603E-17  0.1000E-09  0.0000E+00  0.4321E+16
   -0.206239    0.20768  0.1704E-11  0.1219E-13  0.7603E-17  0.1000E-09  0.0000E+00  0.4212E+16
   -0.274986    0.27522  0.1683E-11  0.1219E-13  0.7603E-17  0.1000E-09  0.0000E+00  0.4143E+16
   -0.343734    0.34296  0.1679E-11  0.1219E-13  0.7603E-17  0.1000E-09  0.0000E+00  0.4112E+16
   -0.412483    0.41153  0.1679E-11  0.1219E-13  0.7603E-17  0.1000E-09  0.0000E+00  0.4115E+16
   -0.481232    0.48157  0.1679E-11  0.1219E-13  0.7603E-17  0.1000E-09  0.0000E+00  0.4150E+16
   -0.549982    0.55374  0.1679E-11  0.1219E-13  0.7603E-17  0.1000E-09  0.0000E+00  0.4214E+16
   -0.618731    0.62871  0.1679E-11  0.1219E-13  0.7603E-17  0.1000E-09  0.0000E+00  0.4303E+16
   -0.687482    0.70714  0.1679E-11  0.1219E-13  0.7603E-17  0.1000E-09  0.0000E+00  0.4430E+16
   -0.756232    0.79000  0.1679E-11  0.1219E-13  0.7603E-17  0.1000E-09  0.0000E+00  0.4580E+16
   -0.824983    0.87813  0.1679E-11  0.1219E-13  0.7603E-17  0.1000E-09  0.0000E+00  0.4738E+16
   -0.893734    0.97215  0.1679E-11  0.1219E-13  0.7603E-17  0.1000E-09  0.0000E+00  0.4898E+16
   -0.962486    1.07270  0.1678E-11  0.1219E-13  0.7603E-17  0.1000E-09  0.0000E+00  0.5050E+16
   -1.031238    1.18032  0.1678E-11  0.1219E-13  0.7603E-17  0.1000E-09  0.0000E+00  0.5187E+16
   -1.099989    1.29556  0.1678E-11  0.1219E-13  0.7603E-17  0.1000E-09  0.0000E+00  0.5299E+16
   -1.168741    1.41887  0.1677E-11  0.4241E-13  0.9373E-17  0.1000E-09  0.0000E+00  0.5376E+16
   -1.237493    1.55065  0.1673E-11  0.1319E-12  0.2341E-16  0.1000E-09  0.0000E+00  0.5410E+16
   -1.306246    1.69119  0.1666E-11  0.3693E-12  0.6196E-16  0.1000E-09  0.0000E+00  0.5389E+16
   -1.374998    1.84069  0.1657E-11  0.9979E-12  0.1618E-15  0.1000E-09  0.0000E+00  0.5321E+16
   -1.443750    1.99974  0.1647E-11  0.2649E-11  0.4165E-15  0.1000E-09  0.0000E+00  0.5183E+16
   -1.512502    2.16845  0.1641E-11  0.6931E-11  0.1057E-14  0.1000E-09  0.0000E+00  0.4961E+16
   -1.581254    2.34665  0.1638E-11  0.1790E-10  0.2651E-14  0.1000E-09  0.0000E+00  0.4651E+16
   -1.650006    2.53400  0.1636E-11  0.4562E-10  0.6562E-14  0.1000E-09  0.0000E+00  0.4249E+16
   -1.718758    2.73001  0.1635E-11  0.1148E-09  0.1605E-13  0.1000E-09  0.0000E+00  0.3759E+16
   -1.787510    2.93412  0.1635E-11  0.2931E-09  0.3979E-13  0.1000E-09  0.0000E+00  0.3204E+16
   -1.856261    3.14719  0.1634E-11  0.7514E-09  0.9913E-13  0.1969E-09  0.0000E+00  0.2563E+16
   -1.925012    3.36926  0.1633E-11  0.1916E-08  0.2459E-12  0.6845E-09  0.0000E+00  0.1829E+16
   -1.993763    3.60011  0.1631E-11  0.4855E-08  0.6061E-12  0.3099E-08  0.0000E+00  0.9959E+15
   -2.062514    3.83605  0.1627E-11  0.1166E-07  0.1422E-11  0.4355E-07  0.0000E+00  0.1665E+15
   -2.131264    4.02340  0.1626E-11  0.1323E-07  0.1622E-11  0.4492E-04  0.0000E+00 -0.4490E+12
   -2.200014    4.02417  0.1626E-11  0.1385E-07  0.1726E-11  0.4503E-04  0.0000E+00 -0.4586E+12
   -2.268764    4.02493  0.1626E-11  0.1431E-07  0.1838E-11  0.4395E-04  0.0000E+00 -0.4815E+12
   -2.337513    4.02572  0.1626E-11  0.1464E-07  0.1973E-11  0.4150E-04  0.0000E+00 -0.5230E+12
   -2.406261    4.02656  0.1626E-11  0.1482E-07  0.2151E-11  0.3750E-04  0.0000E+00 -0.5955E+12
   -2.475009    4.02749  0.1626E-11  0.1483E-07  0.2417E-11  0.3162E-04  0.0000E+00 -0.7301E+12
   -2.543757    4.02861  0.1626E-11  0.1458E-07  0.2881E-11  0.2354E-04  0.0000E+00 -0.1024E+13
   -2.612504    4.03013  0.1626E-11  0.1378E-07  0.3992E-11  0.1305E-04  0.0000E+00 -0.1986E+13
   -2.681250    4.03293  0.1626E-11  0.1008E-07  0.1100E-10  0.1772E-05  0.0000E+00 -0.1897E+14
   -2.749996    4.05412  0.1626E-11  0.0000E+00  0.0000E+00  0.0000E+00  0.0000E+00  0.0000E+00
