 1 - depth, m
 2 - temperature, C
 3 - salinity, kg/kg
 4 - turbulent kinetic energy, m**2/s**2
 5 - dissipation rate, m**2/s**3
 6 - kinematic heat conductance, m**2/s
 7 - modulus of horizontal velocity, m/s
 8 - Richardson number, n/d
   -0.000000   -0.00000  0.5637E-10  0.1219E-13  0.7603E-17  0.1000E-09  0.0000E+00  0.7759E+16
   -0.068746    0.11826  0.3530E-10  0.1219E-13  0.7603E-17  0.1000E-09  0.0000E+00  0.7459E+16
   -0.137492    0.23571  0.2530E-10  0.1219E-13  0.7603E-17  0.1000E-09  0.0000E+00  0.7175E+16
   -0.206239    0.35249  0.2150E-10  0.1219E-13  0.7603E-17  0.1000E-09  0.0000E+00  0.6906E+16
   -0.274987    0.46880  0.2027E-10  0.1219E-13  0.7603E-17  0.1000E-09  0.0000E+00  0.6650E+16
   -0.343735    0.58478  0.1992E-10  0.1219E-13  0.7603E-17  0.1000E-09  0.0000E+00  0.6406E+16
   -0.412483    0.70060  0.1983E-10  0.1219E-13  0.7603E-17  0.1000E-09  0.0000E+00  0.6171E+16
   -0.481232    0.81641  0.1981E-10  0.1219E-13  0.7603E-17  0.1000E-09  0.0000E+00  0.5945E+16
   -0.549982    0.93236  0.1981E-10  0.1219E-13  0.7603E-17  0.1000E-09  0.0000E+00  0.5726E+16
   -0.618732    1.04859  0.1980E-10  0.1219E-13  0.7603E-17  0.1000E-09  0.0000E+00  0.5511E+16
   -0.687482    1.16521  0.1980E-10  0.1219E-13  0.7603E-17  0.1000E-09  0.0000E+00  0.5309E+16
   -0.756233    1.28254  0.1980E-10  0.1219E-13  0.7603E-17  0.1000E-09  0.0000E+00  0.5113E+16
   -0.824984    1.40079  0.1980E-10  0.1219E-13  0.7603E-17  0.1000E-09  0.0000E+00  0.4915E+16
   -0.893735    1.52003  0.1980E-10  0.1219E-13  0.7603E-17  0.1000E-09  0.0000E+00  0.4714E+16
   -0.962487    1.64033  0.1979E-10  0.1219E-13  0.7603E-17  0.1000E-09  0.0000E+00  0.4508E+16
   -1.031239    1.76172  0.1978E-10  0.1219E-13  0.7603E-17  0.1000E-09  0.0000E+00  0.4298E+16
   -1.099990    1.88421  0.1976E-10  0.1219E-13  0.7603E-17  0.1000E-09  0.0000E+00  0.4081E+16
   -1.168742    2.00780  0.1971E-10  0.1219E-13  0.7603E-17  0.1000E-09  0.0000E+00  0.3858E+16
   -1.237495    2.13244  0.1965E-10  0.1219E-13  0.7603E-17  0.1000E-09  0.0000E+00  0.3628E+16
   -1.306247    2.25808  0.1957E-10  0.1219E-13  0.7603E-17  0.1000E-09  0.0000E+00  0.3390E+16
   -1.374999    2.38464  0.1948E-10  0.4977E-13  0.9694E-17  0.1000E-09  0.0000E+00  0.3147E+16
   -1.443751    2.51212  0.1941E-10  0.1487E-12  0.2298E-16  0.1000E-09  0.0000E+00  0.2898E+16
   -1.512503    2.64040  0.1936E-10  0.3929E-12  0.5722E-16  0.1000E-09  0.0000E+00  0.2641E+16
   -1.581256    2.76933  0.1932E-10  0.9986E-12  0.1406E-15  0.1000E-09  0.0000E+00  0.2379E+16
   -1.650008    2.89871  0.1930E-10  0.2493E-11  0.3407E-15  0.1000E-09  0.0000E+00  0.2110E+16
   -1.718760    3.02829  0.1929E-10  0.6139E-11  0.8154E-15  0.1000E-09  0.0000E+00  0.1839E+16
   -1.787511    3.15785  0.1928E-10  0.1532E-10  0.1978E-14  0.1000E-09  0.0000E+00  0.1579E+16
   -1.856263    3.28832  0.1926E-10  0.3845E-10  0.4825E-14  0.1000E-09  0.0000E+00  0.1313E+16
   -1.925014    3.41956  0.1924E-10  0.9605E-10  0.1173E-13  0.1000E-09  0.0000E+00  0.1043E+16
   -1.993765    3.55151  0.1922E-10  0.2388E-09  0.2838E-13  0.1878E-09  0.0000E+00  0.7684E+15
   -2.062516    3.68379  0.1919E-10  0.5774E-09  0.6680E-13  0.6958E-09  0.0000E+00  0.4881E+15
   -2.131266    3.81473  0.1918E-10  0.1375E-08  0.1551E-12  0.3655E-08  0.0000E+00  0.2154E+15
   -2.200016    3.94173  0.1918E-10  0.3051E-08  0.3378E-12  0.1355E-06  0.0000E+00  0.1219E+14
   -2.268766    4.00712  0.1917E-10  0.4039E-08  0.4522E-12  0.1579E-04  0.0000E+00 -0.3813E+12
   -2.337515    4.00826  0.1917E-10  0.4445E-08  0.5158E-12  0.1593E-04  0.0000E+00 -0.4015E+12
   -2.406263    4.00940  0.1917E-10  0.4736E-08  0.5881E-12  0.1509E-04  0.0000E+00 -0.4508E+12
   -2.475011    4.01061  0.1917E-10  0.4912E-08  0.6850E-12  0.1316E-04  0.0000E+00 -0.5540E+12
   -2.543759    4.01202  0.1917E-10  0.4945E-08  0.8439E-12  0.9980E-05  0.0000E+00 -0.7967E+12
   -2.612506    4.01393  0.1917E-10  0.4722E-08  0.1213E-11  0.5499E-05  0.0000E+00 -0.1661E+13
   -2.681252    4.01754  0.1917E-10  0.3569E-08  0.3152E-11  0.9054E-06  0.0000E+00 -0.1531E+14
   -2.749998    4.04044  0.1917E-10  0.0000E+00  0.0000E+00  0.0000E+00  0.0000E+00  0.0000E+00
