 1 - depth, m
 2 - temperature, C
 3 - salinity, kg/kg
 4 - turbulent kinetic energy, m**2/s**2
 5 - dissipation rate, m**2/s**3
 6 - kinematic heat conductance, m**2/s
 7 - modulus of horizontal velocity, m/s
 8 - Richardson number, n/d
   -0.000000   -0.00000  0.2109E-12  0.3689E-05  0.9058E-07  0.1219E-04  0.1928E-01  0.1053E+17
   -0.068750    0.26218  0.2124E-12  0.3019E-05  0.4642E-07  0.1426E-04  0.1538E-01  0.5764E+16
   -0.137501    0.48248  0.2191E-12  0.2410E-05  0.2961E-07  0.1301E-04  0.1260E-01  0.2922E+16
   -0.206252    0.65809  0.2248E-12  0.1881E-05  0.2060E-07  0.1050E-04  0.1029E-01  0.1298E+16
   -0.275004    0.78923  0.2520E-12  0.1434E-05  0.1490E-07  0.7743E-05  0.8296E-02  0.4428E+15
   -0.343756    0.88255  0.9905E-12  0.1057E-05  0.1091E-07  0.1414E-04  0.6556E-02  0.5956E+14
   -0.412509    0.94903  0.1482E-11  0.7420E-06  0.7926E-08  0.3265E-04  0.5106E-02  0.1766E+14
   -0.481263    1.00712  0.1816E-11  0.4846E-06  0.5578E-08  0.3297E-04  0.3851E-02  0.7965E+14
   -0.550017    1.06066  0.2225E-11  0.2837E-06  0.3659E-08  0.2235E-04  0.2758E-02  0.2344E+15
   -0.618771    1.11254  0.2811E-11  0.1377E-06  0.2062E-08  0.2251E-05  0.1818E-02  0.4346E+15
   -0.687526    1.16464  0.3448E-11  0.4363E-07  0.7907E-09  0.8913E-07  0.1033E-02  0.6162E+15
   -0.756281    1.21721  0.4355E-11  0.6044E-08  0.8573E-10  0.1273E-07  0.4406E-03  0.7797E+15
   -0.825036    1.26269  0.4581E-11  0.6330E-09  0.2132E-11  0.1311E-08  0.1375E-03  0.9323E+15
   -0.893792    1.30694  0.4453E-11  0.1542E-09  0.7194E-13  0.1840E-09  0.3859E-04  0.1073E+16
   -0.962547    1.35871  0.4270E-11  0.5219E-10  0.1490E-13  0.1035E-09  0.1092E-04  0.1202E+16
   -1.031303    1.41836  0.4109E-11  0.4113E-10  0.1606E-13  0.1003E-09  0.3173E-05  0.1316E+16
   -1.100060    1.48520  0.3989E-11  0.1371E-09  0.5928E-13  0.1635E-09  0.9539E-06  0.1418E+16
   -1.168816    1.55887  0.3910E-11  0.6400E-09  0.2681E-12  0.4722E-09  0.2991E-06  0.1509E+16
   -1.237572    1.64054  0.3862E-11  0.2977E-08  0.1201E-11  0.1506E-08  0.9844E-07  0.1603E+16
   -1.306329    1.73820  0.3834E-11  0.1341E-07  0.5211E-11  0.3854E-08  0.3412E-07  0.1764E+16
   -1.375086    1.88848  0.3818E-11  0.5809E-07  0.2179E-10  0.8203E-08  0.1229E-07  0.2383E+16
   -1.443842    2.23435  0.3807E-11  0.2291E-06  0.8367E-10  0.4755E-07  0.4063E-08  0.4726E+16
   -1.512599    2.93854  0.3787E-11  0.3870E-06  0.1429E-09  0.1659E-03  0.1792E-09  0.7637E+16
   -1.581355    3.54823  0.3770E-11  0.5144E-06  0.1918E-09  0.3150E-03  0.1007E-09  0.5214E+16
   -1.650111    4.02996  0.3756E-11  0.5840E-06  0.2187E-09  0.4384E-03  0.8867E-10  0.1140E+16
   -1.718868    4.24926  0.3749E-11  0.5898E-06  0.2221E-09  0.5153E-03  0.7691E-10 -0.2818E+13
   -1.787624    4.25026  0.3749E-11  0.5939E-06  0.2256E-09  0.5116E-03  0.6529E-10 -0.2920E+13
   -1.856380    4.25128  0.3749E-11  0.5973E-06  0.2299E-09  0.5080E-03  0.5534E-10 -0.2887E+13
   -1.925135    4.25232  0.3749E-11  0.6002E-06  0.2351E-09  0.5016E-03  0.4682E-10 -0.2897E+13
   -1.993890    4.25339  0.3749E-11  0.6025E-06  0.2414E-09  0.4927E-03  0.3972E-10 -0.2973E+13
   -2.062645    4.25449  0.3749E-11  0.6039E-06  0.2488E-09  0.4811E-03  0.3363E-10 -0.3053E+13
   -2.131400    4.25563  0.3749E-11  0.6044E-06  0.2576E-09  0.4665E-03  0.2820E-10 -0.3216E+13
   -2.200154    4.25682  0.3749E-11  0.6040E-06  0.2682E-09  0.4488E-03  0.2327E-10 -0.3480E+13
   -2.268908    4.25805  0.3749E-11  0.6024E-06  0.2813E-09  0.4274E-03  0.1879E-10 -0.3967E+13
   -2.337662    4.25936  0.3749E-11  0.5995E-06  0.2985E-09  0.4010E-03  0.1486E-10 -0.4687E+13
   -2.406415    4.26076  0.3749E-11  0.5950E-06  0.3224E-09  0.3690E-03  0.1150E-10 -0.5721E+13
   -2.475167    4.26229  0.3749E-11  0.5881E-06  0.3579E-09  0.3289E-03  0.8633E-11 -0.7130E+13
   -2.543919    4.26401  0.3749E-11  0.5773E-06  0.4168E-09  0.2811E-03  0.6241E-11 -0.8779E+13
   -2.612670    4.26605  0.3749E-11  0.5548E-06  0.5624E-09  0.1570E-03  0.4286E-11 -0.1598E+14
   -2.681421    4.26972  0.3749E-11  0.3692E-06  0.2229E-08  0.9318E-05  0.2136E-11 -0.3052E+15
   -2.750171    4.33210  0.3749E-11  0.0000E+00  0.0000E+00  0.0000E+00  0.2122E-11  0.0000E+00
