 1 - depth, m
 2 - temperature, C
 3 - salinity, kg/kg
 4 - turbulent kinetic energy, m**2/s**2
 5 - dissipation rate, m**2/s**3
 6 - kinematic heat conductance, m**2/s
 7 - modulus of horizontal velocity, m/s
 8 - Richardson number, n/d
   -0.000000   -0.00000  0.6663E-11  0.6711E-09  0.7072E-12  0.5498E-09  0.8831E-20  0.6422E+16
   -0.068746    0.09762  0.4385E-11  0.4993E-08  0.4735E-12  0.5052E-09  0.7318E-20  0.4748E+16
   -0.137492    0.17150  0.3903E-11  0.1209E-07  0.4717E-12  0.7545E-09  0.5950E-20  0.3214E+16
   -0.206239    0.22240  0.3819E-11  0.2145E-07  0.5492E-12  0.1491E-08  0.4810E-20  0.1954E+16
   -0.274986    0.25370  0.3809E-11  0.3294E-07  0.6738E-12  0.3708E-08  0.3865E-20  0.1032E+16
   -0.343734    0.27035  0.3808E-11  0.4637E-07  0.8307E-12  0.1310E-07  0.3059E-20  0.4387E+15
   -0.412483    0.27745  0.3808E-11  0.5717E-07  0.9563E-12  0.1191E-04  0.2390E-20  0.1158E+15
   -0.481232    0.27933  0.3808E-11  0.5990E-07  0.9851E-12  0.7290E-03  0.2339E-20  0.1071E+14
   -0.549981    0.27951  0.3808E-11  0.5994E-07  0.9857E-12  0.1111E-02  0.2338E-20 -0.4272E+10
   -0.618731    0.27951  0.3808E-11  0.5996E-07  0.9859E-12  0.1142E-02  0.2337E-20 -0.1500E+11
   -0.687481    0.27950  0.3808E-11  0.5997E-07  0.9860E-12  0.1139E-02  0.2336E-20 -0.1660E+11
   -0.756232    0.27950  0.3808E-11  0.5997E-07  0.9859E-12  0.1142E-02  0.2335E-20 -0.1451E+11
   -0.824983    0.27950  0.3808E-11  0.5995E-07  0.9856E-12  0.1144E-02  0.2335E-20 -0.9356E+10
   -0.893734    0.27950  0.3808E-11  0.5992E-07  0.9852E-12  0.8733E-03  0.2334E-20  0.2552E+13
   -0.962485    0.27955  0.3808E-11  0.5891E-07  0.9729E-12  0.2569E-03  0.2334E-20  0.4642E+14
   -1.031237    0.28030  0.3808E-11  0.5329E-07  0.8986E-12  0.4583E-07  0.2332E-20  0.2049E+15
   -1.099989    0.28363  0.3808E-11  0.4215E-07  0.7364E-12  0.8942E-08  0.2090E-20  0.5274E+15
   -1.168741    0.29221  0.3808E-11  0.3245E-07  0.5888E-12  0.3186E-08  0.1787E-20  0.1058E+16
   -1.237493    0.30948  0.3807E-11  0.2461E-07  0.4639E-12  0.1364E-08  0.1502E-20  0.1847E+16
   -1.306245    0.33984  0.3801E-11  0.1840E-07  0.3604E-12  0.6520E-09  0.1241E-20  0.2914E+16
   -1.374997    0.38828  0.3777E-11  0.1357E-07  0.2763E-12  0.3315E-09  0.1005E-20  0.4315E+16
   -1.443749    0.46128  0.3736E-11  0.9878E-08  0.2091E-12  0.1824E-09  0.7911E-21  0.5898E+16
   -1.512501    0.56372  0.3721E-11  0.7095E-08  0.1563E-12  0.1187E-09  0.5974E-21  0.7496E+16
   -1.581253    0.69879  0.3716E-11  0.5032E-08  0.1157E-12  0.1004E-09  0.4204E-21  0.8956E+16
   -1.650005    0.86825  0.3711E-11  0.3532E-08  0.8504E-13  0.1000E-09  0.2564E-21  0.1014E+17
   -1.718757    1.07267  0.3708E-11  0.2465E-08  0.6269E-13  0.1000E-09  0.1008E-21  0.1090E+17
   -1.787508    1.31074  0.3706E-11  0.1695E-08  0.4644E-13  0.1000E-09  0.6847E-23  0.1001E+17
   -1.856260    1.55083  0.3705E-11  0.1121E-08  0.3476E-13  0.1000E-09  0.4281E-24  0.9162E+16
   -1.925011    1.79447  0.3705E-11  0.6951E-09  0.2740E-13  0.1000E-09  0.2445E-25  0.8394E+16
   -1.993762    2.04544  0.3705E-11  0.3880E-09  0.2522E-13  0.1000E-09  0.1520E-26  0.7864E+16
   -2.062512    2.31553  0.3704E-11  0.2151E-09  0.3248E-13  0.1000E-09  0.1230E-27  0.7775E+16
   -2.131263    2.63599  0.3703E-11  0.2379E-09  0.7025E-13  0.1000E-09  0.9312E-29  0.6816E+16
   -2.200013    3.00122  0.3700E-11  0.7227E-09  0.2386E-12  0.2494E-09  0.6549E-30  0.4898E+16
   -2.268762    3.39171  0.3692E-11  0.2849E-08  0.9157E-12  0.1890E-08  0.3141E-31  0.2469E+16
   -2.337511    3.78501  0.3680E-11  0.1110E-07  0.3450E-11  0.6468E-07  0.1234E-32  0.2726E+15
   -2.406260    4.06309  0.3680E-11  0.1727E-07  0.5445E-11  0.2348E-04  0.3578E-34 -0.2999E+13
   -2.475008    4.06554  0.3680E-11  0.1926E-07  0.6494E-11  0.2265E-04  0.7354E-35 -0.3322E+13
   -2.543755    4.06818  0.3680E-11  0.2039E-07  0.7976E-11  0.1904E-04  0.1346E-35 -0.4313E+13
   -2.612502    4.07148  0.3680E-11  0.2042E-07  0.1110E-10  0.1218E-04  0.1798E-36 -0.7820E+13
   -2.681248    4.07717  0.3680E-11  0.1683E-07  0.2807E-10  0.2498E-05  0.1230E-37 -0.6040E+14
   -2.749994    4.11273  0.3680E-11  0.0000E+00  0.0000E+00  0.0000E+00  0.1294E-37  0.0000E+00
