 1 - depth, m
 2 - temperature, C
 3 - salinity, kg/kg
 4 - turbulent kinetic energy, m**2/s**2
 5 - dissipation rate, m**2/s**3
 6 - kinematic heat conductance, m**2/s
 7 - modulus of horizontal velocity, m/s
 8 - Richardson number, n/d
   -0.000000   10.34312  0.7415E-12  0.1499E-04  0.8507E-06  0.3139E-04  0.2799E-01 -0.1558E-01
   -0.068746   10.36076  0.7415E-12  0.1356E-04  0.2674E-06  0.8032E-04  0.1798E-01 -0.4009E-01
   -0.137492   10.36704  0.7416E-12  0.1292E-04  0.1471E-06  0.1319E-03  0.1448E-01 -0.6646E-01
   -0.206239   10.37072  0.7416E-12  0.1246E-04  0.9885E-07  0.1869E-03  0.1238E-01 -0.9545E-01
   -0.274987   10.37322  0.7416E-12  0.1210E-04  0.7340E-07  0.2465E-03  0.1092E-01 -0.1222E+00
   -0.343735   10.37506  0.7416E-12  0.1180E-04  0.5787E-07  0.3265E-03  0.9829E-02  0.8880E+00
   -0.412484   10.37644  0.7416E-12  0.1156E-04  0.4759E-07  0.4483E-03  0.8971E-02  0.2916E+02
   -0.481233   10.37749  0.7416E-12  0.1136E-04  0.4037E-07  0.5522E-03  0.8282E-02  0.1244E+02
   -0.549983   10.37834  0.7416E-12  0.1120E-04  0.3506E-07  0.6780E-03  0.7700E-02  0.2251E+02
   -0.618733   10.37903  0.7416E-12  0.1108E-04  0.3104E-07  0.8240E-03  0.7201E-02  0.3064E+02
   -0.687484   10.37960  0.7416E-12  0.1098E-04  0.2795E-07  0.1004E-02  0.6763E-02  0.5416E+02
   -0.756234   10.38004  0.7416E-12  0.1091E-04  0.2553E-07  0.1250E-02  0.6372E-02  0.2114E+03
   -0.824986   10.38039  0.7416E-12  0.1087E-04  0.2359E-07  0.1382E-02  0.6019E-02  0.4867E+02
   -0.893737   10.38068  0.7416E-12  0.1083E-04  0.2197E-07  0.1484E-02  0.5681E-02  0.5907E+02
   -0.962489   10.38095  0.7416E-12  0.1080E-04  0.2061E-07  0.1526E-02  0.5357E-02  0.1276E+02
   -1.031240   10.38121  0.7416E-12  0.1078E-04  0.1943E-07  0.1561E-02  0.5041E-02  0.1463E+02
   -1.099992   10.38146  0.7416E-12  0.1075E-04  0.1841E-07  0.1592E-02  0.4733E-02  0.1671E+02
   -1.168745   10.38171  0.7416E-12  0.1072E-04  0.1753E-07  0.1619E-02  0.4433E-02  0.1945E+02
   -1.237497   10.38196  0.7416E-12  0.1068E-04  0.1676E-07  0.1642E-02  0.4138E-02  0.2316E+02
   -1.306249   10.38220  0.7416E-12  0.1063E-04  0.1608E-07  0.1661E-02  0.3848E-02  0.2879E+02
   -1.375002   10.38244  0.7416E-12  0.1057E-04  0.1548E-07  0.1674E-02  0.3560E-02  0.3818E+02
   -1.443754   10.38267  0.7416E-12  0.1049E-04  0.1495E-07  0.1681E-02  0.3276E-02  0.5794E+02
   -1.512506   10.38291  0.7416E-12  0.1040E-04  0.1448E-07  0.1682E-02  0.2992E-02  0.1245E+03
   -1.581258   10.38315  0.7416E-12  0.1028E-04  0.1406E-07  0.1673E-02  0.2709E-02  0.2059E+05
   -1.650011   10.38340  0.7416E-12  0.1013E-04  0.1367E-07  0.1662E-02  0.2424E-02  0.3566E+05
   -1.718763   10.38364  0.7416E-12  0.9955E-05  0.1331E-07  0.1629E-02  0.2138E-02  0.1403E+05
   -1.787514   10.38389  0.7416E-12  0.9739E-05  0.1296E-07  0.1654E-02  0.1848E-02  0.1780E+02
   -1.856266   10.38414  0.7416E-12  0.9494E-05  0.1265E-07  0.1673E-02  0.1599E-02  0.5365E+01
   -1.925018   10.38439  0.7416E-12  0.9231E-05  0.1240E-07  0.1706E-02  0.1384E-02  0.2783E+01
   -1.993769   10.38463  0.7416E-12  0.8956E-05  0.1224E-07  0.1739E-02  0.1202E-02  0.1886E+01
   -2.062519   10.38486  0.7416E-12  0.8688E-05  0.1218E-07  0.1731E-02  0.1045E-02  0.1527E+01
   -2.131270   10.38510  0.7416E-12  0.8429E-05  0.1226E-07  0.1683E-02  0.9058E-03  0.1255E+01
   -2.200020   10.38535  0.7416E-12  0.8184E-05  0.1247E-07  0.1610E-02  0.7803E-03  0.1042E+01
   -2.268770   10.38561  0.7416E-12  0.7955E-05  0.1285E-07  0.1519E-02  0.6679E-03  0.8191E+00
   -2.337519   10.38589  0.7416E-12  0.7740E-05  0.1343E-07  0.1408E-02  0.5716E-03  0.6669E+00
   -2.406268   10.38619  0.7416E-12  0.7536E-05  0.1429E-07  0.1270E-02  0.4912E-03  0.6717E+00
   -2.475016   10.38653  0.7416E-12  0.7335E-05  0.1561E-07  0.1121E-02  0.4237E-03  0.9282E+00
   -2.543764   10.38692  0.7416E-12  0.7106E-05  0.1790E-07  0.9823E-03  0.3667E-03  0.1806E+01
   -2.612511   10.38735  0.7416E-12  0.6722E-05  0.2417E-07  0.5231E-03  0.3131E-03  0.1655E+04
   -2.681257   10.38841  0.7416E-12  0.4222E-05  0.9579E-07  0.3911E-04  0.2364E-03 -0.1082E+05
   -2.750003   10.39968  0.7416E-12  0.0000E+00  0.0000E+00  0.0000E+00  0.2402E-03  0.0000E+00
