 1 - depth, m
 2 - temperature, C
 3 - salinity, kg/kg
 4 - turbulent kinetic energy, m**2/s**2
 5 - dissipation rate, m**2/s**3
 6 - kinematic heat conductance, m**2/s
 7 - modulus of horizontal velocity, m/s
 8 - Richardson number, n/d
   -0.000000   -0.00000  0.1667E-09  0.8607E-10  0.5597E-13  0.1045E-09  0.8150E-32  0.4809E+16
   -0.068746    0.07285  0.1072E-09  0.4302E-09  0.3866E-13  0.1016E-09  0.6591E-32  0.3915E+16
   -0.137492    0.13324  0.9732E-10  0.9760E-09  0.3778E-13  0.1068E-09  0.5350E-32  0.3029E+16
   -0.206239    0.18067  0.9572E-10  0.1661E-08  0.4176E-13  0.1271E-09  0.4396E-32  0.2218E+16
   -0.274986    0.21580  0.9552E-10  0.2438E-08  0.4784E-13  0.1810E-09  0.3640E-32  0.1527E+16
   -0.343734    0.24020  0.9549E-10  0.3260E-08  0.5480E-13  0.3078E-09  0.3009E-32  0.9792E+15
   -0.412483    0.25593  0.9549E-10  0.4082E-08  0.6183E-13  0.6076E-09  0.2466E-32  0.5750E+15
   -0.481232    0.26520  0.9549E-10  0.4851E-08  0.6831E-13  0.1389E-08  0.1998E-32  0.3009E+15
   -0.549982    0.27006  0.9549E-10  0.5517E-08  0.7372E-13  0.4064E-08  0.1604E-32  0.1328E+15
   -0.618731    0.27221  0.9549E-10  0.5998E-08  0.7742E-13  0.4161E-07  0.1290E-32  0.4278E+14
   -0.687482    0.27291  0.9549E-10  0.6134E-08  0.7860E-13  0.4409E-04  0.1133E-32  0.1320E+14
   -0.756232    0.27312  0.9549E-10  0.6205E-08  0.7916E-13  0.2317E-04  0.1130E-32  0.1599E+14
   -0.824983    0.27338  0.9549E-10  0.6215E-08  0.7910E-13  0.2201E-07  0.1125E-32  0.4831E+14
   -0.893735    0.27416  0.9549E-10  0.6025E-08  0.7728E-13  0.4402E-08  0.9942E-33  0.1270E+15
   -0.962486    0.27622  0.9549E-10  0.5711E-08  0.7407E-13  0.1691E-08  0.8495E-33  0.2713E+15
   -1.031238    0.28062  0.9549E-10  0.5309E-08  0.6978E-13  0.7955E-09  0.7165E-33  0.5055E+15
   -1.099990    0.28883  0.9549E-10  0.4848E-08  0.6468E-13  0.4185E-09  0.5973E-33  0.8545E+15
   -1.168742    0.30275  0.9549E-10  0.4354E-08  0.5905E-13  0.2423E-09  0.4923E-33  0.1340E+16
   -1.237494    0.32470  0.9549E-10  0.3852E-08  0.5316E-13  0.1573E-09  0.4008E-33  0.1976E+16
   -1.306246    0.35732  0.9547E-10  0.3361E-08  0.4723E-13  0.1174E-09  0.3219E-33  0.2762E+16
   -1.374998    0.40342  0.9538E-10  0.2895E-08  0.4146E-13  0.1017E-09  0.2539E-33  0.3743E+16
   -1.443750    0.46694  0.9503E-10  0.2465E-08  0.3601E-13  0.1000E-09  0.1954E-33  0.4834E+16
   -1.512502    0.55080  0.9426E-10  0.2078E-08  0.3099E-13  0.1000E-09  0.1448E-33  0.5951E+16
   -1.581254    0.65710  0.9375E-10  0.1737E-08  0.2648E-13  0.1000E-09  0.1004E-33  0.7024E+16
   -1.650006    0.78738  0.9363E-10  0.1444E-08  0.2252E-13  0.1000E-09  0.6061E-34  0.7977E+16
   -1.718758    0.94246  0.9356E-10  0.1197E-08  0.1913E-13  0.1000E-09  0.2370E-34  0.8696E+16
   -1.787510    1.12157  0.9351E-10  0.9859E-09  0.1618E-13  0.1000E-09  0.1609E-35  0.8310E+16
   -1.856261    1.30446  0.9347E-10  0.7986E-09  0.1355E-13  0.1000E-09  0.1006E-36  0.7837E+16
   -1.925013    1.48977  0.9346E-10  0.6322E-09  0.1122E-13  0.1000E-09  0.5740E-38  0.7302E+16
   -1.993763    1.67638  0.9346E-10  0.4828E-09  0.9174E-14  0.1000E-09  0.3569E-39  0.6897E+16
   -2.062514    1.86829  0.9345E-10  0.3544E-09  0.7522E-14  0.1000E-09  0.2886E-40  0.7106E+16
   -2.131264    2.08692  0.9342E-10  0.2454E-09  0.6313E-14  0.1000E-09  0.2183E-41  0.7070E+16
   -2.200014    2.33385  0.9335E-10  0.1549E-09  0.5676E-14  0.1000E-09  0.1534E-42  0.6614E+16
   -2.268764    2.60550  0.9326E-10  0.8354E-10  0.5996E-14  0.1000E-09  0.7357E-44  0.5762E+16
   -2.337513    2.89751  0.9312E-10  0.3598E-10  0.8885E-14  0.1000E-09  0.2887E-45  0.4545E+16
   -2.406261    3.20285  0.9286E-10  0.3803E-10  0.2680E-13  0.1000E-09  0.9659E-47  0.3084E+16
   -2.475010    3.51322  0.9261E-10  0.2285E-09  0.1740E-12  0.5649E-09  0.2688E-48  0.1547E+16
   -2.543757    3.82145  0.9260E-10  0.1695E-08  0.1243E-11  0.3675E-07  0.6234E-50  0.1650E+15
   -2.612504    4.06701  0.9260E-10  0.8308E-08  0.6362E-11  0.3958E-05  0.1084E-51 -0.1651E+14
   -2.681250    4.07917  0.9260E-10  0.1007E-07  0.1567E-10  0.1959E-05  0.3269E-53 -0.6142E+14
   -2.749996    4.11468  0.9260E-10  0.0000E+00  0.0000E+00  0.0000E+00  0.3484E-53  0.0000E+00
