 1 - depth, m
 2 - temperature, C
 3 - salinity, kg/kg
 4 - turbulent kinetic energy, m**2/s**2
 5 - dissipation rate, m**2/s**3
 6 - kinematic heat conductance, m**2/s
 7 - modulus of horizontal velocity, m/s
 8 - Richardson number, n/d
   -0.000000    0.00000  0.0000E+00  0.4096E-13  0.8590E-16  0.1000E-09  0.0000E+00  0.7580E+16
   -0.037499    0.11549  0.0000E+00  0.4096E-13  0.8590E-16  0.1000E-09  0.0000E+00  0.7318E+16
   -0.074998    0.23059  0.0000E+00  0.4096E-13  0.8590E-16  0.1000E-09  0.0000E+00  0.7059E+16
   -0.112497    0.34530  0.0000E+00  0.4096E-13  0.8590E-16  0.1000E-09  0.0000E+00  0.6804E+16
   -0.149996    0.45960  0.0000E+00  0.4096E-13  0.8590E-16  0.1000E-09  0.0000E+00  0.6551E+16
   -0.187496    0.57351  0.0000E+00  0.4096E-13  0.8590E-16  0.1000E-09  0.0000E+00  0.6301E+16
   -0.224996    0.68700  0.0000E+00  0.4096E-13  0.8590E-16  0.1000E-09  0.0000E+00  0.6054E+16
   -0.262497    0.80006  0.0000E+00  0.4096E-13  0.8590E-16  0.1000E-09  0.0000E+00  0.5806E+16
   -0.299998    0.91260  0.0000E+00  0.4096E-13  0.8590E-16  0.1000E-09  0.0000E+00  0.5559E+16
   -0.337498    1.02457  0.0000E+00  0.4096E-13  0.8590E-16  0.1000E-09  0.0000E+00  0.5314E+16
   -0.375000    1.13593  0.0000E+00  0.4096E-13  0.8590E-16  0.1000E-09  0.0000E+00  0.5078E+16
   -0.412501    1.24679  0.0000E+00  0.4096E-13  0.8590E-16  0.1000E-09  0.0000E+00  0.4848E+16
   -0.450002    1.35718  0.0000E+00  0.4096E-13  0.8590E-16  0.1000E-09  0.0000E+00  0.4619E+16
   -0.487504    1.46705  0.0000E+00  0.4096E-13  0.8590E-16  0.1000E-09  0.0000E+00  0.4390E+16
   -0.525006    1.57633  0.0000E+00  0.4096E-13  0.8590E-16  0.1000E-09  0.0000E+00  0.4162E+16
   -0.562508    1.68492  0.0000E+00  0.4096E-13  0.8590E-16  0.1000E-09  0.0000E+00  0.3935E+16
   -0.600009    1.79273  0.0000E+00  0.4096E-13  0.8590E-16  0.1000E-09  0.0000E+00  0.3711E+16
   -0.637512    1.89969  0.0000E+00  0.4096E-13  0.8590E-16  0.1000E-09  0.0000E+00  0.3490E+16
   -0.675014    2.00573  0.0000E+00  0.4096E-13  0.8590E-16  0.1000E-09  0.0000E+00  0.3272E+16
   -0.712516    2.11076  0.0000E+00  0.4096E-13  0.8590E-16  0.1000E-09  0.0000E+00  0.3057E+16
   -0.750018    2.21471  0.0000E+00  0.4096E-13  0.8590E-16  0.1000E-09  0.0000E+00  0.2856E+16
   -0.787520    2.31782  0.0000E+00  0.4096E-13  0.8590E-16  0.1000E-09  0.0000E+00  0.2661E+16
   -0.825022    2.42016  0.0000E+00  0.4096E-13  0.8590E-16  0.1000E-09  0.0000E+00  0.2468E+16
   -0.862524    2.52164  0.0000E+00  0.4096E-13  0.8590E-16  0.1000E-09  0.0000E+00  0.2279E+16
   -0.900026    2.62221  0.0000E+00  0.4096E-13  0.8590E-16  0.1000E-09  0.0000E+00  0.2094E+16
   -0.937528    2.72180  0.0000E+00  0.4096E-13  0.8590E-16  0.1000E-09  0.0000E+00  0.1912E+16
   -0.975030    2.82033  0.0000E+00  0.4096E-13  0.8590E-16  0.1000E-09  0.0000E+00  0.1735E+16
   -1.012532    2.91771  0.0000E+00  0.4096E-13  0.8590E-16  0.1000E-09  0.0000E+00  0.1560E+16
   -1.050033    3.01373  0.0000E+00  0.4096E-13  0.8590E-16  0.1000E-09  0.0000E+00  0.1390E+16
   -1.087535    3.10823  0.0000E+00  0.4096E-13  0.8590E-16  0.1000E-09  0.0000E+00  0.1225E+16
   -1.125036    3.20106  0.0000E+00  0.4096E-13  0.8590E-16  0.1000E-09  0.0000E+00  0.1081E+16
   -1.162537    3.29333  0.0000E+00  0.4096E-13  0.8590E-16  0.1000E-09  0.0000E+00  0.9408E+15
   -1.200038    3.38520  0.0000E+00  0.4096E-13  0.8590E-16  0.1000E-09  0.0000E+00  0.8027E+15
   -1.237539    3.47666  0.0000E+00  0.7104E-13  0.1049E-15  0.1000E-09  0.0000E+00  0.6669E+15
   -1.275039    3.56772  0.0000E+00  0.3054E-12  0.4176E-15  0.1000E-09  0.0000E+00  0.5340E+15
   -1.312539    3.65854  0.0000E+00  0.1368E-11  0.1840E-14  0.1000E-09  0.0000E+00  0.4027E+15
   -1.350039    3.74915  0.0000E+00  0.6094E-11  0.8153E-14  0.1000E-09  0.0000E+00  0.2728E+15
   -1.387539    3.83961  0.0000E+00  0.2704E-10  0.3652E-13  0.5401E-09  0.0000E+00  0.1437E+15
   -1.425038    3.92973  0.0000E+00  0.1189E-09  0.1680E-12  0.7182E-08  0.0000E+00  0.1822E+14
   -1.462537    4.01592  0.0000E+00  0.4674E-09  0.8406E-12  0.9266E-07  0.0000E+00 -0.4912E+14
   -1.500036    4.07090  0.0000E+00  0.0000E+00  0.0000E+00  0.0000E+00  0.0000E+00  0.0000E+00
