 1 - depth, m
 2 - temperature, C
 3 - salinity, kg/kg
 4 - turbulent kinetic energy, m**2/s**2
 5 - dissipation rate, m**2/s**3
 6 - kinematic heat conductance, m**2/s
 7 - modulus of horizontal velocity, m/s
 8 - Richardson number, n/d
   -0.000000    0.00000  0.0000E+00  0.4096E-13  0.8590E-16  0.1000E-09  0.0000E+00  0.8529E+16
   -0.037499    0.13021  0.0000E+00  0.4096E-13  0.8590E-16  0.1000E-09  0.0000E+00  0.8224E+16
   -0.074999    0.26037  0.0000E+00  0.4096E-13  0.8590E-16  0.1000E-09  0.0000E+00  0.7916E+16
   -0.112500    0.39040  0.0000E+00  0.4096E-13  0.8590E-16  0.1000E-09  0.0000E+00  0.7607E+16
   -0.150000    0.52023  0.0000E+00  0.4096E-13  0.8590E-16  0.1000E-09  0.0000E+00  0.7296E+16
   -0.187501    0.64978  0.0000E+00  0.4096E-13  0.8590E-16  0.1000E-09  0.0000E+00  0.6984E+16
   -0.225002    0.77899  0.0000E+00  0.4096E-13  0.8590E-16  0.1000E-09  0.0000E+00  0.6672E+16
   -0.262503    0.90777  0.0000E+00  0.4096E-13  0.8590E-16  0.1000E-09  0.0000E+00  0.6357E+16
   -0.300005    1.03597  0.0000E+00  0.4096E-13  0.8590E-16  0.1000E-09  0.0000E+00  0.6042E+16
   -0.337507    1.16349  0.0000E+00  0.4096E-13  0.8590E-16  0.1000E-09  0.0000E+00  0.5729E+16
   -0.375009    1.29023  0.0000E+00  0.4096E-13  0.8590E-16  0.1000E-09  0.0000E+00  0.5425E+16
   -0.412511    1.41629  0.0000E+00  0.4096E-13  0.8590E-16  0.1000E-09  0.0000E+00  0.5128E+16
   -0.450013    1.54168  0.0000E+00  0.4096E-13  0.8590E-16  0.1000E-09  0.0000E+00  0.4833E+16
   -0.487516    1.66631  0.0000E+00  0.4096E-13  0.8590E-16  0.1000E-09  0.0000E+00  0.4541E+16
   -0.525018    1.79010  0.0000E+00  0.4096E-13  0.8590E-16  0.1000E-09  0.0000E+00  0.4248E+16
   -0.562521    1.91285  0.0000E+00  0.4096E-13  0.8590E-16  0.1000E-09  0.0000E+00  0.3960E+16
   -0.600024    2.03447  0.0000E+00  0.4096E-13  0.8590E-16  0.1000E-09  0.0000E+00  0.3677E+16
   -0.637527    2.15485  0.0000E+00  0.4096E-13  0.8590E-16  0.1000E-09  0.0000E+00  0.3399E+16
   -0.675030    2.27390  0.0000E+00  0.4096E-13  0.8590E-16  0.1000E-09  0.0000E+00  0.3128E+16
   -0.712533    2.39149  0.0000E+00  0.4096E-13  0.8590E-16  0.1000E-09  0.0000E+00  0.2863E+16
   -0.750036    2.50752  0.0000E+00  0.4096E-13  0.8590E-16  0.1000E-09  0.0000E+00  0.2613E+16
   -0.787539    2.62225  0.0000E+00  0.4096E-13  0.8590E-16  0.1000E-09  0.0000E+00  0.2373E+16
   -0.825042    2.73573  0.0000E+00  0.4096E-13  0.8590E-16  0.1000E-09  0.0000E+00  0.2138E+16
   -0.862545    2.84785  0.0000E+00  0.4450E-13  0.8590E-16  0.1000E-09  0.0000E+00  0.1910E+16
   -0.900048    2.95851  0.0000E+00  0.2027E-12  0.1086E-15  0.1000E-09  0.0000E+00  0.1689E+16
   -0.937551    3.06758  0.0000E+00  0.5720E-12  0.2381E-15  0.1000E-09  0.0000E+00  0.1475E+16
   -0.975054    3.17494  0.0000E+00  0.1406E-11  0.5481E-15  0.1000E-09  0.0000E+00  0.1269E+16
   -1.012556    3.28043  0.0000E+00  0.3318E-11  0.1252E-14  0.1000E-09  0.0000E+00  0.1068E+16
   -1.050059    3.38358  0.0000E+00  0.7722E-11  0.2838E-14  0.1000E-09  0.0000E+00  0.8772E+15
   -1.087561    3.48405  0.0000E+00  0.1780E-10  0.6382E-14  0.1000E-09  0.0000E+00  0.6976E+15
   -1.125063    3.58154  0.0000E+00  0.4070E-10  0.1424E-13  0.1000E-09  0.0000E+00  0.5415E+15
   -1.162565    3.67794  0.0000E+00  0.9234E-10  0.3157E-13  0.2223E-09  0.0000E+00  0.3914E+15
   -1.200067    3.77340  0.0000E+00  0.2080E-09  0.6948E-13  0.7779E-09  0.0000E+00  0.2452E+15
   -1.237569    3.86755  0.0000E+00  0.4642E-09  0.1518E-12  0.3934E-08  0.0000E+00  0.1046E+15
   -1.275070    3.95866  0.0000E+00  0.1001E-08  0.3225E-12  0.1520E-06  0.0000E+00  0.3726E+13
   -1.312571    4.00369  0.0000E+00  0.1774E-08  0.6029E-12  0.2109E-05  0.0000E+00 -0.1855E+13
   -1.350072    4.00953  0.0000E+00  0.2188E-08  0.8419E-12  0.2182E-05  0.0000E+00 -0.2329E+13
   -1.387572    4.01524  0.0000E+00  0.2379E-08  0.1146E-11  0.1777E-05  0.0000E+00 -0.3542E+13
   -1.425073    4.02222  0.0000E+00  0.2268E-08  0.1669E-11  0.9961E-06  0.0000E+00 -0.7812E+13
   -1.462573    4.03413  0.0000E+00  0.1700E-08  0.3110E-11  0.2266E-06  0.0000E+00 -0.3912E+14
   -1.500072    4.07167  0.0000E+00  0.0000E+00  0.0000E+00  0.0000E+00  0.0000E+00  0.0000E+00
