 1 - depth, m
 2 - temperature, C
 3 - salinity, kg/kg
 4 - turbulent kinetic energy, m**2/s**2
 5 - dissipation rate, m**2/s**3
 6 - kinematic heat conductance, m**2/s
 7 - modulus of horizontal velocity, m/s
 8 - Richardson number, n/d
   -0.000000    0.00000  0.0000E+00  0.4096E-13  0.8590E-16  0.1000E-09  0.0000E+00  0.9110E+16
   -0.037499    0.13926  0.0000E+00  0.4096E-13  0.8590E-16  0.1000E-09  0.0000E+00  0.8661E+16
   -0.074998    0.27683  0.0000E+00  0.4096E-13  0.8590E-16  0.1000E-09  0.0000E+00  0.8225E+16
   -0.112497    0.41269  0.0000E+00  0.4096E-13  0.8590E-16  0.1000E-09  0.0000E+00  0.7802E+16
   -0.149997    0.54684  0.0000E+00  0.4096E-13  0.8590E-16  0.1000E-09  0.0000E+00  0.7392E+16
   -0.187497    0.67926  0.0000E+00  0.4096E-13  0.8590E-16  0.1000E-09  0.0000E+00  0.6994E+16
   -0.224998    0.80993  0.0000E+00  0.4096E-13  0.8590E-16  0.1000E-09  0.0000E+00  0.6609E+16
   -0.262498    0.93881  0.0000E+00  0.4096E-13  0.8590E-16  0.1000E-09  0.0000E+00  0.6228E+16
   -0.299999    1.06575  0.0000E+00  0.4096E-13  0.8590E-16  0.1000E-09  0.0000E+00  0.5858E+16
   -0.337500    1.19068  0.0000E+00  0.4096E-13  0.8590E-16  0.1000E-09  0.0000E+00  0.5500E+16
   -0.375002    1.31353  0.0000E+00  0.4096E-13  0.8590E-16  0.1000E-09  0.0000E+00  0.5178E+16
   -0.412503    1.43485  0.0000E+00  0.4096E-13  0.8590E-16  0.1000E-09  0.0000E+00  0.4879E+16
   -0.450005    1.55494  0.0000E+00  0.4096E-13  0.8590E-16  0.1000E-09  0.0000E+00  0.4588E+16
   -0.487507    1.67379  0.0000E+00  0.4096E-13  0.8590E-16  0.1000E-09  0.0000E+00  0.4303E+16
   -0.525009    1.79134  0.0000E+00  0.4096E-13  0.8590E-16  0.1000E-09  0.0000E+00  0.4023E+16
   -0.562511    1.90747  0.0000E+00  0.4096E-13  0.8590E-16  0.1000E-09  0.0000E+00  0.3751E+16
   -0.600013    2.02215  0.0000E+00  0.4096E-13  0.8590E-16  0.1000E-09  0.0000E+00  0.3487E+16
   -0.637515    2.13531  0.0000E+00  0.4096E-13  0.8590E-16  0.1000E-09  0.0000E+00  0.3230E+16
   -0.675017    2.24691  0.0000E+00  0.4096E-13  0.8590E-16  0.1000E-09  0.0000E+00  0.2981E+16
   -0.712520    2.35689  0.0000E+00  0.4096E-13  0.8590E-16  0.1000E-09  0.0000E+00  0.2740E+16
   -0.750022    2.46518  0.0000E+00  0.4096E-13  0.8590E-16  0.1000E-09  0.0000E+00  0.2529E+16
   -0.787525    2.57264  0.0000E+00  0.4096E-13  0.8590E-16  0.1000E-09  0.0000E+00  0.2328E+16
   -0.825027    2.67956  0.0000E+00  0.4096E-13  0.8590E-16  0.1000E-09  0.0000E+00  0.2131E+16
   -0.862529    2.78593  0.0000E+00  0.4096E-13  0.8590E-16  0.1000E-09  0.0000E+00  0.1937E+16
   -0.900031    2.89171  0.0000E+00  0.9028E-13  0.8590E-16  0.1000E-09  0.0000E+00  0.1746E+16
   -0.937534    2.99689  0.0000E+00  0.3047E-12  0.1644E-15  0.1000E-09  0.0000E+00  0.1558E+16
   -0.975036    3.10143  0.0000E+00  0.8389E-12  0.4038E-15  0.1000E-09  0.0000E+00  0.1373E+16
   -1.012538    3.20530  0.0000E+00  0.2165E-11  0.1000E-14  0.1000E-09  0.0000E+00  0.1192E+16
   -1.050039    3.30845  0.0000E+00  0.5473E-11  0.2454E-14  0.1000E-09  0.0000E+00  0.1015E+16
   -1.087541    3.41079  0.0000E+00  0.1366E-10  0.5958E-14  0.1000E-09  0.0000E+00  0.8412E+15
   -1.125043    3.51227  0.0000E+00  0.3374E-10  0.1433E-13  0.1000E-09  0.0000E+00  0.6798E+15
   -1.162544    3.61415  0.0000E+00  0.8254E-10  0.3414E-13  0.1816E-09  0.0000E+00  0.5178E+15
   -1.200045    3.71662  0.0000E+00  0.2000E-09  0.8067E-13  0.6272E-09  0.0000E+00  0.3530E+15
   -1.237546    3.81951  0.0000E+00  0.4798E-09  0.1889E-12  0.2765E-08  0.0000E+00  0.1857E+15
   -1.275047    3.92184  0.0000E+00  0.1135E-08  0.4377E-12  0.3669E-07  0.0000E+00  0.2948E+14
   -1.312547    4.00618  0.0000E+00  0.2226E-08  0.8680E-12  0.2194E-05  0.0000E+00 -0.2391E+13
   -1.350047    4.01277  0.0000E+00  0.2796E-08  0.1232E-11  0.2341E-05  0.0000E+00 -0.2997E+13
   -1.387547    4.01921  0.0000E+00  0.3108E-08  0.1724E-11  0.1959E-05  0.0000E+00 -0.4629E+13
   -1.425046    4.02722  0.0000E+00  0.3070E-08  0.2617E-11  0.1153E-05  0.0000E+00 -0.1041E+14
   -1.462546    4.04112  0.0000E+00  0.2470E-08  0.5158E-11  0.3042E-06  0.0000E+00 -0.5345E+14
   -1.500044    4.08548  0.0000E+00  0.0000E+00  0.0000E+00  0.0000E+00  0.0000E+00  0.0000E+00
