 1 - depth, m
 2 - temperature, C
 3 - salinity, kg/kg
 4 - turbulent kinetic energy, m**2/s**2
 5 - dissipation rate, m**2/s**3
 6 - kinematic heat conductance, m**2/s
 7 - modulus of horizontal velocity, m/s
 8 - Richardson number, n/d
   -0.000000    0.00000  0.0000E+00  0.4096E-13  0.8590E-16  0.1000E-09  0.0000E+00  0.1889E+17
   -0.037500    0.29494  0.0000E+00  0.5266E-13  0.8614E-16  0.1000E-09  0.0000E+00  0.1539E+17
   -0.075000    0.55522  0.0000E+00  0.1147E-12  0.9626E-16  0.1000E-09  0.0000E+00  0.1258E+17
   -0.112500    0.78476  0.0000E+00  0.2862E-12  0.1438E-15  0.1000E-09  0.0000E+00  0.1035E+17
   -0.150001    0.98754  0.0000E+00  0.7058E-12  0.2741E-15  0.1000E-09  0.0000E+00  0.8589E+16
   -0.187502    1.16741  0.0000E+00  0.1682E-11  0.5866E-15  0.1000E-09  0.0000E+00  0.7199E+16
   -0.225003    1.32801  0.0000E+00  0.3859E-11  0.1293E-14  0.1000E-09  0.0000E+00  0.6109E+16
   -0.262505    1.47272  0.0000E+00  0.8686E-11  0.2830E-14  0.1000E-09  0.0000E+00  0.5198E+16
   -0.300007    1.60306  0.0000E+00  0.1932E-10  0.6135E-14  0.1000E-09  0.0000E+00  0.4470E+16
   -0.337509    1.72140  0.0000E+00  0.4252E-10  0.1317E-13  0.1000E-09  0.0000E+00  0.3899E+16
   -0.375011    1.83015  0.0000E+00  0.9269E-10  0.2802E-13  0.1000E-09  0.0000E+00  0.3598E+16
   -0.412514    1.93584  0.0000E+00  0.2002E-09  0.5907E-13  0.1023E-09  0.0000E+00  0.3485E+16
   -0.450016    2.04398  0.0000E+00  0.4284E-09  0.1234E-12  0.1259E-09  0.0000E+00  0.3475E+16
   -0.487519    2.15852  0.0000E+00  0.9084E-09  0.2557E-12  0.1994E-09  0.0000E+00  0.3570E+16
   -0.525022    2.28482  0.0000E+00  0.1912E-08  0.5256E-12  0.3640E-09  0.0000E+00  0.3758E+16
   -0.562525    2.42994  0.0000E+00  0.3989E-08  0.1072E-11  0.6844E-09  0.0000E+00  0.4054E+16
   -0.600028    2.60571  0.0000E+00  0.8253E-08  0.2168E-11  0.1300E-08  0.0000E+00  0.4360E+16
   -0.637532    2.82931  0.0000E+00  0.1691E-07  0.4346E-11  0.2748E-08  0.0000E+00  0.4389E+16
   -0.675035    3.12351  0.0000E+00  0.3405E-07  0.8576E-11  0.1179E-07  0.0000E+00  0.3558E+16
   -0.712538    3.49573  0.0000E+00  0.5260E-07  0.1326E-10  0.2336E-04  0.0000E+00  0.2112E+16
   -0.750041    3.80691  0.0000E+00  0.6664E-07  0.1691E-10  0.5574E-04  0.0000E+00  0.8036E+15
   -0.787545    4.00062  0.0000E+00  0.7303E-07  0.1865E-10  0.8419E-04  0.0000E+00  0.8119E+14
   -0.825048    4.05596  0.0000E+00  0.7428E-07  0.1909E-10  0.9814E-04  0.0000E+00 -0.1052E+13
   -0.862551    4.05693  0.0000E+00  0.7521E-07  0.1950E-10  0.9783E-04  0.0000E+00 -0.1080E+13
   -0.900054    4.05791  0.0000E+00  0.7602E-07  0.1996E-10  0.9763E-04  0.0000E+00 -0.1104E+13
   -0.937558    4.05889  0.0000E+00  0.7671E-07  0.2046E-10  0.9700E-04  0.0000E+00 -0.1135E+13
   -0.975061    4.05989  0.0000E+00  0.7727E-07  0.2102E-10  0.9593E-04  0.0000E+00 -0.1174E+13
   -1.012564    4.06091  0.0000E+00  0.7771E-07  0.2164E-10  0.9437E-04  0.0000E+00 -0.1227E+13
   -1.050066    4.06195  0.0000E+00  0.7800E-07  0.2234E-10  0.9231E-04  0.0000E+00 -0.1293E+13
   -1.087569    4.06304  0.0000E+00  0.7815E-07  0.2313E-10  0.8975E-04  0.0000E+00 -0.1374E+13
   -1.125071    4.06418  0.0000E+00  0.7811E-07  0.2405E-10  0.8667E-04  0.0000E+00 -0.1447E+13
   -1.162574    4.06536  0.0000E+00  0.7788E-07  0.2511E-10  0.8301E-04  0.0000E+00 -0.1533E+13
   -1.200076    4.06659  0.0000E+00  0.7744E-07  0.2637E-10  0.7876E-04  0.0000E+00 -0.1641E+13
   -1.237578    4.06788  0.0000E+00  0.7675E-07  0.2789E-10  0.7380E-04  0.0000E+00 -0.1782E+13
   -1.275079    4.06927  0.0000E+00  0.7576E-07  0.2983E-10  0.6799E-04  0.0000E+00 -0.1974E+13
   -1.312581    4.07078  0.0000E+00  0.7437E-07  0.3242E-10  0.6113E-04  0.0000E+00 -0.2249E+13
   -1.350082    4.07246  0.0000E+00  0.7243E-07  0.3612E-10  0.5337E-04  0.0000E+00 -0.2645E+13
   -1.387582    4.07440  0.0000E+00  0.6909E-07  0.4302E-10  0.3337E-04  0.0000E+00 -0.4374E+13
   -1.425083    4.07753  0.0000E+00  0.6205E-07  0.6069E-10  0.1477E-04  0.0000E+00 -0.1055E+14
   -1.462583    4.08465  0.0000E+00  0.4036E-07  0.1485E-09  0.1945E-05  0.0000E+00 -0.1009E+15
   -1.500083    4.13657  0.0000E+00  0.0000E+00  0.0000E+00  0.0000E+00  0.0000E+00  0.0000E+00
