 1 - depth, m
 2 - temperature, C
 3 - salinity, kg/kg
 4 - turbulent kinetic energy, m**2/s**2
 5 - dissipation rate, m**2/s**3
 6 - kinematic heat conductance, m**2/s
 7 - modulus of horizontal velocity, m/s
 8 - Richardson number, n/d
   -0.000000   15.94607  0.0000E+00  0.1852E-04  0.1520E-05  0.2234E-04  0.2641E-01 -0.1861E-01
   -0.037499   15.97433  0.0000E+00  0.1541E-04  0.5513E-06  0.4656E-04  0.1607E-01 -0.5035E-01
   -0.074998   15.98589  0.0000E+00  0.1371E-04  0.3017E-06  0.7068E-04  0.1225E-01 -0.8623E-01
   -0.112498   15.99333  0.0000E+00  0.1254E-04  0.1945E-06  0.9786E-04  0.9903E-02 -0.1222E+00
   -0.149998   15.99858  0.0000E+00  0.1169E-04  0.1381E-06  0.1508E-03  0.8302E-02  0.1003E+03
   -0.187498   16.00216  0.0000E+00  0.1111E-04  0.1057E-06  0.2539E-03  0.7167E-02  0.5339E+02
   -0.224998   16.00436  0.0000E+00  0.1073E-04  0.8591E-07  0.3822E-03  0.6339E-02  0.2704E+03
   -0.262499   16.00566  0.0000E+00  0.1048E-04  0.7228E-07  0.4217E-03  0.5686E-02  0.7331E+01
   -0.300000   16.00680  0.0000E+00  0.1030E-04  0.6180E-07  0.4429E-03  0.5091E-02  0.6646E+01
   -0.337502   16.00786  0.0000E+00  0.1016E-04  0.5363E-07  0.4658E-03  0.4557E-02  0.5944E+01
   -0.375003   16.00886  0.0000E+00  0.1006E-04  0.4713E-07  0.4891E-03  0.4075E-02  0.5440E+01
   -0.412505   16.00980  0.0000E+00  0.9973E-05  0.4184E-07  0.5136E-03  0.3637E-02  0.5083E+01
   -0.450006   16.01069  0.0000E+00  0.9897E-05  0.3745E-07  0.5392E-03  0.3234E-02  0.4823E+01
   -0.487508   16.01154  0.0000E+00  0.9821E-05  0.3375E-07  0.5678E-03  0.2860E-02  0.4602E+01
   -0.525010   16.01234  0.0000E+00  0.9737E-05  0.3055E-07  0.5976E-03  0.2514E-02  0.4212E+01
   -0.562513   16.01310  0.0000E+00  0.9637E-05  0.2779E-07  0.6357E-03  0.2192E-02  0.4016E+01
   -0.600015   16.01382  0.0000E+00  0.9512E-05  0.2524E-07  0.6818E-03  0.1904E-02  0.3736E+01
   -0.637517   16.01449  0.0000E+00  0.9421E-05  0.2396E-07  0.1137E-02  0.1602E-02  0.1983E+01
   -0.675020   16.01489  0.0000E+00  0.9367E-05  0.2329E-07  0.1183E-02  0.1505E-02  0.2015E+01
   -0.712522   16.01528  0.0000E+00  0.9294E-05  0.2256E-07  0.6995E-03  0.1426E-02  0.2198E+01
   -0.750025   16.01594  0.0000E+00  0.9131E-05  0.2142E-07  0.7381E-03  0.1206E-02  0.2409E+01
   -0.787527   16.01658  0.0000E+00  0.8950E-05  0.2054E-07  0.7179E-03  0.1033E-02  0.2152E+01
   -0.825030   16.01724  0.0000E+00  0.8844E-05  0.2020E-07  0.1210E-02  0.8593E-03  0.1540E+01
   -0.862532   16.01763  0.0000E+00  0.8775E-05  0.2008E-07  0.1165E-02  0.8087E-03  0.1590E+01
   -0.900034   16.01805  0.0000E+00  0.8671E-05  0.2001E-07  0.7645E-03  0.7689E-03  0.1604E+01
   -0.937537   16.01869  0.0000E+00  0.8449E-05  0.2007E-07  0.7976E-03  0.6518E-03  0.1611E+01
   -0.975039   16.01932  0.0000E+00  0.8231E-05  0.2031E-07  0.8143E-03  0.5588E-03  0.1501E+01
   -1.012541   16.01994  0.0000E+00  0.8013E-05  0.2071E-07  0.8171E-03  0.4773E-03  0.1329E+01
   -1.050043   16.02058  0.0000E+00  0.7884E-05  0.2103E-07  0.9860E-03  0.4070E-03  0.1042E+01
   -1.087545   16.02110  0.0000E+00  0.7776E-05  0.2139E-07  0.7592E-03  0.3828E-03  0.3493E+01
   -1.125046   16.02179  0.0000E+00  0.7629E-05  0.2199E-07  0.8071E-03  0.3556E-03  0.1126E+01
   -1.162548   16.02246  0.0000E+00  0.7433E-05  0.2293E-07  0.6901E-03  0.3159E-03  0.9955E+00
   -1.200049   16.02324  0.0000E+00  0.7250E-05  0.2397E-07  0.6411E-03  0.2839E-03  0.9398E+00
   -1.237550   16.02411  0.0000E+00  0.7056E-05  0.2527E-07  0.5961E-03  0.2574E-03  0.1204E+01
   -1.275051   16.02505  0.0000E+00  0.6827E-05  0.2711E-07  0.5242E-03  0.2325E-03  0.1859E+01
   -1.312552   16.02613  0.0000E+00  0.6542E-05  0.2990E-07  0.4561E-03  0.2082E-03  0.3636E+01
   -1.350052   16.02741  0.0000E+00  0.6170E-05  0.3454E-07  0.3370E-03  0.1850E-03  0.8150E+01
   -1.387552   16.02921  0.0000E+00  0.5672E-05  0.4287E-07  0.3109E-03  0.1601E-03 -0.4907E+01
   -1.425051   16.03115  0.0000E+00  0.4796E-05  0.6753E-07  0.1307E-03  0.1408E-03  0.2160E+05
   -1.462551   16.04064  0.0000E+00  0.2890E-05  0.1668E-06  0.4313E-04  0.1078E-03 -0.1395E+05
   -1.500049   16.05637  0.0000E+00  0.0000E+00  0.0000E+00  0.0000E+00  0.1163E-03  0.0000E+00
