 1 - depth, m
 2 - temperature, C
 3 - salinity, kg/kg
 4 - turbulent kinetic energy, m**2/s**2
 5 - dissipation rate, m**2/s**3
 6 - kinematic heat conductance, m**2/s
 7 - modulus of horizontal velocity, m/s
 8 - Richardson number, n/d
   -0.000000    0.90644  0.0000E+00  0.4314E-03  0.1004E-02  0.9727E-04  0.2642E+00  0.4944E-02
   -0.037495    0.93827  0.0000E+00  0.2286E-03  0.3507E-03  0.1349E-03  0.9248E-01 -0.1214E-02
   -0.074989    0.94978  0.0000E+00  0.1559E-03  0.1106E-03  0.2048E-03  0.5772E-01  0.6334E-01
   -0.112485    0.95489  0.0000E+00  0.1244E-03  0.6567E-04  0.2068E-03  0.4538E-01  0.5834E-02
   -0.149980    0.95749  0.0000E+00  0.1041E-03  0.4136E-04  0.2122E-03  0.3856E-01  0.7269E-02
   -0.187476    0.95924  0.0000E+00  0.8907E-04  0.2655E-04  0.2190E-03  0.3387E-01  0.3252E-02
   -0.224972    0.96063  0.0000E+00  0.7758E-04  0.1651E-04  0.2259E-03  0.3021E-01  0.3547E-02
   -0.262469    0.96184  0.0000E+00  0.6824E-04  0.9907E-05  0.2349E-03  0.2707E-01  0.6358E-02
   -0.299965    0.96293  0.0000E+00  0.6093E-04  0.6151E-05  0.2442E-03  0.2444E-01  0.4957E-02
   -0.337462    0.96394  0.0000E+00  0.5504E-04  0.3827E-05  0.2529E-03  0.2216E-01  0.6215E-02
   -0.374959    0.96492  0.0000E+00  0.5016E-04  0.2318E-05  0.2607E-03  0.2013E-01  0.8608E-02
   -0.412457    0.96589  0.0000E+00  0.4603E-04  0.1464E-05  0.2682E-03  0.1828E-01  0.9822E-02
   -0.449954    0.96683  0.0000E+00  0.4250E-04  0.1028E-05  0.2744E-03  0.1662E-01  0.1220E-01
   -0.487452    0.96778  0.0000E+00  0.3934E-04  0.7584E-06  0.2796E-03  0.1511E-01  0.1576E-01
   -0.524949    0.96873  0.0000E+00  0.3652E-04  0.5930E-06  0.2861E-03  0.1374E-01  0.2414E-01
   -0.562447    0.96961  0.0000E+00  0.3399E-04  0.4797E-06  0.2911E-03  0.1255E-01  0.4055E-01
   -0.599945    0.97046  0.0000E+00  0.3166E-04  0.3962E-06  0.2948E-03  0.1149E-01  0.8421E-01
   -0.637443    0.97129  0.0000E+00  0.2953E-04  0.3327E-06  0.2978E-03  0.1051E-01  0.2044E+00
   -0.674941    0.97210  0.0000E+00  0.2757E-04  0.2828E-06  0.2997E-03  0.9629E-02  0.5004E+00
   -0.712439    0.97290  0.0000E+00  0.2575E-04  0.2426E-06  0.3003E-03  0.8817E-02  0.1120E+01
   -0.749938    0.97370  0.0000E+00  0.2406E-04  0.2094E-06  0.3001E-03  0.8065E-02  0.2256E+01
   -0.787436    0.97450  0.0000E+00  0.2248E-04  0.1818E-06  0.2987E-03  0.7370E-02  0.4105E+01
   -0.824934    0.97530  0.0000E+00  0.2101E-04  0.1586E-06  0.2962E-03  0.6726E-02  0.7063E+01
   -0.862432    0.97612  0.0000E+00  0.1963E-04  0.1389E-06  0.2926E-03  0.6125E-02  0.1169E+02
   -0.899930    0.97695  0.0000E+00  0.1834E-04  0.1221E-06  0.2876E-03  0.5563E-02  0.1865E+02
   -0.937428    0.97781  0.0000E+00  0.1712E-04  0.1077E-06  0.2813E-03  0.5035E-02  0.2970E+02
   -0.974926    0.97870  0.0000E+00  0.1596E-04  0.9517E-07  0.2736E-03  0.4537E-02  0.4888E+02
   -1.012423    0.97965  0.0000E+00  0.1487E-04  0.8432E-07  0.2670E-03  0.4064E-02  0.1416E+03
   -1.049921    0.98062  0.0000E+00  0.1382E-04  0.7484E-07  0.2591E-03  0.3628E-02  0.4560E+03
   -1.087418    0.98163  0.0000E+00  0.1283E-04  0.6660E-07  0.2497E-03  0.3228E-02  0.1379E+04
   -1.124916    0.98269  0.0000E+00  0.1189E-04  0.5946E-07  0.2388E-03  0.2859E-02  0.5788E+04
   -1.162413    0.98382  0.0000E+00  0.1100E-04  0.5330E-07  0.2261E-03  0.2518E-02  0.2616E+05
   -1.199910    0.98506  0.0000E+00  0.1014E-04  0.4804E-07  0.2115E-03  0.2201E-02  0.1438E+06
   -1.237406    0.98645  0.0000E+00  0.9327E-05  0.4363E-07  0.1951E-03  0.1904E-02  0.1430E+07
   -1.274903    0.98811  0.0000E+00  0.8527E-05  0.4001E-07  0.1782E-03  0.1626E-02  0.2751E+08
   -1.312399    0.98992  0.0000E+00  0.7732E-05  0.3727E-07  0.1576E-03  0.1378E-02  0.1069E+10
   -1.349895    0.99205  0.0000E+00  0.6919E-05  0.3568E-07  0.1325E-03  0.1158E-02  0.6567E+12
   -1.387390    0.99473  0.0000E+00  0.6045E-05  0.3599E-07  0.1017E-03  0.9633E-03  0.9893E+10
   -1.424886    0.99857  0.0000E+00  0.4992E-05  0.4101E-07  0.6309E-04  0.7914E-03  0.3447E+08
   -1.462381    1.00607  0.0000E+00  0.2545E-05  0.8483E-07  0.9055E-05  0.6454E-03  0.2820E+06
   -1.499875    1.05562  0.0000E+00  0.0000E+00  0.0000E+00  0.0000E+00  0.6471E-03  0.0000E+00
