 1 - depth, m
 2 - temperature, C
 3 - salinity, kg/kg
 4 - turbulent kinetic energy, m**2/s**2
 5 - dissipation rate, m**2/s**3
 6 - kinematic heat conductance, m**2/s
 7 - modulus of horizontal velocity, m/s
 8 - Richardson number, n/d
   -0.000000    0.00000  0.0000E+00  0.4096E-13  0.8589E-16  0.1000E-09  0.0000E+00  0.8175E+16
   -0.037501    0.12472  0.0000E+00  0.4096E-13  0.8589E-16  0.1000E-09  0.0000E+00  0.7921E+16
   -0.075003    0.24980  0.0000E+00  0.4096E-13  0.8589E-16  0.1000E-09  0.0000E+00  0.7649E+16
   -0.112505    0.37497  0.0000E+00  0.4096E-13  0.8589E-16  0.1000E-09  0.0000E+00  0.7364E+16
   -0.150007    0.49999  0.0000E+00  0.4096E-13  0.8589E-16  0.1000E-09  0.0000E+00  0.7071E+16
   -0.187510    0.62467  0.0000E+00  0.4096E-13  0.8589E-16  0.1000E-09  0.0000E+00  0.6773E+16
   -0.225013    0.74887  0.0000E+00  0.4096E-13  0.8589E-16  0.1000E-09  0.0000E+00  0.6474E+16
   -0.262516    0.87246  0.0000E+00  0.4096E-13  0.8589E-16  0.1000E-09  0.0000E+00  0.6170E+16
   -0.300019    0.99526  0.0000E+00  0.4096E-13  0.8589E-16  0.1000E-09  0.0000E+00  0.5867E+16
   -0.337523    1.11715  0.0000E+00  0.4096E-13  0.8589E-16  0.1000E-09  0.0000E+00  0.5565E+16
   -0.375027    1.23802  0.0000E+00  0.4096E-13  0.8589E-16  0.1000E-09  0.0000E+00  0.5277E+16
   -0.412531    1.35801  0.0000E+00  0.4096E-13  0.8589E-16  0.1000E-09  0.0000E+00  0.4997E+16
   -0.450035    1.47716  0.0000E+00  0.4096E-13  0.8589E-16  0.1000E-09  0.0000E+00  0.4721E+16
   -0.487539    1.59540  0.0000E+00  0.4096E-13  0.8589E-16  0.1000E-09  0.0000E+00  0.4447E+16
   -0.525044    1.71264  0.0000E+00  0.4096E-13  0.8589E-16  0.1000E-09  0.0000E+00  0.4176E+16
   -0.562548    1.82874  0.0000E+00  0.4096E-13  0.8589E-16  0.1000E-09  0.0000E+00  0.3908E+16
   -0.600053    1.94360  0.0000E+00  0.4096E-13  0.8589E-16  0.1000E-09  0.0000E+00  0.3647E+16
   -0.637558    2.05715  0.0000E+00  0.4096E-13  0.8589E-16  0.1000E-09  0.0000E+00  0.3390E+16
   -0.675062    2.16928  0.0000E+00  0.4096E-13  0.8589E-16  0.1000E-09  0.0000E+00  0.3140E+16
   -0.712567    2.27991  0.0000E+00  0.4096E-13  0.8589E-16  0.1000E-09  0.0000E+00  0.2897E+16
   -0.750072    2.38893  0.0000E+00  0.4096E-13  0.8589E-16  0.1000E-09  0.0000E+00  0.2671E+16
   -0.787577    2.49673  0.0000E+00  0.4096E-13  0.8589E-16  0.1000E-09  0.0000E+00  0.2455E+16
   -0.825082    2.60339  0.0000E+00  0.4096E-13  0.8589E-16  0.1000E-09  0.0000E+00  0.2244E+16
   -0.862587    2.70884  0.0000E+00  0.4096E-13  0.8589E-16  0.1000E-09  0.0000E+00  0.2039E+16
   -0.900091    2.81301  0.0000E+00  0.4096E-13  0.8589E-16  0.1000E-09  0.0000E+00  0.1839E+16
   -0.937596    2.91582  0.0000E+00  0.4096E-13  0.8589E-16  0.1000E-09  0.0000E+00  0.1646E+16
   -0.975101    3.01718  0.0000E+00  0.4096E-13  0.8589E-16  0.1000E-09  0.0000E+00  0.1459E+16
   -1.012605    3.11701  0.0000E+00  0.4096E-13  0.8589E-16  0.1000E-09  0.0000E+00  0.1275E+16
   -1.050109    3.21498  0.0000E+00  0.8823E-13  0.8826E-16  0.1000E-09  0.0000E+00  0.1099E+16
   -1.087613    3.31087  0.0000E+00  0.3063E-12  0.2169E-15  0.1000E-09  0.0000E+00  0.9309E+15
   -1.125117    3.40447  0.0000E+00  0.9504E-12  0.6298E-15  0.1000E-09  0.0000E+00  0.7854E+15
   -1.162621    3.49732  0.0000E+00  0.2837E-11  0.1820E-14  0.1000E-09  0.0000E+00  0.6449E+15
   -1.200125    3.58964  0.0000E+00  0.8328E-11  0.5195E-14  0.1000E-09  0.0000E+00  0.5071E+15
   -1.237628    3.68140  0.0000E+00  0.2415E-10  0.1468E-13  0.1074E-09  0.0000E+00  0.3721E+15
   -1.275131    3.77263  0.0000E+00  0.7008E-10  0.4156E-13  0.4650E-09  0.0000E+00  0.2397E+15
   -1.312634    3.86327  0.0000E+00  0.2023E-09  0.1174E-12  0.2776E-08  0.0000E+00  0.1096E+15
   -1.350137    3.95218  0.0000E+00  0.5687E-09  0.3269E-12  0.7723E-07  0.0000E+00  0.4517E+13
   -1.387639    4.01092  0.0000E+00  0.1332E-08  0.8760E-12  0.7905E-06  0.0000E+00 -0.6853E+13
   -1.425141    4.02479  0.0000E+00  0.1645E-08  0.1487E-11  0.6410E-06  0.0000E+00 -0.1236E+14
   -1.462643    4.04162  0.0000E+00  0.1446E-08  0.2750E-11  0.2042E-06  0.0000E+00 -0.4597E+14
   -1.500144    4.08083  0.0000E+00  0.0000E+00  0.0000E+00  0.0000E+00  0.0000E+00  0.0000E+00
