 1 - depth, m
 2 - temperature, C
 3 - salinity, kg/kg
 4 - turbulent kinetic energy, m**2/s**2
 5 - dissipation rate, m**2/s**3
 6 - kinematic heat conductance, m**2/s
 7 - modulus of horizontal velocity, m/s
 8 - Richardson number, n/d
   -0.000000    0.00000  0.0000E+00  0.4096E-13  0.8590E-16  0.1000E-09  0.0000E+00  0.1046E+17
   -0.037499    0.16034  0.0000E+00  0.4096E-13  0.8590E-16  0.1000E-09  0.0000E+00  0.9900E+16
   -0.074998    0.31900  0.0000E+00  0.4096E-13  0.8590E-16  0.1000E-09  0.0000E+00  0.9345E+16
   -0.112497    0.47576  0.0000E+00  0.4096E-13  0.8590E-16  0.1000E-09  0.0000E+00  0.8797E+16
   -0.149997    0.63044  0.0000E+00  0.4096E-13  0.8590E-16  0.1000E-09  0.0000E+00  0.8261E+16
   -0.187497    0.78288  0.0000E+00  0.4096E-13  0.8590E-16  0.1000E-09  0.0000E+00  0.7738E+16
   -0.224997    0.93297  0.0000E+00  0.4096E-13  0.8590E-16  0.1000E-09  0.0000E+00  0.7232E+16
   -0.262498    1.08062  0.0000E+00  0.4096E-13  0.8590E-16  0.1000E-09  0.0000E+00  0.6732E+16
   -0.299998    1.22549  0.0000E+00  0.4096E-13  0.8590E-16  0.1000E-09  0.0000E+00  0.6249E+16
   -0.337499    1.36748  0.0000E+00  0.4096E-13  0.8590E-16  0.1000E-09  0.0000E+00  0.5786E+16
   -0.375001    1.50653  0.0000E+00  0.4096E-13  0.8590E-16  0.1000E-09  0.0000E+00  0.5381E+16
   -0.412502    1.64356  0.0000E+00  0.4096E-13  0.8590E-16  0.1000E-09  0.0000E+00  0.5012E+16
   -0.450004    1.77915  0.0000E+00  0.4096E-13  0.8590E-16  0.1000E-09  0.0000E+00  0.4656E+16
   -0.487505    1.91334  0.0000E+00  0.1544E-12  0.8590E-16  0.1000E-09  0.0000E+00  0.4311E+16
   -0.525007    2.04614  0.0000E+00  0.4336E-12  0.1169E-15  0.1000E-09  0.0000E+00  0.3972E+16
   -0.562509    2.17742  0.0000E+00  0.9417E-12  0.2050E-15  0.1000E-09  0.0000E+00  0.3646E+16
   -0.600011    2.30721  0.0000E+00  0.1852E-11  0.3744E-15  0.1000E-09  0.0000E+00  0.3332E+16
   -0.637513    2.43556  0.0000E+00  0.3498E-11  0.6825E-15  0.1000E-09  0.0000E+00  0.3029E+16
   -0.675016    2.56250  0.0000E+00  0.6485E-11  0.1235E-14  0.1000E-09  0.0000E+00  0.2736E+16
   -0.712518    2.68810  0.0000E+00  0.1191E-10  0.2222E-14  0.1000E-09  0.0000E+00  0.2455E+16
   -0.750020    2.81241  0.0000E+00  0.2171E-10  0.3974E-14  0.1000E-09  0.0000E+00  0.2213E+16
   -0.787522    2.93728  0.0000E+00  0.3938E-10  0.7071E-14  0.1000E-09  0.0000E+00  0.1980E+16
   -0.825025    3.06350  0.0000E+00  0.7107E-10  0.1252E-13  0.1000E-09  0.0000E+00  0.1743E+16
   -0.862527    3.19126  0.0000E+00  0.1277E-09  0.2208E-13  0.1000E-09  0.0000E+00  0.1499E+16
   -0.900029    3.32077  0.0000E+00  0.2282E-09  0.3876E-13  0.1000E-09  0.0000E+00  0.1247E+16
   -0.937531    3.45217  0.0000E+00  0.4062E-09  0.6774E-13  0.1912E-09  0.0000E+00  0.9834E+15
   -0.975033    3.58545  0.0000E+00  0.7199E-09  0.1179E-12  0.4618E-09  0.0000E+00  0.7087E+15
   -1.012535    3.72044  0.0000E+00  0.1272E-08  0.2046E-12  0.1341E-08  0.0000E+00  0.4234E+15
   -1.050037    3.85666  0.0000E+00  0.2238E-08  0.3540E-12  0.7440E-08  0.0000E+00  0.1318E+15
   -1.087538    3.98923  0.0000E+00  0.3014E-08  0.4786E-12  0.4856E-05  0.0000E+00 -0.3058E+12
   -1.125040    3.99324  0.0000E+00  0.3481E-08  0.5735E-12  0.6685E-05  0.0000E+00 -0.3859E+12
   -1.162541    3.99618  0.0000E+00  0.3890E-08  0.6760E-12  0.7684E-05  0.0000E+00 -0.4497E+12
   -1.200042    3.99875  0.0000E+00  0.4246E-08  0.7897E-12  0.8122E-05  0.0000E+00 -0.5249E+12
   -1.237543    4.00120  0.0000E+00  0.4545E-08  0.9199E-12  0.8095E-05  0.0000E+00 -0.6259E+12
   -1.275043    4.00368  0.0000E+00  0.4781E-08  0.1078E-11  0.7632E-05  0.0000E+00 -0.7768E+12
   -1.312543    4.00633  0.0000E+00  0.4938E-08  0.1285E-11  0.6725E-05  0.0000E+00 -0.1026E+13
   -1.350043    4.00937  0.0000E+00  0.4980E-08  0.1582E-11  0.5385E-05  0.0000E+00 -0.1504E+13
   -1.387543    4.01322  0.0000E+00  0.4833E-08  0.2073E-11  0.3660E-05  0.0000E+00 -0.2660E+13
   -1.425043    4.01892  0.0000E+00  0.4322E-08  0.3118E-11  0.1762E-05  0.0000E+00 -0.7073E+13
   -1.462542    4.03066  0.0000E+00  0.3136E-08  0.6510E-11  0.3602E-06  0.0000E+00 -0.4928E+14
   -1.500040    4.07722  0.0000E+00  0.0000E+00  0.0000E+00  0.0000E+00  0.0000E+00  0.0000E+00
