 1 - depth, m
 2 - temperature, C
 3 - salinity, kg/kg
 4 - turbulent kinetic energy, m**2/s**2
 5 - dissipation rate, m**2/s**3
 6 - kinematic heat conductance, m**2/s
 7 - modulus of horizontal velocity, m/s
 8 - Richardson number, n/d
   -0.000000    0.00000  0.0000E+00  0.4096E-13  0.8590E-16  0.1000E-09  0.0000E+00  0.1128E+17
   -0.037498    0.17323  0.0000E+00  0.4096E-13  0.8590E-16  0.1000E-09  0.0000E+00  0.1055E+17
   -0.074997    0.34323  0.0000E+00  0.4096E-13  0.8590E-16  0.1000E-09  0.0000E+00  0.9842E+16
   -0.112495    0.50976  0.0000E+00  0.4096E-13  0.8590E-16  0.1000E-09  0.0000E+00  0.9152E+16
   -0.149994    0.67259  0.0000E+00  0.4096E-13  0.8590E-16  0.1000E-09  0.0000E+00  0.8486E+16
   -0.187494    0.83150  0.0000E+00  0.4096E-13  0.8590E-16  0.1000E-09  0.0000E+00  0.7845E+16
   -0.224994    0.98632  0.0000E+00  0.4096E-13  0.8590E-16  0.1000E-09  0.0000E+00  0.7232E+16
   -0.262494    1.13687  0.0000E+00  0.4096E-13  0.8590E-16  0.1000E-09  0.0000E+00  0.6632E+16
   -0.299994    1.28266  0.0000E+00  0.4096E-13  0.8590E-16  0.1000E-09  0.0000E+00  0.6060E+16
   -0.337494    1.42346  0.0000E+00  0.4096E-13  0.8590E-16  0.1000E-09  0.0000E+00  0.5520E+16
   -0.374995    1.55911  0.0000E+00  0.4096E-13  0.8590E-16  0.1000E-09  0.0000E+00  0.5074E+16
   -0.412496    1.69117  0.0000E+00  0.4096E-13  0.8590E-16  0.1000E-09  0.0000E+00  0.4688E+16
   -0.449997    1.82061  0.0000E+00  0.4096E-13  0.8590E-16  0.1000E-09  0.0000E+00  0.4318E+16
   -0.487498    1.94737  0.0000E+00  0.4096E-13  0.8590E-16  0.1000E-09  0.0000E+00  0.3964E+16
   -0.524999    2.07138  0.0000E+00  0.4096E-13  0.8590E-16  0.1000E-09  0.0000E+00  0.3622E+16
   -0.562500    2.19241  0.0000E+00  0.4096E-13  0.8590E-16  0.1000E-09  0.0000E+00  0.3297E+16
   -0.600002    2.31039  0.0000E+00  0.4096E-13  0.8590E-16  0.1000E-09  0.0000E+00  0.2988E+16
   -0.637504    2.42524  0.0000E+00  0.4096E-13  0.8590E-16  0.1000E-09  0.0000E+00  0.2697E+16
   -0.675005    2.53689  0.0000E+00  0.4096E-13  0.8590E-16  0.1000E-09  0.0000E+00  0.2422E+16
   -0.712507    2.64526  0.0000E+00  0.1071E-12  0.8590E-16  0.1000E-09  0.0000E+00  0.2164E+16
   -0.750008    2.75028  0.0000E+00  0.3367E-12  0.1212E-15  0.1000E-09  0.0000E+00  0.1956E+16
   -0.787510    2.85372  0.0000E+00  0.8050E-12  0.2376E-15  0.1000E-09  0.0000E+00  0.1767E+16
   -0.825012    2.95627  0.0000E+00  0.1742E-11  0.4830E-15  0.1000E-09  0.0000E+00  0.1586E+16
   -0.862513    3.05804  0.0000E+00  0.3633E-11  0.9756E-15  0.1000E-09  0.0000E+00  0.1410E+16
   -0.900015    3.15919  0.0000E+00  0.7452E-11  0.1952E-14  0.1000E-09  0.0000E+00  0.1241E+16
   -0.937516    3.25993  0.0000E+00  0.1513E-10  0.3876E-14  0.1000E-09  0.0000E+00  0.1077E+16
   -0.975018    3.36051  0.0000E+00  0.3049E-10  0.7641E-14  0.1000E-09  0.0000E+00  0.9164E+15
   -1.012519    3.46126  0.0000E+00  0.6114E-10  0.1499E-13  0.1000E-09  0.0000E+00  0.7587E+15
   -1.050020    3.56259  0.0000E+00  0.1222E-09  0.2934E-13  0.1353E-09  0.0000E+00  0.6008E+15
   -1.087521    3.66494  0.0000E+00  0.2430E-09  0.5714E-13  0.3599E-09  0.0000E+00  0.4395E+15
   -1.125022    3.76860  0.0000E+00  0.4805E-09  0.1107E-12  0.1122E-08  0.0000E+00  0.2729E+15
   -1.162523    3.87389  0.0000E+00  0.9426E-09  0.2129E-12  0.5994E-08  0.0000E+00  0.9828E+14
   -1.200023    3.97794  0.0000E+00  0.1634E-08  0.3672E-12  0.1067E-05  0.0000E+00  0.4350E+12
   -1.237523    3.99540  0.0000E+00  0.2258E-08  0.5438E-12  0.3159E-05  0.0000E+00 -0.8521E+12
   -1.275023    4.00021  0.0000E+00  0.2721E-08  0.7215E-12  0.3650E-05  0.0000E+00 -0.1065E+13
   -1.312523    4.00448  0.0000E+00  0.3092E-08  0.9371E-12  0.3643E-05  0.0000E+00 -0.1396E+13
   -1.350022    4.00887  0.0000E+00  0.3350E-08  0.1227E-11  0.3203E-05  0.0000E+00 -0.2020E+13
   -1.387522    4.01401  0.0000E+00  0.3443E-08  0.1679E-11  0.2369E-05  0.0000E+00 -0.3504E+13
   -1.425020    4.02118  0.0000E+00  0.3247E-08  0.2576E-11  0.1265E-05  0.0000E+00 -0.8844E+13
   -1.462519    4.03474  0.0000E+00  0.2540E-08  0.5236E-11  0.3110E-06  0.0000E+00 -0.5126E+14
   -1.500017    4.08064  0.0000E+00  0.0000E+00  0.0000E+00  0.0000E+00  0.0000E+00  0.0000E+00
