 1 - depth, m
 2 - temperature, C
 3 - salinity, kg/kg
 4 - turbulent kinetic energy, m**2/s**2
 5 - dissipation rate, m**2/s**3
 6 - kinematic heat conductance, m**2/s
 7 - modulus of horizontal velocity, m/s
 8 - Richardson number, n/d
   -0.000000    1.40709  0.0000E+00  0.8357E-03  0.6093E-02  0.9515E-04  0.3793E+00  0.1042E+00
   -0.037498    1.43890  0.0000E+00  0.4551E-03  0.3410E-02  0.1797E-03  0.1370E+00  0.1012E-01
   -0.074997    1.45933  0.0000E+00  0.3005E-03  0.1167E-02  0.2501E-03  0.8381E-01  0.2148E-01
   -0.112496    1.47329  0.0000E+00  0.2415E-03  0.7939E-03  0.2902E-03  0.6568E-01  0.6962E-02
   -0.149996    1.48500  0.0000E+00  0.2043E-03  0.5571E-03  0.2976E-03  0.5616E-01  0.3402E-01
   -0.187495    1.49651  0.0000E+00  0.1766E-03  0.3902E-03  0.3041E-03  0.4970E-01  0.5096E-01
   -0.224996    1.50903  0.0000E+00  0.1554E-03  0.2738E-03  0.3099E-03  0.4501E-01  0.2468E-01
   -0.262496    1.52437  0.0000E+00  0.1379E-03  0.1914E-03  0.3151E-03  0.4106E-01  0.1008E+00
   -0.299996    1.54882  0.0000E+00  0.1238E-03  0.1331E-03  0.3188E-03  0.3766E-01  0.1517E+00
   -0.337497    1.65343  0.0000E+00  0.1120E-03  0.9196E-04  0.3231E-03  0.3444E-01  0.2218E+00
   -0.374998    1.89701  0.0000E+00  0.1021E-03  0.6300E-04  0.3292E-03  0.3147E-01  0.1619E+00
   -0.412499    2.07326  0.0000E+00  0.9419E-04  0.4275E-04  0.3384E-03  0.2889E-01  0.1126E+00
   -0.450000    2.21218  0.0000E+00  0.8707E-04  0.2874E-04  0.3407E-03  0.2646E-01  0.2126E-01
   -0.487502    2.32944  0.0000E+00  0.8100E-04  0.1929E-04  0.3453E-03  0.2432E-01  0.3804E+02
   -0.525004    2.43098  0.0000E+00  0.7548E-04  0.1316E-04  0.3571E-03  0.2223E-01  0.1006E+03
   -0.562505    2.53101  0.0000E+00  0.7107E-04  0.8208E-05  0.3502E-03  0.2047E-01  0.2347E+02
   -0.600007    2.64983  0.0000E+00  0.6623E-04  0.5167E-05  0.3703E-03  0.1786E-01  0.1004E+03
   -0.637509    2.76452  0.0000E+00  0.6224E-04  0.3593E-05  0.3775E-03  0.1647E-01  0.3752E+04
   -0.675011    2.82280  0.0000E+00  0.5863E-04  0.2565E-05  0.3817E-03  0.1526E-01  0.2999E+03
   -0.712513    2.90358  0.0000E+00  0.5531E-04  0.1884E-05  0.3860E-03  0.1410E-01  0.7373E+03
   -0.750015    2.99588  0.0000E+00  0.5229E-04  0.1429E-05  0.3910E-03  0.1305E-01  0.2596E+03
   -0.787517    3.04518  0.0000E+00  0.4953E-04  0.1120E-05  0.3951E-03  0.1213E-01  0.6753E+03
   -0.825019    3.08460  0.0000E+00  0.4699E-04  0.9050E-06  0.3966E-03  0.1130E-01  0.5802E+03
   -0.862521    3.11353  0.0000E+00  0.4461E-04  0.7513E-06  0.3977E-03  0.1051E-01  0.1150E+04
   -0.900023    3.14262  0.0000E+00  0.4239E-04  0.6392E-06  0.3972E-03  0.9790E-02  0.1670E+03
   -0.937524    3.17179  0.0000E+00  0.4030E-04  0.5552E-06  0.3937E-03  0.9114E-02  0.1155E+04
   -0.975026    3.19513  0.0000E+00  0.3830E-04  0.4903E-06  0.3881E-03  0.8470E-02  0.1030E+04
   -1.012528    3.21525  0.0000E+00  0.3634E-04  0.4389E-06  0.3827E-03  0.7837E-02  0.2330E+03
   -1.050029    3.23421  0.0000E+00  0.3445E-04  0.3976E-06  0.3750E-03  0.7270E-02  0.4811E+03
   -1.087530    3.25033  0.0000E+00  0.3261E-04  0.3642E-06  0.3644E-03  0.6750E-02  0.5739E+03
   -1.125032    3.26338  0.0000E+00  0.3079E-04  0.3370E-06  0.3503E-03  0.6262E-02  0.4355E+03
   -1.162533    3.27608  0.0000E+00  0.2898E-04  0.3152E-06  0.3329E-03  0.5796E-02  0.1466E+04
   -1.200033    3.28806  0.0000E+00  0.2715E-04  0.2989E-06  0.3154E-03  0.5348E-02  0.5228E+05
   -1.237534    3.29907  0.0000E+00  0.2528E-04  0.2885E-06  0.2880E-03  0.4913E-02  0.4537E+04
   -1.275034    3.30998  0.0000E+00  0.2329E-04  0.2853E-06  0.2579E-03  0.4479E-02  0.2604E+05
   -1.312534    3.32047  0.0000E+00  0.2114E-04  0.2942E-06  0.2250E-03  0.4067E-02  0.7844E+05
   -1.350034    3.33062  0.0000E+00  0.1874E-04  0.3251E-06  0.1855E-03  0.3675E-02  0.7010E+06
   -1.387533    3.34092  0.0000E+00  0.1590E-04  0.4024E-06  0.1392E-03  0.3285E-02  0.4547E+08
   -1.425032    3.35274  0.0000E+00  0.1226E-04  0.6101E-06  0.7893E-04  0.2869E-02  0.5748E+07
   -1.462531    3.37293  0.0000E+00  0.6871E-05  0.1493E-05  0.1566E-04  0.2402E-02 -0.1759E+09
   -1.500030    3.49691  0.0000E+00  0.0000E+00  0.0000E+00  0.0000E+00  0.2601E-02  0.0000E+00
