 1 - depth, m
 2 - temperature, C
 3 - salinity, kg/kg
 4 - turbulent kinetic energy, m**2/s**2
 5 - dissipation rate, m**2/s**3
 6 - kinematic heat conductance, m**2/s
 7 - modulus of horizontal velocity, m/s
 8 - Richardson number, n/d
   -0.000000    0.00000  0.0000E+00  0.4096E-13  0.8590E-16  0.1000E-09  0.0000E+00  0.9161E+16
   -0.037497    0.14005  0.0000E+00  0.4096E-13  0.8590E-16  0.1000E-09  0.0000E+00  0.8694E+16
   -0.074993    0.27818  0.0000E+00  0.4096E-13  0.8590E-16  0.1000E-09  0.0000E+00  0.8244E+16
   -0.112491    0.41442  0.0000E+00  0.4096E-13  0.8590E-16  0.1000E-09  0.0000E+00  0.7811E+16
   -0.149988    0.54879  0.0000E+00  0.4096E-13  0.8590E-16  0.1000E-09  0.0000E+00  0.7393E+16
   -0.187486    0.68130  0.0000E+00  0.4096E-13  0.8590E-16  0.1000E-09  0.0000E+00  0.6989E+16
   -0.224984    0.81196  0.0000E+00  0.4096E-13  0.8590E-16  0.1000E-09  0.0000E+00  0.6599E+16
   -0.262483    0.94075  0.0000E+00  0.4096E-13  0.8590E-16  0.1000E-09  0.0000E+00  0.6218E+16
   -0.299981    1.06757  0.0000E+00  0.4096E-13  0.8590E-16  0.1000E-09  0.0000E+00  0.5848E+16
   -0.337480    1.19237  0.0000E+00  0.4096E-13  0.8590E-16  0.1000E-09  0.0000E+00  0.5491E+16
   -0.374979    1.31510  0.0000E+00  0.4096E-13  0.8590E-16  0.1000E-09  0.0000E+00  0.5168E+16
   -0.412479    1.43626  0.0000E+00  0.4096E-13  0.8590E-16  0.1000E-09  0.0000E+00  0.4867E+16
   -0.449978    1.55611  0.0000E+00  0.4096E-13  0.8590E-16  0.1000E-09  0.0000E+00  0.4574E+16
   -0.487478    1.67463  0.0000E+00  0.4096E-13  0.8590E-16  0.1000E-09  0.0000E+00  0.4288E+16
   -0.524977    1.79180  0.0000E+00  0.4096E-13  0.8590E-16  0.1000E-09  0.0000E+00  0.4008E+16
   -0.562477    1.90750  0.0000E+00  0.4096E-13  0.8590E-16  0.1000E-09  0.0000E+00  0.3736E+16
   -0.599977    2.02171  0.0000E+00  0.4096E-13  0.8590E-16  0.1000E-09  0.0000E+00  0.3472E+16
   -0.637477    2.13437  0.0000E+00  0.4096E-13  0.8590E-16  0.1000E-09  0.0000E+00  0.3216E+16
   -0.674977    2.24542  0.0000E+00  0.4096E-13  0.8590E-16  0.1000E-09  0.0000E+00  0.2968E+16
   -0.712477    2.35481  0.0000E+00  0.4096E-13  0.8590E-16  0.1000E-09  0.0000E+00  0.2729E+16
   -0.749977    2.46246  0.0000E+00  0.4096E-13  0.8590E-16  0.1000E-09  0.0000E+00  0.2515E+16
   -0.787477    2.56910  0.0000E+00  0.4096E-13  0.8590E-16  0.1000E-09  0.0000E+00  0.2312E+16
   -0.824978    2.67495  0.0000E+00  0.4096E-13  0.8590E-16  0.1000E-09  0.0000E+00  0.2113E+16
   -0.862478    2.77998  0.0000E+00  0.4096E-13  0.8590E-16  0.1000E-09  0.0000E+00  0.1918E+16
   -0.899978    2.88414  0.0000E+00  0.4096E-13  0.8590E-16  0.1000E-09  0.0000E+00  0.1728E+16
   -0.937478    2.98742  0.0000E+00  0.5600E-13  0.8590E-16  0.1000E-09  0.0000E+00  0.1542E+16
   -0.974977    3.08975  0.0000E+00  0.2336E-12  0.1382E-15  0.1000E-09  0.0000E+00  0.1361E+16
   -1.012477    3.19108  0.0000E+00  0.6815E-12  0.3401E-15  0.1000E-09  0.0000E+00  0.1185E+16
   -1.049977    3.29138  0.0000E+00  0.1802E-11  0.8561E-15  0.1000E-09  0.0000E+00  0.1013E+16
   -1.087476    3.39058  0.0000E+00  0.4621E-11  0.2128E-14  0.1000E-09  0.0000E+00  0.8466E+15
   -1.124975    3.48858  0.0000E+00  0.1168E-10  0.5231E-14  0.1000E-09  0.0000E+00  0.6934E+15
   -1.162475    3.58651  0.0000E+00  0.2919E-10  0.1273E-13  0.1000E-09  0.0000E+00  0.5419E+15
   -1.199973    3.68459  0.0000E+00  0.7226E-10  0.3071E-13  0.2161E-09  0.0000E+00  0.3901E+15
   -1.237472    3.78277  0.0000E+00  0.1772E-09  0.7346E-13  0.8417E-09  0.0000E+00  0.2380E+15
   -1.274970    3.88087  0.0000E+00  0.4342E-09  0.1759E-12  0.5394E-08  0.0000E+00  0.8649E+14
   -1.312469    3.97707  0.0000E+00  0.9995E-09  0.4005E-12  0.4416E-06  0.0000E+00 -0.1192E+13
   -1.349966    4.00175  0.0000E+00  0.1701E-08  0.8011E-12  0.1287E-05  0.0000E+00 -0.3369E+13
   -1.387464    4.01216  0.0000E+00  0.2169E-08  0.1294E-11  0.1283E-05  0.0000E+00 -0.5377E+13
   -1.424961    4.02312  0.0000E+00  0.2341E-08  0.2106E-11  0.8574E-06  0.0000E+00 -0.1178E+14
   -1.462458    4.03979  0.0000E+00  0.2030E-08  0.4166E-11  0.2644E-06  0.0000E+00 -0.5333E+14
   -1.499955    4.08467  0.0000E+00  0.0000E+00  0.0000E+00  0.0000E+00  0.0000E+00  0.0000E+00
