 1 - depth, m
 2 - temperature, C
 3 - salinity, kg/kg
 4 - turbulent kinetic energy, m**2/s**2
 5 - dissipation rate, m**2/s**3
 6 - kinematic heat conductance, m**2/s
 7 - modulus of horizontal velocity, m/s
 8 - Richardson number, n/d
   -0.000000   13.05420  0.0000E+00  0.3261E-03  0.9118E-03  0.5957E-04  0.1994E+00 -0.4344E-01
   -0.037494   13.11673  0.0000E+00  0.1750E-03  0.3112E-03  0.1087E-03  0.7072E-01 -0.3445E-01
   -0.074988   13.14796  0.0000E+00  0.1175E-03  0.1049E-03  0.1637E-03  0.4327E-01 -0.1218E+00
   -0.112482   13.16087  0.0000E+00  0.9237E-04  0.6070E-04  0.1817E-03  0.3346E-01  0.2210E+02
   -0.149977   13.16691  0.0000E+00  0.7626E-04  0.3643E-04  0.1921E-03  0.2806E-01  0.2759E+01
   -0.187472   13.17085  0.0000E+00  0.6486E-04  0.2238E-04  0.2070E-03  0.2427E-01  0.4568E+01
   -0.224967   13.17373  0.0000E+00  0.5623E-04  0.1379E-04  0.2238E-03  0.2134E-01  0.1298E+03
   -0.262463   13.17618  0.0000E+00  0.4954E-04  0.8543E-05  0.2437E-03  0.1886E-01  0.2695E+01
   -0.299958   13.17813  0.0000E+00  0.4419E-04  0.5311E-05  0.2651E-03  0.1686E-01  0.1104E+01
   -0.337454   13.17983  0.0000E+00  0.3991E-04  0.3340E-05  0.2851E-03  0.1519E-01  0.3078E+01
   -0.374951   13.18139  0.0000E+00  0.3640E-04  0.2146E-05  0.3072E-03  0.1371E-01  0.1416E+01
   -0.412447   13.18282  0.0000E+00  0.3351E-04  0.1424E-05  0.3298E-03  0.1245E-01  0.5768E+02
   -0.449943   13.18414  0.0000E+00  0.3108E-04  0.9837E-06  0.3527E-03  0.1132E-01  0.1834E+02
   -0.487440   13.18537  0.0000E+00  0.2897E-04  0.7086E-06  0.3760E-03  0.1031E-01  0.6182E+01
   -0.524937   13.18662  0.0000E+00  0.2709E-04  0.5309E-06  0.4018E-03  0.9360E-02  0.6546E+01
   -0.562434   13.18768  0.0000E+00  0.2544E-04  0.4129E-06  0.4307E-03  0.8573E-02  0.1470E+02
   -0.599931   13.18866  0.0000E+00  0.2397E-04  0.3310E-06  0.4600E-03  0.7871E-02  0.6426E+02
   -0.637428   13.18957  0.0000E+00  0.2266E-04  0.2723E-06  0.4929E-03  0.7237E-02  0.1482E+03
   -0.674925   13.19042  0.0000E+00  0.2147E-04  0.2290E-06  0.5334E-03  0.6661E-02  0.7788E+01
   -0.712423   13.19119  0.0000E+00  0.2039E-04  0.1961E-06  0.5692E-03  0.6136E-02  0.4800E+02
   -0.749920   13.19191  0.0000E+00  0.1940E-04  0.1702E-06  0.6155E-03  0.5651E-02  0.3019E+02
   -0.787417   13.19257  0.0000E+00  0.1848E-04  0.1491E-06  0.6552E-03  0.5200E-02  0.1626E+02
   -0.824914   13.19319  0.0000E+00  0.1761E-04  0.1317E-06  0.6875E-03  0.4777E-02  0.3680E+02
   -0.862411   13.19376  0.0000E+00  0.1679E-04  0.1173E-06  0.7062E-03  0.4378E-02  0.1646E+02
   -0.899909   13.19431  0.0000E+00  0.1600E-04  0.1050E-06  0.7151E-03  0.4000E-02  0.1743E+02
   -0.937406   13.19484  0.0000E+00  0.1524E-04  0.9449E-07  0.7212E-03  0.3642E-02  0.1794E+02
   -0.974903   13.19535  0.0000E+00  0.1449E-04  0.8545E-07  0.7203E-03  0.3301E-02  0.2094E+02
   -1.012399   13.19586  0.0000E+00  0.1375E-04  0.7761E-07  0.7165E-03  0.2975E-02  0.3908E+02
   -1.049896   13.19637  0.0000E+00  0.1301E-04  0.7080E-07  0.7073E-03  0.2670E-02  0.1203E+02
   -1.087393   13.19688  0.0000E+00  0.1227E-04  0.6492E-07  0.6890E-03  0.2387E-02  0.1985E+02
   -1.124889   13.19739  0.0000E+00  0.1153E-04  0.5995E-07  0.6633E-03  0.2124E-02  0.4006E+01
   -1.162385   13.19792  0.0000E+00  0.1078E-04  0.5593E-07  0.6279E-03  0.1879E-02  0.7937E+01
   -1.199881   13.19849  0.0000E+00  0.1003E-04  0.5295E-07  0.5844E-03  0.1651E-02  0.2884E+02
   -1.237377   13.19911  0.0000E+00  0.9280E-05  0.5131E-07  0.5309E-03  0.1438E-02  0.1406E+02
   -1.274873   13.19980  0.0000E+00  0.8512E-05  0.5168E-07  0.4663E-03  0.1242E-02  0.1127E+02
   -1.312368   13.20063  0.0000E+00  0.7706E-05  0.5550E-07  0.3975E-03  0.1068E-02  0.1278E+02
   -1.349863   13.20165  0.0000E+00  0.6804E-05  0.6597E-07  0.3044E-03  0.9122E-03  0.1225E+03
   -1.387357   13.20314  0.0000E+00  0.5787E-05  0.8687E-07  0.2429E-03  0.7587E-03  0.5788E+02
   -1.424852   13.20485  0.0000E+00  0.4540E-05  0.1497E-06  0.1241E-03  0.6211E-03  0.1358E+04
   -1.462346   13.21032  0.0000E+00  0.2725E-05  0.3192E-06  0.4026E-04  0.4710E-03 -0.4705E+05
   -1.499840   13.22451  0.0000E+00  0.0000E+00  0.0000E+00  0.0000E+00  0.5819E-03  0.0000E+00
