 1 - depth, m
 2 - temperature, C
 3 - salinity, kg/kg
 4 - turbulent kinetic energy, m**2/s**2
 5 - dissipation rate, m**2/s**3
 6 - kinematic heat conductance, m**2/s
 7 - modulus of horizontal velocity, m/s
 8 - Richardson number, n/d
   -0.000000    0.00000  0.0000E+00  0.1335E-08  0.2851E-11  0.2854E-09  0.0000E+00  0.2823E+17
   -0.037498    0.45100  0.0000E+00  0.6747E-08  0.3432E-11  0.3992E-09  0.0000E+00  0.2213E+17
   -0.074996    0.85407  0.0000E+00  0.1918E-07  0.7319E-11  0.8926E-09  0.0000E+00  0.1846E+17
   -0.112494    1.24329  0.0000E+00  0.4665E-07  0.1658E-10  0.2066E-08  0.0000E+00  0.1655E+17
   -0.149993    1.67370  0.0000E+00  0.1069E-06  0.3680E-10  0.7091E-08  0.0000E+00  0.1420E+17
   -0.187492    2.21313  0.0000E+00  0.1797E-06  0.6085E-10  0.4187E-04  0.0000E+00  0.1053E+17
   -0.224992    2.72872  0.0000E+00  0.2415E-06  0.8107E-10  0.1191E-03  0.0000E+00  0.7699E+16
   -0.262491    3.15515  0.0000E+00  0.2938E-06  0.9785E-10  0.1836E-03  0.0000E+00  0.5538E+16
   -0.299991    3.51128  0.0000E+00  0.3377E-06  0.1116E-09  0.2408E-03  0.0000E+00  0.3721E+16
   -0.337491    3.80447  0.0000E+00  0.3726E-06  0.1224E-09  0.2911E-03  0.0000E+00  0.2049E+16
   -0.374991    4.02601  0.0000E+00  0.3956E-06  0.1295E-09  0.3347E-03  0.0000E+00  0.5849E+15
   -0.412492    4.15069  0.0000E+00  0.3997E-06  0.1312E-09  0.3760E-03  0.0000E+00  0.1071E+14
   -0.449993    4.16165  0.0000E+00  0.4009E-06  0.1322E-09  0.3812E-03  0.0000E+00 -0.1806E+13
   -0.487493    4.16233  0.0000E+00  0.4019E-06  0.1333E-09  0.3798E-03  0.0000E+00 -0.1804E+13
   -0.524994    4.16301  0.0000E+00  0.4026E-06  0.1345E-09  0.3780E-03  0.0000E+00 -0.1802E+13
   -0.562495    4.16369  0.0000E+00  0.4032E-06  0.1358E-09  0.3754E-03  0.0000E+00 -0.1821E+13
   -0.599996    4.16437  0.0000E+00  0.4035E-06  0.1373E-09  0.3723E-03  0.0000E+00 -0.1839E+13
   -0.637498    4.16505  0.0000E+00  0.4036E-06  0.1389E-09  0.3684E-03  0.0000E+00 -0.1868E+13
   -0.674999    4.16574  0.0000E+00  0.4035E-06  0.1406E-09  0.3638E-03  0.0000E+00 -0.1898E+13
   -0.712500    4.16643  0.0000E+00  0.4032E-06  0.1426E-09  0.3585E-03  0.0000E+00 -0.1940E+13
   -0.750002    4.16713  0.0000E+00  0.4026E-06  0.1447E-09  0.3526E-03  0.0000E+00 -0.1975E+13
   -0.787503    4.16785  0.0000E+00  0.4018E-06  0.1470E-09  0.3459E-03  0.0000E+00 -0.2020E+13
   -0.825004    4.16857  0.0000E+00  0.4007E-06  0.1497E-09  0.3385E-03  0.0000E+00 -0.2068E+13
   -0.862505    4.16931  0.0000E+00  0.3994E-06  0.1526E-09  0.3302E-03  0.0000E+00 -0.2130E+13
   -0.900007    4.17006  0.0000E+00  0.3978E-06  0.1558E-09  0.3212E-03  0.0000E+00 -0.2197E+13
   -0.937508    4.17084  0.0000E+00  0.3959E-06  0.1595E-09  0.3114E-03  0.0000E+00 -0.2282E+13
   -0.975009    4.17164  0.0000E+00  0.3937E-06  0.1636E-09  0.3008E-03  0.0000E+00 -0.2375E+13
   -1.012510    4.17247  0.0000E+00  0.3912E-06  0.1683E-09  0.2892E-03  0.0000E+00 -0.2492E+13
   -1.050011    4.17333  0.0000E+00  0.3882E-06  0.1737E-09  0.2768E-03  0.0000E+00 -0.2623E+13
   -1.087511    4.17424  0.0000E+00  0.3848E-06  0.1800E-09  0.2632E-03  0.0000E+00 -0.2788E+13
   -1.125012    4.17520  0.0000E+00  0.3809E-06  0.1875E-09  0.2487E-03  0.0000E+00 -0.2967E+13
   -1.162512    4.17621  0.0000E+00  0.3764E-06  0.1964E-09  0.2330E-03  0.0000E+00 -0.3192E+13
   -1.200012    4.17729  0.0000E+00  0.3713E-06  0.2071E-09  0.2163E-03  0.0000E+00 -0.3463E+13
   -1.237512    4.17846  0.0000E+00  0.3654E-06  0.2204E-09  0.1983E-03  0.0000E+00 -0.3816E+13
   -1.275012    4.17973  0.0000E+00  0.3584E-06  0.2377E-09  0.1788E-03  0.0000E+00 -0.4268E+13
   -1.312511    4.18115  0.0000E+00  0.3499E-06  0.2610E-09  0.1572E-03  0.0000E+00 -0.4911E+13
   -1.350010    4.18277  0.0000E+00  0.3394E-06  0.2944E-09  0.1336E-03  0.0000E+00 -0.5861E+13
   -1.387509    4.18468  0.0000E+00  0.3256E-06  0.3471E-09  0.1103E-03  0.0000E+00 -0.7183E+13
   -1.425007    4.18701  0.0000E+00  0.3000E-06  0.4725E-09  0.4305E-04  0.0000E+00 -0.1886E+14
   -1.462505    4.19300  0.0000E+00  0.1826E-06  0.1361E-08  0.3737E-05  0.0000E+00 -0.2485E+15
   -1.500003    4.25943  0.0000E+00  0.0000E+00  0.0000E+00  0.0000E+00  0.0000E+00  0.0000E+00
