 1 - depth, m
 2 - temperature, C
 3 - salinity, kg/kg
 4 - turbulent kinetic energy, m**2/s**2
 5 - dissipation rate, m**2/s**3
 6 - kinematic heat conductance, m**2/s
 7 - modulus of horizontal velocity, m/s
 8 - Richardson number, n/d
   -0.000000   11.87414  0.0000E+00  0.6908E-03  0.2352E-02  0.1000E-03  0.3611E+00  0.1822E-02
   -0.037498   11.93708  0.0000E+00  0.3633E-03  0.9523E-03  0.1646E-03  0.1240E+00 -0.7527E-01
   -0.074997   11.96294  0.0000E+00  0.2334E-03  0.2590E-03  0.2388E-03  0.7472E-01 -0.1300E+00
   -0.112496   11.97341  0.0000E+00  0.1848E-03  0.1542E-03  0.2645E-03  0.5714E-01 -0.5120E+00
   -0.149996   11.97802  0.0000E+00  0.1547E-03  0.1009E-03  0.2673E-03  0.4771E-01 -0.4883E-01
   -0.187495   11.98099  0.0000E+00  0.1326E-03  0.6633E-04  0.2744E-03  0.4152E-01 -0.1577E-01
   -0.224995   11.98299  0.0000E+00  0.1153E-03  0.4347E-04  0.2842E-03  0.3699E-01 -0.1260E-01
   -0.262496   11.98468  0.0000E+00  0.1016E-03  0.2810E-04  0.2909E-03  0.3317E-01 -0.2023E-01
   -0.299996   11.98618  0.0000E+00  0.9045E-04  0.1796E-04  0.3042E-03  0.3002E-01 -0.1027E-01
   -0.337497   11.98749  0.0000E+00  0.8164E-04  0.1150E-04  0.3234E-03  0.2737E-01  0.3475E-02
   -0.374998   11.98873  0.0000E+00  0.7435E-04  0.7435E-05  0.3294E-03  0.2489E-01 -0.2020E-01
   -0.412499   11.98986  0.0000E+00  0.6838E-04  0.4866E-05  0.3419E-03  0.2279E-01 -0.1007E-01
   -0.450000   11.99093  0.0000E+00  0.6335E-04  0.3269E-05  0.3537E-03  0.2091E-01  0.1167E+00
   -0.487502   11.99196  0.0000E+00  0.5896E-04  0.2260E-05  0.3646E-03  0.1918E-01  0.1575E+00
   -0.525003   11.99294  0.0000E+00  0.5500E-04  0.1600E-05  0.3802E-03  0.1752E-01  0.7404E+01
   -0.562505   11.99386  0.0000E+00  0.5159E-04  0.1189E-05  0.3935E-03  0.1613E-01  0.2717E+02
   -0.600007   11.99473  0.0000E+00  0.4853E-04  0.9169E-06  0.4056E-03  0.1489E-01  0.3917E+01
   -0.637509   11.99556  0.0000E+00  0.4577E-04  0.7337E-06  0.4181E-03  0.1375E-01  0.5257E+01
   -0.675010   11.99635  0.0000E+00  0.4326E-04  0.6055E-06  0.4297E-03  0.1272E-01  0.6061E+00
   -0.712512   11.99710  0.0000E+00  0.4097E-04  0.5125E-06  0.4423E-03  0.1177E-01  0.1706E+01
   -0.750014   11.99781  0.0000E+00  0.3886E-04  0.4417E-06  0.4546E-03  0.1091E-01  0.2279E+01
   -0.787516   11.99849  0.0000E+00  0.3690E-04  0.3859E-06  0.4662E-03  0.1011E-01  0.9333E+01
   -0.825018   11.99914  0.0000E+00  0.3507E-04  0.3407E-06  0.4793E-03  0.9376E-02  0.2136E+01
   -0.862520   11.99976  0.0000E+00  0.3334E-04  0.3033E-06  0.4974E-03  0.8690E-02  0.2742E+01
   -0.900022   12.00035  0.0000E+00  0.3171E-04  0.2719E-06  0.5144E-03  0.8048E-02  0.9011E+01
   -0.937524   12.00091  0.0000E+00  0.3015E-04  0.2452E-06  0.5309E-03  0.7443E-02  0.4261E+02
   -0.975025   12.00146  0.0000E+00  0.2865E-04  0.2222E-06  0.5460E-03  0.6868E-02  0.1077E+02
   -1.012527   12.00198  0.0000E+00  0.2719E-04  0.2023E-06  0.5603E-03  0.6317E-02  0.3133E+02
   -1.050028   12.00249  0.0000E+00  0.2577E-04  0.1850E-06  0.5687E-03  0.5802E-02  0.1778E+02
   -1.087530   12.00299  0.0000E+00  0.2438E-04  0.1701E-06  0.5692E-03  0.5320E-02  0.8461E+01
   -1.125031   12.00348  0.0000E+00  0.2302E-04  0.1575E-06  0.5622E-03  0.4866E-02  0.1391E+02
   -1.162532   12.00397  0.0000E+00  0.2167E-04  0.1470E-06  0.5492E-03  0.4436E-02  0.9871E+01
   -1.200033   12.00447  0.0000E+00  0.2033E-04  0.1388E-06  0.5278E-03  0.4027E-02  0.6151E+02
   -1.237533   12.00499  0.0000E+00  0.1898E-04  0.1333E-06  0.4934E-03  0.3632E-02  0.2300E+02
   -1.275033   12.00553  0.0000E+00  0.1758E-04  0.1311E-06  0.4448E-03  0.3250E-02  0.2400E+02
   -1.312533   12.00614  0.0000E+00  0.1607E-04  0.1345E-06  0.3832E-03  0.2893E-02  0.5694E+02
   -1.350033   12.00683  0.0000E+00  0.1437E-04  0.1484E-06  0.3062E-03  0.2557E-02  0.1737E+03
   -1.387532   12.00771  0.0000E+00  0.1235E-04  0.1854E-06  0.2274E-03  0.2230E-02  0.9905E+03
   -1.425032   12.00891  0.0000E+00  0.9765E-05  0.2871E-06  0.1352E-03  0.1897E-02  0.2548E+03
   -1.462530   12.01104  0.0000E+00  0.5502E-05  0.6227E-06  0.3461E-04  0.1553E-02 -0.6123E+05
   -1.500029   12.02417  0.0000E+00  0.0000E+00  0.0000E+00  0.0000E+00  0.1715E-02  0.0000E+00
