 1 - depth, m
 2 - temperature, C
 3 - salinity, kg/kg
 4 - turbulent kinetic energy, m**2/s**2
 5 - dissipation rate, m**2/s**3
 6 - kinematic heat conductance, m**2/s
 7 - modulus of horizontal velocity, m/s
 8 - Richardson number, n/d
   -0.000000   12.37580  0.0000E+00  0.2096E-03  0.2071E-03  0.5640E-04  0.1347E+00 -0.2768E-01
   -0.037494   12.42315  0.0000E+00  0.1125E-03  0.5453E-04  0.1118E-03  0.4747E-01 -0.5873E-01
   -0.074988   12.43576  0.0000E+00  0.8072E-04  0.2185E-04  0.1334E-03  0.3280E-01 -0.3766E-01
   -0.112483   12.44275  0.0000E+00  0.6530E-04  0.1225E-04  0.1440E-03  0.2728E-01 -0.8970E-01
   -0.149978   12.44753  0.0000E+00  0.5484E-04  0.7239E-05  0.1566E-03  0.2362E-01 -0.5155E-01
   -0.187473   12.45122  0.0000E+00  0.4701E-04  0.4387E-05  0.1825E-03  0.2075E-01  0.2011E+03
   -0.224969   12.45416  0.0000E+00  0.4110E-04  0.2750E-05  0.2119E-03  0.1837E-01  0.5296E+03
   -0.262464   12.45660  0.0000E+00  0.3647E-04  0.1778E-05  0.2357E-03  0.1634E-01  0.1438E+03
   -0.299960   12.45869  0.0000E+00  0.3280E-04  0.1190E-05  0.2570E-03  0.1461E-01  0.1061E+03
   -0.337457   12.46054  0.0000E+00  0.2981E-04  0.8261E-06  0.2799E-03  0.1313E-01  0.2585E+02
   -0.374953   12.46220  0.0000E+00  0.2733E-04  0.5954E-06  0.3001E-03  0.1183E-01  0.4464E+01
   -0.412450   12.46371  0.0000E+00  0.2524E-04  0.4454E-06  0.3195E-03  0.1069E-01  0.2378E+01
   -0.449947   12.46509  0.0000E+00  0.2344E-04  0.3445E-06  0.3423E-03  0.9675E-02  0.2708E+01
   -0.487443   12.46636  0.0000E+00  0.2187E-04  0.2742E-06  0.3643E-03  0.8765E-02  0.1383E+02
   -0.524941   12.46754  0.0000E+00  0.2046E-04  0.2233E-06  0.3883E-03  0.7943E-02  0.6661E+01
   -0.562438   12.46862  0.0000E+00  0.1920E-04  0.1854E-06  0.4131E-03  0.7215E-02  0.4694E+01
   -0.599935   12.46962  0.0000E+00  0.1808E-04  0.1564E-06  0.4381E-03  0.6563E-02  0.1731E+02
   -0.637432   12.47055  0.0000E+00  0.1707E-04  0.1337E-06  0.4676E-03  0.5978E-02  0.1023E+02
   -0.674930   12.47141  0.0000E+00  0.1615E-04  0.1155E-06  0.5004E-03  0.5449E-02  0.3855E+02
   -0.712427   12.47221  0.0000E+00  0.1531E-04  0.1006E-06  0.5455E-03  0.4968E-02  0.1740E+03
   -0.749925   12.47293  0.0000E+00  0.1454E-04  0.8830E-07  0.5965E-03  0.4527E-02  0.3813E+02
   -0.787422   12.47359  0.0000E+00  0.1382E-04  0.7800E-07  0.6412E-03  0.4119E-02  0.2535E+02
   -0.824920   12.47420  0.0000E+00  0.1315E-04  0.6927E-07  0.6759E-03  0.3739E-02  0.1854E+02
   -0.862417   12.47476  0.0000E+00  0.1250E-04  0.6183E-07  0.6953E-03  0.3383E-02  0.1008E+02
   -0.899915   12.47530  0.0000E+00  0.1189E-04  0.5545E-07  0.7102E-03  0.3048E-02  0.1762E+02
   -0.937412   12.47582  0.0000E+00  0.1130E-04  0.4997E-07  0.7128E-03  0.2734E-02  0.4820E+01
   -0.974909   12.47633  0.0000E+00  0.1072E-04  0.4522E-07  0.7043E-03  0.2438E-02  0.4667E+01
   -1.012406   12.47684  0.0000E+00  0.1016E-04  0.4110E-07  0.6933E-03  0.2158E-02  0.2611E+01
   -1.049903   12.47736  0.0000E+00  0.9592E-05  0.3753E-07  0.6762E-03  0.1901E-02  0.2991E+01
   -1.087400   12.47788  0.0000E+00  0.9032E-05  0.3448E-07  0.6540E-03  0.1665E-02  0.1772E+01
   -1.124897   12.47843  0.0000E+00  0.8479E-05  0.3195E-07  0.6279E-03  0.1450E-02  0.1567E+01
   -1.162393   12.47899  0.0000E+00  0.7933E-05  0.2996E-07  0.5969E-03  0.1254E-02  0.2376E+01
   -1.199889   12.47959  0.0000E+00  0.7394E-05  0.2854E-07  0.5589E-03  0.1076E-02  0.1311E+01
   -1.237385   12.48022  0.0000E+00  0.6870E-05  0.2780E-07  0.5119E-03  0.9152E-03  0.1314E+01
   -1.274881   12.48093  0.0000E+00  0.6357E-05  0.2795E-07  0.4578E-03  0.7712E-03  0.4583E+01
   -1.312377   12.48174  0.0000E+00  0.5838E-05  0.2969E-07  0.3962E-03  0.6510E-03  0.3229E+01
   -1.349872   12.48275  0.0000E+00  0.5254E-05  0.3458E-07  0.3042E-03  0.5493E-03  0.1805E+03
   -1.387367   12.48430  0.0000E+00  0.4579E-05  0.4407E-07  0.2537E-03  0.4504E-03  0.5301E+02
   -1.424862   12.48594  0.0000E+00  0.3677E-05  0.7524E-07  0.1200E-03  0.3702E-03 -0.6618E+02
   -1.462356   12.49290  0.0000E+00  0.2177E-05  0.1736E-06  0.3870E-04  0.2726E-03 -0.7193E+04
   -1.499850   12.50534  0.0000E+00  0.0000E+00  0.0000E+00  0.0000E+00  0.3321E-03  0.0000E+00
