 1 - depth, m
 2 - temperature, C
 3 - salinity, kg/kg
 4 - turbulent kinetic energy, m**2/s**2
 5 - dissipation rate, m**2/s**3
 6 - kinematic heat conductance, m**2/s
 7 - modulus of horizontal velocity, m/s
 8 - Richardson number, n/d
   -0.000000    0.00000  0.0000E+00  0.4096E-13  0.8590E-16  0.1000E-09  0.0000E+00  0.8183E+16
   -0.037498    0.12485  0.0000E+00  0.4096E-13  0.8590E-16  0.1000E-09  0.0000E+00  0.7911E+16
   -0.074995    0.24977  0.0000E+00  0.4096E-13  0.8590E-16  0.1000E-09  0.0000E+00  0.7635E+16
   -0.112494    0.37470  0.0000E+00  0.4096E-13  0.8590E-16  0.1000E-09  0.0000E+00  0.7355E+16
   -0.149992    0.49955  0.0000E+00  0.4096E-13  0.8590E-16  0.1000E-09  0.0000E+00  0.7074E+16
   -0.187491    0.62426  0.0000E+00  0.4096E-13  0.8590E-16  0.1000E-09  0.0000E+00  0.6790E+16
   -0.224990    0.74875  0.0000E+00  0.4096E-13  0.8590E-16  0.1000E-09  0.0000E+00  0.6504E+16
   -0.262490    0.87294  0.0000E+00  0.4096E-13  0.8590E-16  0.1000E-09  0.0000E+00  0.6215E+16
   -0.299989    0.99667  0.0000E+00  0.4096E-13  0.8590E-16  0.1000E-09  0.0000E+00  0.5924E+16
   -0.337489    1.11985  0.0000E+00  0.4096E-13  0.8590E-16  0.1000E-09  0.0000E+00  0.5635E+16
   -0.374989    1.24239  0.0000E+00  0.4096E-13  0.8590E-16  0.1000E-09  0.0000E+00  0.5353E+16
   -0.412490    1.36436  0.0000E+00  0.4096E-13  0.8590E-16  0.1000E-09  0.0000E+00  0.5076E+16
   -0.449990    1.48577  0.0000E+00  0.4096E-13  0.8590E-16  0.1000E-09  0.0000E+00  0.4801E+16
   -0.487491    1.60653  0.0000E+00  0.4096E-13  0.8590E-16  0.1000E-09  0.0000E+00  0.4528E+16
   -0.524991    1.72656  0.0000E+00  0.4096E-13  0.8590E-16  0.1000E-09  0.0000E+00  0.4254E+16
   -0.562492    1.84569  0.0000E+00  0.4096E-13  0.8590E-16  0.1000E-09  0.0000E+00  0.3983E+16
   -0.599993    1.96383  0.0000E+00  0.4096E-13  0.8590E-16  0.1000E-09  0.0000E+00  0.3716E+16
   -0.637494    2.08088  0.0000E+00  0.4096E-13  0.8590E-16  0.1000E-09  0.0000E+00  0.3454E+16
   -0.674995    2.19676  0.0000E+00  0.4096E-13  0.8590E-16  0.1000E-09  0.0000E+00  0.3197E+16
   -0.712496    2.31135  0.0000E+00  0.4096E-13  0.8590E-16  0.1000E-09  0.0000E+00  0.2945E+16
   -0.749998    2.42455  0.0000E+00  0.4096E-13  0.8590E-16  0.1000E-09  0.0000E+00  0.2707E+16
   -0.787499    2.53660  0.0000E+00  0.4096E-13  0.8590E-16  0.1000E-09  0.0000E+00  0.2477E+16
   -0.825000    2.64752  0.0000E+00  0.4096E-13  0.8590E-16  0.1000E-09  0.0000E+00  0.2252E+16
   -0.862501    2.75721  0.0000E+00  0.4096E-13  0.8590E-16  0.1000E-09  0.0000E+00  0.2032E+16
   -0.900002    2.86557  0.0000E+00  0.4096E-13  0.8590E-16  0.1000E-09  0.0000E+00  0.1818E+16
   -0.937503    2.97249  0.0000E+00  0.4096E-13  0.8590E-16  0.1000E-09  0.0000E+00  0.1611E+16
   -0.975004    3.07785  0.0000E+00  0.1252E-12  0.8969E-16  0.1000E-09  0.0000E+00  0.1410E+16
   -1.012504    3.18152  0.0000E+00  0.3842E-12  0.2103E-15  0.1000E-09  0.0000E+00  0.1214E+16
   -1.050005    3.28306  0.0000E+00  0.1059E-11  0.5435E-15  0.1000E-09  0.0000E+00  0.1025E+16
   -1.087505    3.38216  0.0000E+00  0.2810E-11  0.1395E-14  0.1000E-09  0.0000E+00  0.8471E+15
   -1.125006    3.47857  0.0000E+00  0.7335E-11  0.3542E-14  0.1000E-09  0.0000E+00  0.6932E+15
   -1.162506    3.57407  0.0000E+00  0.1893E-10  0.8898E-14  0.1000E-09  0.0000E+00  0.5451E+15
   -1.200006    3.66890  0.0000E+00  0.4837E-10  0.2215E-13  0.1517E-09  0.0000E+00  0.4002E+15
   -1.237505    3.76299  0.0000E+00  0.1224E-09  0.5465E-13  0.5761E-09  0.0000E+00  0.2585E+15
   -1.275005    3.85605  0.0000E+00  0.3098E-09  0.1351E-12  0.2991E-08  0.0000E+00  0.1209E+15
   -1.312504    3.94684  0.0000E+00  0.7654E-09  0.3284E-12  0.7161E-07  0.0000E+00  0.8628E+13
   -1.350003    4.00789  0.0000E+00  0.1594E-08  0.7205E-12  0.1439E-05  0.0000E+00 -0.3297E+13
   -1.387501    4.01609  0.0000E+00  0.1980E-08  0.1069E-11  0.1380E-05  0.0000E+00 -0.4549E+13
   -1.425000    4.02462  0.0000E+00  0.2012E-08  0.1581E-11  0.8620E-06  0.0000E+00 -0.9093E+13
   -1.462498    4.03758  0.0000E+00  0.1563E-08  0.2865E-11  0.2134E-06  0.0000E+00 -0.4019E+14
   -1.499995    4.07443  0.0000E+00  0.0000E+00  0.0000E+00  0.0000E+00  0.0000E+00  0.0000E+00
