 1 - depth, m
 2 - temperature, C
 3 - salinity, kg/kg
 4 - turbulent kinetic energy, m**2/s**2
 5 - dissipation rate, m**2/s**3
 6 - kinematic heat conductance, m**2/s
 7 - modulus of horizontal velocity, m/s
 8 - Richardson number, n/d
   -0.000000    0.00000  0.0000E+00  0.4096E-13  0.8590E-16  0.1000E-09  0.0000E+00  0.1026E+17
   -0.037502    0.15729  0.0000E+00  0.4096E-13  0.8590E-16  0.1000E-09  0.0000E+00  0.9768E+16
   -0.075005    0.31366  0.0000E+00  0.4096E-13  0.8590E-16  0.1000E-09  0.0000E+00  0.9275E+16
   -0.112508    0.46897  0.0000E+00  0.4096E-13  0.8590E-16  0.1000E-09  0.0000E+00  0.8786E+16
   -0.150012    0.62311  0.0000E+00  0.4096E-13  0.8590E-16  0.1000E-09  0.0000E+00  0.8302E+16
   -0.187515    0.77596  0.0000E+00  0.4096E-13  0.8590E-16  0.1000E-09  0.0000E+00  0.7825E+16
   -0.225019    0.92741  0.0000E+00  0.4096E-13  0.8590E-16  0.1000E-09  0.0000E+00  0.7356E+16
   -0.262524    1.07735  0.0000E+00  0.4096E-13  0.8590E-16  0.1000E-09  0.0000E+00  0.6892E+16
   -0.300028    1.22558  0.0000E+00  0.4096E-13  0.8590E-16  0.1000E-09  0.0000E+00  0.6437E+16
   -0.337533    1.37198  0.0000E+00  0.4096E-13  0.8590E-16  0.1000E-09  0.0000E+00  0.5994E+16
   -0.375038    1.51645  0.0000E+00  0.4096E-13  0.8590E-16  0.1000E-09  0.0000E+00  0.5579E+16
   -0.412543    1.65932  0.0000E+00  0.4096E-13  0.8590E-16  0.1000E-09  0.0000E+00  0.5185E+16
   -0.450048    1.80078  0.0000E+00  0.4096E-13  0.8590E-16  0.1000E-09  0.0000E+00  0.4799E+16
   -0.487554    1.94076  0.0000E+00  0.5617E-13  0.8590E-16  0.1000E-09  0.0000E+00  0.4423E+16
   -0.525059    2.07916  0.0000E+00  0.2349E-12  0.8612E-16  0.1000E-09  0.0000E+00  0.4055E+16
   -0.562565    2.21585  0.0000E+00  0.5812E-12  0.1440E-15  0.1000E-09  0.0000E+00  0.3698E+16
   -0.600071    2.35073  0.0000E+00  0.1209E-11  0.2664E-15  0.1000E-09  0.0000E+00  0.3351E+16
   -0.637576    2.48371  0.0000E+00  0.2359E-11  0.4959E-15  0.1000E-09  0.0000E+00  0.3017E+16
   -0.675082    2.61467  0.0000E+00  0.4481E-11  0.9161E-15  0.1000E-09  0.0000E+00  0.2694E+16
   -0.712588    2.74351  0.0000E+00  0.8400E-11  0.1680E-14  0.1000E-09  0.0000E+00  0.2384E+16
   -0.750094    2.87011  0.0000E+00  0.1562E-10  0.3060E-14  0.1000E-09  0.0000E+00  0.2097E+16
   -0.787600    2.99504  0.0000E+00  0.2886E-10  0.5544E-14  0.1000E-09  0.0000E+00  0.1824E+16
   -0.825106    3.11845  0.0000E+00  0.5304E-10  0.9991E-14  0.1000E-09  0.0000E+00  0.1560E+16
   -0.862612    3.24026  0.0000E+00  0.9697E-10  0.1792E-13  0.1000E-09  0.0000E+00  0.1305E+16
   -0.900118    3.36041  0.0000E+00  0.1764E-09  0.3197E-13  0.1000E-09  0.0000E+00  0.1061E+16
   -0.937624    3.47882  0.0000E+00  0.3192E-09  0.5678E-13  0.1907E-09  0.0000E+00  0.8260E+15
   -0.975129    3.59537  0.0000E+00  0.5749E-09  0.1004E-12  0.4627E-09  0.0000E+00  0.6016E+15
   -1.012635    3.70985  0.0000E+00  0.1032E-08  0.1769E-12  0.1265E-08  0.0000E+00  0.3876E+15
   -1.050140    3.82163  0.0000E+00  0.1847E-08  0.3108E-12  0.4607E-08  0.0000E+00  0.1868E+15
   -1.087646    3.92872  0.0000E+00  0.3212E-08  0.5329E-12  0.6170E-07  0.0000E+00  0.2356E+14
   -1.125151    4.00411  0.0000E+00  0.4025E-08  0.6724E-12  0.9768E-05  0.0000E+00 -0.4469E+12
   -1.162656    4.00565  0.0000E+00  0.4406E-08  0.7542E-12  0.1018E-04  0.0000E+00 -0.4668E+12
   -1.200160    4.00713  0.0000E+00  0.4703E-08  0.8391E-12  0.1021E-04  0.0000E+00 -0.5027E+12
   -1.237665    4.00862  0.0000E+00  0.4921E-08  0.9325E-12  0.9838E-05  0.0000E+00 -0.5615E+12
   -1.275169    4.01017  0.0000E+00  0.5059E-08  0.1044E-11  0.9063E-05  0.0000E+00 -0.6580E+12
   -1.312673    4.01187  0.0000E+00  0.5105E-08  0.1189E-11  0.7846E-05  0.0000E+00 -0.8247E+12
   -1.350177    4.01385  0.0000E+00  0.5026E-08  0.1398E-11  0.6176E-05  0.0000E+00 -0.1149E+13
   -1.387680    4.01640  0.0000E+00  0.4749E-08  0.1752E-11  0.4099E-05  0.0000E+00 -0.1943E+13
   -1.425183    4.02027  0.0000E+00  0.4092E-08  0.2529E-11  0.1866E-05  0.0000E+00 -0.5036E+13
   -1.462686    4.02870  0.0000E+00  0.2729E-08  0.5185E-11  0.3139E-06  0.0000E+00 -0.3750E+14
   -1.500188    4.06748  0.0000E+00  0.0000E+00  0.0000E+00  0.0000E+00  0.0000E+00  0.0000E+00
