 1 - depth, m
 2 - temperature, C
 3 - salinity, kg/kg
 4 - turbulent kinetic energy, m**2/s**2
 5 - dissipation rate, m**2/s**3
 6 - kinematic heat conductance, m**2/s
 7 - modulus of horizontal velocity, m/s
 8 - Richardson number, n/d
   -0.000000    0.00000  0.0000E+00  0.4096E-13  0.8590E-16  0.1000E-09  0.0000E+00  0.7663E+16
   -0.037494    0.11679  0.0000E+00  0.4096E-13  0.8590E-16  0.1000E-09  0.0000E+00  0.7420E+16
   -0.074988    0.23356  0.0000E+00  0.4096E-13  0.8590E-16  0.1000E-09  0.0000E+00  0.7175E+16
   -0.112483    0.35028  0.0000E+00  0.4096E-13  0.8590E-16  0.1000E-09  0.0000E+00  0.6927E+16
   -0.149978    0.46687  0.0000E+00  0.4096E-13  0.8590E-16  0.1000E-09  0.0000E+00  0.6677E+16
   -0.187473    0.58327  0.0000E+00  0.4096E-13  0.8590E-16  0.1000E-09  0.0000E+00  0.6427E+16
   -0.224969    0.69942  0.0000E+00  0.4096E-13  0.8590E-16  0.1000E-09  0.0000E+00  0.6174E+16
   -0.262465    0.81525  0.0000E+00  0.4096E-13  0.8590E-16  0.1000E-09  0.0000E+00  0.5919E+16
   -0.299961    0.93062  0.0000E+00  0.4096E-13  0.8590E-16  0.1000E-09  0.0000E+00  0.5662E+16
   -0.337457    1.04545  0.0000E+00  0.4096E-13  0.8590E-16  0.1000E-09  0.0000E+00  0.5406E+16
   -0.374954    1.15966  0.0000E+00  0.4096E-13  0.8590E-16  0.1000E-09  0.0000E+00  0.5158E+16
   -0.412451    1.27333  0.0000E+00  0.4096E-13  0.8590E-16  0.1000E-09  0.0000E+00  0.4915E+16
   -0.449948    1.38649  0.0000E+00  0.4096E-13  0.8590E-16  0.1000E-09  0.0000E+00  0.4674E+16
   -0.487445    1.49907  0.0000E+00  0.4096E-13  0.8590E-16  0.1000E-09  0.0000E+00  0.4433E+16
   -0.524942    1.61099  0.0000E+00  0.4096E-13  0.8590E-16  0.1000E-09  0.0000E+00  0.4191E+16
   -0.562439    1.72210  0.0000E+00  0.4096E-13  0.8590E-16  0.1000E-09  0.0000E+00  0.3953E+16
   -0.599937    1.83233  0.0000E+00  0.4096E-13  0.8590E-16  0.1000E-09  0.0000E+00  0.3716E+16
   -0.637434    1.94160  0.0000E+00  0.4096E-13  0.8590E-16  0.1000E-09  0.0000E+00  0.3484E+16
   -0.674932    2.04981  0.0000E+00  0.4096E-13  0.8590E-16  0.1000E-09  0.0000E+00  0.3255E+16
   -0.712429    2.15688  0.0000E+00  0.4096E-13  0.8590E-16  0.1000E-09  0.0000E+00  0.3030E+16
   -0.749927    2.26271  0.0000E+00  0.4096E-13  0.8590E-16  0.1000E-09  0.0000E+00  0.2820E+16
   -0.787424    2.36761  0.0000E+00  0.4096E-13  0.8590E-16  0.1000E-09  0.0000E+00  0.2618E+16
   -0.824922    2.47162  0.0000E+00  0.4096E-13  0.8590E-16  0.1000E-09  0.0000E+00  0.2418E+16
   -0.862419    2.57469  0.0000E+00  0.4096E-13  0.8590E-16  0.1000E-09  0.0000E+00  0.2223E+16
   -0.899917    2.67674  0.0000E+00  0.4096E-13  0.8590E-16  0.1000E-09  0.0000E+00  0.2031E+16
   -0.937414    2.77769  0.0000E+00  0.4096E-13  0.8590E-16  0.1000E-09  0.0000E+00  0.1845E+16
   -0.974912    2.87747  0.0000E+00  0.4096E-13  0.8590E-16  0.1000E-09  0.0000E+00  0.1663E+16
   -1.012409    2.97598  0.0000E+00  0.4096E-13  0.8590E-16  0.1000E-09  0.0000E+00  0.1484E+16
   -1.049906    3.07295  0.0000E+00  0.4096E-13  0.8590E-16  0.1000E-09  0.0000E+00  0.1310E+16
   -1.087403    3.16820  0.0000E+00  0.4096E-13  0.8590E-16  0.1000E-09  0.0000E+00  0.1142E+16
   -1.124899    3.26154  0.0000E+00  0.4096E-13  0.8590E-16  0.1000E-09  0.0000E+00  0.9962E+15
   -1.162396    3.35428  0.0000E+00  0.4096E-13  0.8590E-16  0.1000E-09  0.0000E+00  0.8552E+15
   -1.199892    3.44661  0.0000E+00  0.1311E-12  0.1611E-15  0.1000E-09  0.0000E+00  0.7163E+15
   -1.237388    3.53849  0.0000E+00  0.5327E-12  0.6044E-15  0.1000E-09  0.0000E+00  0.5797E+15
   -1.274884    3.62995  0.0000E+00  0.2136E-11  0.2363E-14  0.1000E-09  0.0000E+00  0.4457E+15
   -1.312380    3.72105  0.0000E+00  0.8483E-11  0.9218E-14  0.1000E-09  0.0000E+00  0.3136E+15
   -1.349875    3.81177  0.0000E+00  0.3341E-10  0.3595E-13  0.4729E-09  0.0000E+00  0.1831E+15
   -1.387370    3.90185  0.0000E+00  0.1303E-09  0.1412E-12  0.4701E-08  0.0000E+00  0.5587E+14
   -1.424865    3.98885  0.0000E+00  0.4828E-09  0.5656E-12  0.1272E-06  0.0000E+00 -0.1920E+14
   -1.462359    4.03597  0.0000E+00  0.8040E-09  0.1528E-11  0.1363E-06  0.0000E+00 -0.5190E+14
   -1.499853    4.08170  0.0000E+00  0.0000E+00  0.0000E+00  0.0000E+00  0.0000E+00  0.0000E+00
