 1 - depth, m
 2 - temperature, C
 3 - salinity, kg/kg
 4 - turbulent kinetic energy, m**2/s**2
 5 - dissipation rate, m**2/s**3
 6 - kinematic heat conductance, m**2/s
 7 - modulus of horizontal velocity, m/s
 8 - Richardson number, n/d
   -0.000000    0.00000  0.0000E+00  0.4096E-13  0.8590E-16  0.1000E-09  0.0000E+00  0.9032E+16
   -0.037493    0.13805  0.0000E+00  0.4096E-13  0.8590E-16  0.1000E-09  0.0000E+00  0.8620E+16
   -0.074987    0.27490  0.0000E+00  0.4096E-13  0.8590E-16  0.1000E-09  0.0000E+00  0.8211E+16
   -0.112481    0.41045  0.0000E+00  0.4096E-13  0.8590E-16  0.1000E-09  0.0000E+00  0.7807E+16
   -0.149975    0.54459  0.0000E+00  0.4096E-13  0.8590E-16  0.1000E-09  0.0000E+00  0.7408E+16
   -0.187469    0.67721  0.0000E+00  0.4096E-13  0.8590E-16  0.1000E-09  0.0000E+00  0.7016E+16
   -0.224964    0.80820  0.0000E+00  0.4096E-13  0.8590E-16  0.1000E-09  0.0000E+00  0.6632E+16
   -0.262459    0.93747  0.0000E+00  0.4096E-13  0.8590E-16  0.1000E-09  0.0000E+00  0.6245E+16
   -0.299954    1.06470  0.0000E+00  0.4096E-13  0.8590E-16  0.1000E-09  0.0000E+00  0.5866E+16
   -0.337450    1.18976  0.0000E+00  0.4096E-13  0.8590E-16  0.1000E-09  0.0000E+00  0.5498E+16
   -0.374946    1.31252  0.0000E+00  0.4096E-13  0.8590E-16  0.1000E-09  0.0000E+00  0.5170E+16
   -0.412442    1.43359  0.0000E+00  0.4096E-13  0.8590E-16  0.1000E-09  0.0000E+00  0.4867E+16
   -0.449938    1.55331  0.0000E+00  0.4096E-13  0.8590E-16  0.1000E-09  0.0000E+00  0.4572E+16
   -0.487434    1.67165  0.0000E+00  0.4096E-13  0.8590E-16  0.1000E-09  0.0000E+00  0.4283E+16
   -0.524930    1.78852  0.0000E+00  0.4096E-13  0.8590E-16  0.1000E-09  0.0000E+00  0.3997E+16
   -0.562427    1.90369  0.0000E+00  0.4096E-13  0.8590E-16  0.1000E-09  0.0000E+00  0.3719E+16
   -0.599923    2.01712  0.0000E+00  0.4096E-13  0.8590E-16  0.1000E-09  0.0000E+00  0.3450E+16
   -0.637420    2.12873  0.0000E+00  0.4096E-13  0.8590E-16  0.1000E-09  0.0000E+00  0.3190E+16
   -0.674917    2.23847  0.0000E+00  0.4096E-13  0.8590E-16  0.1000E-09  0.0000E+00  0.2939E+16
   -0.712413    2.34627  0.0000E+00  0.4096E-13  0.8590E-16  0.1000E-09  0.0000E+00  0.2698E+16
   -0.749910    2.45206  0.0000E+00  0.4096E-13  0.8590E-16  0.1000E-09  0.0000E+00  0.2495E+16
   -0.787407    2.55704  0.0000E+00  0.4096E-13  0.8590E-16  0.1000E-09  0.0000E+00  0.2306E+16
   -0.824904    2.66162  0.0000E+00  0.4096E-13  0.8590E-16  0.1000E-09  0.0000E+00  0.2120E+16
   -0.862400    2.76585  0.0000E+00  0.4096E-13  0.8590E-16  0.1000E-09  0.0000E+00  0.1937E+16
   -0.899897    2.86975  0.0000E+00  0.6022E-13  0.8590E-16  0.1000E-09  0.0000E+00  0.1757E+16
   -0.937393    2.97333  0.0000E+00  0.2431E-12  0.1436E-15  0.1000E-09  0.0000E+00  0.1580E+16
   -0.974890    3.07664  0.0000E+00  0.7055E-12  0.3558E-15  0.1000E-09  0.0000E+00  0.1404E+16
   -1.012386    3.17968  0.0000E+00  0.1867E-11  0.8975E-15  0.1000E-09  0.0000E+00  0.1229E+16
   -1.049882    3.28234  0.0000E+00  0.4809E-11  0.2241E-14  0.1000E-09  0.0000E+00  0.1056E+16
   -1.087379    3.38457  0.0000E+00  0.1221E-10  0.5534E-14  0.1000E-09  0.0000E+00  0.8860E+15
   -1.124874    3.48636  0.0000E+00  0.3068E-10  0.1353E-13  0.1000E-09  0.0000E+00  0.7292E+15
   -1.162370    3.58943  0.0000E+00  0.7629E-10  0.3276E-13  0.1587E-09  0.0000E+00  0.5684E+15
   -1.199866    3.69418  0.0000E+00  0.1879E-09  0.7863E-13  0.5401E-09  0.0000E+00  0.3998E+15
   -1.237361    3.80059  0.0000E+00  0.4580E-09  0.1870E-12  0.2289E-08  0.0000E+00  0.2226E+15
   -1.274856    3.90803  0.0000E+00  0.1106E-08  0.4417E-12  0.2476E-07  0.0000E+00  0.4561E+14
   -1.312351    4.00387  0.0000E+00  0.2231E-08  0.8958E-12  0.2057E-05  0.0000E+00 -0.2494E+13
   -1.349845    4.01135  0.0000E+00  0.2849E-08  0.1299E-11  0.2271E-05  0.0000E+00 -0.3186E+13
   -1.387339    4.01846  0.0000E+00  0.3214E-08  0.1854E-11  0.1937E-05  0.0000E+00 -0.4988E+13
   -1.424833    4.02718  0.0000E+00  0.3228E-08  0.2865E-11  0.1165E-05  0.0000E+00 -0.1129E+14
   -1.462327    4.04211  0.0000E+00  0.2663E-08  0.5732E-11  0.3229E-06  0.0000E+00 -0.5752E+14
   -1.499820    4.08861  0.0000E+00  0.0000E+00  0.0000E+00  0.0000E+00  0.0000E+00  0.0000E+00
