 1 - depth, m
 2 - temperature, C
 3 - salinity, kg/kg
 4 - turbulent kinetic energy, m**2/s**2
 5 - dissipation rate, m**2/s**3
 6 - kinematic heat conductance, m**2/s
 7 - modulus of horizontal velocity, m/s
 8 - Richardson number, n/d
   -0.000000    0.00000  0.0000E+00  0.4096E-13  0.8590E-16  0.1000E-09  0.0000E+00  0.8310E+16
   -0.037494    0.12682  0.0000E+00  0.4096E-13  0.8590E-16  0.1000E-09  0.0000E+00  0.8014E+16
   -0.074988    0.25348  0.0000E+00  0.4096E-13  0.8590E-16  0.1000E-09  0.0000E+00  0.7714E+16
   -0.112483    0.37987  0.0000E+00  0.4096E-13  0.8590E-16  0.1000E-09  0.0000E+00  0.7411E+16
   -0.149978    0.50588  0.0000E+00  0.4096E-13  0.8590E-16  0.1000E-09  0.0000E+00  0.7105E+16
   -0.187473    0.63139  0.0000E+00  0.4096E-13  0.8590E-16  0.1000E-09  0.0000E+00  0.6797E+16
   -0.224968    0.75632  0.0000E+00  0.4096E-13  0.8590E-16  0.1000E-09  0.0000E+00  0.6490E+16
   -0.262464    0.88055  0.0000E+00  0.4096E-13  0.8590E-16  0.1000E-09  0.0000E+00  0.6181E+16
   -0.299960    1.00391  0.0000E+00  0.4096E-13  0.8590E-16  0.1000E-09  0.0000E+00  0.5872E+16
   -0.337456    1.12631  0.0000E+00  0.4096E-13  0.8590E-16  0.1000E-09  0.0000E+00  0.5567E+16
   -0.374952    1.24764  0.0000E+00  0.4096E-13  0.8590E-16  0.1000E-09  0.0000E+00  0.5275E+16
   -0.412449    1.36804  0.0000E+00  0.4096E-13  0.8590E-16  0.1000E-09  0.0000E+00  0.4992E+16
   -0.449946    1.48756  0.0000E+00  0.4096E-13  0.8590E-16  0.1000E-09  0.0000E+00  0.4713E+16
   -0.487443    1.60615  0.0000E+00  0.4096E-13  0.8590E-16  0.1000E-09  0.0000E+00  0.4437E+16
   -0.524940    1.72370  0.0000E+00  0.4096E-13  0.8590E-16  0.1000E-09  0.0000E+00  0.4164E+16
   -0.562437    1.84008  0.0000E+00  0.4096E-13  0.8590E-16  0.1000E-09  0.0000E+00  0.3895E+16
   -0.599934    1.95519  0.0000E+00  0.4096E-13  0.8590E-16  0.1000E-09  0.0000E+00  0.3632E+16
   -0.637431    2.06897  0.0000E+00  0.4096E-13  0.8590E-16  0.1000E-09  0.0000E+00  0.3374E+16
   -0.674929    2.18131  0.0000E+00  0.4096E-13  0.8590E-16  0.1000E-09  0.0000E+00  0.3123E+16
   -0.712426    2.29212  0.0000E+00  0.4096E-13  0.8590E-16  0.1000E-09  0.0000E+00  0.2879E+16
   -0.749924    2.40132  0.0000E+00  0.4096E-13  0.8590E-16  0.1000E-09  0.0000E+00  0.2653E+16
   -0.787421    2.50926  0.0000E+00  0.4096E-13  0.8590E-16  0.1000E-09  0.0000E+00  0.2436E+16
   -0.824918    2.61606  0.0000E+00  0.4096E-13  0.8590E-16  0.1000E-09  0.0000E+00  0.2225E+16
   -0.862416    2.72162  0.0000E+00  0.4096E-13  0.8590E-16  0.1000E-09  0.0000E+00  0.2019E+16
   -0.899913    2.82590  0.0000E+00  0.4096E-13  0.8590E-16  0.1000E-09  0.0000E+00  0.1819E+16
   -0.937410    2.92880  0.0000E+00  0.4096E-13  0.8590E-16  0.1000E-09  0.0000E+00  0.1626E+16
   -0.974908    3.03024  0.0000E+00  0.4096E-13  0.8590E-16  0.1000E-09  0.0000E+00  0.1439E+16
   -1.012405    3.13014  0.0000E+00  0.4096E-13  0.8590E-16  0.1000E-09  0.0000E+00  0.1256E+16
   -1.049901    3.22820  0.0000E+00  0.1459E-12  0.1124E-15  0.1000E-09  0.0000E+00  0.1080E+16
   -1.087398    3.32423  0.0000E+00  0.4713E-12  0.2984E-15  0.1000E-09  0.0000E+00  0.9127E+15
   -1.124895    3.41802  0.0000E+00  0.1386E-11  0.8346E-15  0.1000E-09  0.0000E+00  0.7669E+15
   -1.162391    3.51108  0.0000E+00  0.3952E-11  0.2308E-14  0.1000E-09  0.0000E+00  0.6260E+15
   -1.199887    3.60360  0.0000E+00  0.1110E-10  0.6306E-14  0.1000E-09  0.0000E+00  0.4877E+15
   -1.237383    3.69556  0.0000E+00  0.3084E-10  0.1706E-13  0.1317E-09  0.0000E+00  0.3522E+15
   -1.274879    3.78694  0.0000E+00  0.8570E-10  0.4623E-13  0.5669E-09  0.0000E+00  0.2194E+15
   -1.312375    3.87767  0.0000E+00  0.2369E-09  0.1250E-12  0.3623E-08  0.0000E+00  0.8935E+14
   -1.349870    3.96610  0.0000E+00  0.6315E-09  0.3303E-12  0.1631E-06  0.0000E+00 -0.5322E+12
   -1.387365    4.00842  0.0000E+00  0.1304E-08  0.8329E-12  0.7796E-06  0.0000E+00 -0.6408E+13
   -1.424859    4.02246  0.0000E+00  0.1600E-08  0.1435E-11  0.6246E-06  0.0000E+00 -0.1211E+14
   -1.462353    4.03974  0.0000E+00  0.1418E-08  0.2687E-11  0.2017E-06  0.0000E+00 -0.4576E+14
   -1.499847    4.07960  0.0000E+00  0.0000E+00  0.0000E+00  0.0000E+00  0.0000E+00  0.0000E+00
