 1 - depth, m
 2 - temperature, C
 3 - salinity, kg/kg
 4 - turbulent kinetic energy, m**2/s**2
 5 - dissipation rate, m**2/s**3
 6 - kinematic heat conductance, m**2/s
 7 - modulus of horizontal velocity, m/s
 8 - Richardson number, n/d
   -0.000000    0.00000  0.0000E+00  0.4096E-13  0.8590E-16  0.1000E-09  0.0000E+00  0.1031E+17
   -0.037498    0.15800  0.0000E+00  0.4096E-13  0.8590E-16  0.1000E-09  0.0000E+00  0.9766E+16
   -0.074997    0.31436  0.0000E+00  0.4096E-13  0.8590E-16  0.1000E-09  0.0000E+00  0.9238E+16
   -0.112495    0.46907  0.0000E+00  0.4096E-13  0.8590E-16  0.1000E-09  0.0000E+00  0.8727E+16
   -0.149994    0.62216  0.0000E+00  0.4096E-13  0.8590E-16  0.1000E-09  0.0000E+00  0.8231E+16
   -0.187494    0.77362  0.0000E+00  0.4096E-13  0.8590E-16  0.1000E-09  0.0000E+00  0.7749E+16
   -0.224994    0.92345  0.0000E+00  0.4096E-13  0.8590E-16  0.1000E-09  0.0000E+00  0.7282E+16
   -0.262493    1.07163  0.0000E+00  0.4096E-13  0.8590E-16  0.1000E-09  0.0000E+00  0.6820E+16
   -0.299994    1.21797  0.0000E+00  0.4096E-13  0.8590E-16  0.1000E-09  0.0000E+00  0.6371E+16
   -0.337494    1.36238  0.0000E+00  0.4096E-13  0.8590E-16  0.1000E-09  0.0000E+00  0.5936E+16
   -0.374995    1.50484  0.0000E+00  0.4096E-13  0.8590E-16  0.1000E-09  0.0000E+00  0.5544E+16
   -0.412496    1.64604  0.0000E+00  0.7344E-13  0.8590E-16  0.1000E-09  0.0000E+00  0.5178E+16
   -0.449997    1.78643  0.0000E+00  0.2445E-12  0.9311E-16  0.1000E-09  0.0000E+00  0.4819E+16
   -0.487498    1.92599  0.0000E+00  0.5969E-12  0.1440E-15  0.1000E-09  0.0000E+00  0.4466E+16
   -0.524999    2.06469  0.0000E+00  0.1233E-11  0.2591E-15  0.1000E-09  0.0000E+00  0.4118E+16
   -0.562500    2.20241  0.0000E+00  0.2379E-11  0.4744E-15  0.1000E-09  0.0000E+00  0.3776E+16
   -0.600002    2.33913  0.0000E+00  0.4458E-11  0.8634E-15  0.1000E-09  0.0000E+00  0.3443E+16
   -0.637503    2.47481  0.0000E+00  0.8230E-11  0.1559E-14  0.1000E-09  0.0000E+00  0.3117E+16
   -0.675005    2.60943  0.0000E+00  0.1506E-10  0.2797E-14  0.1000E-09  0.0000E+00  0.2798E+16
   -0.712507    2.74296  0.0000E+00  0.2737E-10  0.4987E-14  0.1000E-09  0.0000E+00  0.2488E+16
   -0.750008    2.87536  0.0000E+00  0.4943E-10  0.8841E-14  0.1000E-09  0.0000E+00  0.2206E+16
   -0.787510    3.00797  0.0000E+00  0.8880E-10  0.1559E-13  0.1000E-09  0.0000E+00  0.1932E+16
   -0.825011    3.14130  0.0000E+00  0.1587E-09  0.2736E-13  0.1000E-09  0.0000E+00  0.1656E+16
   -0.862513    3.27549  0.0000E+00  0.2821E-09  0.4776E-13  0.1052E-09  0.0000E+00  0.1377E+16
   -0.900015    3.41072  0.0000E+00  0.4991E-09  0.8300E-13  0.2108E-09  0.0000E+00  0.1093E+16
   -0.937516    3.54722  0.0000E+00  0.8785E-09  0.1435E-12  0.4948E-09  0.0000E+00  0.8045E+15
   -0.975017    3.68522  0.0000E+00  0.1539E-08  0.2470E-12  0.1346E-08  0.0000E+00  0.5060E+15
   -1.012519    3.82445  0.0000E+00  0.2681E-08  0.4232E-12  0.5873E-08  0.0000E+00  0.1985E+15
   -1.050020    3.96111  0.0000E+00  0.4042E-08  0.6386E-12  0.2050E-05  0.0000E+00  0.6594E+13
   -1.087521    3.99927  0.0000E+00  0.4765E-08  0.7641E-12  0.1077E-04  0.0000E+00 -0.3790E+12
   -1.125022    4.00125  0.0000E+00  0.5182E-08  0.8532E-12  0.1164E-04  0.0000E+00 -0.4088E+12
   -1.162522    4.00304  0.0000E+00  0.5531E-08  0.9475E-12  0.1200E-04  0.0000E+00 -0.4467E+12
   -1.200023    4.00475  0.0000E+00  0.5813E-08  0.1051E-11  0.1191E-04  0.0000E+00 -0.4993E+12
   -1.237523    4.00648  0.0000E+00  0.6025E-08  0.1169E-11  0.1138E-04  0.0000E+00 -0.5750E+12
   -1.275023    4.00828  0.0000E+00  0.6161E-08  0.1314E-11  0.1042E-04  0.0000E+00 -0.6915E+12
   -1.312523    4.01025  0.0000E+00  0.6202E-08  0.1505E-11  0.8966E-05  0.0000E+00 -0.8870E+12
   -1.350022    4.01256  0.0000E+00  0.6108E-08  0.1784E-11  0.7034E-05  0.0000E+00 -0.1262E+13
   -1.387521    4.01551  0.0000E+00  0.5793E-08  0.2258E-11  0.4675E-05  0.0000E+00 -0.2171E+13
   -1.425020    4.01997  0.0000E+00  0.5041E-08  0.3302E-11  0.2155E-05  0.0000E+00 -0.5694E+13
   -1.462518    4.02948  0.0000E+00  0.3420E-08  0.6943E-11  0.3747E-06  0.0000E+00 -0.4375E+14
   -1.500016    4.07266  0.0000E+00  0.0000E+00  0.0000E+00  0.0000E+00  0.0000E+00  0.0000E+00
