 1 - depth, m
 2 - temperature, C
 3 - salinity, kg/kg
 4 - turbulent kinetic energy, m**2/s**2
 5 - dissipation rate, m**2/s**3
 6 - kinematic heat conductance, m**2/s
 7 - modulus of horizontal velocity, m/s
 8 - Richardson number, n/d
   -0.000000    0.00000  0.0000E+00  0.4096E-13  0.8590E-16  0.1000E-09  0.0000E+00  0.7878E+16
   -0.037493    0.12011  0.0000E+00  0.4096E-13  0.8590E-16  0.1000E-09  0.0000E+00  0.7595E+16
   -0.074987    0.23979  0.0000E+00  0.4096E-13  0.8590E-16  0.1000E-09  0.0000E+00  0.7310E+16
   -0.112481    0.35897  0.0000E+00  0.4096E-13  0.8590E-16  0.1000E-09  0.0000E+00  0.7025E+16
   -0.149975    0.47754  0.0000E+00  0.4096E-13  0.8590E-16  0.1000E-09  0.0000E+00  0.6739E+16
   -0.187469    0.59544  0.0000E+00  0.4096E-13  0.8590E-16  0.1000E-09  0.0000E+00  0.6455E+16
   -0.224964    0.71257  0.0000E+00  0.4096E-13  0.8590E-16  0.1000E-09  0.0000E+00  0.6172E+16
   -0.262459    0.82886  0.0000E+00  0.4096E-13  0.8590E-16  0.1000E-09  0.0000E+00  0.5888E+16
   -0.299954    0.94417  0.0000E+00  0.4096E-13  0.8590E-16  0.1000E-09  0.0000E+00  0.5606E+16
   -0.337450    1.05840  0.0000E+00  0.4096E-13  0.8590E-16  0.1000E-09  0.0000E+00  0.5328E+16
   -0.374946    1.17148  0.0000E+00  0.4096E-13  0.8590E-16  0.1000E-09  0.0000E+00  0.5066E+16
   -0.412441    1.28360  0.0000E+00  0.4096E-13  0.8590E-16  0.1000E-09  0.0000E+00  0.4815E+16
   -0.449938    1.39485  0.0000E+00  0.4096E-13  0.8590E-16  0.1000E-09  0.0000E+00  0.4566E+16
   -0.487434    1.50517  0.0000E+00  0.4096E-13  0.8590E-16  0.1000E-09  0.0000E+00  0.4321E+16
   -0.524930    1.61450  0.0000E+00  0.4096E-13  0.8590E-16  0.1000E-09  0.0000E+00  0.4078E+16
   -0.562427    1.72272  0.0000E+00  0.4096E-13  0.8590E-16  0.1000E-09  0.0000E+00  0.3840E+16
   -0.599923    1.82976  0.0000E+00  0.4096E-13  0.8590E-16  0.1000E-09  0.0000E+00  0.3606E+16
   -0.637420    1.93556  0.0000E+00  0.4096E-13  0.8590E-16  0.1000E-09  0.0000E+00  0.3378E+16
   -0.674916    2.04005  0.0000E+00  0.4096E-13  0.8590E-16  0.1000E-09  0.0000E+00  0.3154E+16
   -0.712413    2.14314  0.0000E+00  0.4096E-13  0.8590E-16  0.1000E-09  0.0000E+00  0.2936E+16
   -0.749910    2.24476  0.0000E+00  0.4096E-13  0.8590E-16  0.1000E-09  0.0000E+00  0.2738E+16
   -0.787407    2.34535  0.0000E+00  0.4096E-13  0.8590E-16  0.1000E-09  0.0000E+00  0.2549E+16
   -0.824903    2.44504  0.0000E+00  0.4096E-13  0.8590E-16  0.1000E-09  0.0000E+00  0.2363E+16
   -0.862400    2.54379  0.0000E+00  0.4096E-13  0.8590E-16  0.1000E-09  0.0000E+00  0.2182E+16
   -0.899897    2.64153  0.0000E+00  0.4096E-13  0.8590E-16  0.1000E-09  0.0000E+00  0.2005E+16
   -0.937393    2.73824  0.0000E+00  0.4096E-13  0.8590E-16  0.1000E-09  0.0000E+00  0.1832E+16
   -0.974890    2.83385  0.0000E+00  0.4096E-13  0.8590E-16  0.1000E-09  0.0000E+00  0.1665E+16
   -1.012386    2.92832  0.0000E+00  0.4096E-13  0.8590E-16  0.1000E-09  0.0000E+00  0.1500E+16
   -1.049882    3.02151  0.0000E+00  0.4096E-13  0.8590E-16  0.1000E-09  0.0000E+00  0.1341E+16
   -1.087378    3.11334  0.0000E+00  0.4096E-13  0.8590E-16  0.1000E-09  0.0000E+00  0.1187E+16
   -1.124874    3.20369  0.0000E+00  0.4096E-13  0.8590E-16  0.1000E-09  0.0000E+00  0.1052E+16
   -1.162370    3.29370  0.0000E+00  0.4096E-13  0.8590E-16  0.1000E-09  0.0000E+00  0.9213E+15
   -1.199865    3.38358  0.0000E+00  0.4096E-13  0.8590E-16  0.1000E-09  0.0000E+00  0.7917E+15
   -1.237361    3.47338  0.0000E+00  0.8718E-13  0.1305E-15  0.1000E-09  0.0000E+00  0.6637E+15
   -1.274856    3.56324  0.0000E+00  0.3876E-12  0.5461E-15  0.1000E-09  0.0000E+00  0.5385E+15
   -1.312351    3.65368  0.0000E+00  0.1768E-11  0.2458E-14  0.1000E-09  0.0000E+00  0.4123E+15
   -1.349845    3.74498  0.0000E+00  0.8030E-11  0.1112E-13  0.1002E-09  0.0000E+00  0.2837E+15
   -1.387339    3.83757  0.0000E+00  0.3635E-10  0.5088E-13  0.7159E-09  0.0000E+00  0.1501E+15
   -1.424833    3.93164  0.0000E+00  0.1629E-09  0.2393E-12  0.1045E-07  0.0000E+00  0.1324E+14
   -1.462327    4.02238  0.0000E+00  0.6362E-09  0.1231E-11  0.1156E-06  0.0000E+00 -0.5647E+14
   -1.499820    4.07861  0.0000E+00  0.0000E+00  0.0000E+00  0.0000E+00  0.0000E+00  0.0000E+00
