 1 - depth, m
 2 - temperature, C
 3 - salinity, kg/kg
 4 - turbulent kinetic energy, m**2/s**2
 5 - dissipation rate, m**2/s**3
 6 - kinematic heat conductance, m**2/s
 7 - modulus of horizontal velocity, m/s
 8 - Richardson number, n/d
   -0.000000    0.00000  0.0000E+00  0.4096E-13  0.8590E-16  0.1000E-09  0.0000E+00  0.1087E+17
   -0.037498    0.16671  0.0000E+00  0.4096E-13  0.8590E-16  0.1000E-09  0.0000E+00  0.1023E+17
   -0.074996    0.33112  0.0000E+00  0.4096E-13  0.8590E-16  0.1000E-09  0.0000E+00  0.9622E+16
   -0.112495    0.49324  0.0000E+00  0.4096E-13  0.8590E-16  0.1000E-09  0.0000E+00  0.9036E+16
   -0.149994    0.65311  0.0000E+00  0.4096E-13  0.8590E-16  0.1000E-09  0.0000E+00  0.8473E+16
   -0.187493    0.81075  0.0000E+00  0.4096E-13  0.8590E-16  0.1000E-09  0.0000E+00  0.7931E+16
   -0.224992    0.96616  0.0000E+00  0.4096E-13  0.8590E-16  0.1000E-09  0.0000E+00  0.7409E+16
   -0.262492    1.11936  0.0000E+00  0.4096E-13  0.8590E-16  0.1000E-09  0.0000E+00  0.6903E+16
   -0.299992    1.27026  0.0000E+00  0.4096E-13  0.8590E-16  0.1000E-09  0.0000E+00  0.6416E+16
   -0.337492    1.41881  0.0000E+00  0.4096E-13  0.8590E-16  0.1000E-09  0.0000E+00  0.5947E+16
   -0.374993    1.56500  0.0000E+00  0.4096E-13  0.8590E-16  0.1000E-09  0.0000E+00  0.5518E+16
   -0.412493    1.70939  0.0000E+00  0.4096E-13  0.8590E-16  0.1000E-09  0.0000E+00  0.5116E+16
   -0.449994    1.85233  0.0000E+00  0.1848E-12  0.8590E-16  0.1000E-09  0.0000E+00  0.4726E+16
   -0.487495    1.99379  0.0000E+00  0.4939E-12  0.1272E-15  0.1000E-09  0.0000E+00  0.4347E+16
   -0.524996    2.13374  0.0000E+00  0.1051E-11  0.2275E-15  0.1000E-09  0.0000E+00  0.3978E+16
   -0.562497    2.27213  0.0000E+00  0.2052E-11  0.4173E-15  0.1000E-09  0.0000E+00  0.3620E+16
   -0.599998    2.40889  0.0000E+00  0.3869E-11  0.7619E-15  0.1000E-09  0.0000E+00  0.3273E+16
   -0.637500    2.54399  0.0000E+00  0.7176E-11  0.1381E-14  0.1000E-09  0.0000E+00  0.2938E+16
   -0.675001    2.67736  0.0000E+00  0.1319E-10  0.2486E-14  0.1000E-09  0.0000E+00  0.2614E+16
   -0.712502    2.80894  0.0000E+00  0.2408E-10  0.4450E-14  0.1000E-09  0.0000E+00  0.2301E+16
   -0.750004    2.93865  0.0000E+00  0.4371E-10  0.7925E-14  0.1000E-09  0.0000E+00  0.2011E+16
   -0.787505    3.06718  0.0000E+00  0.7896E-10  0.1404E-13  0.1000E-09  0.0000E+00  0.1733E+16
   -0.825007    3.19476  0.0000E+00  0.1419E-09  0.2477E-13  0.1000E-09  0.0000E+00  0.1461E+16
   -0.862508    3.32133  0.0000E+00  0.2538E-09  0.4349E-13  0.1010E-09  0.0000E+00  0.1195E+16
   -0.900009    3.44683  0.0000E+00  0.4519E-09  0.7602E-13  0.2253E-09  0.0000E+00  0.9363E+15
   -0.937511    3.57109  0.0000E+00  0.8008E-09  0.1323E-12  0.5360E-09  0.0000E+00  0.6844E+15
   -0.975012    3.69388  0.0000E+00  0.1412E-08  0.2291E-12  0.1441E-08  0.0000E+00  0.4406E+15
   -1.012513    3.81463  0.0000E+00  0.2478E-08  0.3950E-12  0.5276E-08  0.0000E+00  0.2072E+15
   -1.050014    3.93095  0.0000E+00  0.4201E-08  0.6608E-12  0.8458E-07  0.0000E+00  0.2109E+14
   -1.087515    4.00560  0.0000E+00  0.5035E-08  0.7973E-12  0.1288E-04  0.0000E+00 -0.4012E+12
   -1.125015    4.00689  0.0000E+00  0.5423E-08  0.8755E-12  0.1332E-04  0.0000E+00 -0.4154E+12
   -1.162516    4.00814  0.0000E+00  0.5735E-08  0.9566E-12  0.1337E-04  0.0000E+00 -0.4401E+12
   -1.200016    4.00939  0.0000E+00  0.5974E-08  0.1044E-11  0.1303E-04  0.0000E+00 -0.4793E+12
   -1.237516    4.01068  0.0000E+00  0.6140E-08  0.1144E-11  0.1230E-04  0.0000E+00 -0.5393E+12
   -1.275016    4.01205  0.0000E+00  0.6226E-08  0.1266E-11  0.1115E-04  0.0000E+00 -0.6349E+12
   -1.312515    4.01358  0.0000E+00  0.6216E-08  0.1429E-11  0.9521E-05  0.0000E+00 -0.7977E+12
   -1.350014    4.01539  0.0000E+00  0.6070E-08  0.1668E-11  0.7416E-05  0.0000E+00 -0.1112E+13
   -1.387513    4.01774  0.0000E+00  0.5701E-08  0.2078E-11  0.4880E-05  0.0000E+00 -0.1875E+13
   -1.425012    4.02134  0.0000E+00  0.4894E-08  0.2997E-11  0.2199E-05  0.0000E+00 -0.4854E+13
   -1.462510    4.02928  0.0000E+00  0.3209E-08  0.6258E-11  0.3517E-06  0.0000E+00 -0.3847E+14
   -1.500008    4.06854  0.0000E+00  0.0000E+00  0.0000E+00  0.0000E+00  0.0000E+00  0.0000E+00
