 1 - depth, m
 2 - temperature, C
 3 - salinity, kg/kg
 4 - turbulent kinetic energy, m**2/s**2
 5 - dissipation rate, m**2/s**3
 6 - kinematic heat conductance, m**2/s
 7 - modulus of horizontal velocity, m/s
 8 - Richardson number, n/d
   -0.000000    0.00000  0.0000E+00  0.4096E-13  0.8590E-16  0.1000E-09  0.0000E+00  0.8286E+16
   -0.037494    0.12645  0.0000E+00  0.4096E-13  0.8590E-16  0.1000E-09  0.0000E+00  0.7956E+16
   -0.074989    0.25215  0.0000E+00  0.4096E-13  0.8590E-16  0.1000E-09  0.0000E+00  0.7628E+16
   -0.112484    0.37706  0.0000E+00  0.4096E-13  0.8590E-16  0.1000E-09  0.0000E+00  0.7304E+16
   -0.149979    0.50112  0.0000E+00  0.4096E-13  0.8590E-16  0.1000E-09  0.0000E+00  0.6982E+16
   -0.187475    0.62425  0.0000E+00  0.4096E-13  0.8590E-16  0.1000E-09  0.0000E+00  0.6664E+16
   -0.224971    0.74639  0.0000E+00  0.4096E-13  0.8590E-16  0.1000E-09  0.0000E+00  0.6350E+16
   -0.262467    0.86746  0.0000E+00  0.4096E-13  0.8590E-16  0.1000E-09  0.0000E+00  0.6036E+16
   -0.299963    0.98734  0.0000E+00  0.4096E-13  0.8590E-16  0.1000E-09  0.0000E+00  0.5727E+16
   -0.337460    1.10591  0.0000E+00  0.4096E-13  0.8590E-16  0.1000E-09  0.0000E+00  0.5422E+16
   -0.374957    1.22310  0.0000E+00  0.4096E-13  0.8590E-16  0.1000E-09  0.0000E+00  0.5138E+16
   -0.412454    1.33916  0.0000E+00  0.4096E-13  0.8590E-16  0.1000E-09  0.0000E+00  0.4867E+16
   -0.449951    1.45422  0.0000E+00  0.4096E-13  0.8590E-16  0.1000E-09  0.0000E+00  0.4600E+16
   -0.487448    1.56822  0.0000E+00  0.4096E-13  0.8590E-16  0.1000E-09  0.0000E+00  0.4337E+16
   -0.524945    1.68109  0.0000E+00  0.4096E-13  0.8590E-16  0.1000E-09  0.0000E+00  0.4078E+16
   -0.562443    1.79272  0.0000E+00  0.4096E-13  0.8590E-16  0.1000E-09  0.0000E+00  0.3824E+16
   -0.599941    1.90302  0.0000E+00  0.4096E-13  0.8590E-16  0.1000E-09  0.0000E+00  0.3576E+16
   -0.637438    2.01193  0.0000E+00  0.4096E-13  0.8590E-16  0.1000E-09  0.0000E+00  0.3334E+16
   -0.674936    2.11936  0.0000E+00  0.4096E-13  0.8590E-16  0.1000E-09  0.0000E+00  0.3098E+16
   -0.712434    2.22525  0.0000E+00  0.4096E-13  0.8590E-16  0.1000E-09  0.0000E+00  0.2868E+16
   -0.749932    2.32951  0.0000E+00  0.4096E-13  0.8590E-16  0.1000E-09  0.0000E+00  0.2661E+16
   -0.787430    2.43264  0.0000E+00  0.4096E-13  0.8590E-16  0.1000E-09  0.0000E+00  0.2463E+16
   -0.824927    2.53480  0.0000E+00  0.4096E-13  0.8590E-16  0.1000E-09  0.0000E+00  0.2270E+16
   -0.862425    2.63593  0.0000E+00  0.4096E-13  0.8590E-16  0.1000E-09  0.0000E+00  0.2081E+16
   -0.899923    2.73599  0.0000E+00  0.4096E-13  0.8590E-16  0.1000E-09  0.0000E+00  0.1897E+16
   -0.937421    2.83491  0.0000E+00  0.4096E-13  0.8590E-16  0.1000E-09  0.0000E+00  0.1718E+16
   -0.974918    2.93264  0.0000E+00  0.4096E-13  0.8590E-16  0.1000E-09  0.0000E+00  0.1544E+16
   -1.012416    3.02911  0.0000E+00  0.4096E-13  0.8590E-16  0.1000E-09  0.0000E+00  0.1374E+16
   -1.049913    3.12418  0.0000E+00  0.4096E-13  0.8590E-16  0.1000E-09  0.0000E+00  0.1210E+16
   -1.087410    3.21773  0.0000E+00  0.4096E-13  0.8590E-16  0.1000E-09  0.0000E+00  0.1052E+16
   -1.124907    3.30963  0.0000E+00  0.5126E-13  0.8590E-16  0.1000E-09  0.0000E+00  0.9136E+15
   -1.162404    3.40115  0.0000E+00  0.2206E-12  0.2212E-15  0.1000E-09  0.0000E+00  0.7787E+15
   -1.199900    3.49251  0.0000E+00  0.8215E-12  0.7682E-15  0.1000E-09  0.0000E+00  0.6450E+15
   -1.237397    3.58373  0.0000E+00  0.2927E-11  0.2657E-14  0.1000E-09  0.0000E+00  0.5130E+15
   -1.274893    3.67495  0.0000E+00  0.1038E-10  0.9190E-14  0.1000E-09  0.0000E+00  0.3832E+15
   -1.312389    3.76671  0.0000E+00  0.3654E-10  0.3168E-13  0.3255E-09  0.0000E+00  0.2517E+15
   -1.349884    3.85912  0.0000E+00  0.1275E-09  0.1090E-12  0.2240E-08  0.0000E+00  0.1174E+15
   -1.387380    3.95149  0.0000E+00  0.4341E-09  0.3735E-12  0.5770E-07  0.0000E+00  0.9504E+12
   -1.424875    4.01944  0.0000E+00  0.1179E-08  0.1318E-11  0.3882E-06  0.0000E+00 -0.1928E+14
   -1.462369    4.04598  0.0000E+00  0.1356E-08  0.2763E-11  0.1971E-06  0.0000E+00 -0.5657E+14
   -1.499864    4.09019  0.0000E+00  0.0000E+00  0.0000E+00  0.0000E+00  0.0000E+00  0.0000E+00
