 1 - depth, m
 2 - temperature, C
 3 - salinity, kg/kg
 4 - turbulent kinetic energy, m**2/s**2
 5 - dissipation rate, m**2/s**3
 6 - kinematic heat conductance, m**2/s
 7 - modulus of horizontal velocity, m/s
 8 - Richardson number, n/d
   -0.000000    0.00000  0.0000E+00  0.4096E-13  0.8590E-16  0.1000E-09  0.0000E+00  0.1739E+17
   -0.037501    0.27066  0.0000E+00  0.4096E-13  0.8590E-16  0.1000E-09  0.0000E+00  0.1405E+17
   -0.075003    0.50581  0.0000E+00  0.4096E-13  0.8590E-16  0.1000E-09  0.0000E+00  0.1145E+17
   -0.112505    0.71057  0.0000E+00  0.4096E-13  0.8590E-16  0.1000E-09  0.0000E+00  0.9418E+16
   -0.150007    0.88983  0.0000E+00  0.4096E-13  0.8590E-16  0.1000E-09  0.0000E+00  0.7853E+16
   -0.187510    1.04813  0.0000E+00  0.4403E-13  0.8590E-16  0.1000E-09  0.0000E+00  0.6652E+16
   -0.225012    1.18960  0.0000E+00  0.8291E-13  0.9068E-16  0.1000E-09  0.0000E+00  0.5738E+16
   -0.262516    1.31793  0.0000E+00  0.2035E-12  0.1277E-15  0.1000E-09  0.0000E+00  0.4978E+16
   -0.300019    1.43475  0.0000E+00  0.5242E-12  0.2395E-15  0.1000E-09  0.0000E+00  0.4382E+16
   -0.337522    1.54239  0.0000E+00  0.1316E-11  0.5260E-15  0.1000E-09  0.0000E+00  0.3921E+16
   -0.375026    1.64304  0.0000E+00  0.3193E-11  0.1216E-14  0.1000E-09  0.0000E+00  0.3616E+16
   -0.412530    1.74002  0.0000E+00  0.7582E-11  0.2804E-14  0.1000E-09  0.0000E+00  0.3417E+16
   -0.450034    1.83583  0.0000E+00  0.1776E-10  0.6397E-14  0.1000E-09  0.0000E+00  0.3274E+16
   -0.487539    1.93198  0.0000E+00  0.4115E-10  0.1445E-13  0.1000E-09  0.0000E+00  0.3168E+16
   -0.525043    2.02972  0.0000E+00  0.9445E-10  0.3233E-13  0.1000E-09  0.0000E+00  0.3059E+16
   -0.562548    2.12919  0.0000E+00  0.2147E-09  0.7166E-13  0.1107E-09  0.0000E+00  0.3011E+16
   -0.600052    2.23295  0.0000E+00  0.4832E-09  0.1573E-12  0.1605E-09  0.0000E+00  0.3040E+16
   -0.637557    2.34485  0.0000E+00  0.1077E-08  0.3419E-12  0.2860E-09  0.0000E+00  0.3163E+16
   -0.675062    2.47096  0.0000E+00  0.2375E-08  0.7360E-12  0.5542E-09  0.0000E+00  0.3388E+16
   -0.712566    2.62082  0.0000E+00  0.5185E-08  0.1569E-11  0.1089E-08  0.0000E+00  0.3681E+16
   -0.750071    2.80936  0.0000E+00  0.1120E-07  0.3308E-11  0.2253E-08  0.0000E+00  0.3947E+16
   -0.787576    3.06387  0.0000E+00  0.2377E-07  0.6869E-11  0.8107E-08  0.0000E+00  0.3567E+16
   -0.825081    3.40396  0.0000E+00  0.3997E-07  0.1152E-10  0.1211E-04  0.0000E+00  0.2416E+16
   -0.862585    3.72873  0.0000E+00  0.5373E-07  0.1561E-10  0.3689E-04  0.0000E+00  0.1147E+16
   -0.900090    3.95737  0.0000E+00  0.6217E-07  0.1821E-10  0.5891E-04  0.0000E+00  0.1968E+15
   -0.937595    4.05487  0.0000E+00  0.6383E-07  0.1885E-10  0.7588E-04  0.0000E+00 -0.1349E+13
   -0.975099    4.05613  0.0000E+00  0.6495E-07  0.1941E-10  0.7541E-04  0.0000E+00 -0.1409E+13
   -1.012604    4.05742  0.0000E+00  0.6592E-07  0.2004E-10  0.7516E-04  0.0000E+00 -0.1471E+13
   -1.050108    4.05874  0.0000E+00  0.6672E-07  0.2074E-10  0.7445E-04  0.0000E+00 -0.1549E+13
   -1.087612    4.06010  0.0000E+00  0.6735E-07  0.2152E-10  0.7324E-04  0.0000E+00 -0.1648E+13
   -1.125116    4.06152  0.0000E+00  0.6777E-07  0.2241E-10  0.7147E-04  0.0000E+00 -0.1726E+13
   -1.162620    4.06297  0.0000E+00  0.6797E-07  0.2342E-10  0.6912E-04  0.0000E+00 -0.1820E+13
   -1.200123    4.06448  0.0000E+00  0.6794E-07  0.2461E-10  0.6617E-04  0.0000E+00 -0.1940E+13
   -1.237627    4.06605  0.0000E+00  0.6763E-07  0.2603E-10  0.6250E-04  0.0000E+00 -0.2099E+13
   -1.275130    4.06772  0.0000E+00  0.6701E-07  0.2782E-10  0.5799E-04  0.0000E+00 -0.2319E+13
   -1.312633    4.06952  0.0000E+00  0.6598E-07  0.3020E-10  0.5247E-04  0.0000E+00 -0.2637E+13
   -1.350135    4.07152  0.0000E+00  0.6439E-07  0.3362E-10  0.4583E-04  0.0000E+00 -0.3113E+13
   -1.387638    4.07383  0.0000E+00  0.6150E-07  0.3993E-10  0.2938E-04  0.0000E+00 -0.5062E+13
   -1.425139    4.07747  0.0000E+00  0.5530E-07  0.5586E-10  0.1344E-04  0.0000E+00 -0.1189E+14
   -1.462641    4.08548  0.0000E+00  0.3670E-07  0.1321E-09  0.1907E-05  0.0000E+00 -0.1069E+15
   -1.500142    4.13969  0.0000E+00  0.0000E+00  0.0000E+00  0.0000E+00  0.0000E+00  0.0000E+00
