 1 - depth, m
 2 - temperature, C
 3 - salinity, kg/kg
 4 - turbulent kinetic energy, m**2/s**2
 5 - dissipation rate, m**2/s**3
 6 - kinematic heat conductance, m**2/s
 7 - modulus of horizontal velocity, m/s
 8 - Richardson number, n/d
   -0.000000   17.74887  0.0000E+00  0.2416E-04  0.2519E-05  0.2345E-04  0.3207E-01 -0.1770E-01
   -0.037497   17.77914  0.0000E+00  0.1913E-04  0.8407E-06  0.4838E-04  0.1889E-01 -0.4244E-01
   -0.074993   17.79041  0.0000E+00  0.1675E-04  0.4434E-06  0.7243E-04  0.1453E-01 -0.7212E-01
   -0.112491   17.79778  0.0000E+00  0.1515E-04  0.2798E-06  0.9767E-04  0.1184E-01 -0.1072E+00
   -0.149988   17.80314  0.0000E+00  0.1398E-04  0.1950E-06  0.1273E-03  0.9963E-02 -0.1279E+00
   -0.187486   17.80717  0.0000E+00  0.1311E-04  0.1457E-06  0.2039E-03  0.8590E-02  0.1068E+03
   -0.224984   17.80985  0.0000E+00  0.1250E-04  0.1160E-06  0.3710E-03  0.7577E-02  0.4305E+03
   -0.262483   17.81127  0.0000E+00  0.1208E-04  0.9648E-07  0.4353E-03  0.6819E-02  0.1026E+02
   -0.299981   17.81237  0.0000E+00  0.1175E-04  0.8168E-07  0.4488E-03  0.6136E-02  0.8839E+01
   -0.337480   17.81341  0.0000E+00  0.1147E-04  0.7009E-07  0.4704E-03  0.5515E-02  0.7448E+01
   -0.374979   17.81438  0.0000E+00  0.1124E-04  0.6091E-07  0.4903E-03  0.4957E-02  0.6507E+01
   -0.412478   17.81530  0.0000E+00  0.1103E-04  0.5347E-07  0.5114E-03  0.4449E-02  0.5894E+01
   -0.449978   17.81616  0.0000E+00  0.1084E-04  0.4734E-07  0.5332E-03  0.3984E-02  0.5412E+01
   -0.487477   17.81697  0.0000E+00  0.1066E-04  0.4222E-07  0.5563E-03  0.3557E-02  0.4966E+01
   -0.524977   17.81774  0.0000E+00  0.1048E-04  0.3787E-07  0.5825E-03  0.3163E-02  0.4317E+01
   -0.562477   17.81846  0.0000E+00  0.1030E-04  0.3417E-07  0.6096E-03  0.2805E-02  0.3807E+01
   -0.599977   17.81914  0.0000E+00  0.1011E-04  0.3101E-07  0.6373E-03  0.2479E-02  0.3397E+01
   -0.637477   17.81978  0.0000E+00  0.9919E-05  0.2832E-07  0.6644E-03  0.2184E-02  0.3059E+01
   -0.674977   17.82039  0.0000E+00  0.9717E-05  0.2602E-07  0.6896E-03  0.1917E-02  0.2777E+01
   -0.712477   17.82097  0.0000E+00  0.9505E-05  0.2408E-07  0.7114E-03  0.1677E-02  0.2538E+01
   -0.749977   17.82153  0.0000E+00  0.9282E-05  0.2246E-07  0.7290E-03  0.1462E-02  0.2334E+01
   -0.787477   17.82207  0.0000E+00  0.9047E-05  0.2112E-07  0.7421E-03  0.1271E-02  0.2157E+01
   -0.824977   17.82259  0.0000E+00  0.8801E-05  0.2004E-07  0.7518E-03  0.1102E-02  0.2001E+01
   -0.862477   17.82311  0.0000E+00  0.8547E-05  0.1920E-07  0.7598E-03  0.9526E-03  0.1861E+01
   -0.899977   17.82361  0.0000E+00  0.8286E-05  0.1858E-07  0.7686E-03  0.8224E-03  0.1735E+01
   -0.937477   17.82411  0.0000E+00  0.8021E-05  0.1816E-07  0.7797E-03  0.7089E-03  0.1620E+01
   -0.974977   17.82460  0.0000E+00  0.7756E-05  0.1794E-07  0.7965E-03  0.6102E-03  0.1519E+01
   -1.012477   17.82507  0.0000E+00  0.7495E-05  0.1789E-07  0.8201E-03  0.5246E-03  0.1392E+01
   -1.049976   17.82553  0.0000E+00  0.7244E-05  0.1800E-07  0.8183E-03  0.4532E-03  0.1274E+01
   -1.087475   17.82599  0.0000E+00  0.7006E-05  0.1826E-07  0.7870E-03  0.3944E-03  0.1160E+01
   -1.124975   17.82646  0.0000E+00  0.6784E-05  0.1866E-07  0.7191E-03  0.3463E-03  0.1044E+01
   -1.162474   17.82697  0.0000E+00  0.6577E-05  0.1919E-07  0.6585E-03  0.3069E-03  0.9409E+00
   -1.199973   17.82753  0.0000E+00  0.6381E-05  0.1987E-07  0.6078E-03  0.2747E-03  0.9398E+00
   -1.237471   17.82814  0.0000E+00  0.6180E-05  0.2080E-07  0.5625E-03  0.2475E-03  0.1174E+01
   -1.274970   17.82879  0.0000E+00  0.5951E-05  0.2220E-07  0.4965E-03  0.2226E-03 -0.9817E+01
   -1.312468   17.82954  0.0000E+00  0.5672E-05  0.2443E-07  0.4342E-03  0.1982E-03  0.3925E+01
   -1.349966   17.83039  0.0000E+00  0.5312E-05  0.2839E-07  0.3251E-03  0.1752E-03  0.8688E+01
   -1.387463   17.83167  0.0000E+00  0.4833E-05  0.3572E-07  0.2917E-03  0.1498E-03  0.1440E+04
   -1.424960   17.83290  0.0000E+00  0.4047E-05  0.5742E-07  0.1268E-03  0.1304E-03  0.8023E+04
   -1.462457   17.83918  0.0000E+00  0.2406E-05  0.1424E-06  0.4078E-04  0.9836E-04 -0.1188E+05
   -1.499954   17.84887  0.0000E+00  0.0000E+00  0.0000E+00  0.0000E+00  0.1093E-03  0.0000E+00
