 1 - depth, m
 2 - temperature, C
 3 - salinity, kg/kg
 4 - turbulent kinetic energy, m**2/s**2
 5 - dissipation rate, m**2/s**3
 6 - kinematic heat conductance, m**2/s
 7 - modulus of horizontal velocity, m/s
 8 - Richardson number, n/d
   -0.000000    0.00000  0.0000E+00  0.4096E-13  0.8590E-16  0.1000E-09  0.0000E+00  0.1080E+17
   -0.037501    0.16566  0.0000E+00  0.4096E-13  0.8590E-16  0.1000E-09  0.0000E+00  0.1018E+17
   -0.075003    0.32909  0.0000E+00  0.4096E-13  0.8590E-16  0.1000E-09  0.0000E+00  0.9577E+16
   -0.112505    0.49033  0.0000E+00  0.4096E-13  0.8590E-16  0.1000E-09  0.0000E+00  0.9001E+16
   -0.150007    0.64942  0.0000E+00  0.4096E-13  0.8590E-16  0.1000E-09  0.0000E+00  0.8448E+16
   -0.187510    0.80639  0.0000E+00  0.4096E-13  0.8590E-16  0.1000E-09  0.0000E+00  0.7915E+16
   -0.225013    0.96126  0.0000E+00  0.4096E-13  0.8590E-16  0.1000E-09  0.0000E+00  0.7402E+16
   -0.262516    1.11403  0.0000E+00  0.4096E-13  0.8590E-16  0.1000E-09  0.0000E+00  0.6903E+16
   -0.300020    1.26460  0.0000E+00  0.4096E-13  0.8590E-16  0.1000E-09  0.0000E+00  0.6420E+16
   -0.337523    1.41293  0.0000E+00  0.4096E-13  0.8590E-16  0.1000E-09  0.0000E+00  0.5956E+16
   -0.375027    1.55898  0.0000E+00  0.4096E-13  0.8590E-16  0.1000E-09  0.0000E+00  0.5531E+16
   -0.412531    1.70333  0.0000E+00  0.4096E-13  0.8590E-16  0.1000E-09  0.0000E+00  0.5133E+16
   -0.450035    1.84631  0.0000E+00  0.1841E-12  0.8590E-16  0.1000E-09  0.0000E+00  0.4744E+16
   -0.487540    1.98790  0.0000E+00  0.4925E-12  0.1272E-15  0.1000E-09  0.0000E+00  0.4367E+16
   -0.525044    2.12805  0.0000E+00  0.1049E-11  0.2277E-15  0.1000E-09  0.0000E+00  0.3998E+16
   -0.562549    2.26670  0.0000E+00  0.2050E-11  0.4181E-15  0.1000E-09  0.0000E+00  0.3640E+16
   -0.600053    2.40379  0.0000E+00  0.3868E-11  0.7641E-15  0.1000E-09  0.0000E+00  0.3293E+16
   -0.637558    2.53926  0.0000E+00  0.7182E-11  0.1386E-14  0.1000E-09  0.0000E+00  0.2957E+16
   -0.675063    2.67306  0.0000E+00  0.1321E-10  0.2497E-14  0.1000E-09  0.0000E+00  0.2632E+16
   -0.712568    2.80511  0.0000E+00  0.2414E-10  0.4475E-14  0.1000E-09  0.0000E+00  0.2318E+16
   -0.750073    2.93535  0.0000E+00  0.4387E-10  0.7976E-14  0.1000E-09  0.0000E+00  0.2027E+16
   -0.787578    3.06448  0.0000E+00  0.7930E-10  0.1415E-13  0.1000E-09  0.0000E+00  0.1747E+16
   -0.825083    3.19274  0.0000E+00  0.1427E-09  0.2498E-13  0.1000E-09  0.0000E+00  0.1473E+16
   -0.862587    3.32007  0.0000E+00  0.2554E-09  0.4389E-13  0.1011E-09  0.0000E+00  0.1205E+16
   -0.900092    3.44643  0.0000E+00  0.4551E-09  0.7678E-13  0.2258E-09  0.0000E+00  0.9432E+15
   -0.937597    3.57163  0.0000E+00  0.8071E-09  0.1337E-12  0.5389E-09  0.0000E+00  0.6881E+15
   -0.975101    3.69546  0.0000E+00  0.1424E-08  0.2317E-12  0.1458E-08  0.0000E+00  0.4405E+15
   -1.012606    3.81731  0.0000E+00  0.2501E-08  0.3999E-12  0.5447E-08  0.0000E+00  0.2032E+15
   -1.050110    3.93469  0.0000E+00  0.4222E-08  0.6664E-12  0.9947E-07  0.0000E+00  0.1799E+14
   -1.087614    4.00550  0.0000E+00  0.5059E-08  0.8041E-12  0.1288E-04  0.0000E+00 -0.4041E+12
   -1.125119    4.00680  0.0000E+00  0.5452E-08  0.8835E-12  0.1332E-04  0.0000E+00 -0.4184E+12
   -1.162622    4.00806  0.0000E+00  0.5767E-08  0.9657E-12  0.1339E-04  0.0000E+00 -0.4434E+12
   -1.200126    4.00933  0.0000E+00  0.6010E-08  0.1055E-11  0.1305E-04  0.0000E+00 -0.4831E+12
   -1.237629    4.01063  0.0000E+00  0.6178E-08  0.1156E-11  0.1232E-04  0.0000E+00 -0.5439E+12
   -1.275133    4.01202  0.0000E+00  0.6267E-08  0.1280E-11  0.1117E-04  0.0000E+00 -0.6405E+12
   -1.312636    4.01356  0.0000E+00  0.6258E-08  0.1445E-11  0.9544E-05  0.0000E+00 -0.8050E+12
   -1.350138    4.01539  0.0000E+00  0.6113E-08  0.1688E-11  0.7437E-05  0.0000E+00 -0.1122E+13
   -1.387641    4.01775  0.0000E+00  0.5744E-08  0.2104E-11  0.4897E-05  0.0000E+00 -0.1893E+13
   -1.425143    4.02139  0.0000E+00  0.4935E-08  0.3035E-11  0.2209E-05  0.0000E+00 -0.4900E+13
   -1.462644    4.02939  0.0000E+00  0.3241E-08  0.6342E-11  0.3546E-06  0.0000E+00 -0.3884E+14
   -1.500146    4.06888  0.0000E+00  0.0000E+00  0.0000E+00  0.0000E+00  0.0000E+00  0.0000E+00
