 1 - depth, m
 2 - temperature, C
 3 - salinity, kg/kg
 4 - turbulent kinetic energy, m**2/s**2
 5 - dissipation rate, m**2/s**3
 6 - kinematic heat conductance, m**2/s
 7 - modulus of horizontal velocity, m/s
 8 - Richardson number, n/d
   -0.000000    0.00000  0.0000E+00  0.4096E-13  0.8590E-16  0.1000E-09  0.0000E+00  0.1084E+17
   -0.037495    0.16636  0.0000E+00  0.4096E-13  0.8590E-16  0.1000E-09  0.0000E+00  0.1023E+17
   -0.074990    0.33067  0.0000E+00  0.4096E-13  0.8590E-16  0.1000E-09  0.0000E+00  0.9629E+16
   -0.112486    0.49289  0.0000E+00  0.4096E-13  0.8590E-16  0.1000E-09  0.0000E+00  0.9050E+16
   -0.149982    0.65299  0.0000E+00  0.4096E-13  0.8590E-16  0.1000E-09  0.0000E+00  0.8490E+16
   -0.187478    0.81095  0.0000E+00  0.4096E-13  0.8590E-16  0.1000E-09  0.0000E+00  0.7948E+16
   -0.224975    0.96673  0.0000E+00  0.4096E-13  0.8590E-16  0.1000E-09  0.0000E+00  0.7425E+16
   -0.262471    1.12030  0.0000E+00  0.4096E-13  0.8590E-16  0.1000E-09  0.0000E+00  0.6917E+16
   -0.299968    1.27155  0.0000E+00  0.4096E-13  0.8590E-16  0.1000E-09  0.0000E+00  0.6426E+16
   -0.337466    1.42042  0.0000E+00  0.4096E-13  0.8590E-16  0.1000E-09  0.0000E+00  0.5953E+16
   -0.374963    1.56687  0.0000E+00  0.4096E-13  0.8590E-16  0.1000E-09  0.0000E+00  0.5520E+16
   -0.412461    1.71143  0.0000E+00  0.4096E-13  0.8590E-16  0.1000E-09  0.0000E+00  0.5114E+16
   -0.449958    1.85444  0.0000E+00  0.1820E-12  0.8590E-16  0.1000E-09  0.0000E+00  0.4720E+16
   -0.487456    1.99587  0.0000E+00  0.4883E-12  0.1256E-15  0.1000E-09  0.0000E+00  0.4338E+16
   -0.524954    2.13569  0.0000E+00  0.1039E-11  0.2237E-15  0.1000E-09  0.0000E+00  0.3967E+16
   -0.562453    2.27384  0.0000E+00  0.2028E-11  0.4092E-15  0.1000E-09  0.0000E+00  0.3608E+16
   -0.599951    2.41026  0.0000E+00  0.3816E-11  0.7454E-15  0.1000E-09  0.0000E+00  0.3260E+16
   -0.637449    2.54492  0.0000E+00  0.7063E-11  0.1348E-14  0.1000E-09  0.0000E+00  0.2925E+16
   -0.674948    2.67775  0.0000E+00  0.1295E-10  0.2421E-14  0.1000E-09  0.0000E+00  0.2601E+16
   -0.712446    2.80869  0.0000E+00  0.2359E-10  0.4324E-14  0.1000E-09  0.0000E+00  0.2289E+16
   -0.749945    2.93767  0.0000E+00  0.4273E-10  0.7683E-14  0.1000E-09  0.0000E+00  0.2001E+16
   -0.787443    3.06537  0.0000E+00  0.7700E-10  0.1359E-13  0.1000E-09  0.0000E+00  0.1725E+16
   -0.824942    3.19200  0.0000E+00  0.1381E-09  0.2391E-13  0.1000E-09  0.0000E+00  0.1455E+16
   -0.862440    3.31751  0.0000E+00  0.2464E-09  0.4189E-13  0.1000E-09  0.0000E+00  0.1193E+16
   -0.899938    3.44185  0.0000E+00  0.4378E-09  0.7305E-13  0.2161E-09  0.0000E+00  0.9378E+15
   -0.937437    3.56486  0.0000E+00  0.7740E-09  0.1268E-12  0.5096E-09  0.0000E+00  0.6903E+15
   -0.974935    3.68633  0.0000E+00  0.1362E-08  0.2192E-12  0.1347E-08  0.0000E+00  0.4512E+15
   -1.012433    3.80575  0.0000E+00  0.2385E-08  0.3773E-12  0.4696E-08  0.0000E+00  0.2225E+15
   -1.049931    3.92108  0.0000E+00  0.4079E-08  0.6357E-12  0.5668E-07  0.0000E+00  0.3059E+14
   -1.087429    4.00510  0.0000E+00  0.4899E-08  0.7685E-12  0.1263E-04  0.0000E+00 -0.3927E+12
   -1.124926    4.00639  0.0000E+00  0.5279E-08  0.8443E-12  0.1306E-04  0.0000E+00 -0.4072E+12
   -1.162424    4.00764  0.0000E+00  0.5585E-08  0.9229E-12  0.1312E-04  0.0000E+00 -0.4317E+12
   -1.199921    4.00890  0.0000E+00  0.5819E-08  0.1008E-11  0.1280E-04  0.0000E+00 -0.4704E+12
   -1.237418    4.01019  0.0000E+00  0.5981E-08  0.1105E-11  0.1208E-04  0.0000E+00 -0.5296E+12
   -1.274915    4.01157  0.0000E+00  0.6067E-08  0.1223E-11  0.1095E-04  0.0000E+00 -0.6240E+12
   -1.312412    4.01310  0.0000E+00  0.6057E-08  0.1381E-11  0.9348E-05  0.0000E+00 -0.7849E+12
   -1.349908    4.01491  0.0000E+00  0.5914E-08  0.1613E-11  0.7277E-05  0.0000E+00 -0.1096E+13
   -1.387404    4.01726  0.0000E+00  0.5554E-08  0.2012E-11  0.4784E-05  0.0000E+00 -0.1852E+13
   -1.424899    4.02087  0.0000E+00  0.4764E-08  0.2903E-11  0.2151E-05  0.0000E+00 -0.4809E+13
   -1.462395    4.02883  0.0000E+00  0.3125E-08  0.6056E-11  0.3448E-06  0.0000E+00 -0.3801E+14
   -1.499889    4.06795  0.0000E+00  0.0000E+00  0.0000E+00  0.0000E+00  0.0000E+00  0.0000E+00
