 1 - depth, m
 2 - temperature, C
 3 - salinity, kg/kg
 4 - turbulent kinetic energy, m**2/s**2
 5 - dissipation rate, m**2/s**3
 6 - kinematic heat conductance, m**2/s
 7 - modulus of horizontal velocity, m/s
 8 - Richardson number, n/d
   -0.000000    0.00000  0.0000E+00  0.4095E-13  0.8587E-16  0.1000E-09  0.0000E+00  0.7567E+16
   -0.037494    0.11535  0.0000E+00  0.4095E-13  0.8587E-16  0.1000E-09  0.0000E+00  0.6766E+16
   -0.074989    0.22168  0.0000E+00  0.4095E-13  0.8587E-16  0.1000E-09  0.0000E+00  0.6332E+16
   -0.112484    0.32414  0.0000E+00  0.4095E-13  0.8587E-16  0.1000E-09  0.0000E+00  0.6028E+16
   -0.149980    0.42457  0.0000E+00  0.4095E-13  0.8587E-16  0.1000E-09  0.0000E+00  0.5791E+16
   -0.187476    0.52397  0.0000E+00  0.4095E-13  0.8587E-16  0.1000E-09  0.0000E+00  0.5606E+16
   -0.224972    0.62316  0.0000E+00  0.4095E-13  0.8587E-16  0.1000E-09  0.0000E+00  0.5464E+16
   -0.262468    0.72290  0.0000E+00  0.4095E-13  0.8587E-16  0.1000E-09  0.0000E+00  0.5291E+16
   -0.299965    0.82266  0.0000E+00  0.4095E-13  0.8587E-16  0.1000E-09  0.0000E+00  0.5128E+16
   -0.337461    0.92261  0.0000E+00  0.4095E-13  0.8587E-16  0.1000E-09  0.0000E+00  0.4980E+16
   -0.374958    1.02307  0.0000E+00  0.4095E-13  0.8587E-16  0.1000E-09  0.0000E+00  0.4834E+16
   -0.412456    1.12414  0.0000E+00  0.4095E-13  0.8587E-16  0.1000E-09  0.0000E+00  0.4692E+16
   -0.449953    1.22593  0.0000E+00  0.4095E-13  0.8587E-16  0.1000E-09  0.0000E+00  0.4556E+16
   -0.487450    1.32869  0.0000E+00  0.4095E-13  0.8587E-16  0.1000E-09  0.0000E+00  0.4416E+16
   -0.524948    1.43240  0.0000E+00  0.4095E-13  0.8587E-16  0.1000E-09  0.0000E+00  0.4217E+16
   -0.562446    1.53572  0.0000E+00  0.4095E-13  0.8587E-16  0.1000E-09  0.0000E+00  0.4023E+16
   -0.599944    1.63871  0.0000E+00  0.4095E-13  0.8587E-16  0.1000E-09  0.0000E+00  0.3833E+16
   -0.637442    1.74139  0.0000E+00  0.4095E-13  0.8587E-16  0.1000E-09  0.0000E+00  0.3644E+16
   -0.674940    1.84375  0.0000E+00  0.4095E-13  0.8587E-16  0.1000E-09  0.0000E+00  0.3457E+16
   -0.712438    1.94578  0.0000E+00  0.4095E-13  0.8587E-16  0.1000E-09  0.0000E+00  0.3270E+16
   -0.749936    2.04740  0.0000E+00  0.4095E-13  0.8587E-16  0.1000E-09  0.0000E+00  0.3098E+16
   -0.787434    2.14901  0.0000E+00  0.4095E-13  0.8587E-16  0.1000E-09  0.0000E+00  0.2930E+16
   -0.824932    2.25077  0.0000E+00  0.4095E-13  0.8587E-16  0.1000E-09  0.0000E+00  0.2765E+16
   -0.862430    2.35275  0.0000E+00  0.4134E-13  0.8588E-16  0.1000E-09  0.0000E+00  0.2603E+16
   -0.899927    2.45514  0.0000E+00  0.4793E-13  0.9033E-16  0.1000E-09  0.0000E+00  0.2446E+16
   -0.937425    2.55821  0.0000E+00  0.9149E-13  0.1232E-15  0.1000E-09  0.0000E+00  0.2297E+16
   -0.974923    2.66245  0.0000E+00  0.2571E-12  0.2614E-15  0.1000E-09  0.0000E+00  0.2158E+16
   -1.012421    2.76868  0.0000E+00  0.8664E-12  0.7582E-15  0.1000E-09  0.0000E+00  0.1937E+16
   -1.049918    2.87282  0.0000E+00  0.3038E-11  0.2483E-14  0.1000E-09  0.0000E+00  0.1706E+16
   -1.087416    2.97358  0.0000E+00  0.1057E-10  0.8281E-14  0.1028E-09  0.0000E+00  0.1479E+16
   -1.124913    3.07004  0.0000E+00  0.3610E-10  0.2734E-13  0.1255E-09  0.0000E+00  0.1387E+16
   -1.162410    3.17108  0.0000E+00  0.1209E-09  0.8871E-13  0.2233E-09  0.0000E+00  0.1321E+16
   -1.199907    3.28136  0.0000E+00  0.3966E-09  0.2827E-12  0.5339E-09  0.0000E+00  0.1266E+16
   -1.237403    3.40959  0.0000E+00  0.1269E-08  0.8814E-12  0.2158E-08  0.0000E+00  0.1130E+16
   -1.274899    3.57214  0.0000E+00  0.3069E-08  0.2175E-11  0.6139E-06  0.0000E+00  0.7908E+15
   -1.312395    3.73795  0.0000E+00  0.5461E-08  0.4119E-11  0.2259E-05  0.0000E+00  0.4788E+15
   -1.349891    3.88446  0.0000E+00  0.7944E-08  0.6659E-11  0.3340E-05  0.0000E+00  0.1871E+15
   -1.387387    3.98044  0.0000E+00  0.1008E-07  0.1014E-10  0.3577E-05  0.0000E+00  0.4328E+14
   -1.424882    4.04127  0.0000E+00  0.1131E-07  0.1612E-10  0.2615E-05  0.0000E+00 -0.2899E+14
   -1.462377    4.07942  0.0000E+00  0.1037E-07  0.3385E-10  0.8723E-06  0.0000E+00 -0.1276E+15
   -1.499871    4.14448  0.0000E+00  0.0000E+00  0.0000E+00  0.0000E+00  0.0000E+00  0.0000E+00
