 1 - depth, m
 2 - temperature, C
 3 - salinity, kg/kg
 4 - turbulent kinetic energy, m**2/s**2
 5 - dissipation rate, m**2/s**3
 6 - kinematic heat conductance, m**2/s
 7 - modulus of horizontal velocity, m/s
 8 - Richardson number, n/d
   -0.000000    0.00000  0.0000E+00  0.4095E-13  0.8588E-16  0.1000E-09  0.0000E+00  0.1226E+17
   -0.037499    0.19007  0.0000E+00  0.4095E-13  0.8588E-16  0.1000E-09  0.0000E+00  0.8639E+16
   -0.074997    0.33115  0.0000E+00  0.4095E-13  0.8588E-16  0.1000E-09  0.0000E+00  0.6762E+16
   -0.112497    0.44533  0.0000E+00  0.4095E-13  0.8588E-16  0.1000E-09  0.0000E+00  0.5794E+16
   -0.149996    0.54580  0.0000E+00  0.4095E-13  0.8588E-16  0.1000E-09  0.0000E+00  0.5303E+16
   -0.187496    0.64016  0.0000E+00  0.4095E-13  0.8588E-16  0.1000E-09  0.0000E+00  0.5065E+16
   -0.224996    0.73282  0.0000E+00  0.4095E-13  0.8588E-16  0.1000E-09  0.0000E+00  0.4974E+16
   -0.262497    0.82659  0.0000E+00  0.4095E-13  0.8588E-16  0.1000E-09  0.0000E+00  0.4796E+16
   -0.299997    0.91981  0.0000E+00  0.4095E-13  0.8588E-16  0.1000E-09  0.0000E+00  0.4643E+16
   -0.337498    1.01295  0.0000E+00  0.4095E-13  0.8588E-16  0.1000E-09  0.0000E+00  0.4524E+16
   -0.374999    1.10674  0.0000E+00  0.4095E-13  0.8588E-16  0.1000E-09  0.0000E+00  0.4418E+16
   -0.412501    1.20157  0.0000E+00  0.4095E-13  0.8588E-16  0.1000E-09  0.0000E+00  0.4324E+16
   -0.450002    1.29783  0.0000E+00  0.4095E-13  0.8588E-16  0.1000E-09  0.0000E+00  0.4252E+16
   -0.487504    1.39623  0.0000E+00  0.4095E-13  0.8588E-16  0.1000E-09  0.0000E+00  0.4175E+16
   -0.525005    1.49693  0.0000E+00  0.4146E-13  0.8597E-16  0.1000E-09  0.0000E+00  0.3954E+16
   -0.562507    1.59630  0.0000E+00  0.4811E-13  0.9156E-16  0.1000E-09  0.0000E+00  0.3761E+16
   -0.600009    1.69496  0.0000E+00  0.8191E-13  0.1232E-15  0.1000E-09  0.0000E+00  0.3584E+16
   -0.637511    1.79326  0.0000E+00  0.2219E-12  0.2546E-15  0.1000E-09  0.0000E+00  0.3413E+16
   -0.675013    1.89129  0.0000E+00  0.7727E-12  0.7598E-15  0.1000E-09  0.0000E+00  0.3239E+16
   -0.712515    1.98890  0.0000E+00  0.2881E-11  0.2634E-14  0.1000E-09  0.0000E+00  0.3049E+16
   -0.750017    2.08538  0.0000E+00  0.1077E-10  0.9410E-14  0.1043E-09  0.0000E+00  0.2916E+16
   -0.787519    2.18277  0.0000E+00  0.3968E-10  0.3340E-13  0.1287E-09  0.0000E+00  0.2789E+16
   -0.825022    2.28139  0.0000E+00  0.1440E-09  0.1169E-12  0.2250E-09  0.0000E+00  0.2655E+16
   -0.862524    2.38121  0.0000E+00  0.5174E-09  0.4058E-12  0.5421E-09  0.0000E+00  0.2536E+16
   -0.900026    2.48320  0.0000E+00  0.1860E-08  0.1412E-11  0.1332E-08  0.0000E+00  0.2476E+16
   -0.937528    2.59156  0.0000E+00  0.6652E-08  0.4918E-11  0.2973E-08  0.0000E+00  0.2545E+16
   -0.975029    2.72382  0.0000E+00  0.1718E-07  0.1254E-10  0.7311E-06  0.0000E+00  0.2411E+16
   -1.012531    2.88718  0.0000E+00  0.2635E-07  0.1945E-10  0.6759E-05  0.0000E+00  0.2004E+16
   -1.050033    3.03275  0.0000E+00  0.3408E-07  0.2562E-10  0.1143E-04  0.0000E+00  0.1652E+16
   -1.087534    3.16157  0.0000E+00  0.4083E-07  0.3146E-10  0.1502E-04  0.0000E+00  0.1358E+16
   -1.125035    3.27577  0.0000E+00  0.4694E-07  0.3735E-10  0.1784E-04  0.0000E+00  0.1219E+16
   -1.162536    3.38667  0.0000E+00  0.5243E-07  0.4339E-10  0.2001E-04  0.0000E+00  0.1074E+16
   -1.200037    3.49372  0.0000E+00  0.5718E-07  0.4961E-10  0.2169E-04  0.0000E+00  0.9244E+15
   -1.237538    3.59588  0.0000E+00  0.6110E-07  0.5613E-10  0.2267E-04  0.0000E+00  0.7734E+15
   -1.275038    3.69294  0.0000E+00  0.6419E-07  0.6335E-10  0.2273E-04  0.0000E+00  0.6020E+15
   -1.312539    3.78121  0.0000E+00  0.6642E-07  0.7199E-10  0.2183E-04  0.0000E+00  0.4648E+15
   -1.350038    3.86722  0.0000E+00  0.6767E-07  0.8327E-10  0.1994E-04  0.0000E+00  0.3205E+15
   -1.387538    3.96059  0.0000E+00  0.6761E-07  0.1003E-09  0.1683E-04  0.0000E+00  0.1373E+15
   -1.425037    4.04435  0.0000E+00  0.6469E-07  0.1366E-09  0.9664E-05  0.0000E+00 -0.4716E+13
   -1.462536    4.11075  0.0000E+00  0.4736E-07  0.3136E-09  0.1743E-05  0.0000E+00 -0.2725E+15
   -1.500035    4.20552  0.0000E+00  0.0000E+00  0.0000E+00  0.0000E+00  0.0000E+00  0.0000E+00
