 1 - depth, m
 2 - temperature, C
 3 - salinity, kg/kg
 4 - turbulent kinetic energy, m**2/s**2
 5 - dissipation rate, m**2/s**3
 6 - kinematic heat conductance, m**2/s
 7 - modulus of horizontal velocity, m/s
 8 - Richardson number, n/d
   -0.000000    0.00000  0.0000E+00  0.4096E-13  0.8590E-16  0.1000E-09  0.0000E+00  0.1018E+17
   -0.037494    0.15599  0.0000E+00  0.4096E-13  0.8590E-16  0.1000E-09  0.0000E+00  0.9641E+16
   -0.074988    0.31021  0.0000E+00  0.4096E-13  0.8590E-16  0.1000E-09  0.0000E+00  0.9116E+16
   -0.112482    0.46265  0.0000E+00  0.4096E-13  0.8590E-16  0.1000E-09  0.0000E+00  0.8608E+16
   -0.149976    0.61330  0.0000E+00  0.4096E-13  0.8590E-16  0.1000E-09  0.0000E+00  0.8115E+16
   -0.187471    0.76214  0.0000E+00  0.4096E-13  0.8590E-16  0.1000E-09  0.0000E+00  0.7637E+16
   -0.224966    0.90916  0.0000E+00  0.4096E-13  0.8590E-16  0.1000E-09  0.0000E+00  0.7174E+16
   -0.262462    1.05434  0.0000E+00  0.4096E-13  0.8590E-16  0.1000E-09  0.0000E+00  0.6719E+16
   -0.299958    1.19750  0.0000E+00  0.4096E-13  0.8590E-16  0.1000E-09  0.0000E+00  0.6278E+16
   -0.337453    1.33859  0.0000E+00  0.4096E-13  0.8590E-16  0.1000E-09  0.0000E+00  0.5852E+16
   -0.374950    1.47758  0.0000E+00  0.4096E-13  0.8590E-16  0.1000E-09  0.0000E+00  0.5467E+16
   -0.412446    1.61509  0.0000E+00  0.4096E-13  0.8590E-16  0.1000E-09  0.0000E+00  0.5108E+16
   -0.449942    1.75154  0.0000E+00  0.4096E-13  0.8590E-16  0.1000E-09  0.0000E+00  0.4758E+16
   -0.487439    1.88690  0.0000E+00  0.4099E-13  0.8590E-16  0.1000E-09  0.0000E+00  0.4416E+16
   -0.524936    2.02116  0.0000E+00  0.2005E-12  0.8590E-16  0.1000E-09  0.0000E+00  0.4079E+16
   -0.562433    2.15422  0.0000E+00  0.5267E-12  0.1434E-15  0.1000E-09  0.0000E+00  0.3752E+16
   -0.599930    2.28603  0.0000E+00  0.1133E-11  0.2715E-15  0.1000E-09  0.0000E+00  0.3432E+16
   -0.637427    2.41657  0.0000E+00  0.2270E-11  0.5182E-15  0.1000E-09  0.0000E+00  0.3121E+16
   -0.674924    2.54580  0.0000E+00  0.4421E-11  0.9809E-15  0.1000E-09  0.0000E+00  0.2819E+16
   -0.712421    2.67367  0.0000E+00  0.8492E-11  0.1842E-14  0.1000E-09  0.0000E+00  0.2525E+16
   -0.749918    2.80013  0.0000E+00  0.1618E-10  0.3435E-14  0.1000E-09  0.0000E+00  0.2258E+16
   -0.787415    2.92618  0.0000E+00  0.3061E-10  0.6367E-14  0.1000E-09  0.0000E+00  0.1999E+16
   -0.824912    3.05216  0.0000E+00  0.5757E-10  0.1174E-13  0.1000E-09  0.0000E+00  0.1742E+16
   -0.862409    3.17809  0.0000E+00  0.1077E-09  0.2152E-13  0.1000E-09  0.0000E+00  0.1487E+16
   -0.899906    3.30394  0.0000E+00  0.2003E-09  0.3924E-13  0.1000E-09  0.0000E+00  0.1232E+16
   -0.937403    3.42969  0.0000E+00  0.3706E-09  0.7120E-13  0.2018E-09  0.0000E+00  0.9790E+15
   -0.974900    3.55525  0.0000E+00  0.6821E-09  0.1285E-12  0.4905E-09  0.0000E+00  0.7267E+15
   -1.012397    3.68041  0.0000E+00  0.1251E-08  0.2312E-12  0.1345E-08  0.0000E+00  0.4766E+15
   -1.049894    3.80473  0.0000E+00  0.2285E-08  0.4146E-12  0.4985E-08  0.0000E+00  0.2301E+15
   -1.087390    3.92586  0.0000E+00  0.4031E-08  0.7208E-12  0.7676E-07  0.0000E+00  0.2528E+14
   -1.124886    4.00699  0.0000E+00  0.4996E-08  0.9000E-12  0.1126E-04  0.0000E+00 -0.5198E+12
   -1.162382    4.00853  0.0000E+00  0.5441E-08  0.1003E-11  0.1167E-04  0.0000E+00 -0.5419E+12
   -1.199878    4.01004  0.0000E+00  0.5787E-08  0.1111E-11  0.1165E-04  0.0000E+00 -0.5821E+12
   -1.237374    4.01156  0.0000E+00  0.6040E-08  0.1230E-11  0.1121E-04  0.0000E+00 -0.6481E+12
   -1.274869    4.01314  0.0000E+00  0.6201E-08  0.1373E-11  0.1032E-04  0.0000E+00 -0.7567E+12
   -1.312365    4.01489  0.0000E+00  0.6254E-08  0.1559E-11  0.8951E-05  0.0000E+00 -0.9441E+12
   -1.349860    4.01692  0.0000E+00  0.6161E-08  0.1828E-11  0.7077E-05  0.0000E+00 -0.1307E+13
   -1.387354    4.01954  0.0000E+00  0.5837E-08  0.2285E-11  0.4738E-05  0.0000E+00 -0.2186E+13
   -1.424848    4.02350  0.0000E+00  0.5064E-08  0.3294E-11  0.2191E-05  0.0000E+00 -0.5572E+13
   -1.462342    4.03208  0.0000E+00  0.3398E-08  0.6843E-11  0.3716E-06  0.0000E+00 -0.4252E+14
   -1.499836    4.07308  0.0000E+00  0.0000E+00  0.0000E+00  0.0000E+00  0.0000E+00  0.0000E+00
