 1 - depth, m
 2 - temperature, C
 3 - salinity, kg/kg
 4 - turbulent kinetic energy, m**2/s**2
 5 - dissipation rate, m**2/s**3
 6 - kinematic heat conductance, m**2/s
 7 - modulus of horizontal velocity, m/s
 8 - Richardson number, n/d
   -0.000000    0.00000  0.0000E+00  0.4096E-13  0.8589E-16  0.1000E-09  0.0000E+00  0.1345E+17
   -0.037496    0.20746  0.0000E+00  0.4096E-13  0.8589E-16  0.1000E-09  0.0000E+00  0.1246E+17
   -0.074992    0.41122  0.0000E+00  0.4096E-13  0.8589E-16  0.1000E-09  0.0000E+00  0.1138E+17
   -0.112488    0.60870  0.0000E+00  0.4096E-13  0.8589E-16  0.1000E-09  0.0000E+00  0.1026E+17
   -0.149985    0.79777  0.0000E+00  0.4096E-13  0.8589E-16  0.1000E-09  0.0000E+00  0.9139E+16
   -0.187482    0.97680  0.0000E+00  0.4096E-13  0.8589E-16  0.1000E-09  0.0000E+00  0.8070E+16
   -0.224979    1.14475  0.0000E+00  0.4096E-13  0.8589E-16  0.1000E-09  0.0000E+00  0.7079E+16
   -0.262477    1.30113  0.0000E+00  0.4096E-13  0.8589E-16  0.1000E-09  0.0000E+00  0.6165E+16
   -0.299975    1.44551  0.0000E+00  0.4096E-13  0.8589E-16  0.1000E-09  0.0000E+00  0.5355E+16
   -0.337473    1.57824  0.0000E+00  0.4096E-13  0.8589E-16  0.1000E-09  0.0000E+00  0.4654E+16
   -0.374971    1.70010  0.0000E+00  0.4096E-13  0.8589E-16  0.1000E-09  0.0000E+00  0.4171E+16
   -0.412470    1.81536  0.0000E+00  0.4096E-13  0.8589E-16  0.1000E-09  0.0000E+00  0.3839E+16
   -0.449968    1.92734  0.0000E+00  0.4096E-13  0.8589E-16  0.1000E-09  0.0000E+00  0.3574E+16
   -0.487467    2.03758  0.0000E+00  0.4096E-13  0.8589E-16  0.1000E-09  0.0000E+00  0.3362E+16
   -0.524966    2.14752  0.0000E+00  0.4096E-13  0.8589E-16  0.1000E-09  0.0000E+00  0.3189E+16
   -0.562465    2.25847  0.0000E+00  0.4111E-13  0.8589E-16  0.1000E-09  0.0000E+00  0.3039E+16
   -0.599964    2.37148  0.0000E+00  0.5196E-13  0.8589E-16  0.1000E-09  0.0000E+00  0.2895E+16
   -0.637463    2.48725  0.0000E+00  0.1142E-12  0.8779E-16  0.1000E-09  0.0000E+00  0.2741E+16
   -0.674963    2.60601  0.0000E+00  0.2788E-12  0.1037E-15  0.1000E-09  0.0000E+00  0.2564E+16
   -0.712462    2.72744  0.0000E+00  0.6318E-12  0.1540E-15  0.1000E-09  0.0000E+00  0.2355E+16
   -0.749961    2.85063  0.0000E+00  0.1266E-11  0.2739E-15  0.1000E-09  0.0000E+00  0.2145E+16
   -0.787461    2.97613  0.0000E+00  0.2405E-11  0.4987E-15  0.1000E-09  0.0000E+00  0.1905E+16
   -0.824960    3.10273  0.0000E+00  0.4471E-11  0.9071E-15  0.1000E-09  0.0000E+00  0.1633E+16
   -0.862459    3.22824  0.0000E+00  0.8234E-11  0.1644E-14  0.1000E-09  0.0000E+00  0.1345E+16
   -0.899958    3.35026  0.0000E+00  0.1510E-10  0.2973E-14  0.1000E-09  0.0000E+00  0.1059E+16
   -0.937457    3.46642  0.0000E+00  0.2764E-10  0.5365E-14  0.1000E-09  0.0000E+00  0.7939E+15
   -0.974956    3.57466  0.0000E+00  0.5047E-10  0.9662E-14  0.1000E-09  0.0000E+00  0.5626E+15
   -1.012455    3.67337  0.0000E+00  0.9218E-10  0.1740E-13  0.1374E-09  0.0000E+00  0.3760E+15
   -1.049954    3.76234  0.0000E+00  0.1686E-09  0.3138E-13  0.4093E-09  0.0000E+00  0.2302E+15
   -1.087453    3.84134  0.0000E+00  0.3079E-09  0.5655E-13  0.1523E-08  0.0000E+00  0.1219E+15
   -1.124951    3.91050  0.0000E+00  0.5588E-09  0.1014E-12  0.1134E-07  0.0000E+00  0.4540E+14
   -1.162449    3.96812  0.0000E+00  0.9409E-09  0.1708E-12  0.7539E-06  0.0000E+00  0.5447E+13
   -1.199948    3.99396  0.0000E+00  0.1336E-08  0.2528E-12  0.2264E-05  0.0000E+00 -0.5130E+12
   -1.237445    3.99746  0.0000E+00  0.1628E-08  0.3340E-12  0.2666E-05  0.0000E+00 -0.6184E+12
   -1.274943    4.00057  0.0000E+00  0.1883E-08  0.4339E-12  0.2790E-05  0.0000E+00 -0.7866E+12
   -1.312440    4.00374  0.0000E+00  0.2100E-08  0.5665E-12  0.2651E-05  0.0000E+00 -0.1079E+13
   -1.349937    4.00732  0.0000E+00  0.2261E-08  0.7590E-12  0.2264E-05  0.0000E+00 -0.1660E+13
   -1.387434    4.01188  0.0000E+00  0.2331E-08  0.1076E-11  0.1650E-05  0.0000E+00 -0.3092E+13
   -1.424931    4.01869  0.0000E+00  0.2230E-08  0.1714E-11  0.8936E-06  0.0000E+00 -0.8276E+13
   -1.462427    4.03220  0.0000E+00  0.1823E-08  0.3509E-11  0.2450E-06  0.0000E+00 -0.4561E+14
   -1.499922    4.07539  0.0000E+00  0.0000E+00  0.0000E+00  0.0000E+00  0.0000E+00  0.0000E+00
