 1 - depth, m
 2 - temperature, C
 3 - salinity, kg/kg
 4 - turbulent kinetic energy, m**2/s**2
 5 - dissipation rate, m**2/s**3
 6 - kinematic heat conductance, m**2/s
 7 - modulus of horizontal velocity, m/s
 8 - Richardson number, n/d
   -0.000000    0.00000  0.0000E+00  0.4096E-13  0.8590E-16  0.1000E-09  0.0000E+00  0.7715E+16
   -0.037500    0.11758  0.0000E+00  0.4096E-13  0.8590E-16  0.1000E-09  0.0000E+00  0.7435E+16
   -0.075000    0.23462  0.0000E+00  0.4096E-13  0.8590E-16  0.1000E-09  0.0000E+00  0.7165E+16
   -0.112501    0.35120  0.0000E+00  0.4096E-13  0.8590E-16  0.1000E-09  0.0000E+00  0.6902E+16
   -0.150002    0.46740  0.0000E+00  0.4096E-13  0.8590E-16  0.1000E-09  0.0000E+00  0.6645E+16
   -0.187503    0.58324  0.0000E+00  0.4096E-13  0.8590E-16  0.1000E-09  0.0000E+00  0.6392E+16
   -0.225004    0.69875  0.0000E+00  0.4096E-13  0.8590E-16  0.1000E-09  0.0000E+00  0.6141E+16
   -0.262506    0.81392  0.0000E+00  0.4096E-13  0.8590E-16  0.1000E-09  0.0000E+00  0.5891E+16
   -0.300008    0.92869  0.0000E+00  0.4096E-13  0.8590E-16  0.1000E-09  0.0000E+00  0.5641E+16
   -0.337510    1.04300  0.0000E+00  0.4096E-13  0.8590E-16  0.1000E-09  0.0000E+00  0.5393E+16
   -0.375013    1.15683  0.0000E+00  0.4096E-13  0.8590E-16  0.1000E-09  0.0000E+00  0.5152E+16
   -0.412515    1.27023  0.0000E+00  0.4096E-13  0.8590E-16  0.1000E-09  0.0000E+00  0.4914E+16
   -0.450018    1.38322  0.0000E+00  0.4096E-13  0.8590E-16  0.1000E-09  0.0000E+00  0.4678E+16
   -0.487521    1.49576  0.0000E+00  0.4096E-13  0.8590E-16  0.1000E-09  0.0000E+00  0.4442E+16
   -0.525024    1.60776  0.0000E+00  0.4096E-13  0.8590E-16  0.1000E-09  0.0000E+00  0.4206E+16
   -0.562527    1.71911  0.0000E+00  0.4096E-13  0.8590E-16  0.1000E-09  0.0000E+00  0.3972E+16
   -0.600031    1.82974  0.0000E+00  0.4096E-13  0.8590E-16  0.1000E-09  0.0000E+00  0.3740E+16
   -0.637534    1.93957  0.0000E+00  0.4096E-13  0.8590E-16  0.1000E-09  0.0000E+00  0.3511E+16
   -0.675037    2.04853  0.0000E+00  0.4096E-13  0.8590E-16  0.1000E-09  0.0000E+00  0.3285E+16
   -0.712541    2.15653  0.0000E+00  0.4096E-13  0.8590E-16  0.1000E-09  0.0000E+00  0.3062E+16
   -0.750044    2.26348  0.0000E+00  0.4096E-13  0.8590E-16  0.1000E-09  0.0000E+00  0.2850E+16
   -0.787548    2.36955  0.0000E+00  0.4096E-13  0.8590E-16  0.1000E-09  0.0000E+00  0.2643E+16
   -0.825051    2.47475  0.0000E+00  0.4096E-13  0.8590E-16  0.1000E-09  0.0000E+00  0.2440E+16
   -0.862555    2.57901  0.0000E+00  0.4096E-13  0.8590E-16  0.1000E-09  0.0000E+00  0.2240E+16
   -0.900058    2.68224  0.0000E+00  0.4096E-13  0.8590E-16  0.1000E-09  0.0000E+00  0.2045E+16
   -0.937561    2.78436  0.0000E+00  0.4096E-13  0.8590E-16  0.1000E-09  0.0000E+00  0.1854E+16
   -0.975065    2.88528  0.0000E+00  0.4096E-13  0.8590E-16  0.1000E-09  0.0000E+00  0.1668E+16
   -1.012568    2.98489  0.0000E+00  0.4096E-13  0.8590E-16  0.1000E-09  0.0000E+00  0.1485E+16
   -1.050071    3.08290  0.0000E+00  0.4096E-13  0.8590E-16  0.1000E-09  0.0000E+00  0.1307E+16
   -1.087573    3.17910  0.0000E+00  0.4096E-13  0.8590E-16  0.1000E-09  0.0000E+00  0.1135E+16
   -1.125076    3.27331  0.0000E+00  0.4096E-13  0.8590E-16  0.1000E-09  0.0000E+00  0.9854E+15
   -1.162578    3.36672  0.0000E+00  0.4096E-13  0.8590E-16  0.1000E-09  0.0000E+00  0.8405E+15
   -1.200081    3.45948  0.0000E+00  0.1555E-12  0.1812E-15  0.1000E-09  0.0000E+00  0.6985E+15
   -1.237583    3.55152  0.0000E+00  0.6217E-12  0.6695E-15  0.1000E-09  0.0000E+00  0.5597E+15
   -1.275084    3.64276  0.0000E+00  0.2423E-11  0.2541E-14  0.1000E-09  0.0000E+00  0.4242E+15
   -1.312586    3.73308  0.0000E+00  0.9344E-11  0.9619E-14  0.1000E-09  0.0000E+00  0.2926E+15
   -1.350087    3.82230  0.0000E+00  0.3572E-10  0.3637E-13  0.5298E-09  0.0000E+00  0.1653E+15
   -1.387588    3.90992  0.0000E+00  0.1351E-09  0.1384E-12  0.5469E-08  0.0000E+00  0.4539E+14
   -1.425089    3.99295  0.0000E+00  0.4824E-09  0.5370E-12  0.1427E-06  0.0000E+00 -0.1804E+14
   -1.462589    4.03479  0.0000E+00  0.7267E-09  0.1326E-11  0.1264E-06  0.0000E+00 -0.4744E+14
   -1.500089    4.07803  0.0000E+00  0.0000E+00  0.0000E+00  0.0000E+00  0.0000E+00  0.0000E+00
