 1 - depth, m
 2 - temperature, C
 3 - salinity, kg/kg
 4 - turbulent kinetic energy, m**2/s**2
 5 - dissipation rate, m**2/s**3
 6 - kinematic heat conductance, m**2/s
 7 - modulus of horizontal velocity, m/s
 8 - Richardson number, n/d
   -0.000000   12.53998  0.0000E+00  0.1883E-03  0.2033E-03  0.5257E-04  0.1272E+00 -0.2363E-01
   -0.037499   12.60198  0.0000E+00  0.1050E-03  0.5729E-04  0.9389E-04  0.4648E-01 -0.3028E-01
   -0.074998   12.61550  0.0000E+00  0.7459E-04  0.1790E-04  0.1162E-03  0.3241E-01 -0.4704E-01
   -0.112498   12.62428  0.0000E+00  0.6010E-04  0.9819E-05  0.1293E-03  0.2666E-01 -0.5440E-01
   -0.149998   12.63033  0.0000E+00  0.5058E-04  0.5970E-05  0.1440E-03  0.2285E-01 -0.8626E-01
   -0.187498   12.63505  0.0000E+00  0.4372E-04  0.3778E-05  0.1683E-03  0.1997E-01  0.1255E+03
   -0.224999   12.63885  0.0000E+00  0.3849E-04  0.2455E-05  0.1980E-03  0.1764E-01  0.2011E+01
   -0.262500   12.64206  0.0000E+00  0.3441E-04  0.1645E-05  0.2237E-03  0.1568E-01  0.3201E+01
   -0.300001   12.64483  0.0000E+00  0.3111E-04  0.1122E-05  0.2482E-03  0.1402E-01  0.2068E+02
   -0.337502   12.64731  0.0000E+00  0.2841E-04  0.7852E-06  0.2782E-03  0.1258E-01  0.3486E+02
   -0.375004   12.64945  0.0000E+00  0.2622E-04  0.5752E-06  0.3193E-03  0.1136E-01  0.5472E+02
   -0.412505   12.65130  0.0000E+00  0.2439E-04  0.4356E-06  0.3582E-03  0.1028E-01  0.1645E+02
   -0.450007   12.65294  0.0000E+00  0.2283E-04  0.3404E-06  0.3909E-03  0.9334E-02  0.1368E+02
   -0.487509   12.65441  0.0000E+00  0.2147E-04  0.2734E-06  0.4250E-03  0.8485E-02  0.1580E+02
   -0.525011   12.65572  0.0000E+00  0.2026E-04  0.2249E-06  0.4577E-03  0.7722E-02  0.1389E+02
   -0.562513   12.65691  0.0000E+00  0.1919E-04  0.1888E-06  0.4940E-03  0.7042E-02  0.3224E+02
   -0.600016   12.65797  0.0000E+00  0.1822E-04  0.1612E-06  0.5332E-03  0.6429E-02  0.1440E+02
   -0.637518   12.65894  0.0000E+00  0.1734E-04  0.1394E-06  0.5701E-03  0.5872E-02  0.2402E+02
   -0.675021   12.65983  0.0000E+00  0.1653E-04  0.1217E-06  0.5988E-03  0.5362E-02  0.1425E+02
   -0.712523   12.66065  0.0000E+00  0.1579E-04  0.1071E-06  0.6265E-03  0.4890E-02  0.2358E+02
   -0.750026   12.66142  0.0000E+00  0.1509E-04  0.9493E-07  0.6558E-03  0.4454E-02  0.1050E+02
   -0.787528   12.66215  0.0000E+00  0.1443E-04  0.8460E-07  0.6807E-03  0.4049E-02  0.1137E+02
   -0.825031   12.66284  0.0000E+00  0.1380E-04  0.7580E-07  0.6993E-03  0.3670E-02  0.2387E+02
   -0.862533   12.66351  0.0000E+00  0.1320E-04  0.6824E-07  0.7141E-03  0.3316E-02  0.1057E+02
   -0.900036   12.66416  0.0000E+00  0.1260E-04  0.6169E-07  0.7200E-03  0.2985E-02  0.4951E+01
   -0.937538   12.66480  0.0000E+00  0.1202E-04  0.5601E-07  0.7160E-03  0.2674E-02  0.7302E+01
   -0.975040   12.66543  0.0000E+00  0.1144E-04  0.5107E-07  0.7064E-03  0.2382E-02  0.6799E+01
   -1.012543   12.66608  0.0000E+00  0.1085E-04  0.4678E-07  0.6963E-03  0.2106E-02  0.4835E+01
   -1.050045   12.66673  0.0000E+00  0.1027E-04  0.4309E-07  0.6840E-03  0.1855E-02  0.5201E+01
   -1.087546   12.66738  0.0000E+00  0.9680E-05  0.3998E-07  0.6689E-03  0.1626E-02  0.3311E+01
   -1.125048   12.66805  0.0000E+00  0.9095E-05  0.3747E-07  0.6470E-03  0.1419E-02  0.2213E+01
   -1.162550   12.66873  0.0000E+00  0.8515E-05  0.3560E-07  0.6120E-03  0.1232E-02  0.1843E+01
   -1.200051   12.66945  0.0000E+00  0.7944E-05  0.3450E-07  0.5644E-03  0.1064E-02  0.2232E+01
   -1.237552   12.67024  0.0000E+00  0.7385E-05  0.3441E-07  0.5105E-03  0.9129E-03  0.3809E+01
   -1.275053   12.67111  0.0000E+00  0.6830E-05  0.3595E-07  0.4515E-03  0.7780E-03  0.3231E+02
   -1.312553   12.67213  0.0000E+00  0.6247E-05  0.4086E-07  0.3934E-03  0.6641E-03  0.5829E+01
   -1.350054   12.67342  0.0000E+00  0.5585E-05  0.5224E-07  0.3061E-03  0.5612E-03  0.1116E+03
   -1.387554   12.67529  0.0000E+00  0.4842E-05  0.7263E-07  0.2588E-03  0.4598E-03  0.1537E+03
   -1.425053   12.67710  0.0000E+00  0.3880E-05  0.1366E-06  0.1208E-03  0.3780E-03  0.4033E+04
   -1.462553   12.68564  0.0000E+00  0.2335E-05  0.2905E-06  0.4462E-04  0.2773E-03 -0.9956E+04
   -1.500052   12.69831  0.0000E+00  0.0000E+00  0.0000E+00  0.0000E+00  0.3526E-03  0.0000E+00
