 1 - depth, m
 2 - temperature, C
 3 - salinity, kg/kg
 4 - turbulent kinetic energy, m**2/s**2
 5 - dissipation rate, m**2/s**3
 6 - kinematic heat conductance, m**2/s
 7 - modulus of horizontal velocity, m/s
 8 - Richardson number, n/d
   -0.000000    0.00000  0.0000E+00  0.4096E-13  0.8590E-16  0.1000E-09  0.0000E+00  0.1054E+17
   -0.037493    0.16161  0.0000E+00  0.4096E-13  0.8590E-16  0.1000E-09  0.0000E+00  0.9968E+16
   -0.074986    0.32145  0.0000E+00  0.4096E-13  0.8590E-16  0.1000E-09  0.0000E+00  0.9413E+16
   -0.112480    0.47949  0.0000E+00  0.4096E-13  0.8590E-16  0.1000E-09  0.0000E+00  0.8873E+16
   -0.149973    0.63572  0.0000E+00  0.4096E-13  0.8590E-16  0.1000E-09  0.0000E+00  0.8350E+16
   -0.187468    0.79012  0.0000E+00  0.4096E-13  0.8590E-16  0.1000E-09  0.0000E+00  0.7843E+16
   -0.224962    0.94268  0.0000E+00  0.4096E-13  0.8590E-16  0.1000E-09  0.0000E+00  0.7353E+16
   -0.262457    1.09340  0.0000E+00  0.4096E-13  0.8590E-16  0.1000E-09  0.0000E+00  0.6872E+16
   -0.299952    1.24210  0.0000E+00  0.4096E-13  0.8590E-16  0.1000E-09  0.0000E+00  0.6406E+16
   -0.337447    1.38875  0.0000E+00  0.4096E-13  0.8590E-16  0.1000E-09  0.0000E+00  0.5957E+16
   -0.374942    1.53331  0.0000E+00  0.4096E-13  0.8590E-16  0.1000E-09  0.0000E+00  0.5550E+16
   -0.412438    1.67647  0.0000E+00  0.8343E-13  0.8590E-16  0.1000E-09  0.0000E+00  0.5169E+16
   -0.449933    1.81867  0.0000E+00  0.2701E-12  0.9122E-16  0.1000E-09  0.0000E+00  0.4798E+16
   -0.487429    1.95989  0.0000E+00  0.6288E-12  0.1360E-15  0.1000E-09  0.0000E+00  0.4434E+16
   -0.524925    2.10011  0.0000E+00  0.1246E-11  0.2340E-15  0.1000E-09  0.0000E+00  0.4076E+16
   -0.562421    2.23925  0.0000E+00  0.2309E-11  0.4105E-15  0.1000E-09  0.0000E+00  0.3727E+16
   -0.599918    2.37728  0.0000E+00  0.4157E-11  0.7180E-15  0.1000E-09  0.0000E+00  0.3386E+16
   -0.637414    2.51416  0.0000E+00  0.7380E-11  0.1249E-14  0.1000E-09  0.0000E+00  0.3053E+16
   -0.674910    2.64986  0.0000E+00  0.1300E-10  0.2161E-14  0.1000E-09  0.0000E+00  0.2729E+16
   -0.712407    2.78437  0.0000E+00  0.2279E-10  0.3724E-14  0.1000E-09  0.0000E+00  0.2414E+16
   -0.749903    2.91767  0.0000E+00  0.3978E-10  0.6397E-14  0.1000E-09  0.0000E+00  0.2123E+16
   -0.787399    3.05079  0.0000E+00  0.6921E-10  0.1095E-13  0.1000E-09  0.0000E+00  0.1840E+16
   -0.824896    3.18411  0.0000E+00  0.1200E-09  0.1870E-13  0.1000E-09  0.0000E+00  0.1557E+16
   -0.862392    3.31770  0.0000E+00  0.2075E-09  0.3185E-13  0.1000E-09  0.0000E+00  0.1273E+16
   -0.899888    3.45148  0.0000E+00  0.3578E-09  0.5412E-13  0.1521E-09  0.0000E+00  0.9873E+15
   -0.937385    3.58516  0.0000E+00  0.6153E-09  0.9175E-13  0.3637E-09  0.0000E+00  0.7000E+15
   -0.974881    3.71796  0.0000E+00  0.1055E-08  0.1552E-12  0.1035E-08  0.0000E+00  0.4157E+15
   -1.012377    3.84829  0.0000E+00  0.1805E-08  0.2619E-12  0.4966E-08  0.0000E+00  0.1461E+15
   -1.049873    3.97158  0.0000E+00  0.2677E-08  0.3899E-12  0.1629E-05  0.0000E+00  0.3204E+13
   -1.087368    3.99397  0.0000E+00  0.3252E-08  0.4873E-12  0.6978E-05  0.0000E+00 -0.3153E+12
   -1.124864    3.99656  0.0000E+00  0.3649E-08  0.5692E-12  0.8151E-05  0.0000E+00 -0.3614E+12
   -1.162359    3.99876  0.0000E+00  0.3996E-08  0.6576E-12  0.8766E-05  0.0000E+00 -0.4112E+12
   -1.199854    4.00080  0.0000E+00  0.4294E-08  0.7558E-12  0.8935E-05  0.0000E+00 -0.4748E+12
   -1.237349    4.00282  0.0000E+00  0.4539E-08  0.8684E-12  0.8701E-05  0.0000E+00 -0.5626E+12
   -1.274844    4.00492  0.0000E+00  0.4724E-08  0.1006E-11  0.8067E-05  0.0000E+00 -0.6952E+12
   -1.312338    4.00721  0.0000E+00  0.4833E-08  0.1187E-11  0.7013E-05  0.0000E+00 -0.9159E+12
   -1.349833    4.00987  0.0000E+00  0.4832E-08  0.1447E-11  0.5546E-05  0.0000E+00 -0.1339E+13
   -1.387326    4.01328  0.0000E+00  0.4646E-08  0.1882E-11  0.3716E-05  0.0000E+00 -0.2370E+13
   -1.424820    4.01843  0.0000E+00  0.4106E-08  0.2810E-11  0.1749E-05  0.0000E+00 -0.6340E+13
   -1.462313    4.02925  0.0000E+00  0.2910E-08  0.5841E-11  0.3383E-06  0.0000E+00 -0.4509E+14
   -1.499806    4.07352  0.0000E+00  0.0000E+00  0.0000E+00  0.0000E+00  0.0000E+00  0.0000E+00
