 1 - depth, m
 2 - temperature, C
 3 - salinity, kg/kg
 4 - turbulent kinetic energy, m**2/s**2
 5 - dissipation rate, m**2/s**3
 6 - kinematic heat conductance, m**2/s
 7 - modulus of horizontal velocity, m/s
 8 - Richardson number, n/d
   -0.000000    0.00000  0.0000E+00  0.4096E-13  0.8590E-16  0.1000E-09  0.0000E+00  0.9395E+16
   -0.037501    0.14370  0.0000E+00  0.4096E-13  0.8590E-16  0.1000E-09  0.0000E+00  0.8995E+16
   -0.075003    0.28687  0.0000E+00  0.4096E-13  0.8590E-16  0.1000E-09  0.0000E+00  0.8595E+16
   -0.112505    0.42940  0.0000E+00  0.4096E-13  0.8590E-16  0.1000E-09  0.0000E+00  0.8196E+16
   -0.150008    0.57119  0.0000E+00  0.4096E-13  0.8590E-16  0.1000E-09  0.0000E+00  0.7798E+16
   -0.187510    0.71214  0.0000E+00  0.4096E-13  0.8590E-16  0.1000E-09  0.0000E+00  0.7404E+16
   -0.225013    0.85217  0.0000E+00  0.4096E-13  0.8590E-16  0.1000E-09  0.0000E+00  0.7013E+16
   -0.262517    0.99116  0.0000E+00  0.4096E-13  0.8590E-16  0.1000E-09  0.0000E+00  0.6623E+16
   -0.300020    1.12895  0.0000E+00  0.4096E-13  0.8590E-16  0.1000E-09  0.0000E+00  0.6238E+16
   -0.337524    1.26543  0.0000E+00  0.4096E-13  0.8590E-16  0.1000E-09  0.0000E+00  0.5860E+16
   -0.375028    1.40050  0.0000E+00  0.4096E-13  0.8590E-16  0.1000E-09  0.0000E+00  0.5500E+16
   -0.412532    1.53434  0.0000E+00  0.4096E-13  0.8590E-16  0.1000E-09  0.0000E+00  0.5153E+16
   -0.450036    1.66704  0.0000E+00  0.4096E-13  0.8590E-16  0.1000E-09  0.0000E+00  0.4813E+16
   -0.487541    1.79852  0.0000E+00  0.4096E-13  0.8590E-16  0.1000E-09  0.0000E+00  0.4479E+16
   -0.525045    1.92868  0.0000E+00  0.4096E-13  0.8590E-16  0.1000E-09  0.0000E+00  0.4149E+16
   -0.562550    2.05739  0.0000E+00  0.4096E-13  0.8590E-16  0.1000E-09  0.0000E+00  0.3828E+16
   -0.600055    2.18455  0.0000E+00  0.4096E-13  0.8590E-16  0.1000E-09  0.0000E+00  0.3516E+16
   -0.637559    2.31006  0.0000E+00  0.4096E-13  0.8590E-16  0.1000E-09  0.0000E+00  0.3212E+16
   -0.675064    2.43384  0.0000E+00  0.4096E-13  0.8590E-16  0.1000E-09  0.0000E+00  0.2918E+16
   -0.712569    2.55579  0.0000E+00  0.1017E-12  0.8590E-16  0.1000E-09  0.0000E+00  0.2633E+16
   -0.750074    2.67579  0.0000E+00  0.3257E-12  0.1141E-15  0.1000E-09  0.0000E+00  0.2369E+16
   -0.787579    2.79425  0.0000E+00  0.7704E-12  0.2162E-15  0.1000E-09  0.0000E+00  0.2115E+16
   -0.825084    2.91123  0.0000E+00  0.1634E-11  0.4286E-15  0.1000E-09  0.0000E+00  0.1870E+16
   -0.862589    3.02665  0.0000E+00  0.3332E-11  0.8466E-15  0.1000E-09  0.0000E+00  0.1632E+16
   -0.900094    3.14043  0.0000E+00  0.6681E-11  0.1660E-14  0.1000E-09  0.0000E+00  0.1403E+16
   -0.937599    3.25244  0.0000E+00  0.1328E-10  0.3233E-14  0.1000E-09  0.0000E+00  0.1184E+16
   -0.975103    3.36256  0.0000E+00  0.2623E-10  0.6263E-14  0.1000E-09  0.0000E+00  0.9733E+15
   -1.012608    3.47063  0.0000E+00  0.5163E-10  0.1210E-13  0.1000E-09  0.0000E+00  0.7712E+15
   -1.050112    3.57621  0.0000E+00  0.1015E-09  0.2334E-13  0.1122E-09  0.0000E+00  0.5804E+15
   -1.087617    3.67891  0.0000E+00  0.1988E-09  0.4488E-13  0.3087E-09  0.0000E+00  0.4023E+15
   -1.125121    3.77814  0.0000E+00  0.3879E-09  0.8600E-13  0.9771E-09  0.0000E+00  0.2429E+15
   -1.162625    3.87501  0.0000E+00  0.7523E-09  0.1640E-12  0.4784E-08  0.0000E+00  0.9400E+14
   -1.200128    3.96734  0.0000E+00  0.1359E-08  0.2939E-12  0.3733E-06  0.0000E+00  0.2325E+13
   -1.237632    3.99764  0.0000E+00  0.1990E-08  0.4496E-12  0.3313E-05  0.0000E+00 -0.7899E+12
   -1.275135    4.00153  0.0000E+00  0.2381E-08  0.5805E-12  0.3705E-05  0.0000E+00 -0.9275E+12
   -1.312638    4.00506  0.0000E+00  0.2670E-08  0.7314E-12  0.3639E-05  0.0000E+00 -0.1164E+13
   -1.350141    4.00870  0.0000E+00  0.2843E-08  0.9263E-12  0.3154E-05  0.0000E+00 -0.1623E+13
   -1.387643    4.01295  0.0000E+00  0.2856E-08  0.1222E-11  0.2283E-05  0.0000E+00 -0.2723E+13
   -1.425145    4.01884  0.0000E+00  0.2599E-08  0.1798E-11  0.1160E-05  0.0000E+00 -0.6717E+13
   -1.462647    4.03010  0.0000E+00  0.1896E-08  0.3494E-11  0.2458E-06  0.0000E+00 -0.3886E+14
   -1.500148    4.06928  0.0000E+00  0.0000E+00  0.0000E+00  0.0000E+00  0.0000E+00  0.0000E+00
