 1 - depth, m
 2 - temperature, C
 3 - salinity, kg/kg
 4 - turbulent kinetic energy, m**2/s**2
 5 - dissipation rate, m**2/s**3
 6 - kinematic heat conductance, m**2/s
 7 - modulus of horizontal velocity, m/s
 8 - Richardson number, n/d
   -0.000000    0.00000  0.0000E+00  0.4096E-13  0.8590E-16  0.1000E-09  0.0000E+00  0.7813E+16
   -0.037493    0.11910  0.0000E+00  0.4096E-13  0.8590E-16  0.1000E-09  0.0000E+00  0.7583E+16
   -0.074986    0.23855  0.0000E+00  0.4096E-13  0.8590E-16  0.1000E-09  0.0000E+00  0.7344E+16
   -0.112479    0.35824  0.0000E+00  0.4096E-13  0.8590E-16  0.1000E-09  0.0000E+00  0.7096E+16
   -0.149973    0.47802  0.0000E+00  0.4096E-13  0.8590E-16  0.1000E-09  0.0000E+00  0.6843E+16
   -0.187467    0.59777  0.0000E+00  0.4096E-13  0.8590E-16  0.1000E-09  0.0000E+00  0.6584E+16
   -0.224961    0.71737  0.0000E+00  0.4096E-13  0.8590E-16  0.1000E-09  0.0000E+00  0.6321E+16
   -0.262455    0.83671  0.0000E+00  0.4096E-13  0.8590E-16  0.1000E-09  0.0000E+00  0.6052E+16
   -0.299950    0.95562  0.0000E+00  0.4096E-13  0.8590E-16  0.1000E-09  0.0000E+00  0.5782E+16
   -0.337445    1.07399  0.0000E+00  0.4096E-13  0.8590E-16  0.1000E-09  0.0000E+00  0.5511E+16
   -0.374940    1.19172  0.0000E+00  0.4096E-13  0.8590E-16  0.1000E-09  0.0000E+00  0.5248E+16
   -0.412436    1.30887  0.0000E+00  0.4096E-13  0.8590E-16  0.1000E-09  0.0000E+00  0.4989E+16
   -0.449931    1.42543  0.0000E+00  0.4096E-13  0.8590E-16  0.1000E-09  0.0000E+00  0.4732E+16
   -0.487427    1.54135  0.0000E+00  0.4096E-13  0.8590E-16  0.1000E-09  0.0000E+00  0.4477E+16
   -0.524923    1.65654  0.0000E+00  0.4096E-13  0.8590E-16  0.1000E-09  0.0000E+00  0.4221E+16
   -0.562419    1.77085  0.0000E+00  0.4096E-13  0.8590E-16  0.1000E-09  0.0000E+00  0.3969E+16
   -0.599915    1.88423  0.0000E+00  0.4096E-13  0.8590E-16  0.1000E-09  0.0000E+00  0.3721E+16
   -0.637411    1.99659  0.0000E+00  0.4096E-13  0.8590E-16  0.1000E-09  0.0000E+00  0.3477E+16
   -0.674907    2.10786  0.0000E+00  0.4096E-13  0.8590E-16  0.1000E-09  0.0000E+00  0.3238E+16
   -0.712403    2.21794  0.0000E+00  0.4096E-13  0.8590E-16  0.1000E-09  0.0000E+00  0.3003E+16
   -0.749900    2.32677  0.0000E+00  0.4096E-13  0.8590E-16  0.1000E-09  0.0000E+00  0.2781E+16
   -0.787396    2.43455  0.0000E+00  0.4096E-13  0.8590E-16  0.1000E-09  0.0000E+00  0.2567E+16
   -0.824892    2.54131  0.0000E+00  0.4096E-13  0.8590E-16  0.1000E-09  0.0000E+00  0.2356E+16
   -0.862388    2.64699  0.0000E+00  0.4096E-13  0.8590E-16  0.1000E-09  0.0000E+00  0.2151E+16
   -0.899884    2.75151  0.0000E+00  0.4096E-13  0.8590E-16  0.1000E-09  0.0000E+00  0.1951E+16
   -0.937380    2.85479  0.0000E+00  0.4096E-13  0.8590E-16  0.1000E-09  0.0000E+00  0.1756E+16
   -0.974876    2.95674  0.0000E+00  0.4096E-13  0.8590E-16  0.1000E-09  0.0000E+00  0.1566E+16
   -1.012372    3.05728  0.0000E+00  0.4096E-13  0.8590E-16  0.1000E-09  0.0000E+00  0.1380E+16
   -1.049868    3.15602  0.0000E+00  0.4096E-13  0.8590E-16  0.1000E-09  0.0000E+00  0.1200E+16
   -1.087363    3.25276  0.0000E+00  0.4222E-13  0.8590E-16  0.1000E-09  0.0000E+00  0.1027E+16
   -1.124859    3.34727  0.0000E+00  0.1772E-12  0.1585E-15  0.1000E-09  0.0000E+00  0.8777E+15
   -1.162354    3.44101  0.0000E+00  0.6225E-12  0.4936E-15  0.1000E-09  0.0000E+00  0.7335E+15
   -1.199849    3.53415  0.0000E+00  0.2039E-11  0.1557E-14  0.1000E-09  0.0000E+00  0.5920E+15
   -1.237344    3.62666  0.0000E+00  0.6526E-11  0.4845E-14  0.1000E-09  0.0000E+00  0.4535E+15
   -1.274838    3.71846  0.0000E+00  0.2085E-10  0.1509E-13  0.1267E-09  0.0000E+00  0.3180E+15
   -1.312333    3.80942  0.0000E+00  0.6623E-10  0.4687E-13  0.6580E-09  0.0000E+00  0.1858E+15
   -1.349827    3.89904  0.0000E+00  0.2081E-09  0.1450E-12  0.5688E-08  0.0000E+00  0.5968E+14
   -1.387320    3.98437  0.0000E+00  0.6214E-09  0.4403E-12  0.2534E-06  0.0000E+00 -0.6691E+13
   -1.424814    4.01578  0.0000E+00  0.1052E-08  0.1000E-11  0.4085E-06  0.0000E+00 -0.1397E+14
   -1.462307    4.03781  0.0000E+00  0.1044E-08  0.1901E-11  0.1618E-06  0.0000E+00 -0.4382E+14
   -1.499799    4.07715  0.0000E+00  0.0000E+00  0.0000E+00  0.0000E+00  0.0000E+00  0.0000E+00
