 1 - depth, m
 2 - temperature, C
 3 - salinity, kg/kg
 4 - turbulent kinetic energy, m**2/s**2
 5 - dissipation rate, m**2/s**3
 6 - kinematic heat conductance, m**2/s
 7 - modulus of horizontal velocity, m/s
 8 - Richardson number, n/d
   -0.000000   12.35110  0.0000E+00  0.5510E-03  0.1993E-02  0.1033E-03  0.3120E+00 -0.3079E-01
   -0.037502   12.42456  0.0000E+00  0.2972E-03  0.8542E-03  0.1574E-03  0.1078E+00 -0.1594E+01
   -0.075004   12.45174  0.0000E+00  0.2003E-03  0.2896E-03  0.2238E-03  0.6474E-01  0.3264E-01
   -0.112506   12.46325  0.0000E+00  0.1591E-03  0.1747E-03  0.2392E-03  0.4912E-01  0.1098E-01
   -0.150009   12.46888  0.0000E+00  0.1322E-03  0.1105E-03  0.2470E-03  0.4103E-01 -0.2646E-01
   -0.187512   12.47251  0.0000E+00  0.1130E-03  0.6960E-04  0.2583E-03  0.3585E-01 -0.6931E-02
   -0.225015   12.47526  0.0000E+00  0.9882E-04  0.4333E-04  0.2681E-03  0.3211E-01 -0.1638E-01
   -0.262519   12.47773  0.0000E+00  0.8753E-04  0.2664E-04  0.2825E-03  0.2881E-01 -0.2339E-01
   -0.300022   12.47976  0.0000E+00  0.7864E-04  0.1633E-04  0.2959E-03  0.2613E-01 -0.2411E-01
   -0.337526   12.48156  0.0000E+00  0.7147E-04  0.1008E-04  0.3093E-03  0.2385E-01  0.1373E+00
   -0.375031   12.48319  0.0000E+00  0.6555E-04  0.6329E-05  0.3225E-03  0.2182E-01  0.1555E+00
   -0.412535   12.48471  0.0000E+00  0.6053E-04  0.4081E-05  0.3370E-03  0.2000E-01  0.4128E+00
   -0.450040   12.48610  0.0000E+00  0.5627E-04  0.2731E-05  0.3516E-03  0.1838E-01  0.2667E+01
   -0.487544   12.48744  0.0000E+00  0.5257E-04  0.1902E-05  0.3679E-03  0.1691E-01  0.1110E+02
   -0.525049   12.48873  0.0000E+00  0.4915E-04  0.1374E-05  0.4026E-03  0.1550E-01  0.3849E+02
   -0.562554   12.48983  0.0000E+00  0.4620E-04  0.1035E-05  0.4385E-03  0.1431E-01  0.1180E+02
   -0.600059   12.49084  0.0000E+00  0.4355E-04  0.8097E-06  0.4653E-03  0.1324E-01  0.8035E+01
   -0.637564   12.49176  0.0000E+00  0.4117E-04  0.6540E-06  0.4893E-03  0.1227E-01  0.3421E+02
   -0.675069   12.49262  0.0000E+00  0.3901E-04  0.5428E-06  0.5138E-03  0.1138E-01  0.9606E+02
   -0.712575   12.49342  0.0000E+00  0.3701E-04  0.4604E-06  0.5338E-03  0.1055E-01  0.1840E+02
   -0.750080   12.49417  0.0000E+00  0.3516E-04  0.3972E-06  0.5506E-03  0.9788E-02  0.6828E+01
   -0.787585   12.49489  0.0000E+00  0.3343E-04  0.3474E-06  0.5659E-03  0.9076E-02  0.8043E+01
   -0.825090   12.49558  0.0000E+00  0.3181E-04  0.3072E-06  0.5797E-03  0.8412E-02  0.3347E+01
   -0.862596   12.49625  0.0000E+00  0.3026E-04  0.2739E-06  0.5910E-03  0.7789E-02  0.1070E+02
   -0.900101   12.49689  0.0000E+00  0.2878E-04  0.2458E-06  0.6022E-03  0.7201E-02  0.1037E+02
   -0.937606   12.49751  0.0000E+00  0.2737E-04  0.2220E-06  0.6102E-03  0.6644E-02  0.3043E+01
   -0.975111   12.49812  0.0000E+00  0.2601E-04  0.2016E-06  0.6165E-03  0.6117E-02  0.2071E+02
   -1.012616   12.49871  0.0000E+00  0.2467E-04  0.1840E-06  0.6283E-03  0.5611E-02  0.2634E+02
   -1.050120   12.49929  0.0000E+00  0.2336E-04  0.1687E-06  0.6348E-03  0.5136E-02  0.1866E+02
   -1.087625   12.49986  0.0000E+00  0.2205E-04  0.1556E-06  0.6332E-03  0.4691E-02  0.5629E+02
   -1.125129   12.50042  0.0000E+00  0.2077E-04  0.1445E-06  0.6193E-03  0.4273E-02  0.5957E+01
   -1.162634   12.50099  0.0000E+00  0.1949E-04  0.1357E-06  0.5953E-03  0.3879E-02  0.2848E+02
   -1.200138   12.50157  0.0000E+00  0.1822E-04  0.1293E-06  0.5582E-03  0.3507E-02  0.7829E+01
   -1.237641   12.50218  0.0000E+00  0.1693E-04  0.1257E-06  0.5073E-03  0.3151E-02  0.1847E+02
   -1.275145   12.50284  0.0000E+00  0.1560E-04  0.1263E-06  0.4434E-03  0.2811E-02  0.9054E+01
   -1.312648   12.50359  0.0000E+00  0.1417E-04  0.1336E-06  0.3856E-03  0.2497E-02  0.1264E+02
   -1.350151   12.50447  0.0000E+00  0.1256E-04  0.1543E-06  0.3080E-03  0.2201E-02  0.9818E+01
   -1.387654   12.50565  0.0000E+00  0.1063E-04  0.2038E-06  0.2332E-03  0.1906E-02  0.4191E+02
   -1.425156   12.50717  0.0000E+00  0.8207E-05  0.3369E-06  0.1342E-03  0.1600E-02  0.3777E+03
   -1.462658   12.51083  0.0000E+00  0.4757E-05  0.7181E-06  0.4359E-04  0.1280E-02 -0.3841E+05
   -1.500160   12.52299  0.0000E+00  0.0000E+00  0.0000E+00  0.0000E+00  0.1491E-02  0.0000E+00
