 1 - depth, m
 2 - temperature, C
 3 - salinity, kg/kg
 4 - turbulent kinetic energy, m**2/s**2
 5 - dissipation rate, m**2/s**3
 6 - kinematic heat conductance, m**2/s
 7 - modulus of horizontal velocity, m/s
 8 - Richardson number, n/d
   -0.000000    0.00000  0.0000E+00  0.4096E-13  0.8590E-16  0.1000E-09  0.0000E+00  0.8236E+16
   -0.037498    0.12566  0.0000E+00  0.4096E-13  0.8590E-16  0.1000E-09  0.0000E+00  0.7951E+16
   -0.074996    0.25126  0.0000E+00  0.4096E-13  0.8590E-16  0.1000E-09  0.0000E+00  0.7664E+16
   -0.112495    0.37674  0.0000E+00  0.4096E-13  0.8590E-16  0.1000E-09  0.0000E+00  0.7375E+16
   -0.149994    0.50202  0.0000E+00  0.4096E-13  0.8590E-16  0.1000E-09  0.0000E+00  0.7085E+16
   -0.187493    0.62703  0.0000E+00  0.4096E-13  0.8590E-16  0.1000E-09  0.0000E+00  0.6794E+16
   -0.224993    0.75171  0.0000E+00  0.4096E-13  0.8590E-16  0.1000E-09  0.0000E+00  0.6502E+16
   -0.262493    0.87597  0.0000E+00  0.4096E-13  0.8590E-16  0.1000E-09  0.0000E+00  0.6207E+16
   -0.299993    0.99967  0.0000E+00  0.4096E-13  0.8590E-16  0.1000E-09  0.0000E+00  0.5912E+16
   -0.337493    1.12271  0.0000E+00  0.4096E-13  0.8590E-16  0.1000E-09  0.0000E+00  0.5618E+16
   -0.374994    1.24501  0.0000E+00  0.4096E-13  0.8590E-16  0.1000E-09  0.0000E+00  0.5334E+16
   -0.412495    1.36665  0.0000E+00  0.4096E-13  0.8590E-16  0.1000E-09  0.0000E+00  0.5056E+16
   -0.449996    1.48768  0.0000E+00  0.4096E-13  0.8590E-16  0.1000E-09  0.0000E+00  0.4780E+16
   -0.487497    1.60800  0.0000E+00  0.4096E-13  0.8590E-16  0.1000E-09  0.0000E+00  0.4506E+16
   -0.524998    1.72752  0.0000E+00  0.4096E-13  0.8590E-16  0.1000E-09  0.0000E+00  0.4232E+16
   -0.562499    1.84609  0.0000E+00  0.4096E-13  0.8590E-16  0.1000E-09  0.0000E+00  0.3962E+16
   -0.600001    1.96359  0.0000E+00  0.4096E-13  0.8590E-16  0.1000E-09  0.0000E+00  0.3695E+16
   -0.637502    2.07994  0.0000E+00  0.4096E-13  0.8590E-16  0.1000E-09  0.0000E+00  0.3433E+16
   -0.675004    2.19503  0.0000E+00  0.4096E-13  0.8590E-16  0.1000E-09  0.0000E+00  0.3177E+16
   -0.712505    2.30875  0.0000E+00  0.4096E-13  0.8590E-16  0.1000E-09  0.0000E+00  0.2926E+16
   -0.750007    2.42101  0.0000E+00  0.4096E-13  0.8590E-16  0.1000E-09  0.0000E+00  0.2691E+16
   -0.787508    2.53207  0.0000E+00  0.4096E-13  0.8590E-16  0.1000E-09  0.0000E+00  0.2464E+16
   -0.825010    2.64200  0.0000E+00  0.4096E-13  0.8590E-16  0.1000E-09  0.0000E+00  0.2242E+16
   -0.862511    2.75071  0.0000E+00  0.4096E-13  0.8590E-16  0.1000E-09  0.0000E+00  0.2026E+16
   -0.900013    2.85808  0.0000E+00  0.4096E-13  0.8590E-16  0.1000E-09  0.0000E+00  0.1815E+16
   -0.937514    2.96403  0.0000E+00  0.4096E-13  0.8590E-16  0.1000E-09  0.0000E+00  0.1611E+16
   -0.975016    3.06844  0.0000E+00  0.8342E-13  0.8590E-16  0.1000E-09  0.0000E+00  0.1414E+16
   -1.012517    3.17119  0.0000E+00  0.2914E-12  0.1753E-15  0.1000E-09  0.0000E+00  0.1221E+16
   -1.050018    3.27191  0.0000E+00  0.8448E-12  0.4590E-15  0.1000E-09  0.0000E+00  0.1036E+16
   -1.087519    3.37032  0.0000E+00  0.2306E-11  0.1205E-14  0.1000E-09  0.0000E+00  0.8610E+15
   -1.125020    3.46620  0.0000E+00  0.6160E-11  0.3126E-14  0.1000E-09  0.0000E+00  0.7092E+15
   -1.162520    3.56129  0.0000E+00  0.1624E-10  0.8017E-14  0.1000E-09  0.0000E+00  0.5628E+15
   -1.200020    3.65585  0.0000E+00  0.4237E-10  0.2036E-13  0.1331E-09  0.0000E+00  0.4192E+15
   -1.237521    3.74983  0.0000E+00  0.1094E-09  0.5124E-13  0.5020E-09  0.0000E+00  0.2781E+15
   -1.275021    3.84305  0.0000E+00  0.2825E-09  0.1292E-12  0.2473E-08  0.0000E+00  0.1400E+15
   -1.312520    3.93461  0.0000E+00  0.7168E-09  0.3219E-12  0.4020E-07  0.0000E+00  0.1768E+14
   -1.350019    4.00687  0.0000E+00  0.1564E-08  0.7233E-12  0.1356E-05  0.0000E+00 -0.3425E+13
   -1.387518    4.01564  0.0000E+00  0.1971E-08  0.1087E-11  0.1336E-05  0.0000E+00 -0.4732E+13
   -1.425017    4.02458  0.0000E+00  0.2027E-08  0.1626E-11  0.8495E-06  0.0000E+00 -0.9479E+13
   -1.462516    4.03803  0.0000E+00  0.1600E-08  0.2973E-11  0.2178E-06  0.0000E+00 -0.4172E+14
   -1.500014    4.07579  0.0000E+00  0.0000E+00  0.0000E+00  0.0000E+00  0.0000E+00  0.0000E+00
