 1 - depth, m
 2 - temperature, C
 3 - salinity, kg/kg
 4 - turbulent kinetic energy, m**2/s**2
 5 - dissipation rate, m**2/s**3
 6 - kinematic heat conductance, m**2/s
 7 - modulus of horizontal velocity, m/s
 8 - Richardson number, n/d
   -0.000000    0.00000  0.0000E+00  0.4096E-13  0.8590E-16  0.1000E-09  0.0000E+00  0.8173E+16
   -0.037494    0.12469  0.0000E+00  0.4096E-13  0.8590E-16  0.1000E-09  0.0000E+00  0.7880E+16
   -0.074988    0.24911  0.0000E+00  0.4096E-13  0.8590E-16  0.1000E-09  0.0000E+00  0.7587E+16
   -0.112483    0.37321  0.0000E+00  0.4096E-13  0.8590E-16  0.1000E-09  0.0000E+00  0.7294E+16
   -0.149977    0.49695  0.0000E+00  0.4096E-13  0.8590E-16  0.1000E-09  0.0000E+00  0.7002E+16
   -0.187473    0.62026  0.0000E+00  0.4096E-13  0.8590E-16  0.1000E-09  0.0000E+00  0.6710E+16
   -0.224968    0.74310  0.0000E+00  0.4096E-13  0.8590E-16  0.1000E-09  0.0000E+00  0.6420E+16
   -0.262464    0.86542  0.0000E+00  0.4096E-13  0.8590E-16  0.1000E-09  0.0000E+00  0.6129E+16
   -0.299960    0.98709  0.0000E+00  0.4096E-13  0.8590E-16  0.1000E-09  0.0000E+00  0.5840E+16
   -0.337456    1.10805  0.0000E+00  0.4096E-13  0.8590E-16  0.1000E-09  0.0000E+00  0.5553E+16
   -0.374952    1.22823  0.0000E+00  0.4096E-13  0.8590E-16  0.1000E-09  0.0000E+00  0.5276E+16
   -0.412449    1.34773  0.0000E+00  0.4096E-13  0.8590E-16  0.1000E-09  0.0000E+00  0.5006E+16
   -0.449945    1.46659  0.0000E+00  0.4096E-13  0.8590E-16  0.1000E-09  0.0000E+00  0.4739E+16
   -0.487442    1.58475  0.0000E+00  0.4096E-13  0.8590E-16  0.1000E-09  0.0000E+00  0.4474E+16
   -0.524939    1.70215  0.0000E+00  0.4096E-13  0.8590E-16  0.1000E-09  0.0000E+00  0.4210E+16
   -0.562436    1.81864  0.0000E+00  0.4096E-13  0.8590E-16  0.1000E-09  0.0000E+00  0.3950E+16
   -0.599934    1.93417  0.0000E+00  0.4096E-13  0.8590E-16  0.1000E-09  0.0000E+00  0.3694E+16
   -0.637431    2.04865  0.0000E+00  0.4096E-13  0.8590E-16  0.1000E-09  0.0000E+00  0.3442E+16
   -0.674928    2.16201  0.0000E+00  0.4096E-13  0.8590E-16  0.1000E-09  0.0000E+00  0.3195E+16
   -0.712426    2.27416  0.0000E+00  0.4096E-13  0.8590E-16  0.1000E-09  0.0000E+00  0.2954E+16
   -0.749923    2.38500  0.0000E+00  0.4096E-13  0.8590E-16  0.1000E-09  0.0000E+00  0.2725E+16
   -0.787420    2.49475  0.0000E+00  0.4096E-13  0.8590E-16  0.1000E-09  0.0000E+00  0.2504E+16
   -0.824918    2.60343  0.0000E+00  0.4096E-13  0.8590E-16  0.1000E-09  0.0000E+00  0.2287E+16
   -0.862415    2.71096  0.0000E+00  0.4096E-13  0.8590E-16  0.1000E-09  0.0000E+00  0.2075E+16
   -0.899912    2.81725  0.0000E+00  0.4096E-13  0.8590E-16  0.1000E-09  0.0000E+00  0.1869E+16
   -0.937410    2.92221  0.0000E+00  0.4096E-13  0.8590E-16  0.1000E-09  0.0000E+00  0.1668E+16
   -0.974907    3.02574  0.0000E+00  0.4096E-13  0.8590E-16  0.1000E-09  0.0000E+00  0.1474E+16
   -1.012404    3.12773  0.0000E+00  0.4156E-13  0.8590E-16  0.1000E-09  0.0000E+00  0.1284E+16
   -1.049901    3.22781  0.0000E+00  0.1849E-12  0.1321E-15  0.1000E-09  0.0000E+00  0.1101E+16
   -1.087397    3.32575  0.0000E+00  0.5882E-12  0.3526E-15  0.1000E-09  0.0000E+00  0.9263E+15
   -1.124894    3.42132  0.0000E+00  0.1689E-11  0.9649E-15  0.1000E-09  0.0000E+00  0.7742E+15
   -1.162390    3.51602  0.0000E+00  0.4703E-11  0.2606E-14  0.1000E-09  0.0000E+00  0.6275E+15
   -1.199886    3.61001  0.0000E+00  0.1291E-10  0.6955E-14  0.1000E-09  0.0000E+00  0.4840E+15
   -1.237382    3.70324  0.0000E+00  0.3501E-10  0.1837E-13  0.1455E-09  0.0000E+00  0.3440E+15
   -1.274878    3.79557  0.0000E+00  0.9506E-10  0.4865E-13  0.6312E-09  0.0000E+00  0.2077E+15
   -1.312373    3.88667  0.0000E+00  0.2567E-09  0.1285E-12  0.4323E-08  0.0000E+00  0.7672E+14
   -1.349869    3.97439  0.0000E+00  0.6627E-09  0.3293E-12  0.2538E-06  0.0000E+00 -0.2034E+13
   -1.387363    4.00655  0.0000E+00  0.1234E-08  0.7501E-12  0.7761E-06  0.0000E+00 -0.5798E+13
   -1.424858    4.02022  0.0000E+00  0.1477E-08  0.1265E-11  0.6074E-06  0.0000E+00 -0.1108E+14
   -1.462352    4.03695  0.0000E+00  0.1273E-08  0.2319E-11  0.1857E-06  0.0000E+00 -0.4177E+14
   -1.499846    4.07521  0.0000E+00  0.0000E+00  0.0000E+00  0.0000E+00  0.0000E+00  0.0000E+00
