 1 - depth, m
 2 - temperature, C
 3 - salinity, kg/kg
 4 - turbulent kinetic energy, m**2/s**2
 5 - dissipation rate, m**2/s**3
 6 - kinematic heat conductance, m**2/s
 7 - modulus of horizontal velocity, m/s
 8 - Richardson number, n/d
   -0.000000    0.00000  0.0000E+00  0.4096E-13  0.8590E-16  0.1000E-09  0.0000E+00  0.9527E+16
   -0.037498    0.14576  0.0000E+00  0.4096E-13  0.8590E-16  0.1000E-09  0.0000E+00  0.9092E+16
   -0.074996    0.29058  0.0000E+00  0.4096E-13  0.8590E-16  0.1000E-09  0.0000E+00  0.8658E+16
   -0.112495    0.43435  0.0000E+00  0.4096E-13  0.8590E-16  0.1000E-09  0.0000E+00  0.8228E+16
   -0.149994    0.57694  0.0000E+00  0.4096E-13  0.8590E-16  0.1000E-09  0.0000E+00  0.7803E+16
   -0.187493    0.71824  0.0000E+00  0.4096E-13  0.8590E-16  0.1000E-09  0.0000E+00  0.7383E+16
   -0.224993    0.85814  0.0000E+00  0.4096E-13  0.8590E-16  0.1000E-09  0.0000E+00  0.6969E+16
   -0.262492    0.99654  0.0000E+00  0.4096E-13  0.8590E-16  0.1000E-09  0.0000E+00  0.6560E+16
   -0.299992    1.13325  0.0000E+00  0.4096E-13  0.8590E-16  0.1000E-09  0.0000E+00  0.6158E+16
   -0.337493    1.26816  0.0000E+00  0.4096E-13  0.8590E-16  0.1000E-09  0.0000E+00  0.5767E+16
   -0.374993    1.40117  0.0000E+00  0.4096E-13  0.8590E-16  0.1000E-09  0.0000E+00  0.5402E+16
   -0.412494    1.53260  0.0000E+00  0.4096E-13  0.8590E-16  0.1000E-09  0.0000E+00  0.5057E+16
   -0.449995    1.66264  0.0000E+00  0.4096E-13  0.8590E-16  0.1000E-09  0.0000E+00  0.4720E+16
   -0.487495    1.79124  0.0000E+00  0.4096E-13  0.8590E-16  0.1000E-09  0.0000E+00  0.4391E+16
   -0.524997    1.91830  0.0000E+00  0.4096E-13  0.8590E-16  0.1000E-09  0.0000E+00  0.4069E+16
   -0.562498    2.04372  0.0000E+00  0.4096E-13  0.8590E-16  0.1000E-09  0.0000E+00  0.3756E+16
   -0.599999    2.16741  0.0000E+00  0.4096E-13  0.8590E-16  0.1000E-09  0.0000E+00  0.3453E+16
   -0.637500    2.28931  0.0000E+00  0.4096E-13  0.8590E-16  0.1000E-09  0.0000E+00  0.3159E+16
   -0.675002    2.40932  0.0000E+00  0.4096E-13  0.8590E-16  0.1000E-09  0.0000E+00  0.2876E+16
   -0.712503    2.52737  0.0000E+00  0.4096E-13  0.8590E-16  0.1000E-09  0.0000E+00  0.2603E+16
   -0.750005    2.64336  0.0000E+00  0.1733E-12  0.8642E-16  0.1000E-09  0.0000E+00  0.2354E+16
   -0.787506    2.75788  0.0000E+00  0.4736E-12  0.1606E-15  0.1000E-09  0.0000E+00  0.2117E+16
   -0.825008    2.87109  0.0000E+00  0.1087E-11  0.3336E-15  0.1000E-09  0.0000E+00  0.1888E+16
   -0.862509    2.98294  0.0000E+00  0.2353E-11  0.6932E-15  0.1000E-09  0.0000E+00  0.1665E+16
   -0.900011    3.09338  0.0000E+00  0.4974E-11  0.1426E-14  0.1000E-09  0.0000E+00  0.1450E+16
   -0.937512    3.20235  0.0000E+00  0.1039E-10  0.2908E-14  0.1000E-09  0.0000E+00  0.1243E+16
   -0.975013    3.30979  0.0000E+00  0.2151E-10  0.5884E-14  0.1000E-09  0.0000E+00  0.1044E+16
   -1.012514    3.41563  0.0000E+00  0.4430E-10  0.1184E-13  0.1000E-09  0.0000E+00  0.8525E+15
   -1.050015    3.51970  0.0000E+00  0.9089E-10  0.2376E-13  0.1011E-09  0.0000E+00  0.6694E+15
   -1.087516    3.62187  0.0000E+00  0.1854E-09  0.4742E-13  0.2651E-09  0.0000E+00  0.4951E+15
   -1.125017    3.72189  0.0000E+00  0.3760E-09  0.9409E-13  0.7778E-09  0.0000E+00  0.3345E+15
   -1.162517    3.82092  0.0000E+00  0.7570E-09  0.1855E-12  0.2870E-08  0.0000E+00  0.1782E+15
   -1.200017    3.91812  0.0000E+00  0.1497E-08  0.3600E-12  0.2779E-07  0.0000E+00  0.3485E+14
   -1.237517    4.00073  0.0000E+00  0.2341E-08  0.5654E-12  0.3735E-05  0.0000E+00 -0.9173E+12
   -1.275017    4.00435  0.0000E+00  0.2775E-08  0.7120E-12  0.4107E-05  0.0000E+00 -0.1031E+13
   -1.312517    4.00769  0.0000E+00  0.3085E-08  0.8802E-12  0.4007E-05  0.0000E+00 -0.1260E+13
   -1.350016    4.01117  0.0000E+00  0.3263E-08  0.1100E-11  0.3461E-05  0.0000E+00 -0.1728E+13
   -1.387515    4.01527  0.0000E+00  0.3264E-08  0.1439E-11  0.2501E-05  0.0000E+00 -0.2872E+13
   -1.425014    4.02103  0.0000E+00  0.2969E-08  0.2118E-11  0.1273E-05  0.0000E+00 -0.7089E+13
   -1.462512    4.03226  0.0000E+00  0.2179E-08  0.4176E-11  0.2733E-06  0.0000E+00 -0.4230E+14
   -1.500010    4.07301  0.0000E+00  0.0000E+00  0.0000E+00  0.0000E+00  0.0000E+00  0.0000E+00
