 1 - depth, m
 2 - temperature, C
 3 - salinity, kg/kg
 4 - turbulent kinetic energy, m**2/s**2
 5 - dissipation rate, m**2/s**3
 6 - kinematic heat conductance, m**2/s
 7 - modulus of horizontal velocity, m/s
 8 - Richardson number, n/d
   -0.000000    0.00000  0.0000E+00  0.4096E-13  0.8590E-16  0.1000E-09  0.0000E+00  0.1033E+17
   -0.037493    0.15839  0.0000E+00  0.4096E-13  0.8590E-16  0.1000E-09  0.0000E+00  0.9788E+16
   -0.074987    0.31513  0.0000E+00  0.4096E-13  0.8590E-16  0.1000E-09  0.0000E+00  0.9258E+16
   -0.112480    0.47022  0.0000E+00  0.4096E-13  0.8590E-16  0.1000E-09  0.0000E+00  0.8743E+16
   -0.149975    0.62366  0.0000E+00  0.4096E-13  0.8590E-16  0.1000E-09  0.0000E+00  0.8244E+16
   -0.187469    0.77544  0.0000E+00  0.4096E-13  0.8590E-16  0.1000E-09  0.0000E+00  0.7760E+16
   -0.224964    0.92557  0.0000E+00  0.4096E-13  0.8590E-16  0.1000E-09  0.0000E+00  0.7290E+16
   -0.262459    1.07403  0.0000E+00  0.4096E-13  0.8590E-16  0.1000E-09  0.0000E+00  0.6826E+16
   -0.299954    1.22062  0.0000E+00  0.4096E-13  0.8590E-16  0.1000E-09  0.0000E+00  0.6375E+16
   -0.337449    1.36529  0.0000E+00  0.4096E-13  0.8590E-16  0.1000E-09  0.0000E+00  0.5939E+16
   -0.374945    1.50799  0.0000E+00  0.4096E-13  0.8590E-16  0.1000E-09  0.0000E+00  0.5545E+16
   -0.412441    1.64943  0.0000E+00  0.7064E-13  0.8590E-16  0.1000E-09  0.0000E+00  0.5178E+16
   -0.449937    1.79005  0.0000E+00  0.2209E-12  0.9320E-16  0.1000E-09  0.0000E+00  0.4818E+16
   -0.487433    1.92984  0.0000E+00  0.5526E-12  0.1376E-15  0.1000E-09  0.0000E+00  0.4465E+16
   -0.524929    2.06879  0.0000E+00  0.1156E-11  0.2462E-15  0.1000E-09  0.0000E+00  0.4116E+16
   -0.562426    2.20677  0.0000E+00  0.2249E-11  0.4520E-15  0.1000E-09  0.0000E+00  0.3774E+16
   -0.599922    2.34377  0.0000E+00  0.4239E-11  0.8268E-15  0.1000E-09  0.0000E+00  0.3440E+16
   -0.637419    2.47978  0.0000E+00  0.7875E-11  0.1502E-14  0.1000E-09  0.0000E+00  0.3114E+16
   -0.674915    2.61479  0.0000E+00  0.1450E-10  0.2713E-14  0.1000E-09  0.0000E+00  0.2796E+16
   -0.712412    2.74878  0.0000E+00  0.2655E-10  0.4872E-14  0.1000E-09  0.0000E+00  0.2485E+16
   -0.749909    2.88172  0.0000E+00  0.4833E-10  0.8707E-14  0.1000E-09  0.0000E+00  0.2200E+16
   -0.787406    3.01480  0.0000E+00  0.8755E-10  0.1549E-13  0.1000E-09  0.0000E+00  0.1921E+16
   -0.824902    3.14845  0.0000E+00  0.1578E-09  0.2741E-13  0.1000E-09  0.0000E+00  0.1640E+16
   -0.862399    3.28261  0.0000E+00  0.2831E-09  0.4830E-13  0.1095E-09  0.0000E+00  0.1355E+16
   -0.899895    3.41720  0.0000E+00  0.5055E-09  0.8471E-13  0.2203E-09  0.0000E+00  0.1068E+16
   -0.937392    3.55206  0.0000E+00  0.8982E-09  0.1479E-12  0.5256E-09  0.0000E+00  0.7797E+15
   -0.974888    3.68704  0.0000E+00  0.1588E-08  0.2569E-12  0.1442E-08  0.0000E+00  0.4906E+15
   -1.012385    3.82201  0.0000E+00  0.2790E-08  0.4440E-12  0.6187E-08  0.0000E+00  0.1998E+15
   -1.049881    3.95487  0.0000E+00  0.4230E-08  0.6744E-12  0.2499E-05  0.0000E+00  0.1169E+14
   -1.087377    4.00079  0.0000E+00  0.4969E-08  0.8044E-12  0.1143E-04  0.0000E+00 -0.3937E+12
   -1.124873    4.00266  0.0000E+00  0.5387E-08  0.8948E-12  0.1223E-04  0.0000E+00 -0.4214E+12
   -1.162368    4.00437  0.0000E+00  0.5734E-08  0.9902E-12  0.1253E-04  0.0000E+00 -0.4579E+12
   -1.199864    4.00602  0.0000E+00  0.6013E-08  0.1095E-11  0.1238E-04  0.0000E+00 -0.5093E+12
   -1.237359    4.00767  0.0000E+00  0.6221E-08  0.1214E-11  0.1179E-04  0.0000E+00 -0.5840E+12
   -1.274854    4.00941  0.0000E+00  0.6351E-08  0.1361E-11  0.1075E-04  0.0000E+00 -0.6997E+12
   -1.312349    4.01132  0.0000E+00  0.6384E-08  0.1555E-11  0.9240E-05  0.0000E+00 -0.8941E+12
   -1.349843    4.01356  0.0000E+00  0.6280E-08  0.1838E-11  0.7238E-05  0.0000E+00 -0.1267E+13
   -1.387337    4.01643  0.0000E+00  0.5949E-08  0.2320E-11  0.4806E-05  0.0000E+00 -0.2170E+13
   -1.424831    4.02077  0.0000E+00  0.5173E-08  0.3385E-11  0.2213E-05  0.0000E+00 -0.5667E+13
   -1.462325    4.03008  0.0000E+00  0.3498E-08  0.7121E-11  0.3808E-06  0.0000E+00 -0.4383E+14
   -1.499818    4.07303  0.0000E+00  0.0000E+00  0.0000E+00  0.0000E+00  0.0000E+00  0.0000E+00
