 1 - depth, m
 2 - temperature, C
 3 - salinity, kg/kg
 4 - turbulent kinetic energy, m**2/s**2
 5 - dissipation rate, m**2/s**3
 6 - kinematic heat conductance, m**2/s
 7 - modulus of horizontal velocity, m/s
 8 - Richardson number, n/d
   -0.000000    0.00000  0.0000E+00  0.4096E-13  0.8590E-16  0.1000E-09  0.0000E+00  0.1060E+17
   -0.037495    0.16252  0.0000E+00  0.4096E-13  0.8590E-16  0.1000E-09  0.0000E+00  0.1002E+17
   -0.074991    0.32317  0.0000E+00  0.4096E-13  0.8590E-16  0.1000E-09  0.0000E+00  0.9452E+16
   -0.112486    0.48198  0.0000E+00  0.4096E-13  0.8590E-16  0.1000E-09  0.0000E+00  0.8906E+16
   -0.149982    0.63893  0.0000E+00  0.4096E-13  0.8590E-16  0.1000E-09  0.0000E+00  0.8378E+16
   -0.187479    0.79402  0.0000E+00  0.4096E-13  0.8590E-16  0.1000E-09  0.0000E+00  0.7867E+16
   -0.224976    0.94726  0.0000E+00  0.4096E-13  0.8590E-16  0.1000E-09  0.0000E+00  0.7373E+16
   -0.262472    1.09865  0.0000E+00  0.4096E-13  0.8590E-16  0.1000E-09  0.0000E+00  0.6889E+16
   -0.299970    1.24802  0.0000E+00  0.4096E-13  0.8590E-16  0.1000E-09  0.0000E+00  0.6419E+16
   -0.337467    1.39533  0.0000E+00  0.4096E-13  0.8590E-16  0.1000E-09  0.0000E+00  0.5966E+16
   -0.374965    1.54054  0.0000E+00  0.4096E-13  0.8590E-16  0.1000E-09  0.0000E+00  0.5555E+16
   -0.412463    1.68431  0.0000E+00  0.1113E-12  0.8590E-16  0.1000E-09  0.0000E+00  0.5170E+16
   -0.449961    1.82704  0.0000E+00  0.3365E-12  0.9769E-16  0.1000E-09  0.0000E+00  0.4793E+16
   -0.487459    1.96873  0.0000E+00  0.7459E-12  0.1532E-15  0.1000E-09  0.0000E+00  0.4425E+16
   -0.524957    2.10934  0.0000E+00  0.1446E-11  0.2647E-15  0.1000E-09  0.0000E+00  0.4064E+16
   -0.562455    2.24878  0.0000E+00  0.2649E-11  0.4622E-15  0.1000E-09  0.0000E+00  0.3710E+16
   -0.599954    2.38701  0.0000E+00  0.4730E-11  0.8028E-15  0.1000E-09  0.0000E+00  0.3366E+16
   -0.637452    2.52399  0.0000E+00  0.8338E-11  0.1386E-14  0.1000E-09  0.0000E+00  0.3030E+16
   -0.674951    2.65966  0.0000E+00  0.1459E-10  0.2379E-14  0.1000E-09  0.0000E+00  0.2704E+16
   -0.712450    2.79398  0.0000E+00  0.2537E-10  0.4064E-14  0.1000E-09  0.0000E+00  0.2387E+16
   -0.749948    2.92691  0.0000E+00  0.4393E-10  0.6915E-14  0.1000E-09  0.0000E+00  0.2094E+16
   -0.787447    3.05943  0.0000E+00  0.7574E-10  0.1172E-13  0.1000E-09  0.0000E+00  0.1811E+16
   -0.824946    3.19193  0.0000E+00  0.1301E-09  0.1980E-13  0.1000E-09  0.0000E+00  0.1530E+16
   -0.862444    3.32452  0.0000E+00  0.2227E-09  0.3334E-13  0.1001E-09  0.0000E+00  0.1250E+16
   -0.899943    3.45729  0.0000E+00  0.3798E-09  0.5597E-13  0.1600E-09  0.0000E+00  0.9699E+15
   -0.937441    3.59015  0.0000E+00  0.6459E-09  0.9371E-13  0.3772E-09  0.0000E+00  0.6881E+15
   -0.974939    3.72259  0.0000E+00  0.1095E-08  0.1564E-12  0.1065E-08  0.0000E+00  0.4068E+15
   -1.012438    3.85311  0.0000E+00  0.1850E-08  0.2605E-12  0.5298E-08  0.0000E+00  0.1371E+15
   -1.049936    3.97662  0.0000E+00  0.2619E-08  0.3705E-12  0.2402E-05  0.0000E+00  0.1944E+13
   -1.087434    3.99287  0.0000E+00  0.3133E-08  0.4572E-12  0.6648E-05  0.0000E+00 -0.2968E+12
   -1.124932    3.99551  0.0000E+00  0.3514E-08  0.5354E-12  0.7849E-05  0.0000E+00 -0.3436E+12
   -1.162429    3.99773  0.0000E+00  0.3848E-08  0.6203E-12  0.8486E-05  0.0000E+00 -0.3936E+12
   -1.199927    3.99981  0.0000E+00  0.4137E-08  0.7148E-12  0.8673E-05  0.0000E+00 -0.4569E+12
   -1.237424    4.00186  0.0000E+00  0.4374E-08  0.8233E-12  0.8460E-05  0.0000E+00 -0.5437E+12
   -1.274921    4.00397  0.0000E+00  0.4554E-08  0.9561E-12  0.7847E-05  0.0000E+00 -0.6744E+12
   -1.312418    4.00628  0.0000E+00  0.4662E-08  0.1131E-11  0.6822E-05  0.0000E+00 -0.8918E+12
   -1.349914    4.00897  0.0000E+00  0.4662E-08  0.1382E-11  0.5391E-05  0.0000E+00 -0.1309E+13
   -1.387410    4.01241  0.0000E+00  0.4483E-08  0.1801E-11  0.3607E-05  0.0000E+00 -0.2328E+13
   -1.424906    4.01760  0.0000E+00  0.3961E-08  0.2697E-11  0.1696E-05  0.0000E+00 -0.6261E+13
   -1.462401    4.02850  0.0000E+00  0.2811E-08  0.5598E-11  0.3298E-06  0.0000E+00 -0.4441E+14
   -1.499896    4.07266  0.0000E+00  0.0000E+00  0.0000E+00  0.0000E+00  0.0000E+00  0.0000E+00
