 1 - depth, m
 2 - temperature, C
 3 - salinity, kg/kg
 4 - turbulent kinetic energy, m**2/s**2
 5 - dissipation rate, m**2/s**3
 6 - kinematic heat conductance, m**2/s
 7 - modulus of horizontal velocity, m/s
 8 - Richardson number, n/d
   -0.000000    2.46946  0.0000E+00  0.2939E-03  0.4113E-03  0.6084E-04  0.1723E+00  0.8855E-02
   -0.037500    2.54809  0.0000E+00  0.1579E-03  0.1156E-03  0.1186E-03  0.6039E-01  0.2150E-01
   -0.075000    2.56607  0.0000E+00  0.1086E-03  0.3907E-04  0.1472E-03  0.4179E-01  0.2018E-01
   -0.112501    2.57782  0.0000E+00  0.8536E-04  0.1970E-04  0.1480E-03  0.3430E-01  0.1090E-01
   -0.150001    2.58655  0.0000E+00  0.7009E-04  0.1070E-04  0.1522E-03  0.2923E-01  0.1570E-01
   -0.187503    2.59334  0.0000E+00  0.5900E-04  0.6273E-05  0.1561E-03  0.2545E-01 -0.5864E+00
   -0.225004    2.59940  0.0000E+00  0.5068E-04  0.3877E-05  0.1593E-03  0.2241E-01  0.2878E-01
   -0.262506    2.60521  0.0000E+00  0.4415E-04  0.2472E-05  0.1628E-03  0.1983E-01  0.4302E-01
   -0.300008    2.61103  0.0000E+00  0.3897E-04  0.1618E-05  0.1659E-03  0.1766E-01  0.6782E-01
   -0.337510    2.61722  0.0000E+00  0.3479E-04  0.1120E-05  0.1683E-03  0.1580E-01  0.1193E+00
   -0.375012    2.62506  0.0000E+00  0.3132E-04  0.8130E-06  0.1701E-03  0.1418E-01  0.2919E+00
   -0.412515    2.64022  0.0000E+00  0.2840E-04  0.6142E-06  0.1713E-03  0.1274E-01  0.1033E+01
   -0.450017    2.66227  0.0000E+00  0.2590E-04  0.4791E-06  0.1720E-03  0.1146E-01  0.5556E+01
   -0.487520    2.68700  0.0000E+00  0.2368E-04  0.3829E-06  0.1717E-03  0.1031E-01  0.4840E+02
   -0.525023    2.71204  0.0000E+00  0.2169E-04  0.3113E-06  0.1716E-03  0.9278E-02  0.5812E+03
   -0.562526    2.73602  0.0000E+00  0.1990E-04  0.2568E-06  0.1710E-03  0.8363E-02  0.7786E+04
   -0.600030    2.75907  0.0000E+00  0.1827E-04  0.2144E-06  0.1692E-03  0.7546E-02  0.1068E+06
   -0.637533    2.78143  0.0000E+00  0.1679E-04  0.1807E-06  0.1667E-03  0.6810E-02  0.1398E+07
   -0.675036    2.80439  0.0000E+00  0.1544E-04  0.1533E-06  0.1639E-03  0.6139E-02  0.1652E+08
   -0.712540    2.83454  0.0000E+00  0.1419E-04  0.1309E-06  0.1607E-03  0.5520E-02  0.1880E+09
   -0.750043    2.90564  0.0000E+00  0.1306E-04  0.1123E-06  0.1576E-03  0.4924E-02  0.1610E+11
   -0.787546    3.03820  0.0000E+00  0.1205E-04  0.9681E-07  0.1587E-03  0.4384E-02  0.1005E+13
   -0.825050    3.13824  0.0000E+00  0.1112E-04  0.8382E-07  0.1653E-03  0.3925E-02  0.4607E+14
   -0.862553    3.23246  0.0000E+00  0.1027E-04  0.7283E-07  0.1714E-03  0.3505E-02  0.1225E+15
   -0.900056    3.29869  0.0000E+00  0.9485E-05  0.6349E-07  0.1772E-03  0.3124E-02 -0.2878E+12
   -0.937560    3.32427  0.0000E+00  0.8759E-05  0.5551E-07  0.1737E-03  0.2773E-02 -0.3817E+12
   -0.975063    3.34701  0.0000E+00  0.8086E-05  0.4865E-07  0.1695E-03  0.2454E-02 -0.4117E+12
   -1.012566    3.36478  0.0000E+00  0.7455E-05  0.4269E-07  0.1660E-03  0.2158E-02 -0.4536E+12
   -1.050069    3.38045  0.0000E+00  0.6864E-05  0.3753E-07  0.1616E-03  0.1894E-02 -0.4969E+12
   -1.087571    3.39442  0.0000E+00  0.6311E-05  0.3305E-07  0.1563E-03  0.1658E-02 -0.5582E+12
   -1.125074    3.40697  0.0000E+00  0.5792E-05  0.2919E-07  0.1503E-03  0.1444E-02 -0.6082E+12
   -1.162576    3.42013  0.0000E+00  0.5307E-05  0.2587E-07  0.1432E-03  0.1251E-02 -0.6745E+12
   -1.200078    3.43389  0.0000E+00  0.4852E-05  0.2304E-07  0.1351E-03  0.1075E-02 -0.7420E+12
   -1.237580    3.44750  0.0000E+00  0.4425E-05  0.2068E-07  0.1258E-03  0.9147E-03 -0.8278E+12
   -1.275082    3.46073  0.0000E+00  0.4015E-05  0.1874E-07  0.1159E-03  0.7675E-03 -0.9223E+12
   -1.312583    3.47324  0.0000E+00  0.3616E-05  0.1726E-07  0.1037E-03  0.6406E-03 -0.1027E+13
   -1.350084    3.48556  0.0000E+00  0.3218E-05  0.1635E-07  0.8885E-04  0.5311E-03 -0.1218E+13
   -1.387585    3.49862  0.0000E+00  0.2800E-05  0.1635E-07  0.7008E-04  0.4365E-03 -0.1680E+13
   -1.425086    3.51490  0.0000E+00  0.2307E-05  0.1853E-07  0.4013E-04  0.3551E-03 -0.4290E+13
   -1.462586    3.54102  0.0000E+00  0.1192E-05  0.3830E-07  0.5800E-05  0.2880E-03 -0.5660E+14
   -1.500086    3.65106  0.0000E+00  0.0000E+00  0.0000E+00  0.0000E+00  0.2889E-03  0.0000E+00
