 1 - depth, m
 2 - temperature, C
 3 - salinity, kg/kg
 4 - turbulent kinetic energy, m**2/s**2
 5 - dissipation rate, m**2/s**3
 6 - kinematic heat conductance, m**2/s
 7 - modulus of horizontal velocity, m/s
 8 - Richardson number, n/d
   -0.000000    3.36765  0.0000E+00  0.1144E-03  0.7123E-04  0.5060E-04  0.9723E-01  0.3581E-02
   -0.037495    3.45197  0.0000E+00  0.6599E-04  0.1997E-04  0.8274E-04  0.3803E-01  0.6863E-02
   -0.074990    3.46882  0.0000E+00  0.4799E-04  0.7553E-05  0.9122E-04  0.2791E-01  0.5776E-02
   -0.112485    3.48114  0.0000E+00  0.3849E-04  0.3888E-05  0.9725E-04  0.2324E-01  0.4467E-02
   -0.149981    3.49040  0.0000E+00  0.3204E-04  0.2197E-05  0.1037E-03  0.1994E-01  0.5703E-02
   -0.187477    3.49820  0.0000E+00  0.2733E-04  0.1323E-05  0.1100E-03  0.1730E-01  0.7469E-02
   -0.224973    3.50508  0.0000E+00  0.2369E-04  0.8316E-06  0.1155E-03  0.1509E-01  0.9072E-02
   -0.262470    3.51127  0.0000E+00  0.2074E-04  0.5446E-06  0.1207E-03  0.1322E-01  0.1168E-01
   -0.299967    3.51696  0.0000E+00  0.1833E-04  0.3732E-06  0.1251E-03  0.1162E-01  0.1498E-01
   -0.337464    3.52228  0.0000E+00  0.1631E-04  0.2675E-06  0.1284E-03  0.1025E-01  0.1904E-01
   -0.374961    3.52733  0.0000E+00  0.1460E-04  0.1991E-06  0.1307E-03  0.9062E-02  0.2405E-01
   -0.412458    3.53216  0.0000E+00  0.1313E-04  0.1528E-06  0.1320E-03  0.8015E-02  0.3021E-01
   -0.449956    3.53683  0.0000E+00  0.1182E-04  0.1199E-06  0.1322E-03  0.7086E-02  0.3769E-01
   -0.487454    3.54139  0.0000E+00  0.1066E-04  0.9561E-07  0.1315E-03  0.6255E-02  0.4721E-01
   -0.524951    3.54588  0.0000E+00  0.9596E-05  0.7699E-07  0.1308E-03  0.5508E-02  0.6304E-01
   -0.562449    3.55032  0.0000E+00  0.8637E-05  0.6252E-07  0.1293E-03  0.4850E-02  0.8505E-01
   -0.599948    3.55474  0.0000E+00  0.7770E-05  0.5110E-07  0.1270E-03  0.4267E-02  0.1167E+00
   -0.637446    3.55919  0.0000E+00  0.6986E-05  0.4198E-07  0.1241E-03  0.3749E-02  0.1642E+00
   -0.674944    3.56371  0.0000E+00  0.6277E-05  0.3463E-07  0.1208E-03  0.3287E-02  0.2399E+00
   -0.712442    3.56836  0.0000E+00  0.5637E-05  0.2867E-07  0.1171E-03  0.2874E-02  0.3708E+00
   -0.749940    3.57321  0.0000E+00  0.5060E-05  0.2381E-07  0.1130E-03  0.2505E-02  0.6484E+00
   -0.787439    3.57845  0.0000E+00  0.4539E-05  0.1982E-07  0.1088E-03  0.2176E-02  0.1468E+01
   -0.824937    3.58443  0.0000E+00  0.4071E-05  0.1655E-07  0.1044E-03  0.1882E-02  0.5978E+01
   -0.862435    3.59148  0.0000E+00  0.3650E-05  0.1385E-07  0.9985E-04  0.1620E-02  0.5101E+02
   -0.899933    3.59957  0.0000E+00  0.3272E-05  0.1162E-07  0.9522E-04  0.1388E-02  0.6613E+03
   -0.937431    3.60862  0.0000E+00  0.2933E-05  0.9764E-08  0.9048E-04  0.1180E-02  0.1104E+05
   -0.974929    3.61894  0.0000E+00  0.2627E-05  0.8220E-08  0.8560E-04  0.9940E-03  0.2363E+06
   -1.012427    3.63194  0.0000E+00  0.2351E-05  0.6928E-08  0.8138E-04  0.8258E-03  0.9402E+07
   -1.049925    3.64920  0.0000E+00  0.2104E-05  0.5846E-08  0.7713E-04  0.6811E-03  0.1107E+09
   -1.087423    3.67700  0.0000E+00  0.1882E-05  0.4944E-08  0.7435E-04  0.5579E-03 -0.6933E+09
   -1.124920    3.70299  0.0000E+00  0.1684E-05  0.4194E-08  0.7137E-04  0.4532E-03 -0.3973E+10
   -1.162417    3.73208  0.0000E+00  0.1506E-05  0.3570E-08  0.6825E-04  0.3640E-03 -0.1149E+11
   -1.199914    3.76298  0.0000E+00  0.1346E-05  0.3057E-08  0.6482E-04  0.2880E-03 -0.2655E+11
   -1.237411    3.79477  0.0000E+00  0.1203E-05  0.2640E-08  0.6101E-04  0.2229E-03 -0.5982E+11
   -1.274908    3.82577  0.0000E+00  0.1074E-05  0.2306E-08  0.5667E-04  0.1673E-03 -0.1535E+12
   -1.312404    3.85109  0.0000E+00  0.9539E-06  0.2047E-08  0.5114E-04  0.1234E-03 -0.3998E+12
   -1.349900    3.87423  0.0000E+00  0.8386E-06  0.1868E-08  0.4399E-04  0.8898E-04 -0.1015E+13
   -1.387396    3.89630  0.0000E+00  0.7215E-06  0.1798E-08  0.3435E-04  0.6213E-04 -0.2171E+13
   -1.424891    3.92070  0.0000E+00  0.5889E-06  0.1966E-08  0.2132E-04  0.4159E-04 -0.6188E+13
   -1.462386    3.95407  0.0000E+00  0.3115E-06  0.3849E-08  0.3666E-05  0.2684E-04 -0.7880E+14
   -1.499881    4.05969  0.0000E+00  0.0000E+00  0.0000E+00  0.0000E+00  0.2708E-04  0.0000E+00
