 1 - depth, m
 2 - temperature, C
 3 - salinity, kg/kg
 4 - turbulent kinetic energy, m**2/s**2
 5 - dissipation rate, m**2/s**3
 6 - kinematic heat conductance, m**2/s
 7 - modulus of horizontal velocity, m/s
 8 - Richardson number, n/d
   -0.000000    0.00000  0.0000E+00  0.4096E-13  0.8590E-16  0.1000E-09  0.0000E+00  0.9444E+16
   -0.037500    0.14447  0.0000E+00  0.4096E-13  0.8590E-16  0.1000E-09  0.0000E+00  0.9039E+16
   -0.075000    0.28838  0.0000E+00  0.4096E-13  0.8590E-16  0.1000E-09  0.0000E+00  0.8634E+16
   -0.112500    0.43163  0.0000E+00  0.4096E-13  0.8590E-16  0.1000E-09  0.0000E+00  0.8229E+16
   -0.150000    0.57411  0.0000E+00  0.4096E-13  0.8590E-16  0.1000E-09  0.0000E+00  0.7827E+16
   -0.187501    0.71573  0.0000E+00  0.4096E-13  0.8590E-16  0.1000E-09  0.0000E+00  0.7427E+16
   -0.225003    0.85637  0.0000E+00  0.4096E-13  0.8590E-16  0.1000E-09  0.0000E+00  0.7032E+16
   -0.262504    0.99595  0.0000E+00  0.4096E-13  0.8590E-16  0.1000E-09  0.0000E+00  0.6637E+16
   -0.300006    1.13429  0.0000E+00  0.4096E-13  0.8590E-16  0.1000E-09  0.0000E+00  0.6248E+16
   -0.337508    1.27128  0.0000E+00  0.4096E-13  0.8590E-16  0.1000E-09  0.0000E+00  0.5866E+16
   -0.375010    1.40681  0.0000E+00  0.4096E-13  0.8590E-16  0.1000E-09  0.0000E+00  0.5503E+16
   -0.412512    1.54108  0.0000E+00  0.4096E-13  0.8590E-16  0.1000E-09  0.0000E+00  0.5153E+16
   -0.450015    1.67418  0.0000E+00  0.4096E-13  0.8590E-16  0.1000E-09  0.0000E+00  0.4810E+16
   -0.487517    1.80604  0.0000E+00  0.4096E-13  0.8590E-16  0.1000E-09  0.0000E+00  0.4474E+16
   -0.525020    1.93655  0.0000E+00  0.4096E-13  0.8590E-16  0.1000E-09  0.0000E+00  0.4142E+16
   -0.562523    2.06558  0.0000E+00  0.4096E-13  0.8590E-16  0.1000E-09  0.0000E+00  0.3819E+16
   -0.600026    2.19303  0.0000E+00  0.4096E-13  0.8590E-16  0.1000E-09  0.0000E+00  0.3505E+16
   -0.637529    2.31881  0.0000E+00  0.4096E-13  0.8590E-16  0.1000E-09  0.0000E+00  0.3200E+16
   -0.675032    2.44283  0.0000E+00  0.6602E-13  0.8590E-16  0.1000E-09  0.0000E+00  0.2905E+16
   -0.712535    2.56498  0.0000E+00  0.2495E-12  0.9598E-16  0.1000E-09  0.0000E+00  0.2619E+16
   -0.750038    2.68516  0.0000E+00  0.6183E-12  0.1701E-15  0.1000E-09  0.0000E+00  0.2354E+16
   -0.787542    2.80379  0.0000E+00  0.1317E-11  0.3285E-15  0.1000E-09  0.0000E+00  0.2100E+16
   -0.825045    2.92094  0.0000E+00  0.2654E-11  0.6354E-15  0.1000E-09  0.0000E+00  0.1854E+16
   -0.862548    3.03654  0.0000E+00  0.5226E-11  0.1219E-14  0.1000E-09  0.0000E+00  0.1617E+16
   -0.900051    3.15052  0.0000E+00  0.1017E-10  0.2319E-14  0.1000E-09  0.0000E+00  0.1388E+16
   -0.937554    3.26279  0.0000E+00  0.1964E-10  0.4383E-14  0.1000E-09  0.0000E+00  0.1169E+16
   -0.975057    3.37325  0.0000E+00  0.3768E-10  0.8234E-14  0.1000E-09  0.0000E+00  0.9587E+15
   -1.012560    3.48181  0.0000E+00  0.7199E-10  0.1541E-13  0.1000E-09  0.0000E+00  0.7570E+15
   -1.050062    3.58811  0.0000E+00  0.1372E-09  0.2879E-13  0.1411E-09  0.0000E+00  0.5660E+15
   -1.087565    3.69187  0.0000E+00  0.2604E-09  0.5355E-13  0.3839E-09  0.0000E+00  0.3869E+15
   -1.125067    3.79269  0.0000E+00  0.4919E-09  0.9917E-13  0.1227E-08  0.0000E+00  0.2241E+15
   -1.162569    3.89178  0.0000E+00  0.9218E-09  0.1824E-12  0.7230E-08  0.0000E+00  0.7006E+14
   -1.200071    3.98589  0.0000E+00  0.1486E-08  0.2931E-12  0.1729E-05  0.0000E+00 -0.3859E+12
   -1.237573    3.99400  0.0000E+00  0.1914E-08  0.4047E-12  0.3081E-05  0.0000E+00 -0.6627E+12
   -1.275074    3.99831  0.0000E+00  0.2256E-08  0.5256E-12  0.3508E-05  0.0000E+00 -0.8315E+12
   -1.312575    4.00213  0.0000E+00  0.2521E-08  0.6704E-12  0.3455E-05  0.0000E+00 -0.1087E+13
   -1.350076    4.00603  0.0000E+00  0.2688E-08  0.8612E-12  0.2990E-05  0.0000E+00 -0.1561E+13
   -1.387577    4.01056  0.0000E+00  0.2708E-08  0.1153E-11  0.2160E-05  0.0000E+00 -0.2684E+13
   -1.425077    4.01682  0.0000E+00  0.2477E-08  0.1719E-11  0.1103E-05  0.0000E+00 -0.6749E+13
   -1.462577    4.02865  0.0000E+00  0.1830E-08  0.3359E-11  0.2401E-06  0.0000E+00 -0.3891E+14
   -1.500077    4.06855  0.0000E+00  0.0000E+00  0.0000E+00  0.0000E+00  0.0000E+00  0.0000E+00
