 1 - depth, m
 2 - temperature, C
 3 - salinity, kg/kg
 4 - turbulent kinetic energy, m**2/s**2
 5 - dissipation rate, m**2/s**3
 6 - kinematic heat conductance, m**2/s
 7 - modulus of horizontal velocity, m/s
 8 - Richardson number, n/d
   -0.000000    0.00000  0.0000E+00  0.4096E-13  0.8590E-16  0.1000E-09  0.0000E+00  0.9011E+16
   -0.037498    0.13772  0.0000E+00  0.4096E-13  0.8590E-16  0.1000E-09  0.0000E+00  0.8580E+16
   -0.074997    0.27392  0.0000E+00  0.4096E-13  0.8590E-16  0.1000E-09  0.0000E+00  0.8160E+16
   -0.112496    0.40858  0.0000E+00  0.4096E-13  0.8590E-16  0.1000E-09  0.0000E+00  0.7751E+16
   -0.149995    0.54166  0.0000E+00  0.4096E-13  0.8590E-16  0.1000E-09  0.0000E+00  0.7353E+16
   -0.187495    0.67314  0.0000E+00  0.4096E-13  0.8590E-16  0.1000E-09  0.0000E+00  0.6966E+16
   -0.224995    0.80299  0.0000E+00  0.4096E-13  0.8590E-16  0.1000E-09  0.0000E+00  0.6589E+16
   -0.262495    0.93118  0.0000E+00  0.4096E-13  0.8590E-16  0.1000E-09  0.0000E+00  0.6215E+16
   -0.299996    1.05750  0.0000E+00  0.4096E-13  0.8590E-16  0.1000E-09  0.0000E+00  0.5850E+16
   -0.337496    1.18187  0.0000E+00  0.4096E-13  0.8590E-16  0.1000E-09  0.0000E+00  0.5496E+16
   -0.374997    1.30422  0.0000E+00  0.4096E-13  0.8590E-16  0.1000E-09  0.0000E+00  0.5179E+16
   -0.412498    1.42510  0.0000E+00  0.4096E-13  0.8590E-16  0.1000E-09  0.0000E+00  0.4885E+16
   -0.450000    1.54485  0.0000E+00  0.4096E-13  0.8590E-16  0.1000E-09  0.0000E+00  0.4598E+16
   -0.487501    1.66341  0.0000E+00  0.4096E-13  0.8590E-16  0.1000E-09  0.0000E+00  0.4316E+16
   -0.525003    1.78074  0.0000E+00  0.4096E-13  0.8590E-16  0.1000E-09  0.0000E+00  0.4037E+16
   -0.562504    1.89666  0.0000E+00  0.4096E-13  0.8590E-16  0.1000E-09  0.0000E+00  0.3765E+16
   -0.600006    2.01112  0.0000E+00  0.4096E-13  0.8590E-16  0.1000E-09  0.0000E+00  0.3501E+16
   -0.637508    2.12406  0.0000E+00  0.4096E-13  0.8590E-16  0.1000E-09  0.0000E+00  0.3244E+16
   -0.675010    2.23542  0.0000E+00  0.4096E-13  0.8590E-16  0.1000E-09  0.0000E+00  0.2995E+16
   -0.712511    2.34514  0.0000E+00  0.4096E-13  0.8590E-16  0.1000E-09  0.0000E+00  0.2754E+16
   -0.750013    2.45313  0.0000E+00  0.4096E-13  0.8590E-16  0.1000E-09  0.0000E+00  0.2546E+16
   -0.787515    2.56040  0.0000E+00  0.4096E-13  0.8590E-16  0.1000E-09  0.0000E+00  0.2349E+16
   -0.825017    2.66728  0.0000E+00  0.4096E-13  0.8590E-16  0.1000E-09  0.0000E+00  0.2155E+16
   -0.862519    2.77378  0.0000E+00  0.4096E-13  0.8590E-16  0.1000E-09  0.0000E+00  0.1963E+16
   -0.900021    2.87988  0.0000E+00  0.1060E-12  0.8590E-16  0.1000E-09  0.0000E+00  0.1774E+16
   -0.937523    2.98556  0.0000E+00  0.3370E-12  0.1786E-15  0.1000E-09  0.0000E+00  0.1587E+16
   -0.975024    3.09083  0.0000E+00  0.9157E-12  0.4433E-15  0.1000E-09  0.0000E+00  0.1403E+16
   -1.012526    3.19565  0.0000E+00  0.2364E-11  0.1102E-14  0.1000E-09  0.0000E+00  0.1221E+16
   -1.050027    3.29993  0.0000E+00  0.5998E-11  0.2716E-14  0.1000E-09  0.0000E+00  0.1041E+16
   -1.087528    3.40361  0.0000E+00  0.1504E-10  0.6622E-14  0.1000E-09  0.0000E+00  0.8645E+15
   -1.125029    3.50664  0.0000E+00  0.3730E-10  0.1599E-13  0.1000E-09  0.0000E+00  0.7004E+15
   -1.162530    3.61046  0.0000E+00  0.9163E-10  0.3827E-13  0.1973E-09  0.0000E+00  0.5340E+15
   -1.200031    3.71533  0.0000E+00  0.2230E-09  0.9078E-13  0.6871E-09  0.0000E+00  0.3626E+15
   -1.237531    3.82109  0.0000E+00  0.5369E-09  0.2133E-12  0.3114E-08  0.0000E+00  0.1862E+15
   -1.275032    3.92659  0.0000E+00  0.1269E-08  0.4943E-12  0.4931E-07  0.0000E+00  0.2412E+14
   -1.312532    4.00839  0.0000E+00  0.2450E-08  0.9690E-12  0.2414E-05  0.0000E+00 -0.2477E+13
   -1.350031    4.01466  0.0000E+00  0.3047E-08  0.1359E-11  0.2530E-05  0.0000E+00 -0.3080E+13
   -1.387531    4.02091  0.0000E+00  0.3365E-08  0.1886E-11  0.2100E-05  0.0000E+00 -0.4729E+13
   -1.425030    4.02875  0.0000E+00  0.3311E-08  0.2851E-11  0.1228E-05  0.0000E+00 -0.1061E+14
   -1.462528    4.04249  0.0000E+00  0.2654E-08  0.5635E-11  0.3208E-06  0.0000E+00 -0.5519E+14
   -1.500027    4.08735  0.0000E+00  0.0000E+00  0.0000E+00  0.0000E+00  0.0000E+00  0.0000E+00
