 1 - depth, m
 2 - temperature, C
 3 - salinity, kg/kg
 4 - turbulent kinetic energy, m**2/s**2
 5 - dissipation rate, m**2/s**3
 6 - kinematic heat conductance, m**2/s
 7 - modulus of horizontal velocity, m/s
 8 - Richardson number, n/d
   -0.000000    4.91696  0.0000E+00  0.1397E-03  0.6084E-04  0.5865E-04  0.1141E+00 -0.4084E-02
   -0.037498    5.00219  0.0000E+00  0.8173E-04  0.1629E-04  0.1013E-03  0.4186E-01 -0.3598E-02
   -0.074997    5.01265  0.0000E+00  0.6074E-04  0.6876E-05  0.1087E-03  0.3160E-01 -0.9183E-02
   -0.112495    5.02086  0.0000E+00  0.4921E-04  0.3669E-05  0.1163E-03  0.2673E-01 -0.4211E-02
   -0.149994    5.02758  0.0000E+00  0.4138E-04  0.2148E-05  0.1262E-03  0.2317E-01 -0.5483E-02
   -0.187494    5.03335  0.0000E+00  0.3568E-04  0.1345E-05  0.1363E-03  0.2029E-01 -0.6367E-02
   -0.224994    5.03843  0.0000E+00  0.3131E-04  0.8921E-06  0.1457E-03  0.1786E-01 -0.8514E-02
   -0.262494    5.04301  0.0000E+00  0.2780E-04  0.6220E-06  0.1553E-03  0.1577E-01 -0.9280E-02
   -0.299994    5.04717  0.0000E+00  0.2493E-04  0.4528E-06  0.1642E-03  0.1398E-01 -0.1134E-01
   -0.337494    5.05101  0.0000E+00  0.2253E-04  0.3415E-06  0.1722E-03  0.1244E-01 -0.1375E-01
   -0.374995    5.05458  0.0000E+00  0.2048E-04  0.2648E-06  0.1795E-03  0.1108E-01 -0.1659E-01
   -0.412496    5.05793  0.0000E+00  0.1869E-04  0.2098E-06  0.1860E-03  0.9890E-02 -0.1990E-01
   -0.449997    5.06109  0.0000E+00  0.1712E-04  0.1691E-06  0.1916E-03  0.8829E-02 -0.2372E-01
   -0.487498    5.06409  0.0000E+00  0.1570E-04  0.1380E-06  0.1964E-03  0.7879E-02 -0.2828E-01
   -0.524999    5.06696  0.0000E+00  0.1441E-04  0.1137E-06  0.2016E-03  0.7025E-02 -0.3488E-01
   -0.562500    5.06971  0.0000E+00  0.1324E-04  0.9443E-07  0.2062E-03  0.6266E-02 -0.4282E-01
   -0.600002    5.07235  0.0000E+00  0.1218E-04  0.7902E-07  0.2102E-03  0.5590E-02 -0.5238E-01
   -0.637504    5.07489  0.0000E+00  0.1122E-04  0.6654E-07  0.2138E-03  0.4986E-02 -0.6388E-01
   -0.675005    5.07735  0.0000E+00  0.1034E-04  0.5637E-07  0.2171E-03  0.4444E-02 -0.7744E-01
   -0.712507    5.07972  0.0000E+00  0.9548E-05  0.4801E-07  0.2203E-03  0.3958E-02  0.1606E-01
   -0.750008    5.08202  0.0000E+00  0.8827E-05  0.4110E-07  0.2240E-03  0.3520E-02  0.9745E+00
   -0.787510    5.08425  0.0000E+00  0.8172E-05  0.3537E-07  0.2280E-03  0.3127E-02  0.1601E+01
   -0.825012    5.08640  0.0000E+00  0.7577E-05  0.3059E-07  0.2325E-03  0.2773E-02  0.5808E-01
   -0.862513    5.08847  0.0000E+00  0.7037E-05  0.2658E-07  0.2392E-03  0.2453E-02  0.3392E+01
   -0.900015    5.09047  0.0000E+00  0.6545E-05  0.2322E-07  0.2495E-03  0.2164E-02  0.1743E+02
   -0.937516    5.09238  0.0000E+00  0.6097E-05  0.2039E-07  0.2714E-03  0.1902E-02  0.2192E+03
   -0.975018    5.09415  0.0000E+00  0.5688E-05  0.1800E-07  0.3084E-03  0.1664E-02  0.2216E+04
   -1.012519    5.09575  0.0000E+00  0.5312E-05  0.1598E-07  0.3458E-03  0.1446E-02  0.3920E+03
   -1.050020    5.09719  0.0000E+00  0.4965E-05  0.1426E-07  0.3775E-03  0.1252E-02  0.1352E+03
   -1.087521    5.09849  0.0000E+00  0.4642E-05  0.1281E-07  0.3904E-03  0.1080E-02  0.1930E+02
   -1.125022    5.09972  0.0000E+00  0.4343E-05  0.1159E-07  0.3974E-03  0.9264E-03  0.1328E+03
   -1.162523    5.10088  0.0000E+00  0.4066E-05  0.1058E-07  0.3956E-03  0.7898E-03  0.4414E+03
   -1.200023    5.10202  0.0000E+00  0.3810E-05  0.9785E-08  0.3859E-03  0.6684E-03  0.3758E+02
   -1.237523    5.10315  0.0000E+00  0.3577E-05  0.9189E-08  0.3662E-03  0.5609E-03  0.2976E+02
   -1.275023    5.10431  0.0000E+00  0.3361E-05  0.8790E-08  0.3374E-03  0.4664E-03  0.4167E+02
   -1.312523    5.10554  0.0000E+00  0.3161E-05  0.8599E-08  0.3023E-03  0.3889E-03  0.4044E+02
   -1.350022    5.10689  0.0000E+00  0.2960E-05  0.8653E-08  0.2644E-03  0.3261E-03  0.5563E+02
   -1.387522    5.10845  0.0000E+00  0.2720E-05  0.9167E-08  0.1832E-03  0.2716E-03  0.2580E+03
   -1.425020    5.11064  0.0000E+00  0.2368E-05  0.1105E-07  0.7897E-04  0.2176E-03  0.2882E+04
   -1.462519    5.11519  0.0000E+00  0.1305E-05  0.2522E-07  0.8881E-05  0.1666E-03 -0.2794E+05
   -1.500017    5.15458  0.0000E+00  0.0000E+00  0.0000E+00  0.0000E+00  0.1662E-03  0.0000E+00
