 1 - depth, m
 2 - temperature, C
 3 - salinity, kg/kg
 4 - turbulent kinetic energy, m**2/s**2
 5 - dissipation rate, m**2/s**3
 6 - kinematic heat conductance, m**2/s
 7 - modulus of horizontal velocity, m/s
 8 - Richardson number, n/d
   -0.000000    0.00000  0.0000E+00  0.4096E-13  0.8590E-16  0.1000E-09  0.0000E+00  0.9661E+16
   -0.037493    0.14786  0.0000E+00  0.4096E-13  0.8590E-16  0.1000E-09  0.0000E+00  0.9231E+16
   -0.074986    0.29504  0.0000E+00  0.4096E-13  0.8590E-16  0.1000E-09  0.0000E+00  0.8800E+16
   -0.112479    0.44140  0.0000E+00  0.4096E-13  0.8590E-16  0.1000E-09  0.0000E+00  0.8370E+16
   -0.149973    0.58681  0.0000E+00  0.4096E-13  0.8590E-16  0.1000E-09  0.0000E+00  0.7943E+16
   -0.187467    0.73117  0.0000E+00  0.4096E-13  0.8590E-16  0.1000E-09  0.0000E+00  0.7519E+16
   -0.224961    0.87435  0.0000E+00  0.4096E-13  0.8590E-16  0.1000E-09  0.0000E+00  0.7102E+16
   -0.262455    1.01625  0.0000E+00  0.4096E-13  0.8590E-16  0.1000E-09  0.0000E+00  0.6687E+16
   -0.299950    1.15672  0.0000E+00  0.4096E-13  0.8590E-16  0.1000E-09  0.0000E+00  0.6280E+16
   -0.337445    1.29562  0.0000E+00  0.4096E-13  0.8590E-16  0.1000E-09  0.0000E+00  0.5882E+16
   -0.374940    1.43289  0.0000E+00  0.4096E-13  0.8590E-16  0.1000E-09  0.0000E+00  0.5506E+16
   -0.412436    1.56874  0.0000E+00  0.4096E-13  0.8590E-16  0.1000E-09  0.0000E+00  0.5146E+16
   -0.449931    1.70332  0.0000E+00  0.4096E-13  0.8590E-16  0.1000E-09  0.0000E+00  0.4793E+16
   -0.487427    1.83655  0.0000E+00  0.4096E-13  0.8590E-16  0.1000E-09  0.0000E+00  0.4449E+16
   -0.524923    1.96836  0.0000E+00  0.4096E-13  0.8590E-16  0.1000E-09  0.0000E+00  0.4111E+16
   -0.562419    2.09860  0.0000E+00  0.4096E-13  0.8590E-16  0.1000E-09  0.0000E+00  0.3782E+16
   -0.599915    2.22720  0.0000E+00  0.4096E-13  0.8590E-16  0.1000E-09  0.0000E+00  0.3463E+16
   -0.637411    2.35408  0.0000E+00  0.6594E-13  0.8590E-16  0.1000E-09  0.0000E+00  0.3153E+16
   -0.674907    2.47912  0.0000E+00  0.2548E-12  0.9846E-16  0.1000E-09  0.0000E+00  0.2853E+16
   -0.712403    2.60224  0.0000E+00  0.6356E-12  0.1805E-15  0.1000E-09  0.0000E+00  0.2564E+16
   -0.749899    2.72332  0.0000E+00  0.1370E-11  0.3555E-15  0.1000E-09  0.0000E+00  0.2295E+16
   -0.787396    2.84274  0.0000E+00  0.2800E-11  0.6992E-15  0.1000E-09  0.0000E+00  0.2037E+16
   -0.824892    2.96058  0.0000E+00  0.5602E-11  0.1363E-14  0.1000E-09  0.0000E+00  0.1788E+16
   -0.862388    3.07675  0.0000E+00  0.1108E-10  0.2635E-14  0.1000E-09  0.0000E+00  0.1548E+16
   -0.899884    3.19117  0.0000E+00  0.2174E-10  0.5060E-14  0.1000E-09  0.0000E+00  0.1318E+16
   -0.937380    3.30372  0.0000E+00  0.4238E-10  0.9656E-14  0.1000E-09  0.0000E+00  0.1098E+16
   -0.974876    3.41432  0.0000E+00  0.8210E-10  0.1832E-13  0.1000E-09  0.0000E+00  0.8876E+15
   -1.012372    3.52286  0.0000E+00  0.1584E-09  0.3461E-13  0.1397E-09  0.0000E+00  0.6867E+15
   -1.049868    3.62899  0.0000E+00  0.3048E-09  0.6526E-13  0.3636E-09  0.0000E+00  0.4973E+15
   -1.087363    3.73235  0.0000E+00  0.5838E-09  0.1225E-12  0.1057E-08  0.0000E+00  0.3208E+15
   -1.124859    3.83243  0.0000E+00  0.1111E-08  0.2287E-12  0.3935E-08  0.0000E+00  0.1605E+15
   -1.162354    3.92951  0.0000E+00  0.2062E-08  0.4175E-12  0.4868E-07  0.0000E+00  0.2309E+14
   -1.199849    4.00320  0.0000E+00  0.2896E-08  0.5902E-12  0.5777E-05  0.0000E+00 -0.6680E+12
   -1.237343    4.00556  0.0000E+00  0.3289E-08  0.6981E-12  0.6113E-05  0.0000E+00 -0.7169E+12
   -1.274838    4.00781  0.0000E+00  0.3574E-08  0.8145E-12  0.6012E-05  0.0000E+00 -0.8165E+12
   -1.312332    4.01011  0.0000E+00  0.3752E-08  0.9542E-12  0.5471E-05  0.0000E+00 -0.1001E+13
   -1.349826    4.01266  0.0000E+00  0.3804E-08  0.1144E-11  0.4488E-05  0.0000E+00 -0.1370E+13
   -1.387320    4.01579  0.0000E+00  0.3673E-08  0.1448E-11  0.3092E-05  0.0000E+00 -0.2272E+13
   -1.424813    4.02036  0.0000E+00  0.3222E-08  0.2083E-11  0.1472E-05  0.0000E+00 -0.5693E+13
   -1.462306    4.02974  0.0000E+00  0.2223E-08  0.4117E-11  0.2722E-06  0.0000E+00 -0.3722E+14
   -1.499799    4.06781  0.0000E+00  0.0000E+00  0.0000E+00  0.0000E+00  0.0000E+00  0.0000E+00
