 1 - depth, m
 2 - temperature, C
 3 - salinity, kg/kg
 4 - turbulent kinetic energy, m**2/s**2
 5 - dissipation rate, m**2/s**3
 6 - kinematic heat conductance, m**2/s
 7 - modulus of horizontal velocity, m/s
 8 - Richardson number, n/d
   -0.000000    7.68875  0.0000E+00  0.1763E-04  0.1412E-05  0.2163E-04  0.2653E-01 -0.8469E-02
   -0.037500    7.72233  0.0000E+00  0.1460E-04  0.5182E-06  0.4248E-04  0.1669E-01 -0.2239E-01
   -0.075001    7.73753  0.0000E+00  0.1280E-04  0.2840E-06  0.6062E-04  0.1280E-01 -0.3827E-01
   -0.112502    7.74801  0.0000E+00  0.1147E-04  0.1828E-06  0.7764E-04  0.1033E-01 -0.5756E-01
   -0.150004    7.75604  0.0000E+00  0.1042E-04  0.1283E-06  0.9433E-04  0.8571E-02 -0.8121E-01
   -0.187506    7.76253  0.0000E+00  0.9539E-05  0.9511E-07  0.1113E-03  0.7239E-02 -0.1096E+00
   -0.225008    7.76792  0.0000E+00  0.8801E-05  0.7319E-07  0.1302E-03  0.6193E-02 -0.1278E+00
   -0.262510    7.77245  0.0000E+00  0.8174E-05  0.5796E-07  0.1712E-03  0.5352E-02  0.2434E+02
   -0.300013    7.77596  0.0000E+00  0.7663E-05  0.4729E-07  0.2751E-03  0.4682E-02  0.1160E+03
   -0.337515    7.77831  0.0000E+00  0.7256E-05  0.3968E-07  0.3680E-03  0.4157E-02  0.3134E+02
   -0.375018    7.77998  0.0000E+00  0.6917E-05  0.3387E-07  0.3939E-03  0.3713E-02  0.5603E+02
   -0.412521    7.78141  0.0000E+00  0.6621E-05  0.2924E-07  0.4242E-03  0.3312E-02  0.8733E+01
   -0.450025    7.78269  0.0000E+00  0.6361E-05  0.2548E-07  0.4319E-03  0.2953E-02  0.4561E+01
   -0.487528    7.78393  0.0000E+00  0.6124E-05  0.2234E-07  0.4408E-03  0.2623E-02  0.4289E+01
   -0.525032    7.78512  0.0000E+00  0.5906E-05  0.1972E-07  0.4512E-03  0.2323E-02  0.3741E+01
   -0.562536    7.78627  0.0000E+00  0.5705E-05  0.1752E-07  0.4621E-03  0.2053E-02  0.3323E+01
   -0.600040    7.78737  0.0000E+00  0.5518E-05  0.1565E-07  0.4736E-03  0.1810E-02  0.2992E+01
   -0.637543    7.78844  0.0000E+00  0.5343E-05  0.1408E-07  0.4857E-03  0.1592E-02  0.2723E+01
   -0.675047    7.78946  0.0000E+00  0.5178E-05  0.1274E-07  0.4986E-03  0.1396E-02  0.2498E+01
   -0.712551    7.79045  0.0000E+00  0.5021E-05  0.1160E-07  0.5122E-03  0.1221E-02  0.2306E+01
   -0.750055    7.79139  0.0000E+00  0.4870E-05  0.1064E-07  0.5268E-03  0.1065E-02  0.2141E+01
   -0.787559    7.79230  0.0000E+00  0.4725E-05  0.9834E-08  0.5423E-03  0.9259E-03  0.1997E+01
   -0.825063    7.79318  0.0000E+00  0.4584E-05  0.9162E-08  0.5590E-03  0.8027E-03  0.1869E+01
   -0.862567    7.79401  0.0000E+00  0.4447E-05  0.8611E-08  0.5772E-03  0.6941E-03  0.1755E+01
   -0.900071    7.79482  0.0000E+00  0.4314E-05  0.8168E-08  0.5973E-03  0.5986E-03  0.1654E+01
   -0.937575    7.79558  0.0000E+00  0.4184E-05  0.7821E-08  0.6193E-03  0.5148E-03  0.1562E+01
   -0.975079    7.79631  0.0000E+00  0.4059E-05  0.7562E-08  0.6373E-03  0.4415E-03  0.1480E+01
   -1.012582    7.79701  0.0000E+00  0.3938E-05  0.7384E-08  0.6303E-03  0.3775E-03  0.1352E+01
   -1.050086    7.79771  0.0000E+00  0.3824E-05  0.7281E-08  0.6078E-03  0.3237E-03  0.1228E+01
   -1.087589    7.79843  0.0000E+00  0.3717E-05  0.7245E-08  0.5767E-03  0.2793E-03  0.1112E+01
   -1.125092    7.79918  0.0000E+00  0.3618E-05  0.7270E-08  0.5429E-03  0.2429E-03  0.9998E+00
   -1.162595    7.79996  0.0000E+00  0.3526E-05  0.7351E-08  0.5126E-03  0.2130E-03  0.9054E+00
   -1.200098    7.80078  0.0000E+00  0.3438E-05  0.7490E-08  0.4847E-03  0.1887E-03  0.9896E+00
   -1.237601    7.80164  0.0000E+00  0.3347E-05  0.7710E-08  0.4513E-03  0.1674E-03  0.1311E+01
   -1.275103    7.80256  0.0000E+00  0.3245E-05  0.8052E-08  0.4099E-03  0.1475E-03  0.1949E+01
   -1.312605    7.80355  0.0000E+00  0.3127E-05  0.8588E-08  0.3601E-03  0.1289E-03  0.3428E+01
   -1.350107    7.80468  0.0000E+00  0.2985E-05  0.9452E-08  0.3040E-03  0.1115E-03  0.7135E+01
   -1.387608    7.80599  0.0000E+00  0.2805E-05  0.1095E-07  0.2326E-03  0.9534E-04  0.2030E+02
   -1.425110    7.80770  0.0000E+00  0.2560E-05  0.1398E-07  0.1767E-03  0.8039E-04  0.7889E+02
   -1.462610    7.80992  0.0000E+00  0.1596E-05  0.3503E-07  0.1155E-04  0.6918E-04 -0.8846E+04
   -1.500111    7.84307  0.0000E+00  0.0000E+00  0.0000E+00  0.0000E+00  0.6907E-04  0.0000E+00
