 1 - depth, m
 2 - temperature, C
 3 - salinity, kg/kg
 4 - turbulent kinetic energy, m**2/s**2
 5 - dissipation rate, m**2/s**3
 6 - kinematic heat conductance, m**2/s
 7 - modulus of horizontal velocity, m/s
 8 - Richardson number, n/d
   -0.000000   10.59052  0.0000E+00  0.8264E-03  0.4112E-02  0.1047E-03  0.4163E+00  0.1857E-02
   -0.037502   10.62400  0.0000E+00  0.4295E-03  0.1746E-02  0.1716E-03  0.1441E+00 -0.4507E-01
   -0.075004   10.64348  0.0000E+00  0.2746E-03  0.5652E-03  0.2833E-03  0.8286E-01  0.2927E-01
   -0.112507   10.65092  0.0000E+00  0.2111E-03  0.3263E-03  0.2937E-03  0.6122E-01 -0.6138E+00
   -0.150010   10.65392  0.0000E+00  0.1720E-03  0.1993E-03  0.2935E-03  0.4999E-01 -0.1057E-01
   -0.187514   10.65558  0.0000E+00  0.1455E-03  0.1291E-03  0.2960E-03  0.4286E-01 -0.5303E-02
   -0.225017   10.65672  0.0000E+00  0.1255E-03  0.8436E-04  0.2946E-03  0.3776E-01 -0.9356E-02
   -0.262521   10.65768  0.0000E+00  0.1092E-03  0.5391E-04  0.3026E-03  0.3350E-01 -0.5656E-02
   -0.300025   10.65847  0.0000E+00  0.9674E-04  0.3459E-04  0.3091E-03  0.3023E-01 -0.2328E-01
   -0.337530   10.65916  0.0000E+00  0.8631E-04  0.2189E-04  0.3166E-03  0.2745E-01  0.2435E+00
   -0.375034   10.65980  0.0000E+00  0.7812E-04  0.1432E-04  0.3241E-03  0.2506E-01 -0.8967E-02
   -0.412539   10.66044  0.0000E+00  0.7139E-04  0.9208E-05  0.3324E-03  0.2294E-01 -0.9148E-02
   -0.450044   10.66102  0.0000E+00  0.6582E-04  0.5751E-05  0.3408E-03  0.2106E-01  0.3965E-01
   -0.487549   10.66160  0.0000E+00  0.6110E-04  0.3675E-05  0.3432E-03  0.1930E-01  0.3830E+00
   -0.525055   10.66228  0.0000E+00  0.5638E-04  0.2513E-05  0.3588E-03  0.1722E-01 -0.3462E-01
   -0.562560   10.66283  0.0000E+00  0.5249E-04  0.1808E-05  0.3672E-03  0.1582E-01  0.2559E+02
   -0.600065   10.66336  0.0000E+00  0.4904E-04  0.1345E-05  0.3779E-03  0.1458E-01  0.1107E+01
   -0.637571   10.66386  0.0000E+00  0.4598E-04  0.1033E-05  0.3876E-03  0.1347E-01  0.2090E+02
   -0.675076   10.66434  0.0000E+00  0.4325E-04  0.8182E-06  0.3957E-03  0.1246E-01  0.2834E+01
   -0.712582   10.66481  0.0000E+00  0.4075E-04  0.6634E-06  0.4037E-03  0.1152E-01  0.5398E+00
   -0.750088   10.66527  0.0000E+00  0.3847E-04  0.5476E-06  0.4114E-03  0.1066E-01  0.8816E+02
   -0.787593   10.66573  0.0000E+00  0.3636E-04  0.4589E-06  0.4183E-03  0.9858E-02  0.3188E+01
   -0.825099   10.66618  0.0000E+00  0.3441E-04  0.3899E-06  0.4235E-03  0.9115E-02  0.1003E+03
   -0.862604   10.66662  0.0000E+00  0.3258E-04  0.3357E-06  0.4286E-03  0.8422E-02  0.3602E+01
   -0.900110   10.66706  0.0000E+00  0.3086E-04  0.2929E-06  0.4329E-03  0.7773E-02  0.1978E+01
   -0.937615   10.66750  0.0000E+00  0.2924E-04  0.2587E-06  0.4352E-03  0.7165E-02  0.7393E+02
   -0.975121   10.66794  0.0000E+00  0.2769E-04  0.2307E-06  0.4359E-03  0.6591E-02  0.4753E+01
   -1.012626   10.66839  0.0000E+00  0.2621E-04  0.2074E-06  0.4364E-03  0.6046E-02  0.2497E+01
   -1.050131   10.66883  0.0000E+00  0.2477E-04  0.1876E-06  0.4350E-03  0.5540E-02  0.2901E+01
   -1.087636   10.66928  0.0000E+00  0.2339E-04  0.1708E-06  0.4310E-03  0.5071E-02  0.2680E+01
   -1.125141   10.66973  0.0000E+00  0.2206E-04  0.1566E-06  0.4228E-03  0.4634E-02  0.1886E+03
   -1.162645   10.67019  0.0000E+00  0.2076E-04  0.1446E-06  0.4105E-03  0.4223E-02  0.2191E+01
   -1.200150   10.67068  0.0000E+00  0.1948E-04  0.1348E-06  0.3924E-03  0.3834E-02  0.5541E+01
   -1.237654   10.67119  0.0000E+00  0.1822E-04  0.1274E-06  0.3715E-03  0.3462E-02  0.1794E+02
   -1.275158   10.67173  0.0000E+00  0.1693E-04  0.1227E-06  0.3446E-03  0.3106E-02  0.3625E+02
   -1.312662   10.67233  0.0000E+00  0.1557E-04  0.1216E-06  0.3074E-03  0.2774E-02  0.1154E+03
   -1.350165   10.67300  0.0000E+00  0.1408E-04  0.1271E-06  0.2600E-03  0.2462E-02  0.1063E+03
   -1.387668   10.67382  0.0000E+00  0.1233E-04  0.1463E-06  0.1994E-03  0.2164E-02  0.9560E+03
   -1.425171   10.67492  0.0000E+00  0.1004E-04  0.2042E-06  0.1234E-03  0.1875E-02  0.1286E+04
   -1.462673   10.67678  0.0000E+00  0.5516E-05  0.4744E-06  0.2415E-04  0.1586E-02 -0.2014E+06
   -1.500175   10.69033  0.0000E+00  0.0000E+00  0.0000E+00  0.0000E+00  0.1662E-02  0.0000E+00
