 1 - depth, m
 2 - temperature, C
 3 - salinity, kg/kg
 4 - turbulent kinetic energy, m**2/s**2
 5 - dissipation rate, m**2/s**3
 6 - kinematic heat conductance, m**2/s
 7 - modulus of horizontal velocity, m/s
 8 - Richardson number, n/d
   -0.000000    0.00000  0.0000E+00  0.4096E-13  0.8590E-16  0.1000E-09  0.0000E+00  0.9116E+16
   -0.037493    0.13935  0.0000E+00  0.4096E-13  0.8590E-16  0.1000E-09  0.0000E+00  0.8672E+16
   -0.074986    0.27710  0.0000E+00  0.4096E-13  0.8590E-16  0.1000E-09  0.0000E+00  0.8238E+16
   -0.112480    0.41320  0.0000E+00  0.4096E-13  0.8590E-16  0.1000E-09  0.0000E+00  0.7815E+16
   -0.149974    0.54759  0.0000E+00  0.4096E-13  0.8590E-16  0.1000E-09  0.0000E+00  0.7404E+16
   -0.187468    0.68025  0.0000E+00  0.4096E-13  0.8590E-16  0.1000E-09  0.0000E+00  0.7004E+16
   -0.224963    0.81114  0.0000E+00  0.4096E-13  0.8590E-16  0.1000E-09  0.0000E+00  0.6616E+16
   -0.262458    0.94022  0.0000E+00  0.4096E-13  0.8590E-16  0.1000E-09  0.0000E+00  0.6233E+16
   -0.299953    1.06734  0.0000E+00  0.4096E-13  0.8590E-16  0.1000E-09  0.0000E+00  0.5862E+16
   -0.337448    1.19243  0.0000E+00  0.4096E-13  0.8590E-16  0.1000E-09  0.0000E+00  0.5503E+16
   -0.374944    1.31546  0.0000E+00  0.4096E-13  0.8590E-16  0.1000E-09  0.0000E+00  0.5180E+16
   -0.412439    1.43691  0.0000E+00  0.4096E-13  0.8590E-16  0.1000E-09  0.0000E+00  0.4879E+16
   -0.449935    1.55710  0.0000E+00  0.4096E-13  0.8590E-16  0.1000E-09  0.0000E+00  0.4586E+16
   -0.487431    1.67601  0.0000E+00  0.4096E-13  0.8590E-16  0.1000E-09  0.0000E+00  0.4300E+16
   -0.524927    1.79358  0.0000E+00  0.4096E-13  0.8590E-16  0.1000E-09  0.0000E+00  0.4019E+16
   -0.562424    1.90972  0.0000E+00  0.4096E-13  0.8590E-16  0.1000E-09  0.0000E+00  0.3746E+16
   -0.599920    2.02437  0.0000E+00  0.4096E-13  0.8590E-16  0.1000E-09  0.0000E+00  0.3481E+16
   -0.637416    2.13749  0.0000E+00  0.4096E-13  0.8590E-16  0.1000E-09  0.0000E+00  0.3224E+16
   -0.674913    2.24903  0.0000E+00  0.4096E-13  0.8590E-16  0.1000E-09  0.0000E+00  0.2975E+16
   -0.712409    2.35892  0.0000E+00  0.4096E-13  0.8590E-16  0.1000E-09  0.0000E+00  0.2734E+16
   -0.749906    2.46710  0.0000E+00  0.4096E-13  0.8590E-16  0.1000E-09  0.0000E+00  0.2521E+16
   -0.787403    2.57437  0.0000E+00  0.4096E-13  0.8590E-16  0.1000E-09  0.0000E+00  0.2319E+16
   -0.824899    2.68099  0.0000E+00  0.4096E-13  0.8590E-16  0.1000E-09  0.0000E+00  0.2121E+16
   -0.862396    2.78695  0.0000E+00  0.4096E-13  0.8590E-16  0.1000E-09  0.0000E+00  0.1926E+16
   -0.899892    2.89222  0.0000E+00  0.5521E-13  0.8590E-16  0.1000E-09  0.0000E+00  0.1735E+16
   -0.937388    2.99677  0.0000E+00  0.2322E-12  0.1352E-15  0.1000E-09  0.0000E+00  0.1547E+16
   -0.974885    3.10057  0.0000E+00  0.6719E-12  0.3277E-15  0.1000E-09  0.0000E+00  0.1364E+16
   -1.012381    3.20357  0.0000E+00  0.1754E-11  0.8133E-15  0.1000E-09  0.0000E+00  0.1185E+16
   -1.049877    3.30573  0.0000E+00  0.4448E-11  0.1999E-14  0.1000E-09  0.0000E+00  0.1009E+16
   -1.087373    3.40697  0.0000E+00  0.1111E-10  0.4857E-14  0.1000E-09  0.0000E+00  0.8381E+15
   -1.124868    3.50723  0.0000E+00  0.2747E-10  0.1169E-13  0.1000E-09  0.0000E+00  0.6796E+15
   -1.162364    3.60771  0.0000E+00  0.6724E-10  0.2787E-13  0.1472E-09  0.0000E+00  0.5215E+15
   -1.199859    3.70864  0.0000E+00  0.1630E-09  0.6588E-13  0.5005E-09  0.0000E+00  0.3614E+15
   -1.237354    3.80988  0.0000E+00  0.3915E-09  0.1544E-12  0.2107E-08  0.0000E+00  0.1995E+15
   -1.274849    3.91077  0.0000E+00  0.9327E-09  0.3600E-12  0.2143E-07  0.0000E+00  0.4299E+14
   -1.312344    4.00116  0.0000E+00  0.1895E-08  0.7340E-12  0.1780E-05  0.0000E+00 -0.2302E+13
   -1.349838    4.00899  0.0000E+00  0.2453E-08  0.1081E-11  0.2020E-05  0.0000E+00 -0.2977E+13
   -1.387332    4.01622  0.0000E+00  0.2784E-08  0.1554E-11  0.1739E-05  0.0000E+00 -0.4681E+13
   -1.424826    4.02494  0.0000E+00  0.2798E-08  0.2402E-11  0.1049E-05  0.0000E+00 -0.1059E+14
   -1.462319    4.03965  0.0000E+00  0.2296E-08  0.4746E-11  0.2887E-06  0.0000E+00 -0.5285E+14
   -1.499812    4.08429  0.0000E+00  0.0000E+00  0.0000E+00  0.0000E+00  0.0000E+00  0.0000E+00
