 1 - depth, m
 2 - temperature, C
 3 - salinity, kg/kg
 4 - turbulent kinetic energy, m**2/s**2
 5 - dissipation rate, m**2/s**3
 6 - kinematic heat conductance, m**2/s
 7 - modulus of horizontal velocity, m/s
 8 - Richardson number, n/d
   -0.000000    0.91797  0.0000E+00  0.4162E-03  0.7925E-03  0.9255E-04  0.2466E+00 -0.5262E-02
   -0.037496    0.96585  0.0000E+00  0.2202E-03  0.2359E-03  0.1394E-03  0.8448E-01  0.6046E-01
   -0.074991    0.97915  0.0000E+00  0.1512E-03  0.9033E-04  0.1913E-03  0.5556E-01  0.1509E-01
   -0.112488    0.98623  0.0000E+00  0.1213E-03  0.5345E-04  0.1977E-03  0.4501E-01  0.5889E-02
   -0.149984    0.99012  0.0000E+00  0.1014E-03  0.3289E-04  0.2019E-03  0.3866E-01  0.6572E-02
   -0.187481    0.99278  0.0000E+00  0.8635E-04  0.2021E-04  0.2095E-03  0.3401E-01  0.4254E-02
   -0.224978    0.99492  0.0000E+00  0.7472E-04  0.1239E-04  0.2176E-03  0.3032E-01  0.5965E-02
   -0.262475    0.99681  0.0000E+00  0.6567E-04  0.7505E-05  0.2271E-03  0.2715E-01  0.1147E-01
   -0.299973    0.99853  0.0000E+00  0.5853E-04  0.4512E-05  0.2362E-03  0.2447E-01  0.7180E-02
   -0.337471    1.00016  0.0000E+00  0.5280E-04  0.2789E-05  0.2449E-03  0.2214E-01  0.8848E-02
   -0.374969    1.00173  0.0000E+00  0.4813E-04  0.1830E-05  0.2531E-03  0.2007E-01  0.1096E-01
   -0.412467    1.00325  0.0000E+00  0.4421E-04  0.1257E-05  0.2601E-03  0.1823E-01  0.1363E-01
   -0.449965    1.00472  0.0000E+00  0.4082E-04  0.9146E-06  0.2660E-03  0.1659E-01  0.1686E-01
   -0.487464    1.00614  0.0000E+00  0.3781E-04  0.6947E-06  0.2708E-03  0.1510E-01  0.2202E-01
   -0.524963    1.00751  0.0000E+00  0.3507E-04  0.5459E-06  0.2763E-03  0.1375E-01  0.3423E-01
   -0.562461    1.00883  0.0000E+00  0.3258E-04  0.4411E-06  0.2803E-03  0.1255E-01  0.5564E-01
   -0.599960    1.01012  0.0000E+00  0.3030E-04  0.3640E-06  0.2831E-03  0.1147E-01  0.9803E-01
   -0.637459    1.01139  0.0000E+00  0.2820E-04  0.3052E-06  0.2847E-03  0.1049E-01  0.1959E+00
   -0.674958    1.01264  0.0000E+00  0.2625E-04  0.2591E-06  0.2852E-03  0.9591E-02  0.4391E+00
   -0.712457    1.01388  0.0000E+00  0.2445E-04  0.2219E-06  0.2845E-03  0.8764E-02  0.9583E+00
   -0.749956    1.01513  0.0000E+00  0.2278E-04  0.1914E-06  0.2827E-03  0.8002E-02  0.1876E+01
   -0.787455    1.01638  0.0000E+00  0.2122E-04  0.1661E-06  0.2797E-03  0.7298E-02  0.3275E+01
   -0.824954    1.01765  0.0000E+00  0.1976E-04  0.1447E-06  0.2754E-03  0.6644E-02  0.5313E+01
   -0.862453    1.01895  0.0000E+00  0.1839E-04  0.1266E-06  0.2699E-03  0.6034E-02  0.8350E+01
   -0.899952    1.02028  0.0000E+00  0.1711E-04  0.1111E-06  0.2631E-03  0.5463E-02  0.1300E+02
   -0.937451    1.02166  0.0000E+00  0.1590E-04  0.9768E-07  0.2550E-03  0.4926E-02  0.2019E+02
   -0.974950    1.02311  0.0000E+00  0.1476E-04  0.8606E-07  0.2453E-03  0.4420E-02  0.3245E+02
   -1.012449    1.02465  0.0000E+00  0.1367E-04  0.7589E-07  0.2367E-03  0.3938E-02  0.9600E+02
   -1.049947    1.02628  0.0000E+00  0.1263E-04  0.6699E-07  0.2270E-03  0.3494E-02  0.3306E+03
   -1.087446    1.02800  0.0000E+00  0.1164E-04  0.5920E-07  0.2158E-03  0.3088E-02  0.1094E+04
   -1.124944    1.02986  0.0000E+00  0.1071E-04  0.5240E-07  0.2033E-03  0.2714E-02  0.4485E+04
   -1.162442    1.03189  0.0000E+00  0.9820E-05  0.4649E-07  0.1894E-03  0.2369E-02  0.1966E+05
   -1.199940    1.03417  0.0000E+00  0.8976E-05  0.4138E-07  0.1739E-03  0.2049E-02  0.1060E+06
   -1.237437    1.03681  0.0000E+00  0.8171E-05  0.3700E-07  0.1571E-03  0.1749E-02  0.1051E+07
   -1.274935    1.04005  0.0000E+00  0.7388E-05  0.3327E-07  0.1402E-03  0.1468E-02  0.2063E+08
   -1.312432    1.04381  0.0000E+00  0.6619E-05  0.3024E-07  0.1205E-03  0.1220E-02  0.7799E+09
   -1.349929    1.04862  0.0000E+00  0.5844E-05  0.2805E-07  0.9773E-04  0.1002E-02  0.8562E+12
   -1.387425    1.05568  0.0000E+00  0.5014E-05  0.2707E-07  0.7108E-04  0.8102E-03  0.8012E+09
   -1.424921    1.07235  0.0000E+00  0.3953E-05  0.2875E-07  0.4146E-04  0.6372E-03  0.6370E+08
   -1.462417    1.19989  0.0000E+00  0.1847E-05  0.5420E-07  0.6202E-05  0.4638E-03  0.2512E+06
   -1.499913    1.50064  0.0000E+00  0.0000E+00  0.0000E+00  0.0000E+00  0.4678E-03  0.0000E+00
