 1 - depth, m
 2 - temperature, C
 3 - salinity, kg/kg
 4 - turbulent kinetic energy, m**2/s**2
 5 - dissipation rate, m**2/s**3
 6 - kinematic heat conductance, m**2/s
 7 - modulus of horizontal velocity, m/s
 8 - Richardson number, n/d
   -0.000000    0.00000  0.0000E+00  0.4096E-13  0.8590E-16  0.1000E-09  0.0000E+00  0.8197E+16
   -0.037499    0.12505  0.0000E+00  0.4096E-13  0.8590E-16  0.1000E-09  0.0000E+00  0.7902E+16
   -0.074999    0.24984  0.0000E+00  0.4096E-13  0.8590E-16  0.1000E-09  0.0000E+00  0.7607E+16
   -0.112499    0.37431  0.0000E+00  0.4096E-13  0.8590E-16  0.1000E-09  0.0000E+00  0.7312E+16
   -0.150000    0.49840  0.0000E+00  0.4096E-13  0.8590E-16  0.1000E-09  0.0000E+00  0.7017E+16
   -0.187500    0.62205  0.0000E+00  0.4096E-13  0.8590E-16  0.1000E-09  0.0000E+00  0.6724E+16
   -0.225001    0.74521  0.0000E+00  0.4096E-13  0.8590E-16  0.1000E-09  0.0000E+00  0.6432E+16
   -0.262502    0.86784  0.0000E+00  0.4096E-13  0.8590E-16  0.1000E-09  0.0000E+00  0.6139E+16
   -0.300004    0.98981  0.0000E+00  0.4096E-13  0.8590E-16  0.1000E-09  0.0000E+00  0.5848E+16
   -0.337506    1.11106  0.0000E+00  0.4096E-13  0.8590E-16  0.1000E-09  0.0000E+00  0.5560E+16
   -0.375007    1.23152  0.0000E+00  0.4096E-13  0.8590E-16  0.1000E-09  0.0000E+00  0.5282E+16
   -0.412509    1.35131  0.0000E+00  0.4096E-13  0.8590E-16  0.1000E-09  0.0000E+00  0.5011E+16
   -0.450012    1.47046  0.0000E+00  0.4096E-13  0.8590E-16  0.1000E-09  0.0000E+00  0.4742E+16
   -0.487514    1.58891  0.0000E+00  0.4096E-13  0.8590E-16  0.1000E-09  0.0000E+00  0.4477E+16
   -0.525017    1.70659  0.0000E+00  0.4096E-13  0.8590E-16  0.1000E-09  0.0000E+00  0.4212E+16
   -0.562519    1.82339  0.0000E+00  0.4096E-13  0.8590E-16  0.1000E-09  0.0000E+00  0.3951E+16
   -0.600022    1.93921  0.0000E+00  0.4096E-13  0.8590E-16  0.1000E-09  0.0000E+00  0.3694E+16
   -0.637525    2.05399  0.0000E+00  0.4096E-13  0.8590E-16  0.1000E-09  0.0000E+00  0.3441E+16
   -0.675028    2.16764  0.0000E+00  0.4096E-13  0.8590E-16  0.1000E-09  0.0000E+00  0.3193E+16
   -0.712531    2.28008  0.0000E+00  0.4096E-13  0.8590E-16  0.1000E-09  0.0000E+00  0.2950E+16
   -0.750034    2.39120  0.0000E+00  0.4096E-13  0.8590E-16  0.1000E-09  0.0000E+00  0.2721E+16
   -0.787536    2.50123  0.0000E+00  0.4096E-13  0.8590E-16  0.1000E-09  0.0000E+00  0.2498E+16
   -0.825039    2.61019  0.0000E+00  0.4096E-13  0.8590E-16  0.1000E-09  0.0000E+00  0.2280E+16
   -0.862542    2.71798  0.0000E+00  0.4096E-13  0.8590E-16  0.1000E-09  0.0000E+00  0.2068E+16
   -0.900045    2.82452  0.0000E+00  0.4096E-13  0.8590E-16  0.1000E-09  0.0000E+00  0.1860E+16
   -0.937548    2.92973  0.0000E+00  0.4096E-13  0.8590E-16  0.1000E-09  0.0000E+00  0.1659E+16
   -0.975050    3.03349  0.0000E+00  0.4096E-13  0.8590E-16  0.1000E-09  0.0000E+00  0.1465E+16
   -1.012553    3.13571  0.0000E+00  0.7557E-13  0.8590E-16  0.1000E-09  0.0000E+00  0.1274E+16
   -1.050055    3.23602  0.0000E+00  0.2752E-12  0.1751E-15  0.1000E-09  0.0000E+00  0.1090E+16
   -1.087558    3.33417  0.0000E+00  0.8193E-12  0.4699E-15  0.1000E-09  0.0000E+00  0.9154E+15
   -1.125060    3.42996  0.0000E+00  0.2292E-11  0.1265E-14  0.1000E-09  0.0000E+00  0.7630E+15
   -1.162562    3.52490  0.0000E+00  0.6272E-11  0.3360E-14  0.1000E-09  0.0000E+00  0.6159E+15
   -1.200063    3.61919  0.0000E+00  0.1694E-10  0.8832E-14  0.1000E-09  0.0000E+00  0.4720E+15
   -1.237565    3.71277  0.0000E+00  0.4527E-10  0.2299E-13  0.1891E-09  0.0000E+00  0.3312E+15
   -1.275066    3.80552  0.0000E+00  0.1211E-09  0.5995E-13  0.8331E-09  0.0000E+00  0.1940E+15
   -1.312567    3.89703  0.0000E+00  0.3217E-09  0.1559E-12  0.6389E-08  0.0000E+00  0.6245E+14
   -1.350068    3.98417  0.0000E+00  0.8029E-09  0.3879E-12  0.4479E-06  0.0000E+00 -0.2943E+13
   -1.387568    4.00598  0.0000E+00  0.1297E-08  0.7647E-12  0.8222E-06  0.0000E+00 -0.5399E+13
   -1.425068    4.01911  0.0000E+00  0.1505E-08  0.1267E-11  0.6224E-06  0.0000E+00 -0.1064E+14
   -1.462568    4.03566  0.0000E+00  0.1284E-08  0.2332E-11  0.1869E-06  0.0000E+00 -0.4133E+14
   -1.500067    4.07416  0.0000E+00  0.0000E+00  0.0000E+00  0.0000E+00  0.0000E+00  0.0000E+00
