 1 - depth, m
 2 - temperature, C
 3 - salinity, kg/kg
 4 - turbulent kinetic energy, m**2/s**2
 5 - dissipation rate, m**2/s**3
 6 - kinematic heat conductance, m**2/s
 7 - modulus of horizontal velocity, m/s
 8 - Richardson number, n/d
   -0.000000    0.07269  0.0000E+00  0.5595E-03  0.2743E-02  0.1005E-03  0.3073E+00  0.3196E-02
   -0.037500    0.08422  0.0000E+00  0.3058E-03  0.1298E-02  0.1435E-03  0.1103E+00 -0.1302E-01
   -0.075001    0.09179  0.0000E+00  0.2035E-03  0.4325E-03  0.2008E-03  0.6779E-01  0.2565E-01
   -0.112502    0.09520  0.0000E+00  0.1639E-03  0.2759E-03  0.2214E-03  0.5323E-01 -0.1323E+00
   -0.150004    0.09728  0.0000E+00  0.1381E-03  0.1844E-03  0.2365E-03  0.4499E-01 -0.6802E-02
   -0.187506    0.09888  0.0000E+00  0.1197E-03  0.1250E-03  0.2487E-03  0.3978E-01 -0.9233E-01
   -0.225008    0.10025  0.0000E+00  0.1062E-03  0.8546E-04  0.2593E-03  0.3586E-01  0.5733E-02
   -0.262510    0.10154  0.0000E+00  0.9434E-04  0.5820E-04  0.2700E-03  0.3221E-01  0.1601E-01
   -0.300012    0.10274  0.0000E+00  0.8514E-04  0.3975E-04  0.2805E-03  0.2934E-01  0.1001E-01
   -0.337515    0.10391  0.0000E+00  0.7728E-04  0.2747E-04  0.2905E-03  0.2682E-01  0.1252E-01
   -0.375018    0.10507  0.0000E+00  0.7061E-04  0.1929E-04  0.2978E-03  0.2444E-01  0.1615E-01
   -0.412521    0.10622  0.0000E+00  0.6509E-04  0.1379E-04  0.3048E-03  0.2251E-01 -0.4890E-03
   -0.450025    0.10737  0.0000E+00  0.6027E-04  0.9865E-05  0.3104E-03  0.2078E-01  0.6566E-01
   -0.487528    0.10854  0.0000E+00  0.5629E-04  0.7161E-05  0.3107E-03  0.1918E-01  0.3096E-01
   -0.525032    0.10984  0.0000E+00  0.5190E-04  0.5325E-05  0.3181E-03  0.1721E-01  0.4301E-01
   -0.562536    0.11103  0.0000E+00  0.4833E-04  0.3894E-05  0.3212E-03  0.1591E-01  0.5795E-01
   -0.600039    0.11224  0.0000E+00  0.4515E-04  0.2447E-05  0.3223E-03  0.1473E-01  0.7753E-01
   -0.637543    0.11349  0.0000E+00  0.4225E-04  0.1522E-05  0.3218E-03  0.1364E-01  0.1035E+00
   -0.675047    0.11476  0.0000E+00  0.3962E-04  0.9315E-06  0.3213E-03  0.1263E-01  0.1066E+00
   -0.712551    0.11608  0.0000E+00  0.3724E-04  0.6898E-06  0.3189E-03  0.1170E-01  0.2182E+00
   -0.750055    0.11748  0.0000E+00  0.3507E-04  0.5155E-06  0.3150E-03  0.1084E-01  0.3291E+00
   -0.787559    0.11894  0.0000E+00  0.3314E-04  0.4368E-06  0.2905E-03  0.1006E-01  0.4857E+00
   -0.825063    0.12120  0.0000E+00  0.3090E-04  0.3730E-06  0.3011E-03  0.8577E-02  0.7391E+00
   -0.862567    0.12287  0.0000E+00  0.2898E-04  0.3262E-06  0.2920E-03  0.7910E-02  0.9338E+00
   -0.900071    0.12471  0.0000E+00  0.2718E-04  0.2881E-06  0.2808E-03  0.7284E-02  0.1449E+01
   -0.937575    0.12676  0.0000E+00  0.2547E-04  0.2560E-06  0.2683E-03  0.6687E-02  0.1852E+01
   -0.975079    0.12910  0.0000E+00  0.2383E-04  0.2290E-06  0.2542E-03  0.6119E-02  0.2539E+01
   -1.012582    0.13191  0.0000E+00  0.2226E-04  0.2059E-06  0.2407E-03  0.5570E-02  0.7215E+01
   -1.050086    0.13538  0.0000E+00  0.2074E-04  0.1859E-06  0.2251E-03  0.5061E-02  0.3828E+02
   -1.087589    0.14024  0.0000E+00  0.1926E-04  0.1685E-06  0.2084E-03  0.4588E-02  0.8041E+03
   -1.125092    0.15430  0.0000E+00  0.1780E-04  0.1534E-06  0.1923E-03  0.4131E-02  0.3835E+05
   -1.162595    0.23223  0.0000E+00  0.1637E-04  0.1405E-06  0.1748E-03  0.3682E-02  0.6947E+06
   -1.200098    0.40158  0.0000E+00  0.1499E-04  0.1295E-06  0.1581E-03  0.3263E-02  0.1072E+08
   -1.237600    0.63543  0.0000E+00  0.1364E-04  0.1208E-06  0.1403E-03  0.2869E-02  0.2259E+09
   -1.275103    0.92052  0.0000E+00  0.1225E-04  0.1141E-06  0.1228E-03  0.2481E-02  0.1220E+11
   -1.312605    1.29360  0.0000E+00  0.1082E-04  0.1108E-06  0.1039E-03  0.2122E-02  0.7024E+12
   -1.350107    1.80569  0.0000E+00  0.9389E-05  0.1134E-06  0.8407E-04  0.1811E-02  0.1994E+14
   -1.387608    2.37697  0.0000E+00  0.7873E-05  0.1278E-06  0.6296E-04  0.1547E-02 -0.1996E+13
   -1.425109    2.62384  0.0000E+00  0.6145E-05  0.1748E-06  0.3829E-04  0.1313E-02 -0.8135E+13
   -1.462610    2.70198  0.0000E+00  0.3246E-05  0.4211E-06  0.6782E-05  0.1116E-02 -0.4463E+14
   -1.500110    2.82966  0.0000E+00  0.0000E+00  0.0000E+00  0.0000E+00  0.1162E-02  0.0000E+00
