 1 - depth, m
 2 - temperature, C
 3 - salinity, kg/kg
 4 - turbulent kinetic energy, m**2/s**2
 5 - dissipation rate, m**2/s**3
 6 - kinematic heat conductance, m**2/s
 7 - modulus of horizontal velocity, m/s
 8 - Richardson number, n/d
   -0.000000    0.00000  0.0000E+00  0.4096E-13  0.8590E-16  0.1000E-09  0.0000E+00  0.7470E+16
   -0.037494    0.11380  0.0000E+00  0.4096E-13  0.8590E-16  0.1000E-09  0.0000E+00  0.7224E+16
   -0.074988    0.22734  0.0000E+00  0.4096E-13  0.8590E-16  0.1000E-09  0.0000E+00  0.6976E+16
   -0.112483    0.34057  0.0000E+00  0.4096E-13  0.8590E-16  0.1000E-09  0.0000E+00  0.6729E+16
   -0.149977    0.45344  0.0000E+00  0.4096E-13  0.8590E-16  0.1000E-09  0.0000E+00  0.6481E+16
   -0.187473    0.56588  0.0000E+00  0.4096E-13  0.8590E-16  0.1000E-09  0.0000E+00  0.6235E+16
   -0.224968    0.67788  0.0000E+00  0.4096E-13  0.8590E-16  0.1000E-09  0.0000E+00  0.5990E+16
   -0.262464    0.78938  0.0000E+00  0.4096E-13  0.8590E-16  0.1000E-09  0.0000E+00  0.5744E+16
   -0.299960    0.90029  0.0000E+00  0.4096E-13  0.8590E-16  0.1000E-09  0.0000E+00  0.5500E+16
   -0.337456    1.01057  0.0000E+00  0.4096E-13  0.8590E-16  0.1000E-09  0.0000E+00  0.5258E+16
   -0.374952    1.12017  0.0000E+00  0.4096E-13  0.8590E-16  0.1000E-09  0.0000E+00  0.5025E+16
   -0.412449    1.22919  0.0000E+00  0.4096E-13  0.8590E-16  0.1000E-09  0.0000E+00  0.4799E+16
   -0.449945    1.33769  0.0000E+00  0.4096E-13  0.8590E-16  0.1000E-09  0.0000E+00  0.4575E+16
   -0.487442    1.44562  0.0000E+00  0.4096E-13  0.8590E-16  0.1000E-09  0.0000E+00  0.4352E+16
   -0.524939    1.55293  0.0000E+00  0.4096E-13  0.8590E-16  0.1000E-09  0.0000E+00  0.4130E+16
   -0.562436    1.65953  0.0000E+00  0.4096E-13  0.8590E-16  0.1000E-09  0.0000E+00  0.3910E+16
   -0.599934    1.76536  0.0000E+00  0.4096E-13  0.8590E-16  0.1000E-09  0.0000E+00  0.3693E+16
   -0.637431    1.87035  0.0000E+00  0.4096E-13  0.8590E-16  0.1000E-09  0.0000E+00  0.3479E+16
   -0.674928    1.97445  0.0000E+00  0.4096E-13  0.8590E-16  0.1000E-09  0.0000E+00  0.3268E+16
   -0.712425    2.07759  0.0000E+00  0.4096E-13  0.8590E-16  0.1000E-09  0.0000E+00  0.3061E+16
   -0.749923    2.17969  0.0000E+00  0.4096E-13  0.8590E-16  0.1000E-09  0.0000E+00  0.2867E+16
   -0.787420    2.28102  0.0000E+00  0.4096E-13  0.8590E-16  0.1000E-09  0.0000E+00  0.2678E+16
   -0.824918    2.38162  0.0000E+00  0.4096E-13  0.8590E-16  0.1000E-09  0.0000E+00  0.2492E+16
   -0.862415    2.48144  0.0000E+00  0.4096E-13  0.8590E-16  0.1000E-09  0.0000E+00  0.2310E+16
   -0.899912    2.58042  0.0000E+00  0.4096E-13  0.8590E-16  0.1000E-09  0.0000E+00  0.2130E+16
   -0.937409    2.67851  0.0000E+00  0.4096E-13  0.8590E-16  0.1000E-09  0.0000E+00  0.1955E+16
   -0.974907    2.77564  0.0000E+00  0.4096E-13  0.8590E-16  0.1000E-09  0.0000E+00  0.1783E+16
   -1.012404    2.87175  0.0000E+00  0.4096E-13  0.8590E-16  0.1000E-09  0.0000E+00  0.1614E+16
   -1.049900    2.96666  0.0000E+00  0.4096E-13  0.8590E-16  0.1000E-09  0.0000E+00  0.1448E+16
   -1.087397    3.06023  0.0000E+00  0.4096E-13  0.8590E-16  0.1000E-09  0.0000E+00  0.1288E+16
   -1.124894    3.15235  0.0000E+00  0.4096E-13  0.8590E-16  0.1000E-09  0.0000E+00  0.1146E+16
   -1.162390    3.24399  0.0000E+00  0.4096E-13  0.8590E-16  0.1000E-09  0.0000E+00  0.1007E+16
   -1.199886    3.33530  0.0000E+00  0.4096E-13  0.8590E-16  0.1000E-09  0.0000E+00  0.8712E+15
   -1.237382    3.42626  0.0000E+00  0.4096E-13  0.8590E-16  0.1000E-09  0.0000E+00  0.7369E+15
   -1.274878    3.51691  0.0000E+00  0.7950E-13  0.1066E-15  0.1000E-09  0.0000E+00  0.6055E+15
   -1.312373    3.60743  0.0000E+00  0.3288E-12  0.4002E-15  0.1000E-09  0.0000E+00  0.4753E+15
   -1.349868    3.69790  0.0000E+00  0.1387E-11  0.1653E-14  0.1000E-09  0.0000E+00  0.3460E+15
   -1.387363    3.78838  0.0000E+00  0.5812E-11  0.6872E-14  0.1000E-09  0.0000E+00  0.2172E+15
   -1.424858    3.87904  0.0000E+00  0.2428E-10  0.2893E-13  0.6594E-09  0.0000E+00  0.8807E+14
   -1.462352    3.96973  0.0000E+00  0.9963E-10  0.1261E-12  0.3049E-07  0.0000E+00 -0.2508E+14
   -1.499846    4.04532  0.0000E+00  0.0000E+00  0.0000E+00  0.0000E+00  0.0000E+00  0.0000E+00
