 1 - depth, m
 2 - temperature, C
 3 - salinity, kg/kg
 4 - turbulent kinetic energy, m**2/s**2
 5 - dissipation rate, m**2/s**3
 6 - kinematic heat conductance, m**2/s
 7 - modulus of horizontal velocity, m/s
 8 - Richardson number, n/d
   -0.000000    2.64075  0.0000E+00  0.2887E-03  0.4043E-03  0.6819E-04  0.1697E+00  0.1566E-01
   -0.037497    2.71685  0.0000E+00  0.1511E-03  0.9881E-04  0.1163E-03  0.5951E-01  0.2548E-01
   -0.074994    2.73729  0.0000E+00  0.1050E-03  0.3987E-04  0.1455E-03  0.4083E-01  0.8407E-02
   -0.112492    2.75017  0.0000E+00  0.8305E-04  0.2211E-04  0.1476E-03  0.3320E-01  0.1016E-01
   -0.149990    2.75844  0.0000E+00  0.6862E-04  0.1297E-04  0.1526E-03  0.2847E-01  0.1548E-01
   -0.187488    2.76502  0.0000E+00  0.5814E-04  0.7943E-05  0.1573E-03  0.2501E-01  0.2523E-01
   -0.224987    2.77095  0.0000E+00  0.5032E-04  0.4990E-05  0.1614E-03  0.2219E-01  0.2647E-01
   -0.262485    2.77668  0.0000E+00  0.4415E-04  0.3186E-05  0.1663E-03  0.1973E-01  0.3874E-01
   -0.299984    2.78235  0.0000E+00  0.3918E-04  0.2071E-05  0.1704E-03  0.1766E-01  0.5962E-01
   -0.337484    2.78832  0.0000E+00  0.3512E-04  0.1385E-05  0.1736E-03  0.1587E-01  0.9988E-01
   -0.374983    2.79527  0.0000E+00  0.3172E-04  0.9604E-06  0.1762E-03  0.1428E-01  0.2143E+00
   -0.412483    2.80748  0.0000E+00  0.2885E-04  0.6937E-06  0.1782E-03  0.1286E-01  0.6682E+00
   -0.449983    2.82789  0.0000E+00  0.2639E-04  0.5215E-06  0.1790E-03  0.1159E-01  0.3043E+01
   -0.487483    2.85249  0.0000E+00  0.2422E-04  0.4057E-06  0.1790E-03  0.1044E-01  0.2287E+02
   -0.524983    2.87812  0.0000E+00  0.2225E-04  0.3240E-06  0.1799E-03  0.9390E-02  0.2574E+03
   -0.562483    2.90308  0.0000E+00  0.2049E-04  0.2647E-06  0.1797E-03  0.8471E-02  0.3376E+04
   -0.599983    2.92761  0.0000E+00  0.1889E-04  0.2198E-06  0.1787E-03  0.7650E-02  0.4651E+05
   -0.637484    2.95371  0.0000E+00  0.1743E-04  0.1848E-06  0.1773E-03  0.6905E-02  0.6435E+06
   -0.674984    2.99426  0.0000E+00  0.1609E-04  0.1568E-06  0.1759E-03  0.6212E-02  0.8917E+07
   -0.712485    3.08250  0.0000E+00  0.1488E-04  0.1341E-06  0.1746E-03  0.5564E-02  0.1856E+09
   -0.749985    3.16154  0.0000E+00  0.1379E-04  0.1154E-06  0.1801E-03  0.5004E-02  0.1231E+11
   -0.787486    3.23253  0.0000E+00  0.1278E-04  0.9977E-07  0.1860E-03  0.4505E-02  0.6302E+12
   -0.824986    3.30101  0.0000E+00  0.1186E-04  0.8666E-07  0.1921E-03  0.4050E-02  0.8611E+13
   -0.862487    3.35369  0.0000E+00  0.1100E-04  0.7556E-07  0.1977E-03  0.3635E-02  0.1355E+12
   -0.899987    3.37269  0.0000E+00  0.1021E-04  0.6612E-07  0.1961E-03  0.3259E-02 -0.1691E+12
   -0.937487    3.38895  0.0000E+00  0.9473E-05  0.5804E-07  0.1930E-03  0.2913E-02 -0.1975E+12
   -0.974988    3.40612  0.0000E+00  0.8789E-05  0.5109E-07  0.1893E-03  0.2592E-02 -0.2176E+12
   -1.012488    3.42255  0.0000E+00  0.8146E-05  0.4506E-07  0.1859E-03  0.2292E-02 -0.2629E+12
   -1.049988    3.43533  0.0000E+00  0.7543E-05  0.3983E-07  0.1818E-03  0.2024E-02 -0.2966E+12
   -1.087488    3.44575  0.0000E+00  0.6976E-05  0.3531E-07  0.1766E-03  0.1782E-02 -0.3431E+12
   -1.124987    3.45657  0.0000E+00  0.6441E-05  0.3140E-07  0.1705E-03  0.1562E-02 -0.3859E+12
   -1.162487    3.47008  0.0000E+00  0.5939E-05  0.2804E-07  0.1633E-03  0.1361E-02 -0.4455E+12
   -1.199986    3.48698  0.0000E+00  0.5469E-05  0.2520E-07  0.1549E-03  0.1177E-02 -0.5099E+12
   -1.237485    3.50254  0.0000E+00  0.5029E-05  0.2285E-07  0.1452E-03  0.1011E-02 -0.5922E+12
   -1.274984    3.51221  0.0000E+00  0.4604E-05  0.2097E-07  0.1346E-03  0.8602E-03 -0.6832E+12
   -1.312482    3.52013  0.0000E+00  0.4184E-05  0.1957E-07  0.1211E-03  0.7275E-03 -0.7822E+12
   -1.349981    3.52797  0.0000E+00  0.3757E-05  0.1881E-07  0.1041E-03  0.6105E-03 -0.8989E+12
   -1.387479    3.53625  0.0000E+00  0.3299E-05  0.1913E-07  0.8215E-04  0.5075E-03 -0.1250E+13
   -1.424976    3.54573  0.0000E+00  0.2745E-05  0.2212E-07  0.4759E-04  0.4174E-03 -0.3181E+13
   -1.462474    3.56115  0.0000E+00  0.1433E-05  0.4668E-07  0.6766E-05  0.3414E-03 -0.4466E+14
   -1.499970    3.64561  0.0000E+00  0.0000E+00  0.0000E+00  0.0000E+00  0.3434E-03  0.0000E+00
