 1 - depth, m
 2 - temperature, C
 3 - salinity, kg/kg
 4 - turbulent kinetic energy, m**2/s**2
 5 - dissipation rate, m**2/s**3
 6 - kinematic heat conductance, m**2/s
 7 - modulus of horizontal velocity, m/s
 8 - Richardson number, n/d
   -0.000000    0.00000  0.0000E+00  0.4096E-13  0.8590E-16  0.1000E-09  0.0000E+00  0.8692E+16
   -0.037502    0.13275  0.0000E+00  0.4096E-13  0.8590E-16  0.1000E-09  0.0000E+00  0.8392E+16
   -0.075004    0.26572  0.0000E+00  0.4096E-13  0.8590E-16  0.1000E-09  0.0000E+00  0.8088E+16
   -0.112506    0.39884  0.0000E+00  0.4096E-13  0.8590E-16  0.1000E-09  0.0000E+00  0.7778E+16
   -0.150009    0.53200  0.0000E+00  0.4096E-13  0.8590E-16  0.1000E-09  0.0000E+00  0.7463E+16
   -0.187512    0.66508  0.0000E+00  0.4096E-13  0.8590E-16  0.1000E-09  0.0000E+00  0.7143E+16
   -0.225015    0.79796  0.0000E+00  0.4096E-13  0.8590E-16  0.1000E-09  0.0000E+00  0.6819E+16
   -0.262519    0.93049  0.0000E+00  0.4096E-13  0.8590E-16  0.1000E-09  0.0000E+00  0.6488E+16
   -0.300023    1.06247  0.0000E+00  0.4096E-13  0.8590E-16  0.1000E-09  0.0000E+00  0.6155E+16
   -0.337527    1.19372  0.0000E+00  0.4096E-13  0.8590E-16  0.1000E-09  0.0000E+00  0.5822E+16
   -0.375031    1.32411  0.0000E+00  0.4096E-13  0.8590E-16  0.1000E-09  0.0000E+00  0.5499E+16
   -0.412535    1.45370  0.0000E+00  0.4096E-13  0.8590E-16  0.1000E-09  0.0000E+00  0.5182E+16
   -0.450040    1.58250  0.0000E+00  0.4096E-13  0.8590E-16  0.1000E-09  0.0000E+00  0.4868E+16
   -0.487545    1.71040  0.0000E+00  0.4096E-13  0.8590E-16  0.1000E-09  0.0000E+00  0.4557E+16
   -0.525050    1.83727  0.0000E+00  0.4096E-13  0.8590E-16  0.1000E-09  0.0000E+00  0.4246E+16
   -0.562555    1.96293  0.0000E+00  0.4096E-13  0.8590E-16  0.1000E-09  0.0000E+00  0.3942E+16
   -0.600060    2.08726  0.0000E+00  0.4096E-13  0.8590E-16  0.1000E-09  0.0000E+00  0.3643E+16
   -0.637565    2.21015  0.0000E+00  0.4096E-13  0.8590E-16  0.1000E-09  0.0000E+00  0.3352E+16
   -0.675070    2.33150  0.0000E+00  0.4096E-13  0.8590E-16  0.1000E-09  0.0000E+00  0.3067E+16
   -0.712575    2.45118  0.0000E+00  0.4096E-13  0.8590E-16  0.1000E-09  0.0000E+00  0.2791E+16
   -0.750081    2.56908  0.0000E+00  0.4096E-13  0.8590E-16  0.1000E-09  0.0000E+00  0.2533E+16
   -0.787586    2.68553  0.0000E+00  0.4156E-13  0.8590E-16  0.1000E-09  0.0000E+00  0.2285E+16
   -0.825091    2.80056  0.0000E+00  0.2005E-12  0.1001E-15  0.1000E-09  0.0000E+00  0.2044E+16
   -0.862596    2.91408  0.0000E+00  0.5548E-12  0.2062E-15  0.1000E-09  0.0000E+00  0.1810E+16
   -0.900102    3.02598  0.0000E+00  0.1313E-11  0.4519E-15  0.1000E-09  0.0000E+00  0.1585E+16
   -0.937607    3.13612  0.0000E+00  0.2956E-11  0.9825E-15  0.1000E-09  0.0000E+00  0.1367E+16
   -0.975112    3.24438  0.0000E+00  0.6526E-11  0.2112E-14  0.1000E-09  0.0000E+00  0.1159E+16
   -1.012616    3.35062  0.0000E+00  0.1428E-10  0.4510E-14  0.1000E-09  0.0000E+00  0.9574E+15
   -1.050121    3.45434  0.0000E+00  0.3108E-10  0.9584E-14  0.1000E-09  0.0000E+00  0.7669E+15
   -1.087626    3.55523  0.0000E+00  0.6718E-10  0.2024E-13  0.1000E-09  0.0000E+00  0.5891E+15
   -1.125130    3.65302  0.0000E+00  0.1442E-09  0.4245E-13  0.2706E-09  0.0000E+00  0.4336E+15
   -1.162635    3.74971  0.0000E+00  0.3074E-09  0.8847E-13  0.8600E-09  0.0000E+00  0.2837E+15
   -1.200139    3.84536  0.0000E+00  0.6499E-09  0.1830E-12  0.3638E-08  0.0000E+00  0.1380E+15
   -1.237642    3.93858  0.0000E+00  0.1333E-08  0.3690E-12  0.6138E-07  0.0000E+00  0.1522E+14
   -1.275146    4.00492  0.0000E+00  0.2209E-08  0.6189E-12  0.3266E-05  0.0000E+00 -0.1273E+13
   -1.312649    4.00887  0.0000E+00  0.2639E-08  0.7974E-12  0.3434E-05  0.0000E+00 -0.1452E+13
   -1.350152    4.01266  0.0000E+00  0.2890E-08  0.1004E-11  0.3108E-05  0.0000E+00 -0.1874E+13
   -1.387655    4.01686  0.0000E+00  0.2936E-08  0.1296E-11  0.2321E-05  0.0000E+00 -0.2931E+13
   -1.425157    4.02247  0.0000E+00  0.2671E-08  0.1853E-11  0.1200E-05  0.0000E+00 -0.6782E+13
   -1.462659    4.03294  0.0000E+00  0.1915E-08  0.3516E-11  0.2455E-06  0.0000E+00 -0.3800E+14
   -1.500161    4.07016  0.0000E+00  0.0000E+00  0.0000E+00  0.0000E+00  0.0000E+00  0.0000E+00
