 1 - depth, m
 2 - temperature, C
 3 - salinity, kg/kg
 4 - turbulent kinetic energy, m**2/s**2
 5 - dissipation rate, m**2/s**3
 6 - kinematic heat conductance, m**2/s
 7 - modulus of horizontal velocity, m/s
 8 - Richardson number, n/d
   -0.000000    0.00000  0.0000E+00  0.4096E-13  0.8590E-16  0.1000E-09  0.0000E+00  0.9912E+16
   -0.037500    0.15177  0.0000E+00  0.4096E-13  0.8590E-16  0.1000E-09  0.0000E+00  0.9393E+16
   -0.075000    0.30176  0.0000E+00  0.4096E-13  0.8590E-16  0.1000E-09  0.0000E+00  0.8890E+16
   -0.112501    0.44995  0.0000E+00  0.4096E-13  0.8590E-16  0.1000E-09  0.0000E+00  0.8402E+16
   -0.150002    0.59633  0.0000E+00  0.4096E-13  0.8590E-16  0.1000E-09  0.0000E+00  0.7929E+16
   -0.187503    0.74089  0.0000E+00  0.4096E-13  0.8590E-16  0.1000E-09  0.0000E+00  0.7471E+16
   -0.225005    0.88360  0.0000E+00  0.4096E-13  0.8590E-16  0.1000E-09  0.0000E+00  0.7027E+16
   -0.262507    1.02444  0.0000E+00  0.4096E-13  0.8590E-16  0.1000E-09  0.0000E+00  0.6592E+16
   -0.300009    1.16327  0.0000E+00  0.4096E-13  0.8590E-16  0.1000E-09  0.0000E+00  0.6170E+16
   -0.337511    1.30001  0.0000E+00  0.4096E-13  0.8590E-16  0.1000E-09  0.0000E+00  0.5762E+16
   -0.375014    1.43463  0.0000E+00  0.4096E-13  0.8590E-16  0.1000E-09  0.0000E+00  0.5391E+16
   -0.412516    1.56769  0.0000E+00  0.4096E-13  0.8590E-16  0.1000E-09  0.0000E+00  0.5046E+16
   -0.450019    1.69950  0.0000E+00  0.4096E-13  0.8590E-16  0.1000E-09  0.0000E+00  0.4709E+16
   -0.487522    1.83007  0.0000E+00  0.4096E-13  0.8590E-16  0.1000E-09  0.0000E+00  0.4380E+16
   -0.525025    1.95934  0.0000E+00  0.4096E-13  0.8590E-16  0.1000E-09  0.0000E+00  0.4058E+16
   -0.562529    2.08721  0.0000E+00  0.4096E-13  0.8590E-16  0.1000E-09  0.0000E+00  0.3744E+16
   -0.600032    2.21363  0.0000E+00  0.4096E-13  0.8590E-16  0.1000E-09  0.0000E+00  0.3440E+16
   -0.637536    2.33856  0.0000E+00  0.1079E-12  0.8590E-16  0.1000E-09  0.0000E+00  0.3144E+16
   -0.675039    2.46194  0.0000E+00  0.3353E-12  0.1120E-15  0.1000E-09  0.0000E+00  0.2858E+16
   -0.712543    2.58371  0.0000E+00  0.7799E-12  0.2060E-15  0.1000E-09  0.0000E+00  0.2580E+16
   -0.750046    2.70379  0.0000E+00  0.1625E-11  0.3989E-15  0.1000E-09  0.0000E+00  0.2329E+16
   -0.787550    2.82301  0.0000E+00  0.3243E-11  0.7698E-15  0.1000E-09  0.0000E+00  0.2088E+16
   -0.825053    2.94165  0.0000E+00  0.6355E-11  0.1473E-14  0.1000E-09  0.0000E+00  0.1851E+16
   -0.862557    3.05966  0.0000E+00  0.1233E-10  0.2798E-14  0.1000E-09  0.0000E+00  0.1618E+16
   -0.900060    3.17701  0.0000E+00  0.2373E-10  0.5280E-14  0.1000E-09  0.0000E+00  0.1388E+16
   -0.937564    3.29363  0.0000E+00  0.4540E-10  0.9908E-14  0.1000E-09  0.0000E+00  0.1164E+16
   -0.975067    3.40950  0.0000E+00  0.8636E-10  0.1850E-13  0.1000E-09  0.0000E+00  0.9438E+15
   -1.012570    3.52457  0.0000E+00  0.1637E-09  0.3442E-13  0.1310E-09  0.0000E+00  0.7289E+15
   -1.050073    3.63883  0.0000E+00  0.3100E-09  0.6400E-13  0.3421E-09  0.0000E+00  0.5183E+15
   -1.087576    3.75207  0.0000E+00  0.5848E-09  0.1186E-12  0.1049E-08  0.0000E+00  0.3124E+15
   -1.125079    3.86352  0.0000E+00  0.1097E-08  0.2189E-12  0.5221E-08  0.0000E+00  0.1153E+15
   -1.162581    3.97008  0.0000E+00  0.1845E-08  0.3673E-12  0.8389E-06  0.0000E+00  0.2210E+13
   -1.200083    3.99651  0.0000E+00  0.2508E-08  0.5204E-12  0.4222E-05  0.0000E+00 -0.6405E+12
   -1.237586    4.00008  0.0000E+00  0.2939E-08  0.6510E-12  0.4813E-05  0.0000E+00 -0.7473E+12
   -1.275087    4.00325  0.0000E+00  0.3287E-08  0.8004E-12  0.4924E-05  0.0000E+00 -0.9080E+12
   -1.312589    4.00642  0.0000E+00  0.3549E-08  0.9865E-12  0.4600E-05  0.0000E+00 -0.1179E+13
   -1.350090    4.00990  0.0000E+00  0.3701E-08  0.1243E-11  0.3859E-05  0.0000E+00 -0.1699E+13
   -1.387591    4.01414  0.0000E+00  0.3685E-08  0.1653E-11  0.2736E-05  0.0000E+00 -0.2954E+13
   -1.425092    4.02027  0.0000E+00  0.3366E-08  0.2487E-11  0.1383E-05  0.0000E+00 -0.7591E+13
   -1.462592    4.03240  0.0000E+00  0.2515E-08  0.5041E-11  0.3064E-06  0.0000E+00 -0.4700E+14
   -1.500092    4.07648  0.0000E+00  0.0000E+00  0.0000E+00  0.0000E+00  0.0000E+00  0.0000E+00
