 1 - depth, m
 2 - temperature, C
 3 - salinity, kg/kg
 4 - turbulent kinetic energy, m**2/s**2
 5 - dissipation rate, m**2/s**3
 6 - kinematic heat conductance, m**2/s
 7 - modulus of horizontal velocity, m/s
 8 - Richardson number, n/d
   -0.000000    0.00000  0.0000E+00  0.4096E-13  0.8590E-16  0.1000E-09  0.0000E+00  0.8593E+16
   -0.037496    0.13122  0.0000E+00  0.4096E-13  0.8590E-16  0.1000E-09  0.0000E+00  0.8283E+16
   -0.074993    0.26237  0.0000E+00  0.4096E-13  0.8590E-16  0.1000E-09  0.0000E+00  0.7971E+16
   -0.112490    0.39340  0.0000E+00  0.4096E-13  0.8590E-16  0.1000E-09  0.0000E+00  0.7658E+16
   -0.149987    0.52424  0.0000E+00  0.4096E-13  0.8590E-16  0.1000E-09  0.0000E+00  0.7343E+16
   -0.187485    0.65481  0.0000E+00  0.4096E-13  0.8590E-16  0.1000E-09  0.0000E+00  0.7027E+16
   -0.224982    0.78504  0.0000E+00  0.4096E-13  0.8590E-16  0.1000E-09  0.0000E+00  0.6711E+16
   -0.262480    0.91485  0.0000E+00  0.4096E-13  0.8590E-16  0.1000E-09  0.0000E+00  0.6391E+16
   -0.299979    1.04408  0.0000E+00  0.4096E-13  0.8590E-16  0.1000E-09  0.0000E+00  0.6072E+16
   -0.337477    1.17263  0.0000E+00  0.4096E-13  0.8590E-16  0.1000E-09  0.0000E+00  0.5754E+16
   -0.374976    1.30040  0.0000E+00  0.4096E-13  0.8590E-16  0.1000E-09  0.0000E+00  0.5446E+16
   -0.412475    1.42747  0.0000E+00  0.4096E-13  0.8590E-16  0.1000E-09  0.0000E+00  0.5144E+16
   -0.449974    1.55385  0.0000E+00  0.4096E-13  0.8590E-16  0.1000E-09  0.0000E+00  0.4844E+16
   -0.487473    1.67946  0.0000E+00  0.4096E-13  0.8590E-16  0.1000E-09  0.0000E+00  0.4547E+16
   -0.524973    1.80419  0.0000E+00  0.4096E-13  0.8590E-16  0.1000E-09  0.0000E+00  0.4250E+16
   -0.562472    1.92785  0.0000E+00  0.4096E-13  0.8590E-16  0.1000E-09  0.0000E+00  0.3957E+16
   -0.599972    2.05034  0.0000E+00  0.4096E-13  0.8590E-16  0.1000E-09  0.0000E+00  0.3669E+16
   -0.637472    2.17153  0.0000E+00  0.4096E-13  0.8590E-16  0.1000E-09  0.0000E+00  0.3387E+16
   -0.674971    2.29133  0.0000E+00  0.4096E-13  0.8590E-16  0.1000E-09  0.0000E+00  0.3111E+16
   -0.712471    2.40961  0.0000E+00  0.4096E-13  0.8590E-16  0.1000E-09  0.0000E+00  0.2843E+16
   -0.749971    2.52626  0.0000E+00  0.4096E-13  0.8590E-16  0.1000E-09  0.0000E+00  0.2590E+16
   -0.787471    2.64156  0.0000E+00  0.4096E-13  0.8590E-16  0.1000E-09  0.0000E+00  0.2348E+16
   -0.824971    2.75558  0.0000E+00  0.4810E-13  0.8590E-16  0.1000E-09  0.0000E+00  0.2111E+16
   -0.862470    2.86820  0.0000E+00  0.2036E-12  0.1005E-15  0.1000E-09  0.0000E+00  0.1881E+16
   -0.899970    2.97934  0.0000E+00  0.5539E-12  0.2056E-15  0.1000E-09  0.0000E+00  0.1659E+16
   -0.937470    3.08889  0.0000E+00  0.1304E-11  0.4491E-15  0.1000E-09  0.0000E+00  0.1444E+16
   -0.974969    3.19674  0.0000E+00  0.2929E-11  0.9738E-15  0.1000E-09  0.0000E+00  0.1238E+16
   -1.012468    3.30278  0.0000E+00  0.6466E-11  0.2094E-14  0.1000E-09  0.0000E+00  0.1037E+16
   -1.049968    3.40657  0.0000E+00  0.1417E-10  0.4476E-14  0.1000E-09  0.0000E+00  0.8463E+15
   -1.087467    3.50783  0.0000E+00  0.3081E-10  0.9505E-14  0.1000E-09  0.0000E+00  0.6667E+15
   -1.124966    3.60630  0.0000E+00  0.6652E-10  0.2005E-13  0.1108E-09  0.0000E+00  0.5091E+15
   -1.162465    3.70392  0.0000E+00  0.1426E-09  0.4201E-13  0.3258E-09  0.0000E+00  0.3564E+15
   -1.199963    3.80081  0.0000E+00  0.3037E-09  0.8747E-13  0.1166E-08  0.0000E+00  0.2068E+15
   -1.237461    3.89649  0.0000E+00  0.6401E-09  0.1806E-12  0.7786E-08  0.0000E+00  0.6326E+14
   -1.274960    3.98725  0.0000E+00  0.1211E-08  0.3395E-12  0.1173E-05  0.0000E+00 -0.9808E+12
   -1.312457    3.99787  0.0000E+00  0.1678E-08  0.5231E-12  0.1950E-05  0.0000E+00 -0.1489E+13
   -1.349955    4.00431  0.0000E+00  0.2012E-08  0.7373E-12  0.2017E-05  0.0000E+00 -0.2070E+13
   -1.387452    4.01057  0.0000E+00  0.2183E-08  0.1030E-11  0.1633E-05  0.0000E+00 -0.3368E+13
   -1.424949    4.01823  0.0000E+00  0.2098E-08  0.1543E-11  0.9194E-06  0.0000E+00 -0.7785E+13
   -1.462446    4.03118  0.0000E+00  0.1607E-08  0.2921E-11  0.2187E-06  0.0000E+00 -0.3913E+14
   -1.499942    4.07006  0.0000E+00  0.0000E+00  0.0000E+00  0.0000E+00  0.0000E+00  0.0000E+00
