 1 - depth, m
 2 - temperature, C
 3 - salinity, kg/kg
 4 - turbulent kinetic energy, m**2/s**2
 5 - dissipation rate, m**2/s**3
 6 - kinematic heat conductance, m**2/s
 7 - modulus of horizontal velocity, m/s
 8 - Richardson number, n/d
   -0.000000    0.00000  0.0000E+00  0.4096E-13  0.8590E-16  0.1000E-09  0.0000E+00  0.1028E+17
   -0.037496    0.15759  0.0000E+00  0.4096E-13  0.8590E-16  0.1000E-09  0.0000E+00  0.9746E+16
   -0.074992    0.31361  0.0000E+00  0.4096E-13  0.8590E-16  0.1000E-09  0.0000E+00  0.9220E+16
   -0.112488    0.46799  0.0000E+00  0.4096E-13  0.8590E-16  0.1000E-09  0.0000E+00  0.8706E+16
   -0.149985    0.62065  0.0000E+00  0.4096E-13  0.8590E-16  0.1000E-09  0.0000E+00  0.8204E+16
   -0.187482    0.77152  0.0000E+00  0.4096E-13  0.8590E-16  0.1000E-09  0.0000E+00  0.7714E+16
   -0.224979    0.92054  0.0000E+00  0.4096E-13  0.8590E-16  0.1000E-09  0.0000E+00  0.7237E+16
   -0.262476    1.06763  0.0000E+00  0.4096E-13  0.8590E-16  0.1000E-09  0.0000E+00  0.6770E+16
   -0.299974    1.21265  0.0000E+00  0.4096E-13  0.8590E-16  0.1000E-09  0.0000E+00  0.6317E+16
   -0.337472    1.35550  0.0000E+00  0.4096E-13  0.8590E-16  0.1000E-09  0.0000E+00  0.5878E+16
   -0.374970    1.49612  0.0000E+00  0.4096E-13  0.8590E-16  0.1000E-09  0.0000E+00  0.5474E+16
   -0.412469    1.63496  0.0000E+00  0.4096E-13  0.8590E-16  0.1000E-09  0.0000E+00  0.5094E+16
   -0.449967    1.77229  0.0000E+00  0.4096E-13  0.8590E-16  0.1000E-09  0.0000E+00  0.4725E+16
   -0.487466    1.90806  0.0000E+00  0.4096E-13  0.8590E-16  0.1000E-09  0.0000E+00  0.4366E+16
   -0.524965    2.04224  0.0000E+00  0.4096E-13  0.8590E-16  0.1000E-09  0.0000E+00  0.4016E+16
   -0.562464    2.17472  0.0000E+00  0.5757E-13  0.8590E-16  0.1000E-09  0.0000E+00  0.3678E+16
   -0.599963    2.30545  0.0000E+00  0.2335E-12  0.9102E-16  0.1000E-09  0.0000E+00  0.3350E+16
   -0.637462    2.43438  0.0000E+00  0.5877E-12  0.1573E-15  0.1000E-09  0.0000E+00  0.3033E+16
   -0.674961    2.56142  0.0000E+00  0.1252E-11  0.3003E-15  0.1000E-09  0.0000E+00  0.2728E+16
   -0.712460    2.68652  0.0000E+00  0.2508E-11  0.5759E-15  0.1000E-09  0.0000E+00  0.2435E+16
   -0.749959    2.80958  0.0000E+00  0.4900E-11  0.1095E-14  0.1000E-09  0.0000E+00  0.2164E+16
   -0.787459    2.93119  0.0000E+00  0.9456E-11  0.2067E-14  0.1000E-09  0.0000E+00  0.1905E+16
   -0.824958    3.05149  0.0000E+00  0.1810E-10  0.3877E-14  0.1000E-09  0.0000E+00  0.1654E+16
   -0.862457    3.17042  0.0000E+00  0.3444E-10  0.7227E-14  0.1000E-09  0.0000E+00  0.1410E+16
   -0.899956    3.28786  0.0000E+00  0.6514E-10  0.1340E-13  0.1000E-09  0.0000E+00  0.1174E+16
   -0.937455    3.40371  0.0000E+00  0.1225E-09  0.2470E-13  0.1000E-09  0.0000E+00  0.9469E+15
   -0.974954    3.51777  0.0000E+00  0.2292E-09  0.4531E-13  0.1724E-09  0.0000E+00  0.7287E+15
   -1.012453    3.62979  0.0000E+00  0.4271E-09  0.8282E-13  0.4410E-09  0.0000E+00  0.5205E+15
   -1.049951    3.73939  0.0000E+00  0.7942E-09  0.1511E-12  0.1288E-08  0.0000E+00  0.3246E+15
   -1.087450    3.84611  0.0000E+00  0.1468E-08  0.2741E-12  0.5300E-08  0.0000E+00  0.1427E+15
   -1.124948    3.94815  0.0000E+00  0.2577E-08  0.4751E-12  0.1333E-06  0.0000E+00  0.9310E+13
   -1.162447    4.00290  0.0000E+00  0.3400E-08  0.6332E-12  0.7309E-05  0.0000E+00 -0.5544E+12
   -1.199945    4.00491  0.0000E+00  0.3808E-08  0.7334E-12  0.7732E-05  0.0000E+00 -0.5881E+12
   -1.237442    4.00683  0.0000E+00  0.4119E-08  0.8390E-12  0.7734E-05  0.0000E+00 -0.6516E+12
   -1.274940    4.00876  0.0000E+00  0.4342E-08  0.9609E-12  0.7330E-05  0.0000E+00 -0.7612E+12
   -1.312437    4.01083  0.0000E+00  0.4469E-08  0.1115E-11  0.6492E-05  0.0000E+00 -0.9543E+12
   -1.349934    4.01320  0.0000E+00  0.4473E-08  0.1334E-11  0.5215E-05  0.0000E+00 -0.1333E+13
   -1.387431    4.01620  0.0000E+00  0.4288E-08  0.1694E-11  0.3534E-05  0.0000E+00 -0.2259E+13
   -1.424927    4.02069  0.0000E+00  0.3753E-08  0.2466E-11  0.1663E-05  0.0000E+00 -0.5818E+13
   -1.462423    4.03018  0.0000E+00  0.2596E-08  0.4999E-11  0.3070E-06  0.0000E+00 -0.4041E+14
   -1.499919    4.07050  0.0000E+00  0.0000E+00  0.0000E+00  0.0000E+00  0.0000E+00  0.0000E+00
