 1 - depth, m
 2 - temperature, C
 3 - salinity, kg/kg
 4 - turbulent kinetic energy, m**2/s**2
 5 - dissipation rate, m**2/s**3
 6 - kinematic heat conductance, m**2/s
 7 - modulus of horizontal velocity, m/s
 8 - Richardson number, n/d
   -0.000000    0.00000  0.0000E+00  0.1433E-12  0.1609E-15  0.1000E-09  0.0000E+00  0.3168E+17
   -0.037494    0.51134  0.0000E+00  0.3515E-12  0.2983E-15  0.1000E-09  0.0000E+00  0.1940E+17
   -0.074989    0.87150  0.0000E+00  0.1111E-11  0.8067E-15  0.1000E-09  0.0000E+00  0.1195E+17
   -0.112484    1.12019  0.0000E+00  0.3648E-11  0.2463E-14  0.1000E-09  0.0000E+00  0.7560E+16
   -0.149980    1.29193  0.0000E+00  0.1188E-10  0.7686E-14  0.1000E-09  0.0000E+00  0.5075E+16
   -0.187475    1.41457  0.0000E+00  0.3800E-10  0.2377E-13  0.1053E-09  0.0000E+00  0.3768E+16
   -0.224971    1.50910  0.0000E+00  0.1190E-09  0.7220E-13  0.1487E-09  0.0000E+00  0.3181E+16
   -0.262468    1.59058  0.0000E+00  0.3641E-09  0.2146E-12  0.3530E-09  0.0000E+00  0.2700E+16
   -0.299964    1.66075  0.0000E+00  0.1085E-08  0.6214E-12  0.1146E-08  0.0000E+00  0.2406E+16
   -0.337461    1.72408  0.0000E+00  0.3109E-08  0.1735E-11  0.3365E-08  0.0000E+00  0.2258E+16
   -0.374958    1.78450  0.0000E+00  0.8572E-08  0.4668E-11  0.4974E-08  0.0000E+00  0.2488E+16
   -0.412455    1.85576  0.0000E+00  0.2339E-07  0.1242E-10  0.6067E-08  0.0000E+00  0.3174E+16
   -0.449952    1.96581  0.0000E+00  0.5918E-07  0.3089E-10  0.2867E-07  0.0000E+00  0.3568E+16
   -0.487450    2.13892  0.0000E+00  0.9459E-07  0.4960E-10  0.2334E-04  0.0000E+00  0.3566E+16
   -0.524947    2.31531  0.0000E+00  0.1287E-06  0.6804E-10  0.4545E-04  0.0000E+00  0.3284E+16
   -0.562445    2.48551  0.0000E+00  0.1611E-06  0.8600E-10  0.6618E-04  0.0000E+00  0.3011E+16
   -0.599943    2.64928  0.0000E+00  0.1919E-06  0.1036E-09  0.8577E-04  0.0000E+00  0.2752E+16
   -0.637440    2.80571  0.0000E+00  0.2210E-06  0.1207E-09  0.1036E-03  0.0000E+00  0.2505E+16
   -0.674938    2.95503  0.0000E+00  0.2487E-06  0.1377E-09  0.1197E-03  0.0000E+00  0.2253E+16
   -0.712436    3.09723  0.0000E+00  0.2753E-06  0.1547E-09  0.1346E-03  0.0000E+00  0.1980E+16
   -0.749934    3.22985  0.0000E+00  0.3011E-06  0.1720E-09  0.1479E-03  0.0000E+00  0.1937E+16
   -0.787432    3.36373  0.0000E+00  0.3259E-06  0.1897E-09  0.1601E-03  0.0000E+00  0.1858E+16
   -0.824930    3.49730  0.0000E+00  0.3492E-06  0.2073E-09  0.1711E-03  0.0000E+00  0.1689E+16
   -0.862428    3.62602  0.0000E+00  0.3706E-06  0.2247E-09  0.1808E-03  0.0000E+00  0.1480E+16
   -0.899926    3.74717  0.0000E+00  0.3899E-06  0.2418E-09  0.1886E-03  0.0000E+00  0.1256E+16
   -0.937424    3.85870  0.0000E+00  0.4070E-06  0.2587E-09  0.1947E-03  0.0000E+00  0.1031E+16
   -0.974921    3.95956  0.0000E+00  0.4217E-06  0.2752E-09  0.1986E-03  0.0000E+00  0.8034E+15
   -1.012419    4.04878  0.0000E+00  0.4338E-06  0.2914E-09  0.2006E-03  0.0000E+00  0.5418E+15
   -1.049916    4.12185  0.0000E+00  0.4431E-06  0.3073E-09  0.2003E-03  0.0000E+00  0.3171E+15
   -1.087413    4.17858  0.0000E+00  0.4486E-06  0.3223E-09  0.1980E-03  0.0000E+00  0.7680E+14
   -1.124911    4.21024  0.0000E+00  0.4492E-06  0.3357E-09  0.1931E-03  0.0000E+00 -0.9314E+13
   -1.162408    4.21300  0.0000E+00  0.4480E-06  0.3510E-09  0.1842E-03  0.0000E+00 -0.9881E+13
   -1.199904    4.21588  0.0000E+00  0.4455E-06  0.3693E-09  0.1738E-03  0.0000E+00 -0.1059E+14
   -1.237401    4.21891  0.0000E+00  0.4414E-06  0.3915E-09  0.1619E-03  0.0000E+00 -0.1152E+14
   -1.274897    4.22214  0.0000E+00  0.4353E-06  0.4201E-09  0.1479E-03  0.0000E+00 -0.1281E+14
   -1.312393    4.22567  0.0000E+00  0.4267E-06  0.4587E-09  0.1318E-03  0.0000E+00 -0.1465E+14
   -1.349889    4.22963  0.0000E+00  0.4147E-06  0.5141E-09  0.1129E-03  0.0000E+00 -0.1750E+14
   -1.387384    4.23427  0.0000E+00  0.3976E-06  0.6008E-09  0.9350E-04  0.0000E+00 -0.2188E+14
   -1.424879    4.23995  0.0000E+00  0.3662E-06  0.7957E-09  0.5029E-04  0.0000E+00 -0.4192E+14
   -1.462374    4.25053  0.0000E+00  0.2316E-06  0.2076E-08  0.4561E-05  0.0000E+00 -0.5383E+15
   -1.499868    4.35921  0.0000E+00  0.0000E+00  0.0000E+00  0.0000E+00  0.0000E+00  0.0000E+00
