 1 - depth, m
 2 - temperature, C
 3 - salinity, kg/kg
 4 - turbulent kinetic energy, m**2/s**2
 5 - dissipation rate, m**2/s**3
 6 - kinematic heat conductance, m**2/s
 7 - modulus of horizontal velocity, m/s
 8 - Richardson number, n/d
   -0.000000    0.00000  0.0000E+00  0.4096E-13  0.8590E-16  0.1000E-09  0.0000E+00  0.9124E+16
   -0.037497    0.13948  0.0000E+00  0.4096E-13  0.8590E-16  0.1000E-09  0.0000E+00  0.8674E+16
   -0.074995    0.27727  0.0000E+00  0.4096E-13  0.8590E-16  0.1000E-09  0.0000E+00  0.8236E+16
   -0.112493    0.41334  0.0000E+00  0.4096E-13  0.8590E-16  0.1000E-09  0.0000E+00  0.7812E+16
   -0.149992    0.54768  0.0000E+00  0.4096E-13  0.8590E-16  0.1000E-09  0.0000E+00  0.7400E+16
   -0.187490    0.68027  0.0000E+00  0.4096E-13  0.8590E-16  0.1000E-09  0.0000E+00  0.7000E+16
   -0.224989    0.81109  0.0000E+00  0.4096E-13  0.8590E-16  0.1000E-09  0.0000E+00  0.6613E+16
   -0.262489    0.94010  0.0000E+00  0.4096E-13  0.8590E-16  0.1000E-09  0.0000E+00  0.6231E+16
   -0.299988    1.06717  0.0000E+00  0.4096E-13  0.8590E-16  0.1000E-09  0.0000E+00  0.5860E+16
   -0.337488    1.19220  0.0000E+00  0.4096E-13  0.8590E-16  0.1000E-09  0.0000E+00  0.5502E+16
   -0.374988    1.31517  0.0000E+00  0.4096E-13  0.8590E-16  0.1000E-09  0.0000E+00  0.5179E+16
   -0.412488    1.43658  0.0000E+00  0.4096E-13  0.8590E-16  0.1000E-09  0.0000E+00  0.4878E+16
   -0.449988    1.55675  0.0000E+00  0.4096E-13  0.8590E-16  0.1000E-09  0.0000E+00  0.4586E+16
   -0.487489    1.67564  0.0000E+00  0.4096E-13  0.8590E-16  0.1000E-09  0.0000E+00  0.4301E+16
   -0.524989    1.79322  0.0000E+00  0.4096E-13  0.8590E-16  0.1000E-09  0.0000E+00  0.4020E+16
   -0.562490    1.90937  0.0000E+00  0.4096E-13  0.8590E-16  0.1000E-09  0.0000E+00  0.3748E+16
   -0.599991    2.02404  0.0000E+00  0.4096E-13  0.8590E-16  0.1000E-09  0.0000E+00  0.3483E+16
   -0.637492    2.13720  0.0000E+00  0.4096E-13  0.8590E-16  0.1000E-09  0.0000E+00  0.3226E+16
   -0.674993    2.24878  0.0000E+00  0.4096E-13  0.8590E-16  0.1000E-09  0.0000E+00  0.2977E+16
   -0.712494    2.35872  0.0000E+00  0.4096E-13  0.8590E-16  0.1000E-09  0.0000E+00  0.2736E+16
   -0.749995    2.46697  0.0000E+00  0.4096E-13  0.8590E-16  0.1000E-09  0.0000E+00  0.2523E+16
   -0.787496    2.57434  0.0000E+00  0.4096E-13  0.8590E-16  0.1000E-09  0.0000E+00  0.2322E+16
   -0.824997    2.68110  0.0000E+00  0.4096E-13  0.8590E-16  0.1000E-09  0.0000E+00  0.2124E+16
   -0.862498    2.78724  0.0000E+00  0.4096E-13  0.8590E-16  0.1000E-09  0.0000E+00  0.1929E+16
   -0.899998    2.89273  0.0000E+00  0.7195E-13  0.8590E-16  0.1000E-09  0.0000E+00  0.1738E+16
   -0.937499    2.99754  0.0000E+00  0.2671E-12  0.1493E-15  0.1000E-09  0.0000E+00  0.1551E+16
   -0.975000    3.10165  0.0000E+00  0.7525E-12  0.3643E-15  0.1000E-09  0.0000E+00  0.1367E+16
   -1.012501    3.20501  0.0000E+00  0.1952E-11  0.9028E-15  0.1000E-09  0.0000E+00  0.1187E+16
   -1.050001    3.30757  0.0000E+00  0.4941E-11  0.2216E-14  0.1000E-09  0.0000E+00  0.1010E+16
   -1.087501    3.40926  0.0000E+00  0.1233E-10  0.5382E-14  0.1000E-09  0.0000E+00  0.8383E+15
   -1.125001    3.51002  0.0000E+00  0.3047E-10  0.1294E-13  0.1000E-09  0.0000E+00  0.6785E+15
   -1.162501    3.61107  0.0000E+00  0.7454E-10  0.3085E-13  0.1637E-09  0.0000E+00  0.5188E+15
   -1.200001    3.71261  0.0000E+00  0.1806E-09  0.7288E-13  0.5607E-09  0.0000E+00  0.3568E+15
   -1.237501    3.81449  0.0000E+00  0.4334E-09  0.1707E-12  0.2409E-08  0.0000E+00  0.1928E+15
   -1.275000    3.91590  0.0000E+00  0.1029E-08  0.3968E-12  0.2746E-07  0.0000E+00  0.3647E+14
   -1.312499    4.00373  0.0000E+00  0.2055E-08  0.7978E-12  0.1987E-05  0.0000E+00 -0.2345E+13
   -1.349998    4.01087  0.0000E+00  0.2616E-08  0.1151E-11  0.2177E-05  0.0000E+00 -0.2978E+13
   -1.387496    4.01767  0.0000E+00  0.2936E-08  0.1631E-11  0.1845E-05  0.0000E+00 -0.4640E+13
   -1.424994    4.02601  0.0000E+00  0.2923E-08  0.2497E-11  0.1098E-05  0.0000E+00 -0.1047E+14
   -1.462492    4.04029  0.0000E+00  0.2374E-08  0.4926E-11  0.2956E-06  0.0000E+00 -0.5302E+14
   -1.499989    4.08475  0.0000E+00  0.0000E+00  0.0000E+00  0.0000E+00  0.0000E+00  0.0000E+00
