 1 - depth, m
 2 - temperature, C
 3 - salinity, kg/kg
 4 - turbulent kinetic energy, m**2/s**2
 5 - dissipation rate, m**2/s**3
 6 - kinematic heat conductance, m**2/s
 7 - modulus of horizontal velocity, m/s
 8 - Richardson number, n/d
   -0.000000    0.00000  0.0000E+00  0.4096E-13  0.8590E-16  0.1000E-09  0.0000E+00  0.1079E+17
   -0.037494    0.16560  0.0000E+00  0.4096E-13  0.8590E-16  0.1000E-09  0.0000E+00  0.1015E+17
   -0.074989    0.32866  0.0000E+00  0.4096E-13  0.8590E-16  0.1000E-09  0.0000E+00  0.9464E+16
   -0.112483    0.48794  0.0000E+00  0.4096E-13  0.8590E-16  0.1000E-09  0.0000E+00  0.8740E+16
   -0.149979    0.64219  0.0000E+00  0.4096E-13  0.8590E-16  0.1000E-09  0.0000E+00  0.7998E+16
   -0.187474    0.79025  0.0000E+00  0.4096E-13  0.8590E-16  0.1000E-09  0.0000E+00  0.7257E+16
   -0.224970    0.93113  0.0000E+00  0.4096E-13  0.8590E-16  0.1000E-09  0.0000E+00  0.6533E+16
   -0.262466    1.06409  0.0000E+00  0.4096E-13  0.8590E-16  0.1000E-09  0.0000E+00  0.5831E+16
   -0.299962    1.18834  0.0000E+00  0.4096E-13  0.8590E-16  0.1000E-09  0.0000E+00  0.5170E+16
   -0.337458    1.30355  0.0000E+00  0.4096E-13  0.8590E-16  0.1000E-09  0.0000E+00  0.4562E+16
   -0.374955    1.40969  0.0000E+00  0.4096E-13  0.8590E-16  0.1000E-09  0.0000E+00  0.4108E+16
   -0.412452    1.50931  0.0000E+00  0.4096E-13  0.8590E-16  0.1000E-09  0.0000E+00  0.3761E+16
   -0.449949    1.60434  0.0000E+00  0.4096E-13  0.8590E-16  0.1000E-09  0.0000E+00  0.3461E+16
   -0.487446    1.69540  0.0000E+00  0.4096E-13  0.8590E-16  0.1000E-09  0.0000E+00  0.3205E+16
   -0.524943    1.78322  0.0000E+00  0.4096E-13  0.8590E-16  0.1000E-09  0.0000E+00  0.2993E+16
   -0.562441    1.86862  0.0000E+00  0.4096E-13  0.8590E-16  0.1000E-09  0.0000E+00  0.2814E+16
   -0.599938    1.95232  0.0000E+00  0.4096E-13  0.8590E-16  0.1000E-09  0.0000E+00  0.2663E+16
   -0.637436    2.03494  0.0000E+00  0.4096E-13  0.8590E-16  0.1000E-09  0.0000E+00  0.2533E+16
   -0.674934    2.11703  0.0000E+00  0.4096E-13  0.8590E-16  0.1000E-09  0.0000E+00  0.2417E+16
   -0.712431    2.19898  0.0000E+00  0.4096E-13  0.8590E-16  0.1000E-09  0.0000E+00  0.2308E+16
   -0.749929    2.28103  0.0000E+00  0.4096E-13  0.8590E-16  0.1000E-09  0.0000E+00  0.2258E+16
   -0.787427    2.36543  0.0000E+00  0.4096E-13  0.8590E-16  0.1000E-09  0.0000E+00  0.2216E+16
   -0.824924    2.45291  0.0000E+00  0.4096E-13  0.8590E-16  0.1000E-09  0.0000E+00  0.2156E+16
   -0.862422    2.54321  0.0000E+00  0.4096E-13  0.8590E-16  0.1000E-09  0.0000E+00  0.2073E+16
   -0.899920    2.63587  0.0000E+00  0.4096E-13  0.8590E-16  0.1000E-09  0.0000E+00  0.1966E+16
   -0.937417    2.73021  0.0000E+00  0.4096E-13  0.8590E-16  0.1000E-09  0.0000E+00  0.1836E+16
   -0.974914    2.82536  0.0000E+00  0.4096E-13  0.8590E-16  0.1000E-09  0.0000E+00  0.1685E+16
   -1.012412    2.92034  0.0000E+00  0.4096E-13  0.8590E-16  0.1000E-09  0.0000E+00  0.1543E+16
   -1.049909    3.01557  0.0000E+00  0.4096E-13  0.8590E-16  0.1000E-09  0.0000E+00  0.1392E+16
   -1.087406    3.11046  0.0000E+00  0.4096E-13  0.8590E-16  0.1000E-09  0.0000E+00  0.1232E+16
   -1.124903    3.20417  0.0000E+00  0.4096E-13  0.8590E-16  0.1000E-09  0.0000E+00  0.1059E+16
   -1.162399    3.29496  0.0000E+00  0.4096E-13  0.8590E-16  0.1000E-09  0.0000E+00  0.8922E+15
   -1.199896    3.38204  0.0000E+00  0.4096E-13  0.8590E-16  0.1000E-09  0.0000E+00  0.7383E+15
   -1.237392    3.46507  0.0000E+00  0.6988E-13  0.1179E-15  0.1000E-09  0.0000E+00  0.6048E+15
   -1.274888    3.54464  0.0000E+00  0.3230E-12  0.5173E-15  0.1000E-09  0.0000E+00  0.5066E+15
   -1.312384    3.62453  0.0000E+00  0.1579E-11  0.2526E-14  0.1000E-09  0.0000E+00  0.4167E+15
   -1.349879    3.70689  0.0000E+00  0.7746E-11  0.1252E-13  0.1109E-09  0.0000E+00  0.3274E+15
   -1.387374    3.79505  0.0000E+00  0.3824E-10  0.6328E-13  0.6444E-09  0.0000E+00  0.2211E+15
   -1.424869    3.89374  0.0000E+00  0.1897E-09  0.3310E-12  0.7399E-08  0.0000E+00  0.6554E+14
   -1.462364    4.00613  0.0000E+00  0.8749E-09  0.1857E-11  0.1441E-06  0.0000E+00 -0.6699E+14
   -1.499858    4.08150  0.0000E+00  0.0000E+00  0.0000E+00  0.0000E+00  0.0000E+00  0.0000E+00
