 1 - depth, m
 2 - temperature, C
 3 - salinity, kg/kg
 4 - turbulent kinetic energy, m**2/s**2
 5 - dissipation rate, m**2/s**3
 6 - kinematic heat conductance, m**2/s
 7 - modulus of horizontal velocity, m/s
 8 - Richardson number, n/d
   -0.000000    0.00000  0.0000E+00  0.4096E-13  0.8590E-16  0.1000E-09  0.0000E+00  0.7657E+16
   -0.037493    0.11669  0.0000E+00  0.4096E-13  0.8590E-16  0.1000E-09  0.0000E+00  0.7400E+16
   -0.074987    0.23314  0.0000E+00  0.4096E-13  0.8590E-16  0.1000E-09  0.0000E+00  0.7146E+16
   -0.112481    0.34938  0.0000E+00  0.4096E-13  0.8590E-16  0.1000E-09  0.0000E+00  0.6895E+16
   -0.149975    0.46539  0.0000E+00  0.4096E-13  0.8590E-16  0.1000E-09  0.0000E+00  0.6646E+16
   -0.187469    0.58117  0.0000E+00  0.4096E-13  0.8590E-16  0.1000E-09  0.0000E+00  0.6398E+16
   -0.224964    0.69672  0.0000E+00  0.4096E-13  0.8590E-16  0.1000E-09  0.0000E+00  0.6152E+16
   -0.262459    0.81201  0.0000E+00  0.4096E-13  0.8590E-16  0.1000E-09  0.0000E+00  0.5903E+16
   -0.299954    0.92695  0.0000E+00  0.4096E-13  0.8590E-16  0.1000E-09  0.0000E+00  0.5656E+16
   -0.337450    1.04151  0.0000E+00  0.4096E-13  0.8590E-16  0.1000E-09  0.0000E+00  0.5409E+16
   -0.374946    1.15562  0.0000E+00  0.4096E-13  0.8590E-16  0.1000E-09  0.0000E+00  0.5168E+16
   -0.412442    1.26934  0.0000E+00  0.4096E-13  0.8590E-16  0.1000E-09  0.0000E+00  0.4931E+16
   -0.449938    1.38268  0.0000E+00  0.4096E-13  0.8590E-16  0.1000E-09  0.0000E+00  0.4694E+16
   -0.487434    1.49559  0.0000E+00  0.4096E-13  0.8590E-16  0.1000E-09  0.0000E+00  0.4458E+16
   -0.524930    1.60799  0.0000E+00  0.4096E-13  0.8590E-16  0.1000E-09  0.0000E+00  0.4220E+16
   -0.562427    1.71974  0.0000E+00  0.4096E-13  0.8590E-16  0.1000E-09  0.0000E+00  0.3985E+16
   -0.599923    1.83076  0.0000E+00  0.4096E-13  0.8590E-16  0.1000E-09  0.0000E+00  0.3751E+16
   -0.637420    1.94099  0.0000E+00  0.4096E-13  0.8590E-16  0.1000E-09  0.0000E+00  0.3520E+16
   -0.674917    2.05032  0.0000E+00  0.4096E-13  0.8590E-16  0.1000E-09  0.0000E+00  0.3292E+16
   -0.712413    2.15867  0.0000E+00  0.4096E-13  0.8590E-16  0.1000E-09  0.0000E+00  0.3067E+16
   -0.749910    2.26596  0.0000E+00  0.4096E-13  0.8590E-16  0.1000E-09  0.0000E+00  0.2854E+16
   -0.787407    2.37236  0.0000E+00  0.4096E-13  0.8590E-16  0.1000E-09  0.0000E+00  0.2646E+16
   -0.824903    2.47788  0.0000E+00  0.4096E-13  0.8590E-16  0.1000E-09  0.0000E+00  0.2441E+16
   -0.862400    2.58244  0.0000E+00  0.4096E-13  0.8590E-16  0.1000E-09  0.0000E+00  0.2240E+16
   -0.899897    2.68596  0.0000E+00  0.4096E-13  0.8590E-16  0.1000E-09  0.0000E+00  0.2044E+16
   -0.937393    2.78836  0.0000E+00  0.4096E-13  0.8590E-16  0.1000E-09  0.0000E+00  0.1852E+16
   -0.974890    2.88954  0.0000E+00  0.4096E-13  0.8590E-16  0.1000E-09  0.0000E+00  0.1665E+16
   -1.012386    2.98942  0.0000E+00  0.4096E-13  0.8590E-16  0.1000E-09  0.0000E+00  0.1481E+16
   -1.049882    3.08765  0.0000E+00  0.4096E-13  0.8590E-16  0.1000E-09  0.0000E+00  0.1301E+16
   -1.087378    3.18402  0.0000E+00  0.4096E-13  0.8590E-16  0.1000E-09  0.0000E+00  0.1129E+16
   -1.124874    3.27835  0.0000E+00  0.4096E-13  0.8590E-16  0.1000E-09  0.0000E+00  0.9792E+15
   -1.162370    3.37190  0.0000E+00  0.4643E-13  0.8590E-16  0.1000E-09  0.0000E+00  0.8342E+15
   -1.199866    3.46482  0.0000E+00  0.2078E-12  0.2313E-15  0.1000E-09  0.0000E+00  0.6922E+15
   -1.237361    3.55708  0.0000E+00  0.8190E-12  0.8561E-15  0.1000E-09  0.0000E+00  0.5530E+15
   -1.274856    3.64858  0.0000E+00  0.3141E-11  0.3200E-14  0.1000E-09  0.0000E+00  0.4171E+15
   -1.312351    3.73922  0.0000E+00  0.1192E-10  0.1192E-13  0.1076E-09  0.0000E+00  0.2848E+15
   -1.349845    3.82881  0.0000E+00  0.4487E-10  0.4433E-13  0.6818E-09  0.0000E+00  0.1567E+15
   -1.387339    3.91679  0.0000E+00  0.1668E-09  0.1658E-12  0.7689E-08  0.0000E+00  0.3659E+14
   -1.424833    3.99912  0.0000E+00  0.5778E-09  0.6308E-12  0.1848E-06  0.0000E+00 -0.1791E+14
   -1.462327    4.03585  0.0000E+00  0.7853E-09  0.1437E-11  0.1331E-06  0.0000E+00 -0.4706E+14
   -1.499820    4.07833  0.0000E+00  0.0000E+00  0.0000E+00  0.0000E+00  0.0000E+00  0.0000E+00
