 1 - depth, m
 2 - temperature, C
 3 - salinity, kg/kg
 4 - turbulent kinetic energy, m**2/s**2
 5 - dissipation rate, m**2/s**3
 6 - kinematic heat conductance, m**2/s
 7 - modulus of horizontal velocity, m/s
 8 - Richardson number, n/d
   -0.000000    0.00000  0.0000E+00  0.4096E-13  0.8590E-16  0.1000E-09  0.0000E+00  0.1002E+17
   -0.037493    0.15341  0.0000E+00  0.4096E-13  0.8590E-16  0.1000E-09  0.0000E+00  0.9542E+16
   -0.074987    0.30590  0.0000E+00  0.4096E-13  0.8590E-16  0.1000E-09  0.0000E+00  0.9072E+16
   -0.112481    0.45737  0.0000E+00  0.4096E-13  0.8590E-16  0.1000E-09  0.0000E+00  0.8607E+16
   -0.149975    0.60776  0.0000E+00  0.4096E-13  0.8590E-16  0.1000E-09  0.0000E+00  0.8149E+16
   -0.187470    0.75697  0.0000E+00  0.4096E-13  0.8590E-16  0.1000E-09  0.0000E+00  0.7698E+16
   -0.224964    0.90494  0.0000E+00  0.4096E-13  0.8590E-16  0.1000E-09  0.0000E+00  0.7255E+16
   -0.262460    1.05158  0.0000E+00  0.4096E-13  0.8590E-16  0.1000E-09  0.0000E+00  0.6815E+16
   -0.299955    1.19670  0.0000E+00  0.4096E-13  0.8590E-16  0.1000E-09  0.0000E+00  0.6384E+16
   -0.337450    1.34021  0.0000E+00  0.4096E-13  0.8590E-16  0.1000E-09  0.0000E+00  0.5963E+16
   -0.374946    1.48200  0.0000E+00  0.4096E-13  0.8590E-16  0.1000E-09  0.0000E+00  0.5567E+16
   -0.412442    1.62237  0.0000E+00  0.4096E-13  0.8590E-16  0.1000E-09  0.0000E+00  0.5188E+16
   -0.449938    1.76148  0.0000E+00  0.4096E-13  0.8590E-16  0.1000E-09  0.0000E+00  0.4817E+16
   -0.487435    1.89924  0.0000E+00  0.4096E-13  0.8590E-16  0.1000E-09  0.0000E+00  0.4454E+16
   -0.524931    2.03557  0.0000E+00  0.4136E-13  0.8590E-16  0.1000E-09  0.0000E+00  0.4097E+16
   -0.562428    2.17032  0.0000E+00  0.1140E-12  0.8590E-16  0.1000E-09  0.0000E+00  0.3751E+16
   -0.599924    2.30342  0.0000E+00  0.3492E-12  0.1054E-15  0.1000E-09  0.0000E+00  0.3415E+16
   -0.637421    2.43476  0.0000E+00  0.7902E-12  0.1813E-15  0.1000E-09  0.0000E+00  0.3089E+16
   -0.674918    2.56426  0.0000E+00  0.1586E-11  0.3334E-15  0.1000E-09  0.0000E+00  0.2774E+16
   -0.712414    2.69183  0.0000E+00  0.3035E-11  0.6143E-15  0.1000E-09  0.0000E+00  0.2470E+16
   -0.749911    2.81736  0.0000E+00  0.5686E-11  0.1124E-14  0.1000E-09  0.0000E+00  0.2188E+16
   -0.787408    2.94135  0.0000E+00  0.1054E-10  0.2042E-14  0.1000E-09  0.0000E+00  0.1918E+16
   -0.824905    3.06392  0.0000E+00  0.1939E-10  0.3688E-14  0.1000E-09  0.0000E+00  0.1657E+16
   -0.862402    3.18495  0.0000E+00  0.3548E-10  0.6629E-14  0.1000E-09  0.0000E+00  0.1403E+16
   -0.899898    3.30432  0.0000E+00  0.6460E-10  0.1186E-13  0.1000E-09  0.0000E+00  0.1159E+16
   -0.937395    3.42187  0.0000E+00  0.1171E-09  0.2112E-13  0.1000E-09  0.0000E+00  0.9243E+15
   -0.974891    3.53740  0.0000E+00  0.2112E-09  0.3744E-13  0.1483E-09  0.0000E+00  0.7006E+15
   -1.012388    3.65071  0.0000E+00  0.3799E-09  0.6624E-13  0.3761E-09  0.0000E+00  0.4879E+15
   -1.049884    3.76136  0.0000E+00  0.6826E-09  0.1171E-12  0.1118E-08  0.0000E+00  0.2887E+15
   -1.087380    3.86876  0.0000E+00  0.1221E-08  0.2060E-12  0.5356E-08  0.0000E+00  0.1054E+15
   -1.124876    3.96989  0.0000E+00  0.1949E-08  0.3283E-12  0.9480E-06  0.0000E+00  0.2508E+13
   -1.162372    3.99566  0.0000E+00  0.2527E-08  0.4388E-12  0.5122E-05  0.0000E+00 -0.4464E+12
   -1.199868    3.99849  0.0000E+00  0.2896E-08  0.5284E-12  0.5812E-05  0.0000E+00 -0.5068E+12
   -1.237363    4.00099  0.0000E+00  0.3195E-08  0.6254E-12  0.6034E-05  0.0000E+00 -0.5889E+12
   -1.274858    4.00341  0.0000E+00  0.3427E-08  0.7387E-12  0.5844E-05  0.0000E+00 -0.7147E+12
   -1.312353    4.00593  0.0000E+00  0.3583E-08  0.8821E-12  0.5249E-05  0.0000E+00 -0.9264E+12
   -1.349847    4.00877  0.0000E+00  0.3636E-08  0.1082E-11  0.4258E-05  0.0000E+00 -0.1334E+13
   -1.387342    4.01231  0.0000E+00  0.3529E-08  0.1407E-11  0.2911E-05  0.0000E+00 -0.2325E+13
   -1.424836    4.01753  0.0000E+00  0.3129E-08  0.2082E-11  0.1395E-05  0.0000E+00 -0.6079E+13
   -1.462329    4.02817  0.0000E+00  0.2223E-08  0.4186E-11  0.2754E-06  0.0000E+00 -0.3964E+14
   -1.499823    4.06888  0.0000E+00  0.0000E+00  0.0000E+00  0.0000E+00  0.0000E+00  0.0000E+00
