 1 - depth, m
 2 - temperature, C
 3 - salinity, kg/kg
 4 - turbulent kinetic energy, m**2/s**2
 5 - dissipation rate, m**2/s**3
 6 - kinematic heat conductance, m**2/s
 7 - modulus of horizontal velocity, m/s
 8 - Richardson number, n/d
   -0.000000    0.00000  0.0000E+00  0.4096E-13  0.8590E-16  0.1000E-09  0.0000E+00  0.1017E+17
   -0.037498    0.15575  0.0000E+00  0.4096E-13  0.8590E-16  0.1000E-09  0.0000E+00  0.9656E+16
   -0.074997    0.31021  0.0000E+00  0.4096E-13  0.8590E-16  0.1000E-09  0.0000E+00  0.9156E+16
   -0.112497    0.46333  0.0000E+00  0.4096E-13  0.8590E-16  0.1000E-09  0.0000E+00  0.8664E+16
   -0.149996    0.61502  0.0000E+00  0.4096E-13  0.8590E-16  0.1000E-09  0.0000E+00  0.8182E+16
   -0.187496    0.76520  0.0000E+00  0.4096E-13  0.8590E-16  0.1000E-09  0.0000E+00  0.7710E+16
   -0.224996    0.91382  0.0000E+00  0.4096E-13  0.8590E-16  0.1000E-09  0.0000E+00  0.7249E+16
   -0.262496    1.06079  0.0000E+00  0.4096E-13  0.8590E-16  0.1000E-09  0.0000E+00  0.6788E+16
   -0.299997    1.20582  0.0000E+00  0.4096E-13  0.8590E-16  0.1000E-09  0.0000E+00  0.6338E+16
   -0.337498    1.34877  0.0000E+00  0.4096E-13  0.8590E-16  0.1000E-09  0.0000E+00  0.5902E+16
   -0.374999    1.48958  0.0000E+00  0.4096E-13  0.8590E-16  0.1000E-09  0.0000E+00  0.5511E+16
   -0.412500    1.62898  0.0000E+00  0.4096E-13  0.8590E-16  0.1000E-09  0.0000E+00  0.5149E+16
   -0.450001    1.76744  0.0000E+00  0.1337E-12  0.8590E-16  0.1000E-09  0.0000E+00  0.4794E+16
   -0.487503    1.90495  0.0000E+00  0.3915E-12  0.1155E-15  0.1000E-09  0.0000E+00  0.4446E+16
   -0.525005    2.04146  0.0000E+00  0.8745E-12  0.2069E-15  0.1000E-09  0.0000E+00  0.4101E+16
   -0.562506    2.17680  0.0000E+00  0.1762E-11  0.3873E-15  0.1000E-09  0.0000E+00  0.3765E+16
   -0.600008    2.31094  0.0000E+00  0.3409E-11  0.7233E-15  0.1000E-09  0.0000E+00  0.3437E+16
   -0.637510    2.44387  0.0000E+00  0.6473E-11  0.1340E-14  0.1000E-09  0.0000E+00  0.3119E+16
   -0.675012    2.57556  0.0000E+00  0.1217E-10  0.2467E-14  0.1000E-09  0.0000E+00  0.2809E+16
   -0.712514    2.70600  0.0000E+00  0.2271E-10  0.4512E-14  0.1000E-09  0.0000E+00  0.2508E+16
   -0.750016    2.83515  0.0000E+00  0.4214E-10  0.8208E-14  0.1000E-09  0.0000E+00  0.2241E+16
   -0.787518    2.96456  0.0000E+00  0.7777E-10  0.1485E-13  0.1000E-09  0.0000E+00  0.1982E+16
   -0.825020    3.09484  0.0000E+00  0.1428E-09  0.2675E-13  0.1000E-09  0.0000E+00  0.1720E+16
   -0.862522    3.22607  0.0000E+00  0.2608E-09  0.4793E-13  0.1000E-09  0.0000E+00  0.1454E+16
   -0.900024    3.35835  0.0000E+00  0.4740E-09  0.8548E-13  0.2005E-09  0.0000E+00  0.1183E+16
   -0.937526    3.49168  0.0000E+00  0.8572E-09  0.1517E-12  0.4648E-09  0.0000E+00  0.9056E+15
   -0.975028    3.62601  0.0000E+00  0.1542E-08  0.2680E-12  0.1195E-08  0.0000E+00  0.6220E+15
   -1.012530    3.76098  0.0000E+00  0.2762E-08  0.4714E-12  0.3921E-08  0.0000E+00  0.3332E+15
   -1.050031    3.89494  0.0000E+00  0.4866E-08  0.8172E-12  0.3601E-07  0.0000E+00  0.6244E+14
   -1.087533    4.00591  0.0000E+00  0.5832E-08  0.9856E-12  0.1373E-04  0.0000E+00 -0.4516E+12
   -1.125034    4.00733  0.0000E+00  0.6275E-08  0.1081E-11  0.1423E-04  0.0000E+00 -0.4701E+12
   -1.162535    4.00871  0.0000E+00  0.6633E-08  0.1181E-11  0.1433E-04  0.0000E+00 -0.4994E+12
   -1.200036    4.01010  0.0000E+00  0.6911E-08  0.1291E-11  0.1401E-04  0.0000E+00 -0.5452E+12
   -1.237536    4.01152  0.0000E+00  0.7108E-08  0.1416E-11  0.1325E-04  0.0000E+00 -0.6147E+12
   -1.275037    4.01303  0.0000E+00  0.7217E-08  0.1570E-11  0.1204E-04  0.0000E+00 -0.7249E+12
   -1.312537    4.01471  0.0000E+00  0.7218E-08  0.1775E-11  0.1032E-04  0.0000E+00 -0.9117E+12
   -1.350036    4.01669  0.0000E+00  0.7068E-08  0.2076E-11  0.8080E-05  0.0000E+00 -0.1270E+13
   -1.387536    4.01925  0.0000E+00  0.6669E-08  0.2593E-11  0.5365E-05  0.0000E+00 -0.2136E+13
   -1.425035    4.02316  0.0000E+00  0.5777E-08  0.3750E-11  0.2462E-05  0.0000E+00 -0.5479E+13
   -1.462534    4.03167  0.0000E+00  0.3849E-08  0.7927E-11  0.4070E-06  0.0000E+00 -0.4391E+14
   -1.500032    4.07388  0.0000E+00  0.0000E+00  0.0000E+00  0.0000E+00  0.0000E+00  0.0000E+00
