 1 - depth, m
 2 - temperature, C
 3 - salinity, kg/kg
 4 - turbulent kinetic energy, m**2/s**2
 5 - dissipation rate, m**2/s**3
 6 - kinematic heat conductance, m**2/s
 7 - modulus of horizontal velocity, m/s
 8 - Richardson number, n/d
   -0.000000    0.00000  0.0000E+00  0.4096E-13  0.8590E-16  0.1000E-09  0.0000E+00  0.8451E+16
   -0.037495    0.12901  0.0000E+00  0.4096E-13  0.8590E-16  0.1000E-09  0.0000E+00  0.8155E+16
   -0.074990    0.25801  0.0000E+00  0.4096E-13  0.8590E-16  0.1000E-09  0.0000E+00  0.7855E+16
   -0.112486    0.38692  0.0000E+00  0.4096E-13  0.8590E-16  0.1000E-09  0.0000E+00  0.7552E+16
   -0.149982    0.51566  0.0000E+00  0.4096E-13  0.8590E-16  0.1000E-09  0.0000E+00  0.7248E+16
   -0.187478    0.64415  0.0000E+00  0.4096E-13  0.8590E-16  0.1000E-09  0.0000E+00  0.6942E+16
   -0.224975    0.77232  0.0000E+00  0.4096E-13  0.8590E-16  0.1000E-09  0.0000E+00  0.6636E+16
   -0.262471    0.90009  0.0000E+00  0.4096E-13  0.8590E-16  0.1000E-09  0.0000E+00  0.6326E+16
   -0.299968    1.02729  0.0000E+00  0.4096E-13  0.8590E-16  0.1000E-09  0.0000E+00  0.6016E+16
   -0.337466    1.15383  0.0000E+00  0.4096E-13  0.8590E-16  0.1000E-09  0.0000E+00  0.5708E+16
   -0.374963    1.27962  0.0000E+00  0.4096E-13  0.8590E-16  0.1000E-09  0.0000E+00  0.5409E+16
   -0.412461    1.40475  0.0000E+00  0.4096E-13  0.8590E-16  0.1000E-09  0.0000E+00  0.5116E+16
   -0.449959    1.52922  0.0000E+00  0.4096E-13  0.8590E-16  0.1000E-09  0.0000E+00  0.4826E+16
   -0.487457    1.65297  0.0000E+00  0.4096E-13  0.8590E-16  0.1000E-09  0.0000E+00  0.4537E+16
   -0.524955    1.77588  0.0000E+00  0.4096E-13  0.8590E-16  0.1000E-09  0.0000E+00  0.4249E+16
   -0.562453    1.89780  0.0000E+00  0.4096E-13  0.8590E-16  0.1000E-09  0.0000E+00  0.3965E+16
   -0.599951    2.01861  0.0000E+00  0.4096E-13  0.8590E-16  0.1000E-09  0.0000E+00  0.3686E+16
   -0.637450    2.13822  0.0000E+00  0.4096E-13  0.8590E-16  0.1000E-09  0.0000E+00  0.3412E+16
   -0.674948    2.25653  0.0000E+00  0.4096E-13  0.8590E-16  0.1000E-09  0.0000E+00  0.3143E+16
   -0.712447    2.37341  0.0000E+00  0.4096E-13  0.8590E-16  0.1000E-09  0.0000E+00  0.2881E+16
   -0.749945    2.48877  0.0000E+00  0.4096E-13  0.8590E-16  0.1000E-09  0.0000E+00  0.2634E+16
   -0.787444    2.60284  0.0000E+00  0.4096E-13  0.8590E-16  0.1000E-09  0.0000E+00  0.2395E+16
   -0.824942    2.71566  0.0000E+00  0.4096E-13  0.8590E-16  0.1000E-09  0.0000E+00  0.2163E+16
   -0.862441    2.82712  0.0000E+00  0.4096E-13  0.8590E-16  0.1000E-09  0.0000E+00  0.1936E+16
   -0.899939    2.93711  0.0000E+00  0.1517E-12  0.9161E-16  0.1000E-09  0.0000E+00  0.1717E+16
   -0.937437    3.04552  0.0000E+00  0.4405E-12  0.1987E-15  0.1000E-09  0.0000E+00  0.1504E+16
   -0.974936    3.15223  0.0000E+00  0.1117E-11  0.4687E-15  0.1000E-09  0.0000E+00  0.1300E+16
   -1.012434    3.25710  0.0000E+00  0.2716E-11  0.1101E-14  0.1000E-09  0.0000E+00  0.1101E+16
   -1.049932    3.35967  0.0000E+00  0.6504E-11  0.2564E-14  0.1000E-09  0.0000E+00  0.9114E+15
   -1.087430    3.45965  0.0000E+00  0.1541E-10  0.5920E-14  0.1000E-09  0.0000E+00  0.7330E+15
   -1.124927    3.55678  0.0000E+00  0.3619E-10  0.1355E-13  0.1000E-09  0.0000E+00  0.5784E+15
   -1.162425    3.65301  0.0000E+00  0.8425E-10  0.3078E-13  0.1976E-09  0.0000E+00  0.4293E+15
   -1.199922    3.74856  0.0000E+00  0.1945E-09  0.6936E-13  0.6730E-09  0.0000E+00  0.2831E+15
   -1.237419    3.84317  0.0000E+00  0.4450E-09  0.1551E-12  0.3001E-08  0.0000E+00  0.1406E+15
   -1.274916    3.93567  0.0000E+00  0.1002E-08  0.3425E-12  0.4823E-07  0.0000E+00  0.1720E+14
   -1.312412    4.00573  0.0000E+00  0.1879E-08  0.6528E-12  0.2225E-05  0.0000E+00 -0.1953E+13
   -1.349909    4.01134  0.0000E+00  0.2306E-08  0.8946E-12  0.2298E-05  0.0000E+00 -0.2375E+13
   -1.387405    4.01681  0.0000E+00  0.2490E-08  0.1198E-11  0.1866E-05  0.0000E+00 -0.3537E+13
   -1.424900    4.02348  0.0000E+00  0.2355E-08  0.1722E-11  0.1038E-05  0.0000E+00 -0.7696E+13
   -1.462395    4.03494  0.0000E+00  0.1743E-08  0.3192E-11  0.2300E-06  0.0000E+00 -0.3882E+14
   -1.499890    4.07190  0.0000E+00  0.0000E+00  0.0000E+00  0.0000E+00  0.0000E+00  0.0000E+00
