 1 - depth, m
 2 - temperature, C
 3 - salinity, kg/kg
 4 - turbulent kinetic energy, m**2/s**2
 5 - dissipation rate, m**2/s**3
 6 - kinematic heat conductance, m**2/s
 7 - modulus of horizontal velocity, m/s
 8 - Richardson number, n/d
   -0.000000   13.65765  0.0000E+00  0.1289E-02  0.9154E-02  0.1428E-03  0.5847E+00  0.2173E-01
   -0.037498   13.74915  0.0000E+00  0.6707E-03  0.4976E-02  0.2216E-03  0.1984E+00 -0.1734E+00
   -0.074997   13.79801  0.0000E+00  0.4222E-03  0.1752E-02  0.3456E-03  0.1099E+00 -0.1402E+00
   -0.112496   13.81427  0.0000E+00  0.3348E-03  0.1153E-02  0.3967E-03  0.8043E-01  0.1083E+00
   -0.149995   13.82070  0.0000E+00  0.2782E-03  0.7709E-03  0.4004E-03  0.6594E-01 -0.9961E-02
   -0.187494   13.82458  0.0000E+00  0.2382E-03  0.5216E-03  0.4144E-03  0.5727E-01 -0.1798E+00
   -0.224994   13.82719  0.0000E+00  0.2090E-03  0.3403E-03  0.4208E-03  0.5149E-01 -0.9337E-01
   -0.262494   13.82946  0.0000E+00  0.1838E-03  0.2182E-03  0.4385E-03  0.4615E-01  0.7122E-01
   -0.299995   13.83112  0.0000E+00  0.1647E-03  0.1426E-03  0.4472E-03  0.4215E-01 -0.3660E-01
   -0.337495   13.83271  0.0000E+00  0.1495E-03  0.9300E-04  0.4559E-03  0.3882E-01  0.5494E-01
   -0.374996   13.83424  0.0000E+00  0.1369E-03  0.6049E-04  0.4696E-03  0.3584E-01  0.1648E+01
   -0.412497   13.83543  0.0000E+00  0.1262E-03  0.3948E-04  0.4861E-03  0.3326E-01  0.9348E+00
   -0.449998   13.83661  0.0000E+00  0.1176E-03  0.2599E-04  0.5022E-03  0.3102E-01  0.4268E+00
   -0.487499   13.83774  0.0000E+00  0.1104E-03  0.1737E-04  0.5010E-03  0.2898E-01  0.1643E+02
   -0.525001   13.83912  0.0000E+00  0.1027E-03  0.1176E-04  0.5362E-03  0.2628E-01  0.3827E+01
   -0.562502   13.84007  0.0000E+00  0.9641E-04  0.8140E-05  0.5514E-03  0.2458E-01  0.1790E+02
   -0.600004   13.84095  0.0000E+00  0.9090E-04  0.5772E-05  0.5632E-03  0.2307E-01  0.5478E+01
   -0.637505   13.84181  0.0000E+00  0.8602E-04  0.4201E-05  0.5802E-03  0.2169E-01  0.2081E+02
   -0.675007   13.84263  0.0000E+00  0.8154E-04  0.3137E-05  0.5920E-03  0.2039E-01  0.4016E+02
   -0.712509   13.84342  0.0000E+00  0.7747E-04  0.2405E-05  0.6019E-03  0.1918E-01  0.4862E+01
   -0.750010   13.84417  0.0000E+00  0.7373E-04  0.1893E-05  0.6080E-03  0.1807E-01  0.2522E+01
   -0.787512   13.84490  0.0000E+00  0.7026E-04  0.1527E-05  0.6121E-03  0.1701E-01  0.2419E+02
   -0.825014   13.84638  0.0000E+00  0.6677E-04  0.1254E-05  0.6270E-03  0.1553E-01  0.1060E+02
   -0.862516   13.84706  0.0000E+00  0.6359E-04  0.1054E-05  0.6265E-03  0.1459E-01  0.9799E+00
   -0.900017   13.84773  0.0000E+00  0.6056E-04  0.9014E-06  0.6289E-03  0.1369E-01  0.8195E+01
   -0.937519   13.84838  0.0000E+00  0.5765E-04  0.7828E-06  0.6279E-03  0.1283E-01  0.5539E+01
   -0.975020   13.84904  0.0000E+00  0.5486E-04  0.6901E-06  0.6246E-03  0.1200E-01  0.5710E+02
   -1.012522   13.84969  0.0000E+00  0.5215E-04  0.6162E-06  0.6196E-03  0.1118E-01  0.7287E+01
   -1.050023   13.85033  0.0000E+00  0.4948E-04  0.5564E-06  0.6159E-03  0.1043E-01  0.7976E+02
   -1.087524   13.85096  0.0000E+00  0.4685E-04  0.5081E-06  0.6069E-03  0.9709E-02  0.1030E+03
   -1.125025   13.85158  0.0000E+00  0.4427E-04  0.4698E-06  0.5853E-03  0.9028E-02  0.1833E+02
   -1.162526   13.85221  0.0000E+00  0.4168E-04  0.4405E-06  0.5596E-03  0.8373E-02  0.3321E+01
   -1.200026   13.85285  0.0000E+00  0.3905E-04  0.4204E-06  0.5294E-03  0.7736E-02  0.3911E+02
   -1.237527   13.85353  0.0000E+00  0.3634E-04  0.4110E-06  0.4888E-03  0.7103E-02  0.1004E+02
   -1.275027   13.85424  0.0000E+00  0.3345E-04  0.4169E-06  0.4416E-03  0.6468E-02  0.1543E+02
   -1.312527   13.85501  0.0000E+00  0.3028E-04  0.4478E-06  0.3828E-03  0.5859E-02  0.2306E+02
   -1.350026   13.85588  0.0000E+00  0.2667E-04  0.5260E-06  0.3120E-03  0.5259E-02  0.3668E+02
   -1.387525   13.85695  0.0000E+00  0.2240E-04  0.7077E-06  0.2316E-03  0.4639E-02  0.5333E+02
   -1.425024   13.85842  0.0000E+00  0.1712E-04  0.1175E-05  0.1408E-03  0.3945E-02 -0.6511E+03
   -1.462523   13.86083  0.0000E+00  0.1011E-04  0.2632E-05  0.6146E-04  0.3207E-02 -0.6502E+05
   -1.500021   13.87205  0.0000E+00  0.0000E+00  0.0000E+00  0.0000E+00  0.3785E-02  0.0000E+00
