 1 - depth, m
 2 - temperature, C
 3 - salinity, kg/kg
 4 - turbulent kinetic energy, m**2/s**2
 5 - dissipation rate, m**2/s**3
 6 - kinematic heat conductance, m**2/s
 7 - modulus of horizontal velocity, m/s
 8 - Richardson number, n/d
   -0.000000    0.00000  0.0000E+00  0.4096E-13  0.8590E-16  0.1000E-09  0.0000E+00  0.9238E+16
   -0.037493    0.14126  0.0000E+00  0.4096E-13  0.8590E-16  0.1000E-09  0.0000E+00  0.8758E+16
   -0.074987    0.28047  0.0000E+00  0.4096E-13  0.8590E-16  0.1000E-09  0.0000E+00  0.8295E+16
   -0.112481    0.41766  0.0000E+00  0.4096E-13  0.8590E-16  0.1000E-09  0.0000E+00  0.7849E+16
   -0.149975    0.55284  0.0000E+00  0.4096E-13  0.8590E-16  0.1000E-09  0.0000E+00  0.7419E+16
   -0.187469    0.68600  0.0000E+00  0.4096E-13  0.8590E-16  0.1000E-09  0.0000E+00  0.7005E+16
   -0.224964    0.81717  0.0000E+00  0.4096E-13  0.8590E-16  0.1000E-09  0.0000E+00  0.6606E+16
   -0.262459    0.94634  0.0000E+00  0.4096E-13  0.8590E-16  0.1000E-09  0.0000E+00  0.6218E+16
   -0.299955    1.07341  0.0000E+00  0.4096E-13  0.8590E-16  0.1000E-09  0.0000E+00  0.5842E+16
   -0.337450    1.19835  0.0000E+00  0.4096E-13  0.8590E-16  0.1000E-09  0.0000E+00  0.5481E+16
   -0.374946    1.32114  0.0000E+00  0.4096E-13  0.8590E-16  0.1000E-09  0.0000E+00  0.5154E+16
   -0.412442    1.44225  0.0000E+00  0.4096E-13  0.8590E-16  0.1000E-09  0.0000E+00  0.4850E+16
   -0.449938    1.56199  0.0000E+00  0.4096E-13  0.8590E-16  0.1000E-09  0.0000E+00  0.4555E+16
   -0.487434    1.68033  0.0000E+00  0.4096E-13  0.8590E-16  0.1000E-09  0.0000E+00  0.4268E+16
   -0.524931    1.79724  0.0000E+00  0.4096E-13  0.8590E-16  0.1000E-09  0.0000E+00  0.3988E+16
   -0.562427    1.91265  0.0000E+00  0.4096E-13  0.8590E-16  0.1000E-09  0.0000E+00  0.3716E+16
   -0.599924    2.02652  0.0000E+00  0.4096E-13  0.8590E-16  0.1000E-09  0.0000E+00  0.3452E+16
   -0.637420    2.13881  0.0000E+00  0.4096E-13  0.8590E-16  0.1000E-09  0.0000E+00  0.3197E+16
   -0.674917    2.24947  0.0000E+00  0.4096E-13  0.8590E-16  0.1000E-09  0.0000E+00  0.2950E+16
   -0.712414    2.35844  0.0000E+00  0.4096E-13  0.8590E-16  0.1000E-09  0.0000E+00  0.2711E+16
   -0.749911    2.46565  0.0000E+00  0.4096E-13  0.8590E-16  0.1000E-09  0.0000E+00  0.2498E+16
   -0.787407    2.57179  0.0000E+00  0.4096E-13  0.8590E-16  0.1000E-09  0.0000E+00  0.2295E+16
   -0.824904    2.67707  0.0000E+00  0.4096E-13  0.8590E-16  0.1000E-09  0.0000E+00  0.2097E+16
   -0.862401    2.78145  0.0000E+00  0.4096E-13  0.8590E-16  0.1000E-09  0.0000E+00  0.1903E+16
   -0.899897    2.88490  0.0000E+00  0.4096E-13  0.8590E-16  0.1000E-09  0.0000E+00  0.1714E+16
   -0.937394    2.98737  0.0000E+00  0.4096E-13  0.8590E-16  0.1000E-09  0.0000E+00  0.1530E+16
   -0.974890    3.08882  0.0000E+00  0.1678E-12  0.1109E-15  0.1000E-09  0.0000E+00  0.1350E+16
   -1.012387    3.18919  0.0000E+00  0.5109E-12  0.2705E-15  0.1000E-09  0.0000E+00  0.1176E+16
   -1.049883    3.28845  0.0000E+00  0.1388E-11  0.6942E-15  0.1000E-09  0.0000E+00  0.1007E+16
   -1.087379    3.38653  0.0000E+00  0.3638E-11  0.1763E-14  0.1000E-09  0.0000E+00  0.8434E+15
   -1.124875    3.48332  0.0000E+00  0.9390E-11  0.4424E-14  0.1000E-09  0.0000E+00  0.6931E+15
   -1.162371    3.57993  0.0000E+00  0.2397E-10  0.1099E-13  0.1000E-09  0.0000E+00  0.5450E+15
   -1.199866    3.67655  0.0000E+00  0.6057E-10  0.2707E-13  0.1868E-09  0.0000E+00  0.3973E+15
   -1.237362    3.77314  0.0000E+00  0.1516E-09  0.6608E-13  0.7206E-09  0.0000E+00  0.2498E+15
   -1.274857    3.86957  0.0000E+00  0.3793E-09  0.1616E-12  0.4165E-08  0.0000E+00  0.1032E+15
   -1.312352    3.96469  0.0000E+00  0.9098E-09  0.3822E-12  0.2090E-06  0.0000E+00  0.9735E+12
   -1.349846    4.00486  0.0000E+00  0.1738E-08  0.8365E-12  0.1346E-05  0.0000E+00 -0.3593E+13
   -1.387340    4.01465  0.0000E+00  0.2226E-08  0.1333E-11  0.1330E-05  0.0000E+00 -0.5455E+13
   -1.424834    4.02503  0.0000E+00  0.2386E-08  0.2133E-11  0.8813E-06  0.0000E+00 -0.1166E+14
   -1.462328    4.04099  0.0000E+00  0.2041E-08  0.4175E-11  0.2649E-06  0.0000E+00 -0.5272E+14
   -1.499821    4.08494  0.0000E+00  0.0000E+00  0.0000E+00  0.0000E+00  0.0000E+00  0.0000E+00
