 1 - depth, m
 2 - temperature, C
 3 - salinity, kg/kg
 4 - turbulent kinetic energy, m**2/s**2
 5 - dissipation rate, m**2/s**3
 6 - kinematic heat conductance, m**2/s
 7 - modulus of horizontal velocity, m/s
 8 - Richardson number, n/d
   -0.000000    0.00000  0.0000E+00  0.4096E-13  0.8589E-16  0.1000E-09  0.0000E+00  0.7581E+16
   -0.037502    0.11552  0.0000E+00  0.4096E-13  0.8589E-16  0.1000E-09  0.0000E+00  0.7379E+16
   -0.075004    0.23159  0.0000E+00  0.4096E-13  0.8589E-16  0.1000E-09  0.0000E+00  0.7166E+16
   -0.112506    0.34811  0.0000E+00  0.4096E-13  0.8589E-16  0.1000E-09  0.0000E+00  0.6945E+16
   -0.150009    0.46493  0.0000E+00  0.4096E-13  0.8589E-16  0.1000E-09  0.0000E+00  0.6716E+16
   -0.187512    0.58195  0.0000E+00  0.4096E-13  0.8589E-16  0.1000E-09  0.0000E+00  0.6481E+16
   -0.225015    0.69904  0.0000E+00  0.4096E-13  0.8589E-16  0.1000E-09  0.0000E+00  0.6240E+16
   -0.262518    0.81611  0.0000E+00  0.4096E-13  0.8589E-16  0.1000E-09  0.0000E+00  0.5992E+16
   -0.300022    0.93298  0.0000E+00  0.4096E-13  0.8589E-16  0.1000E-09  0.0000E+00  0.5741E+16
   -0.337526    1.04954  0.0000E+00  0.4096E-13  0.8589E-16  0.1000E-09  0.0000E+00  0.5487E+16
   -0.375030    1.16568  0.0000E+00  0.4096E-13  0.8589E-16  0.1000E-09  0.0000E+00  0.5238E+16
   -0.412535    1.28142  0.0000E+00  0.4096E-13  0.8589E-16  0.1000E-09  0.0000E+00  0.4991E+16
   -0.450039    1.39673  0.0000E+00  0.4096E-13  0.8589E-16  0.1000E-09  0.0000E+00  0.4744E+16
   -0.487544    1.51154  0.0000E+00  0.4096E-13  0.8589E-16  0.1000E-09  0.0000E+00  0.4497E+16
   -0.525049    1.62575  0.0000E+00  0.4096E-13  0.8589E-16  0.1000E-09  0.0000E+00  0.4249E+16
   -0.562554    1.73919  0.0000E+00  0.4096E-13  0.8589E-16  0.1000E-09  0.0000E+00  0.4003E+16
   -0.600059    1.85179  0.0000E+00  0.4096E-13  0.8589E-16  0.1000E-09  0.0000E+00  0.3760E+16
   -0.637564    1.96347  0.0000E+00  0.4096E-13  0.8589E-16  0.1000E-09  0.0000E+00  0.3520E+16
   -0.675069    2.07412  0.0000E+00  0.4096E-13  0.8589E-16  0.1000E-09  0.0000E+00  0.3284E+16
   -0.712574    2.18368  0.0000E+00  0.4096E-13  0.8589E-16  0.1000E-09  0.0000E+00  0.3052E+16
   -0.750079    2.29204  0.0000E+00  0.4096E-13  0.8589E-16  0.1000E-09  0.0000E+00  0.2833E+16
   -0.787584    2.39941  0.0000E+00  0.4096E-13  0.8589E-16  0.1000E-09  0.0000E+00  0.2620E+16
   -0.825090    2.50584  0.0000E+00  0.4096E-13  0.8589E-16  0.1000E-09  0.0000E+00  0.2412E+16
   -0.862595    2.61124  0.0000E+00  0.4096E-13  0.8589E-16  0.1000E-09  0.0000E+00  0.2207E+16
   -0.900100    2.71553  0.0000E+00  0.4096E-13  0.8589E-16  0.1000E-09  0.0000E+00  0.2008E+16
   -0.937605    2.81864  0.0000E+00  0.4096E-13  0.8589E-16  0.1000E-09  0.0000E+00  0.1813E+16
   -0.975110    2.92048  0.0000E+00  0.4096E-13  0.8589E-16  0.1000E-09  0.0000E+00  0.1624E+16
   -1.012615    3.02095  0.0000E+00  0.4096E-13  0.8589E-16  0.1000E-09  0.0000E+00  0.1437E+16
   -1.050119    3.11964  0.0000E+00  0.4096E-13  0.8589E-16  0.1000E-09  0.0000E+00  0.1255E+16
   -1.087624    3.21631  0.0000E+00  0.4096E-13  0.8589E-16  0.1000E-09  0.0000E+00  0.1082E+16
   -1.125128    3.31074  0.0000E+00  0.4278E-13  0.8589E-16  0.1000E-09  0.0000E+00  0.9315E+15
   -1.162632    3.40438  0.0000E+00  0.1810E-12  0.1799E-15  0.1000E-09  0.0000E+00  0.7868E+15
   -1.200136    3.49739  0.0000E+00  0.6706E-12  0.6062E-15  0.1000E-09  0.0000E+00  0.6450E+15
   -1.237640    3.58973  0.0000E+00  0.2349E-11  0.2056E-14  0.1000E-09  0.0000E+00  0.5061E+15
   -1.275144    3.68133  0.0000E+00  0.8175E-11  0.6980E-14  0.1000E-09  0.0000E+00  0.3703E+15
   -1.312647    3.77200  0.0000E+00  0.2825E-10  0.2362E-13  0.2568E-09  0.0000E+00  0.2383E+15
   -1.350150    3.86146  0.0000E+00  0.9676E-10  0.7977E-13  0.1738E-08  0.0000E+00  0.1111E+15
   -1.387653    3.94868  0.0000E+00  0.3248E-09  0.2694E-12  0.3833E-07  0.0000E+00  0.3891E+13
   -1.425155    4.01679  0.0000E+00  0.9086E-09  0.9372E-12  0.3392E-06  0.0000E+00 -0.1676E+14
   -1.462657    4.04172  0.0000E+00  0.9856E-09  0.1824E-11  0.1552E-06  0.0000E+00 -0.4621E+14
   -1.500159    4.08105  0.0000E+00  0.0000E+00  0.0000E+00  0.0000E+00  0.0000E+00  0.0000E+00
