 1 - depth, m
 2 - temperature, C
 3 - salinity, kg/kg
 4 - turbulent kinetic energy, m**2/s**2
 5 - dissipation rate, m**2/s**3
 6 - kinematic heat conductance, m**2/s
 7 - modulus of horizontal velocity, m/s
 8 - Richardson number, n/d
   -0.000000   10.47812  0.0000E+00  0.5676E-03  0.2955E-02  0.9820E-04  0.2888E+00  0.1140E-01
   -0.037503   10.53189  0.0000E+00  0.2995E-03  0.1369E-02  0.1323E-03  0.1022E+00 -0.1612E+00
   -0.075006   10.55422  0.0000E+00  0.1881E-03  0.3056E-03  0.2037E-03  0.6354E-01  0.3676E-01
   -0.112509   10.56442  0.0000E+00  0.1484E-03  0.1817E-03  0.2217E-03  0.4859E-01 -0.2555E-01
   -0.150013   10.56958  0.0000E+00  0.1231E-03  0.1202E-03  0.2306E-03  0.3985E-01 -0.1905E-01
   -0.187517   10.57298  0.0000E+00  0.1044E-03  0.7352E-04  0.2398E-03  0.3408E-01 -0.1741E+01
   -0.225022   10.57552  0.0000E+00  0.9091E-04  0.4932E-04  0.2462E-03  0.2973E-01  0.2111E-01
   -0.262526   10.57778  0.0000E+00  0.8000E-04  0.3191E-04  0.2550E-03  0.2620E-01 -0.2530E-01
   -0.300031   10.57999  0.0000E+00  0.7117E-04  0.2091E-04  0.2688E-03  0.2335E-01 -0.9240E-02
   -0.337537   10.58180  0.0000E+00  0.6446E-04  0.1453E-04  0.2804E-03  0.2119E-01  0.1643E-01
   -0.375042   10.58332  0.0000E+00  0.5894E-04  0.1013E-04  0.2901E-03  0.1936E-01 -0.3706E-01
   -0.412547   10.58476  0.0000E+00  0.5418E-04  0.7194E-05  0.3034E-03  0.1772E-01  0.2917E+00
   -0.450053   10.58609  0.0000E+00  0.5006E-04  0.5151E-05  0.3230E-03  0.1622E-01  0.3621E+02
   -0.487559   10.58733  0.0000E+00  0.4652E-04  0.3553E-05  0.3417E-03  0.1487E-01  0.1583E+02
   -0.525065   10.58853  0.0000E+00  0.4316E-04  0.2378E-05  0.3578E-03  0.1352E-01  0.1380E+03
   -0.562571   10.58963  0.0000E+00  0.4016E-04  0.1583E-05  0.3776E-03  0.1237E-01  0.2409E+02
   -0.600077   10.59064  0.0000E+00  0.3748E-04  0.1104E-05  0.3941E-03  0.1135E-01  0.3030E+01
   -0.637583   10.59160  0.0000E+00  0.3514E-04  0.8065E-06  0.4168E-03  0.1045E-01  0.2652E+02
   -0.675090   10.59251  0.0000E+00  0.3306E-04  0.6145E-06  0.4457E-03  0.9631E-02  0.5551E+02
   -0.712596   10.59339  0.0000E+00  0.3117E-04  0.4905E-06  0.4728E-03  0.8881E-02  0.1246E+02
   -0.750103   10.59416  0.0000E+00  0.2947E-04  0.4061E-06  0.4975E-03  0.8203E-02  0.1514E+02
   -0.787609   10.59489  0.0000E+00  0.2790E-04  0.3434E-06  0.5181E-03  0.7579E-02  0.6468E+02
   -0.825115   10.59558  0.0000E+00  0.2643E-04  0.2952E-06  0.5321E-03  0.6997E-02  0.2953E+01
   -0.862622   10.59624  0.0000E+00  0.2507E-04  0.2575E-06  0.5467E-03  0.6455E-02  0.1022E+02
   -0.900128   10.59689  0.0000E+00  0.2377E-04  0.2269E-06  0.5616E-03  0.5945E-02  0.5785E+01
   -0.937634   10.59751  0.0000E+00  0.2253E-04  0.2018E-06  0.5760E-03  0.5462E-02  0.1623E+03
   -0.975140   10.59811  0.0000E+00  0.2137E-04  0.1813E-06  0.5883E-03  0.5003E-02  0.2513E+02
   -1.012646   10.59869  0.0000E+00  0.2023E-04  0.1640E-06  0.5841E-03  0.4568E-02  0.4391E+02
   -1.050152   10.59928  0.0000E+00  0.1915E-04  0.1494E-06  0.6201E-03  0.4158E-02  0.4610E+01
   -1.087658   10.59983  0.0000E+00  0.1812E-04  0.1372E-06  0.6117E-03  0.3801E-02  0.4358E+01
   -1.125163   10.60038  0.0000E+00  0.1710E-04  0.1270E-06  0.5818E-03  0.3473E-02  0.9351E+01
   -1.162668   10.60095  0.0000E+00  0.1607E-04  0.1188E-06  0.5675E-03  0.3144E-02  0.1289E+03
   -1.200174   10.60153  0.0000E+00  0.1504E-04  0.1128E-06  0.5408E-03  0.2833E-02  0.2659E+01
   -1.237679   10.60213  0.0000E+00  0.1400E-04  0.1095E-06  0.5058E-03  0.2537E-02  0.6866E+01
   -1.275183   10.60277  0.0000E+00  0.1295E-04  0.1099E-06  0.4630E-03  0.2256E-02  0.3382E+01
   -1.312688   10.60347  0.0000E+00  0.1184E-04  0.1163E-06  0.4123E-03  0.2000E-02  0.1207E+02
   -1.350192   10.60426  0.0000E+00  0.1064E-04  0.1341E-06  0.3467E-03  0.1765E-02  0.5383E+01
   -1.387696   10.60522  0.0000E+00  0.9255E-05  0.1763E-06  0.2617E-03  0.1542E-02  0.1654E+02
   -1.425199   10.60651  0.0000E+00  0.7491E-05  0.2828E-06  0.1545E-03  0.1312E-02  0.1793E+04
   -1.462702   10.60882  0.0000E+00  0.4315E-05  0.6151E-06  0.2625E-04  0.1077E-02 -0.3518E+05
   -1.500205   10.62622  0.0000E+00  0.0000E+00  0.0000E+00  0.0000E+00  0.1210E-02  0.0000E+00
