 1 - depth, m
 2 - temperature, C
 3 - salinity, kg/kg
 4 - turbulent kinetic energy, m**2/s**2
 5 - dissipation rate, m**2/s**3
 6 - kinematic heat conductance, m**2/s
 7 - modulus of horizontal velocity, m/s
 8 - Richardson number, n/d
   -0.000000    0.00000  0.0000E+00  0.4096E-13  0.8590E-16  0.1000E-09  0.0000E+00  0.9038E+16
   -0.037497    0.13814  0.0000E+00  0.4096E-13  0.8590E-16  0.1000E-09  0.0000E+00  0.8599E+16
   -0.074995    0.27466  0.0000E+00  0.4096E-13  0.8590E-16  0.1000E-09  0.0000E+00  0.8173E+16
   -0.112493    0.40956  0.0000E+00  0.4096E-13  0.8590E-16  0.1000E-09  0.0000E+00  0.7760E+16
   -0.149991    0.54284  0.0000E+00  0.4096E-13  0.8590E-16  0.1000E-09  0.0000E+00  0.7359E+16
   -0.187489    0.67448  0.0000E+00  0.4096E-13  0.8590E-16  0.1000E-09  0.0000E+00  0.6969E+16
   -0.224988    0.80446  0.0000E+00  0.4096E-13  0.8590E-16  0.1000E-09  0.0000E+00  0.6591E+16
   -0.262487    0.93275  0.0000E+00  0.4096E-13  0.8590E-16  0.1000E-09  0.0000E+00  0.6216E+16
   -0.299986    1.05916  0.0000E+00  0.4096E-13  0.8590E-16  0.1000E-09  0.0000E+00  0.5851E+16
   -0.337486    1.18362  0.0000E+00  0.4096E-13  0.8590E-16  0.1000E-09  0.0000E+00  0.5497E+16
   -0.374986    1.30607  0.0000E+00  0.4096E-13  0.8590E-16  0.1000E-09  0.0000E+00  0.5179E+16
   -0.412485    1.42705  0.0000E+00  0.4096E-13  0.8590E-16  0.1000E-09  0.0000E+00  0.4884E+16
   -0.449986    1.54687  0.0000E+00  0.4096E-13  0.8590E-16  0.1000E-09  0.0000E+00  0.4596E+16
   -0.487486    1.66551  0.0000E+00  0.4096E-13  0.8590E-16  0.1000E-09  0.0000E+00  0.4315E+16
   -0.524986    1.78292  0.0000E+00  0.4096E-13  0.8590E-16  0.1000E-09  0.0000E+00  0.4036E+16
   -0.562487    1.89894  0.0000E+00  0.4096E-13  0.8590E-16  0.1000E-09  0.0000E+00  0.3764E+16
   -0.599987    2.01351  0.0000E+00  0.4096E-13  0.8590E-16  0.1000E-09  0.0000E+00  0.3500E+16
   -0.637488    2.12659  0.0000E+00  0.4096E-13  0.8590E-16  0.1000E-09  0.0000E+00  0.3244E+16
   -0.674988    2.23812  0.0000E+00  0.4096E-13  0.8590E-16  0.1000E-09  0.0000E+00  0.2995E+16
   -0.712489    2.34803  0.0000E+00  0.4096E-13  0.8590E-16  0.1000E-09  0.0000E+00  0.2754E+16
   -0.749990    2.45625  0.0000E+00  0.4096E-13  0.8590E-16  0.1000E-09  0.0000E+00  0.2545E+16
   -0.787491    2.56372  0.0000E+00  0.4096E-13  0.8590E-16  0.1000E-09  0.0000E+00  0.2347E+16
   -0.824991    2.67077  0.0000E+00  0.4096E-13  0.8590E-16  0.1000E-09  0.0000E+00  0.2151E+16
   -0.862492    2.77739  0.0000E+00  0.4096E-13  0.8590E-16  0.1000E-09  0.0000E+00  0.1958E+16
   -0.899993    2.88356  0.0000E+00  0.1049E-12  0.8590E-16  0.1000E-09  0.0000E+00  0.1768E+16
   -0.937493    2.98926  0.0000E+00  0.3347E-12  0.1770E-15  0.1000E-09  0.0000E+00  0.1580E+16
   -0.974994    3.09448  0.0000E+00  0.9089E-12  0.4382E-15  0.1000E-09  0.0000E+00  0.1395E+16
   -1.012494    3.19918  0.0000E+00  0.2343E-11  0.1087E-14  0.1000E-09  0.0000E+00  0.1213E+16
   -1.049994    3.30328  0.0000E+00  0.5932E-11  0.2673E-14  0.1000E-09  0.0000E+00  0.1033E+16
   -1.087494    3.40672  0.0000E+00  0.1484E-10  0.6506E-14  0.1000E-09  0.0000E+00  0.8571E+15
   -1.124994    3.50943  0.0000E+00  0.3674E-10  0.1568E-13  0.1000E-09  0.0000E+00  0.6931E+15
   -1.162494    3.61280  0.0000E+00  0.9008E-10  0.3746E-13  0.1955E-09  0.0000E+00  0.5275E+15
   -1.199993    3.71704  0.0000E+00  0.2188E-09  0.8868E-13  0.6805E-09  0.0000E+00  0.3577E+15
   -1.237493    3.82200  0.0000E+00  0.5258E-09  0.2080E-12  0.3076E-08  0.0000E+00  0.1838E+15
   -1.274992    3.92652  0.0000E+00  0.1242E-08  0.4814E-12  0.4774E-07  0.0000E+00  0.2431E+14
   -1.312491    4.00804  0.0000E+00  0.2400E-08  0.9447E-12  0.2374E-05  0.0000E+00 -0.2452E+13
   -1.349989    4.01433  0.0000E+00  0.2988E-08  0.1327E-11  0.2493E-05  0.0000E+00 -0.3051E+13
   -1.387487    4.02059  0.0000E+00  0.3302E-08  0.1843E-11  0.2071E-05  0.0000E+00 -0.4688E+13
   -1.424985    4.02842  0.0000E+00  0.3249E-08  0.2786E-11  0.1211E-05  0.0000E+00 -0.1052E+14
   -1.462483    4.04215  0.0000E+00  0.2603E-08  0.5498E-11  0.3162E-06  0.0000E+00 -0.5459E+14
   -1.499980    4.08678  0.0000E+00  0.0000E+00  0.0000E+00  0.0000E+00  0.0000E+00  0.0000E+00
