 1 - depth, m
 2 - temperature, C
 3 - salinity, kg/kg
 4 - turbulent kinetic energy, m**2/s**2
 5 - dissipation rate, m**2/s**3
 6 - kinematic heat conductance, m**2/s
 7 - modulus of horizontal velocity, m/s
 8 - Richardson number, n/d
   -0.000000    0.00000  0.0000E+00  0.4096E-13  0.8590E-16  0.1000E-09  0.0000E+00  0.1023E+17
   -0.037494    0.15682  0.0000E+00  0.4096E-13  0.8590E-16  0.1000E-09  0.0000E+00  0.9686E+16
   -0.074989    0.31181  0.0000E+00  0.4096E-13  0.8590E-16  0.1000E-09  0.0000E+00  0.9155E+16
   -0.112484    0.46498  0.0000E+00  0.4096E-13  0.8590E-16  0.1000E-09  0.0000E+00  0.8640E+16
   -0.149979    0.61631  0.0000E+00  0.4096E-13  0.8590E-16  0.1000E-09  0.0000E+00  0.8141E+16
   -0.187474    0.76579  0.0000E+00  0.4096E-13  0.8590E-16  0.1000E-09  0.0000E+00  0.7658E+16
   -0.224970    0.91342  0.0000E+00  0.4096E-13  0.8590E-16  0.1000E-09  0.0000E+00  0.7191E+16
   -0.262466    1.05917  0.0000E+00  0.4096E-13  0.8590E-16  0.1000E-09  0.0000E+00  0.6732E+16
   -0.299963    1.20288  0.0000E+00  0.4096E-13  0.8590E-16  0.1000E-09  0.0000E+00  0.6288E+16
   -0.337459    1.34451  0.0000E+00  0.4096E-13  0.8590E-16  0.1000E-09  0.0000E+00  0.5859E+16
   -0.374956    1.48401  0.0000E+00  0.4096E-13  0.8590E-16  0.1000E-09  0.0000E+00  0.5471E+16
   -0.412453    1.62201  0.0000E+00  0.4096E-13  0.8590E-16  0.1000E-09  0.0000E+00  0.5108E+16
   -0.449950    1.75889  0.0000E+00  0.4096E-13  0.8590E-16  0.1000E-09  0.0000E+00  0.4754E+16
   -0.487447    1.89464  0.0000E+00  0.4104E-13  0.8590E-16  0.1000E-09  0.0000E+00  0.4409E+16
   -0.524944    2.02923  0.0000E+00  0.2030E-12  0.8590E-16  0.1000E-09  0.0000E+00  0.4070E+16
   -0.562442    2.16256  0.0000E+00  0.5317E-12  0.1434E-15  0.1000E-09  0.0000E+00  0.3739E+16
   -0.599940    2.29459  0.0000E+00  0.1141E-11  0.2710E-15  0.1000E-09  0.0000E+00  0.3418E+16
   -0.637437    2.42530  0.0000E+00  0.2279E-11  0.5158E-15  0.1000E-09  0.0000E+00  0.3105E+16
   -0.674935    2.55463  0.0000E+00  0.4427E-11  0.9739E-15  0.1000E-09  0.0000E+00  0.2801E+16
   -0.712433    2.68253  0.0000E+00  0.8481E-11  0.1824E-14  0.1000E-09  0.0000E+00  0.2506E+16
   -0.749930    2.80895  0.0000E+00  0.1611E-10  0.3393E-14  0.1000E-09  0.0000E+00  0.2237E+16
   -0.787428    2.93482  0.0000E+00  0.3041E-10  0.6273E-14  0.1000E-09  0.0000E+00  0.1977E+16
   -0.824926    3.06046  0.0000E+00  0.5705E-10  0.1154E-13  0.1000E-09  0.0000E+00  0.1719E+16
   -0.862424    3.18587  0.0000E+00  0.1064E-09  0.2110E-13  0.1000E-09  0.0000E+00  0.1464E+16
   -0.899921    3.31103  0.0000E+00  0.1975E-09  0.3838E-13  0.1000E-09  0.0000E+00  0.1211E+16
   -0.937419    3.43590  0.0000E+00  0.3646E-09  0.6948E-13  0.2009E-09  0.0000E+00  0.9592E+15
   -0.974916    3.56037  0.0000E+00  0.6694E-09  0.1251E-12  0.4885E-09  0.0000E+00  0.7104E+15
   -1.012414    3.68422  0.0000E+00  0.1225E-08  0.2246E-12  0.1339E-08  0.0000E+00  0.4648E+15
   -1.049911    3.80702  0.0000E+00  0.2232E-08  0.4018E-12  0.4960E-08  0.0000E+00  0.2241E+15
   -1.087408    3.92643  0.0000E+00  0.3931E-08  0.6975E-12  0.7556E-07  0.0000E+00  0.2485E+14
   -1.124905    4.00666  0.0000E+00  0.4879E-08  0.8720E-12  0.1108E-04  0.0000E+00 -0.5116E+12
   -1.162402    4.00821  0.0000E+00  0.5316E-08  0.9729E-12  0.1149E-04  0.0000E+00 -0.5335E+12
   -1.199898    4.00971  0.0000E+00  0.5657E-08  0.1078E-11  0.1148E-04  0.0000E+00 -0.5732E+12
   -1.237395    4.01123  0.0000E+00  0.5906E-08  0.1194E-11  0.1104E-04  0.0000E+00 -0.6386E+12
   -1.274891    4.01281  0.0000E+00  0.6065E-08  0.1333E-11  0.1017E-04  0.0000E+00 -0.7460E+12
   -1.312386    4.01455  0.0000E+00  0.6118E-08  0.1515E-11  0.8817E-05  0.0000E+00 -0.9314E+12
   -1.349882    4.01658  0.0000E+00  0.6027E-08  0.1777E-11  0.6968E-05  0.0000E+00 -0.1291E+13
   -1.387377    4.01919  0.0000E+00  0.5709E-08  0.2222E-11  0.4661E-05  0.0000E+00 -0.2162E+13
   -1.424872    4.02315  0.0000E+00  0.4950E-08  0.3205E-11  0.2153E-05  0.0000E+00 -0.5524E+13
   -1.462367    4.03173  0.0000E+00  0.3322E-08  0.6651E-11  0.3652E-06  0.0000E+00 -0.4205E+14
   -1.499861    4.07254  0.0000E+00  0.0000E+00  0.0000E+00  0.0000E+00  0.0000E+00  0.0000E+00
