 1 - depth, m
 2 - temperature, C
 3 - salinity, kg/kg
 4 - turbulent kinetic energy, m**2/s**2
 5 - dissipation rate, m**2/s**3
 6 - kinematic heat conductance, m**2/s
 7 - modulus of horizontal velocity, m/s
 8 - Richardson number, n/d
   -0.000000    0.00000  0.0000E+00  0.4096E-13  0.8590E-16  0.1000E-09  0.0000E+00  0.9344E+16
   -0.037495    0.14290  0.0000E+00  0.4096E-13  0.8590E-16  0.1000E-09  0.0000E+00  0.8951E+16
   -0.074989    0.28531  0.0000E+00  0.4096E-13  0.8590E-16  0.1000E-09  0.0000E+00  0.8556E+16
   -0.112485    0.42713  0.0000E+00  0.4096E-13  0.8590E-16  0.1000E-09  0.0000E+00  0.8163E+16
   -0.149980    0.56824  0.0000E+00  0.4096E-13  0.8590E-16  0.1000E-09  0.0000E+00  0.7771E+16
   -0.187476    0.70855  0.0000E+00  0.4096E-13  0.8590E-16  0.1000E-09  0.0000E+00  0.7381E+16
   -0.224972    0.84796  0.0000E+00  0.4096E-13  0.8590E-16  0.1000E-09  0.0000E+00  0.6995E+16
   -0.262469    0.98638  0.0000E+00  0.4096E-13  0.8590E-16  0.1000E-09  0.0000E+00  0.6609E+16
   -0.299965    1.12363  0.0000E+00  0.4096E-13  0.8590E-16  0.1000E-09  0.0000E+00  0.6228E+16
   -0.337462    1.25961  0.0000E+00  0.4096E-13  0.8590E-16  0.1000E-09  0.0000E+00  0.5854E+16
   -0.374959    1.39421  0.0000E+00  0.4096E-13  0.8590E-16  0.1000E-09  0.0000E+00  0.5497E+16
   -0.412456    1.52761  0.0000E+00  0.4096E-13  0.8590E-16  0.1000E-09  0.0000E+00  0.5153E+16
   -0.449954    1.65991  0.0000E+00  0.4096E-13  0.8590E-16  0.1000E-09  0.0000E+00  0.4815E+16
   -0.487451    1.79101  0.0000E+00  0.4096E-13  0.8590E-16  0.1000E-09  0.0000E+00  0.4483E+16
   -0.524949    1.92083  0.0000E+00  0.4096E-13  0.8590E-16  0.1000E-09  0.0000E+00  0.4156E+16
   -0.562447    2.04921  0.0000E+00  0.4096E-13  0.8590E-16  0.1000E-09  0.0000E+00  0.3837E+16
   -0.599945    2.17608  0.0000E+00  0.4096E-13  0.8590E-16  0.1000E-09  0.0000E+00  0.3526E+16
   -0.637443    2.30132  0.0000E+00  0.4096E-13  0.8590E-16  0.1000E-09  0.0000E+00  0.3224E+16
   -0.674941    2.42484  0.0000E+00  0.4096E-13  0.8590E-16  0.1000E-09  0.0000E+00  0.2930E+16
   -0.712439    2.54655  0.0000E+00  0.6703E-13  0.8590E-16  0.1000E-09  0.0000E+00  0.2647E+16
   -0.749937    2.66634  0.0000E+00  0.2572E-12  0.1052E-15  0.1000E-09  0.0000E+00  0.2382E+16
   -0.787435    2.78455  0.0000E+00  0.6531E-12  0.2031E-15  0.1000E-09  0.0000E+00  0.2129E+16
   -0.824933    2.90125  0.0000E+00  0.1447E-11  0.4163E-15  0.1000E-09  0.0000E+00  0.1883E+16
   -0.862431    3.01633  0.0000E+00  0.3059E-11  0.8489E-15  0.1000E-09  0.0000E+00  0.1645E+16
   -0.899929    3.12968  0.0000E+00  0.6338E-11  0.1715E-14  0.1000E-09  0.0000E+00  0.1417E+16
   -0.937427    3.24116  0.0000E+00  0.1299E-10  0.3434E-14  0.1000E-09  0.0000E+00  0.1197E+16
   -0.974925    3.35064  0.0000E+00  0.2642E-10  0.6828E-14  0.1000E-09  0.0000E+00  0.9873E+15
   -1.012423    3.45793  0.0000E+00  0.5345E-10  0.1351E-13  0.1000E-09  0.0000E+00  0.7864E+15
   -1.049920    3.56259  0.0000E+00  0.1078E-09  0.2667E-13  0.1236E-09  0.0000E+00  0.5976E+15
   -1.087418    3.66429  0.0000E+00  0.2162E-09  0.5236E-13  0.3431E-09  0.0000E+00  0.4223E+15
   -1.124915    3.76266  0.0000E+00  0.4310E-09  0.1022E-12  0.1061E-08  0.0000E+00  0.2662E+15
   -1.162412    3.85932  0.0000E+00  0.8531E-09  0.1983E-12  0.4633E-08  0.0000E+00  0.1176E+15
   -1.199909    3.95283  0.0000E+00  0.1610E-08  0.3689E-12  0.1347E-06  0.0000E+00  0.6881E+13
   -1.237406    4.00247  0.0000E+00  0.2399E-08  0.5592E-12  0.4165E-05  0.0000E+00 -0.8738E+12
   -1.274902    4.00562  0.0000E+00  0.2807E-08  0.6945E-12  0.4448E-05  0.0000E+00 -0.9713E+12
   -1.312398    4.00861  0.0000E+00  0.3089E-08  0.8459E-12  0.4269E-05  0.0000E+00 -0.1172E+13
   -1.349894    4.01174  0.0000E+00  0.3234E-08  0.1040E-11  0.3645E-05  0.0000E+00 -0.1583E+13
   -1.387390    4.01545  0.0000E+00  0.3197E-08  0.1336E-11  0.2602E-05  0.0000E+00 -0.2587E+13
   -1.424885    4.02065  0.0000E+00  0.2860E-08  0.1927E-11  0.1292E-05  0.0000E+00 -0.6305E+13
   -1.462380    4.03086  0.0000E+00  0.2028E-08  0.3742E-11  0.2562E-06  0.0000E+00 -0.3798E+14
   -1.499874    4.06900  0.0000E+00  0.0000E+00  0.0000E+00  0.0000E+00  0.0000E+00  0.0000E+00
