 1 - depth, m
 2 - temperature, C
 3 - salinity, kg/kg
 4 - turbulent kinetic energy, m**2/s**2
 5 - dissipation rate, m**2/s**3
 6 - kinematic heat conductance, m**2/s
 7 - modulus of horizontal velocity, m/s
 8 - Richardson number, n/d
   -0.000000    0.00000  0.0000E+00  0.4096E-13  0.8590E-16  0.1000E-09  0.0000E+00  0.9690E+16
   -0.037499    0.14830  0.0000E+00  0.4096E-13  0.8590E-16  0.1000E-09  0.0000E+00  0.9223E+16
   -0.074998    0.29537  0.0000E+00  0.4096E-13  0.8590E-16  0.1000E-09  0.0000E+00  0.8762E+16
   -0.112498    0.44109  0.0000E+00  0.4096E-13  0.8590E-16  0.1000E-09  0.0000E+00  0.8307E+16
   -0.149998    0.58537  0.0000E+00  0.4096E-13  0.8590E-16  0.1000E-09  0.0000E+00  0.7859E+16
   -0.187498    0.72810  0.0000E+00  0.4096E-13  0.8590E-16  0.1000E-09  0.0000E+00  0.7419E+16
   -0.224998    0.86918  0.0000E+00  0.4096E-13  0.8590E-16  0.1000E-09  0.0000E+00  0.6989E+16
   -0.262499    1.00852  0.0000E+00  0.4096E-13  0.8590E-16  0.1000E-09  0.0000E+00  0.6558E+16
   -0.300000    1.14579  0.0000E+00  0.4096E-13  0.8590E-16  0.1000E-09  0.0000E+00  0.6136E+16
   -0.337501    1.28086  0.0000E+00  0.4096E-13  0.8590E-16  0.1000E-09  0.0000E+00  0.5727E+16
   -0.375003    1.41361  0.0000E+00  0.4096E-13  0.8590E-16  0.1000E-09  0.0000E+00  0.5361E+16
   -0.412504    1.54470  0.0000E+00  0.4096E-13  0.8590E-16  0.1000E-09  0.0000E+00  0.5022E+16
   -0.450006    1.67453  0.0000E+00  0.4096E-13  0.8590E-16  0.1000E-09  0.0000E+00  0.4691E+16
   -0.487508    1.80305  0.0000E+00  0.4096E-13  0.8590E-16  0.1000E-09  0.0000E+00  0.4368E+16
   -0.525010    1.93020  0.0000E+00  0.4096E-13  0.8590E-16  0.1000E-09  0.0000E+00  0.4048E+16
   -0.562512    2.05576  0.0000E+00  0.4096E-13  0.8590E-16  0.1000E-09  0.0000E+00  0.3738E+16
   -0.600014    2.17970  0.0000E+00  0.4096E-13  0.8590E-16  0.1000E-09  0.0000E+00  0.3438E+16
   -0.637517    2.30197  0.0000E+00  0.4859E-13  0.8590E-16  0.1000E-09  0.0000E+00  0.3148E+16
   -0.675019    2.42253  0.0000E+00  0.2192E-12  0.9407E-16  0.1000E-09  0.0000E+00  0.2868E+16
   -0.712521    2.54135  0.0000E+00  0.5732E-12  0.1764E-15  0.1000E-09  0.0000E+00  0.2598E+16
   -0.750024    2.65837  0.0000E+00  0.1272E-11  0.3573E-15  0.1000E-09  0.0000E+00  0.2367E+16
   -0.787526    2.77502  0.0000E+00  0.2672E-11  0.7214E-15  0.1000E-09  0.0000E+00  0.2149E+16
   -0.825029    2.89183  0.0000E+00  0.5485E-11  0.1442E-14  0.1000E-09  0.0000E+00  0.1931E+16
   -0.862531    3.00889  0.0000E+00  0.1113E-10  0.2859E-14  0.1000E-09  0.0000E+00  0.1714E+16
   -0.900033    3.12628  0.0000E+00  0.2240E-10  0.5624E-14  0.1000E-09  0.0000E+00  0.1497E+16
   -0.937536    3.24408  0.0000E+00  0.4474E-10  0.1099E-13  0.1000E-09  0.0000E+00  0.1280E+16
   -0.975038    3.36240  0.0000E+00  0.8878E-10  0.2134E-13  0.1000E-09  0.0000E+00  0.1061E+16
   -1.012540    3.48130  0.0000E+00  0.1754E-09  0.4125E-13  0.1362E-09  0.0000E+00  0.8398E+15
   -1.050042    3.60086  0.0000E+00  0.3454E-09  0.7952E-13  0.3579E-09  0.0000E+00  0.6156E+15
   -1.087543    3.72100  0.0000E+00  0.6766E-09  0.1525E-12  0.1088E-08  0.0000E+00  0.3881E+15
   -1.125045    3.84140  0.0000E+00  0.1315E-08  0.2906E-12  0.5026E-08  0.0000E+00  0.1593E+15
   -1.162546    3.96013  0.0000E+00  0.2354E-08  0.5143E-12  0.2933E-06  0.0000E+00  0.3764E+13
   -1.200048    4.00069  0.0000E+00  0.3262E-08  0.7285E-12  0.5527E-05  0.0000E+00 -0.7788E+12
   -1.237549    4.00381  0.0000E+00  0.3763E-08  0.8845E-12  0.6020E-05  0.0000E+00 -0.8606E+12
   -1.275049    4.00671  0.0000E+00  0.4150E-08  0.1059E-11  0.6030E-05  0.0000E+00 -0.1008E+13
   -1.312550    4.00966  0.0000E+00  0.4424E-08  0.1274E-11  0.5566E-05  0.0000E+00 -0.1270E+13
   -1.350050    4.01290  0.0000E+00  0.4561E-08  0.1571E-11  0.4635E-05  0.0000E+00 -0.1784E+13
   -1.387550    4.01689  0.0000E+00  0.4498E-08  0.2050E-11  0.3266E-05  0.0000E+00 -0.3033E+13
   -1.425049    4.02268  0.0000E+00  0.4074E-08  0.3047E-11  0.1633E-05  0.0000E+00 -0.7699E+13
   -1.462549    4.03433  0.0000E+00  0.3001E-08  0.6238E-11  0.3489E-06  0.0000E+00 -0.5005E+14
   -1.500048    4.07960  0.0000E+00  0.0000E+00  0.0000E+00  0.0000E+00  0.0000E+00  0.0000E+00
