 1 - depth, m
 2 - temperature, C
 3 - salinity, kg/kg
 4 - turbulent kinetic energy, m**2/s**2
 5 - dissipation rate, m**2/s**3
 6 - kinematic heat conductance, m**2/s
 7 - modulus of horizontal velocity, m/s
 8 - Richardson number, n/d
   -0.000000    0.00000  0.0000E+00  0.4096E-13  0.8590E-16  0.1000E-09  0.0000E+00  0.7593E+16
   -0.037494    0.11569  0.0000E+00  0.4096E-13  0.8590E-16  0.1000E-09  0.0000E+00  0.7358E+16
   -0.074988    0.23145  0.0000E+00  0.4096E-13  0.8590E-16  0.1000E-09  0.0000E+00  0.7120E+16
   -0.112483    0.34718  0.0000E+00  0.4096E-13  0.8590E-16  0.1000E-09  0.0000E+00  0.6878E+16
   -0.149978    0.46282  0.0000E+00  0.4096E-13  0.8590E-16  0.1000E-09  0.0000E+00  0.6633E+16
   -0.187474    0.57830  0.0000E+00  0.4096E-13  0.8590E-16  0.1000E-09  0.0000E+00  0.6387E+16
   -0.224969    0.69354  0.0000E+00  0.4096E-13  0.8590E-16  0.1000E-09  0.0000E+00  0.6139E+16
   -0.262465    0.80847  0.0000E+00  0.4096E-13  0.8590E-16  0.1000E-09  0.0000E+00  0.5888E+16
   -0.299961    0.92297  0.0000E+00  0.4096E-13  0.8590E-16  0.1000E-09  0.0000E+00  0.5636E+16
   -0.337458    1.03694  0.0000E+00  0.4096E-13  0.8590E-16  0.1000E-09  0.0000E+00  0.5384E+16
   -0.374954    1.15031  0.0000E+00  0.4096E-13  0.8590E-16  0.1000E-09  0.0000E+00  0.5140E+16
   -0.412451    1.26317  0.0000E+00  0.4096E-13  0.8590E-16  0.1000E-09  0.0000E+00  0.4901E+16
   -0.449948    1.37554  0.0000E+00  0.4096E-13  0.8590E-16  0.1000E-09  0.0000E+00  0.4663E+16
   -0.487445    1.48735  0.0000E+00  0.4096E-13  0.8590E-16  0.1000E-09  0.0000E+00  0.4426E+16
   -0.524942    1.59853  0.0000E+00  0.4096E-13  0.8590E-16  0.1000E-09  0.0000E+00  0.4189E+16
   -0.562440    1.70893  0.0000E+00  0.4096E-13  0.8590E-16  0.1000E-09  0.0000E+00  0.3953E+16
   -0.599937    1.81849  0.0000E+00  0.4096E-13  0.8590E-16  0.1000E-09  0.0000E+00  0.3720E+16
   -0.637435    1.92711  0.0000E+00  0.4096E-13  0.8590E-16  0.1000E-09  0.0000E+00  0.3491E+16
   -0.674932    2.03472  0.0000E+00  0.4096E-13  0.8590E-16  0.1000E-09  0.0000E+00  0.3265E+16
   -0.712430    2.14123  0.0000E+00  0.4096E-13  0.8590E-16  0.1000E-09  0.0000E+00  0.3043E+16
   -0.749928    2.24654  0.0000E+00  0.4096E-13  0.8590E-16  0.1000E-09  0.0000E+00  0.2836E+16
   -0.787425    2.35096  0.0000E+00  0.4096E-13  0.8590E-16  0.1000E-09  0.0000E+00  0.2635E+16
   -0.824923    2.45453  0.0000E+00  0.4096E-13  0.8590E-16  0.1000E-09  0.0000E+00  0.2438E+16
   -0.862420    2.55718  0.0000E+00  0.4096E-13  0.8590E-16  0.1000E-09  0.0000E+00  0.2244E+16
   -0.899918    2.65886  0.0000E+00  0.4096E-13  0.8590E-16  0.1000E-09  0.0000E+00  0.2054E+16
   -0.937415    2.75948  0.0000E+00  0.4096E-13  0.8590E-16  0.1000E-09  0.0000E+00  0.1869E+16
   -0.974913    2.85896  0.0000E+00  0.4096E-13  0.8590E-16  0.1000E-09  0.0000E+00  0.1688E+16
   -1.012410    2.95723  0.0000E+00  0.4096E-13  0.8590E-16  0.1000E-09  0.0000E+00  0.1510E+16
   -1.049907    3.05399  0.0000E+00  0.4096E-13  0.8590E-16  0.1000E-09  0.0000E+00  0.1336E+16
   -1.087404    3.14906  0.0000E+00  0.4096E-13  0.8590E-16  0.1000E-09  0.0000E+00  0.1169E+16
   -1.124901    3.24228  0.0000E+00  0.4096E-13  0.8590E-16  0.1000E-09  0.0000E+00  0.1023E+16
   -1.162397    3.33487  0.0000E+00  0.4096E-13  0.8590E-16  0.1000E-09  0.0000E+00  0.8821E+15
   -1.199894    3.42701  0.0000E+00  0.5154E-13  0.8662E-16  0.1000E-09  0.0000E+00  0.7432E+15
   -1.237390    3.51866  0.0000E+00  0.2229E-12  0.2805E-15  0.1000E-09  0.0000E+00  0.6067E+15
   -1.274886    3.60980  0.0000E+00  0.9489E-12  0.1150E-14  0.1000E-09  0.0000E+00  0.4729E+15
   -1.312381    3.70049  0.0000E+00  0.3971E-11  0.4736E-14  0.1000E-09  0.0000E+00  0.3414E+15
   -1.349877    3.79069  0.0000E+00  0.1648E-10  0.1951E-13  0.2201E-09  0.0000E+00  0.2122E+15
   -1.387372    3.88030  0.0000E+00  0.6793E-10  0.8116E-13  0.1886E-08  0.0000E+00  0.8558E+14
   -1.424867    3.96830  0.0000E+00  0.2723E-09  0.3464E-12  0.4570E-07  0.0000E+00 -0.1614E+14
   -1.462361    4.03522  0.0000E+00  0.6862E-09  0.1310E-11  0.1223E-06  0.0000E+00 -0.5402E+14
   -1.499855    4.08273  0.0000E+00  0.0000E+00  0.0000E+00  0.0000E+00  0.0000E+00  0.0000E+00
