 1 - depth, m
 2 - temperature, C
 3 - salinity, kg/kg
 4 - turbulent kinetic energy, m**2/s**2
 5 - dissipation rate, m**2/s**3
 6 - kinematic heat conductance, m**2/s
 7 - modulus of horizontal velocity, m/s
 8 - Richardson number, n/d
   -0.000000    0.00000  0.0000E+00  0.4096E-13  0.8590E-16  0.1000E-09  0.0000E+00  0.1024E+17
   -0.037497    0.15684  0.0000E+00  0.4096E-13  0.8590E-16  0.1000E-09  0.0000E+00  0.9626E+16
   -0.074994    0.31085  0.0000E+00  0.4096E-13  0.8590E-16  0.1000E-09  0.0000E+00  0.9048E+16
   -0.112491    0.46215  0.0000E+00  0.4096E-13  0.8590E-16  0.1000E-09  0.0000E+00  0.8496E+16
   -0.149989    0.61077  0.0000E+00  0.4096E-13  0.8590E-16  0.1000E-09  0.0000E+00  0.7970E+16
   -0.187487    0.75678  0.0000E+00  0.4096E-13  0.8590E-16  0.1000E-09  0.0000E+00  0.7467E+16
   -0.224986    0.90019  0.0000E+00  0.4096E-13  0.8590E-16  0.1000E-09  0.0000E+00  0.6985E+16
   -0.262484    1.04100  0.0000E+00  0.4096E-13  0.8590E-16  0.1000E-09  0.0000E+00  0.6511E+16
   -0.299983    1.17893  0.0000E+00  0.4096E-13  0.8590E-16  0.1000E-09  0.0000E+00  0.6054E+16
   -0.337482    1.31387  0.0000E+00  0.4096E-13  0.8590E-16  0.1000E-09  0.0000E+00  0.5618E+16
   -0.374981    1.44579  0.0000E+00  0.4096E-13  0.8590E-16  0.1000E-09  0.0000E+00  0.5239E+16
   -0.412481    1.57559  0.0000E+00  0.4096E-13  0.8590E-16  0.1000E-09  0.0000E+00  0.4896E+16
   -0.449981    1.70385  0.0000E+00  0.4096E-13  0.8590E-16  0.1000E-09  0.0000E+00  0.4564E+16
   -0.487480    1.83055  0.0000E+00  0.4096E-13  0.8590E-16  0.1000E-09  0.0000E+00  0.4242E+16
   -0.524980    1.95564  0.0000E+00  0.4096E-13  0.8590E-16  0.1000E-09  0.0000E+00  0.3925E+16
   -0.562480    2.07893  0.0000E+00  0.4096E-13  0.8590E-16  0.1000E-09  0.0000E+00  0.3619E+16
   -0.599981    2.20039  0.0000E+00  0.4157E-13  0.8590E-16  0.1000E-09  0.0000E+00  0.3325E+16
   -0.637481    2.32000  0.0000E+00  0.1623E-12  0.8620E-16  0.1000E-09  0.0000E+00  0.3042E+16
   -0.674981    2.43777  0.0000E+00  0.4512E-12  0.1370E-15  0.1000E-09  0.0000E+00  0.2772E+16
   -0.712481    2.55368  0.0000E+00  0.1012E-11  0.2650E-15  0.1000E-09  0.0000E+00  0.2513E+16
   -0.749982    2.66775  0.0000E+00  0.2100E-11  0.5215E-15  0.1000E-09  0.0000E+00  0.2298E+16
   -0.787482    2.78171  0.0000E+00  0.4226E-11  0.1019E-14  0.1000E-09  0.0000E+00  0.2097E+16
   -0.824982    2.89629  0.0000E+00  0.8379E-11  0.1973E-14  0.1000E-09  0.0000E+00  0.1897E+16
   -0.862483    3.01166  0.0000E+00  0.1646E-10  0.3791E-14  0.1000E-09  0.0000E+00  0.1695E+16
   -0.899983    3.12803  0.0000E+00  0.3210E-10  0.7235E-14  0.1000E-09  0.0000E+00  0.1492E+16
   -0.937483    3.24563  0.0000E+00  0.6218E-10  0.1372E-13  0.1000E-09  0.0000E+00  0.1284E+16
   -0.974983    3.36471  0.0000E+00  0.1197E-09  0.2585E-13  0.1000E-09  0.0000E+00  0.1071E+16
   -1.012483    3.48548  0.0000E+00  0.2292E-09  0.4848E-13  0.1580E-09  0.0000E+00  0.8510E+15
   -1.049983    3.60826  0.0000E+00  0.4379E-09  0.9068E-13  0.4045E-09  0.0000E+00  0.6210E+15
   -1.087482    3.73328  0.0000E+00  0.8319E-09  0.1687E-12  0.1231E-08  0.0000E+00  0.3790E+15
   -1.124982    3.86060  0.0000E+00  0.1567E-08  0.3114E-12  0.6911E-08  0.0000E+00  0.1242E+15
   -1.162481    3.98663  0.0000E+00  0.2390E-08  0.4747E-12  0.2712E-05  0.0000E+00 -0.3620E+12
   -1.199980    3.99405  0.0000E+00  0.2950E-08  0.6195E-12  0.4548E-05  0.0000E+00 -0.6301E+12
   -1.237479    3.99818  0.0000E+00  0.3408E-08  0.7731E-12  0.5241E-05  0.0000E+00 -0.7694E+12
   -1.274978    4.00178  0.0000E+00  0.3787E-08  0.9523E-12  0.5374E-05  0.0000E+00 -0.9584E+12
   -1.312476    4.00533  0.0000E+00  0.4080E-08  0.1178E-11  0.5022E-05  0.0000E+00 -0.1263E+13
   -1.349974    4.00918  0.0000E+00  0.4256E-08  0.1490E-11  0.4216E-05  0.0000E+00 -0.1838E+13
   -1.387472    4.01385  0.0000E+00  0.4249E-08  0.1992E-11  0.2998E-05  0.0000E+00 -0.3214E+13
   -1.424970    4.02050  0.0000E+00  0.3907E-08  0.3019E-11  0.1529E-05  0.0000E+00 -0.8285E+13
   -1.462467    4.03350  0.0000E+00  0.2957E-08  0.6218E-11  0.3468E-06  0.0000E+00 -0.5223E+14
   -1.499963    4.08066  0.0000E+00  0.0000E+00  0.0000E+00  0.0000E+00  0.0000E+00  0.0000E+00
