 1 - depth, m
 2 - temperature, C
 3 - salinity, kg/kg
 4 - turbulent kinetic energy, m**2/s**2
 5 - dissipation rate, m**2/s**3
 6 - kinematic heat conductance, m**2/s
 7 - modulus of horizontal velocity, m/s
 8 - Richardson number, n/d
   -0.000000    0.00000  0.0000E+00  0.4096E-13  0.8590E-16  0.1000E-09  0.0000E+00  0.1021E+17
   -0.037498    0.15636  0.0000E+00  0.4096E-13  0.8590E-16  0.1000E-09  0.0000E+00  0.9658E+16
   -0.074996    0.31088  0.0000E+00  0.4096E-13  0.8590E-16  0.1000E-09  0.0000E+00  0.9129E+16
   -0.112495    0.46357  0.0000E+00  0.4096E-13  0.8590E-16  0.1000E-09  0.0000E+00  0.8617E+16
   -0.149994    0.61443  0.0000E+00  0.4096E-13  0.8590E-16  0.1000E-09  0.0000E+00  0.8122E+16
   -0.187493    0.76346  0.0000E+00  0.4096E-13  0.8590E-16  0.1000E-09  0.0000E+00  0.7643E+16
   -0.224993    0.91065  0.0000E+00  0.4096E-13  0.8590E-16  0.1000E-09  0.0000E+00  0.7179E+16
   -0.262492    1.05601  0.0000E+00  0.4096E-13  0.8590E-16  0.1000E-09  0.0000E+00  0.6723E+16
   -0.299992    1.19935  0.0000E+00  0.4096E-13  0.8590E-16  0.1000E-09  0.0000E+00  0.6281E+16
   -0.337493    1.34062  0.0000E+00  0.4096E-13  0.8590E-16  0.1000E-09  0.0000E+00  0.5854E+16
   -0.374993    1.47978  0.0000E+00  0.4096E-13  0.8590E-16  0.1000E-09  0.0000E+00  0.5469E+16
   -0.412494    1.61747  0.0000E+00  0.4096E-13  0.8590E-16  0.1000E-09  0.0000E+00  0.5109E+16
   -0.449995    1.75408  0.0000E+00  0.4096E-13  0.8590E-16  0.1000E-09  0.0000E+00  0.4757E+16
   -0.487496    1.88959  0.0000E+00  0.4101E-13  0.8590E-16  0.1000E-09  0.0000E+00  0.4414E+16
   -0.524997    2.02399  0.0000E+00  0.2017E-12  0.8590E-16  0.1000E-09  0.0000E+00  0.4077E+16
   -0.562498    2.15715  0.0000E+00  0.5291E-12  0.1435E-15  0.1000E-09  0.0000E+00  0.3748E+16
   -0.599999    2.28906  0.0000E+00  0.1137E-11  0.2717E-15  0.1000E-09  0.0000E+00  0.3427E+16
   -0.637501    2.41967  0.0000E+00  0.2276E-11  0.5180E-15  0.1000E-09  0.0000E+00  0.3116E+16
   -0.675002    2.54896  0.0000E+00  0.4427E-11  0.9796E-15  0.1000E-09  0.0000E+00  0.2813E+16
   -0.712504    2.67686  0.0000E+00  0.8497E-11  0.1838E-14  0.1000E-09  0.0000E+00  0.2518E+16
   -0.750005    2.80332  0.0000E+00  0.1617E-10  0.3424E-14  0.1000E-09  0.0000E+00  0.2250E+16
   -0.787507    2.92932  0.0000E+00  0.3057E-10  0.6342E-14  0.1000E-09  0.0000E+00  0.1992E+16
   -0.825008    3.05521  0.0000E+00  0.5745E-10  0.1168E-13  0.1000E-09  0.0000E+00  0.1734E+16
   -0.862510    3.18098  0.0000E+00  0.1074E-09  0.2140E-13  0.1000E-09  0.0000E+00  0.1479E+16
   -0.900011    3.30661  0.0000E+00  0.1996E-09  0.3899E-13  0.1000E-09  0.0000E+00  0.1225E+16
   -0.937512    3.43209  0.0000E+00  0.3689E-09  0.7069E-13  0.2018E-09  0.0000E+00  0.9718E+15
   -0.975013    3.55730  0.0000E+00  0.6785E-09  0.1275E-12  0.4907E-09  0.0000E+00  0.7206E+15
   -1.012515    3.68203  0.0000E+00  0.1243E-08  0.2292E-12  0.1346E-08  0.0000E+00  0.4720E+15
   -1.050016    3.80587  0.0000E+00  0.2269E-08  0.4106E-12  0.4996E-08  0.0000E+00  0.2274E+15
   -1.087516    3.92644  0.0000E+00  0.3999E-08  0.7133E-12  0.7748E-07  0.0000E+00  0.2477E+14
   -1.125017    4.00688  0.0000E+00  0.4958E-08  0.8909E-12  0.1120E-04  0.0000E+00 -0.5172E+12
   -1.162517    4.00843  0.0000E+00  0.5400E-08  0.9936E-12  0.1161E-04  0.0000E+00 -0.5392E+12
   -1.200018    4.00993  0.0000E+00  0.5745E-08  0.1101E-11  0.1160E-04  0.0000E+00 -0.5792E+12
   -1.237518    4.01145  0.0000E+00  0.5997E-08  0.1219E-11  0.1115E-04  0.0000E+00 -0.6450E+12
   -1.275018    4.01304  0.0000E+00  0.6157E-08  0.1360E-11  0.1027E-04  0.0000E+00 -0.7533E+12
   -1.312517    4.01478  0.0000E+00  0.6210E-08  0.1544E-11  0.8908E-05  0.0000E+00 -0.9400E+12
   -1.350016    4.01682  0.0000E+00  0.6118E-08  0.1812E-11  0.7042E-05  0.0000E+00 -0.1302E+13
   -1.387515    4.01943  0.0000E+00  0.5795E-08  0.2264E-11  0.4714E-05  0.0000E+00 -0.2178E+13
   -1.425014    4.02339  0.0000E+00  0.5027E-08  0.3265E-11  0.2179E-05  0.0000E+00 -0.5556E+13
   -1.462512    4.03197  0.0000E+00  0.3373E-08  0.6781E-11  0.3695E-06  0.0000E+00 -0.4237E+14
   -1.500010    4.07290  0.0000E+00  0.0000E+00  0.0000E+00  0.0000E+00  0.0000E+00  0.0000E+00
