 1 - depth, m
 2 - temperature, C
 3 - salinity, kg/kg
 4 - turbulent kinetic energy, m**2/s**2
 5 - dissipation rate, m**2/s**3
 6 - kinematic heat conductance, m**2/s
 7 - modulus of horizontal velocity, m/s
 8 - Richardson number, n/d
   -0.000000   16.64704  0.9423E-13  0.4673E-04  0.1321E-04  0.3213E-04  0.4738E-01  0.1129E-01
   -0.037498   16.67409  0.9423E-13  0.2973E-04  0.3671E-05  0.5340E-04  0.2136E-01 -0.3739E-01
   -0.074996   16.68158  0.9422E-13  0.2296E-04  0.1690E-05  0.6554E-04  0.1575E-01 -0.4527E-01
   -0.112494   16.68701  0.9422E-13  0.1875E-04  0.8952E-06  0.7867E-04  0.1261E-01 -0.7047E-01
   -0.149992   16.69123  0.9422E-13  0.1577E-04  0.5189E-06  0.9280E-04  0.1041E-01 -0.1005E+00
   -0.187491   16.69463  0.9422E-13  0.1355E-04  0.3221E-06  0.1112E-03  0.8749E-02 -0.7389E-01
   -0.224991   16.69740  0.9422E-13  0.1187E-04  0.2121E-06  0.1542E-03  0.7461E-02  0.6120E+01
   -0.262490   16.69959  0.9422E-13  0.1062E-04  0.1474E-06  0.1964E-03  0.6471E-02  0.5563E+02
   -0.299990   16.70136  0.9422E-13  0.9679E-05  0.1075E-06  0.2742E-03  0.5669E-02  0.3699E+02
   -0.337490   16.70275  0.9422E-13  0.8968E-05  0.8164E-07  0.3267E-03  0.5033E-02  0.1260E+02
   -0.374990   16.70388  0.9422E-13  0.8425E-05  0.6411E-07  0.3764E-03  0.4502E-02  0.3574E+02
   -0.412490   16.70478  0.9422E-13  0.8014E-05  0.5189E-07  0.4194E-03  0.4060E-02  0.7175E+01
   -0.449991   16.70552  0.9422E-13  0.7706E-05  0.4308E-07  0.4523E-03  0.3688E-02  0.7817E+01
   -0.487491   16.70617  0.9422E-13  0.7481E-05  0.3658E-07  0.4835E-03  0.3370E-02  0.2179E+01
   -0.524992   16.70675  0.9422E-13  0.7325E-05  0.3172E-07  0.5008E-03  0.3098E-02  0.4873E+01
   -0.562493   16.70731  0.9422E-13  0.7219E-05  0.2802E-07  0.5192E-03  0.2844E-02  0.2736E+01
   -0.599994   16.70786  0.9422E-13  0.7146E-05  0.2513E-07  0.5371E-03  0.2607E-02  0.3150E+01
   -0.637495   16.70839  0.9422E-13  0.7093E-05  0.2283E-07  0.5560E-03  0.2385E-02  0.2519E+01
   -0.674996   16.70892  0.9422E-13  0.7050E-05  0.2101E-07  0.5755E-03  0.2177E-02  0.2545E+01
   -0.712497   16.70945  0.9422E-13  0.7011E-05  0.1955E-07  0.5955E-03  0.1982E-02  0.2540E+01
   -0.749998   16.70997  0.9422E-13  0.6968E-05  0.1839E-07  0.6154E-03  0.1800E-02  0.2514E+01
   -0.787499   16.71048  0.9422E-13  0.6918E-05  0.1749E-07  0.6351E-03  0.1631E-02  0.2466E+01
   -0.825001   16.71099  0.9422E-13  0.6854E-05  0.1679E-07  0.6542E-03  0.1474E-02  0.2411E+01
   -0.862502   16.71151  0.9422E-13  0.6776E-05  0.1628E-07  0.6727E-03  0.1327E-02  0.2350E+01
   -0.900003   16.71202  0.9422E-13  0.6680E-05  0.1592E-07  0.6905E-03  0.1191E-02  0.2292E+01
   -0.937504   16.71254  0.9422E-13  0.6565E-05  0.1570E-07  0.6952E-03  0.1065E-02  0.2233E+01
   -0.975005   16.71307  0.9422E-13  0.6430E-05  0.1561E-07  0.6823E-03  0.9480E-03  0.2179E+01
   -1.012505   16.71362  0.9422E-13  0.6278E-05  0.1562E-07  0.6626E-03  0.8393E-03  0.1917E+01
   -1.050006   16.71420  0.9422E-13  0.6114E-05  0.1574E-07  0.6404E-03  0.7463E-03  0.1684E+01
   -1.087507   16.71481  0.9422E-13  0.5946E-05  0.1595E-07  0.6126E-03  0.6689E-03  0.1497E+01
   -1.125007   16.71546  0.9422E-13  0.5777E-05  0.1626E-07  0.5851E-03  0.6056E-03  0.1413E+01
   -1.162507   16.71616  0.9422E-13  0.5607E-05  0.1670E-07  0.5533E-03  0.5541E-03  0.1573E+01
   -1.200007   16.71691  0.9422E-13  0.5434E-05  0.1729E-07  0.5083E-03  0.5117E-03  0.2026E+01
   -1.237507   16.71776  0.9422E-13  0.5253E-05  0.1809E-07  0.4574E-03  0.4766E-03  0.3035E+01
   -1.275006   16.71872  0.9422E-13  0.5051E-05  0.1918E-07  0.4031E-03  0.4473E-03  0.5248E+01
   -1.312505   16.71984  0.9422E-13  0.4811E-05  0.2074E-07  0.3439E-03  0.4215E-03  0.1073E+02
   -1.350004   16.72119  0.9422E-13  0.4511E-05  0.2314E-07  0.2711E-03  0.3979E-03  0.2785E+02
   -1.387503   16.72294  0.9422E-13  0.4120E-05  0.2722E-07  0.2141E-03  0.3753E-03  0.1060E+03
   -1.425001   16.72528  0.9422E-13  0.3537E-05  0.3694E-07  0.1181E-03  0.3562E-03  0.1782E+06
   -1.462499   16.73054  0.9422E-13  0.2084E-05  0.8031E-07  0.2416E-04  0.3349E-03 -0.5769E+05
   -1.499997   16.75415  0.9422E-13  0.0000E+00  0.0000E+00  0.0000E+00  0.3364E-03  0.0000E+00
