 1 - depth, m
 2 - temperature, C
 3 - salinity, kg/kg
 4 - turbulent kinetic energy, m**2/s**2
 5 - dissipation rate, m**2/s**3
 6 - kinematic heat conductance, m**2/s
 7 - modulus of horizontal velocity, m/s
 8 - Richardson number, n/d
   -0.000000   -0.00000  0.9424E-12  0.4096E-13  0.8590E-16  0.1000E-09  0.0000E+00  0.1014E+17
   -0.037498    0.15541  0.4981E-12  0.4096E-13  0.8590E-16  0.1000E-09  0.0000E+00  0.9533E+16
   -0.074996    0.30784  0.2204E-12  0.4096E-13  0.8590E-16  0.1000E-09  0.0000E+00  0.8939E+16
   -0.112494    0.45713  0.1259E-12  0.4096E-13  0.8590E-16  0.1000E-09  0.0000E+00  0.8360E+16
   -0.149992    0.60309  0.1058E-12  0.4096E-13  0.8590E-16  0.1000E-09  0.0000E+00  0.7798E+16
   -0.187491    0.74550  0.1025E-12  0.4096E-13  0.8590E-16  0.1000E-09  0.0000E+00  0.7254E+16
   -0.224990    0.88418  0.1020E-12  0.4096E-13  0.8590E-16  0.1000E-09  0.0000E+00  0.6730E+16
   -0.262490    1.01894  0.1019E-12  0.4096E-13  0.8590E-16  0.1000E-09  0.0000E+00  0.6244E+16
   -0.299990    1.14999  0.1019E-12  0.4096E-13  0.8590E-16  0.1000E-09  0.0000E+00  0.5784E+16
   -0.337489    1.27732  0.1019E-12  0.4096E-13  0.8590E-16  0.1000E-09  0.0000E+00  0.5347E+16
   -0.374990    1.40087  0.1018E-12  0.4096E-13  0.8590E-16  0.1000E-09  0.0000E+00  0.5014E+16
   -0.412490    1.52258  0.1018E-12  0.4096E-13  0.8590E-16  0.1000E-09  0.0000E+00  0.4741E+16
   -0.449990    1.64375  0.1017E-12  0.4096E-13  0.8590E-16  0.1000E-09  0.0000E+00  0.4478E+16
   -0.487491    1.76449  0.1015E-12  0.4096E-13  0.8590E-16  0.1000E-09  0.0000E+00  0.4221E+16
   -0.524992    1.88489  0.1010E-12  0.4096E-13  0.8590E-16  0.1000E-09  0.0000E+00  0.3964E+16
   -0.562493    2.00484  0.1001E-12  0.4096E-13  0.8590E-16  0.1000E-09  0.0000E+00  0.3713E+16
   -0.599993    2.12443  0.9879E-13  0.4096E-13  0.8590E-16  0.1000E-09  0.0000E+00  0.3466E+16
   -0.637494    2.24371  0.9735E-13  0.5535E-13  0.8590E-16  0.1000E-09  0.0000E+00  0.3223E+16
   -0.674996    2.36271  0.9610E-13  0.1767E-12  0.9624E-16  0.1000E-09  0.0000E+00  0.2982E+16
   -0.712497    2.48141  0.9520E-13  0.4804E-12  0.1686E-15  0.1000E-09  0.0000E+00  0.2744E+16
   -0.749998    2.59980  0.9457E-13  0.1104E-11  0.3476E-15  0.1000E-09  0.0000E+00  0.2529E+16
   -0.787499    2.71891  0.9406E-13  0.2388E-11  0.7219E-15  0.1000E-09  0.0000E+00  0.2316E+16
   -0.825000    2.83906  0.9369E-13  0.5045E-11  0.1485E-14  0.1000E-09  0.0000E+00  0.2097E+16
   -0.862501    2.96016  0.9346E-13  0.1053E-10  0.3030E-14  0.1000E-09  0.0000E+00  0.1872E+16
   -0.900002    3.08208  0.9334E-13  0.2178E-10  0.6132E-14  0.1000E-09  0.0000E+00  0.1641E+16
   -0.937503    3.20470  0.9323E-13  0.4471E-10  0.1232E-13  0.1000E-09  0.0000E+00  0.1405E+16
   -0.975004    3.32789  0.9311E-13  0.9114E-10  0.2460E-13  0.1000E-09  0.0000E+00  0.1167E+16
   -1.012505    3.45155  0.9305E-13  0.1850E-09  0.4890E-13  0.1448E-09  0.0000E+00  0.9364E+15
   -1.050005    3.57728  0.9304E-13  0.3744E-09  0.9698E-13  0.3861E-09  0.0000E+00  0.6957E+15
   -1.087506    3.70532  0.9303E-13  0.7534E-09  0.1913E-12  0.1197E-08  0.0000E+00  0.4405E+15
   -1.125006    3.83509  0.9303E-13  0.1503E-08  0.3743E-12  0.5926E-08  0.0000E+00  0.1733E+15
   -1.162506    3.96320  0.9303E-13  0.2637E-08  0.6554E-12  0.9075E-06  0.0000E+00  0.5132E+13
   -1.200006    3.99861  0.9303E-13  0.3652E-08  0.9466E-12  0.4516E-05  0.0000E+00 -0.9502E+12
   -1.237506    4.00299  0.9303E-13  0.4312E-08  0.1202E-11  0.5214E-05  0.0000E+00 -0.1136E+13
   -1.275005    4.00696  0.9303E-13  0.4849E-08  0.1498E-11  0.5385E-05  0.0000E+00 -0.1416E+13
   -1.312504    4.01100  0.9303E-13  0.5252E-08  0.1867E-11  0.5078E-05  0.0000E+00 -0.1882E+13
   -1.350003    4.01550  0.9303E-13  0.5484E-08  0.2369E-11  0.4309E-05  0.0000E+00 -0.2766E+13
   -1.387502    4.02105  0.9303E-13  0.5457E-08  0.3147E-11  0.3106E-05  0.0000E+00 -0.4851E+13
   -1.425000    4.02907  0.9303E-13  0.4977E-08  0.4674E-11  0.1619E-05  0.0000E+00 -0.1232E+14
   -1.462498    4.04466  0.9303E-13  0.3726E-08  0.9242E-11  0.3806E-06  0.0000E+00 -0.7448E+14
   -1.499996    4.10000  0.9303E-13  0.0000E+00  0.0000E+00  0.0000E+00  0.0000E+00  0.0000E+00
