 1 - depth, m
 2 - temperature, C
 3 - salinity, kg/kg
 4 - turbulent kinetic energy, m**2/s**2
 5 - dissipation rate, m**2/s**3
 6 - kinematic heat conductance, m**2/s
 7 - modulus of horizontal velocity, m/s
 8 - Richardson number, n/d
   -0.000000   17.71841  0.9195E-13  0.2258E-04  0.2201E-05  0.2337E-04  0.2894E-01 -0.1587E-01
   -0.037498   17.74652  0.9195E-13  0.1751E-04  0.7464E-06  0.4497E-04  0.1675E-01 -0.4510E-01
   -0.074996   17.75835  0.9195E-13  0.1478E-04  0.3848E-06  0.6502E-04  0.1240E-01 -0.8060E-01
   -0.112494   17.76633  0.9195E-13  0.1290E-04  0.2347E-06  0.8619E-04  0.9734E-02 -0.1270E+00
   -0.149993   17.77222  0.9195E-13  0.1153E-04  0.1571E-06  0.1140E-03  0.7922E-02 -0.1395E+00
   -0.187492   17.77660  0.9195E-13  0.1056E-04  0.1134E-06  0.2057E-03  0.6641E-02  0.2134E+03
   -0.224991   17.77927  0.9195E-13  0.9930E-05  0.8832E-07  0.3474E-03  0.5768E-02  0.1602E+03
   -0.262491   17.78067  0.9195E-13  0.9525E-05  0.7212E-07  0.3825E-03  0.5150E-02  0.4383E+01
   -0.299991   17.78188  0.9195E-13  0.9221E-05  0.5991E-07  0.4031E-03  0.4585E-02  0.4260E+01
   -0.337491   17.78300  0.9195E-13  0.8994E-05  0.5069E-07  0.4240E-03  0.4092E-02  0.3830E+01
   -0.374991   17.78405  0.9195E-13  0.8821E-05  0.4354E-07  0.4477E-03  0.3660E-02  0.3438E+01
   -0.412492   17.78502  0.9195E-13  0.8687E-05  0.3789E-07  0.4743E-03  0.3282E-02  0.3066E+01
   -0.449992   17.78592  0.9195E-13  0.8581E-05  0.3338E-07  0.5047E-03  0.2951E-02  0.2707E+01
   -0.487493   17.78676  0.9195E-13  0.8497E-05  0.2975E-07  0.5371E-03  0.2665E-02  0.2436E+01
   -0.524994   17.78753  0.9195E-13  0.8426E-05  0.2679E-07  0.5605E-03  0.2417E-02  0.2559E+01
   -0.562495   17.78826  0.9195E-13  0.8354E-05  0.2430E-07  0.5823E-03  0.2183E-02  0.2668E+01
   -0.599996   17.78896  0.9195E-13  0.8270E-05  0.2217E-07  0.6145E-03  0.1960E-02  0.2812E+01
   -0.637497   17.78961  0.9195E-13  0.8159E-05  0.2021E-07  0.6290E-03  0.1754E-02  0.2919E+01
   -0.674998   17.79024  0.9195E-13  0.8080E-05  0.1927E-07  0.1040E-02  0.1532E-02  0.1864E+01
   -0.712500   17.79061  0.9195E-13  0.8027E-05  0.1877E-07  0.1075E-02  0.1464E-02  0.1924E+01
   -0.750001   17.79097  0.9195E-13  0.7944E-05  0.1819E-07  0.6617E-03  0.1405E-02  0.2198E+01
   -0.787502   17.79156  0.9195E-13  0.7742E-05  0.1718E-07  0.6653E-03  0.1236E-02  0.2431E+01
   -0.825003   17.79213  0.9195E-13  0.7626E-05  0.1675E-07  0.1085E-02  0.1075E-02  0.1709E+01
   -0.862505   17.79248  0.9195E-13  0.7546E-05  0.1655E-07  0.1047E-02  0.1026E-02  0.1733E+01
   -0.900006   17.79285  0.9195E-13  0.7421E-05  0.1634E-07  0.7007E-03  0.9852E-03  0.1900E+01
   -0.937507   17.79339  0.9195E-13  0.7142E-05  0.1605E-07  0.6679E-03  0.8624E-03  0.1928E+01
   -0.975008   17.79395  0.9195E-13  0.6990E-05  0.1597E-07  0.9896E-03  0.7497E-03  0.1469E+01
   -1.012509   17.79433  0.9195E-13  0.6887E-05  0.1598E-07  0.8627E-03  0.7139E-03  0.1963E+01
   -1.050010   17.79476  0.9195E-13  0.6736E-05  0.1607E-07  0.7658E-03  0.6849E-03  0.1460E+01
   -1.087510   17.79525  0.9195E-13  0.6464E-05  0.1633E-07  0.7340E-03  0.6141E-03  0.1370E+01
   -1.125011   17.79576  0.9195E-13  0.6225E-05  0.1666E-07  0.6682E-03  0.5611E-03  0.1211E+01
   -1.162511   17.79631  0.9195E-13  0.6006E-05  0.1708E-07  0.6077E-03  0.5192E-03  0.1088E+01
   -1.200011   17.79692  0.9195E-13  0.5801E-05  0.1759E-07  0.5640E-03  0.4869E-03  0.1169E+01
   -1.237511   17.79758  0.9195E-13  0.5586E-05  0.1827E-07  0.5177E-03  0.4609E-03  0.1685E+01
   -1.275010   17.79829  0.9195E-13  0.5341E-05  0.1925E-07  0.4547E-03  0.4373E-03  0.2887E+01
   -1.312510   17.79911  0.9195E-13  0.5052E-05  0.2070E-07  0.3864E-03  0.4149E-03  0.5745E+01
   -1.350009   17.80006  0.9195E-13  0.4701E-05  0.2300E-07  0.2950E-03  0.3936E-03  0.1473E+02
   -1.387507   17.80132  0.9195E-13  0.4263E-05  0.2699E-07  0.2521E-03  0.3727E-03  0.4658E+02
   -1.425006   17.80280  0.9195E-13  0.3567E-05  0.3835E-07  0.1121E-03  0.3559E-03 -0.1189E+03
   -1.462504   17.80830  0.9195E-13  0.2028E-05  0.8712E-07  0.2823E-04  0.3317E-03 -0.8645E+04
   -1.500002   17.82238  0.9195E-13  0.0000E+00  0.0000E+00  0.0000E+00  0.3352E-03  0.0000E+00
