 1 - depth, m
 2 - temperature, C
 3 - salinity, kg/kg
 4 - turbulent kinetic energy, m**2/s**2
 5 - dissipation rate, m**2/s**3
 6 - kinematic heat conductance, m**2/s
 7 - modulus of horizontal velocity, m/s
 8 - Richardson number, n/d
   -0.000000   -0.00000  0.8503E-13  0.2299E-03  0.3124E-03  0.6827E-04  0.1905E+00  0.7675E-02
   -0.037496    0.00864  0.8491E-13  0.1413E-03  0.1321E-03  0.1181E-03  0.6491E-01 -0.9126E-03
   -0.074993    0.01360  0.8489E-13  0.9846E-04  0.3949E-04  0.1298E-03  0.4288E-01  0.9007E-02
   -0.112489    0.01673  0.8488E-13  0.7748E-04  0.2004E-04  0.1306E-03  0.3438E-01  0.5441E-02
   -0.149987    0.01909  0.8488E-13  0.6364E-04  0.1136E-04  0.1345E-03  0.2919E-01  0.6206E-02
   -0.187484    0.02111  0.8487E-13  0.5325E-04  0.6530E-05  0.1391E-03  0.2532E-01  0.1655E-01
   -0.224982    0.02293  0.8487E-13  0.4519E-04  0.3733E-05  0.1443E-03  0.2230E-01  0.1639E-01
   -0.262480    0.02459  0.8486E-13  0.3895E-04  0.2194E-05  0.1480E-03  0.1990E-01  0.2263E-01
   -0.299978    0.02617  0.8486E-13  0.3392E-04  0.1361E-05  0.1513E-03  0.1781E-01  0.3436E-01
   -0.337476    0.02769  0.8486E-13  0.2980E-04  0.8947E-06  0.1540E-03  0.1602E-01  0.5771E-01
   -0.374975    0.02913  0.8485E-13  0.2633E-04  0.6197E-06  0.1563E-03  0.1449E-01  0.1202E+00
   -0.412474    0.03049  0.8485E-13  0.2337E-04  0.4499E-06  0.1583E-03  0.1318E-01  0.6070E+00
   -0.449973    0.03180  0.8485E-13  0.2086E-04  0.3393E-06  0.1604E-03  0.1208E-01  0.5187E+01
   -0.487472    0.03304  0.8484E-13  0.1875E-04  0.2641E-06  0.1624E-03  0.1115E-01  0.3801E+01
   -0.524971    0.03423  0.8484E-13  0.1703E-04  0.2114E-06  0.1606E-03  0.1036E-01  0.9541E+01
   -0.562471    0.03542  0.8484E-13  0.1555E-04  0.1726E-06  0.1588E-03  0.9613E-02  0.8073E+01
   -0.599970    0.03662  0.8484E-13  0.1428E-04  0.1430E-06  0.1568E-03  0.8904E-02  0.8720E+00
   -0.637470    0.03782  0.8483E-13  0.1315E-04  0.1199E-06  0.1545E-03  0.8239E-02  0.5528E+00
   -0.674969    0.03902  0.8483E-13  0.1215E-04  0.1016E-06  0.1517E-03  0.7614E-02  0.4939E+00
   -0.712469    0.04024  0.8483E-13  0.1124E-04  0.8683E-07  0.1483E-03  0.7026E-02  0.5000E+00
   -0.749969    0.04149  0.8483E-13  0.1041E-04  0.7479E-07  0.1444E-03  0.6473E-02  0.5380E+00
   -0.787468    0.04278  0.8482E-13  0.9658E-05  0.6484E-07  0.1399E-03  0.5950E-02  0.6040E+00
   -0.824968    0.04411  0.8482E-13  0.8960E-05  0.5655E-07  0.1347E-03  0.5455E-02  0.7030E+00
   -0.862468    0.04552  0.8482E-13  0.8310E-05  0.4956E-07  0.1288E-03  0.4984E-02  0.8544E+00
   -0.899967    0.04705  0.8481E-13  0.7699E-05  0.4359E-07  0.1220E-03  0.4533E-02  0.1131E+01
   -0.937467    0.04880  0.8481E-13  0.7116E-05  0.3842E-07  0.1142E-03  0.4097E-02  0.2005E+01
   -0.974966    0.05100  0.8480E-13  0.6542E-05  0.3380E-07  0.1046E-03  0.3669E-02  0.8121E+01
   -1.012466    0.05424  0.8479E-13  0.5964E-05  0.2954E-07  0.9867E-04  0.3236E-02  0.8589E+02
   -1.049965    0.05734  0.8478E-13  0.5400E-05  0.2569E-07  0.9202E-04  0.2854E-02  0.1179E+04
   -1.087464    0.06026  0.8478E-13  0.4856E-05  0.2225E-07  0.8419E-04  0.2520E-02  0.1442E+05
   -1.124963    0.06302  0.8477E-13  0.4336E-05  0.1918E-07  0.7569E-04  0.2222E-02  0.2657E+06
   -1.162461    0.06607  0.8477E-13  0.3840E-05  0.1646E-07  0.6665E-04  0.1954E-02  0.5459E+07
   -1.199960    0.06952  0.8476E-13  0.3370E-05  0.1404E-07  0.5725E-04  0.1714E-02  0.1323E+09
   -1.237458    0.07352  0.8476E-13  0.2924E-05  0.1190E-07  0.4763E-04  0.1497E-02  0.4596E+10
   -1.274956    0.07882  0.8476E-13  0.2502E-05  0.1001E-07  0.3800E-04  0.1301E-02  0.2180E+12
   -1.312454    0.08747  0.8476E-13  0.2102E-05  0.8358E-08  0.2851E-04  0.1123E-02  0.1115E+14
   -1.349951    0.10478  0.8475E-13  0.1717E-05  0.6911E-08  0.1947E-04  0.9622E-03  0.3107E+15
   -1.387448    0.14390  0.8474E-13  0.1340E-05  0.5661E-08  0.1097E-04  0.8153E-03  0.1095E+16
   -1.424945    0.22777  0.8471E-13  0.8994E-06  0.4516E-08  0.3416E-05  0.6785E-03  0.2318E+16
   -1.462441    0.43435  0.8469E-13  0.2799E-06  0.4594E-08  0.5757E-06  0.5020E-03  0.2303E+16
   -1.499938    0.94408  0.8469E-13  0.0000E+00  0.0000E+00  0.0000E+00  0.5157E-03  0.0000E+00
