 1 - depth, m
 2 - temperature, C
 3 - salinity, kg/kg
 4 - turbulent kinetic energy, m**2/s**2
 5 - dissipation rate, m**2/s**3
 6 - kinematic heat conductance, m**2/s
 7 - modulus of horizontal velocity, m/s
 8 - Richardson number, n/d
   -0.000000    5.20036  0.8726E-13  0.1910E-03  0.5913E-02  0.6404E-04  0.1228E+00  0.2066E-01
   -0.037498    5.30114  0.8726E-13  0.1136E-03  0.5196E-02  0.1243E-03  0.3938E-01 -0.1415E+01
   -0.074996    5.31574  0.8726E-13  0.8178E-04  0.4808E-02  0.1124E-03  0.2859E-01 -0.1453E-01
   -0.112494    5.32738  0.8726E-13  0.6628E-04  0.4242E-02  0.1078E-03  0.2390E-01 -0.1083E-01
   -0.149993    5.33665  0.8726E-13  0.5386E-04  0.3369E-02  0.1083E-03  0.2051E-01 -0.1854E-01
   -0.187492    5.34492  0.8726E-13  0.4272E-04  0.2173E-02  0.1109E-03  0.1777E-01 -0.1690E-01
   -0.224991    5.35261  0.8726E-13  0.3250E-04  0.9698E-03  0.1146E-03  0.1546E-01 -0.2334E-01
   -0.262490    5.35987  0.8726E-13  0.2454E-04  0.2618E-03  0.1176E-03  0.1353E-01 -0.2675E-01
   -0.299990    5.36682  0.8726E-13  0.1956E-04  0.4647E-04  0.1206E-03  0.1182E-01 -0.3278E-01
   -0.337490    5.37342  0.8726E-13  0.1643E-04  0.7592E-05  0.1239E-03  0.1036E-01 -0.3648E-01
   -0.374990    5.37964  0.8726E-13  0.1413E-04  0.1599E-05  0.1277E-03  0.9111E-02 -0.4988E-01
   -0.412490    5.38551  0.8726E-13  0.1228E-04  0.4906E-06  0.1324E-03  0.8059E-02  0.8459E+00
   -0.449991    5.39102  0.8726E-13  0.1077E-04  0.2114E-06  0.1390E-03  0.7175E-02  0.7373E-01
   -0.487492    5.39617  0.8726E-13  0.9546E-05  0.1179E-06  0.1469E-03  0.6440E-02  0.1182E+01
   -0.524993    5.40098  0.8726E-13  0.8567E-05  0.7800E-07  0.1540E-03  0.5828E-02  0.5189E+01
   -0.562493    5.40551  0.8725E-13  0.7764E-05  0.5709E-07  0.1638E-03  0.5268E-02  0.6004E+00
   -0.599994    5.40974  0.8725E-13  0.7094E-05  0.4431E-07  0.1750E-03  0.4761E-02  0.9565E+01
   -0.637496    5.41368  0.8725E-13  0.6527E-05  0.3564E-07  0.1908E-03  0.4304E-02  0.6499E+02
   -0.674997    5.41729  0.8725E-13  0.6043E-05  0.2936E-07  0.2252E-03  0.3893E-02  0.2025E+02
   -0.712498    5.42045  0.8725E-13  0.5628E-05  0.2467E-07  0.2727E-03  0.3526E-02  0.1426E+03
   -0.749999    5.42314  0.8725E-13  0.5269E-05  0.2103E-07  0.3130E-03  0.3197E-02  0.4151E+02
   -0.787500    5.42545  0.8725E-13  0.4950E-05  0.1813E-07  0.3422E-03  0.2897E-02  0.4062E+02
   -0.825001    5.42746  0.8725E-13  0.4663E-05  0.1578E-07  0.3674E-03  0.2621E-02  0.1271E+02
   -0.862503    5.42923  0.8725E-13  0.4400E-05  0.1386E-07  0.3857E-03  0.2366E-02  0.6542E+02
   -0.900004    5.43082  0.8725E-13  0.4155E-05  0.1226E-07  0.3979E-03  0.2127E-02  0.1116E+03
   -0.937505    5.43227  0.8725E-13  0.3923E-05  0.1091E-07  0.4018E-03  0.1902E-02  0.9225E+02
   -0.975006    5.43366  0.8725E-13  0.3696E-05  0.9738E-08  0.3973E-03  0.1688E-02  0.9121E+01
   -1.012506    5.43501  0.8725E-13  0.3471E-05  0.8717E-08  0.3975E-03  0.1482E-02  0.2339E+02
   -1.050007    5.43632  0.8725E-13  0.3249E-05  0.7831E-08  0.3955E-03  0.1298E-02  0.3292E+01
   -1.087508    5.43761  0.8725E-13  0.3031E-05  0.7072E-08  0.3911E-03  0.1135E-02  0.3900E+01
   -1.125008    5.43890  0.8725E-13  0.2821E-05  0.6436E-08  0.3826E-03  0.9922E-03  0.2490E+01
   -1.162508    5.44018  0.8725E-13  0.2619E-05  0.5923E-08  0.3678E-03  0.8687E-03  0.1699E+01
   -1.200008    5.44149  0.8725E-13  0.2432E-05  0.5534E-08  0.3411E-03  0.7639E-03  0.1428E+01
   -1.237508    5.44288  0.8725E-13  0.2263E-05  0.5271E-08  0.3088E-03  0.6775E-03  0.1447E+01
   -1.275007    5.44437  0.8725E-13  0.2115E-05  0.5133E-08  0.2782E-03  0.6090E-03  0.1210E+01
   -1.312507    5.44598  0.8725E-13  0.1983E-05  0.5113E-08  0.2507E-03  0.5570E-03  0.1803E+01
   -1.350005    5.44773  0.8725E-13  0.1851E-05  0.5226E-08  0.2178E-03  0.5161E-03  0.4074E+01
   -1.387504    5.44970  0.8725E-13  0.1710E-05  0.5550E-08  0.1884E-03  0.4809E-03  0.1736E+02
   -1.425002    5.45192  0.8725E-13  0.1506E-05  0.6514E-08  0.8909E-04  0.4531E-03  0.3268E+05
   -1.462500    5.45645  0.8725E-13  0.8268E-06  0.1380E-07  0.7416E-05  0.4197E-03 -0.7412E+04
   -1.499998    5.50809  0.8725E-13  0.0000E+00  0.0000E+00  0.0000E+00  0.4152E-03  0.0000E+00
