 1 - depth, m
 2 - temperature, C
 3 - salinity, kg/kg
 4 - turbulent kinetic energy, m**2/s**2
 5 - dissipation rate, m**2/s**3
 6 - kinematic heat conductance, m**2/s
 7 - modulus of horizontal velocity, m/s
 8 - Richardson number, n/d
   -0.000000   -0.00000  0.2230E-12  0.4096E-13  0.8590E-16  0.1000E-09  0.0000E+00  0.8286E+16
   -0.037498    0.12643  0.2512E-12  0.4096E-13  0.8590E-16  0.1000E-09  0.0000E+00  0.7988E+16
   -0.074996    0.25265  0.2754E-12  0.4096E-13  0.8590E-16  0.1000E-09  0.0000E+00  0.7691E+16
   -0.112494    0.37863  0.2766E-12  0.4096E-13  0.8590E-16  0.1000E-09  0.0000E+00  0.7395E+16
   -0.149993    0.50431  0.2550E-12  0.4096E-13  0.8590E-16  0.1000E-09  0.0000E+00  0.7099E+16
   -0.187492    0.62967  0.2208E-12  0.4096E-13  0.8590E-16  0.1000E-09  0.0000E+00  0.6804E+16
   -0.224991    0.75464  0.1850E-12  0.4096E-13  0.8590E-16  0.1000E-09  0.0000E+00  0.6509E+16
   -0.262491    0.87917  0.1542E-12  0.4096E-13  0.8590E-16  0.1000E-09  0.0000E+00  0.6218E+16
   -0.299990    1.00324  0.1309E-12  0.4096E-13  0.8590E-16  0.1000E-09  0.0000E+00  0.5928E+16
   -0.337490    1.12680  0.1147E-12  0.4096E-13  0.8590E-16  0.1000E-09  0.0000E+00  0.5640E+16
   -0.374991    1.24979  0.1040E-12  0.4096E-13  0.8590E-16  0.1000E-09  0.0000E+00  0.5356E+16
   -0.412491    1.37219  0.9729E-13  0.4096E-13  0.8590E-16  0.1000E-09  0.0000E+00  0.5075E+16
   -0.449992    1.49397  0.9306E-13  0.4096E-13  0.8590E-16  0.1000E-09  0.0000E+00  0.4797E+16
   -0.487492    1.61506  0.9036E-13  0.4096E-13  0.8590E-16  0.1000E-09  0.0000E+00  0.4523E+16
   -0.524993    1.73543  0.8855E-13  0.4096E-13  0.8590E-16  0.1000E-09  0.0000E+00  0.4257E+16
   -0.562494    1.85515  0.8728E-13  0.4096E-13  0.8590E-16  0.1000E-09  0.0000E+00  0.3994E+16
   -0.599995    1.97420  0.8632E-13  0.4096E-13  0.8590E-16  0.1000E-09  0.0000E+00  0.3735E+16
   -0.637496    2.09250  0.8556E-13  0.4096E-13  0.8590E-16  0.1000E-09  0.0000E+00  0.3479E+16
   -0.674998    2.21002  0.8495E-13  0.4096E-13  0.8590E-16  0.1000E-09  0.0000E+00  0.3227E+16
   -0.712499    2.32670  0.8445E-13  0.4096E-13  0.8590E-16  0.1000E-09  0.0000E+00  0.2980E+16
   -0.750000    2.44249  0.8405E-13  0.4096E-13  0.8590E-16  0.1000E-09  0.0000E+00  0.2741E+16
   -0.787501    2.55745  0.8374E-13  0.4096E-13  0.8590E-16  0.1000E-09  0.0000E+00  0.2507E+16
   -0.825003    2.67158  0.8352E-13  0.4096E-13  0.8590E-16  0.1000E-09  0.0000E+00  0.2277E+16
   -0.862504    2.78483  0.8335E-13  0.4167E-13  0.8590E-16  0.1000E-09  0.0000E+00  0.2052E+16
   -0.900005    2.89712  0.8324E-13  0.1864E-12  0.1091E-15  0.1000E-09  0.0000E+00  0.1832E+16
   -0.937506    3.00841  0.8317E-13  0.5383E-12  0.2475E-15  0.1000E-09  0.0000E+00  0.1617E+16
   -0.975007    3.11861  0.8313E-13  0.1361E-11  0.5883E-15  0.1000E-09  0.0000E+00  0.1407E+16
   -1.012508    3.22765  0.8310E-13  0.3312E-11  0.1386E-14  0.1000E-09  0.0000E+00  0.1202E+16
   -1.050008    3.33528  0.8309E-13  0.7949E-11  0.3236E-14  0.1000E-09  0.0000E+00  0.1003E+16
   -1.087509    3.44136  0.8308E-13  0.1887E-10  0.7486E-14  0.1000E-09  0.0000E+00  0.8121E+15
   -1.125009    3.54575  0.8307E-13  0.4436E-10  0.1715E-13  0.1000E-09  0.0000E+00  0.6362E+15
   -1.162510    3.64961  0.8307E-13  0.1033E-09  0.3895E-13  0.2314E-09  0.0000E+00  0.4637E+15
   -1.200010    3.75301  0.8307E-13  0.2380E-09  0.8763E-13  0.8197E-09  0.0000E+00  0.2934E+15
   -1.237509    3.85563  0.8307E-13  0.5424E-09  0.1952E-12  0.4181E-08  0.0000E+00  0.1265E+15
   -1.275009    3.95558  0.8307E-13  0.1177E-08  0.4170E-12  0.1544E-06  0.0000E+00  0.4774E+13
   -1.312508    4.00489  0.8307E-13  0.2071E-08  0.7739E-12  0.2129E-05  0.0000E+00 -0.2197E+13
   -1.350007    4.01133  0.8307E-13  0.2520E-08  0.1074E-11  0.2187E-05  0.0000E+00 -0.2807E+13
   -1.387506    4.01769  0.8307E-13  0.2691E-08  0.1449E-11  0.1757E-05  0.0000E+00 -0.4370E+13
   -1.425004    4.02559  0.8307E-13  0.2504E-08  0.2076E-11  0.9709E-06  0.0000E+00 -0.9873E+13
   -1.462502    4.03926  0.8307E-13  0.1821E-08  0.3728E-11  0.2202E-06  0.0000E+00 -0.4969E+14
   -1.500000    4.08199  0.8307E-13  0.0000E+00  0.0000E+00  0.0000E+00  0.0000E+00  0.0000E+00
