 1 - depth, m
 2 - temperature, C
 3 - salinity, kg/kg
 4 - turbulent kinetic energy, m**2/s**2
 5 - dissipation rate, m**2/s**3
 6 - kinematic heat conductance, m**2/s
 7 - modulus of horizontal velocity, m/s
 8 - Richardson number, n/d
   -0.000000   -0.00000  0.7263E-12  0.4096E-13  0.8590E-16  0.1000E-09  0.0000E+00  0.8930E+16
   -0.037498    0.13645  0.4963E-12  0.4096E-13  0.8590E-16  0.1000E-09  0.0000E+00  0.8556E+16
   -0.074995    0.27221  0.3552E-12  0.4096E-13  0.8590E-16  0.1000E-09  0.0000E+00  0.8187E+16
   -0.112494    0.40724  0.2503E-12  0.4096E-13  0.8590E-16  0.1000E-09  0.0000E+00  0.7822E+16
   -0.149992    0.54152  0.1828E-12  0.4096E-13  0.8590E-16  0.1000E-09  0.0000E+00  0.7464E+16
   -0.187491    0.67501  0.1438E-12  0.4096E-13  0.8590E-16  0.1000E-09  0.0000E+00  0.7110E+16
   -0.224990    0.80770  0.1223E-12  0.4096E-13  0.8590E-16  0.1000E-09  0.0000E+00  0.6761E+16
   -0.262490    0.93952  0.1104E-12  0.4096E-13  0.8590E-16  0.1000E-09  0.0000E+00  0.6416E+16
   -0.299989    1.07043  0.1038E-12  0.4096E-13  0.8590E-16  0.1000E-09  0.0000E+00  0.6077E+16
   -0.337489    1.20036  0.1001E-12  0.4096E-13  0.8590E-16  0.1000E-09  0.0000E+00  0.5742E+16
   -0.374989    1.32925  0.9790E-13  0.4096E-13  0.8590E-16  0.1000E-09  0.0000E+00  0.5424E+16
   -0.412490    1.45730  0.9649E-13  0.4096E-13  0.8590E-16  0.1000E-09  0.0000E+00  0.5116E+16
   -0.449990    1.58461  0.9544E-13  0.4096E-13  0.8590E-16  0.1000E-09  0.0000E+00  0.4812E+16
   -0.487491    1.71113  0.9456E-13  0.4096E-13  0.8590E-16  0.1000E-09  0.0000E+00  0.4512E+16
   -0.524992    1.83677  0.9373E-13  0.4096E-13  0.8590E-16  0.1000E-09  0.0000E+00  0.4209E+16
   -0.562492    1.96126  0.9294E-13  0.4096E-13  0.8590E-16  0.1000E-09  0.0000E+00  0.3914E+16
   -0.599993    2.08456  0.9219E-13  0.4096E-13  0.8590E-16  0.1000E-09  0.0000E+00  0.3624E+16
   -0.637494    2.20661  0.9148E-13  0.4096E-13  0.8590E-16  0.1000E-09  0.0000E+00  0.3342E+16
   -0.674995    2.32734  0.9085E-13  0.4096E-13  0.8590E-16  0.1000E-09  0.0000E+00  0.3068E+16
   -0.712497    2.44671  0.9031E-13  0.4096E-13  0.8590E-16  0.1000E-09  0.0000E+00  0.2801E+16
   -0.749998    2.56465  0.8987E-13  0.4099E-13  0.8590E-16  0.1000E-09  0.0000E+00  0.2547E+16
   -0.787499    2.68135  0.8953E-13  0.1614E-12  0.8873E-16  0.1000E-09  0.0000E+00  0.2302E+16
   -0.825000    2.79684  0.8928E-13  0.4496E-12  0.1652E-15  0.1000E-09  0.0000E+00  0.2063E+16
   -0.862501    2.91109  0.8911E-13  0.1051E-11  0.3492E-15  0.1000E-09  0.0000E+00  0.1832E+16
   -0.900002    3.02405  0.8900E-13  0.2312E-11  0.7383E-15  0.1000E-09  0.0000E+00  0.1608E+16
   -0.937503    3.13566  0.8894E-13  0.4972E-11  0.1544E-14  0.1000E-09  0.0000E+00  0.1391E+16
   -0.975004    3.24590  0.8891E-13  0.1056E-10  0.3199E-14  0.1000E-09  0.0000E+00  0.1182E+16
   -1.012505    3.35471  0.8889E-13  0.2226E-10  0.6588E-14  0.1000E-09  0.0000E+00  0.9832E+15
   -1.050005    3.46234  0.8888E-13  0.4673E-10  0.1351E-13  0.1000E-09  0.0000E+00  0.7910E+15
   -1.087506    3.56881  0.8888E-13  0.9743E-10  0.2753E-13  0.1260E-09  0.0000E+00  0.6049E+15
   -1.125006    3.67402  0.8887E-13  0.2016E-09  0.5570E-13  0.3592E-09  0.0000E+00  0.4291E+15
   -1.162506    3.77901  0.8887E-13  0.4140E-09  0.1119E-12  0.1215E-08  0.0000E+00  0.2544E+15
   -1.200006    3.88350  0.8887E-13  0.8409E-09  0.2225E-12  0.7387E-08  0.0000E+00  0.8283E+14
   -1.237506    3.98374  0.8887E-13  0.1506E-08  0.3960E-12  0.1160E-05  0.0000E+00 -0.5900E+12
   -1.275005    3.99597  0.8887E-13  0.2078E-08  0.6025E-12  0.2351E-05  0.0000E+00 -0.1222E+13
   -1.312504    4.00210  0.8887E-13  0.2510E-08  0.8316E-12  0.2631E-05  0.0000E+00 -0.1647E+13
   -1.350003    4.00775  0.8887E-13  0.2800E-08  0.1118E-11  0.2441E-05  0.0000E+00 -0.2392E+13
   -1.387502    4.01397  0.8887E-13  0.2895E-08  0.1527E-11  0.1857E-05  0.0000E+00 -0.4115E+13
   -1.425000    4.02223  0.8887E-13  0.2681E-08  0.2261E-11  0.1002E-05  0.0000E+00 -0.1010E+14
   -1.462498    4.03711  0.8887E-13  0.1998E-08  0.4221E-11  0.2377E-06  0.0000E+00 -0.5366E+14
   -1.499995    4.08346  0.8887E-13  0.0000E+00  0.0000E+00  0.0000E+00  0.0000E+00  0.0000E+00
