 1 - depth, m
 2 - temperature, C
 3 - salinity, kg/kg
 4 - turbulent kinetic energy, m**2/s**2
 5 - dissipation rate, m**2/s**3
 6 - kinematic heat conductance, m**2/s
 7 - modulus of horizontal velocity, m/s
 8 - Richardson number, n/d
   -0.000000   13.10057  0.9407E-13  0.4758E-03  0.1036E-02  0.8721E-04  0.2732E+00  0.1869E-03
   -0.037498   13.21245  0.9407E-13  0.2476E-03  0.3680E-03  0.1342E-03  0.8520E-01  0.1555E+00
   -0.074996   13.25829  0.9407E-13  0.1580E-03  0.9754E-04  0.1752E-03  0.5309E-01 -0.2016E+00
   -0.112494   13.28091  0.9407E-13  0.1197E-03  0.4910E-04  0.1745E-03  0.4207E-01 -0.2981E-01
   -0.149993   13.29257  0.9407E-13  0.9580E-04  0.2850E-04  0.1753E-03  0.3513E-01 -0.3478E-01
   -0.187492   13.30064  0.9407E-13  0.7792E-04  0.1662E-04  0.1781E-03  0.3005E-01 -0.6032E-01
   -0.224991   13.30799  0.9407E-13  0.6447E-04  0.9689E-05  0.1875E-03  0.2602E-01 -0.5069E-01
   -0.262491   13.31313  0.9407E-13  0.5453E-04  0.5823E-05  0.1969E-03  0.2305E-01  0.5387E+00
   -0.299991   13.31790  0.9407E-13  0.4689E-04  0.3585E-05  0.2086E-03  0.2051E-01  0.1147E+01
   -0.337491   13.32238  0.9407E-13  0.4093E-04  0.2262E-05  0.2295E-03  0.1834E-01  0.7988E+02
   -0.374991   13.32621  0.9407E-13  0.3621E-04  0.1475E-05  0.2530E-03  0.1656E-01  0.9349E+01
   -0.412491   13.32965  0.9407E-13  0.3243E-04  0.9896E-06  0.2874E-03  0.1508E-01  0.9003E+02
   -0.449992   13.33258  0.9407E-13  0.2938E-04  0.6828E-06  0.3240E-03  0.1386E-01  0.3521E+02
   -0.487493   13.33522  0.9407E-13  0.2694E-04  0.4957E-06  0.3746E-03  0.1285E-01  0.3708E+03
   -0.524994   13.33746  0.9407E-13  0.2503E-04  0.3759E-06  0.4308E-03  0.1201E-01  0.2952E+03
   -0.562495   13.33947  0.9407E-13  0.2347E-04  0.2955E-06  0.4930E-03  0.1122E-01  0.9898E+02
   -0.599996   13.34116  0.9407E-13  0.2216E-04  0.2417E-06  0.5471E-03  0.1047E-01  0.1116E+03
   -0.637497   13.34258  0.9407E-13  0.2106E-04  0.2025E-06  0.5977E-03  0.9771E-02  0.6277E+02
   -0.674998   13.34382  0.9407E-13  0.2009E-04  0.1729E-06  0.6271E-03  0.9120E-02  0.2640E+03
   -0.712499   13.34490  0.9407E-13  0.1922E-04  0.1496E-06  0.6531E-03  0.8501E-02  0.3985E+02
   -0.750001   13.34592  0.9407E-13  0.1841E-04  0.1309E-06  0.6892E-03  0.7907E-02  0.6728E+02
   -0.787502   13.34686  0.9407E-13  0.1767E-04  0.1159E-06  0.7320E-03  0.7363E-02  0.6923E+02
   -0.825003   13.34772  0.9407E-13  0.1696E-04  0.1033E-06  0.7120E-03  0.6863E-02  0.3949E+02
   -0.862504   13.34856  0.9407E-13  0.1625E-04  0.9238E-07  0.7157E-03  0.6341E-02  0.6974E+02
   -0.900006   13.34936  0.9407E-13  0.1551E-04  0.8276E-07  0.7092E-03  0.5844E-02  0.5469E+02
   -0.937507   13.35015  0.9407E-13  0.1479E-04  0.7458E-07  0.7547E-03  0.5345E-02  0.9695E+02
   -0.975008   13.35090  0.9407E-13  0.1405E-04  0.6739E-07  0.7470E-03  0.4899E-02  0.1365E+03
   -1.012509   13.35166  0.9407E-13  0.1322E-04  0.6060E-07  0.6511E-03  0.4471E-02  0.7402E+02
   -1.050009   13.35248  0.9407E-13  0.1232E-04  0.5414E-07  0.7104E-03  0.3997E-02  0.3999E+02
   -1.087510   13.35325  0.9407E-13  0.1164E-04  0.4985E-07  0.9011E-03  0.3610E-02  0.6228E+01
   -1.125010   13.35382  0.9407E-13  0.1109E-04  0.4690E-07  0.7632E-03  0.3409E-02  0.4567E+01
   -1.162511   13.35450  0.9407E-13  0.1032E-04  0.4368E-07  0.5694E-03  0.3171E-02  0.2750E+01
   -1.200011   13.35535  0.9407E-13  0.9324E-05  0.4037E-07  0.5442E-03  0.2838E-02  0.2602E+01
   -1.237510   13.35623  0.9407E-13  0.8378E-05  0.3814E-07  0.4921E-03  0.2571E-02  0.2140E+01
   -1.275010   13.35718  0.9407E-13  0.7477E-05  0.3706E-07  0.4386E-03  0.2335E-02  0.2174E+01
   -1.312509   13.35823  0.9407E-13  0.6645E-05  0.3781E-07  0.3753E-03  0.2144E-02  0.7049E+01
   -1.350008   13.35950  0.9407E-13  0.5790E-05  0.4255E-07  0.2922E-03  0.1989E-02  0.1769E+03
   -1.387507   13.36146  0.9407E-13  0.4840E-05  0.5359E-07  0.2271E-03  0.1844E-02  0.5618E+02
   -1.425005   13.36377  0.9407E-13  0.3715E-05  0.9126E-07  0.1296E-03  0.1720E-02  0.1204E+04
   -1.462504   13.37099  0.9407E-13  0.2151E-05  0.1957E-06  0.3460E-04  0.1571E-02 -0.7685E+04
   -1.500001   13.38821  0.9407E-13  0.0000E+00  0.0000E+00  0.0000E+00  0.1632E-02  0.0000E+00
