 1 - depth, m
 2 - temperature, C
 3 - salinity, kg/kg
 4 - turbulent kinetic energy, m**2/s**2
 5 - dissipation rate, m**2/s**3
 6 - kinematic heat conductance, m**2/s
 7 - modulus of horizontal velocity, m/s
 8 - Richardson number, n/d
   -0.000000   -0.00000  0.8055E-12  0.4096E-13  0.8590E-16  0.1000E-09  0.0000E+00  0.1205E+17
   -0.037497    0.18541  0.4244E-12  0.4096E-13  0.8590E-16  0.1000E-09  0.0000E+00  0.1131E+17
   -0.074995    0.36864  0.2668E-12  0.4096E-13  0.8590E-16  0.1000E-09  0.0000E+00  0.1060E+17
   -0.112493    0.54974  0.1749E-12  0.4096E-13  0.8590E-16  0.1000E-09  0.0000E+00  0.9911E+16
   -0.149992    0.72875  0.1285E-12  0.4096E-13  0.8590E-16  0.1000E-09  0.0000E+00  0.9248E+16
   -0.187491    0.90569  0.1077E-12  0.4096E-13  0.8590E-16  0.1000E-09  0.0000E+00  0.8606E+16
   -0.224990    1.08054  0.9872E-13  0.5089E-13  0.8590E-16  0.1000E-09  0.0000E+00  0.7986E+16
   -0.262489    1.25329  0.9448E-13  0.1656E-12  0.8668E-16  0.1000E-09  0.0000E+00  0.7386E+16
   -0.299989    1.42392  0.9215E-13  0.4486E-12  0.1064E-15  0.1000E-09  0.0000E+00  0.6806E+16
   -0.337488    1.59237  0.9064E-13  0.9418E-12  0.1731E-15  0.1000E-09  0.0000E+00  0.6245E+16
   -0.374988    1.75859  0.8950E-13  0.1779E-11  0.2990E-15  0.1000E-09  0.0000E+00  0.5710E+16
   -0.412489    1.92273  0.8858E-13  0.3212E-11  0.5193E-15  0.1000E-09  0.0000E+00  0.5197E+16
   -0.449989    2.08484  0.8782E-13  0.5683E-11  0.8978E-15  0.1000E-09  0.0000E+00  0.4701E+16
   -0.487489    2.24485  0.8720E-13  0.9954E-11  0.1545E-14  0.1000E-09  0.0000E+00  0.4221E+16
   -0.524990    2.40267  0.8672E-13  0.1727E-10  0.2637E-14  0.1000E-09  0.0000E+00  0.3760E+16
   -0.562491    2.55827  0.8638E-13  0.2978E-10  0.4475E-14  0.1000E-09  0.0000E+00  0.3316E+16
   -0.599992    2.71154  0.8616E-13  0.5110E-10  0.7559E-14  0.1000E-09  0.0000E+00  0.2888E+16
   -0.637492    2.86237  0.8602E-13  0.8731E-10  0.1271E-13  0.1000E-09  0.0000E+00  0.2478E+16
   -0.674993    3.01056  0.8595E-13  0.1486E-09  0.2130E-13  0.1000E-09  0.0000E+00  0.2086E+16
   -0.712494    3.15590  0.8591E-13  0.2519E-09  0.3553E-13  0.1000E-09  0.0000E+00  0.1712E+16
   -0.749995    3.29806  0.8589E-13  0.4252E-09  0.5904E-13  0.1297E-09  0.0000E+00  0.1362E+16
   -0.787496    3.43720  0.8589E-13  0.7149E-09  0.9771E-13  0.2623E-09  0.0000E+00  0.1032E+16
   -0.824997    3.57314  0.8588E-13  0.1197E-08  0.1610E-12  0.6125E-09  0.0000E+00  0.7240E+15
   -0.862498    3.70569  0.8588E-13  0.1994E-08  0.2641E-12  0.1644E-08  0.0000E+00  0.4374E+15
   -0.899999    3.83474  0.8588E-13  0.3298E-08  0.4303E-12  0.7030E-08  0.0000E+00  0.1702E+15
   -0.937500    3.95740  0.8588E-13  0.4641E-08  0.6063E-12  0.3556E-05  0.0000E+00  0.1030E+14
   -0.975001    3.99879  0.8588E-13  0.5219E-08  0.6885E-12  0.1401E-04  0.0000E+00 -0.2521E+12
   -1.012501    4.00017  0.8588E-13  0.5550E-08  0.7454E-12  0.1503E-04  0.0000E+00 -0.2648E+12
   -1.050002    4.00143  0.8588E-13  0.5835E-08  0.8053E-12  0.1554E-04  0.0000E+00 -0.2823E+12
   -1.087502    4.00264  0.8588E-13  0.6080E-08  0.8698E-12  0.1569E-04  0.0000E+00 -0.3051E+12
   -1.125003    4.00385  0.8588E-13  0.6283E-08  0.9411E-12  0.1547E-04  0.0000E+00 -0.3362E+12
   -1.162502    4.00507  0.8588E-13  0.6441E-08  0.1021E-11  0.1485E-04  0.0000E+00 -0.3790E+12
   -1.200002    4.00636  0.8588E-13  0.6549E-08  0.1114E-11  0.1388E-04  0.0000E+00 -0.4381E+12
   -1.237502    4.00774  0.8588E-13  0.6595E-08  0.1225E-11  0.1260E-04  0.0000E+00 -0.5220E+12
   -1.275001    4.00927  0.8588E-13  0.6564E-08  0.1363E-11  0.1101E-04  0.0000E+00 -0.6488E+12
   -1.312500    4.01103  0.8588E-13  0.6430E-08  0.1545E-11  0.9072E-05  0.0000E+00 -0.8597E+12
   -1.349999    4.01318  0.8588E-13  0.6147E-08  0.1807E-11  0.6818E-05  0.0000E+00 -0.1264E+13
   -1.387497    4.01606  0.8588E-13  0.5622E-08  0.2242E-11  0.4331E-05  0.0000E+00 -0.2252E+13
   -1.424996    4.02058  0.8588E-13  0.4650E-08  0.3169E-11  0.1891E-05  0.0000E+00 -0.6138E+13
   -1.462493    4.03058  0.8588E-13  0.2933E-08  0.6219E-11  0.3057E-06  0.0000E+00 -0.4744E+14
   -1.499991    4.07587  0.8588E-13  0.0000E+00  0.0000E+00  0.0000E+00  0.0000E+00  0.0000E+00
