 1 - depth, m
 2 - temperature, C
 3 - salinity, kg/kg
 4 - turbulent kinetic energy, m**2/s**2
 5 - dissipation rate, m**2/s**3
 6 - kinematic heat conductance, m**2/s
 7 - modulus of horizontal velocity, m/s
 8 - Richardson number, n/d
   -0.000000    1.93266  0.8705E-13  0.3473E-03  0.3241E-03  0.7721E-04  0.2203E+00 -0.1124E-02
   -0.037498    1.96055  0.8706E-13  0.1975E-03  0.9826E-04  0.1677E-03  0.6708E-01 -0.2487E-02
   -0.074996    1.96526  0.8706E-13  0.1391E-03  0.3678E-04  0.1727E-03  0.4618E-01  0.5128E-02
   -0.112494    1.96864  0.8706E-13  0.1094E-03  0.1946E-04  0.1733E-03  0.3859E-01  0.6402E-02
   -0.149993    1.97092  0.8706E-13  0.8926E-04  0.1131E-04  0.1752E-03  0.3363E-01  0.4239E-02
   -0.187492    1.97279  0.8706E-13  0.7408E-04  0.6709E-05  0.1790E-03  0.2971E-01  0.3677E-02
   -0.224992    1.97444  0.8706E-13  0.6244E-04  0.4068E-05  0.1841E-03  0.2646E-01  0.5173E-02
   -0.262492    1.97594  0.8706E-13  0.5345E-04  0.2550E-05  0.1881E-03  0.2381E-01  0.5529E-02
   -0.299991    1.97737  0.8706E-13  0.4632E-04  0.1678E-05  0.1918E-03  0.2148E-01  0.7064E-02
   -0.337492    1.97874  0.8706E-13  0.4054E-04  0.1165E-05  0.1954E-03  0.1944E-01  0.9027E-02
   -0.374992    1.98008  0.8706E-13  0.3573E-04  0.8457E-06  0.1991E-03  0.1767E-01  0.1316E-01
   -0.412492    1.98138  0.8706E-13  0.3171E-04  0.6351E-06  0.2029E-03  0.1615E-01  0.2422E-01
   -0.449993    1.98264  0.8706E-13  0.2832E-04  0.4888E-06  0.2075E-03  0.1484E-01  0.7750E-01
   -0.487494    1.98384  0.8706E-13  0.2550E-04  0.3841E-06  0.2122E-03  0.1374E-01  0.5165E+00
   -0.524995    1.98500  0.8706E-13  0.2319E-04  0.3080E-06  0.2129E-03  0.1278E-01  0.8285E+00
   -0.562496    1.98617  0.8706E-13  0.2123E-04  0.2508E-06  0.2137E-03  0.1188E-01  0.2018E+00
   -0.599997    1.98733  0.8706E-13  0.1954E-04  0.2069E-06  0.2145E-03  0.1103E-01  0.1321E+00
   -0.637499    1.98849  0.8706E-13  0.1805E-04  0.1726E-06  0.2150E-03  0.1024E-01  0.1131E+00
   -0.675000    1.98966  0.8706E-13  0.1674E-04  0.1454E-06  0.2149E-03  0.9490E-02  0.1074E+00
   -0.712501    1.99084  0.8706E-13  0.1556E-04  0.1236E-06  0.2142E-03  0.8790E-02  0.1072E+00
   -0.750003    1.99203  0.8706E-13  0.1448E-04  0.1059E-06  0.2126E-03  0.8133E-02  0.1100E+00
   -0.787504    1.99325  0.8706E-13  0.1350E-04  0.9135E-07  0.2101E-03  0.7513E-02  0.1146E+00
   -0.825005    1.99449  0.8706E-13  0.1259E-04  0.7929E-07  0.2066E-03  0.6927E-02  0.1201E+00
   -0.862507    1.99576  0.8706E-13  0.1175E-04  0.6919E-07  0.2019E-03  0.6370E-02  0.1259E+00
   -0.900008    1.99708  0.8706E-13  0.1095E-04  0.6064E-07  0.1957E-03  0.5838E-02  0.1314E+00
   -0.937509    1.99847  0.8706E-13  0.1019E-04  0.5328E-07  0.1879E-03  0.5326E-02  0.1357E+00
   -0.975010    1.99993  0.8706E-13  0.9441E-05  0.4679E-07  0.1776E-03  0.4826E-02  0.1374E+00
   -1.012511    2.00151  0.8706E-13  0.8690E-05  0.4093E-07  0.1716E-03  0.4331E-02  0.1870E+00
   -1.050012    2.00317  0.8706E-13  0.7954E-05  0.3571E-07  0.1644E-03  0.3881E-02  0.2717E+00
   -1.087513    2.00494  0.8706E-13  0.7242E-05  0.3109E-07  0.1553E-03  0.3476E-02  0.4039E+00
   -1.125013    2.00685  0.8706E-13  0.6555E-05  0.2700E-07  0.1448E-03  0.3109E-02  0.6188E+00
   -1.162514    2.00896  0.8706E-13  0.5897E-05  0.2341E-07  0.1328E-03  0.2777E-02  0.9989E+00
   -1.200014    2.01134  0.8706E-13  0.5268E-05  0.2025E-07  0.1196E-03  0.2476E-02  0.1947E+01
   -1.237514    2.01408  0.8706E-13  0.4665E-05  0.1751E-07  0.1052E-03  0.2203E-02  0.5249E+01
   -1.275013    2.01738  0.8706E-13  0.4088E-05  0.1514E-07  0.8967E-04  0.1956E-02  0.1926E+02
   -1.312513    2.02159  0.8706E-13  0.3532E-05  0.1315E-07  0.7311E-04  0.1733E-02  0.1178E+03
   -1.350012    2.02754  0.8706E-13  0.2986E-05  0.1153E-07  0.5552E-04  0.1532E-02  0.1465E+04
   -1.387511    2.03913  0.8706E-13  0.2412E-05  0.1032E-07  0.3731E-04  0.1346E-02  0.2973E+05
   -1.425009    2.09195  0.8706E-13  0.1727E-05  0.9835E-08  0.2030E-04  0.1147E-02  0.8223E+06
   -1.462507    2.31593  0.8706E-13  0.7368E-06  0.1549E-07  0.3179E-05  0.9410E-03  0.3962E+07
   -1.500005    2.66845  0.8706E-13  0.0000E+00  0.0000E+00  0.0000E+00  0.9184E-03  0.0000E+00
