 1 - depth, m
 2 - temperature, C
 3 - salinity, kg/kg
 4 - turbulent kinetic energy, m**2/s**2
 5 - dissipation rate, m**2/s**3
 6 - kinematic heat conductance, m**2/s
 7 - modulus of horizontal velocity, m/s
 8 - Richardson number, n/d
   -0.000000   -0.00000  0.2307E-12  0.4096E-13  0.8590E-16  0.1000E-09  0.0000E+00  0.8252E+16
   -0.037498    0.12592  0.2509E-12  0.4096E-13  0.8590E-16  0.1000E-09  0.0000E+00  0.7960E+16
   -0.074996    0.25168  0.2714E-12  0.4096E-13  0.8590E-16  0.1000E-09  0.0000E+00  0.7666E+16
   -0.112494    0.37719  0.2726E-12  0.4096E-13  0.8590E-16  0.1000E-09  0.0000E+00  0.7370E+16
   -0.149993    0.50239  0.2528E-12  0.4096E-13  0.8590E-16  0.1000E-09  0.0000E+00  0.7074E+16
   -0.187492    0.62722  0.2206E-12  0.4096E-13  0.8590E-16  0.1000E-09  0.0000E+00  0.6779E+16
   -0.224991    0.75163  0.1860E-12  0.4096E-13  0.8590E-16  0.1000E-09  0.0000E+00  0.6485E+16
   -0.262491    0.87556  0.1557E-12  0.4096E-13  0.8590E-16  0.1000E-09  0.0000E+00  0.6195E+16
   -0.299991    0.99900  0.1323E-12  0.4096E-13  0.8590E-16  0.1000E-09  0.0000E+00  0.5907E+16
   -0.337491    1.12190  0.1158E-12  0.4096E-13  0.8590E-16  0.1000E-09  0.0000E+00  0.5620E+16
   -0.374991    1.24422  0.1048E-12  0.4096E-13  0.8590E-16  0.1000E-09  0.0000E+00  0.5339E+16
   -0.412491    1.36594  0.9780E-13  0.4096E-13  0.8590E-16  0.1000E-09  0.0000E+00  0.5061E+16
   -0.449992    1.48703  0.9337E-13  0.4096E-13  0.8590E-16  0.1000E-09  0.0000E+00  0.4785E+16
   -0.487493    1.60744  0.9054E-13  0.4096E-13  0.8590E-16  0.1000E-09  0.0000E+00  0.4513E+16
   -0.524994    1.72714  0.8866E-13  0.4096E-13  0.8590E-16  0.1000E-09  0.0000E+00  0.4250E+16
   -0.562495    1.84619  0.8734E-13  0.4096E-13  0.8590E-16  0.1000E-09  0.0000E+00  0.3989E+16
   -0.599996    1.96455  0.8636E-13  0.4096E-13  0.8590E-16  0.1000E-09  0.0000E+00  0.3732E+16
   -0.637497    2.08216  0.8559E-13  0.4096E-13  0.8590E-16  0.1000E-09  0.0000E+00  0.3479E+16
   -0.674998    2.19898  0.8497E-13  0.4096E-13  0.8590E-16  0.1000E-09  0.0000E+00  0.3230E+16
   -0.712499    2.31495  0.8447E-13  0.4096E-13  0.8590E-16  0.1000E-09  0.0000E+00  0.2985E+16
   -0.750001    2.43001  0.8407E-13  0.4096E-13  0.8590E-16  0.1000E-09  0.0000E+00  0.2747E+16
   -0.787502    2.54424  0.8376E-13  0.4096E-13  0.8590E-16  0.1000E-09  0.0000E+00  0.2515E+16
   -0.825003    2.65761  0.8353E-13  0.4096E-13  0.8590E-16  0.1000E-09  0.0000E+00  0.2288E+16
   -0.862504    2.77008  0.8336E-13  0.4096E-13  0.8590E-16  0.1000E-09  0.0000E+00  0.2065E+16
   -0.900005    2.88158  0.8325E-13  0.1484E-12  0.9491E-16  0.1000E-09  0.0000E+00  0.1847E+16
   -0.937507    2.99207  0.8318E-13  0.4363E-12  0.2137E-15  0.1000E-09  0.0000E+00  0.1635E+16
   -0.975008    3.10148  0.8313E-13  0.1131E-11  0.5182E-15  0.1000E-09  0.0000E+00  0.1428E+16
   -1.012508    3.20976  0.8310E-13  0.2819E-11  0.1249E-14  0.1000E-09  0.0000E+00  0.1225E+16
   -1.050009    3.31670  0.8309E-13  0.6929E-11  0.2985E-14  0.1000E-09  0.0000E+00  0.1029E+16
   -1.087510    3.42217  0.8308E-13  0.1683E-10  0.7061E-14  0.1000E-09  0.0000E+00  0.8406E+15
   -1.125010    3.52610  0.8307E-13  0.4047E-10  0.1653E-13  0.1000E-09  0.0000E+00  0.6668E+15
   -1.162510    3.62964  0.8307E-13  0.9629E-10  0.3834E-13  0.2130E-09  0.0000E+00  0.4958E+15
   -1.200010    3.73290  0.8307E-13  0.2267E-09  0.8806E-13  0.7413E-09  0.0000E+00  0.3261E+15
   -1.237510    3.83560  0.8307E-13  0.5277E-09  0.2002E-12  0.3431E-08  0.0000E+00  0.1585E+15
   -1.275010    3.93625  0.8307E-13  0.1188E-08  0.4422E-12  0.6351E-07  0.0000E+00  0.1622E+14
   -1.312509    4.00733  0.8307E-13  0.2191E-08  0.8329E-12  0.2263E-05  0.0000E+00 -0.2295E+13
   -1.350008    4.01342  0.8307E-13  0.2649E-08  0.1135E-11  0.2309E-05  0.0000E+00 -0.2848E+13
   -1.387507    4.01946  0.8307E-13  0.2809E-08  0.1508E-11  0.1845E-05  0.0000E+00 -0.4351E+13
   -1.425005    4.02698  0.8307E-13  0.2592E-08  0.2134E-11  0.1010E-05  0.0000E+00 -0.9725E+13
   -1.462503    4.04013  0.8307E-13  0.1861E-08  0.3813E-11  0.2232E-06  0.0000E+00 -0.4938E+14
   -1.500001    4.08227  0.8307E-13  0.0000E+00  0.0000E+00  0.0000E+00  0.0000E+00  0.0000E+00
