 1 - depth, m
 2 - temperature, C
 3 - salinity, kg/kg
 4 - turbulent kinetic energy, m**2/s**2
 5 - dissipation rate, m**2/s**3
 6 - kinematic heat conductance, m**2/s
 7 - modulus of horizontal velocity, m/s
 8 - Richardson number, n/d
   -0.000000   -0.00000  0.3873E-12  0.6737E-12  0.1927E-15  0.1000E-09  0.0000E+00  0.1454E+17
   -0.037498    0.22493  0.2510E-12  0.1038E-11  0.2117E-15  0.1000E-09  0.0000E+00  0.1351E+17
   -0.074995    0.44758  0.2043E-12  0.1812E-11  0.3073E-15  0.1000E-09  0.0000E+00  0.1251E+17
   -0.112494    0.66784  0.1690E-12  0.3185E-11  0.4971E-15  0.1000E-09  0.0000E+00  0.1153E+17
   -0.149992    0.88558  0.1397E-12  0.5530E-11  0.8283E-15  0.1000E-09  0.0000E+00  0.1059E+17
   -0.187491    1.10071  0.1188E-12  0.9500E-11  0.1386E-14  0.1000E-09  0.0000E+00  0.9674E+16
   -0.224990    1.31313  0.1060E-12  0.1619E-10  0.2315E-14  0.1000E-09  0.0000E+00  0.8790E+16
   -0.262490    1.52274  0.9897E-13  0.2742E-10  0.3848E-14  0.1000E-09  0.0000E+00  0.7943E+16
   -0.299989    1.72956  0.9546E-13  0.4615E-10  0.6364E-14  0.1000E-09  0.0000E+00  0.7127E+16
   -0.337489    1.93351  0.9372E-13  0.7733E-10  0.1048E-13  0.1000E-09  0.0000E+00  0.6343E+16
   -0.374989    2.13451  0.9272E-13  0.1290E-09  0.1719E-13  0.1000E-09  0.0000E+00  0.5612E+16
   -0.412490    2.33330  0.9190E-13  0.2143E-09  0.2808E-13  0.1000E-09  0.0000E+00  0.4919E+16
   -0.449990    2.53033  0.9100E-13  0.3547E-09  0.4571E-13  0.1000E-09  0.0000E+00  0.4245E+16
   -0.487491    2.72553  0.8991E-13  0.5848E-09  0.7412E-13  0.1000E-09  0.0000E+00  0.3591E+16
   -0.524991    2.91880  0.8872E-13  0.9576E-09  0.1194E-12  0.1121E-09  0.0000E+00  0.2956E+16
   -0.562492    3.10998  0.8761E-13  0.1559E-08  0.1912E-12  0.2266E-09  0.0000E+00  0.2342E+16
   -0.599993    3.29886  0.8676E-13  0.2525E-08  0.3048E-12  0.4832E-09  0.0000E+00  0.1751E+16
   -0.637494    3.48519  0.8624E-13  0.4072E-08  0.4838E-12  0.1135E-08  0.0000E+00  0.1183E+16
   -0.674995    3.66842  0.8598E-13  0.6535E-08  0.7642E-12  0.3310E-08  0.0000E+00  0.6411E+15
   -0.712496    3.84662  0.8589E-13  0.1036E-07  0.1194E-11  0.2196E-07  0.0000E+00  0.1510E+15
   -0.749997    4.00248  0.8587E-13  0.1096E-07  0.1267E-11  0.3720E-04  0.0000E+00 -0.1752E+12
   -0.787498    4.00316  0.8587E-13  0.1123E-07  0.1305E-11  0.3690E-04  0.0000E+00 -0.1839E+12
   -0.825000    4.00384  0.8587E-13  0.1145E-07  0.1343E-11  0.3722E-04  0.0000E+00 -0.1898E+12
   -0.862501    4.00452  0.8587E-13  0.1166E-07  0.1385E-11  0.3740E-04  0.0000E+00 -0.1963E+12
   -0.900002    4.00520  0.8587E-13  0.1183E-07  0.1429E-11  0.3738E-04  0.0000E+00 -0.2039E+12
   -0.937503    4.00587  0.8587E-13  0.1199E-07  0.1476E-11  0.3716E-04  0.0000E+00 -0.2127E+12
   -0.975003    4.00656  0.8587E-13  0.1211E-07  0.1528E-11  0.3673E-04  0.0000E+00 -0.2229E+12
   -1.012504    4.00725  0.8587E-13  0.1221E-07  0.1583E-11  0.3611E-04  0.0000E+00 -0.2355E+12
   -1.050005    4.00795  0.8587E-13  0.1228E-07  0.1645E-11  0.3526E-04  0.0000E+00 -0.2507E+12
   -1.087505    4.00868  0.8587E-13  0.1232E-07  0.1714E-11  0.3418E-04  0.0000E+00 -0.2689E+12
   -1.125005    4.00944  0.8587E-13  0.1233E-07  0.1792E-11  0.3285E-04  0.0000E+00 -0.2904E+12
   -1.162505    4.01022  0.8587E-13  0.1229E-07  0.1880E-11  0.3127E-04  0.0000E+00 -0.3169E+12
   -1.200005    4.01106  0.8587E-13  0.1220E-07  0.1989E-11  0.2935E-04  0.0000E+00 -0.3510E+12
   -1.237505    4.01195  0.8587E-13  0.1203E-07  0.2138E-11  0.2524E-04  0.0000E+00 -0.4257E+12
   -1.275004    4.01299  0.8587E-13  0.1174E-07  0.2341E-11  0.1999E-04  0.0000E+00 -0.5640E+12
   -1.312504    4.01430  0.8587E-13  0.1131E-07  0.2621E-11  0.1560E-04  0.0000E+00 -0.7657E+12
   -1.350002    4.01600  0.8587E-13  0.1066E-07  0.3036E-11  0.1138E-04  0.0000E+00 -0.1127E+13
   -1.387501    4.01833  0.8587E-13  0.9657E-08  0.3740E-11  0.7084E-05  0.0000E+00 -0.1989E+13
   -1.424999    4.02208  0.8587E-13  0.7951E-08  0.5295E-11  0.3037E-05  0.0000E+00 -0.5386E+13
   -1.462497    4.03067  0.8587E-13  0.4785E-08  0.1098E-10  0.4327E-06  0.0000E+00 -0.5131E+14
   -1.499995    4.07864  0.8587E-13  0.0000E+00  0.0000E+00  0.0000E+00  0.0000E+00  0.0000E+00
