 1 - depth, m
 2 - temperature, C
 3 - salinity, kg/kg
 4 - turbulent kinetic energy, m**2/s**2
 5 - dissipation rate, m**2/s**3
 6 - kinematic heat conductance, m**2/s
 7 - modulus of horizontal velocity, m/s
 8 - Richardson number, n/d
   -0.000000   -0.00000  0.1912E-16  0.4095E-13  0.8588E-16  0.1000E-09  0.0000E+00  0.1297E+17
   -0.037499    0.20083  0.1868E-12  0.4095E-13  0.8588E-16  0.1000E-09  0.0000E+00  0.9916E+16
   -0.074999    0.36297  0.2764E-12  0.4095E-13  0.8588E-16  0.1000E-09  0.0000E+00  0.8201E+16
   -0.112499    0.50287  0.2723E-12  0.4095E-13  0.8588E-16  0.1000E-09  0.0000E+00  0.7225E+16
   -0.150000    0.63080  0.2418E-12  0.4095E-13  0.8588E-16  0.1000E-09  0.0000E+00  0.6633E+16
   -0.187500    0.75261  0.2106E-12  0.4095E-13  0.8588E-16  0.1000E-09  0.0000E+00  0.6217E+16
   -0.225001    0.87109  0.1827E-12  0.4095E-13  0.8588E-16  0.1000E-09  0.0000E+00  0.5855E+16
   -0.262503    0.98702  0.1579E-12  0.4095E-13  0.8588E-16  0.1000E-09  0.0000E+00  0.5685E+16
   -0.300004    1.10430  0.1370E-12  0.4095E-13  0.8588E-16  0.1000E-09  0.0000E+00  0.5522E+16
   -0.337506    1.22328  0.1205E-12  0.4095E-13  0.8588E-16  0.1000E-09  0.0000E+00  0.5325E+16
   -0.375008    1.34337  0.1085E-12  0.4339E-13  0.8649E-16  0.1000E-09  0.0000E+00  0.5058E+16
   -0.412510    1.46296  0.1003E-12  0.5953E-13  0.9696E-16  0.1000E-09  0.0000E+00  0.4728E+16
   -0.450012    1.58027  0.9493E-13  0.1236E-12  0.1446E-15  0.1000E-09  0.0000E+00  0.4334E+16
   -0.487515    1.69315  0.9157E-13  0.3509E-12  0.3138E-15  0.1000E-09  0.0000E+00  0.3939E+16
   -0.525017    1.80090  0.8950E-13  0.1115E-11  0.8710E-15  0.1000E-09  0.0000E+00  0.3896E+16
   -0.562520    1.91340  0.8822E-13  0.3629E-11  0.2649E-14  0.1000E-09  0.0000E+00  0.3764E+16
   -0.600023    2.02857  0.8741E-13  0.1175E-10  0.8210E-14  0.1000E-09  0.0000E+00  0.3577E+16
   -0.637525    2.14501  0.8689E-13  0.3766E-10  0.2535E-13  0.1104E-09  0.0000E+00  0.3360E+16
   -0.675028    2.26178  0.8655E-13  0.1194E-09  0.7770E-13  0.1579E-09  0.0000E+00  0.3126E+16
   -0.712531    2.37826  0.8631E-13  0.3769E-09  0.2372E-12  0.3212E-09  0.0000E+00  0.2888E+16
   -0.750034    2.49423  0.8616E-13  0.1188E-08  0.7245E-12  0.7651E-09  0.0000E+00  0.2719E+16
   -0.787537    2.61282  0.8605E-13  0.3718E-08  0.2206E-11  0.1698E-08  0.0000E+00  0.2655E+16
   -0.825040    2.74148  0.8598E-13  0.1132E-07  0.6562E-11  0.3812E-08  0.0000E+00  0.2703E+16
   -0.862543    2.90482  0.8594E-13  0.2519E-07  0.1440E-10  0.1877E-05  0.0000E+00  0.2369E+16
   -0.900046    3.09764  0.8591E-13  0.3728E-07  0.2146E-10  0.1165E-04  0.0000E+00  0.1928E+16
   -0.937549    3.26958  0.8590E-13  0.4737E-07  0.2760E-10  0.1957E-04  0.0000E+00  0.1552E+16
   -0.975051    3.42246  0.8589E-13  0.5551E-07  0.3280E-10  0.2588E-04  0.0000E+00  0.1236E+16
   -1.012554    3.55946  0.8589E-13  0.6177E-07  0.3707E-10  0.3076E-04  0.0000E+00  0.9382E+15
   -1.050056    3.67912  0.8588E-13  0.6646E-07  0.4058E-10  0.3407E-04  0.0000E+00  0.7093E+15
   -1.087559    3.78786  0.8588E-13  0.7009E-07  0.4359E-10  0.3593E-04  0.0000E+00  0.5091E+15
   -1.125061    3.89501  0.8588E-13  0.7347E-07  0.4657E-10  0.3678E-04  0.0000E+00  0.2695E+15
   -1.162563    4.00144  0.8588E-13  0.7614E-07  0.4966E-10  0.3947E-04  0.0000E+00  0.6614E+14
   -1.200064    4.06406  0.8588E-13  0.7775E-07  0.5292E-10  0.4135E-04  0.0000E+00 -0.2902E+13
   -1.237566    4.07364  0.8588E-13  0.7835E-07  0.5658E-10  0.4022E-04  0.0000E+00 -0.5072E+13
   -1.275067    4.07727  0.8588E-13  0.7817E-07  0.6098E-10  0.3749E-04  0.0000E+00 -0.5736E+13
   -1.312568    4.08113  0.8588E-13  0.7717E-07  0.6657E-10  0.3374E-04  0.0000E+00 -0.6745E+13
   -1.350069    4.08547  0.8588E-13  0.7516E-07  0.7415E-10  0.2893E-04  0.0000E+00 -0.8412E+13
   -1.387569    4.09069  0.8588E-13  0.7151E-07  0.8629E-10  0.2215E-04  0.0000E+00 -0.1204E+14
   -1.425069    4.09790  0.8588E-13  0.6401E-07  0.1134E-09  0.1057E-04  0.0000E+00 -0.2764E+14
   -1.462569    4.11257  0.8588E-13  0.4172E-07  0.2424E-09  0.1660E-05  0.0000E+00 -0.2192E+15
   -1.500068    4.19010  0.8588E-13  0.0000E+00  0.0000E+00  0.0000E+00  0.0000E+00  0.0000E+00
