 1 - depth, m
 2 - temperature, C
 3 - salinity, kg/kg
 4 - turbulent kinetic energy, m**2/s**2
 5 - dissipation rate, m**2/s**3
 6 - kinematic heat conductance, m**2/s
 7 - modulus of horizontal velocity, m/s
 8 - Richardson number, n/d
   -0.000000   -0.00000  0.5642E-12  0.4096E-13  0.8590E-16  0.1000E-09  0.0000E+00  0.1079E+17
   -0.037498    0.16547  0.4721E-12  0.4096E-13  0.8590E-16  0.1000E-09  0.0000E+00  0.1029E+17
   -0.074996    0.33075  0.3179E-12  0.4096E-13  0.8590E-16  0.1000E-09  0.0000E+00  0.9784E+16
   -0.112494    0.49566  0.2091E-12  0.4096E-13  0.8590E-16  0.1000E-09  0.0000E+00  0.9274E+16
   -0.149993    0.65998  0.1486E-12  0.4096E-13  0.8590E-16  0.1000E-09  0.0000E+00  0.8762E+16
   -0.187492    0.82352  0.1180E-12  0.4096E-13  0.8590E-16  0.1000E-09  0.0000E+00  0.8250E+16
   -0.224991    0.98610  0.1033E-12  0.4096E-13  0.8590E-16  0.1000E-09  0.0000E+00  0.7740E+16
   -0.262491    1.14752  0.9628E-13  0.4096E-13  0.8590E-16  0.1000E-09  0.0000E+00  0.7237E+16
   -0.299991    1.30767  0.9275E-13  0.4096E-13  0.8590E-16  0.1000E-09  0.0000E+00  0.6740E+16
   -0.337491    1.46638  0.9076E-13  0.1510E-12  0.8590E-16  0.1000E-09  0.0000E+00  0.6250E+16
   -0.374991    1.62350  0.8946E-13  0.4258E-12  0.1070E-15  0.1000E-09  0.0000E+00  0.5773E+16
   -0.412491    1.77896  0.8851E-13  0.9084E-12  0.1764E-15  0.1000E-09  0.0000E+00  0.5308E+16
   -0.449992    1.93265  0.8777E-13  0.1734E-11  0.3077E-15  0.1000E-09  0.0000E+00  0.4854E+16
   -0.487493    2.08443  0.8718E-13  0.3159E-11  0.5377E-15  0.1000E-09  0.0000E+00  0.4414E+16
   -0.524994    2.23420  0.8674E-13  0.5611E-11  0.9308E-15  0.1000E-09  0.0000E+00  0.3994E+16
   -0.562495    2.38209  0.8642E-13  0.9831E-11  0.1597E-14  0.1000E-09  0.0000E+00  0.3587E+16
   -0.599996    2.52801  0.8620E-13  0.1708E-10  0.2723E-14  0.1000E-09  0.0000E+00  0.3194E+16
   -0.637497    2.67187  0.8605E-13  0.2951E-10  0.4615E-14  0.1000E-09  0.0000E+00  0.2817E+16
   -0.674998    2.81362  0.8597E-13  0.5069E-10  0.7784E-14  0.1000E-09  0.0000E+00  0.2454E+16
   -0.712499    2.95318  0.8592E-13  0.8663E-10  0.1307E-13  0.1000E-09  0.0000E+00  0.2107E+16
   -0.750001    3.09052  0.8590E-13  0.1474E-09  0.2183E-13  0.1000E-09  0.0000E+00  0.1782E+16
   -0.787502    3.22613  0.8589E-13  0.2495E-09  0.3630E-13  0.1000E-09  0.0000E+00  0.1472E+16
   -0.825003    3.36018  0.8588E-13  0.4203E-09  0.6009E-13  0.1425E-09  0.0000E+00  0.1172E+16
   -0.862505    3.49264  0.8588E-13  0.7050E-09  0.9904E-13  0.3116E-09  0.0000E+00  0.8833E+15
   -0.900006    3.62340  0.8588E-13  0.1177E-08  0.1625E-12  0.7463E-09  0.0000E+00  0.6054E+15
   -0.937507    3.75225  0.8588E-13  0.1954E-08  0.2652E-12  0.2180E-08  0.0000E+00  0.3388E+15
   -0.975008    3.87835  0.8588E-13  0.3212E-08  0.4290E-12  0.1325E-07  0.0000E+00  0.9100E+14
   -1.012509    3.99414  0.8588E-13  0.3868E-08  0.5189E-12  0.9284E-05  0.0000E+00 -0.2561E+12
   -1.050009    3.99607  0.8588E-13  0.4206E-08  0.5761E-12  0.1041E-04  0.0000E+00 -0.2764E+12
   -1.087510    3.99777  0.8588E-13  0.4499E-08  0.6372E-12  0.1106E-04  0.0000E+00 -0.3003E+12
   -1.125010    3.99936  0.8588E-13  0.4748E-08  0.7036E-12  0.1132E-04  0.0000E+00 -0.3317E+12
   -1.162511    4.00090  0.8588E-13  0.4953E-08  0.7774E-12  0.1122E-04  0.0000E+00 -0.3736E+12
   -1.200011    4.00246  0.8588E-13  0.5108E-08  0.8615E-12  0.1076E-04  0.0000E+00 -0.4312E+12
   -1.237511    4.00409  0.8588E-13  0.5208E-08  0.9605E-12  0.9966E-05  0.0000E+00 -0.5142E+12
   -1.275010    4.00586  0.8588E-13  0.5238E-08  0.1082E-11  0.8827E-05  0.0000E+00 -0.6414E+12
   -1.312509    4.00785  0.8588E-13  0.5177E-08  0.1242E-11  0.7355E-05  0.0000E+00 -0.8547E+12
   -1.350009    4.01026  0.8588E-13  0.4986E-08  0.1470E-11  0.5574E-05  0.0000E+00 -0.1268E+13
   -1.387507    4.01343  0.8588E-13  0.4587E-08  0.1845E-11  0.3560E-05  0.0000E+00 -0.2287E+13
   -1.425006    4.01837  0.8588E-13  0.3814E-08  0.2632E-11  0.1570E-05  0.0000E+00 -0.6321E+13
   -1.462504    4.02915  0.8588E-13  0.2473E-08  0.5106E-11  0.2719E-06  0.0000E+00 -0.4627E+14
   -1.500001    4.07433  0.8588E-13  0.0000E+00  0.0000E+00  0.0000E+00  0.0000E+00  0.0000E+00
