 1 - depth, m
 2 - temperature, C
 3 - salinity, kg/kg
 4 - turbulent kinetic energy, m**2/s**2
 5 - dissipation rate, m**2/s**3
 6 - kinematic heat conductance, m**2/s
 7 - modulus of horizontal velocity, m/s
 8 - Richardson number, n/d
   -0.000000   -0.00000  0.4703E-12  0.3411E-11  0.1291E-14  0.1000E-09  0.0000E+00  0.1648E+17
   -0.037498    0.25601  0.2709E-12  0.5845E-11  0.1258E-14  0.1000E-09  0.0000E+00  0.1510E+17
   -0.074996    0.50823  0.1984E-12  0.1070E-10  0.1699E-14  0.1000E-09  0.0000E+00  0.1378E+17
   -0.112494    0.75664  0.1455E-12  0.1885E-10  0.2619E-14  0.1000E-09  0.0000E+00  0.1252E+17
   -0.149992    1.00128  0.1150E-12  0.3208E-10  0.4192E-14  0.1000E-09  0.0000E+00  0.1133E+17
   -0.187491    1.24227  0.1013E-12  0.5345E-10  0.6751E-14  0.1000E-09  0.0000E+00  0.1019E+17
   -0.224991    1.47973  0.9605E-13  0.8793E-10  0.1084E-13  0.1000E-09  0.0000E+00  0.9107E+16
   -0.262490    1.71384  0.9418E-13  0.1434E-09  0.1733E-13  0.1000E-09  0.0000E+00  0.8087E+16
   -0.299990    1.94502  0.9345E-13  0.2321E-09  0.2756E-13  0.1000E-09  0.0000E+00  0.7117E+16
   -0.337490    2.17361  0.9308E-13  0.3738E-09  0.4361E-13  0.1000E-09  0.0000E+00  0.6192E+16
   -0.374990    2.39995  0.9279E-13  0.5993E-09  0.6873E-13  0.1000E-09  0.0000E+00  0.5348E+16
   -0.412490    2.62631  0.9244E-13  0.9566E-09  0.1079E-12  0.1000E-09  0.0000E+00  0.4538E+16
   -0.449991    2.85423  0.9186E-13  0.1521E-08  0.1686E-12  0.1260E-09  0.0000E+00  0.3720E+16
   -0.487491    3.08391  0.9084E-13  0.2408E-08  0.2625E-12  0.2521E-09  0.0000E+00  0.2884E+16
   -0.524992    3.31499  0.8926E-13  0.3787E-08  0.4061E-12  0.5541E-09  0.0000E+00  0.2029E+16
   -0.562493    3.54591  0.8745E-13  0.5917E-08  0.6243E-12  0.1472E-08  0.0000E+00  0.1174E+16
   -0.599994    3.77461  0.8615E-13  0.9174E-08  0.9527E-12  0.7544E-08  0.0000E+00  0.3515E+15
   -0.637495    3.99196  0.8578E-13  0.9833E-08  0.1024E-11  0.2486E-04  0.0000E+00 -0.1217E+12
   -0.674996    3.99337  0.8578E-13  0.1017E-07  0.1067E-11  0.2923E-04  0.0000E+00 -0.1293E+12
   -0.712497    3.99454  0.8578E-13  0.1048E-07  0.1112E-11  0.3222E-04  0.0000E+00 -0.1354E+12
   -0.749998    3.99558  0.8578E-13  0.1076E-07  0.1159E-11  0.3454E-04  0.0000E+00 -0.1409E+12
   -0.787500    3.99654  0.8578E-13  0.1102E-07  0.1208E-11  0.3629E-04  0.0000E+00 -0.1465E+12
   -0.825001    3.99743  0.8578E-13  0.1125E-07  0.1259E-11  0.3738E-04  0.0000E+00 -0.1535E+12
   -0.862502    3.99829  0.8578E-13  0.1146E-07  0.1312E-11  0.3775E-04  0.0000E+00 -0.1632E+12
   -0.900003    3.99914  0.8578E-13  0.1165E-07  0.1368E-11  0.3752E-04  0.0000E+00 -0.1755E+12
   -0.937504    3.99999  0.8578E-13  0.1181E-07  0.1427E-11  0.3709E-04  0.0000E+00 -0.1892E+12
   -0.975005    4.00085  0.8578E-13  0.1195E-07  0.1490E-11  0.3649E-04  0.0000E+00 -0.2043E+12
   -1.012505    4.00173  0.8578E-13  0.1208E-07  0.1560E-11  0.3572E-04  0.0000E+00 -0.2220E+12
   -1.050006    4.00263  0.8578E-13  0.1218E-07  0.1636E-11  0.3475E-04  0.0000E+00 -0.2424E+12
   -1.087507    4.00355  0.8578E-13  0.1225E-07  0.1722E-11  0.3357E-04  0.0000E+00 -0.2664E+12
   -1.125007    4.00452  0.8578E-13  0.1229E-07  0.1819E-11  0.3216E-04  0.0000E+00 -0.2944E+12
   -1.162507    4.00552  0.8578E-13  0.1229E-07  0.1932E-11  0.3048E-04  0.0000E+00 -0.3288E+12
   -1.200007    4.00659  0.8578E-13  0.1225E-07  0.2075E-11  0.2809E-04  0.0000E+00 -0.3789E+12
   -1.237507    4.00775  0.8578E-13  0.1212E-07  0.2266E-11  0.2367E-04  0.0000E+00 -0.4801E+12
   -1.275006    4.00915  0.8578E-13  0.1189E-07  0.2521E-11  0.1891E-04  0.0000E+00 -0.6436E+12
   -1.312505    4.01088  0.8578E-13  0.1152E-07  0.2870E-11  0.1484E-04  0.0000E+00 -0.8902E+12
   -1.350004    4.01310  0.8578E-13  0.1093E-07  0.3383E-11  0.1086E-04  0.0000E+00 -0.1344E+13
   -1.387503    4.01613  0.8578E-13  0.9987E-08  0.4248E-11  0.6799E-05  0.0000E+00 -0.2442E+13
   -1.425001    4.02097  0.8578E-13  0.8339E-08  0.6138E-11  0.2979E-05  0.0000E+00 -0.6798E+13
   -1.462499    4.03180  0.8578E-13  0.5290E-08  0.1288E-10  0.4795E-06  0.0000E+00 -0.6243E+14
   -1.499997    4.08654  0.8578E-13  0.0000E+00  0.0000E+00  0.0000E+00  0.0000E+00  0.0000E+00
