 1 - depth, m
 2 - temperature, C
 3 - salinity, kg/kg
 4 - turbulent kinetic energy, m**2/s**2
 5 - dissipation rate, m**2/s**3
 6 - kinematic heat conductance, m**2/s
 7 - modulus of horizontal velocity, m/s
 8 - Richardson number, n/d
   -0.000000    0.67761  0.8714E-13  0.2623E-03  0.1957E-03  0.5675E-04  0.1704E+00 -0.4230E-02
   -0.037498    0.71164  0.8714E-13  0.1417E-03  0.5110E-04  0.1350E-03  0.5343E-01  0.9860E-02
   -0.074996    0.71668  0.8714E-13  0.1008E-03  0.2067E-04  0.1400E-03  0.3790E-01  0.8907E-02
   -0.112494    0.72056  0.8714E-13  0.7890E-04  0.1107E-04  0.1367E-03  0.3186E-01  0.5522E-02
   -0.149993    0.72337  0.8714E-13  0.6336E-04  0.6351E-05  0.1361E-03  0.2763E-01  0.1141E-01
   -0.187492    0.72568  0.8714E-13  0.5159E-04  0.3762E-05  0.1373E-03  0.2426E-01  0.1065E-01
   -0.224992    0.72775  0.8714E-13  0.4259E-04  0.2310E-05  0.1391E-03  0.2144E-01  0.1375E-01
   -0.262491    0.72964  0.8714E-13  0.3568E-04  0.1469E-05  0.1398E-03  0.1909E-01  0.1345E-01
   -0.299991    0.73142  0.8714E-13  0.3018E-04  0.9651E-06  0.1399E-03  0.1704E-01  0.1620E-01
   -0.337491    0.73313  0.8714E-13  0.2571E-04  0.6542E-06  0.1395E-03  0.1526E-01  0.2863E-01
   -0.374992    0.73477  0.8714E-13  0.2202E-04  0.4564E-06  0.1386E-03  0.1371E-01  0.3055E-01
   -0.412492    0.73636  0.8714E-13  0.1892E-04  0.3268E-06  0.1374E-03  0.1236E-01  0.5329E-01
   -0.449993    0.73792  0.8714E-13  0.1633E-04  0.2394E-06  0.1364E-03  0.1120E-01  0.4224E+00
   -0.487494    0.73943  0.8714E-13  0.1420E-04  0.1793E-06  0.1354E-03  0.1022E-01  0.8988E+00
   -0.524995    0.74090  0.8714E-13  0.1248E-04  0.1376E-06  0.1311E-03  0.9400E-02  0.1136E+01
   -0.562496    0.74238  0.8714E-13  0.1105E-04  0.1074E-06  0.1269E-03  0.8621E-02  0.2332E+00
   -0.599997    0.74388  0.8714E-13  0.9833E-05  0.8511E-07  0.1227E-03  0.7891E-02  0.1829E+00
   -0.637498    0.74540  0.8714E-13  0.8780E-05  0.6825E-07  0.1181E-03  0.7209E-02  0.1793E+00
   -0.674999    0.74694  0.8714E-13  0.7857E-05  0.5528E-07  0.1131E-03  0.6574E-02  0.1917E+00
   -0.712501    0.74851  0.8714E-13  0.7037E-05  0.4516E-07  0.1076E-03  0.5982E-02  0.2151E+00
   -0.750002    0.75012  0.8714E-13  0.6304E-05  0.3715E-07  0.1016E-03  0.5430E-02  0.2481E+00
   -0.787503    0.75179  0.8714E-13  0.5642E-05  0.3075E-07  0.9497E-04  0.4913E-02  0.2884E+00
   -0.825005    0.75355  0.8714E-13  0.5041E-05  0.2558E-07  0.8780E-04  0.4428E-02  0.3330E+00
   -0.862506    0.75541  0.8714E-13  0.4493E-05  0.2137E-07  0.8004E-04  0.3969E-02  0.3795E+00
   -0.900007    0.75741  0.8714E-13  0.3988E-05  0.1790E-07  0.7165E-04  0.3532E-02  0.4243E+00
   -0.937508    0.75962  0.8714E-13  0.3516E-05  0.1500E-07  0.6246E-04  0.3111E-02  0.4606E+00
   -0.975010    0.76213  0.8714E-13  0.3060E-05  0.1247E-07  0.5174E-04  0.2694E-02  0.4731E+00
   -1.012511    0.76521  0.8714E-13  0.2601E-05  0.1015E-07  0.4393E-04  0.2260E-02  0.8177E+00
   -1.050011    0.76874  0.8715E-13  0.2162E-05  0.8115E-08  0.3560E-04  0.1879E-02  0.1729E+01
   -1.087512    0.77304  0.8715E-13  0.1754E-05  0.6365E-08  0.2676E-04  0.1552E-02  0.4515E+01
   -1.125013    0.77924  0.8715E-13  0.1369E-05  0.4850E-08  0.1766E-04  0.1265E-02  0.3603E+02
   -1.162513    0.79959  0.8715E-13  0.1000E-05  0.3509E-08  0.9850E-05  0.9873E-03  0.1163E+04
   -1.200013    0.86627  0.8714E-13  0.6615E-06  0.2330E-08  0.3807E-05  0.7134E-03  0.2358E+05
   -1.237513    1.00764  0.8714E-13  0.3424E-06  0.1230E-08  0.4425E-06  0.4626E-03  0.2543E+06
   -1.275012    1.28874  0.8715E-13  0.8828E-07  0.3256E-09  0.3281E-07  0.1931E-03  0.2893E+07
   -1.312512    1.75261  0.8715E-13  0.1221E-07  0.4675E-10  0.5525E-08  0.4509E-04  0.4671E+08
   -1.350011    2.25340  0.8716E-13  0.1377E-08  0.5960E-11  0.1086E-08  0.8701E-05  0.1089E+10
   -1.387510    2.75824  0.8716E-13  0.1271E-09  0.1303E-11  0.2710E-09  0.1590E-05  0.2981E+11
   -1.425008    3.28550  0.8716E-13  0.7036E-11  0.1000E-11  0.1156E-09  0.2825E-06  0.7974E+12
   -1.462506    3.83599  0.8716E-13  0.4419E-11  0.1000E-11  0.1000E-09  0.5556E-07  0.9996E+14
   -1.500004    4.46767  0.8716E-13  0.0000E+00  0.0000E+00  0.0000E+00  0.5362E-07  0.0000E+00
