 1 - depth, m
 2 - temperature, C
 3 - salinity, kg/kg
 4 - turbulent kinetic energy, m**2/s**2
 5 - dissipation rate, m**2/s**3
 6 - kinematic heat conductance, m**2/s
 7 - modulus of horizontal velocity, m/s
 8 - Richardson number, n/d
   -0.000000   -0.00000  0.6555E-12  0.4096E-13  0.8590E-16  0.1000E-09  0.0000E+00  0.1015E+17
   -0.037498    0.15546  0.4950E-12  0.4096E-13  0.8590E-16  0.1000E-09  0.0000E+00  0.9686E+16
   -0.074996    0.31039  0.3332E-12  0.4096E-13  0.8590E-16  0.1000E-09  0.0000E+00  0.9224E+16
   -0.112494    0.46467  0.2245E-12  0.4096E-13  0.8590E-16  0.1000E-09  0.0000E+00  0.8763E+16
   -0.149993    0.61820  0.1641E-12  0.4096E-13  0.8590E-16  0.1000E-09  0.0000E+00  0.8305E+16
   -0.187492    0.77086  0.1320E-12  0.4096E-13  0.8590E-16  0.1000E-09  0.0000E+00  0.7849E+16
   -0.224991    0.92251  0.1145E-12  0.4096E-13  0.8590E-16  0.1000E-09  0.0000E+00  0.7397E+16
   -0.262490    1.07304  0.1046E-12  0.4096E-13  0.8590E-16  0.1000E-09  0.0000E+00  0.6952E+16
   -0.299990    1.22236  0.9891E-13  0.4096E-13  0.8590E-16  0.1000E-09  0.0000E+00  0.6513E+16
   -0.337490    1.37034  0.9567E-13  0.4096E-13  0.8590E-16  0.1000E-09  0.0000E+00  0.6081E+16
   -0.374990    1.51686  0.9377E-13  0.4096E-13  0.8590E-16  0.1000E-09  0.0000E+00  0.5667E+16
   -0.412491    1.66208  0.9254E-13  0.4096E-13  0.8590E-16  0.1000E-09  0.0000E+00  0.5267E+16
   -0.449991    1.80605  0.9160E-13  0.5940E-13  0.8590E-16  0.1000E-09  0.0000E+00  0.4874E+16
   -0.487492    1.94867  0.9075E-13  0.2393E-12  0.8804E-16  0.1000E-09  0.0000E+00  0.4489E+16
   -0.524993    2.08984  0.8992E-13  0.5869E-12  0.1425E-15  0.1000E-09  0.0000E+00  0.4113E+16
   -0.562494    2.22943  0.8909E-13  0.1205E-11  0.2581E-15  0.1000E-09  0.0000E+00  0.3747E+16
   -0.599995    2.36736  0.8828E-13  0.2314E-11  0.4715E-15  0.1000E-09  0.0000E+00  0.3392E+16
   -0.637496    2.50356  0.8754E-13  0.4318E-11  0.8551E-15  0.1000E-09  0.0000E+00  0.3048E+16
   -0.674997    2.63794  0.8689E-13  0.7946E-11  0.1539E-14  0.1000E-09  0.0000E+00  0.2716E+16
   -0.712498    2.77045  0.8636E-13  0.1450E-10  0.2750E-14  0.1000E-09  0.0000E+00  0.2397E+16
   -0.749999    2.90103  0.8597E-13  0.2627E-10  0.4885E-14  0.1000E-09  0.0000E+00  0.2096E+16
   -0.787501    3.03002  0.8569E-13  0.4732E-10  0.8629E-14  0.1000E-09  0.0000E+00  0.1808E+16
   -0.825002    3.15753  0.8552E-13  0.8476E-10  0.1516E-13  0.1000E-09  0.0000E+00  0.1530E+16
   -0.862503    3.28354  0.8543E-13  0.1510E-09  0.2649E-13  0.1000E-09  0.0000E+00  0.1262E+16
   -0.900004    3.40802  0.8538E-13  0.2675E-09  0.4605E-13  0.1274E-09  0.0000E+00  0.1003E+16
   -0.937505    3.53095  0.8535E-13  0.4714E-09  0.7965E-13  0.2932E-09  0.0000E+00  0.7545E+15
   -0.975006    3.65220  0.8534E-13  0.8262E-09  0.1370E-12  0.7386E-09  0.0000E+00  0.5153E+15
   -1.012507    3.77153  0.8534E-13  0.1442E-08  0.2349E-12  0.2276E-08  0.0000E+00  0.2868E+15
   -1.050007    3.88831  0.8534E-13  0.2499E-08  0.3999E-12  0.1493E-07  0.0000E+00  0.7483E+14
   -1.087508    3.99455  0.8534E-13  0.3243E-08  0.5213E-12  0.6474E-05  0.0000E+00 -0.3685E+12
   -1.125008    3.99708  0.8534E-13  0.3638E-08  0.6030E-12  0.7448E-05  0.0000E+00 -0.4060E+12
   -1.162508    3.99929  0.8534E-13  0.3970E-08  0.6914E-12  0.7947E-05  0.0000E+00 -0.4550E+12
   -1.200008    4.00138  0.8534E-13  0.4244E-08  0.7899E-12  0.8036E-05  0.0000E+00 -0.5231E+12
   -1.237508    4.00346  0.8534E-13  0.4454E-08  0.9036E-12  0.7748E-05  0.0000E+00 -0.6220E+12
   -1.275008    4.00564  0.8534E-13  0.4591E-08  0.1041E-11  0.7097E-05  0.0000E+00 -0.7743E+12
   -1.312507    4.00805  0.8534E-13  0.4636E-08  0.1217E-11  0.6090E-05  0.0000E+00 -0.1030E+13
   -1.350006    4.01090  0.8534E-13  0.4551E-08  0.1465E-11  0.4745E-05  0.0000E+00 -0.1525E+13
   -1.387505    4.01458  0.8534E-13  0.4265E-08  0.1863E-11  0.3123E-05  0.0000E+00 -0.2736E+13
   -1.425003    4.02021  0.8534E-13  0.3623E-08  0.2676E-11  0.1438E-05  0.0000E+00 -0.7395E+13
   -1.462501    4.03206  0.8534E-13  0.2443E-08  0.5147E-11  0.2723E-06  0.0000E+00 -0.5002E+14
   -1.499999    4.07843  0.8534E-13  0.0000E+00  0.0000E+00  0.0000E+00  0.0000E+00  0.0000E+00
