 1 - depth, m
 2 - temperature, C
 3 - salinity, kg/kg
 4 - turbulent kinetic energy, m**2/s**2
 5 - dissipation rate, m**2/s**3
 6 - kinematic heat conductance, m**2/s
 7 - modulus of horizontal velocity, m/s
 8 - Richardson number, n/d
   -0.000000   -0.00000  0.8771E-12  0.4096E-13  0.8590E-16  0.1000E-09  0.0000E+00  0.1196E+17
   -0.037498    0.18393  0.4229E-12  0.4096E-13  0.8590E-16  0.1000E-09  0.0000E+00  0.1126E+17
   -0.074995    0.36629  0.2580E-12  0.4096E-13  0.8590E-16  0.1000E-09  0.0000E+00  0.1058E+17
   -0.112494    0.54692  0.1712E-12  0.4096E-13  0.8590E-16  0.1000E-09  0.0000E+00  0.9906E+16
   -0.149992    0.72566  0.1273E-12  0.4096E-13  0.8590E-16  0.1000E-09  0.0000E+00  0.9247E+16
   -0.187491    0.90241  0.1073E-12  0.4096E-13  0.8590E-16  0.1000E-09  0.0000E+00  0.8606E+16
   -0.224990    1.07705  0.9843E-13  0.4096E-13  0.8590E-16  0.1000E-09  0.0000E+00  0.7982E+16
   -0.262490    1.24949  0.9425E-13  0.1387E-12  0.8590E-16  0.1000E-09  0.0000E+00  0.7379E+16
   -0.299989    1.41968  0.9196E-13  0.4017E-12  0.1050E-15  0.1000E-09  0.0000E+00  0.6795E+16
   -0.337489    1.58755  0.9047E-13  0.8695E-12  0.1738E-15  0.1000E-09  0.0000E+00  0.6231E+16
   -0.374989    1.75302  0.8936E-13  0.1677E-11  0.3056E-15  0.1000E-09  0.0000E+00  0.5695E+16
   -0.412490    1.91624  0.8846E-13  0.3083E-11  0.5390E-15  0.1000E-09  0.0000E+00  0.5182E+16
   -0.449990    2.07728  0.8772E-13  0.5544E-11  0.9446E-15  0.1000E-09  0.0000E+00  0.4685E+16
   -0.487491    2.23602  0.8713E-13  0.9856E-11  0.1645E-14  0.1000E-09  0.0000E+00  0.4207E+16
   -0.524992    2.39239  0.8668E-13  0.1734E-10  0.2839E-14  0.1000E-09  0.0000E+00  0.3748E+16
   -0.562492    2.54634  0.8635E-13  0.3026E-10  0.4865E-14  0.1000E-09  0.0000E+00  0.3307E+16
   -0.599993    2.69775  0.8614E-13  0.5251E-10  0.8292E-14  0.1000E-09  0.0000E+00  0.2884E+16
   -0.637494    2.84648  0.8602E-13  0.9067E-10  0.1406E-13  0.1000E-09  0.0000E+00  0.2480E+16
   -0.674995    2.99237  0.8594E-13  0.1558E-09  0.2374E-13  0.1000E-09  0.0000E+00  0.2095E+16
   -0.712497    3.13526  0.8591E-13  0.2665E-09  0.3990E-13  0.1000E-09  0.0000E+00  0.1732E+16
   -0.749998    3.27503  0.8589E-13  0.4537E-09  0.6676E-13  0.1329E-09  0.0000E+00  0.1394E+16
   -0.787499    3.41210  0.8589E-13  0.7691E-09  0.1112E-12  0.2867E-09  0.0000E+00  0.1077E+16
   -0.825000    3.54661  0.8588E-13  0.1298E-08  0.1845E-12  0.6588E-09  0.0000E+00  0.7774E+15
   -0.862501    3.67861  0.8588E-13  0.2179E-08  0.3046E-12  0.1711E-08  0.0000E+00  0.4940E+15
   -0.900002    3.80784  0.8588E-13  0.3634E-08  0.4998E-12  0.6114E-08  0.0000E+00  0.2266E+15
   -0.937503    3.93179  0.8588E-13  0.5805E-08  0.7891E-12  0.1055E-06  0.0000E+00  0.2055E+14
   -0.975004    4.00518  0.8588E-13  0.6541E-08  0.8938E-12  0.1876E-04  0.0000E+00 -0.2890E+12
   -1.012505    4.00614  0.8588E-13  0.6878E-08  0.9518E-12  0.1988E-04  0.0000E+00 -0.2869E+12
   -1.050005    4.00704  0.8588E-13  0.7153E-08  0.1011E-11  0.2014E-04  0.0000E+00 -0.2966E+12
   -1.087506    4.00793  0.8588E-13  0.7374E-08  0.1073E-11  0.1993E-04  0.0000E+00 -0.3135E+12
   -1.125006    4.00884  0.8588E-13  0.7546E-08  0.1142E-11  0.1929E-04  0.0000E+00 -0.3396E+12
   -1.162506    4.00978  0.8588E-13  0.7665E-08  0.1219E-11  0.1809E-04  0.0000E+00 -0.3798E+12
   -1.200006    4.01079  0.8588E-13  0.7723E-08  0.1310E-11  0.1659E-04  0.0000E+00 -0.4354E+12
   -1.237506    4.01190  0.8588E-13  0.7711E-08  0.1419E-11  0.1489E-04  0.0000E+00 -0.5116E+12
   -1.275005    4.01315  0.8588E-13  0.7612E-08  0.1555E-11  0.1292E-04  0.0000E+00 -0.6246E+12
   -1.312504    4.01459  0.8588E-13  0.7396E-08  0.1736E-11  0.1060E-04  0.0000E+00 -0.8116E+12
   -1.350003    4.01637  0.8588E-13  0.7016E-08  0.2000E-11  0.7930E-05  0.0000E+00 -0.1168E+13
   -1.387502    4.01876  0.8588E-13  0.6369E-08  0.2443E-11  0.5010E-05  0.0000E+00 -0.2033E+13
   -1.425000    4.02254  0.8588E-13  0.5215E-08  0.3409E-11  0.2154E-05  0.0000E+00 -0.5448E+13
   -1.462498    4.03112  0.8588E-13  0.3179E-08  0.6717E-11  0.3202E-06  0.0000E+00 -0.4495E+14
   -1.499995    4.07435  0.8588E-13  0.0000E+00  0.0000E+00  0.0000E+00  0.0000E+00  0.0000E+00
