 1 - depth, m
 2 - temperature, C
 3 - salinity, kg/kg
 4 - turbulent kinetic energy, m**2/s**2
 5 - dissipation rate, m**2/s**3
 6 - kinematic heat conductance, m**2/s
 7 - modulus of horizontal velocity, m/s
 8 - Richardson number, n/d
   -0.000000   -0.00000  0.7114E-12  0.4233E-13  0.8590E-16  0.1000E-09  0.0000E+00  0.1318E+17
   -0.037498    0.20316  0.4554E-12  0.1827E-12  0.8590E-16  0.1000E-09  0.0000E+00  0.1229E+17
   -0.074996    0.40368  0.2341E-12  0.4887E-12  0.1092E-15  0.1000E-09  0.0000E+00  0.1142E+17
   -0.112494    0.60131  0.1327E-12  0.1008E-11  0.1765E-15  0.1000E-09  0.0000E+00  0.1057E+17
   -0.149993    0.79587  0.1005E-12  0.1873E-11  0.2997E-15  0.1000E-09  0.0000E+00  0.9754E+16
   -0.187492    0.98721  0.9271E-13  0.3323E-11  0.5098E-15  0.1000E-09  0.0000E+00  0.8969E+16
   -0.224991    1.17523  0.9115E-13  0.5769E-11  0.8617E-15  0.1000E-09  0.0000E+00  0.8218E+16
   -0.262491    1.35988  0.9087E-13  0.9891E-11  0.1446E-14  0.1000E-09  0.0000E+00  0.7521E+16
   -0.299991    1.54164  0.9082E-13  0.1681E-10  0.2411E-14  0.1000E-09  0.0000E+00  0.6861E+16
   -0.337491    1.72068  0.9080E-13  0.2839E-10  0.3996E-14  0.1000E-09  0.0000E+00  0.6233E+16
   -0.374991    1.89712  0.9077E-13  0.4770E-10  0.6592E-14  0.1000E-09  0.0000E+00  0.5711E+16
   -0.412492    2.07356  0.9072E-13  0.7975E-10  0.1082E-13  0.1000E-09  0.0000E+00  0.5244E+16
   -0.449992    2.25183  0.9059E-13  0.1327E-09  0.1769E-13  0.1000E-09  0.0000E+00  0.4775E+16
   -0.487493    2.43243  0.9032E-13  0.2198E-09  0.2879E-13  0.1000E-09  0.0000E+00  0.4301E+16
   -0.524994    2.61590  0.8980E-13  0.3615E-09  0.4651E-13  0.1000E-09  0.0000E+00  0.3812E+16
   -0.562495    2.80262  0.8898E-13  0.5906E-09  0.7468E-13  0.1000E-09  0.0000E+00  0.3305E+16
   -0.599996    2.99314  0.8788E-13  0.9600E-09  0.1193E-12  0.1194E-09  0.0000E+00  0.2771E+16
   -0.637497    3.18780  0.8665E-13  0.1553E-08  0.1897E-12  0.2387E-09  0.0000E+00  0.2201E+16
   -0.674998    3.38652  0.8544E-13  0.2501E-08  0.3004E-12  0.5221E-09  0.0000E+00  0.1592E+16
   -0.712500    3.58858  0.8429E-13  0.4010E-08  0.4736E-12  0.1382E-08  0.0000E+00  0.9482E+15
   -0.750001    3.79205  0.8322E-13  0.6386E-08  0.7420E-12  0.6954E-08  0.0000E+00  0.2960E+15
   -0.787502    3.98940  0.8277E-13  0.7168E-08  0.8361E-12  0.1352E-04  0.0000E+00 -0.1336E+12
   -0.825003    3.99171  0.8277E-13  0.7599E-08  0.8987E-12  0.1670E-04  0.0000E+00 -0.1694E+12
   -0.862505    3.99351  0.8277E-13  0.8003E-08  0.9666E-12  0.1908E-04  0.0000E+00 -0.1907E+12
   -0.900006    3.99507  0.8277E-13  0.8381E-08  0.1040E-11  0.2099E-04  0.0000E+00 -0.2079E+12
   -0.937507    3.99650  0.8277E-13  0.8732E-08  0.1118E-11  0.2250E-04  0.0000E+00 -0.2243E+12
   -0.975008    3.99784  0.8277E-13  0.9054E-08  0.1202E-11  0.2348E-04  0.0000E+00 -0.2424E+12
   -1.012509    3.99912  0.8277E-13  0.9346E-08  0.1292E-11  0.2403E-04  0.0000E+00 -0.2647E+12
   -1.050010    4.00038  0.8277E-13  0.9607E-08  0.1391E-11  0.2404E-04  0.0000E+00 -0.2934E+12
   -1.087510    4.00166  0.8277E-13  0.9834E-08  0.1500E-11  0.2362E-04  0.0000E+00 -0.3294E+12
   -1.125011    4.00298  0.8277E-13  0.1003E-07  0.1623E-11  0.2277E-04  0.0000E+00 -0.3735E+12
   -1.162511    4.00436  0.8277E-13  0.1017E-07  0.1768E-11  0.2137E-04  0.0000E+00 -0.4335E+12
   -1.200011    4.00583  0.8277E-13  0.1027E-07  0.1942E-11  0.1933E-04  0.0000E+00 -0.5215E+12
   -1.237511    4.00747  0.8277E-13  0.1030E-07  0.2155E-11  0.1702E-04  0.0000E+00 -0.6471E+12
   -1.275010    4.00934  0.8277E-13  0.1023E-07  0.2426E-11  0.1460E-04  0.0000E+00 -0.8304E+12
   -1.312510    4.01154  0.8277E-13  0.1004E-07  0.2789E-11  0.1194E-04  0.0000E+00 -0.1128E+13
   -1.350009    4.01425  0.8277E-13  0.9643E-08  0.3315E-11  0.8968E-05  0.0000E+00 -0.1695E+13
   -1.387508    4.01788  0.8277E-13  0.8922E-08  0.4192E-11  0.5759E-05  0.0000E+00 -0.3066E+13
   -1.425006    4.02357  0.8277E-13  0.7570E-08  0.6078E-11  0.2614E-05  0.0000E+00 -0.8404E+13
   -1.462504    4.03592  0.8277E-13  0.5038E-08  0.1254E-10  0.4700E-06  0.0000E+00 -0.6900E+14
   -1.500002    4.09252  0.8277E-13  0.0000E+00  0.0000E+00  0.0000E+00  0.0000E+00  0.0000E+00
