 1 - depth, m
 2 - temperature, C
 3 - salinity, kg/kg
 4 - turbulent kinetic energy, m**2/s**2
 5 - dissipation rate, m**2/s**3
 6 - kinematic heat conductance, m**2/s
 7 - modulus of horizontal velocity, m/s
 8 - Richardson number, n/d
   -0.000000    4.17094  0.9396E-13  0.1625E-03  0.8104E-04  0.6192E-04  0.1237E+00 -0.1942E-02
   -0.037498    4.27370  0.9395E-13  0.8979E-04  0.2145E-04  0.1105E-03  0.4080E-01  0.1498E-02
   -0.074996    4.28851  0.9395E-13  0.6404E-04  0.8950E-05  0.1010E-03  0.2956E-01 -0.1513E-01
   -0.112494    4.30058  0.9395E-13  0.4964E-04  0.4677E-05  0.1003E-03  0.2460E-01 -0.1866E-02
   -0.149993    4.31020  0.9395E-13  0.3944E-04  0.2594E-05  0.1024E-03  0.2104E-01 -0.2600E-02
   -0.187492    4.31872  0.9395E-13  0.3188E-04  0.1502E-05  0.1055E-03  0.1817E-01 -0.5959E-02
   -0.224991    4.32664  0.9395E-13  0.2618E-04  0.9116E-06  0.1088E-03  0.1579E-01 -0.5229E-02
   -0.262490    4.33416  0.9395E-13  0.2186E-04  0.5829E-06  0.1110E-03  0.1380E-01 -0.6169E-02
   -0.299990    4.34138  0.9395E-13  0.1849E-04  0.3912E-06  0.1128E-03  0.1208E-01 -0.8091E-02
   -0.337490    4.34829  0.9395E-13  0.1577E-04  0.2724E-06  0.1145E-03  0.1059E-01 -0.1111E-01
   -0.374990    4.35490  0.9395E-13  0.1354E-04  0.1948E-06  0.1162E-03  0.9322E-02 -0.1616E-01
   -0.412491    4.36124  0.9395E-13  0.1169E-04  0.1420E-06  0.1182E-03  0.8240E-02 -0.2475E-01
   -0.449991    4.36734  0.9395E-13  0.1016E-04  0.1052E-06  0.1209E-03  0.7325E-02 -0.4039E-01
   -0.487492    4.37319  0.9395E-13  0.8907E-05  0.7937E-07  0.1241E-03  0.6563E-02 -0.6486E-01
   -0.524993    4.37879  0.9395E-13  0.7907E-05  0.6121E-07  0.1252E-03  0.5927E-02 -0.6619E-01
   -0.562494    4.38425  0.9395E-13  0.7082E-05  0.4803E-07  0.1269E-03  0.5342E-02 -0.7110E-01
   -0.599995    4.38954  0.9395E-13  0.6388E-05  0.3828E-07  0.1290E-03  0.4807E-02 -0.7857E-01
   -0.637496    4.39466  0.9395E-13  0.5796E-05  0.3093E-07  0.1314E-03  0.4319E-02 -0.8798E-01
   -0.674997    4.39961  0.9395E-13  0.5283E-05  0.2529E-07  0.1339E-03  0.3877E-02 -0.9819E-01
   -0.712498    4.40438  0.9395E-13  0.4834E-05  0.2090E-07  0.1368E-03  0.3475E-02  0.9085E+01
   -0.749999    4.40898  0.9395E-13  0.4439E-05  0.1745E-07  0.1396E-03  0.3111E-02  0.3899E-01
   -0.787500    4.41341  0.9395E-13  0.4087E-05  0.1470E-07  0.1434E-03  0.2780E-02 -0.8354E-01
   -0.825002    4.41767  0.9395E-13  0.3773E-05  0.1249E-07  0.1487E-03  0.2479E-02  0.1793E+02
   -0.862503    4.42176  0.9395E-13  0.3489E-05  0.1069E-07  0.1550E-03  0.2205E-02  0.4079E+02
   -0.900004    4.42568  0.9395E-13  0.3230E-05  0.9206E-08  0.1612E-03  0.1954E-02  0.2674E+01
   -0.937505    4.42944  0.9395E-13  0.2992E-05  0.7974E-08  0.1694E-03  0.1722E-02  0.5352E+01
   -0.975006    4.43302  0.9395E-13  0.2770E-05  0.6936E-08  0.1823E-03  0.1508E-02  0.9339E+02
   -1.012507    4.43642  0.9395E-13  0.2562E-05  0.6052E-08  0.1942E-03  0.1307E-02  0.1432E+02
   -1.050007    4.43963  0.9395E-13  0.2366E-05  0.5301E-08  0.2063E-03  0.1132E-02  0.3748E+02
   -1.087508    4.44265  0.9395E-13  0.2184E-05  0.4668E-08  0.2168E-03  0.9808E-03  0.3593E+03
   -1.125008    4.44549  0.9395E-13  0.2015E-05  0.4139E-08  0.2244E-03  0.8510E-03  0.8065E+02
   -1.162508    4.44819  0.9395E-13  0.1859E-05  0.3703E-08  0.2278E-03  0.7397E-03  0.1700E+03
   -1.200008    4.45076  0.9395E-13  0.1716E-05  0.3354E-08  0.2237E-03  0.6453E-03  0.2765E+02
   -1.237508    4.45328  0.9395E-13  0.1586E-05  0.3085E-08  0.2128E-03  0.5660E-03  0.2854E+03
   -1.275008    4.45583  0.9395E-13  0.1468E-05  0.2892E-08  0.1977E-03  0.5005E-03  0.5201E+02
   -1.312507    4.45850  0.9395E-13  0.1358E-05  0.2771E-08  0.1787E-03  0.4471E-03  0.3096E+03
   -1.350006    4.46139  0.9395E-13  0.1247E-05  0.2726E-08  0.1495E-03  0.4028E-03  0.8045E+03
   -1.387504    4.46481  0.9395E-13  0.1115E-05  0.2813E-08  0.9567E-04  0.3629E-03  0.2102E+04
   -1.425003    4.46969  0.9395E-13  0.9364E-06  0.3263E-08  0.4506E-04  0.3244E-03 -0.4299E+02
   -1.462501    4.47892  0.9395E-13  0.4948E-06  0.6531E-08  0.5418E-05  0.2902E-03 -0.4457E+04
   -1.499998    4.55029  0.9395E-13  0.0000E+00  0.0000E+00  0.0000E+00  0.2880E-03  0.0000E+00
