 1 - depth, m
 2 - temperature, C
 3 - salinity, kg/kg
 4 - turbulent kinetic energy, m**2/s**2
 5 - dissipation rate, m**2/s**3
 6 - kinematic heat conductance, m**2/s
 7 - modulus of horizontal velocity, m/s
 8 - Richardson number, n/d
   -0.000000   -0.00000  0.4962E-13  0.4095E-13  0.8589E-16  0.1000E-09  0.0000E+00  0.6778E+16
   -0.037498    0.10310  0.1598E-12  0.4095E-13  0.8589E-16  0.1000E-09  0.0000E+00  0.6748E+16
   -0.074997    0.20873  0.2076E-12  0.4095E-13  0.8589E-16  0.1000E-09  0.0000E+00  0.6680E+16
   -0.112496    0.31649  0.2309E-12  0.4095E-13  0.8589E-16  0.1000E-09  0.0000E+00  0.6578E+16
   -0.149995    0.42599  0.2382E-12  0.4095E-13  0.8589E-16  0.1000E-09  0.0000E+00  0.6443E+16
   -0.187495    0.53682  0.2314E-12  0.4095E-13  0.8589E-16  0.1000E-09  0.0000E+00  0.6281E+16
   -0.224995    0.64862  0.2142E-12  0.4095E-13  0.8589E-16  0.1000E-09  0.0000E+00  0.6096E+16
   -0.262495    0.76106  0.1914E-12  0.4095E-13  0.8589E-16  0.1000E-09  0.0000E+00  0.5900E+16
   -0.299995    0.87395  0.1675E-12  0.4095E-13  0.8589E-16  0.1000E-09  0.0000E+00  0.5692E+16
   -0.337496    0.98711  0.1459E-12  0.4095E-13  0.8589E-16  0.1000E-09  0.0000E+00  0.5475E+16
   -0.374997    1.10035  0.1281E-12  0.4095E-13  0.8589E-16  0.1000E-09  0.0000E+00  0.5246E+16
   -0.412498    1.21340  0.1145E-12  0.4095E-13  0.8589E-16  0.1000E-09  0.0000E+00  0.5009E+16
   -0.449999    1.32605  0.1048E-12  0.4095E-13  0.8589E-16  0.1000E-09  0.0000E+00  0.4771E+16
   -0.487500    1.43818  0.9809E-13  0.4095E-13  0.8589E-16  0.1000E-09  0.0000E+00  0.4534E+16
   -0.525002    1.54973  0.9356E-13  0.4095E-13  0.8589E-16  0.1000E-09  0.0000E+00  0.4312E+16
   -0.562503    1.66098  0.9054E-13  0.4095E-13  0.8589E-16  0.1000E-09  0.0000E+00  0.4090E+16
   -0.600005    1.77187  0.8851E-13  0.4095E-13  0.8589E-16  0.1000E-09  0.0000E+00  0.3868E+16
   -0.637507    1.88232  0.8710E-13  0.4095E-13  0.8589E-16  0.1000E-09  0.0000E+00  0.3647E+16
   -0.675008    1.99226  0.8609E-13  0.4095E-13  0.8589E-16  0.1000E-09  0.0000E+00  0.3428E+16
   -0.712510    2.10163  0.8534E-13  0.4095E-13  0.8589E-16  0.1000E-09  0.0000E+00  0.3211E+16
   -0.750012    2.21037  0.8476E-13  0.4095E-13  0.8589E-16  0.1000E-09  0.0000E+00  0.2999E+16
   -0.787514    2.31855  0.8431E-13  0.4095E-13  0.8589E-16  0.1000E-09  0.0000E+00  0.2792E+16
   -0.825016    2.42615  0.8396E-13  0.4095E-13  0.8589E-16  0.1000E-09  0.0000E+00  0.2587E+16
   -0.862518    2.53314  0.8369E-13  0.4095E-13  0.8589E-16  0.1000E-09  0.0000E+00  0.2385E+16
   -0.900019    2.63951  0.8349E-13  0.4095E-13  0.8589E-16  0.1000E-09  0.0000E+00  0.2187E+16
   -0.937521    2.74522  0.8335E-13  0.4095E-13  0.8589E-16  0.1000E-09  0.0000E+00  0.1993E+16
   -0.975023    2.85026  0.8325E-13  0.4095E-13  0.8589E-16  0.1000E-09  0.0000E+00  0.1803E+16
   -1.012524    2.95463  0.8318E-13  0.4095E-13  0.8589E-16  0.1000E-09  0.0000E+00  0.1609E+16
   -1.050025    3.05783  0.8314E-13  0.4095E-13  0.8589E-16  0.1000E-09  0.0000E+00  0.1420E+16
   -1.087526    3.15969  0.8311E-13  0.4095E-13  0.8589E-16  0.1000E-09  0.0000E+00  0.1236E+16
   -1.125027    3.26009  0.8309E-13  0.5727E-13  0.8857E-16  0.1000E-09  0.0000E+00  0.1070E+16
   -1.162528    3.36000  0.8308E-13  0.2169E-12  0.2247E-15  0.1000E-09  0.0000E+00  0.9071E+15
   -1.200029    3.45953  0.8308E-13  0.8039E-12  0.7845E-15  0.1000E-09  0.0000E+00  0.7461E+15
   -1.237529    3.55858  0.8307E-13  0.2884E-11  0.2738E-14  0.1000E-09  0.0000E+00  0.5873E+15
   -1.275029    3.65705  0.8307E-13  0.1017E-10  0.9435E-14  0.1000E-09  0.0000E+00  0.4312E+15
   -1.312529    3.75480  0.8307E-13  0.3537E-10  0.3217E-13  0.3017E-09  0.0000E+00  0.2785E+15
   -1.350029    3.85159  0.8307E-13  0.1210E-09  0.1088E-12  0.2066E-08  0.0000E+00  0.1300E+15
   -1.387528    3.94634  0.8307E-13  0.4016E-09  0.3644E-12  0.4794E-07  0.0000E+00  0.5227E+13
   -1.425027    4.01823  0.8307E-13  0.1075E-08  0.1231E-11  0.3425E-06  0.0000E+00 -0.2017E+14
   -1.462526    4.04628  0.8307E-13  0.1164E-08  0.2430E-11  0.1616E-06  0.0000E+00 -0.5858E+14
   -1.500024    4.09159  0.8307E-13  0.0000E+00  0.0000E+00  0.0000E+00  0.0000E+00  0.0000E+00
