 1 - depth, m
 2 - temperature, C
 3 - salinity, kg/kg
 4 - turbulent kinetic energy, m**2/s**2
 5 - dissipation rate, m**2/s**3
 6 - kinematic heat conductance, m**2/s
 7 - modulus of horizontal velocity, m/s
 8 - Richardson number, n/d
   -0.000000   -0.00000  0.2493E-14  0.4096E-13  0.8590E-16  0.1000E-09  0.0000E+00  0.1803E+17
   -0.037498    0.28112  0.1154E-13  0.4096E-13  0.8590E-16  0.1000E-09  0.0000E+00  0.1439E+17
   -0.074996    0.52293  0.4297E-13  0.4096E-13  0.8590E-16  0.1000E-09  0.0000E+00  0.1151E+17
   -0.112494    0.73009  0.8917E-13  0.4096E-13  0.8590E-16  0.1000E-09  0.0000E+00  0.9238E+16
   -0.149993    0.90699  0.1399E-12  0.4096E-13  0.8590E-16  0.1000E-09  0.0000E+00  0.7440E+16
   -0.187492    1.05766  0.1848E-12  0.4096E-13  0.8590E-16  0.1000E-09  0.0000E+00  0.6016E+16
   -0.224992    1.18574  0.2165E-12  0.4096E-13  0.8590E-16  0.1000E-09  0.0000E+00  0.4882E+16
   -0.262491    1.29439  0.2320E-12  0.4096E-13  0.8590E-16  0.1000E-09  0.0000E+00  0.4076E+16
   -0.299991    1.38873  0.2327E-12  0.4096E-13  0.8590E-16  0.1000E-09  0.0000E+00  0.3456E+16
   -0.337491    1.47160  0.2223E-12  0.4096E-13  0.8590E-16  0.1000E-09  0.0000E+00  0.2959E+16
   -0.374992    1.54487  0.2049E-12  0.4206E-13  0.8590E-16  0.1000E-09  0.0000E+00  0.2579E+16
   -0.412492    1.61063  0.1846E-12  0.7295E-13  0.9310E-16  0.1000E-09  0.0000E+00  0.2279E+16
   -0.449993    1.67034  0.1643E-12  0.1854E-12  0.1345E-15  0.1000E-09  0.0000E+00  0.2024E+16
   -0.487494    1.72473  0.1462E-12  0.4978E-12  0.2753E-15  0.1000E-09  0.0000E+00  0.1850E+16
   -0.524995    1.77567  0.1311E-12  0.1330E-11  0.6600E-15  0.1000E-09  0.0000E+00  0.1945E+16
   -0.562496    1.83057  0.1194E-12  0.3466E-11  0.1643E-14  0.1000E-09  0.0000E+00  0.2052E+16
   -0.599997    1.89010  0.1107E-12  0.8862E-11  0.4081E-14  0.1000E-09  0.0000E+00  0.2169E+16
   -0.637498    1.95504  0.1045E-12  0.2235E-10  0.1002E-13  0.1000E-09  0.0000E+00  0.2304E+16
   -0.675000    2.02649  0.1001E-12  0.5572E-10  0.2435E-13  0.1000E-09  0.0000E+00  0.2468E+16
   -0.712501    2.10623  0.9714E-13  0.1374E-09  0.5849E-13  0.1077E-09  0.0000E+00  0.2681E+16
   -0.750002    2.19721  0.9507E-13  0.3349E-09  0.1390E-12  0.1444E-09  0.0000E+00  0.3053E+16
   -0.787504    2.30739  0.9361E-13  0.8080E-09  0.3270E-12  0.2452E-09  0.0000E+00  0.3530E+16
   -0.825005    2.44572  0.9254E-13  0.1929E-08  0.7612E-12  0.4797E-09  0.0000E+00  0.4056E+16
   -0.862506    2.62440  0.9173E-13  0.4553E-08  0.1753E-11  0.1015E-08  0.0000E+00  0.4499E+16
   -0.900008    2.86113  0.9109E-13  0.1062E-07  0.3993E-11  0.2559E-08  0.0000E+00  0.4499E+16
   -0.937509    3.17829  0.9048E-13  0.2411E-07  0.8876E-11  0.1803E-07  0.0000E+00  0.3444E+16
   -0.975010    3.56825  0.8982E-13  0.3749E-07  0.1393E-10  0.1637E-04  0.0000E+00  0.1886E+16
   -1.012511    3.86844  0.8941E-13  0.4785E-07  0.1805E-10  0.3307E-04  0.0000E+00  0.5633E+15
   -1.050012    4.03863  0.8921E-13  0.5198E-07  0.1991E-10  0.4755E-04  0.0000E+00  0.2183E+14
   -1.087512    4.06364  0.8919E-13  0.5368E-07  0.2094E-10  0.5092E-04  0.0000E+00 -0.2394E+13
   -1.125013    4.06562  0.8919E-13  0.5485E-07  0.2196E-10  0.5048E-04  0.0000E+00 -0.2500E+13
   -1.162513    4.06762  0.8919E-13  0.5566E-07  0.2308E-10  0.4954E-04  0.0000E+00 -0.2629E+13
   -1.200013    4.06967  0.8919E-13  0.5612E-07  0.2435E-10  0.4790E-04  0.0000E+00 -0.2806E+13
   -1.237513    4.07180  0.8919E-13  0.5618E-07  0.2582E-10  0.4554E-04  0.0000E+00 -0.3051E+13
   -1.275013    4.07406  0.8918E-13  0.5581E-07  0.2759E-10  0.4240E-04  0.0000E+00 -0.3393E+13
   -1.312512    4.07650  0.8918E-13  0.5492E-07  0.2983E-10  0.3839E-04  0.0000E+00 -0.3887E+13
   -1.350011    4.07922  0.8918E-13  0.5319E-07  0.3318E-10  0.3176E-04  0.0000E+00 -0.4892E+13
   -1.387510    4.08254  0.8918E-13  0.4989E-07  0.3926E-10  0.1966E-04  0.0000E+00 -0.8334E+13
   -1.425009    4.08795  0.8918E-13  0.4375E-07  0.5238E-10  0.9798E-05  0.0000E+00 -0.1816E+14
   -1.462507    4.09881  0.8918E-13  0.2913E-07  0.1061E-09  0.1692E-05  0.0000E+00 -0.1319E+15
   -1.500005    4.15821  0.8918E-13  0.0000E+00  0.0000E+00  0.0000E+00  0.0000E+00  0.0000E+00
