 1 - depth, m
 2 - temperature, C
 3 - salinity, kg/kg
 4 - turbulent kinetic energy, m**2/s**2
 5 - dissipation rate, m**2/s**3
 6 - kinematic heat conductance, m**2/s
 7 - modulus of horizontal velocity, m/s
 8 - Richardson number, n/d
   -0.000000   10.71586  0.9137E-13  0.3835E-03  0.1241E-02  0.8550E-04  0.2447E+00 -0.5389E+00
   -0.037498   10.77735  0.9138E-13  0.2074E-03  0.5218E-03  0.1325E-03  0.7891E-01 -0.8077E-02
   -0.074996   10.80340  0.9138E-13  0.1308E-03  0.1216E-03  0.1512E-03  0.4831E-01 -0.1943E+00
   -0.112495   10.81608  0.9139E-13  0.9971E-04  0.6693E-04  0.1563E-03  0.3718E-01 -0.1372E+00
   -0.149993   10.82277  0.9139E-13  0.7993E-04  0.4201E-04  0.1556E-03  0.3059E-01 -0.2369E-01
   -0.187493   10.82797  0.9139E-13  0.6514E-04  0.2237E-04  0.1586E-03  0.2598E-01 -0.2092E-01
   -0.224992   10.83215  0.9139E-13  0.5433E-04  0.1326E-04  0.1645E-03  0.2251E-01  0.7089E+00
   -0.262492   10.83570  0.9139E-13  0.4623E-04  0.7905E-05  0.1704E-03  0.1993E-01  0.1015E+02
   -0.299992   10.83940  0.9139E-13  0.3992E-04  0.4699E-05  0.1793E-03  0.1770E-01  0.1147E+02
   -0.337492   10.84230  0.9139E-13  0.3489E-04  0.2826E-05  0.1902E-03  0.1582E-01  0.1854E+03
   -0.374992   10.84475  0.9139E-13  0.3082E-04  0.1736E-05  0.2023E-03  0.1423E-01  0.2356E+04
   -0.412493   10.84702  0.9139E-13  0.2750E-04  0.1100E-05  0.2172E-03  0.1289E-01  0.6936E+01
   -0.449994   10.84908  0.9139E-13  0.2478E-04  0.7286E-06  0.2358E-03  0.1177E-01  0.1240E+01
   -0.487494   10.85092  0.9139E-13  0.2257E-04  0.5058E-06  0.2584E-03  0.1085E-01  0.8994E+01
   -0.524996   10.85259  0.9139E-13  0.2079E-04  0.3695E-06  0.2929E-03  0.1012E-01  0.9768E+01
   -0.562497   10.85406  0.9140E-13  0.1931E-04  0.2831E-06  0.3260E-03  0.9393E-02  0.8731E+02
   -0.599998   10.85539  0.9140E-13  0.1806E-04  0.2254E-06  0.3566E-03  0.8722E-02  0.2383E+03
   -0.637499   10.85657  0.9140E-13  0.1697E-04  0.1850E-06  0.3855E-03  0.8110E-02  0.2713E+02
   -0.675001   10.85763  0.9140E-13  0.1602E-04  0.1552E-06  0.4136E-03  0.7550E-02  0.1348E+02
   -0.712502   10.85859  0.9140E-13  0.1519E-04  0.1325E-06  0.4383E-03  0.7033E-02  0.1913E+02
   -0.750003   10.85948  0.9140E-13  0.1443E-04  0.1145E-06  0.4669E-03  0.6549E-02  0.3301E+02
   -0.787505   10.86029  0.9140E-13  0.1373E-04  0.9991E-07  0.4904E-03  0.6094E-02  0.2071E+02
   -0.825006   10.86104  0.9140E-13  0.1308E-04  0.8774E-07  0.5134E-03  0.5664E-02  0.1160E+02
   -0.862508   10.86174  0.9140E-13  0.1246E-04  0.7753E-07  0.5303E-03  0.5255E-02  0.1605E+02
   -0.900009   10.86240  0.9140E-13  0.1187E-04  0.6895E-07  0.5427E-03  0.4863E-02  0.1354E+02
   -0.937510   10.86304  0.9140E-13  0.1129E-04  0.6158E-07  0.5473E-03  0.4486E-02  0.1670E+02
   -0.975011   10.86365  0.9140E-13  0.1071E-04  0.5511E-07  0.5483E-03  0.4119E-02  0.5805E+02
   -1.012512   10.86425  0.9140E-13  0.1012E-04  0.4942E-07  0.5532E-03  0.3760E-02  0.1285E+02
   -1.050013   10.86484  0.9140E-13  0.9519E-05  0.4440E-07  0.5535E-03  0.3429E-02  0.9327E+01
   -1.087514   10.86541  0.9140E-13  0.8912E-05  0.3995E-07  0.5495E-03  0.3126E-02  0.6021E+01
   -1.125014   10.86598  0.9140E-13  0.8302E-05  0.3605E-07  0.5406E-03  0.2850E-02  0.1307E+02
   -1.162515   10.86655  0.9140E-13  0.7692E-05  0.3268E-07  0.5227E-03  0.2600E-02  0.4699E+01
   -1.200015   10.86712  0.9140E-13  0.7088E-05  0.2983E-07  0.4946E-03  0.2376E-02  0.9433E+01
   -1.237515   10.86772  0.9140E-13  0.6496E-05  0.2753E-07  0.4579E-03  0.2176E-02  0.3675E+01
   -1.275015   10.86837  0.9140E-13  0.5926E-05  0.2582E-07  0.4164E-03  0.2003E-02  0.6508E+01
   -1.312514   10.86907  0.9140E-13  0.5390E-05  0.2480E-07  0.3666E-03  0.1857E-02  0.9353E+01
   -1.350013   10.86987  0.9140E-13  0.4895E-05  0.2467E-07  0.3032E-03  0.1738E-02  0.4679E+02
   -1.387512   10.87081  0.9140E-13  0.4396E-05  0.2581E-07  0.2331E-03  0.1645E-02  0.9413E+02
   -1.425011   10.87202  0.9140E-13  0.3768E-05  0.3007E-07  0.1392E-03  0.1568E-02  0.8216E+03
   -1.462509   10.87395  0.9140E-13  0.2058E-05  0.6136E-07  0.1176E-04  0.1494E-02 -0.7370E+04
   -1.500007   10.89593  0.9140E-13  0.0000E+00  0.0000E+00  0.0000E+00  0.1450E-02  0.0000E+00
