 1 - depth, m
 2 - temperature, C
 3 - salinity, kg/kg
 4 - turbulent kinetic energy, m**2/s**2
 5 - dissipation rate, m**2/s**3
 6 - kinematic heat conductance, m**2/s
 7 - modulus of horizontal velocity, m/s
 8 - Richardson number, n/d
   -0.000000   -0.00000  0.5031E-12  0.4096E-13  0.8590E-16  0.1000E-09  0.0000E+00  0.1266E+17
   -0.037498    0.19506  0.4283E-12  0.4096E-13  0.8590E-16  0.1000E-09  0.0000E+00  0.1186E+17
   -0.074996    0.38801  0.2975E-12  0.6119E-13  0.8590E-16  0.1000E-09  0.0000E+00  0.1109E+17
   -0.112494    0.57881  0.1888E-12  0.2455E-12  0.8590E-16  0.1000E-09  0.0000E+00  0.1033E+17
   -0.149993    0.76744  0.1294E-12  0.5968E-12  0.1182E-15  0.1000E-09  0.0000E+00  0.9603E+16
   -0.187492    0.95386  0.1049E-12  0.1181E-11  0.1930E-15  0.1000E-09  0.0000E+00  0.8896E+16
   -0.224991    1.13801  0.9670E-13  0.2144E-11  0.3254E-15  0.1000E-09  0.0000E+00  0.8212E+16
   -0.262490    1.31983  0.9437E-13  0.3748E-11  0.5481E-15  0.1000E-09  0.0000E+00  0.7564E+16
   -0.299990    1.49960  0.9378E-13  0.6423E-11  0.9173E-15  0.1000E-09  0.0000E+00  0.6939E+16
   -0.337490    1.67734  0.9364E-13  0.1089E-10  0.1526E-14  0.1000E-09  0.0000E+00  0.6335E+16
   -0.374990    1.85302  0.9358E-13  0.1836E-10  0.2526E-14  0.1000E-09  0.0000E+00  0.5803E+16
   -0.412490    2.02825  0.9351E-13  0.3078E-10  0.4164E-14  0.1000E-09  0.0000E+00  0.5308E+16
   -0.449991    2.20408  0.9336E-13  0.5138E-10  0.6836E-14  0.1000E-09  0.0000E+00  0.4812E+16
   -0.487492    2.38056  0.9307E-13  0.8544E-10  0.1118E-13  0.1000E-09  0.0000E+00  0.4313E+16
   -0.524992    2.55770  0.9259E-13  0.1411E-09  0.1817E-13  0.1000E-09  0.0000E+00  0.3810E+16
   -0.562493    2.73537  0.9188E-13  0.2317E-09  0.2935E-13  0.1000E-09  0.0000E+00  0.3304E+16
   -0.599994    2.91357  0.9094E-13  0.3787E-09  0.4721E-13  0.1000E-09  0.0000E+00  0.2796E+16
   -0.637495    3.09226  0.8984E-13  0.6165E-09  0.7562E-13  0.1000E-09  0.0000E+00  0.2287E+16
   -0.674997    3.27138  0.8864E-13  0.9996E-09  0.1207E-12  0.1888E-09  0.0000E+00  0.1775E+16
   -0.712498    3.45077  0.8744E-13  0.1615E-08  0.1919E-12  0.4223E-09  0.0000E+00  0.1262E+16
   -0.749999    3.63013  0.8632E-13  0.2598E-08  0.3041E-12  0.1123E-08  0.0000E+00  0.7518E+15
   -0.787500    3.80941  0.8549E-13  0.4157E-08  0.4792E-12  0.5414E-08  0.0000E+00  0.2455E+15
   -0.825001    3.98430  0.8520E-13  0.4990E-08  0.5779E-12  0.5486E-05  0.0000E+00 -0.1995E+11
   -0.862502    3.98886  0.8520E-13  0.5492E-08  0.6506E-12  0.1026E-04  0.0000E+00 -0.1480E+12
   -0.900004    3.99135  0.8520E-13  0.5941E-08  0.7252E-12  0.1294E-04  0.0000E+00 -0.1879E+12
   -0.937505    3.99333  0.8520E-13  0.6360E-08  0.8046E-12  0.1478E-04  0.0000E+00 -0.2173E+12
   -0.975005    3.99509  0.8520E-13  0.6754E-08  0.8897E-12  0.1602E-04  0.0000E+00 -0.2451E+12
   -1.012506    3.99672  0.8520E-13  0.7121E-08  0.9818E-12  0.1685E-04  0.0000E+00 -0.2754E+12
   -1.050007    3.99829  0.8520E-13  0.7463E-08  0.1083E-11  0.1729E-04  0.0000E+00 -0.3103E+12
   -1.087507    3.99984  0.8520E-13  0.7775E-08  0.1195E-11  0.1737E-04  0.0000E+00 -0.3521E+12
   -1.125008    4.00141  0.8520E-13  0.8051E-08  0.1321E-11  0.1704E-04  0.0000E+00 -0.4033E+12
   -1.162508    4.00303  0.8520E-13  0.8285E-08  0.1464E-11  0.1635E-04  0.0000E+00 -0.4691E+12
   -1.200008    4.00473  0.8520E-13  0.8467E-08  0.1631E-11  0.1532E-04  0.0000E+00 -0.5574E+12
   -1.237508    4.00657  0.8520E-13  0.8583E-08  0.1832E-11  0.1394E-04  0.0000E+00 -0.6821E+12
   -1.275007    4.00861  0.8520E-13  0.8613E-08  0.2083E-11  0.1220E-04  0.0000E+00 -0.8702E+12
   -1.312506    4.01098  0.8520E-13  0.8522E-08  0.2414E-11  0.1011E-04  0.0000E+00 -0.1182E+13
   -1.350005    4.01387  0.8520E-13  0.8253E-08  0.2891E-11  0.7677E-05  0.0000E+00 -0.1776E+13
   -1.387504    4.01771  0.8520E-13  0.7688E-08  0.3677E-11  0.4980E-05  0.0000E+00 -0.3214E+13
   -1.425002    4.02368  0.8520E-13  0.6565E-08  0.5343E-11  0.2289E-05  0.0000E+00 -0.8775E+13
   -1.462500    4.03648  0.8520E-13  0.4447E-08  0.1088E-10  0.4296E-06  0.0000E+00 -0.6779E+14
   -1.499998    4.09205  0.8520E-13  0.0000E+00  0.0000E+00  0.0000E+00  0.0000E+00  0.0000E+00
