 1 - depth, m
 2 - temperature, C
 3 - salinity, kg/kg
 4 - turbulent kinetic energy, m**2/s**2
 5 - dissipation rate, m**2/s**3
 6 - kinematic heat conductance, m**2/s
 7 - modulus of horizontal velocity, m/s
 8 - Richardson number, n/d
   -0.000000   16.54984  0.9218E-13  0.7249E-04  0.1863E-04  0.4471E-04  0.7247E-01  0.4651E+00
   -0.037498   16.59292  0.9219E-13  0.4330E-04  0.5299E-05  0.5808E-04  0.2898E-01  0.5334E+01
   -0.074996   16.60205  0.9219E-13  0.3277E-04  0.2267E-05  0.6962E-04  0.2180E-01 -0.3056E-01
   -0.112495   16.60847  0.9219E-13  0.2632E-04  0.1172E-05  0.8223E-04  0.1773E-01 -0.4379E-01
   -0.149994   16.61360  0.9219E-13  0.2183E-04  0.6783E-06  0.9464E-04  0.1477E-01 -0.6278E-02
   -0.187493   16.61799  0.9219E-13  0.1852E-04  0.4246E-06  0.1070E-03  0.1247E-01  0.9439E-01
   -0.224992   16.62182  0.9219E-13  0.1601E-04  0.2822E-06  0.1206E-03  0.1064E-01  0.8918E+01
   -0.262492   16.62519  0.9219E-13  0.1409E-04  0.1973E-06  0.1354E-03  0.9178E-02  0.9860E+00
   -0.299992   16.62816  0.9219E-13  0.1259E-04  0.1436E-06  0.1583E-03  0.7984E-02  0.9778E+00
   -0.337492   16.63070  0.9219E-13  0.1143E-04  0.1085E-06  0.2335E-03  0.7013E-02  0.1058E+03
   -0.374993   16.63260  0.9219E-13  0.1055E-04  0.8548E-07  0.3701E-03  0.6246E-02  0.8591E+02
   -0.412494   16.63378  0.9219E-13  0.9895E-05  0.6953E-07  0.4104E-03  0.5651E-02  0.3017E+02
   -0.449994   16.63472  0.9219E-13  0.9365E-05  0.5764E-07  0.4370E-03  0.5129E-02  0.3416E+02
   -0.487495   16.63556  0.9219E-13  0.8949E-05  0.4868E-07  0.4581E-03  0.4684E-02  0.2596E+01
   -0.524996   16.63633  0.9219E-13  0.8628E-05  0.4183E-07  0.4683E-03  0.4301E-02  0.2856E+01
   -0.562498   16.63707  0.9219E-13  0.8370E-05  0.3642E-07  0.4791E-03  0.3943E-02  0.2988E+01
   -0.599999   16.63779  0.9219E-13  0.8157E-05  0.3209E-07  0.4910E-03  0.3609E-02  0.3132E+01
   -0.637500   16.63848  0.9219E-13  0.7973E-05  0.2856E-07  0.5041E-03  0.3297E-02  0.3220E+01
   -0.675002   16.63914  0.9219E-13  0.7807E-05  0.2565E-07  0.5179E-03  0.3005E-02  0.3259E+01
   -0.712503   16.63978  0.9219E-13  0.7649E-05  0.2323E-07  0.5321E-03  0.2731E-02  0.3258E+01
   -0.750005   16.64039  0.9219E-13  0.7491E-05  0.2121E-07  0.5459E-03  0.2475E-02  0.3225E+01
   -0.787506   16.64098  0.9219E-13  0.7328E-05  0.1950E-07  0.5584E-03  0.2235E-02  0.3168E+01
   -0.825007   16.64155  0.9219E-13  0.7154E-05  0.1806E-07  0.5683E-03  0.2011E-02  0.3094E+01
   -0.862509   16.64211  0.9219E-13  0.6966E-05  0.1685E-07  0.5748E-03  0.1800E-02  0.3009E+01
   -0.900010   16.64266  0.9219E-13  0.6760E-05  0.1585E-07  0.5769E-03  0.1603E-02  0.2919E+01
   -0.937512   16.64320  0.9219E-13  0.6534E-05  0.1502E-07  0.5741E-03  0.1419E-02  0.2824E+01
   -0.975013   16.64373  0.9219E-13  0.6288E-05  0.1436E-07  0.5670E-03  0.1246E-02  0.2737E+01
   -1.012514   16.64428  0.9219E-13  0.6025E-05  0.1386E-07  0.5698E-03  0.1085E-02  0.2363E+01
   -1.050015   16.64481  0.9219E-13  0.5755E-05  0.1352E-07  0.5827E-03  0.9464E-03  0.2032E+01
   -1.087516   16.64533  0.9219E-13  0.5488E-05  0.1334E-07  0.6043E-03  0.8310E-03  0.1770E+01
   -1.125016   16.64583  0.9219E-13  0.5234E-05  0.1332E-07  0.5975E-03  0.7370E-03  0.1539E+01
   -1.162517   16.64633  0.9219E-13  0.4999E-05  0.1343E-07  0.5426E-03  0.6621E-03  0.1320E+01
   -1.200017   16.64688  0.9219E-13  0.4790E-05  0.1366E-07  0.4877E-03  0.6040E-03  0.1130E+01
   -1.237517   16.64749  0.9219E-13  0.4600E-05  0.1400E-07  0.4493E-03  0.5603E-03  0.1111E+01
   -1.275017   16.64814  0.9219E-13  0.4408E-05  0.1451E-07  0.4108E-03  0.5271E-03  0.1672E+01
   -1.312516   16.64886  0.9219E-13  0.4188E-05  0.1531E-07  0.3568E-03  0.4973E-03  0.3159E+01
   -1.350015   16.64968  0.9219E-13  0.3931E-05  0.1660E-07  0.2953E-03  0.4697E-03  0.7421E+01
   -1.387514   16.65068  0.9219E-13  0.3617E-05  0.1881E-07  0.2214E-03  0.4446E-03  0.2504E+02
   -1.425013   16.65200  0.9219E-13  0.3214E-05  0.2315E-07  0.1650E-03  0.4219E-03  0.1227E+03
   -1.462511   16.65376  0.9219E-13  0.1902E-05  0.5019E-07  0.1278E-04  0.4059E-03 -0.1843E+05
   -1.500009   16.67620  0.9219E-13  0.0000E+00  0.0000E+00  0.0000E+00  0.4028E-03  0.0000E+00
