 1 - depth, m
 2 - temperature, C
 3 - salinity, kg/kg
 4 - turbulent kinetic energy, m**2/s**2
 5 - dissipation rate, m**2/s**3
 6 - kinematic heat conductance, m**2/s
 7 - modulus of horizontal velocity, m/s
 8 - Richardson number, n/d
   -0.000000   -0.00000  0.5009E-12  0.3109E-11  0.1172E-14  0.1000E-09  0.0000E+00  0.1563E+17
   -0.037498    0.24224  0.3122E-12  0.5323E-11  0.1173E-14  0.1000E-09  0.0000E+00  0.1446E+17
   -0.074996    0.48232  0.1717E-12  0.9800E-11  0.1629E-14  0.1000E-09  0.0000E+00  0.1332E+17
   -0.112494    0.72004  0.1158E-12  0.1744E-10  0.2568E-14  0.1000E-09  0.0000E+00  0.1221E+17
   -0.149993    0.95526  0.9946E-13  0.3010E-10  0.4189E-14  0.1000E-09  0.0000E+00  0.1114E+17
   -0.187492    1.18796  0.9540E-13  0.5091E-10  0.6865E-14  0.1000E-09  0.0000E+00  0.1011E+17
   -0.224991    1.41819  0.9424E-13  0.8511E-10  0.1122E-13  0.1000E-09  0.0000E+00  0.9116E+16
   -0.262491    1.64611  0.9368E-13  0.1411E-09  0.1823E-13  0.1000E-09  0.0000E+00  0.8183E+16
   -0.299991    1.87242  0.9330E-13  0.2323E-09  0.2948E-13  0.1000E-09  0.0000E+00  0.7290E+16
   -0.337491    2.09759  0.9304E-13  0.3804E-09  0.4744E-13  0.1000E-09  0.0000E+00  0.6428E+16
   -0.374991    2.32210  0.9286E-13  0.6202E-09  0.7600E-13  0.1000E-09  0.0000E+00  0.5658E+16
   -0.412492    2.54931  0.9268E-13  0.1007E-08  0.1213E-12  0.1000E-09  0.0000E+00  0.4908E+16
   -0.449992    2.78154  0.9237E-13  0.1627E-08  0.1927E-12  0.1299E-09  0.0000E+00  0.4112E+16
   -0.487493    3.01912  0.9186E-13  0.2619E-08  0.3050E-12  0.2593E-09  0.0000E+00  0.3258E+16
   -0.524994    3.26171  0.9096E-13  0.4187E-08  0.4794E-12  0.5673E-09  0.0000E+00  0.2340E+16
   -0.562495    3.50760  0.8924E-13  0.6649E-08  0.7488E-12  0.1500E-08  0.0000E+00  0.1383E+16
   -0.599996    3.75465  0.8665E-13  0.1048E-07  0.1161E-11  0.7671E-08  0.0000E+00  0.4209E+15
   -0.637497    3.99277  0.8551E-13  0.1121E-07  0.1245E-11  0.2716E-04  0.0000E+00 -0.1415E+12
   -0.674999    3.99417  0.8551E-13  0.1158E-07  0.1296E-11  0.3182E-04  0.0000E+00 -0.1465E+12
   -0.712500    3.99535  0.8551E-13  0.1192E-07  0.1350E-11  0.3489E-04  0.0000E+00 -0.1523E+12
   -0.750001    3.99641  0.8551E-13  0.1223E-07  0.1405E-11  0.3727E-04  0.0000E+00 -0.1578E+12
   -0.787502    3.99739  0.8551E-13  0.1251E-07  0.1463E-11  0.3900E-04  0.0000E+00 -0.1639E+12
   -0.825004    3.99831  0.8551E-13  0.1276E-07  0.1523E-11  0.3991E-04  0.0000E+00 -0.1727E+12
   -0.862505    3.99921  0.8551E-13  0.1299E-07  0.1587E-11  0.3993E-04  0.0000E+00 -0.1853E+12
   -0.900006    4.00010  0.8551E-13  0.1320E-07  0.1653E-11  0.3963E-04  0.0000E+00 -0.1997E+12
   -0.937507    4.00100  0.8551E-13  0.1338E-07  0.1725E-11  0.3916E-04  0.0000E+00 -0.2154E+12
   -0.975008    4.00191  0.8551E-13  0.1355E-07  0.1802E-11  0.3851E-04  0.0000E+00 -0.2329E+12
   -1.012509    4.00284  0.8551E-13  0.1369E-07  0.1887E-11  0.3769E-04  0.0000E+00 -0.2535E+12
   -1.050010    4.00380  0.8551E-13  0.1381E-07  0.1982E-11  0.3666E-04  0.0000E+00 -0.2776E+12
   -1.087511    4.00479  0.8551E-13  0.1390E-07  0.2088E-11  0.3542E-04  0.0000E+00 -0.3059E+12
   -1.125011    4.00582  0.8551E-13  0.1395E-07  0.2207E-11  0.3393E-04  0.0000E+00 -0.3383E+12
   -1.162511    4.00690  0.8551E-13  0.1396E-07  0.2343E-11  0.3219E-04  0.0000E+00 -0.3778E+12
   -1.200011    4.00804  0.8551E-13  0.1391E-07  0.2509E-11  0.3013E-04  0.0000E+00 -0.4278E+12
   -1.237511    4.00927  0.8551E-13  0.1379E-07  0.2731E-11  0.2642E-04  0.0000E+00 -0.5211E+12
   -1.275011    4.01068  0.8551E-13  0.1355E-07  0.3036E-11  0.2081E-04  0.0000E+00 -0.7078E+12
   -1.312510    4.01247  0.8551E-13  0.1314E-07  0.3457E-11  0.1612E-04  0.0000E+00 -0.9904E+12
   -1.350009    4.01479  0.8551E-13  0.1249E-07  0.4077E-11  0.1180E-04  0.0000E+00 -0.1495E+13
   -1.387508    4.01797  0.8551E-13  0.1145E-07  0.5120E-11  0.7430E-05  0.0000E+00 -0.2698E+13
   -1.425006    4.02301  0.8551E-13  0.9626E-08  0.7392E-11  0.3301E-05  0.0000E+00 -0.7405E+13
   -1.462504    4.03419  0.8551E-13  0.6162E-08  0.1562E-10  0.5398E-06  0.0000E+00 -0.6809E+14
   -1.500002    4.09116  0.8551E-13  0.0000E+00  0.0000E+00  0.0000E+00  0.0000E+00  0.0000E+00
