 1 - depth, m
 2 - temperature, C
 3 - salinity, kg/kg
 4 - turbulent kinetic energy, m**2/s**2
 5 - dissipation rate, m**2/s**3
 6 - kinematic heat conductance, m**2/s
 7 - modulus of horizontal velocity, m/s
 8 - Richardson number, n/d
   -0.000000    6.96887  0.9494E-13  0.1088E-03  0.4408E-04  0.5128E-04  0.9223E-01  0.1569E-02
   -0.037498    7.00975  0.9494E-13  0.6274E-04  0.1207E-04  0.7656E-04  0.3376E-01 -0.3145E-01
   -0.074996    7.01716  0.9494E-13  0.4576E-04  0.4992E-05  0.8165E-04  0.2498E-01 -0.2394E-01
   -0.112494    7.02284  0.9494E-13  0.3605E-04  0.2602E-05  0.8760E-04  0.2062E-01 -0.1347E-01
   -0.149993    7.02760  0.9494E-13  0.2919E-04  0.1476E-05  0.9410E-04  0.1745E-01 -0.2156E-01
   -0.187492    7.03182  0.9494E-13  0.2407E-04  0.8889E-06  0.1006E-03  0.1493E-01 -0.2780E-01
   -0.224991    7.03564  0.9494E-13  0.2016E-04  0.5621E-06  0.1070E-03  0.1289E-01 -0.3945E-01
   -0.262491    7.03916  0.9494E-13  0.1716E-04  0.3721E-06  0.1127E-03  0.1121E-01 -0.5209E-01
   -0.299990    7.04242  0.9494E-13  0.1478E-04  0.2561E-06  0.1191E-03  0.9776E-02 -0.4726E-01
   -0.337490    7.04545  0.9494E-13  0.1284E-04  0.1821E-06  0.1308E-03  0.8554E-02  0.2074E+01
   -0.374990    7.04822  0.9494E-13  0.1124E-04  0.1329E-06  0.1446E-03  0.7515E-02  0.7146E+02
   -0.412491    7.05075  0.9494E-13  0.9913E-05  0.9907E-07  0.1604E-03  0.6636E-02  0.6194E+02
   -0.449991    7.05305  0.9494E-13  0.8816E-05  0.7535E-07  0.1805E-03  0.5898E-02  0.3804E+02
   -0.487492    7.05512  0.9494E-13  0.7926E-05  0.5855E-07  0.1960E-03  0.5289E-02  0.1667E+02
   -0.524993    7.05702  0.9494E-13  0.7217E-05  0.4660E-07  0.2143E-03  0.4783E-02  0.1704E+02
   -0.562494    7.05875  0.9494E-13  0.6635E-05  0.3782E-07  0.2323E-03  0.4328E-02  0.1843E+02
   -0.599995    7.06035  0.9494E-13  0.6148E-05  0.3122E-07  0.2498E-03  0.3919E-02  0.1325E+02
   -0.637496    7.06182  0.9494E-13  0.5735E-05  0.2617E-07  0.2691E-03  0.3552E-02  0.1180E+03
   -0.674997    7.06317  0.9494E-13  0.5381E-05  0.2224E-07  0.2986E-03  0.3222E-02  0.4919E+02
   -0.712498    7.06437  0.9494E-13  0.5074E-05  0.1915E-07  0.3337E-03  0.2927E-02  0.1551E+03
   -0.750000    7.06543  0.9494E-13  0.4805E-05  0.1669E-07  0.3715E-03  0.2661E-02  0.5828E+02
   -0.787501    7.06635  0.9494E-13  0.4566E-05  0.1469E-07  0.4069E-03  0.2418E-02  0.2799E+02
   -0.825002    7.06716  0.9494E-13  0.4349E-05  0.1306E-07  0.4294E-03  0.2195E-02  0.6264E+02
   -0.862503    7.06789  0.9494E-13  0.4147E-05  0.1168E-07  0.4357E-03  0.1986E-02  0.1416E+02
   -0.900004    7.06860  0.9494E-13  0.3953E-05  0.1052E-07  0.4377E-03  0.1789E-02  0.9412E+01
   -0.937505    7.06930  0.9494E-13  0.3765E-05  0.9516E-08  0.4340E-03  0.1602E-02  0.4341E+01
   -0.975006    7.06999  0.9494E-13  0.3579E-05  0.8646E-08  0.4256E-03  0.1424E-02  0.1028E+02
   -1.012507    7.07070  0.9494E-13  0.3391E-05  0.7887E-08  0.4230E-03  0.1252E-02  0.3451E+01
   -1.050008    7.07140  0.9494E-13  0.3204E-05  0.7234E-08  0.4179E-03  0.1097E-02  0.2719E+01
   -1.087508    7.07211  0.9494E-13  0.3021E-05  0.6684E-08  0.4095E-03  0.9618E-03  0.2221E+01
   -1.125009    7.07284  0.9494E-13  0.2842E-05  0.6237E-08  0.3967E-03  0.8438E-03  0.1846E+01
   -1.162509    7.07358  0.9494E-13  0.2671E-05  0.5893E-08  0.3783E-03  0.7424E-03  0.1577E+01
   -1.200009    7.07437  0.9494E-13  0.2510E-05  0.5655E-08  0.3509E-03  0.6570E-03  0.1431E+01
   -1.237509    7.07521  0.9494E-13  0.2362E-05  0.5525E-08  0.3183E-03  0.5868E-03  0.1497E+01
   -1.275008    7.07613  0.9494E-13  0.2226E-05  0.5507E-08  0.2854E-03  0.5308E-03  0.1978E+01
   -1.312508    7.07716  0.9494E-13  0.2097E-05  0.5608E-08  0.2531E-03  0.4872E-03  0.3555E+01
   -1.350007    7.07832  0.9494E-13  0.1962E-05  0.5866E-08  0.2155E-03  0.4517E-03  0.8385E+01
   -1.387505    7.07968  0.9494E-13  0.1809E-05  0.6397E-08  0.1762E-03  0.4207E-03  0.2965E+02
   -1.425004    7.08136  0.9494E-13  0.1599E-05  0.7679E-08  0.1152E-03  0.3952E-03  0.1428E+05
   -1.462502    7.08390  0.9494E-13  0.9156E-06  0.1637E-07  0.8245E-05  0.3705E-03 -0.2117E+05
   -1.499999    7.11870  0.9494E-13  0.0000E+00  0.0000E+00  0.0000E+00  0.3670E-03  0.0000E+00
