 1 - depth, m
 2 - temperature, C
 3 - salinity, kg/kg
 4 - turbulent kinetic energy, m**2/s**2
 5 - dissipation rate, m**2/s**3
 6 - kinematic heat conductance, m**2/s
 7 - modulus of horizontal velocity, m/s
 8 - Richardson number, n/d
   -0.000000   13.79342  0.9146E-13  0.1611E-03  0.1177E-03  0.4942E-04  0.1163E+00 -0.1020E+00
   -0.037498   13.83019  0.9147E-13  0.9078E-04  0.2859E-04  0.9655E-04  0.3749E-01 -0.6384E-01
   -0.074996   13.83764  0.9147E-13  0.6550E-04  0.1266E-04  0.1137E-03  0.2649E-01  0.3859E+02
   -0.112494   13.84229  0.9147E-13  0.5189E-04  0.7099E-05  0.1245E-03  0.2195E-01  0.1072E+02
   -0.149993   13.84539  0.9147E-13  0.4243E-04  0.4155E-05  0.1375E-03  0.1889E-01  0.3116E+01
   -0.187492   13.84788  0.9147E-13  0.3532E-04  0.2484E-05  0.1530E-03  0.1649E-01  0.1555E+01
   -0.224991   13.85001  0.9147E-13  0.2985E-04  0.1517E-05  0.1703E-03  0.1452E-01  0.5357E+01
   -0.262490   13.85189  0.9147E-13  0.2566E-04  0.9560E-06  0.1866E-03  0.1291E-01  0.3019E+01
   -0.299990   13.85360  0.9147E-13  0.2236E-04  0.6274E-06  0.2050E-03  0.1151E-01  0.7994E+00
   -0.337490   13.85515  0.9147E-13  0.1970E-04  0.4309E-06  0.2269E-03  0.1031E-01  0.1883E+01
   -0.374990   13.85657  0.9147E-13  0.1752E-04  0.3086E-06  0.2476E-03  0.9280E-02  0.1063E+02
   -0.412491   13.85788  0.9147E-13  0.1572E-04  0.2289E-06  0.2697E-03  0.8397E-02  0.3707E+02
   -0.449991   13.85907  0.9147E-13  0.1424E-04  0.1747E-06  0.2963E-03  0.7647E-02  0.9128E+01
   -0.487492   13.86016  0.9147E-13  0.1304E-04  0.1368E-06  0.3248E-03  0.7016E-02  0.1922E+02
   -0.524993   13.86115  0.9147E-13  0.1208E-04  0.1098E-06  0.3540E-03  0.6482E-02  0.3398E+01
   -0.562494   13.86206  0.9147E-13  0.1130E-04  0.8994E-07  0.3969E-03  0.5993E-02  0.1318E+02
   -0.599995   13.86287  0.9148E-13  0.1066E-04  0.7505E-07  0.4425E-03  0.5547E-02  0.8606E+02
   -0.637496   13.86358  0.9148E-13  0.1012E-04  0.6364E-07  0.4817E-03  0.5137E-02  0.1890E+02
   -0.674997   13.86421  0.9148E-13  0.9655E-05  0.5475E-07  0.5156E-03  0.4758E-02  0.1178E+03
   -0.712498   13.86478  0.9148E-13  0.9253E-05  0.4769E-07  0.5443E-03  0.4404E-02  0.1972E+02
   -0.750000   13.86530  0.9148E-13  0.8894E-05  0.4200E-07  0.5683E-03  0.4070E-02  0.1697E+02
   -0.787501   13.86578  0.9148E-13  0.8567E-05  0.3734E-07  0.5800E-03  0.3755E-02  0.4915E+02
   -0.825002   13.86625  0.9148E-13  0.8261E-05  0.3347E-07  0.5867E-03  0.3455E-02  0.5858E+01
   -0.862503   13.86671  0.9148E-13  0.7967E-05  0.3022E-07  0.5880E-03  0.3168E-02  0.8842E+01
   -0.900004   13.86717  0.9148E-13  0.7677E-05  0.2745E-07  0.5847E-03  0.2892E-02  0.5442E+01
   -0.937505   13.86763  0.9148E-13  0.7383E-05  0.2506E-07  0.5782E-03  0.2627E-02  0.6062E+01
   -0.975006   13.86810  0.9148E-13  0.7078E-05  0.2297E-07  0.5669E-03  0.2370E-02  0.8804E+01
   -1.012507   13.86859  0.9148E-13  0.6754E-05  0.2111E-07  0.5577E-03  0.2118E-02  0.5271E+01
   -1.050008   13.86908  0.9148E-13  0.6414E-05  0.1948E-07  0.5441E-03  0.1888E-02  0.3962E+01
   -1.087508   13.86959  0.9148E-13  0.6060E-05  0.1808E-07  0.5277E-03  0.1680E-02  0.3276E+01
   -1.125009   13.87012  0.9148E-13  0.5697E-05  0.1691E-07  0.5082E-03  0.1493E-02  0.2915E+01
   -1.162509   13.87068  0.9148E-13  0.5329E-05  0.1600E-07  0.4862E-03  0.1327E-02  0.2784E+01
   -1.200009   13.87126  0.9148E-13  0.4962E-05  0.1537E-07  0.4618E-03  0.1182E-02  0.2999E+01
   -1.237509   13.87187  0.9148E-13  0.4609E-05  0.1505E-07  0.4272E-03  0.1059E-02  0.3688E+01
   -1.275008   13.87255  0.9148E-13  0.4281E-05  0.1509E-07  0.3715E-03  0.9571E-03  0.5561E+01
   -1.312507   13.87333  0.9148E-13  0.3984E-05  0.1556E-07  0.3191E-03  0.8781E-03  0.1056E+02
   -1.350006   13.87426  0.9148E-13  0.3685E-05  0.1667E-07  0.2675E-03  0.8194E-03  0.2672E+02
   -1.387505   13.87541  0.9148E-13  0.3341E-05  0.1894E-07  0.2060E-03  0.7695E-03  0.9495E+02
   -1.425003   13.87693  0.9148E-13  0.2910E-05  0.2446E-07  0.1487E-03  0.7262E-03  0.4990E+03
   -1.462501   13.87939  0.9148E-13  0.1716E-05  0.5232E-07  0.1406E-04  0.6896E-03 -0.5091E+05
   -1.499999   13.90337  0.9148E-13  0.0000E+00  0.0000E+00  0.0000E+00  0.6874E-03  0.0000E+00
