 1 - depth, m
 2 - temperature, C
 3 - salinity, kg/kg
 4 - turbulent kinetic energy, m**2/s**2
 5 - dissipation rate, m**2/s**3
 6 - kinematic heat conductance, m**2/s
 7 - modulus of horizontal velocity, m/s
 8 - Richardson number, n/d
   -0.000000    7.69611  0.8299E-13  0.9337E-03  0.4527E-02  0.9405E-04  0.4229E+00  0.1063E-02
   -0.037498    7.84276  0.8299E-13  0.4640E-03  0.2071E-02  0.1741E-03  0.1317E+00 -0.1959E-01
   -0.074996    7.91071  0.8299E-13  0.2869E-03  0.6317E-03  0.2531E-03  0.7698E-01 -0.5304E-01
   -0.112494    7.93743  0.8299E-13  0.2145E-03  0.3711E-03  0.2501E-03  0.5863E-01 -0.4797E-01
   -0.149993    7.95025  0.8299E-13  0.1724E-03  0.2401E-03  0.2463E-03  0.4864E-01 -0.8966E-01
   -0.187492    7.95817  0.8299E-13  0.1420E-03  0.1542E-03  0.2459E-03  0.4208E-01 -0.4827E-01
   -0.224992    7.96393  0.8299E-13  0.1186E-03  0.9680E-04  0.2518E-03  0.3705E-01  0.9880E-01
   -0.262491    7.96840  0.8299E-13  0.1008E-03  0.6096E-04  0.2567E-03  0.3341E-01 -0.5491E-01
   -0.299991    7.97234  0.8299E-13  0.8681E-04  0.3702E-04  0.2630E-03  0.3021E-01  0.4998E+01
   -0.337491    7.97611  0.8299E-13  0.7584E-04  0.2280E-04  0.2722E-03  0.2738E-01  0.6453E+00
   -0.374991    7.98023  0.8299E-13  0.6702E-04  0.1419E-04  0.2883E-03  0.2497E-01  0.3520E+01
   -0.412492    7.98337  0.8299E-13  0.5983E-04  0.8872E-05  0.3045E-03  0.2295E-01  0.7205E+01
   -0.449992    7.98626  0.8299E-13  0.5405E-04  0.5620E-05  0.3203E-03  0.2128E-01  0.1895E+02
   -0.487493    7.98883  0.8299E-13  0.4941E-04  0.3635E-05  0.3386E-03  0.1996E-01  0.1065E+02
   -0.524994    7.99112  0.8299E-13  0.4569E-04  0.2418E-05  0.3498E-03  0.1897E-01  0.3303E+01
   -0.562495    7.99353  0.8299E-13  0.4262E-04  0.1662E-05  0.3644E-03  0.1786E-01  0.4837E+02
   -0.599996    7.99587  0.8299E-13  0.4004E-04  0.1183E-05  0.3717E-03  0.1678E-01  0.2589E+01
   -0.637498    8.00047  0.8299E-13  0.3749E-04  0.8668E-06  0.4006E-03  0.1538E-01  0.5180E+01
   -0.674999    8.00254  0.8299E-13  0.3535E-04  0.6588E-06  0.4194E-03  0.1447E-01  0.1498E+03
   -0.712500    8.00455  0.8299E-13  0.3345E-04  0.5173E-06  0.4416E-03  0.1362E-01  0.1280E+02
   -0.750001    8.00640  0.8299E-13  0.3173E-04  0.4188E-06  0.4698E-03  0.1283E-01  0.1072E+02
   -0.787503    8.00814  0.8299E-13  0.3017E-04  0.3475E-06  0.5021E-03  0.1209E-01  0.1301E+03
   -0.825004    8.00986  0.8299E-13  0.2872E-04  0.2953E-06  0.5352E-03  0.1139E-01  0.2669E+02
   -0.862505    8.01136  0.8299E-13  0.2737E-04  0.2554E-06  0.5675E-03  0.1072E-01  0.6943E+02
   -0.900007    8.01292  0.8299E-13  0.2607E-04  0.2242E-06  0.6047E-03  0.1008E-01  0.1420E+03
   -0.937508    8.01432  0.8298E-13  0.2482E-04  0.1988E-06  0.6382E-03  0.9457E-02  0.4875E+03
   -0.975009    8.01570  0.8298E-13  0.2359E-04  0.1775E-06  0.6600E-03  0.8849E-02  0.2727E+03
   -1.012510    8.01702  0.8298E-13  0.2233E-04  0.1591E-06  0.6799E-03  0.8249E-02  0.1452E+03
   -1.050010    8.01828  0.8298E-13  0.2106E-04  0.1432E-06  0.7030E-03  0.7690E-02  0.4892E+02
   -1.087511    8.01949  0.8298E-13  0.1978E-04  0.1292E-06  0.7195E-03  0.7176E-02  0.3444E+02
   -1.125012    8.02067  0.8298E-13  0.1848E-04  0.1169E-06  0.7147E-03  0.6696E-02  0.2559E+02
   -1.162512    8.02185  0.8298E-13  0.1714E-04  0.1062E-06  0.6962E-03  0.6243E-02  0.3583E+02
   -1.200012    8.02305  0.8298E-13  0.1579E-04  0.9696E-07  0.6611E-03  0.5822E-02  0.2522E+02
   -1.237512    8.02431  0.8298E-13  0.1441E-04  0.8936E-07  0.6128E-03  0.5432E-02  0.1620E+03
   -1.275011    8.02568  0.8298E-13  0.1302E-04  0.8377E-07  0.5468E-03  0.5077E-02  0.2386E+02
   -1.312511    8.02726  0.8298E-13  0.1164E-04  0.8089E-07  0.4681E-03  0.4760E-02  0.4807E+02
   -1.350010    8.02916  0.8298E-13  0.1029E-04  0.8224E-07  0.3703E-03  0.4486E-02  0.1534E+02
   -1.387509    8.03168  0.8298E-13  0.8911E-05  0.9006E-07  0.2697E-03  0.4253E-02  0.4769E+02
   -1.425007    8.03505  0.8298E-13  0.7237E-05  0.1163E-06  0.1454E-03  0.4051E-02  0.6146E+03
   -1.462505    8.04146  0.8298E-13  0.3910E-05  0.2434E-06  0.2239E-04  0.3840E-02 -0.3633E+04
   -1.500003    8.08688  0.8298E-13  0.0000E+00  0.0000E+00  0.0000E+00  0.3691E-02  0.0000E+00
