 1 - depth, m
 2 - temperature, C
 3 - salinity, kg/kg
 4 - turbulent kinetic energy, m**2/s**2
 5 - dissipation rate, m**2/s**3
 6 - kinematic heat conductance, m**2/s
 7 - modulus of horizontal velocity, m/s
 8 - Richardson number, n/d
   -0.000000   -0.00000  0.9410E-12  0.4096E-13  0.8590E-16  0.1000E-09  0.0000E+00  0.1139E+17
   -0.037498    0.17493  0.4250E-12  0.4096E-13  0.8590E-16  0.1000E-09  0.0000E+00  0.1075E+17
   -0.074995    0.34827  0.2571E-12  0.4096E-13  0.8590E-16  0.1000E-09  0.0000E+00  0.1012E+17
   -0.112494    0.51992  0.1874E-12  0.4096E-13  0.8590E-16  0.1000E-09  0.0000E+00  0.9507E+16
   -0.149992    0.68979  0.1491E-12  0.4096E-13  0.8590E-16  0.1000E-09  0.0000E+00  0.8907E+16
   -0.187491    0.85778  0.1254E-12  0.4096E-13  0.8590E-16  0.1000E-09  0.0000E+00  0.8322E+16
   -0.224990    1.02382  0.1108E-12  0.4096E-13  0.8590E-16  0.1000E-09  0.0000E+00  0.7753E+16
   -0.262489    1.18780  0.1022E-12  0.4096E-13  0.8590E-16  0.1000E-09  0.0000E+00  0.7200E+16
   -0.299989    1.34965  0.9747E-13  0.4096E-13  0.8590E-16  0.1000E-09  0.0000E+00  0.6663E+16
   -0.337489    1.50929  0.9494E-13  0.1692E-12  0.8590E-16  0.1000E-09  0.0000E+00  0.6144E+16
   -0.374989    1.66662  0.9355E-13  0.4630E-12  0.1185E-15  0.1000E-09  0.0000E+00  0.5660E+16
   -0.412489    1.82206  0.9266E-13  0.9879E-12  0.2060E-15  0.1000E-09  0.0000E+00  0.5200E+16
   -0.449990    1.97584  0.9192E-13  0.1915E-11  0.3713E-15  0.1000E-09  0.0000E+00  0.4753E+16
   -0.487490    2.12788  0.9118E-13  0.3567E-11  0.6677E-15  0.1000E-09  0.0000E+00  0.4318E+16
   -0.524991    2.27809  0.9037E-13  0.6502E-11  0.1188E-14  0.1000E-09  0.0000E+00  0.3893E+16
   -0.562492    2.42623  0.8951E-13  0.1171E-10  0.2096E-14  0.1000E-09  0.0000E+00  0.3483E+16
   -0.599993    2.57226  0.8862E-13  0.2092E-10  0.3674E-14  0.1000E-09  0.0000E+00  0.3090E+16
   -0.637494    2.71612  0.8777E-13  0.3716E-10  0.6404E-14  0.1000E-09  0.0000E+00  0.2712E+16
   -0.674995    2.85775  0.8701E-13  0.6565E-10  0.1110E-13  0.1000E-09  0.0000E+00  0.2351E+16
   -0.712496    2.99710  0.8639E-13  0.1154E-09  0.1916E-13  0.1000E-09  0.0000E+00  0.2006E+16
   -0.749997    3.13414  0.8594E-13  0.2018E-09  0.3290E-13  0.1000E-09  0.0000E+00  0.1682E+16
   -0.787498    3.26931  0.8564E-13  0.3512E-09  0.5624E-13  0.1137E-09  0.0000E+00  0.1373E+16
   -0.824999    3.40273  0.8547E-13  0.6084E-09  0.9567E-13  0.2468E-09  0.0000E+00  0.1076E+16
   -0.862500    3.53429  0.8539E-13  0.1049E-08  0.1620E-12  0.5685E-09  0.0000E+00  0.7906E+15
   -0.900001    3.66381  0.8535E-13  0.1798E-08  0.2729E-12  0.1463E-08  0.0000E+00  0.5174E+15
   -0.937502    3.79080  0.8534E-13  0.3063E-08  0.4571E-12  0.4911E-08  0.0000E+00  0.2580E+15
   -0.975003    3.91315  0.8534E-13  0.5086E-08  0.7482E-12  0.5235E-07  0.0000E+00  0.3943E+14
   -1.012503    4.00441  0.8534E-13  0.5897E-08  0.8723E-12  0.1501E-04  0.0000E+00 -0.3412E+12
   -1.050004    4.00557  0.8534E-13  0.6276E-08  0.9434E-12  0.1561E-04  0.0000E+00 -0.3512E+12
   -1.087504    4.00671  0.8534E-13  0.6591E-08  0.1018E-11  0.1583E-04  0.0000E+00 -0.3694E+12
   -1.125004    4.00783  0.8534E-13  0.6846E-08  0.1098E-11  0.1571E-04  0.0000E+00 -0.3971E+12
   -1.162504    4.00898  0.8534E-13  0.7040E-08  0.1187E-11  0.1523E-04  0.0000E+00 -0.4370E+12
   -1.200004    4.01018  0.8534E-13  0.7170E-08  0.1289E-11  0.1438E-04  0.0000E+00 -0.4939E+12
   -1.237504    4.01146  0.8534E-13  0.7226E-08  0.1410E-11  0.1317E-04  0.0000E+00 -0.5772E+12
   -1.275003    4.01289  0.8534E-13  0.7195E-08  0.1559E-11  0.1158E-04  0.0000E+00 -0.7054E+12
   -1.312502    4.01453  0.8534E-13  0.7048E-08  0.1756E-11  0.9607E-05  0.0000E+00 -0.9200E+12
   -1.350001    4.01654  0.8534E-13  0.6738E-08  0.2041E-11  0.7272E-05  0.0000E+00 -0.1331E+13
   -1.387500    4.01923  0.8534E-13  0.6165E-08  0.2515E-11  0.4654E-05  0.0000E+00 -0.2327E+13
   -1.424998    4.02347  0.8534E-13  0.5104E-08  0.3531E-11  0.2045E-05  0.0000E+00 -0.6232E+13
   -1.462496    4.03297  0.8534E-13  0.3208E-08  0.6937E-11  0.3271E-06  0.0000E+00 -0.4915E+14
   -1.499993    4.07828  0.8534E-13  0.0000E+00  0.0000E+00  0.0000E+00  0.0000E+00  0.0000E+00
