 1 - depth, m
 2 - temperature, C
 3 - salinity, kg/kg
 4 - turbulent kinetic energy, m**2/s**2
 5 - dissipation rate, m**2/s**3
 6 - kinematic heat conductance, m**2/s
 7 - modulus of horizontal velocity, m/s
 8 - Richardson number, n/d
   -0.000000    8.54850  0.9538E-13  0.2633E-03  0.2808E-03  0.7614E-04  0.1772E+00 -0.2127E-01
   -0.037498    8.60326  0.9539E-13  0.1435E-03  0.8984E-04  0.1292E-03  0.5580E-01 -0.4998E-01
   -0.074996    8.61345  0.9539E-13  0.1011E-03  0.3528E-04  0.1402E-03  0.3815E-01 -0.1657E-01
   -0.112494    8.62017  0.9539E-13  0.7833E-04  0.1821E-04  0.1380E-03  0.3145E-01 -0.8195E-01
   -0.149993    8.62503  0.9539E-13  0.6306E-04  0.9402E-05  0.1403E-03  0.2692E-01 -0.1370E-01
   -0.187492    8.62888  0.9539E-13  0.5167E-04  0.5069E-05  0.1442E-03  0.2339E-01 -0.1974E-01
   -0.224992    8.63241  0.9539E-13  0.4314E-04  0.2862E-05  0.1499E-03  0.2047E-01 -0.2305E-01
   -0.262491    8.63549  0.9539E-13  0.3664E-04  0.1797E-05  0.1553E-03  0.1814E-01  0.1814E+00
   -0.299991    8.63830  0.9539E-13  0.3152E-04  0.1164E-05  0.1612E-03  0.1614E-01 -0.7852E-02
   -0.337491    8.64091  0.9539E-13  0.2741E-04  0.7757E-06  0.1679E-03  0.1441E-01  0.2084E+00
   -0.374992    8.64334  0.9539E-13  0.2404E-04  0.5331E-06  0.1754E-03  0.1291E-01  0.2915E-01
   -0.412492    8.64562  0.9539E-13  0.2126E-04  0.3784E-06  0.1838E-03  0.1163E-01  0.1371E+00
   -0.449993    8.64775  0.9539E-13  0.1897E-04  0.2780E-06  0.1944E-03  0.1054E-01  0.1174E+02
   -0.487494    8.64974  0.9539E-13  0.1710E-04  0.2114E-06  0.2066E-03  0.9616E-02  0.3373E+01
   -0.524995    8.65158  0.9539E-13  0.1560E-04  0.1661E-06  0.2175E-03  0.8841E-02  0.2830E+00
   -0.562496    8.65331  0.9539E-13  0.1436E-04  0.1337E-06  0.2299E-03  0.8127E-02  0.3339E+00
   -0.599997    8.65493  0.9539E-13  0.1330E-04  0.1098E-06  0.2492E-03  0.7478E-02  0.2205E+01
   -0.637498    8.65643  0.9539E-13  0.1240E-04  0.9165E-07  0.2784E-03  0.6889E-02  0.6823E+01
   -0.674999    8.65777  0.9539E-13  0.1162E-04  0.7754E-07  0.3202E-03  0.6353E-02  0.1652E+03
   -0.712501    8.65897  0.9539E-13  0.1093E-04  0.6637E-07  0.3571E-03  0.5864E-02  0.1884E+02
   -0.750002    8.66003  0.9539E-13  0.1032E-04  0.5740E-07  0.3949E-03  0.5413E-02  0.2038E+02
   -0.787503    8.66097  0.9539E-13  0.9761E-05  0.5009E-07  0.4320E-03  0.4994E-02  0.3647E+03
   -0.825005    8.66182  0.9539E-13  0.9254E-05  0.4405E-07  0.4615E-03  0.4601E-02  0.3196E+02
   -0.862506    8.66258  0.9539E-13  0.8781E-05  0.3900E-07  0.4836E-03  0.4229E-02  0.1639E+02
   -0.900007    8.66329  0.9539E-13  0.8333E-05  0.3472E-07  0.5020E-03  0.3875E-02  0.9613E+01
   -0.937508    8.66396  0.9539E-13  0.7900E-05  0.3105E-07  0.5083E-03  0.3536E-02  0.1161E+02
   -0.975009    8.66459  0.9540E-13  0.7472E-05  0.2784E-07  0.5063E-03  0.3208E-02  0.1976E+02
   -1.012510    8.66522  0.9540E-13  0.7039E-05  0.2500E-07  0.5080E-03  0.2888E-02  0.9671E+01
   -1.050011    8.66583  0.9540E-13  0.6601E-05  0.2247E-07  0.5049E-03  0.2594E-02  0.5427E+01
   -1.087512    8.66644  0.9540E-13  0.6160E-05  0.2024E-07  0.4972E-03  0.2326E-02  0.4836E+01
   -1.125012    8.66704  0.9540E-13  0.5719E-05  0.1829E-07  0.4856E-03  0.2083E-02  0.3663E+01
   -1.162513    8.66765  0.9540E-13  0.5279E-05  0.1663E-07  0.4715E-03  0.1864E-02  0.3379E+01
   -1.200013    8.66828  0.9540E-13  0.4848E-05  0.1526E-07  0.4530E-03  0.1669E-02  0.1650E+02
   -1.237513    8.66892  0.9540E-13  0.4432E-05  0.1421E-07  0.4217E-03  0.1499E-02  0.1839E+01
   -1.275012    8.66961  0.9540E-13  0.4047E-05  0.1352E-07  0.3767E-03  0.1354E-02  0.6582E+01
   -1.312512    8.67037  0.9540E-13  0.3706E-05  0.1321E-07  0.3266E-03  0.1237E-02  0.1078E+02
   -1.350011    8.67125  0.9540E-13  0.3410E-05  0.1335E-07  0.2801E-03  0.1149E-02  0.3831E+01
   -1.387509    8.67226  0.9540E-13  0.3119E-05  0.1406E-07  0.2376E-03  0.1083E-02  0.1405E+02
   -1.425008    8.67346  0.9540E-13  0.2724E-05  0.1636E-07  0.1327E-03  0.1032E-02  0.2360E+03
   -1.462506    8.67553  0.9540E-13  0.1496E-05  0.3394E-07  0.9998E-05  0.9764E-03 -0.3804E+04
   -1.500004    8.70199  0.9540E-13  0.0000E+00  0.0000E+00  0.0000E+00  0.9566E-03  0.0000E+00
