 1 - depth, m
 2 - temperature, C
 3 - salinity, kg/kg
 4 - turbulent kinetic energy, m**2/s**2
 5 - dissipation rate, m**2/s**3
 6 - kinematic heat conductance, m**2/s
 7 - modulus of horizontal velocity, m/s
 8 - Richardson number, n/d
   -0.000000   -0.00000  0.6638E-12  0.4096E-13  0.8590E-16  0.1000E-09  0.0000E+00  0.1020E+17
   -0.037498    0.15629  0.4979E-12  0.4096E-13  0.8590E-16  0.1000E-09  0.0000E+00  0.9735E+16
   -0.074996    0.31207  0.3303E-12  0.4096E-13  0.8590E-16  0.1000E-09  0.0000E+00  0.9269E+16
   -0.112494    0.46720  0.2213E-12  0.4096E-13  0.8590E-16  0.1000E-09  0.0000E+00  0.8804E+16
   -0.149993    0.62159  0.1622E-12  0.4096E-13  0.8590E-16  0.1000E-09  0.0000E+00  0.8341E+16
   -0.187492    0.77509  0.1311E-12  0.4096E-13  0.8590E-16  0.1000E-09  0.0000E+00  0.7880E+16
   -0.224991    0.92760  0.1140E-12  0.4096E-13  0.8590E-16  0.1000E-09  0.0000E+00  0.7424E+16
   -0.262490    1.07897  0.1043E-12  0.4096E-13  0.8590E-16  0.1000E-09  0.0000E+00  0.6974E+16
   -0.299990    1.22911  0.9876E-13  0.4096E-13  0.8590E-16  0.1000E-09  0.0000E+00  0.6530E+16
   -0.337490    1.37790  0.9559E-13  0.4096E-13  0.8590E-16  0.1000E-09  0.0000E+00  0.6093E+16
   -0.374990    1.52520  0.9373E-13  0.4096E-13  0.8590E-16  0.1000E-09  0.0000E+00  0.5675E+16
   -0.412491    1.67118  0.9253E-13  0.4096E-13  0.8590E-16  0.1000E-09  0.0000E+00  0.5271E+16
   -0.449991    1.81589  0.9160E-13  0.8751E-13  0.8590E-16  0.1000E-09  0.0000E+00  0.4874E+16
   -0.487492    1.95921  0.9076E-13  0.2985E-12  0.9755E-16  0.1000E-09  0.0000E+00  0.4485E+16
   -0.524993    2.10104  0.8993E-13  0.6962E-12  0.1666E-15  0.1000E-09  0.0000E+00  0.4104E+16
   -0.562494    2.24125  0.8910E-13  0.1412E-11  0.3064E-15  0.1000E-09  0.0000E+00  0.3735E+16
   -0.599995    2.37975  0.8829E-13  0.2712E-11  0.5646E-15  0.1000E-09  0.0000E+00  0.3376E+16
   -0.637496    2.51645  0.8754E-13  0.5090E-11  0.1032E-14  0.1000E-09  0.0000E+00  0.3029E+16
   -0.674997    2.65126  0.8689E-13  0.9436E-11  0.1871E-14  0.1000E-09  0.0000E+00  0.2694E+16
   -0.712498    2.78411  0.8636E-13  0.1735E-10  0.3371E-14  0.1000E-09  0.0000E+00  0.2372E+16
   -0.749999    2.91493  0.8596E-13  0.3170E-10  0.6038E-14  0.1000E-09  0.0000E+00  0.2070E+16
   -0.787500    3.04408  0.8569E-13  0.5758E-10  0.1075E-13  0.1000E-09  0.0000E+00  0.1780E+16
   -0.825002    3.17165  0.8552E-13  0.1040E-09  0.1904E-13  0.1000E-09  0.0000E+00  0.1501E+16
   -0.862503    3.29764  0.8542E-13  0.1867E-09  0.3355E-13  0.1000E-09  0.0000E+00  0.1233E+16
   -0.900004    3.42203  0.8537E-13  0.3336E-09  0.5879E-13  0.1674E-09  0.0000E+00  0.9747E+15
   -0.937505    3.54477  0.8535E-13  0.5925E-09  0.1025E-12  0.3916E-09  0.0000E+00  0.7265E+15
   -0.975006    3.66574  0.8534E-13  0.1047E-08  0.1777E-12  0.1010E-08  0.0000E+00  0.4884E+15
   -1.012507    3.78466  0.8534E-13  0.1841E-08  0.3069E-12  0.3258E-08  0.0000E+00  0.2614E+15
   -1.050007    3.90049  0.8534E-13  0.3199E-08  0.5243E-12  0.2583E-07  0.0000E+00  0.5639E+14
   -1.087508    3.99976  0.8534E-13  0.4016E-08  0.6621E-12  0.8805E-05  0.0000E+00 -0.4152E+12
   -1.125008    4.00161  0.8534E-13  0.4412E-08  0.7463E-12  0.9481E-05  0.0000E+00 -0.4385E+12
   -1.162508    4.00335  0.8534E-13  0.4735E-08  0.8358E-12  0.9747E-05  0.0000E+00 -0.4776E+12
   -1.200008    4.00505  0.8534E-13  0.4987E-08  0.9345E-12  0.9625E-05  0.0000E+00 -0.5370E+12
   -1.237508    4.00680  0.8534E-13  0.5167E-08  0.1048E-11  0.9129E-05  0.0000E+00 -0.6265E+12
   -1.275008    4.00867  0.8534E-13  0.5264E-08  0.1185E-11  0.8260E-05  0.0000E+00 -0.7665E+12
   -1.312507    4.01076  0.8534E-13  0.5259E-08  0.1362E-11  0.7020E-05  0.0000E+00 -0.1003E+13
   -1.350006    4.01326  0.8534E-13  0.5111E-08  0.1612E-11  0.5424E-05  0.0000E+00 -0.1461E+13
   -1.387504    4.01652  0.8534E-13  0.4743E-08  0.2018E-11  0.3537E-05  0.0000E+00 -0.2580E+13
   -1.425003    4.02156  0.8534E-13  0.3982E-08  0.2862E-11  0.1599E-05  0.0000E+00 -0.6923E+13
   -1.462501    4.03243  0.8534E-13  0.2612E-08  0.5515E-11  0.2843E-06  0.0000E+00 -0.4904E+14
   -1.499998    4.07793  0.8534E-13  0.0000E+00  0.0000E+00  0.0000E+00  0.0000E+00  0.0000E+00
