 1 - depth, m
 2 - temperature, C
 3 - salinity, kg/kg
 4 - turbulent kinetic energy, m**2/s**2
 5 - dissipation rate, m**2/s**3
 6 - kinematic heat conductance, m**2/s
 7 - modulus of horizontal velocity, m/s
 8 - Richardson number, n/d
   -0.000000   -0.00000  0.1485E-15  0.1510E-08  0.3316E-11  0.3004E-09  0.0000E+00  0.3083E+17
   -0.037499    0.49583  0.4255E-14  0.7816E-08  0.4039E-11  0.4308E-09  0.0000E+00  0.2375E+17
   -0.074998    0.93835  0.1841E-13  0.2236E-07  0.8676E-11  0.9974E-09  0.0000E+00  0.1947E+17
   -0.112497    1.36893  0.4708E-13  0.5462E-07  0.1974E-10  0.2476E-08  0.0000E+00  0.1681E+17
   -0.149997    1.85112  0.8790E-13  0.1246E-06  0.4368E-10  0.1328E-07  0.0000E+00  0.1301E+17
   -0.187497    2.42309  0.1293E-12  0.1893E-06  0.6582E-10  0.6618E-04  0.0000E+00  0.9197E+16
   -0.224997    2.89619  0.1539E-12  0.2440E-06  0.8438E-10  0.1320E-03  0.0000E+00  0.6624E+16
   -0.262497    3.28241  0.1615E-12  0.2907E-06  0.1000E-09  0.1869E-03  0.0000E+00  0.4786E+16
   -0.299998    3.60653  0.1559E-12  0.3303E-06  0.1130E-09  0.2343E-03  0.0000E+00  0.3199E+16
   -0.337499    3.87399  0.1426E-12  0.3617E-06  0.1232E-09  0.2776E-03  0.0000E+00  0.1667E+16
   -0.375000    4.07181  0.1271E-12  0.3803E-06  0.1294E-09  0.3168E-03  0.0000E+00  0.3441E+15
   -0.412502    4.16791  0.1173E-12  0.3818E-06  0.1305E-09  0.3509E-03  0.0000E+00 -0.1997E+13
   -0.450003    4.16864  0.1173E-12  0.3828E-06  0.1316E-09  0.3493E-03  0.0000E+00 -0.2006E+13
   -0.487505    4.16936  0.1173E-12  0.3836E-06  0.1328E-09  0.3477E-03  0.0000E+00 -0.1998E+13
   -0.525007    4.17008  0.1172E-12  0.3841E-06  0.1341E-09  0.3454E-03  0.0000E+00 -0.2016E+13
   -0.562509    4.17081  0.1172E-12  0.3844E-06  0.1355E-09  0.3425E-03  0.0000E+00 -0.2035E+13
   -0.600011    4.17153  0.1172E-12  0.3844E-06  0.1370E-09  0.3388E-03  0.0000E+00 -0.2066E+13
   -0.637513    4.17226  0.1172E-12  0.3841E-06  0.1387E-09  0.3345E-03  0.0000E+00 -0.2099E+13
   -0.675015    4.17300  0.1172E-12  0.3835E-06  0.1405E-09  0.3294E-03  0.0000E+00 -0.2143E+13
   -0.712517    4.17375  0.1172E-12  0.3826E-06  0.1424E-09  0.3237E-03  0.0000E+00 -0.2192E+13
   -0.750020    4.17451  0.1171E-12  0.3815E-06  0.1445E-09  0.3173E-03  0.0000E+00 -0.2247E+13
   -0.787522    4.17528  0.1171E-12  0.3800E-06  0.1469E-09  0.3102E-03  0.0000E+00 -0.2306E+13
   -0.825024    4.17607  0.1171E-12  0.3782E-06  0.1494E-09  0.3024E-03  0.0000E+00 -0.2378E+13
   -0.862526    4.17689  0.1171E-12  0.3761E-06  0.1523E-09  0.2938E-03  0.0000E+00 -0.2459E+13
   -0.900028    4.17772  0.1171E-12  0.3736E-06  0.1554E-09  0.2846E-03  0.0000E+00 -0.2557E+13
   -0.937530    4.17858  0.1171E-12  0.3707E-06  0.1589E-09  0.2746E-03  0.0000E+00 -0.2668E+13
   -0.975032    4.17948  0.1171E-12  0.3674E-06  0.1628E-09  0.2638E-03  0.0000E+00 -0.2799E+13
   -1.012534    4.18041  0.1171E-12  0.3636E-06  0.1672E-09  0.2523E-03  0.0000E+00 -0.2951E+13
   -1.050036    4.18139  0.1170E-12  0.3593E-06  0.1723E-09  0.2398E-03  0.0000E+00 -0.3135E+13
   -1.087537    4.18242  0.1170E-12  0.3544E-06  0.1782E-09  0.2264E-03  0.0000E+00 -0.3353E+13
   -1.125039    4.18352  0.1170E-12  0.3488E-06  0.1851E-09  0.2121E-03  0.0000E+00 -0.3614E+13
   -1.162540    4.18470  0.1170E-12  0.3424E-06  0.1934E-09  0.1967E-03  0.0000E+00 -0.3935E+13
   -1.200041    4.18597  0.1170E-12  0.3351E-06  0.2034E-09  0.1805E-03  0.0000E+00 -0.4339E+13
   -1.237542    4.18737  0.1170E-12  0.3266E-06  0.2158E-09  0.1632E-03  0.0000E+00 -0.4859E+13
   -1.275042    4.18892  0.1170E-12  0.3168E-06  0.2314E-09  0.1449E-03  0.0000E+00 -0.5550E+13
   -1.312542    4.19067  0.1170E-12  0.3054E-06  0.2519E-09  0.1256E-03  0.0000E+00 -0.6507E+13
   -1.350042    4.19270  0.1170E-12  0.2919E-06  0.2802E-09  0.1058E-03  0.0000E+00 -0.7886E+13
   -1.387542    4.19514  0.1169E-12  0.2744E-06  0.3244E-09  0.8264E-04  0.0000E+00 -0.1018E+14
   -1.425041    4.19826  0.1169E-12  0.2443E-06  0.4261E-09  0.3179E-04  0.0000E+00 -0.2739E+14
   -1.462540    4.20645  0.1169E-12  0.1414E-06  0.1018E-08  0.3250E-05  0.0000E+00 -0.3093E+15
   -1.500039    4.28316  0.1169E-12  0.0000E+00  0.0000E+00  0.0000E+00  0.0000E+00  0.0000E+00
