 1 - depth, m
 2 - temperature, C
 3 - salinity, kg/kg
 4 - turbulent kinetic energy, m**2/s**2
 5 - dissipation rate, m**2/s**3
 6 - kinematic heat conductance, m**2/s
 7 - modulus of horizontal velocity, m/s
 8 - Richardson number, n/d
   -0.000000   14.25573  0.1082E-12  0.3308E-04  0.6034E-05  0.2492E-04  0.4035E-01 -0.1646E-01
   -0.037498   14.26661  0.1082E-12  0.2197E-04  0.1759E-05  0.4055E-04  0.2087E-01 -0.9376E-02
   -0.074997   14.27011  0.1082E-12  0.1711E-04  0.7873E-06  0.5168E-04  0.1578E-01 -0.1534E-01
   -0.112496   14.27244  0.1082E-12  0.1386E-04  0.4203E-06  0.5999E-04  0.1264E-01 -0.2220E-01
   -0.149995   14.27418  0.1082E-12  0.1143E-04  0.2477E-06  0.6604E-04  0.1037E-01 -0.3012E-01
   -0.187494   14.27555  0.1082E-12  0.9518E-05  0.1563E-06  0.7034E-04  0.8633E-02 -0.3949E-01
   -0.224994   14.27665  0.1082E-12  0.7977E-05  0.1038E-06  0.7337E-04  0.7272E-02 -0.5079E-01
   -0.262494   14.27752  0.1082E-12  0.6734E-05  0.7188E-07  0.7469E-04  0.6194E-02 -0.6041E-01
   -0.299994   14.27822  0.1082E-12  0.5699E-05  0.5120E-07  0.7480E-04  0.5305E-02 -0.6907E-01
   -0.337495   14.27878  0.1082E-12  0.4816E-05  0.3711E-07  0.7378E-04  0.4564E-02 -0.7543E-01
   -0.374995   14.27920  0.1082E-12  0.4054E-05  0.2716E-07  0.7159E-04  0.3947E-02 -0.7384E-01
   -0.412496   14.27950  0.1082E-12  0.3393E-05  0.1997E-07  0.6827E-04  0.3434E-02 -0.5037E-01
   -0.449997   14.27966  0.1082E-12  0.2822E-05  0.1472E-07  0.6389E-04  0.3013E-02  0.4360E-01
   -0.487498   14.27968  0.1082E-12  0.2338E-05  0.1091E-07  0.5838E-04  0.2676E-02  0.4086E+00
   -0.525000   14.27947  0.1082E-12  0.1935E-05  0.8163E-08  0.5155E-04  0.2410E-02  0.7716E+00
   -0.562501   14.27891  0.1082E-12  0.1591E-05  0.6134E-08  0.4412E-04  0.2161E-02  0.1636E+01
   -0.600003   14.27747  0.1082E-12  0.1294E-05  0.4611E-08  0.3605E-04  0.1924E-02  0.5026E+01
   -0.637504   14.27478  0.1083E-12  0.1035E-05  0.3452E-08  0.2739E-04  0.1702E-02  0.3171E+02
   -0.675006   14.26994  0.1083E-12  0.8047E-06  0.2549E-08  0.1841E-04  0.1490E-02  0.4292E+03
   -0.712508   14.25978  0.1083E-12  0.5924E-06  0.1813E-08  0.1021E-04  0.1272E-02  0.6808E+04
   -0.750009   14.23436  0.1083E-12  0.3935E-06  0.1180E-08  0.3310E-05  0.1032E-02  0.9310E+05
   -0.787511   14.18037  0.1083E-12  0.1822E-06  0.5249E-09  0.1574E-06  0.7408E-03  0.1087E+07
   -0.825013   14.05834  0.1085E-12  0.3636E-07  0.1040E-09  0.1017E-07  0.3375E-03  0.1123E+08
   -0.862514   13.87965  0.1086E-12  0.5836E-08  0.1703E-10  0.1697E-08  0.1209E-03  0.1049E+09
   -0.900016   13.68545  0.1087E-12  0.4904E-08  0.9802E-11  0.1154E-08  0.4153E-04  0.8905E+09
   -0.937518   13.49106  0.1088E-12  0.2188E-07  0.3530E-10  0.5258E-08  0.1392E-04  0.6754E+10
   -0.975019   13.31450  0.1089E-12  0.9494E-07  0.1476E-09  0.5868E-07  0.4215E-05  0.3945E+11
   -1.012520   13.18813  0.1089E-12  0.2034E-06  0.3228E-09  0.3929E-05  0.6776E-06  0.4661E+12
   -1.050022   13.11969  0.1089E-12  0.3131E-06  0.5131E-09  0.1822E-04  0.2681E-06  0.2465E+13
   -1.087523   13.09648  0.1089E-12  0.4018E-06  0.6835E-09  0.4812E-04  0.1781E-06  0.1443E+13
   -1.125023   13.09539  0.1089E-12  0.4638E-06  0.8303E-09  0.7807E-04  0.1350E-06 -0.2442E+13
   -1.162524   13.09556  0.1089E-12  0.5146E-06  0.9799E-09  0.9011E-04  0.1103E-06 -0.3149E+13
   -1.200025   13.09585  0.1089E-12  0.5620E-06  0.1150E-08  0.9361E-04  0.9064E-07 -0.4617E+13
   -1.237525   13.09627  0.1089E-12  0.6066E-06  0.1351E-08  0.9210E-04  0.7468E-07 -0.7087E+13
   -1.275025   13.09683  0.1089E-12  0.6464E-06  0.1591E-08  0.8866E-04  0.6168E-07 -0.1170E+14
   -1.312525   13.09757  0.1089E-12  0.6773E-06  0.1880E-08  0.8279E-04  0.5110E-07 -0.1967E+14
   -1.350024   13.09853  0.1089E-12  0.6945E-06  0.2241E-08  0.7403E-04  0.4250E-07 -0.3429E+14
   -1.387523   13.09981  0.1089E-12  0.6908E-06  0.2734E-08  0.6169E-04  0.3560E-07 -0.6614E+14
   -1.425022   13.10161  0.1089E-12  0.6518E-06  0.3541E-08  0.4574E-04  0.3023E-07 -0.1282E+15
   -1.462521   13.10440  0.1089E-12  0.4538E-06  0.7091E-08  0.6893E-05  0.2652E-07 -0.1176E+16
   -1.500019   13.12511  0.1089E-12  0.0000E+00  0.0000E+00  0.0000E+00  0.2647E-07  0.0000E+00
