 1 - depth, m
 2 - temperature, C
 3 - salinity, kg/kg
 4 - turbulent kinetic energy, m**2/s**2
 5 - dissipation rate, m**2/s**3
 6 - kinematic heat conductance, m**2/s
 7 - modulus of horizontal velocity, m/s
 8 - Richardson number, n/d
   -0.000000   -0.00000  0.2805E-12  0.6941E-12  0.1985E-15  0.1000E-09  0.0000E+00  0.1466E+17
   -0.037498    0.22679  0.2476E-12  0.1063E-11  0.2136E-15  0.1000E-09  0.0000E+00  0.1365E+17
   -0.074996    0.45187  0.2165E-12  0.1836E-11  0.3035E-15  0.1000E-09  0.0000E+00  0.1266E+17
   -0.112494    0.67517  0.1771E-12  0.3185E-11  0.4831E-15  0.1000E-09  0.0000E+00  0.1169E+17
   -0.149993    0.89659  0.1425E-12  0.5455E-11  0.7956E-15  0.1000E-09  0.0000E+00  0.1075E+17
   -0.187491    1.11602  0.1189E-12  0.9251E-11  0.1321E-14  0.1000E-09  0.0000E+00  0.9832E+16
   -0.224991    1.33337  0.1053E-12  0.1559E-10  0.2194E-14  0.1000E-09  0.0000E+00  0.8937E+16
   -0.262490    1.54848  0.9836E-13  0.2617E-10  0.3638E-14  0.1000E-09  0.0000E+00  0.8073E+16
   -0.299990    1.76140  0.9515E-13  0.4377E-10  0.6019E-14  0.1000E-09  0.0000E+00  0.7235E+16
   -0.337490    1.97199  0.9367E-13  0.7308E-10  0.9940E-14  0.1000E-09  0.0000E+00  0.6420E+16
   -0.374990    2.18006  0.9288E-13  0.1218E-09  0.1639E-13  0.1000E-09  0.0000E+00  0.5651E+16
   -0.412490    2.38619  0.9224E-13  0.2028E-09  0.2699E-13  0.1000E-09  0.0000E+00  0.4911E+16
   -0.449991    2.59052  0.9146E-13  0.3372E-09  0.4436E-13  0.1000E-09  0.0000E+00  0.4183E+16
   -0.487491    2.79256  0.9041E-13  0.5600E-09  0.7282E-13  0.1000E-09  0.0000E+00  0.3471E+16
   -0.524992    2.99160  0.8913E-13  0.9258E-09  0.1190E-12  0.1260E-09  0.0000E+00  0.2781E+16
   -0.562493    3.18671  0.8785E-13  0.1525E-08  0.1937E-12  0.2539E-09  0.0000E+00  0.2118E+16
   -0.599994    3.37651  0.8684E-13  0.2505E-08  0.3143E-12  0.5810E-09  0.0000E+00  0.1496E+16
   -0.637495    3.55926  0.8622E-13  0.4104E-08  0.5086E-12  0.1499E-08  0.0000E+00  0.9295E+15
   -0.674996    3.73266  0.8594E-13  0.6698E-08  0.8199E-12  0.5073E-08  0.0000E+00  0.4379E+15
   -0.712497    3.89256  0.8587E-13  0.1068E-07  0.1294E-11  0.5418E-07  0.0000E+00  0.6678E+14
   -0.749999    4.00633  0.8586E-13  0.1130E-07  0.1373E-11  0.3570E-04  0.0000E+00 -0.1998E+12
   -0.787500    4.00698  0.8586E-13  0.1160E-07  0.1418E-11  0.3582E-04  0.0000E+00 -0.2077E+12
   -0.825001    4.00763  0.8586E-13  0.1187E-07  0.1465E-11  0.3634E-04  0.0000E+00 -0.2140E+12
   -0.862502    4.00827  0.8586E-13  0.1211E-07  0.1515E-11  0.3664E-04  0.0000E+00 -0.2215E+12
   -0.900003    4.00892  0.8586E-13  0.1232E-07  0.1569E-11  0.3672E-04  0.0000E+00 -0.2306E+12
   -0.937504    4.00957  0.8586E-13  0.1251E-07  0.1627E-11  0.3656E-04  0.0000E+00 -0.2416E+12
   -0.975005    4.01024  0.8586E-13  0.1267E-07  0.1690E-11  0.3620E-04  0.0000E+00 -0.2544E+12
   -1.012506    4.01092  0.8586E-13  0.1281E-07  0.1758E-11  0.3562E-04  0.0000E+00 -0.2702E+12
   -1.050006    4.01162  0.8586E-13  0.1291E-07  0.1834E-11  0.3482E-04  0.0000E+00 -0.2891E+12
   -1.087507    4.01235  0.8586E-13  0.1298E-07  0.1919E-11  0.3378E-04  0.0000E+00 -0.3121E+12
   -1.125007    4.01312  0.8586E-13  0.1301E-07  0.2015E-11  0.3248E-04  0.0000E+00 -0.3393E+12
   -1.162507    4.01393  0.8586E-13  0.1300E-07  0.2125E-11  0.3088E-04  0.0000E+00 -0.3734E+12
   -1.200007    4.01480  0.8586E-13  0.1294E-07  0.2255E-11  0.2892E-04  0.0000E+00 -0.4187E+12
   -1.237507    4.01574  0.8586E-13  0.1280E-07  0.2422E-11  0.2635E-04  0.0000E+00 -0.4856E+12
   -1.275007    4.01680  0.8586E-13  0.1255E-07  0.2654E-11  0.2120E-04  0.0000E+00 -0.6346E+12
   -1.312506    4.01812  0.8586E-13  0.1213E-07  0.2977E-11  0.1628E-04  0.0000E+00 -0.8745E+12
   -1.350005    4.01986  0.8586E-13  0.1148E-07  0.3454E-11  0.1187E-04  0.0000E+00 -0.1290E+13
   -1.387503    4.02225  0.8586E-13  0.1045E-07  0.4255E-11  0.7438E-05  0.0000E+00 -0.2265E+13
   -1.425002    4.02610  0.8586E-13  0.8675E-08  0.6006E-11  0.3237E-05  0.0000E+00 -0.6019E+13
   -1.462500    4.03483  0.8586E-13  0.5266E-08  0.1244E-10  0.4661E-06  0.0000E+00 -0.5504E+14
   -1.499997    4.08318  0.8586E-13  0.0000E+00  0.0000E+00  0.0000E+00  0.0000E+00  0.0000E+00
