 1 - depth, m
 2 - temperature, C
 3 - salinity, kg/kg
 4 - turbulent kinetic energy, m**2/s**2
 5 - dissipation rate, m**2/s**3
 6 - kinematic heat conductance, m**2/s
 7 - modulus of horizontal velocity, m/s
 8 - Richardson number, n/d
   -0.000000   -0.00000  0.3319E-12  0.3089E-11  0.1179E-14  0.1000E-09  0.0000E+00  0.1584E+17
   -0.037498    0.24568  0.2875E-12  0.5336E-11  0.1201E-14  0.1000E-09  0.0000E+00  0.1464E+17
   -0.074996    0.48911  0.2137E-12  0.9936E-11  0.1706E-14  0.1000E-09  0.0000E+00  0.1347E+17
   -0.112494    0.73022  0.1504E-12  0.1792E-10  0.2749E-14  0.1000E-09  0.0000E+00  0.1234E+17
   -0.149993    0.96896  0.1155E-12  0.3139E-10  0.4572E-14  0.1000E-09  0.0000E+00  0.1125E+17
   -0.187491    1.20521  0.1010E-12  0.5398E-10  0.7632E-14  0.1000E-09  0.0000E+00  0.1018E+17
   -0.224991    1.43889  0.9589E-13  0.9179E-10  0.1270E-13  0.1000E-09  0.0000E+00  0.9153E+16
   -0.262490    1.66990  0.9417E-13  0.1548E-09  0.2101E-13  0.1000E-09  0.0000E+00  0.8171E+16
   -0.299990    1.89851  0.9349E-13  0.2593E-09  0.3457E-13  0.1000E-09  0.0000E+00  0.7227E+16
   -0.337490    2.12486  0.9314E-13  0.4319E-09  0.5659E-13  0.1000E-09  0.0000E+00  0.6320E+16
   -0.374990    2.34912  0.9289E-13  0.7160E-09  0.9220E-13  0.1000E-09  0.0000E+00  0.5500E+16
   -0.412490    2.57382  0.9263E-13  0.1181E-08  0.1495E-12  0.1044E-09  0.0000E+00  0.4719E+16
   -0.449991    2.80099  0.9223E-13  0.1940E-08  0.2414E-12  0.1707E-09  0.0000E+00  0.3931E+16
   -0.487491    3.03160  0.9149E-13  0.3172E-08  0.3880E-12  0.3447E-09  0.0000E+00  0.3124E+16
   -0.524992    3.26671  0.9015E-13  0.5145E-08  0.6190E-12  0.7509E-09  0.0000E+00  0.2276E+16
   -0.562493    3.50684  0.8819E-13  0.8286E-08  0.9803E-12  0.1945E-08  0.0000E+00  0.1379E+16
   -0.599994    3.75206  0.8641E-13  0.1322E-07  0.1539E-11  0.9804E-08  0.0000E+00  0.4311E+15
   -0.637495    3.99214  0.8572E-13  0.1428E-07  0.1670E-11  0.3713E-04  0.0000E+00  0.1274E+13
   -0.674996    3.99879  0.8572E-13  0.1462E-07  0.1718E-11  0.4347E-04  0.0000E+00 -0.1690E+12
   -0.712497    3.99969  0.8572E-13  0.1492E-07  0.1765E-11  0.4595E-04  0.0000E+00 -0.1709E+12
   -0.749999    4.00053  0.8572E-13  0.1519E-07  0.1817E-11  0.4677E-04  0.0000E+00 -0.1777E+12
   -0.787500    4.00134  0.8572E-13  0.1542E-07  0.1869E-11  0.4691E-04  0.0000E+00 -0.1861E+12
   -0.825001    4.00212  0.8572E-13  0.1563E-07  0.1924E-11  0.4696E-04  0.0000E+00 -0.1946E+12
   -0.862502    4.00290  0.8572E-13  0.1581E-07  0.1981E-11  0.4667E-04  0.0000E+00 -0.2045E+12
   -0.900003    4.00369  0.8572E-13  0.1596E-07  0.2042E-11  0.4622E-04  0.0000E+00 -0.2151E+12
   -0.937504    4.00447  0.8572E-13  0.1609E-07  0.2108E-11  0.4556E-04  0.0000E+00 -0.2270E+12
   -0.975005    4.00527  0.8572E-13  0.1619E-07  0.2180E-11  0.4473E-04  0.0000E+00 -0.2402E+12
   -1.012506    4.00607  0.8572E-13  0.1626E-07  0.2258E-11  0.4368E-04  0.0000E+00 -0.2564E+12
   -1.050006    4.00690  0.8572E-13  0.1630E-07  0.2346E-11  0.4242E-04  0.0000E+00 -0.2751E+12
   -1.087507    4.00775  0.8572E-13  0.1630E-07  0.2444E-11  0.4090E-04  0.0000E+00 -0.2975E+12
   -1.125007    4.00863  0.8572E-13  0.1626E-07  0.2554E-11  0.3914E-04  0.0000E+00 -0.3233E+12
   -1.162507    4.00955  0.8572E-13  0.1617E-07  0.2681E-11  0.3708E-04  0.0000E+00 -0.3549E+12
   -1.200007    4.01052  0.8572E-13  0.1603E-07  0.2834E-11  0.3472E-04  0.0000E+00 -0.3948E+12
   -1.237507    4.01156  0.8572E-13  0.1580E-07  0.3034E-11  0.3097E-04  0.0000E+00 -0.4652E+12
   -1.275007    4.01273  0.8572E-13  0.1542E-07  0.3314E-11  0.2471E-04  0.0000E+00 -0.6143E+12
   -1.312506    4.01421  0.8572E-13  0.1486E-07  0.3710E-11  0.1876E-04  0.0000E+00 -0.8572E+12
   -1.350005    4.01614  0.8572E-13  0.1403E-07  0.4307E-11  0.1349E-04  0.0000E+00 -0.1283E+13
   -1.387503    4.01880  0.8572E-13  0.1277E-07  0.5323E-11  0.8429E-05  0.0000E+00 -0.2277E+13
   -1.425002    4.02305  0.8572E-13  0.1063E-07  0.7563E-11  0.3704E-05  0.0000E+00 -0.6131E+13
   -1.462500    4.03255  0.8572E-13  0.6481E-08  0.1605E-10  0.5427E-06  0.0000E+00 -0.5977E+14
   -1.499997    4.08519  0.8572E-13  0.0000E+00  0.0000E+00  0.0000E+00  0.0000E+00  0.0000E+00
