 1 - depth, m
 2 - temperature, C
 3 - salinity, kg/kg
 4 - turbulent kinetic energy, m**2/s**2
 5 - dissipation rate, m**2/s**3
 6 - kinematic heat conductance, m**2/s
 7 - modulus of horizontal velocity, m/s
 8 - Richardson number, n/d
   -0.000000   -0.00000  0.4253E-12  0.4096E-13  0.8590E-16  0.1000E-09  0.0000E+00  0.1274E+17
   -0.037498    0.19630  0.3509E-12  0.4096E-13  0.8590E-16  0.1000E-09  0.0000E+00  0.1197E+17
   -0.074996    0.39111  0.2887E-12  0.4096E-13  0.8590E-16  0.1000E-09  0.0000E+00  0.1121E+17
   -0.112494    0.58436  0.2248E-12  0.1336E-12  0.8590E-16  0.1000E-09  0.0000E+00  0.1047E+17
   -0.149993    0.77595  0.1709E-12  0.3915E-12  0.1037E-15  0.1000E-09  0.0000E+00  0.9744E+16
   -0.187491    0.96576  0.1334E-12  0.8522E-12  0.1713E-15  0.1000E-09  0.0000E+00  0.9033E+16
   -0.224991    1.15367  0.1112E-12  0.1649E-11  0.3014E-15  0.1000E-09  0.0000E+00  0.8339E+16
   -0.262490    1.33955  0.9960E-13  0.3035E-11  0.5320E-15  0.1000E-09  0.0000E+00  0.7668E+16
   -0.299990    1.52340  0.9423E-13  0.5458E-11  0.9323E-15  0.1000E-09  0.0000E+00  0.7015E+16
   -0.337490    1.70511  0.9196E-13  0.9699E-11  0.1623E-14  0.1000E-09  0.0000E+00  0.6380E+16
   -0.374990    1.88453  0.9101E-13  0.1711E-10  0.2809E-14  0.1000E-09  0.0000E+00  0.5791E+16
   -0.412490    2.06234  0.9053E-13  0.3001E-10  0.4838E-14  0.1000E-09  0.0000E+00  0.5229E+16
   -0.449991    2.23892  0.9014E-13  0.5239E-10  0.8294E-14  0.1000E-09  0.0000E+00  0.4679E+16
   -0.487491    2.41416  0.8965E-13  0.9104E-10  0.1416E-13  0.1000E-09  0.0000E+00  0.4140E+16
   -0.524992    2.58794  0.8899E-13  0.1570E-09  0.2399E-13  0.1000E-09  0.0000E+00  0.3615E+16
   -0.562493    2.76016  0.8814E-13  0.2690E-09  0.4039E-13  0.1000E-09  0.0000E+00  0.3104E+16
   -0.599994    2.93071  0.8711E-13  0.4584E-09  0.6765E-13  0.1000E-09  0.0000E+00  0.2608E+16
   -0.637495    3.09951  0.8596E-13  0.7777E-09  0.1128E-12  0.1472E-09  0.0000E+00  0.2127E+16
   -0.674996    3.26641  0.8486E-13  0.1314E-08  0.1873E-12  0.3127E-09  0.0000E+00  0.1663E+16
   -0.712497    3.43122  0.8398E-13  0.2209E-08  0.3097E-12  0.7076E-09  0.0000E+00  0.1215E+16
   -0.749999    3.59365  0.8341E-13  0.3696E-08  0.5097E-12  0.1797E-08  0.0000E+00  0.7871E+15
   -0.787500    3.75351  0.8314E-13  0.6144E-08  0.8337E-12  0.6136E-08  0.0000E+00  0.3770E+15
   -0.825001    3.90763  0.8305E-13  0.9858E-08  0.1321E-11  0.8186E-07  0.0000E+00  0.4459E+14
   -0.862502    4.00883  0.8305E-13  0.1060E-07  0.1426E-11  0.3181E-04  0.0000E+00 -0.2532E+12
   -0.900003    4.00953  0.8305E-13  0.1093E-07  0.1481E-11  0.3164E-04  0.0000E+00 -0.2634E+12
   -0.937504    4.01025  0.8305E-13  0.1119E-07  0.1534E-11  0.3191E-04  0.0000E+00 -0.2702E+12
   -0.975005    4.01096  0.8305E-13  0.1141E-07  0.1590E-11  0.3199E-04  0.0000E+00 -0.2786E+12
   -1.012506    4.01167  0.8305E-13  0.1159E-07  0.1650E-11  0.3183E-04  0.0000E+00 -0.2903E+12
   -1.050006    4.01239  0.8305E-13  0.1174E-07  0.1716E-11  0.3143E-04  0.0000E+00 -0.3051E+12
   -1.087507    4.01312  0.8305E-13  0.1185E-07  0.1789E-11  0.3077E-04  0.0000E+00 -0.3236E+12
   -1.125007    4.01388  0.8305E-13  0.1191E-07  0.1870E-11  0.2984E-04  0.0000E+00 -0.3462E+12
   -1.162507    4.01467  0.8305E-13  0.1193E-07  0.1961E-11  0.2863E-04  0.0000E+00 -0.3745E+12
   -1.200007    4.01550  0.8305E-13  0.1188E-07  0.2075E-11  0.2707E-04  0.0000E+00 -0.4116E+12
   -1.237507    4.01639  0.8305E-13  0.1176E-07  0.2229E-11  0.2325E-04  0.0000E+00 -0.4993E+12
   -1.275006    4.01743  0.8305E-13  0.1152E-07  0.2433E-11  0.1884E-04  0.0000E+00 -0.6458E+12
   -1.312506    4.01873  0.8305E-13  0.1113E-07  0.2712E-11  0.1496E-04  0.0000E+00 -0.8594E+12
   -1.350005    4.02038  0.8305E-13  0.1052E-07  0.3122E-11  0.1105E-04  0.0000E+00 -0.1242E+13
   -1.387503    4.02264  0.8305E-13  0.9554E-08  0.3814E-11  0.6964E-05  0.0000E+00 -0.2148E+13
   -1.425002    4.02623  0.8305E-13  0.7885E-08  0.5333E-11  0.3023E-05  0.0000E+00 -0.5647E+13
   -1.462500    4.03443  0.8305E-13  0.4745E-08  0.1089E-10  0.4295E-06  0.0000E+00 -0.5140E+14
   -1.499997    4.08057  0.8305E-13  0.0000E+00  0.0000E+00  0.0000E+00  0.0000E+00  0.0000E+00
