 1 - depth, m
 2 - temperature, C
 3 - salinity, kg/kg
 4 - turbulent kinetic energy, m**2/s**2
 5 - dissipation rate, m**2/s**3
 6 - kinematic heat conductance, m**2/s
 7 - modulus of horizontal velocity, m/s
 8 - Richardson number, n/d
   -0.000000   -0.00000  0.2363E-12  0.1100E-11  0.3479E-15  0.1000E-09  0.0000E+00  0.1491E+17
   -0.037498    0.23080  0.2729E-12  0.1758E-11  0.3790E-15  0.1000E-09  0.0000E+00  0.1392E+17
   -0.074996    0.46083  0.2283E-12  0.3149E-11  0.5556E-15  0.1000E-09  0.0000E+00  0.1294E+17
   -0.112494    0.68996  0.1735E-12  0.5625E-11  0.9109E-15  0.1000E-09  0.0000E+00  0.1197E+17
   -0.149993    0.91801  0.1345E-12  0.9891E-11  0.1538E-14  0.1000E-09  0.0000E+00  0.1101E+17
   -0.187492    1.14481  0.1122E-12  0.1719E-10  0.2608E-14  0.1000E-09  0.0000E+00  0.1007E+17
   -0.224991    1.37013  0.1011E-12  0.2964E-10  0.4415E-14  0.1000E-09  0.0000E+00  0.9134E+16
   -0.262490    1.59374  0.9623E-13  0.5082E-10  0.7444E-14  0.1000E-09  0.0000E+00  0.8225E+16
   -0.299990    1.81555  0.9422E-13  0.8669E-10  0.1250E-13  0.1000E-09  0.0000E+00  0.7332E+16
   -0.337490    2.03527  0.9335E-13  0.1473E-09  0.2090E-13  0.1000E-09  0.0000E+00  0.6456E+16
   -0.374990    2.25245  0.9287E-13  0.2493E-09  0.3484E-13  0.1000E-09  0.0000E+00  0.5625E+16
   -0.412491    2.46759  0.9241E-13  0.4206E-09  0.5787E-13  0.1000E-09  0.0000E+00  0.4821E+16
   -0.449991    2.68065  0.9176E-13  0.7071E-09  0.9580E-13  0.1000E-09  0.0000E+00  0.4029E+16
   -0.487492    2.89081  0.9074E-13  0.1185E-08  0.1581E-12  0.1347E-09  0.0000E+00  0.3258E+16
   -0.524993    3.09710  0.8934E-13  0.1972E-08  0.2591E-12  0.2852E-09  0.0000E+00  0.2520E+16
   -0.562494    3.29859  0.8784E-13  0.3265E-08  0.4224E-12  0.6404E-09  0.0000E+00  0.1828E+16
   -0.599995    3.49458  0.8668E-13  0.5377E-08  0.6854E-12  0.1596E-08  0.0000E+00  0.1189E+16
   -0.637496    3.68468  0.8605E-13  0.8807E-08  0.1106E-11  0.5071E-08  0.0000E+00  0.6041E+15
   -0.674997    3.86725  0.8585E-13  0.1412E-07  0.1751E-11  0.4530E-07  0.0000E+00  0.1068E+15
   -0.712498    4.00977  0.8583E-13  0.1474E-07  0.1832E-11  0.4566E-04  0.0000E+00 -0.2161E+12
   -0.749999    4.01035  0.8583E-13  0.1503E-07  0.1878E-11  0.4490E-04  0.0000E+00 -0.2260E+12
   -0.787501    4.01094  0.8583E-13  0.1530E-07  0.1927E-11  0.4519E-04  0.0000E+00 -0.2314E+12
   -0.825002    4.01154  0.8583E-13  0.1554E-07  0.1979E-11  0.4535E-04  0.0000E+00 -0.2376E+12
   -0.862503    4.01213  0.8583E-13  0.1575E-07  0.2035E-11  0.4531E-04  0.0000E+00 -0.2449E+12
   -0.900004    4.01273  0.8583E-13  0.1592E-07  0.2095E-11  0.4505E-04  0.0000E+00 -0.2536E+12
   -0.937505    4.01334  0.8583E-13  0.1607E-07  0.2160E-11  0.4458E-04  0.0000E+00 -0.2638E+12
   -0.975006    4.01396  0.8583E-13  0.1619E-07  0.2230E-11  0.4390E-04  0.0000E+00 -0.2758E+12
   -1.012507    4.01459  0.8583E-13  0.1627E-07  0.2307E-11  0.4300E-04  0.0000E+00 -0.2907E+12
   -1.050007    4.01524  0.8583E-13  0.1632E-07  0.2393E-11  0.4186E-04  0.0000E+00 -0.3087E+12
   -1.087508    4.01591  0.8583E-13  0.1633E-07  0.2489E-11  0.4047E-04  0.0000E+00 -0.3304E+12
   -1.125008    4.01662  0.8583E-13  0.1630E-07  0.2597E-11  0.3880E-04  0.0000E+00 -0.3559E+12
   -1.162509    4.01736  0.8583E-13  0.1621E-07  0.2722E-11  0.3684E-04  0.0000E+00 -0.3874E+12
   -1.200008    4.01815  0.8583E-13  0.1607E-07  0.2867E-11  0.3457E-04  0.0000E+00 -0.4271E+12
   -1.237508    4.01899  0.8583E-13  0.1584E-07  0.3045E-11  0.3198E-04  0.0000E+00 -0.4785E+12
   -1.275008    4.01992  0.8583E-13  0.1549E-07  0.3295E-11  0.2665E-04  0.0000E+00 -0.5977E+12
   -1.312507    4.02104  0.8583E-13  0.1492E-07  0.3668E-11  0.1974E-04  0.0000E+00 -0.8444E+12
   -1.350006    4.02256  0.8583E-13  0.1407E-07  0.4227E-11  0.1418E-04  0.0000E+00 -0.1246E+13
   -1.387505    4.02469  0.8583E-13  0.1279E-07  0.5173E-11  0.8868E-05  0.0000E+00 -0.2152E+13
   -1.425003    4.02812  0.8583E-13  0.1061E-07  0.7253E-11  0.3867E-05  0.0000E+00 -0.5578E+13
   -1.462501    4.03592  0.8583E-13  0.6308E-08  0.1522E-10  0.5259E-06  0.0000E+00 -0.5431E+14
   -1.499999    4.08327  0.8583E-13  0.0000E+00  0.0000E+00  0.0000E+00  0.0000E+00  0.0000E+00
