 1 - depth, m
 2 - temperature, C
 3 - salinity, kg/kg
 4 - turbulent kinetic energy, m**2/s**2
 5 - dissipation rate, m**2/s**3
 6 - kinematic heat conductance, m**2/s
 7 - modulus of horizontal velocity, m/s
 8 - Richardson number, n/d
   -0.000000    5.78626  0.9123E-13  0.1684E-03  0.9040E-04  0.5779E-04  0.1305E+00  0.2294E-02
   -0.037498    5.86349  0.9124E-13  0.9497E-04  0.2394E-04  0.1039E-03  0.4373E-01 -0.2653E+00
   -0.074996    5.87584  0.9124E-13  0.6816E-04  0.1007E-04  0.1054E-03  0.3164E-01 -0.1503E-01
   -0.112495    5.88542  0.9124E-13  0.5338E-04  0.5299E-05  0.1092E-03  0.2629E-01 -0.9519E-02
   -0.149994    5.89264  0.9124E-13  0.4317E-04  0.3010E-05  0.1141E-03  0.2249E-01 -0.1042E-01
   -0.187493    5.89879  0.9124E-13  0.3558E-04  0.1790E-05  0.1195E-03  0.1945E-01 -0.1379E-01
   -0.224993    5.90436  0.9125E-13  0.2979E-04  0.1107E-05  0.1254E-03  0.1695E-01 -0.1888E-01
   -0.262493    5.90949  0.9125E-13  0.2535E-04  0.7139E-06  0.1302E-03  0.1488E-01 -0.2317E-01
   -0.299993    5.91433  0.9125E-13  0.2183E-04  0.4812E-06  0.1348E-03  0.1310E-01 -0.2916E-01
   -0.337493    5.91890  0.9125E-13  0.1897E-04  0.3378E-06  0.1396E-03  0.1157E-01 -0.3778E-01
   -0.374994    5.92323  0.9125E-13  0.1660E-04  0.2452E-06  0.1447E-03  0.1026E-01 -0.5086E-01
   -0.412494    5.92732  0.9125E-13  0.1462E-04  0.1824E-06  0.1505E-03  0.9147E-02 -0.7087E-01
   -0.449995    5.93117  0.9125E-13  0.1297E-04  0.1386E-06  0.1574E-03  0.8202E-02 -0.9324E-01
   -0.487496    5.93479  0.9125E-13  0.1161E-04  0.1074E-06  0.1657E-03  0.7410E-02 -0.8896E-01
   -0.524997    5.93817  0.9125E-13  0.1051E-04  0.8505E-07  0.1720E-03  0.6745E-02  0.2666E+01
   -0.562499    5.94136  0.9125E-13  0.9600E-05  0.6855E-07  0.1807E-03  0.6138E-02  0.2563E+01
   -0.600000    5.94435  0.9125E-13  0.8825E-05  0.5612E-07  0.1930E-03  0.5586E-02  0.1718E+01
   -0.637502    5.94712  0.9125E-13  0.8160E-05  0.4658E-07  0.2098E-03  0.5085E-02  0.3005E+02
   -0.675003    5.94967  0.9125E-13  0.7581E-05  0.3915E-07  0.2320E-03  0.4633E-02  0.2614E+02
   -0.712505    5.95197  0.9125E-13  0.7074E-05  0.3329E-07  0.2631E-03  0.4223E-02  0.1584E+02
   -0.750006    5.95402  0.9125E-13  0.6627E-05  0.2861E-07  0.3022E-03  0.3851E-02  0.4264E+02
   -0.787508    5.95580  0.9125E-13  0.6227E-05  0.2483E-07  0.3384E-03  0.3511E-02  0.8781E+02
   -0.825009    5.95736  0.9125E-13  0.5865E-05  0.2173E-07  0.3757E-03  0.3198E-02  0.1045E+03
   -0.862511    5.95871  0.9125E-13  0.5533E-05  0.1916E-07  0.4088E-03  0.2907E-02  0.1252E+02
   -0.900012    5.95990  0.9125E-13  0.5221E-05  0.1699E-07  0.4265E-03  0.2634E-02  0.4193E+02
   -0.937514    5.96097  0.9125E-13  0.4924E-05  0.1513E-07  0.4345E-03  0.2375E-02  0.3201E+02
   -0.975015    5.96197  0.9125E-13  0.4633E-05  0.1352E-07  0.4324E-03  0.2128E-02  0.1219E+02
   -1.012516    5.96293  0.9125E-13  0.4345E-05  0.1209E-07  0.4335E-03  0.1888E-02  0.1088E+02
   -1.050017    5.96386  0.9125E-13  0.4059E-05  0.1083E-07  0.4318E-03  0.1671E-02  0.1866E+02
   -1.087518    5.96476  0.9125E-13  0.3777E-05  0.9733E-08  0.4281E-03  0.1477E-02  0.4500E+01
   -1.125019    5.96565  0.9125E-13  0.3502E-05  0.8791E-08  0.4190E-03  0.1305E-02  0.6241E+01
   -1.162519    5.96653  0.9125E-13  0.3236E-05  0.8004E-08  0.4044E-03  0.1153E-02  0.2773E+01
   -1.200019    5.96742  0.9125E-13  0.2983E-05  0.7374E-08  0.3828E-03  0.1021E-02  0.1470E+01
   -1.237519    5.96835  0.9125E-13  0.2750E-05  0.6910E-08  0.3509E-03  0.9086E-03  0.1050E+01
   -1.275019    5.96933  0.9125E-13  0.2541E-05  0.6621E-08  0.3133E-03  0.8169E-03  0.9197E+00
   -1.312519    5.97039  0.9125E-13  0.2361E-05  0.6509E-08  0.2779E-03  0.7454E-03  0.1143E+01
   -1.350018    5.97156  0.9125E-13  0.2197E-05  0.6580E-08  0.2448E-03  0.6915E-03  0.3385E+01
   -1.387517    5.97284  0.9125E-13  0.2025E-05  0.6913E-08  0.2111E-03  0.6492E-03  0.9638E+01
   -1.425016    5.97428  0.9125E-13  0.1770E-05  0.8052E-08  0.8500E-04  0.6131E-03  0.3705E+05
   -1.462514    5.97766  0.9125E-13  0.9517E-06  0.1690E-07  0.7726E-05  0.5692E-03 -0.4390E+04
   -1.500012    6.01288  0.9125E-13  0.0000E+00  0.0000E+00  0.0000E+00  0.5611E-03  0.0000E+00
