 1 - depth, m
 2 - temperature, C
 3 - salinity, kg/kg
 4 - turbulent kinetic energy, m**2/s**2
 5 - dissipation rate, m**2/s**3
 6 - kinematic heat conductance, m**2/s
 7 - modulus of horizontal velocity, m/s
 8 - Richardson number, n/d
   -0.000000   15.68358  0.9768E-13  0.8869E-04  0.2639E-04  0.5268E-04  0.8202E-01  0.2752E-01
   -0.037498   15.73232  0.9768E-13  0.5256E-04  0.7279E-05  0.6487E-04  0.3187E-01 -0.5859E-01
   -0.074996   15.74175  0.9769E-13  0.3930E-04  0.3194E-05  0.7638E-04  0.2386E-01 -0.2929E-01
   -0.112494   15.74834  0.9769E-13  0.3152E-04  0.1677E-05  0.8814E-04  0.1957E-01 -0.4956E-01
   -0.149993   15.75364  0.9769E-13  0.2608E-04  0.9710E-06  0.1001E-03  0.1643E-01 -0.5847E-01
   -0.187492   15.75817  0.9769E-13  0.2205E-04  0.6039E-06  0.1124E-03  0.1399E-01 -0.7650E-01
   -0.224991   15.76214  0.9769E-13  0.1899E-04  0.3981E-06  0.1258E-03  0.1203E-01 -0.8918E-01
   -0.262490   15.76564  0.9769E-13  0.1664E-04  0.2758E-06  0.1407E-03  0.1045E-01 -0.7104E-01
   -0.299990   15.76873  0.9769E-13  0.1480E-04  0.1990E-06  0.1715E-03  0.9151E-02  0.4608E+02
   -0.337490   15.77135  0.9769E-13  0.1336E-04  0.1488E-06  0.2280E-03  0.8085E-02  0.3759E+02
   -0.374990   15.77347  0.9769E-13  0.1222E-04  0.1150E-06  0.3070E-03  0.7220E-02  0.1034E+03
   -0.412491   15.77508  0.9769E-13  0.1134E-04  0.9153E-07  0.3854E-03  0.6517E-02  0.1127E+03
   -0.449991   15.77628  0.9769E-13  0.1064E-04  0.7473E-07  0.4355E-03  0.5934E-02  0.9574E+02
   -0.487492   15.77725  0.9769E-13  0.1010E-04  0.6232E-07  0.4664E-03  0.5437E-02  0.1055E+03
   -0.524993   15.77811  0.9769E-13  0.9675E-05  0.5299E-07  0.4797E-03  0.5008E-02  0.5247E+01
   -0.562494   15.77891  0.9769E-13  0.9335E-05  0.4574E-07  0.4919E-03  0.4607E-02  0.5225E+01
   -0.599995   15.77968  0.9769E-13  0.9054E-05  0.3998E-07  0.5039E-03  0.4232E-02  0.3410E+01
   -0.637496   15.78041  0.9769E-13  0.8812E-05  0.3533E-07  0.5156E-03  0.3880E-02  0.3524E+01
   -0.674997   15.78112  0.9769E-13  0.8596E-05  0.3150E-07  0.5281E-03  0.3550E-02  0.3591E+01
   -0.712498   15.78181  0.9769E-13  0.8394E-05  0.2833E-07  0.5410E-03  0.3240E-02  0.3615E+01
   -0.749999   15.78247  0.9769E-13  0.8198E-05  0.2567E-07  0.5536E-03  0.2948E-02  0.3604E+01
   -0.787500   15.78312  0.9769E-13  0.8000E-05  0.2343E-07  0.5651E-03  0.2674E-02  0.3568E+01
   -0.825002   15.78374  0.9769E-13  0.7795E-05  0.2153E-07  0.5745E-03  0.2415E-02  0.3514E+01
   -0.862503   15.78435  0.9769E-13  0.7576E-05  0.1992E-07  0.5808E-03  0.2171E-02  0.3450E+01
   -0.900004   15.78494  0.9769E-13  0.7341E-05  0.1856E-07  0.5830E-03  0.1941E-02  0.3382E+01
   -0.937505   15.78553  0.9769E-13  0.7084E-05  0.1741E-07  0.5804E-03  0.1724E-02  0.3318E+01
   -0.975006   15.78612  0.9769E-13  0.6805E-05  0.1646E-07  0.5724E-03  0.1519E-02  0.3271E+01
   -1.012507   15.78671  0.9769E-13  0.6504E-05  0.1569E-07  0.5712E-03  0.1324E-02  0.2772E+01
   -1.050007   15.78730  0.9769E-13  0.6190E-05  0.1511E-07  0.5768E-03  0.1154E-02  0.2329E+01
   -1.087508   15.78788  0.9769E-13  0.5875E-05  0.1473E-07  0.5827E-03  0.1009E-02  0.1982E+01
   -1.125008   15.78845  0.9769E-13  0.5569E-05  0.1454E-07  0.5768E-03  0.8895E-03  0.1693E+01
   -1.162508   15.78902  0.9769E-13  0.5282E-05  0.1453E-07  0.5528E-03  0.7920E-03  0.1444E+01
   -1.200008   15.78962  0.9769E-13  0.5023E-05  0.1470E-07  0.4995E-03  0.7150E-03  0.1218E+01
   -1.237508   15.79027  0.9769E-13  0.4792E-05  0.1502E-07  0.4494E-03  0.6564E-03  0.1144E+01
   -1.275008   15.79100  0.9769E-13  0.4574E-05  0.1551E-07  0.4080E-03  0.6125E-03  0.1461E+01
   -1.312507   15.79179  0.9769E-13  0.4341E-05  0.1630E-07  0.3593E-03  0.5774E-03  0.2661E+01
   -1.350006   15.79269  0.9769E-13  0.4070E-05  0.1760E-07  0.2987E-03  0.5457E-03  0.6192E+01
   -1.387504   15.79377  0.9769E-13  0.3741E-05  0.1987E-07  0.2243E-03  0.5168E-03  0.2084E+02
   -1.425003   15.79521  0.9769E-13  0.3322E-05  0.2437E-07  0.1675E-03  0.4909E-03  0.1016E+03
   -1.462501   15.79712  0.9769E-13  0.1963E-05  0.5263E-07  0.1300E-04  0.4725E-03 -0.1671E+05
   -1.499998   15.82144  0.9769E-13  0.0000E+00  0.0000E+00  0.0000E+00  0.4684E-03  0.0000E+00
