 1 - depth, m
 2 - temperature, C
 3 - salinity, kg/kg
 4 - turbulent kinetic energy, m**2/s**2
 5 - dissipation rate, m**2/s**3
 6 - kinematic heat conductance, m**2/s
 7 - modulus of horizontal velocity, m/s
 8 - Richardson number, n/d
   -0.000000   11.61531  0.9056E-13  0.3727E-03  0.5328E-03  0.6826E-04  0.2252E+00 -0.4478E-01
   -0.037498   11.67145  0.9057E-13  0.1988E-03  0.1639E-03  0.1300E-03  0.6878E-01 -0.7687E-01
   -0.074996   11.68520  0.9057E-13  0.1352E-03  0.6282E-04  0.1565E-03  0.4507E-01 -0.9386E-01
   -0.112495   11.69351  0.9057E-13  0.1052E-03  0.3559E-04  0.1591E-03  0.3719E-01 -0.2761E-01
   -0.149993   11.69885  0.9058E-13  0.8544E-04  0.2171E-04  0.1612E-03  0.3208E-01 -0.2291E-01
   -0.187493   11.70321  0.9058E-13  0.7091E-04  0.1344E-04  0.1670E-03  0.2805E-01 -0.2588E-01
   -0.224992   11.70688  0.9058E-13  0.5976E-04  0.8315E-05  0.1749E-03  0.2472E-01  0.7137E-01
   -0.262492   11.70996  0.9058E-13  0.5110E-04  0.5122E-05  0.1824E-03  0.2209E-01 -0.2462E-01
   -0.299992   11.71276  0.9058E-13  0.4433E-04  0.3179E-05  0.1914E-03  0.1976E-01  0.4437E+01
   -0.337492   11.71532  0.9058E-13  0.3889E-04  0.2018E-05  0.2012E-03  0.1774E-01  0.2034E+02
   -0.374992   11.71770  0.9058E-13  0.3448E-04  0.1327E-05  0.2140E-03  0.1602E-01  0.2520E+01
   -0.412493   11.71982  0.9058E-13  0.3088E-04  0.9072E-06  0.2292E-03  0.1457E-01  0.2640E+01
   -0.449993   11.72176  0.9058E-13  0.2791E-04  0.6447E-06  0.2495E-03  0.1335E-01  0.2566E+02
   -0.487494   11.72349  0.9058E-13  0.2550E-04  0.4761E-06  0.2805E-03  0.1234E-01  0.2717E+02
   -0.524995   11.72502  0.9058E-13  0.2355E-04  0.3656E-06  0.3151E-03  0.1150E-01  0.1294E+02
   -0.562496   11.72639  0.9058E-13  0.2194E-04  0.2904E-06  0.3457E-03  0.1070E-01  0.1786E+02
   -0.599998   11.72761  0.9058E-13  0.2057E-04  0.2372E-06  0.3755E-03  0.9962E-02  0.1289E+02
   -0.637499   11.72870  0.9058E-13  0.1939E-04  0.1981E-06  0.4061E-03  0.9284E-02  0.1338E+02
   -0.675000   11.72969  0.9058E-13  0.1835E-04  0.1684E-06  0.4360E-03  0.8659E-02  0.4385E+02
   -0.712502   11.73058  0.9058E-13  0.1742E-04  0.1452E-06  0.4624E-03  0.8078E-02  0.1725E+02
   -0.750003   11.73140  0.9058E-13  0.1658E-04  0.1266E-06  0.4813E-03  0.7534E-02  0.8424E+02
   -0.787504   11.73217  0.9058E-13  0.1580E-04  0.1114E-06  0.5028E-03  0.7023E-02  0.3012E+02
   -0.825006   11.73288  0.9058E-13  0.1508E-04  0.9874E-07  0.5263E-03  0.6540E-02  0.1750E+02
   -0.862507   11.73355  0.9058E-13  0.1439E-04  0.8811E-07  0.5478E-03  0.6081E-02  0.4771E+03
   -0.900009   11.73418  0.9058E-13  0.1373E-04  0.7903E-07  0.5680E-03  0.5641E-02  0.3098E+02
   -0.937510   11.73478  0.9058E-13  0.1308E-04  0.7118E-07  0.5818E-03  0.5218E-02  0.1982E+02
   -0.975011   11.73535  0.9058E-13  0.1243E-04  0.6429E-07  0.5856E-03  0.4807E-02  0.4772E+02
   -1.012512   11.73591  0.9058E-13  0.1176E-04  0.5814E-07  0.5918E-03  0.4404E-02  0.9185E+02
   -1.050013   11.73645  0.9058E-13  0.1108E-04  0.5261E-07  0.5986E-03  0.4033E-02  0.2010E+02
   -1.087513   11.73698  0.9058E-13  0.1039E-04  0.4767E-07  0.5960E-03  0.3692E-02  0.1029E+02
   -1.125014   11.73751  0.9058E-13  0.9683E-05  0.4328E-07  0.5872E-03  0.3379E-02  0.9086E+01
   -1.162514   11.73803  0.9058E-13  0.8975E-05  0.3943E-07  0.5683E-03  0.3095E-02  0.5195E+01
   -1.200015   11.73856  0.9058E-13  0.8268E-05  0.3614E-07  0.5376E-03  0.2837E-02  0.7688E+01
   -1.237514   11.73911  0.9058E-13  0.7572E-05  0.3345E-07  0.4977E-03  0.2608E-02  0.2988E+01
   -1.275014   11.73970  0.9058E-13  0.6898E-05  0.3144E-07  0.4499E-03  0.2407E-02  0.5543E+01
   -1.312514   11.74034  0.9058E-13  0.6261E-05  0.3026E-07  0.3896E-03  0.2237E-02  0.3442E+01
   -1.350013   11.74107  0.9058E-13  0.5671E-05  0.3013E-07  0.3202E-03  0.2097E-02  0.1341E+02
   -1.387512   11.74195  0.9058E-13  0.5079E-05  0.3157E-07  0.2474E-03  0.1988E-02  0.1509E+02
   -1.425010   11.74305  0.9058E-13  0.4337E-05  0.3691E-07  0.1481E-03  0.1898E-02  0.1392E+03
   -1.462508   11.74483  0.9058E-13  0.2358E-05  0.7528E-07  0.1265E-04  0.1810E-02 -0.4672E+04
   -1.500006   11.76505  0.9058E-13  0.0000E+00  0.0000E+00  0.0000E+00  0.1743E-02  0.0000E+00
