 1 - depth, m
 2 - temperature, C
 3 - salinity, kg/kg
 4 - turbulent kinetic energy, m**2/s**2
 5 - dissipation rate, m**2/s**3
 6 - kinematic heat conductance, m**2/s
 7 - modulus of horizontal velocity, m/s
 8 - Richardson number, n/d
   -0.000000   -0.00000  0.7246E-12  0.4096E-13  0.8590E-16  0.1000E-09  0.0000E+00  0.1118E+17
   -0.037498    0.17159  0.4860E-12  0.4096E-13  0.8590E-16  0.1000E-09  0.0000E+00  0.1061E+17
   -0.074996    0.34256  0.2971E-12  0.4096E-13  0.8590E-16  0.1000E-09  0.0000E+00  0.1005E+17
   -0.112494    0.51271  0.1987E-12  0.4096E-13  0.8590E-16  0.1000E-09  0.0000E+00  0.9490E+16
   -0.149993    0.68188  0.1502E-12  0.4096E-13  0.8590E-16  0.1000E-09  0.0000E+00  0.8931E+16
   -0.187492    0.84988  0.1243E-12  0.4096E-13  0.8590E-16  0.1000E-09  0.0000E+00  0.8376E+16
   -0.224991    1.01654  0.1093E-12  0.4096E-13  0.8590E-16  0.1000E-09  0.0000E+00  0.7828E+16
   -0.262490    1.18171  0.1004E-12  0.4096E-13  0.8590E-16  0.1000E-09  0.0000E+00  0.7290E+16
   -0.299990    1.34526  0.9529E-13  0.4096E-13  0.8590E-16  0.1000E-09  0.0000E+00  0.6762E+16
   -0.337490    1.50705  0.9238E-13  0.1754E-12  0.8590E-16  0.1000E-09  0.0000E+00  0.6246E+16
   -0.374990    1.66694  0.9067E-13  0.4767E-12  0.1194E-15  0.1000E-09  0.0000E+00  0.5755E+16
   -0.412491    1.82514  0.8953E-13  0.1013E-11  0.2074E-15  0.1000E-09  0.0000E+00  0.5283E+16
   -0.449991    1.98172  0.8862E-13  0.1959E-11  0.3732E-15  0.1000E-09  0.0000E+00  0.4822E+16
   -0.487492    2.13658  0.8776E-13  0.3642E-11  0.6703E-15  0.1000E-09  0.0000E+00  0.4373E+16
   -0.524993    2.28959  0.8691E-13  0.6627E-11  0.1192E-14  0.1000E-09  0.0000E+00  0.3938E+16
   -0.562494    2.44068  0.8606E-13  0.1192E-10  0.2100E-14  0.1000E-09  0.0000E+00  0.3516E+16
   -0.599995    2.58973  0.8527E-13  0.2127E-10  0.3679E-14  0.1000E-09  0.0000E+00  0.3109E+16
   -0.637496    2.73660  0.8459E-13  0.3774E-10  0.6411E-14  0.1000E-09  0.0000E+00  0.2716E+16
   -0.674997    2.88112  0.8403E-13  0.6663E-10  0.1112E-13  0.1000E-09  0.0000E+00  0.2338E+16
   -0.712498    3.02307  0.8363E-13  0.1170E-09  0.1918E-13  0.1000E-09  0.0000E+00  0.1975E+16
   -0.750000    3.16219  0.8336E-13  0.2046E-09  0.3294E-13  0.1000E-09  0.0000E+00  0.1636E+16
   -0.787501    3.29868  0.8321E-13  0.3561E-09  0.5632E-13  0.1191E-09  0.0000E+00  0.1313E+16
   -0.825002    3.43243  0.8313E-13  0.6166E-09  0.9583E-13  0.2638E-09  0.0000E+00  0.1008E+16
   -0.862503    3.56313  0.8309E-13  0.1063E-08  0.1623E-12  0.6234E-09  0.0000E+00  0.7224E+15
   -0.900004    3.69068  0.8308E-13  0.1822E-08  0.2736E-12  0.1662E-08  0.0000E+00  0.4565E+15
   -0.937505    3.81501  0.8307E-13  0.3102E-08  0.4580E-12  0.6069E-08  0.0000E+00  0.2091E+15
   -0.975006    3.93438  0.8307E-13  0.5046E-08  0.7364E-12  0.1095E-06  0.0000E+00  0.1856E+14
   -1.012507    4.00467  0.8307E-13  0.5840E-08  0.8574E-12  0.1527E-04  0.0000E+00 -0.3390E+12
   -1.050008    4.00582  0.8307E-13  0.6215E-08  0.9271E-12  0.1583E-04  0.0000E+00 -0.3484E+12
   -1.087508    4.00692  0.8307E-13  0.6526E-08  0.9998E-12  0.1600E-04  0.0000E+00 -0.3656E+12
   -1.125009    4.00803  0.8307E-13  0.6776E-08  0.1078E-11  0.1585E-04  0.0000E+00 -0.3924E+12
   -1.162509    4.00915  0.8307E-13  0.6965E-08  0.1164E-11  0.1535E-04  0.0000E+00 -0.4309E+12
   -1.200009    4.01033  0.8307E-13  0.7089E-08  0.1262E-11  0.1448E-04  0.0000E+00 -0.4859E+12
   -1.237509    4.01158  0.8307E-13  0.7140E-08  0.1377E-11  0.1325E-04  0.0000E+00 -0.5663E+12
   -1.275008    4.01298  0.8307E-13  0.7103E-08  0.1520E-11  0.1163E-04  0.0000E+00 -0.6902E+12
   -1.312507    4.01458  0.8307E-13  0.6951E-08  0.1709E-11  0.9641E-05  0.0000E+00 -0.8971E+12
   -1.350006    4.01654  0.8307E-13  0.6637E-08  0.1980E-11  0.7286E-05  0.0000E+00 -0.1293E+13
   -1.387505    4.01916  0.8307E-13  0.6062E-08  0.2432E-11  0.4651E-05  0.0000E+00 -0.2253E+13
   -1.425003    4.02328  0.8307E-13  0.5003E-08  0.3404E-11  0.2033E-05  0.0000E+00 -0.6015E+13
   -1.462501    4.03251  0.8307E-13  0.3120E-08  0.6668E-11  0.3192E-06  0.0000E+00 -0.4752E+14
   -1.499999    4.07690  0.8307E-13  0.0000E+00  0.0000E+00  0.0000E+00  0.0000E+00  0.0000E+00
