 1 - depth, m
 2 - temperature, C
 3 - salinity, kg/kg
 4 - turbulent kinetic energy, m**2/s**2
 5 - dissipation rate, m**2/s**3
 6 - kinematic heat conductance, m**2/s
 7 - modulus of horizontal velocity, m/s
 8 - Richardson number, n/d
   -0.000000   -0.00000  0.2632E-12  0.1133E-11  0.3631E-15  0.1000E-09  0.0000E+00  0.1490E+17
   -0.037498    0.23070  0.2582E-12  0.1821E-11  0.3979E-15  0.1000E-09  0.0000E+00  0.1388E+17
   -0.074996    0.46008  0.2233E-12  0.3278E-11  0.5871E-15  0.1000E-09  0.0000E+00  0.1287E+17
   -0.112494    0.68789  0.1756E-12  0.5881E-11  0.9666E-15  0.1000E-09  0.0000E+00  0.1188E+17
   -0.149993    0.91387  0.1379E-12  0.1038E-10  0.1636E-14  0.1000E-09  0.0000E+00  0.1090E+17
   -0.187492    1.13780  0.1147E-12  0.1809E-10  0.2777E-14  0.1000E-09  0.0000E+00  0.9936E+16
   -0.224991    1.35944  0.1026E-12  0.3125E-10  0.4700E-14  0.1000E-09  0.0000E+00  0.9000E+16
   -0.262491    1.57860  0.9695E-13  0.5364E-10  0.7918E-14  0.1000E-09  0.0000E+00  0.8099E+16
   -0.299991    1.79527  0.9451E-13  0.9150E-10  0.1327E-13  0.1000E-09  0.0000E+00  0.7226E+16
   -0.337491    2.00932  0.9345E-13  0.1553E-09  0.2213E-13  0.1000E-09  0.0000E+00  0.6381E+16
   -0.374991    2.22057  0.9286E-13  0.2625E-09  0.3676E-13  0.1000E-09  0.0000E+00  0.5596E+16
   -0.412491    2.42999  0.9234E-13  0.4418E-09  0.6082E-13  0.1000E-09  0.0000E+00  0.4847E+16
   -0.449992    2.63817  0.9163E-13  0.7405E-09  0.1002E-12  0.1000E-09  0.0000E+00  0.4115E+16
   -0.487492    2.84505  0.9060E-13  0.1236E-08  0.1645E-12  0.1344E-09  0.0000E+00  0.3398E+16
   -0.524993    3.05049  0.8923E-13  0.2049E-08  0.2682E-12  0.2760E-09  0.0000E+00  0.2698E+16
   -0.562494    3.25430  0.8783E-13  0.3376E-08  0.4347E-12  0.5986E-09  0.0000E+00  0.2016E+16
   -0.599995    3.45620  0.8673E-13  0.5533E-08  0.7008E-12  0.1438E-08  0.0000E+00  0.1353E+16
   -0.637497    3.65549  0.8612E-13  0.9015E-08  0.1124E-11  0.4376E-08  0.0000E+00  0.7131E+15
   -0.674998    3.84940  0.8588E-13  0.1443E-07  0.1774E-11  0.3448E-07  0.0000E+00  0.1431E+15
   -0.712499    4.00898  0.8585E-13  0.1504E-07  0.1853E-11  0.4690E-04  0.0000E+00 -0.2137E+12
   -0.750000    4.00958  0.8585E-13  0.1532E-07  0.1896E-11  0.4606E-04  0.0000E+00 -0.2231E+12
   -0.787502    4.01018  0.8585E-13  0.1558E-07  0.1942E-11  0.4633E-04  0.0000E+00 -0.2278E+12
   -0.825003    4.01078  0.8585E-13  0.1581E-07  0.1992E-11  0.4647E-04  0.0000E+00 -0.2332E+12
   -0.862504    4.01138  0.8585E-13  0.1600E-07  0.2045E-11  0.4640E-04  0.0000E+00 -0.2396E+12
   -0.900005    4.01199  0.8585E-13  0.1616E-07  0.2101E-11  0.4612E-04  0.0000E+00 -0.2473E+12
   -0.937506    4.01259  0.8585E-13  0.1630E-07  0.2162E-11  0.4562E-04  0.0000E+00 -0.2563E+12
   -0.975007    4.01321  0.8585E-13  0.1640E-07  0.2228E-11  0.4491E-04  0.0000E+00 -0.2670E+12
   -1.012508    4.01384  0.8585E-13  0.1646E-07  0.2300E-11  0.4398E-04  0.0000E+00 -0.2805E+12
   -1.050009    4.01448  0.8585E-13  0.1649E-07  0.2380E-11  0.4280E-04  0.0000E+00 -0.2967E+12
   -1.087509    4.01514  0.8585E-13  0.1648E-07  0.2470E-11  0.4137E-04  0.0000E+00 -0.3163E+12
   -1.125010    4.01584  0.8585E-13  0.1643E-07  0.2572E-11  0.3966E-04  0.0000E+00 -0.3394E+12
   -1.162510    4.01656  0.8585E-13  0.1632E-07  0.2688E-11  0.3765E-04  0.0000E+00 -0.3680E+12
   -1.200010    4.01733  0.8585E-13  0.1616E-07  0.2824E-11  0.3535E-04  0.0000E+00 -0.4040E+12
   -1.237510    4.01815  0.8585E-13  0.1591E-07  0.2995E-11  0.3268E-04  0.0000E+00 -0.4509E+12
   -1.275009    4.01904  0.8585E-13  0.1552E-07  0.3236E-11  0.2674E-04  0.0000E+00 -0.5708E+12
   -1.312509    4.02014  0.8585E-13  0.1493E-07  0.3593E-11  0.1983E-04  0.0000E+00 -0.8028E+12
   -1.350008    4.02162  0.8585E-13  0.1406E-07  0.4130E-11  0.1425E-04  0.0000E+00 -0.1179E+13
   -1.387506    4.02369  0.8585E-13  0.1275E-07  0.5044E-11  0.8901E-05  0.0000E+00 -0.2032E+13
   -1.425005    4.02702  0.8585E-13  0.1055E-07  0.7061E-11  0.3867E-05  0.0000E+00 -0.5265E+13
   -1.462503    4.03458  0.8585E-13  0.6213E-08  0.1484E-10  0.5163E-06  0.0000E+00 -0.5209E+14
   -1.500001    4.08111  0.8585E-13  0.0000E+00  0.0000E+00  0.0000E+00  0.0000E+00  0.0000E+00
