 1 - depth, m
 2 - temperature, C
 3 - salinity, kg/kg
 4 - turbulent kinetic energy, m**2/s**2
 5 - dissipation rate, m**2/s**3
 6 - kinematic heat conductance, m**2/s
 7 - modulus of horizontal velocity, m/s
 8 - Richardson number, n/d
   -0.000000   15.94277  0.9239E-13  0.1715E-04  0.1275E-05  0.2271E-04  0.2338E-01 -0.2065E-01
   -0.037498   15.96963  0.9239E-13  0.1397E-04  0.4773E-06  0.4393E-04  0.1405E-01 -0.5547E-01
   -0.074996   15.98191  0.9239E-13  0.1201E-04  0.2571E-06  0.6437E-04  0.1030E-01 -0.9924E-01
   -0.112494   15.98999  0.9239E-13  0.1062E-04  0.1607E-06  0.8825E-04  0.8030E-02 -0.1429E+00
   -0.149993   15.99569  0.9239E-13  0.9629E-05  0.1104E-06  0.1437E-03  0.6509E-02  0.1335E+03
   -0.187492   15.99944  0.9239E-13  0.8962E-05  0.8212E-07  0.2383E-03  0.5481E-02  0.1289E+03
   -0.224992   16.00167  0.9239E-13  0.8549E-05  0.6535E-07  0.3467E-03  0.4768E-02  0.2027E+03
   -0.262491   16.00300  0.9239E-13  0.8293E-05  0.5399E-07  0.3804E-03  0.4237E-02  0.3733E+01
   -0.299991   16.00418  0.9239E-13  0.8117E-05  0.4543E-07  0.4043E-03  0.3760E-02  0.3564E+01
   -0.337491   16.00526  0.9239E-13  0.8001E-05  0.3893E-07  0.4288E-03  0.3346E-02  0.3253E+01
   -0.374992   16.00626  0.9239E-13  0.7929E-05  0.3389E-07  0.4564E-03  0.2983E-02  0.2957E+01
   -0.412492   16.00719  0.9239E-13  0.7889E-05  0.2991E-07  0.4874E-03  0.2667E-02  0.2671E+01
   -0.449993   16.00804  0.9239E-13  0.7871E-05  0.2674E-07  0.5223E-03  0.2392E-02  0.2397E+01
   -0.487494   16.00883  0.9239E-13  0.7869E-05  0.2421E-07  0.5593E-03  0.2154E-02  0.2197E+01
   -0.524995   16.00956  0.9239E-13  0.7876E-05  0.2215E-07  0.5834E-03  0.1948E-02  0.2296E+01
   -0.562496   16.01026  0.9239E-13  0.7882E-05  0.2046E-07  0.6170E-03  0.1752E-02  0.2420E+01
   -0.599997   16.01093  0.9239E-13  0.7877E-05  0.1895E-07  0.6297E-03  0.1571E-02  0.2477E+01
   -0.637498   16.01159  0.9239E-13  0.7862E-05  0.1828E-07  0.1031E-02  0.1378E-02  0.1683E+01
   -0.674999   16.01200  0.9239E-13  0.7850E-05  0.1794E-07  0.1078E-02  0.1320E-02  0.1862E+01
   -0.712501   16.01239  0.9239E-13  0.7829E-05  0.1757E-07  0.6506E-03  0.1270E-02  0.1957E+01
   -0.750002   16.01306  0.9239E-13  0.7794E-05  0.1728E-07  0.1086E-02  0.1109E-02  0.1601E+01
   -0.787503   16.01346  0.9239E-13  0.7767E-05  0.1717E-07  0.1082E-02  0.1066E-02  0.1693E+01
   -0.825005   16.01387  0.9239E-13  0.7720E-05  0.1708E-07  0.7155E-03  0.1028E-02  0.1786E+01
   -0.862506   16.01450  0.9239E-13  0.7602E-05  0.1705E-07  0.7535E-03  0.9146E-03  0.1837E+01
   -0.900007   16.01511  0.9239E-13  0.7468E-05  0.1715E-07  0.7605E-03  0.8200E-03  0.1747E+01
   -0.937508   16.01573  0.9239E-13  0.7317E-05  0.1737E-07  0.7758E-03  0.7334E-03  0.1681E+01
   -0.975010   16.01635  0.9239E-13  0.7153E-05  0.1769E-07  0.7665E-03  0.6554E-03  0.1553E+01
   -1.012510   16.01698  0.9239E-13  0.7051E-05  0.1794E-07  0.9135E-03  0.5835E-03  0.1185E+01
   -1.050011   16.01753  0.9239E-13  0.6964E-05  0.1820E-07  0.7306E-03  0.5590E-03  0.3823E+01
   -1.087512   16.01821  0.9239E-13  0.6841E-05  0.1861E-07  0.7635E-03  0.5323E-03  0.1293E+01
   -1.125012   16.01888  0.9239E-13  0.6674E-05  0.1924E-07  0.6645E-03  0.4934E-03  0.1156E+01
   -1.162513   16.01967  0.9239E-13  0.6517E-05  0.1990E-07  0.6257E-03  0.4632E-03  0.1122E+01
   -1.200013   16.02051  0.9239E-13  0.6349E-05  0.2068E-07  0.5866E-03  0.4393E-03  0.1533E+01
   -1.237513   16.02143  0.9239E-13  0.6151E-05  0.2172E-07  0.5287E-03  0.4173E-03  0.2415E+01
   -1.275012   16.02247  0.9239E-13  0.5915E-05  0.2315E-07  0.4605E-03  0.3963E-03  0.4243E+01
   -1.312512   16.02369  0.9239E-13  0.5626E-05  0.2517E-07  0.3897E-03  0.3760E-03  0.8572E+01
   -1.350011   16.02517  0.9239E-13  0.5265E-05  0.2826E-07  0.2981E-03  0.3568E-03  0.2228E+02
   -1.387510   16.02713  0.9239E-13  0.4799E-05  0.3348E-07  0.2493E-03  0.3380E-03  0.7611E+02
   -1.425008   16.02956  0.9239E-13  0.4069E-05  0.4736E-07  0.1210E-03  0.3225E-03  0.2835E+05
   -1.462506   16.03680  0.9239E-13  0.2367E-05  0.1059E-06  0.2886E-04  0.3026E-03 -0.6497E+05
   -1.500004   16.06085  0.9239E-13  0.0000E+00  0.0000E+00  0.0000E+00  0.3049E-03  0.0000E+00
