 1 - depth, m
 2 - temperature, C
 3 - salinity, kg/kg
 4 - turbulent kinetic energy, m**2/s**2
 5 - dissipation rate, m**2/s**3
 6 - kinematic heat conductance, m**2/s
 7 - modulus of horizontal velocity, m/s
 8 - Richardson number, n/d
   -0.000000   -0.00000  0.2031E-11  0.4096E-13  0.8590E-16  0.1000E-09  0.0000E+00  0.1468E+17
   -0.037498    0.22707  0.6670E-13  0.4096E-13  0.8590E-16  0.1000E-09  0.0000E+00  0.1317E+17
   -0.074996    0.44406  0.1328E-12  0.4096E-13  0.8590E-16  0.1000E-09  0.0000E+00  0.1153E+17
   -0.112494    0.64634  0.9452E-13  0.4096E-13  0.8590E-16  0.1000E-09  0.0000E+00  0.9886E+16
   -0.149993    0.83071  0.1039E-12  0.4096E-13  0.8590E-16  0.1000E-09  0.0000E+00  0.8331E+16
   -0.187492    0.99536  0.1017E-12  0.4096E-13  0.8590E-16  0.1000E-09  0.0000E+00  0.6921E+16
   -0.224991    1.13972  0.1020E-12  0.4096E-13  0.8590E-16  0.1000E-09  0.0000E+00  0.5684E+16
   -0.262491    1.26424  0.1019E-12  0.4096E-13  0.8590E-16  0.1000E-09  0.0000E+00  0.4650E+16
   -0.299991    1.37072  0.1019E-12  0.4096E-13  0.8590E-16  0.1000E-09  0.0000E+00  0.3796E+16
   -0.337491    1.46110  0.1018E-12  0.4096E-13  0.8590E-16  0.1000E-09  0.0000E+00  0.3103E+16
   -0.374991    1.53758  0.1018E-12  0.7586E-13  0.8590E-16  0.1000E-09  0.0000E+00  0.2698E+16
   -0.412491    1.60617  0.1018E-12  0.1683E-12  0.1006E-15  0.1000E-09  0.0000E+00  0.2509E+16
   -0.449992    1.67188  0.1018E-12  0.3684E-12  0.1397E-15  0.1000E-09  0.0000E+00  0.2443E+16
   -0.487493    1.73780  0.1016E-12  0.7850E-12  0.2249E-15  0.1000E-09  0.0000E+00  0.2490E+16
   -0.524993    1.80716  0.1012E-12  0.1608E-11  0.4013E-15  0.1000E-09  0.0000E+00  0.2631E+16
   -0.562494    1.88303  0.1003E-12  0.3148E-11  0.7460E-15  0.1000E-09  0.0000E+00  0.2851E+16
   -0.599996    1.96860  0.9881E-13  0.6011E-11  0.1381E-14  0.1000E-09  0.0000E+00  0.3123E+16
   -0.637497    2.06686  0.9713E-13  0.1131E-10  0.2532E-14  0.1000E-09  0.0000E+00  0.3410E+16
   -0.674998    2.18041  0.9578E-13  0.2103E-10  0.4596E-14  0.1000E-09  0.0000E+00  0.3668E+16
   -0.712499    2.31130  0.9501E-13  0.3873E-10  0.8263E-14  0.1000E-09  0.0000E+00  0.3843E+16
   -0.750000    2.46070  0.9450E-13  0.7065E-10  0.1472E-13  0.1000E-09  0.0000E+00  0.3927E+16
   -0.787502    2.63059  0.9397E-13  0.1277E-09  0.2598E-13  0.1000E-09  0.0000E+00  0.3821E+16
   -0.825003    2.81981  0.9356E-13  0.2287E-09  0.4545E-13  0.1015E-09  0.0000E+00  0.3473E+16
   -0.862504    3.02431  0.9340E-13  0.4058E-09  0.7883E-13  0.1176E-09  0.0000E+00  0.2895E+16
   -0.900005    3.23744  0.9335E-13  0.7139E-09  0.1356E-12  0.1702E-09  0.0000E+00  0.2150E+16
   -0.937506    3.45005  0.9323E-13  0.1245E-08  0.2312E-12  0.4661E-09  0.0000E+00  0.1354E+16
   -0.975007    3.65086  0.9306E-13  0.2148E-08  0.3906E-12  0.2261E-08  0.0000E+00  0.6551E+15
   -1.012508    3.82651  0.9303E-13  0.3129E-08  0.5675E-12  0.1781E-05  0.0000E+00  0.2303E+15
   -1.050009    3.93838  0.9303E-13  0.4326E-08  0.7931E-12  0.3377E-05  0.0000E+00  0.3886E+14
   -1.087510    3.99632  0.9303E-13  0.5165E-08  0.9708E-12  0.8009E-05  0.0000E+00 -0.4727E+12
   -1.125010    3.99910  0.9303E-13  0.5707E-08  0.1120E-11  0.8997E-05  0.0000E+00 -0.5404E+12
   -1.162510    4.00162  0.9303E-13  0.6187E-08  0.1290E-11  0.9504E-05  0.0000E+00 -0.6255E+12
   -1.200010    4.00407  0.9303E-13  0.6606E-08  0.1487E-11  0.9594E-05  0.0000E+00 -0.7413E+12
   -1.237510    4.00659  0.9303E-13  0.6956E-08  0.1724E-11  0.9287E-05  0.0000E+00 -0.9073E+12
   -1.275010    4.00929  0.9303E-13  0.7221E-08  0.2019E-11  0.8584E-05  0.0000E+00 -0.1160E+13
   -1.312509    4.01233  0.9303E-13  0.7371E-08  0.2407E-11  0.7474E-05  0.0000E+00 -0.1582E+13
   -1.350008    4.01597  0.9303E-13  0.7353E-08  0.2960E-11  0.5958E-05  0.0000E+00 -0.2385E+13
   -1.387507    4.02073  0.9303E-13  0.7060E-08  0.3859E-11  0.4072E-05  0.0000E+00 -0.4311E+13
   -1.425005    4.02797  0.9303E-13  0.6254E-08  0.5709E-11  0.2011E-05  0.0000E+00 -0.1146E+14
   -1.462503    4.04286  0.9303E-13  0.4532E-08  0.1159E-10  0.4392E-06  0.0000E+00 -0.7758E+14
   -1.500001    4.10082  0.9303E-13  0.0000E+00  0.0000E+00  0.0000E+00  0.0000E+00  0.0000E+00
