 1 - depth, m
 2 - temperature, C
 3 - salinity, kg/kg
 4 - turbulent kinetic energy, m**2/s**2
 5 - dissipation rate, m**2/s**3
 6 - kinematic heat conductance, m**2/s
 7 - modulus of horizontal velocity, m/s
 8 - Richardson number, n/d
   -0.000000   -0.00000  0.6666E-12  0.4096E-13  0.8590E-16  0.1000E-09  0.0000E+00  0.1191E+17
   -0.037498    0.18318  0.4463E-12  0.4096E-13  0.8590E-16  0.1000E-09  0.0000E+00  0.1124E+17
   -0.074995    0.36511  0.2810E-12  0.4096E-13  0.8590E-16  0.1000E-09  0.0000E+00  0.1058E+17
   -0.112494    0.54573  0.1794E-12  0.4096E-13  0.8590E-16  0.1000E-09  0.0000E+00  0.9935E+16
   -0.149992    0.72495  0.1295E-12  0.4096E-13  0.8590E-16  0.1000E-09  0.0000E+00  0.9299E+16
   -0.187491    0.90267  0.1081E-12  0.5703E-13  0.8590E-16  0.1000E-09  0.0000E+00  0.8674E+16
   -0.224990    1.07875  0.9902E-13  0.2369E-12  0.8590E-16  0.1000E-09  0.0000E+00  0.8061E+16
   -0.262490    1.25306  0.9476E-13  0.5833E-12  0.1219E-15  0.1000E-09  0.0000E+00  0.7463E+16
   -0.299989    1.42550  0.9241E-13  0.1167E-11  0.2037E-15  0.1000E-09  0.0000E+00  0.6879E+16
   -0.337489    1.59594  0.9086E-13  0.2148E-11  0.3499E-15  0.1000E-09  0.0000E+00  0.6310E+16
   -0.374989    1.76423  0.8970E-13  0.3812E-11  0.5996E-15  0.1000E-09  0.0000E+00  0.5763E+16
   -0.412490    1.93043  0.8875E-13  0.6647E-11  0.1021E-14  0.1000E-09  0.0000E+00  0.5237E+16
   -0.449990    2.09451  0.8795E-13  0.1148E-10  0.1728E-14  0.1000E-09  0.0000E+00  0.4726E+16
   -0.487491    2.25636  0.8730E-13  0.1968E-10  0.2910E-14  0.1000E-09  0.0000E+00  0.4233E+16
   -0.524991    2.41586  0.8679E-13  0.3348E-10  0.4863E-14  0.1000E-09  0.0000E+00  0.3763E+16
   -0.562492    2.57308  0.8642E-13  0.5657E-10  0.8072E-14  0.1000E-09  0.0000E+00  0.3311E+16
   -0.599993    2.72795  0.8618E-13  0.9506E-10  0.1333E-13  0.1000E-09  0.0000E+00  0.2877E+16
   -0.637494    2.88041  0.8603E-13  0.1590E-09  0.2192E-13  0.1000E-09  0.0000E+00  0.2462E+16
   -0.674995    3.03039  0.8595E-13  0.2648E-09  0.3588E-13  0.1000E-09  0.0000E+00  0.2067E+16
   -0.712496    3.17784  0.8591E-13  0.4390E-09  0.5849E-13  0.1008E-09  0.0000E+00  0.1690E+16
   -0.749997    3.32273  0.8589E-13  0.7249E-09  0.9496E-13  0.1972E-09  0.0000E+00  0.1337E+16
   -0.787498    3.46553  0.8589E-13  0.1192E-08  0.1535E-12  0.4262E-09  0.0000E+00  0.1000E+16
   -0.824999    3.60628  0.8588E-13  0.1951E-08  0.2472E-12  0.1014E-08  0.0000E+00  0.6772E+15
   -0.862501    3.74465  0.8588E-13  0.3177E-08  0.3961E-12  0.2983E-08  0.0000E+00  0.3689E+15
   -0.900001    3.87939  0.8588E-13  0.5113E-08  0.6279E-12  0.1976E-07  0.0000E+00  0.8849E+14
   -0.937502    3.99860  0.8588E-13  0.5766E-08  0.7113E-12  0.1655E-04  0.0000E+00 -0.2295E+12
   -0.975003    3.99974  0.8588E-13  0.6076E-08  0.7591E-12  0.1749E-04  0.0000E+00 -0.2359E+12
   -1.012504    4.00083  0.8588E-13  0.6341E-08  0.8090E-12  0.1806E-04  0.0000E+00 -0.2461E+12
   -1.050005    4.00187  0.8588E-13  0.6567E-08  0.8626E-12  0.1823E-04  0.0000E+00 -0.2610E+12
   -1.087505    4.00291  0.8588E-13  0.6753E-08  0.9211E-12  0.1803E-04  0.0000E+00 -0.2815E+12
   -1.125005    4.00396  0.8588E-13  0.6900E-08  0.9863E-12  0.1749E-04  0.0000E+00 -0.3093E+12
   -1.162505    4.00505  0.8588E-13  0.7002E-08  0.1061E-11  0.1659E-04  0.0000E+00 -0.3473E+12
   -1.200005    4.00620  0.8588E-13  0.7054E-08  0.1147E-11  0.1537E-04  0.0000E+00 -0.3998E+12
   -1.237505    4.00745  0.8588E-13  0.7045E-08  0.1252E-11  0.1384E-04  0.0000E+00 -0.4746E+12
   -1.275004    4.00883  0.8588E-13  0.6959E-08  0.1384E-11  0.1198E-04  0.0000E+00 -0.5884E+12
   -1.312503    4.01045  0.8588E-13  0.6770E-08  0.1560E-11  0.9793E-05  0.0000E+00 -0.7787E+12
   -1.350002    4.01243  0.8588E-13  0.6430E-08  0.1817E-11  0.7294E-05  0.0000E+00 -0.1145E+13
   -1.387501    4.01509  0.8588E-13  0.5844E-08  0.2249E-11  0.4583E-05  0.0000E+00 -0.2046E+13
   -1.424999    4.01932  0.8588E-13  0.4798E-08  0.3184E-11  0.1968E-05  0.0000E+00 -0.5658E+13
   -1.462497    4.02888  0.8588E-13  0.2989E-08  0.6306E-11  0.3092E-06  0.0000E+00 -0.4618E+14
   -1.499994    4.07413  0.8588E-13  0.0000E+00  0.0000E+00  0.0000E+00  0.0000E+00  0.0000E+00
