 1 - depth, m
 2 - temperature, C
 3 - salinity, kg/kg
 4 - turbulent kinetic energy, m**2/s**2
 5 - dissipation rate, m**2/s**3
 6 - kinematic heat conductance, m**2/s
 7 - modulus of horizontal velocity, m/s
 8 - Richardson number, n/d
   -0.000000    7.65146  0.9915E-13  0.1589E-03  0.9948E-04  0.5238E-04  0.1236E+00 -0.4087E-01
   -0.037498    7.68562  0.9915E-13  0.8986E-04  0.2730E-04  0.9453E-04  0.4237E-01 -0.5081E-01
   -0.074996    7.69158  0.9915E-13  0.6436E-04  0.1100E-04  0.1002E-03  0.3050E-01 -0.1654E-01
   -0.112494    7.69596  0.9915E-13  0.5060E-04  0.5799E-05  0.1052E-03  0.2524E-01 -0.5885E-01
   -0.149993    7.69945  0.9915E-13  0.4095E-04  0.3213E-05  0.1110E-03  0.2153E-01 -0.1408E-01
   -0.187492    7.70247  0.9915E-13  0.3375E-04  0.1833E-05  0.1170E-03  0.1859E-01 -0.1830E-01
   -0.224991    7.70521  0.9915E-13  0.2830E-04  0.1100E-05  0.1232E-03  0.1617E-01 -0.2132E-01
   -0.262490    7.70773  0.9915E-13  0.2412E-04  0.6973E-06  0.1284E-03  0.1419E-01 -0.2711E-01
   -0.299990    7.71009  0.9915E-13  0.2083E-04  0.4664E-06  0.1336E-03  0.1250E-01 -0.3450E-01
   -0.337490    7.71229  0.9915E-13  0.1816E-04  0.3270E-06  0.1391E-03  0.1105E-01  0.8891E+00
   -0.374990    7.71435  0.9915E-13  0.1596E-04  0.2379E-06  0.1450E-03  0.9812E-02  0.2692E+00
   -0.412491    7.71629  0.9915E-13  0.1412E-04  0.1780E-06  0.1518E-03  0.8758E-02 -0.8273E-01
   -0.449991    7.71809  0.9915E-13  0.1260E-04  0.1362E-06  0.1625E-03  0.7868E-02  0.2067E+00
   -0.487492    7.71973  0.9915E-13  0.1135E-04  0.1065E-06  0.1889E-03  0.7125E-02  0.3109E+02
   -0.524993    7.72115  0.9915E-13  0.1034E-04  0.8511E-07  0.2135E-03  0.6507E-02  0.4285E+03
   -0.562494    7.72241  0.9915E-13  0.9505E-05  0.6924E-07  0.2366E-03  0.5944E-02  0.1622E+03
   -0.599995    7.72355  0.9915E-13  0.8795E-05  0.5718E-07  0.2548E-03  0.5431E-02  0.7557E+02
   -0.637496    7.72460  0.9915E-13  0.8182E-05  0.4783E-07  0.2689E-03  0.4963E-02  0.6803E+01
   -0.674997    7.72558  0.9915E-13  0.7644E-05  0.4046E-07  0.2822E-03  0.4535E-02  0.4481E+02
   -0.712498    7.72649  0.9915E-13  0.7168E-05  0.3459E-07  0.3026E-03  0.4143E-02  0.8271E+02
   -0.749999    7.72734  0.9915E-13  0.6741E-05  0.2984E-07  0.3194E-03  0.3784E-02  0.4380E+01
   -0.787501    7.72814  0.9915E-13  0.6355E-05  0.2595E-07  0.3325E-03  0.3452E-02  0.7852E+01
   -0.825002    7.72890  0.9915E-13  0.6000E-05  0.2274E-07  0.3448E-03  0.3145E-02  0.1350E+02
   -0.862503    7.72963  0.9915E-13  0.5670E-05  0.2006E-07  0.3552E-03  0.2858E-02  0.5788E+01
   -0.900004    7.73032  0.9915E-13  0.5360E-05  0.1779E-07  0.3642E-03  0.2589E-02  0.6564E+01
   -0.937505    7.73099  0.9915E-13  0.5064E-05  0.1587E-07  0.3750E-03  0.2336E-02  0.1869E+03
   -0.975006    7.73164  0.9915E-13  0.4777E-05  0.1421E-07  0.3848E-03  0.2095E-02  0.1296E+02
   -1.012507    7.73226  0.9915E-13  0.4494E-05  0.1276E-07  0.4029E-03  0.1864E-02  0.8786E+02
   -1.050008    7.73286  0.9915E-13  0.4215E-05  0.1151E-07  0.4130E-03  0.1656E-02  0.4962E+01
   -1.087508    7.73343  0.9915E-13  0.3942E-05  0.1043E-07  0.4192E-03  0.1471E-02  0.5133E+01
   -1.125009    7.73399  0.9915E-13  0.3677E-05  0.9511E-08  0.4153E-03  0.1307E-02  0.1013E+02
   -1.162509    7.73455  0.9915E-13  0.3421E-05  0.8755E-08  0.4026E-03  0.1162E-02  0.5351E+01
   -1.200009    7.73514  0.9915E-13  0.3177E-05  0.8157E-08  0.3821E-03  0.1037E-02  0.1627E+02
   -1.237509    7.73575  0.9915E-13  0.2949E-05  0.7721E-08  0.3543E-03  0.9292E-03  0.4201E+02
   -1.275008    7.73642  0.9915E-13  0.2738E-05  0.7460E-08  0.3191E-03  0.8400E-03  0.1611E+02
   -1.312507    7.73716  0.9915E-13  0.2547E-05  0.7392E-08  0.2803E-03  0.7678E-03  0.7210E+01
   -1.350006    7.73801  0.9915E-13  0.2365E-05  0.7546E-08  0.2395E-03  0.7114E-03  0.8644E+01
   -1.387505    7.73900  0.9915E-13  0.2168E-05  0.8037E-08  0.1936E-03  0.6664E-03  0.1271E+03
   -1.425003    7.74023  0.9915E-13  0.1893E-05  0.9476E-08  0.1076E-03  0.6271E-03  0.2154E+05
   -1.462501    7.74238  0.9915E-13  0.1049E-05  0.1984E-07  0.8503E-05  0.5864E-03 -0.1520E+05
   -1.499999    7.76920  0.9915E-13  0.0000E+00  0.0000E+00  0.0000E+00  0.5777E-03  0.0000E+00
