 1 - depth, m
 2 - temperature, C
 3 - salinity, kg/kg
 4 - turbulent kinetic energy, m**2/s**2
 5 - dissipation rate, m**2/s**3
 6 - kinematic heat conductance, m**2/s
 7 - modulus of horizontal velocity, m/s
 8 - Richardson number, n/d
   -0.000000   11.93028  0.9077E-13  0.2471E-03  0.2308E-03  0.8132E-04  0.1610E+00 -0.3399E-01
   -0.037498   11.99180  0.9078E-13  0.1329E-03  0.6337E-04  0.1279E-03  0.5062E-01 -0.4774E-01
   -0.074996   12.00306  0.9078E-13  0.9324E-04  0.2627E-04  0.1306E-03  0.3469E-01 -0.2406E-01
   -0.112495   12.01145  0.9079E-13  0.7156E-04  0.1286E-04  0.1285E-03  0.2828E-01 -0.1502E+00
   -0.149993   12.01722  0.9079E-13  0.5708E-04  0.7078E-05  0.1305E-03  0.2415E-01 -0.1155E+00
   -0.187493   12.02199  0.9079E-13  0.4635E-04  0.4065E-05  0.1353E-03  0.2093E-01  0.5712E-01
   -0.224992   12.02619  0.9079E-13  0.3834E-04  0.2430E-05  0.1420E-03  0.1826E-01 -0.4708E-01
   -0.262492   12.02993  0.9079E-13  0.3237E-04  0.1509E-05  0.1491E-03  0.1607E-01  0.5971E+00
   -0.299992   12.03326  0.9079E-13  0.2771E-04  0.9651E-06  0.1584E-03  0.1421E-01  0.2144E+03
   -0.337492   12.03627  0.9079E-13  0.2407E-04  0.6416E-06  0.1705E-03  0.1262E-01  0.1221E+02
   -0.374992   12.03900  0.9079E-13  0.2115E-04  0.4438E-06  0.1919E-03  0.1127E-01  0.6956E+02
   -0.412493   12.04140  0.9079E-13  0.1881E-04  0.3196E-06  0.2223E-03  0.1014E-01  0.1431E+03
   -0.449993   12.04352  0.9079E-13  0.1691E-04  0.2384E-06  0.2562E-03  0.9200E-02  0.3021E+02
   -0.487494   12.04535  0.9079E-13  0.1539E-04  0.1837E-06  0.2931E-03  0.8421E-02  0.3683E+02
   -0.524995   12.04695  0.9079E-13  0.1419E-04  0.1457E-06  0.3294E-03  0.7770E-02  0.5042E+02
   -0.562496   12.04837  0.9079E-13  0.1321E-04  0.1182E-06  0.3715E-03  0.7174E-02  0.1556E+02
   -0.599997   12.04962  0.9079E-13  0.1240E-04  0.9778E-07  0.4093E-03  0.6630E-02  0.2529E+02
   -0.637499   12.05073  0.9079E-13  0.1171E-04  0.8214E-07  0.4460E-03  0.6129E-02  0.7798E+02
   -0.675000   12.05171  0.9079E-13  0.1112E-04  0.6998E-07  0.4792E-03  0.5663E-02  0.1768E+03
   -0.712501   12.05259  0.9079E-13  0.1060E-04  0.6034E-07  0.5046E-03  0.5229E-02  0.4435E+02
   -0.750003   12.05339  0.9079E-13  0.1013E-04  0.5258E-07  0.5235E-03  0.4820E-02  0.1383E+02
   -0.787504   12.05413  0.9079E-13  0.9709E-05  0.4627E-07  0.5391E-03  0.4433E-02  0.1046E+02
   -0.825006   12.05483  0.9079E-13  0.9310E-05  0.4104E-07  0.5483E-03  0.4067E-02  0.2224E+02
   -0.862507   12.05550  0.9079E-13  0.8925E-05  0.3665E-07  0.5533E-03  0.3718E-02  0.2348E+02
   -0.900008   12.05614  0.9079E-13  0.8546E-05  0.3291E-07  0.5538E-03  0.3385E-02  0.1065E+02
   -0.937509   12.05678  0.9079E-13  0.8163E-05  0.2969E-07  0.5496E-03  0.3064E-02  0.8851E+01
   -0.975011   12.05741  0.9079E-13  0.7768E-05  0.2687E-07  0.5400E-03  0.2755E-02  0.1123E+02
   -1.012512   12.05805  0.9079E-13  0.7354E-05  0.2438E-07  0.5361E-03  0.2455E-02  0.7259E+01
   -1.050012   12.05868  0.9079E-13  0.6925E-05  0.2218E-07  0.5317E-03  0.2181E-02  0.4451E+01
   -1.087513   12.05931  0.9079E-13  0.6485E-05  0.2028E-07  0.5247E-03  0.1935E-02  0.3281E+01
   -1.125014   12.05994  0.9079E-13  0.6041E-05  0.1868E-07  0.5105E-03  0.1717E-02  0.2613E+01
   -1.162514   12.06059  0.9079E-13  0.5599E-05  0.1738E-07  0.4881E-03  0.1524E-02  0.2114E+01
   -1.200014   12.06125  0.9079E-13  0.5169E-05  0.1641E-07  0.4586E-03  0.1357E-02  0.1711E+01
   -1.237514   12.06195  0.9079E-13  0.4762E-05  0.1578E-07  0.4252E-03  0.1215E-02  0.1431E+01
   -1.275014   12.06270  0.9079E-13  0.4388E-05  0.1554E-07  0.3780E-03  0.1099E-02  0.1381E+01
   -1.312513   12.06354  0.9079E-13  0.4053E-05  0.1573E-07  0.3251E-03  0.1008E-02  0.1873E+01
   -1.350012   12.06450  0.9079E-13  0.3734E-05  0.1651E-07  0.2725E-03  0.9389E-03  0.2233E+02
   -1.387511   12.06565  0.9079E-13  0.3386E-05  0.1822E-07  0.2163E-03  0.8835E-03  0.2107E+02
   -1.425010   12.06711  0.9079E-13  0.2936E-05  0.2253E-07  0.1505E-03  0.8372E-03  0.1385E+03
   -1.462508   12.06953  0.9079E-13  0.1691E-05  0.4837E-07  0.1369E-04  0.7940E-03 -0.1066E+05
   -1.500006   12.09281  0.9079E-13  0.0000E+00  0.0000E+00  0.0000E+00  0.7878E-03  0.0000E+00
