 1 - depth, m
 2 - temperature, C
 3 - salinity, kg/kg
 4 - turbulent kinetic energy, m**2/s**2
 5 - dissipation rate, m**2/s**3
 6 - kinematic heat conductance, m**2/s
 7 - modulus of horizontal velocity, m/s
 8 - Richardson number, n/d
   -0.000000   -0.00000  0.8161E-12  0.4096E-13  0.8590E-16  0.1000E-09  0.0000E+00  0.9590E+16
   -0.037498    0.14674  0.5321E-12  0.4096E-13  0.8590E-16  0.1000E-09  0.0000E+00  0.9188E+16
   -0.074996    0.29317  0.3175E-12  0.4096E-13  0.8590E-16  0.1000E-09  0.0000E+00  0.8781E+16
   -0.112494    0.43913  0.2091E-12  0.4096E-13  0.8590E-16  0.1000E-09  0.0000E+00  0.8372E+16
   -0.149993    0.58449  0.1574E-12  0.4096E-13  0.8590E-16  0.1000E-09  0.0000E+00  0.7962E+16
   -0.187492    0.72910  0.1306E-12  0.4096E-13  0.8590E-16  0.1000E-09  0.0000E+00  0.7553E+16
   -0.224991    0.87283  0.1155E-12  0.4096E-13  0.8590E-16  0.1000E-09  0.0000E+00  0.7145E+16
   -0.262490    1.01554  0.1067E-12  0.4096E-13  0.8590E-16  0.1000E-09  0.0000E+00  0.6740E+16
   -0.299990    1.15710  0.1018E-12  0.4096E-13  0.8590E-16  0.1000E-09  0.0000E+00  0.6340E+16
   -0.337490    1.29738  0.9907E-13  0.4096E-13  0.8590E-16  0.1000E-09  0.0000E+00  0.5945E+16
   -0.374990    1.43627  0.9747E-13  0.4096E-13  0.8590E-16  0.1000E-09  0.0000E+00  0.5572E+16
   -0.412491    1.57400  0.9641E-13  0.4096E-13  0.8590E-16  0.1000E-09  0.0000E+00  0.5212E+16
   -0.449991    1.71069  0.9557E-13  0.4096E-13  0.8590E-16  0.1000E-09  0.0000E+00  0.4858E+16
   -0.487492    1.84625  0.9478E-13  0.4096E-13  0.8590E-16  0.1000E-09  0.0000E+00  0.4509E+16
   -0.524993    1.98056  0.9398E-13  0.4096E-13  0.8590E-16  0.1000E-09  0.0000E+00  0.4162E+16
   -0.562494    2.11336  0.9317E-13  0.4096E-13  0.8590E-16  0.1000E-09  0.0000E+00  0.3824E+16
   -0.599995    2.24456  0.9237E-13  0.1166E-12  0.8590E-16  0.1000E-09  0.0000E+00  0.3495E+16
   -0.637496    2.37410  0.9161E-13  0.3550E-12  0.1199E-15  0.1000E-09  0.0000E+00  0.3177E+16
   -0.674997    2.50190  0.9092E-13  0.8216E-12  0.2260E-15  0.1000E-09  0.0000E+00  0.2870E+16
   -0.712498    2.62789  0.9033E-13  0.1719E-11  0.4424E-15  0.1000E-09  0.0000E+00  0.2573E+16
   -0.749999    2.75200  0.8985E-13  0.3458E-11  0.8611E-15  0.1000E-09  0.0000E+00  0.2294E+16
   -0.787501    2.87452  0.8949E-13  0.6837E-11  0.1661E-14  0.1000E-09  0.0000E+00  0.2026E+16
   -0.825002    2.99551  0.8923E-13  0.1338E-10  0.3178E-14  0.1000E-09  0.0000E+00  0.1768E+16
   -0.862503    3.11494  0.8907E-13  0.2598E-10  0.6038E-14  0.1000E-09  0.0000E+00  0.1519E+16
   -0.900004    3.23278  0.8897E-13  0.5008E-10  0.1139E-13  0.1000E-09  0.0000E+00  0.1280E+16
   -0.937505    3.34903  0.8892E-13  0.9589E-10  0.2136E-13  0.1000E-09  0.0000E+00  0.1051E+16
   -0.975006    3.46368  0.8889E-13  0.1824E-09  0.3979E-13  0.1328E-09  0.0000E+00  0.8314E+15
   -1.012507    3.57671  0.8888E-13  0.3456E-09  0.7384E-13  0.3292E-09  0.0000E+00  0.6222E+15
   -1.050008    3.68835  0.8887E-13  0.6528E-09  0.1367E-12  0.9016E-09  0.0000E+00  0.4205E+15
   -1.087508    3.79842  0.8887E-13  0.1226E-08  0.2516E-12  0.3083E-08  0.0000E+00  0.2262E+15
   -1.125008    3.90579  0.8887E-13  0.2263E-08  0.4562E-12  0.2543E-07  0.0000E+00  0.4963E+14
   -1.162509    3.99910  0.8887E-13  0.3152E-08  0.6385E-12  0.5498E-05  0.0000E+00 -0.6197E+12
   -1.200009    4.00191  0.8887E-13  0.3601E-08  0.7603E-12  0.6106E-05  0.0000E+00 -0.6781E+12
   -1.237508    4.00448  0.8887E-13  0.3950E-08  0.8931E-12  0.6260E-05  0.0000E+00 -0.7782E+12
   -1.275008    4.00704  0.8887E-13  0.4202E-08  0.1047E-11  0.5998E-05  0.0000E+00 -0.9420E+12
   -1.312507    4.00976  0.8887E-13  0.4345E-08  0.1239E-11  0.5337E-05  0.0000E+00 -0.1224E+13
   -1.350006    4.01289  0.8887E-13  0.4345E-08  0.1501E-11  0.4291E-05  0.0000E+00 -0.1772E+13
   -1.387505    4.01685  0.8887E-13  0.4135E-08  0.1914E-11  0.2910E-05  0.0000E+00 -0.3103E+13
   -1.425003    4.02277  0.8887E-13  0.3566E-08  0.2741E-11  0.1386E-05  0.0000E+00 -0.8109E+13
   -1.462501    4.03494  0.8887E-13  0.2447E-08  0.5221E-11  0.2736E-06  0.0000E+00 -0.5202E+14
   -1.499999    4.08125  0.8887E-13  0.0000E+00  0.0000E+00  0.0000E+00  0.0000E+00  0.0000E+00
