 1 - depth, m
 2 - temperature, C
 3 - salinity, kg/kg
 4 - turbulent kinetic energy, m**2/s**2
 5 - dissipation rate, m**2/s**3
 6 - kinematic heat conductance, m**2/s
 7 - modulus of horizontal velocity, m/s
 8 - Richardson number, n/d
   -0.000000   -0.00000  0.4364E-12  0.4096E-13  0.8590E-16  0.1000E-09  0.0000E+00  0.1133E+17
   -0.037498    0.17399  0.4207E-12  0.4096E-13  0.8590E-16  0.1000E-09  0.0000E+00  0.1074E+17
   -0.074996    0.34712  0.3220E-12  0.4096E-13  0.8590E-16  0.1000E-09  0.0000E+00  0.1015E+17
   -0.112494    0.51925  0.2277E-12  0.4096E-13  0.8590E-16  0.1000E-09  0.0000E+00  0.9569E+16
   -0.149993    0.69021  0.1630E-12  0.4096E-13  0.8590E-16  0.1000E-09  0.0000E+00  0.8990E+16
   -0.187492    0.85984  0.1265E-12  0.4096E-13  0.8590E-16  0.1000E-09  0.0000E+00  0.8419E+16
   -0.224991    1.02797  0.1089E-12  0.1274E-12  0.8590E-16  0.1000E-09  0.0000E+00  0.7855E+16
   -0.262490    1.19444  0.1016E-12  0.3792E-12  0.1027E-15  0.1000E-09  0.0000E+00  0.7309E+16
   -0.299990    1.35928  0.9890E-13  0.8306E-12  0.1696E-15  0.1000E-09  0.0000E+00  0.6776E+16
   -0.337490    1.52236  0.9800E-13  0.1613E-11  0.2992E-15  0.1000E-09  0.0000E+00  0.6254E+16
   -0.374990    1.68355  0.9767E-13  0.2979E-11  0.5296E-15  0.1000E-09  0.0000E+00  0.5781E+16
   -0.412491    1.84374  0.9747E-13  0.5379E-11  0.9313E-15  0.1000E-09  0.0000E+00  0.5336E+16
   -0.449991    2.00351  0.9721E-13  0.9598E-11  0.1627E-14  0.1000E-09  0.0000E+00  0.4895E+16
   -0.487492    2.16277  0.9680E-13  0.1700E-10  0.2825E-14  0.1000E-09  0.0000E+00  0.4459E+16
   -0.524993    2.32146  0.9621E-13  0.2982E-10  0.4865E-14  0.1000E-09  0.0000E+00  0.4025E+16
   -0.562493    2.47944  0.9544E-13  0.5195E-10  0.8318E-14  0.1000E-09  0.0000E+00  0.3598E+16
   -0.599994    2.63665  0.9450E-13  0.8996E-10  0.1414E-13  0.1000E-09  0.0000E+00  0.3179E+16
   -0.637496    2.79304  0.9348E-13  0.1550E-09  0.2393E-13  0.1000E-09  0.0000E+00  0.2766E+16
   -0.674997    2.94856  0.9246E-13  0.2658E-09  0.4030E-13  0.1000E-09  0.0000E+00  0.2362E+16
   -0.712498    3.10316  0.9150E-13  0.4535E-09  0.6755E-13  0.1006E-09  0.0000E+00  0.1966E+16
   -0.749999    3.25679  0.9063E-13  0.7702E-09  0.1127E-12  0.1976E-09  0.0000E+00  0.1584E+16
   -0.787500    3.41006  0.8990E-13  0.1302E-08  0.1872E-12  0.4305E-09  0.0000E+00  0.1207E+16
   -0.825001    3.56307  0.8935E-13  0.2190E-08  0.3095E-12  0.1032E-08  0.0000E+00  0.8328E+15
   -0.862503    3.71540  0.8902E-13  0.3664E-08  0.5090E-12  0.3060E-08  0.0000E+00  0.4621E+15
   -0.900004    3.86557  0.8888E-13  0.6052E-08  0.8274E-12  0.2040E-07  0.0000E+00  0.1130E+15
   -0.937505    3.99962  0.8885E-13  0.6855E-08  0.9416E-12  0.1687E-04  0.0000E+00 -0.2780E+12
   -0.975006    4.00090  0.8885E-13  0.7241E-08  0.1008E-11  0.1788E-04  0.0000E+00 -0.2872E+12
   -1.012506    4.00211  0.8885E-13  0.7580E-08  0.1080E-11  0.1859E-04  0.0000E+00 -0.3017E+12
   -1.050007    4.00329  0.8885E-13  0.7876E-08  0.1158E-11  0.1890E-04  0.0000E+00 -0.3224E+12
   -1.087508    4.00446  0.8885E-13  0.8130E-08  0.1245E-11  0.1883E-04  0.0000E+00 -0.3505E+12
   -1.125008    4.00566  0.8885E-13  0.8339E-08  0.1342E-11  0.1837E-04  0.0000E+00 -0.3879E+12
   -1.162508    4.00690  0.8885E-13  0.8499E-08  0.1454E-11  0.1753E-04  0.0000E+00 -0.4388E+12
   -1.200008    4.00822  0.8885E-13  0.8602E-08  0.1586E-11  0.1632E-04  0.0000E+00 -0.5094E+12
   -1.237508    4.00966  0.8885E-13  0.8636E-08  0.1746E-11  0.1477E-04  0.0000E+00 -0.6103E+12
   -1.275007    4.01127  0.8885E-13  0.8582E-08  0.1947E-11  0.1288E-04  0.0000E+00 -0.7633E+12
   -1.312507    4.01316  0.8885E-13  0.8407E-08  0.2216E-11  0.1062E-04  0.0000E+00 -0.1018E+13
   -1.350006    4.01548  0.8885E-13  0.8056E-08  0.2607E-11  0.8013E-05  0.0000E+00 -0.1505E+13
   -1.387504    4.01861  0.8885E-13  0.7414E-08  0.3260E-11  0.5140E-05  0.0000E+00 -0.2689E+13
   -1.425002    4.02355  0.8885E-13  0.6220E-08  0.4665E-11  0.2299E-05  0.0000E+00 -0.7327E+13
   -1.462500    4.03451  0.8885E-13  0.4042E-08  0.9424E-11  0.3948E-06  0.0000E+00 -0.5923E+14
   -1.499998    4.08577  0.8885E-13  0.0000E+00  0.0000E+00  0.0000E+00  0.0000E+00  0.0000E+00
