 1 - depth, m
 2 - temperature, C
 3 - salinity, kg/kg
 4 - turbulent kinetic energy, m**2/s**2
 5 - dissipation rate, m**2/s**3
 6 - kinematic heat conductance, m**2/s
 7 - modulus of horizontal velocity, m/s
 8 - Richardson number, n/d
   -0.000000   -0.00000  0.7676E-12  0.4096E-13  0.8590E-16  0.1000E-09  0.0000E+00  0.1159E+17
   -0.037497    0.17806  0.3978E-12  0.4096E-13  0.8590E-16  0.1000E-09  0.0000E+00  0.1091E+17
   -0.074995    0.35424  0.2684E-12  0.4096E-13  0.8590E-16  0.1000E-09  0.0000E+00  0.1025E+17
   -0.112494    0.52854  0.2012E-12  0.4096E-13  0.8590E-16  0.1000E-09  0.0000E+00  0.9617E+16
   -0.149992    0.70090  0.1590E-12  0.4096E-13  0.8590E-16  0.1000E-09  0.0000E+00  0.8998E+16
   -0.187491    0.87130  0.1313E-12  0.4096E-13  0.8590E-16  0.1000E-09  0.0000E+00  0.8397E+16
   -0.224990    1.03967  0.1139E-12  0.4096E-13  0.8590E-16  0.1000E-09  0.0000E+00  0.7813E+16
   -0.262489    1.20596  0.1037E-12  0.8135E-13  0.8590E-16  0.1000E-09  0.0000E+00  0.7249E+16
   -0.299989    1.37014  0.9818E-13  0.2857E-12  0.8734E-16  0.1000E-09  0.0000E+00  0.6703E+16
   -0.337489    1.53216  0.9534E-13  0.6593E-12  0.1367E-15  0.1000E-09  0.0000E+00  0.6174E+16
   -0.374989    1.69194  0.9387E-13  0.1299E-11  0.2370E-15  0.1000E-09  0.0000E+00  0.5683E+16
   -0.412489    1.84997  0.9301E-13  0.2401E-11  0.4158E-15  0.1000E-09  0.0000E+00  0.5218E+16
   -0.449989    2.00654  0.9235E-13  0.4313E-11  0.7254E-15  0.1000E-09  0.0000E+00  0.4764E+16
   -0.487490    2.16161  0.9167E-13  0.7640E-11  0.1257E-14  0.1000E-09  0.0000E+00  0.4322E+16
   -0.524990    2.31508  0.9091E-13  0.1338E-10  0.2159E-14  0.1000E-09  0.0000E+00  0.3888E+16
   -0.562491    2.46676  0.9006E-13  0.2323E-10  0.3680E-14  0.1000E-09  0.0000E+00  0.3470E+16
   -0.599992    2.61658  0.8915E-13  0.4010E-10  0.6238E-14  0.1000E-09  0.0000E+00  0.3065E+16
   -0.637493    2.76452  0.8822E-13  0.6887E-10  0.1052E-13  0.1000E-09  0.0000E+00  0.2676E+16
   -0.674994    2.91051  0.8737E-13  0.1177E-09  0.1767E-13  0.1000E-09  0.0000E+00  0.2301E+16
   -0.712495    3.05452  0.8663E-13  0.2002E-09  0.2953E-13  0.1000E-09  0.0000E+00  0.1941E+16
   -0.749996    3.19649  0.8608E-13  0.3391E-09  0.4913E-13  0.1000E-09  0.0000E+00  0.1601E+16
   -0.787497    3.33688  0.8570E-13  0.5716E-09  0.8140E-13  0.1774E-09  0.0000E+00  0.1273E+16
   -0.824998    3.47572  0.8549E-13  0.9593E-09  0.1343E-12  0.3897E-09  0.0000E+00  0.9563E+15
   -0.862499    3.61286  0.8539E-13  0.1602E-08  0.2205E-12  0.9409E-09  0.0000E+00  0.6505E+15
   -0.900000    3.74794  0.8535E-13  0.2663E-08  0.3603E-12  0.2800E-08  0.0000E+00  0.3571E+15
   -0.937501    3.87972  0.8534E-13  0.4373E-08  0.5826E-12  0.1833E-07  0.0000E+00  0.8815E+14
   -0.975002    3.99732  0.8534E-13  0.5086E-08  0.6809E-12  0.1281E-04  0.0000E+00 -0.2643E+12
   -1.012502    3.99876  0.8534E-13  0.5435E-08  0.7400E-12  0.1378E-04  0.0000E+00 -0.2768E+12
   -1.050003    4.00011  0.8534E-13  0.5741E-08  0.8035E-12  0.1437E-04  0.0000E+00 -0.2947E+12
   -1.087503    4.00141  0.8534E-13  0.6006E-08  0.8727E-12  0.1459E-04  0.0000E+00 -0.3191E+12
   -1.125003    4.00271  0.8534E-13  0.6228E-08  0.9495E-12  0.1448E-04  0.0000E+00 -0.3519E+12
   -1.162503    4.00403  0.8534E-13  0.6405E-08  0.1036E-11  0.1402E-04  0.0000E+00 -0.3964E+12
   -1.200003    4.00540  0.8534E-13  0.6531E-08  0.1137E-11  0.1322E-04  0.0000E+00 -0.4581E+12
   -1.237503    4.00688  0.8534E-13  0.6596E-08  0.1258E-11  0.1208E-04  0.0000E+00 -0.5471E+12
   -1.275002    4.00851  0.8534E-13  0.6586E-08  0.1409E-11  0.1060E-04  0.0000E+00 -0.6834E+12
   -1.312501    4.01040  0.8534E-13  0.6473E-08  0.1609E-11  0.8773E-05  0.0000E+00 -0.9118E+12
   -1.350000    4.01270  0.8534E-13  0.6212E-08  0.1898E-11  0.6622E-05  0.0000E+00 -0.1352E+13
   -1.387499    4.01580  0.8534E-13  0.5710E-08  0.2379E-11  0.4230E-05  0.0000E+00 -0.2433E+13
   -1.424997    4.02066  0.8534E-13  0.4761E-08  0.3401E-11  0.1871E-05  0.0000E+00 -0.6705E+13
   -1.462495    4.03144  0.8534E-13  0.3084E-08  0.6725E-11  0.3215E-06  0.0000E+00 -0.5168E+14
   -1.499992    4.07927  0.8534E-13  0.0000E+00  0.0000E+00  0.0000E+00  0.0000E+00  0.0000E+00
