 1 - depth, m
 2 - temperature, C
 3 - salinity, kg/kg
 4 - turbulent kinetic energy, m**2/s**2
 5 - dissipation rate, m**2/s**3
 6 - kinematic heat conductance, m**2/s
 7 - modulus of horizontal velocity, m/s
 8 - Richardson number, n/d
   -0.000000   -0.00000  0.4392E-12  0.4096E-13  0.8590E-16  0.1000E-09  0.0000E+00  0.1136E+17
   -0.037498    0.17452  0.4133E-12  0.4096E-13  0.8590E-16  0.1000E-09  0.0000E+00  0.1074E+17
   -0.074996    0.34768  0.3217E-12  0.4096E-13  0.8590E-16  0.1000E-09  0.0000E+00  0.1013E+17
   -0.112494    0.51948  0.2299E-12  0.4096E-13  0.8590E-16  0.1000E-09  0.0000E+00  0.9539E+16
   -0.149993    0.68990  0.1653E-12  0.4096E-13  0.8590E-16  0.1000E-09  0.0000E+00  0.8958E+16
   -0.187492    0.85889  0.1281E-12  0.4096E-13  0.8590E-16  0.1000E-09  0.0000E+00  0.8388E+16
   -0.224991    1.02633  0.1098E-12  0.1072E-12  0.8590E-16  0.1000E-09  0.0000E+00  0.7828E+16
   -0.262490    1.19212  0.1020E-12  0.3379E-12  0.9478E-16  0.1000E-09  0.0000E+00  0.7287E+16
   -0.299990    1.35629  0.9907E-13  0.7523E-12  0.1517E-15  0.1000E-09  0.0000E+00  0.6759E+16
   -0.337490    1.51876  0.9805E-13  0.1462E-11  0.2637E-15  0.1000E-09  0.0000E+00  0.6242E+16
   -0.374990    1.67938  0.9769E-13  0.2684E-11  0.4618E-15  0.1000E-09  0.0000E+00  0.5774E+16
   -0.412490    1.83907  0.9746E-13  0.4804E-11  0.8039E-15  0.1000E-09  0.0000E+00  0.5333E+16
   -0.449991    1.99835  0.9719E-13  0.8488E-11  0.1390E-14  0.1000E-09  0.0000E+00  0.4896E+16
   -0.487492    2.15718  0.9678E-13  0.1488E-10  0.2390E-14  0.1000E-09  0.0000E+00  0.4463E+16
   -0.524992    2.31548  0.9619E-13  0.2584E-10  0.4074E-14  0.1000E-09  0.0000E+00  0.4031E+16
   -0.562493    2.47306  0.9542E-13  0.4456E-10  0.6897E-14  0.1000E-09  0.0000E+00  0.3607E+16
   -0.599994    2.62990  0.9449E-13  0.7640E-10  0.1161E-13  0.1000E-09  0.0000E+00  0.3189E+16
   -0.637496    2.78592  0.9348E-13  0.1303E-09  0.1946E-13  0.1000E-09  0.0000E+00  0.2778E+16
   -0.674997    2.94108  0.9246E-13  0.2213E-09  0.3246E-13  0.1000E-09  0.0000E+00  0.2375E+16
   -0.712498    3.09533  0.9150E-13  0.3739E-09  0.5389E-13  0.1000E-09  0.0000E+00  0.1981E+16
   -0.749999    3.24859  0.9063E-13  0.6291E-09  0.8910E-13  0.1545E-09  0.0000E+00  0.1600E+16
   -0.787500    3.40147  0.8991E-13  0.1053E-08  0.1466E-12  0.3323E-09  0.0000E+00  0.1225E+16
   -0.825001    3.55400  0.8936E-13  0.1756E-08  0.2403E-12  0.7825E-09  0.0000E+00  0.8525E+15
   -0.862503    3.70583  0.8903E-13  0.2912E-08  0.3918E-12  0.2246E-08  0.0000E+00  0.4844E+15
   -0.900004    3.85579  0.8888E-13  0.4783E-08  0.6332E-12  0.1324E-07  0.0000E+00  0.1331E+15
   -0.937505    3.99471  0.8885E-13  0.5541E-08  0.7371E-12  0.1257E-04  0.0000E+00 -0.2434E+12
   -0.975006    3.99642  0.8885E-13  0.5929E-08  0.8021E-12  0.1391E-04  0.0000E+00 -0.2603E+12
   -1.012506    3.99796  0.8885E-13  0.6278E-08  0.8728E-12  0.1485E-04  0.0000E+00 -0.2809E+12
   -1.050007    3.99942  0.8885E-13  0.6594E-08  0.9509E-12  0.1541E-04  0.0000E+00 -0.3064E+12
   -1.087508    4.00084  0.8885E-13  0.6876E-08  0.1038E-11  0.1560E-04  0.0000E+00 -0.3387E+12
   -1.125008    4.00226  0.8885E-13  0.7119E-08  0.1135E-11  0.1542E-04  0.0000E+00 -0.3802E+12
   -1.162508    4.00372  0.8885E-13  0.7319E-08  0.1248E-11  0.1490E-04  0.0000E+00 -0.4351E+12
   -1.200008    4.00525  0.8885E-13  0.7470E-08  0.1379E-11  0.1403E-04  0.0000E+00 -0.5103E+12
   -1.237508    4.00690  0.8885E-13  0.7559E-08  0.1537E-11  0.1281E-04  0.0000E+00 -0.6178E+12
   -1.275007    4.00874  0.8885E-13  0.7568E-08  0.1736E-11  0.1125E-04  0.0000E+00 -0.7818E+12
   -1.312507    4.01086  0.8885E-13  0.7467E-08  0.2001E-11  0.9327E-05  0.0000E+00 -0.1056E+13
   -1.350005    4.01347  0.8885E-13  0.7205E-08  0.2383E-11  0.7073E-05  0.0000E+00 -0.1582E+13
   -1.387504    4.01697  0.8885E-13  0.6677E-08  0.3018E-11  0.4564E-05  0.0000E+00 -0.2866E+13
   -1.425002    4.02245  0.8885E-13  0.5651E-08  0.4366E-11  0.2068E-05  0.0000E+00 -0.7891E+13
   -1.462500    4.03441  0.8885E-13  0.3772E-08  0.8790E-11  0.3778E-06  0.0000E+00 -0.6079E+14
   -1.499998    4.08672  0.8885E-13  0.0000E+00  0.0000E+00  0.0000E+00  0.0000E+00  0.0000E+00
