 1 - depth, m
 2 - temperature, C
 3 - salinity, kg/kg
 4 - turbulent kinetic energy, m**2/s**2
 5 - dissipation rate, m**2/s**3
 6 - kinematic heat conductance, m**2/s
 7 - modulus of horizontal velocity, m/s
 8 - Richardson number, n/d
   -0.000000   13.44907  0.9238E-13  0.1817E-03  0.4211E-03  0.7241E-04  0.1276E+00 -0.5291E-01
   -0.037498   13.51485  0.9238E-13  0.9631E-04  0.1732E-03  0.7485E-04  0.4438E-01 -0.1040E+00
   -0.074996   13.53936  0.9238E-13  0.6362E-04  0.6271E-04  0.9762E-04  0.2881E-01 -0.4750E-01
   -0.112494   13.55275  0.9237E-13  0.4891E-04  0.3950E-04  0.1055E-03  0.2264E-01 -0.6744E-01
   -0.149992   13.56087  0.9237E-13  0.3849E-04  0.1741E-04  0.1175E-03  0.1862E-01 -0.4428E-01
   -0.187491   13.56738  0.9237E-13  0.3140E-04  0.9193E-05  0.1455E-03  0.1564E-01  0.5779E+01
   -0.224991   13.57243  0.9237E-13  0.2636E-04  0.5065E-05  0.1680E-03  0.1338E-01  0.2731E+02
   -0.262490   13.57645  0.9237E-13  0.2257E-04  0.2687E-05  0.1927E-03  0.1169E-01  0.4930E+01
   -0.299990   13.57994  0.9237E-13  0.1970E-04  0.1469E-05  0.2284E-03  0.1030E-01  0.3540E+02
   -0.337490   13.58301  0.9237E-13  0.1752E-04  0.8895E-06  0.2659E-03  0.9131E-02  0.2228E+02
   -0.374990   13.58602  0.9237E-13  0.1582E-04  0.5628E-06  0.3108E-03  0.8136E-02  0.7108E+02
   -0.412490   13.58819  0.9237E-13  0.1449E-04  0.3698E-06  0.3536E-03  0.7351E-02  0.6082E+03
   -0.449991   13.58994  0.9237E-13  0.1343E-04  0.2523E-06  0.4039E-03  0.6706E-02  0.3407E+02
   -0.487491   13.59151  0.9237E-13  0.1260E-04  0.1795E-06  0.4517E-03  0.6170E-02  0.1623E+02
   -0.524992   13.59273  0.9237E-13  0.1196E-04  0.1330E-06  0.4828E-03  0.5725E-02  0.2881E+02
   -0.562493   13.59396  0.9237E-13  0.1145E-04  0.1031E-06  0.5061E-03  0.5299E-02  0.2507E+02
   -0.599994   13.59499  0.9237E-13  0.1104E-04  0.8289E-07  0.5383E-03  0.4897E-02  0.2092E+02
   -0.637495   13.59598  0.9237E-13  0.1069E-04  0.6886E-07  0.5637E-03  0.4530E-02  0.1172E+02
   -0.674996   13.59688  0.9237E-13  0.1039E-04  0.5879E-07  0.5740E-03  0.4186E-02  0.4384E+02
   -0.712497   13.59776  0.9237E-13  0.1011E-04  0.5115E-07  0.5949E-03  0.3856E-02  0.1309E+03
   -0.749998   13.59858  0.9237E-13  0.9847E-05  0.4520E-07  0.6111E-03  0.3547E-02  0.1701E+02
   -0.787499   13.59939  0.9237E-13  0.9588E-05  0.4039E-07  0.6281E-03  0.3253E-02  0.8416E+01
   -0.825001   13.60016  0.9237E-13  0.9328E-05  0.3651E-07  0.6409E-03  0.2975E-02  0.8080E+01
   -0.862502   13.60091  0.9237E-13  0.9058E-05  0.3328E-07  0.6476E-03  0.2712E-02  0.1540E+03
   -0.900003   13.60164  0.9237E-13  0.8774E-05  0.3056E-07  0.6487E-03  0.2462E-02  0.8616E+01
   -0.937504   13.60236  0.9237E-13  0.8471E-05  0.2825E-07  0.6446E-03  0.2224E-02  0.7294E+01
   -0.975005   13.60308  0.9237E-13  0.8143E-05  0.2626E-07  0.6350E-03  0.1996E-02  0.8294E+01
   -1.012505   13.60381  0.9237E-13  0.7788E-05  0.2454E-07  0.6268E-03  0.1777E-02  0.4174E+01
   -1.050006   13.60454  0.9237E-13  0.7413E-05  0.2308E-07  0.6175E-03  0.1581E-02  0.3062E+01
   -1.087507   13.60528  0.9237E-13  0.7025E-05  0.2189E-07  0.6055E-03  0.1408E-02  0.2825E+01
   -1.125007   13.60602  0.9237E-13  0.6633E-05  0.2097E-07  0.5792E-03  0.1258E-02  0.2857E+01
   -1.162507   13.60680  0.9237E-13  0.6243E-05  0.2033E-07  0.5443E-03  0.1129E-02  0.1879E+01
   -1.200007   13.60762  0.9237E-13  0.5864E-05  0.2000E-07  0.5013E-03  0.1019E-02  0.1831E+01
   -1.237507   13.60851  0.9237E-13  0.5500E-05  0.2000E-07  0.4556E-03  0.9280E-03  0.2120E+01
   -1.275006   13.60948  0.9237E-13  0.5149E-05  0.2044E-07  0.4023E-03  0.8536E-03  0.3116E+01
   -1.312505   13.61059  0.9237E-13  0.4797E-05  0.2154E-07  0.3467E-03  0.7934E-03  0.6942E+01
   -1.350004   13.61188  0.9237E-13  0.4407E-05  0.2391E-07  0.2750E-03  0.7436E-03  0.1577E+02
   -1.387503   13.61356  0.9237E-13  0.3946E-05  0.2845E-07  0.2267E-03  0.6974E-03  0.8967E+02
   -1.425001   13.61557  0.9237E-13  0.3292E-05  0.4182E-07  0.1152E-03  0.6590E-03  0.2756E+04
   -1.462499   13.62172  0.9237E-13  0.1888E-05  0.9196E-07  0.2542E-04  0.6109E-03 -0.2369E+05
   -1.499997   13.64179  0.9237E-13  0.0000E+00  0.0000E+00  0.0000E+00  0.6203E-03  0.0000E+00
