 1 - depth, m
 2 - temperature, C
 3 - salinity, kg/kg
 4 - turbulent kinetic energy, m**2/s**2
 5 - dissipation rate, m**2/s**3
 6 - kinematic heat conductance, m**2/s
 7 - modulus of horizontal velocity, m/s
 8 - Richardson number, n/d
   -0.000000   -0.00000  0.2192E-12  0.4096E-13  0.8590E-16  0.1000E-09  0.0000E+00  0.8580E+16
   -0.037498    0.13101  0.2977E-12  0.4096E-13  0.8590E-16  0.1000E-09  0.0000E+00  0.8285E+16
   -0.074996    0.26219  0.3237E-12  0.4096E-13  0.8590E-16  0.1000E-09  0.0000E+00  0.7984E+16
   -0.112494    0.39343  0.3010E-12  0.4096E-13  0.8590E-16  0.1000E-09  0.0000E+00  0.7679E+16
   -0.149993    0.52464  0.2538E-12  0.4096E-13  0.8590E-16  0.1000E-09  0.0000E+00  0.7370E+16
   -0.187492    0.65572  0.2045E-12  0.4096E-13  0.8590E-16  0.1000E-09  0.0000E+00  0.7059E+16
   -0.224992    0.78659  0.1643E-12  0.4096E-13  0.8590E-16  0.1000E-09  0.0000E+00  0.6745E+16
   -0.262491    0.91714  0.1356E-12  0.4096E-13  0.8590E-16  0.1000E-09  0.0000E+00  0.6433E+16
   -0.299991    1.04734  0.1167E-12  0.4096E-13  0.8590E-16  0.1000E-09  0.0000E+00  0.6120E+16
   -0.337491    1.17710  0.1049E-12  0.4096E-13  0.8590E-16  0.1000E-09  0.0000E+00  0.5808E+16
   -0.374991    1.30633  0.9778E-13  0.4096E-13  0.8590E-16  0.1000E-09  0.0000E+00  0.5498E+16
   -0.412492    1.43496  0.9344E-13  0.4096E-13  0.8590E-16  0.1000E-09  0.0000E+00  0.5190E+16
   -0.449993    1.56292  0.9074E-13  0.4096E-13  0.8590E-16  0.1000E-09  0.0000E+00  0.4884E+16
   -0.487493    1.69010  0.8896E-13  0.4096E-13  0.8590E-16  0.1000E-09  0.0000E+00  0.4581E+16
   -0.524994    1.81645  0.8768E-13  0.4096E-13  0.8590E-16  0.1000E-09  0.0000E+00  0.4289E+16
   -0.562495    1.94208  0.8670E-13  0.4096E-13  0.8590E-16  0.1000E-09  0.0000E+00  0.4001E+16
   -0.599997    2.06691  0.8589E-13  0.4096E-13  0.8590E-16  0.1000E-09  0.0000E+00  0.3716E+16
   -0.637498    2.19086  0.8522E-13  0.4096E-13  0.8590E-16  0.1000E-09  0.0000E+00  0.3435E+16
   -0.674999    2.31386  0.8466E-13  0.4096E-13  0.8590E-16  0.1000E-09  0.0000E+00  0.3159E+16
   -0.712500    2.43581  0.8420E-13  0.4096E-13  0.8590E-16  0.1000E-09  0.0000E+00  0.2888E+16
   -0.750002    2.55664  0.8384E-13  0.1723E-12  0.8783E-16  0.1000E-09  0.0000E+00  0.2628E+16
   -0.787503    2.67646  0.8358E-13  0.4710E-12  0.1695E-15  0.1000E-09  0.0000E+00  0.2374E+16
   -0.825004    2.79524  0.8339E-13  0.1093E-11  0.3595E-15  0.1000E-09  0.0000E+00  0.2125E+16
   -0.862506    2.91293  0.8326E-13  0.2400E-11  0.7598E-15  0.1000E-09  0.0000E+00  0.1883E+16
   -0.900007    3.02947  0.8318E-13  0.5155E-11  0.1589E-14  0.1000E-09  0.0000E+00  0.1648E+16
   -0.937508    3.14480  0.8313E-13  0.1094E-10  0.3289E-14  0.1000E-09  0.0000E+00  0.1419E+16
   -0.975009    3.25888  0.8310E-13  0.2300E-10  0.6753E-14  0.1000E-09  0.0000E+00  0.1198E+16
   -1.012510    3.37167  0.8308E-13  0.4806E-10  0.1379E-13  0.1000E-09  0.0000E+00  0.9829E+15
   -1.050011    3.48292  0.8308E-13  0.1000E-09  0.2804E-13  0.1023E-09  0.0000E+00  0.7757E+15
   -1.087511    3.59253  0.8307E-13  0.2068E-09  0.5666E-13  0.2720E-09  0.0000E+00  0.5770E+15
   -1.125012    3.70030  0.8307E-13  0.4243E-09  0.1137E-12  0.8033E-09  0.0000E+00  0.3916E+15
   -1.162512    3.80744  0.8307E-13  0.8632E-09  0.2263E-12  0.2989E-08  0.0000E+00  0.2090E+15
   -1.200012    3.91303  0.8307E-13  0.1720E-08  0.4423E-12  0.2978E-07  0.0000E+00  0.4018E+14
   -1.237512    4.00222  0.8307E-13  0.2677E-08  0.6916E-12  0.3941E-05  0.0000E+00 -0.1045E+13
   -1.275012    4.00597  0.8307E-13  0.3135E-08  0.8613E-12  0.4271E-05  0.0000E+00 -0.1174E+13
   -1.312511    4.00948  0.8307E-13  0.3430E-08  0.1049E-11  0.4103E-05  0.0000E+00 -0.1437E+13
   -1.350010    4.01315  0.8307E-13  0.3553E-08  0.1283E-11  0.3481E-05  0.0000E+00 -0.1974E+13
   -1.387509    4.01750  0.8307E-13  0.3453E-08  0.1630E-11  0.2460E-05  0.0000E+00 -0.3282E+13
   -1.425007    4.02362  0.8307E-13  0.3009E-08  0.2292E-11  0.1209E-05  0.0000E+00 -0.8093E+13
   -1.462506    4.03556  0.8307E-13  0.2062E-08  0.4217E-11  0.2397E-06  0.0000E+00 -0.4769E+14
   -1.500003    4.07861  0.8307E-13  0.0000E+00  0.0000E+00  0.0000E+00  0.0000E+00  0.0000E+00
