 1 - depth, m
 2 - temperature, C
 3 - salinity, kg/kg
 4 - turbulent kinetic energy, m**2/s**2
 5 - dissipation rate, m**2/s**3
 6 - kinematic heat conductance, m**2/s
 7 - modulus of horizontal velocity, m/s
 8 - Richardson number, n/d
   -0.000000   -0.00000  0.5161E-12  0.4096E-13  0.8590E-16  0.1000E-09  0.0000E+00  0.8458E+16
   -0.037498    0.12911  0.4625E-12  0.4096E-13  0.8590E-16  0.1000E-09  0.0000E+00  0.8136E+16
   -0.074996    0.25782  0.3350E-12  0.4096E-13  0.8590E-16  0.1000E-09  0.0000E+00  0.7810E+16
   -0.112494    0.38597  0.2296E-12  0.4096E-13  0.8590E-16  0.1000E-09  0.0000E+00  0.7481E+16
   -0.149993    0.51344  0.1628E-12  0.4096E-13  0.8590E-16  0.1000E-09  0.0000E+00  0.7150E+16
   -0.187492    0.64007  0.1274E-12  0.4096E-13  0.8590E-16  0.1000E-09  0.0000E+00  0.6818E+16
   -0.224991    0.76573  0.1113E-12  0.4096E-13  0.8590E-16  0.1000E-09  0.0000E+00  0.6486E+16
   -0.262491    0.89028  0.1050E-12  0.4096E-13  0.8590E-16  0.1000E-09  0.0000E+00  0.6161E+16
   -0.299991    1.01367  0.1028E-12  0.4096E-13  0.8590E-16  0.1000E-09  0.0000E+00  0.5839E+16
   -0.337491    1.13581  0.1020E-12  0.4096E-13  0.8590E-16  0.1000E-09  0.0000E+00  0.5522E+16
   -0.374991    1.25656  0.1018E-12  0.4096E-13  0.8590E-16  0.1000E-09  0.0000E+00  0.5242E+16
   -0.412491    1.37662  0.1016E-12  0.4096E-13  0.8590E-16  0.1000E-09  0.0000E+00  0.4985E+16
   -0.449992    1.49639  0.1013E-12  0.4096E-13  0.8590E-16  0.1000E-09  0.0000E+00  0.4728E+16
   -0.487493    1.61582  0.1008E-12  0.4096E-13  0.8590E-16  0.1000E-09  0.0000E+00  0.4471E+16
   -0.524994    1.73482  0.1001E-12  0.4096E-13  0.8590E-16  0.1000E-09  0.0000E+00  0.4208E+16
   -0.562495    1.85311  0.9925E-13  0.4096E-13  0.8590E-16  0.1000E-09  0.0000E+00  0.3948E+16
   -0.599996    1.97063  0.9824E-13  0.4096E-13  0.8590E-16  0.1000E-09  0.0000E+00  0.3692E+16
   -0.637497    2.08733  0.9720E-13  0.4096E-13  0.8590E-16  0.1000E-09  0.0000E+00  0.3440E+16
   -0.674998    2.20315  0.9623E-13  0.4096E-13  0.8590E-16  0.1000E-09  0.0000E+00  0.3193E+16
   -0.712499    2.31805  0.9539E-13  0.4096E-13  0.8590E-16  0.1000E-09  0.0000E+00  0.2950E+16
   -0.750001    2.43197  0.9472E-13  0.4096E-13  0.8590E-16  0.1000E-09  0.0000E+00  0.2727E+16
   -0.787502    2.54548  0.9421E-13  0.4096E-13  0.8590E-16  0.1000E-09  0.0000E+00  0.2511E+16
   -0.825003    2.65875  0.9384E-13  0.1251E-12  0.8590E-16  0.1000E-09  0.0000E+00  0.2296E+16
   -0.862504    2.77176  0.9357E-13  0.3724E-12  0.1784E-15  0.1000E-09  0.0000E+00  0.2083E+16
   -0.900005    2.88447  0.9338E-13  0.9590E-12  0.4227E-15  0.1000E-09  0.0000E+00  0.1872E+16
   -0.937507    2.99684  0.9325E-13  0.2349E-11  0.9981E-15  0.1000E-09  0.0000E+00  0.1662E+16
   -0.975008    3.10885  0.9316E-13  0.5639E-11  0.2328E-14  0.1000E-09  0.0000E+00  0.1455E+16
   -1.012508    3.22046  0.9310E-13  0.1340E-10  0.5384E-14  0.1000E-09  0.0000E+00  0.1261E+16
   -1.050009    3.33262  0.9307E-13  0.3161E-10  0.1237E-13  0.1000E-09  0.0000E+00  0.1067E+16
   -1.087510    3.44560  0.9305E-13  0.7387E-10  0.2817E-13  0.1000E-09  0.0000E+00  0.8697E+15
   -1.125010    3.55948  0.9304E-13  0.1710E-09  0.6355E-13  0.2602E-09  0.0000E+00  0.6748E+15
   -1.162510    3.67562  0.9303E-13  0.3918E-09  0.1420E-12  0.8364E-09  0.0000E+00  0.4686E+15
   -1.200011    3.79410  0.9303E-13  0.8878E-09  0.3142E-12  0.3476E-08  0.0000E+00  0.2483E+15
   -1.237510    3.91346  0.9303E-13  0.1952E-08  0.6768E-12  0.4665E-07  0.0000E+00  0.3802E+14
   -1.275010    4.00804  0.9303E-13  0.3325E-08  0.1163E-11  0.3540E-05  0.0000E+00 -0.1898E+13
   -1.312509    4.01304  0.9303E-13  0.3977E-08  0.1517E-11  0.3788E-05  0.0000E+00 -0.2232E+13
   -1.350008    4.01793  0.9303E-13  0.4364E-08  0.1943E-11  0.3463E-05  0.0000E+00 -0.2996E+13
   -1.387507    4.02349  0.9303E-13  0.4448E-08  0.2555E-11  0.2620E-05  0.0000E+00 -0.4876E+13
   -1.425005    4.03109  0.9303E-13  0.4080E-08  0.3701E-11  0.1401E-05  0.0000E+00 -0.1160E+14
   -1.462503    4.04536  0.9303E-13  0.3007E-08  0.7037E-11  0.3225E-06  0.0000E+00 -0.6569E+14
   -1.500001    4.09532  0.9303E-13  0.0000E+00  0.0000E+00  0.0000E+00  0.0000E+00  0.0000E+00
