 1 - depth, m
 2 - temperature, C
 3 - salinity, kg/kg
 4 - turbulent kinetic energy, m**2/s**2
 5 - dissipation rate, m**2/s**3
 6 - kinematic heat conductance, m**2/s
 7 - modulus of horizontal velocity, m/s
 8 - Richardson number, n/d
   -0.000000    1.79861  0.8709E-13  0.3668E-03  0.4411E-03  0.7870E-04  0.2239E+00 -0.2289E-02
   -0.037498    1.84358  0.8709E-13  0.1977E-03  0.1240E-03  0.1546E-03  0.6950E-01  0.1116E-02
   -0.074996    1.85216  0.8709E-13  0.1351E-03  0.4699E-04  0.1613E-03  0.4669E-01  0.7893E-02
   -0.112494    1.85789  0.8709E-13  0.1046E-03  0.2574E-04  0.1563E-03  0.3861E-01  0.5238E-02
   -0.149993    1.86142  0.8710E-13  0.8437E-04  0.1508E-04  0.1563E-03  0.3341E-01  0.1254E-01
   -0.187492    1.86421  0.8710E-13  0.6919E-04  0.8977E-05  0.1581E-03  0.2934E-01  0.5031E-02
   -0.224991    1.86672  0.8710E-13  0.5733E-04  0.5321E-05  0.1616E-03  0.2595E-01  0.9067E-02
   -0.262491    1.86908  0.8710E-13  0.4831E-04  0.3208E-05  0.1642E-03  0.2320E-01  0.6188E-01
   -0.299990    1.87136  0.8710E-13  0.4125E-04  0.1983E-05  0.1666E-03  0.2078E-01  0.1912E-01
   -0.337490    1.87362  0.8710E-13  0.3561E-04  0.1270E-05  0.1687E-03  0.1865E-01  0.1549E-01
   -0.374991    1.87584  0.8710E-13  0.3103E-04  0.8514E-06  0.1705E-03  0.1681E-01  0.2362E-01
   -0.412491    1.87803  0.8710E-13  0.2722E-04  0.5960E-06  0.1724E-03  0.1523E-01  0.4765E-01
   -0.449992    1.88016  0.8710E-13  0.2406E-04  0.4339E-06  0.1750E-03  0.1389E-01  0.3079E+00
   -0.487492    1.88218  0.8710E-13  0.2146E-04  0.3270E-06  0.1777E-03  0.1278E-01  0.1453E+01
   -0.524993    1.88410  0.8710E-13  0.1935E-04  0.2544E-06  0.1768E-03  0.1186E-01  0.2286E+01
   -0.562494    1.88600  0.8710E-13  0.1757E-04  0.2027E-06  0.1761E-03  0.1097E-01  0.1003E+02
   -0.599995    1.88790  0.8710E-13  0.1604E-04  0.1644E-06  0.1752E-03  0.1014E-01  0.1721E+01
   -0.637496    1.88978  0.8710E-13  0.1469E-04  0.1353E-06  0.1739E-03  0.9367E-02  0.8862E+00
   -0.674997    1.89167  0.8710E-13  0.1350E-04  0.1127E-06  0.1721E-03  0.8644E-02  0.6728E+00
   -0.712499    1.89357  0.8710E-13  0.1243E-04  0.9472E-07  0.1695E-03  0.7968E-02  0.5853E+00
   -0.750000    1.89550  0.8710E-13  0.1146E-04  0.8029E-07  0.1661E-03  0.7334E-02  0.5481E+00
   -0.787501    1.89746  0.8710E-13  0.1058E-04  0.6855E-07  0.1618E-03  0.6738E-02  0.5315E+00
   -0.825002    1.89948  0.8710E-13  0.9761E-05  0.5888E-07  0.1566E-03  0.6174E-02  0.5237E+00
   -0.862504    1.90157  0.8710E-13  0.9004E-05  0.5083E-07  0.1502E-03  0.5639E-02  0.5189E+00
   -0.900005    1.90376  0.8710E-13  0.8294E-05  0.4406E-07  0.1427E-03  0.5127E-02  0.5112E+00
   -0.937506    1.90606  0.8710E-13  0.7617E-05  0.3826E-07  0.1337E-03  0.4634E-02  0.4968E+00
   -0.975007    1.90855  0.8710E-13  0.6953E-05  0.3315E-07  0.1223E-03  0.4150E-02  0.4820E+00
   -1.012508    1.91131  0.8710E-13  0.6284E-05  0.2851E-07  0.1146E-03  0.3663E-02  0.9921E+00
   -1.050008    1.91427  0.8710E-13  0.5633E-05  0.2437E-07  0.1058E-03  0.3224E-02  0.2646E+01
   -1.087509    1.91748  0.8710E-13  0.5007E-05  0.2072E-07  0.9543E-04  0.2833E-02  0.7980E+01
   -1.125009    1.92109  0.8710E-13  0.4411E-05  0.1751E-07  0.8395E-04  0.2482E-02  0.2598E+02
   -1.162509    1.92528  0.8710E-13  0.3847E-05  0.1470E-07  0.7163E-04  0.2165E-02  0.8891E+02
   -1.200010    1.93035  0.8710E-13  0.3314E-05  0.1224E-07  0.5873E-04  0.1879E-02  0.3241E+03
   -1.237509    1.93693  0.8710E-13  0.2812E-05  0.1009E-07  0.4556E-04  0.1619E-02  0.1316E+04
   -1.275009    1.94702  0.8710E-13  0.2328E-05  0.8175E-08  0.3238E-04  0.1382E-02  0.6598E+04
   -1.312508    1.97707  0.8710E-13  0.1824E-05  0.6314E-08  0.2078E-04  0.1141E-02  0.5091E+05
   -1.350007    2.12105  0.8710E-13  0.1322E-05  0.4533E-08  0.1156E-04  0.8640E-03  0.8894E+06
   -1.387506    2.42309  0.8711E-13  0.8829E-06  0.3033E-08  0.4686E-05  0.6082E-03  0.2829E+09
   -1.425004    2.71358  0.8712E-13  0.4485E-06  0.1680E-08  0.1042E-05  0.3952E-03  0.1046E+08
   -1.462502    3.10521  0.8713E-13  0.1113E-06  0.1041E-08  0.7123E-06  0.1819E-03  0.1785E+08
   -1.500000    3.59040  0.8713E-13  0.0000E+00  0.0000E+00  0.0000E+00  0.1943E-03  0.0000E+00
