 1 - depth, m
 2 - temperature, C
 3 - salinity, kg/kg
 4 - turbulent kinetic energy, m**2/s**2
 5 - dissipation rate, m**2/s**3
 6 - kinematic heat conductance, m**2/s
 7 - modulus of horizontal velocity, m/s
 8 - Richardson number, n/d
   -0.000000   -0.00000  0.9790E-12  0.4096E-13  0.8590E-16  0.1000E-09  0.0000E+00  0.1004E+17
   -0.037498    0.15382  0.4932E-12  0.4096E-13  0.8590E-16  0.1000E-09  0.0000E+00  0.9571E+16
   -0.074996    0.30681  0.2810E-12  0.4096E-13  0.8590E-16  0.1000E-09  0.0000E+00  0.9101E+16
   -0.112494    0.45882  0.1939E-12  0.4096E-13  0.8590E-16  0.1000E-09  0.0000E+00  0.8633E+16
   -0.149992    0.60974  0.1518E-12  0.4096E-13  0.8590E-16  0.1000E-09  0.0000E+00  0.8170E+16
   -0.187491    0.75945  0.1281E-12  0.4096E-13  0.8590E-16  0.1000E-09  0.0000E+00  0.7713E+16
   -0.224991    0.90784  0.1140E-12  0.4096E-13  0.8590E-16  0.1000E-09  0.0000E+00  0.7263E+16
   -0.262490    1.05479  0.1058E-12  0.4096E-13  0.8590E-16  0.1000E-09  0.0000E+00  0.6821E+16
   -0.299990    1.20021  0.1013E-12  0.4096E-13  0.8590E-16  0.1000E-09  0.0000E+00  0.6387E+16
   -0.337490    1.34398  0.9881E-13  0.4096E-13  0.8590E-16  0.1000E-09  0.0000E+00  0.5964E+16
   -0.374990    1.48602  0.9738E-13  0.4096E-13  0.8590E-16  0.1000E-09  0.0000E+00  0.5568E+16
   -0.412490    1.62667  0.9644E-13  0.4096E-13  0.8590E-16  0.1000E-09  0.0000E+00  0.5190E+16
   -0.449991    1.76612  0.9565E-13  0.4096E-13  0.8590E-16  0.1000E-09  0.0000E+00  0.4820E+16
   -0.487491    1.90431  0.9489E-13  0.4096E-13  0.8590E-16  0.1000E-09  0.0000E+00  0.4457E+16
   -0.524992    2.04112  0.9409E-13  0.5415E-13  0.8590E-16  0.1000E-09  0.0000E+00  0.4096E+16
   -0.562493    2.17627  0.9327E-13  0.2226E-12  0.8883E-16  0.1000E-09  0.0000E+00  0.3747E+16
   -0.599994    2.30969  0.9245E-13  0.5592E-12  0.1478E-15  0.1000E-09  0.0000E+00  0.3408E+16
   -0.637495    2.44133  0.9167E-13  0.1176E-11  0.2758E-15  0.1000E-09  0.0000E+00  0.3082E+16
   -0.674996    2.57115  0.9096E-13  0.2315E-11  0.5182E-15  0.1000E-09  0.0000E+00  0.2767E+16
   -0.712497    2.69910  0.9035E-13  0.4436E-11  0.9655E-15  0.1000E-09  0.0000E+00  0.2465E+16
   -0.749998    2.82513  0.8985E-13  0.8387E-11  0.1784E-14  0.1000E-09  0.0000E+00  0.2180E+16
   -0.787499    2.94958  0.8948E-13  0.1572E-10  0.3274E-14  0.1000E-09  0.0000E+00  0.1908E+16
   -0.825001    3.07256  0.8922E-13  0.2925E-10  0.5968E-14  0.1000E-09  0.0000E+00  0.1645E+16
   -0.862502    3.19403  0.8905E-13  0.5410E-10  0.1082E-13  0.1000E-09  0.0000E+00  0.1392E+16
   -0.900003    3.31398  0.8896E-13  0.9943E-10  0.1949E-13  0.1000E-09  0.0000E+00  0.1148E+16
   -0.937504    3.43238  0.8891E-13  0.1817E-09  0.3490E-13  0.1088E-09  0.0000E+00  0.9141E+15
   -0.975005    3.54922  0.8889E-13  0.3300E-09  0.6217E-13  0.2506E-09  0.0000E+00  0.6887E+15
   -1.012505    3.66437  0.8888E-13  0.5973E-09  0.1104E-12  0.6462E-09  0.0000E+00  0.4741E+15
   -1.050006    3.77806  0.8887E-13  0.1078E-08  0.1954E-12  0.2032E-08  0.0000E+00  0.2671E+15
   -1.087506    3.88962  0.8887E-13  0.1927E-08  0.3431E-12  0.1309E-07  0.0000E+00  0.7306E+14
   -1.125007    3.99230  0.8887E-13  0.2682E-08  0.4788E-12  0.4382E-05  0.0000E+00 -0.4249E+12
   -1.162507    3.99593  0.8887E-13  0.3119E-08  0.5810E-12  0.5453E-05  0.0000E+00 -0.5007E+12
   -1.200007    3.99885  0.8887E-13  0.3489E-08  0.6936E-12  0.5974E-05  0.0000E+00 -0.5860E+12
   -1.237507    4.00156  0.8887E-13  0.3792E-08  0.8224E-12  0.6064E-05  0.0000E+00 -0.7044E+12
   -1.275006    4.00427  0.8887E-13  0.4022E-08  0.9761E-12  0.5767E-05  0.0000E+00 -0.8842E+12
   -1.312505    4.00719  0.8887E-13  0.4160E-08  0.1171E-11  0.5102E-05  0.0000E+00 -0.1185E+13
   -1.350004    4.01054  0.8887E-13  0.4172E-08  0.1440E-11  0.4086E-05  0.0000E+00 -0.1762E+13
   -1.387503    4.01481  0.8887E-13  0.3989E-08  0.1866E-11  0.2768E-05  0.0000E+00 -0.3163E+13
   -1.425001    4.02119  0.8887E-13  0.3467E-08  0.2712E-11  0.1328E-05  0.0000E+00 -0.8420E+13
   -1.462499    4.03418  0.8887E-13  0.2425E-08  0.5206E-11  0.2730E-06  0.0000E+00 -0.5342E+14
   -1.499997    4.08180  0.8887E-13  0.0000E+00  0.0000E+00  0.0000E+00  0.0000E+00  0.0000E+00
