 1 - depth, m
 2 - temperature, C
 3 - salinity, kg/kg
 4 - turbulent kinetic energy, m**2/s**2
 5 - dissipation rate, m**2/s**3
 6 - kinematic heat conductance, m**2/s
 7 - modulus of horizontal velocity, m/s
 8 - Richardson number, n/d
   -0.000000   -0.00000  0.1472E-11  0.4096E-13  0.8590E-16  0.1000E-09  0.0000E+00  0.2035E+17
   -0.037497    0.31891  0.0000E+00  0.4096E-13  0.8590E-16  0.1000E-09  0.0000E+00  0.1603E+17
   -0.074994    0.59248  0.1251E-12  0.4096E-13  0.8590E-16  0.1000E-09  0.0000E+00  0.1256E+17
   -0.112492    0.82440  0.8347E-13  0.4096E-13  0.8590E-16  0.1000E-09  0.0000E+00  0.9789E+16
   -0.149990    1.01842  0.9297E-13  0.4096E-13  0.8590E-16  0.1000E-09  0.0000E+00  0.7575E+16
   -0.187488    1.17823  0.9063E-13  0.4096E-13  0.8590E-16  0.1000E-09  0.0000E+00  0.5801E+16
   -0.224986    1.30740  0.9089E-13  0.4096E-13  0.8590E-16  0.1000E-09  0.0000E+00  0.4375E+16
   -0.262485    1.40931  0.9083E-13  0.4751E-13  0.8590E-16  0.1000E-09  0.0000E+00  0.3329E+16
   -0.299984    1.48979  0.9081E-13  0.1126E-12  0.9932E-16  0.1000E-09  0.0000E+00  0.2515E+16
   -0.337483    1.55245  0.9080E-13  0.3097E-12  0.1617E-15  0.1000E-09  0.0000E+00  0.1869E+16
   -0.374983    1.60017  0.9080E-13  0.8014E-12  0.3504E-15  0.1000E-09  0.0000E+00  0.1487E+16
   -0.412482    1.63889  0.9079E-13  0.1986E-11  0.8169E-15  0.1000E-09  0.0000E+00  0.1300E+16
   -0.449982    1.67334  0.9077E-13  0.4789E-11  0.1910E-14  0.1000E-09  0.0000E+00  0.1227E+16
   -0.487482    1.70641  0.9071E-13  0.1138E-10  0.4424E-14  0.1000E-09  0.0000E+00  0.1317E+16
   -0.524982    1.74252  0.9049E-13  0.2666E-10  0.1011E-13  0.1000E-09  0.0000E+00  0.1748E+16
   -0.562482    1.79139  0.8992E-13  0.6177E-10  0.2285E-13  0.1000E-09  0.0000E+00  0.2286E+16
   -0.599982    1.85709  0.8886E-13  0.1419E-09  0.5121E-13  0.1000E-09  0.0000E+00  0.2923E+16
   -0.637483    1.94440  0.8743E-13  0.3235E-09  0.1139E-12  0.1105E-09  0.0000E+00  0.3643E+16
   -0.674983    2.05914  0.8602E-13  0.7323E-09  0.2517E-12  0.1598E-09  0.0000E+00  0.4407E+16
   -0.712483    2.20854  0.8495E-13  0.1646E-08  0.5524E-12  0.2922E-09  0.0000E+00  0.5132E+16
   -0.749984    2.40146  0.8429E-13  0.3676E-08  0.1205E-11  0.5813E-09  0.0000E+00  0.5742E+16
   -0.787484    2.65220  0.8390E-13  0.8140E-08  0.2606E-11  0.1297E-08  0.0000E+00  0.5852E+16
   -0.824985    2.97393  0.8342E-13  0.1782E-07  0.5576E-11  0.3963E-08  0.0000E+00  0.4972E+16
   -0.862485    3.37792  0.8283E-13  0.3530E-07  0.1088E-10  0.2372E-05  0.0000E+00  0.2826E+16
   -0.899985    3.79052  0.8257E-13  0.4907E-07  0.1527E-10  0.3121E-04  0.0000E+00  0.8272E+15
   -0.937486    4.02006  0.8251E-13  0.5395E-07  0.1697E-10  0.5614E-04  0.0000E+00  0.3857E+14
   -0.974986    4.05579  0.8250E-13  0.5543E-07  0.1761E-10  0.6250E-04  0.0000E+00 -0.1574E+13
   -1.012486    4.05724  0.8250E-13  0.5648E-07  0.1822E-10  0.6238E-04  0.0000E+00 -0.1640E+13
   -1.049986    4.05871  0.8250E-13  0.5733E-07  0.1889E-10  0.6265E-04  0.0000E+00 -0.1691E+13
   -1.087485    4.06020  0.8250E-13  0.5794E-07  0.1962E-10  0.6363E-04  0.0000E+00 -0.1727E+13
   -1.124985    4.06169  0.8250E-13  0.5831E-07  0.2043E-10  0.6170E-04  0.0000E+00 -0.1835E+13
   -1.162484    4.06323  0.8250E-13  0.5842E-07  0.2136E-10  0.5764E-04  0.0000E+00 -0.2011E+13
   -1.199984    4.06489  0.8250E-13  0.5826E-07  0.2244E-10  0.5478E-04  0.0000E+00 -0.2169E+13
   -1.237483    4.06663  0.8250E-13  0.5777E-07  0.2371E-10  0.5139E-04  0.0000E+00 -0.2373E+13
   -1.274981    4.06850  0.8250E-13  0.5693E-07  0.2527E-10  0.4731E-04  0.0000E+00 -0.2650E+13
   -1.312480    4.07054  0.8250E-13  0.5564E-07  0.2727E-10  0.4253E-04  0.0000E+00 -0.3038E+13
   -1.349978    4.07281  0.8250E-13  0.5356E-07  0.3029E-10  0.3478E-04  0.0000E+00 -0.3829E+13
   -1.387476    4.07561  0.8250E-13  0.4990E-07  0.3587E-10  0.2073E-04  0.0000E+00 -0.6735E+13
   -1.424973    4.08031  0.8250E-13  0.4342E-07  0.4808E-10  0.1006E-04  0.0000E+00 -0.1495E+14
   -1.462471    4.09000  0.8250E-13  0.2825E-07  0.9891E-10  0.1634E-05  0.0000E+00 -0.1147E+15
   -1.499968    4.14577  0.8250E-13  0.0000E+00  0.0000E+00  0.0000E+00  0.0000E+00  0.0000E+00
