 1 - depth, m
 2 - temperature, C
 3 - salinity, kg/kg
 4 - turbulent kinetic energy, m**2/s**2
 5 - dissipation rate, m**2/s**3
 6 - kinematic heat conductance, m**2/s
 7 - modulus of horizontal velocity, m/s
 8 - Richardson number, n/d
   -0.000000    7.94183  0.9217E-13  0.1325E-04  0.8552E-06  0.2023E-04  0.2035E-01 -0.1260E-01
   -0.037498    7.97382  0.9217E-13  0.1074E-04  0.3268E-06  0.3667E-04  0.1245E-01 -0.3324E-01
   -0.074996    7.99030  0.9217E-13  0.9052E-05  0.1756E-06  0.5070E-04  0.9050E-02 -0.6114E-01
   -0.112494    8.00202  0.9217E-13  0.7803E-05  0.1087E-06  0.6453E-04  0.6935E-02 -0.1004E+00
   -0.149993    8.01106  0.9217E-13  0.6848E-05  0.7283E-07  0.7978E-04  0.5481E-02 -0.1560E+00
   -0.187492    8.01826  0.9217E-13  0.6117E-05  0.5153E-07  0.1004E-03  0.4439E-02 -0.1920E+00
   -0.224991    8.02390  0.9217E-13  0.5580E-05  0.3844E-07  0.1758E-03  0.3681E-02  0.1448E+04
   -0.262490    8.02742  0.9217E-13  0.5215E-05  0.3041E-07  0.2664E-03  0.3156E-02  0.1756E+03
   -0.299990    8.02965  0.9217E-13  0.4965E-05  0.2512E-07  0.3224E-03  0.2779E-02  0.7540E+02
   -0.337490    8.03132  0.9217E-13  0.4774E-05  0.2118E-07  0.3505E-03  0.2463E-02  0.2786E+01
   -0.374990    8.03284  0.9217E-13  0.4622E-05  0.1810E-07  0.3764E-03  0.2185E-02  0.2587E+01
   -0.412491    8.03423  0.9217E-13  0.4503E-05  0.1569E-07  0.3997E-03  0.1947E-02  0.2330E+01
   -0.449991    8.03553  0.9217E-13  0.4409E-05  0.1380E-07  0.4271E-03  0.1744E-02  0.2077E+01
   -0.487492    8.03672  0.9217E-13  0.4334E-05  0.1231E-07  0.4573E-03  0.1574E-02  0.1874E+01
   -0.524993    8.03783  0.9217E-13  0.4275E-05  0.1112E-07  0.4747E-03  0.1432E-02  0.1933E+01
   -0.562494    8.03888  0.9217E-13  0.4224E-05  0.1014E-07  0.4910E-03  0.1301E-02  0.1964E+01
   -0.599995    8.03988  0.9217E-13  0.4176E-05  0.9333E-08  0.5089E-03  0.1182E-02  0.1979E+01
   -0.637496    8.04083  0.9217E-13  0.4129E-05  0.8662E-08  0.5273E-03  0.1072E-02  0.1976E+01
   -0.674997    8.04174  0.9217E-13  0.4080E-05  0.8101E-08  0.5463E-03  0.9709E-03  0.1960E+01
   -0.712498    8.04261  0.9217E-13  0.4026E-05  0.7634E-08  0.5656E-03  0.8787E-03  0.1934E+01
   -0.750000    8.04344  0.9217E-13  0.3969E-05  0.7245E-08  0.5850E-03  0.7944E-03  0.1899E+01
   -0.787501    8.04422  0.9217E-13  0.3905E-05  0.6925E-08  0.6046E-03  0.7176E-03  0.1859E+01
   -0.825002    8.04498  0.9217E-13  0.3836E-05  0.6664E-08  0.6222E-03  0.6476E-03  0.1813E+01
   -0.862503    8.04570  0.9217E-13  0.3761E-05  0.6457E-08  0.6325E-03  0.5840E-03  0.1761E+01
   -0.900004    8.04641  0.9217E-13  0.3682E-05  0.6297E-08  0.6321E-03  0.5262E-03  0.1702E+01
   -0.937505    8.04710  0.9217E-13  0.3597E-05  0.6180E-08  0.6220E-03  0.4736E-03  0.1636E+01
   -0.975006    8.04780  0.9217E-13  0.3510E-05  0.6105E-08  0.6057E-03  0.4258E-03  0.1575E+01
   -1.012507    8.04850  0.9217E-13  0.3421E-05  0.6068E-08  0.5818E-03  0.3825E-03  0.1433E+01
   -1.050008    8.04923  0.9217E-13  0.3335E-05  0.6067E-08  0.5506E-03  0.3462E-03  0.1296E+01
   -1.087508    8.04999  0.9217E-13  0.3253E-05  0.6096E-08  0.5218E-03  0.3168E-03  0.1172E+01
   -1.125009    8.05079  0.9217E-13  0.3173E-05  0.6156E-08  0.4962E-03  0.2933E-03  0.1216E+01
   -1.162509    8.05161  0.9217E-13  0.3091E-05  0.6252E-08  0.4687E-03  0.2737E-03  0.1535E+01
   -1.200009    8.05248  0.9217E-13  0.3001E-05  0.6395E-08  0.4350E-03  0.2563E-03  0.2211E+01
   -1.237509    8.05341  0.9217E-13  0.2899E-05  0.6605E-08  0.3951E-03  0.2400E-03  0.3449E+01
   -1.275008    8.05442  0.9217E-13  0.2782E-05  0.6911E-08  0.3503E-03  0.2247E-03  0.5920E+01
   -1.312508    8.05554  0.9217E-13  0.2647E-05  0.7362E-08  0.3006E-03  0.2103E-03  0.1159E+02
   -1.350006    8.05684  0.9217E-13  0.2486E-05  0.8055E-08  0.2472E-03  0.1969E-03  0.2792E+02
   -1.387505    8.05841  0.9217E-13  0.2290E-05  0.9210E-08  0.1855E-03  0.1846E-03  0.9725E+02
   -1.425004    8.06047  0.9217E-13  0.2037E-05  0.1143E-07  0.1355E-03  0.1736E-03  0.5063E+03
   -1.462502    8.06326  0.9217E-13  0.1211E-05  0.2508E-07  0.9834E-05  0.1658E-03 -0.4734E+05
   -1.499999    8.10078  0.9217E-13  0.0000E+00  0.0000E+00  0.0000E+00  0.1651E-03  0.0000E+00
