 1 - depth, m
 2 - temperature, C
 3 - salinity, kg/kg
 4 - turbulent kinetic energy, m**2/s**2
 5 - dissipation rate, m**2/s**3
 6 - kinematic heat conductance, m**2/s
 7 - modulus of horizontal velocity, m/s
 8 - Richardson number, n/d
   -0.000000   -0.00000  0.3215E-12  0.6269E-12  0.1825E-15  0.1000E-09  0.0000E+00  0.1453E+17
   -0.037498    0.22479  0.2481E-12  0.9724E-12  0.2061E-15  0.1000E-09  0.0000E+00  0.1352E+17
   -0.074995    0.44750  0.2104E-12  0.1716E-11  0.3074E-15  0.1000E-09  0.0000E+00  0.1253E+17
   -0.112494    0.66806  0.1741E-12  0.3058E-11  0.5082E-15  0.1000E-09  0.0000E+00  0.1156E+17
   -0.149992    0.88639  0.1424E-12  0.5395E-11  0.8630E-15  0.1000E-09  0.0000E+00  0.1062E+17
   -0.187491    1.10235  0.1199E-12  0.9422E-11  0.1470E-14  0.1000E-09  0.0000E+00  0.9713E+16
   -0.224990    1.31581  0.1063E-12  0.1633E-10  0.2497E-14  0.1000E-09  0.0000E+00  0.8829E+16
   -0.262490    1.52662  0.9903E-13  0.2813E-10  0.4222E-14  0.1000E-09  0.0000E+00  0.7978E+16
   -0.299989    1.73477  0.9548E-13  0.4818E-10  0.7102E-14  0.1000E-09  0.0000E+00  0.7156E+16
   -0.337489    1.94014  0.9378E-13  0.8209E-10  0.1189E-13  0.1000E-09  0.0000E+00  0.6364E+16
   -0.374989    2.14259  0.9284E-13  0.1393E-09  0.1983E-13  0.1000E-09  0.0000E+00  0.5625E+16
   -0.412490    2.34285  0.9209E-13  0.2353E-09  0.3293E-13  0.1000E-09  0.0000E+00  0.4922E+16
   -0.449990    2.54135  0.9124E-13  0.3959E-09  0.5447E-13  0.1000E-09  0.0000E+00  0.4239E+16
   -0.487491    2.73801  0.9018E-13  0.6634E-09  0.8974E-13  0.1000E-09  0.0000E+00  0.3576E+16
   -0.524991    2.93274  0.8895E-13  0.1104E-08  0.1469E-12  0.1390E-09  0.0000E+00  0.2934E+16
   -0.562492    3.12543  0.8776E-13  0.1826E-08  0.2389E-12  0.2868E-09  0.0000E+00  0.2312E+16
   -0.599993    3.31589  0.8683E-13  0.3005E-08  0.3868E-12  0.6269E-09  0.0000E+00  0.1713E+16
   -0.637494    3.50381  0.8625E-13  0.4922E-08  0.6233E-12  0.1524E-08  0.0000E+00  0.1136E+16
   -0.674995    3.68844  0.8598E-13  0.8015E-08  0.9990E-12  0.4738E-08  0.0000E+00  0.5853E+15
   -0.712496    3.86690  0.8588E-13  0.1280E-07  0.1573E-11  0.4044E-07  0.0000E+00  0.1079E+15
   -0.749997    4.00861  0.8587E-13  0.1340E-07  0.1651E-11  0.4234E-04  0.0000E+00 -0.2138E+12
   -0.787498    4.00922  0.8587E-13  0.1367E-07  0.1693E-11  0.4167E-04  0.0000E+00 -0.2232E+12
   -0.825000    4.00983  0.8587E-13  0.1392E-07  0.1739E-11  0.4194E-04  0.0000E+00 -0.2281E+12
   -0.862501    4.01044  0.8587E-13  0.1414E-07  0.1787E-11  0.4207E-04  0.0000E+00 -0.2337E+12
   -0.900002    4.01105  0.8587E-13  0.1433E-07  0.1838E-11  0.4199E-04  0.0000E+00 -0.2405E+12
   -0.937503    4.01167  0.8587E-13  0.1448E-07  0.1893E-11  0.4169E-04  0.0000E+00 -0.2488E+12
   -0.975003    4.01228  0.8587E-13  0.1460E-07  0.1952E-11  0.4117E-04  0.0000E+00 -0.2586E+12
   -1.012504    4.01291  0.8587E-13  0.1469E-07  0.2017E-11  0.4044E-04  0.0000E+00 -0.2711E+12
   -1.050005    4.01355  0.8587E-13  0.1474E-07  0.2088E-11  0.3946E-04  0.0000E+00 -0.2863E+12
   -1.087505    4.01422  0.8587E-13  0.1476E-07  0.2168E-11  0.3823E-04  0.0000E+00 -0.3047E+12
   -1.125005    4.01491  0.8587E-13  0.1473E-07  0.2257E-11  0.3673E-04  0.0000E+00 -0.3266E+12
   -1.162505    4.01563  0.8587E-13  0.1466E-07  0.2360E-11  0.3495E-04  0.0000E+00 -0.3537E+12
   -1.200005    4.01639  0.8587E-13  0.1453E-07  0.2480E-11  0.3287E-04  0.0000E+00 -0.3879E+12
   -1.237505    4.01720  0.8587E-13  0.1431E-07  0.2635E-11  0.3037E-04  0.0000E+00 -0.4337E+12
   -1.275004    4.01808  0.8587E-13  0.1396E-07  0.2858E-11  0.2397E-04  0.0000E+00 -0.5700E+12
   -1.312504    4.01921  0.8587E-13  0.1342E-07  0.3175E-11  0.1816E-04  0.0000E+00 -0.7866E+12
   -1.350002    4.02070  0.8587E-13  0.1264E-07  0.3649E-11  0.1317E-04  0.0000E+00 -0.1147E+13
   -1.387501    4.02277  0.8587E-13  0.1145E-07  0.4453E-11  0.8223E-05  0.0000E+00 -0.1980E+13
   -1.424999    4.02609  0.8587E-13  0.9444E-08  0.6232E-11  0.3551E-05  0.0000E+00 -0.5170E+13
   -1.462497    4.03367  0.8587E-13  0.5562E-08  0.1298E-10  0.4760E-06  0.0000E+00 -0.5031E+14
   -1.499995    4.07943  0.8587E-13  0.0000E+00  0.0000E+00  0.0000E+00  0.0000E+00  0.0000E+00
