 1 - depth, m
 2 - temperature, C
 3 - salinity, kg/kg
 4 - turbulent kinetic energy, m**2/s**2
 5 - dissipation rate, m**2/s**3
 6 - kinematic heat conductance, m**2/s
 7 - modulus of horizontal velocity, m/s
 8 - Richardson number, n/d
   -0.000000    4.21691  0.8736E-13  0.1614E-03  0.6868E-04  0.5588E-04  0.1211E+00  0.8179E-02
   -0.037498    4.32065  0.8735E-13  0.8821E-04  0.1824E-04  0.1034E-03  0.3982E-01 -0.5011E-02
   -0.074996    4.33538  0.8735E-13  0.6352E-04  0.8203E-05  0.1008E-03  0.2929E-01 -0.2381E-02
   -0.112494    4.34683  0.8735E-13  0.4951E-04  0.4429E-05  0.1010E-03  0.2461E-01 -0.2367E-02
   -0.149993    4.35603  0.8735E-13  0.3953E-04  0.2540E-05  0.1035E-03  0.2114E-01 -0.3340E-02
   -0.187492    4.36420  0.8735E-13  0.3205E-04  0.1513E-05  0.1068E-03  0.1833E-01 -0.4448E-02
   -0.224991    4.37177  0.8735E-13  0.2635E-04  0.9324E-06  0.1104E-03  0.1599E-01 -0.5757E-02
   -0.262490    4.37891  0.8735E-13  0.2200E-04  0.5969E-06  0.1128E-03  0.1402E-01 -0.6998E-02
   -0.299990    4.38579  0.8735E-13  0.1859E-04  0.3966E-06  0.1147E-03  0.1230E-01 -0.8702E-02
   -0.337490    4.39246  0.8735E-13  0.1585E-04  0.2726E-06  0.1163E-03  0.1080E-01 -0.1114E-01
   -0.374990    4.39894  0.8735E-13  0.1360E-04  0.1928E-06  0.1177E-03  0.9507E-02 -0.1475E-01
   -0.412491    4.40522  0.8735E-13  0.1173E-04  0.1395E-06  0.1194E-03  0.8393E-02 -0.2039E-01
   -0.449991    4.41132  0.8735E-13  0.1019E-04  0.1030E-06  0.1218E-03  0.7447E-02 -0.2974E-01
   -0.487492    4.41720  0.8735E-13  0.8933E-05  0.7758E-07  0.1248E-03  0.6659E-02 -0.4375E-01
   -0.524993    4.42283  0.8735E-13  0.7937E-05  0.5990E-07  0.1258E-03  0.6003E-02 -0.4966E-01
   -0.562494    4.42832  0.8735E-13  0.7119E-05  0.4713E-07  0.1275E-03  0.5402E-02 -0.5744E-01
   -0.599995    4.43363  0.8735E-13  0.6431E-05  0.3768E-07  0.1298E-03  0.4855E-02 -0.6709E-01
   -0.637496    4.43875  0.8735E-13  0.5844E-05  0.3056E-07  0.1324E-03  0.4359E-02 -0.7860E-01
   -0.674997    4.44368  0.8735E-13  0.5335E-05  0.2508E-07  0.1354E-03  0.3910E-02 -0.7256E-01
   -0.712498    4.44842  0.8735E-13  0.4890E-05  0.2082E-07  0.1390E-03  0.3504E-02  0.1153E+01
   -0.749999    4.45297  0.8735E-13  0.4497E-05  0.1745E-07  0.1431E-03  0.3136E-02  0.3226E-01
   -0.787500    4.45733  0.8735E-13  0.4148E-05  0.1475E-07  0.1476E-03  0.2803E-02  0.3945E+01
   -0.825002    4.46152  0.8735E-13  0.3835E-05  0.1257E-07  0.1525E-03  0.2501E-02  0.2513E+01
   -0.862503    4.46553  0.8735E-13  0.3552E-05  0.1080E-07  0.1590E-03  0.2225E-02  0.1032E+01
   -0.900004    4.46936  0.8735E-13  0.3294E-05  0.9333E-08  0.1679E-03  0.1973E-02  0.9620E+01
   -0.937505    4.47300  0.8735E-13  0.3056E-05  0.8112E-08  0.1804E-03  0.1742E-02  0.3582E+03
   -0.975006    4.47645  0.8735E-13  0.2834E-05  0.7079E-08  0.1911E-03  0.1527E-02  0.1817E+03
   -1.012507    4.47971  0.8735E-13  0.2623E-05  0.6195E-08  0.2055E-03  0.1325E-02  0.2097E+03
   -1.050007    4.48275  0.8735E-13  0.2425E-05  0.5441E-08  0.2191E-03  0.1149E-02  0.2519E+03
   -1.087508    4.48556  0.8735E-13  0.2241E-05  0.4805E-08  0.2343E-03  0.9965E-03  0.2139E+03
   -1.125008    4.48814  0.8735E-13  0.2070E-05  0.4276E-08  0.2465E-03  0.8659E-03  0.1143E+03
   -1.162508    4.49053  0.8735E-13  0.1913E-05  0.3841E-08  0.2498E-03  0.7543E-03  0.3764E+02
   -1.200008    4.49281  0.8735E-13  0.1768E-05  0.3494E-08  0.2440E-03  0.6596E-03  0.6635E+02
   -1.237508    4.49505  0.8735E-13  0.1637E-05  0.3229E-08  0.2315E-03  0.5805E-03  0.1774E+03
   -1.275008    4.49733  0.8735E-13  0.1519E-05  0.3042E-08  0.2142E-03  0.5155E-03  0.1921E+03
   -1.312507    4.49972  0.8735E-13  0.1411E-05  0.2929E-08  0.1935E-03  0.4629E-03  0.1344E+03
   -1.350006    4.50231  0.8735E-13  0.1300E-05  0.2894E-08  0.1641E-03  0.4197E-03  0.1060E+04
   -1.387505    4.50536  0.8735E-13  0.1169E-05  0.2994E-08  0.1049E-03  0.3809E-03  0.1370E+05
   -1.425003    4.50984  0.8735E-13  0.9851E-06  0.3480E-08  0.4728E-04  0.3421E-03 -0.2954E+02
   -1.462501    4.51863  0.8735E-13  0.5211E-06  0.7001E-08  0.5582E-05  0.3069E-03 -0.4176E+04
   -1.499998    4.58810  0.8735E-13  0.0000E+00  0.0000E+00  0.0000E+00  0.3044E-03  0.0000E+00
