 1 - depth, m
 2 - temperature, C
 3 - salinity, kg/kg
 4 - turbulent kinetic energy, m**2/s**2
 5 - dissipation rate, m**2/s**3
 6 - kinematic heat conductance, m**2/s
 7 - modulus of horizontal velocity, m/s
 8 - Richardson number, n/d
   -0.000000   -0.00000  0.6560E-12  0.3897E-12  0.1001E-15  0.1000E-09  0.0000E+00  0.1421E+17
   -0.037497    0.21961  0.2877E-12  0.5791E-12  0.1110E-15  0.1000E-09  0.0000E+00  0.1320E+17
   -0.074995    0.43652  0.1891E-12  0.9828E-12  0.1597E-15  0.1000E-09  0.0000E+00  0.1222E+17
   -0.112493    0.65066  0.1495E-12  0.1698E-11  0.2554E-15  0.1000E-09  0.0000E+00  0.1127E+17
   -0.149992    0.86199  0.1267E-12  0.2914E-11  0.4211E-15  0.1000E-09  0.0000E+00  0.1036E+17
   -0.187491    1.07045  0.1119E-12  0.4955E-11  0.6979E-15  0.1000E-09  0.0000E+00  0.9477E+16
   -0.224990    1.27594  0.1028E-12  0.8367E-11  0.1155E-14  0.1000E-09  0.0000E+00  0.8631E+16
   -0.262489    1.47839  0.9756E-13  0.1404E-10  0.1903E-14  0.1000E-09  0.0000E+00  0.7819E+16
   -0.299989    1.67778  0.9467E-13  0.2343E-10  0.3120E-14  0.1000E-09  0.0000E+00  0.7041E+16
   -0.337488    1.87402  0.9300E-13  0.3891E-10  0.5093E-14  0.1000E-09  0.0000E+00  0.6295E+16
   -0.374988    2.06703  0.9184E-13  0.6436E-10  0.8282E-14  0.1000E-09  0.0000E+00  0.5601E+16
   -0.412488    2.25738  0.9083E-13  0.1060E-09  0.1341E-13  0.1000E-09  0.0000E+00  0.4943E+16
   -0.449989    2.44541  0.8980E-13  0.1739E-09  0.2165E-13  0.1000E-09  0.0000E+00  0.4309E+16
   -0.487489    2.63105  0.8877E-13  0.2843E-09  0.3480E-13  0.1000E-09  0.0000E+00  0.3699E+16
   -0.524990    2.81419  0.8781E-13  0.4616E-09  0.5559E-13  0.1000E-09  0.0000E+00  0.3112E+16
   -0.562491    2.99469  0.8702E-13  0.7451E-09  0.8829E-13  0.1004E-09  0.0000E+00  0.2551E+16
   -0.599991    3.17248  0.8646E-13  0.1197E-08  0.1396E-12  0.1924E-09  0.0000E+00  0.2013E+16
   -0.637492    3.34740  0.8613E-13  0.1915E-08  0.2197E-12  0.4063E-09  0.0000E+00  0.1502E+16
   -0.674993    3.51923  0.8597E-13  0.3051E-08  0.3446E-12  0.9418E-09  0.0000E+00  0.1016E+16
   -0.712494    3.68754  0.8591E-13  0.4839E-08  0.5380E-12  0.2679E-08  0.0000E+00  0.5576E+15
   -0.749995    3.85095  0.8588E-13  0.7598E-08  0.8325E-12  0.1622E-07  0.0000E+00  0.1426E+15
   -0.787496    3.99813  0.8588E-13  0.8205E-08  0.9020E-12  0.2616E-04  0.0000E+00 -0.1677E+12
   -0.824997    3.99900  0.8588E-13  0.8488E-08  0.9406E-12  0.2942E-04  0.0000E+00 -0.1594E+12
   -0.862498    3.99978  0.8588E-13  0.8725E-08  0.9786E-12  0.3030E-04  0.0000E+00 -0.1640E+12
   -0.899999    4.00054  0.8588E-13  0.8923E-08  0.1017E-11  0.3049E-04  0.0000E+00 -0.1720E+12
   -0.937500    4.00129  0.8588E-13  0.9092E-08  0.1056E-11  0.3051E-04  0.0000E+00 -0.1809E+12
   -0.975001    4.00204  0.8588E-13  0.9236E-08  0.1098E-11  0.3034E-04  0.0000E+00 -0.1911E+12
   -1.012501    4.00280  0.8588E-13  0.9358E-08  0.1143E-11  0.2998E-04  0.0000E+00 -0.2034E+12
   -1.050002    4.00357  0.8588E-13  0.9455E-08  0.1194E-11  0.2940E-04  0.0000E+00 -0.2180E+12
   -1.087502    4.00436  0.8588E-13  0.9527E-08  0.1250E-11  0.2860E-04  0.0000E+00 -0.2355E+12
   -1.125002    4.00517  0.8588E-13  0.9570E-08  0.1316E-11  0.2752E-04  0.0000E+00 -0.2568E+12
   -1.162502    4.00602  0.8588E-13  0.9577E-08  0.1399E-11  0.2587E-04  0.0000E+00 -0.2868E+12
   -1.200002    4.00693  0.8588E-13  0.9534E-08  0.1503E-11  0.2247E-04  0.0000E+00 -0.3476E+12
   -1.237502    4.00798  0.8588E-13  0.9425E-08  0.1634E-11  0.1895E-04  0.0000E+00 -0.4362E+12
   -1.275001    4.00923  0.8588E-13  0.9230E-08  0.1804E-11  0.1580E-04  0.0000E+00 -0.5580E+12
   -1.312500    4.01074  0.8588E-13  0.8916E-08  0.2034E-11  0.1264E-04  0.0000E+00 -0.7502E+12
   -1.349999    4.01263  0.8588E-13  0.8425E-08  0.2373E-11  0.9276E-05  0.0000E+00 -0.1116E+13
   -1.387497    4.01521  0.8588E-13  0.7640E-08  0.2948E-11  0.5767E-05  0.0000E+00 -0.2010E+13
   -1.424995    4.01935  0.8588E-13  0.6281E-08  0.4209E-11  0.2463E-05  0.0000E+00 -0.5609E+13
   -1.462493    4.02883  0.8588E-13  0.3870E-08  0.8607E-11  0.3742E-06  0.0000E+00 -0.5041E+14
   -1.499991    4.07714  0.8588E-13  0.0000E+00  0.0000E+00  0.0000E+00  0.0000E+00  0.0000E+00
