 1 - depth, m
 2 - temperature, C
 3 - salinity, kg/kg
 4 - turbulent kinetic energy, m**2/s**2
 5 - dissipation rate, m**2/s**3
 6 - kinematic heat conductance, m**2/s
 7 - modulus of horizontal velocity, m/s
 8 - Richardson number, n/d
   -0.000000   -0.00000  0.5152E-12  0.4096E-13  0.8590E-16  0.1000E-09  0.0000E+00  0.1263E+17
   -0.037498    0.19457  0.4416E-12  0.4096E-13  0.8590E-16  0.1000E-09  0.0000E+00  0.1183E+17
   -0.074996    0.38689  0.2939E-12  0.5764E-13  0.8590E-16  0.1000E-09  0.0000E+00  0.1104E+17
   -0.112494    0.57691  0.1799E-12  0.2384E-12  0.8590E-16  0.1000E-09  0.0000E+00  0.1029E+17
   -0.149993    0.76461  0.1234E-12  0.5863E-12  0.1178E-15  0.1000E-09  0.0000E+00  0.9558E+16
   -0.187492    0.94994  0.1022E-12  0.1166E-11  0.1927E-15  0.1000E-09  0.0000E+00  0.8853E+16
   -0.224991    1.13290  0.9577E-13  0.2126E-11  0.3257E-15  0.1000E-09  0.0000E+00  0.8172E+16
   -0.262491    1.31345  0.9410E-13  0.3726E-11  0.5502E-15  0.1000E-09  0.0000E+00  0.7531E+16
   -0.299990    1.49192  0.9372E-13  0.6404E-11  0.9232E-15  0.1000E-09  0.0000E+00  0.6914E+16
   -0.337490    1.66839  0.9363E-13  0.1089E-10  0.1540E-14  0.1000E-09  0.0000E+00  0.6319E+16
   -0.374990    1.84285  0.9359E-13  0.1840E-10  0.2556E-14  0.1000E-09  0.0000E+00  0.5800E+16
   -0.412491    2.01706  0.9352E-13  0.3093E-10  0.4224E-14  0.1000E-09  0.0000E+00  0.5320E+16
   -0.449991    2.19219  0.9338E-13  0.5177E-10  0.6952E-14  0.1000E-09  0.0000E+00  0.4837E+16
   -0.487492    2.36831  0.9311E-13  0.8632E-10  0.1140E-13  0.1000E-09  0.0000E+00  0.4349E+16
   -0.524993    2.54546  0.9264E-13  0.1429E-09  0.1857E-13  0.1000E-09  0.0000E+00  0.3853E+16
   -0.562494    2.72353  0.9193E-13  0.2353E-09  0.3007E-13  0.1000E-09  0.0000E+00  0.3352E+16
   -0.599995    2.90250  0.9099E-13  0.3855E-09  0.4849E-13  0.1000E-09  0.0000E+00  0.2845E+16
   -0.637496    3.08235  0.8987E-13  0.6291E-09  0.7787E-13  0.1000E-09  0.0000E+00  0.2332E+16
   -0.674997    3.26298  0.8866E-13  0.1023E-08  0.1246E-12  0.1906E-09  0.0000E+00  0.1814E+16
   -0.712498    3.44419  0.8747E-13  0.1656E-08  0.1986E-12  0.4265E-09  0.0000E+00  0.1293E+16
   -0.750000    3.62566  0.8635E-13  0.2671E-08  0.3154E-12  0.1135E-08  0.0000E+00  0.7712E+15
   -0.787501    3.80731  0.8549E-13  0.4283E-08  0.4981E-12  0.5496E-08  0.0000E+00  0.2514E+15
   -0.825002    3.98467  0.8519E-13  0.5121E-08  0.5984E-12  0.5890E-05  0.0000E+00 -0.3562E+11
   -0.862503    3.98899  0.8518E-13  0.5625E-08  0.6720E-12  0.1049E-04  0.0000E+00 -0.1518E+12
   -0.900004    3.99146  0.8518E-13  0.6078E-08  0.7482E-12  0.1316E-04  0.0000E+00 -0.1914E+12
   -0.937505    3.99344  0.8518E-13  0.6503E-08  0.8294E-12  0.1499E-04  0.0000E+00 -0.2209E+12
   -0.975006    3.99520  0.8518E-13  0.6902E-08  0.9166E-12  0.1624E-04  0.0000E+00 -0.2490E+12
   -1.012507    3.99684  0.8518E-13  0.7274E-08  0.1011E-11  0.1707E-04  0.0000E+00 -0.2798E+12
   -1.050008    3.99841  0.8518E-13  0.7621E-08  0.1115E-11  0.1752E-04  0.0000E+00 -0.3152E+12
   -1.087509    3.99998  0.8518E-13  0.7938E-08  0.1230E-11  0.1759E-04  0.0000E+00 -0.3576E+12
   -1.125009    4.00155  0.8518E-13  0.8218E-08  0.1359E-11  0.1726E-04  0.0000E+00 -0.4095E+12
   -1.162509    4.00318  0.8518E-13  0.8456E-08  0.1506E-11  0.1656E-04  0.0000E+00 -0.4763E+12
   -1.200009    4.00490  0.8518E-13  0.8640E-08  0.1677E-11  0.1551E-04  0.0000E+00 -0.5659E+12
   -1.237509    4.00675  0.8518E-13  0.8758E-08  0.1883E-11  0.1411E-04  0.0000E+00 -0.6923E+12
   -1.275008    4.00881  0.8518E-13  0.8788E-08  0.2141E-11  0.1236E-04  0.0000E+00 -0.8830E+12
   -1.312508    4.01118  0.8518E-13  0.8696E-08  0.2481E-11  0.1024E-04  0.0000E+00 -0.1199E+13
   -1.350007    4.01409  0.8518E-13  0.8422E-08  0.2970E-11  0.7779E-05  0.0000E+00 -0.1800E+13
   -1.387505    4.01796  0.8518E-13  0.7848E-08  0.3777E-11  0.5051E-05  0.0000E+00 -0.3254E+13
   -1.425004    4.02395  0.8518E-13  0.6706E-08  0.5488E-11  0.2325E-05  0.0000E+00 -0.8869E+13
   -1.462502    4.03681  0.8518E-13  0.4547E-08  0.1119E-10  0.4369E-06  0.0000E+00 -0.6862E+14
   -1.499999    4.09271  0.8518E-13  0.0000E+00  0.0000E+00  0.0000E+00  0.0000E+00  0.0000E+00
