 1 - depth, m
 2 - temperature, C
 3 - salinity, kg/kg
 4 - turbulent kinetic energy, m**2/s**2
 5 - dissipation rate, m**2/s**3
 6 - kinematic heat conductance, m**2/s
 7 - modulus of horizontal velocity, m/s
 8 - Richardson number, n/d
   -0.000000   -0.00000  0.9898E-12  0.4096E-13  0.8590E-16  0.1000E-09  0.0000E+00  0.1322E+17
   -0.037498    0.20387  0.4104E-12  0.4096E-13  0.8590E-16  0.1000E-09  0.0000E+00  0.1242E+17
   -0.074996    0.40670  0.1870E-12  0.4096E-13  0.8590E-16  0.1000E-09  0.0000E+00  0.1162E+17
   -0.112494    0.60814  0.1278E-12  0.1949E-12  0.8590E-16  0.1000E-09  0.0000E+00  0.1082E+17
   -0.149993    0.80789  0.1096E-12  0.5153E-12  0.1148E-15  0.1000E-09  0.0000E+00  0.1003E+17
   -0.187492    1.00564  0.1013E-12  0.1061E-11  0.1900E-15  0.1000E-09  0.0000E+00  0.9250E+16
   -0.224991    1.20111  0.9671E-13  0.1980E-11  0.3271E-15  0.1000E-09  0.0000E+00  0.8486E+16
   -0.262490    1.39403  0.9395E-13  0.3541E-11  0.5631E-15  0.1000E-09  0.0000E+00  0.7744E+16
   -0.299990    1.58418  0.9218E-13  0.6201E-11  0.9621E-15  0.1000E-09  0.0000E+00  0.7024E+16
   -0.337490    1.77133  0.9090E-13  0.1074E-10  0.1634E-14  0.1000E-09  0.0000E+00  0.6329E+16
   -0.374990    1.95524  0.8983E-13  0.1848E-10  0.2759E-14  0.1000E-09  0.0000E+00  0.5671E+16
   -0.412490    2.13606  0.8887E-13  0.3162E-10  0.4638E-14  0.1000E-09  0.0000E+00  0.5045E+16
   -0.449991    2.31384  0.8802E-13  0.5386E-10  0.7762E-14  0.1000E-09  0.0000E+00  0.4445E+16
   -0.487492    2.48837  0.8730E-13  0.9134E-10  0.1294E-13  0.1000E-09  0.0000E+00  0.3872E+16
   -0.524992    2.65949  0.8674E-13  0.1538E-09  0.2142E-13  0.1000E-09  0.0000E+00  0.3330E+16
   -0.562493    2.82716  0.8635E-13  0.2573E-09  0.3523E-13  0.1000E-09  0.0000E+00  0.2817E+16
   -0.599994    2.99131  0.8611E-13  0.4284E-09  0.5769E-13  0.1000E-09  0.0000E+00  0.2335E+16
   -0.637495    3.15190  0.8598E-13  0.7102E-09  0.9405E-13  0.1388E-09  0.0000E+00  0.1882E+16
   -0.674997    3.30891  0.8592E-13  0.1172E-08  0.1527E-12  0.2910E-09  0.0000E+00  0.1457E+16
   -0.712498    3.46229  0.8589E-13  0.1927E-08  0.2469E-12  0.6465E-09  0.0000E+00  0.1061E+16
   -0.749999    3.61193  0.8589E-13  0.3154E-08  0.3976E-12  0.1593E-08  0.0000E+00  0.6930E+15
   -0.787500    3.75802  0.8588E-13  0.5131E-08  0.6367E-12  0.5073E-08  0.0000E+00  0.3488E+15
   -0.825001    3.89854  0.8588E-13  0.8163E-08  0.9993E-12  0.4852E-07  0.0000E+00  0.5763E+14
   -0.862503    4.00557  0.8588E-13  0.8830E-08  0.1085E-11  0.2922E-04  0.0000E+00 -0.2116E+12
   -0.900004    4.00626  0.8588E-13  0.9107E-08  0.1127E-11  0.2918E-04  0.0000E+00 -0.2194E+12
   -0.937505    4.00695  0.8588E-13  0.9325E-08  0.1168E-11  0.2945E-04  0.0000E+00 -0.2251E+12
   -0.975006    4.00763  0.8588E-13  0.9509E-08  0.1210E-11  0.2953E-04  0.0000E+00 -0.2321E+12
   -1.012506    4.00832  0.8588E-13  0.9661E-08  0.1256E-11  0.2939E-04  0.0000E+00 -0.2415E+12
   -1.050007    4.00900  0.8588E-13  0.9781E-08  0.1305E-11  0.2901E-04  0.0000E+00 -0.2534E+12
   -1.087508    4.00971  0.8588E-13  0.9867E-08  0.1359E-11  0.2840E-04  0.0000E+00 -0.2682E+12
   -1.125008    4.01043  0.8588E-13  0.9917E-08  0.1419E-11  0.2753E-04  0.0000E+00 -0.2866E+12
   -1.162508    4.01117  0.8588E-13  0.9926E-08  0.1492E-11  0.2635E-04  0.0000E+00 -0.3104E+12
   -1.200008    4.01196  0.8588E-13  0.9880E-08  0.1587E-11  0.2384E-04  0.0000E+00 -0.3562E+12
   -1.237508    4.01283  0.8588E-13  0.9760E-08  0.1708E-11  0.2001E-04  0.0000E+00 -0.4423E+12
   -1.275007    4.01388  0.8588E-13  0.9545E-08  0.1866E-11  0.1658E-04  0.0000E+00 -0.5596E+12
   -1.312506    4.01514  0.8588E-13  0.9203E-08  0.2079E-11  0.1329E-04  0.0000E+00 -0.7380E+12
   -1.350005    4.01673  0.8588E-13  0.8676E-08  0.2393E-11  0.9784E-05  0.0000E+00 -0.1071E+13
   -1.387504    4.01890  0.8588E-13  0.7843E-08  0.2925E-11  0.6101E-05  0.0000E+00 -0.1871E+13
   -1.425002    4.02238  0.8588E-13  0.6410E-08  0.4100E-11  0.2592E-05  0.0000E+00 -0.5039E+13
   -1.462500    4.03041  0.8588E-13  0.3823E-08  0.8295E-11  0.3635E-06  0.0000E+00 -0.4549E+14
   -1.499998    4.07439  0.8588E-13  0.0000E+00  0.0000E+00  0.0000E+00  0.0000E+00  0.0000E+00
