 1 - depth, m
 2 - temperature, C
 3 - salinity, kg/kg
 4 - turbulent kinetic energy, m**2/s**2
 5 - dissipation rate, m**2/s**3
 6 - kinematic heat conductance, m**2/s
 7 - modulus of horizontal velocity, m/s
 8 - Richardson number, n/d
   -0.000000    8.55881  0.8827E-13  0.1676E-04  0.1305E-05  0.2135E-04  0.2402E-01 -0.1116E-01
   -0.037498    8.59285  0.8827E-13  0.1332E-04  0.4719E-06  0.3939E-04  0.1448E-01 -0.3062E-01
   -0.074996    8.60945  0.8827E-13  0.1118E-04  0.2483E-06  0.5466E-04  0.1063E-01 -0.5583E-01
   -0.112494    8.62123  0.8827E-13  0.9625E-05  0.1522E-06  0.6944E-04  0.8227E-02 -0.9050E-01
   -0.149993    8.63035  0.8827E-13  0.8439E-05  0.1015E-06  0.8545E-04  0.6567E-02 -0.1385E+00
   -0.187492    8.63764  0.8827E-13  0.7522E-05  0.7152E-07  0.1074E-03  0.5369E-02 -0.1463E+00
   -0.224991    8.64338  0.8827E-13  0.6841E-05  0.5313E-07  0.1798E-03  0.4488E-02  0.1534E+03
   -0.262490    8.64721  0.8827E-13  0.6370E-05  0.4183E-07  0.2822E-03  0.3871E-02  0.7913E+02
   -0.299990    8.64956  0.8827E-13  0.6036E-05  0.3424E-07  0.3333E-03  0.3419E-02  0.5396E+02
   -0.337490    8.65138  0.8827E-13  0.5778E-05  0.2863E-07  0.3713E-03  0.3030E-02  0.3214E+01
   -0.374990    8.65293  0.8827E-13  0.5576E-05  0.2433E-07  0.3870E-03  0.2700E-02  0.2835E+01
   -0.412491    8.65439  0.8827E-13  0.5413E-05  0.2095E-07  0.4088E-03  0.2411E-02  0.2549E+01
   -0.449991    8.65576  0.8827E-13  0.5283E-05  0.1830E-07  0.4337E-03  0.2164E-02  0.2241E+01
   -0.487492    8.65703  0.8827E-13  0.5180E-05  0.1620E-07  0.4619E-03  0.1956E-02  0.2001E+01
   -0.524993    8.65822  0.8827E-13  0.5097E-05  0.1454E-07  0.4780E-03  0.1781E-02  0.2074E+01
   -0.562493    8.65934  0.8827E-13  0.5025E-05  0.1317E-07  0.4937E-03  0.1619E-02  0.2116E+01
   -0.599994    8.66041  0.8827E-13  0.4959E-05  0.1204E-07  0.5109E-03  0.1470E-02  0.2136E+01
   -0.637496    8.66143  0.8827E-13  0.4895E-05  0.1110E-07  0.5285E-03  0.1333E-02  0.2134E+01
   -0.674997    8.66240  0.8827E-13  0.4828E-05  0.1032E-07  0.5463E-03  0.1207E-02  0.2116E+01
   -0.712498    8.66333  0.8827E-13  0.4756E-05  0.9661E-08  0.5639E-03  0.1091E-02  0.2084E+01
   -0.749999    8.66422  0.8827E-13  0.4678E-05  0.9112E-08  0.5811E-03  0.9847E-03  0.2042E+01
   -0.787500    8.66507  0.8827E-13  0.4593E-05  0.8656E-08  0.5978E-03  0.8876E-03  0.1992E+01
   -0.825001    8.66588  0.8827E-13  0.4501E-05  0.8282E-08  0.6140E-03  0.7989E-03  0.1938E+01
   -0.862503    8.66666  0.8827E-13  0.4401E-05  0.7980E-08  0.6296E-03  0.7180E-03  0.1879E+01
   -0.900004    8.66741  0.8827E-13  0.4294E-05  0.7744E-08  0.6453E-03  0.6442E-03  0.1819E+01
   -0.937505    8.66814  0.8827E-13  0.4181E-05  0.7567E-08  0.6579E-03  0.5771E-03  0.1756E+01
   -0.975006    8.66884  0.8827E-13  0.4063E-05  0.7446E-08  0.6500E-03  0.5158E-03  0.1692E+01
   -1.012506    8.66953  0.8827E-13  0.3944E-05  0.7378E-08  0.6278E-03  0.4603E-03  0.1533E+01
   -1.050007    8.67024  0.8827E-13  0.3828E-05  0.7360E-08  0.5954E-03  0.4137E-03  0.1380E+01
   -1.087508    8.67098  0.8827E-13  0.3718E-05  0.7387E-08  0.5570E-03  0.3759E-03  0.1236E+01
   -1.125008    8.67176  0.8827E-13  0.3615E-05  0.7452E-08  0.5245E-03  0.3456E-03  0.1108E+01
   -1.162508    8.67258  0.8827E-13  0.3515E-05  0.7558E-08  0.4966E-03  0.3218E-03  0.1223E+01
   -1.200008    8.67344  0.8827E-13  0.3409E-05  0.7719E-08  0.4630E-03  0.3017E-03  0.1675E+01
   -1.237508    8.67434  0.8827E-13  0.3291E-05  0.7959E-08  0.4215E-03  0.2834E-03  0.2574E+01
   -1.275007    8.67532  0.8827E-13  0.3156E-05  0.8313E-08  0.3738E-03  0.2661E-03  0.4377E+01
   -1.312507    8.67642  0.8827E-13  0.3000E-05  0.8841E-08  0.3208E-03  0.2498E-03  0.8482E+01
   -1.350006    8.67767  0.8827E-13  0.2817E-05  0.9659E-08  0.2639E-03  0.2347E-03  0.2017E+02
   -1.387504    8.67918  0.8827E-13  0.2593E-05  0.1103E-07  0.1976E-03  0.2208E-03  0.6899E+02
   -1.425003    8.68116  0.8827E-13  0.2306E-05  0.1367E-07  0.1452E-03  0.2083E-03  0.3462E+03
   -1.462501    8.68382  0.8827E-13  0.1366E-05  0.3003E-07  0.1045E-04  0.1994E-03 -0.3544E+05
   -1.499998    8.71971  0.8827E-13  0.0000E+00  0.0000E+00  0.0000E+00  0.1985E-03  0.0000E+00
