 1 - depth, m
 2 - temperature, C
 3 - salinity, kg/kg
 4 - turbulent kinetic energy, m**2/s**2
 5 - dissipation rate, m**2/s**3
 6 - kinematic heat conductance, m**2/s
 7 - modulus of horizontal velocity, m/s
 8 - Richardson number, n/d
   -0.000000    9.15115  0.9260E-13  0.4715E-04  0.1010E-04  0.3438E-04  0.4930E-01 -0.1540E+00
   -0.037498    9.19347  0.9260E-13  0.2968E-04  0.2985E-05  0.5033E-04  0.2238E-01 -0.1620E+00
   -0.074996    9.20525  0.9260E-13  0.2285E-04  0.1382E-05  0.6193E-04  0.1680E-01 -0.2953E-01
   -0.112495    9.21378  0.9260E-13  0.1850E-04  0.7368E-06  0.7285E-04  0.1349E-01 -0.4205E-01
   -0.149993    9.22075  0.9260E-13  0.1537E-04  0.4295E-06  0.8363E-04  0.1110E-01 -0.6236E-01
   -0.187492    9.22672  0.9260E-13  0.1302E-04  0.2683E-06  0.9469E-04  0.9256E-02 -0.9014E-01
   -0.224992    9.23193  0.9260E-13  0.1121E-04  0.1772E-06  0.1070E-03  0.7811E-02 -0.1270E+00
   -0.262492    9.23650  0.9260E-13  0.9830E-05  0.1228E-06  0.1249E-03  0.6671E-02 -0.7587E-01
   -0.299992    9.24043  0.9260E-13  0.8760E-05  0.8871E-07  0.1892E-03  0.5747E-02  0.1906E+04
   -0.337492    9.24345  0.9260E-13  0.7928E-05  0.6653E-07  0.2461E-03  0.5021E-02  0.3778E+02
   -0.374992    9.24586  0.9260E-13  0.7271E-05  0.5147E-07  0.2976E-03  0.4427E-02  0.2598E+02
   -0.412493    9.24782  0.9260E-13  0.6749E-05  0.4092E-07  0.3337E-03  0.3939E-02  0.7492E+02
   -0.449993    9.24944  0.9260E-13  0.6337E-05  0.3338E-07  0.3754E-03  0.3535E-02  0.3556E+02
   -0.487494    9.25078  0.9260E-13  0.6015E-05  0.2790E-07  0.4092E-03  0.3204E-02  0.3080E+02
   -0.524995    9.25192  0.9260E-13  0.5763E-05  0.2381E-07  0.4245E-03  0.2926E-02  0.1939E+03
   -0.562496    9.25297  0.9260E-13  0.5558E-05  0.2064E-07  0.4368E-03  0.2670E-02  0.4088E+01
   -0.599997    9.25396  0.9260E-13  0.5386E-05  0.1812E-07  0.4478E-03  0.2434E-02  0.2595E+01
   -0.637499    9.25491  0.9260E-13  0.5235E-05  0.1609E-07  0.4584E-03  0.2215E-02  0.2663E+01
   -0.675000    9.25583  0.9260E-13  0.5099E-05  0.1443E-07  0.4691E-03  0.2011E-02  0.3555E+01
   -0.712501    9.25671  0.9260E-13  0.4972E-05  0.1305E-07  0.4798E-03  0.1823E-02  0.2702E+01
   -0.750003    9.25756  0.9260E-13  0.4848E-05  0.1190E-07  0.4902E-03  0.1648E-02  0.2684E+01
   -0.787504    9.25838  0.9260E-13  0.4725E-05  0.1093E-07  0.5000E-03  0.1486E-02  0.2649E+01
   -0.825006    9.25917  0.9260E-13  0.4600E-05  0.1012E-07  0.5090E-03  0.1335E-02  0.2601E+01
   -0.862507    9.25994  0.9260E-13  0.4471E-05  0.9444E-08  0.5169E-03  0.1195E-02  0.2546E+01
   -0.900008    9.26069  0.9260E-13  0.4335E-05  0.8876E-08  0.5233E-03  0.1065E-02  0.2486E+01
   -0.937509    9.26142  0.9260E-13  0.4193E-05  0.8406E-08  0.5280E-03  0.9444E-03  0.2423E+01
   -0.975010    9.26213  0.9260E-13  0.4044E-05  0.8024E-08  0.5298E-03  0.8318E-03  0.2372E+01
   -1.012511    9.26284  0.9260E-13  0.3889E-05  0.7727E-08  0.5342E-03  0.7268E-03  0.2077E+01
   -1.050012    9.26353  0.9260E-13  0.3735E-05  0.7516E-08  0.5331E-03  0.6369E-03  0.1808E+01
   -1.087513    9.26421  0.9260E-13  0.3586E-05  0.7385E-08  0.5164E-03  0.5622E-03  0.1576E+01
   -1.125014    9.26490  0.9260E-13  0.3444E-05  0.7330E-08  0.4854E-03  0.5014E-03  0.1367E+01
   -1.162514    9.26562  0.9260E-13  0.3314E-05  0.7345E-08  0.4503E-03  0.4529E-03  0.1224E+01
   -1.200014    9.26639  0.9260E-13  0.3191E-05  0.7424E-08  0.4176E-03  0.4149E-03  0.1277E+01
   -1.237514    9.26721  0.9260E-13  0.3069E-05  0.7578E-08  0.3844E-03  0.3848E-03  0.1719E+01
   -1.275014    9.26810  0.9260E-13  0.2937E-05  0.7836E-08  0.3451E-03  0.3592E-03  0.2838E+01
   -1.312513    9.26907  0.9260E-13  0.2788E-05  0.8251E-08  0.2985E-03  0.3358E-03  0.5486E+01
   -1.350012    9.27018  0.9260E-13  0.2613E-05  0.8928E-08  0.2469E-03  0.3143E-03  0.1306E+02
   -1.387511    9.27150  0.9260E-13  0.2402E-05  0.1010E-07  0.1863E-03  0.2946E-03  0.4497E+02
   -1.425010    9.27324  0.9260E-13  0.2132E-05  0.1242E-07  0.1367E-03  0.2771E-03  0.2319E+03
   -1.462508    9.27557  0.9260E-13  0.1266E-05  0.2685E-07  0.1008E-04  0.2646E-03 -0.2566E+05
   -1.500006    9.30633  0.9260E-13  0.0000E+00  0.0000E+00  0.0000E+00  0.2630E-03  0.0000E+00
