 1 - depth, m
 2 - temperature, C
 3 - salinity, kg/kg
 4 - turbulent kinetic energy, m**2/s**2
 5 - dissipation rate, m**2/s**3
 6 - kinematic heat conductance, m**2/s
 7 - modulus of horizontal velocity, m/s
 8 - Richardson number, n/d
   -0.000000   -0.00000  0.8088E-12  0.4096E-13  0.8590E-16  0.1000E-09  0.0000E+00  0.1227E+17
   -0.037497    0.18884  0.3875E-12  0.4096E-13  0.8590E-16  0.1000E-09  0.0000E+00  0.1151E+17
   -0.074995    0.37557  0.2568E-12  0.4096E-13  0.8590E-16  0.1000E-09  0.0000E+00  0.1077E+17
   -0.112494    0.56016  0.1925E-12  0.4096E-13  0.8590E-16  0.1000E-09  0.0000E+00  0.1006E+17
   -0.149992    0.74255  0.1528E-12  0.4096E-13  0.8590E-16  0.1000E-09  0.0000E+00  0.9367E+16
   -0.187491    0.92270  0.1268E-12  0.4502E-13  0.8590E-16  0.1000E-09  0.0000E+00  0.8696E+16
   -0.224990    1.10053  0.1103E-12  0.2126E-12  0.8590E-16  0.1000E-09  0.0000E+00  0.8046E+16
   -0.262489    1.27598  0.1006E-12  0.5465E-12  0.1243E-15  0.1000E-09  0.0000E+00  0.7420E+16
   -0.299989    1.44902  0.9522E-13  0.1123E-11  0.2137E-15  0.1000E-09  0.0000E+00  0.6816E+16
   -0.337489    1.61958  0.9242E-13  0.2116E-11  0.3769E-15  0.1000E-09  0.0000E+00  0.6232E+16
   -0.374989    1.78759  0.9092E-13  0.3844E-11  0.6622E-15  0.1000E-09  0.0000E+00  0.5689E+16
   -0.412489    1.95350  0.9000E-13  0.6864E-11  0.1155E-14  0.1000E-09  0.0000E+00  0.5173E+16
   -0.449989    2.11757  0.8925E-13  0.1214E-10  0.2003E-14  0.1000E-09  0.0000E+00  0.4673E+16
   -0.487490    2.27973  0.8848E-13  0.2134E-10  0.3456E-14  0.1000E-09  0.0000E+00  0.4188E+16
   -0.524990    2.43989  0.8763E-13  0.3719E-10  0.5914E-14  0.1000E-09  0.0000E+00  0.3718E+16
   -0.562491    2.59788  0.8673E-13  0.6435E-10  0.1005E-13  0.1000E-09  0.0000E+00  0.3266E+16
   -0.599992    2.75366  0.8581E-13  0.1108E-09  0.1700E-13  0.1000E-09  0.0000E+00  0.2831E+16
   -0.637493    2.90717  0.8496E-13  0.1897E-09  0.2861E-13  0.1000E-09  0.0000E+00  0.2415E+16
   -0.674994    3.05836  0.8424E-13  0.3235E-09  0.4793E-13  0.1000E-09  0.0000E+00  0.2017E+16
   -0.712495    3.20719  0.8371E-13  0.5491E-09  0.7996E-13  0.1356E-09  0.0000E+00  0.1637E+16
   -0.749996    3.35359  0.8338E-13  0.9279E-09  0.1328E-12  0.2884E-09  0.0000E+00  0.1278E+16
   -0.787497    3.49788  0.8319E-13  0.1561E-08  0.2197E-12  0.6519E-09  0.0000E+00  0.9354E+15
   -0.824998    3.64000  0.8311E-13  0.2614E-08  0.3618E-12  0.1655E-08  0.0000E+00  0.6065E+15
   -0.862499    3.77932  0.8308E-13  0.4349E-08  0.5921E-12  0.5579E-08  0.0000E+00  0.2944E+15
   -0.900000    3.91316  0.8307E-13  0.7021E-08  0.9435E-12  0.6701E-07  0.0000E+00  0.3881E+14
   -0.937501    4.00638  0.8307E-13  0.7776E-08  0.1050E-11  0.2282E-04  0.0000E+00 -0.2706E+12
   -0.975002    4.00722  0.8307E-13  0.8109E-08  0.1106E-11  0.2426E-04  0.0000E+00 -0.2655E+12
   -1.012502    4.00802  0.8307E-13  0.8373E-08  0.1162E-11  0.2445E-04  0.0000E+00 -0.2750E+12
   -1.050003    4.00881  0.8307E-13  0.8586E-08  0.1219E-11  0.2447E-04  0.0000E+00 -0.2869E+12
   -1.087503    4.00961  0.8307E-13  0.8758E-08  0.1282E-11  0.2419E-04  0.0000E+00 -0.3027E+12
   -1.125003    4.01043  0.8307E-13  0.8889E-08  0.1355E-11  0.2365E-04  0.0000E+00 -0.3233E+12
   -1.162503    4.01127  0.8307E-13  0.8972E-08  0.1441E-11  0.2181E-04  0.0000E+00 -0.3663E+12
   -1.200003    4.01219  0.8307E-13  0.8996E-08  0.1543E-11  0.1939E-04  0.0000E+00 -0.4319E+12
   -1.237503    4.01323  0.8307E-13  0.8946E-08  0.1669E-11  0.1698E-04  0.0000E+00 -0.5190E+12
   -1.275002    4.01444  0.8307E-13  0.8803E-08  0.1828E-11  0.1455E-04  0.0000E+00 -0.6408E+12
   -1.312501    4.01586  0.8307E-13  0.8536E-08  0.2041E-11  0.1187E-04  0.0000E+00 -0.8369E+12
   -1.350000    4.01761  0.8307E-13  0.8088E-08  0.2352E-11  0.8860E-05  0.0000E+00 -0.1208E+13
   -1.387499    4.01999  0.8307E-13  0.7346E-08  0.2877E-11  0.5597E-05  0.0000E+00 -0.2104E+13
   -1.424997    4.02376  0.8307E-13  0.6037E-08  0.4025E-11  0.2418E-05  0.0000E+00 -0.5620E+13
   -1.462495    4.03236  0.8307E-13  0.3678E-08  0.8040E-11  0.3574E-06  0.0000E+00 -0.4800E+14
   -1.499992    4.07716  0.8307E-13  0.0000E+00  0.0000E+00  0.0000E+00  0.0000E+00  0.0000E+00
