 1 - depth, m
 2 - temperature, C
 3 - salinity, kg/kg
 4 - turbulent kinetic energy, m**2/s**2
 5 - dissipation rate, m**2/s**3
 6 - kinematic heat conductance, m**2/s
 7 - modulus of horizontal velocity, m/s
 8 - Richardson number, n/d
   -0.000000   -0.00000  0.1667E-12  0.4096E-13  0.8590E-16  0.1000E-09  0.0000E+00  0.9530E+16
   -0.037498    0.14580  0.2534E-12  0.4096E-13  0.8590E-16  0.1000E-09  0.0000E+00  0.9141E+16
   -0.074996    0.29143  0.3117E-12  0.4096E-13  0.8590E-16  0.1000E-09  0.0000E+00  0.8754E+16
   -0.112494    0.43685  0.2968E-12  0.4096E-13  0.8590E-16  0.1000E-09  0.0000E+00  0.8366E+16
   -0.149993    0.58199  0.2412E-12  0.4096E-13  0.8590E-16  0.1000E-09  0.0000E+00  0.7978E+16
   -0.187492    0.72678  0.1841E-12  0.4096E-13  0.8590E-16  0.1000E-09  0.0000E+00  0.7591E+16
   -0.224991    0.87115  0.1427E-12  0.4096E-13  0.8590E-16  0.1000E-09  0.0000E+00  0.7204E+16
   -0.262491    1.01499  0.1174E-12  0.4096E-13  0.8590E-16  0.1000E-09  0.0000E+00  0.6823E+16
   -0.299991    1.15830  0.1036E-12  0.4096E-13  0.8590E-16  0.1000E-09  0.0000E+00  0.6443E+16
   -0.337491    1.30101  0.9629E-13  0.4096E-13  0.8590E-16  0.1000E-09  0.0000E+00  0.6066E+16
   -0.374991    1.44300  0.9246E-13  0.4096E-13  0.8590E-16  0.1000E-09  0.0000E+00  0.5689E+16
   -0.412491    1.58414  0.9032E-13  0.4096E-13  0.8590E-16  0.1000E-09  0.0000E+00  0.5315E+16
   -0.449992    1.72427  0.8899E-13  0.4096E-13  0.8590E-16  0.1000E-09  0.0000E+00  0.4945E+16
   -0.487493    1.86328  0.8809E-13  0.4096E-13  0.8590E-16  0.1000E-09  0.0000E+00  0.4583E+16
   -0.524994    2.00109  0.8742E-13  0.1572E-12  0.8590E-16  0.1000E-09  0.0000E+00  0.4238E+16
   -0.562495    2.13796  0.8693E-13  0.4370E-12  0.1276E-15  0.1000E-09  0.0000E+00  0.3898E+16
   -0.599996    2.27377  0.8657E-13  0.9606E-12  0.2357E-15  0.1000E-09  0.0000E+00  0.3563E+16
   -0.637497    2.40843  0.8631E-13  0.1935E-11  0.4468E-15  0.1000E-09  0.0000E+00  0.3235E+16
   -0.674998    2.54181  0.8614E-13  0.3763E-11  0.8419E-15  0.1000E-09  0.0000E+00  0.2914E+16
   -0.712499    2.67380  0.8603E-13  0.7202E-11  0.1573E-14  0.1000E-09  0.0000E+00  0.2601E+16
   -0.750001    2.80429  0.8596E-13  0.1365E-10  0.2918E-14  0.1000E-09  0.0000E+00  0.2303E+16
   -0.787502    2.93352  0.8592E-13  0.2568E-10  0.5378E-14  0.1000E-09  0.0000E+00  0.2014E+16
   -0.825003    3.06151  0.8590E-13  0.4801E-10  0.9851E-14  0.1000E-09  0.0000E+00  0.1733E+16
   -0.862504    3.18819  0.8589E-13  0.8920E-10  0.1794E-13  0.1000E-09  0.0000E+00  0.1461E+16
   -0.900006    3.31350  0.8589E-13  0.1647E-09  0.3248E-13  0.1000E-09  0.0000E+00  0.1197E+16
   -0.937507    3.43740  0.8588E-13  0.3025E-09  0.5847E-13  0.1721E-09  0.0000E+00  0.9424E+15
   -0.975008    3.55980  0.8588E-13  0.5522E-09  0.1047E-12  0.4168E-09  0.0000E+00  0.6966E+15
   -1.012509    3.68056  0.8588E-13  0.1004E-08  0.1867E-12  0.1127E-08  0.0000E+00  0.4593E+15
   -1.050009    3.79902  0.8588E-13  0.1820E-08  0.3321E-12  0.3938E-08  0.0000E+00  0.2337E+15
   -1.087510    3.91346  0.8588E-13  0.3230E-08  0.5798E-12  0.4053E-07  0.0000E+00  0.3934E+14
   -1.125010    4.00349  0.8588E-13  0.4120E-08  0.7443E-12  0.8854E-05  0.0000E+00 -0.5158E+12
   -1.162511    4.00531  0.8588E-13  0.4530E-08  0.8412E-12  0.9328E-05  0.0000E+00 -0.5414E+12
   -1.200011    4.00705  0.8588E-13  0.4842E-08  0.9420E-12  0.9367E-05  0.0000E+00 -0.5901E+12
   -1.237510    4.00880  0.8588E-13  0.5060E-08  0.1053E-11  0.8994E-05  0.0000E+00 -0.6696E+12
   -1.275010    4.01062  0.8588E-13  0.5180E-08  0.1183E-11  0.8217E-05  0.0000E+00 -0.7980E+12
   -1.312509    4.01263  0.8588E-13  0.5184E-08  0.1346E-11  0.7038E-05  0.0000E+00 -0.1018E+13
   -1.350008    4.01500  0.8588E-13  0.5036E-08  0.1573E-11  0.5471E-05  0.0000E+00 -0.1443E+13
   -1.387507    4.01805  0.8588E-13  0.4660E-08  0.1939E-11  0.3579E-05  0.0000E+00 -0.2480E+13
   -1.425005    4.02270  0.8588E-13  0.3884E-08  0.2703E-11  0.1608E-05  0.0000E+00 -0.6481E+13
   -1.462504    4.03270  0.8588E-13  0.2491E-08  0.5132E-11  0.2718E-06  0.0000E+00 -0.4563E+14
   -1.500001    4.07565  0.8588E-13  0.0000E+00  0.0000E+00  0.0000E+00  0.0000E+00  0.0000E+00
