 1 - depth, m
 2 - temperature, C
 3 - salinity, kg/kg
 4 - turbulent kinetic energy, m**2/s**2
 5 - dissipation rate, m**2/s**3
 6 - kinematic heat conductance, m**2/s
 7 - modulus of horizontal velocity, m/s
 8 - Richardson number, n/d
   -0.000000   -0.00000  0.2977E-12  0.6049E-12  0.1771E-15  0.1000E-09  0.0000E+00  0.1458E+17
   -0.037498    0.22557  0.2473E-12  0.9401E-12  0.2021E-15  0.1000E-09  0.0000E+00  0.1358E+17
   -0.074996    0.44943  0.2134E-12  0.1666E-11  0.3045E-15  0.1000E-09  0.0000E+00  0.1260E+17
   -0.112494    0.67143  0.1759E-12  0.2984E-11  0.5075E-15  0.1000E-09  0.0000E+00  0.1163E+17
   -0.149992    0.89140  0.1428E-12  0.5295E-11  0.8678E-15  0.1000E-09  0.0000E+00  0.1069E+17
   -0.187491    1.10917  0.1196E-12  0.9306E-11  0.1488E-14  0.1000E-09  0.0000E+00  0.9771E+16
   -0.224991    1.32451  0.1059E-12  0.1623E-10  0.2544E-14  0.1000E-09  0.0000E+00  0.8874E+16
   -0.262490    1.53723  0.9875E-13  0.2815E-10  0.4330E-14  0.1000E-09  0.0000E+00  0.8008E+16
   -0.299990    1.74724  0.9534E-13  0.4851E-10  0.7331E-14  0.1000E-09  0.0000E+00  0.7170E+16
   -0.337490    1.95435  0.9374E-13  0.8320E-10  0.1235E-13  0.1000E-09  0.0000E+00  0.6361E+16
   -0.374990    2.15834  0.9287E-13  0.1421E-09  0.2073E-13  0.1000E-09  0.0000E+00  0.5606E+16
   -0.412490    2.35987  0.9217E-13  0.2416E-09  0.3464E-13  0.1000E-09  0.0000E+00  0.4888E+16
   -0.449991    2.55932  0.9136E-13  0.4090E-09  0.5767E-13  0.1000E-09  0.0000E+00  0.4193E+16
   -0.487491    2.75658  0.9030E-13  0.6898E-09  0.9562E-13  0.1000E-09  0.0000E+00  0.3522E+16
   -0.524992    2.95158  0.8905E-13  0.1155E-08  0.1575E-12  0.1520E-09  0.0000E+00  0.2876E+16
   -0.562493    3.14430  0.8781E-13  0.1922E-08  0.2577E-12  0.3175E-09  0.0000E+00  0.2253E+16
   -0.599994    3.33462  0.8684E-13  0.3183E-08  0.4198E-12  0.7042E-09  0.0000E+00  0.1655E+16
   -0.637495    3.52231  0.8624E-13  0.5246E-08  0.6806E-12  0.1749E-08  0.0000E+00  0.1080E+16
   -0.674996    3.70660  0.8596E-13  0.8592E-08  0.1097E-11  0.5718E-08  0.0000E+00  0.5325E+15
   -0.712497    3.88401  0.8587E-13  0.1368E-07  0.1725E-11  0.6186E-07  0.0000E+00  0.7729E+14
   -0.749998    4.01104  0.8586E-13  0.1431E-07  0.1809E-11  0.4396E-04  0.0000E+00 -0.2288E+12
   -0.787500    4.01162  0.8586E-13  0.1460E-07  0.1854E-11  0.4321E-04  0.0000E+00 -0.2386E+12
   -0.825001    4.01222  0.8586E-13  0.1486E-07  0.1903E-11  0.4347E-04  0.0000E+00 -0.2433E+12
   -0.862502    4.01281  0.8586E-13  0.1509E-07  0.1955E-11  0.4359E-04  0.0000E+00 -0.2488E+12
   -0.900003    4.01340  0.8586E-13  0.1528E-07  0.2010E-11  0.4349E-04  0.0000E+00 -0.2556E+12
   -0.937504    4.01400  0.8586E-13  0.1544E-07  0.2068E-11  0.4317E-04  0.0000E+00 -0.2639E+12
   -0.975005    4.01460  0.8586E-13  0.1556E-07  0.2132E-11  0.4263E-04  0.0000E+00 -0.2739E+12
   -1.012506    4.01521  0.8586E-13  0.1565E-07  0.2200E-11  0.4186E-04  0.0000E+00 -0.2866E+12
   -1.050006    4.01584  0.8586E-13  0.1570E-07  0.2276E-11  0.4084E-04  0.0000E+00 -0.3022E+12
   -1.087507    4.01648  0.8586E-13  0.1571E-07  0.2362E-11  0.3957E-04  0.0000E+00 -0.3212E+12
   -1.125007    4.01716  0.8586E-13  0.1567E-07  0.2458E-11  0.3802E-04  0.0000E+00 -0.3436E+12
   -1.162507    4.01786  0.8586E-13  0.1559E-07  0.2568E-11  0.3617E-04  0.0000E+00 -0.3716E+12
   -1.200007    4.01860  0.8586E-13  0.1544E-07  0.2696E-11  0.3402E-04  0.0000E+00 -0.4068E+12
   -1.237507    4.01940  0.8586E-13  0.1521E-07  0.2858E-11  0.3148E-04  0.0000E+00 -0.4534E+12
   -1.275006    4.02026  0.8586E-13  0.1484E-07  0.3089E-11  0.2552E-04  0.0000E+00 -0.5787E+12
   -1.312506    4.02133  0.8586E-13  0.1428E-07  0.3425E-11  0.1913E-04  0.0000E+00 -0.8044E+12
   -1.350004    4.02277  0.8586E-13  0.1345E-07  0.3928E-11  0.1382E-04  0.0000E+00 -0.1173E+13
   -1.387503    4.02477  0.8586E-13  0.1219E-07  0.4782E-11  0.8646E-05  0.0000E+00 -0.2010E+13
   -1.425001    4.02797  0.8586E-13  0.1007E-07  0.6669E-11  0.3750E-05  0.0000E+00 -0.5182E+13
   -1.462499    4.03528  0.8586E-13  0.5904E-08  0.1391E-10  0.4955E-06  0.0000E+00 -0.5048E+14
   -1.499997    4.08038  0.8586E-13  0.0000E+00  0.0000E+00  0.0000E+00  0.0000E+00  0.0000E+00
