 1 - depth, m
 2 - temperature, C
 3 - salinity, kg/kg
 4 - turbulent kinetic energy, m**2/s**2
 5 - dissipation rate, m**2/s**3
 6 - kinematic heat conductance, m**2/s
 7 - modulus of horizontal velocity, m/s
 8 - Richardson number, n/d
   -0.000000   -0.00000  0.7414E-12  0.4096E-13  0.8590E-16  0.1000E-09  0.0000E+00  0.1199E+17
   -0.037497    0.18440  0.4333E-12  0.4096E-13  0.8590E-16  0.1000E-09  0.0000E+00  0.1127E+17
   -0.074995    0.36684  0.2740E-12  0.4096E-13  0.8590E-16  0.1000E-09  0.0000E+00  0.1057E+17
   -0.112493    0.54740  0.1780E-12  0.4096E-13  0.8590E-16  0.1000E-09  0.0000E+00  0.9902E+16
   -0.149992    0.72611  0.1296E-12  0.4096E-13  0.8590E-16  0.1000E-09  0.0000E+00  0.9252E+16
   -0.187491    0.90296  0.1082E-12  0.4096E-13  0.8590E-16  0.1000E-09  0.0000E+00  0.8619E+16
   -0.224990    1.07792  0.9896E-13  0.1279E-12  0.8590E-16  0.1000E-09  0.0000E+00  0.8005E+16
   -0.262489    1.25092  0.9464E-13  0.3788E-12  0.9403E-16  0.1000E-09  0.0000E+00  0.7409E+16
   -0.299989    1.42192  0.9228E-13  0.8106E-12  0.1434E-15  0.1000E-09  0.0000E+00  0.6830E+16
   -0.337488    1.59085  0.9074E-13  0.1519E-11  0.2381E-15  0.1000E-09  0.0000E+00  0.6269E+16
   -0.374988    1.75761  0.8959E-13  0.2687E-11  0.3997E-15  0.1000E-09  0.0000E+00  0.5732E+16
   -0.412488    1.92232  0.8865E-13  0.4626E-11  0.6681E-15  0.1000E-09  0.0000E+00  0.5216E+16
   -0.449989    2.08502  0.8788E-13  0.7855E-11  0.1110E-14  0.1000E-09  0.0000E+00  0.4716E+16
   -0.487489    2.24560  0.8724E-13  0.1323E-10  0.1835E-14  0.1000E-09  0.0000E+00  0.4234E+16
   -0.524990    2.40400  0.8675E-13  0.2208E-10  0.3009E-14  0.1000E-09  0.0000E+00  0.3770E+16
   -0.562491    2.56021  0.8640E-13  0.3661E-10  0.4904E-14  0.1000E-09  0.0000E+00  0.3325E+16
   -0.599992    2.71418  0.8617E-13  0.6036E-10  0.7950E-14  0.1000E-09  0.0000E+00  0.2897E+16
   -0.637492    2.86584  0.8603E-13  0.9909E-10  0.1283E-13  0.1000E-09  0.0000E+00  0.2487E+16
   -0.674993    3.01513  0.8595E-13  0.1620E-09  0.2063E-13  0.1000E-09  0.0000E+00  0.2095E+16
   -0.712494    3.16197  0.8591E-13  0.2637E-09  0.3303E-13  0.1000E-09  0.0000E+00  0.1721E+16
   -0.749995    3.30628  0.8589E-13  0.4275E-09  0.5268E-13  0.1098E-09  0.0000E+00  0.1370E+16
   -0.787496    3.44850  0.8589E-13  0.6903E-09  0.8369E-13  0.2247E-09  0.0000E+00  0.1034E+16
   -0.824997    3.58860  0.8588E-13  0.1110E-08  0.1324E-12  0.5157E-09  0.0000E+00  0.7131E+15
   -0.862498    3.72630  0.8588E-13  0.1778E-08  0.2087E-12  0.1423E-08  0.0000E+00  0.4076E+15
   -0.899999    3.86088  0.8588E-13  0.2828E-08  0.3270E-12  0.7400E-08  0.0000E+00  0.1234E+15
   -0.937500    3.98777  0.8588E-13  0.3433E-08  0.3984E-12  0.6372E-05  0.0000E+00 -0.1214E+12
   -0.975001    3.99098  0.8588E-13  0.3786E-08  0.4497E-12  0.8881E-05  0.0000E+00 -0.1828E+12
   -1.012501    3.99308  0.8588E-13  0.4100E-08  0.5035E-12  0.1036E-04  0.0000E+00 -0.2116E+12
   -1.050002    3.99486  0.8588E-13  0.4385E-08  0.5616E-12  0.1126E-04  0.0000E+00 -0.2387E+12
   -1.087502    3.99649  0.8588E-13  0.4642E-08  0.6251E-12  0.1173E-04  0.0000E+00 -0.2691E+12
   -1.125002    3.99806  0.8588E-13  0.4867E-08  0.6954E-12  0.1183E-04  0.0000E+00 -0.3062E+12
   -1.162502    3.99963  0.8588E-13  0.5058E-08  0.7746E-12  0.1159E-04  0.0000E+00 -0.3536E+12
   -1.200002    4.00123  0.8588E-13  0.5208E-08  0.8657E-12  0.1102E-04  0.0000E+00 -0.4173E+12
   -1.237502    4.00292  0.8588E-13  0.5307E-08  0.9739E-12  0.1013E-04  0.0000E+00 -0.5075E+12
   -1.275001    4.00477  0.8588E-13  0.5341E-08  0.1108E-11  0.8920E-05  0.0000E+00 -0.6445E+12
   -1.312500    4.00688  0.8588E-13  0.5287E-08  0.1283E-11  0.7400E-05  0.0000E+00 -0.8734E+12
   -1.349999    4.00943  0.8588E-13  0.5105E-08  0.1534E-11  0.5591E-05  0.0000E+00 -0.1316E+13
   -1.387497    4.01281  0.8588E-13  0.4714E-08  0.1946E-11  0.3571E-05  0.0000E+00 -0.2408E+13
   -1.424996    4.01809  0.8588E-13  0.3947E-08  0.2804E-11  0.1587E-05  0.0000E+00 -0.6725E+13
   -1.462493    4.02954  0.8588E-13  0.2599E-08  0.5483E-11  0.2840E-06  0.0000E+00 -0.4911E+14
   -1.499991    4.07656  0.8588E-13  0.0000E+00  0.0000E+00  0.0000E+00  0.0000E+00  0.0000E+00
