 1 - depth, m
 2 - temperature, C
 3 - salinity, kg/kg
 4 - turbulent kinetic energy, m**2/s**2
 5 - dissipation rate, m**2/s**3
 6 - kinematic heat conductance, m**2/s
 7 - modulus of horizontal velocity, m/s
 8 - Richardson number, n/d
   -0.000000   11.66210  0.8898E-13  0.4931E-03  0.1102E-02  0.8284E-04  0.2546E+00 -0.9287E-02
   -0.037498   11.71460  0.8899E-13  0.2575E-03  0.3502E-03  0.1494E-03  0.7744E-01 -0.9903E-01
   -0.074996   11.72837  0.8900E-13  0.1704E-03  0.1324E-03  0.1780E-03  0.5069E-01 -0.4595E-01
   -0.112494   11.73530  0.8900E-13  0.1314E-03  0.7556E-04  0.1795E-03  0.4116E-01 -0.2158E-01
   -0.149993   11.73964  0.8900E-13  0.1052E-03  0.4265E-04  0.1758E-03  0.3500E-01 -0.3002E-01
   -0.187492   11.74299  0.8900E-13  0.8597E-04  0.2587E-04  0.1782E-03  0.3042E-01 -0.2952E-01
   -0.224991   11.74580  0.8900E-13  0.7137E-04  0.1558E-04  0.1831E-03  0.2667E-01 -0.2309E-01
   -0.262491   11.74824  0.8900E-13  0.6037E-04  0.9595E-05  0.1880E-03  0.2376E-01 -0.4114E-01
   -0.299991   11.75042  0.8900E-13  0.5162E-04  0.5652E-05  0.1937E-03  0.2126E-01 -0.3650E-01
   -0.337491   11.75255  0.8900E-13  0.4469E-04  0.3374E-05  0.2015E-03  0.1909E-01  0.3727E+00
   -0.374991   11.75445  0.8900E-13  0.3934E-04  0.2139E-05  0.2123E-03  0.1721E-01  0.1623E+01
   -0.412491   11.75619  0.8901E-13  0.3502E-04  0.1404E-05  0.2255E-03  0.1561E-01  0.4820E+00
   -0.449992   11.75779  0.8901E-13  0.3150E-04  0.9574E-06  0.2415E-03  0.1428E-01  0.2373E+02
   -0.487493   11.75923  0.8901E-13  0.2865E-04  0.6814E-06  0.2693E-03  0.1318E-01  0.1563E+02
   -0.524994   11.76051  0.8901E-13  0.2637E-04  0.5077E-06  0.2987E-03  0.1228E-01  0.2911E+02
   -0.562495   11.76167  0.8901E-13  0.2449E-04  0.3939E-06  0.3252E-03  0.1142E-01  0.1372E+02
   -0.599996   11.76273  0.8901E-13  0.2289E-04  0.3162E-06  0.3478E-03  0.1062E-01  0.8771E+02
   -0.637497   11.76369  0.8901E-13  0.2151E-04  0.2608E-06  0.3686E-03  0.9886E-02  0.5689E+02
   -0.674998   11.76457  0.8901E-13  0.2029E-04  0.2196E-06  0.3872E-03  0.9212E-02  0.4000E+01
   -0.712499   11.76540  0.8901E-13  0.1921E-04  0.1879E-06  0.4058E-03  0.8591E-02  0.5462E+01
   -0.750001   11.76617  0.8901E-13  0.1823E-04  0.1629E-06  0.4263E-03  0.8014E-02  0.7657E+02
   -0.787502   11.76690  0.8901E-13  0.1733E-04  0.1426E-06  0.4491E-03  0.7476E-02  0.2432E+02
   -0.825003   11.76757  0.8901E-13  0.1650E-04  0.1258E-06  0.4705E-03  0.6971E-02  0.4332E+03
   -0.862504   11.76821  0.8901E-13  0.1571E-04  0.1118E-06  0.4950E-03  0.6494E-02  0.1037E+02
   -0.900005   11.76881  0.8901E-13  0.1496E-04  0.9986E-07  0.5119E-03  0.6039E-02  0.2275E+02
   -0.937506   11.76939  0.8901E-13  0.1422E-04  0.8959E-07  0.5225E-03  0.5601E-02  0.2472E+02
   -0.975007   11.76995  0.8901E-13  0.1350E-04  0.8060E-07  0.5286E-03  0.5178E-02  0.6873E+03
   -1.012508   11.77050  0.8901E-13  0.1276E-04  0.7259E-07  0.5400E-03  0.4764E-02  0.1862E+02
   -1.050009   11.77103  0.8901E-13  0.1201E-04  0.6543E-07  0.5446E-03  0.4382E-02  0.1006E+02
   -1.087510   11.77155  0.8901E-13  0.1125E-04  0.5908E-07  0.5456E-03  0.4032E-02  0.1866E+02
   -1.125010   11.77207  0.8901E-13  0.1050E-04  0.5349E-07  0.5392E-03  0.3713E-02  0.7464E+01
   -1.162510   11.77259  0.8901E-13  0.9751E-05  0.4861E-07  0.5238E-03  0.3422E-02  0.1424E+02
   -1.200010   11.77312  0.8901E-13  0.9006E-05  0.4443E-07  0.4968E-03  0.3159E-02  0.1449E+02
   -1.237510   11.77368  0.8901E-13  0.8273E-05  0.4097E-07  0.4606E-03  0.2924E-02  0.1220E+02
   -1.275010   11.77429  0.8901E-13  0.7557E-05  0.3831E-07  0.4186E-03  0.2717E-02  0.3645E+01
   -1.312509   11.77496  0.8901E-13  0.6865E-05  0.3661E-07  0.3666E-03  0.2538E-02  0.5816E+01
   -1.350008   11.77573  0.8901E-13  0.6197E-05  0.3616E-07  0.3003E-03  0.2387E-02  0.1732E+02
   -1.387507   11.77665  0.8901E-13  0.5512E-05  0.3767E-07  0.2296E-03  0.2262E-02  0.1246E+03
   -1.425005   11.77786  0.8901E-13  0.4671E-05  0.4398E-07  0.1425E-03  0.2156E-02  0.7578E+02
   -1.462503   11.77973  0.8901E-13  0.2538E-05  0.8935E-07  0.1287E-04  0.2057E-02 -0.6376E+04
   -1.500001   11.80089  0.8901E-13  0.0000E+00  0.0000E+00  0.0000E+00  0.1965E-02  0.0000E+00
