 1 - depth, m
 2 - temperature, C
 3 - salinity, kg/kg
 4 - turbulent kinetic energy, m**2/s**2
 5 - dissipation rate, m**2/s**3
 6 - kinematic heat conductance, m**2/s
 7 - modulus of horizontal velocity, m/s
 8 - Richardson number, n/d
   -0.000000   -0.00000  0.6259E-12  0.3763E-12  0.9787E-16  0.1000E-09  0.0000E+00  0.1422E+17
   -0.037497    0.21971  0.2865E-12  0.5615E-12  0.1101E-15  0.1000E-09  0.0000E+00  0.1320E+17
   -0.074995    0.43678  0.1906E-12  0.9592E-12  0.1608E-15  0.1000E-09  0.0000E+00  0.1223E+17
   -0.112493    0.65114  0.1511E-12  0.1670E-11  0.2602E-15  0.1000E-09  0.0000E+00  0.1128E+17
   -0.149992    0.86274  0.1278E-12  0.2890E-11  0.4334E-15  0.1000E-09  0.0000E+00  0.1037E+17
   -0.187491    1.07150  0.1126E-12  0.4959E-11  0.7253E-15  0.1000E-09  0.0000E+00  0.9490E+16
   -0.224990    1.27735  0.1032E-12  0.8451E-11  0.1211E-14  0.1000E-09  0.0000E+00  0.8642E+16
   -0.262489    1.48020  0.9775E-13  0.1431E-10  0.2014E-14  0.1000E-09  0.0000E+00  0.7829E+16
   -0.299989    1.68000  0.9478E-13  0.2411E-10  0.3333E-14  0.1000E-09  0.0000E+00  0.7049E+16
   -0.337488    1.87668  0.9309E-13  0.4041E-10  0.5492E-14  0.1000E-09  0.0000E+00  0.6300E+16
   -0.374988    2.07013  0.9194E-13  0.6745E-10  0.9012E-14  0.1000E-09  0.0000E+00  0.5603E+16
   -0.412489    2.26094  0.9093E-13  0.1121E-09  0.1473E-13  0.1000E-09  0.0000E+00  0.4943E+16
   -0.449989    2.44942  0.8991E-13  0.1856E-09  0.2398E-13  0.1000E-09  0.0000E+00  0.4307E+16
   -0.487489    2.63550  0.8886E-13  0.3062E-09  0.3891E-13  0.1000E-09  0.0000E+00  0.3694E+16
   -0.524990    2.81910  0.8788E-13  0.5017E-09  0.6271E-13  0.1000E-09  0.0000E+00  0.3105E+16
   -0.562491    3.00006  0.8706E-13  0.8170E-09  0.1005E-12  0.1098E-09  0.0000E+00  0.2541E+16
   -0.599992    3.17833  0.8649E-13  0.1324E-08  0.1602E-12  0.2222E-09  0.0000E+00  0.2002E+16
   -0.637493    3.35372  0.8615E-13  0.2137E-08  0.2545E-12  0.4749E-09  0.0000E+00  0.1488E+16
   -0.674994    3.52602  0.8598E-13  0.3435E-08  0.4026E-12  0.1118E-08  0.0000E+00  0.9995E+15
   -0.712495    3.69471  0.8591E-13  0.5494E-08  0.6339E-12  0.3265E-08  0.0000E+00  0.5391E+15
   -0.749996    3.85809  0.8588E-13  0.8683E-08  0.9874E-12  0.2155E-07  0.0000E+00  0.1272E+15
   -0.787497    4.00110  0.8588E-13  0.9310E-08  0.1062E-11  0.3122E-04  0.0000E+00 -0.1750E+12
   -0.824998    4.00183  0.8588E-13  0.9576E-08  0.1100E-11  0.3240E-04  0.0000E+00 -0.1768E+12
   -0.862499    4.00254  0.8588E-13  0.9791E-08  0.1136E-11  0.3268E-04  0.0000E+00 -0.1832E+12
   -0.899999    4.00325  0.8588E-13  0.9980E-08  0.1174E-11  0.3286E-04  0.0000E+00 -0.1902E+12
   -0.937500    4.00395  0.8588E-13  0.1015E-07  0.1215E-11  0.3283E-04  0.0000E+00 -0.1984E+12
   -0.975001    4.00466  0.8588E-13  0.1029E-07  0.1260E-11  0.3260E-04  0.0000E+00 -0.2079E+12
   -1.012502    4.00537  0.8588E-13  0.1040E-07  0.1308E-11  0.3218E-04  0.0000E+00 -0.2197E+12
   -1.050002    4.00609  0.8588E-13  0.1049E-07  0.1361E-11  0.3153E-04  0.0000E+00 -0.2338E+12
   -1.087503    4.00683  0.8588E-13  0.1055E-07  0.1420E-11  0.3066E-04  0.0000E+00 -0.2508E+12
   -1.125003    4.00760  0.8588E-13  0.1058E-07  0.1486E-11  0.2955E-04  0.0000E+00 -0.2711E+12
   -1.162503    4.00839  0.8588E-13  0.1056E-07  0.1564E-11  0.2815E-04  0.0000E+00 -0.2966E+12
   -1.200002    4.00924  0.8588E-13  0.1050E-07  0.1667E-11  0.2581E-04  0.0000E+00 -0.3377E+12
   -1.237502    4.01016  0.8588E-13  0.1036E-07  0.1803E-11  0.2133E-04  0.0000E+00 -0.4281E+12
   -1.275001    4.01128  0.8588E-13  0.1013E-07  0.1979E-11  0.1741E-04  0.0000E+00 -0.5539E+12
   -1.312500    4.01266  0.8588E-13  0.9761E-08  0.2220E-11  0.1382E-04  0.0000E+00 -0.7431E+12
   -1.349999    4.01440  0.8588E-13  0.9207E-08  0.2576E-11  0.1012E-04  0.0000E+00 -0.1095E+13
   -1.387498    4.01679  0.8588E-13  0.8336E-08  0.3180E-11  0.6293E-05  0.0000E+00 -0.1948E+13
   -1.424996    4.02063  0.8588E-13  0.6843E-08  0.4511E-11  0.2682E-05  0.0000E+00 -0.5350E+13
   -1.462494    4.02945  0.8588E-13  0.4145E-08  0.9258E-11  0.3902E-06  0.0000E+00 -0.4941E+14
   -1.499991    4.07673  0.8588E-13  0.0000E+00  0.0000E+00  0.0000E+00  0.0000E+00  0.0000E+00
