 1 - depth, m
 2 - temperature, C
 3 - salinity, kg/kg
 4 - turbulent kinetic energy, m**2/s**2
 5 - dissipation rate, m**2/s**3
 6 - kinematic heat conductance, m**2/s
 7 - modulus of horizontal velocity, m/s
 8 - Richardson number, n/d
   -0.000000   -0.00000  0.8056E-12  0.4096E-13  0.8590E-16  0.1000E-09  0.0000E+00  0.1159E+17
   -0.037497    0.17808  0.3982E-12  0.4096E-13  0.8590E-16  0.1000E-09  0.0000E+00  0.1091E+17
   -0.074995    0.35424  0.2654E-12  0.4096E-13  0.8590E-16  0.1000E-09  0.0000E+00  0.1025E+17
   -0.112493    0.52846  0.1986E-12  0.4096E-13  0.8590E-16  0.1000E-09  0.0000E+00  0.9611E+16
   -0.149992    0.70071  0.1572E-12  0.4096E-13  0.8590E-16  0.1000E-09  0.0000E+00  0.8990E+16
   -0.187491    0.87094  0.1303E-12  0.4096E-13  0.8590E-16  0.1000E-09  0.0000E+00  0.8388E+16
   -0.224990    1.03911  0.1134E-12  0.4096E-13  0.8590E-16  0.1000E-09  0.0000E+00  0.7804E+16
   -0.262489    1.20516  0.1034E-12  0.5441E-13  0.8590E-16  0.1000E-09  0.0000E+00  0.7239E+16
   -0.299989    1.36907  0.9805E-13  0.2296E-12  0.8590E-16  0.1000E-09  0.0000E+00  0.6693E+16
   -0.337489    1.53078  0.9527E-13  0.5702E-12  0.1235E-15  0.1000E-09  0.0000E+00  0.6166E+16
   -0.374989    1.69022  0.9383E-13  0.1151E-11  0.2093E-15  0.1000E-09  0.0000E+00  0.5676E+16
   -0.412489    1.84791  0.9296E-13  0.2138E-11  0.3639E-15  0.1000E-09  0.0000E+00  0.5212E+16
   -0.449989    2.00413  0.9228E-13  0.3832E-11  0.6307E-15  0.1000E-09  0.0000E+00  0.4760E+16
   -0.487490    2.15883  0.9160E-13  0.6754E-11  0.1086E-14  0.1000E-09  0.0000E+00  0.4319E+16
   -0.524990    2.31195  0.9083E-13  0.1175E-10  0.1852E-14  0.1000E-09  0.0000E+00  0.3887E+16
   -0.562491    2.46325  0.8997E-13  0.2027E-10  0.3136E-14  0.1000E-09  0.0000E+00  0.3470E+16
   -0.599992    2.61270  0.8906E-13  0.3475E-10  0.5279E-14  0.1000E-09  0.0000E+00  0.3067E+16
   -0.637493    2.76026  0.8815E-13  0.5927E-10  0.8844E-14  0.1000E-09  0.0000E+00  0.2679E+16
   -0.674994    2.90587  0.8731E-13  0.1006E-09  0.1475E-13  0.1000E-09  0.0000E+00  0.2306E+16
   -0.712495    3.04949  0.8659E-13  0.1700E-09  0.2449E-13  0.1000E-09  0.0000E+00  0.1947E+16
   -0.749996    3.19106  0.8605E-13  0.2859E-09  0.4047E-13  0.1000E-09  0.0000E+00  0.1609E+16
   -0.787497    3.33101  0.8569E-13  0.4787E-09  0.6662E-13  0.1442E-09  0.0000E+00  0.1283E+16
   -0.824998    3.46941  0.8549E-13  0.7981E-09  0.1092E-12  0.3133E-09  0.0000E+00  0.9673E+15
   -0.862499    3.60609  0.8539E-13  0.1325E-08  0.1782E-12  0.7456E-09  0.0000E+00  0.6633E+15
   -0.900000    3.74075  0.8535E-13  0.2187E-08  0.2893E-12  0.2160E-08  0.0000E+00  0.3718E+15
   -0.937501    3.87244  0.8534E-13  0.3579E-08  0.4660E-12  0.1278E-07  0.0000E+00  0.1013E+15
   -0.975001    3.99352  0.8534E-13  0.4256E-08  0.5568E-12  0.9836E-05  0.0000E+00 -0.2359E+12
   -1.012502    3.99540  0.8534E-13  0.4609E-08  0.6151E-12  0.1114E-04  0.0000E+00 -0.2558E+12
   -1.050003    3.99705  0.8534E-13  0.4925E-08  0.6785E-12  0.1198E-04  0.0000E+00 -0.2788E+12
   -1.087503    3.99861  0.8534E-13  0.5206E-08  0.7480E-12  0.1242E-04  0.0000E+00 -0.3072E+12
   -1.125003    4.00011  0.8534E-13  0.5450E-08  0.8254E-12  0.1251E-04  0.0000E+00 -0.3438E+12
   -1.162503    4.00162  0.8534E-13  0.5654E-08  0.9129E-12  0.1225E-04  0.0000E+00 -0.3923E+12
   -1.200003    4.00318  0.8534E-13  0.5811E-08  0.1014E-11  0.1166E-04  0.0000E+00 -0.4586E+12
   -1.237503    4.00484  0.8534E-13  0.5914E-08  0.1136E-11  0.1073E-04  0.0000E+00 -0.5537E+12
   -1.275002    4.00666  0.8534E-13  0.5946E-08  0.1286E-11  0.9472E-05  0.0000E+00 -0.6989E+12
   -1.312501    4.00874  0.8534E-13  0.5884E-08  0.1485E-11  0.7882E-05  0.0000E+00 -0.9421E+12
   -1.350000    4.01128  0.8534E-13  0.5683E-08  0.1771E-11  0.5980E-05  0.0000E+00 -0.1412E+13
   -1.387498    4.01466  0.8534E-13  0.5256E-08  0.2242E-11  0.3843E-05  0.0000E+00 -0.2568E+13
   -1.424996    4.01995  0.8534E-13  0.4418E-08  0.3231E-11  0.1722E-05  0.0000E+00 -0.7114E+13
   -1.462494    4.03148  0.8534E-13  0.2923E-08  0.6369E-11  0.3108E-06  0.0000E+00 -0.5269E+14
   -1.499992    4.07998  0.8534E-13  0.0000E+00  0.0000E+00  0.0000E+00  0.0000E+00  0.0000E+00
