 1 - depth, m
 2 - temperature, C
 3 - salinity, kg/kg
 4 - turbulent kinetic energy, m**2/s**2
 5 - dissipation rate, m**2/s**3
 6 - kinematic heat conductance, m**2/s
 7 - modulus of horizontal velocity, m/s
 8 - Richardson number, n/d
   -0.000000   17.47487  0.9202E-13  0.2169E-04  0.2000E-05  0.2273E-04  0.2859E-01 -0.1506E-01
   -0.037498   17.50357  0.9202E-13  0.1691E-04  0.6886E-06  0.4406E-04  0.1648E-01 -0.4422E-01
   -0.074996   17.51556  0.9202E-13  0.1427E-04  0.3570E-06  0.6365E-04  0.1216E-01 -0.7863E-01
   -0.112494   17.52362  0.9202E-13  0.1246E-04  0.2181E-06  0.8428E-04  0.9507E-02 -0.1235E+00
   -0.149992   17.52955  0.9202E-13  0.1114E-04  0.1461E-06  0.1100E-03  0.7710E-02 -0.1635E+00
   -0.187491   17.53397  0.9202E-13  0.1021E-04  0.1054E-06  0.1877E-03  0.6443E-02  0.7068E+02
   -0.224991   17.53666  0.9202E-13  0.9621E-05  0.8247E-07  0.3673E-03  0.5572E-02  0.3807E+03
   -0.262490   17.53792  0.9202E-13  0.9260E-05  0.6770E-07  0.3750E-03  0.4997E-02  0.4052E+01
   -0.299990   17.53912  0.9202E-13  0.8987E-05  0.5627E-07  0.4045E-03  0.4437E-02  0.4055E+01
   -0.337490   17.54021  0.9202E-13  0.8795E-05  0.4772E-07  0.4242E-03  0.3960E-02  0.3618E+01
   -0.374990   17.54123  0.9202E-13  0.8657E-05  0.4107E-07  0.4501E-03  0.3541E-02  0.3277E+01
   -0.412490   17.54217  0.9202E-13  0.8560E-05  0.3583E-07  0.4781E-03  0.3175E-02  0.2936E+01
   -0.449990   17.54304  0.9202E-13  0.8493E-05  0.3162E-07  0.5114E-03  0.2856E-02  0.2613E+01
   -0.487491   17.54385  0.9202E-13  0.8447E-05  0.2821E-07  0.5436E-03  0.2580E-02  0.2371E+01
   -0.524992   17.54460  0.9202E-13  0.8414E-05  0.2544E-07  0.5795E-03  0.2339E-02  0.2541E+01
   -0.562493   17.54530  0.9202E-13  0.8380E-05  0.2295E-07  0.5917E-03  0.2119E-02  0.2679E+01
   -0.599994   17.54598  0.9202E-13  0.8351E-05  0.2179E-07  0.9715E-03  0.1881E-02  0.1699E+01
   -0.637495   17.54639  0.9202E-13  0.8334E-05  0.2119E-07  0.1039E-02  0.1808E-02  0.1818E+01
   -0.674996   17.54678  0.9202E-13  0.8314E-05  0.2051E-07  0.6324E-03  0.1745E-02  0.1973E+01
   -0.712497   17.54742  0.9202E-13  0.8256E-05  0.1945E-07  0.6921E-03  0.1565E-02  0.2199E+01
   -0.749998   17.54800  0.9202E-13  0.8180E-05  0.1864E-07  0.7057E-03  0.1415E-02  0.2111E+01
   -0.787499   17.54858  0.9202E-13  0.8082E-05  0.1801E-07  0.7216E-03  0.1275E-02  0.2050E+01
   -0.825000   17.54915  0.9202E-13  0.7962E-05  0.1757E-07  0.7330E-03  0.1147E-02  0.1977E+01
   -0.862502   17.54971  0.9202E-13  0.7820E-05  0.1727E-07  0.7422E-03  0.1031E-02  0.1903E+01
   -0.900003   17.55027  0.9202E-13  0.7657E-05  0.1712E-07  0.7506E-03  0.9253E-03  0.1827E+01
   -0.937504   17.55082  0.9202E-13  0.7476E-05  0.1710E-07  0.7590E-03  0.8299E-03  0.1753E+01
   -0.975004   17.55138  0.9202E-13  0.7280E-05  0.1720E-07  0.7727E-03  0.7435E-03  0.1688E+01
   -1.012505   17.55193  0.9202E-13  0.7077E-05  0.1741E-07  0.8091E-03  0.6659E-03  0.1556E+01
   -1.050006   17.55246  0.9202E-13  0.6875E-05  0.1772E-07  0.7782E-03  0.6012E-03  0.1417E+01
   -1.087506   17.55301  0.9202E-13  0.6680E-05  0.1810E-07  0.7138E-03  0.5491E-03  0.1283E+01
   -1.125007   17.55362  0.9202E-13  0.6496E-05  0.1855E-07  0.6537E-03  0.5076E-03  0.1157E+01
   -1.162507   17.55429  0.9202E-13  0.6323E-05  0.1907E-07  0.6124E-03  0.4750E-03  0.1075E+01
   -1.200007   17.55502  0.9202E-13  0.6146E-05  0.1971E-07  0.5757E-03  0.4497E-03  0.1404E+01
   -1.237506   17.55580  0.9202E-13  0.5942E-05  0.2057E-07  0.5213E-03  0.4268E-03  0.2183E+01
   -1.275006   17.55667  0.9202E-13  0.5701E-05  0.2179E-07  0.4552E-03  0.4050E-03  0.3801E+01
   -1.312505   17.55768  0.9202E-13  0.5411E-05  0.2356E-07  0.3861E-03  0.3841E-03  0.7625E+01
   -1.350004   17.55888  0.9203E-13  0.5053E-05  0.2631E-07  0.2957E-03  0.3644E-03  0.1967E+02
   -1.387502   17.56048  0.9203E-13  0.4598E-05  0.3099E-07  0.2499E-03  0.3450E-03  0.6497E+02
   -1.425001   17.56241  0.9203E-13  0.3878E-05  0.4389E-07  0.1163E-03  0.3293E-03  0.3853E+03
   -1.462499   17.56881  0.9203E-13  0.2238E-05  0.9877E-07  0.2865E-04  0.3080E-03 -0.1756E+05
   -1.499996   17.58754  0.9203E-13  0.0000E+00  0.0000E+00  0.0000E+00  0.3107E-03  0.0000E+00
