 1 - depth, m
 2 - temperature, C
 3 - salinity, kg/kg
 4 - turbulent kinetic energy, m**2/s**2
 5 - dissipation rate, m**2/s**3
 6 - kinematic heat conductance, m**2/s
 7 - modulus of horizontal velocity, m/s
 8 - Richardson number, n/d
   -0.000000   -0.00000  0.2301E-12  0.4096E-13  0.8590E-16  0.1000E-09  0.0000E+00  0.8751E+16
   -0.037498    0.13367  0.2924E-12  0.4096E-13  0.8590E-16  0.1000E-09  0.0000E+00  0.8438E+16
   -0.074996    0.26741  0.2725E-12  0.4096E-13  0.8590E-16  0.1000E-09  0.0000E+00  0.8125E+16
   -0.112494    0.40122  0.2433E-12  0.4096E-13  0.8590E-16  0.1000E-09  0.0000E+00  0.7811E+16
   -0.149993    0.53505  0.2162E-12  0.4096E-13  0.8590E-16  0.1000E-09  0.0000E+00  0.7493E+16
   -0.187492    0.66881  0.1881E-12  0.4096E-13  0.8590E-16  0.1000E-09  0.0000E+00  0.7172E+16
   -0.224991    0.80239  0.1604E-12  0.4096E-13  0.8590E-16  0.1000E-09  0.0000E+00  0.6847E+16
   -0.262491    0.93568  0.1366E-12  0.4096E-13  0.8590E-16  0.1000E-09  0.0000E+00  0.6522E+16
   -0.299991    1.06861  0.1185E-12  0.4096E-13  0.8590E-16  0.1000E-09  0.0000E+00  0.6196E+16
   -0.337491    1.20106  0.1061E-12  0.4096E-13  0.8590E-16  0.1000E-09  0.0000E+00  0.5868E+16
   -0.374991    1.33289  0.9826E-13  0.4096E-13  0.8590E-16  0.1000E-09  0.0000E+00  0.5540E+16
   -0.412491    1.46396  0.9350E-13  0.4096E-13  0.8590E-16  0.1000E-09  0.0000E+00  0.5212E+16
   -0.449992    1.59409  0.9068E-13  0.4096E-13  0.8590E-16  0.1000E-09  0.0000E+00  0.4886E+16
   -0.487493    1.72317  0.8899E-13  0.4096E-13  0.8590E-16  0.1000E-09  0.0000E+00  0.4567E+16
   -0.524994    1.85114  0.8794E-13  0.4096E-13  0.8590E-16  0.1000E-09  0.0000E+00  0.4262E+16
   -0.562495    1.97816  0.8726E-13  0.4096E-13  0.8590E-16  0.1000E-09  0.0000E+00  0.3961E+16
   -0.599996    2.10416  0.8680E-13  0.4096E-13  0.8590E-16  0.1000E-09  0.0000E+00  0.3666E+16
   -0.637497    2.22907  0.8649E-13  0.4096E-13  0.8590E-16  0.1000E-09  0.0000E+00  0.3377E+16
   -0.674998    2.35281  0.8627E-13  0.4096E-13  0.8590E-16  0.1000E-09  0.0000E+00  0.3094E+16
   -0.712499    2.47532  0.8613E-13  0.4675E-13  0.8590E-16  0.1000E-09  0.0000E+00  0.2818E+16
   -0.750001    2.59652  0.8603E-13  0.2138E-12  0.9975E-16  0.1000E-09  0.0000E+00  0.2554E+16
   -0.787502    2.71655  0.8597E-13  0.5709E-12  0.1980E-15  0.1000E-09  0.0000E+00  0.2298E+16
   -0.825003    2.83543  0.8593E-13  0.1306E-11  0.4186E-15  0.1000E-09  0.0000E+00  0.2048E+16
   -0.862504    2.95309  0.8591E-13  0.2840E-11  0.8783E-15  0.1000E-09  0.0000E+00  0.1805E+16
   -0.900005    3.06946  0.8590E-13  0.6052E-11  0.1823E-14  0.1000E-09  0.0000E+00  0.1569E+16
   -0.937507    3.18446  0.8589E-13  0.1275E-10  0.3749E-14  0.1000E-09  0.0000E+00  0.1341E+16
   -0.975008    3.29804  0.8588E-13  0.2661E-10  0.7645E-14  0.1000E-09  0.0000E+00  0.1121E+16
   -1.012508    3.41013  0.8588E-13  0.5525E-10  0.1551E-13  0.1000E-09  0.0000E+00  0.9074E+15
   -1.050009    3.52039  0.8588E-13  0.1143E-09  0.3137E-13  0.1235E-09  0.0000E+00  0.7031E+15
   -1.087510    3.62868  0.8588E-13  0.2348E-09  0.6304E-13  0.3428E-09  0.0000E+00  0.5087E+15
   -1.125010    3.73478  0.8588E-13  0.4790E-09  0.1258E-12  0.1059E-08  0.0000E+00  0.3282E+15
   -1.162510    3.83968  0.8588E-13  0.9683E-09  0.2491E-12  0.4474E-08  0.0000E+00  0.1530E+15
   -1.200011    3.94165  0.8588E-13  0.1879E-08  0.4756E-12  0.9249E-07  0.0000E+00  0.1296E+14
   -1.237510    4.00501  0.8588E-13  0.2831E-08  0.7257E-12  0.4380E-05  0.0000E+00 -0.1049E+13
   -1.275010    4.00830  0.8588E-13  0.3282E-08  0.8931E-12  0.4619E-05  0.0000E+00 -0.1164E+13
   -1.312509    4.01145  0.8588E-13  0.3561E-08  0.1075E-11  0.4373E-05  0.0000E+00 -0.1410E+13
   -1.350008    4.01481  0.8588E-13  0.3661E-08  0.1300E-11  0.3675E-05  0.0000E+00 -0.1915E+13
   -1.387507    4.01882  0.8588E-13  0.3531E-08  0.1632E-11  0.2575E-05  0.0000E+00 -0.3150E+13
   -1.425005    4.02451  0.8588E-13  0.3048E-08  0.2270E-11  0.1249E-05  0.0000E+00 -0.7717E+13
   -1.462503    4.03576  0.8588E-13  0.2051E-08  0.4152E-11  0.2376E-06  0.0000E+00 -0.4604E+14
   -1.500001    4.07757  0.8588E-13  0.0000E+00  0.0000E+00  0.0000E+00  0.0000E+00  0.0000E+00
