 1 - depth, m
 2 - temperature, C
 3 - salinity, kg/kg
 4 - turbulent kinetic energy, m**2/s**2
 5 - dissipation rate, m**2/s**3
 6 - kinematic heat conductance, m**2/s
 7 - modulus of horizontal velocity, m/s
 8 - Richardson number, n/d
   -0.000000   -0.00000  0.1626E-12  0.4096E-13  0.8590E-16  0.1000E-09  0.0000E+00  0.9557E+16
   -0.037498    0.14623  0.2588E-12  0.4096E-13  0.8590E-16  0.1000E-09  0.0000E+00  0.9172E+16
   -0.074996    0.29238  0.3196E-12  0.4096E-13  0.8590E-16  0.1000E-09  0.0000E+00  0.8783E+16
   -0.112494    0.43833  0.2994E-12  0.4096E-13  0.8590E-16  0.1000E-09  0.0000E+00  0.8392E+16
   -0.149993    0.58401  0.2393E-12  0.4096E-13  0.8590E-16  0.1000E-09  0.0000E+00  0.8001E+16
   -0.187492    0.72932  0.1810E-12  0.4096E-13  0.8590E-16  0.1000E-09  0.0000E+00  0.7611E+16
   -0.224991    0.87421  0.1401E-12  0.4096E-13  0.8590E-16  0.1000E-09  0.0000E+00  0.7222E+16
   -0.262491    1.01858  0.1158E-12  0.4096E-13  0.8590E-16  0.1000E-09  0.0000E+00  0.6839E+16
   -0.299991    1.16244  0.1026E-12  0.4096E-13  0.8590E-16  0.1000E-09  0.0000E+00  0.6459E+16
   -0.337491    1.30573  0.9581E-13  0.4096E-13  0.8590E-16  0.1000E-09  0.0000E+00  0.6080E+16
   -0.374991    1.44835  0.9221E-13  0.4096E-13  0.8590E-16  0.1000E-09  0.0000E+00  0.5702E+16
   -0.412492    1.59015  0.9019E-13  0.4096E-13  0.8590E-16  0.1000E-09  0.0000E+00  0.5327E+16
   -0.449992    1.73098  0.8892E-13  0.4096E-13  0.8590E-16  0.1000E-09  0.0000E+00  0.4955E+16
   -0.487493    1.87072  0.8804E-13  0.4096E-13  0.8590E-16  0.1000E-09  0.0000E+00  0.4590E+16
   -0.524994    2.00930  0.8739E-13  0.1653E-12  0.8590E-16  0.1000E-09  0.0000E+00  0.4243E+16
   -0.562495    2.14696  0.8690E-13  0.4534E-12  0.1310E-15  0.1000E-09  0.0000E+00  0.3900E+16
   -0.599996    2.28360  0.8655E-13  0.9921E-12  0.2436E-15  0.1000E-09  0.0000E+00  0.3562E+16
   -0.637498    2.41908  0.8630E-13  0.1997E-11  0.4628E-15  0.1000E-09  0.0000E+00  0.3230E+16
   -0.674999    2.55328  0.8613E-13  0.3887E-11  0.8736E-15  0.1000E-09  0.0000E+00  0.2905E+16
   -0.712500    2.68606  0.8602E-13  0.7450E-11  0.1635E-14  0.1000E-09  0.0000E+00  0.2588E+16
   -0.750001    2.81728  0.8596E-13  0.1414E-10  0.3039E-14  0.1000E-09  0.0000E+00  0.2286E+16
   -0.787503    2.94714  0.8592E-13  0.2666E-10  0.5611E-14  0.1000E-09  0.0000E+00  0.1993E+16
   -0.825004    3.07563  0.8590E-13  0.4993E-10  0.1030E-13  0.1000E-09  0.0000E+00  0.1708E+16
   -0.862505    3.20264  0.8589E-13  0.9294E-10  0.1879E-13  0.1000E-09  0.0000E+00  0.1433E+16
   -0.900006    3.32810  0.8589E-13  0.1720E-09  0.3408E-13  0.1000E-09  0.0000E+00  0.1168E+16
   -0.937508    3.45194  0.8588E-13  0.3164E-09  0.6149E-13  0.1869E-09  0.0000E+00  0.9124E+15
   -0.975009    3.57408  0.8588E-13  0.5788E-09  0.1103E-12  0.4585E-09  0.0000E+00  0.6672E+15
   -1.012510    3.69438  0.8588E-13  0.1055E-08  0.1972E-12  0.1267E-08  0.0000E+00  0.4315E+15
   -1.050010    3.81214  0.8588E-13  0.1915E-08  0.3513E-12  0.4659E-08  0.0000E+00  0.2088E+15
   -1.087511    3.92528  0.8588E-13  0.3374E-08  0.6097E-12  0.6288E-07  0.0000E+00  0.2660E+14
   -1.125011    4.00484  0.8588E-13  0.4279E-08  0.7786E-12  0.9247E-05  0.0000E+00 -0.5265E+12
   -1.162512    4.00658  0.8588E-13  0.4695E-08  0.8778E-12  0.9685E-05  0.0000E+00 -0.5511E+12
   -1.200012    4.00824  0.8588E-13  0.5009E-08  0.9805E-12  0.9690E-05  0.0000E+00 -0.5990E+12
   -1.237512    4.00992  0.8588E-13  0.5227E-08  0.1093E-11  0.9282E-05  0.0000E+00 -0.6778E+12
   -1.275011    4.01169  0.8588E-13  0.5344E-08  0.1225E-11  0.8467E-05  0.0000E+00 -0.8054E+12
   -1.312511    4.01364  0.8588E-13  0.5341E-08  0.1390E-11  0.7245E-05  0.0000E+00 -0.1024E+13
   -1.350010    4.01593  0.8588E-13  0.5183E-08  0.1620E-11  0.5629E-05  0.0000E+00 -0.1447E+13
   -1.387508    4.01890  0.8588E-13  0.4791E-08  0.1992E-11  0.3682E-05  0.0000E+00 -0.2474E+13
   -1.425007    4.02344  0.8588E-13  0.3989E-08  0.2769E-11  0.1652E-05  0.0000E+00 -0.6438E+13
   -1.462505    4.03322  0.8588E-13  0.2545E-08  0.5259E-11  0.2758E-06  0.0000E+00 -0.4564E+14
   -1.500003    4.07594  0.8588E-13  0.0000E+00  0.0000E+00  0.0000E+00  0.0000E+00  0.0000E+00
