 1 - depth, m
 2 - temperature, C
 3 - salinity, kg/kg
 4 - turbulent kinetic energy, m**2/s**2
 5 - dissipation rate, m**2/s**3
 6 - kinematic heat conductance, m**2/s
 7 - modulus of horizontal velocity, m/s
 8 - Richardson number, n/d
   -0.000000   -0.00000  0.4328E-12  0.4096E-13  0.8590E-16  0.1000E-09  0.0000E+00  0.9772E+16
   -0.037498    0.14958  0.2567E-12  0.4096E-13  0.8590E-16  0.1000E-09  0.0000E+00  0.9257E+16
   -0.074995    0.29725  0.2513E-12  0.4096E-13  0.8590E-16  0.1000E-09  0.0000E+00  0.8765E+16
   -0.112494    0.44311  0.2427E-12  0.4096E-13  0.8590E-16  0.1000E-09  0.0000E+00  0.8293E+16
   -0.149992    0.58725  0.2173E-12  0.4096E-13  0.8590E-16  0.1000E-09  0.0000E+00  0.7842E+16
   -0.187491    0.72975  0.1838E-12  0.4096E-13  0.8590E-16  0.1000E-09  0.0000E+00  0.7408E+16
   -0.224990    0.87069  0.1522E-12  0.4096E-13  0.8590E-16  0.1000E-09  0.0000E+00  0.6990E+16
   -0.262489    1.01014  0.1277E-12  0.4096E-13  0.8590E-16  0.1000E-09  0.0000E+00  0.6588E+16
   -0.299989    1.14813  0.1111E-12  0.4096E-13  0.8590E-16  0.1000E-09  0.0000E+00  0.6198E+16
   -0.337489    1.28472  0.1009E-12  0.4096E-13  0.8590E-16  0.1000E-09  0.0000E+00  0.5820E+16
   -0.374989    1.41991  0.9492E-13  0.4096E-13  0.8590E-16  0.1000E-09  0.0000E+00  0.5458E+16
   -0.412489    1.55381  0.9153E-13  0.4096E-13  0.8590E-16  0.1000E-09  0.0000E+00  0.5109E+16
   -0.449990    1.68649  0.8956E-13  0.4096E-13  0.8590E-16  0.1000E-09  0.0000E+00  0.4768E+16
   -0.487490    1.81793  0.8836E-13  0.4096E-13  0.8590E-16  0.1000E-09  0.0000E+00  0.4437E+16
   -0.524991    1.94812  0.8757E-13  0.4096E-13  0.8590E-16  0.1000E-09  0.0000E+00  0.4117E+16
   -0.562492    2.07712  0.8703E-13  0.4096E-13  0.8590E-16  0.1000E-09  0.0000E+00  0.3805E+16
   -0.599992    2.20490  0.8665E-13  0.4270E-13  0.8590E-16  0.1000E-09  0.0000E+00  0.3501E+16
   -0.637493    2.33145  0.8638E-13  0.1001E-12  0.8654E-16  0.1000E-09  0.0000E+00  0.3205E+16
   -0.674994    2.45673  0.8619E-13  0.3119E-12  0.1119E-15  0.1000E-09  0.0000E+00  0.2918E+16
   -0.712496    2.58072  0.8607E-13  0.7426E-12  0.2085E-15  0.1000E-09  0.0000E+00  0.2639E+16
   -0.749997    2.70337  0.8599E-13  0.1581E-11  0.4125E-15  0.1000E-09  0.0000E+00  0.2372E+16
   -0.787498    2.82485  0.8594E-13  0.3228E-11  0.8136E-15  0.1000E-09  0.0000E+00  0.2113E+16
   -0.824999    2.94521  0.8591E-13  0.6463E-11  0.1590E-14  0.1000E-09  0.0000E+00  0.1861E+16
   -0.862500    3.06440  0.8590E-13  0.1280E-10  0.3080E-14  0.1000E-09  0.0000E+00  0.1617E+16
   -0.900001    3.18238  0.8589E-13  0.2514E-10  0.5921E-14  0.1000E-09  0.0000E+00  0.1379E+16
   -0.937502    3.29910  0.8589E-13  0.4901E-10  0.1130E-13  0.1000E-09  0.0000E+00  0.1149E+16
   -0.975002    3.41448  0.8588E-13  0.9481E-10  0.2141E-13  0.1000E-09  0.0000E+00  0.9264E+15
   -1.012503    3.52841  0.8588E-13  0.1825E-09  0.4036E-13  0.1577E-09  0.0000E+00  0.7113E+15
   -1.050004    3.64072  0.8588E-13  0.3502E-09  0.7586E-13  0.4158E-09  0.0000E+00  0.5051E+15
   -1.087504    3.75129  0.8588E-13  0.6676E-09  0.1417E-12  0.1263E-08  0.0000E+00  0.3087E+15
   -1.125004    3.86030  0.8588E-13  0.1261E-08  0.2625E-12  0.6012E-08  0.0000E+00  0.1200E+15
   -1.162504    3.96714  0.8588E-13  0.2098E-08  0.4356E-12  0.1097E-05  0.0000E+00  0.3752E+13
   -1.200004    3.99812  0.8588E-13  0.2797E-08  0.6017E-12  0.4653E-05  0.0000E+00 -0.6925E+12
   -1.237504    4.00156  0.8588E-13  0.3214E-08  0.7347E-12  0.5137E-05  0.0000E+00 -0.7938E+12
   -1.275003    4.00466  0.8588E-13  0.3518E-08  0.8794E-12  0.5123E-05  0.0000E+00 -0.9516E+12
   -1.312502    4.00777  0.8588E-13  0.3704E-08  0.1050E-11  0.4674E-05  0.0000E+00 -0.1220E+13
   -1.350001    4.01117  0.8588E-13  0.3744E-08  0.1274E-11  0.3821E-05  0.0000E+00 -0.1737E+13
   -1.387500    4.01532  0.8588E-13  0.3579E-08  0.1615E-11  0.2620E-05  0.0000E+00 -0.2983E+13
   -1.424998    4.02130  0.8588E-13  0.3079E-08  0.2280E-11  0.1252E-05  0.0000E+00 -0.7612E+13
   -1.462496    4.03321  0.8588E-13  0.2082E-08  0.4237E-11  0.2406E-06  0.0000E+00 -0.4668E+14
   -1.499993    4.07668  0.8588E-13  0.0000E+00  0.0000E+00  0.0000E+00  0.0000E+00  0.0000E+00
