 1 - depth, m
 2 - temperature, C
 3 - salinity, kg/kg
 4 - turbulent kinetic energy, m**2/s**2
 5 - dissipation rate, m**2/s**3
 6 - kinematic heat conductance, m**2/s
 7 - modulus of horizontal velocity, m/s
 8 - Richardson number, n/d
   -0.000000   13.34520  0.9256E-13  0.1269E-03  0.1254E-03  0.6255E-04  0.9808E-01 -0.4083E-01
   -0.037498   13.42575  0.9255E-13  0.6984E-04  0.3908E-04  0.7898E-04  0.3417E-01 -0.4168E-01
   -0.074996   13.44246  0.9255E-13  0.4889E-04  0.1294E-04  0.9039E-04  0.2358E-01 -0.1181E+00
   -0.112494   13.45391  0.9255E-13  0.3813E-04  0.6586E-05  0.1006E-03  0.1894E-01 -0.7961E-01
   -0.149993   13.46270  0.9254E-13  0.3082E-04  0.3722E-05  0.1183E-03  0.1579E-01  0.1303E+01
   -0.187492   13.46959  0.9254E-13  0.2552E-04  0.2127E-05  0.1488E-03  0.1341E-01  0.5371E+01
   -0.224991   13.47520  0.9254E-13  0.2159E-04  0.1222E-05  0.1784E-03  0.1154E-01  0.2071E+02
   -0.262490   13.47993  0.9254E-13  0.1869E-04  0.7232E-06  0.2167E-03  0.1008E-01  0.5274E+02
   -0.299990   13.48390  0.9254E-13  0.1651E-04  0.4437E-06  0.2660E-03  0.8867E-02  0.1316E+04
   -0.337490   13.48745  0.9254E-13  0.1485E-04  0.2854E-06  0.3109E-03  0.7837E-02  0.9624E+02
   -0.374990   13.49022  0.9254E-13  0.1359E-04  0.1998E-06  0.3590E-03  0.7009E-02  0.1454E+03
   -0.412490   13.49240  0.9254E-13  0.1263E-04  0.1477E-06  0.4042E-03  0.6329E-02  0.8282E+02
   -0.449991   13.49426  0.9254E-13  0.1188E-04  0.1139E-06  0.4445E-03  0.5758E-02  0.2788E+03
   -0.487492   13.49580  0.9254E-13  0.1131E-04  0.9116E-07  0.4817E-03  0.5281E-02  0.2690E+02
   -0.524992   13.49715  0.9254E-13  0.1087E-04  0.7524E-07  0.5059E-03  0.4873E-02  0.5375E+01
   -0.562493   13.49837  0.9254E-13  0.1054E-04  0.6357E-07  0.5290E-03  0.4493E-02  0.5278E+01
   -0.599994   13.49950  0.9254E-13  0.1026E-04  0.5481E-07  0.5510E-03  0.4137E-02  0.2571E+02
   -0.637495   13.50055  0.9254E-13  0.1003E-04  0.4795E-07  0.5712E-03  0.3804E-02  0.8270E+01
   -0.674997   13.50155  0.9254E-13  0.9811E-05  0.4243E-07  0.5908E-03  0.3491E-02  0.3025E+02
   -0.712498   13.50250  0.9254E-13  0.9606E-05  0.3793E-07  0.6101E-03  0.3197E-02  0.1402E+03
   -0.749999   13.50341  0.9254E-13  0.9403E-05  0.3422E-07  0.6281E-03  0.2920E-02  0.8406E+01
   -0.787500   13.50429  0.9254E-13  0.9191E-05  0.3111E-07  0.6439E-03  0.2659E-02  0.4269E+01
   -0.825001   13.50514  0.9254E-13  0.8967E-05  0.2851E-07  0.6567E-03  0.2413E-02  0.5792E+01
   -0.862502   13.50596  0.9254E-13  0.8724E-05  0.2631E-07  0.6661E-03  0.2181E-02  0.1205E+02
   -0.900004   13.50677  0.9254E-13  0.8460E-05  0.2447E-07  0.6708E-03  0.1963E-02  0.3294E+01
   -0.937505   13.50756  0.9254E-13  0.8171E-05  0.2292E-07  0.6685E-03  0.1756E-02  0.4175E+01
   -0.975005   13.50835  0.9254E-13  0.7855E-05  0.2163E-07  0.6594E-03  0.1560E-02  0.3303E+01
   -1.012506   13.50915  0.9254E-13  0.7516E-05  0.2057E-07  0.6542E-03  0.1374E-02  0.3017E+01
   -1.050007   13.50994  0.9254E-13  0.7161E-05  0.1974E-07  0.6508E-03  0.1211E-02  0.2315E+01
   -1.087507   13.51073  0.9254E-13  0.6802E-05  0.1915E-07  0.6365E-03  0.1071E-02  0.1899E+01
   -1.125008   13.51153  0.9254E-13  0.6449E-05  0.1879E-07  0.6034E-03  0.9530E-03  0.1631E+01
   -1.162508   13.51237  0.9254E-13  0.6109E-05  0.1865E-07  0.5637E-03  0.8552E-03  0.1449E+01
   -1.200008   13.51325  0.9254E-13  0.5790E-05  0.1876E-07  0.5208E-03  0.7756E-03  0.1376E+01
   -1.237508   13.51420  0.9254E-13  0.5488E-05  0.1911E-07  0.4716E-03  0.7124E-03  0.1608E+01
   -1.275007   13.51524  0.9254E-13  0.5193E-05  0.1979E-07  0.4168E-03  0.6621E-03  0.2393E+01
   -1.312506   13.51641  0.9254E-13  0.4882E-05  0.2094E-07  0.3598E-03  0.6213E-03  0.4796E+01
   -1.350005   13.51776  0.9254E-13  0.4520E-05  0.2299E-07  0.2818E-03  0.5865E-03  0.1573E+02
   -1.387504   13.51950  0.9254E-13  0.4076E-05  0.2680E-07  0.2379E-03  0.5531E-03  0.1952E+03
   -1.425002   13.52155  0.9254E-13  0.3396E-05  0.3799E-07  0.1101E-03  0.5260E-03  0.6214E+04
   -1.462500   13.52873  0.9254E-13  0.1933E-05  0.8485E-07  0.2717E-04  0.4886E-03 -0.8453E+04
   -1.499998   13.54748  0.9254E-13  0.0000E+00  0.0000E+00  0.0000E+00  0.4951E-03  0.0000E+00
