 1 - depth, m
 2 - temperature, C
 3 - salinity, kg/kg
 4 - turbulent kinetic energy, m**2/s**2
 5 - dissipation rate, m**2/s**3
 6 - kinematic heat conductance, m**2/s
 7 - modulus of horizontal velocity, m/s
 8 - Richardson number, n/d
   -0.000000    6.99740  0.9924E-13  0.4653E-03  0.9027E-03  0.9182E-04  0.2420E+00 -0.1497E-03
   -0.037498    7.03236  0.9926E-13  0.2439E-03  0.2773E-03  0.1659E-03  0.7266E-01  0.2747E+00
   -0.074996    7.03777  0.9926E-13  0.1659E-03  0.9286E-04  0.1866E-03  0.4859E-01 -0.4035E-01
   -0.112494    7.04163  0.9926E-13  0.1280E-03  0.5108E-04  0.1854E-03  0.3994E-01 -0.3429E-02
   -0.149993    7.04403  0.9927E-13  0.1032E-03  0.3026E-04  0.1828E-03  0.3432E-01 -0.4031E-02
   -0.187492    7.04585  0.9927E-13  0.8492E-04  0.1899E-04  0.1832E-03  0.2999E-01 -0.9839E-02
   -0.224991    7.04738  0.9927E-13  0.7052E-04  0.1187E-04  0.1866E-03  0.2642E-01 -0.2489E-01
   -0.262491    7.04877  0.9927E-13  0.5986E-04  0.7753E-05  0.1894E-03  0.2357E-01 -0.9058E-02
   -0.299991    7.05005  0.9927E-13  0.5158E-04  0.5166E-05  0.1930E-03  0.2113E-01 -0.8324E-02
   -0.337491    7.05124  0.9927E-13  0.4492E-04  0.3473E-05  0.1976E-03  0.1907E-01 -0.1189E-01
   -0.374991    7.05234  0.9927E-13  0.3947E-04  0.2349E-05  0.2028E-03  0.1731E-01 -0.1894E-01
   -0.412491    7.05339  0.9927E-13  0.3496E-04  0.1601E-05  0.2090E-03  0.1579E-01 -0.3118E-01
   -0.449992    7.05439  0.9927E-13  0.3124E-04  0.1107E-05  0.2165E-03  0.1449E-01 -0.5725E-01
   -0.487493    7.05533  0.9927E-13  0.2820E-04  0.7807E-06  0.2246E-03  0.1340E-01 -0.9007E-01
   -0.524994    7.05622  0.9927E-13  0.2575E-04  0.5681E-06  0.2296E-03  0.1250E-01 -0.7115E-01
   -0.562495    7.05710  0.9927E-13  0.2372E-04  0.4288E-06  0.2353E-03  0.1161E-01  0.2535E+01
   -0.599996    7.05796  0.9927E-13  0.2198E-04  0.3280E-06  0.2395E-03  0.1076E-01 -0.5503E-01
   -0.637497    7.05882  0.9927E-13  0.2040E-04  0.2577E-06  0.2491E-03  0.9914E-02  0.1140E+01
   -0.674998    7.05965  0.9927E-13  0.1906E-04  0.2105E-06  0.2562E-03  0.9191E-02  0.1893E+01
   -0.712499    7.06046  0.9927E-13  0.1786E-04  0.1753E-06  0.2636E-03  0.8527E-02  0.3386E+00
   -0.750001    7.06126  0.9927E-13  0.1678E-04  0.1484E-06  0.2711E-03  0.7915E-02  0.4621E+02
   -0.787502    7.06204  0.9927E-13  0.1580E-04  0.1273E-06  0.2828E-03  0.7347E-02  0.4288E+02
   -0.825003    7.06279  0.9927E-13  0.1490E-04  0.1104E-06  0.2983E-03  0.6818E-02  0.7016E+02
   -0.862504    7.06352  0.9927E-13  0.1407E-04  0.9660E-07  0.3113E-03  0.6323E-02  0.6509E+01
   -0.900006    7.06423  0.9927E-13  0.1328E-04  0.8507E-07  0.3175E-03  0.5857E-02  0.2153E+01
   -0.937507    7.06493  0.9927E-13  0.1252E-04  0.7528E-07  0.3205E-03  0.5413E-02  0.4687E+01
   -0.975008    7.06563  0.9927E-13  0.1178E-04  0.6680E-07  0.3250E-03  0.4987E-02  0.5164E+02
   -1.012509    7.06634  0.9927E-13  0.1105E-04  0.5934E-07  0.3324E-03  0.4574E-02  0.9129E+01
   -1.050009    7.06703  0.9927E-13  0.1034E-04  0.5280E-07  0.3348E-03  0.4200E-02  0.1790E+01
   -1.087510    7.06773  0.9927E-13  0.9643E-05  0.4706E-07  0.3362E-03  0.3862E-02  0.3771E+01
   -1.125010    7.06843  0.9928E-13  0.8967E-05  0.4206E-07  0.3360E-03  0.3556E-02  0.6253E+01
   -1.162511    7.06914  0.9928E-13  0.8311E-05  0.3773E-07  0.3331E-03  0.3280E-02  0.1426E+02
   -1.200011    7.06987  0.9928E-13  0.7675E-05  0.3404E-07  0.3252E-03  0.3032E-02  0.9288E+01
   -1.237510    7.07062  0.9928E-13  0.7058E-05  0.3095E-07  0.3099E-03  0.2808E-02  0.1715E+02
   -1.275010    7.07142  0.9928E-13  0.6456E-05  0.2849E-07  0.2868E-03  0.2608E-02  0.3327E+02
   -1.312509    7.07230  0.9928E-13  0.5863E-05  0.2671E-07  0.2546E-03  0.2431E-02  0.1678E+02
   -1.350008    7.07331  0.9928E-13  0.5265E-05  0.2580E-07  0.2130E-03  0.2274E-02  0.2409E+02
   -1.387507    7.07453  0.9928E-13  0.4625E-05  0.2622E-07  0.1633E-03  0.2136E-02  0.4220E+02
   -1.425006    7.07616  0.9928E-13  0.3847E-05  0.2984E-07  0.9294E-04  0.2012E-02  0.3783E+05
   -1.462504    7.07903  0.9928E-13  0.2007E-05  0.5825E-07  0.1045E-04  0.1901E-02 -0.4060E+04
   -1.500001    7.10540  0.9928E-13  0.0000E+00  0.0000E+00  0.0000E+00  0.1831E-02  0.0000E+00
