 1 - depth, m
 2 - temperature, C
 3 - salinity, kg/kg
 4 - turbulent kinetic energy, m**2/s**2
 5 - dissipation rate, m**2/s**3
 6 - kinematic heat conductance, m**2/s
 7 - modulus of horizontal velocity, m/s
 8 - Richardson number, n/d
   -0.000000   -0.00000  0.8991E-12  0.4096E-13  0.8590E-16  0.1000E-09  0.0000E+00  0.1190E+17
   -0.037498    0.18298  0.4298E-12  0.4096E-13  0.8590E-16  0.1000E-09  0.0000E+00  0.1122E+17
   -0.074995    0.36455  0.2549E-12  0.4096E-13  0.8590E-16  0.1000E-09  0.0000E+00  0.1055E+17
   -0.112494    0.54457  0.1832E-12  0.4096E-13  0.8590E-16  0.1000E-09  0.0000E+00  0.9889E+16
   -0.149992    0.72287  0.1453E-12  0.4096E-13  0.8590E-16  0.1000E-09  0.0000E+00  0.9240E+16
   -0.187491    0.89930  0.1222E-12  0.4096E-13  0.8590E-16  0.1000E-09  0.0000E+00  0.8606E+16
   -0.224990    1.07374  0.1079E-12  0.6059E-13  0.8590E-16  0.1000E-09  0.0000E+00  0.7986E+16
   -0.262490    1.24605  0.9946E-13  0.1846E-12  0.8628E-16  0.1000E-09  0.0000E+00  0.7385E+16
   -0.299989    1.41615  0.9470E-13  0.4718E-12  0.1064E-15  0.1000E-09  0.0000E+00  0.6803E+16
   -0.337489    1.58394  0.9210E-13  0.9613E-12  0.1695E-15  0.1000E-09  0.0000E+00  0.6239E+16
   -0.374989    1.74933  0.9062E-13  0.1774E-11  0.2867E-15  0.1000E-09  0.0000E+00  0.5711E+16
   -0.412490    1.91271  0.8964E-13  0.3135E-11  0.4878E-15  0.1000E-09  0.0000E+00  0.5209E+16
   -0.449990    2.07432  0.8882E-13  0.5432E-11  0.8266E-15  0.1000E-09  0.0000E+00  0.4722E+16
   -0.487491    2.23407  0.8800E-13  0.9319E-11  0.1395E-14  0.1000E-09  0.0000E+00  0.4249E+16
   -0.524991    2.39189  0.8714E-13  0.1585E-10  0.2338E-14  0.1000E-09  0.0000E+00  0.3791E+16
   -0.562492    2.54765  0.8626E-13  0.2680E-10  0.3900E-14  0.1000E-09  0.0000E+00  0.3349E+16
   -0.599993    2.70127  0.8541E-13  0.4514E-10  0.6483E-14  0.1000E-09  0.0000E+00  0.2924E+16
   -0.637494    2.85269  0.8466E-13  0.7582E-10  0.1075E-13  0.1000E-09  0.0000E+00  0.2516E+16
   -0.674995    3.00181  0.8405E-13  0.1270E-09  0.1778E-13  0.1000E-09  0.0000E+00  0.2124E+16
   -0.712496    3.14847  0.8361E-13  0.2123E-09  0.2935E-13  0.1000E-09  0.0000E+00  0.1748E+16
   -0.749998    3.29243  0.8333E-13  0.3540E-09  0.4835E-13  0.1069E-09  0.0000E+00  0.1393E+16
   -0.787499    3.43375  0.8318E-13  0.5891E-09  0.7949E-13  0.2094E-09  0.0000E+00  0.1054E+16
   -0.825000    3.57191  0.8311E-13  0.9780E-09  0.1304E-12  0.4934E-09  0.0000E+00  0.7326E+15
   -0.862501    3.70593  0.8308E-13  0.1620E-08  0.2134E-12  0.1350E-08  0.0000E+00  0.4349E+15
   -0.900002    3.83430  0.8307E-13  0.2671E-08  0.3480E-12  0.5621E-08  0.0000E+00  0.1705E+15
   -0.937503    3.95322  0.8307E-13  0.3999E-08  0.5224E-12  0.1467E-05  0.0000E+00  0.1233E+14
   -0.975004    3.99731  0.8307E-13  0.4598E-08  0.6079E-12  0.1165E-04  0.0000E+00 -0.2411E+12
   -1.012504    3.99895  0.8307E-13  0.4949E-08  0.6682E-12  0.1285E-04  0.0000E+00 -0.2610E+12
   -1.050005    4.00039  0.8307E-13  0.5261E-08  0.7328E-12  0.1354E-04  0.0000E+00 -0.2836E+12
   -1.087505    4.00175  0.8307E-13  0.5536E-08  0.8030E-12  0.1382E-04  0.0000E+00 -0.3117E+12
   -1.125006    4.00308  0.8307E-13  0.5773E-08  0.8809E-12  0.1375E-04  0.0000E+00 -0.3483E+12
   -1.162506    4.00444  0.8307E-13  0.5970E-08  0.9690E-12  0.1332E-04  0.0000E+00 -0.3971E+12
   -1.200006    4.00585  0.8307E-13  0.6119E-08  0.1071E-11  0.1256E-04  0.0000E+00 -0.4638E+12
   -1.237505    4.00736  0.8307E-13  0.6210E-08  0.1192E-11  0.1150E-04  0.0000E+00 -0.5583E+12
   -1.275005    4.00904  0.8307E-13  0.6229E-08  0.1343E-11  0.1011E-04  0.0000E+00 -0.7015E+12
   -1.312504    4.01098  0.8307E-13  0.6148E-08  0.1541E-11  0.8395E-05  0.0000E+00 -0.9398E+12
   -1.350003    4.01334  0.8307E-13  0.5924E-08  0.1825E-11  0.6358E-05  0.0000E+00 -0.1397E+13
   -1.387501    4.01651  0.8307E-13  0.5465E-08  0.2292E-11  0.4078E-05  0.0000E+00 -0.2512E+13
   -1.425000    4.02146  0.8307E-13  0.4574E-08  0.3271E-11  0.1814E-05  0.0000E+00 -0.6865E+13
   -1.462497    4.03231  0.8307E-13  0.2968E-08  0.6423E-11  0.3121E-06  0.0000E+00 -0.5107E+14
   -1.499995    4.07927  0.8307E-13  0.0000E+00  0.0000E+00  0.0000E+00  0.0000E+00  0.0000E+00
