 1 - depth, m
 2 - temperature, C
 3 - salinity, kg/kg
 4 - turbulent kinetic energy, m**2/s**2
 5 - dissipation rate, m**2/s**3
 6 - kinematic heat conductance, m**2/s
 7 - modulus of horizontal velocity, m/s
 8 - Richardson number, n/d
   -0.000000   -0.00000  0.2182E-13  0.4095E-13  0.8589E-16  0.1000E-09  0.0000E+00  0.6180E+16
   -0.037498    0.09389  0.1389E-12  0.4095E-13  0.8589E-16  0.1000E-09  0.0000E+00  0.6143E+16
   -0.074997    0.18968  0.2036E-12  0.4095E-13  0.8589E-16  0.1000E-09  0.0000E+00  0.6091E+16
   -0.112496    0.28726  0.2344E-12  0.4095E-13  0.8589E-16  0.1000E-09  0.0000E+00  0.6021E+16
   -0.149995    0.38649  0.2454E-12  0.4095E-13  0.8589E-16  0.1000E-09  0.0000E+00  0.5932E+16
   -0.187494    0.48718  0.2411E-12  0.4095E-13  0.8589E-16  0.1000E-09  0.0000E+00  0.5825E+16
   -0.224994    0.58913  0.2252E-12  0.4095E-13  0.8589E-16  0.1000E-09  0.0000E+00  0.5700E+16
   -0.262494    0.69212  0.2026E-12  0.4095E-13  0.8589E-16  0.1000E-09  0.0000E+00  0.5562E+16
   -0.299994    0.79601  0.1780E-12  0.4095E-13  0.8589E-16  0.1000E-09  0.0000E+00  0.5411E+16
   -0.337495    0.90062  0.1550E-12  0.4095E-13  0.8589E-16  0.1000E-09  0.0000E+00  0.5247E+16
   -0.374996    1.00575  0.1358E-12  0.4095E-13  0.8589E-16  0.1000E-09  0.0000E+00  0.5067E+16
   -0.412497    1.11110  0.1209E-12  0.4095E-13  0.8589E-16  0.1000E-09  0.0000E+00  0.4875E+16
   -0.449998    1.21642  0.1101E-12  0.4095E-13  0.8589E-16  0.1000E-09  0.0000E+00  0.4677E+16
   -0.487499    1.32157  0.1026E-12  0.4095E-13  0.8589E-16  0.1000E-09  0.0000E+00  0.4477E+16
   -0.525000    1.42646  0.9753E-13  0.4095E-13  0.8589E-16  0.1000E-09  0.0000E+00  0.4288E+16
   -0.562502    1.53130  0.9415E-13  0.4095E-13  0.8589E-16  0.1000E-09  0.0000E+00  0.4096E+16
   -0.600003    1.63598  0.9188E-13  0.4095E-13  0.8589E-16  0.1000E-09  0.0000E+00  0.3902E+16
   -0.637505    1.74045  0.9031E-13  0.4095E-13  0.8589E-16  0.1000E-09  0.0000E+00  0.3708E+16
   -0.675007    1.84462  0.8917E-13  0.4095E-13  0.8589E-16  0.1000E-09  0.0000E+00  0.3515E+16
   -0.712508    1.94844  0.8831E-13  0.4095E-13  0.8589E-16  0.1000E-09  0.0000E+00  0.3322E+16
   -0.750010    2.05186  0.8763E-13  0.4095E-13  0.8589E-16  0.1000E-09  0.0000E+00  0.3133E+16
   -0.787512    2.15493  0.8709E-13  0.4095E-13  0.8589E-16  0.1000E-09  0.0000E+00  0.2947E+16
   -0.825014    2.25766  0.8664E-13  0.4095E-13  0.8589E-16  0.1000E-09  0.0000E+00  0.2763E+16
   -0.862515    2.36002  0.8629E-13  0.4095E-13  0.8589E-16  0.1000E-09  0.0000E+00  0.2581E+16
   -0.900017    2.46200  0.8602E-13  0.4095E-13  0.8589E-16  0.1000E-09  0.0000E+00  0.2401E+16
   -0.937519    2.56358  0.8581E-13  0.4095E-13  0.8589E-16  0.1000E-09  0.0000E+00  0.2223E+16
   -0.975020    2.66477  0.8565E-13  0.4095E-13  0.8589E-16  0.1000E-09  0.0000E+00  0.2048E+16
   -1.012521    2.76556  0.8555E-13  0.4095E-13  0.8589E-16  0.1000E-09  0.0000E+00  0.1870E+16
   -1.050023    2.86567  0.8547E-13  0.4095E-13  0.8589E-16  0.1000E-09  0.0000E+00  0.1695E+16
   -1.087524    2.96499  0.8542E-13  0.4095E-13  0.8589E-16  0.1000E-09  0.0000E+00  0.1524E+16
   -1.125025    3.06351  0.8539E-13  0.4095E-13  0.8589E-16  0.1000E-09  0.0000E+00  0.1369E+16
   -1.162525    3.16222  0.8537E-13  0.4095E-13  0.8589E-16  0.1000E-09  0.0000E+00  0.1218E+16
   -1.200026    3.26135  0.8535E-13  0.4095E-13  0.8589E-16  0.1000E-09  0.0000E+00  0.1066E+16
   -1.237526    3.36103  0.8535E-13  0.4095E-13  0.8589E-16  0.1000E-09  0.0000E+00  0.9125E+15
   -1.275026    3.46140  0.8534E-13  0.1344E-12  0.2069E-15  0.1000E-09  0.0000E+00  0.7577E+15
   -1.312526    3.56261  0.8534E-13  0.6154E-12  0.9101E-15  0.1000E-09  0.0000E+00  0.6003E+15
   -1.350026    3.66486  0.8534E-13  0.2795E-11  0.4080E-14  0.1000E-09  0.0000E+00  0.4391E+15
   -1.387525    3.76834  0.8534E-13  0.1252E-10  0.1823E-13  0.1567E-09  0.0000E+00  0.2727E+15
   -1.425024    3.87321  0.8534E-13  0.5516E-10  0.8180E-13  0.1505E-08  0.0000E+00  0.9986E+14
   -1.462522    3.97869  0.8534E-13  0.2314E-09  0.3766E-12  0.5088E-07  0.0000E+00 -0.3982E+14
   -1.500020    4.05815  0.8534E-13  0.0000E+00  0.0000E+00  0.0000E+00  0.0000E+00  0.0000E+00
