 1 - depth, m
 2 - temperature, C
 3 - salinity, kg/kg
 4 - turbulent kinetic energy, m**2/s**2
 5 - dissipation rate, m**2/s**3
 6 - kinematic heat conductance, m**2/s
 7 - modulus of horizontal velocity, m/s
 8 - Richardson number, n/d
   -0.000000   -0.00000  0.8523E-13  0.1674E-04  0.1276E-05  0.2220E-04  0.2476E-01  0.2727E-02
   -0.037496    0.00525  0.8518E-13  0.1363E-04  0.5088E-06  0.3651E-04  0.1637E-01  0.6488E-02
   -0.074993    0.00824  0.8515E-13  0.1130E-04  0.2785E-06  0.4559E-04  0.1247E-01  0.1201E-01
   -0.112490    0.01051  0.8513E-13  0.9434E-05  0.1731E-06  0.5093E-04  0.9937E-02  0.2023E-01
   -0.149987    0.01244  0.8511E-13  0.7885E-05  0.1148E-06  0.5351E-04  0.8095E-02  0.3296E-01
   -0.187484    0.01418  0.8509E-13  0.6581E-05  0.7913E-07  0.5407E-04  0.6684E-02  0.5408E-01
   -0.224982    0.01581  0.8507E-13  0.5486E-05  0.5593E-07  0.5330E-04  0.5571E-02  0.9443E-01
   -0.262480    0.01739  0.8505E-13  0.4581E-05  0.4043E-07  0.5097E-04  0.4686E-02  0.1655E+00
   -0.299979    0.01906  0.8503E-13  0.3817E-05  0.2962E-07  0.4785E-04  0.3948E-02  0.3719E+00
   -0.337477    0.02119  0.8500E-13  0.3166E-05  0.2184E-07  0.4429E-04  0.3322E-02  0.1611E+01
   -0.374976    0.02400  0.8496E-13  0.2607E-05  0.1613E-07  0.4038E-04  0.2800E-02  0.1130E+02
   -0.412475    0.02680  0.8492E-13  0.2128E-05  0.1188E-07  0.3628E-04  0.2370E-02  0.7408E+02
   -0.449974    0.02921  0.8487E-13  0.1722E-05  0.8720E-08  0.3262E-04  0.2017E-02  0.5479E+02
   -0.487473    0.03077  0.8484E-13  0.1387E-05  0.6411E-08  0.2949E-04  0.1739E-02 -0.1391E+04
   -0.524973    0.03189  0.8482E-13  0.1117E-05  0.4759E-08  0.2430E-04  0.1526E-02 -0.5883E+03
   -0.562472    0.03348  0.8479E-13  0.8926E-06  0.3539E-08  0.1920E-04  0.1325E-02  0.1488E+05
   -0.599972    0.03598  0.8473E-13  0.7065E-06  0.2628E-08  0.1511E-04  0.1135E-02  0.1587E+06
   -0.637471    0.03983  0.8466E-13  0.5527E-06  0.1942E-08  0.1168E-04  0.9566E-03  0.1357E+07
   -0.674971    0.04457  0.8458E-13  0.4254E-06  0.1422E-08  0.8717E-05  0.7956E-03  0.1232E+08
   -0.712471    0.04991  0.8450E-13  0.3200E-06  0.1026E-08  0.6193E-05  0.6516E-03  0.1263E+09
   -0.749971    0.05587  0.8441E-13  0.2332E-06  0.7225E-09  0.4093E-05  0.5237E-03  0.1498E+10
   -0.787470    0.06314  0.8432E-13  0.1623E-06  0.4909E-09  0.2421E-05  0.4105E-03  0.1790E+11
   -0.824970    0.07279  0.8422E-13  0.1050E-06  0.3143E-09  0.1180E-05  0.3107E-03  0.2032E+12
   -0.862470    0.08660  0.8411E-13  0.5923E-07  0.1787E-09  0.3733E-06  0.2221E-03  0.2138E+13
   -0.899969    0.10780  0.8395E-13  0.2429E-07  0.7577E-10  0.5428E-07  0.1410E-03  0.2064E+14
   -0.937469    0.14116  0.8362E-13  0.5545E-08  0.1768E-10  0.1113E-07  0.6790E-04  0.1684E+15
   -0.974969    0.18493  0.8308E-13  0.8850E-09  0.2818E-11  0.2232E-08  0.2560E-04  0.2768E+15
   -1.012468    0.23401  0.8287E-13  0.1278E-09  0.3953E-12  0.5302E-09  0.6471E-05  0.3383E+15
   -1.049967    0.27339  0.8278E-13  0.1913E-10  0.5597E-13  0.1721E-09  0.1490E-05  0.3688E+15
   -1.087466    0.30357  0.8271E-13  0.3119E-11  0.8435E-14  0.1074E-09  0.3349E-06  0.4165E+15
   -1.124965    0.32837  0.8268E-13  0.5649E-12  0.1410E-14  0.1001E-09  0.7379E-07  0.7233E+15
   -1.162464    0.36022  0.8265E-13  0.1315E-12  0.3006E-15  0.1000E-09  0.1594E-07  0.1230E+16
   -1.199962    0.40536  0.8262E-13  0.5519E-13  0.1176E-15  0.1000E-09  0.3370E-08  0.2059E+16
   -1.237461    0.47084  0.8258E-13  0.4286E-13  0.8947E-16  0.1000E-09  0.6970E-09  0.3427E+16
   -1.274959    0.56643  0.8255E-13  0.4100E-13  0.8598E-16  0.1000E-09  0.1409E-09  0.5517E+16
   -1.312457    0.70503  0.8253E-13  0.4096E-13  0.8591E-16  0.1000E-09  0.2778E-10  0.8520E+16
   -1.349954    0.90225  0.8251E-13  0.4096E-13  0.8591E-16  0.1000E-09  0.5341E-11  0.1224E+17
   -1.387451    1.17451  0.8248E-13  0.4096E-13  0.8591E-16  0.1000E-09  0.9995E-12  0.1539E+17
   -1.424948    1.53531  0.8241E-13  0.4096E-13  0.8591E-16  0.1000E-09  0.1828E-12  0.1649E+17
   -1.462445    1.99021  0.8228E-13  0.4096E-13  0.8591E-16  0.1000E-09  0.3836E-13  0.1533E+17
   -1.499941    2.53274  0.8224E-13  0.0000E+00  0.0000E+00  0.0000E+00  0.4261E-13  0.0000E+00
