 1 - depth, m
 2 - temperature, C
 3 - salinity, kg/kg
 4 - turbulent kinetic energy, m**2/s**2
 5 - dissipation rate, m**2/s**3
 6 - kinematic heat conductance, m**2/s
 7 - modulus of horizontal velocity, m/s
 8 - Richardson number, n/d
   -0.000000   -0.00000  0.7662E-12  0.4096E-13  0.8590E-16  0.1000E-09  0.0000E+00  0.1197E+17
   -0.037498    0.18410  0.4837E-12  0.4096E-13  0.8590E-16  0.1000E-09  0.0000E+00  0.1122E+17
   -0.074996    0.36576  0.2476E-12  0.4096E-13  0.8590E-16  0.1000E-09  0.0000E+00  0.1048E+17
   -0.112494    0.54470  0.1410E-12  0.4096E-13  0.8590E-16  0.1000E-09  0.0000E+00  0.9763E+16
   -0.149993    0.72067  0.1076E-12  0.4096E-13  0.8590E-16  0.1000E-09  0.0000E+00  0.9061E+16
   -0.187492    0.89345  0.9963E-13  0.6729E-13  0.8590E-16  0.1000E-09  0.0000E+00  0.8384E+16
   -0.224991    1.06290  0.9805E-13  0.2578E-12  0.8590E-16  0.1000E-09  0.0000E+00  0.7733E+16
   -0.262491    1.22889  0.9778E-13  0.6154E-12  0.1296E-15  0.1000E-09  0.0000E+00  0.7129E+16
   -0.299991    1.39177  0.9772E-13  0.1226E-11  0.2225E-15  0.1000E-09  0.0000E+00  0.6557E+16
   -0.337491    1.55160  0.9770E-13  0.2271E-11  0.3887E-15  0.1000E-09  0.0000E+00  0.6011E+16
   -0.374991    1.70839  0.9768E-13  0.4075E-11  0.6763E-15  0.1000E-09  0.0000E+00  0.5565E+16
   -0.412491    1.86426  0.9763E-13  0.7202E-11  0.1169E-14  0.1000E-09  0.0000E+00  0.5173E+16
   -0.449992    2.02061  0.9751E-13  0.1262E-10  0.2008E-14  0.1000E-09  0.0000E+00  0.4785E+16
   -0.487493    2.17765  0.9724E-13  0.2197E-10  0.3433E-14  0.1000E-09  0.0000E+00  0.4399E+16
   -0.524994    2.33558  0.9673E-13  0.3794E-10  0.5823E-14  0.1000E-09  0.0000E+00  0.4013E+16
   -0.562495    2.49456  0.9591E-13  0.6508E-10  0.9814E-14  0.1000E-09  0.0000E+00  0.3623E+16
   -0.599996    2.65477  0.9480E-13  0.1110E-09  0.1645E-13  0.1000E-09  0.0000E+00  0.3229E+16
   -0.637497    2.81634  0.9355E-13  0.1886E-09  0.2747E-13  0.1000E-09  0.0000E+00  0.2828E+16
   -0.674998    2.97937  0.9236E-13  0.3189E-09  0.4565E-13  0.1000E-09  0.0000E+00  0.2419E+16
   -0.712500    3.14390  0.9135E-13  0.5368E-09  0.7555E-13  0.1049E-09  0.0000E+00  0.1999E+16
   -0.750001    3.30988  0.9055E-13  0.8999E-09  0.1245E-12  0.2194E-09  0.0000E+00  0.1575E+16
   -0.787502    3.47806  0.8987E-13  0.1502E-08  0.2044E-12  0.4990E-09  0.0000E+00  0.1137E+16
   -0.825003    3.64843  0.8929E-13  0.2496E-08  0.3341E-12  0.1362E-08  0.0000E+00  0.6805E+15
   -0.862505    3.82008  0.8890E-13  0.4119E-08  0.5425E-12  0.6937E-08  0.0000E+00  0.2168E+15
   -0.900006    3.98728  0.8877E-13  0.4981E-08  0.6594E-12  0.7066E-05  0.0000E+00 -0.1465E+12
   -0.937507    3.99073  0.8877E-13  0.5491E-08  0.7445E-12  0.1007E-04  0.0000E+00 -0.2188E+12
   -0.975008    3.99320  0.8877E-13  0.5963E-08  0.8367E-12  0.1202E-04  0.0000E+00 -0.2602E+12
   -1.012509    3.99529  0.8877E-13  0.6405E-08  0.9374E-12  0.1339E-04  0.0000E+00 -0.2985E+12
   -1.050010    3.99721  0.8877E-13  0.6821E-08  0.1049E-11  0.1429E-04  0.0000E+00 -0.3399E+12
   -1.087510    3.99904  0.8877E-13  0.7206E-08  0.1172E-11  0.1479E-04  0.0000E+00 -0.3882E+12
   -1.125011    4.00086  0.8877E-13  0.7555E-08  0.1311E-11  0.1482E-04  0.0000E+00 -0.4464E+12
   -1.162511    4.00270  0.8877E-13  0.7861E-08  0.1469E-11  0.1448E-04  0.0000E+00 -0.5207E+12
   -1.200011    4.00461  0.8877E-13  0.8115E-08  0.1653E-11  0.1377E-04  0.0000E+00 -0.6203E+12
   -1.237511    4.00666  0.8877E-13  0.8304E-08  0.1874E-11  0.1270E-04  0.0000E+00 -0.7607E+12
   -1.275010    4.00892  0.8877E-13  0.8405E-08  0.2149E-11  0.1126E-04  0.0000E+00 -0.9724E+12
   -1.312510    4.01152  0.8877E-13  0.8387E-08  0.2511E-11  0.9443E-05  0.0000E+00 -0.1323E+13
   -1.350009    4.01467  0.8877E-13  0.8189E-08  0.3030E-11  0.7262E-05  0.0000E+00 -0.1989E+13
   -1.387507    4.01884  0.8877E-13  0.7697E-08  0.3881E-11  0.4781E-05  0.0000E+00 -0.3595E+13
   -1.425006    4.02526  0.8877E-13  0.6649E-08  0.5668E-11  0.2246E-05  0.0000E+00 -0.9724E+13
   -1.462504    4.03884  0.8877E-13  0.4610E-08  0.1154E-10  0.4435E-06  0.0000E+00 -0.7224E+14
   -1.500002    4.09582  0.8877E-13  0.0000E+00  0.0000E+00  0.0000E+00  0.0000E+00  0.0000E+00
