 1 - depth, m
 2 - temperature, C
 3 - salinity, kg/kg
 4 - turbulent kinetic energy, m**2/s**2
 5 - dissipation rate, m**2/s**3
 6 - kinematic heat conductance, m**2/s
 7 - modulus of horizontal velocity, m/s
 8 - Richardson number, n/d
   -0.000000   -0.00000  0.6902E-12  0.4127E-12  0.1043E-15  0.1000E-09  0.0000E+00  0.1422E+17
   -0.037497    0.21975  0.2881E-12  0.6099E-12  0.1132E-15  0.1000E-09  0.0000E+00  0.1319E+17
   -0.074995    0.43665  0.1873E-12  0.1026E-11  0.1595E-15  0.1000E-09  0.0000E+00  0.1221E+17
   -0.112493    0.65068  0.1478E-12  0.1752E-11  0.2505E-15  0.1000E-09  0.0000E+00  0.1126E+17
   -0.149992    0.86181  0.1254E-12  0.2969E-11  0.4066E-15  0.1000E-09  0.0000E+00  0.1035E+17
   -0.187490    1.07000  0.1112E-12  0.4983E-11  0.6643E-15  0.1000E-09  0.0000E+00  0.9465E+16
   -0.224990    1.27519  0.1024E-12  0.8299E-11  0.1084E-14  0.1000E-09  0.0000E+00  0.8619E+16
   -0.262489    1.47730  0.9735E-13  0.1374E-10  0.1761E-14  0.1000E-09  0.0000E+00  0.7809E+16
   -0.299988    1.67632  0.9454E-13  0.2260E-10  0.2849E-14  0.1000E-09  0.0000E+00  0.7032E+16
   -0.337488    1.87216  0.9289E-13  0.3703E-10  0.4588E-14  0.1000E-09  0.0000E+00  0.6288E+16
   -0.374988    2.06476  0.9174E-13  0.6040E-10  0.7361E-14  0.1000E-09  0.0000E+00  0.5596E+16
   -0.412488    2.25467  0.9072E-13  0.9813E-10  0.1177E-13  0.1000E-09  0.0000E+00  0.4940E+16
   -0.449988    2.44225  0.8969E-13  0.1588E-09  0.1874E-13  0.1000E-09  0.0000E+00  0.4309E+16
   -0.487489    2.62742  0.8867E-13  0.2562E-09  0.2973E-13  0.1000E-09  0.0000E+00  0.3701E+16
   -0.524990    2.81007  0.8773E-13  0.4105E-09  0.4688E-13  0.1000E-09  0.0000E+00  0.3116E+16
   -0.562490    2.99004  0.8697E-13  0.6539E-09  0.7350E-13  0.1000E-09  0.0000E+00  0.2556E+16
   -0.599991    3.16726  0.8643E-13  0.1037E-08  0.1147E-12  0.1575E-09  0.0000E+00  0.2022E+16
   -0.637492    3.34158  0.8612E-13  0.1638E-08  0.1784E-12  0.3273E-09  0.0000E+00  0.1513E+16
   -0.674993    3.51279  0.8597E-13  0.2576E-08  0.2763E-12  0.7446E-09  0.0000E+00  0.1030E+16
   -0.712494    3.68052  0.8591E-13  0.4036E-08  0.4261E-12  0.2058E-08  0.0000E+00  0.5751E+15
   -0.749995    3.84366  0.8588E-13  0.6272E-08  0.6526E-12  0.1141E-07  0.0000E+00  0.1591E+15
   -0.787496    3.99434  0.8588E-13  0.6851E-08  0.7154E-12  0.2021E-04  0.0000E+00 -0.1501E+12
   -0.824997    3.99547  0.8588E-13  0.7140E-08  0.7526E-12  0.2236E-04  0.0000E+00 -0.1532E+12
   -0.862498    3.99650  0.8588E-13  0.7399E-08  0.7918E-12  0.2444E-04  0.0000E+00 -0.1549E+12
   -0.899999    3.99743  0.8588E-13  0.7631E-08  0.8330E-12  0.2589E-04  0.0000E+00 -0.1589E+12
   -0.937499    3.99832  0.8588E-13  0.7834E-08  0.8761E-12  0.2653E-04  0.0000E+00 -0.1668E+12
   -0.975000    3.99918  0.8588E-13  0.8009E-08  0.9216E-12  0.2663E-04  0.0000E+00 -0.1777E+12
   -1.012501    4.00004  0.8588E-13  0.8160E-08  0.9705E-12  0.2641E-04  0.0000E+00 -0.1915E+12
   -1.050001    4.00090  0.8588E-13  0.8287E-08  0.1025E-11  0.2588E-04  0.0000E+00 -0.2085E+12
   -1.087501    4.00179  0.8588E-13  0.8388E-08  0.1086E-11  0.2508E-04  0.0000E+00 -0.2294E+12
   -1.125002    4.00271  0.8588E-13  0.8462E-08  0.1158E-11  0.2371E-04  0.0000E+00 -0.2581E+12
   -1.162501    4.00369  0.8588E-13  0.8501E-08  0.1243E-11  0.2145E-04  0.0000E+00 -0.3034E+12
   -1.200001    4.00477  0.8588E-13  0.8494E-08  0.1347E-11  0.1894E-04  0.0000E+00 -0.3670E+12
   -1.237501    4.00600  0.8588E-13  0.8428E-08  0.1476E-11  0.1650E-04  0.0000E+00 -0.4523E+12
   -1.275000    4.00742  0.8588E-13  0.8284E-08  0.1640E-11  0.1401E-04  0.0000E+00 -0.5755E+12
   -1.312499    4.00909  0.8588E-13  0.8032E-08  0.1862E-11  0.1129E-04  0.0000E+00 -0.7783E+12
   -1.349998    4.01118  0.8588E-13  0.7616E-08  0.2187E-11  0.8323E-05  0.0000E+00 -0.1169E+13
   -1.387496    4.01402  0.8588E-13  0.6930E-08  0.2738E-11  0.5193E-05  0.0000E+00 -0.2131E+13
   -1.424994    4.01856  0.8588E-13  0.5721E-08  0.3936E-11  0.2234E-05  0.0000E+00 -0.6019E+13
   -1.462492    4.02884  0.8588E-13  0.3605E-08  0.8003E-11  0.3584E-06  0.0000E+00 -0.5184E+14
   -1.499990    4.07814  0.8588E-13  0.0000E+00  0.0000E+00  0.0000E+00  0.0000E+00  0.0000E+00
