 1 - depth, m
 2 - temperature, C
 3 - salinity, kg/kg
 4 - turbulent kinetic energy, m**2/s**2
 5 - dissipation rate, m**2/s**3
 6 - kinematic heat conductance, m**2/s
 7 - modulus of horizontal velocity, m/s
 8 - Richardson number, n/d
   -0.000000   18.28949  0.9516E-13  0.3827E-04  0.7656E-05  0.3130E-04  0.4184E-01 -0.8106E-01
   -0.037498   18.34989  0.9517E-13  0.2472E-04  0.2176E-05  0.5302E-04  0.1807E-01 -0.9062E-01
   -0.074997   18.36625  0.9517E-13  0.1975E-04  0.9814E-06  0.9502E-04  0.1333E-01  0.1458E+04
   -0.112495   18.37586  0.9517E-13  0.1684E-04  0.5292E-06  0.1432E-03  0.1073E-01  0.9345E+01
   -0.149994   18.38273  0.9518E-13  0.1494E-04  0.3216E-06  0.1946E-03  0.8943E-02  0.9868E+02
   -0.187494   18.38792  0.9518E-13  0.1370E-04  0.2151E-06  0.2744E-03  0.7620E-02  0.1152E+03
   -0.224994   18.39167  0.9518E-13  0.1290E-04  0.1555E-06  0.3437E-03  0.6636E-02  0.6592E+02
   -0.262493   18.39440  0.9518E-13  0.1240E-04  0.1196E-06  0.4029E-03  0.5862E-02  0.9927E+02
   -0.299994   18.39641  0.9518E-13  0.1209E-04  0.9645E-07  0.4407E-03  0.5220E-02  0.4007E+02
   -0.337494   18.39811  0.9518E-13  0.1190E-04  0.8009E-07  0.4756E-03  0.4656E-02  0.9454E+01
   -0.374995   18.39964  0.9518E-13  0.1176E-04  0.6783E-07  0.5115E-03  0.4159E-02  0.4102E+01
   -0.412495   18.40103  0.9518E-13  0.1166E-04  0.5814E-07  0.5458E-03  0.3719E-02  0.3687E+01
   -0.449996   18.40233  0.9518E-13  0.1156E-04  0.5027E-07  0.5958E-03  0.3322E-02  0.3442E+01
   -0.487498   18.40350  0.9518E-13  0.1145E-04  0.4323E-07  0.6305E-03  0.2982E-02  0.3507E+01
   -0.524999   18.40459  0.9518E-13  0.1134E-04  0.3937E-07  0.1046E-02  0.2631E-02  0.1981E+01
   -0.562500   18.40524  0.9518E-13  0.1128E-04  0.3707E-07  0.1134E-02  0.2505E-02  0.2194E+01
   -0.600002   18.40582  0.9518E-13  0.1121E-04  0.3510E-07  0.1069E-02  0.2381E-02  0.1593E+01
   -0.637503   18.40643  0.9518E-13  0.1115E-04  0.3355E-07  0.1203E-02  0.2261E-02  0.1976E+01
   -0.675005   18.40696  0.9518E-13  0.1107E-04  0.3193E-07  0.7382E-03  0.2169E-02  0.2422E+01
   -0.712506   18.40780  0.9518E-13  0.1086E-04  0.2913E-07  0.7980E-03  0.1924E-02  0.2868E+01
   -0.750008   18.40856  0.9518E-13  0.1072E-04  0.2782E-07  0.1271E-02  0.1687E-02  0.1868E+01
   -0.787510   18.40902  0.9518E-13  0.1062E-04  0.2712E-07  0.1284E-02  0.1613E-02  0.1880E+01
   -0.825011   18.40947  0.9518E-13  0.1047E-04  0.2632E-07  0.8328E-03  0.1549E-02  0.2116E+01
   -0.862513   18.41016  0.9518E-13  0.1012E-04  0.2492E-07  0.8108E-03  0.1366E-02  0.2333E+01
   -0.900015   18.41086  0.9518E-13  0.9914E-05  0.2433E-07  0.1275E-02  0.1192E-02  0.1677E+01
   -0.937516   18.41129  0.9518E-13  0.9776E-05  0.2405E-07  0.1179E-02  0.1139E-02  0.1778E+01
   -0.975017   18.41174  0.9518E-13  0.9563E-05  0.2378E-07  0.8568E-03  0.1093E-02  0.1797E+01
   -1.012519   18.41238  0.9518E-13  0.9128E-05  0.2345E-07  0.8198E-03  0.9602E-03  0.1754E+01
   -1.050020   18.41303  0.9518E-13  0.8715E-05  0.2335E-07  0.7992E-03  0.8552E-03  0.1555E+01
   -1.087521   18.41368  0.9518E-13  0.8316E-05  0.2344E-07  0.7866E-03  0.7682E-03  0.1393E+01
   -1.125022   18.41433  0.9518E-13  0.7945E-05  0.2371E-07  0.7523E-03  0.6980E-03  0.1241E+01
   -1.162522   18.41499  0.9518E-13  0.7603E-05  0.2416E-07  0.6859E-03  0.6424E-03  0.1156E+01
   -1.200023   18.41571  0.9518E-13  0.7286E-05  0.2478E-07  0.6199E-03  0.5989E-03  0.1193E+01
   -1.237523   18.41649  0.9518E-13  0.6976E-05  0.2564E-07  0.5646E-03  0.5650E-03  0.1507E+01
   -1.275023   18.41734  0.9518E-13  0.6640E-05  0.2689E-07  0.4992E-03  0.5373E-03  0.2483E+01
   -1.312522   18.41828  0.9518E-13  0.6250E-05  0.2882E-07  0.4274E-03  0.5115E-03  0.4834E+01
   -1.350022   18.41936  0.9518E-13  0.5779E-05  0.3201E-07  0.3178E-03  0.4873E-03  0.1256E+02
   -1.387521   18.42079  0.9518E-13  0.5198E-05  0.3771E-07  0.2816E-03  0.4629E-03  0.3615E+02
   -1.425020   18.42238  0.9518E-13  0.4271E-05  0.5476E-07  0.1176E-03  0.4439E-03 -0.1167E+03
   -1.462518   18.42951  0.9518E-13  0.2416E-05  0.1245E-06  0.3428E-04  0.4134E-03 -0.5433E+04
   -1.500016   18.44275  0.9518E-13  0.0000E+00  0.0000E+00  0.0000E+00  0.4188E-03  0.0000E+00
