 1 - depth, m
 2 - temperature, C
 3 - salinity, kg/kg
 4 - turbulent kinetic energy, m**2/s**2
 5 - dissipation rate, m**2/s**3
 6 - kinematic heat conductance, m**2/s
 7 - modulus of horizontal velocity, m/s
 8 - Richardson number, n/d
   -0.000000   -0.00000  0.5948E-12  0.4096E-13  0.8590E-16  0.1000E-09  0.0000E+00  0.1052E+17
   -0.037498    0.16132  0.4610E-12  0.4096E-13  0.8590E-16  0.1000E-09  0.0000E+00  0.1003E+17
   -0.074996    0.32214  0.3360E-12  0.4096E-13  0.8590E-16  0.1000E-09  0.0000E+00  0.9534E+16
   -0.112494    0.48232  0.2441E-12  0.4096E-13  0.8590E-16  0.1000E-09  0.0000E+00  0.9040E+16
   -0.149993    0.64170  0.1813E-12  0.4096E-13  0.8590E-16  0.1000E-09  0.0000E+00  0.8546E+16
   -0.187492    0.80013  0.1416E-12  0.4096E-13  0.8590E-16  0.1000E-09  0.0000E+00  0.8055E+16
   -0.224991    0.95747  0.1180E-12  0.4096E-13  0.8590E-16  0.1000E-09  0.0000E+00  0.7569E+16
   -0.262491    1.11358  0.1043E-12  0.4096E-13  0.8590E-16  0.1000E-09  0.0000E+00  0.7091E+16
   -0.299990    1.26835  0.9641E-13  0.4096E-13  0.8590E-16  0.1000E-09  0.0000E+00  0.6621E+16
   -0.337490    1.42168  0.9175E-13  0.4096E-13  0.8590E-16  0.1000E-09  0.0000E+00  0.6159E+16
   -0.374991    1.57344  0.8893E-13  0.7396E-13  0.8590E-16  0.1000E-09  0.0000E+00  0.5712E+16
   -0.412491    1.72366  0.8712E-13  0.2710E-12  0.8880E-16  0.1000E-09  0.0000E+00  0.5279E+16
   -0.449991    1.87235  0.8584E-13  0.6408E-12  0.1447E-15  0.1000E-09  0.0000E+00  0.4856E+16
   -0.487492    2.01939  0.8485E-13  0.1293E-11  0.2597E-15  0.1000E-09  0.0000E+00  0.4445E+16
   -0.524993    2.16470  0.8403E-13  0.2445E-11  0.4681E-15  0.1000E-09  0.0000E+00  0.4049E+16
   -0.562494    2.30835  0.8335E-13  0.4491E-11  0.8360E-15  0.1000E-09  0.0000E+00  0.3666E+16
   -0.599995    2.45028  0.8278E-13  0.8133E-11  0.1481E-14  0.1000E-09  0.0000E+00  0.3294E+16
   -0.637496    2.59041  0.8232E-13  0.1460E-10  0.2607E-14  0.1000E-09  0.0000E+00  0.2935E+16
   -0.674997    2.72869  0.8198E-13  0.2606E-10  0.4562E-14  0.1000E-09  0.0000E+00  0.2589E+16
   -0.712499    2.86504  0.8175E-13  0.4622E-10  0.7940E-14  0.1000E-09  0.0000E+00  0.2257E+16
   -0.750000    2.99944  0.8159E-13  0.8156E-10  0.1375E-13  0.1000E-09  0.0000E+00  0.1943E+16
   -0.787501    3.13225  0.8150E-13  0.1432E-09  0.2369E-13  0.1000E-09  0.0000E+00  0.1643E+16
   -0.825002    3.26362  0.8144E-13  0.2501E-09  0.4063E-13  0.1000E-09  0.0000E+00  0.1353E+16
   -0.862503    3.39352  0.8142E-13  0.4346E-09  0.6933E-13  0.1795E-09  0.0000E+00  0.1072E+16
   -0.900005    3.52189  0.8141E-13  0.7516E-09  0.1177E-12  0.4079E-09  0.0000E+00  0.8012E+15
   -0.937506    3.64860  0.8140E-13  0.1293E-08  0.1990E-12  0.1022E-08  0.0000E+00  0.5404E+15
   -0.975007    3.77334  0.8140E-13  0.2211E-08  0.3343E-12  0.3196E-08  0.0000E+00  0.2905E+15
   -1.012507    3.89484  0.8140E-13  0.3734E-08  0.5555E-12  0.2405E-07  0.0000E+00  0.6419E+14
   -1.050008    3.99994  0.8140E-13  0.4494E-08  0.6723E-12  0.1110E-04  0.0000E+00 -0.3456E+12
   -1.087509    4.00148  0.8140E-13  0.4855E-08  0.7410E-12  0.1175E-04  0.0000E+00 -0.3598E+12
   -1.125009    4.00292  0.8140E-13  0.5151E-08  0.8130E-12  0.1203E-04  0.0000E+00 -0.3846E+12
   -1.162509    4.00434  0.8140E-13  0.5386E-08  0.8910E-12  0.1194E-04  0.0000E+00 -0.4214E+12
   -1.200009    4.00578  0.8140E-13  0.5559E-08  0.9783E-12  0.1148E-04  0.0000E+00 -0.4750E+12
   -1.237509    4.00728  0.8140E-13  0.5663E-08  0.1080E-11  0.1066E-04  0.0000E+00 -0.5541E+12
   -1.275009    4.00891  0.8140E-13  0.5687E-08  0.1204E-11  0.9470E-05  0.0000E+00 -0.6768E+12
   -1.312508    4.01075  0.8140E-13  0.5609E-08  0.1365E-11  0.7916E-05  0.0000E+00 -0.8833E+12
   -1.350007    4.01296  0.8140E-13  0.5387E-08  0.1596E-11  0.6019E-05  0.0000E+00 -0.1282E+13
   -1.387506    4.01587  0.8140E-13  0.4941E-08  0.1976E-11  0.3856E-05  0.0000E+00 -0.2259E+13
   -1.425004    4.02040  0.8140E-13  0.4088E-08  0.2782E-11  0.1694E-05  0.0000E+00 -0.6105E+13
   -1.462502    4.03038  0.8140E-13  0.2599E-08  0.5375E-11  0.2802E-06  0.0000E+00 -0.4550E+14
   -1.500000    4.07438  0.8140E-13  0.0000E+00  0.0000E+00  0.0000E+00  0.0000E+00  0.0000E+00
