 1 - depth, m
 2 - temperature, C
 3 - salinity, kg/kg
 4 - turbulent kinetic energy, m**2/s**2
 5 - dissipation rate, m**2/s**3
 6 - kinematic heat conductance, m**2/s
 7 - modulus of horizontal velocity, m/s
 8 - Richardson number, n/d
   -0.000000   -0.00000  0.5408E-12  0.4096E-13  0.8590E-16  0.1000E-09  0.0000E+00  0.1315E+17
   -0.037498    0.20278  0.3633E-12  0.8389E-13  0.8590E-16  0.1000E-09  0.0000E+00  0.1232E+17
   -0.074996    0.40379  0.2781E-12  0.2910E-12  0.8590E-16  0.1000E-09  0.0000E+00  0.1150E+17
   -0.112494    0.60294  0.2170E-12  0.6650E-12  0.1226E-15  0.1000E-09  0.0000E+00  0.1070E+17
   -0.149992    0.80013  0.1688E-12  0.1279E-11  0.2002E-15  0.1000E-09  0.0000E+00  0.9926E+16
   -0.187491    0.99526  0.1341E-12  0.2286E-11  0.3347E-15  0.1000E-09  0.0000E+00  0.9170E+16
   -0.224990    1.18822  0.1120E-12  0.3949E-11  0.5586E-15  0.1000E-09  0.0000E+00  0.8434E+16
   -0.262490    1.37892  0.9952E-13  0.6705E-11  0.9264E-15  0.1000E-09  0.0000E+00  0.7725E+16
   -0.299990    1.56735  0.9315E-13  0.1126E-10  0.1527E-14  0.1000E-09  0.0000E+00  0.7039E+16
   -0.337489    1.75345  0.9013E-13  0.1880E-10  0.2502E-14  0.1000E-09  0.0000E+00  0.6375E+16
   -0.374990    1.93710  0.8869E-13  0.3121E-10  0.4083E-14  0.1000E-09  0.0000E+00  0.5757E+16
   -0.412490    2.11896  0.8787E-13  0.5158E-10  0.6634E-14  0.1000E-09  0.0000E+00  0.5168E+16
   -0.449990    2.29939  0.8720E-13  0.8490E-10  0.1074E-13  0.1000E-09  0.0000E+00  0.4594E+16
   -0.487491    2.47834  0.8646E-13  0.1392E-09  0.1731E-13  0.1000E-09  0.0000E+00  0.4034E+16
   -0.524992    2.65571  0.8559E-13  0.2267E-09  0.2773E-13  0.1000E-09  0.0000E+00  0.3489E+16
   -0.562493    2.83142  0.8462E-13  0.3669E-09  0.4415E-13  0.1000E-09  0.0000E+00  0.2960E+16
   -0.599994    3.00538  0.8364E-13  0.5910E-09  0.6997E-13  0.1000E-09  0.0000E+00  0.2448E+16
   -0.637495    3.17754  0.8276E-13  0.9481E-09  0.1104E-12  0.1571E-09  0.0000E+00  0.1952E+16
   -0.674996    3.34773  0.8210E-13  0.1515E-08  0.1736E-12  0.3274E-09  0.0000E+00  0.1473E+16
   -0.712497    3.51575  0.8169E-13  0.2410E-08  0.2719E-12  0.7466E-09  0.0000E+00  0.1011E+16
   -0.749998    3.68121  0.8149E-13  0.3818E-08  0.4240E-12  0.2062E-08  0.0000E+00  0.5715E+15
   -0.787499    3.84350  0.8140E-13  0.6001E-08  0.6564E-12  0.1147E-07  0.0000E+00  0.1595E+15
   -0.825000    3.99439  0.8139E-13  0.6616E-08  0.7266E-12  0.1849E-04  0.0000E+00 -0.1663E+12
   -0.862501    3.99563  0.8139E-13  0.6924E-08  0.7685E-12  0.2038E-04  0.0000E+00 -0.1721E+12
   -0.900002    3.99676  0.8139E-13  0.7202E-08  0.8129E-12  0.2207E-04  0.0000E+00 -0.1772E+12
   -0.937503    3.99780  0.8139E-13  0.7449E-08  0.8600E-12  0.2326E-04  0.0000E+00 -0.1842E+12
   -0.975004    3.99879  0.8139E-13  0.7666E-08  0.9100E-12  0.2378E-04  0.0000E+00 -0.1951E+12
   -1.012505    3.99976  0.8139E-13  0.7855E-08  0.9635E-12  0.2386E-04  0.0000E+00 -0.2097E+12
   -1.050005    4.00073  0.8139E-13  0.8016E-08  0.1022E-11  0.2358E-04  0.0000E+00 -0.2282E+12
   -1.087506    4.00171  0.8139E-13  0.8150E-08  0.1088E-11  0.2294E-04  0.0000E+00 -0.2516E+12
   -1.125006    4.00272  0.8139E-13  0.8252E-08  0.1164E-11  0.2176E-04  0.0000E+00 -0.2836E+12
   -1.162506    4.00380  0.8139E-13  0.8317E-08  0.1254E-11  0.2002E-04  0.0000E+00 -0.3294E+12
   -1.200006    4.00496  0.8139E-13  0.8335E-08  0.1361E-11  0.1797E-04  0.0000E+00 -0.3933E+12
   -1.237506    4.00626  0.8139E-13  0.8294E-08  0.1493E-11  0.1583E-04  0.0000E+00 -0.4806E+12
   -1.275005    4.00775  0.8139E-13  0.8173E-08  0.1661E-11  0.1354E-04  0.0000E+00 -0.6089E+12
   -1.312505    4.00949  0.8139E-13  0.7943E-08  0.1887E-11  0.1097E-04  0.0000E+00 -0.8210E+12
   -1.350003    4.01165  0.8139E-13  0.7550E-08  0.2218E-11  0.8122E-05  0.0000E+00 -0.1229E+13
   -1.387502    4.01458  0.8139E-13  0.6885E-08  0.2777E-11  0.5096E-05  0.0000E+00 -0.2233E+13
   -1.425000    4.01924  0.8139E-13  0.5702E-08  0.3987E-11  0.2209E-05  0.0000E+00 -0.6263E+13
   -1.462498    4.02972  0.8139E-13  0.3620E-08  0.8084E-11  0.3605E-06  0.0000E+00 -0.5296E+14
   -1.499996    4.07933  0.8139E-13  0.0000E+00  0.0000E+00  0.0000E+00  0.0000E+00  0.0000E+00
