 1 - depth, m
 2 - temperature, C
 3 - salinity, kg/kg
 4 - turbulent kinetic energy, m**2/s**2
 5 - dissipation rate, m**2/s**3
 6 - kinematic heat conductance, m**2/s
 7 - modulus of horizontal velocity, m/s
 8 - Richardson number, n/d
   -0.000000   -0.00000  0.1987E-12  0.4096E-13  0.8590E-16  0.1000E-09  0.0000E+00  0.8394E+16
   -0.037498    0.12813  0.2564E-12  0.4096E-13  0.8590E-16  0.1000E-09  0.0000E+00  0.8084E+16
   -0.074996    0.25595  0.2927E-12  0.4096E-13  0.8590E-16  0.1000E-09  0.0000E+00  0.7778E+16
   -0.112494    0.38349  0.2902E-12  0.4096E-13  0.8590E-16  0.1000E-09  0.0000E+00  0.7475E+16
   -0.149993    0.51076  0.2601E-12  0.4096E-13  0.8590E-16  0.1000E-09  0.0000E+00  0.7175E+16
   -0.187492    0.63774  0.2191E-12  0.4096E-13  0.8590E-16  0.1000E-09  0.0000E+00  0.6877E+16
   -0.224991    0.76441  0.1798E-12  0.4096E-13  0.8590E-16  0.1000E-09  0.0000E+00  0.6580E+16
   -0.262491    0.89073  0.1483E-12  0.4096E-13  0.8590E-16  0.1000E-09  0.0000E+00  0.6286E+16
   -0.299990    1.01671  0.1259E-12  0.4096E-13  0.8590E-16  0.1000E-09  0.0000E+00  0.5994E+16
   -0.337490    1.14228  0.1110E-12  0.4096E-13  0.8590E-16  0.1000E-09  0.0000E+00  0.5702E+16
   -0.374991    1.26740  0.1016E-12  0.4096E-13  0.8590E-16  0.1000E-09  0.0000E+00  0.5413E+16
   -0.412491    1.39200  0.9574E-13  0.4096E-13  0.8590E-16  0.1000E-09  0.0000E+00  0.5125E+16
   -0.449991    1.51602  0.9212E-13  0.4096E-13  0.8590E-16  0.1000E-09  0.0000E+00  0.4839E+16
   -0.487492    1.63939  0.8980E-13  0.4096E-13  0.8590E-16  0.1000E-09  0.0000E+00  0.4556E+16
   -0.524993    1.76206  0.8822E-13  0.4096E-13  0.8590E-16  0.1000E-09  0.0000E+00  0.4282E+16
   -0.562494    1.88411  0.8708E-13  0.4096E-13  0.8590E-16  0.1000E-09  0.0000E+00  0.4011E+16
   -0.599995    2.00549  0.8618E-13  0.4096E-13  0.8590E-16  0.1000E-09  0.0000E+00  0.3743E+16
   -0.637496    2.12611  0.8546E-13  0.4096E-13  0.8590E-16  0.1000E-09  0.0000E+00  0.3478E+16
   -0.674997    2.24592  0.8486E-13  0.4096E-13  0.8590E-16  0.1000E-09  0.0000E+00  0.3217E+16
   -0.712499    2.36484  0.8437E-13  0.4096E-13  0.8590E-16  0.1000E-09  0.0000E+00  0.2960E+16
   -0.750000    2.48280  0.8399E-13  0.4096E-13  0.8590E-16  0.1000E-09  0.0000E+00  0.2712E+16
   -0.787501    2.59987  0.8369E-13  0.4096E-13  0.8590E-16  0.1000E-09  0.0000E+00  0.2469E+16
   -0.825002    2.71604  0.8347E-13  0.1600E-12  0.9040E-16  0.1000E-09  0.0000E+00  0.2231E+16
   -0.862503    2.83125  0.8332E-13  0.4511E-12  0.1876E-15  0.1000E-09  0.0000E+00  0.1998E+16
   -0.900005    2.94543  0.8322E-13  0.1099E-11  0.4234E-15  0.1000E-09  0.0000E+00  0.1771E+16
   -0.937506    3.05853  0.8315E-13  0.2554E-11  0.9493E-15  0.1000E-09  0.0000E+00  0.1550E+16
   -0.975007    3.17049  0.8312E-13  0.5816E-11  0.2103E-14  0.1000E-09  0.0000E+00  0.1336E+16
   -1.012507    3.28127  0.8309E-13  0.1312E-10  0.4624E-14  0.1000E-09  0.0000E+00  0.1126E+16
   -1.050008    3.39063  0.8308E-13  0.2943E-10  0.1011E-13  0.1000E-09  0.0000E+00  0.9230E+15
   -1.087509    3.49845  0.8308E-13  0.6544E-10  0.2194E-13  0.1000E-09  0.0000E+00  0.7284E+15
   -1.125009    3.60466  0.8307E-13  0.1442E-09  0.4721E-13  0.2381E-09  0.0000E+00  0.5478E+15
   -1.162509    3.71050  0.8307E-13  0.3152E-09  0.1007E-12  0.7515E-09  0.0000E+00  0.3697E+15
   -1.200009    3.81590  0.8307E-13  0.6819E-09  0.2130E-12  0.3028E-08  0.0000E+00  0.1930E+15
   -1.237509    3.91963  0.8307E-13  0.1440E-08  0.4410E-12  0.3556E-07  0.0000E+00  0.3233E+14
   -1.275009    4.00431  0.8307E-13  0.2438E-08  0.7511E-12  0.3059E-05  0.0000E+00 -0.1498E+13
   -1.312508    4.00901  0.8307E-13  0.2907E-08  0.9728E-12  0.3258E-05  0.0000E+00 -0.1743E+13
   -1.350007    4.01348  0.8307E-13  0.3160E-08  0.1227E-11  0.2943E-05  0.0000E+00 -0.2306E+13
   -1.387506    4.01844  0.8307E-13  0.3167E-08  0.1580E-11  0.2180E-05  0.0000E+00 -0.3707E+13
   -1.425004    4.02512  0.8307E-13  0.2820E-08  0.2222E-11  0.1120E-05  0.0000E+00 -0.8769E+13
   -1.462502    4.03756  0.8307E-13  0.1970E-08  0.4031E-11  0.2322E-06  0.0000E+00 -0.4839E+14
   -1.500000    4.08018  0.8307E-13  0.0000E+00  0.0000E+00  0.0000E+00  0.0000E+00  0.0000E+00
