 1 - depth, m
 2 - temperature, C
 3 - salinity, kg/kg
 4 - turbulent kinetic energy, m**2/s**2
 5 - dissipation rate, m**2/s**3
 6 - kinematic heat conductance, m**2/s
 7 - modulus of horizontal velocity, m/s
 8 - Richardson number, n/d
   -0.000000   -0.00000  0.5316E-12  0.5830E-12  0.1685E-15  0.1000E-09  0.0000E+00  0.1401E+17
   -0.037498    0.21644  0.4154E-12  0.9022E-12  0.1914E-15  0.1000E-09  0.0000E+00  0.1311E+17
   -0.074996    0.43168  0.2903E-12  0.1591E-11  0.2866E-15  0.1000E-09  0.0000E+00  0.1221E+17
   -0.112494    0.64548  0.1965E-12  0.2840E-11  0.4753E-15  0.1000E-09  0.0000E+00  0.1133E+17
   -0.149993    0.85760  0.1377E-12  0.5020E-11  0.8092E-15  0.1000E-09  0.0000E+00  0.1046E+17
   -0.187492    1.06781  0.1077E-12  0.8787E-11  0.1382E-14  0.1000E-09  0.0000E+00  0.9602E+16
   -0.224991    1.27590  0.9505E-13  0.1527E-10  0.2353E-14  0.1000E-09  0.0000E+00  0.8766E+16
   -0.262491    1.48167  0.9047E-13  0.2636E-10  0.3987E-14  0.1000E-09  0.0000E+00  0.7963E+16
   -0.299991    1.68518  0.8900E-13  0.4525E-10  0.6721E-14  0.1000E-09  0.0000E+00  0.7184E+16
   -0.337491    1.88636  0.8854E-13  0.7728E-10  0.1128E-13  0.1000E-09  0.0000E+00  0.6430E+16
   -0.374991    2.08506  0.8833E-13  0.1314E-09  0.1884E-13  0.1000E-09  0.0000E+00  0.5742E+16
   -0.412492    2.28262  0.8810E-13  0.2225E-09  0.3135E-13  0.1000E-09  0.0000E+00  0.5089E+16
   -0.449992    2.47991  0.8774E-13  0.3751E-09  0.5196E-13  0.1000E-09  0.0000E+00  0.4444E+16
   -0.487493    2.67692  0.8717E-13  0.6298E-09  0.8577E-13  0.1000E-09  0.0000E+00  0.3804E+16
   -0.524994    2.87362  0.8633E-13  0.1050E-08  0.1406E-12  0.1232E-09  0.0000E+00  0.3169E+16
   -0.562495    3.06981  0.8523E-13  0.1740E-08  0.2291E-12  0.2503E-09  0.0000E+00  0.2541E+16
   -0.599996    3.26535  0.8397E-13  0.2868E-08  0.3714E-12  0.5369E-09  0.0000E+00  0.1921E+16
   -0.637497    3.46002  0.8275E-13  0.4706E-08  0.5995E-12  0.1271E-08  0.0000E+00  0.1309E+16
   -0.674998    3.65319  0.8183E-13  0.7679E-08  0.9627E-12  0.3765E-08  0.0000E+00  0.7101E+15
   -0.712500    3.84255  0.8139E-13  0.1235E-07  0.1526E-11  0.2663E-07  0.0000E+00  0.1592E+15
   -0.750001    4.00565  0.8132E-13  0.1295E-07  0.1604E-11  0.4072E-04  0.0000E+00 -0.2065E+12
   -0.787502    4.00632  0.8132E-13  0.1324E-07  0.1648E-11  0.4022E-04  0.0000E+00 -0.2164E+12
   -0.825003    4.00700  0.8132E-13  0.1349E-07  0.1695E-11  0.4053E-04  0.0000E+00 -0.2224E+12
   -0.862505    4.00767  0.8132E-13  0.1372E-07  0.1745E-11  0.4068E-04  0.0000E+00 -0.2292E+12
   -0.900006    4.00835  0.8132E-13  0.1392E-07  0.1798E-11  0.4063E-04  0.0000E+00 -0.2373E+12
   -0.937507    4.00902  0.8132E-13  0.1408E-07  0.1856E-11  0.4037E-04  0.0000E+00 -0.2468E+12
   -0.975008    4.00971  0.8132E-13  0.1422E-07  0.1919E-11  0.3988E-04  0.0000E+00 -0.2580E+12
   -1.012509    4.01040  0.8132E-13  0.1433E-07  0.1987E-11  0.3919E-04  0.0000E+00 -0.2721E+12
   -1.050010    4.01111  0.8132E-13  0.1440E-07  0.2062E-11  0.3826E-04  0.0000E+00 -0.2892E+12
   -1.087510    4.01185  0.8132E-13  0.1444E-07  0.2147E-11  0.3708E-04  0.0000E+00 -0.3098E+12
   -1.125011    4.01261  0.8132E-13  0.1443E-07  0.2242E-11  0.3564E-04  0.0000E+00 -0.3338E+12
   -1.162511    4.01341  0.8132E-13  0.1438E-07  0.2350E-11  0.3391E-04  0.0000E+00 -0.3635E+12
   -1.200011    4.01425  0.8132E-13  0.1427E-07  0.2476E-11  0.3190E-04  0.0000E+00 -0.4007E+12
   -1.237511    4.01515  0.8132E-13  0.1408E-07  0.2642E-11  0.2941E-04  0.0000E+00 -0.4515E+12
   -1.275010    4.01614  0.8132E-13  0.1375E-07  0.2881E-11  0.2297E-04  0.0000E+00 -0.6034E+12
   -1.312510    4.01740  0.8132E-13  0.1325E-07  0.3216E-11  0.1753E-04  0.0000E+00 -0.8330E+12
   -1.350009    4.01907  0.8132E-13  0.1250E-07  0.3715E-11  0.1275E-04  0.0000E+00 -0.1222E+13
   -1.387508    4.02137  0.8132E-13  0.1135E-07  0.4559E-11  0.7982E-05  0.0000E+00 -0.2130E+13
   -1.425006    4.02506  0.8132E-13  0.9395E-08  0.6422E-11  0.3467E-05  0.0000E+00 -0.5632E+13
   -1.462504    4.03343  0.8132E-13  0.5642E-08  0.1341E-10  0.4882E-06  0.0000E+00 -0.5429E+14
   -1.500002    4.08201  0.8132E-13  0.0000E+00  0.0000E+00  0.0000E+00  0.0000E+00  0.0000E+00
