 1 - depth, m
 2 - temperature, C
 3 - salinity, kg/kg
 4 - turbulent kinetic energy, m**2/s**2
 5 - dissipation rate, m**2/s**3
 6 - kinematic heat conductance, m**2/s
 7 - modulus of horizontal velocity, m/s
 8 - Richardson number, n/d
   -0.000000   -0.00000  0.7508E-14  0.4095E-13  0.8589E-16  0.1000E-09  0.0000E+00  0.6879E+16
   -0.037498    0.10466  0.1048E-12  0.4095E-13  0.8589E-16  0.1000E-09  0.0000E+00  0.6796E+16
   -0.074997    0.21110  0.1758E-12  0.4095E-13  0.8589E-16  0.1000E-09  0.0000E+00  0.6696E+16
   -0.112495    0.31919  0.2146E-12  0.4095E-13  0.8589E-16  0.1000E-09  0.0000E+00  0.6577E+16
   -0.149995    0.42877  0.2322E-12  0.4095E-13  0.8589E-16  0.1000E-09  0.0000E+00  0.6441E+16
   -0.187494    0.53967  0.2337E-12  0.4095E-13  0.8589E-16  0.1000E-09  0.0000E+00  0.6289E+16
   -0.224994    0.65172  0.2226E-12  0.4095E-13  0.8589E-16  0.1000E-09  0.0000E+00  0.6121E+16
   -0.262494    0.76472  0.2032E-12  0.4095E-13  0.8589E-16  0.1000E-09  0.0000E+00  0.5944E+16
   -0.299994    0.87862  0.1802E-12  0.4095E-13  0.8589E-16  0.1000E-09  0.0000E+00  0.5755E+16
   -0.337495    0.99324  0.1573E-12  0.4095E-13  0.8589E-16  0.1000E-09  0.0000E+00  0.5554E+16
   -0.374995    1.10841  0.1372E-12  0.4095E-13  0.8589E-16  0.1000E-09  0.0000E+00  0.5332E+16
   -0.412496    1.22373  0.1210E-12  0.4095E-13  0.8589E-16  0.1000E-09  0.0000E+00  0.5097E+16
   -0.449997    1.33888  0.1089E-12  0.4095E-13  0.8589E-16  0.1000E-09  0.0000E+00  0.4856E+16
   -0.487498    1.45366  0.1001E-12  0.4095E-13  0.8589E-16  0.1000E-09  0.0000E+00  0.4614E+16
   -0.525000    1.56799  0.9412E-13  0.4095E-13  0.8589E-16  0.1000E-09  0.0000E+00  0.4390E+16
   -0.562501    1.68224  0.9008E-13  0.4095E-13  0.8589E-16  0.1000E-09  0.0000E+00  0.4162E+16
   -0.600002    1.79629  0.8738E-13  0.4095E-13  0.8589E-16  0.1000E-09  0.0000E+00  0.3933E+16
   -0.637504    1.91003  0.8559E-13  0.4095E-13  0.8589E-16  0.1000E-09  0.0000E+00  0.3704E+16
   -0.675006    2.02338  0.8437E-13  0.4095E-13  0.8589E-16  0.1000E-09  0.0000E+00  0.3475E+16
   -0.712507    2.13624  0.8351E-13  0.4095E-13  0.8589E-16  0.1000E-09  0.0000E+00  0.3248E+16
   -0.750009    2.24855  0.8290E-13  0.4095E-13  0.8589E-16  0.1000E-09  0.0000E+00  0.3025E+16
   -0.787511    2.36033  0.8246E-13  0.4095E-13  0.8589E-16  0.1000E-09  0.0000E+00  0.2806E+16
   -0.825012    2.47156  0.8214E-13  0.4095E-13  0.8589E-16  0.1000E-09  0.0000E+00  0.2589E+16
   -0.862514    2.58219  0.8190E-13  0.4095E-13  0.8589E-16  0.1000E-09  0.0000E+00  0.2375E+16
   -0.900016    2.69218  0.8173E-13  0.4095E-13  0.8589E-16  0.1000E-09  0.0000E+00  0.2164E+16
   -0.937517    2.80147  0.8161E-13  0.4095E-13  0.8589E-16  0.1000E-09  0.0000E+00  0.1957E+16
   -0.975019    2.91003  0.8153E-13  0.4095E-13  0.8589E-16  0.1000E-09  0.0000E+00  0.1754E+16
   -1.012520    3.01781  0.8148E-13  0.4095E-13  0.8589E-16  0.1000E-09  0.0000E+00  0.1547E+16
   -1.050021    3.12413  0.8145E-13  0.5214E-13  0.8589E-16  0.1000E-09  0.0000E+00  0.1344E+16
   -1.087522    3.22874  0.8143E-13  0.2155E-12  0.1825E-15  0.1000E-09  0.0000E+00  0.1149E+16
   -1.125023    3.33147  0.8141E-13  0.7288E-12  0.5596E-15  0.1000E-09  0.0000E+00  0.9745E+15
   -1.162524    3.43352  0.8141E-13  0.2317E-11  0.1715E-14  0.1000E-09  0.0000E+00  0.8047E+15
   -1.200024    3.53502  0.8140E-13  0.7206E-11  0.5179E-14  0.1000E-09  0.0000E+00  0.6378E+15
   -1.237524    3.63596  0.8140E-13  0.2206E-10  0.1543E-13  0.1002E-09  0.0000E+00  0.4742E+15
   -1.275024    3.73632  0.8140E-13  0.6659E-10  0.4538E-13  0.3891E-09  0.0000E+00  0.3135E+15
   -1.312524    3.83596  0.8140E-13  0.1979E-09  0.1319E-12  0.2213E-08  0.0000E+00  0.1559E+15
   -1.350024    3.93390  0.8140E-13  0.5718E-09  0.3764E-12  0.4060E-07  0.0000E+00  0.1703E+14
   -1.387523    4.01103  0.8140E-13  0.1422E-08  0.1013E-11  0.7569E-06  0.0000E+00 -0.7933E+13
   -1.425022    4.02662  0.8140E-13  0.1722E-08  0.1682E-11  0.6147E-06  0.0000E+00 -0.1433E+14
   -1.462520    4.04510  0.8140E-13  0.1449E-08  0.2982E-11  0.1877E-06  0.0000E+00 -0.5346E+14
   -1.500018    4.08775  0.8140E-13  0.0000E+00  0.0000E+00  0.0000E+00  0.0000E+00  0.0000E+00
