 1 - depth, m
 2 - temperature, C
 3 - salinity, kg/kg
 4 - turbulent kinetic energy, m**2/s**2
 5 - dissipation rate, m**2/s**3
 6 - kinematic heat conductance, m**2/s
 7 - modulus of horizontal velocity, m/s
 8 - Richardson number, n/d
   -0.000000   -0.00000  0.4154E-12  0.4174E-12  0.1192E-15  0.1000E-09  0.0000E+00  0.1368E+17
   -0.037498    0.21119  0.4023E-12  0.6374E-12  0.1262E-15  0.1000E-09  0.0000E+00  0.1283E+17
   -0.074996    0.42143  0.3069E-12  0.1094E-11  0.1770E-15  0.1000E-09  0.0000E+00  0.1199E+17
   -0.112494    0.63057  0.2157E-12  0.1884E-11  0.2787E-15  0.1000E-09  0.0000E+00  0.1116E+17
   -0.149993    0.83843  0.1526E-12  0.3203E-11  0.4541E-15  0.1000E-09  0.0000E+00  0.1034E+17
   -0.187492    1.04484  0.1167E-12  0.5384E-11  0.7460E-15  0.1000E-09  0.0000E+00  0.9536E+16
   -0.224991    1.24962  0.9942E-13  0.8989E-11  0.1226E-14  0.1000E-09  0.0000E+00  0.8743E+16
   -0.262491    1.45259  0.9226E-13  0.1493E-10  0.2010E-14  0.1000E-09  0.0000E+00  0.7977E+16
   -0.299991    1.65383  0.8963E-13  0.2471E-10  0.3289E-14  0.1000E-09  0.0000E+00  0.7229E+16
   -0.337491    1.85322  0.8873E-13  0.4079E-10  0.5370E-14  0.1000E-09  0.0000E+00  0.6500E+16
   -0.374991    2.05063  0.8837E-13  0.6721E-10  0.8756E-14  0.1000E-09  0.0000E+00  0.5823E+16
   -0.412492    2.24705  0.8809E-13  0.1106E-09  0.1426E-13  0.1000E-09  0.0000E+00  0.5173E+16
   -0.449992    2.44306  0.8771E-13  0.1817E-09  0.2319E-13  0.1000E-09  0.0000E+00  0.4528E+16
   -0.487493    2.63847  0.8714E-13  0.2981E-09  0.3769E-13  0.1000E-09  0.0000E+00  0.3887E+16
   -0.524994    2.83297  0.8632E-13  0.4872E-09  0.6101E-13  0.1000E-09  0.0000E+00  0.3250E+16
   -0.562495    3.02605  0.8526E-13  0.7937E-09  0.9845E-13  0.1130E-09  0.0000E+00  0.2621E+16
   -0.599996    3.21693  0.8404E-13  0.1290E-08  0.1586E-12  0.2200E-09  0.0000E+00  0.2004E+16
   -0.637497    3.40437  0.8286E-13  0.2095E-08  0.2550E-12  0.5016E-09  0.0000E+00  0.1410E+16
   -0.674998    3.58661  0.8197E-13  0.3394E-08  0.4094E-12  0.1315E-08  0.0000E+00  0.8547E+15
   -0.712500    3.76109  0.8148E-13  0.5484E-08  0.6553E-12  0.4948E-08  0.0000E+00  0.3608E+15
   -0.750001    3.92242  0.8135E-13  0.8214E-08  0.9856E-12  0.1909E-05  0.0000E+00  0.4281E+14
   -0.787502    4.00038  0.8134E-13  0.8819E-08  0.1063E-11  0.2532E-04  0.0000E+00 -0.1803E+12
   -0.825004    4.00147  0.8134E-13  0.9153E-08  0.1114E-11  0.2656E-04  0.0000E+00 -0.1933E+12
   -0.862505    4.00245  0.8134E-13  0.9456E-08  0.1166E-11  0.2759E-04  0.0000E+00 -0.2044E+12
   -0.900006    4.00337  0.8134E-13  0.9733E-08  0.1223E-11  0.2827E-04  0.0000E+00 -0.2164E+12
   -0.937507    4.00427  0.8134E-13  0.9985E-08  0.1283E-11  0.2868E-04  0.0000E+00 -0.2295E+12
   -0.975008    4.00515  0.8134E-13  0.1021E-07  0.1349E-11  0.2883E-04  0.0000E+00 -0.2446E+12
   -1.012509    4.00603  0.8134E-13  0.1041E-07  0.1419E-11  0.2871E-04  0.0000E+00 -0.2628E+12
   -1.050010    4.00693  0.8134E-13  0.1058E-07  0.1498E-11  0.2828E-04  0.0000E+00 -0.2852E+12
   -1.087510    4.00785  0.8134E-13  0.1072E-07  0.1585E-11  0.2759E-04  0.0000E+00 -0.3123E+12
   -1.125011    4.00881  0.8134E-13  0.1083E-07  0.1683E-11  0.2658E-04  0.0000E+00 -0.3455E+12
   -1.162511    4.00982  0.8134E-13  0.1089E-07  0.1796E-11  0.2526E-04  0.0000E+00 -0.3878E+12
   -1.200011    4.01091  0.8134E-13  0.1091E-07  0.1931E-11  0.2352E-04  0.0000E+00 -0.4460E+12
   -1.237511    4.01209  0.8134E-13  0.1085E-07  0.2102E-11  0.2115E-04  0.0000E+00 -0.5335E+12
   -1.275011    4.01344  0.8134E-13  0.1069E-07  0.2330E-11  0.1727E-04  0.0000E+00 -0.6951E+12
   -1.312510    4.01508  0.8134E-13  0.1040E-07  0.2639E-11  0.1364E-04  0.0000E+00 -0.9481E+12
   -1.350009    4.01716  0.8134E-13  0.9896E-08  0.3090E-11  0.1007E-04  0.0000E+00 -0.1409E+13
   -1.387508    4.02000  0.8134E-13  0.9059E-08  0.3845E-11  0.6359E-05  0.0000E+00 -0.2511E+13
   -1.425006    4.02452  0.8134E-13  0.7564E-08  0.5478E-11  0.2798E-05  0.0000E+00 -0.6801E+13
   -1.462504    4.03462  0.8134E-13  0.4753E-08  0.1125E-10  0.4394E-06  0.0000E+00 -0.5853E+14
   -1.500002    4.08537  0.8134E-13  0.0000E+00  0.0000E+00  0.0000E+00  0.0000E+00  0.0000E+00
