 1 - depth, m
 2 - temperature, C
 3 - salinity, kg/kg
 4 - turbulent kinetic energy, m**2/s**2
 5 - dissipation rate, m**2/s**3
 6 - kinematic heat conductance, m**2/s
 7 - modulus of horizontal velocity, m/s
 8 - Richardson number, n/d
   -0.000000   -0.00000  0.6124E-12  0.5524E-12  0.1613E-15  0.1000E-09  0.0000E+00  0.1442E+17
   -0.037498    0.22299  0.4030E-12  0.8574E-12  0.1862E-15  0.1000E-09  0.0000E+00  0.1337E+17
   -0.074996    0.44303  0.2826E-12  0.1521E-11  0.2831E-15  0.1000E-09  0.0000E+00  0.1235E+17
   -0.112494    0.66011  0.1872E-12  0.2736E-11  0.4752E-15  0.1000E-09  0.0000E+00  0.1138E+17
   -0.149993    0.87425  0.1298E-12  0.4879E-11  0.8176E-15  0.1000E-09  0.0000E+00  0.1045E+17
   -0.187491    1.08550  0.1032E-12  0.8621E-11  0.1410E-14  0.1000E-09  0.0000E+00  0.9551E+16
   -0.224991    1.29388  0.9303E-13  0.1513E-10  0.2425E-14  0.1000E-09  0.0000E+00  0.8694E+16
   -0.262490    1.49941  0.8974E-13  0.2637E-10  0.4150E-14  0.1000E-09  0.0000E+00  0.7881E+16
   -0.299990    1.70236  0.8878E-13  0.4571E-10  0.7066E-14  0.1000E-09  0.0000E+00  0.7101E+16
   -0.337490    1.90277  0.8849E-13  0.7885E-10  0.1197E-13  0.1000E-09  0.0000E+00  0.6351E+16
   -0.374990    2.10064  0.8834E-13  0.1354E-09  0.2021E-13  0.1000E-09  0.0000E+00  0.5673E+16
   -0.412490    2.29754  0.8814E-13  0.2315E-09  0.3396E-13  0.1000E-09  0.0000E+00  0.5032E+16
   -0.449991    2.49448  0.8781E-13  0.3942E-09  0.5684E-13  0.1000E-09  0.0000E+00  0.4396E+16
   -0.487491    2.69146  0.8725E-13  0.6686E-09  0.9475E-13  0.1000E-09  0.0000E+00  0.3763E+16
   -0.524992    2.88843  0.8642E-13  0.1126E-08  0.1569E-12  0.1392E-09  0.0000E+00  0.3128E+16
   -0.562493    3.08502  0.8532E-13  0.1884E-08  0.2582E-12  0.2869E-09  0.0000E+00  0.2498E+16
   -0.599994    3.28102  0.8406E-13  0.3136E-08  0.4228E-12  0.6258E-09  0.0000E+00  0.1875E+16
   -0.637495    3.47610  0.8279E-13  0.5197E-08  0.6892E-12  0.1517E-08  0.0000E+00  0.1261E+16
   -0.674996    3.66941  0.8181E-13  0.8562E-08  0.1117E-11  0.4700E-08  0.0000E+00  0.6598E+15
   -0.712497    3.85788  0.8135E-13  0.1383E-07  0.1780E-11  0.3940E-07  0.0000E+00  0.1251E+15
   -0.749999    4.00955  0.8129E-13  0.1448E-07  0.1868E-11  0.4349E-04  0.0000E+00 -0.2314E+12
   -0.787500    4.01018  0.8129E-13  0.1478E-07  0.1917E-11  0.4282E-04  0.0000E+00 -0.2420E+12
   -0.825001    4.01082  0.8129E-13  0.1506E-07  0.1969E-11  0.4311E-04  0.0000E+00 -0.2477E+12
   -0.862502    4.01145  0.8129E-13  0.1530E-07  0.2025E-11  0.4325E-04  0.0000E+00 -0.2544E+12
   -0.900003    4.01209  0.8129E-13  0.1550E-07  0.2085E-11  0.4316E-04  0.0000E+00 -0.2624E+12
   -0.937504    4.01273  0.8129E-13  0.1568E-07  0.2149E-11  0.4286E-04  0.0000E+00 -0.2720E+12
   -0.975005    4.01338  0.8129E-13  0.1582E-07  0.2219E-11  0.4233E-04  0.0000E+00 -0.2835E+12
   -1.012506    4.01404  0.8129E-13  0.1592E-07  0.2294E-11  0.4158E-04  0.0000E+00 -0.2982E+12
   -1.050006    4.01472  0.8129E-13  0.1599E-07  0.2379E-11  0.4058E-04  0.0000E+00 -0.3161E+12
   -1.087507    4.01542  0.8129E-13  0.1602E-07  0.2473E-11  0.3932E-04  0.0000E+00 -0.3378E+12
   -1.125007    4.01615  0.8129E-13  0.1600E-07  0.2579E-11  0.3778E-04  0.0000E+00 -0.3629E+12
   -1.162507    4.01692  0.8129E-13  0.1593E-07  0.2701E-11  0.3595E-04  0.0000E+00 -0.3940E+12
   -1.200007    4.01773  0.8129E-13  0.1580E-07  0.2842E-11  0.3381E-04  0.0000E+00 -0.4332E+12
   -1.237507    4.01860  0.8129E-13  0.1558E-07  0.3020E-11  0.3129E-04  0.0000E+00 -0.4848E+12
   -1.275006    4.01954  0.8129E-13  0.1523E-07  0.3272E-11  0.2553E-04  0.0000E+00 -0.6178E+12
   -1.312506    4.02071  0.8129E-13  0.1467E-07  0.3640E-11  0.1914E-04  0.0000E+00 -0.8631E+12
   -1.350005    4.02228  0.8129E-13  0.1384E-07  0.4189E-11  0.1385E-04  0.0000E+00 -0.1265E+13
   -1.387503    4.02446  0.8129E-13  0.1258E-07  0.5118E-11  0.8689E-05  0.0000E+00 -0.2179E+13
   -1.425002    4.02795  0.8129E-13  0.1043E-07  0.7165E-11  0.3798E-05  0.0000E+00 -0.5641E+13
   -1.462500    4.03585  0.8129E-13  0.6213E-08  0.1498E-10  0.5209E-06  0.0000E+00 -0.5458E+14
   -1.499997    4.08342  0.8129E-13  0.0000E+00  0.0000E+00  0.0000E+00  0.0000E+00  0.0000E+00
