 1 - depth, m
 2 - temperature, C
 3 - salinity, kg/kg
 4 - turbulent kinetic energy, m**2/s**2
 5 - dissipation rate, m**2/s**3
 6 - kinematic heat conductance, m**2/s
 7 - modulus of horizontal velocity, m/s
 8 - Richardson number, n/d
   -0.000000   -0.00000  0.5971E-15  0.3957E-10  0.3386E-13  0.1000E-09  0.0000E+00  0.2253E+17
   -0.037499    0.35506  0.2999E-14  0.1055E-09  0.4342E-13  0.1000E-09  0.0000E+00  0.1825E+17
   -0.074997    0.67257  0.1346E-13  0.2603E-09  0.8768E-13  0.1000E-09  0.0000E+00  0.1524E+17
   -0.112497    0.96481  0.3766E-13  0.5982E-09  0.1911E-12  0.1077E-09  0.0000E+00  0.1305E+17
   -0.149996    1.24089  0.7383E-13  0.1338E-08  0.4178E-12  0.1529E-09  0.0000E+00  0.1139E+17
   -0.187496    1.50827  0.1153E-12  0.2958E-08  0.9081E-12  0.2848E-09  0.0000E+00  0.1013E+17
   -0.224996    1.77449  0.1542E-12  0.6497E-08  0.1961E-11  0.5976E-09  0.0000E+00  0.9180E+16
   -0.262497    2.04955  0.1842E-12  0.1417E-07  0.4204E-11  0.1260E-08  0.0000E+00  0.8553E+16
   -0.299997    2.35338  0.2020E-12  0.3067E-07  0.8936E-11  0.2871E-08  0.0000E+00  0.7830E+16
   -0.337498    2.71663  0.2030E-12  0.6364E-07  0.1827E-10  0.2545E-07  0.0000E+00  0.6061E+16
   -0.374999    3.13647  0.1827E-12  0.9109E-07  0.2565E-10  0.4146E-04  0.0000E+00  0.4078E+16
   -0.412500    3.49062  0.1575E-12  0.1121E-06  0.3100E-10  0.7865E-04  0.0000E+00  0.2358E+16
   -0.450002    3.76891  0.1318E-12  0.1257E-06  0.3422E-10  0.1122E-03  0.0000E+00  0.1037E+16
   -0.487503    3.96019  0.1065E-12  0.1330E-06  0.3577E-10  0.1361E-03  0.0000E+00  0.2130E+15
   -0.525005    4.07143  0.9899E-13  0.1342E-06  0.3624E-10  0.1671E-03  0.0000E+00 -0.1011E+13
   -0.562507    4.07219  0.9896E-13  0.1351E-06  0.3671E-10  0.1661E-03  0.0000E+00 -0.1034E+13
   -0.600009    4.07295  0.9893E-13  0.1359E-06  0.3722E-10  0.1658E-03  0.0000E+00 -0.1046E+13
   -0.637511    4.07372  0.9891E-13  0.1365E-06  0.3777E-10  0.1649E-03  0.0000E+00 -0.1073E+13
   -0.675013    4.07449  0.9888E-13  0.1371E-06  0.3837E-10  0.1638E-03  0.0000E+00 -0.1095E+13
   -0.712515    4.07528  0.9886E-13  0.1375E-06  0.3903E-10  0.1621E-03  0.0000E+00 -0.1131E+13
   -0.750017    4.07608  0.9883E-13  0.1378E-06  0.3974E-10  0.1602E-03  0.0000E+00 -0.1158E+13
   -0.787519    4.07689  0.9881E-13  0.1380E-06  0.4051E-10  0.1577E-03  0.0000E+00 -0.1197E+13
   -0.825021    4.07772  0.9879E-13  0.1381E-06  0.4136E-10  0.1548E-03  0.0000E+00 -0.1234E+13
   -0.862523    4.07858  0.9877E-13  0.1380E-06  0.4228E-10  0.1514E-03  0.0000E+00 -0.1285E+13
   -0.900025    4.07945  0.9875E-13  0.1377E-06  0.4329E-10  0.1477E-03  0.0000E+00 -0.1337E+13
   -0.937527    4.08035  0.9873E-13  0.1373E-06  0.4441E-10  0.1434E-03  0.0000E+00 -0.1406E+13
   -0.975029    4.08129  0.9871E-13  0.1368E-06  0.4565E-10  0.1388E-03  0.0000E+00 -0.1478E+13
   -1.012530    4.08227  0.9869E-13  0.1360E-06  0.4704E-10  0.1336E-03  0.0000E+00 -0.1569E+13
   -1.050032    4.08329  0.9867E-13  0.1350E-06  0.4862E-10  0.1279E-03  0.0000E+00 -0.1669E+13
   -1.087533    4.08438  0.9866E-13  0.1338E-06  0.5044E-10  0.1217E-03  0.0000E+00 -0.1798E+13
   -1.125035    4.08553  0.9864E-13  0.1323E-06  0.5255E-10  0.1149E-03  0.0000E+00 -0.1940E+13
   -1.162536    4.08675  0.9863E-13  0.1305E-06  0.5504E-10  0.1074E-03  0.0000E+00 -0.2123E+13
   -1.200037    4.08807  0.9861E-13  0.1283E-06  0.5802E-10  0.9940E-04  0.0000E+00 -0.2345E+13
   -1.237537    4.08952  0.9860E-13  0.1256E-06  0.6165E-10  0.9069E-04  0.0000E+00 -0.2639E+13
   -1.275038    4.09111  0.9858E-13  0.1224E-06  0.6619E-10  0.8137E-04  0.0000E+00 -0.3021E+13
   -1.312538    4.09291  0.9857E-13  0.1185E-06  0.7211E-10  0.7033E-04  0.0000E+00 -0.3584E+13
   -1.350038    4.09502  0.9856E-13  0.1137E-06  0.8019E-10  0.5876E-04  0.0000E+00 -0.4406E+13
   -1.387537    4.09762  0.9854E-13  0.1066E-06  0.9402E-10  0.4033E-04  0.0000E+00 -0.6739E+13
   -1.425036    4.10158  0.9853E-13  0.9348E-07  0.1272E-09  0.1631E-04  0.0000E+00 -0.1762E+14
   -1.462535    4.11106  0.9851E-13  0.5651E-07  0.2902E-09  0.2068E-05  0.0000E+00 -0.1730E+15
   -1.500034    4.17900  0.9846E-13  0.0000E+00  0.0000E+00  0.0000E+00  0.0000E+00  0.0000E+00
