 1 - depth, m
 2 - temperature, C
 3 - salinity, kg/kg
 4 - turbulent kinetic energy, m**2/s**2
 5 - dissipation rate, m**2/s**3
 6 - kinematic heat conductance, m**2/s
 7 - modulus of horizontal velocity, m/s
 8 - Richardson number, n/d
   -0.000000    0.53475  0.9358E-13  0.4477E-03  0.9960E-02  0.7079E-04  0.2417E+00 -0.6409E-03
   -0.037498    0.57376  0.9359E-13  0.2553E-03  0.5950E-02  0.1658E-03  0.7508E-01  0.7572E-02
   -0.074996    0.58428  0.9359E-13  0.1704E-03  0.3873E-02  0.1635E-03  0.4918E-01  0.6620E-02
   -0.112494    0.59096  0.9359E-13  0.1289E-03  0.2162E-02  0.1536E-03  0.3957E-01  0.1412E-01
   -0.149993    0.59489  0.9359E-13  0.9750E-04  0.9074E-03  0.1499E-03  0.3374E-01  0.6331E-02
   -0.187492    0.59805  0.9359E-13  0.7320E-04  0.2334E-03  0.1488E-03  0.2929E-01  0.1556E-01
   -0.224991    0.60072  0.9359E-13  0.5615E-04  0.2228E-04  0.1497E-03  0.2573E-01  0.1045E-01
   -0.262491    0.60326  0.9359E-13  0.4618E-04  0.4094E-05  0.1505E-03  0.2278E-01  0.1456E-01
   -0.299990    0.60565  0.9359E-13  0.3895E-04  0.2166E-05  0.1513E-03  0.2018E-01  0.2170E-01
   -0.337491    0.60790  0.9359E-13  0.3325E-04  0.1288E-05  0.1521E-03  0.1798E-01  0.2726E-01
   -0.374991    0.61010  0.9359E-13  0.2869E-04  0.8133E-06  0.1527E-03  0.1610E-01  0.4665E-01
   -0.412491    0.61228  0.9359E-13  0.2496E-04  0.5513E-06  0.1532E-03  0.1450E-01  0.1369E+00
   -0.449992    0.61440  0.9359E-13  0.2189E-04  0.3964E-06  0.1542E-03  0.1316E-01  0.1630E+01
   -0.487492    0.61643  0.9359E-13  0.1939E-04  0.2986E-06  0.1553E-03  0.1208E-01  0.2335E+01
   -0.524993    0.61836  0.9359E-13  0.1739E-04  0.2332E-06  0.1529E-03  0.1120E-01  0.4050E+01
   -0.562494    0.62028  0.9359E-13  0.1570E-04  0.1863E-06  0.1507E-03  0.1036E-01  0.8015E+01
   -0.599995    0.62216  0.9359E-13  0.1424E-04  0.1512E-06  0.1484E-03  0.9568E-02  0.8625E+00
   -0.637497    0.62401  0.9359E-13  0.1295E-04  0.1241E-06  0.1456E-03  0.8830E-02  0.6009E+00
   -0.674998    0.62586  0.9359E-13  0.1181E-04  0.1029E-06  0.1422E-03  0.8141E-02  0.5663E+00
   -0.712499    0.62771  0.9359E-13  0.1079E-04  0.8597E-07  0.1381E-03  0.7496E-02  0.5873E+00
   -0.750000    0.62960  0.9359E-13  0.9855E-05  0.7231E-07  0.1333E-03  0.6891E-02  0.6342E+00
   -0.787502    0.63152  0.9359E-13  0.9005E-05  0.6116E-07  0.1277E-03  0.6320E-02  0.6931E+00
   -0.825003    0.63351  0.9359E-13  0.8223E-05  0.5200E-07  0.1212E-03  0.5779E-02  0.7547E+00
   -0.862504    0.63558  0.9359E-13  0.7499E-05  0.4439E-07  0.1139E-03  0.5264E-02  0.8046E+00
   -0.900005    0.63777  0.9359E-13  0.6823E-05  0.3803E-07  0.1057E-03  0.4768E-02  0.8230E+00
   -0.937506    0.64012  0.9359E-13  0.6183E-05  0.3263E-07  0.9622E-04  0.4286E-02  0.7940E+00
   -0.975007    0.64269  0.9359E-13  0.5554E-05  0.2788E-07  0.8470E-04  0.3808E-02  0.7562E+00
   -1.012508    0.64573  0.9359E-13  0.4916E-05  0.2353E-07  0.7657E-04  0.3311E-02  0.1892E+01
   -1.050009    0.64897  0.9359E-13  0.4295E-05  0.1966E-07  0.6751E-04  0.2871E-02  0.6823E+01
   -1.087509    0.65254  0.9359E-13  0.3703E-05  0.1627E-07  0.5730E-04  0.2484E-02  0.2438E+02
   -1.125010    0.65665  0.9359E-13  0.3145E-05  0.1332E-07  0.4633E-04  0.2140E-02  0.1377E+03
   -1.162510    0.66180  0.9359E-13  0.2622E-05  0.1076E-07  0.3508E-04  0.1833E-02  0.7831E+03
   -1.200010    0.66879  0.9359E-13  0.2135E-05  0.8561E-08  0.2399E-04  0.1557E-02  0.5596E+04
   -1.237510    0.67973  0.9359E-13  0.1675E-05  0.6629E-08  0.1320E-04  0.1308E-02  0.7501E+05
   -1.275009    0.70581  0.9360E-13  0.1173E-05  0.4666E-08  0.3693E-05  0.1062E-02  0.1574E+07
   -1.312509    0.85923  0.9360E-13  0.5536E-06  0.2243E-08  0.2439E-06  0.6880E-03  0.2719E+08
   -1.350008    1.49352  0.9363E-13  0.1102E-06  0.4569E-09  0.3042E-07  0.2361E-03  0.2442E+09
   -1.387506    2.59548  0.9369E-13  0.1800E-07  0.7241E-10  0.1399E-07  0.4977E-04  0.2283E+10
   -1.425005    3.72691  0.9373E-13  0.1877E-07  0.5802E-10  0.1844E-05  0.8820E-05 -0.3329E+09
   -1.462503    4.16737  0.9373E-13  0.2683E-07  0.1451E-09  0.1503E-05  0.2578E-05 -0.1140E+11
   -1.500000    4.34310  0.9373E-13  0.0000E+00  0.0000E+00  0.0000E+00  0.2620E-05  0.0000E+00
