 1 - depth, m
 2 - temperature, C
 3 - salinity, kg/kg
 4 - turbulent kinetic energy, m**2/s**2
 5 - dissipation rate, m**2/s**3
 6 - kinematic heat conductance, m**2/s
 7 - modulus of horizontal velocity, m/s
 8 - Richardson number, n/d
   -0.000000    0.54491  0.8163E-13  0.1299E-02  0.6377E-02  0.1077E-03  0.5475E+00 -0.2233E-03
   -0.037498    0.58037  0.8167E-13  0.6967E-03  0.3176E-02  0.2580E-03  0.1624E+00  0.7313E-02
   -0.074996    0.59180  0.8167E-13  0.4533E-03  0.6067E-03  0.3493E-03  0.9962E-01  0.1255E-01
   -0.112495    0.59662  0.8168E-13  0.3586E-03  0.2940E-03  0.3648E-03  0.7866E-01  0.3998E-01
   -0.149994    0.59940  0.8168E-13  0.2965E-03  0.1799E-03  0.3657E-03  0.6611E-01  0.1062E-01
   -0.187493    0.60149  0.8168E-13  0.2504E-03  0.1162E-03  0.3664E-03  0.5815E-01  0.2141E-01
   -0.224993    0.60312  0.8168E-13  0.2143E-03  0.7653E-04  0.3752E-03  0.5219E-01  0.1491E-01
   -0.262493    0.60453  0.8169E-13  0.1869E-03  0.5087E-04  0.3781E-03  0.4815E-01 -0.4882E-01
   -0.299993    0.60588  0.8169E-13  0.1646E-03  0.3377E-04  0.3824E-03  0.4441E-01  0.7532E-02
   -0.337493    0.60723  0.8169E-13  0.1459E-03  0.2243E-04  0.3884E-03  0.4094E-01  0.2290E-01
   -0.374993    0.60856  0.8169E-13  0.1308E-03  0.1503E-04  0.3945E-03  0.3818E-01  0.3736E-01
   -0.412494    0.60990  0.8169E-13  0.1178E-03  0.1023E-04  0.4019E-03  0.3568E-01  0.1127E+01
   -0.449995    0.61129  0.8169E-13  0.1069E-03  0.7123E-05  0.4145E-03  0.3347E-01  0.4031E+00
   -0.487496    0.61268  0.8169E-13  0.9801E-04  0.5109E-05  0.4251E-03  0.3186E-01  0.3875E+00
   -0.524997    0.61407  0.8169E-13  0.9075E-04  0.3785E-05  0.4288E-03  0.3072E-01  0.1369E+01
   -0.562498    0.61549  0.8169E-13  0.8460E-04  0.2897E-05  0.4331E-03  0.2930E-01  0.4623E+01
   -0.600000    0.61697  0.8169E-13  0.7931E-04  0.2288E-05  0.4378E-03  0.2789E-01  0.2554E+00
   -0.637501    0.61848  0.8170E-13  0.7459E-04  0.1854E-05  0.4431E-03  0.2653E-01  0.1454E+00
   -0.675002    0.62002  0.8170E-13  0.7046E-04  0.1540E-05  0.4475E-03  0.2526E-01  0.1240E+00
   -0.712504    0.62159  0.8170E-13  0.6675E-04  0.1305E-05  0.4507E-03  0.2406E-01  0.1182E+00
   -0.750005    0.62318  0.8170E-13  0.6338E-04  0.1124E-05  0.4525E-03  0.2291E-01  0.1167E+00
   -0.787507    0.62481  0.8170E-13  0.6029E-04  0.9810E-06  0.4529E-03  0.2182E-01  0.1170E+00
   -0.825008    0.62649  0.8170E-13  0.5740E-04  0.8652E-06  0.4514E-03  0.2078E-01  0.1173E+00
   -0.862510    0.62824  0.8170E-13  0.5467E-04  0.7696E-06  0.4475E-03  0.1977E-01  0.1170E+00
   -0.900011    0.63008  0.8170E-13  0.5205E-04  0.6895E-06  0.4409E-03  0.1879E-01  0.1153E+00
   -0.937513    0.63203  0.8170E-13  0.4950E-04  0.6212E-06  0.4305E-03  0.1783E-01  0.1114E+00
   -0.975014    0.63414  0.8170E-13  0.4691E-04  0.5611E-06  0.4123E-03  0.1688E-01  0.1031E+00
   -1.012515    0.63656  0.8171E-13  0.4420E-04  0.5063E-06  0.4065E-03  0.1589E-01  0.1439E+00
   -1.050016    0.63921  0.8171E-13  0.4147E-04  0.4578E-06  0.3968E-03  0.1498E-01  0.2184E+00
   -1.087517    0.64232  0.8171E-13  0.3874E-04  0.4146E-06  0.3824E-03  0.1415E-01  0.3548E+00
   -1.125018    0.64634  0.8171E-13  0.3601E-04  0.3764E-06  0.3646E-03  0.1338E-01  0.6657E+00
   -1.162518    0.65208  0.8171E-13  0.3328E-04  0.3427E-06  0.3433E-03  0.1265E-01  0.1923E+01
   -1.200018    0.66282  0.8172E-13  0.3055E-04  0.3138E-06  0.3183E-03  0.1196E-01  0.7274E+01
   -1.237518    0.69088  0.8174E-13  0.2777E-04  0.2893E-06  0.2898E-03  0.1128E-01  0.1336E+02
   -1.275018    0.72697  0.8176E-13  0.2500E-04  0.2709E-06  0.2570E-03  0.1063E-01  0.1429E+02
   -1.312518    0.76080  0.8179E-13  0.2219E-04  0.2608E-06  0.2198E-03  0.1002E-01  0.2437E+02
   -1.350017    0.79898  0.8181E-13  0.1929E-04  0.2637E-06  0.1778E-03  0.9451E-02  0.4925E+02
   -1.387516    0.83602  0.8183E-13  0.1623E-04  0.2923E-06  0.1307E-03  0.8924E-02  0.2834E+03
   -1.425015    0.87052  0.8185E-13  0.1272E-04  0.3864E-06  0.7818E-04  0.8429E-02  0.4373E+04
   -1.462513    0.91875  0.8186E-13  0.6934E-05  0.8733E-06  0.1376E-04  0.7920E-02  0.1215E+04
   -1.500011    1.08963  0.8187E-13  0.0000E+00  0.0000E+00  0.0000E+00  0.7034E-02  0.0000E+00
