 1 - depth, m
 2 - temperature, C
 3 - salinity, kg/kg
 4 - turbulent kinetic energy, m**2/s**2
 5 - dissipation rate, m**2/s**3
 6 - kinematic heat conductance, m**2/s
 7 - modulus of horizontal velocity, m/s
 8 - Richardson number, n/d
   -0.000000   -0.00000  0.5467E-12  0.4096E-13  0.8590E-16  0.1000E-09  0.0000E+00  0.1288E+17
   -0.037498    0.19851  0.4138E-12  0.4096E-13  0.8590E-16  0.1000E-09  0.0000E+00  0.1201E+17
   -0.074995    0.39419  0.2922E-12  0.8321E-13  0.8590E-16  0.1000E-09  0.0000E+00  0.1119E+17
   -0.112494    0.58717  0.1908E-12  0.2903E-12  0.8595E-16  0.1000E-09  0.0000E+00  0.1040E+17
   -0.149992    0.77755  0.1324E-12  0.6656E-12  0.1248E-15  0.1000E-09  0.0000E+00  0.9642E+16
   -0.187491    0.96541  0.1066E-12  0.1287E-11  0.2062E-15  0.1000E-09  0.0000E+00  0.8916E+16
   -0.224990    1.15078  0.9740E-13  0.2317E-11  0.3483E-15  0.1000E-09  0.0000E+00  0.8220E+16
   -0.262490    1.33370  0.9459E-13  0.4032E-11  0.5865E-15  0.1000E-09  0.0000E+00  0.7560E+16
   -0.299989    1.51443  0.9384E-13  0.6899E-11  0.9811E-15  0.1000E-09  0.0000E+00  0.6927E+16
   -0.337489    1.69302  0.9365E-13  0.1169E-10  0.1632E-14  0.1000E-09  0.0000E+00  0.6315E+16
   -0.374989    1.86947  0.9357E-13  0.1970E-10  0.2702E-14  0.1000E-09  0.0000E+00  0.5774E+16
   -0.412489    2.04531  0.9348E-13  0.3302E-10  0.4454E-14  0.1000E-09  0.0000E+00  0.5270E+16
   -0.449990    2.22155  0.9331E-13  0.5514E-10  0.7314E-14  0.1000E-09  0.0000E+00  0.4766E+16
   -0.487490    2.39822  0.9300E-13  0.9171E-10  0.1197E-13  0.1000E-09  0.0000E+00  0.4261E+16
   -0.524991    2.57530  0.9250E-13  0.1515E-09  0.1945E-13  0.1000E-09  0.0000E+00  0.3751E+16
   -0.562492    2.75259  0.9177E-13  0.2489E-09  0.3145E-13  0.1000E-09  0.0000E+00  0.3242E+16
   -0.599993    2.93005  0.9083E-13  0.4069E-09  0.5061E-13  0.1000E-09  0.0000E+00  0.2733E+16
   -0.637494    3.10765  0.8973E-13  0.6628E-09  0.8113E-13  0.1023E-09  0.0000E+00  0.2226E+16
   -0.674995    3.28532  0.8853E-13  0.1075E-08  0.1296E-12  0.2093E-09  0.0000E+00  0.1719E+16
   -0.712496    3.46283  0.8733E-13  0.1738E-08  0.2063E-12  0.4714E-09  0.0000E+00  0.1215E+16
   -0.749997    3.63987  0.8624E-13  0.2799E-08  0.3270E-12  0.1267E-08  0.0000E+00  0.7165E+15
   -0.787498    3.81621  0.8547E-13  0.4480E-08  0.5157E-12  0.6306E-08  0.0000E+00  0.2270E+15
   -0.824999    3.98684  0.8522E-13  0.5250E-08  0.6073E-12  0.8052E-05  0.0000E+00 -0.9878E+11
   -0.862500    3.98995  0.8522E-13  0.5700E-08  0.6723E-12  0.1159E-04  0.0000E+00 -0.1598E+12
   -0.900001    3.99211  0.8522E-13  0.6119E-08  0.7420E-12  0.1393E-04  0.0000E+00 -0.1908E+12
   -0.937502    3.99393  0.8522E-13  0.6512E-08  0.8169E-12  0.1556E-04  0.0000E+00 -0.2164E+12
   -0.975003    3.99556  0.8522E-13  0.6882E-08  0.8976E-12  0.1667E-04  0.0000E+00 -0.2419E+12
   -1.012504    3.99710  0.8522E-13  0.7226E-08  0.9854E-12  0.1740E-04  0.0000E+00 -0.2704E+12
   -1.050004    3.99860  0.8522E-13  0.7547E-08  0.1082E-11  0.1776E-04  0.0000E+00 -0.3036E+12
   -1.087505    4.00009  0.8522E-13  0.7838E-08  0.1190E-11  0.1776E-04  0.0000E+00 -0.3436E+12
   -1.125005    4.00159  0.8522E-13  0.8094E-08  0.1310E-11  0.1737E-04  0.0000E+00 -0.3930E+12
   -1.162505    4.00316  0.8522E-13  0.8309E-08  0.1449E-11  0.1662E-04  0.0000E+00 -0.4566E+12
   -1.200005    4.00480  0.8522E-13  0.8473E-08  0.1610E-11  0.1553E-04  0.0000E+00 -0.5422E+12
   -1.237505    4.00659  0.8522E-13  0.8572E-08  0.1805E-11  0.1410E-04  0.0000E+00 -0.6632E+12
   -1.275004    4.00858  0.8522E-13  0.8586E-08  0.2048E-11  0.1232E-04  0.0000E+00 -0.8459E+12
   -1.312503    4.01088  0.8522E-13  0.8481E-08  0.2370E-11  0.1018E-04  0.0000E+00 -0.1149E+13
   -1.350002    4.01371  0.8522E-13  0.8199E-08  0.2834E-11  0.7714E-05  0.0000E+00 -0.1727E+13
   -1.387501    4.01747  0.8522E-13  0.7624E-08  0.3601E-11  0.4990E-05  0.0000E+00 -0.3129E+13
   -1.424999    4.02333  0.8522E-13  0.6494E-08  0.5228E-11  0.2283E-05  0.0000E+00 -0.8566E+13
   -1.462497    4.03596  0.8522E-13  0.4377E-08  0.1064E-10  0.4240E-06  0.0000E+00 -0.6663E+14
   -1.499994    4.09110  0.8522E-13  0.0000E+00  0.0000E+00  0.0000E+00  0.0000E+00  0.0000E+00
