 1 - depth, m
 2 - temperature, C
 3 - salinity, kg/kg
 4 - turbulent kinetic energy, m**2/s**2
 5 - dissipation rate, m**2/s**3
 6 - kinematic heat conductance, m**2/s
 7 - modulus of horizontal velocity, m/s
 8 - Richardson number, n/d
   -0.000000   -0.00000  0.6333E-12  0.4096E-13  0.8590E-16  0.1000E-09  0.0000E+00  0.1089E+17
   -0.037498    0.16718  0.4515E-12  0.4096E-13  0.8590E-16  0.1000E-09  0.0000E+00  0.1032E+17
   -0.074996    0.33314  0.3322E-12  0.4096E-13  0.8590E-16  0.1000E-09  0.0000E+00  0.9765E+16
   -0.112494    0.49784  0.2386E-12  0.4096E-13  0.8590E-16  0.1000E-09  0.0000E+00  0.9217E+16
   -0.149992    0.66123  0.1755E-12  0.4096E-13  0.8590E-16  0.1000E-09  0.0000E+00  0.8680E+16
   -0.187491    0.82327  0.1374E-12  0.4096E-13  0.8590E-16  0.1000E-09  0.0000E+00  0.8155E+16
   -0.224990    0.98390  0.1155E-12  0.4096E-13  0.8590E-16  0.1000E-09  0.0000E+00  0.7640E+16
   -0.262490    1.14304  0.1029E-12  0.4096E-13  0.8590E-16  0.1000E-09  0.0000E+00  0.7138E+16
   -0.299990    1.30067  0.9560E-13  0.4096E-13  0.8590E-16  0.1000E-09  0.0000E+00  0.6649E+16
   -0.337489    1.45672  0.9132E-13  0.5775E-13  0.8590E-16  0.1000E-09  0.0000E+00  0.6170E+16
   -0.374990    1.61111  0.8872E-13  0.1572E-12  0.8763E-16  0.1000E-09  0.0000E+00  0.5712E+16
   -0.412490    1.76396  0.8704E-13  0.4241E-12  0.1106E-15  0.1000E-09  0.0000E+00  0.5269E+16
   -0.449990    1.91533  0.8583E-13  0.9079E-12  0.1836E-15  0.1000E-09  0.0000E+00  0.4836E+16
   -0.487491    2.06512  0.8487E-13  0.1753E-11  0.3252E-15  0.1000E-09  0.0000E+00  0.4415E+16
   -0.524992    2.21326  0.8406E-13  0.3227E-11  0.5762E-15  0.1000E-09  0.0000E+00  0.4009E+16
   -0.562493    2.35979  0.8336E-13  0.5806E-11  0.1012E-14  0.1000E-09  0.0000E+00  0.3614E+16
   -0.599993    2.50461  0.8278E-13  0.1033E-10  0.1766E-14  0.1000E-09  0.0000E+00  0.3232E+16
   -0.637495    2.64765  0.8232E-13  0.1823E-10  0.3063E-14  0.1000E-09  0.0000E+00  0.2861E+16
   -0.674996    2.78879  0.8197E-13  0.3201E-10  0.5286E-14  0.1000E-09  0.0000E+00  0.2503E+16
   -0.712497    2.92791  0.8173E-13  0.5591E-10  0.9078E-14  0.1000E-09  0.0000E+00  0.2157E+16
   -0.749998    3.06486  0.8157E-13  0.9721E-10  0.1552E-13  0.1000E-09  0.0000E+00  0.1831E+16
   -0.787499    3.19990  0.8148E-13  0.1682E-09  0.2642E-13  0.1000E-09  0.0000E+00  0.1518E+16
   -0.825000    3.33303  0.8144E-13  0.2899E-09  0.4479E-13  0.1147E-09  0.0000E+00  0.1218E+16
   -0.862501    3.46414  0.8141E-13  0.4974E-09  0.7561E-13  0.2255E-09  0.0000E+00  0.9316E+15
   -0.900002    3.59313  0.8140E-13  0.8498E-09  0.1271E-12  0.5346E-09  0.0000E+00  0.6584E+15
   -0.937503    3.71993  0.8140E-13  0.1445E-08  0.2127E-12  0.1467E-08  0.0000E+00  0.3979E+15
   -0.975004    3.84408  0.8140E-13  0.2440E-08  0.3538E-12  0.6481E-08  0.0000E+00  0.1510E+15
   -1.012505    3.96198  0.8140E-13  0.3525E-08  0.5125E-12  0.2570E-05  0.0000E+00  0.7440E+13
   -1.050005    3.99766  0.8140E-13  0.4126E-08  0.6089E-12  0.9691E-05  0.0000E+00 -0.3153E+12
   -1.087506    3.99948  0.8140E-13  0.4484E-08  0.6799E-12  0.1052E-04  0.0000E+00 -0.3401E+12
   -1.125006    4.00114  0.8140E-13  0.4788E-08  0.7553E-12  0.1093E-04  0.0000E+00 -0.3727E+12
   -1.162506    4.00273  0.8140E-13  0.5038E-08  0.8377E-12  0.1096E-04  0.0000E+00 -0.4168E+12
   -1.200006    4.00433  0.8140E-13  0.5232E-08  0.9304E-12  0.1061E-04  0.0000E+00 -0.4782E+12
   -1.237506    4.00599  0.8140E-13  0.5364E-08  0.1038E-11  0.9903E-05  0.0000E+00 -0.5668E+12
   -1.275005    4.00779  0.8140E-13  0.5420E-08  0.1170E-11  0.8841E-05  0.0000E+00 -0.7025E+12
   -1.312504    4.00981  0.8140E-13  0.5378E-08  0.1341E-11  0.7424E-05  0.0000E+00 -0.9297E+12
   -1.350003    4.01225  0.8140E-13  0.5198E-08  0.1583E-11  0.5673E-05  0.0000E+00 -0.1367E+13
   -1.387502    4.01545  0.8140E-13  0.4799E-08  0.1979E-11  0.3660E-05  0.0000E+00 -0.2435E+13
   -1.425000    4.02040  0.8140E-13  0.4006E-08  0.2805E-11  0.1632E-05  0.0000E+00 -0.6595E+13
   -1.462498    4.03110  0.8140E-13  0.2593E-08  0.5421E-11  0.2810E-06  0.0000E+00 -0.4742E+14
   -1.499996    4.07613  0.8140E-13  0.0000E+00  0.0000E+00  0.0000E+00  0.0000E+00  0.0000E+00
