 1 - depth, m
 2 - temperature, C
 3 - salinity, kg/kg
 4 - turbulent kinetic energy, m**2/s**2
 5 - dissipation rate, m**2/s**3
 6 - kinematic heat conductance, m**2/s
 7 - modulus of horizontal velocity, m/s
 8 - Richardson number, n/d
   -0.000000   -0.00000  0.5844E-12  0.4096E-13  0.8590E-16  0.1000E-09  0.0000E+00  0.8305E+16
   -0.037498    0.12673  0.5017E-12  0.4096E-13  0.8590E-16  0.1000E-09  0.0000E+00  0.8022E+16
   -0.074996    0.25351  0.3761E-12  0.4096E-13  0.8590E-16  0.1000E-09  0.0000E+00  0.7734E+16
   -0.112494    0.38023  0.2726E-12  0.4096E-13  0.8590E-16  0.1000E-09  0.0000E+00  0.7442E+16
   -0.149993    0.50681  0.2013E-12  0.4096E-13  0.8590E-16  0.1000E-09  0.0000E+00  0.7148E+16
   -0.187492    0.63314  0.1564E-12  0.4096E-13  0.8590E-16  0.1000E-09  0.0000E+00  0.6850E+16
   -0.224991    0.75913  0.1298E-12  0.4096E-13  0.8590E-16  0.1000E-09  0.0000E+00  0.6552E+16
   -0.262491    0.88468  0.1147E-12  0.4096E-13  0.8590E-16  0.1000E-09  0.0000E+00  0.6252E+16
   -0.299990    1.00969  0.1061E-12  0.4096E-13  0.8590E-16  0.1000E-09  0.0000E+00  0.5953E+16
   -0.337491    1.13408  0.1013E-12  0.4096E-13  0.8590E-16  0.1000E-09  0.0000E+00  0.5655E+16
   -0.374991    1.25774  0.9850E-13  0.4096E-13  0.8590E-16  0.1000E-09  0.0000E+00  0.5367E+16
   -0.412491    1.38078  0.9674E-13  0.4096E-13  0.8590E-16  0.1000E-09  0.0000E+00  0.5085E+16
   -0.449992    1.50323  0.9551E-13  0.4096E-13  0.8590E-16  0.1000E-09  0.0000E+00  0.4805E+16
   -0.487492    1.62502  0.9453E-13  0.4096E-13  0.8590E-16  0.1000E-09  0.0000E+00  0.4527E+16
   -0.524993    1.74606  0.9367E-13  0.4096E-13  0.8590E-16  0.1000E-09  0.0000E+00  0.4247E+16
   -0.562494    1.86614  0.9288E-13  0.4096E-13  0.8590E-16  0.1000E-09  0.0000E+00  0.3973E+16
   -0.599995    1.98521  0.9214E-13  0.4096E-13  0.8590E-16  0.1000E-09  0.0000E+00  0.3703E+16
   -0.637497    2.10319  0.9147E-13  0.4096E-13  0.8590E-16  0.1000E-09  0.0000E+00  0.3438E+16
   -0.674998    2.22001  0.9086E-13  0.4096E-13  0.8590E-16  0.1000E-09  0.0000E+00  0.3180E+16
   -0.712499    2.33563  0.9034E-13  0.4096E-13  0.8590E-16  0.1000E-09  0.0000E+00  0.2928E+16
   -0.750000    2.44997  0.8991E-13  0.4096E-13  0.8590E-16  0.1000E-09  0.0000E+00  0.2687E+16
   -0.787501    2.56317  0.8958E-13  0.4096E-13  0.8590E-16  0.1000E-09  0.0000E+00  0.2453E+16
   -0.825003    2.67526  0.8933E-13  0.4096E-13  0.8590E-16  0.1000E-09  0.0000E+00  0.2225E+16
   -0.862504    2.78616  0.8915E-13  0.4096E-13  0.8590E-16  0.1000E-09  0.0000E+00  0.2004E+16
   -0.900005    2.89584  0.8903E-13  0.1338E-12  0.8929E-16  0.1000E-09  0.0000E+00  0.1789E+16
   -0.937506    3.00423  0.8896E-13  0.3963E-12  0.2003E-15  0.1000E-09  0.0000E+00  0.1580E+16
   -0.975007    3.11128  0.8892E-13  0.1039E-11  0.4909E-15  0.1000E-09  0.0000E+00  0.1379E+16
   -1.012508    3.21693  0.8890E-13  0.2623E-11  0.1198E-14  0.1000E-09  0.0000E+00  0.1186E+16
   -1.050009    3.32135  0.8888E-13  0.6525E-11  0.2896E-14  0.1000E-09  0.0000E+00  0.1001E+16
   -1.087509    3.42452  0.8888E-13  0.1604E-10  0.6929E-14  0.1000E-09  0.0000E+00  0.8220E+15
   -1.125010    3.52640  0.8887E-13  0.3902E-10  0.1641E-13  0.1000E-09  0.0000E+00  0.6572E+15
   -1.162510    3.62832  0.8887E-13  0.9390E-10  0.3849E-13  0.2148E-09  0.0000E+00  0.4935E+15
   -1.200010    3.73047  0.8887E-13  0.2236E-09  0.8938E-13  0.7461E-09  0.0000E+00  0.3288E+15
   -1.237510    3.83265  0.8887E-13  0.5262E-09  0.2054E-12  0.3418E-08  0.0000E+00  0.1634E+15
   -1.275009    3.93351  0.8887E-13  0.1199E-08  0.4591E-12  0.5888E-07  0.0000E+00  0.1858E+14
   -1.312509    4.00706  0.8887E-13  0.2242E-08  0.8756E-12  0.2201E-05  0.0000E+00 -0.2399E+13
   -1.350008    4.01345  0.8887E-13  0.2736E-08  0.1208E-11  0.2279E-05  0.0000E+00 -0.3010E+13
   -1.387506    4.01979  0.8887E-13  0.2930E-08  0.1629E-11  0.1843E-05  0.0000E+00 -0.4652E+13
   -1.425005    4.02772  0.8887E-13  0.2740E-08  0.2343E-11  0.1027E-05  0.0000E+00 -0.1048E+14
   -1.462503    4.04158  0.8887E-13  0.2013E-08  0.4252E-11  0.2379E-06  0.0000E+00 -0.5325E+14
   -1.500000    4.08561  0.8887E-13  0.0000E+00  0.0000E+00  0.0000E+00  0.0000E+00  0.0000E+00
