 1 - depth, m
 2 - temperature, C
 3 - salinity, kg/kg
 4 - turbulent kinetic energy, m**2/s**2
 5 - dissipation rate, m**2/s**3
 6 - kinematic heat conductance, m**2/s
 7 - modulus of horizontal velocity, m/s
 8 - Richardson number, n/d
   -0.000000   -0.00000  0.1291E-11  0.4096E-13  0.8590E-16  0.1000E-09  0.0000E+00  0.1906E+17
   -0.037497    0.29770  0.0000E+00  0.4096E-13  0.8590E-16  0.1000E-09  0.0000E+00  0.1481E+17
   -0.074994    0.54810  0.1334E-12  0.4096E-13  0.8590E-16  0.1000E-09  0.0000E+00  0.1146E+17
   -0.112492    0.75590  0.9154E-13  0.4096E-13  0.8590E-16  0.1000E-09  0.0000E+00  0.8802E+16
   -0.149990    0.92567  0.9953E-13  0.4096E-13  0.8590E-16  0.1000E-09  0.0000E+00  0.6695E+16
   -0.187488    1.06178  0.9767E-13  0.4096E-13  0.8590E-16  0.1000E-09  0.0000E+00  0.5015E+16
   -0.224986    1.16828  0.9780E-13  0.4096E-13  0.8590E-16  0.1000E-09  0.0000E+00  0.3663E+16
   -0.262485    1.24884  0.9775E-13  0.4096E-13  0.8590E-16  0.1000E-09  0.0000E+00  0.2688E+16
   -0.299984    1.30958  0.9772E-13  0.4096E-13  0.8590E-16  0.1000E-09  0.0000E+00  0.1928E+16
   -0.337483    1.35407  0.9771E-13  0.4096E-13  0.8590E-16  0.1000E-09  0.0000E+00  0.1316E+16
   -0.374983    1.38492  0.9771E-13  0.4096E-13  0.8590E-16  0.1000E-09  0.0000E+00  0.9229E+15
   -0.412482    1.40680  0.9770E-13  0.4096E-13  0.8590E-16  0.1000E-09  0.0000E+00  0.6864E+15
   -0.449982    1.42323  0.9769E-13  0.6908E-13  0.9017E-16  0.1000E-09  0.0000E+00  0.5335E+15
   -0.487482    1.43609  0.9767E-13  0.1704E-12  0.1267E-15  0.1000E-09  0.0000E+00  0.5176E+15
   -0.524982    1.44865  0.9757E-13  0.4656E-12  0.2610E-15  0.1000E-09  0.0000E+00  0.8765E+15
   -0.562482    1.47002  0.9719E-13  0.1260E-11  0.6329E-15  0.1000E-09  0.0000E+00  0.1296E+16
   -0.599983    1.50191  0.9633E-13  0.3291E-11  0.1592E-14  0.1000E-09  0.0000E+00  0.1769E+16
   -0.637483    1.54616  0.9495E-13  0.8429E-11  0.3965E-14  0.1000E-09  0.0000E+00  0.2294E+16
   -0.674983    1.60480  0.9333E-13  0.2131E-10  0.9761E-14  0.1000E-09  0.0000E+00  0.2865E+16
   -0.712484    1.68026  0.9196E-13  0.5325E-10  0.2376E-13  0.1000E-09  0.0000E+00  0.3482E+16
   -0.749984    1.77566  0.9102E-13  0.1316E-09  0.5719E-13  0.1000E-09  0.0000E+00  0.4296E+16
   -0.787485    1.89972  0.9054E-13  0.3215E-09  0.1362E-12  0.1107E-09  0.0000E+00  0.5141E+16
   -0.824985    2.05937  0.9014E-13  0.7772E-09  0.3209E-12  0.1617E-09  0.0000E+00  0.5895E+16
   -0.862485    2.26180  0.8949E-13  0.1859E-08  0.7483E-12  0.3207E-09  0.0000E+00  0.6431E+16
   -0.899986    2.51646  0.8904E-13  0.4397E-08  0.1727E-11  0.7506E-09  0.0000E+00  0.6516E+16
   -0.937486    2.83502  0.8892E-13  0.1028E-07  0.3939E-11  0.2150E-08  0.0000E+00  0.5756E+16
   -0.974986    3.22881  0.8890E-13  0.2348E-07  0.8802E-11  0.1544E-07  0.0000E+00  0.3695E+16
   -1.012486    3.67645  0.8875E-13  0.3671E-07  0.1390E-10  0.1639E-04  0.0000E+00  0.1367E+16
   -1.049986    3.97168  0.8862E-13  0.4404E-07  0.1693E-10  0.3534E-04  0.0000E+00  0.1428E+15
   -1.087486    4.05911  0.8860E-13  0.4625E-07  0.1804E-10  0.4501E-04  0.0000E+00 -0.2326E+13
   -1.124986    4.06113  0.8859E-13  0.4759E-07  0.1899E-10  0.4483E-04  0.0000E+00 -0.2434E+13
   -1.162485    4.06319  0.8859E-13  0.4860E-07  0.2003E-10  0.4433E-04  0.0000E+00 -0.2556E+13
   -1.199984    4.06529  0.8859E-13  0.4926E-07  0.2120E-10  0.4318E-04  0.0000E+00 -0.2726E+13
   -1.237483    4.06747  0.8859E-13  0.4955E-07  0.2255E-10  0.4125E-04  0.0000E+00 -0.2968E+13
   -1.274982    4.06978  0.8859E-13  0.4943E-07  0.2417E-10  0.3852E-04  0.0000E+00 -0.3313E+13
   -1.312480    4.07228  0.8859E-13  0.4881E-07  0.2620E-10  0.3495E-04  0.0000E+00 -0.3814E+13
   -1.349979    4.07507  0.8859E-13  0.4741E-07  0.2928E-10  0.2811E-04  0.0000E+00 -0.4974E+13
   -1.387477    4.07860  0.8859E-13  0.4456E-07  0.3483E-10  0.1778E-04  0.0000E+00 -0.8372E+13
   -1.424974    4.08425  0.8859E-13  0.3917E-07  0.4660E-10  0.8987E-05  0.0000E+00 -0.1819E+14
   -1.462471    4.09550  0.8859E-13  0.2641E-07  0.9376E-10  0.1608E-05  0.0000E+00 -0.1289E+15
   -1.499968    4.15494  0.8859E-13  0.0000E+00  0.0000E+00  0.0000E+00  0.0000E+00  0.0000E+00
