 1 - depth, m
 2 - temperature, C
 3 - salinity, kg/kg
 4 - turbulent kinetic energy, m**2/s**2
 5 - dissipation rate, m**2/s**3
 6 - kinematic heat conductance, m**2/s
 7 - modulus of horizontal velocity, m/s
 8 - Richardson number, n/d
   -0.000000   -0.00000  0.9475E-12  0.4096E-13  0.8590E-16  0.1000E-09  0.0000E+00  0.1132E+17
   -0.037498    0.17390  0.4324E-12  0.4096E-13  0.8590E-16  0.1000E-09  0.0000E+00  0.1070E+17
   -0.074995    0.34638  0.2578E-12  0.4096E-13  0.8590E-16  0.1000E-09  0.0000E+00  0.1009E+17
   -0.112494    0.51731  0.1865E-12  0.4096E-13  0.8590E-16  0.1000E-09  0.0000E+00  0.9480E+16
   -0.149992    0.68653  0.1482E-12  0.4096E-13  0.8590E-16  0.1000E-09  0.0000E+00  0.8887E+16
   -0.187491    0.85395  0.1249E-12  0.4096E-13  0.8590E-16  0.1000E-09  0.0000E+00  0.8307E+16
   -0.224990    1.01944  0.1105E-12  0.4096E-13  0.8590E-16  0.1000E-09  0.0000E+00  0.7741E+16
   -0.262490    1.18290  0.1021E-12  0.4096E-13  0.8590E-16  0.1000E-09  0.0000E+00  0.7192E+16
   -0.299989    1.34425  0.9741E-13  0.4096E-13  0.8590E-16  0.1000E-09  0.0000E+00  0.6658E+16
   -0.337489    1.50340  0.9491E-13  0.1641E-12  0.8590E-16  0.1000E-09  0.0000E+00  0.6142E+16
   -0.374989    1.66027  0.9352E-13  0.4528E-12  0.1162E-15  0.1000E-09  0.0000E+00  0.5660E+16
   -0.412490    1.81524  0.9262E-13  0.9679E-12  0.2004E-15  0.1000E-09  0.0000E+00  0.5202E+16
   -0.449990    1.96856  0.9187E-13  0.1874E-11  0.3598E-15  0.1000E-09  0.0000E+00  0.4757E+16
   -0.487491    2.12015  0.9112E-13  0.3484E-11  0.6450E-15  0.1000E-09  0.0000E+00  0.4325E+16
   -0.524991    2.26991  0.9031E-13  0.6332E-11  0.1144E-14  0.1000E-09  0.0000E+00  0.3902E+16
   -0.562492    2.41764  0.8944E-13  0.1137E-10  0.2012E-14  0.1000E-09  0.0000E+00  0.3495E+16
   -0.599993    2.56328  0.8856E-13  0.2025E-10  0.3516E-14  0.1000E-09  0.0000E+00  0.3104E+16
   -0.637494    2.70678  0.8772E-13  0.3585E-10  0.6108E-14  0.1000E-09  0.0000E+00  0.2728E+16
   -0.674995    2.84811  0.8698E-13  0.6312E-10  0.1056E-13  0.1000E-09  0.0000E+00  0.2368E+16
   -0.712496    2.98720  0.8637E-13  0.1106E-09  0.1816E-13  0.1000E-09  0.0000E+00  0.2025E+16
   -0.749997    3.12404  0.8593E-13  0.1928E-09  0.3108E-13  0.1000E-09  0.0000E+00  0.1702E+16
   -0.787499    3.25905  0.8564E-13  0.3345E-09  0.5295E-13  0.1054E-09  0.0000E+00  0.1394E+16
   -0.825000    3.39240  0.8547E-13  0.5774E-09  0.8978E-13  0.2270E-09  0.0000E+00  0.1098E+16
   -0.862501    3.52395  0.8539E-13  0.9920E-09  0.1515E-12  0.5177E-09  0.0000E+00  0.8123E+15
   -0.900002    3.65356  0.8535E-13  0.1696E-08  0.2545E-12  0.1311E-08  0.0000E+00  0.5388E+15
   -0.937503    3.78079  0.8534E-13  0.2880E-08  0.4250E-12  0.4237E-08  0.0000E+00  0.2783E+15
   -0.975004    3.90389  0.8534E-13  0.4797E-08  0.6971E-12  0.3774E-07  0.0000E+00  0.5116E+14
   -1.012504    4.00280  0.8534E-13  0.5587E-08  0.8164E-12  0.1419E-04  0.0000E+00 -0.3306E+12
   -1.050005    4.00403  0.8534E-13  0.5959E-08  0.8853E-12  0.1484E-04  0.0000E+00 -0.3413E+12
   -1.087505    4.00522  0.8534E-13  0.6270E-08  0.9578E-12  0.1510E-04  0.0000E+00 -0.3599E+12
   -1.125006    4.00640  0.8534E-13  0.6523E-08  0.1036E-11  0.1502E-04  0.0000E+00 -0.3880E+12
   -1.162506    4.00760  0.8534E-13  0.6719E-08  0.1123E-11  0.1459E-04  0.0000E+00 -0.4282E+12
   -1.200006    4.00884  0.8534E-13  0.6853E-08  0.1223E-11  0.1381E-04  0.0000E+00 -0.4854E+12
   -1.237505    4.01018  0.8534E-13  0.6917E-08  0.1341E-11  0.1265E-04  0.0000E+00 -0.5691E+12
   -1.275005    4.01166  0.8534E-13  0.6895E-08  0.1487E-11  0.1113E-04  0.0000E+00 -0.6980E+12
   -1.312504    4.01336  0.8534E-13  0.6763E-08  0.1680E-11  0.9242E-05  0.0000E+00 -0.9139E+12
   -1.350003    4.01544  0.8534E-13  0.6473E-08  0.1959E-11  0.6996E-05  0.0000E+00 -0.1328E+13
   -1.387501    4.01822  0.8534E-13  0.5928E-08  0.2422E-11  0.4476E-05  0.0000E+00 -0.2337E+13
   -1.424999    4.02259  0.8534E-13  0.4913E-08  0.3413E-11  0.1969E-05  0.0000E+00 -0.6302E+13
   -1.462497    4.03237  0.8534E-13  0.3109E-08  0.6702E-11  0.3204E-06  0.0000E+00 -0.4923E+14
   -1.499995    4.07803  0.8534E-13  0.0000E+00  0.0000E+00  0.0000E+00  0.0000E+00  0.0000E+00
