 1 - depth, m
 2 - temperature, C
 3 - salinity, kg/kg
 4 - turbulent kinetic energy, m**2/s**2
 5 - dissipation rate, m**2/s**3
 6 - kinematic heat conductance, m**2/s
 7 - modulus of horizontal velocity, m/s
 8 - Richardson number, n/d
   -0.000000   -0.00000  0.2135E-12  0.4096E-13  0.8590E-16  0.1000E-09  0.0000E+00  0.8542E+16
   -0.037498    0.13042  0.2908E-12  0.4096E-13  0.8590E-16  0.1000E-09  0.0000E+00  0.8246E+16
   -0.074996    0.26095  0.3191E-12  0.4096E-13  0.8590E-16  0.1000E-09  0.0000E+00  0.7947E+16
   -0.112494    0.39151  0.3000E-12  0.4096E-13  0.8590E-16  0.1000E-09  0.0000E+00  0.7644E+16
   -0.149993    0.52204  0.2555E-12  0.4096E-13  0.8590E-16  0.1000E-09  0.0000E+00  0.7339E+16
   -0.187492    0.65245  0.2072E-12  0.4096E-13  0.8590E-16  0.1000E-09  0.0000E+00  0.7031E+16
   -0.224992    0.78265  0.1668E-12  0.4096E-13  0.8590E-16  0.1000E-09  0.0000E+00  0.6720E+16
   -0.262491    0.91254  0.1375E-12  0.4096E-13  0.8590E-16  0.1000E-09  0.0000E+00  0.6412E+16
   -0.299991    1.04209  0.1180E-12  0.4096E-13  0.8590E-16  0.1000E-09  0.0000E+00  0.6103E+16
   -0.337491    1.17122  0.1058E-12  0.4096E-13  0.8590E-16  0.1000E-09  0.0000E+00  0.5794E+16
   -0.374991    1.29983  0.9829E-13  0.4096E-13  0.8590E-16  0.1000E-09  0.0000E+00  0.5487E+16
   -0.412492    1.42786  0.9374E-13  0.4096E-13  0.8590E-16  0.1000E-09  0.0000E+00  0.5182E+16
   -0.449993    1.55523  0.9092E-13  0.4096E-13  0.8590E-16  0.1000E-09  0.0000E+00  0.4878E+16
   -0.487493    1.68183  0.8907E-13  0.4096E-13  0.8590E-16  0.1000E-09  0.0000E+00  0.4579E+16
   -0.524994    1.80761  0.8776E-13  0.4096E-13  0.8590E-16  0.1000E-09  0.0000E+00  0.4290E+16
   -0.562495    1.93269  0.8675E-13  0.4096E-13  0.8590E-16  0.1000E-09  0.0000E+00  0.4004E+16
   -0.599996    2.05699  0.8594E-13  0.4096E-13  0.8590E-16  0.1000E-09  0.0000E+00  0.3721E+16
   -0.637498    2.18044  0.8526E-13  0.4096E-13  0.8590E-16  0.1000E-09  0.0000E+00  0.3443E+16
   -0.674999    2.30295  0.8469E-13  0.4096E-13  0.8590E-16  0.1000E-09  0.0000E+00  0.3169E+16
   -0.712500    2.42444  0.8423E-13  0.4096E-13  0.8590E-16  0.1000E-09  0.0000E+00  0.2901E+16
   -0.750002    2.54486  0.8387E-13  0.1310E-12  0.8590E-16  0.1000E-09  0.0000E+00  0.2643E+16
   -0.787503    2.66429  0.8359E-13  0.3840E-12  0.1452E-15  0.1000E-09  0.0000E+00  0.2391E+16
   -0.825004    2.78274  0.8340E-13  0.9129E-12  0.3022E-15  0.1000E-09  0.0000E+00  0.2144E+16
   -0.862506    2.90016  0.8327E-13  0.2016E-11  0.6366E-15  0.1000E-09  0.0000E+00  0.1904E+16
   -0.900007    3.01648  0.8318E-13  0.4331E-11  0.1328E-14  0.1000E-09  0.0000E+00  0.1670E+16
   -0.937508    3.13166  0.8313E-13  0.9171E-11  0.2743E-14  0.1000E-09  0.0000E+00  0.1443E+16
   -0.975009    3.24567  0.8310E-13  0.1923E-10  0.5616E-14  0.1000E-09  0.0000E+00  0.1222E+16
   -1.012510    3.35847  0.8309E-13  0.4008E-10  0.1143E-13  0.1000E-09  0.0000E+00  0.1007E+16
   -1.050011    3.46981  0.8308E-13  0.8321E-10  0.2319E-13  0.1000E-09  0.0000E+00  0.7996E+15
   -1.087511    3.57958  0.8307E-13  0.1716E-09  0.4675E-13  0.2157E-09  0.0000E+00  0.6004E+15
   -1.125012    3.68763  0.8307E-13  0.3511E-09  0.9355E-13  0.6253E-09  0.0000E+00  0.4142E+15
   -1.162512    3.79517  0.8307E-13  0.7126E-09  0.1858E-12  0.2228E-08  0.0000E+00  0.2304E+15
   -1.200012    3.90155  0.8307E-13  0.1424E-08  0.3639E-12  0.1795E-07  0.0000E+00  0.5539E+14
   -1.237512    3.99753  0.8307E-13  0.2288E-08  0.5855E-12  0.3149E-05  0.0000E+00 -0.9872E+12
   -1.275012    4.00222  0.8307E-13  0.2745E-08  0.7522E-12  0.3629E-05  0.0000E+00 -0.1149E+13
   -1.312511    4.00632  0.8307E-13  0.3059E-08  0.9395E-12  0.3588E-05  0.0000E+00 -0.1441E+13
   -1.350010    4.01049  0.8307E-13  0.3216E-08  0.1175E-11  0.3098E-05  0.0000E+00 -0.2016E+13
   -1.387509    4.01533  0.8307E-13  0.3167E-08  0.1521E-11  0.2221E-05  0.0000E+00 -0.3401E+13
   -1.425007    4.02204  0.8307E-13  0.2797E-08  0.2169E-11  0.1114E-05  0.0000E+00 -0.8431E+13
   -1.462505    4.03483  0.8307E-13  0.1959E-08  0.3996E-11  0.2318E-06  0.0000E+00 -0.4816E+14
   -1.500003    4.07855  0.8307E-13  0.0000E+00  0.0000E+00  0.0000E+00  0.0000E+00  0.0000E+00
