 1 - depth, m
 2 - temperature, C
 3 - salinity, kg/kg
 4 - turbulent kinetic energy, m**2/s**2
 5 - dissipation rate, m**2/s**3
 6 - kinematic heat conductance, m**2/s
 7 - modulus of horizontal velocity, m/s
 8 - Richardson number, n/d
   -0.000000   -0.00000  0.5083E-12  0.5257E-12  0.1523E-15  0.1000E-09  0.0000E+00  0.1396E+17
   -0.037498    0.21562  0.4428E-12  0.8141E-12  0.1763E-15  0.1000E-09  0.0000E+00  0.1300E+17
   -0.074996    0.42900  0.2955E-12  0.1443E-11  0.2683E-15  0.1000E-09  0.0000E+00  0.1208E+17
   -0.112494    0.64010  0.1789E-12  0.2594E-11  0.4507E-15  0.1000E-09  0.0000E+00  0.1118E+17
   -0.149993    0.84890  0.1201E-12  0.4627E-11  0.7758E-15  0.1000E-09  0.0000E+00  0.1031E+17
   -0.187492    1.05537  0.9779E-13  0.8179E-11  0.1339E-14  0.1000E-09  0.0000E+00  0.9469E+16
   -0.224991    1.25948  0.9089E-13  0.1436E-10  0.2304E-14  0.1000E-09  0.0000E+00  0.8658E+16
   -0.262491    1.46121  0.8905E-13  0.2505E-10  0.3945E-14  0.1000E-09  0.0000E+00  0.7888E+16
   -0.299990    1.66088  0.8860E-13  0.4345E-10  0.6721E-14  0.1000E-09  0.0000E+00  0.7145E+16
   -0.337490    1.85852  0.8848E-13  0.7499E-10  0.1140E-13  0.1000E-09  0.0000E+00  0.6426E+16
   -0.374991    2.05412  0.8840E-13  0.1289E-09  0.1924E-13  0.1000E-09  0.0000E+00  0.5783E+16
   -0.412491    2.24951  0.8827E-13  0.2205E-09  0.3236E-13  0.1000E-09  0.0000E+00  0.5174E+16
   -0.449991    2.44588  0.8801E-13  0.3756E-09  0.5419E-13  0.1000E-09  0.0000E+00  0.4562E+16
   -0.487492    2.64327  0.8754E-13  0.6374E-09  0.9040E-13  0.1000E-09  0.0000E+00  0.3944E+16
   -0.524993    2.84170  0.8679E-13  0.1074E-08  0.1498E-12  0.1254E-09  0.0000E+00  0.3316E+16
   -0.562494    3.04092  0.8575E-13  0.1798E-08  0.2466E-12  0.2552E-09  0.0000E+00  0.2683E+16
   -0.599995    3.24077  0.8452E-13  0.2996E-08  0.4042E-12  0.5486E-09  0.0000E+00  0.2045E+16
   -0.637496    3.44096  0.8324E-13  0.4968E-08  0.6593E-12  0.1303E-08  0.0000E+00  0.1404E+16
   -0.674997    3.64078  0.8205E-13  0.8193E-08  0.1070E-11  0.3882E-08  0.0000E+00  0.7651E+15
   -0.712499    3.83765  0.8135E-13  0.1331E-07  0.1713E-11  0.2793E-07  0.0000E+00  0.1700E+15
   -0.750000    4.00688  0.8122E-13  0.1396E-07  0.1801E-11  0.4194E-04  0.0000E+00 -0.2232E+12
   -0.787501    4.00756  0.8122E-13  0.1426E-07  0.1850E-11  0.4141E-04  0.0000E+00 -0.2342E+12
   -0.825002    4.00825  0.8122E-13  0.1454E-07  0.1903E-11  0.4173E-04  0.0000E+00 -0.2410E+12
   -0.862503    4.00894  0.8122E-13  0.1479E-07  0.1960E-11  0.4189E-04  0.0000E+00 -0.2487E+12
   -0.900005    4.00963  0.8122E-13  0.1500E-07  0.2022E-11  0.4183E-04  0.0000E+00 -0.2579E+12
   -0.937506    4.01033  0.8122E-13  0.1519E-07  0.2088E-11  0.4156E-04  0.0000E+00 -0.2686E+12
   -0.975007    4.01103  0.8122E-13  0.1534E-07  0.2160E-11  0.4106E-04  0.0000E+00 -0.2813E+12
   -1.012507    4.01175  0.8122E-13  0.1547E-07  0.2239E-11  0.4035E-04  0.0000E+00 -0.2973E+12
   -1.050008    4.01248  0.8122E-13  0.1555E-07  0.2326E-11  0.3939E-04  0.0000E+00 -0.3169E+12
   -1.087509    4.01324  0.8122E-13  0.1560E-07  0.2424E-11  0.3819E-04  0.0000E+00 -0.3403E+12
   -1.125009    4.01404  0.8122E-13  0.1560E-07  0.2534E-11  0.3670E-04  0.0000E+00 -0.3673E+12
   -1.162509    4.01487  0.8122E-13  0.1555E-07  0.2660E-11  0.3493E-04  0.0000E+00 -0.4005E+12
   -1.200009    4.01575  0.8122E-13  0.1545E-07  0.2806E-11  0.3286E-04  0.0000E+00 -0.4423E+12
   -1.237509    4.01670  0.8122E-13  0.1525E-07  0.2993E-11  0.3037E-04  0.0000E+00 -0.4979E+12
   -1.275009    4.01773  0.8122E-13  0.1492E-07  0.3260E-11  0.2442E-04  0.0000E+00 -0.6473E+12
   -1.312508    4.01902  0.8122E-13  0.1439E-07  0.3641E-11  0.1847E-04  0.0000E+00 -0.9028E+12
   -1.350007    4.02073  0.8122E-13  0.1360E-07  0.4208E-11  0.1341E-04  0.0000E+00 -0.1328E+13
   -1.387506    4.02312  0.8122E-13  0.1238E-07  0.5167E-11  0.8429E-05  0.0000E+00 -0.2307E+13
   -1.425004    4.02692  0.8122E-13  0.1030E-07  0.7273E-11  0.3700E-05  0.0000E+00 -0.6039E+13
   -1.462502    4.03551  0.8122E-13  0.6235E-08  0.1523E-10  0.5285E-06  0.0000E+00 -0.5790E+14
   -1.500000    4.08541  0.8122E-13  0.0000E+00  0.0000E+00  0.0000E+00  0.0000E+00  0.0000E+00
