 1 - depth, m
 2 - temperature, C
 3 - salinity, kg/kg
 4 - turbulent kinetic energy, m**2/s**2
 5 - dissipation rate, m**2/s**3
 6 - kinematic heat conductance, m**2/s
 7 - modulus of horizontal velocity, m/s
 8 - Richardson number, n/d
   -0.000000   -0.00000  0.5007E-12  0.5293E-12  0.1536E-15  0.1000E-09  0.0000E+00  0.1397E+17
   -0.037498    0.21578  0.4354E-12  0.8201E-12  0.1778E-15  0.1000E-09  0.0000E+00  0.1302E+17
   -0.074996    0.42948  0.2977E-12  0.1454E-11  0.2707E-15  0.1000E-09  0.0000E+00  0.1210E+17
   -0.112494    0.64102  0.1838E-12  0.2616E-11  0.4548E-15  0.1000E-09  0.0000E+00  0.1120E+17
   -0.149993    0.85036  0.1234E-12  0.4667E-11  0.7832E-15  0.1000E-09  0.0000E+00  0.1033E+17
   -0.187492    1.05742  0.9922E-13  0.8252E-11  0.1352E-14  0.1000E-09  0.0000E+00  0.9490E+16
   -0.224991    1.26216  0.9137E-13  0.1449E-10  0.2327E-14  0.1000E-09  0.0000E+00  0.8675E+16
   -0.262491    1.46452  0.8919E-13  0.2529E-10  0.3985E-14  0.1000E-09  0.0000E+00  0.7899E+16
   -0.299990    1.66478  0.8864E-13  0.4387E-10  0.6790E-14  0.1000E-09  0.0000E+00  0.7151E+16
   -0.337490    1.86298  0.8848E-13  0.7573E-10  0.1152E-13  0.1000E-09  0.0000E+00  0.6427E+16
   -0.374990    2.05906  0.8839E-13  0.1301E-09  0.1945E-13  0.1000E-09  0.0000E+00  0.5777E+16
   -0.412491    2.25482  0.8826E-13  0.2227E-09  0.3270E-13  0.1000E-09  0.0000E+00  0.5162E+16
   -0.449991    2.45139  0.8799E-13  0.3795E-09  0.5478E-13  0.1000E-09  0.0000E+00  0.4545E+16
   -0.487492    2.64882  0.8752E-13  0.6440E-09  0.9138E-13  0.1000E-09  0.0000E+00  0.3923E+16
   -0.524993    2.84712  0.8676E-13  0.1085E-08  0.1514E-12  0.1276E-09  0.0000E+00  0.3294E+16
   -0.562494    3.04605  0.8571E-13  0.1817E-08  0.2493E-12  0.2601E-09  0.0000E+00  0.2661E+16
   -0.599995    3.24547  0.8449E-13  0.3027E-08  0.4085E-12  0.5600E-09  0.0000E+00  0.2025E+16
   -0.637496    3.44508  0.8319E-13  0.5020E-08  0.6664E-12  0.1333E-08  0.0000E+00  0.1387E+16
   -0.674997    3.64419  0.8202E-13  0.8278E-08  0.1081E-11  0.3989E-08  0.0000E+00  0.7525E+15
   -0.712499    3.84014  0.8135E-13  0.1344E-07  0.1730E-11  0.2922E-07  0.0000E+00  0.1641E+15
   -0.750000    4.00734  0.8123E-13  0.1409E-07  0.1818E-11  0.4231E-04  0.0000E+00 -0.2250E+12
   -0.787501    4.00801  0.8123E-13  0.1439E-07  0.1867E-11  0.4174E-04  0.0000E+00 -0.2360E+12
   -0.825002    4.00869  0.8123E-13  0.1467E-07  0.1920E-11  0.4206E-04  0.0000E+00 -0.2425E+12
   -0.862503    4.00937  0.8123E-13  0.1491E-07  0.1977E-11  0.4221E-04  0.0000E+00 -0.2500E+12
   -0.900004    4.01005  0.8123E-13  0.1513E-07  0.2038E-11  0.4215E-04  0.0000E+00 -0.2589E+12
   -0.937506    4.01074  0.8123E-13  0.1531E-07  0.2104E-11  0.4187E-04  0.0000E+00 -0.2694E+12
   -0.975006    4.01143  0.8123E-13  0.1546E-07  0.2176E-11  0.4136E-04  0.0000E+00 -0.2818E+12
   -1.012507    4.01214  0.8123E-13  0.1558E-07  0.2254E-11  0.4064E-04  0.0000E+00 -0.2976E+12
   -1.050008    4.01286  0.8123E-13  0.1566E-07  0.2341E-11  0.3968E-04  0.0000E+00 -0.3167E+12
   -1.087509    4.01362  0.8123E-13  0.1571E-07  0.2438E-11  0.3846E-04  0.0000E+00 -0.3398E+12
   -1.125009    4.01440  0.8123E-13  0.1570E-07  0.2547E-11  0.3696E-04  0.0000E+00 -0.3664E+12
   -1.162509    4.01522  0.8123E-13  0.1565E-07  0.2672E-11  0.3517E-04  0.0000E+00 -0.3991E+12
   -1.200009    4.01609  0.8123E-13  0.1554E-07  0.2817E-11  0.3308E-04  0.0000E+00 -0.4403E+12
   -1.237509    4.01702  0.8123E-13  0.1534E-07  0.3003E-11  0.3059E-04  0.0000E+00 -0.4950E+12
   -1.275008    4.01803  0.8123E-13  0.1500E-07  0.3266E-11  0.2466E-04  0.0000E+00 -0.6410E+12
   -1.312508    4.01930  0.8123E-13  0.1447E-07  0.3645E-11  0.1862E-04  0.0000E+00 -0.8943E+12
   -1.350007    4.02098  0.8123E-13  0.1367E-07  0.4209E-11  0.1351E-04  0.0000E+00 -0.1315E+13
   -1.387505    4.02333  0.8123E-13  0.1244E-07  0.5163E-11  0.8487E-05  0.0000E+00 -0.2280E+13
   -1.425004    4.02707  0.8123E-13  0.1034E-07  0.7259E-11  0.3722E-05  0.0000E+00 -0.5955E+13
   -1.462502    4.03552  0.8123E-13  0.6238E-08  0.1520E-10  0.5274E-06  0.0000E+00 -0.5725E+14
   -1.499999    4.08500  0.8123E-13  0.0000E+00  0.0000E+00  0.0000E+00  0.0000E+00  0.0000E+00
