 1 - depth, m
 2 - temperature, C
 3 - salinity, kg/kg
 4 - turbulent kinetic energy, m**2/s**2
 5 - dissipation rate, m**2/s**3
 6 - kinematic heat conductance, m**2/s
 7 - modulus of horizontal velocity, m/s
 8 - Richardson number, n/d
   -0.000000   -0.00000  0.5334E-16  0.2030E-07  0.7850E-10  0.3011E-08  0.0000E+00  0.5672E+17
   -0.037499    1.00689  0.4747E-14  0.1450E-06  0.7214E-10  0.4884E-08  0.0000E+00  0.3839E+17
   -0.074999    2.12433  0.3868E-13  0.3329E-06  0.1229E-09  0.3069E-04  0.0000E+00  0.1943E+17
   -0.112498    3.12524  0.8542E-13  0.4344E-06  0.1562E-09  0.2244E-03  0.0000E+00  0.9680E+16
   -0.149999    3.69690  0.1141E-12  0.5044E-06  0.1798E-09  0.3313E-03  0.0000E+00  0.4359E+16
   -0.187499    4.05481  0.1259E-12  0.5457E-06  0.1940E-09  0.4135E-03  0.0000E+00  0.9264E+15
   -0.225000    4.22158  0.1251E-12  0.5483E-06  0.1952E-09  0.4797E-03  0.0000E+00 -0.1669E+13
   -0.262501    4.22320  0.1251E-12  0.5498E-06  0.1962E-09  0.4798E-03  0.0000E+00 -0.2358E+13
   -0.300002    4.22386  0.1251E-12  0.5510E-06  0.1973E-09  0.4794E-03  0.0000E+00 -0.2297E+13
   -0.337504    4.22450  0.1251E-12  0.5517E-06  0.1984E-09  0.4780E-03  0.0000E+00 -0.2282E+13
   -0.375005    4.22513  0.1251E-12  0.5522E-06  0.1996E-09  0.4759E-03  0.0000E+00 -0.2278E+13
   -0.412507    4.22575  0.1251E-12  0.5523E-06  0.2009E-09  0.4731E-03  0.0000E+00 -0.2274E+13
   -0.450009    4.22638  0.1251E-12  0.5520E-06  0.2024E-09  0.4694E-03  0.0000E+00 -0.2280E+13
   -0.487511    4.22699  0.1251E-12  0.5514E-06  0.2040E-09  0.4649E-03  0.0000E+00 -0.2287E+13
   -0.525014    4.22762  0.1251E-12  0.5505E-06  0.2057E-09  0.4597E-03  0.0000E+00 -0.2302E+13
   -0.562516    4.22824  0.1251E-12  0.5493E-06  0.2076E-09  0.4536E-03  0.0000E+00 -0.2324E+13
   -0.600019    4.22886  0.1251E-12  0.5477E-06  0.2097E-09  0.4468E-03  0.0000E+00 -0.2353E+13
   -0.637521    4.22949  0.1251E-12  0.5458E-06  0.2119E-09  0.4392E-03  0.0000E+00 -0.2390E+13
   -0.675024    4.23013  0.1251E-12  0.5435E-06  0.2143E-09  0.4309E-03  0.0000E+00 -0.2434E+13
   -0.712527    4.23078  0.1251E-12  0.5408E-06  0.2170E-09  0.4217E-03  0.0000E+00 -0.2487E+13
   -0.750029    4.23144  0.1252E-12  0.5378E-06  0.2200E-09  0.4117E-03  0.0000E+00 -0.2544E+13
   -0.787532    4.23211  0.1252E-12  0.5344E-06  0.2232E-09  0.4010E-03  0.0000E+00 -0.2611E+13
   -0.825035    4.23279  0.1252E-12  0.5306E-06  0.2269E-09  0.3894E-03  0.0000E+00 -0.2688E+13
   -0.862537    4.23350  0.1252E-12  0.5264E-06  0.2309E-09  0.3770E-03  0.0000E+00 -0.2779E+13
   -0.900040    4.23422  0.1252E-12  0.5217E-06  0.2353E-09  0.3638E-03  0.0000E+00 -0.2883E+13
   -0.937542    4.23497  0.1252E-12  0.5165E-06  0.2404E-09  0.3498E-03  0.0000E+00 -0.3006E+13
   -0.975045    4.23575  0.1252E-12  0.5109E-06  0.2460E-09  0.3349E-03  0.0000E+00 -0.3148E+13
   -1.012547    4.23657  0.1252E-12  0.5046E-06  0.2525E-09  0.3192E-03  0.0000E+00 -0.3319E+13
   -1.050049    4.23742  0.1252E-12  0.4976E-06  0.2599E-09  0.3023E-03  0.0000E+00 -0.3520E+13
   -1.087551    4.23832  0.1252E-12  0.4899E-06  0.2686E-09  0.2844E-03  0.0000E+00 -0.3764E+13
   -1.125053    4.23928  0.1252E-12  0.4812E-06  0.2790E-09  0.2654E-03  0.0000E+00 -0.4052E+13
   -1.162555    4.24031  0.1252E-12  0.4715E-06  0.2913E-09  0.2453E-03  0.0000E+00 -0.4410E+13
   -1.200056    4.24142  0.1252E-12  0.4606E-06  0.3063E-09  0.2241E-03  0.0000E+00 -0.4859E+13
   -1.237558    4.24265  0.1252E-12  0.4482E-06  0.3249E-09  0.2018E-03  0.0000E+00 -0.5439E+13
   -1.275059    4.24401  0.1252E-12  0.4341E-06  0.3486E-09  0.1785E-03  0.0000E+00 -0.6207E+13
   -1.312559    4.24555  0.1252E-12  0.4178E-06  0.3798E-09  0.1538E-03  0.0000E+00 -0.7276E+13
   -1.350060    4.24735  0.1252E-12  0.3987E-06  0.4229E-09  0.1284E-03  0.0000E+00 -0.8843E+13
   -1.387560    4.24952  0.1252E-12  0.3751E-06  0.4890E-09  0.1020E-03  0.0000E+00 -0.1114E+14
   -1.425060    4.25224  0.1252E-12  0.3354E-06  0.6388E-09  0.3921E-04  0.0000E+00 -0.2974E+14
   -1.462559    4.25936  0.1252E-12  0.1910E-06  0.1560E-08  0.3684E-05  0.0000E+00 -0.3508E+15
   -1.500058    4.33222  0.1253E-12  0.0000E+00  0.0000E+00  0.0000E+00  0.0000E+00  0.0000E+00
