 1 - depth, m
 2 - temperature, C
 3 - salinity, kg/kg
 4 - turbulent kinetic energy, m**2/s**2
 5 - dissipation rate, m**2/s**3
 6 - kinematic heat conductance, m**2/s
 7 - modulus of horizontal velocity, m/s
 8 - Richardson number, n/d
   -0.000000   -0.00000  0.3989E-12  0.2009E-12  0.8590E-16  0.1000E-09  0.0000E+00  0.1367E+17
   -0.037498    0.21109  0.3882E-12  0.3636E-12  0.9252E-16  0.1000E-09  0.0000E+00  0.1279E+17
   -0.074996    0.42059  0.3086E-12  0.7052E-12  0.1413E-15  0.1000E-09  0.0000E+00  0.1193E+17
   -0.112494    0.62854  0.2222E-12  0.1322E-11  0.2413E-15  0.1000E-09  0.0000E+00  0.1109E+17
   -0.149993    0.83490  0.1586E-12  0.2411E-11  0.4215E-15  0.1000E-09  0.0000E+00  0.1027E+17
   -0.187492    1.03959  0.1208E-12  0.4325E-11  0.7362E-15  0.1000E-09  0.0000E+00  0.9469E+16
   -0.224991    1.24248  0.1016E-12  0.7682E-11  0.1280E-14  0.1000E-09  0.0000E+00  0.8681E+16
   -0.262490    1.44336  0.9327E-13  0.1354E-10  0.2215E-14  0.1000E-09  0.0000E+00  0.7919E+16
   -0.299990    1.64225  0.9003E-13  0.2373E-10  0.3809E-14  0.1000E-09  0.0000E+00  0.7174E+16
   -0.337490    1.83895  0.8886E-13  0.4135E-10  0.6519E-14  0.1000E-09  0.0000E+00  0.6448E+16
   -0.374990    2.03323  0.8840E-13  0.7172E-10  0.1111E-13  0.1000E-09  0.0000E+00  0.5773E+16
   -0.412491    2.22590  0.8808E-13  0.1238E-09  0.1884E-13  0.1000E-09  0.0000E+00  0.5129E+16
   -0.449991    2.41743  0.8769E-13  0.2129E-09  0.3183E-13  0.1000E-09  0.0000E+00  0.4496E+16
   -0.487492    2.60767  0.8711E-13  0.3645E-09  0.5356E-13  0.1000E-09  0.0000E+00  0.3877E+16
   -0.524993    2.79650  0.8629E-13  0.6195E-09  0.8947E-13  0.1000E-09  0.0000E+00  0.3274E+16
   -0.562494    2.98390  0.8524E-13  0.1046E-08  0.1485E-12  0.1534E-09  0.0000E+00  0.2687E+16
   -0.599995    3.16979  0.8405E-13  0.1758E-08  0.2454E-12  0.3220E-09  0.0000E+00  0.2115E+16
   -0.637496    3.35408  0.8290E-13  0.2939E-08  0.4035E-12  0.7181E-09  0.0000E+00  0.1560E+16
   -0.674997    3.53656  0.8202E-13  0.4892E-08  0.6606E-12  0.1798E-08  0.0000E+00  0.1020E+16
   -0.712498    3.71646  0.8154E-13  0.8090E-08  0.1075E-11  0.5971E-08  0.0000E+00  0.4995E+15
   -0.749999    3.89017  0.8136E-13  0.1297E-07  0.1701E-11  0.6948E-07  0.0000E+00  0.6765E+14
   -0.787500    4.01111  0.8135E-13  0.1363E-07  0.1793E-11  0.4063E-04  0.0000E+00 -0.2460E+12
   -0.825002    4.01173  0.8135E-13  0.1394E-07  0.1843E-11  0.4003E-04  0.0000E+00 -0.2566E+12
   -0.862503    4.01237  0.8135E-13  0.1421E-07  0.1897E-11  0.4030E-04  0.0000E+00 -0.2621E+12
   -0.900004    4.01300  0.8135E-13  0.1444E-07  0.1953E-11  0.4041E-04  0.0000E+00 -0.2687E+12
   -0.937505    4.01364  0.8135E-13  0.1464E-07  0.2013E-11  0.4029E-04  0.0000E+00 -0.2768E+12
   -0.975006    4.01428  0.8135E-13  0.1480E-07  0.2078E-11  0.3994E-04  0.0000E+00 -0.2869E+12
   -1.012507    4.01493  0.8135E-13  0.1492E-07  0.2148E-11  0.3936E-04  0.0000E+00 -0.3001E+12
   -1.050007    4.01559  0.8135E-13  0.1501E-07  0.2225E-11  0.3853E-04  0.0000E+00 -0.3164E+12
   -1.087508    4.01627  0.8135E-13  0.1505E-07  0.2311E-11  0.3743E-04  0.0000E+00 -0.3363E+12
   -1.125008    4.01698  0.8135E-13  0.1505E-07  0.2408E-11  0.3606E-04  0.0000E+00 -0.3597E+12
   -1.162508    4.01772  0.8135E-13  0.1500E-07  0.2519E-11  0.3438E-04  0.0000E+00 -0.3889E+12
   -1.200008    4.01850  0.8135E-13  0.1488E-07  0.2647E-11  0.3241E-04  0.0000E+00 -0.4259E+12
   -1.237508    4.01933  0.8135E-13  0.1468E-07  0.2811E-11  0.3002E-04  0.0000E+00 -0.4753E+12
   -1.275008    4.02024  0.8135E-13  0.1434E-07  0.3046E-11  0.2408E-04  0.0000E+00 -0.6147E+12
   -1.312507    4.02138  0.8135E-13  0.1381E-07  0.3381E-11  0.1828E-04  0.0000E+00 -0.8463E+12
   -1.350006    4.02289  0.8135E-13  0.1303E-07  0.3879E-11  0.1330E-04  0.0000E+00 -0.1229E+13
   -1.387504    4.02497  0.8135E-13  0.1182E-07  0.4723E-11  0.8352E-05  0.0000E+00 -0.2106E+13
   -1.425003    4.02831  0.8135E-13  0.9778E-08  0.6585E-11  0.3637E-05  0.0000E+00 -0.5433E+13
   -1.462501    4.03589  0.8135E-13  0.5784E-08  0.1367E-10  0.4914E-06  0.0000E+00 -0.5195E+14
   -1.499998    4.08169  0.8135E-13  0.0000E+00  0.0000E+00  0.0000E+00  0.0000E+00  0.0000E+00
