 1 - depth, m
 2 - temperature, C
 3 - salinity, kg/kg
 4 - turbulent kinetic energy, m**2/s**2
 5 - dissipation rate, m**2/s**3
 6 - kinematic heat conductance, m**2/s
 7 - modulus of horizontal velocity, m/s
 8 - Richardson number, n/d
   -0.000000   -0.00000  0.4950E-12  0.5350E-12  0.1553E-15  0.1000E-09  0.0000E+00  0.1400E+17
   -0.037498    0.21619  0.4286E-12  0.8290E-12  0.1796E-15  0.1000E-09  0.0000E+00  0.1304E+17
   -0.074996    0.43025  0.2991E-12  0.1470E-11  0.2732E-15  0.1000E-09  0.0000E+00  0.1211E+17
   -0.112494    0.64215  0.1882E-12  0.2643E-11  0.4586E-15  0.1000E-09  0.0000E+00  0.1122E+17
   -0.149993    0.85186  0.1265E-12  0.4713E-11  0.7891E-15  0.1000E-09  0.0000E+00  0.1035E+17
   -0.187492    1.05933  0.1007E-12  0.8328E-11  0.1361E-14  0.1000E-09  0.0000E+00  0.9502E+16
   -0.224991    1.26451  0.9190E-13  0.1461E-10  0.2341E-14  0.1000E-09  0.0000E+00  0.8685E+16
   -0.262490    1.46732  0.8934E-13  0.2549E-10  0.4008E-14  0.1000E-09  0.0000E+00  0.7907E+16
   -0.299990    1.66804  0.8868E-13  0.4418E-10  0.6824E-14  0.1000E-09  0.0000E+00  0.7155E+16
   -0.337490    1.86667  0.8849E-13  0.7622E-10  0.1156E-13  0.1000E-09  0.0000E+00  0.6428E+16
   -0.374990    2.06318  0.8839E-13  0.1309E-09  0.1952E-13  0.1000E-09  0.0000E+00  0.5772E+16
   -0.412490    2.25926  0.8824E-13  0.2238E-09  0.3280E-13  0.1000E-09  0.0000E+00  0.5153E+16
   -0.449991    2.45602  0.8797E-13  0.3812E-09  0.5489E-13  0.1000E-09  0.0000E+00  0.4531E+16
   -0.487492    2.65351  0.8749E-13  0.6464E-09  0.9152E-13  0.1000E-09  0.0000E+00  0.3907E+16
   -0.524992    2.85171  0.8673E-13  0.1088E-08  0.1515E-12  0.1284E-09  0.0000E+00  0.3276E+16
   -0.562493    3.05041  0.8568E-13  0.1821E-08  0.2493E-12  0.2619E-09  0.0000E+00  0.2643E+16
   -0.599994    3.24943  0.8445E-13  0.3032E-08  0.4083E-12  0.5645E-09  0.0000E+00  0.2008E+16
   -0.637496    3.44848  0.8315E-13  0.5025E-08  0.6655E-12  0.1346E-08  0.0000E+00  0.1373E+16
   -0.674997    3.64685  0.8200E-13  0.8281E-08  0.1079E-11  0.4036E-08  0.0000E+00  0.7421E+15
   -0.712498    3.84183  0.8136E-13  0.1343E-07  0.1725E-11  0.2984E-07  0.0000E+00  0.1602E+15
   -0.749999    4.00748  0.8125E-13  0.1407E-07  0.1812E-11  0.4238E-04  0.0000E+00 -0.2247E+12
   -0.787500    4.00815  0.8125E-13  0.1438E-07  0.1861E-11  0.4181E-04  0.0000E+00 -0.2356E+12
   -0.825001    4.00883  0.8125E-13  0.1465E-07  0.1914E-11  0.4212E-04  0.0000E+00 -0.2420E+12
   -0.862503    4.00950  0.8125E-13  0.1490E-07  0.1970E-11  0.4227E-04  0.0000E+00 -0.2493E+12
   -0.900004    4.01018  0.8125E-13  0.1511E-07  0.2031E-11  0.4220E-04  0.0000E+00 -0.2581E+12
   -0.937505    4.01086  0.8125E-13  0.1529E-07  0.2096E-11  0.4192E-04  0.0000E+00 -0.2684E+12
   -0.975006    4.01155  0.8125E-13  0.1544E-07  0.2167E-11  0.4141E-04  0.0000E+00 -0.2806E+12
   -1.012506    4.01225  0.8125E-13  0.1556E-07  0.2244E-11  0.4069E-04  0.0000E+00 -0.2961E+12
   -1.050007    4.01297  0.8125E-13  0.1564E-07  0.2330E-11  0.3972E-04  0.0000E+00 -0.3150E+12
   -1.087508    4.01371  0.8125E-13  0.1568E-07  0.2425E-11  0.3850E-04  0.0000E+00 -0.3377E+12
   -1.125008    4.01449  0.8125E-13  0.1567E-07  0.2534E-11  0.3700E-04  0.0000E+00 -0.3639E+12
   -1.162508    4.01530  0.8125E-13  0.1562E-07  0.2657E-11  0.3521E-04  0.0000E+00 -0.3963E+12
   -1.200008    4.01616  0.8125E-13  0.1550E-07  0.2801E-11  0.3312E-04  0.0000E+00 -0.4370E+12
   -1.237508    4.01708  0.8125E-13  0.1530E-07  0.2984E-11  0.3062E-04  0.0000E+00 -0.4910E+12
   -1.275007    4.01808  0.8125E-13  0.1496E-07  0.3245E-11  0.2467E-04  0.0000E+00 -0.6359E+12
   -1.312507    4.01934  0.8125E-13  0.1442E-07  0.3620E-11  0.1862E-04  0.0000E+00 -0.8868E+12
   -1.350005    4.02101  0.8125E-13  0.1362E-07  0.4178E-11  0.1351E-04  0.0000E+00 -0.1303E+13
   -1.387504    4.02333  0.8125E-13  0.1239E-07  0.5122E-11  0.8484E-05  0.0000E+00 -0.2258E+13
   -1.425002    4.02704  0.8125E-13  0.1030E-07  0.7199E-11  0.3717E-05  0.0000E+00 -0.5896E+13
   -1.462500    4.03542  0.8125E-13  0.6201E-08  0.1507E-10  0.5244E-06  0.0000E+00 -0.5675E+14
   -1.499998    4.08462  0.8125E-13  0.0000E+00  0.0000E+00  0.0000E+00  0.0000E+00  0.0000E+00
