 1 - depth, m
 2 - temperature, C
 3 - salinity, kg/kg
 4 - turbulent kinetic energy, m**2/s**2
 5 - dissipation rate, m**2/s**3
 6 - kinematic heat conductance, m**2/s
 7 - modulus of horizontal velocity, m/s
 8 - Richardson number, n/d
   -0.000000   13.89292  0.9147E-13  0.4695E-03  0.1488E-01  0.9948E-04  0.2360E+00 -0.1027E-01
   -0.037498   13.99169  0.9146E-13  0.2724E-03  0.8482E-02  0.1479E-03  0.7278E-01  0.9831E-02
   -0.074996   14.02338  0.9146E-13  0.1781E-03  0.5048E-02  0.1692E-03  0.4648E-01  0.6047E+00
   -0.112494   14.04070  0.9146E-13  0.1284E-03  0.2052E-02  0.1642E-03  0.3717E-01 -0.2817E-01
   -0.149993   14.05026  0.9145E-13  0.9086E-04  0.4466E-03  0.1656E-03  0.3142E-01 -0.4792E-01
   -0.187491   14.05717  0.9145E-13  0.6782E-04  0.3935E-04  0.1696E-03  0.2718E-01 -0.9715E-01
   -0.224991   14.06327  0.9145E-13  0.5562E-04  0.7648E-05  0.1811E-03  0.2370E-01 -0.6676E-01
   -0.262490   14.06810  0.9145E-13  0.4713E-04  0.4066E-05  0.1902E-03  0.2096E-01  0.3752E+00
   -0.299990   14.07238  0.9145E-13  0.4064E-04  0.2486E-05  0.2028E-03  0.1866E-01  0.4060E+02
   -0.337490   14.07610  0.9145E-13  0.3551E-04  0.1556E-05  0.2216E-03  0.1674E-01  0.2267E+03
   -0.374990   14.07955  0.9145E-13  0.3142E-04  0.1010E-05  0.2456E-03  0.1511E-01  0.5451E+02
   -0.412490   14.08245  0.9145E-13  0.2814E-04  0.6880E-06  0.2750E-03  0.1376E-01  0.7366E+02
   -0.449991   14.08504  0.9145E-13  0.2549E-04  0.4892E-06  0.3167E-03  0.1262E-01  0.1472E+03
   -0.487491   14.08739  0.9145E-13  0.2338E-04  0.3640E-06  0.3745E-03  0.1167E-01  0.3370E+02
   -0.524992   14.08930  0.9145E-13  0.2171E-04  0.2816E-06  0.4332E-03  0.1088E-01  0.2867E+03
   -0.562493   14.09102  0.9145E-13  0.2037E-04  0.2262E-06  0.4909E-03  0.1013E-01  0.1002E+03
   -0.599994   14.09245  0.9145E-13  0.1927E-04  0.1872E-06  0.5428E-03  0.9439E-02  0.6317E+02
   -0.637495   14.09366  0.9145E-13  0.1833E-04  0.1579E-06  0.5755E-03  0.8790E-02  0.7372E+02
   -0.674996   14.09475  0.9145E-13  0.1750E-04  0.1351E-06  0.6066E-03  0.8173E-02  0.2374E+03
   -0.712497   14.09572  0.9145E-13  0.1676E-04  0.1171E-06  0.6286E-03  0.7592E-02  0.4637E+02
   -0.749999   14.09661  0.9145E-13  0.1608E-04  0.1026E-06  0.6408E-03  0.7039E-02  0.7578E+02
   -0.787500   14.09745  0.9145E-13  0.1542E-04  0.9062E-07  0.6547E-03  0.6508E-02  0.4121E+02
   -0.825001   14.09824  0.9145E-13  0.1478E-04  0.8039E-07  0.6585E-03  0.6001E-02  0.4898E+02
   -0.862502   14.09901  0.9145E-13  0.1413E-04  0.7155E-07  0.6732E-03  0.5507E-02  0.5921E+02
   -0.900003   14.09973  0.9145E-13  0.1344E-04  0.6358E-07  0.6469E-03  0.5043E-02  0.6203E+02
   -0.937504   14.10048  0.9145E-13  0.1280E-04  0.5718E-07  0.7893E-03  0.4552E-02  0.2654E+02
   -0.975005   14.10111  0.9145E-13  0.1221E-04  0.5211E-07  0.7708E-03  0.4202E-02  0.3826E+02
   -1.012506   14.10176  0.9145E-13  0.1166E-04  0.4794E-07  0.7790E-03  0.3832E-02  0.6065E+01
   -1.050006   14.10236  0.9145E-13  0.1107E-04  0.4401E-07  0.7776E-03  0.3497E-02  0.6708E+01
   -1.087507   14.10295  0.9145E-13  0.1043E-04  0.4046E-07  0.5944E-03  0.3228E-02  0.4933E+01
   -1.125007   14.10368  0.9145E-13  0.9612E-05  0.3677E-07  0.5823E-03  0.2871E-02  0.3602E+01
   -1.162507   14.10441  0.9145E-13  0.8804E-05  0.3379E-07  0.5459E-03  0.2575E-02  0.2778E+01
   -1.200007   14.10517  0.9145E-13  0.7989E-05  0.3144E-07  0.5152E-03  0.2306E-02  0.2233E+01
   -1.237507   14.10596  0.9145E-13  0.7201E-05  0.2986E-07  0.4762E-03  0.2073E-02  0.1815E+01
   -1.275007   14.10680  0.9145E-13  0.6475E-05  0.2915E-07  0.4207E-03  0.1877E-02  0.1631E+01
   -1.312506   14.10772  0.9145E-13  0.5823E-05  0.2961E-07  0.3609E-03  0.1721E-02  0.4721E+01
   -1.350005   14.10880  0.9145E-13  0.5177E-05  0.3246E-07  0.2863E-03  0.1601E-02  0.1130E+03
   -1.387503   14.11043  0.9145E-13  0.4455E-05  0.3880E-07  0.2271E-03  0.1491E-02  0.7786E+02
   -1.425002   14.11226  0.9145E-13  0.3563E-05  0.5890E-07  0.1358E-03  0.1402E-02  0.6626E+03
   -1.462500   14.11775  0.9145E-13  0.2042E-05  0.1306E-06  0.2773E-04  0.1297E-02 -0.7356E+04
   -1.499997   14.13469  0.9145E-13  0.0000E+00  0.0000E+00  0.0000E+00  0.1327E-02  0.0000E+00
