 1 - depth, m
 2 - temperature, C
 3 - salinity, kg/kg
 4 - turbulent kinetic energy, m**2/s**2
 5 - dissipation rate, m**2/s**3
 6 - kinematic heat conductance, m**2/s
 7 - modulus of horizontal velocity, m/s
 8 - Richardson number, n/d
   -0.000000   17.71935  0.9142E-13  0.2265E-04  0.2207E-05  0.2345E-04  0.2894E-01 -0.1614E-01
   -0.037498   17.74810  0.9142E-13  0.1759E-04  0.7498E-06  0.4522E-04  0.1677E-01 -0.4590E-01
   -0.074996   17.76019  0.9142E-13  0.1485E-04  0.3871E-06  0.6546E-04  0.1242E-01 -0.8207E-01
   -0.112494   17.76834  0.9142E-13  0.1298E-04  0.2362E-06  0.8692E-04  0.9759E-02 -0.1294E+00
   -0.149993   17.77435  0.9142E-13  0.1161E-04  0.1582E-06  0.1155E-03  0.7951E-02 -0.1384E+00
   -0.187492   17.77879  0.9142E-13  0.1064E-04  0.1146E-06  0.2160E-03  0.6674E-02  0.4878E+03
   -0.224991   17.78141  0.9142E-13  0.1002E-04  0.8952E-07  0.3518E-03  0.5814E-02  0.3555E+03
   -0.262491   17.78282  0.9142E-13  0.9620E-05  0.7313E-07  0.3824E-03  0.5192E-02  0.4449E+01
   -0.299991   17.78407  0.9142E-13  0.9317E-05  0.6080E-07  0.4036E-03  0.4623E-02  0.4286E+01
   -0.337491   17.78522  0.9142E-13  0.9090E-05  0.5148E-07  0.4244E-03  0.4128E-02  0.3840E+01
   -0.374991   17.78630  0.9142E-13  0.8916E-05  0.4426E-07  0.4482E-03  0.3694E-02  0.3440E+01
   -0.412491   17.78730  0.9142E-13  0.8780E-05  0.3857E-07  0.4750E-03  0.3313E-02  0.3053E+01
   -0.449992   17.78823  0.9142E-13  0.8672E-05  0.3404E-07  0.5056E-03  0.2982E-02  0.2680E+01
   -0.487493   17.78909  0.9142E-13  0.8585E-05  0.3043E-07  0.5384E-03  0.2696E-02  0.2392E+01
   -0.524994   17.78988  0.9142E-13  0.8512E-05  0.2752E-07  0.5612E-03  0.2448E-02  0.2479E+01
   -0.562495   17.79063  0.9142E-13  0.8440E-05  0.2512E-07  0.5842E-03  0.2216E-02  0.2542E+01
   -0.599996   17.79135  0.9142E-13  0.8358E-05  0.2311E-07  0.6074E-03  0.1997E-02  0.2586E+01
   -0.637497   17.79202  0.9142E-13  0.8259E-05  0.2141E-07  0.6293E-03  0.1791E-02  0.2617E+01
   -0.674998   17.79267  0.9142E-13  0.8134E-05  0.1996E-07  0.6465E-03  0.1597E-02  0.2639E+01
   -0.712500   17.79329  0.9142E-13  0.7978E-05  0.1871E-07  0.6650E-03  0.1412E-02  0.2693E+01
   -0.750001   17.79389  0.9142E-13  0.7778E-05  0.1759E-07  0.6503E-03  0.1241E-02  0.2686E+01
   -0.787502   17.79450  0.9142E-13  0.7651E-05  0.1707E-07  0.1069E-02  0.1060E-02  0.1830E+01
   -0.825003   17.79487  0.9142E-13  0.7556E-05  0.1678E-07  0.1012E-02  0.1005E-02  0.1772E+01
   -0.862505   17.79525  0.9142E-13  0.7449E-05  0.1656E-07  0.1085E-02  0.9509E-03  0.1532E+01
   -0.900006   17.79561  0.9142E-13  0.7345E-05  0.1642E-07  0.9884E-03  0.8980E-03  0.1718E+01
   -0.937507   17.79600  0.9142E-13  0.7191E-05  0.1632E-07  0.6477E-03  0.8580E-03  0.1856E+01
   -0.975008   17.79659  0.9142E-13  0.7013E-05  0.1628E-07  0.9788E-03  0.7296E-03  0.1531E+01
   -1.012509   17.79698  0.9142E-13  0.6892E-05  0.1632E-07  0.7834E-03  0.6915E-03  0.1854E+01
   -1.050010   17.79747  0.9142E-13  0.6761E-05  0.1641E-07  0.9990E-03  0.6578E-03  0.1159E+01
   -1.087510   17.79785  0.9142E-13  0.6623E-05  0.1659E-07  0.7167E-03  0.6257E-03  0.3452E+01
   -1.125011   17.79838  0.9142E-13  0.6441E-05  0.1689E-07  0.7485E-03  0.5969E-03  0.1256E+01
   -1.162511   17.79888  0.9142E-13  0.6186E-05  0.1742E-07  0.6240E-03  0.5494E-03  0.1101E+01
   -1.200011   17.79949  0.9142E-13  0.5962E-05  0.1800E-07  0.5744E-03  0.5137E-03  0.1119E+01
   -1.237511   17.80014  0.9142E-13  0.5736E-05  0.1875E-07  0.5272E-03  0.4857E-03  0.1519E+01
   -1.275010   17.80085  0.9142E-13  0.5482E-05  0.1979E-07  0.4651E-03  0.4612E-03  0.2577E+01
   -1.312510   17.80165  0.9142E-13  0.5183E-05  0.2133E-07  0.3955E-03  0.4380E-03  0.5126E+01
   -1.350009   17.80260  0.9142E-13  0.4819E-05  0.2376E-07  0.3000E-03  0.4160E-03  0.1321E+02
   -1.387507   17.80385  0.9142E-13  0.4365E-05  0.2797E-07  0.2576E-03  0.3942E-03  0.4139E+02
   -1.425006   17.80531  0.9142E-13  0.3643E-05  0.4001E-07  0.1132E-03  0.3769E-03 -0.1341E+03
   -1.462504   17.81094  0.9142E-13  0.2068E-05  0.9121E-07  0.2900E-04  0.3512E-03 -0.7476E+04
   -1.500002   17.82472  0.9142E-13  0.0000E+00  0.0000E+00  0.0000E+00  0.3551E-03  0.0000E+00
