 1 - depth, m
 2 - temperature, C
 3 - salinity, kg/kg
 4 - turbulent kinetic energy, m**2/s**2
 5 - dissipation rate, m**2/s**3
 6 - kinematic heat conductance, m**2/s
 7 - modulus of horizontal velocity, m/s
 8 - Richardson number, n/d
   -0.000000   -0.00000  0.4269E-12  0.4096E-13  0.8590E-16  0.1000E-09  0.0000E+00  0.1333E+17
   -0.037498    0.20556  0.3553E-12  0.4379E-13  0.8590E-16  0.1000E-09  0.0000E+00  0.1249E+17
   -0.074996    0.40959  0.2938E-12  0.2102E-12  0.8590E-16  0.1000E-09  0.0000E+00  0.1166E+17
   -0.112494    0.61199  0.2288E-12  0.5430E-12  0.1228E-15  0.1000E-09  0.0000E+00  0.1085E+17
   -0.149993    0.81266  0.1731E-12  0.1116E-11  0.2099E-15  0.1000E-09  0.0000E+00  0.1006E+17
   -0.187491    1.01149  0.1339E-12  0.2101E-11  0.3688E-15  0.1000E-09  0.0000E+00  0.9292E+16
   -0.224991    1.20833  0.1104E-12  0.3808E-11  0.6461E-15  0.1000E-09  0.0000E+00  0.8538E+16
   -0.262490    1.40303  0.9801E-13  0.6779E-11  0.1124E-14  0.1000E-09  0.0000E+00  0.7808E+16
   -0.299990    1.59556  0.9221E-13  0.1194E-10  0.1940E-14  0.1000E-09  0.0000E+00  0.7098E+16
   -0.337490    1.78579  0.8971E-13  0.2089E-10  0.3332E-14  0.1000E-09  0.0000E+00  0.6408E+16
   -0.374990    1.97350  0.8862E-13  0.3635E-10  0.5694E-14  0.1000E-09  0.0000E+00  0.5763E+16
   -0.412490    2.15932  0.8802E-13  0.6296E-10  0.9687E-14  0.1000E-09  0.0000E+00  0.5148E+16
   -0.449991    2.34355  0.8749E-13  0.1085E-09  0.1641E-13  0.1000E-09  0.0000E+00  0.4547E+16
   -0.487491    2.52604  0.8684E-13  0.1863E-09  0.2768E-13  0.1000E-09  0.0000E+00  0.3962E+16
   -0.524992    2.70667  0.8601E-13  0.3175E-09  0.4637E-13  0.1000E-09  0.0000E+00  0.3396E+16
   -0.562493    2.88539  0.8501E-13  0.5377E-09  0.7718E-13  0.1000E-09  0.0000E+00  0.2849E+16
   -0.599994    3.06216  0.8393E-13  0.9059E-09  0.1278E-12  0.1529E-09  0.0000E+00  0.2321E+16
   -0.637495    3.23692  0.8292E-13  0.1519E-08  0.2108E-12  0.3229E-09  0.0000E+00  0.1812E+16
   -0.674996    3.40955  0.8215E-13  0.2537E-08  0.3462E-12  0.7270E-09  0.0000E+00  0.1322E+16
   -0.712497    3.57982  0.8168E-13  0.4215E-08  0.5658E-12  0.1848E-08  0.0000E+00  0.8497E+15
   -0.749999    3.74692  0.8145E-13  0.6960E-08  0.9194E-12  0.6354E-08  0.0000E+00  0.4015E+15
   -0.787500    3.90765  0.8138E-13  0.1106E-07  0.1444E-11  0.9012E-07  0.0000E+00  0.4434E+14
   -0.825001    4.00950  0.8138E-13  0.1170E-07  0.1532E-11  0.3563E-04  0.0000E+00 -0.2425E+12
   -0.862502    4.01015  0.8138E-13  0.1200E-07  0.1580E-11  0.3524E-04  0.0000E+00 -0.2528E+12
   -0.900003    4.01082  0.8138E-13  0.1226E-07  0.1632E-11  0.3552E-04  0.0000E+00 -0.2586E+12
   -0.937504    4.01148  0.8138E-13  0.1248E-07  0.1686E-11  0.3562E-04  0.0000E+00 -0.2657E+12
   -0.975005    4.01215  0.8138E-13  0.1267E-07  0.1743E-11  0.3548E-04  0.0000E+00 -0.2747E+12
   -1.012506    4.01282  0.8138E-13  0.1282E-07  0.1805E-11  0.3512E-04  0.0000E+00 -0.2867E+12
   -1.050006    4.01350  0.8138E-13  0.1293E-07  0.1873E-11  0.3451E-04  0.0000E+00 -0.3016E+12
   -1.087507    4.01420  0.8138E-13  0.1300E-07  0.1948E-11  0.3365E-04  0.0000E+00 -0.3199E+12
   -1.125007    4.01492  0.8138E-13  0.1303E-07  0.2032E-11  0.3251E-04  0.0000E+00 -0.3420E+12
   -1.162507    4.01568  0.8138E-13  0.1301E-07  0.2127E-11  0.3108E-04  0.0000E+00 -0.3697E+12
   -1.200007    4.01647  0.8138E-13  0.1293E-07  0.2239E-11  0.2934E-04  0.0000E+00 -0.4050E+12
   -1.237507    4.01732  0.8138E-13  0.1277E-07  0.2389E-11  0.2646E-04  0.0000E+00 -0.4655E+12
   -1.275007    4.01826  0.8138E-13  0.1248E-07  0.2600E-11  0.2092E-04  0.0000E+00 -0.6130E+12
   -1.312506    4.01946  0.8138E-13  0.1203E-07  0.2890E-11  0.1629E-04  0.0000E+00 -0.8264E+12
   -1.350005    4.02102  0.8138E-13  0.1135E-07  0.3319E-11  0.1195E-04  0.0000E+00 -0.1195E+13
   -1.387503    4.02315  0.8138E-13  0.1030E-07  0.4046E-11  0.7499E-05  0.0000E+00 -0.2058E+13
   -1.425002    4.02656  0.8138E-13  0.8488E-08  0.5648E-11  0.3244E-05  0.0000E+00 -0.5377E+13
   -1.462500    4.03434  0.8138E-13  0.5042E-08  0.1161E-10  0.4456E-06  0.0000E+00 -0.5030E+14
   -1.499997    4.07977  0.8138E-13  0.0000E+00  0.0000E+00  0.0000E+00  0.0000E+00  0.0000E+00
