 1 - depth, m
 2 - temperature, C
 3 - salinity, kg/kg
 4 - turbulent kinetic energy, m**2/s**2
 5 - dissipation rate, m**2/s**3
 6 - kinematic heat conductance, m**2/s
 7 - modulus of horizontal velocity, m/s
 8 - Richardson number, n/d
   -0.000000   -0.00000  0.5035E-12  0.5420E-12  0.1574E-15  0.1000E-09  0.0000E+00  0.1408E+17
   -0.037498    0.21752  0.4215E-12  0.8400E-12  0.1817E-15  0.1000E-09  0.0000E+00  0.1309E+17
   -0.074995    0.43257  0.2982E-12  0.1489E-11  0.2759E-15  0.1000E-09  0.0000E+00  0.1215E+17
   -0.112494    0.64523  0.1907E-12  0.2675E-11  0.4627E-15  0.1000E-09  0.0000E+00  0.1124E+17
   -0.149992    0.85555  0.1289E-12  0.4765E-11  0.7954E-15  0.1000E-09  0.0000E+00  0.1036E+17
   -0.187491    1.06353  0.1019E-12  0.8413E-11  0.1371E-14  0.1000E-09  0.0000E+00  0.9508E+16
   -0.224990    1.26916  0.9237E-13  0.1475E-10  0.2355E-14  0.1000E-09  0.0000E+00  0.8686E+16
   -0.262490    1.47240  0.8949E-13  0.2569E-10  0.4028E-14  0.1000E-09  0.0000E+00  0.7904E+16
   -0.299989    1.67350  0.8871E-13  0.4450E-10  0.6851E-14  0.1000E-09  0.0000E+00  0.7149E+16
   -0.337489    1.87249  0.8849E-13  0.7670E-10  0.1160E-13  0.1000E-09  0.0000E+00  0.6419E+16
   -0.374989    2.06933  0.8838E-13  0.1316E-09  0.1956E-13  0.1000E-09  0.0000E+00  0.5759E+16
   -0.412489    2.26566  0.8823E-13  0.2248E-09  0.3284E-13  0.1000E-09  0.0000E+00  0.5135E+16
   -0.449990    2.46256  0.8794E-13  0.3825E-09  0.5492E-13  0.1000E-09  0.0000E+00  0.4510E+16
   -0.487490    2.66005  0.8745E-13  0.6481E-09  0.9148E-13  0.1000E-09  0.0000E+00  0.3883E+16
   -0.524991    2.85812  0.8668E-13  0.1090E-08  0.1513E-12  0.1292E-09  0.0000E+00  0.3250E+16
   -0.562492    3.05649  0.8563E-13  0.1823E-08  0.2488E-12  0.2639E-09  0.0000E+00  0.2617E+16
   -0.599993    3.25497  0.8439E-13  0.3032E-08  0.4071E-12  0.5697E-09  0.0000E+00  0.1984E+16
   -0.637494    3.45326  0.8309E-13  0.5021E-08  0.6631E-12  0.1361E-08  0.0000E+00  0.1352E+16
   -0.674995    3.65059  0.8196E-13  0.8267E-08  0.1074E-11  0.4099E-08  0.0000E+00  0.7275E+15
   -0.712496    3.84419  0.8136E-13  0.1339E-07  0.1716E-11  0.3070E-07  0.0000E+00  0.1549E+15
   -0.749997    4.00764  0.8126E-13  0.1403E-07  0.1802E-11  0.4238E-04  0.0000E+00 -0.2242E+12
   -0.787498    4.00830  0.8126E-13  0.1434E-07  0.1851E-11  0.4180E-04  0.0000E+00 -0.2349E+12
   -0.824999    4.00897  0.8126E-13  0.1461E-07  0.1903E-11  0.4211E-04  0.0000E+00 -0.2412E+12
   -0.862500    4.00964  0.8126E-13  0.1485E-07  0.1959E-11  0.4226E-04  0.0000E+00 -0.2485E+12
   -0.900001    4.01031  0.8126E-13  0.1506E-07  0.2019E-11  0.4219E-04  0.0000E+00 -0.2571E+12
   -0.937502    4.01098  0.8126E-13  0.1524E-07  0.2083E-11  0.4191E-04  0.0000E+00 -0.2673E+12
   -0.975003    4.01166  0.8126E-13  0.1539E-07  0.2153E-11  0.4140E-04  0.0000E+00 -0.2793E+12
   -1.012504    4.01236  0.8126E-13  0.1550E-07  0.2229E-11  0.4068E-04  0.0000E+00 -0.2946E+12
   -1.050004    4.01307  0.8126E-13  0.1558E-07  0.2314E-11  0.3971E-04  0.0000E+00 -0.3133E+12
   -1.087505    4.01381  0.8126E-13  0.1562E-07  0.2409E-11  0.3849E-04  0.0000E+00 -0.3357E+12
   -1.125005    4.01458  0.8126E-13  0.1561E-07  0.2516E-11  0.3699E-04  0.0000E+00 -0.3617E+12
   -1.162505    4.01538  0.8126E-13  0.1556E-07  0.2638E-11  0.3519E-04  0.0000E+00 -0.3937E+12
   -1.200005    4.01623  0.8126E-13  0.1544E-07  0.2780E-11  0.3310E-04  0.0000E+00 -0.4340E+12
   -1.237505    4.01715  0.8126E-13  0.1524E-07  0.2962E-11  0.3061E-04  0.0000E+00 -0.4875E+12
   -1.275004    4.01814  0.8126E-13  0.1490E-07  0.3220E-11  0.2464E-04  0.0000E+00 -0.6316E+12
   -1.312503    4.01938  0.8126E-13  0.1436E-07  0.3591E-11  0.1860E-04  0.0000E+00 -0.8803E+12
   -1.350002    4.02104  0.8126E-13  0.1356E-07  0.4143E-11  0.1349E-04  0.0000E+00 -0.1293E+13
   -1.387501    4.02334  0.8126E-13  0.1233E-07  0.5078E-11  0.8471E-05  0.0000E+00 -0.2240E+13
   -1.424999    4.02702  0.8126E-13  0.1024E-07  0.7134E-11  0.3709E-05  0.0000E+00 -0.5847E+13
   -1.462497    4.03534  0.8126E-13  0.6158E-08  0.1493E-10  0.5212E-06  0.0000E+00 -0.5631E+14
   -1.499994    4.08429  0.8126E-13  0.0000E+00  0.0000E+00  0.0000E+00  0.0000E+00  0.0000E+00
