 1 - depth, m
 2 - temperature, C
 3 - salinity, kg/kg
 4 - turbulent kinetic energy, m**2/s**2
 5 - dissipation rate, m**2/s**3
 6 - kinematic heat conductance, m**2/s
 7 - modulus of horizontal velocity, m/s
 8 - Richardson number, n/d
   -0.000000   16.11692  0.9410E-13  0.5140E-04  0.1060E-04  0.3307E-04  0.5643E-01 -0.1617E+00
   -0.037498   16.16697  0.9411E-13  0.3225E-04  0.2996E-05  0.4978E-04  0.2484E-01 -0.2492E-01
   -0.074996   16.17986  0.9411E-13  0.2512E-04  0.1322E-05  0.6548E-04  0.1859E-01 -0.4536E-01
   -0.112494   16.18866  0.9411E-13  0.2068E-04  0.7008E-06  0.8138E-04  0.1490E-01 -0.6946E-01
   -0.149993   16.19562  0.9411E-13  0.1759E-04  0.4184E-06  0.9802E-04  0.1226E-01  0.1325E+00
   -0.187492   16.20139  0.9411E-13  0.1531E-04  0.2712E-06  0.1166E-03  0.1026E-01  0.3517E-01
   -0.224991   16.20621  0.9411E-13  0.1361E-04  0.1872E-06  0.1446E-03  0.8733E-02  0.5241E+01
   -0.262490   16.21016  0.9411E-13  0.1238E-04  0.1370E-06  0.2296E-03  0.7564E-02  0.2249E+03
   -0.299990   16.21292  0.9411E-13  0.1152E-04  0.1062E-06  0.3723E-03  0.6676E-02  0.5200E+03
   -0.337490   16.21455  0.9411E-13  0.1091E-04  0.8585E-07  0.4026E-03  0.5998E-02  0.1151E+02
   -0.374990   16.21589  0.9411E-13  0.1044E-04  0.7092E-07  0.4282E-03  0.5392E-02  0.4512E+01
   -0.412491   16.21709  0.9411E-13  0.1007E-04  0.5968E-07  0.4483E-03  0.4866E-02  0.3668E+01
   -0.449991   16.21821  0.9411E-13  0.9782E-05  0.5099E-07  0.4716E-03  0.4408E-02  0.3011E+01
   -0.487492   16.21926  0.9411E-13  0.9562E-05  0.4423E-07  0.4972E-03  0.4013E-02  0.2609E+01
   -0.524993   16.22025  0.9411E-13  0.9397E-05  0.3891E-07  0.5137E-03  0.3671E-02  0.2800E+01
   -0.562494   16.22119  0.9411E-13  0.9264E-05  0.3460E-07  0.5325E-03  0.3350E-02  0.2963E+01
   -0.599995   16.22208  0.9411E-13  0.9145E-05  0.3104E-07  0.5545E-03  0.3047E-02  0.3098E+01
   -0.637496   16.22293  0.9411E-13  0.9026E-05  0.2802E-07  0.5751E-03  0.2762E-02  0.3204E+01
   -0.674997   16.22374  0.9411E-13  0.8895E-05  0.2544E-07  0.6063E-03  0.2489E-02  0.3357E+01
   -0.712498   16.22451  0.9411E-13  0.8733E-05  0.2308E-07  0.6232E-03  0.2239E-02  0.3432E+01
   -0.749999   16.22524  0.9411E-13  0.8622E-05  0.2193E-07  0.1042E-02  0.1969E-02  0.1992E+01
   -0.787501   16.22568  0.9411E-13  0.8551E-05  0.2132E-07  0.1071E-02  0.1884E-02  0.2014E+01
   -0.825002   16.22610  0.9411E-13  0.8449E-05  0.2065E-07  0.6446E-03  0.1812E-02  0.2320E+01
   -0.862503   16.22679  0.9411E-13  0.8220E-05  0.1957E-07  0.6679E-03  0.1604E-02  0.2571E+01
   -0.900004   16.22745  0.9411E-13  0.7974E-05  0.1874E-07  0.6608E-03  0.1431E-02  0.2435E+01
   -0.937505   16.22812  0.9411E-13  0.7699E-05  0.1810E-07  0.6531E-03  0.1268E-02  0.2343E+01
   -0.975006   16.22878  0.9411E-13  0.7399E-05  0.1765E-07  0.6422E-03  0.1117E-02  0.2248E+01
   -1.012507   16.22946  0.9411E-13  0.7084E-05  0.1738E-07  0.6465E-03  0.9780E-03  0.1986E+01
   -1.050007   16.23013  0.9412E-13  0.6766E-05  0.1728E-07  0.6669E-03  0.8600E-03  0.1758E+01
   -1.087508   16.23077  0.9412E-13  0.6457E-05  0.1735E-07  0.6822E-03  0.7631E-03  0.1569E+01
   -1.125008   16.23140  0.9412E-13  0.6171E-05  0.1757E-07  0.5970E-03  0.6850E-03  0.1337E+01
   -1.162509   16.23211  0.9412E-13  0.5970E-05  0.1784E-07  0.6953E-03  0.6224E-03  0.1296E+01
   -1.200008   16.23272  0.9412E-13  0.5774E-05  0.1824E-07  0.4498E-03  0.5945E-03  0.1689E+02
   -1.237508   16.23366  0.9412E-13  0.5564E-05  0.1880E-07  0.4825E-03  0.5588E-03  0.1543E+01
   -1.275008   16.23453  0.9412E-13  0.5317E-05  0.1968E-07  0.4379E-03  0.5284E-03  0.2089E+01
   -1.312507   16.23549  0.9412E-13  0.5026E-05  0.2102E-07  0.3752E-03  0.5004E-03  0.4055E+01
   -1.350006   16.23660  0.9412E-13  0.4674E-05  0.2319E-07  0.2892E-03  0.4741E-03  0.1023E+02
   -1.387505   16.23805  0.9412E-13  0.4236E-05  0.2701E-07  0.2468E-03  0.4484E-03  0.3211E+02
   -1.425003   16.23975  0.9412E-13  0.3545E-05  0.3803E-07  0.1108E-03  0.4278E-03 -0.1808E+01
   -1.462501   16.24591  0.9412E-13  0.2017E-05  0.8579E-07  0.2789E-04  0.3986E-03 -0.5894E+04
   -1.499999   16.26176  0.9412E-13  0.0000E+00  0.0000E+00  0.0000E+00  0.4024E-03  0.0000E+00
