 1 - depth, m
 2 - temperature, C
 3 - salinity, kg/kg
 4 - turbulent kinetic energy, m**2/s**2
 5 - dissipation rate, m**2/s**3
 6 - kinematic heat conductance, m**2/s
 7 - modulus of horizontal velocity, m/s
 8 - Richardson number, n/d
   -0.000000   -0.00000  0.8256E-12  0.4096E-13  0.8590E-16  0.1000E-09  0.0000E+00  0.1057E+17
   -0.037497    0.16206  0.4199E-12  0.4096E-13  0.8590E-16  0.1000E-09  0.0000E+00  0.1001E+17
   -0.074995    0.32253  0.2798E-12  0.4096E-13  0.8590E-16  0.1000E-09  0.0000E+00  0.9458E+16
   -0.112493    0.48140  0.2081E-12  0.4096E-13  0.8590E-16  0.1000E-09  0.0000E+00  0.8924E+16
   -0.149992    0.63865  0.1639E-12  0.4096E-13  0.8590E-16  0.1000E-09  0.0000E+00  0.8405E+16
   -0.187491    0.79423  0.1355E-12  0.4096E-13  0.8590E-16  0.1000E-09  0.0000E+00  0.7899E+16
   -0.224990    0.94811  0.1178E-12  0.4096E-13  0.8590E-16  0.1000E-09  0.0000E+00  0.7406E+16
   -0.262489    1.10025  0.1076E-12  0.4096E-13  0.8590E-16  0.1000E-09  0.0000E+00  0.6928E+16
   -0.299989    1.25059  0.1021E-12  0.4096E-13  0.8590E-16  0.1000E-09  0.0000E+00  0.6463E+16
   -0.337489    1.39908  0.9930E-13  0.4096E-13  0.8590E-16  0.1000E-09  0.0000E+00  0.6011E+16
   -0.374989    1.54566  0.9785E-13  0.4096E-13  0.8590E-16  0.1000E-09  0.0000E+00  0.5594E+16
   -0.412489    1.69081  0.9699E-13  0.4096E-13  0.8590E-16  0.1000E-09  0.0000E+00  0.5198E+16
   -0.449989    1.83480  0.9630E-13  0.8488E-13  0.8590E-16  0.1000E-09  0.0000E+00  0.4811E+16
   -0.487490    1.97760  0.9562E-13  0.2932E-12  0.9942E-16  0.1000E-09  0.0000E+00  0.4431E+16
   -0.524990    2.11908  0.9486E-13  0.6919E-12  0.1736E-15  0.1000E-09  0.0000E+00  0.4053E+16
   -0.562491    2.25895  0.9404E-13  0.1422E-11  0.3253E-15  0.1000E-09  0.0000E+00  0.3686E+16
   -0.599992    2.39713  0.9318E-13  0.2773E-11  0.6094E-15  0.1000E-09  0.0000E+00  0.3331E+16
   -0.637493    2.53357  0.9232E-13  0.5287E-11  0.1132E-14  0.1000E-09  0.0000E+00  0.2987E+16
   -0.674994    2.66820  0.9151E-13  0.9963E-11  0.2087E-14  0.1000E-09  0.0000E+00  0.2656E+16
   -0.712495    2.80097  0.9077E-13  0.1863E-10  0.3821E-14  0.1000E-09  0.0000E+00  0.2337E+16
   -0.749996    2.93181  0.9016E-13  0.3459E-10  0.6955E-14  0.1000E-09  0.0000E+00  0.2037E+16
   -0.787497    3.06111  0.8967E-13  0.6384E-10  0.1258E-13  0.1000E-09  0.0000E+00  0.1749E+16
   -0.824998    3.18898  0.8932E-13  0.1172E-09  0.2264E-13  0.1000E-09  0.0000E+00  0.1471E+16
   -0.862499    3.31538  0.8910E-13  0.2138E-09  0.4052E-13  0.1000E-09  0.0000E+00  0.1202E+16
   -0.900000    3.44028  0.8897E-13  0.3879E-09  0.7211E-13  0.2122E-09  0.0000E+00  0.9426E+15
   -0.937501    3.56356  0.8891E-13  0.6999E-09  0.1276E-12  0.5109E-09  0.0000E+00  0.6928E+15
   -0.975002    3.68503  0.8888E-13  0.1255E-08  0.2247E-12  0.1375E-08  0.0000E+00  0.4530E+15
   -1.012502    3.80422  0.8888E-13  0.2240E-08  0.3936E-12  0.4836E-08  0.0000E+00  0.2254E+15
   -1.050003    3.91965  0.8887E-13  0.3899E-08  0.6746E-12  0.5700E-07  0.0000E+00  0.3234E+14
   -1.087503    4.00424  0.8887E-13  0.4824E-08  0.8403E-12  0.1034E-04  0.0000E+00 -0.4713E+12
   -1.125003    4.00585  0.8887E-13  0.5263E-08  0.9393E-12  0.1092E-04  0.0000E+00 -0.4930E+12
   -1.162503    4.00740  0.8887E-13  0.5616E-08  0.1044E-11  0.1110E-04  0.0000E+00 -0.5328E+12
   -1.200003    4.00895  0.8887E-13  0.5889E-08  0.1160E-11  0.1088E-04  0.0000E+00 -0.5949E+12
   -1.237503    4.01057  0.8887E-13  0.6080E-08  0.1293E-11  0.1028E-04  0.0000E+00 -0.6896E+12
   -1.275002    4.01232  0.8887E-13  0.6176E-08  0.1454E-11  0.9283E-05  0.0000E+00 -0.8384E+12
   -1.312501    4.01431  0.8887E-13  0.6157E-08  0.1662E-11  0.7889E-05  0.0000E+00 -0.1090E+13
   -1.350000    4.01669  0.8887E-13  0.5977E-08  0.1956E-11  0.6109E-05  0.0000E+00 -0.1573E+13
   -1.387498    4.01983  0.8887E-13  0.5548E-08  0.2436E-11  0.4003E-05  0.0000E+00 -0.2745E+13
   -1.424997    4.02471  0.8887E-13  0.4668E-08  0.3441E-11  0.1819E-05  0.0000E+00 -0.7259E+13
   -1.462494    4.03532  0.8887E-13  0.3050E-08  0.6683E-11  0.3191E-06  0.0000E+00 -0.5271E+14
   -1.499992    4.08190  0.8887E-13  0.0000E+00  0.0000E+00  0.0000E+00  0.0000E+00  0.0000E+00
