 1 - depth, m
 2 - temperature, C
 3 - salinity, kg/kg
 4 - turbulent kinetic energy, m**2/s**2
 5 - dissipation rate, m**2/s**3
 6 - kinematic heat conductance, m**2/s
 7 - modulus of horizontal velocity, m/s
 8 - Richardson number, n/d
   -0.000000   -0.00000  0.2242E-12  0.4096E-13  0.8590E-16  0.1000E-09  0.0000E+00  0.8675E+16
   -0.037498    0.13248  0.2487E-12  0.4096E-13  0.8590E-16  0.1000E-09  0.0000E+00  0.8340E+16
   -0.074996    0.26460  0.2722E-12  0.4096E-13  0.8590E-16  0.1000E-09  0.0000E+00  0.8007E+16
   -0.112494    0.39631  0.2746E-12  0.4096E-13  0.8590E-16  0.1000E-09  0.0000E+00  0.7677E+16
   -0.149993    0.52760  0.2547E-12  0.4096E-13  0.8590E-16  0.1000E-09  0.0000E+00  0.7348E+16
   -0.187492    0.65840  0.2217E-12  0.4096E-13  0.8590E-16  0.1000E-09  0.0000E+00  0.7022E+16
   -0.224991    0.78869  0.1863E-12  0.4096E-13  0.8590E-16  0.1000E-09  0.0000E+00  0.6697E+16
   -0.262491    0.91839  0.1551E-12  0.4096E-13  0.8590E-16  0.1000E-09  0.0000E+00  0.6378E+16
   -0.299990    1.04751  0.1311E-12  0.4096E-13  0.8590E-16  0.1000E-09  0.0000E+00  0.6062E+16
   -0.337490    1.17601  0.1142E-12  0.4096E-13  0.8590E-16  0.1000E-09  0.0000E+00  0.5748E+16
   -0.374991    1.30381  0.1029E-12  0.4096E-13  0.8590E-16  0.1000E-09  0.0000E+00  0.5438E+16
   -0.412491    1.43087  0.9561E-13  0.4096E-13  0.8590E-16  0.1000E-09  0.0000E+00  0.5133E+16
   -0.449992    1.55716  0.9101E-13  0.4096E-13  0.8590E-16  0.1000E-09  0.0000E+00  0.4830E+16
   -0.487492    1.68259  0.8808E-13  0.4096E-13  0.8590E-16  0.1000E-09  0.0000E+00  0.4534E+16
   -0.524993    1.80713  0.8617E-13  0.4096E-13  0.8590E-16  0.1000E-09  0.0000E+00  0.4249E+16
   -0.562494    1.93095  0.8486E-13  0.4096E-13  0.8590E-16  0.1000E-09  0.0000E+00  0.3968E+16
   -0.599995    2.05398  0.8394E-13  0.4096E-13  0.8590E-16  0.1000E-09  0.0000E+00  0.3691E+16
   -0.637496    2.17617  0.8325E-13  0.4096E-13  0.8590E-16  0.1000E-09  0.0000E+00  0.3419E+16
   -0.674998    2.29748  0.8272E-13  0.4096E-13  0.8590E-16  0.1000E-09  0.0000E+00  0.3152E+16
   -0.712499    2.41785  0.8233E-13  0.4096E-13  0.8590E-16  0.1000E-09  0.0000E+00  0.2890E+16
   -0.750000    2.53723  0.8203E-13  0.5849E-13  0.8590E-16  0.1000E-09  0.0000E+00  0.2638E+16
   -0.787501    2.65572  0.8181E-13  0.2360E-12  0.1049E-15  0.1000E-09  0.0000E+00  0.2391E+16
   -0.825003    2.77333  0.8166E-13  0.6125E-12  0.2082E-15  0.1000E-09  0.0000E+00  0.2150E+16
   -0.862504    2.89001  0.8156E-13  0.1384E-11  0.4366E-15  0.1000E-09  0.0000E+00  0.1914E+16
   -0.900005    3.00573  0.8149E-13  0.2984E-11  0.9089E-15  0.1000E-09  0.0000E+00  0.1683E+16
   -0.937506    3.12042  0.8145E-13  0.6308E-11  0.1872E-14  0.1000E-09  0.0000E+00  0.1459E+16
   -0.975007    3.23405  0.8143E-13  0.1319E-10  0.3821E-14  0.1000E-09  0.0000E+00  0.1240E+16
   -1.012508    3.34657  0.8141E-13  0.2739E-10  0.7753E-14  0.1000E-09  0.0000E+00  0.1026E+16
   -1.050009    3.45768  0.8140E-13  0.5666E-10  0.1567E-13  0.1000E-09  0.0000E+00  0.8195E+15
   -1.087509    3.56726  0.8140E-13  0.1164E-09  0.3149E-13  0.1405E-09  0.0000E+00  0.6207E+15
   -1.125010    3.67515  0.8140E-13  0.2375E-09  0.6283E-13  0.4004E-09  0.0000E+00  0.4342E+15
   -1.162510    3.78234  0.8140E-13  0.4809E-09  0.1245E-12  0.1368E-08  0.0000E+00  0.2514E+15
   -1.200010    3.88843  0.8140E-13  0.9628E-09  0.2441E-12  0.8904E-08  0.0000E+00  0.7508E+14
   -1.237510    3.98879  0.8140E-13  0.1650E-08  0.4168E-12  0.1756E-05  0.0000E+00 -0.7998E+12
   -1.275009    3.99688  0.8140E-13  0.2136E-08  0.5874E-12  0.2649E-05  0.0000E+00 -0.1123E+13
   -1.312508    4.00229  0.8140E-13  0.2497E-08  0.7792E-12  0.2836E-05  0.0000E+00 -0.1476E+13
   -1.350007    4.00738  0.8140E-13  0.2717E-08  0.1017E-11  0.2557E-05  0.0000E+00 -0.2113E+13
   -1.387506    4.01303  0.8140E-13  0.2748E-08  0.1355E-11  0.1894E-05  0.0000E+00 -0.3604E+13
   -1.425004    4.02057  0.8140E-13  0.2483E-08  0.1964E-11  0.9855E-06  0.0000E+00 -0.8861E+13
   -1.462503    4.03433  0.8140E-13  0.1785E-08  0.3601E-11  0.2172E-06  0.0000E+00 -0.4785E+14
   -1.500000    4.07807  0.8140E-13  0.0000E+00  0.0000E+00  0.0000E+00  0.0000E+00  0.0000E+00
