 1 - depth, m
 2 - temperature, C
 3 - salinity, kg/kg
 4 - turbulent kinetic energy, m**2/s**2
 5 - dissipation rate, m**2/s**3
 6 - kinematic heat conductance, m**2/s
 7 - modulus of horizontal velocity, m/s
 8 - Richardson number, n/d
   -0.000000   -0.00000  0.8791E-12  0.4096E-13  0.8590E-16  0.1000E-09  0.0000E+00  0.1373E+17
   -0.037498    0.21197  0.4551E-12  0.1497E-12  0.8590E-16  0.1000E-09  0.0000E+00  0.1268E+17
   -0.074996    0.41975  0.1914E-12  0.4239E-12  0.1089E-15  0.1000E-09  0.0000E+00  0.1169E+17
   -0.112494    0.62330  0.1074E-12  0.9104E-12  0.1824E-15  0.1000E-09  0.0000E+00  0.1074E+17
   -0.149993    0.82259  0.9164E-13  0.1754E-11  0.3223E-15  0.1000E-09  0.0000E+00  0.9844E+16
   -0.187492    1.01759  0.8906E-13  0.3228E-11  0.5708E-15  0.1000E-09  0.0000E+00  0.8993E+16
   -0.224991    1.20830  0.8865E-13  0.5822E-11  0.1005E-14  0.1000E-09  0.0000E+00  0.8190E+16
   -0.262490    1.39477  0.8855E-13  0.1038E-10  0.1757E-14  0.1000E-09  0.0000E+00  0.7459E+16
   -0.299990    1.57769  0.8850E-13  0.1838E-10  0.3053E-14  0.1000E-09  0.0000E+00  0.6774E+16
   -0.337490    1.75735  0.8847E-13  0.3235E-10  0.5281E-14  0.1000E-09  0.0000E+00  0.6129E+16
   -0.374990    1.93393  0.8844E-13  0.5668E-10  0.9095E-14  0.1000E-09  0.0000E+00  0.5611E+16
   -0.412490    2.11066  0.8839E-13  0.9889E-10  0.1560E-13  0.1000E-09  0.0000E+00  0.5155E+16
   -0.449991    2.28971  0.8824E-13  0.1718E-09  0.2665E-13  0.1000E-09  0.0000E+00  0.4691E+16
   -0.487492    2.47146  0.8788E-13  0.2974E-09  0.4536E-13  0.1000E-09  0.0000E+00  0.4211E+16
   -0.524992    2.65620  0.8717E-13  0.5112E-09  0.7669E-13  0.1000E-09  0.0000E+00  0.3709E+16
   -0.562493    2.84399  0.8604E-13  0.8732E-09  0.1289E-12  0.1126E-09  0.0000E+00  0.3184E+16
   -0.599994    3.03496  0.8470E-13  0.1485E-08  0.2156E-12  0.2275E-09  0.0000E+00  0.2633E+16
   -0.637495    3.22904  0.8352E-13  0.2514E-08  0.3591E-12  0.4858E-09  0.0000E+00  0.2055E+16
   -0.674997    3.42604  0.8262E-13  0.4237E-08  0.5957E-12  0.1144E-08  0.0000E+00  0.1449E+16
   -0.712498    3.62535  0.8182E-13  0.7107E-08  0.9836E-12  0.3345E-08  0.0000E+00  0.8195E+15
   -0.749999    3.82465  0.8120E-13  0.1177E-07  0.1605E-11  0.2229E-07  0.0000E+00  0.2029E+15
   -0.787500    4.00395  0.8105E-13  0.1263E-07  0.1729E-11  0.3422E-04  0.0000E+00 -0.2430E+12
   -0.825001    4.00482  0.8105E-13  0.1301E-07  0.1795E-11  0.3602E-04  0.0000E+00 -0.2438E+12
   -0.862503    4.00565  0.8105E-13  0.1333E-07  0.1860E-11  0.3638E-04  0.0000E+00 -0.2548E+12
   -0.900004    4.00647  0.8105E-13  0.1361E-07  0.1929E-11  0.3659E-04  0.0000E+00 -0.2671E+12
   -0.937505    4.00731  0.8104E-13  0.1387E-07  0.2005E-11  0.3658E-04  0.0000E+00 -0.2813E+12
   -0.975006    4.00815  0.8104E-13  0.1410E-07  0.2088E-11  0.3634E-04  0.0000E+00 -0.2979E+12
   -1.012506    4.00901  0.8104E-13  0.1429E-07  0.2179E-11  0.3590E-04  0.0000E+00 -0.3192E+12
   -1.050007    4.00989  0.8104E-13  0.1446E-07  0.2281E-11  0.3522E-04  0.0000E+00 -0.3452E+12
   -1.087508    4.01081  0.8104E-13  0.1459E-07  0.2394E-11  0.3430E-04  0.0000E+00 -0.3763E+12
   -1.125008    4.01177  0.8104E-13  0.1467E-07  0.2522E-11  0.3308E-04  0.0000E+00 -0.4106E+12
   -1.162508    4.01279  0.8104E-13  0.1471E-07  0.2667E-11  0.3158E-04  0.0000E+00 -0.4524E+12
   -1.200008    4.01386  0.8104E-13  0.1468E-07  0.2838E-11  0.2977E-04  0.0000E+00 -0.5055E+12
   -1.237508    4.01501  0.8104E-13  0.1457E-07  0.3062E-11  0.2712E-04  0.0000E+00 -0.5866E+12
   -1.275007    4.01629  0.8104E-13  0.1433E-07  0.3376E-11  0.2169E-04  0.0000E+00 -0.7791E+12
   -1.312506    4.01791  0.8104E-13  0.1392E-07  0.3811E-11  0.1680E-04  0.0000E+00 -0.1079E+13
   -1.350005    4.02003  0.8104E-13  0.1324E-07  0.4449E-11  0.1236E-04  0.0000E+00 -0.1597E+13
   -1.387504    4.02293  0.8104E-13  0.1214E-07  0.5518E-11  0.7853E-05  0.0000E+00 -0.2806E+13
   -1.425002    4.02754  0.8104E-13  0.1021E-07  0.7842E-11  0.3516E-05  0.0000E+00 -0.7421E+13
   -1.462500    4.03778  0.8104E-13  0.6449E-08  0.1638E-10  0.5551E-06  0.0000E+00 -0.6719E+14
   -1.499998    4.09231  0.8104E-13  0.0000E+00  0.0000E+00  0.0000E+00  0.0000E+00  0.0000E+00
