 1 - depth, m
 2 - temperature, C
 3 - salinity, kg/kg
 4 - turbulent kinetic energy, m**2/s**2
 5 - dissipation rate, m**2/s**3
 6 - kinematic heat conductance, m**2/s
 7 - modulus of horizontal velocity, m/s
 8 - Richardson number, n/d
   -0.000000   -0.00000  0.1016E-11  0.4096E-13  0.8590E-16  0.1000E-09  0.0000E+00  0.1317E+17
   -0.037498    0.20304  0.3996E-12  0.4096E-13  0.8590E-16  0.1000E-09  0.0000E+00  0.1217E+17
   -0.074996    0.40162  0.1576E-12  0.4096E-13  0.8590E-16  0.1000E-09  0.0000E+00  0.1120E+17
   -0.112494    0.59521  0.9808E-13  0.4096E-13  0.8590E-16  0.1000E-09  0.0000E+00  0.1025E+17
   -0.149993    0.78334  0.9204E-13  0.1714E-12  0.8590E-16  0.1000E-09  0.0000E+00  0.9346E+16
   -0.187492    0.96563  0.9097E-13  0.4681E-12  0.1248E-15  0.1000E-09  0.0000E+00  0.8488E+16
   -0.224991    1.14181  0.9086E-13  0.1009E-11  0.2239E-15  0.1000E-09  0.0000E+00  0.7683E+16
   -0.262490    1.31179  0.9083E-13  0.1987E-11  0.4133E-15  0.1000E-09  0.0000E+00  0.6967E+16
   -0.299990    1.47633  0.9081E-13  0.3770E-11  0.7589E-15  0.1000E-09  0.0000E+00  0.6314E+16
   -0.337490    1.63582  0.9080E-13  0.7032E-11  0.1383E-14  0.1000E-09  0.0000E+00  0.5718E+16
   -0.374990    1.79062  0.9079E-13  0.1299E-10  0.2503E-14  0.1000E-09  0.0000E+00  0.5285E+16
   -0.412491    1.94454  0.9077E-13  0.2384E-10  0.4504E-14  0.1000E-09  0.0000E+00  0.4943E+16
   -0.449991    2.10024  0.9070E-13  0.4350E-10  0.8061E-14  0.1000E-09  0.0000E+00  0.4610E+16
   -0.487492    2.25845  0.9053E-13  0.7896E-10  0.1436E-13  0.1000E-09  0.0000E+00  0.4275E+16
   -0.524993    2.41982  0.9011E-13  0.1421E-09  0.2537E-13  0.1000E-09  0.0000E+00  0.3929E+16
   -0.562494    2.58486  0.8933E-13  0.2540E-09  0.4450E-13  0.1000E-09  0.0000E+00  0.3562E+16
   -0.599995    2.75396  0.8818E-13  0.4514E-09  0.7764E-13  0.1000E-09  0.0000E+00  0.3169E+16
   -0.637496    2.92736  0.8685E-13  0.7981E-09  0.1348E-12  0.1364E-09  0.0000E+00  0.2744E+16
   -0.674997    3.10514  0.8562E-13  0.1404E-08  0.2329E-12  0.2835E-09  0.0000E+00  0.2281E+16
   -0.712498    3.28712  0.8465E-13  0.2458E-08  0.4004E-12  0.6243E-09  0.0000E+00  0.1782E+16
   -0.749999    3.47292  0.8382E-13  0.4280E-08  0.6851E-12  0.1520E-08  0.0000E+00  0.1252E+16
   -0.787501    3.66263  0.8307E-13  0.7405E-08  0.1165E-11  0.4733E-08  0.0000E+00  0.6846E+15
   -0.825002    3.85322  0.8270E-13  0.1254E-07  0.1943E-11  0.4041E-07  0.0000E+00  0.1348E+15
   -0.862503    4.01016  0.8264E-13  0.1356E-07  0.2109E-11  0.3414E-04  0.0000E+00 -0.3190E+12
   -0.900004    4.01100  0.8264E-13  0.1399E-07  0.2194E-11  0.3435E-04  0.0000E+00 -0.3319E+12
   -0.937505    4.01184  0.8264E-13  0.1433E-07  0.2278E-11  0.3468E-04  0.0000E+00 -0.3442E+12
   -0.975006    4.01269  0.8264E-13  0.1464E-07  0.2369E-11  0.3479E-04  0.0000E+00 -0.3589E+12
   -1.012507    4.01355  0.8264E-13  0.1491E-07  0.2468E-11  0.3468E-04  0.0000E+00 -0.3802E+12
   -1.050008    4.01442  0.8264E-13  0.1514E-07  0.2579E-11  0.3429E-04  0.0000E+00 -0.4070E+12
   -1.087508    4.01533  0.8264E-13  0.1532E-07  0.2702E-11  0.3364E-04  0.0000E+00 -0.4397E+12
   -1.125009    4.01629  0.8264E-13  0.1544E-07  0.2839E-11  0.3265E-04  0.0000E+00 -0.4746E+12
   -1.162509    4.01728  0.8264E-13  0.1551E-07  0.2995E-11  0.3134E-04  0.0000E+00 -0.5176E+12
   -1.200009    4.01833  0.8264E-13  0.1551E-07  0.3173E-11  0.2971E-04  0.0000E+00 -0.5724E+12
   -1.237508    4.01945  0.8264E-13  0.1541E-07  0.3405E-11  0.2764E-04  0.0000E+00 -0.6464E+12
   -1.275008    4.02068  0.8264E-13  0.1517E-07  0.3733E-11  0.2229E-04  0.0000E+00 -0.8463E+12
   -1.312507    4.02222  0.8264E-13  0.1474E-07  0.4186E-11  0.1731E-04  0.0000E+00 -0.1162E+13
   -1.350006    4.02423  0.8264E-13  0.1404E-07  0.4852E-11  0.1281E-04  0.0000E+00 -0.1694E+13
   -1.387505    4.02698  0.8264E-13  0.1288E-07  0.5963E-11  0.8215E-05  0.0000E+00 -0.2917E+13
   -1.425003    4.03133  0.8264E-13  0.1084E-07  0.8377E-11  0.3713E-05  0.0000E+00 -0.7499E+13
   -1.462501    4.04095  0.8264E-13  0.6791E-08  0.1737E-10  0.5741E-06  0.0000E+00 -0.6710E+14
   -1.499999    4.09384  0.8264E-13  0.0000E+00  0.0000E+00  0.0000E+00  0.0000E+00  0.0000E+00
