 1 - depth, m
 2 - temperature, C
 3 - salinity, kg/kg
 4 - turbulent kinetic energy, m**2/s**2
 5 - dissipation rate, m**2/s**3
 6 - kinematic heat conductance, m**2/s
 7 - modulus of horizontal velocity, m/s
 8 - Richardson number, n/d
   -0.000000   -0.00000  0.2228E-12  0.4096E-13  0.8590E-16  0.1000E-09  0.0000E+00  0.8571E+16
   -0.037498    0.13086  0.2474E-12  0.4096E-13  0.8590E-16  0.1000E-09  0.0000E+00  0.8254E+16
   -0.074996    0.26154  0.2666E-12  0.4096E-13  0.8590E-16  0.1000E-09  0.0000E+00  0.7937E+16
   -0.112494    0.39195  0.2691E-12  0.4096E-13  0.8590E-16  0.1000E-09  0.0000E+00  0.7618E+16
   -0.149993    0.52204  0.2520E-12  0.4096E-13  0.8590E-16  0.1000E-09  0.0000E+00  0.7299E+16
   -0.187492    0.65173  0.2221E-12  0.4096E-13  0.8590E-16  0.1000E-09  0.0000E+00  0.6980E+16
   -0.224991    0.78094  0.1885E-12  0.4096E-13  0.8590E-16  0.1000E-09  0.0000E+00  0.6662E+16
   -0.262491    0.90961  0.1580E-12  0.4096E-13  0.8590E-16  0.1000E-09  0.0000E+00  0.6349E+16
   -0.299991    1.03773  0.1338E-12  0.4096E-13  0.8590E-16  0.1000E-09  0.0000E+00  0.6037E+16
   -0.337491    1.16522  0.1163E-12  0.4096E-13  0.8590E-16  0.1000E-09  0.0000E+00  0.5728E+16
   -0.374991    1.29204  0.1044E-12  0.4096E-13  0.8590E-16  0.1000E-09  0.0000E+00  0.5423E+16
   -0.412491    1.41813  0.9659E-13  0.4096E-13  0.8590E-16  0.1000E-09  0.0000E+00  0.5121E+16
   -0.449992    1.54345  0.9163E-13  0.4096E-13  0.8590E-16  0.1000E-09  0.0000E+00  0.4823E+16
   -0.487493    1.66791  0.8847E-13  0.4096E-13  0.8590E-16  0.1000E-09  0.0000E+00  0.4530E+16
   -0.524994    1.79150  0.8640E-13  0.4096E-13  0.8590E-16  0.1000E-09  0.0000E+00  0.4249E+16
   -0.562495    1.91437  0.8501E-13  0.4096E-13  0.8590E-16  0.1000E-09  0.0000E+00  0.3972E+16
   -0.599996    2.03647  0.8403E-13  0.4096E-13  0.8590E-16  0.1000E-09  0.0000E+00  0.3699E+16
   -0.637497    2.15775  0.8332E-13  0.4096E-13  0.8590E-16  0.1000E-09  0.0000E+00  0.3431E+16
   -0.674998    2.27815  0.8278E-13  0.4096E-13  0.8590E-16  0.1000E-09  0.0000E+00  0.3167E+16
   -0.712499    2.39763  0.8237E-13  0.4096E-13  0.8590E-16  0.1000E-09  0.0000E+00  0.2909E+16
   -0.750001    2.51611  0.8206E-13  0.4096E-13  0.8590E-16  0.1000E-09  0.0000E+00  0.2659E+16
   -0.787502    2.63370  0.8184E-13  0.4417E-13  0.8590E-16  0.1000E-09  0.0000E+00  0.2415E+16
   -0.825003    2.75037  0.8168E-13  0.2040E-12  0.1051E-15  0.1000E-09  0.0000E+00  0.2176E+16
   -0.862504    2.86607  0.8157E-13  0.5645E-12  0.2225E-15  0.1000E-09  0.0000E+00  0.1942E+16
   -0.900006    2.98074  0.8150E-13  0.1351E-11  0.4963E-15  0.1000E-09  0.0000E+00  0.1713E+16
   -0.937507    3.09430  0.8146E-13  0.3086E-11  0.1096E-14  0.1000E-09  0.0000E+00  0.1491E+16
   -0.975008    3.20667  0.8143E-13  0.6918E-11  0.2393E-14  0.1000E-09  0.0000E+00  0.1275E+16
   -1.012508    3.31779  0.8141E-13  0.1537E-10  0.5184E-14  0.1000E-09  0.0000E+00  0.1063E+16
   -1.050009    3.42729  0.8141E-13  0.3395E-10  0.1117E-13  0.1000E-09  0.0000E+00  0.8590E+15
   -1.087510    3.53497  0.8140E-13  0.7440E-10  0.2390E-13  0.1014E-09  0.0000E+00  0.6640E+15
   -1.125010    3.64068  0.8140E-13  0.1617E-09  0.5070E-13  0.2898E-09  0.0000E+00  0.4835E+15
   -1.162510    3.74544  0.8140E-13  0.3482E-09  0.1067E-12  0.9544E-09  0.0000E+00  0.3082E+15
   -1.200011    3.84922  0.8140E-13  0.7421E-09  0.2224E-12  0.4430E-08  0.0000E+00  0.1373E+15
   -1.237510    3.95044  0.8140E-13  0.1506E-08  0.4443E-12  0.1332E-06  0.0000E+00  0.7518E+13
   -1.275010    4.00471  0.8140E-13  0.2437E-08  0.7378E-12  0.3160E-05  0.0000E+00 -0.1455E+13
   -1.312509    4.00921  0.8140E-13  0.2894E-08  0.9547E-12  0.3315E-05  0.0000E+00 -0.1700E+13
   -1.350008    4.01354  0.8140E-13  0.3135E-08  0.1202E-11  0.2971E-05  0.0000E+00 -0.2252E+13
   -1.387507    4.01839  0.8140E-13  0.3132E-08  0.1543E-11  0.2188E-05  0.0000E+00 -0.3617E+13
   -1.425005    4.02492  0.8140E-13  0.2779E-08  0.2162E-11  0.1116E-05  0.0000E+00 -0.8554E+13
   -1.462503    4.03714  0.8140E-13  0.1928E-08  0.3909E-11  0.2281E-06  0.0000E+00 -0.4728E+14
   -1.500001    4.07919  0.8140E-13  0.0000E+00  0.0000E+00  0.0000E+00  0.0000E+00  0.0000E+00
