 1 - depth, m
 2 - temperature, C
 3 - salinity, kg/kg
 4 - turbulent kinetic energy, m**2/s**2
 5 - dissipation rate, m**2/s**3
 6 - kinematic heat conductance, m**2/s
 7 - modulus of horizontal velocity, m/s
 8 - Richardson number, n/d
   -0.000000   -0.00000  0.3192E-12  0.4096E-13  0.8589E-16  0.1000E-09  0.0000E+00  0.9053E+16
   -0.037498    0.13837  0.4083E-12  0.4096E-13  0.8589E-16  0.1000E-09  0.0000E+00  0.8754E+16
   -0.074996    0.27742  0.3623E-12  0.4096E-13  0.8589E-16  0.1000E-09  0.0000E+00  0.8442E+16
   -0.112495    0.41696  0.2860E-12  0.4096E-13  0.8589E-16  0.1000E-09  0.0000E+00  0.8115E+16
   -0.149993    0.55679  0.2183E-12  0.4096E-13  0.8589E-16  0.1000E-09  0.0000E+00  0.7777E+16
   -0.187493    0.69670  0.1690E-12  0.4096E-13  0.8589E-16  0.1000E-09  0.0000E+00  0.7428E+16
   -0.224992    0.83647  0.1366E-12  0.4096E-13  0.8589E-16  0.1000E-09  0.0000E+00  0.7072E+16
   -0.262492    0.97589  0.1165E-12  0.4096E-13  0.8589E-16  0.1000E-09  0.0000E+00  0.6714E+16
   -0.299992    1.11484  0.1046E-12  0.4096E-13  0.8589E-16  0.1000E-09  0.0000E+00  0.6354E+16
   -0.337492    1.25317  0.9755E-13  0.4096E-13  0.8589E-16  0.1000E-09  0.0000E+00  0.5993E+16
   -0.374992    1.39071  0.9341E-13  0.4096E-13  0.8589E-16  0.1000E-09  0.0000E+00  0.5636E+16
   -0.412493    1.52738  0.9086E-13  0.4096E-13  0.8589E-16  0.1000E-09  0.0000E+00  0.5283E+16
   -0.449993    1.66308  0.8919E-13  0.4096E-13  0.8589E-16  0.1000E-09  0.0000E+00  0.4933E+16
   -0.487494    1.79768  0.8797E-13  0.4096E-13  0.8589E-16  0.1000E-09  0.0000E+00  0.4589E+16
   -0.524995    1.93110  0.8699E-13  0.4096E-13  0.8589E-16  0.1000E-09  0.0000E+00  0.4257E+16
   -0.562496    2.06345  0.8617E-13  0.4096E-13  0.8589E-16  0.1000E-09  0.0000E+00  0.3932E+16
   -0.599998    2.19463  0.8545E-13  0.8346E-13  0.8589E-16  0.1000E-09  0.0000E+00  0.3613E+16
   -0.637499    2.32456  0.8483E-13  0.2861E-12  0.1023E-15  0.1000E-09  0.0000E+00  0.3301E+16
   -0.675000    2.45315  0.8432E-13  0.6819E-12  0.1829E-15  0.1000E-09  0.0000E+00  0.2997E+16
   -0.712502    2.58032  0.8392E-13  0.1424E-11  0.3500E-15  0.1000E-09  0.0000E+00  0.2701E+16
   -0.750003    2.70599  0.8362E-13  0.2827E-11  0.6688E-15  0.1000E-09  0.0000E+00  0.2420E+16
   -0.787504    2.83037  0.8340E-13  0.5493E-11  0.1266E-14  0.1000E-09  0.0000E+00  0.2148E+16
   -0.825006    2.95350  0.8326E-13  0.1055E-10  0.2378E-14  0.1000E-09  0.0000E+00  0.1884E+16
   -0.862507    3.07533  0.8317E-13  0.2010E-10  0.4435E-14  0.1000E-09  0.0000E+00  0.1628E+16
   -0.900008    3.19584  0.8312E-13  0.3803E-10  0.8215E-14  0.1000E-09  0.0000E+00  0.1380E+16
   -0.937510    3.31503  0.8310E-13  0.7148E-10  0.1512E-13  0.1000E-09  0.0000E+00  0.1141E+16
   -0.975011    3.43287  0.8308E-13  0.1335E-09  0.2766E-13  0.1011E-09  0.0000E+00  0.9108E+15
   -1.012512    3.54936  0.8308E-13  0.2482E-09  0.5040E-13  0.2040E-09  0.0000E+00  0.6870E+15
   -1.050013    3.66422  0.8307E-13  0.4606E-09  0.9165E-13  0.5402E-09  0.0000E+00  0.4720E+15
   -1.087513    3.77719  0.8307E-13  0.8500E-09  0.1658E-12  0.1733E-08  0.0000E+00  0.2667E+15
   -1.125014    3.88752  0.8307E-13  0.1552E-08  0.2972E-12  0.1101E-07  0.0000E+00  0.7646E+14
   -1.162514    3.99083  0.8307E-13  0.2270E-08  0.4351E-12  0.3382E-05  0.0000E+00 -0.4646E+12
   -1.200014    3.99576  0.8307E-13  0.2707E-08  0.5462E-12  0.4482E-05  0.0000E+00 -0.5952E+12
   -1.237514    3.99923  0.8307E-13  0.3059E-08  0.6667E-12  0.4902E-05  0.0000E+00 -0.7144E+12
   -1.275014    4.00241  0.8307E-13  0.3327E-08  0.8052E-12  0.4858E-05  0.0000E+00 -0.8867E+12
   -1.312513    4.00562  0.8307E-13  0.3500E-08  0.9747E-12  0.4410E-05  0.0000E+00 -0.1171E+13
   -1.350013    4.00918  0.8307E-13  0.3547E-08  0.1202E-11  0.3591E-05  0.0000E+00 -0.1715E+13
   -1.387511    4.01355  0.8307E-13  0.3408E-08  0.1553E-11  0.2459E-05  0.0000E+00 -0.3028E+13
   -1.425010    4.01991  0.8307E-13  0.2959E-08  0.2235E-11  0.1184E-05  0.0000E+00 -0.7907E+13
   -1.462508    4.03256  0.8307E-13  0.2051E-08  0.4202E-11  0.2399E-06  0.0000E+00 -0.4820E+14
   -1.500006    4.07740  0.8307E-13  0.0000E+00  0.0000E+00  0.0000E+00  0.0000E+00  0.0000E+00
