 1 - depth, m
 2 - temperature, C
 3 - salinity, kg/kg
 4 - turbulent kinetic energy, m**2/s**2
 5 - dissipation rate, m**2/s**3
 6 - kinematic heat conductance, m**2/s
 7 - modulus of horizontal velocity, m/s
 8 - Richardson number, n/d
   -0.000000   -0.00000  0.7029E-12  0.4096E-13  0.8590E-16  0.1000E-09  0.0000E+00  0.1058E+17
   -0.037498    0.16223  0.4175E-12  0.4096E-13  0.8590E-16  0.1000E-09  0.0000E+00  0.1003E+17
   -0.074995    0.32316  0.2883E-12  0.4096E-13  0.8590E-16  0.1000E-09  0.0000E+00  0.9497E+16
   -0.112494    0.48275  0.2161E-12  0.4096E-13  0.8590E-16  0.1000E-09  0.0000E+00  0.8972E+16
   -0.149992    0.64093  0.1695E-12  0.4096E-13  0.8590E-16  0.1000E-09  0.0000E+00  0.8457E+16
   -0.187491    0.79763  0.1387E-12  0.4096E-13  0.8590E-16  0.1000E-09  0.0000E+00  0.7953E+16
   -0.224990    0.95278  0.1194E-12  0.4096E-13  0.8590E-16  0.1000E-09  0.0000E+00  0.7460E+16
   -0.262490    1.10630  0.1082E-12  0.4096E-13  0.8590E-16  0.1000E-09  0.0000E+00  0.6979E+16
   -0.299989    1.25814  0.1024E-12  0.4096E-13  0.8590E-16  0.1000E-09  0.0000E+00  0.6511E+16
   -0.337489    1.40822  0.9943E-13  0.4096E-13  0.8590E-16  0.1000E-09  0.0000E+00  0.6054E+16
   -0.374989    1.55646  0.9798E-13  0.4096E-13  0.8590E-16  0.1000E-09  0.0000E+00  0.5632E+16
   -0.412489    1.70334  0.9715E-13  0.4904E-13  0.8590E-16  0.1000E-09  0.0000E+00  0.5231E+16
   -0.449990    1.84917  0.9651E-13  0.1565E-12  0.8626E-16  0.1000E-09  0.0000E+00  0.4839E+16
   -0.487490    1.99389  0.9586E-13  0.4268E-12  0.1135E-15  0.1000E-09  0.0000E+00  0.4453E+16
   -0.524991    2.13739  0.9513E-13  0.9102E-12  0.1945E-15  0.1000E-09  0.0000E+00  0.4070E+16
   -0.562492    2.27942  0.9432E-13  0.1757E-11  0.3490E-15  0.1000E-09  0.0000E+00  0.3697E+16
   -0.599993    2.41991  0.9345E-13  0.3259E-11  0.6261E-15  0.1000E-09  0.0000E+00  0.3336E+16
   -0.637494    2.55881  0.9257E-13  0.5936E-11  0.1116E-14  0.1000E-09  0.0000E+00  0.2986E+16
   -0.674995    2.69608  0.9172E-13  0.1071E-10  0.1979E-14  0.1000E-09  0.0000E+00  0.2647E+16
   -0.712496    2.83167  0.9095E-13  0.1923E-10  0.3494E-14  0.1000E-09  0.0000E+00  0.2320E+16
   -0.749997    2.96551  0.9028E-13  0.3435E-10  0.6144E-14  0.1000E-09  0.0000E+00  0.2011E+16
   -0.787498    3.09800  0.8975E-13  0.6114E-10  0.1077E-13  0.1000E-09  0.0000E+00  0.1713E+16
   -0.824999    3.22921  0.8937E-13  0.1085E-09  0.1881E-13  0.1000E-09  0.0000E+00  0.1423E+16
   -0.862500    3.35900  0.8912E-13  0.1918E-09  0.3276E-13  0.1004E-09  0.0000E+00  0.1141E+16
   -0.900001    3.48713  0.8898E-13  0.3381E-09  0.5692E-13  0.1823E-09  0.0000E+00  0.8668E+15
   -0.937502    3.61313  0.8891E-13  0.5946E-09  0.9867E-13  0.4531E-09  0.0000E+00  0.6038E+15
   -0.975003    3.73627  0.8888E-13  0.1043E-08  0.1707E-12  0.1324E-08  0.0000E+00  0.3559E+15
   -1.012504    3.85543  0.8887E-13  0.1827E-08  0.2950E-12  0.6261E-08  0.0000E+00  0.1305E+15
   -1.050004    3.96797  0.8887E-13  0.2802E-08  0.4537E-12  0.1497E-05  0.0000E+00  0.4294E+13
   -1.087505    3.99547  0.8887E-13  0.3458E-08  0.5745E-12  0.6706E-05  0.0000E+00 -0.3823E+12
   -1.125005    3.99809  0.8887E-13  0.3891E-08  0.6736E-12  0.7673E-05  0.0000E+00 -0.4351E+12
   -1.162505    4.00038  0.8887E-13  0.4266E-08  0.7817E-12  0.8161E-05  0.0000E+00 -0.4981E+12
   -1.200005    4.00257  0.8887E-13  0.4585E-08  0.9033E-12  0.8247E-05  0.0000E+00 -0.5823E+12
   -1.237505    4.00477  0.8887E-13  0.4842E-08  0.1045E-11  0.7963E-05  0.0000E+00 -0.7020E+12
   -1.275004    4.00710  0.8887E-13  0.5024E-08  0.1216E-11  0.7316E-05  0.0000E+00 -0.8840E+12
   -1.312503    4.00970  0.8887E-13  0.5109E-08  0.1437E-11  0.6310E-05  0.0000E+00 -0.1187E+13
   -1.350002    4.01277  0.8887E-13  0.5058E-08  0.1746E-11  0.4956E-05  0.0000E+00 -0.1768E+13
   -1.387501    4.01677  0.8887E-13  0.4788E-08  0.2241E-11  0.3304E-05  0.0000E+00 -0.3172E+13
   -1.424999    4.02285  0.8887E-13  0.4128E-08  0.3244E-11  0.1557E-05  0.0000E+00 -0.8476E+13
   -1.462497    4.03550  0.8887E-13  0.2843E-08  0.6306E-11  0.3070E-06  0.0000E+00 -0.5652E+14
   -1.499994    4.08451  0.8887E-13  0.0000E+00  0.0000E+00  0.0000E+00  0.0000E+00  0.0000E+00
