 1 - depth, m
 2 - temperature, C
 3 - salinity, kg/kg
 4 - turbulent kinetic energy, m**2/s**2
 5 - dissipation rate, m**2/s**3
 6 - kinematic heat conductance, m**2/s
 7 - modulus of horizontal velocity, m/s
 8 - Richardson number, n/d
   -0.000000   -0.00000  0.2184E-12  0.4096E-13  0.8590E-16  0.1000E-09  0.0000E+00  0.8516E+16
   -0.037498    0.13002  0.2463E-12  0.4096E-13  0.8590E-16  0.1000E-09  0.0000E+00  0.8216E+16
   -0.074996    0.26004  0.2649E-12  0.4096E-13  0.8590E-16  0.1000E-09  0.0000E+00  0.7907E+16
   -0.112495    0.38990  0.2675E-12  0.4096E-13  0.8590E-16  0.1000E-09  0.0000E+00  0.7595E+16
   -0.149993    0.51950  0.2513E-12  0.4096E-13  0.8590E-16  0.1000E-09  0.0000E+00  0.7280E+16
   -0.187493    0.64874  0.2224E-12  0.4096E-13  0.8590E-16  0.1000E-09  0.0000E+00  0.6965E+16
   -0.224992    0.77753  0.1894E-12  0.4096E-13  0.8590E-16  0.1000E-09  0.0000E+00  0.6649E+16
   -0.262492    0.90580  0.1591E-12  0.4096E-13  0.8590E-16  0.1000E-09  0.0000E+00  0.6338E+16
   -0.299992    1.03352  0.1348E-12  0.4096E-13  0.8590E-16  0.1000E-09  0.0000E+00  0.6029E+16
   -0.337492    1.16065  0.1171E-12  0.4096E-13  0.8590E-16  0.1000E-09  0.0000E+00  0.5722E+16
   -0.374992    1.28711  0.1050E-12  0.4096E-13  0.8590E-16  0.1000E-09  0.0000E+00  0.5419E+16
   -0.412493    1.41286  0.9699E-13  0.4096E-13  0.8590E-16  0.1000E-09  0.0000E+00  0.5119E+16
   -0.449993    1.53783  0.9189E-13  0.4096E-13  0.8590E-16  0.1000E-09  0.0000E+00  0.4822E+16
   -0.487494    1.66197  0.8863E-13  0.4096E-13  0.8590E-16  0.1000E-09  0.0000E+00  0.4531E+16
   -0.524995    1.78523  0.8650E-13  0.4096E-13  0.8590E-16  0.1000E-09  0.0000E+00  0.4251E+16
   -0.562496    1.90778  0.8508E-13  0.4096E-13  0.8590E-16  0.1000E-09  0.0000E+00  0.3976E+16
   -0.599998    2.02956  0.8408E-13  0.4096E-13  0.8590E-16  0.1000E-09  0.0000E+00  0.3704E+16
   -0.637499    2.15051  0.8335E-13  0.4096E-13  0.8590E-16  0.1000E-09  0.0000E+00  0.3437E+16
   -0.675000    2.27059  0.8280E-13  0.4096E-13  0.8590E-16  0.1000E-09  0.0000E+00  0.3174E+16
   -0.712501    2.38973  0.8238E-13  0.4096E-13  0.8590E-16  0.1000E-09  0.0000E+00  0.2916E+16
   -0.750003    2.50787  0.8207E-13  0.4096E-13  0.8590E-16  0.1000E-09  0.0000E+00  0.2667E+16
   -0.787504    2.62510  0.8185E-13  0.4096E-13  0.8590E-16  0.1000E-09  0.0000E+00  0.2424E+16
   -0.825006    2.74140  0.8169E-13  0.1905E-12  0.1013E-15  0.1000E-09  0.0000E+00  0.2186E+16
   -0.862507    2.85672  0.8158E-13  0.5330E-12  0.2145E-15  0.1000E-09  0.0000E+00  0.1953E+16
   -0.900008    2.97098  0.8150E-13  0.1284E-11  0.4812E-15  0.1000E-09  0.0000E+00  0.1726E+16
   -0.937509    3.08414  0.8146E-13  0.2953E-11  0.1069E-14  0.1000E-09  0.0000E+00  0.1504E+16
   -0.975011    3.19612  0.8143E-13  0.6661E-11  0.2347E-14  0.1000E-09  0.0000E+00  0.1290E+16
   -1.012512    3.30687  0.8141E-13  0.1489E-10  0.5116E-14  0.1000E-09  0.0000E+00  0.1079E+16
   -1.050012    3.41607  0.8141E-13  0.3309E-10  0.1109E-13  0.1000E-09  0.0000E+00  0.8769E+15
   -1.087513    3.52356  0.8140E-13  0.7294E-10  0.2386E-13  0.1000E-09  0.0000E+00  0.6831E+15
   -1.125014    3.62926  0.8140E-13  0.1595E-09  0.5094E-13  0.2796E-09  0.0000E+00  0.5032E+15
   -1.162514    3.73423  0.8140E-13  0.3455E-09  0.1078E-12  0.9085E-09  0.0000E+00  0.3272E+15
   -1.200014    3.83833  0.8140E-13  0.7412E-09  0.2262E-12  0.4002E-08  0.0000E+00  0.1548E+15
   -1.237514    3.93983  0.8140E-13  0.1531E-08  0.4591E-12  0.8076E-07  0.0000E+00  0.1396E+14
   -1.275014    4.00607  0.8140E-13  0.2515E-08  0.7662E-12  0.3277E-05  0.0000E+00 -0.1482E+13
   -1.312513    4.01039  0.8140E-13  0.2973E-08  0.9829E-12  0.3418E-05  0.0000E+00 -0.1712E+13
   -1.350012    4.01457  0.8140E-13  0.3209E-08  0.1228E-11  0.3053E-05  0.0000E+00 -0.2249E+13
   -1.387511    4.01926  0.8140E-13  0.3195E-08  0.1567E-11  0.2242E-05  0.0000E+00 -0.3588E+13
   -1.425010    4.02560  0.8140E-13  0.2824E-08  0.2186E-11  0.1138E-05  0.0000E+00 -0.8454E+13
   -1.462508    4.03753  0.8140E-13  0.1947E-08  0.3945E-11  0.2294E-06  0.0000E+00 -0.4701E+14
   -1.500006    4.07922  0.8140E-13  0.0000E+00  0.0000E+00  0.0000E+00  0.0000E+00  0.0000E+00
