 1 - depth, m
 2 - temperature, C
 3 - salinity, kg/kg
 4 - turbulent kinetic energy, m**2/s**2
 5 - dissipation rate, m**2/s**3
 6 - kinematic heat conductance, m**2/s
 7 - modulus of horizontal velocity, m/s
 8 - Richardson number, n/d
   -0.000000   -0.00000  0.1996E-12  0.4096E-13  0.8590E-16  0.1000E-09  0.0000E+00  0.8845E+16
   -0.037498    0.13513  0.2760E-12  0.4096E-13  0.8590E-16  0.1000E-09  0.0000E+00  0.8527E+16
   -0.074996    0.27037  0.3094E-12  0.4096E-13  0.8590E-16  0.1000E-09  0.0000E+00  0.8204E+16
   -0.112494    0.40561  0.2982E-12  0.4096E-13  0.8590E-16  0.1000E-09  0.0000E+00  0.7876E+16
   -0.149993    0.54077  0.2595E-12  0.4096E-13  0.8590E-16  0.1000E-09  0.0000E+00  0.7545E+16
   -0.187492    0.67573  0.2133E-12  0.4096E-13  0.8590E-16  0.1000E-09  0.0000E+00  0.7212E+16
   -0.224992    0.81039  0.1724E-12  0.4096E-13  0.8590E-16  0.1000E-09  0.0000E+00  0.6877E+16
   -0.262491    0.94465  0.1413E-12  0.4096E-13  0.8590E-16  0.1000E-09  0.0000E+00  0.6545E+16
   -0.299991    1.07849  0.1200E-12  0.4096E-13  0.8590E-16  0.1000E-09  0.0000E+00  0.6214E+16
   -0.337491    1.21183  0.1062E-12  0.4096E-13  0.8590E-16  0.1000E-09  0.0000E+00  0.5883E+16
   -0.374992    1.34456  0.9755E-13  0.4096E-13  0.8590E-16  0.1000E-09  0.0000E+00  0.5553E+16
   -0.412492    1.47659  0.9225E-13  0.4096E-13  0.8590E-16  0.1000E-09  0.0000E+00  0.5226E+16
   -0.449993    1.60782  0.8895E-13  0.4096E-13  0.8590E-16  0.1000E-09  0.0000E+00  0.4902E+16
   -0.487494    1.73815  0.8684E-13  0.4096E-13  0.8590E-16  0.1000E-09  0.0000E+00  0.4583E+16
   -0.524995    1.86751  0.8540E-13  0.4096E-13  0.8590E-16  0.1000E-09  0.0000E+00  0.4278E+16
   -0.562496    1.99611  0.8437E-13  0.4096E-13  0.8590E-16  0.1000E-09  0.0000E+00  0.3976E+16
   -0.599997    2.12387  0.8359E-13  0.4096E-13  0.8590E-16  0.1000E-09  0.0000E+00  0.3679E+16
   -0.637498    2.25070  0.8299E-13  0.4096E-13  0.8590E-16  0.1000E-09  0.0000E+00  0.3386E+16
   -0.674999    2.37652  0.8253E-13  0.1666E-12  0.8590E-16  0.1000E-09  0.0000E+00  0.3099E+16
   -0.712501    2.50126  0.8217E-13  0.4557E-12  0.1479E-15  0.1000E-09  0.0000E+00  0.2819E+16
   -0.750002    2.62485  0.8191E-13  0.1027E-11  0.2951E-15  0.1000E-09  0.0000E+00  0.2548E+16
   -0.787503    2.74740  0.8172E-13  0.2160E-11  0.5932E-15  0.1000E-09  0.0000E+00  0.2285E+16
   -0.825005    2.86892  0.8159E-13  0.4424E-11  0.1181E-14  0.1000E-09  0.0000E+00  0.2028E+16
   -0.862506    2.98937  0.8151E-13  0.8941E-11  0.2331E-14  0.1000E-09  0.0000E+00  0.1778E+16
   -0.900007    3.10868  0.8146E-13  0.1790E-10  0.4562E-14  0.1000E-09  0.0000E+00  0.1535E+16
   -0.937508    3.22681  0.8143E-13  0.3557E-10  0.8865E-14  0.1000E-09  0.0000E+00  0.1298E+16
   -0.975010    3.34373  0.8141E-13  0.7014E-10  0.1710E-13  0.1000E-09  0.0000E+00  0.1070E+16
   -1.012510    3.45942  0.8140E-13  0.1377E-09  0.3286E-13  0.1081E-09  0.0000E+00  0.8462E+15
   -1.050011    3.57354  0.8140E-13  0.2695E-09  0.6294E-13  0.2766E-09  0.0000E+00  0.6310E+15
   -1.087512    3.68585  0.8140E-13  0.5244E-09  0.1199E-12  0.7815E-09  0.0000E+00  0.4252E+15
   -1.125012    3.79603  0.8140E-13  0.1013E-08  0.2269E-12  0.2712E-08  0.0000E+00  0.2316E+15
   -1.162513    3.90445  0.8140E-13  0.1925E-08  0.4232E-12  0.2269E-07  0.0000E+00  0.5120E+14
   -1.200013    3.99963  0.8140E-13  0.2808E-08  0.6198E-12  0.4707E-05  0.0000E+00 -0.7530E+12
   -1.237513    4.00286  0.8140E-13  0.3240E-08  0.7508E-12  0.5186E-05  0.0000E+00 -0.8308E+12
   -1.275012    4.00581  0.8140E-13  0.3549E-08  0.8923E-12  0.5177E-05  0.0000E+00 -0.9737E+12
   -1.312512    4.00878  0.8140E-13  0.3732E-08  0.1059E-11  0.4727E-05  0.0000E+00 -0.1229E+13
   -1.350011    4.01204  0.8140E-13  0.3766E-08  0.1278E-11  0.3865E-05  0.0000E+00 -0.1729E+13
   -1.387510    4.01602  0.8140E-13  0.3592E-08  0.1613E-11  0.2647E-05  0.0000E+00 -0.2946E+13
   -1.425008    4.02179  0.8140E-13  0.3082E-08  0.2271E-11  0.1260E-05  0.0000E+00 -0.7494E+13
   -1.462506    4.03339  0.8140E-13  0.2079E-08  0.4217E-11  0.2405E-06  0.0000E+00 -0.4630E+14
   -1.500004    4.07650  0.8140E-13  0.0000E+00  0.0000E+00  0.0000E+00  0.0000E+00  0.0000E+00
