 1 - depth, m
 2 - temperature, C
 3 - salinity, kg/kg
 4 - turbulent kinetic energy, m**2/s**2
 5 - dissipation rate, m**2/s**3
 6 - kinematic heat conductance, m**2/s
 7 - modulus of horizontal velocity, m/s
 8 - Richardson number, n/d
   -0.000000   10.75067  0.8721E-13  0.5292E-03  0.1914E-02  0.8705E-04  0.2773E+00  0.3228E-03
   -0.037498   10.80576  0.8722E-13  0.2690E-03  0.7726E-03  0.1469E-03  0.8796E-01 -0.1090E-01
   -0.074996   10.82242  0.8722E-13  0.1661E-03  0.1904E-03  0.1649E-03  0.5371E-01 -0.1633E+00
   -0.112494   10.83148  0.8722E-13  0.1254E-03  0.1064E-03  0.1752E-03  0.4140E-01 -0.1114E-01
   -0.149993   10.83672  0.8723E-13  0.1006E-03  0.6787E-04  0.1726E-03  0.3432E-01 -0.1466E-01
   -0.187492   10.84044  0.8723E-13  0.8194E-04  0.4248E-04  0.1736E-03  0.2923E-01 -0.5348E-01
   -0.224991   10.84350  0.8723E-13  0.6778E-04  0.2724E-04  0.1767E-03  0.2526E-01 -0.1690E-01
   -0.262491   10.84623  0.8723E-13  0.5699E-04  0.1703E-04  0.1797E-03  0.2234E-01 -0.1451E+00
   -0.299991   10.84874  0.8723E-13  0.4864E-04  0.1043E-04  0.1841E-03  0.1983E-01 -0.2209E-01
   -0.337491   10.85095  0.8723E-13  0.4200E-04  0.6386E-05  0.1904E-03  0.1767E-01  0.2596E+00
   -0.374991   10.85301  0.8723E-13  0.3670E-04  0.3885E-05  0.1989E-03  0.1582E-01  0.2590E+02
   -0.412492   10.85492  0.8723E-13  0.3245E-04  0.2400E-05  0.2098E-03  0.1428E-01  0.3310E+01
   -0.449992   10.85675  0.8723E-13  0.2901E-04  0.1524E-05  0.2230E-03  0.1300E-01  0.9656E+01
   -0.487493   10.85833  0.8723E-13  0.2622E-04  0.9980E-06  0.2412E-03  0.1198E-01  0.4430E+01
   -0.524994   10.85974  0.8723E-13  0.2399E-04  0.6807E-06  0.2712E-03  0.1115E-01  0.4258E+02
   -0.562495   10.86102  0.8723E-13  0.2215E-04  0.4845E-06  0.3003E-03  0.1035E-01  0.5916E+01
   -0.599996   10.86217  0.8723E-13  0.2059E-04  0.3605E-06  0.3225E-03  0.9617E-02  0.3270E+02
   -0.637497   10.86323  0.8723E-13  0.1926E-04  0.2802E-06  0.3456E-03  0.8939E-02  0.2249E+02
   -0.674998   10.86421  0.8723E-13  0.1810E-04  0.2255E-06  0.3679E-03  0.8314E-02  0.2395E+01
   -0.712500   10.86511  0.8723E-13  0.1707E-04  0.1865E-06  0.3894E-03  0.7735E-02  0.9639E+01
   -0.750001   10.86595  0.8724E-13  0.1615E-04  0.1573E-06  0.4088E-03  0.7198E-02  0.6727E+01
   -0.787502   10.86673  0.8724E-13  0.1530E-04  0.1346E-06  0.4275E-03  0.6698E-02  0.1125E+02
   -0.825004   10.86746  0.8724E-13  0.1453E-04  0.1167E-06  0.4486E-03  0.6229E-02  0.9806E+01
   -0.862505   10.86815  0.8724E-13  0.1380E-04  0.1020E-06  0.4660E-03  0.5787E-02  0.1336E+03
   -0.900006   10.86880  0.8724E-13  0.1311E-04  0.8974E-07  0.4801E-03  0.5365E-02  0.1983E+02
   -0.937507   10.86942  0.8724E-13  0.1244E-04  0.7949E-07  0.4929E-03  0.4960E-02  0.2232E+02
   -0.975008   10.87001  0.8724E-13  0.1178E-04  0.7067E-07  0.4966E-03  0.4570E-02  0.6428E+02
   -1.012509   10.87060  0.8724E-13  0.1111E-04  0.6301E-07  0.5067E-03  0.4186E-02  0.1601E+02
   -1.050010   10.87118  0.8724E-13  0.1045E-04  0.5634E-07  0.5113E-03  0.3835E-02  0.7508E+01
   -1.087510   10.87174  0.8724E-13  0.9781E-05  0.5052E-07  0.5135E-03  0.3514E-02  0.6457E+01
   -1.125011   10.87230  0.8724E-13  0.9119E-05  0.4549E-07  0.5085E-03  0.3222E-02  0.7136E+01
   -1.162511   10.87285  0.8724E-13  0.8460E-05  0.4115E-07  0.4941E-03  0.2958E-02  0.1087E+02
   -1.200011   10.87342  0.8724E-13  0.7811E-05  0.3748E-07  0.4683E-03  0.2720E-02  0.1082E+02
   -1.237511   10.87402  0.8724E-13  0.7176E-05  0.3449E-07  0.4322E-03  0.2508E-02  0.1863E+02
   -1.275011   10.87467  0.8724E-13  0.6563E-05  0.3222E-07  0.3903E-03  0.2324E-02  0.2459E+02
   -1.312510   10.87539  0.8724E-13  0.5973E-05  0.3077E-07  0.3415E-03  0.2166E-02  0.1547E+02
   -1.350009   10.87622  0.8724E-13  0.5405E-05  0.3040E-07  0.2852E-03  0.2033E-02  0.8119E+01
   -1.387508   10.87721  0.8724E-13  0.4819E-05  0.3168E-07  0.2182E-03  0.1925E-02  0.2942E+02
   -1.425006   10.87849  0.8724E-13  0.4095E-05  0.3696E-07  0.1372E-03  0.1832E-02  0.1286E+04
   -1.462504   10.88048  0.8724E-13  0.2236E-05  0.7468E-07  0.1209E-04  0.1746E-02 -0.7131E+04
   -1.500002   10.90320  0.8724E-13  0.0000E+00  0.0000E+00  0.0000E+00  0.1678E-02  0.0000E+00
