 1 - depth, m
 2 - temperature, C
 3 - salinity, kg/kg
 4 - turbulent kinetic energy, m**2/s**2
 5 - dissipation rate, m**2/s**3
 6 - kinematic heat conductance, m**2/s
 7 - modulus of horizontal velocity, m/s
 8 - Richardson number, n/d
   -0.000000   -0.00000  0.6764E-12  0.4096E-13  0.8590E-16  0.1000E-09  0.0000E+00  0.1150E+17
   -0.037498    0.17663  0.4895E-12  0.4096E-13  0.8590E-16  0.1000E-09  0.0000E+00  0.1090E+17
   -0.074996    0.35256  0.3125E-12  0.4096E-13  0.8590E-16  0.1000E-09  0.0000E+00  0.1030E+17
   -0.112494    0.52762  0.2086E-12  0.4096E-13  0.8590E-16  0.1000E-09  0.0000E+00  0.9711E+16
   -0.149993    0.70167  0.1548E-12  0.4096E-13  0.8590E-16  0.1000E-09  0.0000E+00  0.9122E+16
   -0.187492    0.87453  0.1259E-12  0.4096E-13  0.8590E-16  0.1000E-09  0.0000E+00  0.8539E+16
   -0.224991    1.04604  0.1092E-12  0.4096E-13  0.8590E-16  0.1000E-09  0.0000E+00  0.7963E+16
   -0.262490    1.21603  0.9938E-13  0.1302E-12  0.8590E-16  0.1000E-09  0.0000E+00  0.7399E+16
   -0.299990    1.38442  0.9360E-13  0.3846E-12  0.1033E-15  0.1000E-09  0.0000E+00  0.6846E+16
   -0.337490    1.55104  0.9023E-13  0.8401E-12  0.1709E-15  0.1000E-09  0.0000E+00  0.6305E+16
   -0.374990    1.71574  0.8821E-13  0.1630E-11  0.3014E-15  0.1000E-09  0.0000E+00  0.5786E+16
   -0.412491    1.87864  0.8687E-13  0.3008E-11  0.5336E-15  0.1000E-09  0.0000E+00  0.5285E+16
   -0.449991    2.03975  0.8584E-13  0.5431E-11  0.9386E-15  0.1000E-09  0.0000E+00  0.4796E+16
   -0.487492    2.19891  0.8495E-13  0.9692E-11  0.1640E-14  0.1000E-09  0.0000E+00  0.4321E+16
   -0.524993    2.35596  0.8413E-13  0.1711E-10  0.2842E-14  0.1000E-09  0.0000E+00  0.3863E+16
   -0.562494    2.51087  0.8339E-13  0.2998E-10  0.4888E-14  0.1000E-09  0.0000E+00  0.3420E+16
   -0.599995    2.66349  0.8276E-13  0.5222E-10  0.8362E-14  0.1000E-09  0.0000E+00  0.2994E+16
   -0.637496    2.81365  0.8227E-13  0.9050E-10  0.1423E-13  0.1000E-09  0.0000E+00  0.2585E+16
   -0.674997    2.96122  0.8191E-13  0.1561E-09  0.2412E-13  0.1000E-09  0.0000E+00  0.2195E+16
   -0.712498    3.10608  0.8167E-13  0.2680E-09  0.4069E-13  0.1000E-09  0.0000E+00  0.1824E+16
   -0.749999    3.24818  0.8152E-13  0.4581E-09  0.6835E-13  0.1283E-09  0.0000E+00  0.1479E+16
   -0.787501    3.38797  0.8145E-13  0.7795E-09  0.1143E-12  0.2756E-09  0.0000E+00  0.1151E+16
   -0.825002    3.52557  0.8142E-13  0.1320E-08  0.1903E-12  0.6302E-09  0.0000E+00  0.8382E+15
   -0.862503    3.66083  0.8140E-13  0.2226E-08  0.3155E-12  0.1621E-08  0.0000E+00  0.5401E+15
   -0.900004    3.79325  0.8140E-13  0.3728E-08  0.5198E-12  0.5583E-08  0.0000E+00  0.2584E+15
   -0.937505    3.92030  0.8140E-13  0.6042E-08  0.8318E-12  0.7411E-07  0.0000E+00  0.3127E+14
   -0.975006    4.00590  0.8140E-13  0.6798E-08  0.9406E-12  0.1945E-04  0.0000E+00 -0.2946E+12
   -1.012507    4.00683  0.8140E-13  0.7138E-08  0.1000E-11  0.2073E-04  0.0000E+00 -0.2897E+12
   -1.050008    4.00772  0.8140E-13  0.7415E-08  0.1060E-11  0.2099E-04  0.0000E+00 -0.2990E+12
   -1.087508    4.00859  0.8140E-13  0.7636E-08  0.1124E-11  0.2075E-04  0.0000E+00 -0.3157E+12
   -1.125009    4.00948  0.8140E-13  0.7808E-08  0.1194E-11  0.2000E-04  0.0000E+00 -0.3429E+12
   -1.162509    4.01040  0.8140E-13  0.7926E-08  0.1274E-11  0.1865E-04  0.0000E+00 -0.3853E+12
   -1.200009    4.01140  0.8140E-13  0.7984E-08  0.1368E-11  0.1703E-04  0.0000E+00 -0.4432E+12
   -1.237509    4.01251  0.8140E-13  0.7969E-08  0.1480E-11  0.1525E-04  0.0000E+00 -0.5214E+12
   -1.275008    4.01375  0.8140E-13  0.7864E-08  0.1621E-11  0.1322E-04  0.0000E+00 -0.6364E+12
   -1.312507    4.01519  0.8140E-13  0.7641E-08  0.1809E-11  0.1085E-04  0.0000E+00 -0.8260E+12
   -1.350006    4.01696  0.8140E-13  0.7248E-08  0.2083E-11  0.8121E-05  0.0000E+00 -0.1187E+13
   -1.387505    4.01934  0.8140E-13  0.6582E-08  0.2543E-11  0.5136E-05  0.0000E+00 -0.2061E+13
   -1.425003    4.02311  0.8140E-13  0.5396E-08  0.3546E-11  0.2212E-05  0.0000E+00 -0.5503E+13
   -1.462501    4.03167  0.8140E-13  0.3288E-08  0.7004E-11  0.3284E-06  0.0000E+00 -0.4564E+14
   -1.499999    4.07513  0.8140E-13  0.0000E+00  0.0000E+00  0.0000E+00  0.0000E+00  0.0000E+00
