 1 - depth, m
 2 - temperature, C
 3 - salinity, kg/kg
 4 - turbulent kinetic energy, m**2/s**2
 5 - dissipation rate, m**2/s**3
 6 - kinematic heat conductance, m**2/s
 7 - modulus of horizontal velocity, m/s
 8 - Richardson number, n/d
   -0.000000   -0.00000  0.9162E-13  0.1678E-04  0.1318E-05  0.2067E-04  0.2602E-01  0.2201E-02
   -0.037496    0.00564  0.9156E-13  0.1341E-04  0.4980E-06  0.3534E-04  0.1677E-01  0.5459E-02
   -0.074993    0.00874  0.9153E-13  0.1099E-04  0.2649E-06  0.4447E-04  0.1267E-01  0.1011E-01
   -0.112490    0.01109  0.9151E-13  0.9074E-05  0.1609E-06  0.4971E-04  0.1003E-01  0.1686E-01
   -0.149987    0.01309  0.9148E-13  0.7495E-05  0.1045E-06  0.5208E-04  0.8129E-02  0.2702E-01
   -0.187484    0.01490  0.9146E-13  0.6172E-05  0.7049E-07  0.5228E-04  0.6675E-02  0.4320E-01
   -0.224982    0.01661  0.9144E-13  0.5066E-05  0.4869E-07  0.5102E-04  0.5531E-02  0.7206E-01
   -0.262480    0.01830  0.9142E-13  0.4155E-05  0.3435E-07  0.4803E-04  0.4623E-02  0.1174E+00
   -0.299978    0.02008  0.9140E-13  0.3390E-05  0.2451E-07  0.4406E-04  0.3865E-02  0.2158E+00
   -0.337477    0.02222  0.9137E-13  0.2737E-05  0.1754E-07  0.3947E-04  0.3222E-02  0.6523E+00
   -0.374976    0.02618  0.9131E-13  0.2182E-05  0.1250E-07  0.3461E-04  0.2670E-02  0.3308E+01
   -0.412474    0.03227  0.9119E-13  0.1713E-05  0.8835E-08  0.2968E-04  0.2206E-02  0.1553E+02
   -0.449974    0.03857  0.9103E-13  0.1323E-05  0.6164E-08  0.2535E-04  0.1826E-02 -0.2181E+01
   -0.487473    0.04382  0.9092E-13  0.1007E-05  0.4264E-08  0.2235E-04  0.1529E-02 -0.2109E+03
   -0.524972    0.04854  0.9083E-13  0.7601E-06  0.2956E-08  0.1727E-04  0.1308E-02 -0.2028E+03
   -0.562472    0.05396  0.9072E-13  0.5615E-06  0.2026E-08  0.1225E-04  0.1099E-02 -0.1953E+03
   -0.599971    0.06022  0.9061E-13  0.4013E-06  0.1358E-08  0.7614E-05  0.9030E-03  0.3085E+04
   -0.637471    0.06802  0.9046E-13  0.2725E-06  0.8759E-09  0.4466E-05  0.7220E-03  0.5396E+05
   -0.674970    0.07894  0.9022E-13  0.1698E-06  0.5267E-09  0.2095E-05  0.5548E-03  0.7499E+06
   -0.712470    0.09529  0.9000E-13  0.8724E-07  0.2675E-09  0.4915E-06  0.3987E-03  0.1103E+08
   -0.749970    0.12255  0.8967E-13  0.2623E-07  0.8117E-10  0.3652E-07  0.2405E-03  0.1814E+09
   -0.787470    0.17201  0.8883E-13  0.4267E-08  0.1343E-10  0.6682E-08  0.9907E-04  0.2942E+10
   -0.824969    0.22783  0.8773E-13  0.5883E-09  0.1865E-11  0.1353E-08  0.3591E-04  0.4485E+11
   -0.862469    0.28101  0.8746E-13  0.7838E-10  0.2476E-12  0.2648E-09  0.1256E-04  0.6330E+12
   -0.899969    0.33464  0.8719E-13  0.1058E-10  0.3256E-13  0.1052E-09  0.4335E-05  0.8222E+13
   -0.937468    0.39312  0.8661E-13  0.1526E-11  0.4322E-14  0.1000E-09  0.1480E-05  0.9754E+14
   -0.974968    0.45984  0.8559E-13  0.2674E-12  0.6226E-15  0.1000E-09  0.4877E-06  0.2836E+15
   -1.012467    0.53738  0.8507E-13  0.7489E-13  0.1398E-15  0.1000E-09  0.1179E-06  0.7556E+15
   -1.049966    0.61448  0.8508E-13  0.4428E-13  0.8606E-16  0.1000E-09  0.2663E-07  0.9561E+15
   -1.087465    0.69137  0.8505E-13  0.4096E-13  0.8591E-16  0.1000E-09  0.5899E-08  0.1193E+16
   -1.124964    0.77194  0.8503E-13  0.4096E-13  0.8591E-16  0.1000E-09  0.1280E-08  0.2057E+16
   -1.162463    0.87207  0.8501E-13  0.4096E-13  0.8591E-16  0.1000E-09  0.2719E-09  0.3333E+16
   -1.199961    0.99865  0.8500E-13  0.4096E-13  0.8591E-16  0.1000E-09  0.5649E-10  0.5091E+16
   -1.237460    1.15725  0.8499E-13  0.4096E-13  0.8591E-16  0.1000E-09  0.1146E-10  0.7580E+16
   -1.274958    1.35330  0.8497E-13  0.4096E-13  0.8591E-16  0.1000E-09  0.2270E-11  0.9717E+16
   -1.312455    1.59147  0.8495E-13  0.4096E-13  0.8591E-16  0.1000E-09  0.4380E-12  0.1035E+17
   -1.349953    1.87512  0.8489E-13  0.4096E-13  0.8591E-16  0.1000E-09  0.8228E-13  0.1039E+17
   -1.387450    2.20579  0.8481E-13  0.4096E-13  0.8591E-16  0.1000E-09  0.1502E-13  0.9661E+16
   -1.424947    2.58289  0.8476E-13  0.4096E-13  0.8591E-16  0.1000E-09  0.2674E-14  0.8051E+16
   -1.462444    3.00368  0.8474E-13  0.4096E-13  0.8591E-16  0.1000E-09  0.5311E-15  0.5534E+16
   -1.499940    3.46366  0.8474E-13  0.0000E+00  0.0000E+00  0.0000E+00  0.5298E-15  0.0000E+00
