 1 - depth, m
 2 - temperature, C
 3 - salinity, kg/kg
 4 - turbulent kinetic energy, m**2/s**2
 5 - dissipation rate, m**2/s**3
 6 - kinematic heat conductance, m**2/s
 7 - modulus of horizontal velocity, m/s
 8 - Richardson number, n/d
   -0.000000    7.91908  0.9526E-13  0.1324E-04  0.8551E-06  0.2022E-04  0.2035E-01 -0.1248E-01
   -0.037498    7.95092  0.9526E-13  0.1073E-04  0.3269E-06  0.3664E-04  0.1246E-01 -0.3292E-01
   -0.074996    7.96734  0.9526E-13  0.9047E-05  0.1756E-06  0.5061E-04  0.9058E-02 -0.6055E-01
   -0.112494    7.97903  0.9526E-13  0.7795E-05  0.1086E-06  0.6434E-04  0.6941E-02 -0.9946E-01
   -0.149993    7.98806  0.9526E-13  0.6837E-05  0.7276E-07  0.7945E-04  0.5485E-02 -0.1546E+00
   -0.187492    7.99525  0.9526E-13  0.6104E-05  0.5146E-07  0.9958E-04  0.4442E-02 -0.1954E+00
   -0.224991    8.00091  0.9526E-13  0.5564E-05  0.3833E-07  0.1693E-03  0.3681E-02  0.1506E+04
   -0.262490    8.00450  0.9526E-13  0.5195E-05  0.3028E-07  0.2636E-03  0.3151E-02  0.7264E+03
   -0.299990    8.00675  0.9526E-13  0.4942E-05  0.2500E-07  0.3204E-03  0.2775E-02  0.3215E+03
   -0.337490    8.00843  0.9526E-13  0.4750E-05  0.2107E-07  0.3492E-03  0.2459E-02  0.2780E+01
   -0.374990    8.00994  0.9526E-13  0.4597E-05  0.1800E-07  0.3751E-03  0.2181E-02  0.2581E+01
   -0.412491    8.01133  0.9526E-13  0.4477E-05  0.1560E-07  0.3987E-03  0.1943E-02  0.2327E+01
   -0.449991    8.01262  0.9526E-13  0.4381E-05  0.1371E-07  0.4260E-03  0.1740E-02  0.2074E+01
   -0.487492    8.01381  0.9526E-13  0.4306E-05  0.1223E-07  0.4561E-03  0.1571E-02  0.1871E+01
   -0.524993    8.01492  0.9526E-13  0.4246E-05  0.1104E-07  0.4733E-03  0.1429E-02  0.1930E+01
   -0.562494    8.01596  0.9526E-13  0.4195E-05  0.1007E-07  0.4895E-03  0.1299E-02  0.1962E+01
   -0.599995    8.01696  0.9526E-13  0.4147E-05  0.9265E-08  0.5073E-03  0.1179E-02  0.1977E+01
   -0.637496    8.01792  0.9526E-13  0.4099E-05  0.8596E-08  0.5257E-03  0.1069E-02  0.1975E+01
   -0.674997    8.01882  0.9526E-13  0.4050E-05  0.8037E-08  0.5446E-03  0.9687E-03  0.1959E+01
   -0.712498    8.01969  0.9526E-13  0.3997E-05  0.7572E-08  0.5637E-03  0.8767E-03  0.1933E+01
   -0.750000    8.02051  0.9526E-13  0.3939E-05  0.7185E-08  0.5831E-03  0.7926E-03  0.1899E+01
   -0.787501    8.02130  0.9526E-13  0.3876E-05  0.6866E-08  0.6027E-03  0.7159E-03  0.1859E+01
   -0.825002    8.02205  0.9526E-13  0.3807E-05  0.6606E-08  0.6198E-03  0.6461E-03  0.1813E+01
   -0.862503    8.02278  0.9526E-13  0.3733E-05  0.6399E-08  0.6298E-03  0.5826E-03  0.1761E+01
   -0.900004    8.02348  0.9526E-13  0.3654E-05  0.6240E-08  0.6290E-03  0.5248E-03  0.1701E+01
   -0.937505    8.02417  0.9526E-13  0.3571E-05  0.6123E-08  0.6190E-03  0.4723E-03  0.1635E+01
   -0.975006    8.02487  0.9526E-13  0.3484E-05  0.6048E-08  0.6027E-03  0.4246E-03  0.1575E+01
   -1.012507    8.02557  0.9526E-13  0.3396E-05  0.6011E-08  0.5790E-03  0.3814E-03  0.1432E+01
   -1.050008    8.02630  0.9526E-13  0.3311E-05  0.6009E-08  0.5480E-03  0.3452E-03  0.1295E+01
   -1.087508    8.02706  0.9526E-13  0.3229E-05  0.6038E-08  0.5195E-03  0.3158E-03  0.1172E+01
   -1.125009    8.02785  0.9526E-13  0.3151E-05  0.6097E-08  0.4941E-03  0.2923E-03  0.1220E+01
   -1.162509    8.02868  0.9526E-13  0.3069E-05  0.6191E-08  0.4666E-03  0.2728E-03  0.1542E+01
   -1.200009    8.02955  0.9526E-13  0.2979E-05  0.6333E-08  0.4331E-03  0.2554E-03  0.2223E+01
   -1.237509    8.03047  0.9526E-13  0.2878E-05  0.6541E-08  0.3934E-03  0.2391E-03  0.3471E+01
   -1.275008    8.03148  0.9526E-13  0.2762E-05  0.6843E-08  0.3488E-03  0.2238E-03  0.5960E+01
   -1.312508    8.03261  0.9526E-13  0.2628E-05  0.7290E-08  0.2994E-03  0.2094E-03  0.1168E+02
   -1.350006    8.03391  0.9526E-13  0.2469E-05  0.7977E-08  0.2461E-03  0.1960E-03  0.2814E+02
   -1.387505    8.03548  0.9526E-13  0.2274E-05  0.9120E-08  0.1847E-03  0.1838E-03  0.9815E+02
   -1.425004    8.03754  0.9526E-13  0.2023E-05  0.1132E-07  0.1349E-03  0.1728E-03  0.5123E+03
   -1.462502    8.04034  0.9526E-13  0.1203E-05  0.2483E-07  0.9802E-05  0.1649E-03 -0.4769E+05
   -1.499999    8.07792  0.9526E-13  0.0000E+00  0.0000E+00  0.0000E+00  0.1643E-03  0.0000E+00
