 1 - depth, m
 2 - temperature, C
 3 - salinity, kg/kg
 4 - turbulent kinetic energy, m**2/s**2
 5 - dissipation rate, m**2/s**3
 6 - kinematic heat conductance, m**2/s
 7 - modulus of horizontal velocity, m/s
 8 - Richardson number, n/d
   -0.000000   -0.00000  0.6469E-12  0.4096E-13  0.8590E-16  0.1000E-09  0.0000E+00  0.1278E+17
   -0.037498    0.19691  0.3880E-12  0.4096E-13  0.8590E-16  0.1000E-09  0.0000E+00  0.1198E+17
   -0.074995    0.39199  0.2728E-12  0.4096E-13  0.8590E-16  0.1000E-09  0.0000E+00  0.1120E+17
   -0.112494    0.58515  0.2065E-12  0.1862E-12  0.8590E-16  0.1000E-09  0.0000E+00  0.1045E+17
   -0.149992    0.77633  0.1621E-12  0.4972E-12  0.1074E-15  0.1000E-09  0.0000E+00  0.9708E+16
   -0.187491    0.96544  0.1317E-12  0.1018E-11  0.1708E-15  0.1000E-09  0.0000E+00  0.8989E+16
   -0.224990    1.15238  0.1120E-12  0.1875E-11  0.2862E-15  0.1000E-09  0.0000E+00  0.8291E+16
   -0.262490    1.33707  0.1002E-12  0.3291E-11  0.4810E-15  0.1000E-09  0.0000E+00  0.7617E+16
   -0.299989    1.51947  0.9378E-13  0.5643E-11  0.8033E-15  0.1000E-09  0.0000E+00  0.6965E+16
   -0.337489    1.69951  0.9043E-13  0.9559E-11  0.1333E-14  0.1000E-09  0.0000E+00  0.6334E+16
   -0.374989    1.87709  0.8868E-13  0.1607E-10  0.2201E-14  0.1000E-09  0.0000E+00  0.5744E+16
   -0.412489    2.05271  0.8763E-13  0.2688E-10  0.3616E-14  0.1000E-09  0.0000E+00  0.5182E+16
   -0.449990    2.22663  0.8679E-13  0.4474E-10  0.5916E-14  0.1000E-09  0.0000E+00  0.4636E+16
   -0.487490    2.39879  0.8596E-13  0.7415E-10  0.9642E-14  0.1000E-09  0.0000E+00  0.4106E+16
   -0.524991    2.56910  0.8508E-13  0.1220E-09  0.1561E-13  0.1000E-09  0.0000E+00  0.3592E+16
   -0.562492    2.73749  0.8417E-13  0.1996E-09  0.2511E-13  0.1000E-09  0.0000E+00  0.3095E+16
   -0.599993    2.90390  0.8332E-13  0.3250E-09  0.4021E-13  0.1000E-09  0.0000E+00  0.2617E+16
   -0.637494    3.06826  0.8259E-13  0.5269E-09  0.6413E-13  0.1000E-09  0.0000E+00  0.2156E+16
   -0.674995    3.23051  0.8204E-13  0.8507E-09  0.1019E-12  0.1652E-09  0.0000E+00  0.1712E+16
   -0.712496    3.39050  0.8170E-13  0.1368E-08  0.1612E-12  0.3479E-09  0.0000E+00  0.1286E+16
   -0.749997    3.54804  0.8151E-13  0.2191E-08  0.2541E-12  0.7999E-09  0.0000E+00  0.8820E+15
   -0.787498    3.70325  0.8143E-13  0.3494E-08  0.3988E-12  0.2240E-08  0.0000E+00  0.4946E+15
   -0.824999    3.85520  0.8140E-13  0.5523E-08  0.6209E-12  0.1288E-07  0.0000E+00  0.1342E+15
   -0.862500    3.99509  0.8139E-13  0.6142E-08  0.6934E-12  0.1726E-04  0.0000E+00 -0.1805E+12
   -0.900001    3.99633  0.8139E-13  0.6449E-08  0.7365E-12  0.1875E-04  0.0000E+00 -0.1875E+12
   -0.937502    3.99747  0.8139E-13  0.6724E-08  0.7823E-12  0.1993E-04  0.0000E+00 -0.1953E+12
   -0.975003    3.99855  0.8139E-13  0.6966E-08  0.8308E-12  0.2065E-04  0.0000E+00 -0.2057E+12
   -1.012504    3.99958  0.8139E-13  0.7177E-08  0.8829E-12  0.2093E-04  0.0000E+00 -0.2201E+12
   -1.050004    4.00061  0.8139E-13  0.7359E-08  0.9399E-12  0.2083E-04  0.0000E+00 -0.2387E+12
   -1.087505    4.00164  0.8139E-13  0.7511E-08  0.1003E-11  0.2040E-04  0.0000E+00 -0.2622E+12
   -1.125005    4.00270  0.8139E-13  0.7630E-08  0.1075E-11  0.1959E-04  0.0000E+00 -0.2929E+12
   -1.162505    4.00380  0.8139E-13  0.7710E-08  0.1159E-11  0.1835E-04  0.0000E+00 -0.3351E+12
   -1.200005    4.00499  0.8139E-13  0.7743E-08  0.1259E-11  0.1673E-04  0.0000E+00 -0.3942E+12
   -1.237504    4.00629  0.8139E-13  0.7718E-08  0.1381E-11  0.1489E-04  0.0000E+00 -0.4769E+12
   -1.275004    4.00776  0.8139E-13  0.7615E-08  0.1535E-11  0.1279E-04  0.0000E+00 -0.6007E+12
   -1.312503    4.00948  0.8139E-13  0.7407E-08  0.1741E-11  0.1040E-04  0.0000E+00 -0.8065E+12
   -1.350002    4.01161  0.8139E-13  0.7041E-08  0.2044E-11  0.7715E-05  0.0000E+00 -0.1203E+13
   -1.387500    4.01448  0.8139E-13  0.6418E-08  0.2553E-11  0.4842E-05  0.0000E+00 -0.2179E+13
   -1.424999    4.01905  0.8139E-13  0.5303E-08  0.3654E-11  0.2094E-05  0.0000E+00 -0.6101E+13
   -1.462496    4.02933  0.8139E-13  0.3356E-08  0.7348E-11  0.3400E-06  0.0000E+00 -0.5074E+14
   -1.499994    4.07761  0.8139E-13  0.0000E+00  0.0000E+00  0.0000E+00  0.0000E+00  0.0000E+00
