 1 - depth, m
 2 - temperature, C
 3 - salinity, kg/kg
 4 - turbulent kinetic energy, m**2/s**2
 5 - dissipation rate, m**2/s**3
 6 - kinematic heat conductance, m**2/s
 7 - modulus of horizontal velocity, m/s
 8 - Richardson number, n/d
   -0.000000   10.71651  0.9365E-13  0.2820E-03  0.3571E-03  0.7282E-04  0.1796E+00 -0.5687E-02
   -0.037498   10.75858  0.9367E-13  0.1480E-03  0.1117E-03  0.1217E-03  0.5686E-01 -0.1450E-01
   -0.074996   10.76718  0.9367E-13  0.1028E-03  0.3263E-04  0.1388E-03  0.3816E-01 -0.2268E-01
   -0.112495   10.77257  0.9367E-13  0.8017E-04  0.1620E-04  0.1392E-03  0.3132E-01 -0.1219E-01
   -0.149994   10.77633  0.9367E-13  0.6472E-04  0.9029E-05  0.1419E-03  0.2667E-01 -0.1823E-01
   -0.187493   10.77942  0.9367E-13  0.5329E-04  0.5347E-05  0.1465E-03  0.2309E-01 -0.2001E-01
   -0.224993   10.78198  0.9367E-13  0.4457E-04  0.3277E-05  0.1519E-03  0.2024E-01 -0.2894E-01
   -0.262493   10.78425  0.9368E-13  0.3792E-04  0.2064E-05  0.1570E-03  0.1793E-01 -0.3518E-01
   -0.299993   10.78634  0.9368E-13  0.3267E-04  0.1338E-05  0.1630E-03  0.1595E-01  0.4558E-01
   -0.337493   10.78827  0.9368E-13  0.2846E-04  0.8968E-06  0.1702E-03  0.1425E-01 -0.2205E-01
   -0.374994   10.79006  0.9368E-13  0.2502E-04  0.6216E-06  0.1785E-03  0.1279E-01 -0.8323E-02
   -0.412494   10.79173  0.9368E-13  0.2218E-04  0.4442E-06  0.1890E-03  0.1155E-01  0.3477E-01
   -0.449995   10.79327  0.9368E-13  0.1985E-04  0.3274E-06  0.2031E-03  0.1049E-01  0.4375E+00
   -0.487496   10.79469  0.9368E-13  0.1796E-04  0.2492E-06  0.2262E-03  0.9612E-02  0.1840E+02
   -0.524998   10.79595  0.9368E-13  0.1644E-04  0.1957E-06  0.2620E-03  0.8869E-02  0.4331E+02
   -0.562499   10.79707  0.9368E-13  0.1519E-04  0.1576E-06  0.2896E-03  0.8186E-02  0.5410E+01
   -0.600000   10.79807  0.9368E-13  0.1412E-04  0.1294E-06  0.3115E-03  0.7560E-02  0.9568E+02
   -0.637502   10.79899  0.9368E-13  0.1321E-04  0.1081E-06  0.3327E-03  0.6987E-02  0.1137E+02
   -0.675003   10.79983  0.9368E-13  0.1241E-04  0.9140E-07  0.3497E-03  0.6460E-02  0.5409E+01
   -0.712505   10.80063  0.9368E-13  0.1170E-04  0.7819E-07  0.3696E-03  0.5974E-02  0.1171E+02
   -0.750006   10.80138  0.9368E-13  0.1107E-04  0.6756E-07  0.3934E-03  0.5524E-02  0.1255E+02
   -0.787508   10.80209  0.9368E-13  0.1049E-04  0.5891E-07  0.4226E-03  0.5105E-02  0.2755E+02
   -0.825009   10.80274  0.9368E-13  0.9966E-05  0.5178E-07  0.4528E-03  0.4714E-02  0.4184E+02
   -0.862511   10.80335  0.9368E-13  0.9475E-05  0.4582E-07  0.4765E-03  0.4343E-02  0.6663E+02
   -0.900012   10.80392  0.9368E-13  0.9009E-05  0.4079E-07  0.4968E-03  0.3991E-02  0.3454E+02
   -0.937514   10.80446  0.9368E-13  0.8558E-05  0.3649E-07  0.5110E-03  0.3652E-02  0.6737E+02
   -0.975015   10.80498  0.9368E-13  0.8110E-05  0.3275E-07  0.5118E-03  0.3325E-02  0.2121E+02
   -1.012516   10.80549  0.9368E-13  0.7657E-05  0.2945E-07  0.5190E-03  0.3005E-02  0.1549E+02
   -1.050017   10.80599  0.9368E-13  0.7199E-05  0.2653E-07  0.5216E-03  0.2711E-02  0.1175E+02
   -1.087518   10.80648  0.9368E-13  0.6738E-05  0.2397E-07  0.5186E-03  0.2444E-02  0.5707E+01
   -1.125019   10.80697  0.9368E-13  0.6275E-05  0.2175E-07  0.5086E-03  0.2201E-02  0.3468E+01
   -1.162519   10.80746  0.9368E-13  0.5815E-05  0.1985E-07  0.4890E-03  0.1982E-02  0.3623E+01
   -1.200020   10.80797  0.9368E-13  0.5362E-05  0.1827E-07  0.4595E-03  0.1788E-02  0.5511E+01
   -1.237520   10.80851  0.9368E-13  0.4921E-05  0.1704E-07  0.4265E-03  0.1616E-02  0.1896E+01
   -1.275020   10.80910  0.9368E-13  0.4502E-05  0.1620E-07  0.3889E-03  0.1469E-02  0.2089E+01
   -1.312519   10.80975  0.9368E-13  0.4113E-05  0.1582E-07  0.3380E-03  0.1347E-02  0.4378E+01
   -1.350019   10.81051  0.9368E-13  0.3766E-05  0.1600E-07  0.2832E-03  0.1250E-02  0.4643E+01
   -1.387518   10.81141  0.9368E-13  0.3427E-05  0.1693E-07  0.2301E-03  0.1179E-02  0.1470E+02
   -1.425016   10.81254  0.9368E-13  0.2987E-05  0.1975E-07  0.1388E-03  0.1122E-02  0.2483E+03
   -1.462515   10.81433  0.9368E-13  0.1666E-05  0.4064E-07  0.1083E-04  0.1067E-02 -0.6907E+04
   -1.500013   10.83689  0.9368E-13  0.0000E+00  0.0000E+00  0.0000E+00  0.1042E-02  0.0000E+00
