 1 - depth, m
 2 - temperature, C
 3 - salinity, kg/kg
 4 - turbulent kinetic energy, m**2/s**2
 5 - dissipation rate, m**2/s**3
 6 - kinematic heat conductance, m**2/s
 7 - modulus of horizontal velocity, m/s
 8 - Richardson number, n/d
   -0.000000   11.84504  0.1039E-12  0.6114E-03  0.1348E-02  0.9882E-04  0.3282E+00 -0.7365E-02
   -0.037498   11.89790  0.1039E-12  0.3252E-03  0.4812E-03  0.1714E-03  0.9914E-01 -0.9185E-02
   -0.074996   11.91369  0.1039E-12  0.2099E-03  0.1472E-03  0.2055E-03  0.6192E-01  0.4057E-01
   -0.112495   11.92197  0.1039E-12  0.1604E-03  0.7936E-04  0.2021E-03  0.4941E-01 -0.3355E-01
   -0.149994   11.92673  0.1039E-12  0.1289E-03  0.4538E-04  0.2028E-03  0.4197E-01 -0.5447E-01
   -0.187494   11.93012  0.1039E-12  0.1060E-03  0.2741E-04  0.2058E-03  0.3653E-01 -0.2279E-01
   -0.224993   11.93301  0.1039E-12  0.8845E-04  0.1663E-04  0.2123E-03  0.3220E-01 -0.1073E+00
   -0.262493   11.93556  0.1039E-12  0.7538E-04  0.1007E-04  0.2184E-03  0.2882E-01  0.1595E+00
   -0.299993   11.93787  0.1039E-12  0.6529E-04  0.6150E-05  0.2265E-03  0.2585E-01  0.1105E+01
   -0.337494   11.93996  0.1039E-12  0.5727E-04  0.3862E-05  0.2369E-03  0.2331E-01  0.9142E-01
   -0.374994   11.94182  0.1039E-12  0.5082E-04  0.2518E-05  0.2484E-03  0.2118E-01  0.7969E+00
   -0.412495   11.94353  0.1039E-12  0.4556E-04  0.1710E-05  0.2624E-03  0.1936E-01  0.2260E+01
   -0.449996   11.94510  0.1039E-12  0.4126E-04  0.1209E-05  0.2788E-03  0.1785E-01  0.1630E+02
   -0.487497   11.94646  0.1039E-12  0.3775E-04  0.8887E-06  0.2969E-03  0.1661E-01  0.3669E+00
   -0.524998   11.94767  0.1039E-12  0.3491E-04  0.6779E-06  0.3104E-03  0.1558E-01  0.3881E+01
   -0.562499   11.94883  0.1039E-12  0.3252E-04  0.5340E-06  0.3238E-03  0.1458E-01  0.2660E+01
   -0.600001   11.94990  0.1039E-12  0.3043E-04  0.4314E-06  0.3413E-03  0.1364E-01  0.8771E+01
   -0.637502   11.95090  0.1039E-12  0.2862E-04  0.3566E-06  0.3601E-03  0.1278E-01  0.1578E+01
   -0.675004   11.95184  0.1039E-12  0.2702E-04  0.3004E-06  0.3798E-03  0.1198E-01  0.2098E+02
   -0.712505   11.95271  0.1039E-12  0.2558E-04  0.2570E-06  0.4016E-03  0.1124E-01  0.1828E+01
   -0.750007   11.95353  0.1039E-12  0.2427E-04  0.2227E-06  0.4260E-03  0.1054E-01  0.1496E+02
   -0.787509   11.95428  0.1039E-12  0.2307E-04  0.1949E-06  0.4521E-03  0.9895E-02  0.5610E+01
   -0.825010   11.95499  0.1039E-12  0.2195E-04  0.1721E-06  0.4786E-03  0.9283E-02  0.3941E+02
   -0.862512   11.95565  0.1039E-12  0.2089E-04  0.1529E-06  0.5044E-03  0.8702E-02  0.1838E+02
   -0.900013   11.95627  0.1039E-12  0.1988E-04  0.1366E-06  0.5242E-03  0.8146E-02  0.3009E+02
   -0.937515   11.95686  0.1039E-12  0.1889E-04  0.1225E-06  0.5428E-03  0.7610E-02  0.1570E+02
   -0.975016   11.95742  0.1039E-12  0.1792E-04  0.1102E-06  0.5623E-03  0.7089E-02  0.6318E+02
   -1.012517   11.95795  0.1039E-12  0.1694E-04  0.9920E-07  0.5939E-03  0.6579E-02  0.3267E+02
   -1.050018   11.95844  0.1039E-12  0.1596E-04  0.8943E-07  0.6209E-03  0.6105E-02  0.2340E+02
   -1.087519   11.95891  0.1039E-12  0.1497E-04  0.8071E-07  0.6359E-03  0.5666E-02  0.2675E+02
   -1.125020   11.95935  0.1039E-12  0.1398E-04  0.7294E-07  0.6369E-03  0.5258E-02  0.2522E+02
   -1.162520   11.95979  0.1039E-12  0.1298E-04  0.6606E-07  0.6246E-03  0.4880E-02  0.6453E+02
   -1.200021   11.96023  0.1039E-12  0.1197E-04  0.6006E-07  0.6015E-03  0.4531E-02  0.1989E+02
   -1.237521   11.96067  0.1039E-12  0.1096E-04  0.5500E-07  0.5672E-03  0.4210E-02  0.6996E+02
   -1.275021   11.96114  0.1039E-12  0.9963E-05  0.5100E-07  0.5179E-03  0.3921E-02  0.3556E+02
   -1.312520   11.96165  0.1039E-12  0.8999E-05  0.4826E-07  0.4408E-03  0.3667E-02  0.2156E+02
   -1.350020   11.96224  0.1039E-12  0.8082E-05  0.4716E-07  0.3414E-03  0.3453E-02  0.3839E+02
   -1.387519   11.96298  0.1039E-12  0.7152E-05  0.4850E-07  0.2541E-03  0.3277E-02  0.3337E+02
   -1.425018   11.96398  0.1039E-12  0.6006E-05  0.5573E-07  0.1340E-03  0.3127E-02  0.4725E+03
   -1.462516   11.96575  0.1039E-12  0.3167E-05  0.1107E-06  0.1374E-04  0.2983E-02 -0.1054E+04
   -1.500014   11.98283  0.1039E-12  0.0000E+00  0.0000E+00  0.0000E+00  0.2856E-02  0.0000E+00
