 1 - depth, m
 2 - temperature, C
 3 - salinity, kg/kg
 4 - turbulent kinetic energy, m**2/s**2
 5 - dissipation rate, m**2/s**3
 6 - kinematic heat conductance, m**2/s
 7 - modulus of horizontal velocity, m/s
 8 - Richardson number, n/d
   -0.000000   -0.00000  0.6067E-12  0.4096E-13  0.8590E-16  0.1000E-09  0.0000E+00  0.9892E+16
   -0.037498    0.15146  0.4852E-12  0.4096E-13  0.8590E-16  0.1000E-09  0.0000E+00  0.9459E+16
   -0.074996    0.30252  0.3442E-12  0.4096E-13  0.8590E-16  0.1000E-09  0.0000E+00  0.9025E+16
   -0.112494    0.45305  0.2377E-12  0.4096E-13  0.8590E-16  0.1000E-09  0.0000E+00  0.8591E+16
   -0.149993    0.60294  0.1728E-12  0.4096E-13  0.8590E-16  0.1000E-09  0.0000E+00  0.8158E+16
   -0.187492    0.75209  0.1367E-12  0.4096E-13  0.8590E-16  0.1000E-09  0.0000E+00  0.7726E+16
   -0.224991    0.90035  0.1170E-12  0.4096E-13  0.8590E-16  0.1000E-09  0.0000E+00  0.7297E+16
   -0.262490    1.04763  0.1059E-12  0.4096E-13  0.8590E-16  0.1000E-09  0.0000E+00  0.6874E+16
   -0.299990    1.19382  0.9967E-13  0.4096E-13  0.8590E-16  0.1000E-09  0.0000E+00  0.6456E+16
   -0.337490    1.33881  0.9608E-13  0.4096E-13  0.8590E-16  0.1000E-09  0.0000E+00  0.6043E+16
   -0.374990    1.48248  0.9397E-13  0.4096E-13  0.8590E-16  0.1000E-09  0.0000E+00  0.5647E+16
   -0.412491    1.62497  0.9261E-13  0.4096E-13  0.8590E-16  0.1000E-09  0.0000E+00  0.5262E+16
   -0.449991    1.76631  0.9160E-13  0.4096E-13  0.8590E-16  0.1000E-09  0.0000E+00  0.4884E+16
   -0.487492    1.90641  0.9073E-13  0.4096E-13  0.8590E-16  0.1000E-09  0.0000E+00  0.4513E+16
   -0.524993    2.04515  0.8989E-13  0.1365E-12  0.8590E-16  0.1000E-09  0.0000E+00  0.4150E+16
   -0.562494    2.18244  0.8906E-13  0.3953E-12  0.1210E-15  0.1000E-09  0.0000E+00  0.3795E+16
   -0.599995    2.31817  0.8827E-13  0.8852E-12  0.2221E-15  0.1000E-09  0.0000E+00  0.3450E+16
   -0.637496    2.45226  0.8754E-13  0.1800E-11  0.4225E-15  0.1000E-09  0.0000E+00  0.3115E+16
   -0.674997    2.58460  0.8691E-13  0.3521E-11  0.7996E-15  0.1000E-09  0.0000E+00  0.2791E+16
   -0.712498    2.71510  0.8639E-13  0.6771E-11  0.1501E-14  0.1000E-09  0.0000E+00  0.2478E+16
   -0.749999    2.84366  0.8600E-13  0.1289E-10  0.2796E-14  0.1000E-09  0.0000E+00  0.2182E+16
   -0.787501    2.97054  0.8572E-13  0.2435E-10  0.5173E-14  0.1000E-09  0.0000E+00  0.1898E+16
   -0.825002    3.09576  0.8554E-13  0.4572E-10  0.9514E-14  0.1000E-09  0.0000E+00  0.1625E+16
   -0.862503    3.21929  0.8544E-13  0.8529E-10  0.1739E-13  0.1000E-09  0.0000E+00  0.1362E+16
   -0.900004    3.34107  0.8538E-13  0.1582E-09  0.3162E-13  0.1000E-09  0.0000E+00  0.1111E+16
   -0.937505    3.46110  0.8536E-13  0.2915E-09  0.5714E-13  0.1823E-09  0.0000E+00  0.8695E+15
   -0.975006    3.57931  0.8535E-13  0.5343E-09  0.1027E-12  0.4458E-09  0.0000E+00  0.6389E+15
   -1.012507    3.69557  0.8534E-13  0.9753E-09  0.1839E-12  0.1216E-08  0.0000E+00  0.4192E+15
   -1.050008    3.80964  0.8534E-13  0.1774E-08  0.3282E-12  0.4324E-08  0.0000E+00  0.2103E+15
   -1.087508    3.91982  0.8534E-13  0.3149E-08  0.5733E-12  0.4855E-07  0.0000E+00  0.3246E+14
   -1.125009    4.00334  0.8534E-13  0.4050E-08  0.7421E-12  0.8399E-05  0.0000E+00 -0.5258E+12
   -1.162509    4.00521  0.8534E-13  0.4474E-08  0.8441E-12  0.8907E-05  0.0000E+00 -0.5544E+12
   -1.200009    4.00700  0.8534E-13  0.4802E-08  0.9516E-12  0.8990E-05  0.0000E+00 -0.6079E+12
   -1.237508    4.00880  0.8534E-13  0.5040E-08  0.1071E-11  0.8671E-05  0.0000E+00 -0.6946E+12
   -1.275008    4.01069  0.8534E-13  0.5181E-08  0.1212E-11  0.7954E-05  0.0000E+00 -0.8343E+12
   -1.312507    4.01278  0.8534E-13  0.5208E-08  0.1390E-11  0.6842E-05  0.0000E+00 -0.1073E+13
   -1.350006    4.01526  0.8534E-13  0.5084E-08  0.1638E-11  0.5344E-05  0.0000E+00 -0.1536E+13
   -1.387505    4.01847  0.8534E-13  0.4731E-08  0.2038E-11  0.3520E-05  0.0000E+00 -0.2661E+13
   -1.425003    4.02338  0.8534E-13  0.3977E-08  0.2865E-11  0.1603E-05  0.0000E+00 -0.6985E+13
   -1.462501    4.03391  0.8534E-13  0.2598E-08  0.5472E-11  0.2825E-06  0.0000E+00 -0.4862E+14
   -1.499999    4.07839  0.8534E-13  0.0000E+00  0.0000E+00  0.0000E+00  0.0000E+00  0.0000E+00
