 1 - depth, m
 2 - temperature, C
 3 - salinity, kg/kg
 4 - turbulent kinetic energy, m**2/s**2
 5 - dissipation rate, m**2/s**3
 6 - kinematic heat conductance, m**2/s
 7 - modulus of horizontal velocity, m/s
 8 - Richardson number, n/d
   -0.000000   -0.00000  0.9080E-12  0.4096E-13  0.8590E-16  0.1000E-09  0.0000E+00  0.1250E+17
   -0.037498    0.19254  0.4238E-12  0.4096E-13  0.8590E-16  0.1000E-09  0.0000E+00  0.1175E+17
   -0.074995    0.38339  0.2559E-12  0.4096E-13  0.8590E-16  0.1000E-09  0.0000E+00  0.1100E+17
   -0.112494    0.57238  0.1855E-12  0.4096E-13  0.8590E-16  0.1000E-09  0.0000E+00  0.1027E+17
   -0.149992    0.75936  0.1466E-12  0.1273E-12  0.8590E-16  0.1000E-09  0.0000E+00  0.9549E+16
   -0.187491    0.94418  0.1223E-12  0.3789E-12  0.9554E-16  0.1000E-09  0.0000E+00  0.8852E+16
   -0.224990    1.12674  0.1070E-12  0.8172E-12  0.1488E-15  0.1000E-09  0.0000E+00  0.8174E+16
   -0.262490    1.30689  0.9785E-13  0.1547E-11  0.2511E-15  0.1000E-09  0.0000E+00  0.7520E+16
   -0.299989    1.48460  0.9264E-13  0.2766E-11  0.4272E-15  0.1000E-09  0.0000E+00  0.6887E+16
   -0.337489    1.65977  0.8976E-13  0.4819E-11  0.7233E-15  0.1000E-09  0.0000E+00  0.6277E+16
   -0.374989    1.83229  0.8809E-13  0.8283E-11  0.1217E-14  0.1000E-09  0.0000E+00  0.5705E+16
   -0.412490    2.00258  0.8698E-13  0.1412E-10  0.2036E-14  0.1000E-09  0.0000E+00  0.5162E+16
   -0.449990    2.17085  0.8606E-13  0.2394E-10  0.3390E-14  0.1000E-09  0.0000E+00  0.4637E+16
   -0.487491    2.33704  0.8519E-13  0.4039E-10  0.5620E-14  0.1000E-09  0.0000E+00  0.4129E+16
   -0.524991    2.50107  0.8433E-13  0.6763E-10  0.9250E-14  0.1000E-09  0.0000E+00  0.3640E+16
   -0.562492    2.66287  0.8353E-13  0.1125E-09  0.1513E-13  0.1000E-09  0.0000E+00  0.3170E+16
   -0.599993    2.82239  0.8283E-13  0.1863E-09  0.2463E-13  0.1000E-09  0.0000E+00  0.2719E+16
   -0.637494    2.97958  0.8227E-13  0.3071E-09  0.3992E-13  0.1000E-09  0.0000E+00  0.2288E+16
   -0.674995    3.13442  0.8188E-13  0.5041E-09  0.6444E-13  0.1005E-09  0.0000E+00  0.1875E+16
   -0.712496    3.28686  0.8163E-13  0.8239E-09  0.1036E-12  0.1942E-09  0.0000E+00  0.1481E+16
   -0.749998    3.43676  0.8149E-13  0.1341E-08  0.1659E-12  0.4155E-09  0.0000E+00  0.1109E+16
   -0.787499    3.58444  0.8143E-13  0.2174E-08  0.2646E-12  0.9756E-09  0.0000E+00  0.7532E+15
   -0.825000    3.72971  0.8141E-13  0.3507E-08  0.4201E-12  0.2823E-08  0.0000E+00  0.4134E+15
   -0.862501    3.87132  0.8140E-13  0.5597E-08  0.6604E-12  0.1791E-07  0.0000E+00  0.1026E+15
   -0.900002    3.99797  0.8140E-13  0.6235E-08  0.7389E-12  0.1822E-04  0.0000E+00 -0.2081E+12
   -0.937503    3.99907  0.8140E-13  0.6540E-08  0.7838E-12  0.1950E-04  0.0000E+00 -0.2115E+12
   -0.975004    4.00009  0.8140E-13  0.6803E-08  0.8307E-12  0.2038E-04  0.0000E+00 -0.2180E+12
   -1.012504    4.00107  0.8140E-13  0.7028E-08  0.8803E-12  0.2073E-04  0.0000E+00 -0.2295E+12
   -1.050005    4.00203  0.8140E-13  0.7218E-08  0.9338E-12  0.2068E-04  0.0000E+00 -0.2456E+12
   -1.087505    4.00300  0.8140E-13  0.7374E-08  0.9931E-12  0.2026E-04  0.0000E+00 -0.2669E+12
   -1.125006    4.00400  0.8140E-13  0.7493E-08  0.1060E-11  0.1946E-04  0.0000E+00 -0.2955E+12
   -1.162506    4.00503  0.8140E-13  0.7572E-08  0.1138E-11  0.1821E-04  0.0000E+00 -0.3357E+12
   -1.200006    4.00615  0.8140E-13  0.7602E-08  0.1230E-11  0.1662E-04  0.0000E+00 -0.3917E+12
   -1.237505    4.00737  0.8140E-13  0.7571E-08  0.1342E-11  0.1481E-04  0.0000E+00 -0.4696E+12
   -1.275005    4.00875  0.8140E-13  0.7463E-08  0.1484E-11  0.1275E-04  0.0000E+00 -0.5862E+12
   -1.312504    4.01036  0.8140E-13  0.7248E-08  0.1675E-11  0.1038E-04  0.0000E+00 -0.7799E+12
   -1.350003    4.01235  0.8140E-13  0.6878E-08  0.1954E-11  0.7703E-05  0.0000E+00 -0.1153E+13
   -1.387501    4.01504  0.8140E-13  0.6251E-08  0.2424E-11  0.4830E-05  0.0000E+00 -0.2069E+13
   -1.425000    4.01932  0.8140E-13  0.5140E-08  0.3445E-11  0.2075E-05  0.0000E+00 -0.5747E+13
   -1.462498    4.02901  0.8140E-13  0.3207E-08  0.6884E-11  0.3264E-06  0.0000E+00 -0.4791E+14
   -1.499995    4.07545  0.8140E-13  0.0000E+00  0.0000E+00  0.0000E+00  0.0000E+00  0.0000E+00
