 1 - depth, m
 2 - temperature, C
 3 - salinity, kg/kg
 4 - turbulent kinetic energy, m**2/s**2
 5 - dissipation rate, m**2/s**3
 6 - kinematic heat conductance, m**2/s
 7 - modulus of horizontal velocity, m/s
 8 - Richardson number, n/d
   -0.000000   -0.00000  0.4656E-12  0.4096E-13  0.8590E-16  0.1000E-09  0.0000E+00  0.1107E+17
   -0.037498    0.16993  0.3826E-12  0.4096E-13  0.8590E-16  0.1000E-09  0.0000E+00  0.1049E+17
   -0.074996    0.33869  0.3104E-12  0.4096E-13  0.8590E-16  0.1000E-09  0.0000E+00  0.9910E+16
   -0.112494    0.50618  0.2380E-12  0.4096E-13  0.8590E-16  0.1000E-09  0.0000E+00  0.9343E+16
   -0.149993    0.67230  0.1792E-12  0.4096E-13  0.8590E-16  0.1000E-09  0.0000E+00  0.8785E+16
   -0.187491    0.83695  0.1399E-12  0.4096E-13  0.8590E-16  0.1000E-09  0.0000E+00  0.8237E+16
   -0.224991    1.00003  0.1173E-12  0.4096E-13  0.8590E-16  0.1000E-09  0.0000E+00  0.7700E+16
   -0.262490    1.16143  0.1059E-12  0.4096E-13  0.8590E-16  0.1000E-09  0.0000E+00  0.7180E+16
   -0.299990    1.32116  0.1008E-12  0.1522E-12  0.8590E-16  0.1000E-09  0.0000E+00  0.6673E+16
   -0.337490    1.47914  0.9872E-13  0.4278E-12  0.1079E-15  0.1000E-09  0.0000E+00  0.6178E+16
   -0.374990    1.63528  0.9786E-13  0.9122E-12  0.1790E-15  0.1000E-09  0.0000E+00  0.5726E+16
   -0.412490    1.79029  0.9743E-13  0.1743E-11  0.3131E-15  0.1000E-09  0.0000E+00  0.5299E+16
   -0.449991    1.94460  0.9705E-13  0.3181E-11  0.5487E-15  0.1000E-09  0.0000E+00  0.4878E+16
   -0.487491    2.09817  0.9659E-13  0.5682E-11  0.9552E-15  0.1000E-09  0.0000E+00  0.4462E+16
   -0.524992    2.25090  0.9597E-13  0.1000E-10  0.1647E-14  0.1000E-09  0.0000E+00  0.4050E+16
   -0.562493    2.40261  0.9520E-13  0.1744E-10  0.2816E-14  0.1000E-09  0.0000E+00  0.3646E+16
   -0.599994    2.55323  0.9431E-13  0.3021E-10  0.4788E-14  0.1000E-09  0.0000E+00  0.3250E+16
   -0.637495    2.70271  0.9335E-13  0.5203E-10  0.8097E-14  0.1000E-09  0.0000E+00  0.2864E+16
   -0.674996    2.85098  0.9239E-13  0.8916E-10  0.1363E-13  0.1000E-09  0.0000E+00  0.2487E+16
   -0.712498    2.99798  0.9147E-13  0.1521E-09  0.2282E-13  0.1000E-09  0.0000E+00  0.2120E+16
   -0.749999    3.14365  0.9065E-13  0.2581E-09  0.3805E-13  0.1000E-09  0.0000E+00  0.1770E+16
   -0.787500    3.28856  0.8995E-13  0.4360E-09  0.6315E-13  0.1230E-09  0.0000E+00  0.1428E+16
   -0.825001    3.43284  0.8944E-13  0.7332E-09  0.1043E-12  0.2656E-09  0.0000E+00  0.1091E+16
   -0.862502    3.57629  0.8911E-13  0.1227E-08  0.1716E-12  0.6275E-09  0.0000E+00  0.7596E+15
   -0.900003    3.71863  0.8894E-13  0.2043E-08  0.2808E-12  0.1793E-08  0.0000E+00  0.4356E+15
   -0.937504    3.85897  0.8888E-13  0.3372E-08  0.4560E-12  0.1004E-07  0.0000E+00  0.1270E+15
   -0.975005    3.99081  0.8887E-13  0.4104E-08  0.5574E-12  0.7815E-05  0.0000E+00 -0.2204E+12
   -1.012506    3.99345  0.8887E-13  0.4512E-08  0.6276E-12  0.9592E-05  0.0000E+00 -0.2618E+12
   -1.050007    3.99555  0.8887E-13  0.4883E-08  0.7044E-12  0.1073E-04  0.0000E+00 -0.2956E+12
   -1.087507    3.99742  0.8887E-13  0.5220E-08  0.7891E-12  0.1140E-04  0.0000E+00 -0.3331E+12
   -1.125007    3.99921  0.8887E-13  0.5520E-08  0.8838E-12  0.1167E-04  0.0000E+00 -0.3789E+12
   -1.162508    4.00097  0.8887E-13  0.5781E-08  0.9912E-12  0.1158E-04  0.0000E+00 -0.4381E+12
   -1.200008    4.00278  0.8887E-13  0.5996E-08  0.1116E-11  0.1114E-04  0.0000E+00 -0.5180E+12
   -1.237507    4.00468  0.8887E-13  0.6155E-08  0.1265E-11  0.1035E-04  0.0000E+00 -0.6316E+12
   -1.275007    4.00676  0.8887E-13  0.6242E-08  0.1450E-11  0.9217E-05  0.0000E+00 -0.8044E+12
   -1.312506    4.00913  0.8887E-13  0.6230E-08  0.1694E-11  0.7743E-05  0.0000E+00 -0.1093E+13
   -1.350005    4.01201  0.8887E-13  0.6073E-08  0.2042E-11  0.5941E-05  0.0000E+00 -0.1648E+13
   -1.387504    4.01582  0.8887E-13  0.5679E-08  0.2614E-11  0.3877E-05  0.0000E+00 -0.3004E+13
   -1.425002    4.02173  0.8887E-13  0.4851E-08  0.3805E-11  0.1786E-05  0.0000E+00 -0.8260E+13
   -1.462500    4.03437  0.8887E-13  0.3310E-08  0.7572E-11  0.3441E-06  0.0000E+00 -0.5966E+14
   -1.499997    4.08598  0.8887E-13  0.0000E+00  0.0000E+00  0.0000E+00  0.0000E+00  0.0000E+00
