 1 - depth, m
 2 - temperature, C
 3 - salinity, kg/kg
 4 - turbulent kinetic energy, m**2/s**2
 5 - dissipation rate, m**2/s**3
 6 - kinematic heat conductance, m**2/s
 7 - modulus of horizontal velocity, m/s
 8 - Richardson number, n/d
   -0.000000   16.44244  0.9191E-13  0.5952E-04  0.1266E-04  0.3734E-04  0.6178E-01 -0.9166E+00
   -0.037498   16.50798  0.9192E-13  0.3673E-04  0.3587E-05  0.5473E-04  0.2581E-01 -0.3067E-01
   -0.074996   16.52367  0.9192E-13  0.2849E-04  0.1625E-05  0.7133E-04  0.1939E-01 -0.2574E-01
   -0.112495   16.53427  0.9192E-13  0.2344E-04  0.8737E-06  0.8898E-04  0.1567E-01 -0.8704E-01
   -0.149994   16.54260  0.9192E-13  0.1995E-04  0.5231E-06  0.1087E-03  0.1301E-01 -0.1193E+00
   -0.187493   16.54945  0.9192E-13  0.1743E-04  0.3387E-06  0.1374E-03  0.1100E-01  0.1194E+02
   -0.224993   16.55506  0.9192E-13  0.1561E-04  0.2342E-06  0.2025E-03  0.9458E-02  0.6056E+02
   -0.262493   16.55929  0.9192E-13  0.1433E-04  0.1725E-06  0.3151E-03  0.8290E-02  0.1034E+03
   -0.299993   16.56211  0.9192E-13  0.1344E-04  0.1341E-06  0.3932E-03  0.7389E-02  0.1736E+03
   -0.337493   16.56409  0.9192E-13  0.1279E-04  0.1082E-06  0.4225E-03  0.6634E-02  0.3062E+02
   -0.374994   16.56578  0.9192E-13  0.1230E-04  0.8946E-07  0.4473E-03  0.5968E-02  0.8063E+01
   -0.412494   16.56731  0.9192E-13  0.1191E-04  0.7531E-07  0.4695E-03  0.5384E-02  0.4113E+01
   -0.449995   16.56874  0.9192E-13  0.1160E-04  0.6434E-07  0.4940E-03  0.4872E-02  0.3433E+01
   -0.487496   16.57007  0.9192E-13  0.1135E-04  0.5569E-07  0.5208E-03  0.4425E-02  0.3000E+01
   -0.524997   16.57131  0.9192E-13  0.1115E-04  0.4879E-07  0.5416E-03  0.4033E-02  0.3272E+01
   -0.562499   16.57247  0.9192E-13  0.1097E-04  0.4303E-07  0.5616E-03  0.3663E-02  0.3547E+01
   -0.600000   16.57358  0.9192E-13  0.1077E-04  0.3813E-07  0.5977E-03  0.3305E-02  0.3926E+01
   -0.637501   16.57459  0.9192E-13  0.1054E-04  0.3358E-07  0.6326E-03  0.2976E-02  0.4360E+01
   -0.675003   16.57553  0.9192E-13  0.1038E-04  0.3117E-07  0.1051E-02  0.2611E-02  0.2281E+01
   -0.712504   16.57609  0.9192E-13  0.1027E-04  0.2984E-07  0.1111E-02  0.2490E-02  0.2288E+01
   -0.750006   16.57660  0.9192E-13  0.1012E-04  0.2831E-07  0.6636E-03  0.2384E-02  0.2968E+01
   -0.787508   16.57744  0.9192E-13  0.9769E-05  0.2557E-07  0.6965E-03  0.2096E-02  0.3681E+01
   -0.825009   16.57822  0.9192E-13  0.9553E-05  0.2427E-07  0.1153E-02  0.1816E-02  0.2138E+01
   -0.862511   16.57868  0.9192E-13  0.9408E-05  0.2356E-07  0.1154E-02  0.1726E-02  0.2091E+01
   -0.900012   16.57913  0.9192E-13  0.9192E-05  0.2275E-07  0.6981E-03  0.1650E-02  0.2544E+01
   -0.937513   16.57986  0.9192E-13  0.8706E-05  0.2132E-07  0.6387E-03  0.1430E-02  0.2879E+01
   -0.975015   16.58063  0.9192E-13  0.8434E-05  0.2069E-07  0.1095E-02  0.1218E-02  0.1895E+01
   -1.012516   16.58107  0.9192E-13  0.8261E-05  0.2041E-07  0.9947E-03  0.1151E-02  0.1742E+01
   -1.050017   16.58154  0.9192E-13  0.8011E-05  0.2014E-07  0.6718E-03  0.1101E-02  0.1736E+01
   -1.087518   16.58223  0.9192E-13  0.7521E-05  0.1987E-07  0.6917E-03  0.9624E-03  0.1685E+01
   -1.125018   16.58289  0.9192E-13  0.7086E-05  0.1984E-07  0.7031E-03  0.8596E-03  0.1459E+01
   -1.162519   16.58351  0.9192E-13  0.6690E-05  0.2002E-07  0.6341E-03  0.7766E-03  0.1250E+01
   -1.200019   16.58419  0.9192E-13  0.6341E-05  0.2038E-07  0.5544E-03  0.7124E-03  0.1053E+01
   -1.237519   16.58495  0.9192E-13  0.6035E-05  0.2091E-07  0.5051E-03  0.6639E-03  0.9495E+00
   -1.275019   16.58577  0.9192E-13  0.5728E-05  0.2171E-07  0.4592E-03  0.6280E-03  0.1370E+01
   -1.312519   16.58664  0.9192E-13  0.5380E-05  0.2303E-07  0.3970E-03  0.5959E-03  0.2637E+01
   -1.350018   16.58762  0.9192E-13  0.4966E-05  0.2530E-07  0.3015E-03  0.5660E-03  0.6360E+01
   -1.387517   16.58889  0.9192E-13  0.4460E-05  0.2945E-07  0.2636E-03  0.5363E-03  0.4106E+03
   -1.425016   16.59029  0.9193E-13  0.3663E-05  0.4213E-07  0.1112E-03  0.5130E-03 -0.1005E+03
   -1.462514   16.59631  0.9193E-13  0.2044E-05  0.9584E-07  0.3089E-04  0.4763E-03 -0.2432E+04
   -1.500012   16.60791  0.9193E-13  0.0000E+00  0.0000E+00  0.0000E+00  0.4826E-03  0.0000E+00
