 1 - depth, m
 2 - temperature, C
 3 - salinity, kg/kg
 4 - turbulent kinetic energy, m**2/s**2
 5 - dissipation rate, m**2/s**3
 6 - kinematic heat conductance, m**2/s
 7 - modulus of horizontal velocity, m/s
 8 - Richardson number, n/d
   -0.000000   -0.00000  0.6897E-12  0.4096E-13  0.8590E-16  0.1000E-09  0.0000E+00  0.9164E+16
   -0.037498    0.14010  0.4554E-12  0.4096E-13  0.8590E-16  0.1000E-09  0.0000E+00  0.8701E+16
   -0.074995    0.27835  0.3102E-12  0.4096E-13  0.8590E-16  0.1000E-09  0.0000E+00  0.8253E+16
   -0.112494    0.41474  0.2016E-12  0.4096E-13  0.8590E-16  0.1000E-09  0.0000E+00  0.7819E+16
   -0.149992    0.54926  0.1411E-12  0.4096E-13  0.8590E-16  0.1000E-09  0.0000E+00  0.7398E+16
   -0.187491    0.68190  0.1149E-12  0.4096E-13  0.8590E-16  0.1000E-09  0.0000E+00  0.6991E+16
   -0.224990    0.81261  0.1056E-12  0.4096E-13  0.8590E-16  0.1000E-09  0.0000E+00  0.6595E+16
   -0.262489    0.94135  0.1028E-12  0.4096E-13  0.8590E-16  0.1000E-09  0.0000E+00  0.6218E+16
   -0.299989    1.06820  0.1021E-12  0.4096E-13  0.8590E-16  0.1000E-09  0.0000E+00  0.5852E+16
   -0.337489    1.19312  0.1019E-12  0.4096E-13  0.8590E-16  0.1000E-09  0.0000E+00  0.5499E+16
   -0.374989    1.31606  0.1018E-12  0.4096E-13  0.8590E-16  0.1000E-09  0.0000E+00  0.5198E+16
   -0.412489    1.43799  0.1016E-12  0.4096E-13  0.8590E-16  0.1000E-09  0.0000E+00  0.4930E+16
   -0.449989    1.55953  0.1014E-12  0.4096E-13  0.8590E-16  0.1000E-09  0.0000E+00  0.4664E+16
   -0.487490    1.68066  0.1010E-12  0.4096E-13  0.8590E-16  0.1000E-09  0.0000E+00  0.4400E+16
   -0.524991    1.80132  0.1003E-12  0.4096E-13  0.8590E-16  0.1000E-09  0.0000E+00  0.4130E+16
   -0.562491    1.92122  0.9942E-13  0.4096E-13  0.8590E-16  0.1000E-09  0.0000E+00  0.3865E+16
   -0.599992    2.04035  0.9834E-13  0.4096E-13  0.8590E-16  0.1000E-09  0.0000E+00  0.3605E+16
   -0.637493    2.15867  0.9720E-13  0.4096E-13  0.8590E-16  0.1000E-09  0.0000E+00  0.3349E+16
   -0.674994    2.27617  0.9616E-13  0.4096E-13  0.8590E-16  0.1000E-09  0.0000E+00  0.3099E+16
   -0.712495    2.39281  0.9530E-13  0.4096E-13  0.8590E-16  0.1000E-09  0.0000E+00  0.2854E+16
   -0.749996    2.50856  0.9464E-13  0.1318E-12  0.8590E-16  0.1000E-09  0.0000E+00  0.2630E+16
   -0.787497    2.62415  0.9414E-13  0.3859E-12  0.1645E-15  0.1000E-09  0.0000E+00  0.2413E+16
   -0.824998    2.73979  0.9378E-13  0.9529E-12  0.3676E-15  0.1000E-09  0.0000E+00  0.2195E+16
   -0.862499    2.85549  0.9353E-13  0.2219E-11  0.8226E-15  0.1000E-09  0.0000E+00  0.1979E+16
   -0.900000    2.97121  0.9335E-13  0.5052E-11  0.1820E-14  0.1000E-09  0.0000E+00  0.1762E+16
   -0.937501    3.08694  0.9323E-13  0.1135E-10  0.3984E-14  0.1000E-09  0.0000E+00  0.1546E+16
   -0.975002    3.20265  0.9314E-13  0.2524E-10  0.8638E-14  0.1000E-09  0.0000E+00  0.1330E+16
   -1.012503    3.31833  0.9309E-13  0.5573E-10  0.1861E-13  0.1000E-09  0.0000E+00  0.1126E+16
   -1.050003    3.43514  0.9305E-13  0.1225E-09  0.3990E-13  0.1202E-09  0.0000E+00  0.9185E+15
   -1.087504    3.55337  0.9304E-13  0.2669E-09  0.8489E-13  0.3340E-09  0.0000E+00  0.7031E+15
   -1.125004    3.67294  0.9303E-13  0.5768E-09  0.1791E-12  0.1024E-08  0.0000E+00  0.4834E+15
   -1.162504    3.79465  0.9303E-13  0.1234E-08  0.3745E-12  0.4116E-08  0.0000E+00  0.2504E+15
   -1.200004    3.91675  0.9303E-13  0.2551E-08  0.7598E-12  0.5814E-07  0.0000E+00  0.3419E+14
   -1.237503    4.00815  0.9303E-13  0.3938E-08  0.1183E-11  0.4869E-05  0.0000E+00 -0.1399E+13
   -1.275003    4.01192  0.9303E-13  0.4596E-08  0.1472E-11  0.5229E-05  0.0000E+00 -0.1575E+13
   -1.312502    4.01558  0.9303E-13  0.5043E-08  0.1802E-11  0.5039E-05  0.0000E+00 -0.1943E+13
   -1.350001    4.01955  0.9303E-13  0.5267E-08  0.2230E-11  0.4327E-05  0.0000E+00 -0.2688E+13
   -1.387499    4.02437  0.9303E-13  0.5200E-08  0.2877E-11  0.3128E-05  0.0000E+00 -0.4486E+13
   -1.424997    4.03127  0.9303E-13  0.4660E-08  0.4140E-11  0.1605E-05  0.0000E+00 -0.1100E+14
   -1.462495    4.04484  0.9303E-13  0.3353E-08  0.7964E-11  0.3493E-06  0.0000E+00 -0.6680E+14
   -1.499993    4.09569  0.9303E-13  0.0000E+00  0.0000E+00  0.0000E+00  0.0000E+00  0.0000E+00
