 1 - depth, m
 2 - temperature, C
 3 - salinity, kg/kg
 4 - turbulent kinetic energy, m**2/s**2
 5 - dissipation rate, m**2/s**3
 6 - kinematic heat conductance, m**2/s
 7 - modulus of horizontal velocity, m/s
 8 - Richardson number, n/d
   -0.000000   -0.00000  0.6344E-12  0.4096E-13  0.8590E-16  0.1000E-09  0.0000E+00  0.1082E+17
   -0.037498    0.16606  0.4809E-12  0.4096E-13  0.8590E-16  0.1000E-09  0.0000E+00  0.1029E+17
   -0.074996    0.33148  0.3220E-12  0.4096E-13  0.8590E-16  0.1000E-09  0.0000E+00  0.9766E+16
   -0.112494    0.49611  0.2170E-12  0.4096E-13  0.8590E-16  0.1000E-09  0.0000E+00  0.9241E+16
   -0.149993    0.65984  0.1594E-12  0.4096E-13  0.8590E-16  0.1000E-09  0.0000E+00  0.8718E+16
   -0.187492    0.82252  0.1287E-12  0.4096E-13  0.8590E-16  0.1000E-09  0.0000E+00  0.8200E+16
   -0.224991    0.98403  0.1116E-12  0.4096E-13  0.8590E-16  0.1000E-09  0.0000E+00  0.7688E+16
   -0.262490    1.14420  0.1018E-12  0.4096E-13  0.8590E-16  0.1000E-09  0.0000E+00  0.7185E+16
   -0.299990    1.30296  0.9610E-13  0.4096E-13  0.8590E-16  0.1000E-09  0.0000E+00  0.6690E+16
   -0.337490    1.46018  0.9282E-13  0.9503E-13  0.8590E-16  0.1000E-09  0.0000E+00  0.6205E+16
   -0.374990    1.61571  0.9087E-13  0.3121E-12  0.9249E-16  0.1000E-09  0.0000E+00  0.5741E+16
   -0.412491    1.76971  0.8959E-13  0.7069E-12  0.1441E-15  0.1000E-09  0.0000E+00  0.5292E+16
   -0.449991    1.92221  0.8860E-13  0.1380E-11  0.2482E-15  0.1000E-09  0.0000E+00  0.4853E+16
   -0.487492    2.07311  0.8772E-13  0.2532E-11  0.4327E-15  0.1000E-09  0.0000E+00  0.4425E+16
   -0.524993    2.22230  0.8686E-13  0.4505E-11  0.7477E-15  0.1000E-09  0.0000E+00  0.4012E+16
   -0.562494    2.36977  0.8604E-13  0.7888E-11  0.1281E-14  0.1000E-09  0.0000E+00  0.3610E+16
   -0.599995    2.51542  0.8527E-13  0.1368E-10  0.2178E-14  0.1000E-09  0.0000E+00  0.3222E+16
   -0.637496    2.65920  0.8461E-13  0.2358E-10  0.3685E-14  0.1000E-09  0.0000E+00  0.2847E+16
   -0.674997    2.80103  0.8407E-13  0.4042E-10  0.6200E-14  0.1000E-09  0.0000E+00  0.2487E+16
   -0.712498    2.94085  0.8367E-13  0.6892E-10  0.1038E-13  0.1000E-09  0.0000E+00  0.2141E+16
   -0.749999    3.07862  0.8340E-13  0.1170E-09  0.1730E-13  0.1000E-09  0.0000E+00  0.1815E+16
   -0.787500    3.21477  0.8323E-13  0.1975E-09  0.2871E-13  0.1000E-09  0.0000E+00  0.1502E+16
   -0.825002    3.34943  0.8314E-13  0.3320E-09  0.4741E-13  0.1138E-09  0.0000E+00  0.1200E+16
   -0.862503    3.48255  0.8310E-13  0.5555E-09  0.7794E-13  0.2385E-09  0.0000E+00  0.9082E+15
   -0.900004    3.61398  0.8308E-13  0.9249E-09  0.1276E-12  0.5657E-09  0.0000E+00  0.6270E+15
   -0.937505    3.74349  0.8307E-13  0.1532E-08  0.2077E-12  0.1619E-08  0.0000E+00  0.3575E+15
   -0.975006    3.87035  0.8307E-13  0.2518E-08  0.3358E-12  0.8981E-08  0.0000E+00  0.1054E+15
   -1.012507    3.98927  0.8307E-13  0.3165E-08  0.4235E-12  0.5907E-05  0.0000E+00 -0.1894E+12
   -1.050007    3.99269  0.8307E-13  0.3543E-08  0.4874E-12  0.7795E-05  0.0000E+00 -0.2593E+12
   -1.087508    3.99498  0.8307E-13  0.3874E-08  0.5553E-12  0.8820E-05  0.0000E+00 -0.2968E+12
   -1.125008    3.99697  0.8307E-13  0.4165E-08  0.6294E-12  0.9368E-05  0.0000E+00 -0.3381E+12
   -1.162508    3.99885  0.8307E-13  0.4417E-08  0.7118E-12  0.9513E-05  0.0000E+00 -0.3894E+12
   -1.200008    4.00071  0.8307E-13  0.4623E-08  0.8057E-12  0.9294E-05  0.0000E+00 -0.4577E+12
   -1.237508    4.00262  0.8307E-13  0.4777E-08  0.9159E-12  0.8729E-05  0.0000E+00 -0.5544E+12
   -1.275008    4.00466  0.8307E-13  0.4865E-08  0.1051E-11  0.7828E-05  0.0000E+00 -0.7012E+12
   -1.312507    4.00696  0.8307E-13  0.4865E-08  0.1226E-11  0.6598E-05  0.0000E+00 -0.9465E+12
   -1.350006    4.00971  0.8307E-13  0.4739E-08  0.1475E-11  0.5059E-05  0.0000E+00 -0.1420E+13
   -1.387504    4.01331  0.8307E-13  0.4412E-08  0.1878E-11  0.3280E-05  0.0000E+00 -0.2584E+13
   -1.425003    4.01885  0.8307E-13  0.3726E-08  0.2709E-11  0.1486E-05  0.0000E+00 -0.7121E+13
   -1.462501    4.03067  0.8307E-13  0.2494E-08  0.5256E-11  0.2763E-06  0.0000E+00 -0.4973E+14
   -1.499998    4.07754  0.8307E-13  0.0000E+00  0.0000E+00  0.0000E+00  0.0000E+00  0.0000E+00
