 1 - depth, m
 2 - temperature, C
 3 - salinity, kg/kg
 4 - turbulent kinetic energy, m**2/s**2
 5 - dissipation rate, m**2/s**3
 6 - kinematic heat conductance, m**2/s
 7 - modulus of horizontal velocity, m/s
 8 - Richardson number, n/d
   -0.000000   -0.00000  0.9461E-12  0.4096E-13  0.8590E-16  0.1000E-09  0.0000E+00  0.7657E+16
   -0.037497    0.11668  0.4592E-12  0.4096E-13  0.8590E-16  0.1000E-09  0.0000E+00  0.7367E+16
   -0.074995    0.23261  0.2943E-12  0.4096E-13  0.8590E-16  0.1000E-09  0.0000E+00  0.7083E+16
   -0.112493    0.34778  0.2136E-12  0.4096E-13  0.8590E-16  0.1000E-09  0.0000E+00  0.6805E+16
   -0.149992    0.46219  0.1664E-12  0.4096E-13  0.8590E-16  0.1000E-09  0.0000E+00  0.6531E+16
   -0.187491    0.57584  0.1374E-12  0.4096E-13  0.8590E-16  0.1000E-09  0.0000E+00  0.6263E+16
   -0.224990    0.68871  0.1202E-12  0.4096E-13  0.8590E-16  0.1000E-09  0.0000E+00  0.6000E+16
   -0.262489    0.80079  0.1106E-12  0.4096E-13  0.8590E-16  0.1000E-09  0.0000E+00  0.5737E+16
   -0.299989    0.91202  0.1055E-12  0.4096E-13  0.8590E-16  0.1000E-09  0.0000E+00  0.5480E+16
   -0.337489    1.02234  0.1030E-12  0.4096E-13  0.8590E-16  0.1000E-09  0.0000E+00  0.5226E+16
   -0.374989    1.13174  0.1017E-12  0.4096E-13  0.8590E-16  0.1000E-09  0.0000E+00  0.4999E+16
   -0.412489    1.24066  0.1009E-12  0.4096E-13  0.8590E-16  0.1000E-09  0.0000E+00  0.4787E+16
   -0.449989    1.34938  0.1001E-12  0.4096E-13  0.8590E-16  0.1000E-09  0.0000E+00  0.4577E+16
   -0.487490    1.45788  0.9941E-13  0.4096E-13  0.8590E-16  0.1000E-09  0.0000E+00  0.4364E+16
   -0.524990    1.56608  0.9862E-13  0.4096E-13  0.8590E-16  0.1000E-09  0.0000E+00  0.4135E+16
   -0.562491    1.67346  0.9780E-13  0.4096E-13  0.8590E-16  0.1000E-09  0.0000E+00  0.3911E+16
   -0.599992    1.78000  0.9697E-13  0.4096E-13  0.8590E-16  0.1000E-09  0.0000E+00  0.3690E+16
   -0.637493    1.88567  0.9618E-13  0.4096E-13  0.8590E-16  0.1000E-09  0.0000E+00  0.3474E+16
   -0.674994    1.99045  0.9548E-13  0.4096E-13  0.8590E-16  0.1000E-09  0.0000E+00  0.3263E+16
   -0.712495    2.09432  0.9487E-13  0.4096E-13  0.8590E-16  0.1000E-09  0.0000E+00  0.3056E+16
   -0.749996    2.19723  0.9438E-13  0.4096E-13  0.8590E-16  0.1000E-09  0.0000E+00  0.2863E+16
   -0.787497    2.29952  0.9400E-13  0.4096E-13  0.8590E-16  0.1000E-09  0.0000E+00  0.2677E+16
   -0.824998    2.40128  0.9370E-13  0.4096E-13  0.8590E-16  0.1000E-09  0.0000E+00  0.2493E+16
   -0.862499    2.50249  0.9349E-13  0.4096E-13  0.8590E-16  0.1000E-09  0.0000E+00  0.2312E+16
   -0.900000    2.60311  0.9333E-13  0.4096E-13  0.8590E-16  0.1000E-09  0.0000E+00  0.2134E+16
   -0.937501    2.70313  0.9322E-13  0.4096E-13  0.8590E-16  0.1000E-09  0.0000E+00  0.1958E+16
   -0.975001    2.80250  0.9315E-13  0.4096E-13  0.8590E-16  0.1000E-09  0.0000E+00  0.1786E+16
   -1.012502    2.90120  0.9310E-13  0.4096E-13  0.8590E-16  0.1000E-09  0.0000E+00  0.1631E+16
   -1.050003    3.00012  0.9307E-13  0.4096E-13  0.8590E-16  0.1000E-09  0.0000E+00  0.1479E+16
   -1.087503    3.09946  0.9305E-13  0.4096E-13  0.8590E-16  0.1000E-09  0.0000E+00  0.1326E+16
   -1.125003    3.19927  0.9304E-13  0.6681E-13  0.8935E-16  0.1000E-09  0.0000E+00  0.1182E+16
   -1.162503    3.30050  0.9304E-13  0.2616E-12  0.2855E-15  0.1000E-09  0.0000E+00  0.1033E+16
   -1.200003    3.40341  0.9303E-13  0.9991E-12  0.1044E-14  0.1000E-09  0.0000E+00  0.8775E+15
   -1.237502    3.50810  0.9303E-13  0.3724E-11  0.3781E-14  0.1000E-09  0.0000E+00  0.7145E+15
   -1.275002    3.61473  0.9303E-13  0.1364E-10  0.1349E-13  0.1000E-09  0.0000E+00  0.5430E+15
   -1.312501    3.72345  0.9303E-13  0.4916E-10  0.4747E-13  0.3429E-09  0.0000E+00  0.3613E+15
   -1.350000    3.83425  0.9303E-13  0.1740E-09  0.1651E-12  0.2407E-08  0.0000E+00  0.1686E+15
   -1.387498    3.94591  0.9303E-13  0.5940E-09  0.5647E-12  0.6962E-07  0.0000E+00  0.1724E+13
   -1.424996    4.02401  0.9303E-13  0.1571E-08  0.1952E-11  0.4532E-06  0.0000E+00 -0.2350E+14
   -1.462494    4.05282  0.9303E-13  0.1721E-08  0.3988E-11  0.2154E-06  0.0000E+00 -0.7225E+14
   -1.499992    4.10319  0.9303E-13  0.0000E+00  0.0000E+00  0.0000E+00  0.0000E+00  0.0000E+00
