 1 - depth, m
 2 - temperature, C
 3 - salinity, kg/kg
 4 - turbulent kinetic energy, m**2/s**2
 5 - dissipation rate, m**2/s**3
 6 - kinematic heat conductance, m**2/s
 7 - modulus of horizontal velocity, m/s
 8 - Richardson number, n/d
   -0.000000   -0.00000  0.5656E-12  0.4096E-13  0.8590E-16  0.1000E-09  0.0000E+00  0.1309E+17
   -0.037498    0.20183  0.3681E-12  0.4096E-13  0.8590E-16  0.1000E-09  0.0000E+00  0.1226E+17
   -0.074995    0.40190  0.2758E-12  0.4712E-13  0.8590E-16  0.1000E-09  0.0000E+00  0.1145E+17
   -0.112494    0.60011  0.2142E-12  0.1718E-12  0.8594E-16  0.1000E-09  0.0000E+00  0.1067E+17
   -0.149992    0.79640  0.1673E-12  0.4597E-12  0.1065E-15  0.1000E-09  0.0000E+00  0.9896E+16
   -0.187491    0.99065  0.1336E-12  0.9519E-12  0.1720E-15  0.1000E-09  0.0000E+00  0.9146E+16
   -0.224990    1.18276  0.1121E-12  0.1776E-11  0.2941E-15  0.1000E-09  0.0000E+00  0.8417E+16
   -0.262490    1.37264  0.9972E-13  0.3168E-11  0.5054E-15  0.1000E-09  0.0000E+00  0.7714E+16
   -0.299989    1.56027  0.9331E-13  0.5537E-11  0.8648E-15  0.1000E-09  0.0000E+00  0.7033E+16
   -0.337489    1.74558  0.9020E-13  0.9585E-11  0.1473E-14  0.1000E-09  0.0000E+00  0.6374E+16
   -0.374989    1.92846  0.8870E-13  0.1651E-10  0.2502E-14  0.1000E-09  0.0000E+00  0.5757E+16
   -0.412490    2.10946  0.8783E-13  0.2835E-10  0.4235E-14  0.1000E-09  0.0000E+00  0.5168E+16
   -0.449990    2.28886  0.8712E-13  0.4854E-10  0.7153E-14  0.1000E-09  0.0000E+00  0.4593E+16
   -0.487491    2.46651  0.8635E-13  0.8293E-10  0.1205E-13  0.1000E-09  0.0000E+00  0.4032E+16
   -0.524992    2.64219  0.8548E-13  0.1409E-09  0.2019E-13  0.1000E-09  0.0000E+00  0.3485E+16
   -0.562492    2.81564  0.8452E-13  0.2383E-09  0.3367E-13  0.1000E-09  0.0000E+00  0.2955E+16
   -0.599993    2.98645  0.8357E-13  0.4017E-09  0.5594E-13  0.1000E-09  0.0000E+00  0.2441E+16
   -0.637494    3.15414  0.8272E-13  0.6750E-09  0.9267E-13  0.1358E-09  0.0000E+00  0.1949E+16
   -0.674995    3.31802  0.8209E-13  0.1131E-08  0.1530E-12  0.2864E-09  0.0000E+00  0.1482E+16
   -0.712496    3.47723  0.8170E-13  0.1888E-08  0.2519E-12  0.6647E-09  0.0000E+00  0.1047E+16
   -0.749998    3.63082  0.8149E-13  0.3142E-08  0.4131E-12  0.1736E-08  0.0000E+00  0.6542E+15
   -0.787499    3.77827  0.8141E-13  0.5199E-08  0.6741E-12  0.6098E-08  0.0000E+00  0.3028E+15
   -0.825000    3.91749  0.8139E-13  0.8276E-08  0.1062E-11  0.8995E-07  0.0000E+00  0.3421E+14
   -0.862501    4.00623  0.8139E-13  0.8990E-08  0.1158E-11  0.2786E-04  0.0000E+00 -0.2342E+12
   -0.900002    4.00698  0.8139E-13  0.9306E-08  0.1209E-11  0.2829E-04  0.0000E+00 -0.2408E+12
   -0.937503    4.00771  0.8139E-13  0.9566E-08  0.1259E-11  0.2866E-04  0.0000E+00 -0.2483E+12
   -0.975004    4.00845  0.8139E-13  0.9789E-08  0.1311E-11  0.2880E-04  0.0000E+00 -0.2578E+12
   -1.012504    4.00918  0.8139E-13  0.9979E-08  0.1368E-11  0.2871E-04  0.0000E+00 -0.2704E+12
   -1.050005    4.00993  0.8139E-13  0.1014E-07  0.1429E-11  0.2839E-04  0.0000E+00 -0.2860E+12
   -1.087506    4.01070  0.8139E-13  0.1026E-07  0.1497E-11  0.2780E-04  0.0000E+00 -0.3055E+12
   -1.125006    4.01149  0.8139E-13  0.1034E-07  0.1574E-11  0.2696E-04  0.0000E+00 -0.3296E+12
   -1.162506    4.01232  0.8139E-13  0.1039E-07  0.1662E-11  0.2577E-04  0.0000E+00 -0.3613E+12
   -1.200006    4.01320  0.8139E-13  0.1038E-07  0.1773E-11  0.2405E-04  0.0000E+00 -0.4070E+12
   -1.237505    4.01416  0.8139E-13  0.1029E-07  0.1917E-11  0.2046E-04  0.0000E+00 -0.5018E+12
   -1.275005    4.01529  0.8139E-13  0.1010E-07  0.2105E-11  0.1685E-04  0.0000E+00 -0.6423E+12
   -1.312504    4.01668  0.8139E-13  0.9784E-08  0.2358E-11  0.1348E-04  0.0000E+00 -0.8543E+12
   -1.350003    4.01844  0.8139E-13  0.9267E-08  0.2728E-11  0.9972E-05  0.0000E+00 -0.1244E+13
   -1.387501    4.02083  0.8139E-13  0.8427E-08  0.3350E-11  0.6272E-05  0.0000E+00 -0.2176E+13
   -1.425000    4.02465  0.8139E-13  0.6954E-08  0.4707E-11  0.2714E-05  0.0000E+00 -0.5805E+13
   -1.462498    4.03334  0.8139E-13  0.4231E-08  0.9542E-11  0.3968E-06  0.0000E+00 -0.5085E+14
   -1.499995    4.07963  0.8139E-13  0.0000E+00  0.0000E+00  0.0000E+00  0.0000E+00  0.0000E+00
