 1 - depth, m
 2 - temperature, C
 3 - salinity, kg/kg
 4 - turbulent kinetic energy, m**2/s**2
 5 - dissipation rate, m**2/s**3
 6 - kinematic heat conductance, m**2/s
 7 - modulus of horizontal velocity, m/s
 8 - Richardson number, n/d
   -0.000000   -0.00000  0.5007E-12  0.1168E-12  0.8590E-16  0.1000E-09  0.0000E+00  0.1319E+17
   -0.037498    0.20340  0.4411E-12  0.2797E-12  0.8590E-16  0.1000E-09  0.0000E+00  0.1231E+17
   -0.074996    0.40433  0.2866E-12  0.6092E-12  0.1202E-15  0.1000E-09  0.0000E+00  0.1146E+17
   -0.112494    0.60288  0.1719E-12  0.1174E-11  0.1975E-15  0.1000E-09  0.0000E+00  0.1065E+17
   -0.149993    0.79911  0.1176E-12  0.2127E-11  0.3353E-15  0.1000E-09  0.0000E+00  0.9872E+16
   -0.187492    0.99307  0.9823E-13  0.3739E-11  0.5701E-15  0.1000E-09  0.0000E+00  0.9117E+16
   -0.224991    1.18474  0.9259E-13  0.6472E-11  0.9647E-15  0.1000E-09  0.0000E+00  0.8389E+16
   -0.262490    1.37410  0.9119E-13  0.1110E-10  0.1624E-14  0.1000E-09  0.0000E+00  0.7700E+16
   -0.299990    1.56149  0.9088E-13  0.1890E-10  0.2717E-14  0.1000E-09  0.0000E+00  0.7036E+16
   -0.337490    1.74698  0.9080E-13  0.3204E-10  0.4527E-14  0.1000E-09  0.0000E+00  0.6392E+16
   -0.374990    1.93053  0.9076E-13  0.5406E-10  0.7513E-14  0.1000E-09  0.0000E+00  0.5826E+16
   -0.412491    2.11403  0.9070E-13  0.9086E-10  0.1242E-13  0.1000E-09  0.0000E+00  0.5298E+16
   -0.449991    2.29869  0.9055E-13  0.1521E-09  0.2046E-13  0.1000E-09  0.0000E+00  0.4764E+16
   -0.487492    2.48459  0.9025E-13  0.2538E-09  0.3358E-13  0.1000E-09  0.0000E+00  0.4223E+16
   -0.524993    2.67178  0.8973E-13  0.4206E-09  0.5477E-13  0.1000E-09  0.0000E+00  0.3672E+16
   -0.562494    2.86015  0.8895E-13  0.6931E-09  0.8882E-13  0.1000E-09  0.0000E+00  0.3113E+16
   -0.599995    3.04972  0.8792E-13  0.1137E-08  0.1434E-12  0.1564E-09  0.0000E+00  0.2546E+16
   -0.637496    3.24038  0.8671E-13  0.1858E-08  0.2307E-12  0.3250E-09  0.0000E+00  0.1971E+16
   -0.674997    3.43192  0.8545E-13  0.3023E-08  0.3697E-12  0.7392E-09  0.0000E+00  0.1389E+16
   -0.712498    3.62391  0.8419E-13  0.4900E-08  0.5900E-12  0.2042E-08  0.0000E+00  0.8024E+15
   -0.749999    3.81500  0.8315E-13  0.7878E-08  0.9350E-12  0.1131E-07  0.0000E+00  0.2296E+15
   -0.787501    3.99556  0.8284E-13  0.8620E-08  0.1027E-11  0.2185E-04  0.0000E+00 -0.1940E+12
   -0.825002    3.99681  0.8284E-13  0.8992E-08  0.1083E-11  0.2430E-04  0.0000E+00 -0.1973E+12
   -0.862503    3.99795  0.8284E-13  0.9329E-08  0.1142E-11  0.2698E-04  0.0000E+00 -0.1967E+12
   -0.900004    3.99899  0.8284E-13  0.9632E-08  0.1204E-11  0.2917E-04  0.0000E+00 -0.1981E+12
   -0.937505    3.99995  0.8284E-13  0.9900E-08  0.1269E-11  0.2993E-04  0.0000E+00 -0.2084E+12
   -0.975006    4.00089  0.8284E-13  0.1013E-07  0.1338E-11  0.2985E-04  0.0000E+00 -0.2244E+12
   -1.012507    4.00184  0.8284E-13  0.1034E-07  0.1412E-11  0.2953E-04  0.0000E+00 -0.2443E+12
   -1.050008    4.00282  0.8284E-13  0.1051E-07  0.1492E-11  0.2901E-04  0.0000E+00 -0.2677E+12
   -1.087508    4.00382  0.8284E-13  0.1066E-07  0.1582E-11  0.2825E-04  0.0000E+00 -0.2957E+12
   -1.125009    4.00487  0.8284E-13  0.1077E-07  0.1687E-11  0.2721E-04  0.0000E+00 -0.3283E+12
   -1.162509    4.00597  0.8284E-13  0.1085E-07  0.1814E-11  0.2548E-04  0.0000E+00 -0.3749E+12
   -1.200009    4.00715  0.8284E-13  0.1088E-07  0.1973E-11  0.2220E-04  0.0000E+00 -0.4616E+12
   -1.237509    4.00852  0.8284E-13  0.1084E-07  0.2171E-11  0.1893E-04  0.0000E+00 -0.5840E+12
   -1.275008    4.01014  0.8284E-13  0.1070E-07  0.2425E-11  0.1594E-04  0.0000E+00 -0.7545E+12
   -1.312507    4.01208  0.8284E-13  0.1043E-07  0.2768E-11  0.1289E-04  0.0000E+00 -0.1024E+13
   -1.350006    4.01450  0.8284E-13  0.9956E-08  0.3269E-11  0.9599E-05  0.0000E+00 -0.1534E+13
   -1.387505    4.01779  0.8284E-13  0.9151E-08  0.4108E-11  0.6102E-05  0.0000E+00 -0.2769E+13
   -1.425003    4.02298  0.8284E-13  0.7698E-08  0.5926E-11  0.2724E-05  0.0000E+00 -0.7615E+13
   -1.462501    4.03445  0.8284E-13  0.5006E-08  0.1226E-10  0.4646E-06  0.0000E+00 -0.6519E+14
   -1.499999    4.08951  0.8284E-13  0.0000E+00  0.0000E+00  0.0000E+00  0.0000E+00  0.0000E+00
