 1 - depth, m
 2 - temperature, C
 3 - salinity, kg/kg
 4 - turbulent kinetic energy, m**2/s**2
 5 - dissipation rate, m**2/s**3
 6 - kinematic heat conductance, m**2/s
 7 - modulus of horizontal velocity, m/s
 8 - Richardson number, n/d
   -0.000000   -0.00000  0.1798E-12  0.4096E-13  0.8590E-16  0.1000E-09  0.0000E+00  0.8062E+16
   -0.037498    0.12296  0.2010E-12  0.4096E-13  0.8590E-16  0.1000E-09  0.0000E+00  0.7808E+16
   -0.074996    0.24616  0.2266E-12  0.4096E-13  0.8590E-16  0.1000E-09  0.0000E+00  0.7540E+16
   -0.112495    0.36939  0.2421E-12  0.4096E-13  0.8590E-16  0.1000E-09  0.0000E+00  0.7264E+16
   -0.149993    0.49247  0.2407E-12  0.4096E-13  0.8590E-16  0.1000E-09  0.0000E+00  0.6982E+16
   -0.187493    0.61526  0.2257E-12  0.4096E-13  0.8590E-16  0.1000E-09  0.0000E+00  0.6698E+16
   -0.224992    0.73766  0.2027E-12  0.4096E-13  0.8590E-16  0.1000E-09  0.0000E+00  0.6412E+16
   -0.262492    0.85959  0.1770E-12  0.4096E-13  0.8590E-16  0.1000E-09  0.0000E+00  0.6130E+16
   -0.299992    0.98102  0.1528E-12  0.4096E-13  0.8590E-16  0.1000E-09  0.0000E+00  0.5849E+16
   -0.337492    1.10191  0.1324E-12  0.4096E-13  0.8590E-16  0.1000E-09  0.0000E+00  0.5571E+16
   -0.374992    1.22220  0.1168E-12  0.4096E-13  0.8590E-16  0.1000E-09  0.0000E+00  0.5295E+16
   -0.412493    1.34185  0.1054E-12  0.4096E-13  0.8590E-16  0.1000E-09  0.0000E+00  0.5023E+16
   -0.449994    1.46081  0.9758E-13  0.4096E-13  0.8590E-16  0.1000E-09  0.0000E+00  0.4753E+16
   -0.487495    1.57904  0.9233E-13  0.4096E-13  0.8590E-16  0.1000E-09  0.0000E+00  0.4488E+16
   -0.524996    1.69651  0.8887E-13  0.4096E-13  0.8590E-16  0.1000E-09  0.0000E+00  0.4235E+16
   -0.562497    1.81339  0.8659E-13  0.4096E-13  0.8590E-16  0.1000E-09  0.0000E+00  0.3984E+16
   -0.599998    1.92964  0.8507E-13  0.4096E-13  0.8590E-16  0.1000E-09  0.0000E+00  0.3737E+16
   -0.637499    2.04523  0.8403E-13  0.4096E-13  0.8590E-16  0.1000E-09  0.0000E+00  0.3494E+16
   -0.675001    2.16012  0.8329E-13  0.4096E-13  0.8590E-16  0.1000E-09  0.0000E+00  0.3254E+16
   -0.712502    2.27425  0.8274E-13  0.4096E-13  0.8590E-16  0.1000E-09  0.0000E+00  0.3018E+16
   -0.750003    2.38761  0.8235E-13  0.4096E-13  0.8590E-16  0.1000E-09  0.0000E+00  0.2789E+16
   -0.787505    2.50024  0.8205E-13  0.4096E-13  0.8590E-16  0.1000E-09  0.0000E+00  0.2565E+16
   -0.825006    2.61215  0.8184E-13  0.4096E-13  0.8590E-16  0.1000E-09  0.0000E+00  0.2345E+16
   -0.862508    2.72330  0.8169E-13  0.4096E-13  0.8590E-16  0.1000E-09  0.0000E+00  0.2128E+16
   -0.900009    2.83365  0.8158E-13  0.4096E-13  0.8590E-16  0.1000E-09  0.0000E+00  0.1916E+16
   -0.937510    2.94315  0.8151E-13  0.1099E-12  0.8777E-16  0.1000E-09  0.0000E+00  0.1709E+16
   -0.975011    3.05176  0.8146E-13  0.3445E-12  0.1802E-15  0.1000E-09  0.0000E+00  0.1507E+16
   -1.012512    3.15945  0.8144E-13  0.9230E-12  0.4412E-15  0.1000E-09  0.0000E+00  0.1306E+16
   -1.050013    3.26590  0.8142E-13  0.2353E-11  0.1083E-14  0.1000E-09  0.0000E+00  0.1111E+16
   -1.087514    3.37098  0.8141E-13  0.5874E-11  0.2628E-14  0.1000E-09  0.0000E+00  0.9227E+15
   -1.125014    3.47457  0.8140E-13  0.1448E-10  0.6303E-14  0.1000E-09  0.0000E+00  0.7487E+15
   -1.162515    3.57767  0.8140E-13  0.3529E-10  0.1497E-13  0.1000E-09  0.0000E+00  0.5781E+15
   -1.200015    3.68037  0.8140E-13  0.8513E-10  0.3518E-13  0.2365E-09  0.0000E+00  0.4094E+15
   -1.237515    3.78249  0.8140E-13  0.2032E-09  0.8191E-13  0.9226E-09  0.0000E+00  0.2432E+15
   -1.275015    3.88353  0.8140E-13  0.4783E-09  0.1885E-12  0.6151E-08  0.0000E+00  0.8254E+14
   -1.312514    3.98027  0.8140E-13  0.1040E-08  0.4060E-12  0.5577E-06  0.0000E+00 -0.1360E+13
   -1.350013    4.00155  0.8140E-13  0.1631E-08  0.7439E-12  0.1277E-05  0.0000E+00 -0.3168E+13
   -1.387512    4.01154  0.8140E-13  0.1965E-08  0.1134E-11  0.1209E-05  0.0000E+00 -0.5047E+13
   -1.425011    4.02210  0.8140E-13  0.1976E-08  0.1721E-11  0.7507E-06  0.0000E+00 -0.1107E+14
   -1.462509    4.03822  0.8140E-13  0.1535E-08  0.3093E-11  0.1955E-06  0.0000E+00 -0.4966E+14
   -1.500007    4.08140  0.8140E-13  0.0000E+00  0.0000E+00  0.0000E+00  0.0000E+00  0.0000E+00
