 1 - depth, m
 2 - temperature, C
 3 - salinity, kg/kg
 4 - turbulent kinetic energy, m**2/s**2
 5 - dissipation rate, m**2/s**3
 6 - kinematic heat conductance, m**2/s
 7 - modulus of horizontal velocity, m/s
 8 - Richardson number, n/d
   -0.000000   -0.00000  0.6451E-12  0.4096E-13  0.8590E-16  0.1000E-09  0.0000E+00  0.1088E+17
   -0.037498    0.16699  0.4836E-12  0.4096E-13  0.8590E-16  0.1000E-09  0.0000E+00  0.1035E+17
   -0.074996    0.33335  0.3186E-12  0.4096E-13  0.8590E-16  0.1000E-09  0.0000E+00  0.9816E+16
   -0.112494    0.49894  0.2137E-12  0.4096E-13  0.8590E-16  0.1000E-09  0.0000E+00  0.9285E+16
   -0.149993    0.66363  0.1576E-12  0.4096E-13  0.8590E-16  0.1000E-09  0.0000E+00  0.8757E+16
   -0.187492    0.82728  0.1278E-12  0.4096E-13  0.8590E-16  0.1000E-09  0.0000E+00  0.8233E+16
   -0.224991    0.98973  0.1111E-12  0.4096E-13  0.8590E-16  0.1000E-09  0.0000E+00  0.7715E+16
   -0.262490    1.15083  0.1015E-12  0.4096E-13  0.8590E-16  0.1000E-09  0.0000E+00  0.7206E+16
   -0.299990    1.31049  0.9594E-13  0.4096E-13  0.8590E-16  0.1000E-09  0.0000E+00  0.6706E+16
   -0.337490    1.46858  0.9273E-13  0.1533E-12  0.8590E-16  0.1000E-09  0.0000E+00  0.6215E+16
   -0.374990    1.62493  0.9083E-13  0.4307E-12  0.1097E-15  0.1000E-09  0.0000E+00  0.5745E+16
   -0.412491    1.77970  0.8958E-13  0.9215E-12  0.1838E-15  0.1000E-09  0.0000E+00  0.5291E+16
   -0.449991    1.93293  0.8861E-13  0.1771E-11  0.3242E-15  0.1000E-09  0.0000E+00  0.4847E+16
   -0.487492    2.08449  0.8773E-13  0.3252E-11  0.5724E-15  0.1000E-09  0.0000E+00  0.4414E+16
   -0.524993    2.23428  0.8687E-13  0.5831E-11  0.1001E-14  0.1000E-09  0.0000E+00  0.3996E+16
   -0.562494    2.38227  0.8604E-13  0.1032E-10  0.1734E-14  0.1000E-09  0.0000E+00  0.3591E+16
   -0.599995    2.52837  0.8528E-13  0.1810E-10  0.2984E-14  0.1000E-09  0.0000E+00  0.3199E+16
   -0.637496    2.67251  0.8461E-13  0.3158E-10  0.5109E-14  0.1000E-09  0.0000E+00  0.2822E+16
   -0.674997    2.81462  0.8406E-13  0.5479E-10  0.8701E-14  0.1000E-09  0.0000E+00  0.2459E+16
   -0.712498    2.95463  0.8366E-13  0.9457E-10  0.1475E-13  0.1000E-09  0.0000E+00  0.2111E+16
   -0.749999    3.09251  0.8339E-13  0.1624E-09  0.2488E-13  0.1000E-09  0.0000E+00  0.1785E+16
   -0.787501    3.22872  0.8323E-13  0.2777E-09  0.4177E-13  0.1000E-09  0.0000E+00  0.1472E+16
   -0.825002    3.36340  0.8314E-13  0.4725E-09  0.6982E-13  0.1657E-09  0.0000E+00  0.1170E+16
   -0.862503    3.49650  0.8310E-13  0.8001E-09  0.1162E-12  0.3671E-09  0.0000E+00  0.8789E+15
   -0.900004    3.62789  0.8308E-13  0.1348E-08  0.1924E-12  0.8932E-09  0.0000E+00  0.5982E+15
   -0.937505    3.75731  0.8307E-13  0.2260E-08  0.3169E-12  0.2676E-08  0.0000E+00  0.3291E+15
   -0.975006    3.88368  0.8307E-13  0.3743E-08  0.5165E-12  0.1765E-07  0.0000E+00  0.8176E+14
   -1.012507    3.99693  0.8307E-13  0.4448E-08  0.6170E-12  0.1103E-04  0.0000E+00 -0.2860E+12
   -1.050007    3.99855  0.8307E-13  0.4797E-08  0.6781E-12  0.1193E-04  0.0000E+00 -0.3009E+12
   -1.087508    4.00004  0.8307E-13  0.5095E-08  0.7432E-12  0.1242E-04  0.0000E+00 -0.3223E+12
   -1.125008    4.00147  0.8307E-13  0.5346E-08  0.8140E-12  0.1255E-04  0.0000E+00 -0.3524E+12
   -1.162509    4.00290  0.8307E-13  0.5548E-08  0.8928E-12  0.1233E-04  0.0000E+00 -0.3938E+12
   -1.200008    4.00435  0.8307E-13  0.5697E-08  0.9829E-12  0.1176E-04  0.0000E+00 -0.4518E+12
   -1.237508    4.00589  0.8307E-13  0.5786E-08  0.1090E-11  0.1084E-04  0.0000E+00 -0.5358E+12
   -1.275008    4.00757  0.8307E-13  0.5801E-08  0.1221E-11  0.9578E-05  0.0000E+00 -0.6650E+12
   -1.312507    4.00948  0.8307E-13  0.5718E-08  0.1395E-11  0.7968E-05  0.0000E+00 -0.8819E+12
   -1.350006    4.01180  0.8307E-13  0.5496E-08  0.1644E-11  0.6035E-05  0.0000E+00 -0.1301E+13
   -1.387505    4.01487  0.8307E-13  0.5050E-08  0.2055E-11  0.3858E-05  0.0000E+00 -0.2332E+13
   -1.425003    4.01968  0.8307E-13  0.4199E-08  0.2925E-11  0.1702E-05  0.0000E+00 -0.6408E+13
   -1.462501    4.03027  0.8307E-13  0.2710E-08  0.5710E-11  0.2910E-06  0.0000E+00 -0.4802E+14
   -1.499999    4.07614  0.8307E-13  0.0000E+00  0.0000E+00  0.0000E+00  0.0000E+00  0.0000E+00
