 1 - depth, m
 2 - temperature, C
 3 - salinity, kg/kg
 4 - turbulent kinetic energy, m**2/s**2
 5 - dissipation rate, m**2/s**3
 6 - kinematic heat conductance, m**2/s
 7 - modulus of horizontal velocity, m/s
 8 - Richardson number, n/d
   -0.000000   -0.00000  0.1863E-11  0.4096E-13  0.8590E-16  0.1000E-09  0.0000E+00  0.1700E+17
   -0.037498    0.26433  0.6283E-13  0.6665E-13  0.8590E-16  0.1000E-09  0.0000E+00  0.1504E+17
   -0.074996    0.51621  0.1168E-12  0.2430E-12  0.9146E-16  0.1000E-09  0.0000E+00  0.1303E+17
   -0.112494    0.75113  0.8174E-13  0.5998E-12  0.1523E-15  0.1000E-09  0.0000E+00  0.1108E+17
   -0.149993    0.96615  0.9088E-13  0.1259E-11  0.2848E-15  0.1000E-09  0.0000E+00  0.9303E+16
   -0.187492    1.15990  0.8831E-13  0.2483E-11  0.5364E-15  0.1000E-09  0.0000E+00  0.7744E+16
   -0.224991    1.33244  0.8864E-13  0.4768E-11  0.1002E-14  0.1000E-09  0.0000E+00  0.6426E+16
   -0.262491    1.48502  0.8852E-13  0.9024E-11  0.1854E-14  0.1000E-09  0.0000E+00  0.5389E+16
   -0.299991    1.62089  0.8849E-13  0.1691E-10  0.3401E-14  0.1000E-09  0.0000E+00  0.4590E+16
   -0.337491    1.74341  0.8847E-13  0.3143E-10  0.6191E-14  0.1000E-09  0.0000E+00  0.4007E+16
   -0.374991    1.85639  0.8845E-13  0.5801E-10  0.1120E-13  0.1000E-09  0.0000E+00  0.3797E+16
   -0.412491    1.96956  0.8842E-13  0.1063E-09  0.2011E-13  0.1000E-09  0.0000E+00  0.3838E+16
   -0.449992    2.09115  0.8831E-13  0.1937E-09  0.3587E-13  0.1000E-09  0.0000E+00  0.3978E+16
   -0.487493    2.22636  0.8800E-13  0.3504E-09  0.6359E-13  0.1000E-09  0.0000E+00  0.4155E+16
   -0.524994    2.38007  0.8728E-13  0.6277E-09  0.1116E-12  0.1002E-09  0.0000E+00  0.4272E+16
   -0.562495    2.55559  0.8601E-13  0.1115E-08  0.1943E-12  0.1272E-09  0.0000E+00  0.4259E+16
   -0.599996    2.75560  0.8447E-13  0.1966E-08  0.3357E-12  0.2284E-09  0.0000E+00  0.4019E+16
   -0.637497    2.98063  0.8326E-13  0.3443E-08  0.5762E-12  0.4504E-09  0.0000E+00  0.3482E+16
   -0.674998    3.22838  0.8259E-13  0.5988E-08  0.9822E-12  0.1013E-08  0.0000E+00  0.2630E+16
   -0.712499    3.49312  0.8197E-13  0.1033E-07  0.1662E-11  0.2937E-08  0.0000E+00  0.1533E+16
   -0.750001    3.76450  0.8117E-13  0.1756E-07  0.2771E-11  0.2012E-07  0.0000E+00  0.3818E+15
   -0.787502    4.00858  0.8100E-13  0.1851E-07  0.2925E-11  0.4314E-04  0.0000E+00 -0.3179E+12
   -0.825003    4.00953  0.8100E-13  0.1895E-07  0.3009E-11  0.4389E-04  0.0000E+00 -0.3257E+12
   -0.862504    4.01044  0.8100E-13  0.1932E-07  0.3098E-11  0.4466E-04  0.0000E+00 -0.3331E+12
   -0.900006    4.01133  0.8100E-13  0.1965E-07  0.3193E-11  0.4498E-04  0.0000E+00 -0.3436E+12
   -0.937507    4.01221  0.8100E-13  0.1994E-07  0.3296E-11  0.4491E-04  0.0000E+00 -0.3571E+12
   -0.975008    4.01310  0.8100E-13  0.2017E-07  0.3407E-11  0.4453E-04  0.0000E+00 -0.3735E+12
   -1.012508    4.01399  0.8100E-13  0.2037E-07  0.3528E-11  0.4393E-04  0.0000E+00 -0.3974E+12
   -1.050009    4.01491  0.8100E-13  0.2051E-07  0.3663E-11  0.4304E-04  0.0000E+00 -0.4274E+12
   -1.087510    4.01587  0.8100E-13  0.2060E-07  0.3814E-11  0.4189E-04  0.0000E+00 -0.4633E+12
   -1.125010    4.01687  0.8100E-13  0.2063E-07  0.3983E-11  0.4037E-04  0.0000E+00 -0.4990E+12
   -1.162511    4.01791  0.8100E-13  0.2059E-07  0.4176E-11  0.3854E-04  0.0000E+00 -0.5416E+12
   -1.200011    4.01901  0.8100E-13  0.2046E-07  0.4403E-11  0.3631E-04  0.0000E+00 -0.5965E+12
   -1.237510    4.02017  0.8100E-13  0.2023E-07  0.4683E-11  0.3331E-04  0.0000E+00 -0.6771E+12
   -1.275010    4.02145  0.8100E-13  0.1985E-07  0.5059E-11  0.2882E-04  0.0000E+00 -0.8234E+12
   -1.312509    4.02296  0.8100E-13  0.1923E-07  0.5609E-11  0.2192E-04  0.0000E+00 -0.1140E+13
   -1.350008    4.02495  0.8100E-13  0.1824E-07  0.6453E-11  0.1562E-04  0.0000E+00 -0.1702E+13
   -1.387507    4.02772  0.8100E-13  0.1670E-07  0.7883E-11  0.9946E-05  0.0000E+00 -0.2924E+13
   -1.425005    4.03207  0.8100E-13  0.1407E-07  0.1101E-10  0.4534E-05  0.0000E+00 -0.7416E+13
   -1.462503    4.04156  0.8100E-13  0.8693E-08  0.2317E-10  0.6779E-06  0.0000E+00 -0.6913E+14
   -1.500001    4.09542  0.8100E-13  0.0000E+00  0.0000E+00  0.0000E+00  0.0000E+00  0.0000E+00
