 1 - depth, m
 2 - temperature, C
 3 - salinity, kg/kg
 4 - turbulent kinetic energy, m**2/s**2
 5 - dissipation rate, m**2/s**3
 6 - kinematic heat conductance, m**2/s
 7 - modulus of horizontal velocity, m/s
 8 - Richardson number, n/d
   -0.000000   -0.00000  0.6212E-12  0.4096E-13  0.8590E-16  0.1000E-09  0.0000E+00  0.1015E+17
   -0.037498    0.15550  0.4594E-12  0.4096E-13  0.8590E-16  0.1000E-09  0.0000E+00  0.9694E+16
   -0.074996    0.31057  0.3306E-12  0.4096E-13  0.8590E-16  0.1000E-09  0.0000E+00  0.9235E+16
   -0.112494    0.46505  0.2392E-12  0.4096E-13  0.8590E-16  0.1000E-09  0.0000E+00  0.8774E+16
   -0.149993    0.61879  0.1778E-12  0.4096E-13  0.8590E-16  0.1000E-09  0.0000E+00  0.8313E+16
   -0.187492    0.77162  0.1399E-12  0.4096E-13  0.8590E-16  0.1000E-09  0.0000E+00  0.7854E+16
   -0.224991    0.92342  0.1178E-12  0.4096E-13  0.8590E-16  0.1000E-09  0.0000E+00  0.7398E+16
   -0.262491    1.07403  0.1052E-12  0.4096E-13  0.8590E-16  0.1000E-09  0.0000E+00  0.6950E+16
   -0.299990    1.22336  0.9797E-13  0.4096E-13  0.8590E-16  0.1000E-09  0.0000E+00  0.6509E+16
   -0.337490    1.37132  0.9380E-13  0.4096E-13  0.8590E-16  0.1000E-09  0.0000E+00  0.6075E+16
   -0.374990    1.51777  0.9129E-13  0.4096E-13  0.8590E-16  0.1000E-09  0.0000E+00  0.5659E+16
   -0.412491    1.66282  0.8967E-13  0.4096E-13  0.8590E-16  0.1000E-09  0.0000E+00  0.5255E+16
   -0.449991    1.80651  0.8849E-13  0.7487E-13  0.8590E-16  0.1000E-09  0.0000E+00  0.4860E+16
   -0.487492    1.94873  0.8752E-13  0.2725E-12  0.9135E-16  0.1000E-09  0.0000E+00  0.4474E+16
   -0.524993    2.08942  0.8666E-13  0.6446E-12  0.1514E-15  0.1000E-09  0.0000E+00  0.4102E+16
   -0.562494    2.22857  0.8588E-13  0.1305E-11  0.2743E-15  0.1000E-09  0.0000E+00  0.3739E+16
   -0.599995    2.36613  0.8518E-13  0.2487E-11  0.4994E-15  0.1000E-09  0.0000E+00  0.3387E+16
   -0.637496    2.50203  0.8457E-13  0.4619E-11  0.9025E-15  0.1000E-09  0.0000E+00  0.3047E+16
   -0.674997    2.63621  0.8409E-13  0.8467E-11  0.1618E-14  0.1000E-09  0.0000E+00  0.2718E+16
   -0.712499    2.76861  0.8372E-13  0.1539E-10  0.2883E-14  0.1000E-09  0.0000E+00  0.2401E+16
   -0.750000    2.89920  0.8345E-13  0.2780E-10  0.5104E-14  0.1000E-09  0.0000E+00  0.2102E+16
   -0.787501    3.02828  0.8328E-13  0.4992E-10  0.8989E-14  0.1000E-09  0.0000E+00  0.1814E+16
   -0.825002    3.15596  0.8318E-13  0.8913E-10  0.1574E-13  0.1000E-09  0.0000E+00  0.1536E+16
   -0.862503    3.28222  0.8312E-13  0.1583E-09  0.2743E-13  0.1000E-09  0.0000E+00  0.1267E+16
   -0.900004    3.40703  0.8309E-13  0.2796E-09  0.4755E-13  0.1309E-09  0.0000E+00  0.1008E+16
   -0.937506    3.53035  0.8308E-13  0.4913E-09  0.8200E-13  0.3004E-09  0.0000E+00  0.7580E+15
   -0.975006    3.65206  0.8307E-13  0.8585E-09  0.1407E-12  0.7552E-09  0.0000E+00  0.5173E+15
   -1.012507    3.77192  0.8307E-13  0.1495E-08  0.2405E-12  0.2330E-08  0.0000E+00  0.2867E+15
   -1.050008    3.88910  0.8307E-13  0.2582E-08  0.4083E-12  0.1549E-07  0.0000E+00  0.7351E+14
   -1.087509    3.99527  0.8307E-13  0.3319E-08  0.5274E-12  0.6943E-05  0.0000E+00 -0.3681E+12
   -1.125009    3.99763  0.8307E-13  0.3700E-08  0.6054E-12  0.7852E-05  0.0000E+00 -0.4004E+12
   -1.162509    3.99972  0.8307E-13  0.4018E-08  0.6890E-12  0.8299E-05  0.0000E+00 -0.4448E+12
   -1.200009    4.00170  0.8307E-13  0.4275E-08  0.7816E-12  0.8338E-05  0.0000E+00 -0.5078E+12
   -1.237509    4.00368  0.8307E-13  0.4467E-08  0.8880E-12  0.7998E-05  0.0000E+00 -0.5998E+12
   -1.275008    4.00577  0.8307E-13  0.4585E-08  0.1016E-11  0.7294E-05  0.0000E+00 -0.7419E+12
   -1.312508    4.00807  0.8307E-13  0.4610E-08  0.1180E-11  0.6232E-05  0.0000E+00 -0.9812E+12
   -1.350007    4.01078  0.8307E-13  0.4505E-08  0.1410E-11  0.4832E-05  0.0000E+00 -0.1444E+13
   -1.387505    4.01430  0.8307E-13  0.4199E-08  0.1782E-11  0.3160E-05  0.0000E+00 -0.2578E+13
   -1.425004    4.01967  0.8307E-13  0.3541E-08  0.2543E-11  0.1437E-05  0.0000E+00 -0.6965E+13
   -1.462502    4.03106  0.8307E-13  0.2352E-08  0.4870E-11  0.2636E-06  0.0000E+00 -0.4764E+14
   -1.499999    4.07626  0.8307E-13  0.0000E+00  0.0000E+00  0.0000E+00  0.0000E+00  0.0000E+00
