 1 - depth, m
 2 - temperature, C
 3 - salinity, kg/kg
 4 - turbulent kinetic energy, m**2/s**2
 5 - dissipation rate, m**2/s**3
 6 - kinematic heat conductance, m**2/s
 7 - modulus of horizontal velocity, m/s
 8 - Richardson number, n/d
   -0.000000   -0.00000  0.2425E-12  0.4096E-13  0.8590E-16  0.1000E-09  0.0000E+00  0.9173E+16
   -0.037498    0.14025  0.3262E-12  0.4096E-13  0.8590E-16  0.1000E-09  0.0000E+00  0.8826E+16
   -0.074996    0.28052  0.3417E-12  0.4096E-13  0.8590E-16  0.1000E-09  0.0000E+00  0.8474E+16
   -0.112494    0.42073  0.3032E-12  0.4096E-13  0.8590E-16  0.1000E-09  0.0000E+00  0.8119E+16
   -0.149993    0.56079  0.2463E-12  0.4096E-13  0.8590E-16  0.1000E-09  0.0000E+00  0.7761E+16
   -0.187492    0.70058  0.1941E-12  0.4096E-13  0.8590E-16  0.1000E-09  0.0000E+00  0.7401E+16
   -0.224992    0.84001  0.1547E-12  0.4096E-13  0.8590E-16  0.1000E-09  0.0000E+00  0.7041E+16
   -0.262491    0.97898  0.1279E-12  0.4096E-13  0.8590E-16  0.1000E-09  0.0000E+00  0.6684E+16
   -0.299991    1.11745  0.1108E-12  0.4096E-13  0.8590E-16  0.1000E-09  0.0000E+00  0.6328E+16
   -0.337491    1.25532  0.1003E-12  0.4096E-13  0.8590E-16  0.1000E-09  0.0000E+00  0.5973E+16
   -0.374991    1.39250  0.9392E-13  0.4096E-13  0.8590E-16  0.1000E-09  0.0000E+00  0.5620E+16
   -0.412492    1.52888  0.9005E-13  0.4096E-13  0.8590E-16  0.1000E-09  0.0000E+00  0.5271E+16
   -0.449993    1.66437  0.8763E-13  0.4096E-13  0.8590E-16  0.1000E-09  0.0000E+00  0.4925E+16
   -0.487493    1.79884  0.8601E-13  0.4096E-13  0.8590E-16  0.1000E-09  0.0000E+00  0.4585E+16
   -0.524994    1.93222  0.8486E-13  0.4096E-13  0.8590E-16  0.1000E-09  0.0000E+00  0.4259E+16
   -0.562495    2.06471  0.8399E-13  0.4096E-13  0.8590E-16  0.1000E-09  0.0000E+00  0.3938E+16
   -0.599996    2.19620  0.8331E-13  0.1566E-12  0.8590E-16  0.1000E-09  0.0000E+00  0.3622E+16
   -0.637498    2.32660  0.8277E-13  0.4355E-12  0.1331E-15  0.1000E-09  0.0000E+00  0.3312E+16
   -0.674999    2.45583  0.8235E-13  0.9683E-12  0.2527E-15  0.1000E-09  0.0000E+00  0.3009E+16
   -0.712500    2.58379  0.8203E-13  0.1983E-11  0.4896E-15  0.1000E-09  0.0000E+00  0.2714E+16
   -0.750002    2.71041  0.8180E-13  0.3932E-11  0.9415E-15  0.1000E-09  0.0000E+00  0.2430E+16
   -0.787503    2.83585  0.8164E-13  0.7677E-11  0.1795E-14  0.1000E-09  0.0000E+00  0.2156E+16
   -0.825004    2.96012  0.8154E-13  0.1485E-10  0.3396E-14  0.1000E-09  0.0000E+00  0.1888E+16
   -0.862505    3.08317  0.8147E-13  0.2850E-10  0.6380E-14  0.1000E-09  0.0000E+00  0.1628E+16
   -0.900007    3.20496  0.8144E-13  0.5432E-10  0.1191E-13  0.1000E-09  0.0000E+00  0.1377E+16
   -0.937508    3.32545  0.8142E-13  0.1029E-09  0.2209E-13  0.1000E-09  0.0000E+00  0.1133E+16
   -0.975009    3.44461  0.8141E-13  0.1936E-09  0.4073E-13  0.1259E-09  0.0000E+00  0.8978E+15
   -1.012510    3.56241  0.8140E-13  0.3630E-09  0.7482E-13  0.3103E-09  0.0000E+00  0.6689E+15
   -1.050011    3.67844  0.8140E-13  0.6788E-09  0.1371E-12  0.8460E-09  0.0000E+00  0.4495E+15
   -1.087511    3.79233  0.8140E-13  0.1262E-08  0.2499E-12  0.2877E-08  0.0000E+00  0.2408E+15
   -1.125012    3.90291  0.8140E-13  0.2309E-08  0.4493E-12  0.2331E-07  0.0000E+00  0.5322E+14
   -1.162512    3.99951  0.8140E-13  0.3164E-08  0.6186E-12  0.5978E-05  0.0000E+00 -0.5902E+12
   -1.200012    4.00212  0.8140E-13  0.3578E-08  0.7267E-12  0.6530E-05  0.0000E+00 -0.6379E+12
   -1.237512    4.00452  0.8140E-13  0.3890E-08  0.8418E-12  0.6616E-05  0.0000E+00 -0.7221E+12
   -1.275012    4.00690  0.8140E-13  0.4102E-08  0.9726E-12  0.6277E-05  0.0000E+00 -0.8615E+12
   -1.312511    4.00942  0.8140E-13  0.4201E-08  0.1133E-11  0.5532E-05  0.0000E+00 -0.1102E+13
   -1.350010    4.01229  0.8140E-13  0.4159E-08  0.1350E-11  0.4400E-05  0.0000E+00 -0.1571E+13
   -1.387509    4.01590  0.8140E-13  0.3909E-08  0.1693E-11  0.2941E-05  0.0000E+00 -0.2714E+13
   -1.425007    4.02127  0.8140E-13  0.3311E-08  0.2382E-11  0.1362E-05  0.0000E+00 -0.7060E+13
   -1.462505    4.03240  0.8140E-13  0.2196E-08  0.4472E-11  0.2497E-06  0.0000E+00 -0.4600E+14
   -1.500003    4.07577  0.8140E-13  0.0000E+00  0.0000E+00  0.0000E+00  0.0000E+00  0.0000E+00
