 1 - depth, m
 2 - temperature, C
 3 - salinity, kg/kg
 4 - turbulent kinetic energy, m**2/s**2
 5 - dissipation rate, m**2/s**3
 6 - kinematic heat conductance, m**2/s
 7 - modulus of horizontal velocity, m/s
 8 - Richardson number, n/d
   -0.000000    7.96217  0.8856E-13  0.1326E-04  0.8565E-06  0.2025E-04  0.2034E-01 -0.1270E-01
   -0.037498    7.99425  0.8856E-13  0.1075E-04  0.3272E-06  0.3671E-04  0.1244E-01 -0.3350E-01
   -0.074996    8.01077  0.8856E-13  0.9060E-05  0.1758E-06  0.5079E-04  0.9045E-02 -0.6163E-01
   -0.112494    8.02251  0.8856E-13  0.7810E-05  0.1088E-06  0.6469E-04  0.6930E-02 -0.1012E+00
   -0.149993    8.03157  0.8856E-13  0.6857E-05  0.7289E-07  0.8006E-04  0.5478E-02 -0.1572E+00
   -0.187492    8.03877  0.8856E-13  0.6127E-05  0.5157E-07  0.1011E-03  0.4437E-02 -0.1887E+00
   -0.224991    8.04440  0.8856E-13  0.5594E-05  0.3852E-07  0.1814E-03  0.3680E-02  0.1428E+04
   -0.262490    8.04785  0.8856E-13  0.5233E-05  0.3051E-07  0.2683E-03  0.3161E-02  0.6609E+02
   -0.299990    8.05007  0.8856E-13  0.4983E-05  0.2523E-07  0.3240E-03  0.2783E-02  0.5321E+03
   -0.337490    8.05174  0.8856E-13  0.4794E-05  0.2127E-07  0.3516E-03  0.2467E-02  0.2790E+01
   -0.374990    8.05326  0.8856E-13  0.4643E-05  0.1818E-07  0.3774E-03  0.2188E-02  0.2591E+01
   -0.412491    8.05465  0.8856E-13  0.4525E-05  0.1577E-07  0.4005E-03  0.1950E-02  0.2332E+01
   -0.449991    8.05595  0.8856E-13  0.4431E-05  0.1387E-07  0.4280E-03  0.1747E-02  0.2079E+01
   -0.487492    8.05715  0.8856E-13  0.4358E-05  0.1237E-07  0.4583E-03  0.1577E-02  0.1876E+01
   -0.524993    8.05825  0.8856E-13  0.4299E-05  0.1118E-07  0.4758E-03  0.1434E-02  0.1934E+01
   -0.562494    8.05931  0.8856E-13  0.4249E-05  0.1020E-07  0.4922E-03  0.1304E-02  0.1965E+01
   -0.599995    8.06031  0.8856E-13  0.4201E-05  0.9392E-08  0.5102E-03  0.1184E-02  0.1980E+01
   -0.637496    8.06126  0.8856E-13  0.4154E-05  0.8718E-08  0.5288E-03  0.1074E-02  0.1977E+01
   -0.674997    8.06217  0.8856E-13  0.4105E-05  0.8156E-08  0.5478E-03  0.9727E-03  0.1961E+01
   -0.712498    8.06304  0.8856E-13  0.4052E-05  0.7687E-08  0.5671E-03  0.8804E-03  0.1934E+01
   -0.750000    8.06387  0.8856E-13  0.3994E-05  0.7297E-08  0.5866E-03  0.7960E-03  0.1899E+01
   -0.787501    8.06466  0.8856E-13  0.3930E-05  0.6976E-08  0.6063E-03  0.7191E-03  0.1859E+01
   -0.825002    8.06542  0.8856E-13  0.3861E-05  0.6715E-08  0.6241E-03  0.6490E-03  0.1813E+01
   -0.862503    8.06614  0.8856E-13  0.3785E-05  0.6507E-08  0.6348E-03  0.5852E-03  0.1761E+01
   -0.900004    8.06685  0.8856E-13  0.3705E-05  0.6347E-08  0.6347E-03  0.5273E-03  0.1702E+01
   -0.937505    8.06754  0.8856E-13  0.3620E-05  0.6230E-08  0.6246E-03  0.4747E-03  0.1636E+01
   -0.975006    8.06824  0.8856E-13  0.3532E-05  0.6155E-08  0.6081E-03  0.4268E-03  0.1575E+01
   -1.012507    8.06894  0.8856E-13  0.3443E-05  0.6119E-08  0.5842E-03  0.3834E-03  0.1433E+01
   -1.050008    8.06967  0.8856E-13  0.3356E-05  0.6118E-08  0.5528E-03  0.3471E-03  0.1296E+01
   -1.087508    8.07043  0.8856E-13  0.3274E-05  0.6149E-08  0.5237E-03  0.3176E-03  0.1173E+01
   -1.125009    8.07123  0.8856E-13  0.3193E-05  0.6209E-08  0.4980E-03  0.2941E-03  0.1213E+01
   -1.162509    8.07205  0.8856E-13  0.3111E-05  0.6306E-08  0.4704E-03  0.2745E-03  0.1530E+01
   -1.200009    8.07292  0.8856E-13  0.3020E-05  0.6451E-08  0.4366E-03  0.2571E-03  0.2200E+01
   -1.237509    8.07385  0.8856E-13  0.2917E-05  0.6663E-08  0.3966E-03  0.2408E-03  0.3436E+01
   -1.275008    8.07486  0.8856E-13  0.2800E-05  0.6972E-08  0.3516E-03  0.2255E-03  0.5888E+01
   -1.312507    8.07598  0.8856E-13  0.2663E-05  0.7427E-08  0.3017E-03  0.2111E-03  0.1154E+02
   -1.350006    8.07728  0.8856E-13  0.2502E-05  0.8127E-08  0.2480E-03  0.1977E-03  0.2775E+02
   -1.387505    8.07885  0.8856E-13  0.2304E-05  0.9292E-08  0.1861E-03  0.1854E-03  0.9661E+02
   -1.425004    8.08091  0.8856E-13  0.2050E-05  0.1153E-07  0.1360E-03  0.1744E-03  0.5018E+03
   -1.462502    8.08370  0.8856E-13  0.1218E-05  0.2531E-07  0.9863E-05  0.1665E-03 -0.4709E+05
   -1.499999    8.12121  0.8856E-13  0.0000E+00  0.0000E+00  0.0000E+00  0.1659E-03  0.0000E+00
