 1 - depth, m
 2 - temperature, C
 3 - salinity, kg/kg
 4 - turbulent kinetic energy, m**2/s**2
 5 - dissipation rate, m**2/s**3
 6 - kinematic heat conductance, m**2/s
 7 - modulus of horizontal velocity, m/s
 8 - Richardson number, n/d
   -0.000000   12.37582  0.9623E-13  0.5039E-03  0.1784E-02  0.9210E-04  0.2877E+00  0.1156E-01
   -0.037498   12.44799  0.9625E-13  0.2668E-03  0.8351E-03  0.1400E-03  0.9101E-01 -0.2717E-01
   -0.074996   12.47667  0.9625E-13  0.1714E-03  0.2442E-03  0.1748E-03  0.5531E-01  0.4412E-01
   -0.112494   12.48962  0.9625E-13  0.1300E-03  0.1376E-03  0.1783E-03  0.4298E-01 -0.1663E-01
   -0.149993   12.49682  0.9625E-13  0.1049E-03  0.8713E-04  0.1793E-03  0.3582E-01 -0.2366E-01
   -0.187492   12.50231  0.9625E-13  0.8577E-04  0.5454E-04  0.1832E-03  0.3070E-01  0.2255E-01
   -0.224992   12.50630  0.9626E-13  0.7156E-04  0.3450E-04  0.1899E-03  0.2689E-01 -0.8321E-01
   -0.262491   12.50965  0.9626E-13  0.6104E-04  0.2172E-04  0.1984E-03  0.2404E-01 -0.1026E-01
   -0.299991   12.51248  0.9626E-13  0.5263E-04  0.1332E-04  0.2073E-03  0.2158E-01  0.8471E+00
   -0.337491   12.51516  0.9626E-13  0.4611E-04  0.8137E-05  0.2186E-03  0.1950E-01  0.3469E+00
   -0.374991   12.51769  0.9626E-13  0.4073E-04  0.4947E-05  0.2344E-03  0.1765E-01  0.1169E+02
   -0.412492   12.51990  0.9626E-13  0.3639E-04  0.3011E-05  0.2567E-03  0.1613E-01  0.6853E+02
   -0.449993   12.52187  0.9626E-13  0.3284E-04  0.1860E-05  0.2874E-03  0.1485E-01  0.6858E+01
   -0.487493   12.52364  0.9626E-13  0.2998E-04  0.1189E-05  0.3195E-03  0.1380E-01  0.1346E+03
   -0.524994   12.52516  0.9626E-13  0.2769E-04  0.7950E-06  0.3459E-03  0.1297E-01  0.1489E+02
   -0.562495   12.52662  0.9626E-13  0.2580E-04  0.5589E-06  0.3736E-03  0.1211E-01  0.5557E+02
   -0.599997   12.52791  0.9626E-13  0.2420E-04  0.4115E-06  0.4014E-03  0.1130E-01  0.3990E+02
   -0.637498   12.52914  0.9626E-13  0.2281E-04  0.3162E-06  0.4318E-03  0.1054E-01  0.1599E+02
   -0.674999   12.53024  0.9626E-13  0.2161E-04  0.2527E-06  0.4605E-03  0.9844E-02  0.1997E+02
   -0.712500   12.53126  0.9626E-13  0.2054E-04  0.2083E-06  0.4909E-03  0.9196E-02  0.5978E+02
   -0.750002   12.53221  0.9626E-13  0.1958E-04  0.1763E-06  0.5180E-03  0.8592E-02  0.4028E+02
   -0.787503   12.53307  0.9626E-13  0.1870E-04  0.1521E-06  0.5449E-03  0.8022E-02  0.3113E+02
   -0.825004   12.53388  0.9626E-13  0.1788E-04  0.1333E-06  0.5676E-03  0.7487E-02  0.1542E+03
   -0.862506   12.53464  0.9626E-13  0.1710E-04  0.1180E-06  0.5981E-03  0.6978E-02  0.4765E+02
   -0.900007   12.53535  0.9626E-13  0.1634E-04  0.1053E-06  0.6236E-03  0.6487E-02  0.4082E+02
   -0.937508   12.53601  0.9626E-13  0.1559E-04  0.9451E-07  0.6363E-03  0.6013E-02  0.1079E+03
   -0.975009   12.53665  0.9626E-13  0.1483E-04  0.8512E-07  0.6407E-03  0.5551E-02  0.1224E+03
   -1.012510   12.53726  0.9626E-13  0.1405E-04  0.7677E-07  0.6439E-03  0.5097E-02  0.5870E+02
   -1.050011   12.53786  0.9626E-13  0.1324E-04  0.6931E-07  0.6419E-03  0.4677E-02  0.5918E+02
   -1.087511   12.53845  0.9626E-13  0.1242E-04  0.6265E-07  0.6332E-03  0.4291E-02  0.2783E+02
   -1.125012   12.53903  0.9626E-13  0.1157E-04  0.5674E-07  0.6185E-03  0.3936E-02  0.1696E+02
   -1.162512   12.53962  0.9626E-13  0.1071E-04  0.5157E-07  0.5996E-03  0.3612E-02  0.7003E+01
   -1.200012   12.54021  0.9626E-13  0.9851E-05  0.4714E-07  0.5699E-03  0.3318E-02  0.8099E+01
   -1.237512   12.54083  0.9626E-13  0.8997E-05  0.4351E-07  0.5277E-03  0.3055E-02  0.4500E+01
   -1.275012   12.54150  0.9626E-13  0.8167E-05  0.4078E-07  0.4765E-03  0.2823E-02  0.4195E+01
   -1.312511   12.54223  0.9626E-13  0.7379E-05  0.3917E-07  0.4208E-03  0.2626E-02  0.4374E+01
   -1.350010   12.54307  0.9626E-13  0.6638E-05  0.3908E-07  0.3415E-03  0.2465E-02  0.1275E+02
   -1.387509   12.54411  0.9626E-13  0.5887E-05  0.4132E-07  0.2500E-03  0.2335E-02  0.4553E+02
   -1.425007   12.54547  0.9626E-13  0.4959E-05  0.4966E-07  0.1464E-03  0.2226E-02  0.1212E+04
   -1.462506   12.54800  0.9626E-13  0.2699E-05  0.1028E-06  0.1584E-04  0.2120E-02 -0.6609E+04
   -1.500003   12.56908  0.9626E-13  0.0000E+00  0.0000E+00  0.0000E+00  0.2049E-02  0.0000E+00
