 1 - depth, m
 2 - temperature, C
 3 - salinity, kg/kg
 4 - turbulent kinetic energy, m**2/s**2
 5 - dissipation rate, m**2/s**3
 6 - kinematic heat conductance, m**2/s
 7 - modulus of horizontal velocity, m/s
 8 - Richardson number, n/d
   -0.000000   -0.00000  0.3316E-12  0.4096E-13  0.8590E-16  0.1000E-09  0.0000E+00  0.7639E+16
   -0.037498    0.11641  0.4407E-12  0.4096E-13  0.8590E-16  0.1000E-09  0.0000E+00  0.7436E+16
   -0.074996    0.23343  0.3984E-12  0.4096E-13  0.8590E-16  0.1000E-09  0.0000E+00  0.7225E+16
   -0.112494    0.35098  0.3143E-12  0.4096E-13  0.8590E-16  0.1000E-09  0.0000E+00  0.7008E+16
   -0.149993    0.46898  0.2381E-12  0.4096E-13  0.8590E-16  0.1000E-09  0.0000E+00  0.6782E+16
   -0.187492    0.58731  0.1828E-12  0.4096E-13  0.8590E-16  0.1000E-09  0.0000E+00  0.6549E+16
   -0.224992    0.70588  0.1467E-12  0.4096E-13  0.8590E-16  0.1000E-09  0.0000E+00  0.6310E+16
   -0.262491    0.82455  0.1248E-12  0.4096E-13  0.8590E-16  0.1000E-09  0.0000E+00  0.6064E+16
   -0.299991    0.94320  0.1120E-12  0.4096E-13  0.8590E-16  0.1000E-09  0.0000E+00  0.5814E+16
   -0.337491    1.06171  0.1046E-12  0.4096E-13  0.8590E-16  0.1000E-09  0.0000E+00  0.5560E+16
   -0.374992    1.17996  0.1003E-12  0.4096E-13  0.8590E-16  0.1000E-09  0.0000E+00  0.5307E+16
   -0.412492    1.29792  0.9778E-13  0.4096E-13  0.8590E-16  0.1000E-09  0.0000E+00  0.5055E+16
   -0.449993    1.41554  0.9613E-13  0.4096E-13  0.8590E-16  0.1000E-09  0.0000E+00  0.4802E+16
   -0.487494    1.53272  0.9495E-13  0.4096E-13  0.8590E-16  0.1000E-09  0.0000E+00  0.4549E+16
   -0.524994    1.64936  0.9399E-13  0.4096E-13  0.8590E-16  0.1000E-09  0.0000E+00  0.4295E+16
   -0.562496    1.76535  0.9315E-13  0.4096E-13  0.8590E-16  0.1000E-09  0.0000E+00  0.4043E+16
   -0.599997    1.88059  0.9240E-13  0.4096E-13  0.8590E-16  0.1000E-09  0.0000E+00  0.3794E+16
   -0.637498    1.99500  0.9170E-13  0.4096E-13  0.8590E-16  0.1000E-09  0.0000E+00  0.3549E+16
   -0.674999    2.10853  0.9108E-13  0.4096E-13  0.8590E-16  0.1000E-09  0.0000E+00  0.3307E+16
   -0.712501    2.22108  0.9054E-13  0.4096E-13  0.8590E-16  0.1000E-09  0.0000E+00  0.3069E+16
   -0.750002    2.33259  0.9009E-13  0.4096E-13  0.8590E-16  0.1000E-09  0.0000E+00  0.2841E+16
   -0.787503    2.44318  0.8973E-13  0.4096E-13  0.8590E-16  0.1000E-09  0.0000E+00  0.2618E+16
   -0.825005    2.55284  0.8945E-13  0.4096E-13  0.8590E-16  0.1000E-09  0.0000E+00  0.2400E+16
   -0.862506    2.66154  0.8924E-13  0.4096E-13  0.8590E-16  0.1000E-09  0.0000E+00  0.2187E+16
   -0.900007    2.76920  0.8910E-13  0.4096E-13  0.8590E-16  0.1000E-09  0.0000E+00  0.1980E+16
   -0.937508    2.87580  0.8900E-13  0.4096E-13  0.8590E-16  0.1000E-09  0.0000E+00  0.1778E+16
   -0.975009    2.98129  0.8895E-13  0.4096E-13  0.8590E-16  0.1000E-09  0.0000E+00  0.1581E+16
   -1.012510    3.08562  0.8891E-13  0.1559E-12  0.1204E-15  0.1000E-09  0.0000E+00  0.1392E+16
   -1.050011    3.18887  0.8889E-13  0.5021E-12  0.3234E-15  0.1000E-09  0.0000E+00  0.1209E+16
   -1.087512    3.29102  0.8888E-13  0.1470E-11  0.9020E-15  0.1000E-09  0.0000E+00  0.1031E+16
   -1.125012    3.39205  0.8888E-13  0.4175E-11  0.2481E-14  0.1000E-09  0.0000E+00  0.8695E+15
   -1.162513    3.49328  0.8887E-13  0.1166E-10  0.6731E-14  0.1000E-09  0.0000E+00  0.7094E+15
   -1.200013    3.59498  0.8887E-13  0.3213E-10  0.1803E-13  0.1007E-09  0.0000E+00  0.5481E+15
   -1.237512    3.69728  0.8887E-13  0.8740E-10  0.4774E-13  0.3390E-09  0.0000E+00  0.3842E+15
   -1.275012    3.80012  0.8887E-13  0.2346E-09  0.1249E-12  0.1550E-08  0.0000E+00  0.2175E+15
   -1.312511    3.90292  0.8887E-13  0.6170E-09  0.3216E-12  0.1510E-07  0.0000E+00  0.5356E+14
   -1.350011    3.99770  0.8887E-13  0.1444E-08  0.7576E-12  0.9276E-06  0.0000E+00 -0.4050E+13
   -1.387509    4.01185  0.8887E-13  0.1951E-08  0.1251E-11  0.1079E-05  0.0000E+00 -0.6230E+13
   -1.425008    4.02438  0.8887E-13  0.2086E-08  0.1968E-11  0.7375E-06  0.0000E+00 -0.1306E+14
   -1.462506    4.04215  0.8887E-13  0.1702E-08  0.3597E-11  0.2119E-06  0.0000E+00 -0.5585E+14
   -1.500004    4.08758  0.8887E-13  0.0000E+00  0.0000E+00  0.0000E+00  0.0000E+00  0.0000E+00
