 1 - depth, m
 2 - temperature, C
 3 - salinity, kg/kg
 4 - turbulent kinetic energy, m**2/s**2
 5 - dissipation rate, m**2/s**3
 6 - kinematic heat conductance, m**2/s
 7 - modulus of horizontal velocity, m/s
 8 - Richardson number, n/d
   -0.000000   17.61772  0.8919E-13  0.6734E-04  0.1627E-04  0.3863E-04  0.6426E-01 -0.2191E-01
   -0.037498   17.68156  0.8918E-13  0.4092E-04  0.4665E-05  0.6181E-04  0.2552E-01 -0.3765E-01
   -0.074995   17.69496  0.8918E-13  0.3112E-04  0.2138E-05  0.7457E-04  0.1907E-01 -0.5634E-01
   -0.112494   17.70399  0.8918E-13  0.2517E-04  0.1149E-05  0.8905E-04  0.1550E-01 -0.8483E-01
   -0.149992   17.71098  0.8918E-13  0.2103E-04  0.6787E-06  0.1056E-03  0.1292E-01 -0.1167E+00
   -0.187491   17.71668  0.8918E-13  0.1804E-04  0.4294E-06  0.1296E-03  0.1095E-01  0.6491E+00
   -0.224990   17.72132  0.8918E-13  0.1585E-04  0.2879E-06  0.1884E-03  0.9412E-02  0.4174E+02
   -0.262490   17.72493  0.8918E-13  0.1428E-04  0.2035E-06  0.2585E-03  0.8232E-02  0.3257E+03
   -0.299989   17.72770  0.8918E-13  0.1314E-04  0.1510E-06  0.3417E-03  0.7286E-02  0.1234E+03
   -0.337489   17.72969  0.8918E-13  0.1232E-04  0.1169E-06  0.3913E-03  0.6519E-02  0.7937E+02
   -0.374989   17.73125  0.8918E-13  0.1172E-04  0.9355E-07  0.4249E-03  0.5864E-02  0.6500E+02
   -0.412489   17.73257  0.8917E-13  0.1129E-04  0.7700E-07  0.4584E-03  0.5297E-02  0.8890E+01
   -0.449990   17.73373  0.8917E-13  0.1098E-04  0.6493E-07  0.4898E-03  0.4808E-02  0.2976E+01
   -0.487490   17.73478  0.8917E-13  0.1077E-04  0.5588E-07  0.5200E-03  0.4388E-02  0.2499E+01
   -0.524991   17.73577  0.8917E-13  0.1064E-04  0.4898E-07  0.5409E-03  0.4025E-02  0.2616E+01
   -0.562492   17.73671  0.8917E-13  0.1056E-04  0.4358E-07  0.5646E-03  0.3685E-02  0.2738E+01
   -0.599993   17.73763  0.8917E-13  0.1052E-04  0.3930E-07  0.5915E-03  0.3365E-02  0.2812E+01
   -0.637494   17.73850  0.8917E-13  0.1048E-04  0.3586E-07  0.6207E-03  0.3063E-02  0.2840E+01
   -0.674995   17.73934  0.8917E-13  0.1044E-04  0.3309E-07  0.6508E-03  0.2780E-02  0.2828E+01
   -0.712496   17.74015  0.8917E-13  0.1039E-04  0.3086E-07  0.6794E-03  0.2514E-02  0.2783E+01
   -0.749997   17.74094  0.8917E-13  0.1032E-04  0.2909E-07  0.7038E-03  0.2264E-02  0.2711E+01
   -0.787498   17.74170  0.8917E-13  0.1021E-04  0.2770E-07  0.7213E-03  0.2031E-02  0.2624E+01
   -0.824999   17.74246  0.8917E-13  0.1007E-04  0.2666E-07  0.7302E-03  0.1814E-02  0.2528E+01
   -0.862500   17.74322  0.8917E-13  0.9889E-05  0.2592E-07  0.7305E-03  0.1613E-02  0.2429E+01
   -0.900001   17.74399  0.8917E-13  0.9666E-05  0.2545E-07  0.7233E-03  0.1428E-02  0.2326E+01
   -0.937502   17.74478  0.8917E-13  0.9403E-05  0.2524E-07  0.7153E-03  0.1256E-02  0.2239E+01
   -0.975003   17.74559  0.8917E-13  0.9098E-05  0.2526E-07  0.6690E-03  0.1099E-02  0.2046E+01
   -1.012504   17.74649  0.8917E-13  0.8920E-05  0.2539E-07  0.1019E-02  0.9457E-03  0.1472E+01
   -1.050004   17.74708  0.8917E-13  0.8794E-05  0.2560E-07  0.8642E-03  0.8994E-03  0.2196E+01
   -1.087505   17.74778  0.8917E-13  0.8608E-05  0.2603E-07  0.7780E-03  0.8625E-03  0.1504E+01
   -1.125005   17.74859  0.8917E-13  0.8279E-05  0.2693E-07  0.7099E-03  0.7755E-03  0.1362E+01
   -1.162505   17.74947  0.8917E-13  0.7991E-05  0.2789E-07  0.6470E-03  0.7125E-03  0.1202E+01
   -1.200005   17.75046  0.8917E-13  0.7723E-05  0.2898E-07  0.5898E-03  0.6639E-03  0.1165E+01
   -1.237504   17.75157  0.8917E-13  0.7455E-05  0.3030E-07  0.5424E-03  0.6265E-03  0.1522E+01
   -1.275004   17.75279  0.8917E-13  0.7152E-05  0.3209E-07  0.4811E-03  0.5952E-03  0.2562E+01
   -1.312503   17.75420  0.8917E-13  0.6789E-05  0.3472E-07  0.4106E-03  0.5658E-03  0.5121E+01
   -1.350002   17.75588  0.8917E-13  0.6335E-05  0.3887E-07  0.3107E-03  0.5382E-03  0.1335E+02
   -1.387500   17.75815  0.8917E-13  0.5755E-05  0.4602E-07  0.2663E-03  0.5107E-03  0.4480E+02
   -1.424999   17.76090  0.8917E-13  0.4841E-05  0.6587E-07  0.1246E-03  0.4887E-03  0.1282E+06
   -1.462496   17.77009  0.8917E-13  0.2838E-05  0.1466E-06  0.3340E-04  0.4582E-03 -0.2797E+05
   -1.499994   17.79553  0.8917E-13  0.0000E+00  0.0000E+00  0.0000E+00  0.4616E-03  0.0000E+00
