 1 - depth, m
 2 - temperature, C
 3 - salinity, kg/kg
 4 - turbulent kinetic energy, m**2/s**2
 5 - dissipation rate, m**2/s**3
 6 - kinematic heat conductance, m**2/s
 7 - modulus of horizontal velocity, m/s
 8 - Richardson number, n/d
   -0.000000   -0.00000  0.4531E-16  0.4363E-08  0.1187E-10  0.7629E-09  0.0000E+00  0.3581E+17
   -0.037499    0.58586  0.1590E-14  0.2656E-07  0.1386E-10  0.1084E-08  0.0000E+00  0.2852E+17
   -0.074998    1.15995  0.9307E-14  0.7848E-07  0.2988E-10  0.2868E-08  0.0000E+00  0.2342E+17
   -0.112497    1.80902  0.3481E-13  0.1802E-06  0.6407E-10  0.2124E-05  0.0000E+00  0.1641E+17
   -0.149997    2.52402  0.7632E-13  0.2583E-06  0.9073E-10  0.1061E-03  0.0000E+00  0.1087E+17
   -0.187497    3.06480  0.1090E-12  0.3212E-06  0.1119E-09  0.1846E-03  0.0000E+00  0.7257E+16
   -0.224997    3.48996  0.1281E-12  0.3724E-06  0.1287E-09  0.2493E-03  0.0000E+00  0.4556E+16
   -0.262498    3.82416  0.1326E-12  0.4120E-06  0.1414E-09  0.3051E-03  0.0000E+00  0.2296E+16
   -0.299999    4.06474  0.1255E-12  0.4361E-06  0.1491E-09  0.3549E-03  0.0000E+00  0.5031E+15
   -0.337500    4.18583  0.1158E-12  0.4378E-06  0.1502E-09  0.3991E-03  0.0000E+00 -0.2036E+13
   -0.375001    4.18672  0.1158E-12  0.4388E-06  0.1512E-09  0.3982E-03  0.0000E+00 -0.2095E+13
   -0.412502    4.18742  0.1158E-12  0.4395E-06  0.1523E-09  0.3966E-03  0.0000E+00 -0.2106E+13
   -0.450004    4.18811  0.1158E-12  0.4400E-06  0.1535E-09  0.3946E-03  0.0000E+00 -0.2082E+13
   -0.487506    4.18880  0.1158E-12  0.4401E-06  0.1548E-09  0.3917E-03  0.0000E+00 -0.2162E+13
   -0.525008    4.18949  0.1158E-12  0.4400E-06  0.1562E-09  0.3882E-03  0.0000E+00 -0.2099E+13
   -0.562510    4.19019  0.1158E-12  0.4396E-06  0.1577E-09  0.3838E-03  0.0000E+00 -0.2218E+13
   -0.600012    4.19088  0.1158E-12  0.4389E-06  0.1594E-09  0.3790E-03  0.0000E+00 -0.2145E+13
   -0.637514    4.19160  0.1158E-12  0.4380E-06  0.1612E-09  0.3732E-03  0.0000E+00 -0.2226E+13
   -0.675016    4.19230  0.1158E-12  0.4367E-06  0.1632E-09  0.3668E-03  0.0000E+00 -0.2221E+13
   -0.712518    4.19301  0.1158E-12  0.4352E-06  0.1654E-09  0.3596E-03  0.0000E+00 -0.2296E+13
   -0.750021    4.19373  0.1158E-12  0.4333E-06  0.1678E-09  0.3518E-03  0.0000E+00 -0.2328E+13
   -0.787523    4.19447  0.1158E-12  0.4311E-06  0.1704E-09  0.3432E-03  0.0000E+00 -0.2408E+13
   -0.825025    4.19521  0.1158E-12  0.4285E-06  0.1734E-09  0.3339E-03  0.0000E+00 -0.2468E+13
   -0.862527    4.19598  0.1158E-12  0.4257E-06  0.1766E-09  0.3238E-03  0.0000E+00 -0.2567E+13
   -0.900030    4.19677  0.1158E-12  0.4224E-06  0.1802E-09  0.3131E-03  0.0000E+00 -0.2657E+13
   -0.937532    4.19759  0.1158E-12  0.4187E-06  0.1842E-09  0.3014E-03  0.0000E+00 -0.2785E+13
   -0.975034    4.19844  0.1158E-12  0.4146E-06  0.1886E-09  0.2892E-03  0.0000E+00 -0.2913E+13
   -1.012536    4.19933  0.1158E-12  0.4100E-06  0.1937E-09  0.2760E-03  0.0000E+00 -0.3081E+13
   -1.050037    4.20026  0.1158E-12  0.4047E-06  0.1996E-09  0.2619E-03  0.0000E+00 -0.3263E+13
   -1.087539    4.20125  0.1158E-12  0.3989E-06  0.2065E-09  0.2468E-03  0.0000E+00 -0.3499E+13
   -1.125040    4.20229  0.1158E-12  0.3922E-06  0.2145E-09  0.2308E-03  0.0000E+00 -0.3765E+13
   -1.162542    4.20342  0.1158E-12  0.3847E-06  0.2242E-09  0.2137E-03  0.0000E+00 -0.4108E+13
   -1.200043    4.20463  0.1158E-12  0.3762E-06  0.2358E-09  0.1956E-03  0.0000E+00 -0.4524E+13
   -1.237543    4.20596  0.1158E-12  0.3664E-06  0.2503E-09  0.1765E-03  0.0000E+00 -0.5075E+13
   -1.275044    4.20745  0.1158E-12  0.3552E-06  0.2686E-09  0.1564E-03  0.0000E+00 -0.5792E+13
   -1.312544    4.20913  0.1158E-12  0.3422E-06  0.2927E-09  0.1352E-03  0.0000E+00 -0.6799E+13
   -1.350044    4.21108  0.1158E-12  0.3268E-06  0.3258E-09  0.1135E-03  0.0000E+00 -0.8246E+13
   -1.387544    4.21342  0.1158E-12  0.3073E-06  0.3771E-09  0.8924E-04  0.0000E+00 -0.1054E+14
   -1.425043    4.21640  0.1158E-12  0.2741E-06  0.4942E-09  0.3444E-04  0.0000E+00 -0.2819E+14
   -1.462543    4.22419  0.1157E-12  0.1577E-06  0.1192E-08  0.3400E-05  0.0000E+00 -0.3246E+15
   -1.500041    4.29971  0.1157E-12  0.0000E+00  0.0000E+00  0.0000E+00  0.0000E+00  0.0000E+00
