 1 - depth, m
 2 - temperature, C
 3 - salinity, kg/kg
 4 - turbulent kinetic energy, m**2/s**2
 5 - dissipation rate, m**2/s**3
 6 - kinematic heat conductance, m**2/s
 7 - modulus of horizontal velocity, m/s
 8 - Richardson number, n/d
   -0.000000   14.41155  0.9758E-13  0.6419E-04  0.1666E-04  0.4129E-04  0.6442E-01 -0.9112E-02
   -0.037498   14.43670  0.9758E-13  0.3801E-04  0.4763E-05  0.5488E-04  0.2632E-01 -0.2635E-01
   -0.074996   14.44248  0.9758E-13  0.2854E-04  0.2104E-05  0.6413E-04  0.1975E-01 -0.1875E-01
   -0.112494   14.44656  0.9758E-13  0.2266E-04  0.1086E-05  0.7321E-04  0.1602E-01 -0.2888E-01
   -0.149993   14.44988  0.9758E-13  0.1849E-04  0.6121E-06  0.8205E-04  0.1327E-01 -0.4094E-01
   -0.187492   14.45274  0.9758E-13  0.1540E-04  0.3690E-06  0.9066E-04  0.1112E-01 -0.5679E-01
   -0.224991   14.45525  0.9758E-13  0.1305E-04  0.2358E-06  0.9960E-04  0.9397E-02 -0.7841E-01
   -0.262491   14.45748  0.9758E-13  0.1126E-04  0.1588E-06  0.1091E-03  0.8011E-02 -0.9854E-01
   -0.299991   14.45948  0.9758E-13  0.9859E-05  0.1116E-06  0.1260E-03  0.6865E-02  0.5254E-01
   -0.337491   14.46121  0.9758E-13  0.8750E-05  0.8143E-07  0.1769E-03  0.5921E-02  0.1026E+02
   -0.374991   14.46262  0.9758E-13  0.7869E-05  0.6129E-07  0.1988E-03  0.5161E-02  0.3483E+02
   -0.412492   14.46385  0.9758E-13  0.7165E-05  0.4737E-07  0.2349E-03  0.4531E-02  0.1474E+02
   -0.449992   14.46489  0.9758E-13  0.6615E-05  0.3763E-07  0.2791E-03  0.4024E-02  0.1058E+03
   -0.487493   14.46574  0.9758E-13  0.6200E-05  0.3081E-07  0.3486E-03  0.3617E-02  0.5388E+02
   -0.524994   14.46639  0.9758E-13  0.5895E-05  0.2598E-07  0.3946E-03  0.3296E-02  0.4062E+03
   -0.562495   14.46692  0.9758E-13  0.5661E-05  0.2236E-07  0.4182E-03  0.3009E-02  0.8143E+01
   -0.599996   14.46740  0.9758E-13  0.5474E-05  0.1954E-07  0.4328E-03  0.2745E-02  0.2959E+01
   -0.637497   14.46787  0.9758E-13  0.5322E-05  0.1731E-07  0.4424E-03  0.2501E-02  0.2697E+01
   -0.674998   14.46832  0.9758E-13  0.5194E-05  0.1550E-07  0.4523E-03  0.2274E-02  0.2772E+01
   -0.712500   14.46877  0.9758E-13  0.5083E-05  0.1404E-07  0.4617E-03  0.2063E-02  0.2790E+01
   -0.750001   14.46921  0.9758E-13  0.4982E-05  0.1285E-07  0.4706E-03  0.1866E-02  0.2813E+01
   -0.787502   14.46966  0.9758E-13  0.4886E-05  0.1187E-07  0.4791E-03  0.1682E-02  0.2808E+01
   -0.825004   14.47010  0.9758E-13  0.4791E-05  0.1107E-07  0.4869E-03  0.1511E-02  0.2781E+01
   -0.862505   14.47054  0.9758E-13  0.4694E-05  0.1042E-07  0.4935E-03  0.1351E-02  0.2736E+01
   -0.900006   14.47098  0.9758E-13  0.4590E-05  0.9914E-08  0.4987E-03  0.1202E-02  0.2677E+01
   -0.937507   14.47143  0.9758E-13  0.4479E-05  0.9520E-08  0.5020E-03  0.1063E-02  0.2608E+01
   -0.975008   14.47188  0.9758E-13  0.4359E-05  0.9234E-08  0.5048E-03  0.9328E-03  0.2539E+01
   -1.012509   14.47234  0.9758E-13  0.4230E-05  0.9049E-08  0.5214E-03  0.8118E-03  0.2203E+01
   -1.050010   14.47280  0.9758E-13  0.4098E-05  0.8962E-08  0.5385E-03  0.7085E-03  0.1910E+01
   -1.087510   14.47325  0.9758E-13  0.3968E-05  0.8968E-08  0.5241E-03  0.6236E-03  0.1663E+01
   -1.125011   14.47371  0.9758E-13  0.3843E-05  0.9055E-08  0.4867E-03  0.5553E-03  0.1445E+01
   -1.162511   14.47422  0.9758E-13  0.3727E-05  0.9211E-08  0.4485E-03  0.5015E-03  0.1269E+01
   -1.200011   14.47479  0.9758E-13  0.3617E-05  0.9431E-08  0.4179E-03  0.4601E-03  0.1246E+01
   -1.237511   14.47541  0.9758E-13  0.3506E-05  0.9736E-08  0.3873E-03  0.4282E-03  0.1721E+01
   -1.275011   14.47609  0.9758E-13  0.3378E-05  0.1018E-07  0.3476E-03  0.4002E-03  0.2941E+01
   -1.312510   14.47686  0.9758E-13  0.3228E-05  0.1085E-07  0.3003E-03  0.3742E-03  0.5835E+01
   -1.350009   14.47778  0.9758E-13  0.3045E-05  0.1187E-07  0.2482E-03  0.3501E-03  0.1429E+02
   -1.387508   14.47891  0.9758E-13  0.2816E-05  0.1356E-07  0.1872E-03  0.3282E-03  0.5072E+02
   -1.425006   14.48045  0.9758E-13  0.2511E-05  0.1681E-07  0.1377E-03  0.3087E-03  0.2719E+03
   -1.462504   14.48260  0.9758E-13  0.1510E-05  0.3622E-07  0.1162E-04  0.2949E-03 -0.3371E+05
   -1.500002   14.50824  0.9758E-13  0.0000E+00  0.0000E+00  0.0000E+00  0.2931E-03  0.0000E+00
