 1 - depth, m
 2 - temperature, C
 3 - salinity, kg/kg
 4 - turbulent kinetic energy, m**2/s**2
 5 - dissipation rate, m**2/s**3
 6 - kinematic heat conductance, m**2/s
 7 - modulus of horizontal velocity, m/s
 8 - Richardson number, n/d
   -0.000000   -0.00000  0.7609E-12  0.4096E-13  0.8590E-16  0.1000E-09  0.0000E+00  0.7715E+16
   -0.037498    0.11758  0.4518E-12  0.4096E-13  0.8590E-16  0.1000E-09  0.0000E+00  0.7442E+16
   -0.074995    0.23474  0.3054E-12  0.4096E-13  0.8590E-16  0.1000E-09  0.0000E+00  0.7170E+16
   -0.112494    0.35142  0.2254E-12  0.4096E-13  0.8590E-16  0.1000E-09  0.0000E+00  0.6898E+16
   -0.149992    0.46756  0.1744E-12  0.4096E-13  0.8590E-16  0.1000E-09  0.0000E+00  0.6627E+16
   -0.187491    0.58308  0.1416E-12  0.4096E-13  0.8590E-16  0.1000E-09  0.0000E+00  0.6356E+16
   -0.224990    0.69794  0.1220E-12  0.4096E-13  0.8590E-16  0.1000E-09  0.0000E+00  0.6088E+16
   -0.262490    0.81206  0.1112E-12  0.4096E-13  0.8590E-16  0.1000E-09  0.0000E+00  0.5820E+16
   -0.299989    0.92535  0.1057E-12  0.4096E-13  0.8590E-16  0.1000E-09  0.0000E+00  0.5555E+16
   -0.337489    1.03776  0.1031E-12  0.4096E-13  0.8590E-16  0.1000E-09  0.0000E+00  0.5293E+16
   -0.374989    1.14922  0.1019E-12  0.4096E-13  0.8590E-16  0.1000E-09  0.0000E+00  0.5058E+16
   -0.412490    1.26020  0.1011E-12  0.4096E-13  0.8590E-16  0.1000E-09  0.0000E+00  0.4838E+16
   -0.449990    1.37096  0.1005E-12  0.4096E-13  0.8590E-16  0.1000E-09  0.0000E+00  0.4620E+16
   -0.487491    1.48148  0.9983E-13  0.4096E-13  0.8590E-16  0.1000E-09  0.0000E+00  0.4399E+16
   -0.524992    1.59168  0.9906E-13  0.4096E-13  0.8590E-16  0.1000E-09  0.0000E+00  0.4164E+16
   -0.562492    1.70109  0.9823E-13  0.4096E-13  0.8590E-16  0.1000E-09  0.0000E+00  0.3934E+16
   -0.599993    1.80969  0.9736E-13  0.4096E-13  0.8590E-16  0.1000E-09  0.0000E+00  0.3707E+16
   -0.637494    1.91743  0.9652E-13  0.4096E-13  0.8590E-16  0.1000E-09  0.0000E+00  0.3485E+16
   -0.674995    2.02429  0.9576E-13  0.4096E-13  0.8590E-16  0.1000E-09  0.0000E+00  0.3266E+16
   -0.712497    2.13022  0.9509E-13  0.4096E-13  0.8590E-16  0.1000E-09  0.0000E+00  0.3053E+16
   -0.749998    2.23519  0.9454E-13  0.4096E-13  0.8590E-16  0.1000E-09  0.0000E+00  0.2854E+16
   -0.787499    2.33956  0.9411E-13  0.4096E-13  0.8590E-16  0.1000E-09  0.0000E+00  0.2662E+16
   -0.825000    2.44342  0.9378E-13  0.4096E-13  0.8590E-16  0.1000E-09  0.0000E+00  0.2472E+16
   -0.862501    2.54674  0.9354E-13  0.4096E-13  0.8590E-16  0.1000E-09  0.0000E+00  0.2285E+16
   -0.900002    2.64950  0.9337E-13  0.4096E-13  0.8590E-16  0.1000E-09  0.0000E+00  0.2100E+16
   -0.937503    2.75168  0.9325E-13  0.4096E-13  0.8590E-16  0.1000E-09  0.0000E+00  0.1919E+16
   -0.975004    2.85323  0.9317E-13  0.4096E-13  0.8590E-16  0.1000E-09  0.0000E+00  0.1741E+16
   -1.012504    2.95413  0.9311E-13  0.4096E-13  0.8590E-16  0.1000E-09  0.0000E+00  0.1579E+16
   -1.050005    3.05525  0.9308E-13  0.4096E-13  0.8590E-16  0.1000E-09  0.0000E+00  0.1420E+16
   -1.087506    3.15679  0.9305E-13  0.1500E-12  0.1505E-15  0.1000E-09  0.0000E+00  0.1260E+16
   -1.125006    3.25883  0.9304E-13  0.5467E-12  0.4883E-15  0.1000E-09  0.0000E+00  0.1109E+16
   -1.162506    3.36247  0.9304E-13  0.1878E-11  0.1614E-14  0.1000E-09  0.0000E+00  0.9529E+15
   -1.200006    3.46804  0.9303E-13  0.6301E-11  0.5250E-14  0.1000E-09  0.0000E+00  0.7891E+15
   -1.237505    3.57570  0.9303E-13  0.2078E-10  0.1682E-13  0.1000E-09  0.0000E+00  0.6161E+15
   -1.275005    3.68567  0.9303E-13  0.6748E-10  0.5312E-13  0.3298E-09  0.0000E+00  0.4318E+15
   -1.312504    3.79799  0.9303E-13  0.2155E-09  0.1655E-12  0.1843E-08  0.0000E+00  0.2349E+15
   -1.350003    3.91189  0.9303E-13  0.6694E-09  0.5060E-12  0.2710E-07  0.0000E+00  0.3855E+14
   -1.387502    4.01136  0.9303E-13  0.1807E-08  0.1434E-11  0.8210E-06  0.0000E+00 -0.9613E+13
   -1.425000    4.02939  0.9303E-13  0.2289E-08  0.2508E-11  0.7128E-06  0.0000E+00 -0.1783E+14
   -1.462498    4.05061  0.9303E-13  0.2057E-08  0.4737E-11  0.2448E-06  0.0000E+00 -0.6844E+14
   -1.499995    4.09982  0.9303E-13  0.0000E+00  0.0000E+00  0.0000E+00  0.0000E+00  0.0000E+00
