 1 - depth, m
 2 - temperature, C
 3 - salinity, kg/kg
 4 - turbulent kinetic energy, m**2/s**2
 5 - dissipation rate, m**2/s**3
 6 - kinematic heat conductance, m**2/s
 7 - modulus of horizontal velocity, m/s
 8 - Richardson number, n/d
   -0.000000   -0.00000  0.4552E-12  0.4096E-13  0.8590E-16  0.1000E-09  0.0000E+00  0.9965E+16
   -0.037498    0.15261  0.4385E-12  0.4096E-13  0.8590E-16  0.1000E-09  0.0000E+00  0.9539E+16
   -0.074996    0.30502  0.3536E-12  0.4096E-13  0.8590E-16  0.1000E-09  0.0000E+00  0.9109E+16
   -0.112494    0.45710  0.2673E-12  0.4096E-13  0.8590E-16  0.1000E-09  0.0000E+00  0.8676E+16
   -0.149993    0.60870  0.2009E-12  0.4096E-13  0.8590E-16  0.1000E-09  0.0000E+00  0.8242E+16
   -0.187492    0.75970  0.1557E-12  0.4096E-13  0.8590E-16  0.1000E-09  0.0000E+00  0.7807E+16
   -0.224991    0.90995  0.1271E-12  0.4096E-13  0.8590E-16  0.1000E-09  0.0000E+00  0.7374E+16
   -0.262491    1.05932  0.1098E-12  0.4096E-13  0.8590E-16  0.1000E-09  0.0000E+00  0.6946E+16
   -0.299991    1.20774  0.9956E-13  0.4096E-13  0.8590E-16  0.1000E-09  0.0000E+00  0.6522E+16
   -0.337491    1.35508  0.9354E-13  0.4096E-13  0.8590E-16  0.1000E-09  0.0000E+00  0.6103E+16
   -0.374991    1.50122  0.8994E-13  0.4096E-13  0.8590E-16  0.1000E-09  0.0000E+00  0.5694E+16
   -0.412491    1.64613  0.8768E-13  0.4096E-13  0.8590E-16  0.1000E-09  0.0000E+00  0.5293E+16
   -0.449992    1.78976  0.8616E-13  0.7451E-13  0.8590E-16  0.1000E-09  0.0000E+00  0.4900E+16
   -0.487493    1.93199  0.8505E-13  0.2717E-12  0.9112E-16  0.1000E-09  0.0000E+00  0.4516E+16
   -0.524994    2.07274  0.8418E-13  0.6425E-12  0.1496E-15  0.1000E-09  0.0000E+00  0.4147E+16
   -0.562495    2.21212  0.8347E-13  0.1298E-11  0.2697E-15  0.1000E-09  0.0000E+00  0.3786E+16
   -0.599996    2.35005  0.8289E-13  0.2466E-11  0.4890E-15  0.1000E-09  0.0000E+00  0.3436E+16
   -0.637497    2.48645  0.8243E-13  0.4563E-11  0.8801E-15  0.1000E-09  0.0000E+00  0.3095E+16
   -0.674998    2.62126  0.8207E-13  0.8332E-11  0.1572E-14  0.1000E-09  0.0000E+00  0.2765E+16
   -0.712499    2.75440  0.8182E-13  0.1509E-10  0.2789E-14  0.1000E-09  0.0000E+00  0.2446E+16
   -0.750001    2.88581  0.8164E-13  0.2714E-10  0.4920E-14  0.1000E-09  0.0000E+00  0.2144E+16
   -0.787502    3.01582  0.8153E-13  0.4854E-10  0.8629E-14  0.1000E-09  0.0000E+00  0.1853E+16
   -0.825003    3.14451  0.8147E-13  0.8633E-10  0.1506E-13  0.1000E-09  0.0000E+00  0.1572E+16
   -0.862504    3.27186  0.8143E-13  0.1527E-09  0.2613E-13  0.1000E-09  0.0000E+00  0.1299E+16
   -0.900006    3.39785  0.8141E-13  0.2687E-09  0.4513E-13  0.1211E-09  0.0000E+00  0.1036E+16
   -0.937507    3.52244  0.8140E-13  0.4704E-09  0.7754E-13  0.2759E-09  0.0000E+00  0.7806E+15
   -0.975008    3.64551  0.8140E-13  0.8190E-09  0.1325E-12  0.6885E-09  0.0000E+00  0.5348E+15
   -1.012509    3.76683  0.8140E-13  0.1421E-08  0.2258E-12  0.2103E-08  0.0000E+00  0.2985E+15
   -1.050009    3.88552  0.8140E-13  0.2447E-08  0.3822E-12  0.1348E-07  0.0000E+00  0.7923E+14
   -1.087510    3.99413  0.8140E-13  0.3163E-08  0.4962E-12  0.6523E-05  0.0000E+00 -0.3523E+12
   -1.125010    3.99668  0.8140E-13  0.3540E-08  0.5722E-12  0.7521E-05  0.0000E+00 -0.3884E+12
   -1.162511    3.99887  0.8140E-13  0.3855E-08  0.6537E-12  0.8022E-05  0.0000E+00 -0.4341E+12
   -1.200011    4.00092  0.8140E-13  0.4110E-08  0.7437E-12  0.8101E-05  0.0000E+00 -0.4971E+12
   -1.237511    4.00296  0.8140E-13  0.4303E-08  0.8467E-12  0.7793E-05  0.0000E+00 -0.5882E+12
   -1.275010    4.00509  0.8140E-13  0.4422E-08  0.9704E-12  0.7118E-05  0.0000E+00 -0.7282E+12
   -1.312509    4.00742  0.8140E-13  0.4450E-08  0.1128E-11  0.6087E-05  0.0000E+00 -0.9635E+12
   -1.350008    4.01016  0.8140E-13  0.4350E-08  0.1349E-11  0.4719E-05  0.0000E+00 -0.1418E+13
   -1.387507    4.01370  0.8140E-13  0.4054E-08  0.1704E-11  0.3084E-05  0.0000E+00 -0.2532E+13
   -1.425006    4.01908  0.8140E-13  0.3415E-08  0.2430E-11  0.1400E-05  0.0000E+00 -0.6843E+13
   -1.462504    4.03044  0.8140E-13  0.2265E-08  0.4638E-11  0.2560E-06  0.0000E+00 -0.4651E+14
   -1.500001    4.07514  0.8140E-13  0.0000E+00  0.0000E+00  0.0000E+00  0.0000E+00  0.0000E+00
