 1 - depth, m
 2 - temperature, C
 3 - salinity, kg/kg
 4 - turbulent kinetic energy, m**2/s**2
 5 - dissipation rate, m**2/s**3
 6 - kinematic heat conductance, m**2/s
 7 - modulus of horizontal velocity, m/s
 8 - Richardson number, n/d
   -0.000000   -0.00000  0.1055E-14  0.4479E-07  0.1950E-09  0.5984E-08  0.0000E+00  0.7876E+17
   -0.037499    1.52689  0.1272E-13  0.3379E-06  0.1508E-09  0.1345E-07  0.0000E+00  0.3692E+17
   -0.074999    3.14162  0.6646E-13  0.5077E-06  0.1963E-09  0.1939E-03  0.0000E+00  0.1122E+17
   -0.112499    3.90578  0.1003E-12  0.5827E-06  0.2206E-09  0.3697E-03  0.0000E+00  0.2490E+16
   -0.149999    4.21464  0.1145E-12  0.5946E-06  0.2244E-09  0.4766E-03  0.0000E+00  0.5696E+14
   -0.187499    4.24148  0.1152E-12  0.5970E-06  0.2251E-09  0.4934E-03  0.0000E+00 -0.2703E+13
   -0.225000    4.24218  0.1152E-12  0.5987E-06  0.2258E-09  0.4946E-03  0.0000E+00 -0.2596E+13
   -0.262501    4.24283  0.1152E-12  0.6001E-06  0.2265E-09  0.4951E-03  0.0000E+00 -0.2553E+13
   -0.300002    4.24348  0.1152E-12  0.6011E-06  0.2274E-09  0.4948E-03  0.0000E+00 -0.2539E+13
   -0.337504    4.24412  0.1153E-12  0.6017E-06  0.2284E-09  0.4937E-03  0.0000E+00 -0.2529E+13
   -0.375006    4.24476  0.1153E-12  0.6019E-06  0.2294E-09  0.4918E-03  0.0000E+00 -0.2522E+13
   -0.412508    4.24539  0.1153E-12  0.6017E-06  0.2306E-09  0.4891E-03  0.0000E+00 -0.2511E+13
   -0.450010    4.24602  0.1153E-12  0.6012E-06  0.2319E-09  0.4856E-03  0.0000E+00 -0.2514E+13
   -0.487512    4.24665  0.1153E-12  0.6004E-06  0.2334E-09  0.4812E-03  0.0000E+00 -0.2515E+13
   -0.525014    4.24727  0.1153E-12  0.5991E-06  0.2351E-09  0.4760E-03  0.0000E+00 -0.2530E+13
   -0.562517    4.24790  0.1153E-12  0.5975E-06  0.2369E-09  0.4700E-03  0.0000E+00 -0.2546E+13
   -0.600019    4.24853  0.1153E-12  0.5955E-06  0.2389E-09  0.4631E-03  0.0000E+00 -0.2576E+13
   -0.637522    4.24916  0.1153E-12  0.5932E-06  0.2411E-09  0.4555E-03  0.0000E+00 -0.2608E+13
   -0.675025    4.24980  0.1153E-12  0.5905E-06  0.2436E-09  0.4470E-03  0.0000E+00 -0.2654E+13
   -0.712527    4.25045  0.1153E-12  0.5874E-06  0.2463E-09  0.4376E-03  0.0000E+00 -0.2704E+13
   -0.750030    4.25111  0.1153E-12  0.5839E-06  0.2494E-09  0.4274E-03  0.0000E+00 -0.2765E+13
   -0.787533    4.25178  0.1153E-12  0.5799E-06  0.2527E-09  0.4164E-03  0.0000E+00 -0.2830E+13
   -0.825035    4.25246  0.1153E-12  0.5756E-06  0.2565E-09  0.4045E-03  0.0000E+00 -0.2912E+13
   -0.862538    4.25317  0.1154E-12  0.5707E-06  0.2607E-09  0.3918E-03  0.0000E+00 -0.3003E+13
   -0.900041    4.25389  0.1154E-12  0.5654E-06  0.2655E-09  0.3782E-03  0.0000E+00 -0.3114E+13
   -0.937543    4.25464  0.1154E-12  0.5596E-06  0.2708E-09  0.3637E-03  0.0000E+00 -0.3239E+13
   -0.975046    4.25541  0.1154E-12  0.5533E-06  0.2769E-09  0.3483E-03  0.0000E+00 -0.3390E+13
   -1.012548    4.25622  0.1154E-12  0.5463E-06  0.2838E-09  0.3320E-03  0.0000E+00 -0.3564E+13
   -1.050050    4.25707  0.1154E-12  0.5385E-06  0.2919E-09  0.3146E-03  0.0000E+00 -0.3777E+13
   -1.087552    4.25796  0.1154E-12  0.5299E-06  0.3014E-09  0.2960E-03  0.0000E+00 -0.4029E+13
   -1.125054    4.25891  0.1154E-12  0.5203E-06  0.3127E-09  0.2762E-03  0.0000E+00 -0.4334E+13
   -1.162556    4.25993  0.1154E-12  0.5096E-06  0.3262E-09  0.2553E-03  0.0000E+00 -0.4707E+13
   -1.200058    4.26103  0.1154E-12  0.4975E-06  0.3426E-09  0.2332E-03  0.0000E+00 -0.5181E+13
   -1.237559    4.26224  0.1154E-12  0.4839E-06  0.3631E-09  0.2097E-03  0.0000E+00 -0.5790E+13
   -1.275060    4.26358  0.1154E-12  0.4685E-06  0.3894E-09  0.1851E-03  0.0000E+00 -0.6602E+13
   -1.312561    4.26510  0.1154E-12  0.4506E-06  0.4240E-09  0.1596E-03  0.0000E+00 -0.7723E+13
   -1.350061    4.26688  0.1154E-12  0.4297E-06  0.4721E-09  0.1327E-03  0.0000E+00 -0.9392E+13
   -1.387561    4.26902  0.1154E-12  0.4043E-06  0.5449E-09  0.1069E-03  0.0000E+00 -0.1168E+14
   -1.425061    4.27166  0.1154E-12  0.3620E-06  0.7086E-09  0.4126E-04  0.0000E+00 -0.3096E+14
   -1.462561    4.27856  0.1154E-12  0.2057E-06  0.1733E-08  0.3810E-05  0.0000E+00 -0.3684E+15
   -1.500060    4.35062  0.1155E-12  0.0000E+00  0.0000E+00  0.0000E+00  0.0000E+00  0.0000E+00
