 1 - depth, m
 2 - temperature, C
 3 - salinity, kg/kg
 4 - turbulent kinetic energy, m**2/s**2
 5 - dissipation rate, m**2/s**3
 6 - kinematic heat conductance, m**2/s
 7 - modulus of horizontal velocity, m/s
 8 - Richardson number, n/d
   -0.000000   -0.00000  0.3046E-12  0.4096E-13  0.8590E-16  0.1000E-09  0.0000E+00  0.8450E+16
   -0.037498    0.12899  0.4106E-12  0.4096E-13  0.8590E-16  0.1000E-09  0.0000E+00  0.8184E+16
   -0.074996    0.25846  0.3757E-12  0.4096E-13  0.8590E-16  0.1000E-09  0.0000E+00  0.7910E+16
   -0.112494    0.38832  0.2997E-12  0.4096E-13  0.8590E-16  0.1000E-09  0.0000E+00  0.7630E+16
   -0.149993    0.51846  0.2291E-12  0.4096E-13  0.8590E-16  0.1000E-09  0.0000E+00  0.7342E+16
   -0.187492    0.64877  0.1769E-12  0.4096E-13  0.8590E-16  0.1000E-09  0.0000E+00  0.7046E+16
   -0.224992    0.77911  0.1423E-12  0.4096E-13  0.8590E-16  0.1000E-09  0.0000E+00  0.6745E+16
   -0.262491    0.90932  0.1209E-12  0.4096E-13  0.8590E-16  0.1000E-09  0.0000E+00  0.6440E+16
   -0.299991    1.03932  0.1082E-12  0.4096E-13  0.8590E-16  0.1000E-09  0.0000E+00  0.6132E+16
   -0.337491    1.16894  0.1009E-12  0.4096E-13  0.8590E-16  0.1000E-09  0.0000E+00  0.5822E+16
   -0.374992    1.29807  0.9655E-13  0.4096E-13  0.8590E-16  0.1000E-09  0.0000E+00  0.5513E+16
   -0.412492    1.42662  0.9394E-13  0.4096E-13  0.8590E-16  0.1000E-09  0.0000E+00  0.5205E+16
   -0.449993    1.55450  0.9225E-13  0.4096E-13  0.8590E-16  0.1000E-09  0.0000E+00  0.4899E+16
   -0.487494    1.68160  0.9103E-13  0.4096E-13  0.8590E-16  0.1000E-09  0.0000E+00  0.4595E+16
   -0.524995    1.80782  0.9004E-13  0.4096E-13  0.8590E-16  0.1000E-09  0.0000E+00  0.4298E+16
   -0.562496    1.93317  0.8919E-13  0.4096E-13  0.8590E-16  0.1000E-09  0.0000E+00  0.4005E+16
   -0.599997    2.05756  0.8842E-13  0.4096E-13  0.8590E-16  0.1000E-09  0.0000E+00  0.3717E+16
   -0.637498    2.18091  0.8774E-13  0.4096E-13  0.8590E-16  0.1000E-09  0.0000E+00  0.3434E+16
   -0.674999    2.30312  0.8714E-13  0.4096E-13  0.8590E-16  0.1000E-09  0.0000E+00  0.3157E+16
   -0.712501    2.42412  0.8663E-13  0.4096E-13  0.8590E-16  0.1000E-09  0.0000E+00  0.2886E+16
   -0.750002    2.54384  0.8623E-13  0.5215E-13  0.8590E-16  0.1000E-09  0.0000E+00  0.2627E+16
   -0.787503    2.66242  0.8592E-13  0.2045E-12  0.9849E-16  0.1000E-09  0.0000E+00  0.2375E+16
   -0.825005    2.77988  0.8570E-13  0.5427E-12  0.1906E-15  0.1000E-09  0.0000E+00  0.2130E+16
   -0.862506    2.89616  0.8555E-13  0.1241E-11  0.4007E-15  0.1000E-09  0.0000E+00  0.1892E+16
   -0.900007    3.01123  0.8546E-13  0.2695E-11  0.8391E-15  0.1000E-09  0.0000E+00  0.1661E+16
   -0.937508    3.12505  0.8540E-13  0.5735E-11  0.1738E-14  0.1000E-09  0.0000E+00  0.1437E+16
   -0.975009    3.23759  0.8537E-13  0.1206E-10  0.3567E-14  0.1000E-09  0.0000E+00  0.1221E+16
   -1.012510    3.34882  0.8535E-13  0.2519E-10  0.7278E-14  0.1000E-09  0.0000E+00  0.1011E+16
   -1.050011    3.45861  0.8535E-13  0.5239E-10  0.1479E-13  0.1000E-09  0.0000E+00  0.8093E+15
   -1.087512    3.56689  0.8534E-13  0.1082E-09  0.2987E-13  0.1347E-09  0.0000E+00  0.6152E+15
   -1.125012    3.67353  0.8534E-13  0.2220E-09  0.5991E-13  0.3828E-09  0.0000E+00  0.4340E+15
   -1.162513    3.77980  0.8534E-13  0.4517E-09  0.1193E-12  0.1299E-08  0.0000E+00  0.2548E+15
   -1.200013    3.88536  0.8534E-13  0.9091E-09  0.2351E-12  0.8223E-08  0.0000E+00  0.7992E+14
   -1.237513    3.98590  0.8534E-13  0.1587E-08  0.4084E-12  0.1450E-05  0.0000E+00 -0.6497E+12
   -1.275012    3.99661  0.8534E-13  0.2119E-08  0.5975E-12  0.2524E-05  0.0000E+00 -0.1172E+13
   -1.312512    4.00232  0.8534E-13  0.2513E-08  0.8067E-12  0.2749E-05  0.0000E+00 -0.1556E+13
   -1.350011    4.00765  0.8534E-13  0.2765E-08  0.1067E-11  0.2508E-05  0.0000E+00 -0.2243E+13
   -1.387509    4.01355  0.8534E-13  0.2824E-08  0.1439E-11  0.1879E-05  0.0000E+00 -0.3842E+13
   -1.425008    4.02142  0.8534E-13  0.2582E-08  0.2108E-11  0.9941E-06  0.0000E+00 -0.9451E+13
   -1.462506    4.03570  0.8534E-13  0.1891E-08  0.3904E-11  0.2275E-06  0.0000E+00 -0.5073E+14
   -1.500004    4.08077  0.8534E-13  0.0000E+00  0.0000E+00  0.0000E+00  0.0000E+00  0.0000E+00
