 1 - depth, m
 2 - temperature, C
 3 - salinity, kg/kg
 4 - turbulent kinetic energy, m**2/s**2
 5 - dissipation rate, m**2/s**3
 6 - kinematic heat conductance, m**2/s
 7 - modulus of horizontal velocity, m/s
 8 - Richardson number, n/d
   -0.000000   -0.00000  0.8893E-12  0.4096E-13  0.8590E-16  0.1000E-09  0.0000E+00  0.1233E+17
   -0.037498    0.18983  0.4424E-12  0.4096E-13  0.8590E-16  0.1000E-09  0.0000E+00  0.1161E+17
   -0.074995    0.37822  0.2612E-12  0.4096E-13  0.8590E-16  0.1000E-09  0.0000E+00  0.1089E+17
   -0.112494    0.56499  0.1856E-12  0.4096E-13  0.8590E-16  0.1000E-09  0.0000E+00  0.1018E+17
   -0.149992    0.75001  0.1460E-12  0.4908E-13  0.8590E-16  0.1000E-09  0.0000E+00  0.9492E+16
   -0.187491    0.93310  0.1218E-12  0.1681E-12  0.8590E-16  0.1000E-09  0.0000E+00  0.8815E+16
   -0.224990    1.11414  0.1068E-12  0.4434E-12  0.1024E-15  0.1000E-09  0.0000E+00  0.8155E+16
   -0.262490    1.29298  0.9779E-13  0.9128E-12  0.1541E-15  0.1000E-09  0.0000E+00  0.7514E+16
   -0.299989    1.46953  0.9262E-13  0.1674E-11  0.2525E-15  0.1000E-09  0.0000E+00  0.6894E+16
   -0.337489    1.64370  0.8973E-13  0.2913E-11  0.4187E-15  0.1000E-09  0.0000E+00  0.6293E+16
   -0.374989    1.81536  0.8804E-13  0.4948E-11  0.6919E-15  0.1000E-09  0.0000E+00  0.5728E+16
   -0.412490    1.98487  0.8690E-13  0.8298E-11  0.1138E-14  0.1000E-09  0.0000E+00  0.5191E+16
   -0.449990    2.15244  0.8597E-13  0.1382E-10  0.1863E-14  0.1000E-09  0.0000E+00  0.4670E+16
   -0.487491    2.31797  0.8510E-13  0.2290E-10  0.3040E-14  0.1000E-09  0.0000E+00  0.4166E+16
   -0.524992    2.48139  0.8425E-13  0.3769E-10  0.4931E-14  0.1000E-09  0.0000E+00  0.3680E+16
   -0.562492    2.64263  0.8347E-13  0.6172E-10  0.7958E-14  0.1000E-09  0.0000E+00  0.3213E+16
   -0.599993    2.80163  0.8279E-13  0.1007E-09  0.1280E-13  0.1000E-09  0.0000E+00  0.2764E+16
   -0.637494    2.95832  0.8225E-13  0.1637E-09  0.2053E-13  0.1000E-09  0.0000E+00  0.2333E+16
   -0.674995    3.11261  0.8187E-13  0.2655E-09  0.3285E-13  0.1000E-09  0.0000E+00  0.1921E+16
   -0.712497    3.26437  0.8162E-13  0.4295E-09  0.5245E-13  0.1048E-09  0.0000E+00  0.1526E+16
   -0.749998    3.41331  0.8149E-13  0.6931E-09  0.8359E-13  0.2014E-09  0.0000E+00  0.1153E+16
   -0.787499    3.55933  0.8143E-13  0.1116E-08  0.1330E-12  0.4633E-09  0.0000E+00  0.7969E+15
   -0.825000    3.70158  0.8141E-13  0.1793E-08  0.2110E-12  0.1263E-08  0.0000E+00  0.4632E+15
   -0.862501    3.83819  0.8140E-13  0.2868E-08  0.3339E-12  0.5751E-08  0.0000E+00  0.1646E+15
   -0.900002    3.96409  0.8140E-13  0.3895E-08  0.4571E-12  0.3518E-05  0.0000E+00  0.9344E+13
   -0.937503    3.99415  0.8140E-13  0.4378E-08  0.5219E-12  0.1116E-04  0.0000E+00 -0.1885E+12
   -0.975004    3.99585  0.8140E-13  0.4704E-08  0.5739E-12  0.1266E-04  0.0000E+00 -0.2086E+12
   -1.012505    3.99732  0.8140E-13  0.4998E-08  0.6295E-12  0.1361E-04  0.0000E+00 -0.2290E+12
   -1.050005    3.99868  0.8140E-13  0.5265E-08  0.6899E-12  0.1413E-04  0.0000E+00 -0.2525E+12
   -1.087506    4.00000  0.8140E-13  0.5502E-08  0.7565E-12  0.1429E-04  0.0000E+00 -0.2810E+12
   -1.125006    4.00131  0.8140E-13  0.5709E-08  0.8310E-12  0.1409E-04  0.0000E+00 -0.3176E+12
   -1.162506    4.00265  0.8140E-13  0.5880E-08  0.9157E-12  0.1355E-04  0.0000E+00 -0.3656E+12
   -1.200006    4.00406  0.8140E-13  0.6008E-08  0.1014E-11  0.1270E-04  0.0000E+00 -0.4306E+12
   -1.237506    4.00558  0.8140E-13  0.6083E-08  0.1132E-11  0.1156E-04  0.0000E+00 -0.5225E+12
   -1.275005    4.00727  0.8140E-13  0.6090E-08  0.1279E-11  0.1010E-04  0.0000E+00 -0.6616E+12
   -1.312504    4.00922  0.8140E-13  0.6002E-08  0.1472E-11  0.8339E-05  0.0000E+00 -0.8934E+12
   -1.350003    4.01161  0.8140E-13  0.5775E-08  0.1750E-11  0.6277E-05  0.0000E+00 -0.1340E+13
   -1.387502    4.01482  0.8140E-13  0.5321E-08  0.2207E-11  0.3999E-05  0.0000E+00 -0.2436E+13
   -1.425000    4.01986  0.8140E-13  0.4447E-08  0.3169E-11  0.1769E-05  0.0000E+00 -0.6756E+13
   -1.462498    4.03093  0.8140E-13  0.2898E-08  0.6245E-11  0.3074E-06  0.0000E+00 -0.5080E+14
   -1.499995    4.07841  0.8140E-13  0.0000E+00  0.0000E+00  0.0000E+00  0.0000E+00  0.0000E+00
