 1 - depth, m
 2 - temperature, C
 3 - salinity, kg/kg
 4 - turbulent kinetic energy, m**2/s**2
 5 - dissipation rate, m**2/s**3
 6 - kinematic heat conductance, m**2/s
 7 - modulus of horizontal velocity, m/s
 8 - Richardson number, n/d
   -0.000000   -0.00000  0.1092E-12  0.4095E-13  0.8589E-16  0.1000E-09  0.0000E+00  0.7577E+16
   -0.037498    0.11545  0.1837E-12  0.4095E-13  0.8589E-16  0.1000E-09  0.0000E+00  0.7450E+16
   -0.074997    0.23266  0.2169E-12  0.4095E-13  0.8589E-16  0.1000E-09  0.0000E+00  0.7276E+16
   -0.112496    0.35101  0.2351E-12  0.4095E-13  0.8589E-16  0.1000E-09  0.0000E+00  0.7070E+16
   -0.149996    0.47008  0.2385E-12  0.4095E-13  0.8589E-16  0.1000E-09  0.0000E+00  0.6843E+16
   -0.187495    0.58954  0.2283E-12  0.4095E-13  0.8589E-16  0.1000E-09  0.0000E+00  0.6601E+16
   -0.224995    0.70915  0.2086E-12  0.4095E-13  0.8589E-16  0.1000E-09  0.0000E+00  0.6350E+16
   -0.262496    0.82873  0.1845E-12  0.4095E-13  0.8589E-16  0.1000E-09  0.0000E+00  0.6097E+16
   -0.299996    0.94822  0.1604E-12  0.4095E-13  0.8589E-16  0.1000E-09  0.0000E+00  0.5841E+16
   -0.337497    1.06751  0.1392E-12  0.4095E-13  0.8589E-16  0.1000E-09  0.0000E+00  0.5582E+16
   -0.374998    1.18650  0.1222E-12  0.4095E-13  0.8589E-16  0.1000E-09  0.0000E+00  0.5320E+16
   -0.412499    1.30504  0.1094E-12  0.4095E-13  0.8589E-16  0.1000E-09  0.0000E+00  0.5055E+16
   -0.450000    1.42300  0.1004E-12  0.4095E-13  0.8589E-16  0.1000E-09  0.0000E+00  0.4791E+16
   -0.487502    1.54027  0.9427E-13  0.4095E-13  0.8589E-16  0.1000E-09  0.0000E+00  0.4530E+16
   -0.525003    1.65682  0.9015E-13  0.4095E-13  0.8589E-16  0.1000E-09  0.0000E+00  0.4284E+16
   -0.562505    1.77290  0.8743E-13  0.4095E-13  0.8589E-16  0.1000E-09  0.0000E+00  0.4039E+16
   -0.600007    1.88844  0.8563E-13  0.4095E-13  0.8589E-16  0.1000E-09  0.0000E+00  0.3796E+16
   -0.637509    2.00338  0.8440E-13  0.4095E-13  0.8589E-16  0.1000E-09  0.0000E+00  0.3556E+16
   -0.675011    2.11766  0.8355E-13  0.4095E-13  0.8589E-16  0.1000E-09  0.0000E+00  0.3318E+16
   -0.712512    2.23122  0.8293E-13  0.4095E-13  0.8589E-16  0.1000E-09  0.0000E+00  0.3084E+16
   -0.750014    2.34402  0.8248E-13  0.4095E-13  0.8589E-16  0.1000E-09  0.0000E+00  0.2857E+16
   -0.787516    2.45611  0.8215E-13  0.4095E-13  0.8589E-16  0.1000E-09  0.0000E+00  0.2634E+16
   -0.825018    2.56747  0.8191E-13  0.4095E-13  0.8589E-16  0.1000E-09  0.0000E+00  0.2414E+16
   -0.862520    2.67807  0.8174E-13  0.4095E-13  0.8589E-16  0.1000E-09  0.0000E+00  0.2199E+16
   -0.900022    2.78786  0.8162E-13  0.4095E-13  0.8589E-16  0.1000E-09  0.0000E+00  0.1988E+16
   -0.937524    2.89678  0.8154E-13  0.4095E-13  0.8589E-16  0.1000E-09  0.0000E+00  0.1781E+16
   -0.975026    3.00480  0.8148E-13  0.8425E-13  0.8602E-16  0.1000E-09  0.0000E+00  0.1580E+16
   -1.012527    3.11188  0.8145E-13  0.2906E-12  0.1851E-15  0.1000E-09  0.0000E+00  0.1378E+16
   -1.050029    3.21757  0.8143E-13  0.8536E-12  0.4979E-15  0.1000E-09  0.0000E+00  0.1182E+16
   -1.087530    3.32170  0.8141E-13  0.2378E-11  0.1337E-14  0.1000E-09  0.0000E+00  0.9939E+15
   -1.125031    3.42414  0.8141E-13  0.6486E-11  0.3540E-14  0.1000E-09  0.0000E+00  0.8226E+15
   -1.162532    3.52603  0.8140E-13  0.1745E-10  0.9257E-14  0.1000E-09  0.0000E+00  0.6555E+15
   -1.200033    3.62755  0.8140E-13  0.4634E-10  0.2393E-13  0.1340E-09  0.0000E+00  0.4907E+15
   -1.237533    3.72868  0.8140E-13  0.1216E-09  0.6117E-13  0.5111E-09  0.0000E+00  0.3277E+15
   -1.275033    3.82924  0.8140E-13  0.3149E-09  0.1546E-12  0.2510E-08  0.0000E+00  0.1671E+15
   -1.312534    3.92818  0.8140E-13  0.7934E-09  0.3823E-12  0.3992E-07  0.0000E+00  0.2367E+14
   -1.350033    4.00683  0.8140E-13  0.1710E-08  0.8473E-12  0.1323E-05  0.0000E+00 -0.3861E+13
   -1.387533    4.01659  0.8140E-13  0.2117E-08  0.1263E-11  0.1293E-05  0.0000E+00 -0.5471E+13
   -1.425032    4.02651  0.8140E-13  0.2120E-08  0.1858E-11  0.8046E-06  0.0000E+00 -0.1126E+14
   -1.462531    4.04158  0.8140E-13  0.1614E-08  0.3277E-11  0.2020E-06  0.0000E+00 -0.4998E+14
   -1.500029    4.08349  0.8140E-13  0.0000E+00  0.0000E+00  0.0000E+00  0.0000E+00  0.0000E+00
