 1 - depth, m
 2 - temperature, C
 3 - salinity, kg/kg
 4 - turbulent kinetic energy, m**2/s**2
 5 - dissipation rate, m**2/s**3
 6 - kinematic heat conductance, m**2/s
 7 - modulus of horizontal velocity, m/s
 8 - Richardson number, n/d
   -0.000000   15.96848  0.8938E-13  0.1714E-04  0.1275E-05  0.2270E-04  0.2340E-01 -0.2082E-01
   -0.037498   15.99553  0.8938E-13  0.1396E-04  0.4773E-06  0.4394E-04  0.1406E-01 -0.5598E-01
   -0.074996   16.00789  0.8938E-13  0.1200E-04  0.2570E-06  0.6442E-04  0.1032E-01 -0.1002E+00
   -0.112494   16.01602  0.8938E-13  0.1061E-04  0.1606E-06  0.8845E-04  0.8050E-02 -0.1435E+00
   -0.149993   16.02177  0.8938E-13  0.9618E-05  0.1103E-06  0.1447E-03  0.6531E-02  0.7914E+01
   -0.187492   16.02553  0.8938E-13  0.8951E-05  0.8205E-07  0.2400E-03  0.5507E-02  0.3523E+03
   -0.224992   16.02775  0.8938E-13  0.8539E-05  0.6530E-07  0.3484E-03  0.4797E-02  0.2464E+04
   -0.262491   16.02909  0.8938E-13  0.8283E-05  0.5394E-07  0.3795E-03  0.4269E-02  0.3686E+01
   -0.299991   16.03028  0.8938E-13  0.8106E-05  0.4537E-07  0.4043E-03  0.3793E-02  0.3508E+01
   -0.337491   16.03137  0.8938E-13  0.7991E-05  0.3888E-07  0.4290E-03  0.3381E-02  0.3175E+01
   -0.374992   16.03238  0.8938E-13  0.7920E-05  0.3385E-07  0.4575E-03  0.3023E-02  0.2860E+01
   -0.412492   16.03331  0.8938E-13  0.7881E-05  0.2991E-07  0.4898E-03  0.2711E-02  0.2553E+01
   -0.449993   16.03417  0.8938E-13  0.7867E-05  0.2681E-07  0.5271E-03  0.2443E-02  0.2256E+01
   -0.487494   16.03496  0.8938E-13  0.7870E-05  0.2438E-07  0.5665E-03  0.2214E-02  0.2026E+01
   -0.524995   16.03568  0.8938E-13  0.7887E-05  0.2247E-07  0.5946E-03  0.2018E-02  0.2069E+01
   -0.562496   16.03638  0.8938E-13  0.7907E-05  0.2095E-07  0.6223E-03  0.1837E-02  0.2089E+01
   -0.599997   16.03705  0.8938E-13  0.7923E-05  0.1973E-07  0.6506E-03  0.1669E-02  0.2086E+01
   -0.637498   16.03769  0.8938E-13  0.7928E-05  0.1878E-07  0.6777E-03  0.1513E-02  0.2061E+01
   -0.674999   16.03832  0.8938E-13  0.7919E-05  0.1805E-07  0.7025E-03  0.1369E-02  0.2020E+01
   -0.712501   16.03893  0.8938E-13  0.7891E-05  0.1751E-07  0.7244E-03  0.1237E-02  0.1967E+01
   -0.750002   16.03953  0.8938E-13  0.7843E-05  0.1714E-07  0.7435E-03  0.1116E-02  0.1905E+01
   -0.787503   16.04012  0.8938E-13  0.7775E-05  0.1693E-07  0.7604E-03  0.1006E-02  0.1840E+01
   -0.825005   16.04071  0.8938E-13  0.7687E-05  0.1685E-07  0.7764E-03  0.9068E-03  0.1773E+01
   -0.862506   16.04130  0.8938E-13  0.7579E-05  0.1690E-07  0.7927E-03  0.8168E-03  0.1708E+01
   -0.900007   16.04188  0.8938E-13  0.7454E-05  0.1705E-07  0.8101E-03  0.7356E-03  0.1646E+01
   -0.937508   16.04246  0.8938E-13  0.7314E-05  0.1731E-07  0.8303E-03  0.6624E-03  0.1591E+01
   -0.975010   16.04304  0.8938E-13  0.7164E-05  0.1767E-07  0.8081E-03  0.5963E-03  0.1479E+01
   -1.012510   16.04365  0.8938E-13  0.7067E-05  0.1794E-07  0.9238E-03  0.5360E-03  0.1238E+01
   -1.050011   16.04419  0.8938E-13  0.6979E-05  0.1822E-07  0.7213E-03  0.5140E-03  0.4409E+01
   -1.087512   16.04489  0.8938E-13  0.6861E-05  0.1865E-07  0.7595E-03  0.4889E-03  0.1244E+01
   -1.125012   16.04557  0.8938E-13  0.6708E-05  0.1925E-07  0.6766E-03  0.4564E-03  0.1120E+01
   -1.162513   16.04634  0.8938E-13  0.6558E-05  0.1991E-07  0.6396E-03  0.4307E-03  0.1217E+01
   -1.200013   16.04717  0.8938E-13  0.6391E-05  0.2072E-07  0.5953E-03  0.4092E-03  0.1734E+01
   -1.237513   16.04808  0.8938E-13  0.6193E-05  0.2179E-07  0.5344E-03  0.3890E-03  0.2749E+01
   -1.275012   16.04912  0.8938E-13  0.5955E-05  0.2325E-07  0.4647E-03  0.3695E-03  0.4838E+01
   -1.312512   16.05033  0.8938E-13  0.5665E-05  0.2531E-07  0.3930E-03  0.3508E-03  0.9778E+01
   -1.350011   16.05179  0.8938E-13  0.5301E-05  0.2846E-07  0.2998E-03  0.3330E-03  0.2547E+02
   -1.387510   16.05375  0.8938E-13  0.4832E-05  0.3375E-07  0.2515E-03  0.3155E-03  0.8655E+02
   -1.425008   16.05617  0.8938E-13  0.4094E-05  0.4790E-07  0.1208E-03  0.3012E-03  0.1032E+05
   -1.462506   16.06355  0.8938E-13  0.2381E-05  0.1074E-06  0.2913E-04  0.2825E-03 -0.5176E+05
   -1.500004   16.08740  0.8938E-13  0.0000E+00  0.0000E+00  0.0000E+00  0.2848E-03  0.0000E+00
