 1 - depth, m
 2 - temperature, C
 3 - salinity, kg/kg
 4 - turbulent kinetic energy, m**2/s**2
 5 - dissipation rate, m**2/s**3
 6 - kinematic heat conductance, m**2/s
 7 - modulus of horizontal velocity, m/s
 8 - Richardson number, n/d
   -0.000000   -0.00000  0.1273E-11  0.4096E-13  0.8590E-16  0.1000E-09  0.0000E+00  0.2010E+17
   -0.037497    0.31475  0.0000E+00  0.4096E-13  0.8590E-16  0.1000E-09  0.0000E+00  0.1563E+17
   -0.074994    0.58094  0.1235E-12  0.4096E-13  0.8590E-16  0.1000E-09  0.0000E+00  0.1210E+17
   -0.112492    0.80319  0.8193E-13  0.4096E-13  0.8590E-16  0.1000E-09  0.0000E+00  0.9310E+16
   -0.149990    0.98605  0.9101E-13  0.4096E-13  0.8590E-16  0.1000E-09  0.0000E+00  0.7103E+16
   -0.187488    1.13388  0.8862E-13  0.4096E-13  0.8590E-16  0.1000E-09  0.0000E+00  0.5348E+16
   -0.224986    1.25075  0.8867E-13  0.4096E-13  0.8590E-16  0.1000E-09  0.0000E+00  0.3942E+16
   -0.262485    1.34036  0.8858E-13  0.4096E-13  0.8590E-16  0.1000E-09  0.0000E+00  0.2927E+16
   -0.299984    1.40904  0.8852E-13  0.4096E-13  0.8590E-16  0.1000E-09  0.0000E+00  0.2139E+16
   -0.337483    1.46048  0.8848E-13  0.4899E-13  0.8595E-16  0.1000E-09  0.0000E+00  0.1507E+16
   -0.374983    1.49742  0.8847E-13  0.9286E-13  0.9870E-16  0.1000E-09  0.0000E+00  0.1106E+16
   -0.412482    1.52493  0.8846E-13  0.2523E-12  0.1587E-15  0.1000E-09  0.0000E+00  0.8727E+15
   -0.449982    1.54689  0.8844E-13  0.6941E-12  0.3438E-15  0.1000E-09  0.0000E+00  0.7323E+15
   -0.487482    1.56551  0.8839E-13  0.1820E-11  0.8430E-15  0.1000E-09  0.0000E+00  0.7413E+15
   -0.524982    1.58454  0.8814E-13  0.4620E-11  0.2071E-14  0.1000E-09  0.0000E+00  0.1137E+16
   -0.562482    1.61398  0.8736E-13  0.1152E-10  0.5025E-14  0.1000E-09  0.0000E+00  0.1611E+16
   -0.599983    1.65634  0.8587E-13  0.2835E-10  0.1205E-13  0.1000E-09  0.0000E+00  0.2163E+16
   -0.637483    1.71451  0.8415E-13  0.6899E-10  0.2856E-13  0.1000E-09  0.0000E+00  0.2790E+16
   -0.674983    1.79198  0.8308E-13  0.1660E-09  0.6695E-13  0.1022E-09  0.0000E+00  0.3490E+16
   -0.712484    1.89323  0.8269E-13  0.3950E-09  0.1553E-12  0.1236E-09  0.0000E+00  0.4249E+16
   -0.749984    2.02410  0.8217E-13  0.9299E-09  0.3563E-12  0.1939E-09  0.0000E+00  0.5160E+16
   -0.787485    2.19689  0.8159E-13  0.2166E-08  0.8091E-12  0.3642E-09  0.0000E+00  0.5993E+16
   -0.824985    2.42345  0.8124E-13  0.4989E-08  0.1818E-11  0.7809E-09  0.0000E+00  0.6473E+16
   -0.862486    2.71724  0.8114E-13  0.1136E-07  0.4040E-11  0.1987E-08  0.0000E+00  0.6184E+16
   -0.899986    3.09337  0.8111E-13  0.2535E-07  0.8815E-11  0.1104E-07  0.0000E+00  0.4537E+16
   -0.937486    3.54498  0.8098E-13  0.4131E-07  0.1444E-10  0.1527E-04  0.0000E+00  0.2162E+16
   -0.974987    3.89569  0.8089E-13  0.5254E-07  0.1855E-10  0.3856E-04  0.0000E+00  0.4104E+15
   -1.012487    4.05939  0.8086E-13  0.5482E-07  0.1954E-10  0.5752E-04  0.0000E+00 -0.1898E+13
   -1.049987    4.06104  0.8086E-13  0.5616E-07  0.2032E-10  0.5618E-04  0.0000E+00 -0.2027E+13
   -1.087486    4.06276  0.8086E-13  0.5723E-07  0.2118E-10  0.5588E-04  0.0000E+00 -0.2132E+13
   -1.124986    4.06453  0.8086E-13  0.5800E-07  0.2212E-10  0.5502E-04  0.0000E+00 -0.2234E+13
   -1.162485    4.06634  0.8086E-13  0.5847E-07  0.2318E-10  0.5355E-04  0.0000E+00 -0.2363E+13
   -1.199985    4.06821  0.8086E-13  0.5862E-07  0.2440E-10  0.5143E-04  0.0000E+00 -0.2535E+13
   -1.237484    4.07017  0.8086E-13  0.5841E-07  0.2582E-10  0.4859E-04  0.0000E+00 -0.2769E+13
   -1.274982    4.07226  0.8086E-13  0.5779E-07  0.2756E-10  0.4500E-04  0.0000E+00 -0.3090E+13
   -1.312481    4.07453  0.8086E-13  0.5668E-07  0.2975E-10  0.4064E-04  0.0000E+00 -0.3545E+13
   -1.349979    4.07707  0.8086E-13  0.5474E-07  0.3307E-10  0.3364E-04  0.0000E+00 -0.4446E+13
   -1.387477    4.08016  0.8086E-13  0.5119E-07  0.3912E-10  0.2039E-04  0.0000E+00 -0.7726E+13
   -1.424975    4.08530  0.8086E-13  0.4473E-07  0.5228E-10  0.1004E-04  0.0000E+00 -0.1700E+14
   -1.462472    4.09575  0.8086E-13  0.2945E-07  0.1067E-09  0.1686E-05  0.0000E+00 -0.1270E+15
   -1.499969    4.15436  0.8086E-13  0.0000E+00  0.0000E+00  0.0000E+00  0.0000E+00  0.0000E+00
