 1 - depth, m
 2 - temperature, C
 3 - salinity, kg/kg
 4 - turbulent kinetic energy, m**2/s**2
 5 - dissipation rate, m**2/s**3
 6 - kinematic heat conductance, m**2/s
 7 - modulus of horizontal velocity, m/s
 8 - Richardson number, n/d
   -0.000000   -0.00000  0.1126E-11  0.4096E-13  0.8590E-16  0.1000E-09  0.0000E+00  0.7540E+16
   -0.037498    0.11488  0.4824E-12  0.4096E-13  0.8590E-16  0.1000E-09  0.0000E+00  0.7270E+16
   -0.074995    0.22920  0.2811E-12  0.4096E-13  0.8590E-16  0.1000E-09  0.0000E+00  0.7002E+16
   -0.112494    0.34293  0.2000E-12  0.4096E-13  0.8590E-16  0.1000E-09  0.0000E+00  0.6737E+16
   -0.149992    0.45601  0.1572E-12  0.4096E-13  0.8590E-16  0.1000E-09  0.0000E+00  0.6474E+16
   -0.187491    0.56842  0.1322E-12  0.4096E-13  0.8590E-16  0.1000E-09  0.0000E+00  0.6214E+16
   -0.224990    0.68013  0.1175E-12  0.4096E-13  0.8590E-16  0.1000E-09  0.0000E+00  0.5957E+16
   -0.262489    0.79109  0.1093E-12  0.4096E-13  0.8590E-16  0.1000E-09  0.0000E+00  0.5700E+16
   -0.299989    0.90121  0.1049E-12  0.4096E-13  0.8590E-16  0.1000E-09  0.0000E+00  0.5447E+16
   -0.337489    1.01044  0.1026E-12  0.4096E-13  0.8590E-16  0.1000E-09  0.0000E+00  0.5197E+16
   -0.374989    1.11874  0.1014E-12  0.4096E-13  0.8590E-16  0.1000E-09  0.0000E+00  0.4972E+16
   -0.412489    1.22654  0.1005E-12  0.4096E-13  0.8590E-16  0.1000E-09  0.0000E+00  0.4762E+16
   -0.449989    1.33407  0.9974E-13  0.4096E-13  0.8590E-16  0.1000E-09  0.0000E+00  0.4554E+16
   -0.487490    1.44135  0.9897E-13  0.4096E-13  0.8590E-16  0.1000E-09  0.0000E+00  0.4344E+16
   -0.524991    1.54828  0.9818E-13  0.4096E-13  0.8590E-16  0.1000E-09  0.0000E+00  0.4117E+16
   -0.562491    1.65431  0.9736E-13  0.4096E-13  0.8590E-16  0.1000E-09  0.0000E+00  0.3894E+16
   -0.599992    1.75944  0.9658E-13  0.4096E-13  0.8590E-16  0.1000E-09  0.0000E+00  0.3676E+16
   -0.637493    1.86364  0.9584E-13  0.4096E-13  0.8590E-16  0.1000E-09  0.0000E+00  0.3463E+16
   -0.674994    1.96689  0.9520E-13  0.4096E-13  0.8590E-16  0.1000E-09  0.0000E+00  0.3255E+16
   -0.712495    2.06916  0.9466E-13  0.4096E-13  0.8590E-16  0.1000E-09  0.0000E+00  0.3051E+16
   -0.749996    2.17045  0.9422E-13  0.4096E-13  0.8590E-16  0.1000E-09  0.0000E+00  0.2862E+16
   -0.787497    2.27105  0.9387E-13  0.4096E-13  0.8590E-16  0.1000E-09  0.0000E+00  0.2679E+16
   -0.824998    2.37107  0.9361E-13  0.4096E-13  0.8590E-16  0.1000E-09  0.0000E+00  0.2500E+16
   -0.862499    2.47049  0.9343E-13  0.4096E-13  0.8590E-16  0.1000E-09  0.0000E+00  0.2323E+16
   -0.900000    2.56928  0.9329E-13  0.4096E-13  0.8590E-16  0.1000E-09  0.0000E+00  0.2150E+16
   -0.937501    2.66745  0.9320E-13  0.4096E-13  0.8590E-16  0.1000E-09  0.0000E+00  0.1980E+16
   -0.975002    2.76497  0.9313E-13  0.4096E-13  0.8590E-16  0.1000E-09  0.0000E+00  0.1813E+16
   -1.012503    2.86184  0.9309E-13  0.4096E-13  0.8590E-16  0.1000E-09  0.0000E+00  0.1665E+16
   -1.050003    2.95894  0.9307E-13  0.4096E-13  0.8590E-16  0.1000E-09  0.0000E+00  0.1519E+16
   -1.087504    3.05653  0.9305E-13  0.4096E-13  0.8590E-16  0.1000E-09  0.0000E+00  0.1373E+16
   -1.125004    3.15466  0.9304E-13  0.4096E-13  0.8590E-16  0.1000E-09  0.0000E+00  0.1235E+16
   -1.162504    3.25427  0.9304E-13  0.5921E-13  0.8956E-16  0.1000E-09  0.0000E+00  0.1094E+16
   -1.200004    3.35564  0.9303E-13  0.2460E-12  0.3242E-15  0.1000E-09  0.0000E+00  0.9454E+15
   -1.237503    3.45892  0.9303E-13  0.1045E-11  0.1333E-14  0.1000E-09  0.0000E+00  0.7894E+15
   -1.275003    3.56427  0.9303E-13  0.4359E-11  0.5426E-14  0.1000E-09  0.0000E+00  0.6244E+15
   -1.312502    3.67189  0.9303E-13  0.1789E-10  0.2182E-13  0.1247E-09  0.0000E+00  0.4491E+15
   -1.350001    3.78196  0.9303E-13  0.7221E-10  0.8690E-13  0.8134E-09  0.0000E+00  0.2613E+15
   -1.387499    3.89421  0.9303E-13  0.2850E-09  0.3439E-12  0.9665E-08  0.0000E+00  0.6440E+14
   -1.424997    4.00270  0.9303E-13  0.1026E-08  0.1350E-11  0.2551E-06  0.0000E+00 -0.2517E+14
   -1.462495    4.04537  0.9303E-13  0.1404E-08  0.3208E-11  0.1867E-06  0.0000E+00 -0.7241E+14
   -1.499993    4.09920  0.9303E-13  0.0000E+00  0.0000E+00  0.0000E+00  0.0000E+00  0.0000E+00
