 1 - depth, m
 2 - temperature, C
 3 - salinity, kg/kg
 4 - turbulent kinetic energy, m**2/s**2
 5 - dissipation rate, m**2/s**3
 6 - kinematic heat conductance, m**2/s
 7 - modulus of horizontal velocity, m/s
 8 - Richardson number, n/d
   -0.000000   -0.00000  0.4481E-12  0.4096E-13  0.8590E-16  0.1000E-09  0.0000E+00  0.1113E+17
   -0.037498    0.17083  0.3858E-12  0.4096E-13  0.8590E-16  0.1000E-09  0.0000E+00  0.1054E+17
   -0.074996    0.34044  0.3143E-12  0.4096E-13  0.8590E-16  0.1000E-09  0.0000E+00  0.9954E+16
   -0.112494    0.50877  0.2386E-12  0.4096E-13  0.8590E-16  0.1000E-09  0.0000E+00  0.9381E+16
   -0.149993    0.67574  0.1779E-12  0.4096E-13  0.8590E-16  0.1000E-09  0.0000E+00  0.8819E+16
   -0.187491    0.84124  0.1382E-12  0.4096E-13  0.8590E-16  0.1000E-09  0.0000E+00  0.8267E+16
   -0.224991    1.00519  0.1160E-12  0.4096E-13  0.8590E-16  0.1000E-09  0.0000E+00  0.7726E+16
   -0.262490    1.16746  0.1052E-12  0.5990E-13  0.8590E-16  0.1000E-09  0.0000E+00  0.7202E+16
   -0.299990    1.32808  0.1005E-12  0.2424E-12  0.8590E-16  0.1000E-09  0.0000E+00  0.6691E+16
   -0.337490    1.48697  0.9857E-13  0.5913E-12  0.1346E-15  0.1000E-09  0.0000E+00  0.6192E+16
   -0.374990    1.64400  0.9782E-13  0.1203E-11  0.2384E-15  0.1000E-09  0.0000E+00  0.5736E+16
   -0.412490    1.79991  0.9744E-13  0.2279E-11  0.4281E-15  0.1000E-09  0.0000E+00  0.5305E+16
   -0.449991    1.95514  0.9709E-13  0.4190E-11  0.7641E-15  0.1000E-09  0.0000E+00  0.4879E+16
   -0.487492    2.10961  0.9664E-13  0.7594E-11  0.1354E-14  0.1000E-09  0.0000E+00  0.4458E+16
   -0.524992    2.26325  0.9603E-13  0.1360E-10  0.2376E-14  0.1000E-09  0.0000E+00  0.4042E+16
   -0.562493    2.41585  0.9527E-13  0.2414E-10  0.4139E-14  0.1000E-09  0.0000E+00  0.3633E+16
   -0.599994    2.56734  0.9437E-13  0.4259E-10  0.7166E-14  0.1000E-09  0.0000E+00  0.3233E+16
   -0.637495    2.71768  0.9340E-13  0.7474E-10  0.1234E-13  0.1000E-09  0.0000E+00  0.2843E+16
   -0.674996    2.86679  0.9243E-13  0.1305E-09  0.2115E-13  0.1000E-09  0.0000E+00  0.2462E+16
   -0.712498    3.01462  0.9150E-13  0.2266E-09  0.3608E-13  0.1000E-09  0.0000E+00  0.2091E+16
   -0.749999    3.16111  0.9066E-13  0.3918E-09  0.6124E-13  0.1008E-09  0.0000E+00  0.1739E+16
   -0.787500    3.30688  0.8995E-13  0.6739E-09  0.1035E-12  0.2061E-09  0.0000E+00  0.1393E+16
   -0.825001    3.45202  0.8943E-13  0.1154E-08  0.1740E-12  0.4588E-09  0.0000E+00  0.1053E+16
   -0.862502    3.59635  0.8910E-13  0.1965E-08  0.2912E-12  0.1127E-08  0.0000E+00  0.7174E+15
   -0.900003    3.73944  0.8893E-13  0.3327E-08  0.4846E-12  0.3455E-08  0.0000E+00  0.3894E+15
   -0.937504    3.87965  0.8887E-13  0.5551E-08  0.7958E-12  0.2524E-07  0.0000E+00  0.8754E+14
   -0.975005    4.00104  0.8886E-13  0.6377E-08  0.9189E-12  0.1545E-04  0.0000E+00 -0.3119E+12
   -1.012506    4.00234  0.8886E-13  0.6771E-08  0.9909E-12  0.1631E-04  0.0000E+00 -0.3233E+12
   -1.050007    4.00358  0.8886E-13  0.7113E-08  0.1068E-11  0.1680E-04  0.0000E+00 -0.3415E+12
   -1.087507    4.00480  0.8886E-13  0.7405E-08  0.1152E-11  0.1692E-04  0.0000E+00 -0.3673E+12
   -1.125008    4.00603  0.8886E-13  0.7648E-08  0.1246E-11  0.1668E-04  0.0000E+00 -0.4026E+12
   -1.162508    4.00729  0.8886E-13  0.7837E-08  0.1353E-11  0.1609E-04  0.0000E+00 -0.4511E+12
   -1.200008    4.00862  0.8886E-13  0.7966E-08  0.1477E-11  0.1513E-04  0.0000E+00 -0.5186E+12
   -1.237507    4.01006  0.8886E-13  0.8026E-08  0.1626E-11  0.1381E-04  0.0000E+00 -0.6161E+12
   -1.275007    4.01167  0.8886E-13  0.7997E-08  0.1813E-11  0.1211E-04  0.0000E+00 -0.7655E+12
   -1.312506    4.01353  0.8886E-13  0.7850E-08  0.2061E-11  0.1003E-04  0.0000E+00 -0.1015E+13
   -1.350005    4.01581  0.8886E-13  0.7532E-08  0.2421E-11  0.7600E-05  0.0000E+00 -0.1492E+13
   -1.387504    4.01888  0.8886E-13  0.6934E-08  0.3020E-11  0.4888E-05  0.0000E+00 -0.2651E+13
   -1.425002    4.02372  0.8886E-13  0.5810E-08  0.4305E-11  0.2186E-05  0.0000E+00 -0.7181E+13
   -1.462500    4.03444  0.8886E-13  0.3764E-08  0.8617E-11  0.3736E-06  0.0000E+00 -0.5698E+14
   -1.499998    4.08428  0.8886E-13  0.0000E+00  0.0000E+00  0.0000E+00  0.0000E+00  0.0000E+00
