 1 - depth, m
 2 - temperature, C
 3 - salinity, kg/kg
 4 - turbulent kinetic energy, m**2/s**2
 5 - dissipation rate, m**2/s**3
 6 - kinematic heat conductance, m**2/s
 7 - modulus of horizontal velocity, m/s
 8 - Richardson number, n/d
   -0.000000   -0.00000  0.9019E-12  0.4096E-13  0.8590E-16  0.1000E-09  0.0000E+00  0.1258E+17
   -0.037498    0.19369  0.4167E-12  0.4096E-13  0.8590E-16  0.1000E-09  0.0000E+00  0.1180E+17
   -0.074995    0.38548  0.2553E-12  0.4096E-13  0.8590E-16  0.1000E-09  0.0000E+00  0.1104E+17
   -0.112494    0.57526  0.1864E-12  0.4096E-13  0.8590E-16  0.1000E-09  0.0000E+00  0.1029E+17
   -0.149992    0.76293  0.1475E-12  0.1300E-12  0.8590E-16  0.1000E-09  0.0000E+00  0.9569E+16
   -0.187491    0.94837  0.1229E-12  0.3844E-12  0.9772E-16  0.1000E-09  0.0000E+00  0.8865E+16
   -0.224990    1.13149  0.1073E-12  0.8301E-12  0.1546E-15  0.1000E-09  0.0000E+00  0.8182E+16
   -0.262489    1.31216  0.9798E-13  0.1579E-11  0.2636E-15  0.1000E-09  0.0000E+00  0.7523E+16
   -0.299989    1.49034  0.9270E-13  0.2843E-11  0.4525E-15  0.1000E-09  0.0000E+00  0.6886E+16
   -0.337489    1.66594  0.8980E-13  0.4990E-11  0.7726E-15  0.1000E-09  0.0000E+00  0.6273E+16
   -0.374989    1.83887  0.8814E-13  0.8647E-11  0.1311E-14  0.1000E-09  0.0000E+00  0.5698E+16
   -0.412489    2.00952  0.8703E-13  0.1487E-10  0.2211E-14  0.1000E-09  0.0000E+00  0.5153E+16
   -0.449990    2.17814  0.8612E-13  0.2541E-10  0.3713E-14  0.1000E-09  0.0000E+00  0.4625E+16
   -0.487490    2.34465  0.8525E-13  0.4324E-10  0.6206E-14  0.1000E-09  0.0000E+00  0.4116E+16
   -0.524991    2.50898  0.8439E-13  0.7301E-10  0.1030E-13  0.1000E-09  0.0000E+00  0.3625E+16
   -0.562492    2.67105  0.8358E-13  0.1225E-09  0.1698E-13  0.1000E-09  0.0000E+00  0.3153E+16
   -0.599993    2.83081  0.8286E-13  0.2045E-09  0.2787E-13  0.1000E-09  0.0000E+00  0.2701E+16
   -0.637494    2.98824  0.8229E-13  0.3398E-09  0.4553E-13  0.1000E-09  0.0000E+00  0.2269E+16
   -0.674995    3.14328  0.8188E-13  0.5622E-09  0.7407E-13  0.1108E-09  0.0000E+00  0.1856E+16
   -0.712496    3.29589  0.8163E-13  0.9262E-09  0.1200E-12  0.2281E-09  0.0000E+00  0.1461E+16
   -0.749997    3.44594  0.8149E-13  0.1520E-08  0.1937E-12  0.4943E-09  0.0000E+00  0.1088E+16
   -0.787498    3.59372  0.8143E-13  0.2483E-08  0.3113E-12  0.1181E-08  0.0000E+00  0.7317E+15
   -0.824999    3.73895  0.8141E-13  0.4034E-08  0.4978E-12  0.3526E-08  0.0000E+00  0.3919E+15
   -0.862500    3.88004  0.8140E-13  0.6467E-08  0.7862E-12  0.2515E-07  0.0000E+00  0.8680E+14
   -0.900001    4.00132  0.8140E-13  0.7127E-08  0.8702E-12  0.2192E-04  0.0000E+00 -0.2201E+12
   -0.937502    4.00223  0.8140E-13  0.7430E-08  0.9162E-12  0.2401E-04  0.0000E+00 -0.2125E+12
   -0.975003    4.00306  0.8140E-13  0.7679E-08  0.9624E-12  0.2464E-04  0.0000E+00 -0.2176E+12
   -1.012503    4.00387  0.8140E-13  0.7884E-08  0.1010E-11  0.2474E-04  0.0000E+00 -0.2278E+12
   -1.050004    4.00468  0.8140E-13  0.8053E-08  0.1061E-11  0.2457E-04  0.0000E+00 -0.2408E+12
   -1.087504    4.00550  0.8140E-13  0.8189E-08  0.1119E-11  0.2408E-04  0.0000E+00 -0.2578E+12
   -1.125005    4.00634  0.8140E-13  0.8289E-08  0.1186E-11  0.2283E-04  0.0000E+00 -0.2852E+12
   -1.162505    4.00723  0.8140E-13  0.8345E-08  0.1264E-11  0.2073E-04  0.0000E+00 -0.3301E+12
   -1.200004    4.00821  0.8140E-13  0.8350E-08  0.1357E-11  0.1847E-04  0.0000E+00 -0.3904E+12
   -1.237504    4.00932  0.8140E-13  0.8289E-08  0.1472E-11  0.1625E-04  0.0000E+00 -0.4698E+12
   -1.275003    4.01059  0.8140E-13  0.8145E-08  0.1618E-11  0.1391E-04  0.0000E+00 -0.5840E+12
   -1.312503    4.01208  0.8140E-13  0.7888E-08  0.1815E-11  0.1129E-04  0.0000E+00 -0.7713E+12
   -1.350001    4.01393  0.8140E-13  0.7465E-08  0.2104E-11  0.8370E-05  0.0000E+00 -0.1130E+13
   -1.387500    4.01643  0.8140E-13  0.6769E-08  0.2592E-11  0.5243E-05  0.0000E+00 -0.2004E+13
   -1.424998    4.02041  0.8140E-13  0.5549E-08  0.3661E-11  0.2243E-05  0.0000E+00 -0.5500E+13
   -1.462496    4.02950  0.8140E-13  0.3405E-08  0.7337E-11  0.3388E-06  0.0000E+00 -0.4715E+14
   -1.499994    4.07514  0.8140E-13  0.0000E+00  0.0000E+00  0.0000E+00  0.0000E+00  0.0000E+00
