 1 - depth, m
 2 - temperature, C
 3 - salinity, kg/kg
 4 - turbulent kinetic energy, m**2/s**2
 5 - dissipation rate, m**2/s**3
 6 - kinematic heat conductance, m**2/s
 7 - modulus of horizontal velocity, m/s
 8 - Richardson number, n/d
   -0.000000   -0.00000  0.1873E-12  0.4096E-13  0.8590E-16  0.1000E-09  0.0000E+00  0.8358E+16
   -0.037498    0.12756  0.2592E-12  0.4096E-13  0.8590E-16  0.1000E-09  0.0000E+00  0.8061E+16
   -0.074996    0.25500  0.2964E-12  0.4096E-13  0.8590E-16  0.1000E-09  0.0000E+00  0.7769E+16
   -0.112494    0.38236  0.2928E-12  0.4096E-13  0.8590E-16  0.1000E-09  0.0000E+00  0.7478E+16
   -0.149993    0.50963  0.2610E-12  0.4096E-13  0.8590E-16  0.1000E-09  0.0000E+00  0.7187E+16
   -0.187492    0.63679  0.2187E-12  0.4096E-13  0.8590E-16  0.1000E-09  0.0000E+00  0.6895E+16
   -0.224991    0.76376  0.1789E-12  0.4096E-13  0.8590E-16  0.1000E-09  0.0000E+00  0.6601E+16
   -0.262491    0.89048  0.1474E-12  0.4096E-13  0.8590E-16  0.1000E-09  0.0000E+00  0.6310E+16
   -0.299990    1.01693  0.1251E-12  0.4096E-13  0.8590E-16  0.1000E-09  0.0000E+00  0.6018E+16
   -0.337490    1.14303  0.1105E-12  0.4096E-13  0.8590E-16  0.1000E-09  0.0000E+00  0.5725E+16
   -0.374991    1.26869  0.1012E-12  0.4096E-13  0.8590E-16  0.1000E-09  0.0000E+00  0.5434E+16
   -0.412491    1.39385  0.9552E-13  0.4096E-13  0.8590E-16  0.1000E-09  0.0000E+00  0.5143E+16
   -0.449992    1.51843  0.9199E-13  0.4096E-13  0.8590E-16  0.1000E-09  0.0000E+00  0.4854E+16
   -0.487492    1.64233  0.8973E-13  0.4096E-13  0.8590E-16  0.1000E-09  0.0000E+00  0.4569E+16
   -0.524993    1.76550  0.8818E-13  0.4096E-13  0.8590E-16  0.1000E-09  0.0000E+00  0.4293E+16
   -0.562494    1.88806  0.8705E-13  0.4096E-13  0.8590E-16  0.1000E-09  0.0000E+00  0.4019E+16
   -0.599995    2.00995  0.8617E-13  0.4096E-13  0.8590E-16  0.1000E-09  0.0000E+00  0.3749E+16
   -0.637496    2.13108  0.8545E-13  0.4096E-13  0.8590E-16  0.1000E-09  0.0000E+00  0.3482E+16
   -0.674998    2.25138  0.8485E-13  0.4096E-13  0.8590E-16  0.1000E-09  0.0000E+00  0.3219E+16
   -0.712499    2.37078  0.8436E-13  0.4096E-13  0.8590E-16  0.1000E-09  0.0000E+00  0.2960E+16
   -0.750000    2.48921  0.8398E-13  0.4096E-13  0.8590E-16  0.1000E-09  0.0000E+00  0.2710E+16
   -0.787501    2.60674  0.8368E-13  0.4096E-13  0.8590E-16  0.1000E-09  0.0000E+00  0.2465E+16
   -0.825003    2.72334  0.8346E-13  0.1721E-12  0.9529E-16  0.1000E-09  0.0000E+00  0.2225E+16
   -0.862504    2.83895  0.8331E-13  0.4847E-12  0.2004E-15  0.1000E-09  0.0000E+00  0.1990E+16
   -0.900005    2.95351  0.8321E-13  0.1179E-11  0.4526E-15  0.1000E-09  0.0000E+00  0.1761E+16
   -0.937506    3.06693  0.8315E-13  0.2736E-11  0.1014E-14  0.1000E-09  0.0000E+00  0.1539E+16
   -0.975007    3.17917  0.8311E-13  0.6225E-11  0.2246E-14  0.1000E-09  0.0000E+00  0.1323E+16
   -1.012508    3.29017  0.8309E-13  0.1403E-10  0.4934E-14  0.1000E-09  0.0000E+00  0.1111E+16
   -1.050009    3.39964  0.8308E-13  0.3145E-10  0.1078E-13  0.1000E-09  0.0000E+00  0.9075E+15
   -1.087509    3.50746  0.8308E-13  0.6990E-10  0.2339E-13  0.1000E-09  0.0000E+00  0.7125E+15
   -1.125010    3.61355  0.8307E-13  0.1540E-09  0.5029E-13  0.2611E-09  0.0000E+00  0.5322E+15
   -1.162510    3.71920  0.8307E-13  0.3363E-09  0.1073E-12  0.8342E-09  0.0000E+00  0.3546E+15
   -1.200010    3.82433  0.8307E-13  0.7270E-09  0.2267E-12  0.3476E-08  0.0000E+00  0.1788E+15
   -1.237510    3.92755  0.8307E-13  0.1527E-08  0.4670E-12  0.4951E-07  0.0000E+00  0.2409E+14
   -1.275009    4.00589  0.8307E-13  0.2550E-08  0.7872E-12  0.3245E-05  0.0000E+00 -0.1515E+13
   -1.312508    4.01033  0.8307E-13  0.3021E-08  0.1012E-11  0.3409E-05  0.0000E+00 -0.1751E+13
   -1.350007    4.01460  0.8307E-13  0.3268E-08  0.1267E-11  0.3058E-05  0.0000E+00 -0.2304E+13
   -1.387506    4.01940  0.8307E-13  0.3262E-08  0.1622E-11  0.2254E-05  0.0000E+00 -0.3684E+13
   -1.425004    4.02587  0.8307E-13  0.2894E-08  0.2271E-11  0.1151E-05  0.0000E+00 -0.8690E+13
   -1.462503    4.03803  0.8307E-13  0.2008E-08  0.4116E-11  0.2352E-06  0.0000E+00 -0.4836E+14
   -1.500000    4.08041  0.8307E-13  0.0000E+00  0.0000E+00  0.0000E+00  0.0000E+00  0.0000E+00
