 1 - depth, m
 2 - temperature, C
 3 - salinity, kg/kg
 4 - turbulent kinetic energy, m**2/s**2
 5 - dissipation rate, m**2/s**3
 6 - kinematic heat conductance, m**2/s
 7 - modulus of horizontal velocity, m/s
 8 - Richardson number, n/d
   -0.000000   -0.00000  0.8577E-12  0.4096E-13  0.8590E-16  0.1000E-09  0.0000E+00  0.1272E+17
   -0.037498    0.19588  0.3997E-12  0.4096E-13  0.8590E-16  0.1000E-09  0.0000E+00  0.1192E+17
   -0.074995    0.38977  0.2567E-12  0.4096E-13  0.8590E-16  0.1000E-09  0.0000E+00  0.1114E+17
   -0.112494    0.58157  0.1909E-12  0.4096E-13  0.8590E-16  0.1000E-09  0.0000E+00  0.1037E+17
   -0.149992    0.77115  0.1510E-12  0.1142E-12  0.8590E-16  0.1000E-09  0.0000E+00  0.9632E+16
   -0.187491    0.95839  0.1250E-12  0.3525E-12  0.9624E-16  0.1000E-09  0.0000E+00  0.8912E+16
   -0.224990    1.14319  0.1084E-12  0.7789E-12  0.1542E-15  0.1000E-09  0.0000E+00  0.8214E+16
   -0.262489    1.32543  0.9854E-13  0.1507E-11  0.2675E-15  0.1000E-09  0.0000E+00  0.7542E+16
   -0.299989    1.50508  0.9298E-13  0.2757E-11  0.4670E-15  0.1000E-09  0.0000E+00  0.6894E+16
   -0.337489    1.68205  0.8998E-13  0.4918E-11  0.8105E-15  0.1000E-09  0.0000E+00  0.6269E+16
   -0.374989    1.85623  0.8830E-13  0.8661E-11  0.1397E-14  0.1000E-09  0.0000E+00  0.5686E+16
   -0.412489    2.02807  0.8720E-13  0.1513E-10  0.2396E-14  0.1000E-09  0.0000E+00  0.5133E+16
   -0.449990    2.19779  0.8631E-13  0.2630E-10  0.4087E-14  0.1000E-09  0.0000E+00  0.4598E+16
   -0.487490    2.36533  0.8545E-13  0.4546E-10  0.6942E-14  0.1000E-09  0.0000E+00  0.4082E+16
   -0.524991    2.53060  0.8457E-13  0.7800E-10  0.1170E-13  0.1000E-09  0.0000E+00  0.3585E+16
   -0.562492    2.69354  0.8373E-13  0.1330E-09  0.1960E-13  0.1000E-09  0.0000E+00  0.3109E+16
   -0.599993    2.85408  0.8298E-13  0.2255E-09  0.3267E-13  0.1000E-09  0.0000E+00  0.2653E+16
   -0.637493    3.01218  0.8236E-13  0.3806E-09  0.5420E-13  0.1000E-09  0.0000E+00  0.2217E+16
   -0.674995    3.16782  0.8192E-13  0.6395E-09  0.8955E-13  0.1381E-09  0.0000E+00  0.1800E+16
   -0.712496    3.32091  0.8164E-13  0.1070E-08  0.1473E-12  0.2914E-09  0.0000E+00  0.1404E+16
   -0.749997    3.47129  0.8150E-13  0.1783E-08  0.2414E-12  0.6508E-09  0.0000E+00  0.1029E+16
   -0.787498    3.61923  0.8143E-13  0.2956E-08  0.3937E-12  0.1625E-08  0.0000E+00  0.6724E+15
   -0.824999    3.76426  0.8140E-13  0.4873E-08  0.6385E-12  0.5308E-08  0.0000E+00  0.3337E+15
   -0.862500    3.90382  0.8140E-13  0.7828E-08  0.1012E-11  0.5576E-07  0.0000E+00  0.5022E+14
   -0.900001    4.00638  0.8140E-13  0.8553E-08  0.1110E-11  0.2654E-04  0.0000E+00 -0.2415E+12
   -0.937502    4.00713  0.8140E-13  0.8851E-08  0.1159E-11  0.2713E-04  0.0000E+00 -0.2454E+12
   -0.975002    4.00787  0.8140E-13  0.9080E-08  0.1204E-11  0.2735E-04  0.0000E+00 -0.2524E+12
   -1.012503    4.00861  0.8140E-13  0.9270E-08  0.1252E-11  0.2741E-04  0.0000E+00 -0.2616E+12
   -1.050004    4.00934  0.8140E-13  0.9425E-08  0.1304E-11  0.2722E-04  0.0000E+00 -0.2735E+12
   -1.087504    4.01009  0.8140E-13  0.9543E-08  0.1360E-11  0.2678E-04  0.0000E+00 -0.2887E+12
   -1.125004    4.01085  0.8140E-13  0.9624E-08  0.1424E-11  0.2605E-04  0.0000E+00 -0.3081E+12
   -1.162504    4.01164  0.8140E-13  0.9664E-08  0.1503E-11  0.2500E-04  0.0000E+00 -0.3335E+12
   -1.200004    4.01247  0.8140E-13  0.9646E-08  0.1603E-11  0.2225E-04  0.0000E+00 -0.3899E+12
   -1.237504    4.01340  0.8140E-13  0.9554E-08  0.1728E-11  0.1894E-04  0.0000E+00 -0.4786E+12
   -1.275003    4.01451  0.8140E-13  0.9367E-08  0.1887E-11  0.1590E-04  0.0000E+00 -0.5992E+12
   -1.312502    4.01583  0.8140E-13  0.9052E-08  0.2103E-11  0.1283E-04  0.0000E+00 -0.7856E+12
   -1.350001    4.01749  0.8140E-13  0.8550E-08  0.2419E-11  0.9504E-05  0.0000E+00 -0.1135E+13
   -1.387500    4.01973  0.8140E-13  0.7744E-08  0.2954E-11  0.5962E-05  0.0000E+00 -0.1974E+13
   -1.424998    4.02331  0.8140E-13  0.6344E-08  0.4130E-11  0.2553E-05  0.0000E+00 -0.5277E+13
   -1.462496    4.03151  0.8140E-13  0.3810E-08  0.8309E-11  0.3640E-06  0.0000E+00 -0.4659E+14
   -1.499993    4.07573  0.8140E-13  0.0000E+00  0.0000E+00  0.0000E+00  0.0000E+00  0.0000E+00
