 1 - depth, m
 2 - temperature, C
 3 - salinity, kg/kg
 4 - turbulent kinetic energy, m**2/s**2
 5 - dissipation rate, m**2/s**3
 6 - kinematic heat conductance, m**2/s
 7 - modulus of horizontal velocity, m/s
 8 - Richardson number, n/d
   -0.000000   -0.00000  0.6040E-12  0.4096E-13  0.8590E-16  0.1000E-09  0.0000E+00  0.1090E+17
   -0.037498    0.16720  0.3912E-12  0.4096E-13  0.8590E-16  0.1000E-09  0.0000E+00  0.1032E+17
   -0.074995    0.33307  0.2922E-12  0.4096E-13  0.8590E-16  0.1000E-09  0.0000E+00  0.9750E+16
   -0.112494    0.49750  0.2253E-12  0.4096E-13  0.8590E-16  0.1000E-09  0.0000E+00  0.9193E+16
   -0.149992    0.66044  0.1752E-12  0.4096E-13  0.8590E-16  0.1000E-09  0.0000E+00  0.8647E+16
   -0.187491    0.82179  0.1406E-12  0.4096E-13  0.8590E-16  0.1000E-09  0.0000E+00  0.8112E+16
   -0.224990    0.98147  0.1193E-12  0.4096E-13  0.8590E-16  0.1000E-09  0.0000E+00  0.7590E+16
   -0.262490    1.13939  0.1076E-12  0.4096E-13  0.8590E-16  0.1000E-09  0.0000E+00  0.7083E+16
   -0.299989    1.29554  0.1018E-12  0.4096E-13  0.8590E-16  0.1000E-09  0.0000E+00  0.6589E+16
   -0.337489    1.44983  0.9916E-13  0.6009E-13  0.8590E-16  0.1000E-09  0.0000E+00  0.6109E+16
   -0.374989    1.60218  0.9796E-13  0.2372E-12  0.8680E-16  0.1000E-09  0.0000E+00  0.5668E+16
   -0.412490    1.75320  0.9731E-13  0.5812E-12  0.1312E-15  0.1000E-09  0.0000E+00  0.5252E+16
   -0.449990    1.90326  0.9680E-13  0.1179E-11  0.2289E-15  0.1000E-09  0.0000E+00  0.4843E+16
   -0.487491    2.05231  0.9624E-13  0.2220E-11  0.4065E-15  0.1000E-09  0.0000E+00  0.4441E+16
   -0.524992    2.20026  0.9557E-13  0.4035E-11  0.7162E-15  0.1000E-09  0.0000E+00  0.4043E+16
   -0.562492    2.34685  0.9477E-13  0.7206E-11  0.1250E-14  0.1000E-09  0.0000E+00  0.3654E+16
   -0.599993    2.49205  0.9389E-13  0.1274E-10  0.2167E-14  0.1000E-09  0.0000E+00  0.3277E+16
   -0.637494    2.63580  0.9297E-13  0.2238E-10  0.3733E-14  0.1000E-09  0.0000E+00  0.2910E+16
   -0.674995    2.77805  0.9206E-13  0.3907E-10  0.6397E-14  0.1000E-09  0.0000E+00  0.2554E+16
   -0.712497    2.91874  0.9121E-13  0.6787E-10  0.1091E-13  0.1000E-09  0.0000E+00  0.2209E+16
   -0.749998    3.05782  0.9047E-13  0.1173E-09  0.1851E-13  0.1000E-09  0.0000E+00  0.1883E+16
   -0.787499    3.19581  0.8986E-13  0.2017E-09  0.3125E-13  0.1000E-09  0.0000E+00  0.1568E+16
   -0.825000    3.33283  0.8941E-13  0.3452E-09  0.5252E-13  0.1167E-09  0.0000E+00  0.1259E+16
   -0.862501    3.46882  0.8912E-13  0.5878E-09  0.8786E-13  0.2549E-09  0.0000E+00  0.9571E+15
   -0.900002    3.60359  0.8897E-13  0.9962E-09  0.1463E-12  0.6126E-09  0.0000E+00  0.6632E+15
   -0.937503    3.73687  0.8890E-13  0.1679E-08  0.2423E-12  0.1780E-08  0.0000E+00  0.3785E+15
   -0.975004    3.86783  0.8888E-13  0.2806E-08  0.3982E-12  0.1012E-07  0.0000E+00  0.1100E+15
   -1.012505    3.99038  0.8887E-13  0.3531E-08  0.5031E-12  0.6359E-05  0.0000E+00 -0.2411E+12
   -1.050005    3.99338  0.8887E-13  0.3948E-08  0.5787E-12  0.8041E-05  0.0000E+00 -0.2930E+12
   -1.087506    3.99570  0.8887E-13  0.4323E-08  0.6612E-12  0.9060E-05  0.0000E+00 -0.3349E+12
   -1.125006    3.99777  0.8887E-13  0.4658E-08  0.7525E-12  0.9620E-05  0.0000E+00 -0.3827E+12
   -1.162506    3.99974  0.8887E-13  0.4952E-08  0.8553E-12  0.9785E-05  0.0000E+00 -0.4431E+12
   -1.200006    4.00171  0.8887E-13  0.5200E-08  0.9736E-12  0.9587E-05  0.0000E+00 -0.5239E+12
   -1.237506    4.00375  0.8887E-13  0.5394E-08  0.1114E-11  0.9040E-05  0.0000E+00 -0.6387E+12
   -1.275005    4.00596  0.8887E-13  0.5518E-08  0.1287E-11  0.8148E-05  0.0000E+00 -0.8129E+12
   -1.312504    4.00844  0.8887E-13  0.5548E-08  0.1513E-11  0.6913E-05  0.0000E+00 -0.1104E+13
   -1.350003    4.01143  0.8887E-13  0.5441E-08  0.1834E-11  0.5349E-05  0.0000E+00 -0.1663E+13
   -1.387502    4.01535  0.8887E-13  0.5113E-08  0.2357E-11  0.3517E-05  0.0000E+00 -0.3030E+13
   -1.425000    4.02138  0.8887E-13  0.4384E-08  0.3433E-11  0.1634E-05  0.0000E+00 -0.8290E+13
   -1.462498    4.03415  0.8887E-13  0.3014E-08  0.6765E-11  0.3210E-06  0.0000E+00 -0.5776E+14
   -1.499995    4.08465  0.8887E-13  0.0000E+00  0.0000E+00  0.0000E+00  0.0000E+00  0.0000E+00
