 1 - depth, m
 2 - temperature, C
 3 - salinity, kg/kg
 4 - turbulent kinetic energy, m**2/s**2
 5 - dissipation rate, m**2/s**3
 6 - kinematic heat conductance, m**2/s
 7 - modulus of horizontal velocity, m/s
 8 - Richardson number, n/d
   -0.000000    3.33570  0.8503E-13  0.1191E-03  0.4619E-03  0.4474E-04  0.9209E-01  0.2752E-02
   -0.037498    3.41535  0.8503E-13  0.6751E-04  0.2581E-03  0.7814E-04  0.3340E-01  0.4472E-02
   -0.074996    3.43178  0.8503E-13  0.4910E-04  0.1640E-03  0.8001E-04  0.2456E-01  0.4506E-02
   -0.112495    3.44442  0.8503E-13  0.3776E-04  0.9311E-04  0.8038E-04  0.2024E-01  0.4588E-01
   -0.149993    3.45485  0.8503E-13  0.2931E-04  0.4447E-04  0.8190E-04  0.1710E-01  0.1224E-01
   -0.187493    3.46419  0.8503E-13  0.2282E-04  0.1567E-04  0.8330E-04  0.1459E-01  0.1274E-01
   -0.224992    3.47295  0.8504E-13  0.1806E-04  0.3711E-05  0.8436E-04  0.1251E-01  0.1753E-01
   -0.262492    3.48134  0.8504E-13  0.1471E-04  0.7612E-06  0.8406E-04  0.1078E-01  0.2528E-01
   -0.299992    3.48943  0.8504E-13  0.1222E-04  0.2769E-06  0.8310E-04  0.9307E-02  0.3186E-01
   -0.337492    3.49725  0.8504E-13  0.1024E-04  0.1674E-06  0.8157E-04  0.8058E-02  0.4415E-01
   -0.374992    3.50488  0.8504E-13  0.8601E-05  0.1148E-06  0.7953E-04  0.7002E-02  0.6338E-01
   -0.412493    3.51244  0.8504E-13  0.7236E-05  0.8135E-07  0.7718E-04  0.6108E-02  0.9692E-01
   -0.449994    3.52000  0.8504E-13  0.6100E-05  0.5867E-07  0.7492E-04  0.5357E-02  0.1711E+00
   -0.487494    3.52765  0.8504E-13  0.5176E-05  0.4307E-07  0.7274E-04  0.4740E-02  0.4549E+00
   -0.524996    3.53547  0.8504E-13  0.4445E-05  0.3238E-07  0.6893E-04  0.4240E-02  0.4453E+00
   -0.562497    3.54414  0.8504E-13  0.3847E-05  0.2476E-07  0.6561E-04  0.3773E-02  0.6589E+00
   -0.599998    3.55455  0.8504E-13  0.3349E-05  0.1921E-07  0.6264E-04  0.3340E-02  0.1573E+01
   -0.637499    3.56709  0.8504E-13  0.2930E-05  0.1507E-07  0.5992E-04  0.2946E-02  0.6239E+01
   -0.675001    3.58126  0.8504E-13  0.2572E-05  0.1194E-07  0.5734E-04  0.2590E-02  0.3741E+02
   -0.712502    3.59740  0.8505E-13  0.2265E-05  0.9535E-08  0.5487E-04  0.2270E-02  0.3462E+03
   -0.750003    3.61951  0.8505E-13  0.2003E-05  0.7670E-08  0.5246E-04  0.1983E-02  0.1529E+04
   -0.787505    3.66142  0.8505E-13  0.1776E-05  0.6208E-08  0.5371E-04  0.1725E-02  0.1361E+05
   -0.825006    3.70714  0.8506E-13  0.1577E-05  0.5053E-08  0.5687E-04  0.1494E-02  0.2818E+05
   -0.862507    3.74783  0.8506E-13  0.1403E-05  0.4134E-08  0.5901E-04  0.1287E-02  0.1003E+06
   -0.900009    3.78255  0.8506E-13  0.1248E-05  0.3395E-08  0.6034E-04  0.1102E-02  0.2278E+06
   -0.937510    3.81257  0.8506E-13  0.1109E-05  0.2795E-08  0.6075E-04  0.9335E-03  0.2301E+07
   -0.975011    3.84055  0.8506E-13  0.9814E-06  0.2295E-08  0.6038E-04  0.7764E-03  0.1037E+06
   -1.012512    3.86757  0.8506E-13  0.8626E-06  0.1870E-08  0.6076E-04  0.6253E-03  0.1230E+06
   -1.050013    3.89072  0.8506E-13  0.7550E-06  0.1517E-08  0.6034E-04  0.5013E-03  0.2045E+07
   -1.087514    3.91054  0.8506E-13  0.6588E-06  0.1227E-08  0.5886E-04  0.4007E-03  0.2238E+08
   -1.125014    3.92939  0.8506E-13  0.5732E-06  0.9901E-09  0.5709E-04  0.3180E-03  0.6774E+08
   -1.162515    3.94901  0.8507E-13  0.4974E-06  0.7982E-09  0.5490E-04  0.2496E-03  0.7122E+08
   -1.200015    3.96990  0.8507E-13  0.4308E-06  0.6442E-09  0.5248E-04  0.1928E-03  0.1901E+08
   -1.237515    3.99088  0.8507E-13  0.3740E-06  0.5252E-09  0.4967E-04  0.1462E-03  0.8077E+08
   -1.275015    4.01217  0.8507E-13  0.3263E-06  0.4376E-09  0.4644E-04  0.1099E-03  0.1012E+10
   -1.312514    4.03079  0.8507E-13  0.2864E-06  0.3782E-09  0.4253E-04  0.8232E-04  0.3344E+10
   -1.350013    4.04754  0.8507E-13  0.2520E-06  0.3452E-09  0.3756E-04  0.6212E-04  0.1747E+10
   -1.387512    4.06299  0.8507E-13  0.2193E-06  0.3415E-09  0.2988E-04  0.4741E-04 -0.9113E+07
   -1.425011    4.07997  0.8507E-13  0.1822E-06  0.3926E-09  0.1645E-04  0.3669E-04 -0.6006E+08
   -1.462509    4.10667  0.8507E-13  0.1072E-06  0.7622E-09  0.2886E-05  0.2913E-04 -0.1422E+11
   -1.500007    4.23004  0.8507E-13  0.0000E+00  0.0000E+00  0.0000E+00  0.2943E-04  0.0000E+00
