 1 - depth, m
 2 - temperature, C
 3 - salinity, kg/kg
 4 - turbulent kinetic energy, m**2/s**2
 5 - dissipation rate, m**2/s**3
 6 - kinematic heat conductance, m**2/s
 7 - modulus of horizontal velocity, m/s
 8 - Richardson number, n/d
   -0.000000   -0.00000  0.1029E-11  0.5825E-11  0.2853E-14  0.1000E-09  0.0000E+00  0.1932E+17
   -0.037497    0.30201  0.1894E-12  0.1126E-10  0.3292E-14  0.1000E-09  0.0000E+00  0.1652E+17
   -0.074995    0.58282  0.1087E-12  0.2312E-10  0.5470E-14  0.1000E-09  0.0000E+00  0.1419E+17
   -0.112492    0.84531  0.8687E-13  0.4578E-10  0.1002E-13  0.1000E-09  0.0000E+00  0.1226E+17
   -0.149991    1.09231  0.8734E-13  0.8830E-10  0.1864E-13  0.1000E-09  0.0000E+00  0.1066E+17
   -0.187489    1.32677  0.8662E-13  0.1678E-09  0.3456E-13  0.1000E-09  0.0000E+00  0.9353E+16
   -0.224988    1.55184  0.8660E-13  0.3160E-09  0.6372E-13  0.1000E-09  0.0000E+00  0.8279E+16
   -0.262487    1.77096  0.8658E-13  0.5906E-09  0.1168E-12  0.1000E-09  0.0000E+00  0.7436E+16
   -0.299986    1.98907  0.8656E-13  0.1096E-08  0.2126E-12  0.1039E-09  0.0000E+00  0.6740E+16
   -0.337486    2.21074  0.8655E-13  0.2023E-08  0.3849E-12  0.1739E-09  0.0000E+00  0.6129E+16
   -0.374985    2.44073  0.8654E-13  0.3714E-08  0.6931E-12  0.3405E-09  0.0000E+00  0.5656E+16
   -0.412485    2.68998  0.8649E-13  0.6780E-08  0.1242E-11  0.6812E-09  0.0000E+00  0.5099E+16
   -0.449985    2.96739  0.8633E-13  0.1231E-07  0.2213E-11  0.1489E-08  0.0000E+00  0.4226E+16
   -0.487485    3.27745  0.8572E-13  0.2220E-07  0.3920E-11  0.4107E-08  0.0000E+00  0.2885E+16
   -0.524986    3.61994  0.8321E-13  0.3907E-07  0.6793E-11  0.3277E-07  0.0000E+00  0.1088E+16
   -0.562486    3.94530  0.7996E-13  0.4663E-07  0.8112E-11  0.6109E-04  0.0000E+00  0.1006E+15
   -0.599987    4.03379  0.7944E-13  0.4745E-07  0.8275E-11  0.9342E-04  0.0000E+00 -0.4712E+12
   -0.637487    4.03443  0.7944E-13  0.4798E-07  0.8407E-11  0.9280E-04  0.0000E+00 -0.4847E+12
   -0.674988    4.03507  0.7944E-13  0.4846E-07  0.8549E-11  0.9297E-04  0.0000E+00 -0.4934E+12
   -0.712489    4.03572  0.7944E-13  0.4887E-07  0.8703E-11  0.9290E-04  0.0000E+00 -0.5043E+12
   -0.749989    4.03637  0.7944E-13  0.4923E-07  0.8868E-11  0.9254E-04  0.0000E+00 -0.5147E+12
   -0.787490    4.03702  0.7944E-13  0.4952E-07  0.9045E-11  0.9188E-04  0.0000E+00 -0.5264E+12
   -0.824991    4.03768  0.7944E-13  0.4975E-07  0.9237E-11  0.9094E-04  0.0000E+00 -0.5402E+12
   -0.862491    4.03835  0.7944E-13  0.4992E-07  0.9446E-11  0.8968E-04  0.0000E+00 -0.5566E+12
   -0.899992    4.03903  0.7944E-13  0.5002E-07  0.9673E-11  0.8812E-04  0.0000E+00 -0.5758E+12
   -0.937492    4.03973  0.7944E-13  0.5005E-07  0.9921E-11  0.8625E-04  0.0000E+00 -0.5984E+12
   -0.974993    4.04044  0.7944E-13  0.5000E-07  0.1019E-10  0.8407E-04  0.0000E+00 -0.6247E+12
   -1.012493    4.04117  0.7943E-13  0.4988E-07  0.1050E-10  0.8155E-04  0.0000E+00 -0.6585E+12
   -1.049993    4.04193  0.7943E-13  0.4967E-07  0.1084E-10  0.7866E-04  0.0000E+00 -0.6994E+12
   -1.087493    4.04273  0.7943E-13  0.4936E-07  0.1123E-10  0.7539E-04  0.0000E+00 -0.7485E+12
   -1.124993    4.04357  0.7943E-13  0.4893E-07  0.1168E-10  0.7173E-04  0.0000E+00 -0.8028E+12
   -1.162493    4.04446  0.7943E-13  0.4838E-07  0.1220E-10  0.6765E-04  0.0000E+00 -0.8691E+12
   -1.199992    4.04541  0.7943E-13  0.4768E-07  0.1282E-10  0.6311E-04  0.0000E+00 -0.9523E+12
   -1.237492    4.04643  0.7943E-13  0.4681E-07  0.1357E-10  0.5807E-04  0.0000E+00 -0.1060E+13
   -1.274991    4.04755  0.7943E-13  0.4573E-07  0.1450E-10  0.5250E-04  0.0000E+00 -0.1203E+13
   -1.312489    4.04879  0.7943E-13  0.4437E-07  0.1570E-10  0.4661E-04  0.0000E+00 -0.1393E+13
   -1.349988    4.05020  0.7943E-13  0.4236E-07  0.1762E-10  0.3284E-04  0.0000E+00 -0.2040E+13
   -1.387486    4.05221  0.7943E-13  0.3901E-07  0.2128E-10  0.1908E-04  0.0000E+00 -0.3683E+13
   -1.424984    4.05569  0.7943E-13  0.3342E-07  0.2927E-10  0.8883E-05  0.0000E+00 -0.8555E+13
   -1.462481    4.06318  0.7943E-13  0.2058E-07  0.6302E-10  0.1253E-05  0.0000E+00 -0.7736E+14
   -1.499978    4.11202  0.7943E-13  0.0000E+00  0.0000E+00  0.0000E+00  0.0000E+00  0.0000E+00
