 1 - depth, m
 2 - temperature, C
 3 - salinity, kg/kg
 4 - turbulent kinetic energy, m**2/s**2
 5 - dissipation rate, m**2/s**3
 6 - kinematic heat conductance, m**2/s
 7 - modulus of horizontal velocity, m/s
 8 - Richardson number, n/d
   -0.000000   -0.00000  0.3470E-14  0.6667E-07  0.3174E-09  0.8868E-08  0.0000E+00  0.8697E+17
   -0.037499    1.76435  0.2600E-13  0.5080E-06  0.2436E-09  0.3069E-07  0.0000E+00  0.3228E+17
   -0.074999    3.47504  0.8485E-13  0.6527E-06  0.2843E-09  0.3026E-03  0.0000E+00  0.8596E+16
   -0.112498    4.08148  0.1159E-12  0.7106E-06  0.3028E-09  0.4443E-03  0.0000E+00  0.1307E+16
   -0.149999    4.30080  0.1271E-12  0.7143E-06  0.3037E-09  0.5307E-03  0.0000E+00 -0.3418E+13
   -0.187499    4.30149  0.1271E-12  0.7170E-06  0.3045E-09  0.5286E-03  0.0000E+00 -0.3277E+13
   -0.225000    4.30215  0.1271E-12  0.7193E-06  0.3055E-09  0.5303E-03  0.0000E+00 -0.3172E+13
   -0.262501    4.30280  0.1271E-12  0.7211E-06  0.3066E-09  0.5310E-03  0.0000E+00 -0.3141E+13
   -0.300002    4.30344  0.1271E-12  0.7225E-06  0.3078E-09  0.5310E-03  0.0000E+00 -0.3099E+13
   -0.337503    4.30408  0.1272E-12  0.7234E-06  0.3092E-09  0.5300E-03  0.0000E+00 -0.3093E+13
   -0.375005    4.30470  0.1272E-12  0.7239E-06  0.3107E-09  0.5281E-03  0.0000E+00 -0.3065E+13
   -0.412507    4.30532  0.1272E-12  0.7241E-06  0.3125E-09  0.5253E-03  0.0000E+00 -0.3066E+13
   -0.450009    4.30594  0.1272E-12  0.7238E-06  0.3145E-09  0.5217E-03  0.0000E+00 -0.3055E+13
   -0.487511    4.30656  0.1272E-12  0.7231E-06  0.3167E-09  0.5171E-03  0.0000E+00 -0.3075E+13
   -0.525013    4.30717  0.1272E-12  0.7220E-06  0.3192E-09  0.5116E-03  0.0000E+00 -0.3088E+13
   -0.562516    4.30780  0.1272E-12  0.7205E-06  0.3220E-09  0.5052E-03  0.0000E+00 -0.3135E+13
   -0.600018    4.30842  0.1272E-12  0.7186E-06  0.3251E-09  0.4979E-03  0.0000E+00 -0.3169E+13
   -0.637521    4.30905  0.1272E-12  0.7163E-06  0.3285E-09  0.4897E-03  0.0000E+00 -0.3238E+13
   -0.675023    4.30970  0.1272E-12  0.7135E-06  0.3322E-09  0.4806E-03  0.0000E+00 -0.3295E+13
   -0.712526    4.31035  0.1272E-12  0.7103E-06  0.3364E-09  0.4706E-03  0.0000E+00 -0.3389E+13
   -0.750029    4.31102  0.1273E-12  0.7067E-06  0.3411E-09  0.4597E-03  0.0000E+00 -0.3469E+13
   -0.787531    4.31171  0.1273E-12  0.7025E-06  0.3462E-09  0.4479E-03  0.0000E+00 -0.3587E+13
   -0.825034    4.31241  0.1273E-12  0.6979E-06  0.3519E-09  0.4351E-03  0.0000E+00 -0.3699E+13
   -0.862537    4.31314  0.1273E-12  0.6927E-06  0.3583E-09  0.4214E-03  0.0000E+00 -0.3853E+13
   -0.900039    4.31389  0.1273E-12  0.6869E-06  0.3655E-09  0.4067E-03  0.0000E+00 -0.4007E+13
   -0.937542    4.31468  0.1273E-12  0.6805E-06  0.3735E-09  0.3911E-03  0.0000E+00 -0.4211E+13
   -0.975044    4.31550  0.1273E-12  0.6734E-06  0.3826E-09  0.3745E-03  0.0000E+00 -0.4423E+13
   -1.012546    4.31636  0.1273E-12  0.6655E-06  0.3929E-09  0.3568E-03  0.0000E+00 -0.4695E+13
   -1.050049    4.31727  0.1273E-12  0.6567E-06  0.4049E-09  0.3380E-03  0.0000E+00 -0.4994E+13
   -1.087551    4.31823  0.1273E-12  0.6468E-06  0.4189E-09  0.3178E-03  0.0000E+00 -0.5379E+13
   -1.125052    4.31927  0.1273E-12  0.6357E-06  0.4354E-09  0.2964E-03  0.0000E+00 -0.5809E+13
   -1.162554    4.32038  0.1273E-12  0.6231E-06  0.4551E-09  0.2737E-03  0.0000E+00 -0.6369E+13
   -1.200056    4.32160  0.1273E-12  0.6089E-06  0.4791E-09  0.2498E-03  0.0000E+00 -0.7046E+13
   -1.237557    4.32294  0.1273E-12  0.5927E-06  0.5089E-09  0.2246E-03  0.0000E+00 -0.7949E+13
   -1.275058    4.32444  0.1273E-12  0.5741E-06  0.5468E-09  0.1982E-03  0.0000E+00 -0.9123E+13
   -1.312558    4.32617  0.1273E-12  0.5524E-06  0.5968E-09  0.1704E-03  0.0000E+00 -0.1078E+14
   -1.350059    4.32819  0.1274E-12  0.5268E-06  0.6661E-09  0.1412E-03  0.0000E+00 -0.1323E+14
   -1.387559    4.33065  0.1274E-12  0.4956E-06  0.7699E-09  0.1147E-03  0.0000E+00 -0.1651E+14
   -1.425059    4.33371  0.1274E-12  0.4444E-06  0.9979E-09  0.4938E-04  0.0000E+00 -0.3916E+14
   -1.462558    4.34094  0.1274E-12  0.2545E-06  0.2423E-08  0.4289E-05  0.0000E+00 -0.4994E+15
   -1.500057    4.42194  0.1274E-12  0.0000E+00  0.0000E+00  0.0000E+00  0.0000E+00  0.0000E+00
