 1 - depth, m
 2 - temperature, C
 3 - salinity, kg/kg
 4 - turbulent kinetic energy, m**2/s**2
 5 - dissipation rate, m**2/s**3
 6 - kinematic heat conductance, m**2/s
 7 - modulus of horizontal velocity, m/s
 8 - Richardson number, n/d
   -0.000000   14.62064  0.9940E-13  0.5625E-04  0.1256E-04  0.3769E-04  0.5754E-01 -0.1540E-01
   -0.037498   14.68225  0.9939E-13  0.3485E-04  0.3604E-05  0.5497E-04  0.2429E-01 -0.2774E-01
   -0.074996   14.69700  0.9939E-13  0.2695E-04  0.1637E-05  0.7010E-04  0.1816E-01 -0.5315E-01
   -0.112494   14.70709  0.9939E-13  0.2210E-04  0.8785E-06  0.8625E-04  0.1466E-01 -0.8227E-01
   -0.149992   14.71494  0.9939E-13  0.1871E-04  0.5209E-06  0.1052E-03  0.1215E-01 -0.1063E+00
   -0.187491   14.72129  0.9939E-13  0.1625E-04  0.3330E-06  0.1461E-03  0.1026E-01  0.7854E+02
   -0.224991   14.72630  0.9939E-13  0.1446E-04  0.2267E-06  0.1956E-03  0.8812E-02  0.5646E+02
   -0.262490   14.73027  0.9939E-13  0.1318E-04  0.1633E-06  0.2676E-03  0.7691E-02  0.9577E+02
   -0.299990   14.73333  0.9939E-13  0.1226E-04  0.1237E-06  0.3472E-03  0.6802E-02  0.4777E+02
   -0.337490   14.73554  0.9939E-13  0.1160E-04  0.9769E-07  0.4049E-03  0.6081E-02  0.2732E+02
   -0.374990   14.73722  0.9939E-13  0.1112E-04  0.7968E-07  0.4377E-03  0.5471E-02  0.1687E+02
   -0.412490   14.73866  0.9939E-13  0.1077E-04  0.6660E-07  0.4673E-03  0.4940E-02  0.9893E+01
   -0.449990   14.73995  0.9939E-13  0.1052E-04  0.5681E-07  0.4958E-03  0.4479E-02  0.2948E+01
   -0.487491   14.74115  0.9939E-13  0.1035E-04  0.4933E-07  0.5263E-03  0.4079E-02  0.2576E+01
   -0.524992   14.74227  0.9939E-13  0.1025E-04  0.4357E-07  0.5473E-03  0.3733E-02  0.2703E+01
   -0.562493   14.74335  0.9939E-13  0.1018E-04  0.3899E-07  0.5713E-03  0.3406E-02  0.2867E+01
   -0.599994   14.74439  0.9939E-13  0.1014E-04  0.3528E-07  0.5979E-03  0.3097E-02  0.2996E+01
   -0.637495   14.74539  0.9939E-13  0.1010E-04  0.3223E-07  0.6268E-03  0.2803E-02  0.3099E+01
   -0.674996   14.74635  0.9939E-13  0.1004E-04  0.2968E-07  0.6554E-03  0.2524E-02  0.3177E+01
   -0.712497   14.74727  0.9939E-13  0.9962E-05  0.2753E-07  0.6868E-03  0.2256E-02  0.3305E+01
   -0.749998   14.74816  0.9939E-13  0.9842E-05  0.2560E-07  0.7235E-03  0.2006E-02  0.3265E+01
   -0.787499   14.74901  0.9939E-13  0.9745E-05  0.2465E-07  0.1165E-02  0.1740E-02  0.1973E+01
   -0.825000   14.74955  0.9939E-13  0.9672E-05  0.2414E-07  0.1143E-02  0.1654E-02  0.2005E+01
   -0.862501   14.75010  0.9939E-13  0.9588E-05  0.2375E-07  0.1162E-02  0.1569E-02  0.1639E+01
   -0.900003   14.75066  0.9939E-13  0.9503E-05  0.2352E-07  0.1165E-02  0.1487E-02  0.1914E+01
   -0.937503   14.75122  0.9939E-13  0.9373E-05  0.2337E-07  0.7292E-03  0.1424E-02  0.2221E+01
   -0.975004   14.75212  0.9939E-13  0.9078E-05  0.2329E-07  0.7189E-03  0.1242E-02  0.2282E+01
   -1.012505   14.75306  0.9939E-13  0.8769E-05  0.2342E-07  0.7187E-03  0.1092E-02  0.1972E+01
   -1.050006   14.75401  0.9939E-13  0.8447E-05  0.2373E-07  0.7402E-03  0.9631E-03  0.1737E+01
   -1.087506   14.75496  0.9939E-13  0.8130E-05  0.2422E-07  0.7337E-03  0.8589E-03  0.1542E+01
   -1.125007   14.75591  0.9939E-13  0.7827E-05  0.2487E-07  0.6952E-03  0.7757E-03  0.1368E+01
   -1.162507   14.75693  0.9939E-13  0.7546E-05  0.2564E-07  0.6298E-03  0.7105E-03  0.1210E+01
   -1.200007   14.75807  0.9939E-13  0.7285E-05  0.2654E-07  0.5744E-03  0.6605E-03  0.1156E+01
   -1.237506   14.75934  0.9939E-13  0.7028E-05  0.2766E-07  0.5282E-03  0.6221E-03  0.1466E+01
   -1.275006   14.76074  0.9939E-13  0.6739E-05  0.2921E-07  0.4696E-03  0.5903E-03  0.2446E+01
   -1.312505   14.76235  0.9939E-13  0.6394E-05  0.3151E-07  0.4010E-03  0.5607E-03  0.4874E+01
   -1.350004   14.76426  0.9939E-13  0.5965E-05  0.3514E-07  0.3053E-03  0.5327E-03  0.1264E+02
   -1.387502   14.76682  0.9939E-13  0.5420E-05  0.4142E-07  0.2611E-03  0.5051E-03  0.4186E+02
   -1.425001   14.76991  0.9939E-13  0.4561E-05  0.5900E-07  0.1214E-03  0.4830E-03  0.1189E+05
   -1.462499   14.78035  0.9939E-13  0.2662E-05  0.1315E-06  0.3209E-04  0.4525E-03 -0.1627E+05
   -1.499996   14.80913  0.9939E-13  0.0000E+00  0.0000E+00  0.0000E+00  0.4561E-03  0.0000E+00
