 1 - depth, m
 2 - temperature, C
 3 - salinity, kg/kg
 4 - turbulent kinetic energy, m**2/s**2
 5 - dissipation rate, m**2/s**3
 6 - kinematic heat conductance, m**2/s
 7 - modulus of horizontal velocity, m/s
 8 - Richardson number, n/d
   -0.000000   -0.00000  0.2823E-12  0.2749E-08  0.5516E-11  0.1176E-08  0.2624E-27  0.1246E+17
   -0.037496    0.19199  0.8597E-13  0.1291E-07  0.3614E-11  0.1140E-08  0.1125E-27  0.8428E+16
   -0.074993    0.32805  0.1032E-12  0.3030E-07  0.3481E-11  0.1676E-08  0.4719E-28  0.5544E+16
   -0.112490    0.42071  0.1013E-12  0.5483E-07  0.4091E-11  0.3163E-08  0.1936E-28  0.3510E+16
   -0.149988    0.48082  0.1006E-12  0.8788E-07  0.5288E-11  0.7114E-08  0.7771E-29  0.2071E+16
   -0.187485    0.51686  0.9944E-13  0.1314E-06  0.7087E-11  0.2021E-07  0.3053E-29  0.1023E+16
   -0.224983    0.53482  0.9833E-13  0.1753E-06  0.9000E-11  0.3605E-06  0.1187E-29  0.2195E+15
   -0.262481    0.53870  0.9802E-13  0.1808E-06  0.9339E-11  0.8782E-03  0.4969E-30  0.1860E+14
   -0.299980    0.53902  0.9791E-13  0.1819E-06  0.9441E-11  0.1141E-02  0.1831E-30  0.2282E+13
   -0.337479    0.53905  0.9788E-13  0.1821E-06  0.9456E-11  0.1146E-02  0.4971E-31 -0.1138E+12
   -0.374978    0.53905  0.9788E-13  0.1823E-06  0.9468E-11  0.1145E-02  0.4829E-31 -0.1620E+12
   -0.412477    0.53905  0.9788E-13  0.1824E-06  0.9477E-11  0.1144E-02  0.4721E-31 -0.2020E+12
   -0.449976    0.53905  0.9788E-13  0.1825E-06  0.9481E-11  0.1144E-02  0.4638E-31 -0.2367E+12
   -0.487475    0.53904  0.9788E-13  0.1824E-06  0.9479E-11  0.1143E-02  0.4595E-31 -0.2416E+12
   -0.524975    0.53904  0.9788E-13  0.1823E-06  0.9469E-11  0.1147E-02  0.4581E-31 -0.1096E+12
   -0.562475    0.53904  0.9788E-13  0.1821E-06  0.9452E-11  0.1069E-02  0.4570E-31  0.3187E+14
   -0.599974    0.53957  0.9777E-13  0.1751E-06  0.8895E-11  0.4966E-07  0.3436E-31  0.5643E+15
   -0.637474    0.54939  0.9687E-13  0.1285E-06  0.6566E-11  0.1523E-07  0.2423E-31  0.1240E+16
   -0.674974    0.57119  0.9580E-13  0.9267E-07  0.4777E-11  0.7347E-08  0.1656E-31  0.1835E+16
   -0.712474    0.60376  0.9473E-13  0.6637E-07  0.3453E-11  0.4080E-08  0.1109E-31  0.2368E+16
   -0.749974    0.64633  0.9313E-13  0.4728E-07  0.2484E-11  0.2366E-08  0.7339E-32  0.2920E+16
   -0.787474    0.69967  0.9145E-13  0.3352E-07  0.1780E-11  0.1424E-08  0.4819E-32  0.3463E+16
   -0.824974    0.76415  0.9114E-13  0.2366E-07  0.1270E-11  0.8803E-09  0.3138E-32  0.3987E+16
   -0.862474    0.84014  0.9084E-13  0.1661E-07  0.9036E-12  0.5548E-09  0.2016E-32  0.4500E+16
   -0.899974    0.92831  0.9013E-13  0.1160E-07  0.6409E-12  0.3595E-09  0.1266E-32  0.5005E+16
   -0.937473    1.02964  0.8938E-13  0.8049E-08  0.4538E-12  0.2418E-09  0.7583E-33  0.5500E+16
   -0.974973    1.14539  0.8897E-13  0.5535E-08  0.3218E-12  0.1710E-09  0.4038E-33  0.5975E+16
   -1.012473    1.27704  0.8905E-13  0.3753E-08  0.2300E-12  0.1343E-09  0.1345E-33  0.6033E+16
   -1.049972    1.41725  0.8897E-13  0.2475E-08  0.1676E-12  0.1135E-09  0.4078E-34  0.6065E+16
   -1.087471    1.56695  0.8887E-13  0.1558E-08  0.1291E-12  0.1039E-09  0.1203E-34  0.6166E+16
   -1.124970    1.73005  0.8881E-13  0.9111E-09  0.1132E-12  0.1017E-09  0.3447E-35  0.6775E+16
   -1.162469    1.92521  0.8878E-13  0.4895E-09  0.1274E-12  0.1046E-09  0.9594E-36  0.7332E+16
   -1.199968    2.16169  0.8874E-13  0.3147E-09  0.2109E-12  0.1254E-09  0.2590E-36  0.7635E+16
   -1.237466    2.44965  0.8869E-13  0.5536E-09  0.5666E-12  0.2636E-09  0.6778E-37  0.7449E+16
   -1.274965    2.80346  0.8862E-13  0.1914E-08  0.2007E-11  0.1272E-08  0.1717E-37  0.6307E+16
   -1.312463    3.24312  0.8854E-13  0.6095E-08  0.6447E-11  0.4079E-06  0.4205E-38  0.3814E+16
   -1.349960    3.70675  0.8846E-13  0.1311E-07  0.1478E-10  0.3831E-05  0.9939E-39  0.1450E+16
   -1.387458    4.00011  0.8842E-13  0.1974E-07  0.2618E-10  0.5393E-05  0.2258E-39  0.1337E+15
   -1.424955    4.11255  0.8841E-13  0.2341E-07  0.4246E-10  0.4376E-05  0.4720E-40 -0.5065E+14
   -1.462452    4.13628  0.8841E-13  0.2004E-07  0.8008E-10  0.1343E-05  0.2260E-40 -0.2027E+15
   -1.499948    4.20689  0.8841E-13  0.0000E+00  0.0000E+00  0.0000E+00  0.3449E-40  0.0000E+00
