 1 - depth, m
 2 - temperature, C
 3 - salinity, kg/kg
 4 - turbulent kinetic energy, m**2/s**2
 5 - dissipation rate, m**2/s**3
 6 - kinematic heat conductance, m**2/s
 7 - modulus of horizontal velocity, m/s
 8 - Richardson number, n/d
   -0.000000   12.73405  0.9025E-13  0.6863E-03  0.3713E-02  0.9340E-04  0.3415E+00  0.5580E-01
   -0.037498   12.85610  0.9025E-13  0.3498E-03  0.1642E-02  0.1497E-03  0.1064E+00 -0.3016E-01
   -0.074996   12.90016  0.9025E-13  0.2170E-03  0.5673E-03  0.2150E-03  0.6390E-01 -0.5211E-01
   -0.112495   12.92074  0.9025E-13  0.1636E-03  0.3602E-03  0.2138E-03  0.4878E-01 -0.1869E-01
   -0.149994   12.93017  0.9025E-13  0.1298E-03  0.2361E-03  0.2079E-03  0.4015E-01 -0.2510E-01
   -0.187493   12.93688  0.9025E-13  0.1064E-03  0.1611E-03  0.2100E-03  0.3415E-01 -0.2755E-01
   -0.224993   12.94265  0.9025E-13  0.8866E-04  0.1102E-03  0.2171E-03  0.2968E-01 -0.7894E-01
   -0.262492   12.94695  0.9025E-13  0.7540E-04  0.7516E-04  0.2233E-03  0.2658E-01  0.1489E+00
   -0.299992   12.95080  0.9025E-13  0.6501E-04  0.5066E-04  0.2337E-03  0.2399E-01  0.1104E+00
   -0.337493   12.95424  0.9025E-13  0.5667E-04  0.3346E-04  0.2449E-03  0.2174E-01  0.1091E+02
   -0.374993   12.95758  0.9025E-13  0.4997E-04  0.2168E-04  0.2657E-03  0.1977E-01  0.1781E+02
   -0.412494   12.96045  0.9025E-13  0.4453E-04  0.1386E-04  0.2894E-03  0.1813E-01  0.1656E+02
   -0.449995   12.96300  0.9025E-13  0.4005E-04  0.8775E-05  0.3226E-03  0.1674E-01  0.1821E+02
   -0.487495   12.96518  0.9025E-13  0.3646E-04  0.5545E-05  0.3625E-03  0.1563E-01  0.5773E+01
   -0.524997   12.96729  0.9025E-13  0.3363E-04  0.3516E-05  0.3959E-03  0.1480E-01  0.1041E+02
   -0.562498   12.96895  0.9025E-13  0.3128E-04  0.2244E-05  0.4315E-03  0.1389E-01  0.5133E+02
   -0.599999   12.97085  0.9025E-13  0.2929E-04  0.1480E-05  0.4718E-03  0.1300E-01  0.1520E+02
   -0.637500   12.97210  0.9025E-13  0.2761E-04  0.9957E-06  0.5204E-03  0.1218E-01  0.2158E+02
   -0.675002   12.97367  0.9025E-13  0.2616E-04  0.6928E-06  0.5662E-03  0.1143E-01  0.4107E+03
   -0.712503   12.97475  0.9025E-13  0.2488E-04  0.4984E-06  0.6066E-03  0.1072E-01  0.7259E+02
   -0.750005   12.97592  0.9025E-13  0.2374E-04  0.3684E-06  0.6452E-03  0.1004E-01  0.4334E+02
   -0.787506   12.97682  0.9025E-13  0.2271E-04  0.2835E-06  0.6759E-03  0.9409E-02  0.5905E+02
   -0.825008   12.97784  0.9025E-13  0.2175E-04  0.2268E-06  0.6978E-03  0.8799E-02  0.5154E+02
   -0.862509   12.97862  0.9025E-13  0.2083E-04  0.1874E-06  0.7194E-03  0.8213E-02  0.6015E+02
   -0.900011   12.97951  0.9025E-13  0.1993E-04  0.1595E-06  0.7261E-03  0.7647E-02  0.1216E+03
   -0.937512   12.98025  0.9025E-13  0.1904E-04  0.1387E-06  0.7356E-03  0.7093E-02  0.1731E+04
   -0.975013   12.98105  0.9025E-13  0.1814E-04  0.1223E-06  0.7284E-03  0.6561E-02  0.2931E+03
   -1.012514   12.98179  0.9025E-13  0.1719E-04  0.1088E-06  0.7147E-03  0.6035E-02  0.8472E+02
   -1.050015   12.98255  0.9025E-13  0.1618E-04  0.9723E-07  0.7023E-03  0.5542E-02  0.6658E+02
   -1.087516   12.98328  0.9025E-13  0.1513E-04  0.8733E-07  0.6818E-03  0.5090E-02  0.4906E+02
   -1.125017   12.98403  0.9025E-13  0.1405E-04  0.7878E-07  0.6581E-03  0.4672E-02  0.1384E+02
   -1.162517   12.98477  0.9025E-13  0.1294E-04  0.7147E-07  0.6270E-03  0.4292E-02  0.8362E+01
   -1.200017   12.98554  0.9025E-13  0.1182E-04  0.6538E-07  0.5873E-03  0.3945E-02  0.6070E+01
   -1.237517   12.98635  0.9025E-13  0.1069E-04  0.6064E-07  0.5379E-03  0.3631E-02  0.3584E+01
   -1.275017   12.98722  0.9025E-13  0.9579E-05  0.5763E-07  0.4770E-03  0.3353E-02  0.3965E+01
   -1.312517   12.98819  0.9025E-13  0.8505E-05  0.5719E-07  0.4096E-03  0.3114E-02  0.2690E+02
   -1.350016   12.98938  0.9025E-13  0.7431E-05  0.6108E-07  0.3248E-03  0.2912E-02  0.3092E+02
   -1.387515   12.99099  0.9025E-13  0.6296E-05  0.7170E-07  0.2438E-03  0.2733E-02  0.1148E+03
   -1.425013   12.99311  0.9025E-13  0.4933E-05  0.1052E-06  0.1385E-03  0.2573E-02  0.9261E+02
   -1.462512   12.99791  0.9025E-13  0.2780E-05  0.2222E-06  0.2890E-04  0.2392E-02 -0.6768E+04
   -1.500010   13.01885  0.9025E-13  0.0000E+00  0.0000E+00  0.0000E+00  0.2389E-02  0.0000E+00
