 1 - depth, m
 2 - temperature, C
 3 - salinity, kg/kg
 4 - turbulent kinetic energy, m**2/s**2
 5 - dissipation rate, m**2/s**3
 6 - kinematic heat conductance, m**2/s
 7 - modulus of horizontal velocity, m/s
 8 - Richardson number, n/d
   -0.000000   -0.00000  0.9142E-12  0.4096E-13  0.8590E-16  0.1000E-09  0.0000E+00  0.1213E+17
   -0.037498    0.18655  0.4678E-12  0.4096E-13  0.8590E-16  0.1000E-09  0.0000E+00  0.1127E+17
   -0.074996    0.36913  0.2005E-12  0.4096E-13  0.8590E-16  0.1000E-09  0.0000E+00  0.1044E+17
   -0.112494    0.54755  0.1162E-12  0.4096E-13  0.8590E-16  0.1000E-09  0.0000E+00  0.9652E+16
   -0.149993    0.72163  0.1005E-12  0.4096E-13  0.8590E-16  0.1000E-09  0.0000E+00  0.8895E+16
   -0.187492    0.89121  0.9811E-13  0.4096E-13  0.8590E-16  0.1000E-09  0.0000E+00  0.8174E+16
   -0.224991    1.05615  0.9779E-13  0.6461E-13  0.8590E-16  0.1000E-09  0.0000E+00  0.7490E+16
   -0.262490    1.21635  0.9774E-13  0.2524E-12  0.8812E-16  0.1000E-09  0.0000E+00  0.6870E+16
   -0.299990    1.37232  0.9772E-13  0.6112E-12  0.1466E-15  0.1000E-09  0.0000E+00  0.6291E+16
   -0.337490    1.52420  0.9771E-13  0.1256E-11  0.2686E-15  0.1000E-09  0.0000E+00  0.5749E+16
   -0.374990    1.67207  0.9770E-13  0.2425E-11  0.4952E-15  0.1000E-09  0.0000E+00  0.5333E+16
   -0.412490    1.81862  0.9767E-13  0.4560E-11  0.9064E-15  0.1000E-09  0.0000E+00  0.4989E+16
   -0.449991    1.96567  0.9760E-13  0.8468E-11  0.1647E-14  0.1000E-09  0.0000E+00  0.4651E+16
   -0.487492    2.11352  0.9740E-13  0.1560E-10  0.2975E-14  0.1000E-09  0.0000E+00  0.4318E+16
   -0.524992    2.26244  0.9697E-13  0.2848E-10  0.5328E-14  0.1000E-09  0.0000E+00  0.3985E+16
   -0.562493    2.41271  0.9620E-13  0.5159E-10  0.9472E-14  0.1000E-09  0.0000E+00  0.3649E+16
   -0.599994    2.56455  0.9506E-13  0.9291E-10  0.1675E-13  0.1000E-09  0.0000E+00  0.3306E+16
   -0.637495    2.71812  0.9371E-13  0.1664E-09  0.2945E-13  0.1000E-09  0.0000E+00  0.2954E+16
   -0.674997    2.87354  0.9242E-13  0.2967E-09  0.5155E-13  0.1000E-09  0.0000E+00  0.2591E+16
   -0.712498    3.03091  0.9139E-13  0.5264E-09  0.8981E-13  0.1125E-09  0.0000E+00  0.2217E+16
   -0.749999    3.19027  0.9062E-13  0.9292E-09  0.1557E-12  0.2350E-09  0.0000E+00  0.1840E+16
   -0.787500    3.35277  0.8999E-13  0.1632E-08  0.2688E-12  0.5171E-09  0.0000E+00  0.1444E+16
   -0.825001    3.51872  0.8937E-13  0.2853E-08  0.4617E-12  0.1258E-08  0.0000E+00  0.1020E+16
   -0.862502    3.68759  0.8895E-13  0.4957E-08  0.7885E-12  0.3844E-08  0.0000E+00  0.5704E+15
   -0.900003    3.85720  0.8877E-13  0.8469E-08  0.1326E-11  0.2899E-07  0.0000E+00  0.1282E+15
   -0.937504    4.00495  0.8874E-13  0.9506E-08  0.1496E-11  0.2110E-04  0.0000E+00 -0.3605E+12
   -0.975005    4.00616  0.8874E-13  0.9992E-08  0.1594E-11  0.2303E-04  0.0000E+00 -0.3564E+12
   -1.012506    4.00728  0.8874E-13  0.1041E-07  0.1697E-11  0.2440E-04  0.0000E+00 -0.3644E+12
   -1.050007    4.00836  0.8874E-13  0.1077E-07  0.1807E-11  0.2480E-04  0.0000E+00 -0.3878E+12
   -1.087507    4.00946  0.8874E-13  0.1107E-07  0.1927E-11  0.2468E-04  0.0000E+00 -0.4213E+12
   -1.125008    4.01060  0.8874E-13  0.1132E-07  0.2062E-11  0.2414E-04  0.0000E+00 -0.4615E+12
   -1.162508    4.01179  0.8874E-13  0.1151E-07  0.2220E-11  0.2292E-04  0.0000E+00 -0.5204E+12
   -1.200008    4.01306  0.8874E-13  0.1163E-07  0.2411E-11  0.2074E-04  0.0000E+00 -0.6167E+12
   -1.237508    4.01450  0.8874E-13  0.1168E-07  0.2646E-11  0.1824E-04  0.0000E+00 -0.7561E+12
   -1.275007    4.01617  0.8874E-13  0.1161E-07  0.2945E-11  0.1570E-04  0.0000E+00 -0.9539E+12
   -1.312506    4.01814  0.8874E-13  0.1138E-07  0.3344E-11  0.1295E-04  0.0000E+00 -0.1267E+13
   -1.350005    4.02059  0.8874E-13  0.1093E-07  0.3923E-11  0.9832E-05  0.0000E+00 -0.1854E+13
   -1.387504    4.02389  0.8874E-13  0.1012E-07  0.4885E-11  0.6393E-05  0.0000E+00 -0.3247E+13
   -1.425002    4.02905  0.8874E-13  0.8583E-08  0.6955E-11  0.2934E-05  0.0000E+00 -0.8548E+13
   -1.462500    4.04034  0.8874E-13  0.5623E-08  0.1424E-10  0.5076E-06  0.0000E+00 -0.7024E+14
   -1.499998    4.09538  0.8874E-13  0.0000E+00  0.0000E+00  0.0000E+00  0.0000E+00  0.0000E+00
