 1 - depth, m
 2 - temperature, C
 3 - salinity, kg/kg
 4 - turbulent kinetic energy, m**2/s**2
 5 - dissipation rate, m**2/s**3
 6 - kinematic heat conductance, m**2/s
 7 - modulus of horizontal velocity, m/s
 8 - Richardson number, n/d
   -0.000000   14.31804  0.8462E-13  0.4212E-04  0.9614E-05  0.2986E-04  0.4297E-01  0.3185E+02
   -0.037498   14.37404  0.8462E-13  0.2679E-04  0.2750E-05  0.7233E-04  0.1817E-01  0.1151E+04
   -0.074996   14.38732  0.8462E-13  0.2107E-04  0.1256E-05  0.1022E-03  0.1359E-01  0.3132E+03
   -0.112494   14.39587  0.8462E-13  0.1760E-04  0.6817E-06  0.1336E-03  0.1099E-01  0.3053E+01
   -0.149993   14.40233  0.8461E-13  0.1520E-04  0.4090E-06  0.1674E-03  0.9133E-02  0.1024E+03
   -0.187491   14.40749  0.8461E-13  0.1345E-04  0.2639E-06  0.2056E-03  0.7730E-02  0.1446E+02
   -0.224991   14.41169  0.8461E-13  0.1218E-04  0.1807E-06  0.2621E-03  0.6646E-02  0.3404E+04
   -0.262490   14.41495  0.8461E-13  0.1127E-04  0.1310E-06  0.3432E-03  0.5816E-02  0.6256E+02
   -0.299990   14.41733  0.8461E-13  0.1063E-04  0.1001E-06  0.4101E-03  0.5165E-02  0.4787E+02
   -0.337490   14.41916  0.8461E-13  0.1017E-04  0.7948E-07  0.4649E-03  0.4625E-02  0.2490E+02
   -0.374990   14.42063  0.8461E-13  0.9829E-05  0.6510E-07  0.5044E-03  0.4167E-02  0.1090E+03
   -0.412490   14.42191  0.8461E-13  0.9577E-05  0.5465E-07  0.5403E-03  0.3769E-02  0.6973E+01
   -0.449991   14.42306  0.8461E-13  0.9394E-05  0.4684E-07  0.5758E-03  0.3424E-02  0.2875E+01
   -0.487491   14.42412  0.8461E-13  0.9267E-05  0.4094E-07  0.6108E-03  0.3126E-02  0.2593E+01
   -0.524992   14.42510  0.8461E-13  0.9186E-05  0.3644E-07  0.6364E-03  0.2869E-02  0.2559E+01
   -0.562493   14.42604  0.8461E-13  0.9133E-05  0.3289E-07  0.6615E-03  0.2629E-02  0.2656E+01
   -0.599994   14.42694  0.8461E-13  0.9094E-05  0.3004E-07  0.6875E-03  0.2403E-02  0.2727E+01
   -0.637495   14.42781  0.8461E-13  0.9057E-05  0.2774E-07  0.7128E-03  0.2191E-02  0.2772E+01
   -0.674996   14.42865  0.8461E-13  0.9015E-05  0.2586E-07  0.7370E-03  0.1991E-02  0.2800E+01
   -0.712497   14.42945  0.8461E-13  0.8960E-05  0.2432E-07  0.7582E-03  0.1803E-02  0.2813E+01
   -0.749999   14.43024  0.8461E-13  0.8886E-05  0.2307E-07  0.7757E-03  0.1626E-02  0.2822E+01
   -0.787500   14.43101  0.8461E-13  0.8788E-05  0.2205E-07  0.7868E-03  0.1460E-02  0.2828E+01
   -0.825001   14.43177  0.8461E-13  0.8662E-05  0.2124E-07  0.7930E-03  0.1304E-02  0.2873E+01
   -0.862502   14.43252  0.8461E-13  0.8501E-05  0.2057E-07  0.7776E-03  0.1160E-02  0.2854E+01
   -0.900003   14.43330  0.8461E-13  0.8395E-05  0.2032E-07  0.1103E-02  0.1011E-02  0.4393E+01
   -0.937504   14.43384  0.8461E-13  0.8317E-05  0.2027E-07  0.1007E-02  0.9641E-03  0.7988E+01
   -0.975005   14.43445  0.8461E-13  0.8196E-05  0.2027E-07  0.7646E-03  0.9226E-03  0.2847E+01
   -1.012506   14.43526  0.8461E-13  0.7947E-05  0.2035E-07  0.7521E-03  0.8063E-03  0.2885E+01
   -1.050006   14.43609  0.8461E-13  0.7698E-05  0.2059E-07  0.7453E-03  0.7165E-03  0.3047E+01
   -1.087507   14.43694  0.8461E-13  0.7446E-05  0.2097E-07  0.7364E-03  0.6415E-03  0.3451E+01
   -1.125007   14.43780  0.8461E-13  0.7200E-05  0.2149E-07  0.6952E-03  0.5812E-03  0.4132E+01
   -1.162507   14.43872  0.8461E-13  0.6963E-05  0.2216E-07  0.6363E-03  0.5332E-03  0.5308E+01
   -1.200007   14.43974  0.8461E-13  0.6734E-05  0.2297E-07  0.5789E-03  0.4956E-03  0.7380E+01
   -1.237507   14.44087  0.8461E-13  0.6499E-05  0.2401E-07  0.5268E-03  0.4664E-03  0.1144E+02
   -1.275006   14.44213  0.8461E-13  0.6234E-05  0.2542E-07  0.4647E-03  0.4421E-03  0.1992E+02
   -1.312506   14.44357  0.8461E-13  0.5916E-05  0.2747E-07  0.3957E-03  0.4197E-03  0.4005E+02
   -1.350005   14.44530  0.8461E-13  0.5522E-05  0.3069E-07  0.3016E-03  0.3985E-03  0.1037E+03
   -1.387503   14.44759  0.8461E-13  0.5021E-05  0.3621E-07  0.2565E-03  0.3777E-03  0.3471E+03
   -1.425001   14.45036  0.8461E-13  0.4228E-05  0.5154E-07  0.1195E-03  0.3610E-03  0.3943E+05
   -1.462499   14.45971  0.8461E-13  0.2454E-05  0.1155E-06  0.3047E-04  0.3377E-03 -0.2222E+06
   -1.499997   14.48605  0.8461E-13  0.0000E+00  0.0000E+00  0.0000E+00  0.3405E-03  0.0000E+00
