 1 - depth, m
 2 - temperature, C
 3 - salinity, kg/kg
 4 - turbulent kinetic energy, m**2/s**2
 5 - dissipation rate, m**2/s**3
 6 - kinematic heat conductance, m**2/s
 7 - modulus of horizontal velocity, m/s
 8 - Richardson number, n/d
   -0.000000   -0.00000  0.9189E-12  0.4096E-13  0.8590E-16  0.1000E-09  0.0000E+00  0.1308E+17
   -0.037498    0.20171  0.4272E-12  0.4096E-13  0.8590E-16  0.1000E-09  0.0000E+00  0.1209E+17
   -0.074996    0.39893  0.1744E-12  0.4096E-13  0.8590E-16  0.1000E-09  0.0000E+00  0.1115E+17
   -0.112494    0.59148  0.1033E-12  0.4096E-13  0.8590E-16  0.1000E-09  0.0000E+00  0.1024E+17
   -0.149993    0.77917  0.9268E-13  0.1752E-12  0.8590E-16  0.1000E-09  0.0000E+00  0.9378E+16
   -0.187492    0.96182  0.9107E-13  0.4757E-12  0.1280E-15  0.1000E-09  0.0000E+00  0.8561E+16
   -0.224991    1.13934  0.9087E-13  0.1027E-11  0.2325E-15  0.1000E-09  0.0000E+00  0.7793E+16
   -0.262490    1.31166  0.9083E-13  0.2031E-11  0.4326E-15  0.1000E-09  0.0000E+00  0.7101E+16
   -0.299990    1.47946  0.9081E-13  0.3878E-11  0.8002E-15  0.1000E-09  0.0000E+00  0.6461E+16
   -0.337490    1.64303  0.9080E-13  0.7283E-11  0.1469E-14  0.1000E-09  0.0000E+00  0.5866E+16
   -0.374990    1.80255  0.9079E-13  0.1355E-10  0.2677E-14  0.1000E-09  0.0000E+00  0.5414E+16
   -0.412491    1.96133  0.9076E-13  0.2505E-10  0.4851E-14  0.1000E-09  0.0000E+00  0.5038E+16
   -0.449991    2.12163  0.9069E-13  0.4604E-10  0.8745E-14  0.1000E-09  0.0000E+00  0.4666E+16
   -0.487492    2.28393  0.9050E-13  0.8418E-10  0.1569E-13  0.1000E-09  0.0000E+00  0.4291E+16
   -0.524993    2.44868  0.9007E-13  0.1526E-09  0.2790E-13  0.1000E-09  0.0000E+00  0.3907E+16
   -0.562494    2.61632  0.8929E-13  0.2746E-09  0.4928E-13  0.1000E-09  0.0000E+00  0.3509E+16
   -0.599995    2.78716  0.8816E-13  0.4915E-09  0.8657E-13  0.1000E-09  0.0000E+00  0.3091E+16
   -0.637496    2.96149  0.8685E-13  0.8749E-09  0.1513E-12  0.1586E-09  0.0000E+00  0.2648E+16
   -0.674997    3.13946  0.8563E-13  0.1550E-08  0.2631E-12  0.3355E-09  0.0000E+00  0.2178E+16
   -0.712498    3.32117  0.8464E-13  0.2731E-08  0.4554E-12  0.7540E-09  0.0000E+00  0.1678E+16
   -0.749999    3.50655  0.8379E-13  0.4786E-08  0.7840E-12  0.1895E-08  0.0000E+00  0.1150E+16
   -0.787501    3.69609  0.8306E-13  0.8327E-08  0.1341E-11  0.6420E-08  0.0000E+00  0.5830E+15
   -0.825002    3.88647  0.8269E-13  0.1388E-07  0.2206E-11  0.9468E-07  0.0000E+00  0.7420E+14
   -0.862503    4.01357  0.8265E-13  0.1482E-07  0.2364E-11  0.3670E-04  0.0000E+00 -0.3471E+12
   -0.900004    4.01437  0.8265E-13  0.1525E-07  0.2450E-11  0.3642E-04  0.0000E+00 -0.3632E+12
   -0.937505    4.01518  0.8265E-13  0.1561E-07  0.2540E-11  0.3673E-04  0.0000E+00 -0.3740E+12
   -0.975006    4.01600  0.8265E-13  0.1593E-07  0.2636E-11  0.3682E-04  0.0000E+00 -0.3875E+12
   -1.012507    4.01682  0.8265E-13  0.1620E-07  0.2741E-11  0.3666E-04  0.0000E+00 -0.4076E+12
   -1.050008    4.01766  0.8265E-13  0.1642E-07  0.2857E-11  0.3623E-04  0.0000E+00 -0.4332E+12
   -1.087508    4.01853  0.8265E-13  0.1659E-07  0.2986E-11  0.3552E-04  0.0000E+00 -0.4648E+12
   -1.125009    4.01944  0.8265E-13  0.1671E-07  0.3129E-11  0.3445E-04  0.0000E+00 -0.4987E+12
   -1.162509    4.02039  0.8265E-13  0.1675E-07  0.3291E-11  0.3306E-04  0.0000E+00 -0.5407E+12
   -1.200009    4.02138  0.8265E-13  0.1672E-07  0.3477E-11  0.3134E-04  0.0000E+00 -0.5944E+12
   -1.237509    4.02245  0.8265E-13  0.1660E-07  0.3710E-11  0.2921E-04  0.0000E+00 -0.6657E+12
   -1.275008    4.02361  0.8265E-13  0.1632E-07  0.4033E-11  0.2446E-04  0.0000E+00 -0.8332E+12
   -1.312507    4.02501  0.8265E-13  0.1584E-07  0.4498E-11  0.1869E-04  0.0000E+00 -0.1152E+13
   -1.350006    4.02687  0.8265E-13  0.1505E-07  0.5184E-11  0.1373E-04  0.0000E+00 -0.1676E+13
   -1.387505    4.02943  0.8265E-13  0.1379E-07  0.6332E-11  0.8798E-05  0.0000E+00 -0.2854E+13
   -1.425003    4.03346  0.8265E-13  0.1159E-07  0.8828E-11  0.3975E-05  0.0000E+00 -0.7213E+13
   -1.462501    4.04239  0.8265E-13  0.7152E-08  0.1829E-10  0.5915E-06  0.0000E+00 -0.6530E+14
   -1.499999    4.09351  0.8265E-13  0.0000E+00  0.0000E+00  0.0000E+00  0.0000E+00  0.0000E+00
