 1 - depth, m
 2 - temperature, C
 3 - salinity, kg/kg
 4 - turbulent kinetic energy, m**2/s**2
 5 - dissipation rate, m**2/s**3
 6 - kinematic heat conductance, m**2/s
 7 - modulus of horizontal velocity, m/s
 8 - Richardson number, n/d
   -0.000000   -0.00000  0.5232E-12  0.4096E-13  0.8590E-16  0.1000E-09  0.0000E+00  0.8117E+16
   -0.037498    0.12382  0.4887E-12  0.4096E-13  0.8590E-16  0.1000E-09  0.0000E+00  0.7855E+16
   -0.074996    0.24781  0.3836E-12  0.4096E-13  0.8590E-16  0.1000E-09  0.0000E+00  0.7587E+16
   -0.112494    0.37187  0.2838E-12  0.4096E-13  0.8590E-16  0.1000E-09  0.0000E+00  0.7314E+16
   -0.149993    0.49590  0.2106E-12  0.4096E-13  0.8590E-16  0.1000E-09  0.0000E+00  0.7036E+16
   -0.187492    0.61979  0.1628E-12  0.4096E-13  0.8590E-16  0.1000E-09  0.0000E+00  0.6756E+16
   -0.224991    0.74347  0.1339E-12  0.4096E-13  0.8590E-16  0.1000E-09  0.0000E+00  0.6473E+16
   -0.262491    0.86683  0.1170E-12  0.4096E-13  0.8590E-16  0.1000E-09  0.0000E+00  0.6188E+16
   -0.299991    0.98976  0.1075E-12  0.4096E-13  0.8590E-16  0.1000E-09  0.0000E+00  0.5903E+16
   -0.337491    1.11217  0.1020E-12  0.4096E-13  0.8590E-16  0.1000E-09  0.0000E+00  0.5618E+16
   -0.374991    1.23397  0.9890E-13  0.4096E-13  0.8590E-16  0.1000E-09  0.0000E+00  0.5340E+16
   -0.412491    1.35523  0.9695E-13  0.4096E-13  0.8590E-16  0.1000E-09  0.0000E+00  0.5068E+16
   -0.449992    1.47597  0.9562E-13  0.4096E-13  0.8590E-16  0.1000E-09  0.0000E+00  0.4797E+16
   -0.487493    1.59612  0.9460E-13  0.4096E-13  0.8590E-16  0.1000E-09  0.0000E+00  0.4528E+16
   -0.524994    1.71557  0.9372E-13  0.4096E-13  0.8590E-16  0.1000E-09  0.0000E+00  0.4257E+16
   -0.562495    1.83415  0.9292E-13  0.4096E-13  0.8590E-16  0.1000E-09  0.0000E+00  0.3990E+16
   -0.599996    1.95179  0.9218E-13  0.4096E-13  0.8590E-16  0.1000E-09  0.0000E+00  0.3727E+16
   -0.637497    2.06842  0.9151E-13  0.4096E-13  0.8590E-16  0.1000E-09  0.0000E+00  0.3469E+16
   -0.674998    2.18397  0.9090E-13  0.4096E-13  0.8590E-16  0.1000E-09  0.0000E+00  0.3216E+16
   -0.712499    2.29839  0.9038E-13  0.4096E-13  0.8590E-16  0.1000E-09  0.0000E+00  0.2970E+16
   -0.750001    2.41160  0.8995E-13  0.4096E-13  0.8590E-16  0.1000E-09  0.0000E+00  0.2734E+16
   -0.787502    2.52375  0.8961E-13  0.4096E-13  0.8590E-16  0.1000E-09  0.0000E+00  0.2505E+16
   -0.825003    2.63486  0.8935E-13  0.4096E-13  0.8590E-16  0.1000E-09  0.0000E+00  0.2281E+16
   -0.862504    2.74489  0.8917E-13  0.4096E-13  0.8590E-16  0.1000E-09  0.0000E+00  0.2064E+16
   -0.900005    2.85379  0.8905E-13  0.4119E-13  0.8590E-16  0.1000E-09  0.0000E+00  0.1852E+16
   -0.937507    2.96153  0.8897E-13  0.1678E-12  0.1076E-15  0.1000E-09  0.0000E+00  0.1647E+16
   -0.975008    3.06807  0.8892E-13  0.4979E-12  0.2533E-15  0.1000E-09  0.0000E+00  0.1448E+16
   -1.012508    3.17339  0.8890E-13  0.1311E-11  0.6290E-15  0.1000E-09  0.0000E+00  0.1258E+16
   -1.050009    3.27764  0.8889E-13  0.3337E-11  0.1549E-14  0.1000E-09  0.0000E+00  0.1073E+16
   -1.087510    3.38084  0.8888E-13  0.8350E-11  0.3769E-14  0.1000E-09  0.0000E+00  0.8948E+15
   -1.125010    3.48297  0.8888E-13  0.2064E-10  0.9069E-14  0.1000E-09  0.0000E+00  0.7301E+15
   -1.162510    3.58530  0.8887E-13  0.5048E-10  0.2160E-13  0.1085E-09  0.0000E+00  0.5660E+15
   -1.200010    3.68809  0.8887E-13  0.1221E-09  0.5092E-13  0.3503E-09  0.0000E+00  0.4000E+15
   -1.237510    3.79121  0.8887E-13  0.2921E-09  0.1188E-12  0.1402E-08  0.0000E+00  0.2321E+15
   -1.275010    3.89416  0.8887E-13  0.6879E-09  0.2736E-12  0.1099E-07  0.0000E+00  0.6642E+14
   -1.312509    3.99124  0.8887E-13  0.1437E-08  0.5693E-12  0.1079E-05  0.0000E+00 -0.2126E+13
   -1.350008    4.00376  0.8887E-13  0.1985E-08  0.9101E-12  0.1516E-05  0.0000E+00 -0.3168E+13
   -1.387507    4.01295  0.8887E-13  0.2299E-08  0.1344E-11  0.1367E-05  0.0000E+00 -0.5133E+13
   -1.425005    4.02326  0.8887E-13  0.2284E-08  0.2043E-11  0.8317E-06  0.0000E+00 -0.1159E+14
   -1.462503    4.03966  0.8887E-13  0.1787E-08  0.3756E-11  0.2194E-06  0.0000E+00 -0.5430E+14
   -1.500001    4.08524  0.8887E-13  0.0000E+00  0.0000E+00  0.0000E+00  0.0000E+00  0.0000E+00
