 1 - depth, m
 2 - temperature, C
 3 - salinity, kg/kg
 4 - turbulent kinetic energy, m**2/s**2
 5 - dissipation rate, m**2/s**3
 6 - kinematic heat conductance, m**2/s
 7 - modulus of horizontal velocity, m/s
 8 - Richardson number, n/d
   -0.000000   12.25215  0.1057E-12  0.2979E-03  0.3691E-02  0.5242E-04  0.1380E+00 -0.1247E+00
   -0.037498   12.31189  0.1057E-12  0.1685E-03  0.1130E-02  0.8794E-04  0.4464E-01  0.2915E+02
   -0.074996   12.32587  0.1057E-12  0.1098E-03  0.3453E-03  0.1132E-03  0.2984E-01  0.1411E+01
   -0.112494   12.33558  0.1057E-12  0.8190E-04  0.1242E-03  0.1274E-03  0.2392E-01  0.4169E+01
   -0.149993   12.34148  0.1057E-12  0.6306E-04  0.5355E-04  0.1401E-03  0.2010E-01  0.7375E+03
   -0.187492   12.34613  0.1057E-12  0.4926E-04  0.2706E-04  0.1573E-03  0.1717E-01  0.1363E+01
   -0.224991   12.34980  0.1057E-12  0.3910E-04  0.1452E-04  0.1826E-03  0.1487E-01  0.5769E+02
   -0.262490   12.35285  0.1057E-12  0.3175E-04  0.7742E-05  0.2093E-03  0.1307E-01  0.1996E+02
   -0.299990   12.35548  0.1057E-12  0.2636E-04  0.4054E-05  0.2385E-03  0.1153E-01  0.2808E+01
   -0.337490   12.35778  0.1057E-12  0.2250E-04  0.2143E-05  0.2679E-03  0.1023E-01  0.1553E+02
   -0.374990   12.35982  0.1057E-12  0.1969E-04  0.1181E-05  0.2948E-03  0.9117E-02  0.3077E+01
   -0.412491   12.36168  0.1057E-12  0.1761E-04  0.6970E-06  0.3287E-03  0.8196E-02  0.1823E+02
   -0.449991   12.36326  0.1057E-12  0.1600E-04  0.4439E-06  0.3675E-03  0.7444E-02  0.8502E+02
   -0.487492   12.36464  0.1057E-12  0.1473E-04  0.2996E-06  0.3998E-03  0.6839E-02  0.7874E+01
   -0.524993   12.36585  0.1057E-12  0.1375E-04  0.2198E-06  0.4250E-03  0.6353E-02  0.2700E+02
   -0.562494   12.36698  0.1057E-12  0.1295E-04  0.1690E-06  0.4510E-03  0.5888E-02  0.5076E+02
   -0.599995   12.36800  0.1057E-12  0.1229E-04  0.1331E-06  0.4814E-03  0.5463E-02  0.1207E+03
   -0.637496   12.36891  0.1057E-12  0.1172E-04  0.1090E-06  0.5082E-03  0.5074E-02  0.9226E+01
   -0.674997   12.36976  0.1057E-12  0.1123E-04  0.9148E-07  0.5312E-03  0.4713E-02  0.2162E+02
   -0.712498   12.37054  0.1057E-12  0.1079E-04  0.7849E-07  0.5532E-03  0.4377E-02  0.1405E+02
   -0.750000   12.37126  0.1057E-12  0.1039E-04  0.6844E-07  0.5727E-03  0.4062E-02  0.5662E+01
   -0.787501   12.37194  0.1057E-12  0.1002E-04  0.6042E-07  0.5902E-03  0.3766E-02  0.8721E+01
   -0.825002   12.37259  0.1057E-12  0.9659E-05  0.5384E-07  0.6057E-03  0.3485E-02  0.1152E+02
   -0.862503   12.37321  0.1057E-12  0.9308E-05  0.4833E-07  0.6145E-03  0.3218E-02  0.1013E+02
   -0.900004   12.37381  0.1057E-12  0.8956E-05  0.4363E-07  0.6193E-03  0.2960E-02  0.1831E+02
   -0.937505   12.37439  0.1057E-12  0.8595E-05  0.3956E-07  0.6151E-03  0.2712E-02  0.1936E+02
   -0.975006   12.37497  0.1057E-12  0.8216E-05  0.3595E-07  0.6088E-03  0.2469E-02  0.2426E+03
   -1.012507   12.37556  0.1057E-12  0.7809E-05  0.3267E-07  0.5887E-03  0.2234E-02  0.3133E+02
   -1.050008   12.37616  0.1057E-12  0.7423E-05  0.2986E-07  0.6485E-03  0.2010E-02  0.1712E+02
   -1.087508   12.37672  0.1057E-12  0.7117E-05  0.2779E-07  0.6927E-03  0.1843E-02  0.6782E+01
   -1.125009   12.37723  0.1057E-12  0.6830E-05  0.2620E-07  0.5776E-03  0.1742E-02  0.1693E+02
   -1.162509   12.37785  0.1057E-12  0.6457E-05  0.2462E-07  0.5298E-03  0.1612E-02  0.6224E+01
   -1.200009   12.37850  0.1057E-12  0.6027E-05  0.2317E-07  0.4979E-03  0.1466E-02  0.4806E+01
   -1.237509   12.37920  0.1057E-12  0.5602E-05  0.2212E-07  0.4545E-03  0.1343E-02  0.6131E+01
   -1.275008   12.37997  0.1057E-12  0.5182E-05  0.2153E-07  0.4048E-03  0.1235E-02  0.8928E+01
   -1.312508   12.38084  0.1057E-12  0.4772E-05  0.2157E-07  0.3504E-03  0.1144E-02  0.1544E+02
   -1.350007   12.38185  0.1057E-12  0.4358E-05  0.2261E-07  0.2876E-03  0.1070E-02  0.3745E+02
   -1.387505   12.38314  0.1057E-12  0.3910E-05  0.2527E-07  0.2176E-03  0.1008E-02  0.1342E+03
   -1.425004   12.38482  0.1057E-12  0.3345E-05  0.3282E-07  0.1464E-03  0.9564E-03  0.7324E+03
   -1.462502   12.38781  0.1057E-12  0.1925E-05  0.7054E-07  0.1530E-04  0.9049E-03 -0.8023E+05
   -1.499999   12.41398  0.1057E-12  0.0000E+00  0.0000E+00  0.0000E+00  0.8931E-03  0.0000E+00
