 1 - depth, m
 2 - temperature, C
 3 - salinity, kg/kg
 4 - turbulent kinetic energy, m**2/s**2
 5 - dissipation rate, m**2/s**3
 6 - kinematic heat conductance, m**2/s
 7 - modulus of horizontal velocity, m/s
 8 - Richardson number, n/d
   -0.000000    7.01754  0.8592E-13  0.1094E-03  0.4683E-04  0.4317E-04  0.9267E-01 -0.1726E-02
   -0.037498    7.05755  0.8591E-13  0.6313E-04  0.1339E-04  0.7584E-04  0.3418E-01 -0.9397E-02
   -0.074996    7.06548  0.8591E-13  0.4591E-04  0.5690E-05  0.8020E-04  0.2516E-01 -0.9814E-02
   -0.112494    7.07158  0.8591E-13  0.3600E-04  0.2870E-05  0.8635E-04  0.2069E-01 -0.1373E-01
   -0.149993    7.07661  0.8591E-13  0.2902E-04  0.1578E-05  0.9303E-04  0.1747E-01 -0.2055E-01
   -0.187492    7.08100  0.8591E-13  0.2386E-04  0.9204E-06  0.9965E-04  0.1492E-01 -0.2926E-01
   -0.224991    7.08496  0.8591E-13  0.1994E-04  0.5673E-06  0.1064E-03  0.1285E-01 -0.3765E-01
   -0.262490    7.08859  0.8591E-13  0.1696E-04  0.3704E-06  0.1123E-03  0.1116E-01 -0.4659E-01
   -0.299990    7.09196  0.8591E-13  0.1461E-04  0.2538E-06  0.1193E-03  0.9711E-02 -0.2449E-01
   -0.337490    7.09508  0.8591E-13  0.1271E-04  0.1804E-06  0.1319E-03  0.8481E-02  0.3255E+01
   -0.374990    7.09792  0.8591E-13  0.1114E-04  0.1319E-06  0.1463E-03  0.7443E-02  0.1134E+03
   -0.412491    7.10051  0.8591E-13  0.9837E-05  0.9851E-07  0.1623E-03  0.6570E-02  0.3985E+02
   -0.449991    7.10286  0.8591E-13  0.8763E-05  0.7506E-07  0.1821E-03  0.5841E-02  0.5288E+02
   -0.487492    7.10497  0.8591E-13  0.7892E-05  0.5841E-07  0.2012E-03  0.5240E-02  0.7799E+01
   -0.524993    7.10688  0.8591E-13  0.7197E-05  0.4653E-07  0.2194E-03  0.4743E-02  0.3861E+02
   -0.562494    7.10863  0.8591E-13  0.6626E-05  0.3780E-07  0.2389E-03  0.4295E-02  0.6848E+01
   -0.599995    7.11023  0.8591E-13  0.6149E-05  0.3123E-07  0.2574E-03  0.3893E-02  0.3531E+02
   -0.637496    7.11170  0.8591E-13  0.5743E-05  0.2620E-07  0.2810E-03  0.3531E-02  0.1505E+02
   -0.674997    7.11304  0.8591E-13  0.5396E-05  0.2229E-07  0.3096E-03  0.3207E-02  0.9058E+01
   -0.712498    7.11423  0.8591E-13  0.5095E-05  0.1922E-07  0.3478E-03  0.2914E-02  0.4547E+02
   -0.750000    7.11527  0.8591E-13  0.4832E-05  0.1677E-07  0.3866E-03  0.2651E-02  0.2926E+02
   -0.787501    7.11617  0.8591E-13  0.4596E-05  0.1478E-07  0.4134E-03  0.2410E-02  0.9122E+01
   -0.825002    7.11698  0.8591E-13  0.4380E-05  0.1313E-07  0.4279E-03  0.2187E-02  0.1686E+02
   -0.862503    7.11775  0.8591E-13  0.4178E-05  0.1175E-07  0.4340E-03  0.1978E-02  0.2318E+02
   -0.900004    7.11848  0.8591E-13  0.3985E-05  0.1058E-07  0.4362E-03  0.1781E-02  0.6062E+01
   -0.937505    7.11919  0.8591E-13  0.3797E-05  0.9579E-08  0.4342E-03  0.1594E-02  0.4485E+02
   -0.975006    7.11990  0.8591E-13  0.3611E-05  0.8711E-08  0.4269E-03  0.1416E-02  0.5922E+01
   -1.012507    7.12062  0.8591E-13  0.3423E-05  0.7953E-08  0.4245E-03  0.1244E-02  0.3465E+01
   -1.050008    7.12134  0.8591E-13  0.3235E-05  0.7302E-08  0.4193E-03  0.1091E-02  0.2728E+01
   -1.087508    7.12206  0.8591E-13  0.3051E-05  0.6755E-08  0.4107E-03  0.9560E-03  0.2225E+01
   -1.125009    7.12280  0.8591E-13  0.2872E-05  0.6311E-08  0.3976E-03  0.8387E-03  0.1849E+01
   -1.162509    7.12356  0.8591E-13  0.2700E-05  0.5971E-08  0.3799E-03  0.7382E-03  0.1584E+01
   -1.200009    7.12435  0.8591E-13  0.2538E-05  0.5737E-08  0.3533E-03  0.6535E-03  0.1454E+01
   -1.237509    7.12520  0.8591E-13  0.2389E-05  0.5613E-08  0.3202E-03  0.5839E-03  0.1533E+01
   -1.275008    7.12613  0.8591E-13  0.2252E-05  0.5601E-08  0.2868E-03  0.5283E-03  0.2072E+01
   -1.312508    7.12717  0.8591E-13  0.2122E-05  0.5709E-08  0.2541E-03  0.4849E-03  0.3720E+01
   -1.350007    7.12834  0.8591E-13  0.1985E-05  0.5978E-08  0.2163E-03  0.4498E-03  0.8865E+01
   -1.387505    7.12972  0.8591E-13  0.1829E-05  0.6527E-08  0.1762E-03  0.4190E-03  0.3155E+02
   -1.425004    7.13141  0.8591E-13  0.1617E-05  0.7841E-08  0.1165E-03  0.3936E-03  0.3480E+05
   -1.462502    7.13395  0.8591E-13  0.9275E-06  0.1672E-07  0.8320E-05  0.3694E-03 -0.2091E+05
   -1.499999    7.16869  0.8591E-13  0.0000E+00  0.0000E+00  0.0000E+00  0.3657E-03  0.0000E+00
