 1 - depth, m
 2 - temperature, C
 3 - salinity, kg/kg
 4 - turbulent kinetic energy, m**2/s**2
 5 - dissipation rate, m**2/s**3
 6 - kinematic heat conductance, m**2/s
 7 - modulus of horizontal velocity, m/s
 8 - Richardson number, n/d
   -0.000000    4.00008  0.5227E-11  0.1082E-02  0.5341E-02  0.1377E-03  0.4792E+00  0.1200E-03
   -0.037498    4.04903  0.5227E-11  0.5696E-03  0.2530E-02  0.2329E-03  0.1417E+00 -0.2981E-03
   -0.074996    4.06812  0.5227E-11  0.3539E-03  0.6531E-03  0.3073E-03  0.8308E-01 -0.6283E-03
   -0.112494    4.07657  0.5227E-11  0.2701E-03  0.3780E-03  0.3069E-03  0.6393E-01 -0.9565E-03
   -0.149993    4.08038  0.5227E-11  0.2191E-03  0.2513E-03  0.3016E-03  0.5329E-01 -0.2089E-02
   -0.187492    4.08277  0.5227E-11  0.1818E-03  0.1731E-03  0.2972E-03  0.4626E-01 -0.1010E-03
   -0.224991    4.08448  0.5227E-11  0.1531E-03  0.1185E-03  0.2959E-03  0.4098E-01 -0.2286E-02
   -0.262491    4.08572  0.5227E-11  0.1302E-03  0.7966E-04  0.2959E-03  0.3730E-01 -0.2663E-02
   -0.299991    4.08684  0.5227E-11  0.1119E-03  0.5260E-04  0.2971E-03  0.3406E-01 -0.3536E-02
   -0.337491    4.08792  0.5227E-11  0.9737E-04  0.3429E-04  0.3011E-03  0.3112E-01 -0.6061E-03
   -0.374991    4.08894  0.5227E-11  0.8552E-04  0.2219E-04  0.3063E-03  0.2854E-01 -0.3042E-02
   -0.412492    4.08993  0.5227E-11  0.7584E-04  0.1433E-04  0.3140E-03  0.2621E-01 -0.1124E-01
   -0.449992    4.09084  0.5227E-11  0.6806E-04  0.9249E-05  0.3233E-03  0.2434E-01 -0.3549E-01
   -0.487493    4.09165  0.5227E-11  0.6173E-04  0.5972E-05  0.3341E-03  0.2285E-01 -0.4992E-01
   -0.524994    4.09232  0.5227E-11  0.5667E-04  0.3874E-05  0.3391E-03  0.2179E-01 -0.1946E+00
   -0.562495    4.09315  0.5227E-11  0.5244E-04  0.2532E-05  0.3443E-03  0.2051E-01 -0.1057E-01
   -0.599996    4.09399  0.5227E-11  0.4880E-04  0.1680E-05  0.3516E-03  0.1924E-01 -0.6387E-02
   -0.637497    4.09483  0.5227E-11  0.4567E-04  0.1154E-05  0.3589E-03  0.1806E-01 -0.5332E-02
   -0.674999    4.09566  0.5227E-11  0.4294E-04  0.8378E-06  0.3655E-03  0.1698E-01 -0.5041E-02
   -0.712500    4.09648  0.5227E-11  0.4049E-04  0.6460E-06  0.3713E-03  0.1597E-01 -0.5161E-02
   -0.750001    4.09730  0.5227E-11  0.3827E-04  0.5250E-06  0.3768E-03  0.1504E-01 -0.5500E-02
   -0.787503    4.09811  0.5227E-11  0.3625E-04  0.4435E-06  0.3809E-03  0.1417E-01 -0.5963E-02
   -0.825004    4.09892  0.5227E-11  0.3438E-04  0.3840E-06  0.3836E-03  0.1335E-01 -0.6476E-02
   -0.862505    4.09974  0.5227E-11  0.3263E-04  0.3375E-06  0.3844E-03  0.1258E-01 -0.7011E-02
   -0.900006    4.10058  0.5227E-11  0.3095E-04  0.2992E-06  0.3826E-03  0.1185E-01 -0.7546E-02
   -0.937507    4.10144  0.5227E-11  0.2931E-04  0.2667E-06  0.3784E-03  0.1114E-01 -0.8036E-02
   -0.975008    4.10234  0.5227E-11  0.2768E-04  0.2383E-06  0.3702E-03  0.1045E-01 -0.8451E-02
   -1.012509    4.10329  0.5227E-11  0.2604E-04  0.2131E-06  0.3688E-03  0.9760E-02 -0.1093E-01
   -1.050010    4.10426  0.5227E-11  0.2440E-04  0.1906E-06  0.3656E-03  0.9129E-02 -0.1446E-01
   -1.087511    4.10525  0.5227E-11  0.2278E-04  0.1706E-06  0.3592E-03  0.8554E-02 -0.1871E-01
   -1.125011    4.10629  0.5227E-11  0.2118E-04  0.1530E-06  0.3493E-03  0.8027E-02 -0.2335E-01
   -1.162511    4.10738  0.5227E-11  0.1960E-04  0.1374E-06  0.3358E-03  0.7540E-02 -0.2742E-01
   -1.200012    4.10855  0.5227E-11  0.1805E-04  0.1239E-06  0.3190E-03  0.7091E-02 -0.2856E-01
   -1.237511    4.10983  0.5227E-11  0.1651E-04  0.1123E-06  0.2980E-03  0.6678E-02 -0.1926E-01
   -1.275011    4.11124  0.5227E-11  0.1497E-04  0.1029E-06  0.2719E-03  0.6297E-02  0.2256E-01
   -1.312510    4.11284  0.5227E-11  0.1343E-04  0.9593E-07  0.2396E-03  0.5947E-02  0.1761E+00
   -1.350009    4.11474  0.5227E-11  0.1185E-04  0.9238E-07  0.2001E-03  0.5625E-02  0.9101E+00
   -1.387508    4.11712  0.5227E-11  0.1017E-04  0.9480E-07  0.1513E-03  0.5331E-02  0.1301E+02
   -1.425007    4.12042  0.5227E-11  0.8193E-05  0.1121E-06  0.9161E-04  0.5063E-02  0.8715E+00
   -1.462505    4.12624  0.5227E-11  0.4222E-05  0.2291E-06  0.1400E-04  0.4816E-02 -0.8077E+01
   -1.500002    4.16651  0.5227E-11  0.0000E+00  0.0000E+00  0.0000E+00  0.4553E-02  0.0000E+00
