 1 - depth, m
 2 - temperature, C
 3 - salinity, kg/kg
 4 - turbulent kinetic energy, m**2/s**2
 5 - dissipation rate, m**2/s**3
 6 - kinematic heat conductance, m**2/s
 7 - modulus of horizontal velocity, m/s
 8 - Richardson number, n/d
   -0.000000    8.07351  0.9966E-13  0.3802E-04  0.6066E-05  0.2555E-04  0.4522E-01 -0.1596E-01
   -0.037498    8.11545  0.9966E-13  0.2564E-04  0.1745E-05  0.4459E-04  0.2299E-01 -0.1182E-01
   -0.074996    8.12954  0.9966E-13  0.2037E-04  0.8030E-06  0.5976E-04  0.1734E-01 -0.2129E-01
   -0.112494    8.13967  0.9966E-13  0.1691E-04  0.4481E-06  0.7258E-04  0.1384E-01 -0.3296E-01
   -0.149993    8.14793  0.9966E-13  0.1438E-04  0.2789E-06  0.8395E-04  0.1132E-01 -0.4814E-01
   -0.187492    8.15500  0.9966E-13  0.1241E-04  0.1860E-06  0.9491E-04  0.9398E-02 -0.6877E-01
   -0.224991    8.16117  0.9966E-13  0.1085E-04  0.1304E-06  0.1064E-03  0.7907E-02 -0.9794E-01
   -0.262491    8.16660  0.9966E-13  0.9616E-05  0.9507E-07  0.1186E-03  0.6740E-02 -0.1304E+00
   -0.299991    8.17139  0.9966E-13  0.8616E-05  0.7149E-07  0.1362E-03  0.5799E-02 -0.8527E-01
   -0.337491    8.17553  0.9966E-13  0.7814E-05  0.5531E-07  0.1892E-03  0.5038E-02  0.2592E+03
   -0.374991    8.17878  0.9966E-13  0.7184E-05  0.4411E-07  0.2709E-03  0.4440E-02  0.7065E+03
   -0.412491    8.18101  0.9966E-13  0.6704E-05  0.3632E-07  0.3865E-03  0.3969E-02  0.1609E+03
   -0.449992    8.18246  0.9966E-13  0.6323E-05  0.3054E-07  0.4035E-03  0.3600E-02  0.2954E+01
   -0.487493    8.18377  0.9966E-13  0.6005E-05  0.2598E-07  0.4225E-03  0.3272E-02  0.2159E+01
   -0.524994    8.18501  0.9966E-13  0.5749E-05  0.2242E-07  0.4277E-03  0.2993E-02  0.1038E+02
   -0.562495    8.18620  0.9966E-13  0.5535E-05  0.1959E-07  0.4344E-03  0.2734E-02  0.2453E+01
   -0.599996    8.18736  0.9966E-13  0.5352E-05  0.1728E-07  0.4417E-03  0.2493E-02  0.2585E+01
   -0.637497    8.18848  0.9966E-13  0.5192E-05  0.1539E-07  0.4497E-03  0.2269E-02  0.2670E+01
   -0.674998    8.18956  0.9966E-13  0.5046E-05  0.1383E-07  0.4582E-03  0.2061E-02  0.2716E+01
   -0.712499    8.19061  0.9966E-13  0.4909E-05  0.1252E-07  0.4668E-03  0.1868E-02  0.2729E+01
   -0.750001    8.19162  0.9966E-13  0.4778E-05  0.1142E-07  0.4752E-03  0.1688E-02  0.2716E+01
   -0.787502    8.19260  0.9966E-13  0.4648E-05  0.1049E-07  0.4830E-03  0.1521E-02  0.2684E+01
   -0.825003    8.19355  0.9966E-13  0.4516E-05  0.9701E-08  0.4898E-03  0.1365E-02  0.2637E+01
   -0.862504    8.19447  0.9966E-13  0.4381E-05  0.9038E-08  0.4953E-03  0.1221E-02  0.2580E+01
   -0.900006    8.19538  0.9966E-13  0.4240E-05  0.8482E-08  0.4991E-03  0.1087E-02  0.2516E+01
   -0.937507    8.19626  0.9966E-13  0.4093E-05  0.8021E-08  0.5009E-03  0.9617E-03  0.2448E+01
   -0.975008    8.19713  0.9966E-13  0.3939E-05  0.7646E-08  0.5015E-03  0.8452E-03  0.2388E+01
   -1.012508    8.19798  0.9966E-13  0.3781E-05  0.7356E-08  0.5166E-03  0.7366E-03  0.2099E+01
   -1.050009    8.19880  0.9966E-13  0.3624E-05  0.7150E-08  0.5343E-03  0.6436E-03  0.1836E+01
   -1.087510    8.19958  0.9966E-13  0.3472E-05  0.7027E-08  0.5166E-03  0.5668E-03  0.1599E+01
   -1.125010    8.20038  0.9966E-13  0.3330E-05  0.6979E-08  0.4766E-03  0.5046E-03  0.1378E+01
   -1.162511    8.20124  0.9966E-13  0.3201E-05  0.6997E-08  0.4372E-03  0.4553E-03  0.1185E+01
   -1.200011    8.20216  0.9966E-13  0.3084E-05  0.7073E-08  0.4069E-03  0.4172E-03  0.1081E+01
   -1.237510    8.20314  0.9966E-13  0.2968E-05  0.7215E-08  0.3781E-03  0.3881E-03  0.1451E+01
   -1.275010    8.20419  0.9966E-13  0.2841E-05  0.7455E-08  0.3393E-03  0.3624E-03  0.2415E+01
   -1.312509    8.20534  0.9966E-13  0.2695E-05  0.7846E-08  0.2933E-03  0.3385E-03  0.4678E+01
   -1.350008    8.20666  0.9966E-13  0.2526E-05  0.8487E-08  0.2427E-03  0.3165E-03  0.1114E+02
   -1.387507    8.20823  0.9966E-13  0.2321E-05  0.9599E-08  0.1833E-03  0.2963E-03  0.3839E+02
   -1.425005    8.21029  0.9966E-13  0.2060E-05  0.1180E-07  0.1343E-03  0.2784E-03  0.1990E+03
   -1.462503    8.21307  0.9966E-13  0.1224E-05  0.2549E-07  0.9900E-05  0.2656E-03 -0.2250E+05
   -1.500001    8.24975  0.9966E-13  0.0000E+00  0.0000E+00  0.0000E+00  0.2641E-03  0.0000E+00
