 1 - depth, m
 2 - temperature, C
 3 - salinity, kg/kg
 4 - turbulent kinetic energy, m**2/s**2
 5 - dissipation rate, m**2/s**3
 6 - kinematic heat conductance, m**2/s
 7 - modulus of horizontal velocity, m/s
 8 - Richardson number, n/d
   -0.000000   -0.00000  0.6618E-12  0.4096E-13  0.8590E-16  0.1000E-09  0.0000E+00  0.1209E+17
   -0.037498    0.18597  0.4219E-12  0.4096E-13  0.8590E-16  0.1000E-09  0.0000E+00  0.1132E+17
   -0.074996    0.36930  0.2922E-12  0.4096E-13  0.8590E-16  0.1000E-09  0.0000E+00  0.1057E+17
   -0.112494    0.54998  0.1942E-12  0.4096E-13  0.8590E-16  0.1000E-09  0.0000E+00  0.9857E+16
   -0.149992    0.72801  0.1372E-12  0.4096E-13  0.8590E-16  0.1000E-09  0.0000E+00  0.9171E+16
   -0.187491    0.90339  0.1114E-12  0.6569E-13  0.8590E-16  0.1000E-09  0.0000E+00  0.8513E+16
   -0.224991    1.07614  0.1018E-12  0.2547E-12  0.8590E-16  0.1000E-09  0.0000E+00  0.7881E+16
   -0.262490    1.24625  0.9880E-13  0.6108E-12  0.1246E-15  0.1000E-09  0.0000E+00  0.7284E+16
   -0.299990    1.41395  0.9796E-13  0.1210E-11  0.2092E-15  0.1000E-09  0.0000E+00  0.6712E+16
   -0.337490    1.57929  0.9773E-13  0.2219E-11  0.3595E-15  0.1000E-09  0.0000E+00  0.6163E+16
   -0.374990    1.74225  0.9763E-13  0.3931E-11  0.6161E-15  0.1000E-09  0.0000E+00  0.5683E+16
   -0.412490    1.90423  0.9751E-13  0.6850E-11  0.1049E-14  0.1000E-09  0.0000E+00  0.5241E+16
   -0.449991    2.06613  0.9730E-13  0.1182E-10  0.1776E-14  0.1000E-09  0.0000E+00  0.4803E+16
   -0.487491    2.22797  0.9691E-13  0.2028E-10  0.2993E-14  0.1000E-09  0.0000E+00  0.4367E+16
   -0.524992    2.38975  0.9632E-13  0.3452E-10  0.5005E-14  0.1000E-09  0.0000E+00  0.3928E+16
   -0.562493    2.55123  0.9550E-13  0.5834E-10  0.8316E-14  0.1000E-09  0.0000E+00  0.3494E+16
   -0.599994    2.71240  0.9449E-13  0.9812E-10  0.1375E-13  0.1000E-09  0.0000E+00  0.3065E+16
   -0.637495    2.87323  0.9340E-13  0.1643E-09  0.2263E-13  0.1000E-09  0.0000E+00  0.2639E+16
   -0.674996    3.03368  0.9233E-13  0.2739E-09  0.3711E-13  0.1000E-09  0.0000E+00  0.2218E+16
   -0.712497    3.19370  0.9136E-13  0.4547E-09  0.6060E-13  0.1000E-09  0.0000E+00  0.1802E+16
   -0.749998    3.35321  0.9051E-13  0.7519E-09  0.9856E-13  0.1961E-09  0.0000E+00  0.1395E+16
   -0.787500    3.51273  0.8980E-13  0.1238E-08  0.1597E-12  0.4475E-09  0.0000E+00  0.9903E+15
   -0.825001    3.67223  0.8925E-13  0.2030E-08  0.2576E-12  0.1220E-08  0.0000E+00  0.5861E+15
   -0.862502    3.83104  0.8892E-13  0.3308E-08  0.4132E-12  0.6057E-08  0.0000E+00  0.1891E+15
   -0.900003    3.98472  0.8882E-13  0.4117E-08  0.5164E-12  0.4652E-05  0.0000E+00 -0.5749E+11
   -0.937504    3.98944  0.8882E-13  0.4619E-08  0.5956E-12  0.8406E-05  0.0000E+00 -0.1871E+12
   -0.975005    3.99211  0.8882E-13  0.5066E-08  0.6779E-12  0.1050E-04  0.0000E+00 -0.2332E+12
   -1.012506    3.99427  0.8882E-13  0.5483E-08  0.7666E-12  0.1192E-04  0.0000E+00 -0.2713E+12
   -1.050006    3.99621  0.8882E-13  0.5874E-08  0.8640E-12  0.1284E-04  0.0000E+00 -0.3108E+12
   -1.087507    3.99804  0.8882E-13  0.6236E-08  0.9716E-12  0.1334E-04  0.0000E+00 -0.3560E+12
   -1.125007    3.99984  0.8882E-13  0.6564E-08  0.1092E-11  0.1344E-04  0.0000E+00 -0.4104E+12
   -1.162507    4.00165  0.8882E-13  0.6853E-08  0.1229E-11  0.1317E-04  0.0000E+00 -0.4798E+12
   -1.200007    4.00353  0.8882E-13  0.7095E-08  0.1388E-11  0.1256E-04  0.0000E+00 -0.5725E+12
   -1.237507    4.00554  0.8882E-13  0.7276E-08  0.1578E-11  0.1161E-04  0.0000E+00 -0.7032E+12
   -1.275006    4.00775  0.8882E-13  0.7377E-08  0.1814E-11  0.1030E-04  0.0000E+00 -0.9004E+12
   -1.312505    4.01028  0.8882E-13  0.7369E-08  0.2124E-11  0.8642E-05  0.0000E+00 -0.1227E+13
   -1.350004    4.01335  0.8882E-13  0.7198E-08  0.2567E-11  0.6639E-05  0.0000E+00 -0.1852E+13
   -1.387503    4.01742  0.8882E-13  0.6758E-08  0.3293E-11  0.4357E-05  0.0000E+00 -0.3364E+13
   -1.425001    4.02369  0.8882E-13  0.5818E-08  0.4810E-11  0.2033E-05  0.0000E+00 -0.9167E+13
   -1.462499    4.03699  0.8882E-13  0.4017E-08  0.9701E-11  0.3993E-06  0.0000E+00 -0.6711E+14
   -1.499997    4.09189  0.8882E-13  0.0000E+00  0.0000E+00  0.0000E+00  0.0000E+00  0.0000E+00
