 1 - depth, m
 2 - temperature, C
 3 - salinity, kg/kg
 4 - turbulent kinetic energy, m**2/s**2
 5 - dissipation rate, m**2/s**3
 6 - kinematic heat conductance, m**2/s
 7 - modulus of horizontal velocity, m/s
 8 - Richardson number, n/d
   -0.000000   -0.00000  0.5244E-11  0.1134E-09  0.1015E-12  0.1000E-09  0.0000E+00  0.2911E+17
   -0.037497    0.46565  0.0000E+00  0.3051E-09  0.8917E-13  0.1000E-09  0.0000E+00  0.2422E+17
   -0.074994    0.90985  0.1457E-12  0.6703E-09  0.1230E-12  0.1000E-09  0.0000E+00  0.1994E+17
   -0.112492    1.33419  0.8271E-13  0.1278E-08  0.1978E-12  0.1000E-09  0.0000E+00  0.1621E+17
   -0.149990    1.74047  0.8222E-13  0.2278E-08  0.3287E-12  0.1002E-09  0.0000E+00  0.1296E+17
   -0.187488    2.13076  0.8146E-13  0.3928E-08  0.5468E-12  0.1502E-09  0.0000E+00  0.1010E+17
   -0.224986    2.50739  0.8135E-13  0.6660E-08  0.9049E-12  0.3313E-09  0.0000E+00  0.7577E+16
   -0.262485    2.87306  0.8132E-13  0.1117E-07  0.1488E-11  0.7773E-09  0.0000E+00  0.5307E+16
   -0.299984    3.23074  0.8131E-13  0.1858E-07  0.2430E-11  0.2102E-08  0.0000E+00  0.3210E+16
   -0.337483    3.58275  0.8131E-13  0.3060E-07  0.3933E-11  0.9747E-08  0.0000E+00  0.1224E+16
   -0.374983    3.91885  0.8131E-13  0.3970E-07  0.5121E-11  0.4395E-04  0.0000E+00  0.7534E+14
   -0.412482    4.02288  0.8131E-13  0.4032E-07  0.5208E-11  0.1064E-03  0.0000E+00 -0.2724E+12
   -0.449982    4.02337  0.8131E-13  0.4066E-07  0.5266E-11  0.1051E-03  0.0000E+00 -0.2784E+12
   -0.487482    4.02385  0.8131E-13  0.4097E-07  0.5328E-11  0.1054E-03  0.0000E+00 -0.2800E+12
   -0.524982    4.02434  0.8131E-13  0.4123E-07  0.5392E-11  0.1055E-03  0.0000E+00 -0.2815E+12
   -0.562482    4.02482  0.8131E-13  0.4146E-07  0.5460E-11  0.1054E-03  0.0000E+00 -0.2834E+12
   -0.599982    4.02530  0.8131E-13  0.4165E-07  0.5531E-11  0.1050E-03  0.0000E+00 -0.2862E+12
   -0.637483    4.02577  0.8131E-13  0.4180E-07  0.5607E-11  0.1045E-03  0.0000E+00 -0.2895E+12
   -0.674983    4.02625  0.8131E-13  0.4191E-07  0.5687E-11  0.1036E-03  0.0000E+00 -0.2938E+12
   -0.712484    4.02672  0.8131E-13  0.4198E-07  0.5772E-11  0.1026E-03  0.0000E+00 -0.2986E+12
   -0.749984    4.02720  0.8131E-13  0.4201E-07  0.5864E-11  0.1013E-03  0.0000E+00 -0.3042E+12
   -0.787484    4.02768  0.8131E-13  0.4199E-07  0.5961E-11  0.9978E-04  0.0000E+00 -0.3103E+12
   -0.824985    4.02816  0.8131E-13  0.4194E-07  0.6067E-11  0.9801E-04  0.0000E+00 -0.3177E+12
   -0.862485    4.02865  0.8131E-13  0.4183E-07  0.6181E-11  0.9600E-04  0.0000E+00 -0.3261E+12
   -0.899986    4.02915  0.8131E-13  0.4169E-07  0.6306E-11  0.9373E-04  0.0000E+00 -0.3360E+12
   -0.937486    4.02965  0.8131E-13  0.4149E-07  0.6443E-11  0.9122E-04  0.0000E+00 -0.3472E+12
   -0.974986    4.03016  0.8131E-13  0.4125E-07  0.6594E-11  0.8844E-04  0.0000E+00 -0.3604E+12
   -1.012486    4.03069  0.8131E-13  0.4095E-07  0.6762E-11  0.8539E-04  0.0000E+00 -0.3768E+12
   -1.049986    4.03124  0.8131E-13  0.4058E-07  0.6953E-11  0.8201E-04  0.0000E+00 -0.3965E+12
   -1.087486    4.03180  0.8131E-13  0.4015E-07  0.7172E-11  0.7830E-04  0.0000E+00 -0.4199E+12
   -1.124985    4.03239  0.8131E-13  0.3964E-07  0.7425E-11  0.7424E-04  0.0000E+00 -0.4475E+12
   -1.162485    4.03301  0.8131E-13  0.3905E-07  0.7722E-11  0.6981E-04  0.0000E+00 -0.4810E+12
   -1.199984    4.03367  0.8131E-13  0.3835E-07  0.8075E-11  0.6497E-04  0.0000E+00 -0.5231E+12
   -1.237483    4.03438  0.8131E-13  0.3754E-07  0.8503E-11  0.5970E-04  0.0000E+00 -0.5766E+12
   -1.274982    4.03514  0.8131E-13  0.3657E-07  0.9041E-11  0.5411E-04  0.0000E+00 -0.6453E+12
   -1.312480    4.03598  0.8131E-13  0.3525E-07  0.9830E-11  0.4407E-04  0.0000E+00 -0.8036E+12
   -1.349978    4.03703  0.8131E-13  0.3326E-07  0.1117E-10  0.2729E-04  0.0000E+00 -0.1328E+13
   -1.387476    4.03869  0.8131E-13  0.3033E-07  0.1354E-10  0.1645E-04  0.0000E+00 -0.2287E+13
   -1.424974    4.04144  0.8131E-13  0.2559E-07  0.1875E-10  0.7463E-05  0.0000E+00 -0.5398E+13
   -1.462471    4.04742  0.8131E-13  0.1489E-07  0.4111E-10  0.9319E-06  0.0000E+00 -0.5404E+14
   -1.499968    4.08959  0.8131E-13  0.0000E+00  0.0000E+00  0.0000E+00  0.0000E+00  0.0000E+00
