 1 - depth, m
 2 - temperature, C
 3 - salinity, kg/kg
 4 - turbulent kinetic energy, m**2/s**2
 5 - dissipation rate, m**2/s**3
 6 - kinematic heat conductance, m**2/s
 7 - modulus of horizontal velocity, m/s
 8 - Richardson number, n/d
   -0.000000   -0.00000  0.2332E-11  0.3420E-07  0.1278E-09  0.3548E-08  0.0000E+00  0.9982E+17
   -0.037499    2.04485  0.6956E-11  0.2531E-06  0.7754E-10  0.7213E-08  0.0000E+00  0.3007E+17
   -0.074998    4.07971  0.1138E-10  0.2577E-06  0.7735E-10  0.2788E-03  0.0000E+00 -0.1669E+13
   -0.112497    4.08079  0.1138E-10  0.2598E-06  0.7728E-10  0.2745E-03  0.0000E+00 -0.1584E+13
   -0.149996    4.08187  0.1138E-10  0.2617E-06  0.7723E-10  0.2785E-03  0.0000E+00 -0.1546E+13
   -0.187496    4.08291  0.1139E-10  0.2633E-06  0.7722E-10  0.2821E-03  0.0000E+00 -0.1513E+13
   -0.224997    4.08391  0.1139E-10  0.2647E-06  0.7724E-10  0.2850E-03  0.0000E+00 -0.1487E+13
   -0.262497    4.08489  0.1139E-10  0.2660E-06  0.7730E-10  0.2875E-03  0.0000E+00 -0.1462E+13
   -0.299998    4.08584  0.1139E-10  0.2670E-06  0.7739E-10  0.2893E-03  0.0000E+00 -0.1445E+13
   -0.337499    4.08677  0.1139E-10  0.2678E-06  0.7752E-10  0.2907E-03  0.0000E+00 -0.1428E+13
   -0.375000    4.08768  0.1139E-10  0.2684E-06  0.7770E-10  0.2914E-03  0.0000E+00 -0.1418E+13
   -0.412501    4.08858  0.1139E-10  0.2689E-06  0.7792E-10  0.2917E-03  0.0000E+00 -0.1408E+13
   -0.450003    4.08946  0.1139E-10  0.2691E-06  0.7819E-10  0.2913E-03  0.0000E+00 -0.1404E+13
   -0.487504    4.09034  0.1139E-10  0.2692E-06  0.7851E-10  0.2903E-03  0.0000E+00 -0.1401E+13
   -0.525006    4.09120  0.1139E-10  0.2691E-06  0.7889E-10  0.2888E-03  0.0000E+00 -0.1403E+13
   -0.562508    4.09206  0.1139E-10  0.2688E-06  0.7933E-10  0.2867E-03  0.0000E+00 -0.1406E+13
   -0.600010    4.09291  0.1139E-10  0.2683E-06  0.7983E-10  0.2841E-03  0.0000E+00 -0.1415E+13
   -0.637512    4.09376  0.1139E-10  0.2676E-06  0.8040E-10  0.2808E-03  0.0000E+00 -0.1426E+13
   -0.675014    4.09461  0.1139E-10  0.2667E-06  0.8105E-10  0.2770E-03  0.0000E+00 -0.1443E+13
   -0.712516    4.09546  0.1139E-10  0.2656E-06  0.8179E-10  0.2726E-03  0.0000E+00 -0.1462E+13
   -0.750018    4.09632  0.1139E-10  0.2644E-06  0.8263E-10  0.2675E-03  0.0000E+00 -0.1488E+13
   -0.787520    4.09718  0.1139E-10  0.2629E-06  0.8357E-10  0.2619E-03  0.0000E+00 -0.1516E+13
   -0.825023    4.09806  0.1139E-10  0.2612E-06  0.8464E-10  0.2557E-03  0.0000E+00 -0.1553E+13
   -0.862525    4.09895  0.1139E-10  0.2593E-06  0.8585E-10  0.2489E-03  0.0000E+00 -0.1593E+13
   -0.900027    4.09985  0.1139E-10  0.2572E-06  0.8722E-10  0.2414E-03  0.0000E+00 -0.1643E+13
   -0.937529    4.10078  0.1139E-10  0.2548E-06  0.8878E-10  0.2333E-03  0.0000E+00 -0.1699E+13
   -0.975031    4.10173  0.1139E-10  0.2522E-06  0.9056E-10  0.2246E-03  0.0000E+00 -0.1767E+13
   -1.012532    4.10271  0.1139E-10  0.2493E-06  0.9260E-10  0.2153E-03  0.0000E+00 -0.1847E+13
   -1.050034    4.10372  0.1139E-10  0.2460E-06  0.9500E-10  0.2051E-03  0.0000E+00 -0.1944E+13
   -1.087535    4.10478  0.1139E-10  0.2423E-06  0.9781E-10  0.1942E-03  0.0000E+00 -0.2058E+13
   -1.125037    4.10589  0.1139E-10  0.2383E-06  0.1012E-09  0.1825E-03  0.0000E+00 -0.2199E+13
   -1.162538    4.10706  0.1139E-10  0.2337E-06  0.1052E-09  0.1699E-03  0.0000E+00 -0.2371E+13
   -1.200039    4.10832  0.1139E-10  0.2285E-06  0.1101E-09  0.1566E-03  0.0000E+00 -0.2587E+13
   -1.237539    4.10967  0.1139E-10  0.2227E-06  0.1161E-09  0.1423E-03  0.0000E+00 -0.2863E+13
   -1.275040    4.11115  0.1139E-10  0.2161E-06  0.1238E-09  0.1272E-03  0.0000E+00 -0.3227E+13
   -1.312540    4.11280  0.1139E-10  0.2085E-06  0.1340E-09  0.1110E-03  0.0000E+00 -0.3730E+13
   -1.350040    4.11467  0.1139E-10  0.1996E-06  0.1478E-09  0.9572E-04  0.0000E+00 -0.4368E+13
   -1.387540    4.11684  0.1139E-10  0.1869E-06  0.1722E-09  0.6136E-04  0.0000E+00 -0.6917E+13
   -1.425039    4.12021  0.1139E-10  0.1634E-06  0.2331E-09  0.2352E-04  0.0000E+00 -0.1876E+14
   -1.462538    4.12891  0.1139E-10  0.9469E-07  0.5486E-09  0.2661E-05  0.0000E+00 -0.2047E+15
   -1.500036    4.20206  0.1139E-10  0.0000E+00  0.0000E+00  0.0000E+00  0.0000E+00  0.0000E+00
