 1 - depth, m
 2 - temperature, C
 3 - salinity, kg/kg
 4 - turbulent kinetic energy, m**2/s**2
 5 - dissipation rate, m**2/s**3
 6 - kinematic heat conductance, m**2/s
 7 - modulus of horizontal velocity, m/s
 8 - Richardson number, n/d
   -0.000000   -0.00000  0.3076E-10  0.7425E-09  0.1083E-11  0.1024E-09  0.0000E+00  0.3459E+17
   -0.037498    0.56086  0.7354E-10  0.2797E-08  0.9759E-12  0.1058E-09  0.0000E+00  0.2875E+17
   -0.074996    1.11476  0.1026E-09  0.6765E-08  0.1474E-11  0.1743E-09  0.0000E+00  0.2343E+17
   -0.112495    1.66768  0.9560E-10  0.1366E-07  0.2559E-11  0.3848E-09  0.0000E+00  0.1842E+17
   -0.149994    2.22629  0.6518E-10  0.2564E-07  0.4532E-11  0.9312E-09  0.0000E+00  0.1348E+17
   -0.187493    2.79779  0.3432E-10  0.4659E-07  0.7986E-11  0.2679E-08  0.0000E+00  0.8320E+16
   -0.224992    3.38678  0.1174E-10  0.8274E-07  0.1389E-10  0.1605E-07  0.0000E+00  0.2799E+16
   -0.262492    3.95642  0.1239E-11  0.9589E-07  0.1613E-10  0.1291E-03  0.0000E+00  0.1169E+15
   -0.299992    4.05369  0.9137E-12  0.9669E-07  0.1628E-10  0.1849E-03  0.0000E+00 -0.5309E+12
   -0.337492    4.05419  0.9126E-12  0.9720E-07  0.1640E-10  0.1844E-03  0.0000E+00 -0.5258E+12
   -0.374993    4.05469  0.9116E-12  0.9764E-07  0.1653E-10  0.1846E-03  0.0000E+00 -0.5229E+12
   -0.412494    4.05518  0.9105E-12  0.9800E-07  0.1667E-10  0.1845E-03  0.0000E+00 -0.5207E+12
   -0.449994    4.05566  0.9095E-12  0.9828E-07  0.1681E-10  0.1841E-03  0.0000E+00 -0.5200E+12
   -0.487495    4.05614  0.9086E-12  0.9849E-07  0.1696E-10  0.1834E-03  0.0000E+00 -0.5202E+12
   -0.524996    4.05662  0.9076E-12  0.9862E-07  0.1713E-10  0.1823E-03  0.0000E+00 -0.5213E+12
   -0.562498    4.05710  0.9066E-12  0.9868E-07  0.1730E-10  0.1808E-03  0.0000E+00 -0.5235E+12
   -0.599999    4.05757  0.9057E-12  0.9866E-07  0.1748E-10  0.1791E-03  0.0000E+00 -0.5271E+12
   -0.637500    4.05804  0.9049E-12  0.9856E-07  0.1768E-10  0.1770E-03  0.0000E+00 -0.5319E+12
   -0.675002    4.05852  0.9040E-12  0.9838E-07  0.1789E-10  0.1745E-03  0.0000E+00 -0.5384E+12
   -0.712503    4.05899  0.9032E-12  0.9813E-07  0.1811E-10  0.1717E-03  0.0000E+00 -0.5462E+12
   -0.750005    4.05947  0.9024E-12  0.9780E-07  0.1836E-10  0.1685E-03  0.0000E+00 -0.5556E+12
   -0.787506    4.05996  0.9016E-12  0.9739E-07  0.1863E-10  0.1650E-03  0.0000E+00 -0.5666E+12
   -0.825008    4.06045  0.9008E-12  0.9690E-07  0.1892E-10  0.1612E-03  0.0000E+00 -0.5797E+12
   -0.862509    4.06095  0.9001E-12  0.9632E-07  0.1925E-10  0.1570E-03  0.0000E+00 -0.5950E+12
   -0.900010    4.06146  0.8994E-12  0.9566E-07  0.1960E-10  0.1524E-03  0.0000E+00 -0.6129E+12
   -0.937512    4.06198  0.8987E-12  0.9490E-07  0.2000E-10  0.1475E-03  0.0000E+00 -0.6335E+12
   -0.975013    4.06252  0.8980E-12  0.9404E-07  0.2044E-10  0.1423E-03  0.0000E+00 -0.6577E+12
   -1.012514    4.06307  0.8974E-12  0.9308E-07  0.2095E-10  0.1366E-03  0.0000E+00 -0.6866E+12
   -1.050015    4.06364  0.8968E-12  0.9199E-07  0.2152E-10  0.1305E-03  0.0000E+00 -0.7212E+12
   -1.087516    4.06424  0.8961E-12  0.9075E-07  0.2219E-10  0.1239E-03  0.0000E+00 -0.7624E+12
   -1.125016    4.06486  0.8956E-12  0.8936E-07  0.2297E-10  0.1168E-03  0.0000E+00 -0.8119E+12
   -1.162517    4.06552  0.8950E-12  0.8779E-07  0.2389E-10  0.1092E-03  0.0000E+00 -0.8723E+12
   -1.200017    4.06623  0.8944E-12  0.8602E-07  0.2500E-10  0.1011E-03  0.0000E+00 -0.9475E+12
   -1.237517    4.06698  0.8939E-12  0.8400E-07  0.2636E-10  0.9246E-04  0.0000E+00 -0.1043E+13
   -1.275017    4.06781  0.8934E-12  0.8170E-07  0.2807E-10  0.8316E-04  0.0000E+00 -0.1169E+13
   -1.312516    4.06873  0.8929E-12  0.7905E-07  0.3026E-10  0.7393E-04  0.0000E+00 -0.1327E+13
   -1.350015    4.06975  0.8924E-12  0.7542E-07  0.3373E-10  0.5431E-04  0.0000E+00 -0.1822E+13
   -1.387514    4.07115  0.8919E-12  0.6951E-07  0.4058E-10  0.2806E-04  0.0000E+00 -0.3599E+13
   -1.425013    4.07383  0.8912E-12  0.5974E-07  0.5589E-10  0.1289E-04  0.0000E+00 -0.8161E+13
   -1.462511    4.07963  0.8903E-12  0.3555E-07  0.1257E-09  0.1634E-05  0.0000E+00 -0.7576E+14
   -1.500009    4.12203  0.8878E-12  0.0000E+00  0.0000E+00  0.0000E+00  0.0000E+00  0.0000E+00
