 1 - depth, m
 2 - temperature, C
 3 - salinity, kg/kg
 4 - turbulent kinetic energy, m**2/s**2
 5 - dissipation rate, m**2/s**3
 6 - kinematic heat conductance, m**2/s
 7 - modulus of horizontal velocity, m/s
 8 - Richardson number, n/d
   -0.000000   10.69742  0.9830E-13  0.3616E-03  0.9525E-03  0.7405E-04  0.2253E+00 -0.4002E-01
   -0.037498   10.75377  0.9832E-13  0.1953E-03  0.4182E-03  0.1234E-03  0.7263E-01 -0.1070E-01
   -0.074996   10.77300  0.9832E-13  0.1329E-03  0.1601E-03  0.1566E-03  0.4630E-01 -0.9323E-02
   -0.112495   10.78192  0.9832E-13  0.1039E-03  0.9752E-04  0.1607E-03  0.3704E-01 -0.8040E-01
   -0.149993   10.78680  0.9833E-13  0.8476E-04  0.6195E-04  0.1660E-03  0.3158E-01 -0.3471E-01
   -0.187493   10.79059  0.9833E-13  0.7054E-04  0.3985E-04  0.1721E-03  0.2761E-01 -0.3242E-01
   -0.224992   10.79373  0.9833E-13  0.5972E-04  0.2562E-04  0.1801E-03  0.2447E-01 -0.2675E-01
   -0.262492   10.79648  0.9833E-13  0.5130E-04  0.1637E-04  0.1872E-03  0.2199E-01 -0.7780E-02
   -0.299992   10.79900  0.9833E-13  0.4461E-04  0.1046E-04  0.1948E-03  0.1979E-01 -0.1235E-02
   -0.337492   10.80136  0.9833E-13  0.3924E-04  0.6701E-05  0.2044E-03  0.1785E-01  0.3036E+00
   -0.374992   10.80360  0.9833E-13  0.3484E-04  0.4305E-05  0.2171E-03  0.1616E-01  0.1688E+01
   -0.412493   10.80566  0.9833E-13  0.3120E-04  0.2805E-05  0.2298E-03  0.1473E-01  0.1439E+01
   -0.449994   10.80756  0.9833E-13  0.2819E-04  0.1861E-05  0.2449E-03  0.1351E-01  0.1081E+01
   -0.487494   10.80929  0.9833E-13  0.2574E-04  0.1241E-05  0.2636E-03  0.1251E-01  0.1089E+03
   -0.524996   10.81085  0.9833E-13  0.2377E-04  0.8177E-06  0.2879E-03  0.1169E-01  0.1409E+02
   -0.562497   10.81231  0.9833E-13  0.2213E-04  0.5335E-06  0.3163E-03  0.1088E-01  0.6611E+01
   -0.599998   10.81364  0.9833E-13  0.2066E-04  0.3515E-06  0.3481E-03  0.1010E-01  0.6934E+02
   -0.637499   10.81484  0.9833E-13  0.1941E-04  0.2460E-06  0.3840E-03  0.9390E-02  0.3067E+02
   -0.675001   10.81591  0.9833E-13  0.1834E-04  0.1865E-06  0.4147E-03  0.8743E-02  0.3692E+03
   -0.712502   10.81688  0.9833E-13  0.1739E-04  0.1510E-06  0.4416E-03  0.8146E-02  0.6692E+01
   -0.750003   10.81776  0.9833E-13  0.1653E-04  0.1281E-06  0.4726E-03  0.7592E-02  0.3923E+02
   -0.787505   10.81856  0.9833E-13  0.1575E-04  0.1113E-06  0.4980E-03  0.7077E-02  0.1337E+02
   -0.825006   10.81930  0.9833E-13  0.1501E-04  0.9831E-07  0.5188E-03  0.6592E-02  0.2328E+02
   -0.862508   10.81998  0.9833E-13  0.1432E-04  0.8756E-07  0.5363E-03  0.6131E-02  0.1403E+02
   -0.900009   10.82063  0.9833E-13  0.1365E-04  0.7846E-07  0.5523E-03  0.5690E-02  0.2278E+02
   -0.937510   10.82125  0.9833E-13  0.1299E-04  0.7064E-07  0.5660E-03  0.5265E-02  0.3329E+02
   -0.975011   10.82184  0.9833E-13  0.1234E-04  0.6379E-07  0.5723E-03  0.4854E-02  0.3367E+02
   -1.012512   10.82242  0.9833E-13  0.1168E-04  0.5767E-07  0.5795E-03  0.4450E-02  0.1205E+02
   -1.050013   10.82297  0.9833E-13  0.1099E-04  0.5217E-07  0.5816E-03  0.4077E-02  0.1110E+02
   -1.087514   10.82352  0.9833E-13  0.1030E-04  0.4725E-07  0.5791E-03  0.3734E-02  0.9092E+01
   -1.125014   10.82406  0.9833E-13  0.9604E-05  0.4288E-07  0.5723E-03  0.3421E-02  0.4696E+01
   -1.162515   10.82459  0.9833E-13  0.8901E-05  0.3904E-07  0.5578E-03  0.3134E-02  0.2222E+02
   -1.200015   10.82513  0.9833E-13  0.8199E-05  0.3577E-07  0.5312E-03  0.2875E-02  0.4755E+02
   -1.237515   10.82569  0.9833E-13  0.7505E-05  0.3308E-07  0.4936E-03  0.2643E-02  0.4746E+01
   -1.275015   10.82629  0.9833E-13  0.6834E-05  0.3107E-07  0.4464E-03  0.2439E-02  0.1046E+02
   -1.312514   10.82695  0.9833E-13  0.6201E-05  0.2989E-07  0.3853E-03  0.2266E-02  0.1317E+02
   -1.350013   10.82770  0.9833E-13  0.5612E-05  0.2979E-07  0.3146E-03  0.2125E-02  0.4494E+02
   -1.387512   10.82860  0.9833E-13  0.5021E-05  0.3126E-07  0.2459E-03  0.2014E-02  0.4568E+02
   -1.425011   10.82974  0.9833E-13  0.4277E-05  0.3677E-07  0.1418E-03  0.1921E-02  0.1546E+04
   -1.462509   10.83162  0.9833E-13  0.2313E-05  0.7585E-07  0.1227E-04  0.1831E-02 -0.3405E+04
   -1.500007   10.85282  0.9833E-13  0.0000E+00  0.0000E+00  0.0000E+00  0.1766E-02  0.0000E+00
