 1 - depth, m
 2 - temperature, C
 3 - salinity, kg/kg
 4 - turbulent kinetic energy, m**2/s**2
 5 - dissipation rate, m**2/s**3
 6 - kinematic heat conductance, m**2/s
 7 - modulus of horizontal velocity, m/s
 8 - Richardson number, n/d
   -0.000000   15.41334  0.1061E-12  0.8069E-04  0.2599E-04  0.4820E-04  0.7392E-01 -0.8103E-01
   -0.037498   15.45216  0.1061E-12  0.4624E-04  0.7222E-05  0.6349E-04  0.2803E-01 -0.3341E-01
   -0.074996   15.45988  0.1061E-12  0.3432E-04  0.3155E-05  0.7160E-04  0.2088E-01 -0.6246E-01
   -0.112494   15.46541  0.1061E-12  0.2716E-04  0.1658E-05  0.7987E-04  0.1704E-01 -0.4048E-01
   -0.149993   15.46991  0.1061E-12  0.2210E-04  0.9384E-06  0.8879E-04  0.1420E-01 -0.5703E-01
   -0.187492   15.47376  0.1061E-12  0.1836E-04  0.5622E-06  0.9826E-04  0.1197E-01 -0.7679E-01
   -0.224991   15.47713  0.1061E-12  0.1554E-04  0.3543E-06  0.1088E-03  0.1018E-01 -0.1039E+00
   -0.262490   15.48009  0.1061E-12  0.1341E-04  0.2348E-06  0.1222E-03  0.8745E-02 -0.1025E+00
   -0.299990   15.48267  0.1061E-12  0.1176E-04  0.1629E-06  0.1602E-03  0.7558E-02  0.4599E+02
   -0.337490   15.48479  0.1061E-12  0.1049E-04  0.1178E-06  0.2068E-03  0.6593E-02  0.9198E+03
   -0.374990   15.48649  0.1061E-12  0.9490E-05  0.8822E-07  0.2552E-03  0.5806E-02  0.1842E+03
   -0.412491   15.48787  0.1061E-12  0.8709E-05  0.6807E-07  0.3006E-03  0.5165E-02  0.2306E+02
   -0.449991   15.48900  0.1061E-12  0.8101E-05  0.5402E-07  0.3534E-03  0.4639E-02  0.1559E+03
   -0.487492   15.48990  0.1061E-12  0.7638E-05  0.4412E-07  0.4019E-03  0.4210E-02  0.7300E+03
   -0.524993   15.49065  0.1061E-12  0.7287E-05  0.3696E-07  0.4237E-03  0.3854E-02  0.1052E+02
   -0.562494   15.49133  0.1061E-12  0.7011E-05  0.3155E-07  0.4405E-03  0.3524E-02  0.6315E+01
   -0.599995   15.49196  0.1061E-12  0.6790E-05  0.2739E-07  0.4558E-03  0.3220E-02  0.1651E+02
   -0.637496   15.49255  0.1061E-12  0.6608E-05  0.2411E-07  0.4693E-03  0.2938E-02  0.3376E+01
   -0.674997   15.49312  0.1061E-12  0.6450E-05  0.2149E-07  0.4816E-03  0.2676E-02  0.3049E+01
   -0.712498   15.49367  0.1061E-12  0.6308E-05  0.1935E-07  0.4935E-03  0.2432E-02  0.3074E+01
   -0.749999   15.49421  0.1061E-12  0.6175E-05  0.1760E-07  0.5047E-03  0.2205E-02  0.3055E+01
   -0.787501   15.49473  0.1061E-12  0.6043E-05  0.1614E-07  0.5148E-03  0.1992E-02  0.3027E+01
   -0.825002   15.49525  0.1061E-12  0.5909E-05  0.1494E-07  0.5235E-03  0.1793E-02  0.2983E+01
   -0.862503   15.49575  0.1061E-12  0.5769E-05  0.1395E-07  0.5303E-03  0.1607E-02  0.2926E+01
   -0.900004   15.49625  0.1061E-12  0.5619E-05  0.1314E-07  0.5349E-03  0.1433E-02  0.2862E+01
   -0.937505   15.49675  0.1061E-12  0.5457E-05  0.1249E-07  0.5367E-03  0.1270E-02  0.2793E+01
   -0.975006   15.49725  0.1061E-12  0.5282E-05  0.1198E-07  0.5366E-03  0.1117E-02  0.2732E+01
   -1.012507   15.49775  0.1061E-12  0.5095E-05  0.1160E-07  0.5494E-03  0.9742E-03  0.2350E+01
   -1.050008   15.49825  0.1061E-12  0.4903E-05  0.1136E-07  0.5688E-03  0.8509E-03  0.2018E+01
   -1.087508   15.49873  0.1061E-12  0.4712E-05  0.1125E-07  0.5613E-03  0.7481E-03  0.1746E+01
   -1.125009   15.49922  0.1061E-12  0.4528E-05  0.1126E-07  0.5299E-03  0.6640E-03  0.1509E+01
   -1.162509   15.49974  0.1061E-12  0.4357E-05  0.1138E-07  0.4918E-03  0.5968E-03  0.1308E+01
   -1.200009   15.50030  0.1061E-12  0.4200E-05  0.1159E-07  0.4539E-03  0.5444E-03  0.1189E+01
   -1.237508   15.50092  0.1061E-12  0.4049E-05  0.1192E-07  0.4183E-03  0.5044E-03  0.1464E+01
   -1.275008   15.50160  0.1061E-12  0.3889E-05  0.1240E-07  0.3765E-03  0.4716E-03  0.2332E+01
   -1.312507   15.50237  0.1061E-12  0.3706E-05  0.1314E-07  0.3267E-03  0.4429E-03  0.4521E+01
   -1.350006   15.50326  0.1061E-12  0.3487E-05  0.1431E-07  0.2703E-03  0.4164E-03  0.1087E+02
   -1.387505   15.50436  0.1061E-12  0.3217E-05  0.1628E-07  0.2033E-03  0.3924E-03  0.3781E+02
   -1.425003   15.50584  0.1061E-12  0.2865E-05  0.2010E-07  0.1505E-03  0.3708E-03  0.1945E+03
   -1.462501   15.50787  0.1061E-12  0.1711E-05  0.4340E-07  0.1229E-04  0.3555E-03 -0.2771E+05
   -1.499999   15.53267  0.1061E-12  0.0000E+00  0.0000E+00  0.0000E+00  0.3529E-03  0.0000E+00
