 1 - depth, m
 2 - temperature, C
 3 - salinity, kg/kg
 4 - turbulent kinetic energy, m**2/s**2
 5 - dissipation rate, m**2/s**3
 6 - kinematic heat conductance, m**2/s
 7 - modulus of horizontal velocity, m/s
 8 - Richardson number, n/d
   -0.000000   -0.00000  0.3932E-11  0.8017E-10  0.6475E-13  0.1000E-09  0.0000E+00  0.2856E+17
   -0.037498    0.45614  0.4144E-12  0.2022E-09  0.5302E-13  0.1000E-09  0.0000E+00  0.2455E+17
   -0.074996    0.90538  0.1295E-12  0.4259E-09  0.6520E-13  0.1000E-09  0.0000E+00  0.2061E+17
   -0.112494    1.34433  0.8300E-13  0.7752E-09  0.9485E-13  0.1000E-09  0.0000E+00  0.1684E+17
   -0.149993    1.76985  0.8276E-13  0.1307E-08  0.1451E-12  0.1000E-09  0.0000E+00  0.1332E+17
   -0.187492    2.17920  0.8176E-13  0.2117E-08  0.2241E-12  0.1000E-09  0.0000E+00  0.1012E+17
   -0.224991    2.56996  0.8142E-13  0.3357E-08  0.3457E-12  0.1376E-09  0.0000E+00  0.7272E+16
   -0.262491    2.93980  0.8133E-13  0.5258E-08  0.5312E-12  0.3099E-09  0.0000E+00  0.4797E+16
   -0.299991    3.28622  0.8131E-13  0.8169E-08  0.8126E-12  0.8438E-09  0.0000E+00  0.2711E+16
   -0.337491    3.60573  0.8131E-13  0.1261E-07  0.1237E-11  0.3736E-08  0.0000E+00  0.1036E+16
   -0.374991    3.89008  0.8131E-13  0.1605E-07  0.1578E-11  0.2118E-04  0.0000E+00  0.1468E+15
   -0.412491    3.99761  0.8131E-13  0.1646E-07  0.1623E-11  0.5549E-04  0.0000E+00 -0.1120E+12
   -0.449992    3.99835  0.8131E-13  0.1673E-07  0.1657E-11  0.5676E-04  0.0000E+00 -0.1189E+12
   -0.487493    3.99904  0.8131E-13  0.1698E-07  0.1693E-11  0.5830E-04  0.0000E+00 -0.1239E+12
   -0.524993    3.99970  0.8131E-13  0.1723E-07  0.1733E-11  0.5950E-04  0.0000E+00 -0.1286E+12
   -0.562494    4.00033  0.8131E-13  0.1746E-07  0.1775E-11  0.6032E-04  0.0000E+00 -0.1337E+12
   -0.599996    4.00096  0.8131E-13  0.1768E-07  0.1820E-11  0.6071E-04  0.0000E+00 -0.1394E+12
   -0.637497    4.00157  0.8131E-13  0.1789E-07  0.1868E-11  0.6081E-04  0.0000E+00 -0.1458E+12
   -0.674998    4.00219  0.8131E-13  0.1808E-07  0.1919E-11  0.6072E-04  0.0000E+00 -0.1527E+12
   -0.712499    4.00281  0.8131E-13  0.1827E-07  0.1974E-11  0.6040E-04  0.0000E+00 -0.1604E+12
   -0.750000    4.00343  0.8131E-13  0.1844E-07  0.2033E-11  0.5984E-04  0.0000E+00 -0.1688E+12
   -0.787502    4.00407  0.8131E-13  0.1859E-07  0.2096E-11  0.5910E-04  0.0000E+00 -0.1780E+12
   -0.825003    4.00471  0.8131E-13  0.1873E-07  0.2164E-11  0.5821E-04  0.0000E+00 -0.1880E+12
   -0.862504    4.00536  0.8131E-13  0.1885E-07  0.2237E-11  0.5717E-04  0.0000E+00 -0.1991E+12
   -0.900005    4.00603  0.8131E-13  0.1895E-07  0.2315E-11  0.5597E-04  0.0000E+00 -0.2115E+12
   -0.937506    4.00671  0.8131E-13  0.1902E-07  0.2401E-11  0.5460E-04  0.0000E+00 -0.2253E+12
   -0.975007    4.00742  0.8131E-13  0.1908E-07  0.2494E-11  0.5307E-04  0.0000E+00 -0.2410E+12
   -1.012508    4.00814  0.8131E-13  0.1910E-07  0.2595E-11  0.5136E-04  0.0000E+00 -0.2595E+12
   -1.050009    4.00890  0.8131E-13  0.1910E-07  0.2709E-11  0.4943E-04  0.0000E+00 -0.2813E+12
   -1.087510    4.00969  0.8131E-13  0.1906E-07  0.2837E-11  0.4729E-04  0.0000E+00 -0.3071E+12
   -1.125010    4.01052  0.8131E-13  0.1898E-07  0.2982E-11  0.4489E-04  0.0000E+00 -0.3371E+12
   -1.162510    4.01140  0.8131E-13  0.1885E-07  0.3149E-11  0.4224E-04  0.0000E+00 -0.3739E+12
   -1.200010    4.01234  0.8131E-13  0.1866E-07  0.3344E-11  0.3930E-04  0.0000E+00 -0.4199E+12
   -1.237510    4.01336  0.8131E-13  0.1839E-07  0.3583E-11  0.3592E-04  0.0000E+00 -0.4815E+12
   -1.275010    4.01448  0.8131E-13  0.1799E-07  0.3909E-11  0.3060E-04  0.0000E+00 -0.5968E+12
   -1.312509    4.01582  0.8131E-13  0.1736E-07  0.4397E-11  0.2231E-04  0.0000E+00 -0.8675E+12
   -1.350008    4.01766  0.8131E-13  0.1642E-07  0.5146E-11  0.1556E-04  0.0000E+00 -0.1340E+13
   -1.387507    4.02030  0.8131E-13  0.1498E-07  0.6417E-11  0.9653E-05  0.0000E+00 -0.2397E+13
   -1.425005    4.02456  0.8131E-13  0.1255E-07  0.9198E-11  0.4249E-05  0.0000E+00 -0.6443E+13
   -1.462503    4.03415  0.8131E-13  0.7712E-08  0.1984E-10  0.6236E-06  0.0000E+00 -0.6483E+14
   -1.500001    4.08914  0.8131E-13  0.0000E+00  0.0000E+00  0.0000E+00  0.0000E+00  0.0000E+00
