 1 - depth, m
 2 - temperature, C
 3 - salinity, kg/kg
 4 - turbulent kinetic energy, m**2/s**2
 5 - dissipation rate, m**2/s**3
 6 - kinematic heat conductance, m**2/s
 7 - modulus of horizontal velocity, m/s
 8 - Richardson number, n/d
   -0.000000   -0.00000  0.2668E-11  0.8237E-10  0.6738E-13  0.1000E-09  0.0000E+00  0.2559E+17
   -0.037497    0.40585  0.6001E-12  0.2096E-09  0.5870E-13  0.1000E-09  0.0000E+00  0.2213E+17
   -0.074995    0.80099  0.2220E-12  0.4502E-09  0.7872E-13  0.1000E-09  0.0000E+00  0.1895E+17
   -0.112493    1.18601  0.1091E-12  0.8443E-09  0.1233E-12  0.1000E-09  0.0000E+00  0.1604E+17
   -0.149992    1.56175  0.8596E-13  0.1479E-08  0.2002E-12  0.1000E-09  0.0000E+00  0.1338E+17
   -0.187491    1.92939  0.8215E-13  0.2504E-08  0.3260E-12  0.1001E-09  0.0000E+00  0.1094E+17
   -0.224990    2.29043  0.8149E-13  0.4164E-08  0.5284E-12  0.1692E-09  0.0000E+00  0.8674E+16
   -0.262489    2.64651  0.8135E-13  0.6849E-08  0.8517E-12  0.3608E-09  0.0000E+00  0.6550E+16
   -0.299989    2.99926  0.8132E-13  0.1118E-07  0.1364E-11  0.8386E-09  0.0000E+00  0.4512E+16
   -0.337489    3.34929  0.8131E-13  0.1812E-07  0.2174E-11  0.2384E-08  0.0000E+00  0.2529E+16
   -0.374989    3.69375  0.8131E-13  0.2909E-07  0.3433E-11  0.1424E-07  0.0000E+00  0.6687E+15
   -0.412489    4.00946  0.8131E-13  0.2972E-07  0.3511E-11  0.8878E-04  0.0000E+00 -0.2016E+12
   -0.449989    4.01001  0.8131E-13  0.3002E-07  0.3555E-11  0.8676E-04  0.0000E+00 -0.2091E+12
   -0.487490    4.01056  0.8131E-13  0.3030E-07  0.3603E-11  0.8704E-04  0.0000E+00 -0.2126E+12
   -0.524990    4.01112  0.8131E-13  0.3056E-07  0.3655E-11  0.8723E-04  0.0000E+00 -0.2160E+12
   -0.562491    4.01167  0.8131E-13  0.3079E-07  0.3711E-11  0.8723E-04  0.0000E+00 -0.2198E+12
   -0.599992    4.01221  0.8131E-13  0.3100E-07  0.3770E-11  0.8703E-04  0.0000E+00 -0.2243E+12
   -0.637493    4.01276  0.8131E-13  0.3119E-07  0.3834E-11  0.8664E-04  0.0000E+00 -0.2293E+12
   -0.674994    4.01331  0.8131E-13  0.3134E-07  0.3902E-11  0.8604E-04  0.0000E+00 -0.2351E+12
   -0.712495    4.01386  0.8131E-13  0.3147E-07  0.3975E-11  0.8525E-04  0.0000E+00 -0.2415E+12
   -0.749996    4.01441  0.8131E-13  0.3157E-07  0.4053E-11  0.8425E-04  0.0000E+00 -0.2485E+12
   -0.787497    4.01497  0.8131E-13  0.3163E-07  0.4136E-11  0.8305E-04  0.0000E+00 -0.2562E+12
   -0.824998    4.01554  0.8131E-13  0.3167E-07  0.4227E-11  0.8164E-04  0.0000E+00 -0.2650E+12
   -0.862499    4.01611  0.8131E-13  0.3167E-07  0.4325E-11  0.8002E-04  0.0000E+00 -0.2749E+12
   -0.900000    4.01670  0.8131E-13  0.3164E-07  0.4431E-11  0.7819E-04  0.0000E+00 -0.2862E+12
   -0.937501    4.01729  0.8131E-13  0.3158E-07  0.4547E-11  0.7613E-04  0.0000E+00 -0.2990E+12
   -0.975001    4.01790  0.8131E-13  0.3147E-07  0.4675E-11  0.7385E-04  0.0000E+00 -0.3138E+12
   -1.012502    4.01853  0.8131E-13  0.3132E-07  0.4816E-11  0.7134E-04  0.0000E+00 -0.3315E+12
   -1.050003    4.01918  0.8131E-13  0.3112E-07  0.4976E-11  0.6853E-04  0.0000E+00 -0.3525E+12
   -1.087503    4.01986  0.8131E-13  0.3086E-07  0.5157E-11  0.6543E-04  0.0000E+00 -0.3774E+12
   -1.125003    4.02057  0.8131E-13  0.3054E-07  0.5366E-11  0.6203E-04  0.0000E+00 -0.4068E+12
   -1.162503    4.02132  0.8131E-13  0.3016E-07  0.5610E-11  0.5829E-04  0.0000E+00 -0.4427E+12
   -1.200003    4.02212  0.8131E-13  0.2968E-07  0.5897E-11  0.5419E-04  0.0000E+00 -0.4876E+12
   -1.237503    4.02298  0.8131E-13  0.2911E-07  0.6244E-11  0.4969E-04  0.0000E+00 -0.5454E+12
   -1.275002    4.02392  0.8131E-13  0.2842E-07  0.6672E-11  0.4503E-04  0.0000E+00 -0.6184E+12
   -1.312501    4.02496  0.8131E-13  0.2744E-07  0.7306E-11  0.3484E-04  0.0000E+00 -0.8246E+12
   -1.350000    4.02630  0.8131E-13  0.2589E-07  0.8400E-11  0.2250E-04  0.0000E+00 -0.1333E+13
   -1.387498    4.02838  0.8131E-13  0.2360E-07  0.1030E-10  0.1381E-04  0.0000E+00 -0.2315E+13
   -1.424996    4.03176  0.8131E-13  0.1985E-07  0.1445E-10  0.6190E-05  0.0000E+00 -0.5754E+13
   -1.462494    4.03923  0.8131E-13  0.1174E-07  0.3163E-10  0.8157E-06  0.0000E+00 -0.6036E+14
   -1.499992    4.08885  0.8131E-13  0.0000E+00  0.0000E+00  0.0000E+00  0.0000E+00  0.0000E+00
