 1 - depth, m
 2 - temperature, C
 3 - salinity, kg/kg
 4 - turbulent kinetic energy, m**2/s**2
 5 - dissipation rate, m**2/s**3
 6 - kinematic heat conductance, m**2/s
 7 - modulus of horizontal velocity, m/s
 8 - Richardson number, n/d
   -0.000000   -0.00000  0.5950E-12  0.4096E-13  0.8590E-16  0.1000E-09  0.0000E+00  0.1230E+17
   -0.037498    0.18933  0.3803E-12  0.4096E-13  0.8590E-16  0.1000E-09  0.0000E+00  0.1157E+17
   -0.074995    0.37713  0.2714E-12  0.4096E-13  0.8590E-16  0.1000E-09  0.0000E+00  0.1086E+17
   -0.112494    0.56331  0.2071E-12  0.4096E-13  0.8590E-16  0.1000E-09  0.0000E+00  0.1016E+17
   -0.149992    0.74778  0.1631E-12  0.1088E-12  0.8590E-16  0.1000E-09  0.0000E+00  0.9476E+16
   -0.187491    0.93042  0.1327E-12  0.3418E-12  0.9357E-16  0.1000E-09  0.0000E+00  0.8807E+16
   -0.224990    1.11110  0.1132E-12  0.7580E-12  0.1478E-15  0.1000E-09  0.0000E+00  0.8154E+16
   -0.262490    1.28971  0.1018E-12  0.1464E-11  0.2541E-15  0.1000E-09  0.0000E+00  0.7521E+16
   -0.299989    1.46619  0.9568E-13  0.2666E-11  0.4406E-15  0.1000E-09  0.0000E+00  0.6907E+16
   -0.337489    1.64043  0.9266E-13  0.4729E-11  0.7596E-15  0.1000E-09  0.0000E+00  0.6310E+16
   -0.374989    1.81232  0.9117E-13  0.8277E-11  0.1301E-14  0.1000E-09  0.0000E+00  0.5754E+16
   -0.412490    1.98235  0.9033E-13  0.1437E-10  0.2216E-14  0.1000E-09  0.0000E+00  0.5224E+16
   -0.449990    2.15080  0.8968E-13  0.2480E-10  0.3755E-14  0.1000E-09  0.0000E+00  0.4708E+16
   -0.487491    2.31760  0.8900E-13  0.4259E-10  0.6334E-14  0.1000E-09  0.0000E+00  0.4206E+16
   -0.524991    2.48265  0.8821E-13  0.7258E-10  0.1061E-13  0.1000E-09  0.0000E+00  0.3719E+16
   -0.562492    2.64586  0.8731E-13  0.1229E-09  0.1764E-13  0.1000E-09  0.0000E+00  0.3248E+16
   -0.599993    2.80718  0.8633E-13  0.2069E-09  0.2920E-13  0.1000E-09  0.0000E+00  0.2793E+16
   -0.637494    2.96656  0.8536E-13  0.3469E-09  0.4812E-13  0.1000E-09  0.0000E+00  0.2355E+16
   -0.674995    3.12394  0.8451E-13  0.5790E-09  0.7894E-13  0.1133E-09  0.0000E+00  0.1934E+16
   -0.712496    3.27929  0.8385E-13  0.9622E-09  0.1290E-12  0.2343E-09  0.0000E+00  0.1528E+16
   -0.749998    3.43245  0.8343E-13  0.1592E-08  0.2098E-12  0.5100E-09  0.0000E+00  0.1142E+16
   -0.787499    3.58377  0.8320E-13  0.2622E-08  0.3399E-12  0.1225E-08  0.0000E+00  0.7704E+15
   -0.825000    3.73295  0.8310E-13  0.4295E-08  0.5477E-12  0.3686E-08  0.0000E+00  0.4125E+15
   -0.862501    3.87824  0.8307E-13  0.6933E-08  0.8711E-12  0.2700E-07  0.0000E+00  0.8960E+14
   -0.900002    4.00229  0.8307E-13  0.7633E-08  0.9631E-12  0.2281E-04  0.0000E+00 -0.2331E+12
   -0.937503    4.00320  0.8307E-13  0.7952E-08  0.1013E-11  0.2496E-04  0.0000E+00 -0.2247E+12
   -0.975004    4.00403  0.8307E-13  0.8212E-08  0.1063E-11  0.2541E-04  0.0000E+00 -0.2316E+12
   -1.012504    4.00484  0.8307E-13  0.8426E-08  0.1115E-11  0.2550E-04  0.0000E+00 -0.2425E+12
   -1.050005    4.00566  0.8307E-13  0.8604E-08  0.1171E-11  0.2533E-04  0.0000E+00 -0.2564E+12
   -1.087505    4.00649  0.8307E-13  0.8746E-08  0.1233E-11  0.2489E-04  0.0000E+00 -0.2738E+12
   -1.125006    4.00734  0.8307E-13  0.8852E-08  0.1306E-11  0.2389E-04  0.0000E+00 -0.2994E+12
   -1.162506    4.00823  0.8307E-13  0.8914E-08  0.1392E-11  0.2176E-04  0.0000E+00 -0.3455E+12
   -1.200006    4.00921  0.8307E-13  0.8922E-08  0.1495E-11  0.1928E-04  0.0000E+00 -0.4110E+12
   -1.237505    4.01033  0.8307E-13  0.8862E-08  0.1623E-11  0.1687E-04  0.0000E+00 -0.4976E+12
   -1.275005    4.01162  0.8307E-13  0.8714E-08  0.1785E-11  0.1443E-04  0.0000E+00 -0.6202E+12
   -1.312504    4.01314  0.8307E-13  0.8446E-08  0.2004E-11  0.1172E-04  0.0000E+00 -0.8195E+12
   -1.350003    4.01502  0.8307E-13  0.8004E-08  0.2324E-11  0.8712E-05  0.0000E+00 -0.1199E+13
   -1.387501    4.01758  0.8307E-13  0.7273E-08  0.2866E-11  0.5482E-05  0.0000E+00 -0.2123E+13
   -1.425000    4.02165  0.8307E-13  0.5988E-08  0.4050E-11  0.2366E-05  0.0000E+00 -0.5789E+13
   -1.462498    4.03090  0.8307E-13  0.3697E-08  0.8157E-11  0.3615E-06  0.0000E+00 -0.4983E+14
   -1.499995    4.07772  0.8307E-13  0.0000E+00  0.0000E+00  0.0000E+00  0.0000E+00  0.0000E+00
