 1 - depth, m
 2 - temperature, C
 3 - salinity, kg/kg
 4 - turbulent kinetic energy, m**2/s**2
 5 - dissipation rate, m**2/s**3
 6 - kinematic heat conductance, m**2/s
 7 - modulus of horizontal velocity, m/s
 8 - Richardson number, n/d
   -0.000000   15.86615  0.9101E-13  0.1944E-03  0.1818E-02  0.5996E-04  0.1320E+00  0.3583E+00
   -0.037498   15.95671  0.9100E-13  0.1124E-03  0.1256E-02  0.1030E-03  0.4375E-01 -0.6386E-01
   -0.074996   15.97971  0.9100E-13  0.7960E-04  0.9819E-03  0.1123E-03  0.2989E-01  0.9333E-01
   -0.112494   15.99310  0.9100E-13  0.6355E-04  0.7696E-03  0.1191E-03  0.2404E-01 -0.8631E-01
   -0.149993   16.00198  0.9100E-13  0.5237E-04  0.5901E-03  0.1315E-03  0.2022E-01 -0.5509E-01
   -0.187491   16.00881  0.9100E-13  0.4383E-04  0.4364E-03  0.1465E-03  0.1740E-01  0.4967E-01
   -0.224991   16.01435  0.9100E-13  0.3705E-04  0.3030E-03  0.1805E-03  0.1518E-01  0.4629E+02
   -0.262490   16.01886  0.9100E-13  0.3156E-04  0.1911E-03  0.2263E-03  0.1345E-01  0.4156E+02
   -0.299990   16.02255  0.9100E-13  0.2710E-04  0.1057E-03  0.2763E-03  0.1201E-01  0.2272E+03
   -0.337490   16.02572  0.9100E-13  0.2357E-04  0.4970E-04  0.3236E-03  0.1080E-01  0.3762E+02
   -0.374990   16.02834  0.9100E-13  0.2089E-04  0.1978E-04  0.3753E-03  0.9774E-02  0.2860E+02
   -0.412490   16.03066  0.9100E-13  0.1895E-04  0.6802E-05  0.4264E-03  0.8901E-02  0.1150E+03
   -0.449991   16.03256  0.9100E-13  0.1755E-04  0.2157E-05  0.4746E-03  0.8160E-02  0.1686E+03
   -0.487491   16.03420  0.9100E-13  0.1654E-04  0.7327E-06  0.5196E-03  0.7531E-02  0.7745E+02
   -0.524992   16.03548  0.9100E-13  0.1579E-04  0.3073E-06  0.5469E-03  0.7000E-02  0.1035E+02
   -0.562493   16.03677  0.9100E-13  0.1522E-04  0.1777E-06  0.5715E-03  0.6486E-02  0.6830E+02
   -0.599994   16.03782  0.9100E-13  0.1476E-04  0.1245E-06  0.5976E-03  0.6006E-02  0.1303E+02
   -0.637495   16.03895  0.9100E-13  0.1438E-04  0.9896E-07  0.6234E-03  0.5551E-02  0.4879E+02
   -0.674996   16.03990  0.9100E-13  0.1403E-04  0.8317E-07  0.6440E-03  0.5122E-02  0.7194E+02
   -0.712497   16.04090  0.9100E-13  0.1371E-04  0.7166E-07  0.6685E-03  0.4705E-02  0.1553E+02
   -0.749999   16.04181  0.9100E-13  0.1338E-04  0.6320E-07  0.6870E-03  0.4311E-02  0.1323E+02
   -0.787500   16.04272  0.9100E-13  0.1303E-04  0.5647E-07  0.7076E-03  0.3933E-02  0.1575E+02
   -0.825001   16.04359  0.9100E-13  0.1266E-04  0.5098E-07  0.7211E-03  0.3573E-02  0.2368E+02
   -0.862502   16.04445  0.9100E-13  0.1228E-04  0.4669E-07  0.7496E-03  0.3233E-02  0.7446E+01
   -0.900003   16.04528  0.9100E-13  0.1187E-04  0.4320E-07  0.7562E-03  0.2932E-02  0.9170E+01
   -0.937504   16.04612  0.9100E-13  0.1143E-04  0.4030E-07  0.7473E-03  0.2634E-02  0.8934E+01
   -0.975005   16.04697  0.9100E-13  0.1110E-04  0.3820E-07  0.1032E-02  0.2347E-02  0.1556E+02
   -1.012506   16.04756  0.9100E-13  0.1079E-04  0.3647E-07  0.9374E-03  0.2190E-02  0.5992E+01
   -1.050006   16.04825  0.9100E-13  0.1037E-04  0.3472E-07  0.7080E-03  0.2017E-02  0.5208E+01
   -1.087507   16.04911  0.9100E-13  0.9769E-05  0.3325E-07  0.6985E-03  0.1780E-02  0.4987E+01
   -1.125007   16.05002  0.9100E-13  0.9188E-05  0.3225E-07  0.6692E-03  0.1583E-02  0.2030E+01
   -1.162507   16.05095  0.9100E-13  0.8630E-05  0.3173E-07  0.6216E-03  0.1422E-02  0.1699E+01
   -1.200007   16.05194  0.9100E-13  0.8094E-05  0.3162E-07  0.5637E-03  0.1289E-02  0.1432E+01
   -1.237507   16.05304  0.9100E-13  0.7576E-05  0.3194E-07  0.5125E-03  0.1174E-02  0.1402E+01
   -1.275006   16.05426  0.9100E-13  0.7086E-05  0.3292E-07  0.4526E-03  0.1083E-02  0.1770E+01
   -1.312506   16.05564  0.9100E-13  0.6592E-05  0.3496E-07  0.3901E-03  0.1010E-02  0.4698E+01
   -1.350005   16.05728  0.9100E-13  0.6039E-05  0.3900E-07  0.3017E-03  0.9491E-03  0.1094E+02
   -1.387503   16.05949  0.9100E-13  0.5382E-05  0.4670E-07  0.2582E-03  0.8922E-03  0.4454E+02
   -1.425001   16.06203  0.9100E-13  0.4415E-05  0.7066E-07  0.1194E-03  0.8471E-03  0.2511E+04
   -1.462499   16.07162  0.9100E-13  0.2564E-05  0.1572E-06  0.3452E-04  0.7829E-03 -0.1019E+05
   -1.499997   16.09312  0.9100E-13  0.0000E+00  0.0000E+00  0.0000E+00  0.7980E-03  0.0000E+00
