 1 - depth, m
 2 - temperature, C
 3 - salinity, kg/kg
 4 - turbulent kinetic energy, m**2/s**2
 5 - dissipation rate, m**2/s**3
 6 - kinematic heat conductance, m**2/s
 7 - modulus of horizontal velocity, m/s
 8 - Richardson number, n/d
   -0.000000   15.09485  0.1010E-12  0.5982E-03  0.2144E-02  0.1058E-03  0.3292E+00 -0.4676E-02
   -0.037498   15.19530  0.1010E-12  0.3163E-03  0.9627E-03  0.1478E-03  0.1033E+00 -0.2596E-01
   -0.074996   15.23405  0.1010E-12  0.2074E-03  0.3608E-03  0.2008E-03  0.6190E-01  0.7876E-01
   -0.112494   15.24996  0.1010E-12  0.1601E-03  0.2210E-03  0.2083E-03  0.4889E-01 -0.8521E-01
   -0.149992   15.25792  0.1010E-12  0.1302E-03  0.1451E-03  0.2121E-03  0.4143E-01 -0.1071E-01
   -0.187491   15.26325  0.1010E-12  0.1077E-03  0.9486E-04  0.2183E-03  0.3622E-01 -0.2611E-01
   -0.224990   15.26739  0.1010E-12  0.9112E-04  0.6203E-04  0.2290E-03  0.3216E-01  0.3913E-01
   -0.262490   15.27076  0.1010E-12  0.7851E-04  0.3991E-04  0.2395E-03  0.2911E-01  0.1404E+00
   -0.299990   15.27380  0.1010E-12  0.6851E-04  0.2515E-04  0.2533E-03  0.2644E-01  0.2894E+02
   -0.337489   15.27648  0.1010E-12  0.6057E-04  0.1554E-04  0.2675E-03  0.2410E-01  0.6032E+00
   -0.374990   15.27899  0.1010E-12  0.5415E-04  0.9484E-05  0.2894E-03  0.2205E-01  0.1501E+02
   -0.412490   15.28123  0.1010E-12  0.4891E-04  0.5770E-05  0.3163E-03  0.2029E-01  0.5835E+02
   -0.449990   15.28333  0.1010E-12  0.4463E-04  0.3545E-05  0.3522E-03  0.1882E-01  0.1183E+02
   -0.487491   15.28510  0.1010E-12  0.4116E-04  0.2234E-05  0.3978E-03  0.1764E-01  0.1637E+02
   -0.524992   15.28669  0.1010E-12  0.3837E-04  0.1464E-05  0.4384E-03  0.1673E-01  0.1680E+02
   -0.562493   15.28819  0.1010E-12  0.3607E-04  0.1008E-05  0.4770E-03  0.1576E-01  0.3770E+02
   -0.599994   15.28953  0.1010E-12  0.3412E-04  0.7310E-06  0.5211E-03  0.1483E-01  0.2754E+02
   -0.637495   15.29075  0.1010E-12  0.3242E-04  0.5541E-06  0.5676E-03  0.1396E-01  0.2726E+03
   -0.674996   15.29189  0.1010E-12  0.3095E-04  0.4387E-06  0.6167E-03  0.1316E-01  0.5072E+02
   -0.712497   15.29286  0.1010E-12  0.2965E-04  0.3582E-06  0.6601E-03  0.1240E-01  0.7304E+02
   -0.749998   15.29383  0.1010E-12  0.2848E-04  0.3007E-06  0.7138E-03  0.1168E-01  0.2574E+03
   -0.787499   15.29464  0.1010E-12  0.2741E-04  0.2591E-06  0.7665E-03  0.1100E-01  0.4107E+02
   -0.825000   15.29545  0.1010E-12  0.2641E-04  0.2272E-06  0.7979E-03  0.1035E-01  0.2762E+04
   -0.862501   15.29617  0.1010E-12  0.2543E-04  0.2020E-06  0.8217E-03  0.9709E-02  0.1118E+03
   -0.900002   15.29687  0.1010E-12  0.2445E-04  0.1814E-06  0.8310E-03  0.9083E-02  0.1756E+03
   -0.937503   15.29755  0.1010E-12  0.2345E-04  0.1640E-06  0.8327E-03  0.8470E-02  0.4621E+03
   -0.975004   15.29821  0.1010E-12  0.2240E-04  0.1490E-06  0.8224E-03  0.7870E-02  0.2299E+03
   -1.012505   15.29889  0.1010E-12  0.2128E-04  0.1356E-06  0.8089E-03  0.7275E-02  0.1943E+03
   -1.050005   15.29956  0.1010E-12  0.2007E-04  0.1235E-06  0.7875E-03  0.6718E-02  0.1046E+03
   -1.087506   15.30025  0.1010E-12  0.1880E-04  0.1127E-06  0.7588E-03  0.6198E-02  0.3139E+02
   -1.125006   15.30096  0.1010E-12  0.1745E-04  0.1031E-06  0.7217E-03  0.5716E-02  0.1859E+02
   -1.162506   15.30170  0.1010E-12  0.1607E-04  0.9478E-07  0.6827E-03  0.5269E-02  0.7735E+01
   -1.200006   15.30249  0.1010E-12  0.1465E-04  0.8807E-07  0.6230E-03  0.4863E-02  0.7697E+01
   -1.237506   15.30334  0.1010E-12  0.1323E-04  0.8321E-07  0.5752E-03  0.4496E-02  0.1502E+02
   -1.275005   15.30427  0.1010E-12  0.1182E-04  0.8104E-07  0.4965E-03  0.4169E-02  0.4685E+02
   -1.312504   15.30538  0.1010E-12  0.1042E-04  0.8336E-07  0.4171E-03  0.3884E-02  0.6362E+02
   -1.350003   15.30677  0.1010E-12  0.8952E-05  0.9429E-07  0.3188E-03  0.3636E-02  0.6922E+02
   -1.387502   15.30888  0.1010E-12  0.7358E-05  0.1189E-06  0.2465E-03  0.3397E-02 -0.1347E+02
   -1.425000   15.31145  0.1010E-12  0.5493E-05  0.1918E-06  0.1284E-03  0.3176E-02  0.3390E+03
   -1.462498   15.31932  0.1010E-12  0.3185E-05  0.4129E-06  0.4446E-04  0.2907E-02 -0.3521E+04
   -1.499996   15.33763  0.1010E-12  0.0000E+00  0.0000E+00  0.0000E+00  0.2936E-02  0.0000E+00
