 1 - depth, m
 2 - temperature, C
 3 - salinity, kg/kg
 4 - turbulent kinetic energy, m**2/s**2
 5 - dissipation rate, m**2/s**3
 6 - kinematic heat conductance, m**2/s
 7 - modulus of horizontal velocity, m/s
 8 - Richardson number, n/d
   -0.000000    7.53241  0.5261E-11  0.9223E-03  0.4555E-02  0.8866E-04  0.4557E+00 -0.5846E-03
   -0.037498    7.68381  0.5260E-11  0.4829E-03  0.2386E-02  0.2102E-03  0.1413E+00 -0.1304E-03
   -0.074995    7.75254  0.5260E-11  0.3005E-03  0.4962E-03  0.2573E-03  0.8152E-01 -0.2931E-01
   -0.112494    7.78554  0.5260E-11  0.2285E-03  0.2655E-03  0.2649E-03  0.6096E-01 -0.2806E-01
   -0.149992    7.79937  0.5260E-11  0.1838E-03  0.1760E-03  0.2634E-03  0.4966E-01 -0.2525E-01
   -0.187491    7.80868  0.5260E-11  0.1517E-03  0.9801E-04  0.2654E-03  0.4249E-01 -0.2364E-01
   -0.224990    7.81541  0.5260E-11  0.1279E-03  0.5855E-04  0.2728E-03  0.3739E-01  0.3471E+00
   -0.262490    7.82014  0.5260E-11  0.1095E-03  0.3376E-04  0.2816E-03  0.3386E-01  0.5134E+00
   -0.299989    7.82457  0.5260E-11  0.9513E-04  0.1939E-04  0.2894E-03  0.3078E-01 -0.3130E+01
   -0.337489    7.82863  0.5260E-11  0.8363E-04  0.1140E-04  0.3019E-03  0.2809E-01  0.5458E+00
   -0.374989    7.83239  0.5260E-11  0.7435E-04  0.7017E-05  0.3158E-03  0.2576E-01  0.3891E+01
   -0.412490    7.83566  0.5259E-11  0.6677E-04  0.4498E-05  0.3330E-03  0.2381E-01  0.2903E+01
   -0.449990    7.83899  0.5259E-11  0.6055E-04  0.3006E-05  0.3517E-03  0.2217E-01  0.1708E+02
   -0.487491    7.84162  0.5259E-11  0.5549E-04  0.2097E-05  0.3720E-03  0.2086E-01  0.3702E+01
   -0.524991    7.84397  0.5259E-11  0.5137E-04  0.1525E-05  0.3883E-03  0.1983E-01  0.5999E+01
   -0.562492    7.84632  0.5259E-11  0.4790E-04  0.1149E-05  0.4074E-03  0.1873E-01  0.4907E+01
   -0.599993    7.84861  0.5259E-11  0.4491E-04  0.8959E-06  0.4265E-03  0.1766E-01  0.3276E+03
   -0.637494    7.85073  0.5259E-11  0.4230E-04  0.7206E-06  0.4459E-03  0.1667E-01  0.6745E+01
   -0.674995    7.85281  0.5259E-11  0.4000E-04  0.5957E-06  0.4673E-03  0.1574E-01  0.5269E+01
   -0.712496    7.85475  0.5259E-11  0.3795E-04  0.5038E-06  0.4934E-03  0.1488E-01  0.2057E+03
   -0.749997    7.85658  0.5259E-11  0.3609E-04  0.4339E-06  0.5234E-03  0.1407E-01  0.1099E+02
   -0.787498    7.85831  0.5259E-11  0.3439E-04  0.3790E-06  0.5542E-03  0.1331E-01  0.2002E+02
   -0.825000    7.85995  0.5259E-11  0.3281E-04  0.3344E-06  0.5793E-03  0.1259E-01  0.2471E+02
   -0.862501    7.86151  0.5259E-11  0.3131E-04  0.2974E-06  0.6051E-03  0.1190E-01  0.1319E+02
   -0.900002    7.86301  0.5259E-11  0.2988E-04  0.2662E-06  0.6340E-03  0.1123E-01  0.6250E+02
   -0.937503    7.86445  0.5259E-11  0.2849E-04  0.2393E-06  0.6672E-03  0.1059E-01  0.2296E+03
   -0.975003    7.86584  0.5259E-11  0.2710E-04  0.2159E-06  0.6912E-03  0.9951E-02  0.1841E+03
   -1.012504    7.86718  0.5259E-11  0.2568E-04  0.1951E-06  0.7140E-03  0.9322E-02  0.6532E+02
   -1.050005    7.86847  0.5259E-11  0.2424E-04  0.1765E-06  0.7226E-03  0.8732E-02  0.3874E+02
   -1.087505    7.86974  0.5259E-11  0.2278E-04  0.1600E-06  0.7220E-03  0.8181E-02  0.2154E+02
   -1.125005    7.87099  0.5259E-11  0.2129E-04  0.1454E-06  0.7119E-03  0.7667E-02  0.1980E+02
   -1.162506    7.87227  0.5259E-11  0.1977E-04  0.1324E-06  0.6925E-03  0.7185E-02  0.1208E+02
   -1.200005    7.87359  0.5259E-11  0.1822E-04  0.1213E-06  0.6583E-03  0.6735E-02  0.1318E+02
   -1.237505    7.87499  0.5259E-11  0.1664E-04  0.1122E-06  0.6075E-03  0.6317E-02  0.1469E+02
   -1.275004    7.87653  0.5259E-11  0.1505E-04  0.1053E-06  0.5414E-03  0.5934E-02  0.7956E+02
   -1.312504    7.87829  0.5259E-11  0.1346E-04  0.1016E-06  0.4553E-03  0.5590E-02  0.5650E+02
   -1.350002    7.88045  0.5259E-11  0.1187E-04  0.1030E-06  0.3535E-03  0.5288E-02  0.6829E+02
   -1.387501    7.88336  0.5259E-11  0.1016E-04  0.1134E-06  0.2558E-03  0.5021E-02  0.4442E+02
   -1.424999    7.88740  0.5259E-11  0.8042E-05  0.1495E-06  0.1400E-03  0.4776E-02  0.4444E+03
   -1.462497    7.89551  0.5259E-11  0.4359E-05  0.3220E-06  0.2682E-04  0.4509E-02 -0.3918E+04
   -1.499995    7.94109  0.5259E-11  0.0000E+00  0.0000E+00  0.0000E+00  0.4319E-02  0.0000E+00
