 1 - depth, m
 2 - temperature, C
 3 - salinity, kg/kg
 4 - turbulent kinetic energy, m**2/s**2
 5 - dissipation rate, m**2/s**3
 6 - kinematic heat conductance, m**2/s
 7 - modulus of horizontal velocity, m/s
 8 - Richardson number, n/d
   -0.000000   -0.00000  0.4014E-09  0.3623E-10  0.2437E-13  0.1000E-09  0.0000E+00  0.2469E+17
   -0.037497    0.39078  0.0000E+00  0.8246E-10  0.2238E-13  0.1000E-09  0.0000E+00  0.2121E+17
   -0.074995    0.76661  0.9628E-13  0.1726E-09  0.3128E-13  0.1000E-09  0.0000E+00  0.1809E+17
   -0.112492    1.12831  0.7805E-13  0.3251E-09  0.5061E-13  0.1000E-09  0.0000E+00  0.1530E+17
   -0.149991    1.47667  0.8202E-13  0.5792E-09  0.8466E-13  0.1000E-09  0.0000E+00  0.1279E+17
   -0.187489    1.81245  0.8115E-13  0.1004E-08  0.1419E-12  0.1000E-09  0.0000E+00  0.1055E+17
   -0.224988    2.13645  0.8135E-13  0.1714E-08  0.2370E-12  0.1025E-09  0.0000E+00  0.8532E+16
   -0.262487    2.44950  0.8130E-13  0.2900E-08  0.3934E-12  0.1623E-09  0.0000E+00  0.6724E+16
   -0.299986    2.75257  0.8131E-13  0.4872E-08  0.6493E-12  0.3533E-09  0.0000E+00  0.5097E+16
   -0.337485    3.04687  0.8131E-13  0.8140E-08  0.1066E-11  0.8146E-09  0.0000E+00  0.3627E+16
   -0.374985    3.33431  0.8131E-13  0.1352E-07  0.1742E-11  0.2118E-08  0.0000E+00  0.2281E+16
   -0.412485    3.61846  0.8131E-13  0.2229E-07  0.2824E-11  0.8573E-08  0.0000E+00  0.9816E+15
   -0.449985    3.89552  0.8131E-13  0.3132E-07  0.3945E-11  0.1915E-04  0.0000E+00  0.8382E+14
   -0.487485    4.02130  0.8131E-13  0.3197E-07  0.4033E-11  0.8863E-04  0.0000E+00 -0.2604E+12
   -0.524985    4.02178  0.8131E-13  0.3230E-07  0.4086E-11  0.8693E-04  0.0000E+00 -0.2677E+12
   -0.562486    4.02227  0.8131E-13  0.3260E-07  0.4141E-11  0.8720E-04  0.0000E+00 -0.2688E+12
   -0.599986    4.02275  0.8131E-13  0.3285E-07  0.4200E-11  0.8734E-04  0.0000E+00 -0.2706E+12
   -0.637487    4.02323  0.8131E-13  0.3307E-07  0.4261E-11  0.8726E-04  0.0000E+00 -0.2731E+12
   -0.674988    4.02370  0.8131E-13  0.3325E-07  0.4326E-11  0.8695E-04  0.0000E+00 -0.2763E+12
   -0.712488    4.02418  0.8131E-13  0.3339E-07  0.4395E-11  0.8642E-04  0.0000E+00 -0.2803E+12
   -0.749989    4.02465  0.8131E-13  0.3350E-07  0.4469E-11  0.8565E-04  0.0000E+00 -0.2849E+12
   -0.787490    4.02513  0.8131E-13  0.3356E-07  0.4547E-11  0.8466E-04  0.0000E+00 -0.2903E+12
   -0.824990    4.02561  0.8131E-13  0.3359E-07  0.4631E-11  0.8344E-04  0.0000E+00 -0.2968E+12
   -0.862491    4.02609  0.8131E-13  0.3358E-07  0.4722E-11  0.8199E-04  0.0000E+00 -0.3044E+12
   -0.899992    4.02658  0.8131E-13  0.3352E-07  0.4820E-11  0.8030E-04  0.0000E+00 -0.3132E+12
   -0.937492    4.02708  0.8131E-13  0.3342E-07  0.4928E-11  0.7837E-04  0.0000E+00 -0.3236E+12
   -0.974992    4.02758  0.8131E-13  0.3328E-07  0.5046E-11  0.7619E-04  0.0000E+00 -0.3356E+12
   -1.012493    4.02810  0.8131E-13  0.3309E-07  0.5178E-11  0.7374E-04  0.0000E+00 -0.3506E+12
   -1.049993    4.02864  0.8131E-13  0.3285E-07  0.5327E-11  0.7099E-04  0.0000E+00 -0.3687E+12
   -1.087493    4.02919  0.8131E-13  0.3254E-07  0.5497E-11  0.6793E-04  0.0000E+00 -0.3902E+12
   -1.124993    4.02977  0.8131E-13  0.3217E-07  0.5693E-11  0.6455E-04  0.0000E+00 -0.4159E+12
   -1.162492    4.03038  0.8131E-13  0.3172E-07  0.5923E-11  0.6080E-04  0.0000E+00 -0.4474E+12
   -1.199992    4.03103  0.8131E-13  0.3118E-07  0.6195E-11  0.5667E-04  0.0000E+00 -0.4869E+12
   -1.237491    4.03172  0.8131E-13  0.3055E-07  0.6524E-11  0.5214E-04  0.0000E+00 -0.5375E+12
   -1.274990    4.03247  0.8131E-13  0.2977E-07  0.6939E-11  0.4730E-04  0.0000E+00 -0.6024E+12
   -1.312489    4.03330  0.8131E-13  0.2869E-07  0.7556E-11  0.3677E-04  0.0000E+00 -0.7885E+12
   -1.349987    4.03436  0.8131E-13  0.2703E-07  0.8605E-11  0.2366E-04  0.0000E+00 -0.1260E+13
   -1.387485    4.03602  0.8131E-13  0.2460E-07  0.1044E-10  0.1448E-04  0.0000E+00 -0.2145E+13
   -1.424983    4.03871  0.8131E-13  0.2065E-07  0.1446E-10  0.6489E-05  0.0000E+00 -0.5138E+13
   -1.462481    4.04465  0.8131E-13  0.1191E-07  0.3146E-10  0.7967E-06  0.0000E+00 -0.5208E+14
   -1.499978    4.08663  0.8131E-13  0.0000E+00  0.0000E+00  0.0000E+00  0.0000E+00  0.0000E+00
