 1 - depth, m
 2 - temperature, C
 3 - salinity, kg/kg
 4 - turbulent kinetic energy, m**2/s**2
 5 - dissipation rate, m**2/s**3
 6 - kinematic heat conductance, m**2/s
 7 - modulus of horizontal velocity, m/s
 8 - Richardson number, n/d
   -0.000000   14.42588  0.1012E-12  0.8002E-03  0.4054E-02  0.1088E-03  0.4106E+00 -0.3484E-01
   -0.037498   14.56989  0.1012E-12  0.4165E-03  0.1936E-02  0.1522E-03  0.1298E+00  0.1045E-01
   -0.074996   14.64133  0.1012E-12  0.2620E-03  0.6155E-03  0.2216E-03  0.7448E-01  0.1701E-02
   -0.112494   14.66393  0.1012E-12  0.1997E-03  0.3501E-03  0.2335E-03  0.5666E-01 -0.7996E-01
   -0.149993   14.67538  0.1012E-12  0.1608E-03  0.2167E-03  0.2349E-03  0.4690E-01 -0.2906E-01
   -0.187492   14.68393  0.1012E-12  0.1322E-03  0.1376E-03  0.2401E-03  0.4010E-01  0.4594E-01
   -0.224991   14.68980  0.1012E-12  0.1107E-03  0.8760E-04  0.2540E-03  0.3538E-01 -0.1481E+00
   -0.262490   14.69391  0.1012E-12  0.9460E-04  0.5534E-04  0.2646E-03  0.3206E-01  0.7703E+00
   -0.299990   14.69736  0.1012E-12  0.8205E-04  0.3457E-04  0.2774E-03  0.2912E-01  0.1163E+02
   -0.337490   14.70083  0.1012E-12  0.7210E-04  0.2075E-04  0.2934E-03  0.2654E-01  0.1019E+02
   -0.374990   14.70369  0.1012E-12  0.6405E-04  0.1215E-04  0.3128E-03  0.2429E-01  0.1418E+02
   -0.412491   14.70691  0.1012E-12  0.5756E-04  0.7182E-05  0.3446E-03  0.2239E-01  0.5786E+00
   -0.449991   14.70919  0.1012E-12  0.5226E-04  0.4266E-05  0.3772E-03  0.2081E-01  0.1079E+03
   -0.487492   14.71171  0.1012E-12  0.4798E-04  0.2614E-05  0.4112E-03  0.1955E-01  0.1547E+03
   -0.524993   14.71359  0.1012E-12  0.4456E-04  0.1693E-05  0.4414E-03  0.1860E-01  0.1629E+02
   -0.562493   14.71554  0.1012E-12  0.4175E-04  0.1162E-05  0.4840E-03  0.1753E-01  0.1807E+02
   -0.599994   14.71741  0.1012E-12  0.3942E-04  0.8351E-06  0.5312E-03  0.1650E-01  0.7311E+02
   -0.637496   14.71914  0.1012E-12  0.3734E-04  0.6341E-06  0.5886E-03  0.1547E-01  0.5304E+02
   -0.674997   14.72067  0.1012E-12  0.3554E-04  0.5025E-06  0.6496E-03  0.1458E-01  0.1882E+03
   -0.712498   14.72181  0.1012E-12  0.3396E-04  0.4149E-06  0.7107E-03  0.1375E-01  0.2256E+03
   -0.749999   14.72293  0.1012E-12  0.3253E-04  0.3541E-06  0.7592E-03  0.1296E-01  0.9886E+02
   -0.787500   14.72392  0.1012E-12  0.3121E-04  0.3086E-06  0.7990E-03  0.1221E-01  0.4154E+03
   -0.825002   14.72480  0.1012E-12  0.2997E-04  0.2726E-06  0.8299E-03  0.1150E-01  0.2635E+03
   -0.862503   14.72562  0.1012E-12  0.2877E-04  0.2430E-06  0.8394E-03  0.1081E-01  0.7704E+02
   -0.900004   14.72637  0.1012E-12  0.2756E-04  0.2181E-06  0.8594E-03  0.1013E-01  0.1585E+03
   -0.937505   14.72707  0.1012E-12  0.2635E-04  0.1968E-06  0.8676E-03  0.9486E-02  0.2628E+03
   -0.975006   14.72773  0.1012E-12  0.2511E-04  0.1782E-06  0.8494E-03  0.8854E-02  0.2575E+03
   -1.012506   14.72837  0.1012E-12  0.2378E-04  0.1614E-06  0.8386E-03  0.8213E-02  0.3609E+03
   -1.050007   14.72900  0.1012E-12  0.2239E-04  0.1461E-06  0.8191E-03  0.7616E-02  0.9484E+02
   -1.087508   14.72963  0.1012E-12  0.2093E-04  0.1324E-06  0.7925E-03  0.7056E-02  0.3607E+02
   -1.125008   14.73026  0.1012E-12  0.1941E-04  0.1201E-06  0.7573E-03  0.6536E-02  0.1900E+02
   -1.162508   14.73090  0.1012E-12  0.1784E-04  0.1094E-06  0.7145E-03  0.6051E-02  0.7860E+01
   -1.200008   14.73157  0.1012E-12  0.1624E-04  0.1003E-06  0.6650E-03  0.5604E-02  0.7195E+01
   -1.237508   14.73227  0.1012E-12  0.1462E-04  0.9339E-07  0.6055E-03  0.5195E-02  0.1371E+02
   -1.275007   14.73304  0.1012E-12  0.1300E-04  0.8939E-07  0.5329E-03  0.4826E-02  0.2000E+02
   -1.312507   14.73393  0.1012E-12  0.1141E-04  0.9029E-07  0.4548E-03  0.4500E-02  0.3447E+02
   -1.350006   14.73502  0.1012E-12  0.9777E-05  0.9962E-07  0.3494E-03  0.4218E-02  0.6586E+02
   -1.387504   14.73664  0.1012E-12  0.8056E-05  0.1224E-06  0.2545E-03  0.3955E-02  0.6491E+02
   -1.425003   14.73863  0.1012E-12  0.6063E-05  0.1941E-06  0.1328E-03  0.3712E-02  0.2003E+03
   -1.462501   14.74347  0.1012E-12  0.3429E-05  0.4167E-06  0.3891E-04  0.3428E-02 -0.1199E+04
   -1.499998   14.75950  0.1012E-12  0.0000E+00  0.0000E+00  0.0000E+00  0.3435E-02  0.0000E+00
