 1 - depth, m
 2 - temperature, C
 3 - salinity, kg/kg
 4 - turbulent kinetic energy, m**2/s**2
 5 - dissipation rate, m**2/s**3
 6 - kinematic heat conductance, m**2/s
 7 - modulus of horizontal velocity, m/s
 8 - Richardson number, n/d
   -0.000000    0.05485  0.8103E-13  0.3736E-03  0.6990E-03  0.7521E-04  0.2338E+00  0.2280E-02
   -0.037498    0.06675  0.8105E-13  0.2104E-03  0.1738E-03  0.1329E-03  0.7782E-01 -0.5608E-02
   -0.074996    0.07305  0.8108E-13  0.1477E-03  0.7141E-04  0.1594E-03  0.5134E-01 -0.4708E-01
   -0.112495    0.07723  0.8109E-13  0.1143E-03  0.3931E-04  0.1599E-03  0.4133E-01  0.6910E-02
   -0.149994    0.08040  0.8110E-13  0.9339E-04  0.2482E-04  0.1610E-03  0.3528E-01  0.1176E-01
   -0.187494    0.08319  0.8111E-13  0.7734E-04  0.1646E-04  0.1663E-03  0.3052E-01  0.1328E-01
   -0.224993    0.08573  0.8111E-13  0.6554E-04  0.1127E-04  0.1667E-03  0.2721E-01  0.4342E-01
   -0.262493    0.08812  0.8112E-13  0.5631E-04  0.7712E-05  0.1686E-03  0.2461E-01  0.2333E-01
   -0.299993    0.09046  0.8112E-13  0.4872E-04  0.5181E-05  0.1697E-03  0.2233E-01  0.3181E-01
   -0.337494    0.09282  0.8113E-13  0.4241E-04  0.3418E-05  0.1704E-03  0.2031E-01  0.4901E-01
   -0.374994    0.09522  0.8113E-13  0.3712E-04  0.2231E-05  0.1700E-03  0.1856E-01  0.8777E-01
   -0.412495    0.09770  0.8114E-13  0.3265E-04  0.1465E-05  0.1687E-03  0.1705E-01  0.4922E+00
   -0.449996    0.10029  0.8114E-13  0.2891E-04  0.9899E-06  0.1675E-03  0.1576E-01  0.2055E+01
   -0.487497    0.10298  0.8115E-13  0.2585E-04  0.7009E-06  0.1656E-03  0.1470E-01  0.1755E+01
   -0.524999    0.10573  0.8115E-13  0.2341E-04  0.5254E-06  0.1594E-03  0.1385E-01  0.3942E+01
   -0.562500    0.10865  0.8116E-13  0.2143E-04  0.4135E-06  0.1446E-03  0.1299E-01  0.5992E+01
   -0.600001    0.11204  0.8116E-13  0.1927E-04  0.3246E-06  0.1460E-03  0.1185E-01  0.1087E+01
   -0.637503    0.11542  0.8116E-13  0.1752E-04  0.2650E-06  0.1381E-03  0.1106E-01  0.7738E+00
   -0.675004    0.11913  0.8117E-13  0.1596E-04  0.2205E-06  0.1297E-03  0.1032E-01  0.9129E+00
   -0.712506    0.12322  0.8117E-13  0.1456E-04  0.1862E-06  0.1206E-03  0.9617E-02  0.1407E+01
   -0.750008    0.12775  0.8118E-13  0.1329E-04  0.1590E-06  0.1108E-03  0.8952E-02  0.2590E+01
   -0.787509    0.13286  0.8118E-13  0.1211E-04  0.1371E-06  0.1006E-03  0.8318E-02  0.5865E+01
   -0.825011    0.13908  0.8118E-13  0.1103E-04  0.1191E-06  0.8991E-04  0.7706E-02  0.1597E+02
   -0.862513    0.14871  0.8119E-13  0.1001E-04  0.1041E-06  0.7938E-04  0.7096E-02  0.4243E+02
   -0.900014    0.18056  0.8119E-13  0.9037E-05  0.9129E-07  0.6990E-04  0.6417E-02  0.1159E+03
   -0.937516    0.27623  0.8117E-13  0.8137E-05  0.8041E-07  0.6126E-04  0.5675E-02  0.4586E+03
   -0.975017    0.44608  0.8110E-13  0.7290E-05  0.7085E-07  0.5184E-04  0.4926E-02  0.2019E+04
   -1.012518    0.66775  0.8105E-13  0.6393E-05  0.6116E-07  0.4592E-04  0.4086E-02  0.2773E+05
   -1.050019    0.98711  0.8104E-13  0.5566E-05  0.5263E-07  0.3988E-04  0.3408E-02  0.4740E+06
   -1.087520    1.37528  0.8105E-13  0.4786E-05  0.4484E-07  0.3409E-04  0.2846E-02  0.7707E+07
   -1.125021    1.88764  0.8109E-13  0.4087E-05  0.3802E-07  0.2888E-04  0.2357E-02  0.1005E+09
   -1.162522    2.50518  0.8116E-13  0.3450E-05  0.3191E-07  0.2459E-04  0.1922E-02  0.5515E+09
   -1.200022    3.18607  0.8126E-13  0.2919E-05  0.2696E-07  0.3407E-04  0.1551E-02 -0.1462E+09
   -1.237522    3.46314  0.8133E-13  0.2442E-05  0.2250E-07  0.3468E-04  0.1271E-02 -0.8596E+09
   -1.275022    3.58014  0.8136E-13  0.2017E-05  0.1837E-07  0.3204E-04  0.1061E-02 -0.2355E+10
   -1.312522    3.65814  0.8137E-13  0.1649E-05  0.1508E-07  0.2905E-04  0.8998E-03 -0.6598E+10
   -1.350021    3.69118  0.8138E-13  0.1310E-05  0.1236E-07  0.2353E-04  0.7582E-03 -0.2185E+11
   -1.387520    3.72438  0.8139E-13  0.1000E-05  0.1043E-07  0.1706E-04  0.6402E-03 -0.8791E+11
   -1.425019    3.75863  0.8140E-13  0.6966E-06  0.9884E-08  0.9735E-05  0.5451E-03 -0.6541E+12
   -1.462517    3.80450  0.8141E-13  0.3118E-06  0.1680E-07  0.2061E-05  0.4721E-03 -0.3259E+14
   -1.500015    3.93479  0.8142E-13  0.0000E+00  0.0000E+00  0.0000E+00  0.4665E-03  0.0000E+00
