 1 - depth, m
 2 - temperature, C
 3 - salinity, kg/kg
 4 - turbulent kinetic energy, m**2/s**2
 5 - dissipation rate, m**2/s**3
 6 - kinematic heat conductance, m**2/s
 7 - modulus of horizontal velocity, m/s
 8 - Richardson number, n/d
   -0.000000   12.02655  0.8977E-13  0.6157E-03  0.1918E-02  0.9374E-04  0.3301E+00 -0.4855E-02
   -0.037498   12.09097  0.8978E-13  0.3176E-03  0.8507E-03  0.1594E-03  0.1002E+00 -0.2042E-01
   -0.074996   12.11074  0.8979E-13  0.2092E-03  0.3057E-03  0.2143E-03  0.6069E-01 -0.2684E-01
   -0.112495   12.12015  0.8979E-13  0.1603E-03  0.1621E-03  0.2151E-03  0.4789E-01 -0.4783E-01
   -0.149994   12.12529  0.8979E-13  0.1304E-03  0.1004E-03  0.2152E-03  0.4070E-01 -0.2283E-01
   -0.187494   12.12891  0.8979E-13  0.1081E-03  0.6550E-04  0.2168E-03  0.3555E-01 -0.1655E-01
   -0.224993   12.13178  0.8979E-13  0.9069E-04  0.4242E-04  0.2243E-03  0.3152E-01  0.2866E-01
   -0.262493   12.13410  0.8980E-13  0.7776E-04  0.2741E-04  0.2305E-03  0.2850E-01  0.2969E-01
   -0.299993   12.13620  0.8980E-13  0.6741E-04  0.1754E-04  0.2395E-03  0.2585E-01  0.1071E+00
   -0.337494   12.13811  0.8980E-13  0.5913E-04  0.1118E-04  0.2495E-03  0.2353E-01  0.5492E+02
   -0.374994   12.13998  0.8980E-13  0.5239E-04  0.7142E-05  0.2645E-03  0.2149E-01  0.8458E+00
   -0.412495   12.14165  0.8980E-13  0.4693E-04  0.4598E-05  0.2788E-03  0.1975E-01  0.2242E+00
   -0.449996   12.14317  0.8980E-13  0.4243E-04  0.2991E-05  0.2933E-03  0.1827E-01  0.1018E+01
   -0.487497   12.14458  0.8980E-13  0.3873E-04  0.1973E-05  0.3092E-03  0.1704E-01  0.3383E+00
   -0.524998   12.14588  0.8980E-13  0.3575E-04  0.1330E-05  0.3205E-03  0.1605E-01  0.2513E+01
   -0.562499   12.14713  0.8980E-13  0.3324E-04  0.9211E-06  0.3351E-03  0.1503E-01  0.1364E+02
   -0.600001   12.14833  0.8980E-13  0.3110E-04  0.6600E-06  0.3509E-03  0.1407E-01  0.4028E+01
   -0.637502   12.14945  0.8980E-13  0.2925E-04  0.4906E-06  0.3693E-03  0.1318E-01  0.6629E+01
   -0.675004   12.15051  0.8980E-13  0.2761E-04  0.3784E-06  0.3935E-03  0.1235E-01  0.1668E+02
   -0.712505   12.15150  0.8980E-13  0.2615E-04  0.3023E-06  0.4228E-03  0.1158E-01  0.4111E+02
   -0.750007   12.15242  0.8980E-13  0.2482E-04  0.2489E-06  0.4501E-03  0.1086E-01  0.1166E+02
   -0.787508   12.15327  0.8980E-13  0.2361E-04  0.2104E-06  0.4728E-03  0.1018E-01  0.2206E+02
   -0.825010   12.15406  0.8980E-13  0.2248E-04  0.1814E-06  0.5047E-03  0.9544E-02  0.1717E+02
   -0.862512   12.15480  0.8980E-13  0.2142E-04  0.1590E-06  0.5398E-03  0.8940E-02  0.6266E+02
   -0.900013   12.15547  0.8980E-13  0.2041E-04  0.1410E-06  0.5667E-03  0.8363E-02  0.1014E+04
   -0.937514   12.15612  0.8980E-13  0.1943E-04  0.1261E-06  0.6042E-03  0.7806E-02  0.3795E+02
   -0.975016   12.15671  0.8980E-13  0.1845E-04  0.1133E-06  0.6384E-03  0.7267E-02  0.2654E+03
   -1.012517   12.15726  0.8980E-13  0.1747E-04  0.1021E-06  0.6782E-03  0.6736E-02  0.1638E+03
   -1.050018   12.15776  0.8980E-13  0.1647E-04  0.9210E-07  0.6967E-03  0.6243E-02  0.2432E+02
   -1.087519   12.15824  0.8980E-13  0.1545E-04  0.8316E-07  0.6984E-03  0.5783E-02  0.2176E+02
   -1.125020   12.15870  0.8980E-13  0.1442E-04  0.7517E-07  0.6899E-03  0.5356E-02  0.4579E+02
   -1.162520   12.15916  0.8980E-13  0.1337E-04  0.6808E-07  0.6715E-03  0.4959E-02  0.1502E+02
   -1.200021   12.15963  0.8980E-13  0.1232E-04  0.6190E-07  0.6435E-03  0.4593E-02  0.3866E+02
   -1.237521   12.16010  0.8980E-13  0.1125E-04  0.5669E-07  0.6054E-03  0.4259E-02  0.8247E+01
   -1.275021   12.16059  0.8980E-13  0.1020E-04  0.5258E-07  0.5560E-03  0.3958E-02  0.9550E+01
   -1.312520   12.16113  0.8980E-13  0.9195E-05  0.4984E-07  0.4845E-03  0.3694E-02  0.3193E+02
   -1.350020   12.16175  0.8980E-13  0.8252E-05  0.4882E-07  0.3698E-03  0.3474E-02  0.1251E+03
   -1.387519   12.16252  0.8980E-13  0.7315E-05  0.5035E-07  0.2701E-03  0.3299E-02  0.3993E+02
   -1.425017   12.16357  0.8980E-13  0.6163E-05  0.5798E-07  0.1428E-03  0.3153E-02  0.2304E+03
   -1.462516   12.16543  0.8980E-13  0.3261E-05  0.1159E-06  0.1412E-04  0.3011E-02 -0.1443E+04
   -1.500014   12.18378  0.8980E-13  0.0000E+00  0.0000E+00  0.0000E+00  0.2882E-02  0.0000E+00
