 1 - depth, m
 2 - temperature, C
 3 - salinity, kg/kg
 4 - turbulent kinetic energy, m**2/s**2
 5 - dissipation rate, m**2/s**3
 6 - kinematic heat conductance, m**2/s
 7 - modulus of horizontal velocity, m/s
 8 - Richardson number, n/d
   -0.000000   -0.00000  0.4662E-11  0.1858E-09  0.1851E-12  0.1000E-09  0.0000E+00  0.3297E+17
   -0.037497    0.53242  0.2121E-14  0.5343E-09  0.1507E-12  0.1000E-09  0.0000E+00  0.2704E+17
   -0.074995    1.04488  0.1290E-12  0.1172E-08  0.1899E-12  0.1000E-09  0.0000E+00  0.2165E+17
   -0.112493    1.53564  0.7807E-13  0.2177E-08  0.2832E-12  0.1000E-09  0.0000E+00  0.1685E+17
   -0.149992    2.00401  0.8330E-13  0.3728E-08  0.4420E-12  0.1048E-09  0.0000E+00  0.1264E+17
   -0.187490    2.45000  0.8174E-13  0.6130E-08  0.6938E-12  0.2151E-09  0.0000E+00  0.8983E+16
   -0.224989    2.87383  0.8141E-13  0.9861E-08  0.1085E-11  0.5196E-09  0.0000E+00  0.5826E+16
   -0.262488    3.27592  0.8132E-13  0.1565E-07  0.1686E-11  0.1512E-08  0.0000E+00  0.3124E+16
   -0.299988    3.65568  0.8131E-13  0.2455E-07  0.2597E-11  0.8595E-08  0.0000E+00  0.8587E+15
   -0.337488    4.00086  0.8131E-13  0.2508E-07  0.2657E-11  0.8240E-04  0.0000E+00 -0.1390E+12
   -0.374988    4.00150  0.8131E-13  0.2535E-07  0.2690E-11  0.8206E-04  0.0000E+00 -0.1439E+12
   -0.412488    4.00212  0.8131E-13  0.2560E-07  0.2728E-11  0.8292E-04  0.0000E+00 -0.1479E+12
   -0.449988    4.00272  0.8131E-13  0.2583E-07  0.2768E-11  0.8328E-04  0.0000E+00 -0.1527E+12
   -0.487488    4.00332  0.8131E-13  0.2606E-07  0.2813E-11  0.8334E-04  0.0000E+00 -0.1579E+12
   -0.524989    4.00392  0.8131E-13  0.2627E-07  0.2861E-11  0.8323E-04  0.0000E+00 -0.1629E+12
   -0.562490    4.00451  0.8131E-13  0.2647E-07  0.2912E-11  0.8298E-04  0.0000E+00 -0.1681E+12
   -0.599990    4.00511  0.8131E-13  0.2665E-07  0.2967E-11  0.8255E-04  0.0000E+00 -0.1739E+12
   -0.637491    4.00570  0.8131E-13  0.2681E-07  0.3026E-11  0.8197E-04  0.0000E+00 -0.1800E+12
   -0.674992    4.00630  0.8131E-13  0.2695E-07  0.3088E-11  0.8121E-04  0.0000E+00 -0.1866E+12
   -0.712493    4.00689  0.8131E-13  0.2707E-07  0.3155E-11  0.8029E-04  0.0000E+00 -0.1938E+12
   -0.749994    4.00750  0.8131E-13  0.2717E-07  0.3227E-11  0.7919E-04  0.0000E+00 -0.2015E+12
   -0.787495    4.00810  0.8131E-13  0.2725E-07  0.3304E-11  0.7792E-04  0.0000E+00 -0.2097E+12
   -0.824996    4.00872  0.8131E-13  0.2730E-07  0.3387E-11  0.7647E-04  0.0000E+00 -0.2189E+12
   -0.862497    4.00934  0.8131E-13  0.2732E-07  0.3476E-11  0.7484E-04  0.0000E+00 -0.2290E+12
   -0.899997    4.00998  0.8131E-13  0.2732E-07  0.3573E-11  0.7302E-04  0.0000E+00 -0.2404E+12
   -0.937498    4.01063  0.8131E-13  0.2729E-07  0.3678E-11  0.7101E-04  0.0000E+00 -0.2531E+12
   -0.974999    4.01129  0.8131E-13  0.2722E-07  0.3793E-11  0.6880E-04  0.0000E+00 -0.2676E+12
   -1.012499    4.01197  0.8131E-13  0.2712E-07  0.3919E-11  0.6639E-04  0.0000E+00 -0.2849E+12
   -1.050000    4.01268  0.8131E-13  0.2697E-07  0.4062E-11  0.6370E-04  0.0000E+00 -0.3055E+12
   -1.087500    4.01341  0.8131E-13  0.2678E-07  0.4223E-11  0.6077E-04  0.0000E+00 -0.3297E+12
   -1.125000    4.01418  0.8131E-13  0.2653E-07  0.4408E-11  0.5755E-04  0.0000E+00 -0.3580E+12
   -1.162500    4.01500  0.8131E-13  0.2622E-07  0.4622E-11  0.5403E-04  0.0000E+00 -0.3923E+12
   -1.200000    4.01586  0.8131E-13  0.2584E-07  0.4874E-11  0.5018E-04  0.0000E+00 -0.4353E+12
   -1.237499    4.01680  0.8131E-13  0.2537E-07  0.5176E-11  0.4602E-04  0.0000E+00 -0.4900E+12
   -1.274999    4.01781  0.8131E-13  0.2477E-07  0.5567E-11  0.4113E-04  0.0000E+00 -0.5677E+12
   -1.312498    4.01895  0.8131E-13  0.2387E-07  0.6159E-11  0.3013E-04  0.0000E+00 -0.8099E+12
   -1.349996    4.02052  0.8131E-13  0.2252E-07  0.7133E-11  0.2002E-04  0.0000E+00 -0.1286E+13
   -1.387495    4.02285  0.8131E-13  0.2051E-07  0.8808E-11  0.1234E-04  0.0000E+00 -0.2263E+13
   -1.424993    4.02663  0.8131E-13  0.1721E-07  0.1248E-10  0.5491E-05  0.0000E+00 -0.5834E+13
   -1.462490    4.03504  0.8131E-13  0.1028E-07  0.2733E-10  0.7501E-06  0.0000E+00 -0.6224E+14
   -1.499988    4.08796  0.8131E-13  0.0000E+00  0.0000E+00  0.0000E+00  0.0000E+00  0.0000E+00
