 1 - depth, m
 2 - temperature, C
 3 - salinity, kg/kg
 4 - turbulent kinetic energy, m**2/s**2
 5 - dissipation rate, m**2/s**3
 6 - kinematic heat conductance, m**2/s
 7 - modulus of horizontal velocity, m/s
 8 - Richardson number, n/d
   -0.000000   -0.00000  0.3656E-12  0.4096E-13  0.8589E-16  0.1000E-09  0.0000E+00  0.7690E+16
   -0.037498    0.11720  0.4566E-12  0.4096E-13  0.8589E-16  0.1000E-09  0.0000E+00  0.7498E+16
   -0.074996    0.23524  0.3970E-12  0.4096E-13  0.8589E-16  0.1000E-09  0.0000E+00  0.7294E+16
   -0.112495    0.35398  0.3078E-12  0.4096E-13  0.8589E-16  0.1000E-09  0.0000E+00  0.7076E+16
   -0.149993    0.47325  0.2317E-12  0.4096E-13  0.8589E-16  0.1000E-09  0.0000E+00  0.6846E+16
   -0.187493    0.59289  0.1779E-12  0.4096E-13  0.8589E-16  0.1000E-09  0.0000E+00  0.6606E+16
   -0.224992    0.71272  0.1435E-12  0.4096E-13  0.8589E-16  0.1000E-09  0.0000E+00  0.6358E+16
   -0.262492    0.83258  0.1228E-12  0.4096E-13  0.8589E-16  0.1000E-09  0.0000E+00  0.6103E+16
   -0.299992    0.95234  0.1108E-12  0.4096E-13  0.8589E-16  0.1000E-09  0.0000E+00  0.5843E+16
   -0.337492    1.07184  0.1039E-12  0.4096E-13  0.8589E-16  0.1000E-09  0.0000E+00  0.5580E+16
   -0.374992    1.19099  0.9996E-13  0.4096E-13  0.8589E-16  0.1000E-09  0.0000E+00  0.5320E+16
   -0.412493    1.30976  0.9756E-13  0.4096E-13  0.8589E-16  0.1000E-09  0.0000E+00  0.5062E+16
   -0.449993    1.42812  0.9600E-13  0.4096E-13  0.8589E-16  0.1000E-09  0.0000E+00  0.4804E+16
   -0.487494    1.54597  0.9485E-13  0.4096E-13  0.8589E-16  0.1000E-09  0.0000E+00  0.4546E+16
   -0.524995    1.66324  0.9392E-13  0.4096E-13  0.8589E-16  0.1000E-09  0.0000E+00  0.4289E+16
   -0.562496    1.77979  0.9309E-13  0.4096E-13  0.8589E-16  0.1000E-09  0.0000E+00  0.4033E+16
   -0.599997    1.89556  0.9234E-13  0.4096E-13  0.8589E-16  0.1000E-09  0.0000E+00  0.3781E+16
   -0.637499    2.01046  0.9165E-13  0.4096E-13  0.8589E-16  0.1000E-09  0.0000E+00  0.3533E+16
   -0.675000    2.12443  0.9104E-13  0.4096E-13  0.8589E-16  0.1000E-09  0.0000E+00  0.3288E+16
   -0.712501    2.23739  0.9050E-13  0.4096E-13  0.8589E-16  0.1000E-09  0.0000E+00  0.3049E+16
   -0.750003    2.34928  0.9006E-13  0.4096E-13  0.8589E-16  0.1000E-09  0.0000E+00  0.2819E+16
   -0.787504    2.46021  0.8970E-13  0.4096E-13  0.8589E-16  0.1000E-09  0.0000E+00  0.2595E+16
   -0.825006    2.57018  0.8942E-13  0.4096E-13  0.8589E-16  0.1000E-09  0.0000E+00  0.2375E+16
   -0.862507    2.67915  0.8922E-13  0.4096E-13  0.8589E-16  0.1000E-09  0.0000E+00  0.2161E+16
   -0.900008    2.78706  0.8909E-13  0.4096E-13  0.8589E-16  0.1000E-09  0.0000E+00  0.1952E+16
   -0.937509    2.89386  0.8900E-13  0.4096E-13  0.8589E-16  0.1000E-09  0.0000E+00  0.1749E+16
   -0.975011    2.99950  0.8894E-13  0.5367E-13  0.8589E-16  0.1000E-09  0.0000E+00  0.1552E+16
   -1.012512    3.10392  0.8891E-13  0.2261E-12  0.1598E-15  0.1000E-09  0.0000E+00  0.1362E+16
   -1.050012    3.20719  0.8889E-13  0.7060E-12  0.4383E-15  0.1000E-09  0.0000E+00  0.1178E+16
   -1.087513    3.30927  0.8888E-13  0.2031E-11  0.1209E-14  0.1000E-09  0.0000E+00  0.9998E+15
   -1.125014    3.41012  0.8888E-13  0.5687E-11  0.3282E-14  0.1000E-09  0.0000E+00  0.8383E+15
   -1.162514    3.51106  0.8887E-13  0.1568E-10  0.8794E-14  0.1000E-09  0.0000E+00  0.6785E+15
   -1.200014    3.61239  0.8887E-13  0.4268E-10  0.2328E-13  0.1232E-09  0.0000E+00  0.5179E+15
   -1.237514    3.71422  0.8887E-13  0.1147E-09  0.6089E-13  0.4675E-09  0.0000E+00  0.3552E+15
   -1.275014    3.81649  0.8887E-13  0.3040E-09  0.1574E-12  0.2230E-08  0.0000E+00  0.1901E+15
   -1.312513    3.91836  0.8887E-13  0.7859E-09  0.3990E-12  0.2860E-07  0.0000E+00  0.3347E+14
   -1.350012    4.00537  0.8887E-13  0.1754E-08  0.9071E-12  0.1251E-05  0.0000E+00 -0.4130E+13
   -1.387511    4.01618  0.8887E-13  0.2224E-08  0.1393E-11  0.1273E-05  0.0000E+00 -0.5979E+13
   -1.425010    4.02701  0.8887E-13  0.2282E-08  0.2107E-11  0.8197E-06  0.0000E+00 -0.1246E+14
   -1.462508    4.04331  0.8887E-13  0.1799E-08  0.3809E-11  0.2201E-06  0.0000E+00 -0.5531E+14
   -1.500006    4.08789  0.8887E-13  0.0000E+00  0.0000E+00  0.0000E+00  0.0000E+00  0.0000E+00
