 1 - depth, m
 2 - temperature, C
 3 - salinity, kg/kg
 4 - turbulent kinetic energy, m**2/s**2
 5 - dissipation rate, m**2/s**3
 6 - kinematic heat conductance, m**2/s
 7 - modulus of horizontal velocity, m/s
 8 - Richardson number, n/d
   -0.000000   -0.00000  0.7115E-09  0.6858E-10  0.5281E-13  0.1000E-09  0.0000E+00  0.2656E+17
   -0.037497    0.42225  0.0000E+00  0.1679E-09  0.4372E-13  0.1000E-09  0.0000E+00  0.2270E+17
   -0.074995    0.83055  0.9365E-13  0.3511E-09  0.5431E-13  0.1000E-09  0.0000E+00  0.1923E+17
   -0.112493    1.22606  0.7920E-13  0.6390E-09  0.7962E-13  0.1000E-09  0.0000E+00  0.1610E+17
   -0.149991    1.60989  0.8172E-13  0.1080E-08  0.1225E-12  0.1000E-09  0.0000E+00  0.1326E+17
   -0.187489    1.98303  0.8123E-13  0.1756E-08  0.1899E-12  0.1000E-09  0.0000E+00  0.1067E+17
   -0.224988    2.34621  0.8133E-13  0.2796E-08  0.2936E-12  0.1064E-09  0.0000E+00  0.8299E+16
   -0.262487    2.69986  0.8131E-13  0.4394E-08  0.4517E-12  0.2049E-09  0.0000E+00  0.6110E+16
   -0.299986    3.04359  0.8131E-13  0.6846E-08  0.6908E-12  0.4669E-09  0.0000E+00  0.4100E+16
   -0.337486    3.37663  0.8131E-13  0.1060E-07  0.1051E-11  0.1283E-08  0.0000E+00  0.2273E+16
   -0.374986    3.69702  0.8131E-13  0.1628E-07  0.1589E-11  0.6755E-08  0.0000E+00  0.6568E+15
   -0.412485    3.99505  0.8131E-13  0.1679E-07  0.1641E-11  0.5662E-04  0.0000E+00 -0.1055E+12
   -0.449986    3.99591  0.8131E-13  0.1705E-07  0.1671E-11  0.5894E-04  0.0000E+00 -0.1106E+12
   -0.487486    3.99668  0.8131E-13  0.1729E-07  0.1703E-11  0.6091E-04  0.0000E+00 -0.1148E+12
   -0.524986    3.99740  0.8131E-13  0.1751E-07  0.1738E-11  0.6233E-04  0.0000E+00 -0.1190E+12
   -0.562487    3.99809  0.8131E-13  0.1772E-07  0.1774E-11  0.6305E-04  0.0000E+00 -0.1239E+12
   -0.599987    3.99876  0.8131E-13  0.1792E-07  0.1813E-11  0.6306E-04  0.0000E+00 -0.1301E+12
   -0.637488    3.99942  0.8131E-13  0.1810E-07  0.1855E-11  0.6291E-04  0.0000E+00 -0.1365E+12
   -0.674988    4.00008  0.8131E-13  0.1827E-07  0.1900E-11  0.6260E-04  0.0000E+00 -0.1433E+12
   -0.712489    4.00074  0.8131E-13  0.1843E-07  0.1948E-11  0.6215E-04  0.0000E+00 -0.1505E+12
   -0.749990    4.00141  0.8131E-13  0.1858E-07  0.2000E-11  0.6155E-04  0.0000E+00 -0.1580E+12
   -0.787491    4.00207  0.8131E-13  0.1870E-07  0.2055E-11  0.6080E-04  0.0000E+00 -0.1659E+12
   -0.824991    4.00274  0.8131E-13  0.1881E-07  0.2114E-11  0.5989E-04  0.0000E+00 -0.1746E+12
   -0.862492    4.00341  0.8131E-13  0.1890E-07  0.2178E-11  0.5883E-04  0.0000E+00 -0.1841E+12
   -0.899993    4.00409  0.8131E-13  0.1897E-07  0.2246E-11  0.5760E-04  0.0000E+00 -0.1946E+12
   -0.937493    4.00479  0.8131E-13  0.1901E-07  0.2320E-11  0.5620E-04  0.0000E+00 -0.2062E+12
   -0.974994    4.00549  0.8131E-13  0.1903E-07  0.2401E-11  0.5463E-04  0.0000E+00 -0.2193E+12
   -1.012494    4.00622  0.8131E-13  0.1902E-07  0.2489E-11  0.5287E-04  0.0000E+00 -0.2345E+12
   -1.049994    4.00696  0.8131E-13  0.1898E-07  0.2588E-11  0.5088E-04  0.0000E+00 -0.2525E+12
   -1.087494    4.00774  0.8131E-13  0.1891E-07  0.2699E-11  0.4868E-04  0.0000E+00 -0.2735E+12
   -1.124994    4.00854  0.8131E-13  0.1879E-07  0.2825E-11  0.4621E-04  0.0000E+00 -0.2985E+12
   -1.162494    4.00939  0.8131E-13  0.1862E-07  0.2970E-11  0.4348E-04  0.0000E+00 -0.3289E+12
   -1.199993    4.01029  0.8131E-13  0.1840E-07  0.3140E-11  0.4047E-04  0.0000E+00 -0.3669E+12
   -1.237493    4.01125  0.8131E-13  0.1810E-07  0.3348E-11  0.3716E-04  0.0000E+00 -0.4156E+12
   -1.274992    4.01230  0.8131E-13  0.1766E-07  0.3642E-11  0.3089E-04  0.0000E+00 -0.5257E+12
   -1.312490    4.01357  0.8131E-13  0.1698E-07  0.4089E-11  0.2201E-04  0.0000E+00 -0.7758E+12
   -1.349989    4.01534  0.8131E-13  0.1601E-07  0.4768E-11  0.1546E-04  0.0000E+00 -0.1185E+13
   -1.387487    4.01785  0.8131E-13  0.1454E-07  0.5924E-11  0.9567E-05  0.0000E+00 -0.2114E+13
   -1.424985    4.02189  0.8131E-13  0.1211E-07  0.8474E-11  0.4173E-05  0.0000E+00 -0.5706E+13
   -1.462483    4.03098  0.8131E-13  0.7298E-08  0.1831E-10  0.5908E-06  0.0000E+00 -0.5953E+14
   -1.499980    4.08430  0.8131E-13  0.0000E+00  0.0000E+00  0.0000E+00  0.0000E+00  0.0000E+00
