 1 - depth, m
 2 - temperature, C
 3 - salinity, kg/kg
 4 - turbulent kinetic energy, m**2/s**2
 5 - dissipation rate, m**2/s**3
 6 - kinematic heat conductance, m**2/s
 7 - modulus of horizontal velocity, m/s
 8 - Richardson number, n/d
   -0.000000   -0.00000  0.1954E-11  0.2168E-09  0.2260E-12  0.1000E-09  0.0000E+00  0.3182E+17
   -0.037497    0.51224  0.3942E-12  0.6429E-09  0.1895E-12  0.1000E-09  0.0000E+00  0.2631E+17
   -0.074994    1.00601  0.1632E-12  0.1435E-08  0.2508E-12  0.1000E-09  0.0000E+00  0.2143E+17
   -0.112492    1.48329  0.9961E-13  0.2717E-08  0.3906E-12  0.1000E-09  0.0000E+00  0.1707E+17
   -0.149990    1.94559  0.8642E-13  0.4763E-08  0.6320E-12  0.1336E-09  0.0000E+00  0.1313E+17
   -0.187488    2.39384  0.8327E-13  0.8043E-08  0.1026E-11  0.2976E-09  0.0000E+00  0.9569E+16
   -0.224987    2.82830  0.8197E-13  0.1333E-07  0.1658E-11  0.7266E-09  0.0000E+00  0.6335E+16
   -0.262486    3.24840  0.8148E-13  0.2182E-07  0.2663E-11  0.2165E-08  0.0000E+00  0.3415E+16
   -0.299985    3.65108  0.8133E-13  0.3528E-07  0.4234E-11  0.1339E-07  0.0000E+00  0.8783E+15
   -0.337484    4.01185  0.8131E-13  0.3594E-07  0.4318E-11  0.1037E-03  0.0000E+00 -0.2136E+12
   -0.374984    4.01238  0.8131E-13  0.3626E-07  0.4365E-11  0.1014E-03  0.0000E+00 -0.2196E+12
   -0.412484    4.01291  0.8131E-13  0.3656E-07  0.4418E-11  0.1017E-03  0.0000E+00 -0.2228E+12
   -0.449983    4.01344  0.8131E-13  0.3684E-07  0.4475E-11  0.1019E-03  0.0000E+00 -0.2266E+12
   -0.487484    4.01397  0.8131E-13  0.3710E-07  0.4536E-11  0.1019E-03  0.0000E+00 -0.2308E+12
   -0.524984    4.01449  0.8131E-13  0.3733E-07  0.4602E-11  0.1017E-03  0.0000E+00 -0.2349E+12
   -0.562484    4.01502  0.8131E-13  0.3754E-07  0.4673E-11  0.1013E-03  0.0000E+00 -0.2395E+12
   -0.599984    4.01555  0.8131E-13  0.3772E-07  0.4749E-11  0.1007E-03  0.0000E+00 -0.2449E+12
   -0.637485    4.01608  0.8131E-13  0.3787E-07  0.4829E-11  0.9990E-04  0.0000E+00 -0.2509E+12
   -0.674985    4.01661  0.8131E-13  0.3799E-07  0.4916E-11  0.9888E-04  0.0000E+00 -0.2576E+12
   -0.712486    4.01715  0.8131E-13  0.3809E-07  0.5008E-11  0.9767E-04  0.0000E+00 -0.2653E+12
   -0.749986    4.01769  0.8131E-13  0.3815E-07  0.5108E-11  0.9624E-04  0.0000E+00 -0.2735E+12
   -0.787487    4.01824  0.8131E-13  0.3818E-07  0.5215E-11  0.9460E-04  0.0000E+00 -0.2825E+12
   -0.824988    4.01880  0.8131E-13  0.3817E-07  0.5331E-11  0.9274E-04  0.0000E+00 -0.2928E+12
   -0.862488    4.01938  0.8131E-13  0.3813E-07  0.5456E-11  0.9067E-04  0.0000E+00 -0.3043E+12
   -0.899989    4.01996  0.8131E-13  0.3805E-07  0.5593E-11  0.8837E-04  0.0000E+00 -0.3175E+12
   -0.937489    4.02055  0.8131E-13  0.3793E-07  0.5742E-11  0.8585E-04  0.0000E+00 -0.3324E+12
   -0.974989    4.02117  0.8131E-13  0.3777E-07  0.5906E-11  0.8309E-04  0.0000E+00 -0.3494E+12
   -1.012489    4.02180  0.8131E-13  0.3756E-07  0.6088E-11  0.8009E-04  0.0000E+00 -0.3700E+12
   -1.049989    4.02246  0.8131E-13  0.3729E-07  0.6294E-11  0.7678E-04  0.0000E+00 -0.3945E+12
   -1.087489    4.02315  0.8131E-13  0.3696E-07  0.6528E-11  0.7317E-04  0.0000E+00 -0.4235E+12
   -1.124989    4.02388  0.8131E-13  0.3655E-07  0.6797E-11  0.6924E-04  0.0000E+00 -0.4572E+12
   -1.162489    4.02465  0.8131E-13  0.3607E-07  0.7111E-11  0.6497E-04  0.0000E+00 -0.4982E+12
   -1.199988    4.02547  0.8131E-13  0.3549E-07  0.7483E-11  0.6032E-04  0.0000E+00 -0.5495E+12
   -1.237487    4.02636  0.8131E-13  0.3479E-07  0.7930E-11  0.5526E-04  0.0000E+00 -0.6152E+12
   -1.274986    4.02733  0.8131E-13  0.3396E-07  0.8481E-11  0.4995E-04  0.0000E+00 -0.6994E+12
   -1.312485    4.02840  0.8131E-13  0.3280E-07  0.9285E-11  0.4190E-04  0.0000E+00 -0.8592E+12
   -1.349983    4.02969  0.8131E-13  0.3102E-07  0.1065E-10  0.2581E-04  0.0000E+00 -0.1453E+13
   -1.387481    4.03178  0.8131E-13  0.2835E-07  0.1305E-10  0.1560E-04  0.0000E+00 -0.2556E+13
   -1.424979    4.03523  0.8131E-13  0.2398E-07  0.1830E-10  0.7077E-05  0.0000E+00 -0.6257E+13
   -1.462476    4.04282  0.8131E-13  0.1433E-07  0.4024E-10  0.9467E-06  0.0000E+00 -0.6458E+14
   -1.499973    4.09330  0.8131E-13  0.0000E+00  0.0000E+00  0.0000E+00  0.0000E+00  0.0000E+00
