 1 - depth, m
 2 - temperature, C
 3 - salinity, kg/kg
 4 - turbulent kinetic energy, m**2/s**2
 5 - dissipation rate, m**2/s**3
 6 - kinematic heat conductance, m**2/s
 7 - modulus of horizontal velocity, m/s
 8 - Richardson number, n/d
   -0.000000   -0.00000  0.3371E-13  0.4151E-07  0.1740E-09  0.5224E-08  0.0000E+00  0.8674E+17
   -0.037499    1.68548  0.8695E-12  0.3124E-06  0.1341E-09  0.1106E-07  0.0000E+00  0.3834E+17
   -0.074999    3.45958  0.8833E-11  0.5043E-06  0.1767E-09  0.1665E-03  0.0000E+00  0.4417E+16
   -0.112499    4.22680  0.1065E-10  0.5084E-06  0.1775E-09  0.4615E-03  0.0000E+00 -0.2500E+13
   -0.150000    4.22744  0.1065E-10  0.5106E-06  0.1779E-09  0.4590E-03  0.0000E+00 -0.2369E+13
   -0.187501    4.22808  0.1065E-10  0.5124E-06  0.1784E-09  0.4610E-03  0.0000E+00 -0.2317E+13
   -0.225002    4.22869  0.1065E-10  0.5138E-06  0.1789E-09  0.4622E-03  0.0000E+00 -0.2269E+13
   -0.262503    4.22930  0.1065E-10  0.5149E-06  0.1795E-09  0.4627E-03  0.0000E+00 -0.2235E+13
   -0.300005    4.22989  0.1065E-10  0.5156E-06  0.1801E-09  0.4624E-03  0.0000E+00 -0.2202E+13
   -0.337506    4.23047  0.1065E-10  0.5159E-06  0.1808E-09  0.4613E-03  0.0000E+00 -0.2182E+13
   -0.375008    4.23104  0.1065E-10  0.5160E-06  0.1815E-09  0.4595E-03  0.0000E+00 -0.2160E+13
   -0.412510    4.23161  0.1065E-10  0.5157E-06  0.1824E-09  0.4569E-03  0.0000E+00 -0.2149E+13
   -0.450013    4.23217  0.1065E-10  0.5151E-06  0.1833E-09  0.4535E-03  0.0000E+00 -0.2139E+13
   -0.487515    4.23273  0.1065E-10  0.5141E-06  0.1844E-09  0.4493E-03  0.0000E+00 -0.2139E+13
   -0.525018    4.23328  0.1065E-10  0.5129E-06  0.1856E-09  0.4444E-03  0.0000E+00 -0.2142E+13
   -0.562521    4.23384  0.1065E-10  0.5113E-06  0.1869E-09  0.4387E-03  0.0000E+00 -0.2156E+13
   -0.600023    4.23440  0.1065E-10  0.5094E-06  0.1883E-09  0.4322E-03  0.0000E+00 -0.2171E+13
   -0.637526    4.23496  0.1065E-10  0.5072E-06  0.1900E-09  0.4250E-03  0.0000E+00 -0.2197E+13
   -0.675029    4.23552  0.1066E-10  0.5047E-06  0.1918E-09  0.4170E-03  0.0000E+00 -0.2226E+13
   -0.712532    4.23610  0.1066E-10  0.5018E-06  0.1938E-09  0.4082E-03  0.0000E+00 -0.2266E+13
   -0.750035    4.23668  0.1066E-10  0.4986E-06  0.1961E-09  0.3987E-03  0.0000E+00 -0.2309E+13
   -0.787538    4.23727  0.1066E-10  0.4951E-06  0.1986E-09  0.3884E-03  0.0000E+00 -0.2366E+13
   -0.825041    4.23787  0.1066E-10  0.4912E-06  0.2014E-09  0.3773E-03  0.0000E+00 -0.2428E+13
   -0.862544    4.23849  0.1066E-10  0.4869E-06  0.2046E-09  0.3654E-03  0.0000E+00 -0.2505E+13
   -0.900047    4.23913  0.1066E-10  0.4822E-06  0.2082E-09  0.3527E-03  0.0000E+00 -0.2590E+13
   -0.937550    4.23978  0.1066E-10  0.4771E-06  0.2123E-09  0.3392E-03  0.0000E+00 -0.2694E+13
   -0.975053    4.24046  0.1066E-10  0.4715E-06  0.2169E-09  0.3249E-03  0.0000E+00 -0.2811E+13
   -1.012555    4.24117  0.1066E-10  0.4654E-06  0.2222E-09  0.3097E-03  0.0000E+00 -0.2952E+13
   -1.050058    4.24191  0.1066E-10  0.4587E-06  0.2283E-09  0.2935E-03  0.0000E+00 -0.3116E+13
   -1.087560    4.24269  0.1066E-10  0.4512E-06  0.2356E-09  0.2762E-03  0.0000E+00 -0.3317E+13
   -1.125062    4.24352  0.1066E-10  0.4430E-06  0.2442E-09  0.2579E-03  0.0000E+00 -0.3558E+13
   -1.162564    4.24441  0.1066E-10  0.4338E-06  0.2546E-09  0.2386E-03  0.0000E+00 -0.3860E+13
   -1.200066    4.24536  0.1066E-10  0.4235E-06  0.2672E-09  0.2181E-03  0.0000E+00 -0.4234E+13
   -1.237568    4.24641  0.1066E-10  0.4119E-06  0.2830E-09  0.1967E-03  0.0000E+00 -0.4720E+13
   -1.275069    4.24757  0.1066E-10  0.3988E-06  0.3031E-09  0.1739E-03  0.0000E+00 -0.5359E+13
   -1.312570    4.24888  0.1066E-10  0.3838E-06  0.3297E-09  0.1501E-03  0.0000E+00 -0.6247E+13
   -1.350071    4.25040  0.1066E-10  0.3662E-06  0.3664E-09  0.1256E-03  0.0000E+00 -0.7522E+13
   -1.387571    4.25222  0.1066E-10  0.3444E-06  0.4233E-09  0.1016E-03  0.0000E+00 -0.9345E+13
   -1.425071    4.25447  0.1066E-10  0.3075E-06  0.5534E-09  0.3642E-04  0.0000E+00 -0.2654E+14
   -1.462571    4.26077  0.1066E-10  0.1745E-06  0.1352E-08  0.3488E-05  0.0000E+00 -0.3023E+15
   -1.500071    4.32412  0.1066E-10  0.0000E+00  0.0000E+00  0.0000E+00  0.0000E+00  0.0000E+00
