 1 - depth, m
 2 - temperature, C
 3 - salinity, kg/kg
 4 - turbulent kinetic energy, m**2/s**2
 5 - dissipation rate, m**2/s**3
 6 - kinematic heat conductance, m**2/s
 7 - modulus of horizontal velocity, m/s
 8 - Richardson number, n/d
   -0.000000   -0.00000  0.1441E-10  0.4224E-08  0.9446E-11  0.4354E-09  0.0000E+00  0.6012E+17
   -0.037498    1.04698  0.2681E-10  0.2200E-07  0.7857E-11  0.5367E-09  0.0000E+00  0.4066E+17
   -0.074996    2.07570  0.3247E-10  0.5517E-07  0.1120E-10  0.1369E-08  0.0000E+00  0.2275E+17
   -0.112495    3.08429  0.1853E-10  0.1100E-06  0.1863E-10  0.8111E-08  0.0000E+00  0.6415E+16
   -0.149994    4.03653  0.1257E-10  0.1114E-06  0.1885E-10  0.2134E-03  0.0000E+00 -0.5341E+12
   -0.187493    4.03719  0.1257E-10  0.1120E-06  0.1897E-10  0.2104E-03  0.0000E+00 -0.5205E+12
   -0.224992    4.03784  0.1257E-10  0.1126E-06  0.1910E-10  0.2111E-03  0.0000E+00 -0.5162E+12
   -0.262492    4.03848  0.1257E-10  0.1131E-06  0.1924E-10  0.2115E-03  0.0000E+00 -0.5142E+12
   -0.299992    4.03911  0.1257E-10  0.1135E-06  0.1938E-10  0.2115E-03  0.0000E+00 -0.5130E+12
   -0.337492    4.03973  0.1257E-10  0.1139E-06  0.1954E-10  0.2113E-03  0.0000E+00 -0.5136E+12
   -0.374993    4.04035  0.1257E-10  0.1142E-06  0.1970E-10  0.2107E-03  0.0000E+00 -0.5143E+12
   -0.412493    4.04096  0.1257E-10  0.1144E-06  0.1988E-10  0.2097E-03  0.0000E+00 -0.5164E+12
   -0.449994    4.04156  0.1257E-10  0.1146E-06  0.2008E-10  0.2084E-03  0.0000E+00 -0.5193E+12
   -0.487495    4.04216  0.1257E-10  0.1147E-06  0.2029E-10  0.2068E-03  0.0000E+00 -0.5239E+12
   -0.524996    4.04276  0.1257E-10  0.1147E-06  0.2052E-10  0.2048E-03  0.0000E+00 -0.5296E+12
   -0.562497    4.04336  0.1257E-10  0.1147E-06  0.2076E-10  0.2024E-03  0.0000E+00 -0.5371E+12
   -0.599998    4.04396  0.1257E-10  0.1146E-06  0.2102E-10  0.1998E-03  0.0000E+00 -0.5456E+12
   -0.637500    4.04456  0.1257E-10  0.1144E-06  0.2130E-10  0.1967E-03  0.0000E+00 -0.5561E+12
   -0.675001    4.04517  0.1257E-10  0.1141E-06  0.2161E-10  0.1934E-03  0.0000E+00 -0.5679E+12
   -0.712503    4.04579  0.1257E-10  0.1138E-06  0.2194E-10  0.1897E-03  0.0000E+00 -0.5820E+12
   -0.750004    4.04641  0.1257E-10  0.1134E-06  0.2229E-10  0.1856E-03  0.0000E+00 -0.5976E+12
   -0.787506    4.04705  0.1257E-10  0.1129E-06  0.2268E-10  0.1812E-03  0.0000E+00 -0.6159E+12
   -0.825007    4.04769  0.1257E-10  0.1124E-06  0.2311E-10  0.1765E-03  0.0000E+00 -0.6363E+12
   -0.862508    4.04836  0.1257E-10  0.1117E-06  0.2358E-10  0.1713E-03  0.0000E+00 -0.6601E+12
   -0.900010    4.04903  0.1257E-10  0.1109E-06  0.2410E-10  0.1659E-03  0.0000E+00 -0.6868E+12
   -0.937511    4.04973  0.1257E-10  0.1101E-06  0.2467E-10  0.1601E-03  0.0000E+00 -0.7179E+12
   -0.975012    4.05045  0.1257E-10  0.1091E-06  0.2531E-10  0.1539E-03  0.0000E+00 -0.7532E+12
   -1.012513    4.05120  0.1257E-10  0.1081E-06  0.2603E-10  0.1473E-03  0.0000E+00 -0.7947E+12
   -1.050014    4.05198  0.1257E-10  0.1069E-06  0.2685E-10  0.1403E-03  0.0000E+00 -0.8432E+12
   -1.087515    4.05280  0.1257E-10  0.1055E-06  0.2779E-10  0.1327E-03  0.0000E+00 -0.9013E+12
   -1.125016    4.05366  0.1257E-10  0.1039E-06  0.2890E-10  0.1247E-03  0.0000E+00 -0.9705E+12
   -1.162516    4.05458  0.1257E-10  0.1021E-06  0.3020E-10  0.1162E-03  0.0000E+00 -0.1056E+13
   -1.200016    4.05556  0.1257E-10  0.1001E-06  0.3177E-10  0.1072E-03  0.0000E+00 -0.1161E+13
   -1.237516    4.05662  0.1257E-10  0.9782E-07  0.3367E-10  0.9757E-04  0.0000E+00 -0.1296E+13
   -1.275016    4.05779  0.1257E-10  0.9517E-07  0.3606E-10  0.8735E-04  0.0000E+00 -0.1472E+13
   -1.312515    4.05910  0.1257E-10  0.9210E-07  0.3913E-10  0.7693E-04  0.0000E+00 -0.1705E+13
   -1.350015    4.06058  0.1257E-10  0.8805E-07  0.4374E-10  0.6435E-04  0.0000E+00 -0.2080E+13
   -1.387513    4.06236  0.1257E-10  0.8164E-07  0.5254E-10  0.3172E-04  0.0000E+00 -0.4375E+13
   -1.425012    4.06596  0.1257E-10  0.7052E-07  0.7293E-10  0.1425E-04  0.0000E+00 -0.1043E+14
   -1.462510    4.07395  0.1256E-10  0.4236E-07  0.1667E-09  0.1837E-05  0.0000E+00 -0.1062E+15
   -1.500008    4.13213  0.1256E-10  0.0000E+00  0.0000E+00  0.0000E+00  0.0000E+00  0.0000E+00
