 1 - depth, m
 2 - temperature, C
 3 - salinity, kg/kg
 4 - turbulent kinetic energy, m**2/s**2
 5 - dissipation rate, m**2/s**3
 6 - kinematic heat conductance, m**2/s
 7 - modulus of horizontal velocity, m/s
 8 - Richardson number, n/d
   -0.000000   -0.00000  0.7554E-09  0.5307E-10  0.3907E-13  0.1000E-09  0.0000E+00  0.2518E+17
   -0.037497    0.39892  0.7047E-10  0.1269E-09  0.3515E-13  0.1000E-09  0.0000E+00  0.2162E+17
   -0.074995    0.78364  0.4347E-11  0.2688E-09  0.4838E-13  0.1000E-09  0.0000E+00  0.1846E+17
   -0.112493    1.15561  0.2639E-12  0.5055E-09  0.7736E-13  0.1000E-09  0.0000E+00  0.1562E+17
   -0.149991    1.51604  0.8735E-13  0.8944E-09  0.1281E-12  0.1000E-09  0.0000E+00  0.1306E+17
   -0.187490    1.86595  0.8147E-13  0.1536E-08  0.2127E-12  0.1000E-09  0.0000E+00  0.1073E+17
   -0.224988    2.20619  0.8131E-13  0.2597E-08  0.3519E-12  0.1137E-09  0.0000E+00  0.8599E+16
   -0.262488    2.53750  0.8131E-13  0.4352E-08  0.5794E-12  0.2421E-09  0.0000E+00  0.6649E+16
   -0.299987    2.86050  0.8131E-13  0.7245E-08  0.9496E-12  0.5436E-09  0.0000E+00  0.4854E+16
   -0.337486    3.17559  0.8131E-13  0.1200E-07  0.1550E-11  0.1350E-08  0.0000E+00  0.3193E+16
   -0.374986    3.48248  0.8131E-13  0.1979E-07  0.2517E-11  0.4229E-08  0.0000E+00  0.1660E+16
   -0.412486    3.77873  0.8131E-13  0.3205E-07  0.4025E-11  0.3503E-07  0.0000E+00  0.3301E+15
   -0.449986    4.02115  0.8131E-13  0.3276E-07  0.4121E-11  0.9130E-04  0.0000E+00 -0.2528E+12
   -0.487487    4.02161  0.8131E-13  0.3310E-07  0.4173E-11  0.8919E-04  0.0000E+00 -0.2601E+12
   -0.524987    4.02208  0.8131E-13  0.3340E-07  0.4229E-11  0.8948E-04  0.0000E+00 -0.2617E+12
   -0.562488    4.02254  0.8131E-13  0.3367E-07  0.4289E-11  0.8966E-04  0.0000E+00 -0.2638E+12
   -0.599988    4.02301  0.8131E-13  0.3391E-07  0.4353E-11  0.8964E-04  0.0000E+00 -0.2667E+12
   -0.637489    4.02347  0.8131E-13  0.3412E-07  0.4421E-11  0.8938E-04  0.0000E+00 -0.2704E+12
   -0.674990    4.02393  0.8131E-13  0.3429E-07  0.4493E-11  0.8891E-04  0.0000E+00 -0.2750E+12
   -0.712490    4.02440  0.8131E-13  0.3443E-07  0.4571E-11  0.8821E-04  0.0000E+00 -0.2805E+12
   -0.749991    4.02487  0.8131E-13  0.3453E-07  0.4654E-11  0.8729E-04  0.0000E+00 -0.2868E+12
   -0.787492    4.02534  0.8131E-13  0.3460E-07  0.4744E-11  0.8615E-04  0.0000E+00 -0.2942E+12
   -0.824993    4.02582  0.8131E-13  0.3464E-07  0.4841E-11  0.8478E-04  0.0000E+00 -0.3027E+12
   -0.862494    4.02631  0.8131E-13  0.3463E-07  0.4946E-11  0.8317E-04  0.0000E+00 -0.3126E+12
   -0.899994    4.02681  0.8131E-13  0.3459E-07  0.5060E-11  0.8135E-04  0.0000E+00 -0.3239E+12
   -0.937495    4.02732  0.8131E-13  0.3451E-07  0.5185E-11  0.7927E-04  0.0000E+00 -0.3371E+12
   -0.974996    4.02784  0.8131E-13  0.3438E-07  0.5322E-11  0.7697E-04  0.0000E+00 -0.3523E+12
   -1.012496    4.02838  0.8131E-13  0.3420E-07  0.5475E-11  0.7440E-04  0.0000E+00 -0.3704E+12
   -1.049996    4.02894  0.8131E-13  0.3397E-07  0.5648E-11  0.7153E-04  0.0000E+00 -0.3920E+12
   -1.087496    4.02952  0.8131E-13  0.3368E-07  0.5845E-11  0.6835E-04  0.0000E+00 -0.4177E+12
   -1.124996    4.03014  0.8131E-13  0.3332E-07  0.6072E-11  0.6486E-04  0.0000E+00 -0.4483E+12
   -1.162496    4.03079  0.8131E-13  0.3288E-07  0.6337E-11  0.6100E-04  0.0000E+00 -0.4859E+12
   -1.199996    4.03148  0.8131E-13  0.3235E-07  0.6651E-11  0.5678E-04  0.0000E+00 -0.5328E+12
   -1.237495    4.03223  0.8131E-13  0.3171E-07  0.7030E-11  0.5212E-04  0.0000E+00 -0.5933E+12
   -1.274994    4.03305  0.8131E-13  0.3094E-07  0.7498E-11  0.4722E-04  0.0000E+00 -0.6706E+12
   -1.312493    4.03396  0.8131E-13  0.2988E-07  0.8181E-11  0.3911E-04  0.0000E+00 -0.8320E+12
   -1.349992    4.03507  0.8131E-13  0.2822E-07  0.9345E-11  0.2453E-04  0.0000E+00 -0.1372E+13
   -1.387490    4.03684  0.8131E-13  0.2575E-07  0.1138E-10  0.1491E-04  0.0000E+00 -0.2372E+13
   -1.424988    4.03976  0.8131E-13  0.2171E-07  0.1583E-10  0.6716E-05  0.0000E+00 -0.5724E+13
   -1.462485    4.04623  0.8131E-13  0.1273E-07  0.3450E-10  0.8531E-06  0.0000E+00 -0.5775E+14
   -1.499983    4.09108  0.8131E-13  0.0000E+00  0.0000E+00  0.0000E+00  0.0000E+00  0.0000E+00
