 1 - depth, m
 2 - temperature, C
 3 - salinity, kg/kg
 4 - turbulent kinetic energy, m**2/s**2
 5 - dissipation rate, m**2/s**3
 6 - kinematic heat conductance, m**2/s
 7 - modulus of horizontal velocity, m/s
 8 - Richardson number, n/d
   -0.000000   -0.00000  0.4404E-12  0.4096E-13  0.8590E-16  0.1000E-09  0.0000E+00  0.9463E+16
   -0.037498    0.14477  0.4338E-12  0.4096E-13  0.8590E-16  0.1000E-09  0.0000E+00  0.9089E+16
   -0.074996    0.28950  0.3537E-12  0.4096E-13  0.8590E-16  0.1000E-09  0.0000E+00  0.8708E+16
   -0.112494    0.43405  0.2687E-12  0.4096E-13  0.8590E-16  0.1000E-09  0.0000E+00  0.8322E+16
   -0.149993    0.57828  0.2024E-12  0.4096E-13  0.8590E-16  0.1000E-09  0.0000E+00  0.7933E+16
   -0.187492    0.72205  0.1573E-12  0.4096E-13  0.8590E-16  0.1000E-09  0.0000E+00  0.7542E+16
   -0.224991    0.86522  0.1288E-12  0.4096E-13  0.8590E-16  0.1000E-09  0.0000E+00  0.7151E+16
   -0.262491    1.00768  0.1117E-12  0.4096E-13  0.8590E-16  0.1000E-09  0.0000E+00  0.6764E+16
   -0.299991    1.14935  0.1017E-12  0.4096E-13  0.8590E-16  0.1000E-09  0.0000E+00  0.6380E+16
   -0.337491    1.29012  0.9591E-13  0.4096E-13  0.8590E-16  0.1000E-09  0.0000E+00  0.5999E+16
   -0.374991    1.42987  0.9245E-13  0.4096E-13  0.8590E-16  0.1000E-09  0.0000E+00  0.5626E+16
   -0.412492    1.56860  0.9029E-13  0.4096E-13  0.8590E-16  0.1000E-09  0.0000E+00  0.5261E+16
   -0.449992    1.70629  0.8883E-13  0.4096E-13  0.8590E-16  0.1000E-09  0.0000E+00  0.4902E+16
   -0.487493    1.84282  0.8772E-13  0.4096E-13  0.8590E-16  0.1000E-09  0.0000E+00  0.4549E+16
   -0.524994    1.97812  0.8680E-13  0.4096E-13  0.8590E-16  0.1000E-09  0.0000E+00  0.4207E+16
   -0.562495    2.11222  0.8600E-13  0.4096E-13  0.8590E-16  0.1000E-09  0.0000E+00  0.3872E+16
   -0.599996    2.24504  0.8530E-13  0.1887E-12  0.8590E-16  0.1000E-09  0.0000E+00  0.3544E+16
   -0.637497    2.37650  0.8471E-13  0.5003E-12  0.1477E-15  0.1000E-09  0.0000E+00  0.3225E+16
   -0.674999    2.50651  0.8421E-13  0.1094E-11  0.2870E-15  0.1000E-09  0.0000E+00  0.2914E+16
   -0.712500    2.63497  0.8383E-13  0.2237E-11  0.5607E-15  0.1000E-09  0.0000E+00  0.2612E+16
   -0.750001    2.76178  0.8355E-13  0.4452E-11  0.1085E-14  0.1000E-09  0.0000E+00  0.2323E+16
   -0.787503    2.88710  0.8335E-13  0.8742E-11  0.2083E-14  0.1000E-09  0.0000E+00  0.2045E+16
   -0.825004    3.01091  0.8323E-13  0.1702E-10  0.3967E-14  0.1000E-09  0.0000E+00  0.1776E+16
   -0.862505    3.13311  0.8315E-13  0.3289E-10  0.7505E-14  0.1000E-09  0.0000E+00  0.1516E+16
   -0.900006    3.25361  0.8311E-13  0.6313E-10  0.1411E-13  0.1000E-09  0.0000E+00  0.1266E+16
   -0.937507    3.37234  0.8309E-13  0.1204E-09  0.2636E-13  0.1000E-09  0.0000E+00  0.1026E+16
   -0.975008    3.48926  0.8308E-13  0.2282E-09  0.4895E-13  0.1701E-09  0.0000E+00  0.7977E+15
   -1.012509    3.60431  0.8307E-13  0.4309E-09  0.9055E-13  0.4336E-09  0.0000E+00  0.5788E+15
   -1.050010    3.71722  0.8307E-13  0.8113E-09  0.1671E-12  0.1248E-08  0.0000E+00  0.3710E+15
   -1.087511    3.82755  0.8307E-13  0.1517E-08  0.3066E-12  0.4826E-08  0.0000E+00  0.1757E+15
   -1.125011    3.93327  0.8307E-13  0.2739E-08  0.5451E-12  0.7549E-07  0.0000E+00  0.1963E+14
   -1.162512    4.00432  0.8307E-13  0.3660E-08  0.7342E-12  0.7119E-05  0.0000E+00 -0.6378E+12
   -1.200012    4.00646  0.8307E-13  0.4093E-08  0.8506E-12  0.7525E-05  0.0000E+00 -0.6780E+12
   -1.237511    4.00850  0.8307E-13  0.4410E-08  0.9730E-12  0.7486E-05  0.0000E+00 -0.7572E+12
   -1.275011    4.01058  0.8307E-13  0.4615E-08  0.1111E-11  0.7026E-05  0.0000E+00 -0.8925E+12
   -1.312510    4.01283  0.8307E-13  0.4698E-08  0.1280E-11  0.6151E-05  0.0000E+00 -0.1129E+13
   -1.350009    4.01542  0.8307E-13  0.4625E-08  0.1510E-11  0.4873E-05  0.0000E+00 -0.1591E+13
   -1.387508    4.01872  0.8307E-13  0.4328E-08  0.1875E-11  0.3248E-05  0.0000E+00 -0.2713E+13
   -1.425007    4.02368  0.8307E-13  0.3648E-08  0.2617E-11  0.1494E-05  0.0000E+00 -0.6987E+13
   -1.462505    4.03416  0.8307E-13  0.2386E-08  0.4925E-11  0.2647E-06  0.0000E+00 -0.4674E+14
   -1.500002    4.07720  0.8307E-13  0.0000E+00  0.0000E+00  0.0000E+00  0.0000E+00  0.0000E+00
