 1 - depth, m
 2 - temperature, C
 3 - salinity, kg/kg
 4 - turbulent kinetic energy, m**2/s**2
 5 - dissipation rate, m**2/s**3
 6 - kinematic heat conductance, m**2/s
 7 - modulus of horizontal velocity, m/s
 8 - Richardson number, n/d
   -0.000000   -0.00000  0.2638E-12  0.2207E-08  0.4274E-11  0.9122E-09  0.4911E-25  0.1226E+17
   -0.037496    0.18881  0.8246E-13  0.1012E-07  0.2811E-11  0.8860E-09  0.2105E-25  0.8235E+16
   -0.074993    0.32160  0.9897E-13  0.2366E-07  0.2726E-11  0.1303E-08  0.8830E-26  0.5394E+16
   -0.112490    0.41158  0.9718E-13  0.4286E-07  0.3232E-11  0.2465E-08  0.3623E-26  0.3418E+16
   -0.149988    0.46997  0.9659E-13  0.6894E-07  0.4218E-11  0.5508E-08  0.1455E-26  0.2043E+16
   -0.187485    0.50541  0.9564E-13  0.1037E-06  0.5712E-11  0.1500E-07  0.5722E-27  0.1056E+16
   -0.224983    0.52389  0.9452E-13  0.1456E-06  0.7635E-11  0.1020E-06  0.2237E-27  0.2994E+15
   -0.262481    0.52914  0.9406E-13  0.1530E-06  0.8133E-11  0.6691E-03  0.9589E-28  0.5689E+14
   -0.299980    0.53009  0.9387E-13  0.1561E-06  0.8425E-11  0.9328E-03  0.4055E-28  0.2656E+14
   -0.337479    0.53053  0.9374E-13  0.1573E-06  0.8551E-11  0.9478E-03  0.1520E-28  0.3494E+13
   -0.374978    0.53059  0.9371E-13  0.1575E-06  0.8569E-11  0.9550E-03  0.4310E-29 -0.1657E+12
   -0.412477    0.53059  0.9371E-13  0.1577E-06  0.8582E-11  0.9545E-03  0.4176E-29 -0.2315E+12
   -0.449976    0.53058  0.9371E-13  0.1577E-06  0.8590E-11  0.9536E-03  0.4083E-29 -0.2915E+12
   -0.487475    0.53058  0.9371E-13  0.1577E-06  0.8588E-11  0.9540E-03  0.4031E-29 -0.3075E+12
   -0.524975    0.53057  0.9371E-13  0.1576E-06  0.8576E-11  0.9570E-03  0.4020E-29 -0.1250E+12
   -0.562474    0.53057  0.9371E-13  0.1573E-06  0.8554E-11  0.8473E-03  0.4008E-29  0.5927E+14
   -0.599974    0.53157  0.9354E-13  0.1480E-06  0.7791E-11  0.3599E-07  0.3117E-29  0.6698E+15
   -0.637474    0.54321  0.9264E-13  0.1072E-06  0.5676E-11  0.1219E-07  0.2308E-29  0.1339E+16
   -0.674974    0.56671  0.9184E-13  0.7661E-07  0.4087E-11  0.5966E-08  0.1654E-29  0.1933E+16
   -0.712474    0.60101  0.9112E-13  0.5438E-07  0.2926E-11  0.3309E-08  0.1152E-29  0.2473E+16
   -0.749974    0.64546  0.8993E-13  0.3841E-07  0.2085E-11  0.1909E-08  0.7860E-30  0.3038E+16
   -0.787474    0.70096  0.8822E-13  0.2699E-07  0.1480E-11  0.1141E-08  0.5278E-30  0.3595E+16
   -0.824974    0.76795  0.8705E-13  0.1888E-07  0.1047E-11  0.7004E-09  0.3504E-30  0.4130E+16
   -0.862474    0.84679  0.8698E-13  0.1314E-07  0.7378E-12  0.4420E-09  0.2297E-30  0.4650E+16
   -0.899973    0.93816  0.8632E-13  0.9084E-08  0.5187E-12  0.2897E-09  0.1474E-30  0.5157E+16
   -0.937473    1.04300  0.8553E-13  0.6230E-08  0.3645E-12  0.1997E-09  0.9029E-31  0.5649E+16
   -0.974973    1.16255  0.8500E-13  0.4224E-08  0.2571E-12  0.1470E-09  0.4897E-31  0.6118E+16
   -1.012472    1.29835  0.8501E-13  0.2812E-08  0.1840E-12  0.1208E-09  0.1651E-31  0.6158E+16
   -1.049972    1.44285  0.8507E-13  0.1807E-08  0.1365E-12  0.1074E-09  0.5059E-32  0.6177E+16
   -1.087471    1.59719  0.8501E-13  0.1096E-08  0.1107E-12  0.1035E-09  0.1508E-32  0.6274E+16
   -1.124970    1.76580  0.8501E-13  0.6149E-09  0.1082E-12  0.1038E-09  0.4370E-33  0.6892E+16
   -1.162469    1.96851  0.8499E-13  0.3479E-09  0.1449E-12  0.1118E-09  0.1229E-33  0.7452E+16
   -1.199968    2.21600  0.8498E-13  0.3626E-09  0.2997E-12  0.1528E-09  0.3352E-34  0.7728E+16
   -1.237466    2.52089  0.8496E-13  0.9648E-09  0.9178E-12  0.4097E-09  0.8857E-35  0.7396E+16
   -1.274964    2.90067  0.8492E-13  0.3356E-08  0.3177E-11  0.2848E-08  0.2264E-35  0.5838E+16
   -1.312462    3.37018  0.8484E-13  0.8626E-08  0.8540E-11  0.1629E-05  0.5593E-36  0.3225E+16
   -1.349960    3.79011  0.8478E-13  0.1585E-07  0.1730E-10  0.4940E-05  0.1333E-36  0.1046E+16
   -1.387457    4.04080  0.8476E-13  0.2232E-07  0.2888E-10  0.6267E-05  0.3047E-37  0.3783E+14
   -1.424955    4.11193  0.8475E-13  0.2492E-07  0.4436E-10  0.4697E-05  0.6390E-38 -0.4803E+14
   -1.462451    4.13456  0.8475E-13  0.2089E-07  0.8348E-10  0.1387E-05  0.3268E-38 -0.2008E+15
   -1.499948    4.20520  0.8475E-13  0.0000E+00  0.0000E+00  0.0000E+00  0.4950E-38  0.0000E+00
