 1 - depth, m
 2 - temperature, C
 3 - salinity, kg/kg
 4 - turbulent kinetic energy, m**2/s**2
 5 - dissipation rate, m**2/s**3
 6 - kinematic heat conductance, m**2/s
 7 - modulus of horizontal velocity, m/s
 8 - Richardson number, n/d
   -0.000000   -0.00000  0.7839E-09  0.4685E-10  0.3286E-13  0.1000E-09  0.0000E+00  0.2464E+17
   -0.037497    0.38998  0.5529E-10  0.1090E-09  0.2815E-13  0.1000E-09  0.0000E+00  0.2137E+17
   -0.074995    0.76873  0.2302E-11  0.2257E-09  0.3621E-13  0.1000E-09  0.0000E+00  0.1837E+17
   -0.112493    1.13672  0.1435E-12  0.4137E-09  0.5475E-13  0.1000E-09  0.0000E+00  0.1562E+17
   -0.149992    1.49436  0.8270E-13  0.7098E-09  0.8656E-13  0.1000E-09  0.0000E+00  0.1311E+17
   -0.187490    1.84202  0.8133E-13  0.1177E-08  0.1379E-12  0.1000E-09  0.0000E+00  0.1080E+17
   -0.224989    2.18001  0.8131E-13  0.1918E-08  0.2192E-12  0.1000E-09  0.0000E+00  0.8679E+16
   -0.262489    2.50867  0.8131E-13  0.3092E-08  0.3469E-12  0.1429E-09  0.0000E+00  0.6739E+16
   -0.299988    2.82831  0.8131E-13  0.4950E-08  0.5465E-12  0.3059E-09  0.0000E+00  0.4960E+16
   -0.337488    3.13906  0.8131E-13  0.7885E-08  0.8578E-12  0.7154E-09  0.0000E+00  0.3329E+16
   -0.374988    3.44085  0.8131E-13  0.1251E-07  0.1341E-11  0.2023E-08  0.0000E+00  0.1841E+16
   -0.412488    3.73335  0.8131E-13  0.1969E-07  0.2084E-11  0.1158E-07  0.0000E+00  0.5004E+15
   -0.449988    4.00256  0.8131E-13  0.2021E-07  0.2142E-11  0.6946E-04  0.0000E+00 -0.1516E+12
   -0.487489    4.00314  0.8131E-13  0.2046E-07  0.2175E-11  0.6796E-04  0.0000E+00 -0.1588E+12
   -0.524989    4.00373  0.8131E-13  0.2071E-07  0.2212E-11  0.6824E-04  0.0000E+00 -0.1628E+12
   -0.562490    4.00432  0.8131E-13  0.2093E-07  0.2252E-11  0.6845E-04  0.0000E+00 -0.1669E+12
   -0.599991    4.00490  0.8131E-13  0.2114E-07  0.2294E-11  0.6850E-04  0.0000E+00 -0.1714E+12
   -0.637492    4.00548  0.8131E-13  0.2134E-07  0.2340E-11  0.6838E-04  0.0000E+00 -0.1765E+12
   -0.674993    4.00606  0.8131E-13  0.2151E-07  0.2389E-11  0.6810E-04  0.0000E+00 -0.1820E+12
   -0.712494    4.00664  0.8131E-13  0.2167E-07  0.2442E-11  0.6764E-04  0.0000E+00 -0.1881E+12
   -0.749995    4.00722  0.8131E-13  0.2180E-07  0.2499E-11  0.6702E-04  0.0000E+00 -0.1948E+12
   -0.787496    4.00781  0.8131E-13  0.2192E-07  0.2560E-11  0.6622E-04  0.0000E+00 -0.2022E+12
   -0.824997    4.00840  0.8131E-13  0.2201E-07  0.2626E-11  0.6524E-04  0.0000E+00 -0.2104E+12
   -0.862498    4.00900  0.8131E-13  0.2208E-07  0.2696E-11  0.6409E-04  0.0000E+00 -0.2197E+12
   -0.899998    4.00961  0.8131E-13  0.2213E-07  0.2773E-11  0.6275E-04  0.0000E+00 -0.2302E+12
   -0.937499    4.01024  0.8131E-13  0.2215E-07  0.2856E-11  0.6123E-04  0.0000E+00 -0.2420E+12
   -0.975000    4.01088  0.8131E-13  0.2214E-07  0.2947E-11  0.5952E-04  0.0000E+00 -0.2555E+12
   -1.012501    4.01153  0.8131E-13  0.2210E-07  0.3048E-11  0.5759E-04  0.0000E+00 -0.2714E+12
   -1.050001    4.01221  0.8131E-13  0.2202E-07  0.3161E-11  0.5543E-04  0.0000E+00 -0.2902E+12
   -1.087501    4.01292  0.8131E-13  0.2190E-07  0.3288E-11  0.5302E-04  0.0000E+00 -0.3125E+12
   -1.125001    4.01366  0.8131E-13  0.2173E-07  0.3434E-11  0.5034E-04  0.0000E+00 -0.3389E+12
   -1.162501    4.01444  0.8131E-13  0.2151E-07  0.3602E-11  0.4737E-04  0.0000E+00 -0.3713E+12
   -1.200001    4.01527  0.8131E-13  0.2123E-07  0.3800E-11  0.4408E-04  0.0000E+00 -0.4120E+12
   -1.237501    4.01616  0.8131E-13  0.2087E-07  0.4036E-11  0.4051E-04  0.0000E+00 -0.4639E+12
   -1.275000    4.01714  0.8131E-13  0.2036E-07  0.4358E-11  0.3632E-04  0.0000E+00 -0.5362E+12
   -1.312499    4.01823  0.8131E-13  0.1959E-07  0.4854E-11  0.2556E-04  0.0000E+00 -0.7962E+12
   -1.349998    4.01979  0.8131E-13  0.1847E-07  0.5626E-11  0.1753E-04  0.0000E+00 -0.1231E+13
   -1.387496    4.02206  0.8131E-13  0.1680E-07  0.6948E-11  0.1084E-04  0.0000E+00 -0.2162E+13
   -1.424994    4.02573  0.8131E-13  0.1403E-07  0.9856E-11  0.4758E-05  0.0000E+00 -0.5645E+13
   -1.462492    4.03401  0.8131E-13  0.8365E-08  0.2135E-10  0.6486E-06  0.0000E+00 -0.5932E+14
   -1.499989    4.08560  0.8131E-13  0.0000E+00  0.0000E+00  0.0000E+00  0.0000E+00  0.0000E+00
