 1 - depth, m
 2 - temperature, C
 3 - salinity, kg/kg
 4 - turbulent kinetic energy, m**2/s**2
 5 - dissipation rate, m**2/s**3
 6 - kinematic heat conductance, m**2/s
 7 - modulus of horizontal velocity, m/s
 8 - Richardson number, n/d
   -0.000000   -0.00000  0.5881E-12  0.4096E-13  0.8590E-16  0.1000E-09  0.0000E+00  0.1043E+17
   -0.037498    0.15986  0.4568E-12  0.4096E-13  0.8590E-16  0.1000E-09  0.0000E+00  0.9919E+16
   -0.074996    0.31881  0.3353E-12  0.4096E-13  0.8590E-16  0.1000E-09  0.0000E+00  0.9417E+16
   -0.112494    0.47681  0.2379E-12  0.4096E-13  0.8590E-16  0.1000E-09  0.0000E+00  0.8924E+16
   -0.149992    0.63382  0.1742E-12  0.4096E-13  0.8590E-16  0.1000E-09  0.0000E+00  0.8438E+16
   -0.187491    0.78979  0.1369E-12  0.4096E-13  0.8590E-16  0.1000E-09  0.0000E+00  0.7958E+16
   -0.224990    0.94462  0.1160E-12  0.4096E-13  0.8590E-16  0.1000E-09  0.0000E+00  0.7486E+16
   -0.262490    1.09824  0.1042E-12  0.4096E-13  0.8590E-16  0.1000E-09  0.0000E+00  0.7023E+16
   -0.299990    1.25058  0.9747E-13  0.4096E-13  0.8590E-16  0.1000E-09  0.0000E+00  0.6568E+16
   -0.337489    1.40155  0.9356E-13  0.4096E-13  0.8590E-16  0.1000E-09  0.0000E+00  0.6121E+16
   -0.374990    1.55106  0.9122E-13  0.4096E-13  0.8590E-16  0.1000E-09  0.0000E+00  0.5692E+16
   -0.412490    1.69921  0.8971E-13  0.6296E-13  0.8590E-16  0.1000E-09  0.0000E+00  0.5277E+16
   -0.449990    1.84605  0.8859E-13  0.1776E-12  0.9028E-16  0.1000E-09  0.0000E+00  0.4869E+16
   -0.487491    1.99148  0.8766E-13  0.4662E-12  0.1207E-15  0.1000E-09  0.0000E+00  0.4471E+16
   -0.524992    2.13541  0.8679E-13  0.9861E-12  0.2094E-15  0.1000E-09  0.0000E+00  0.4085E+16
   -0.562493    2.27782  0.8599E-13  0.1906E-11  0.3782E-15  0.1000E-09  0.0000E+00  0.3709E+16
   -0.599993    2.41864  0.8526E-13  0.3550E-11  0.6817E-15  0.1000E-09  0.0000E+00  0.3344E+16
   -0.637494    2.55779  0.8463E-13  0.6499E-11  0.1221E-14  0.1000E-09  0.0000E+00  0.2991E+16
   -0.674996    2.69517  0.8411E-13  0.1179E-10  0.2173E-14  0.1000E-09  0.0000E+00  0.2648E+16
   -0.712497    2.83068  0.8372E-13  0.2125E-10  0.3849E-14  0.1000E-09  0.0000E+00  0.2318E+16
   -0.749998    2.96423  0.8345E-13  0.3812E-10  0.6785E-14  0.1000E-09  0.0000E+00  0.2005E+16
   -0.787499    3.09607  0.8327E-13  0.6806E-10  0.1191E-13  0.1000E-09  0.0000E+00  0.1704E+16
   -0.825000    3.22620  0.8317E-13  0.1210E-09  0.2081E-13  0.1000E-09  0.0000E+00  0.1414E+16
   -0.862501    3.35452  0.8311E-13  0.2141E-09  0.3622E-13  0.1072E-09  0.0000E+00  0.1136E+16
   -0.900002    3.48089  0.8309E-13  0.3772E-09  0.6277E-13  0.2009E-09  0.0000E+00  0.8686E+15
   -0.937503    3.60508  0.8308E-13  0.6616E-09  0.1083E-12  0.4897E-09  0.0000E+00  0.6136E+15
   -0.975004    3.72674  0.8307E-13  0.1155E-08  0.1861E-12  0.1377E-08  0.0000E+00  0.3721E+15
   -1.012505    3.84517  0.8307E-13  0.2007E-08  0.3184E-12  0.6028E-08  0.0000E+00  0.1468E+15
   -1.050005    3.95743  0.8307E-13  0.3071E-08  0.4874E-12  0.1652E-05  0.0000E+00  0.9139E+13
   -1.087506    3.99828  0.8307E-13  0.3736E-08  0.6031E-12  0.8119E-05  0.0000E+00 -0.3826E+12
   -1.125006    4.00033  0.8307E-13  0.4122E-08  0.6869E-12  0.8881E-05  0.0000E+00 -0.4157E+12
   -1.162506    4.00220  0.8307E-13  0.4442E-08  0.7765E-12  0.9209E-05  0.0000E+00 -0.4614E+12
   -1.200006    4.00401  0.8307E-13  0.4700E-08  0.8755E-12  0.9141E-05  0.0000E+00 -0.5263E+12
   -1.237506    4.00586  0.8307E-13  0.4890E-08  0.9893E-12  0.8700E-05  0.0000E+00 -0.6211E+12
   -1.275005    4.00783  0.8307E-13  0.5002E-08  0.1126E-11  0.7893E-05  0.0000E+00 -0.7670E+12
   -1.312504    4.01003  0.8307E-13  0.5015E-08  0.1302E-11  0.6722E-05  0.0000E+00 -0.1012E+13
   -1.350003    4.01264  0.8307E-13  0.4891E-08  0.1548E-11  0.5205E-05  0.0000E+00 -0.1483E+13
   -1.387502    4.01604  0.8307E-13  0.4553E-08  0.1945E-11  0.3404E-05  0.0000E+00 -0.2630E+13
   -1.425000    4.02126  0.8307E-13  0.3836E-08  0.2762E-11  0.1546E-05  0.0000E+00 -0.7040E+13
   -1.462498    4.03238  0.8307E-13  0.2525E-08  0.5302E-11  0.2771E-06  0.0000E+00 -0.4866E+14
   -1.499996    4.07765  0.8307E-13  0.0000E+00  0.0000E+00  0.0000E+00  0.0000E+00  0.0000E+00
