 1 - depth, m
 2 - temperature, C
 3 - salinity, kg/kg
 4 - turbulent kinetic energy, m**2/s**2
 5 - dissipation rate, m**2/s**3
 6 - kinematic heat conductance, m**2/s
 7 - modulus of horizontal velocity, m/s
 8 - Richardson number, n/d
   -0.000000   -0.00000  0.7753E-14  0.4095E-13  0.8589E-16  0.1000E-09  0.0000E+00  0.6544E+16
   -0.037498    0.09949  0.1066E-12  0.4095E-13  0.8589E-16  0.1000E-09  0.0000E+00  0.6479E+16
   -0.074997    0.20075  0.1782E-12  0.4095E-13  0.8589E-16  0.1000E-09  0.0000E+00  0.6398E+16
   -0.112495    0.30365  0.2164E-12  0.4095E-13  0.8589E-16  0.1000E-09  0.0000E+00  0.6300E+16
   -0.149995    0.40804  0.2332E-12  0.4095E-13  0.8589E-16  0.1000E-09  0.0000E+00  0.6185E+16
   -0.187494    0.51379  0.2339E-12  0.4095E-13  0.8589E-16  0.1000E-09  0.0000E+00  0.6054E+16
   -0.224994    0.62071  0.2223E-12  0.4095E-13  0.8589E-16  0.1000E-09  0.0000E+00  0.5909E+16
   -0.262494    0.72863  0.2027E-12  0.4095E-13  0.8589E-16  0.1000E-09  0.0000E+00  0.5754E+16
   -0.299994    0.83749  0.1797E-12  0.4095E-13  0.8589E-16  0.1000E-09  0.0000E+00  0.5587E+16
   -0.337494    0.94712  0.1572E-12  0.4095E-13  0.8589E-16  0.1000E-09  0.0000E+00  0.5408E+16
   -0.374995    1.05735  0.1376E-12  0.4095E-13  0.8589E-16  0.1000E-09  0.0000E+00  0.5210E+16
   -0.412496    1.16783  0.1219E-12  0.4095E-13  0.8589E-16  0.1000E-09  0.0000E+00  0.4999E+16
   -0.449997    1.27826  0.1102E-12  0.4095E-13  0.8589E-16  0.1000E-09  0.0000E+00  0.4781E+16
   -0.487498    1.38847  0.1018E-12  0.4095E-13  0.8589E-16  0.1000E-09  0.0000E+00  0.4561E+16
   -0.525000    1.49837  0.9609E-13  0.4095E-13  0.8589E-16  0.1000E-09  0.0000E+00  0.4355E+16
   -0.562501    1.60825  0.9223E-13  0.4095E-13  0.8589E-16  0.1000E-09  0.0000E+00  0.4146E+16
   -0.600002    1.71800  0.8965E-13  0.4095E-13  0.8589E-16  0.1000E-09  0.0000E+00  0.3935E+16
   -0.637504    1.82753  0.8789E-13  0.4095E-13  0.8589E-16  0.1000E-09  0.0000E+00  0.3724E+16
   -0.675006    1.93675  0.8665E-13  0.4095E-13  0.8589E-16  0.1000E-09  0.0000E+00  0.3512E+16
   -0.712507    2.04557  0.8575E-13  0.4095E-13  0.8589E-16  0.1000E-09  0.0000E+00  0.3301E+16
   -0.750009    2.15393  0.8507E-13  0.4095E-13  0.8589E-16  0.1000E-09  0.0000E+00  0.3093E+16
   -0.787511    2.26184  0.8455E-13  0.4095E-13  0.8589E-16  0.1000E-09  0.0000E+00  0.2889E+16
   -0.825012    2.36931  0.8415E-13  0.4095E-13  0.8589E-16  0.1000E-09  0.0000E+00  0.2686E+16
   -0.862514    2.47626  0.8384E-13  0.4095E-13  0.8589E-16  0.1000E-09  0.0000E+00  0.2485E+16
   -0.900016    2.58267  0.8360E-13  0.4095E-13  0.8589E-16  0.1000E-09  0.0000E+00  0.2288E+16
   -0.937517    2.68849  0.8343E-13  0.4095E-13  0.8589E-16  0.1000E-09  0.0000E+00  0.2093E+16
   -0.975019    2.79369  0.8330E-13  0.4095E-13  0.8589E-16  0.1000E-09  0.0000E+00  0.1902E+16
   -1.012520    2.89824  0.8322E-13  0.4095E-13  0.8589E-16  0.1000E-09  0.0000E+00  0.1706E+16
   -1.050021    3.00161  0.8316E-13  0.4095E-13  0.8589E-16  0.1000E-09  0.0000E+00  0.1514E+16
   -1.087522    3.10360  0.8312E-13  0.4095E-13  0.8589E-16  0.1000E-09  0.0000E+00  0.1328E+16
   -1.125023    3.20412  0.8310E-13  0.4095E-13  0.8589E-16  0.1000E-09  0.0000E+00  0.1161E+16
   -1.162524    3.30422  0.8309E-13  0.4881E-13  0.8673E-16  0.1000E-09  0.0000E+00  0.9988E+15
   -1.200024    3.40407  0.8308E-13  0.1956E-12  0.2445E-15  0.1000E-09  0.0000E+00  0.8381E+15
   -1.237524    3.50372  0.8308E-13  0.8045E-12  0.9578E-15  0.1000E-09  0.0000E+00  0.6791E+15
   -1.275024    3.60319  0.8307E-13  0.3223E-11  0.3746E-14  0.1000E-09  0.0000E+00  0.5216E+15
   -1.312524    3.70252  0.8307E-13  0.1270E-10  0.1449E-13  0.1095E-09  0.0000E+00  0.3654E+15
   -1.350024    3.80174  0.8307E-13  0.4923E-10  0.5558E-13  0.6461E-09  0.0000E+00  0.2096E+15
   -1.387523    3.90050  0.8307E-13  0.1870E-09  0.2125E-12  0.6906E-08  0.0000E+00  0.5721E+14
   -1.425022    3.99494  0.8307E-13  0.6575E-09  0.8159E-12  0.1689E-06  0.0000E+00 -0.2194E+14
   -1.462520    4.04024  0.8307E-13  0.9557E-09  0.1994E-11  0.1413E-06  0.0000E+00 -0.6097E+14
   -1.500018    4.08976  0.8307E-13  0.0000E+00  0.0000E+00  0.0000E+00  0.0000E+00  0.0000E+00
