 1 - depth, m
 2 - temperature, C
 3 - salinity, kg/kg
 4 - turbulent kinetic energy, m**2/s**2
 5 - dissipation rate, m**2/s**3
 6 - kinematic heat conductance, m**2/s
 7 - modulus of horizontal velocity, m/s
 8 - Richardson number, n/d
   -0.000000   18.05097  0.9468E-13  0.1521E-04  0.1245E-05  0.2116E-04  0.2031E-01 -0.5468E-01
   -0.037498   18.08534  0.9468E-13  0.1245E-04  0.4344E-06  0.5055E-04  0.1149E-01 -0.1494E+00
   -0.074996   18.09825  0.9468E-13  0.1100E-04  0.2311E-06  0.1114E-03  0.8388E-02  0.4510E+02
   -0.112494   18.10533  0.9469E-13  0.1011E-04  0.1471E-06  0.1559E-03  0.6672E-02  0.3500E+01
   -0.149992   18.11019  0.9469E-13  0.9575E-05  0.1038E-06  0.2211E-03  0.5529E-02  0.3129E+01
   -0.187491   18.11337  0.9469E-13  0.9304E-05  0.8071E-07  0.3672E-03  0.4733E-02  0.6651E+01
   -0.224991   18.11497  0.9469E-13  0.9215E-05  0.6662E-07  0.3909E-03  0.4215E-02  0.3633E+01
   -0.262490   18.11645  0.9469E-13  0.9187E-05  0.5588E-07  0.4302E-03  0.3723E-02  0.3667E+01
   -0.299990   18.11777  0.9469E-13  0.9206E-05  0.4795E-07  0.4620E-03  0.3306E-02  0.3372E+01
   -0.337490   18.11898  0.9469E-13  0.9245E-05  0.4179E-07  0.4990E-03  0.2938E-02  0.3179E+01
   -0.374990   18.12009  0.9469E-13  0.9290E-05  0.3688E-07  0.5388E-03  0.2613E-02  0.2991E+01
   -0.412490   18.12109  0.9469E-13  0.9328E-05  0.3282E-07  0.5796E-03  0.2325E-02  0.2825E+01
   -0.449991   18.12202  0.9469E-13  0.9350E-05  0.2943E-07  0.6324E-03  0.2068E-02  0.2699E+01
   -0.487491   18.12285  0.9469E-13  0.9349E-05  0.2635E-07  0.6697E-03  0.1847E-02  0.2672E+01
   -0.524992   18.12363  0.9469E-13  0.9325E-05  0.2481E-07  0.1072E-02  0.1623E-02  0.1743E+01
   -0.562493   18.12410  0.9469E-13  0.9304E-05  0.2391E-07  0.1181E-02  0.1551E-02  0.1866E+01
   -0.599994   18.12452  0.9469E-13  0.9277E-05  0.2313E-07  0.1102E-02  0.1479E-02  0.1438E+01
   -0.637495   18.12497  0.9469E-13  0.9246E-05  0.2251E-07  0.1200E-02  0.1410E-02  0.1745E+01
   -0.674996   18.12538  0.9469E-13  0.9196E-05  0.2184E-07  0.7780E-03  0.1357E-02  0.1957E+01
   -0.712497   18.12601  0.9469E-13  0.9062E-05  0.2068E-07  0.8067E-03  0.1208E-02  0.2163E+01
   -0.749998   18.12661  0.9469E-13  0.8976E-05  0.2018E-07  0.1238E-02  0.1065E-02  0.1593E+01
   -0.787500   18.12699  0.9469E-13  0.8913E-05  0.1993E-07  0.1213E-02  0.1023E-02  0.1695E+01
   -0.825001   18.12738  0.9469E-13  0.8811E-05  0.1967E-07  0.8693E-03  0.9859E-03  0.1752E+01
   -0.862502   18.12793  0.9469E-13  0.8577E-05  0.1925E-07  0.8470E-03  0.8777E-03  0.1806E+01
   -0.900003   18.12850  0.9469E-13  0.8446E-05  0.1911E-07  0.1196E-02  0.7774E-03  0.1471E+01
   -0.937504   18.12888  0.9469E-13  0.8351E-05  0.1909E-07  0.1059E-02  0.7468E-03  0.1929E+01
   -0.975005   18.12932  0.9469E-13  0.8204E-05  0.1912E-07  0.8931E-03  0.7192E-03  0.1533E+01
   -1.012506   18.12984  0.9469E-13  0.7926E-05  0.1927E-07  0.8582E-03  0.6441E-03  0.1460E+01
   -1.050006   18.13037  0.9469E-13  0.7665E-05  0.1952E-07  0.8407E-03  0.5846E-03  0.1327E+01
   -1.087507   18.13091  0.9469E-13  0.7416E-05  0.1986E-07  0.7966E-03  0.5359E-03  0.1209E+01
   -1.125007   18.13147  0.9469E-13  0.7181E-05  0.2029E-07  0.7366E-03  0.4970E-03  0.1155E+01
   -1.162507   18.13208  0.9469E-13  0.6955E-05  0.2082E-07  0.6793E-03  0.4658E-03  0.1233E+01
   -1.200007   18.13274  0.9469E-13  0.6726E-05  0.2150E-07  0.6264E-03  0.4406E-03  0.1544E+01
   -1.237507   18.13346  0.9469E-13  0.6477E-05  0.2241E-07  0.5679E-03  0.4192E-03  0.2343E+01
   -1.275006   18.13424  0.9469E-13  0.6189E-05  0.2372E-07  0.4932E-03  0.3992E-03  0.4047E+01
   -1.312506   18.13514  0.9469E-13  0.5847E-05  0.2564E-07  0.4183E-03  0.3800E-03  0.8066E+01
   -1.350004   18.13620  0.9469E-13  0.5431E-05  0.2868E-07  0.3124E-03  0.3617E-03  0.2109E+02
   -1.387503   18.13762  0.9469E-13  0.4910E-05  0.3396E-07  0.2730E-03  0.3434E-03  0.6329E+02
   -1.425001   18.13924  0.9469E-13  0.4075E-05  0.4922E-07  0.1165E-03  0.3290E-03 -0.3887E+03
   -1.462499   18.14609  0.9469E-13  0.2320E-05  0.1123E-06  0.3211E-04  0.3069E-03 -0.8378E+04
   -1.499997   18.16075  0.9469E-13  0.0000E+00  0.0000E+00  0.0000E+00  0.3108E-03  0.0000E+00
