 1 - depth, m
 2 - temperature, C
 3 - salinity, kg/kg
 4 - turbulent kinetic energy, m**2/s**2
 5 - dissipation rate, m**2/s**3
 6 - kinematic heat conductance, m**2/s
 7 - modulus of horizontal velocity, m/s
 8 - Richardson number, n/d
   -0.000000   -0.00000  0.1200E-08  0.9304E-10  0.7895E-13  0.1000E-09  0.0000E+00  0.2834E+17
   -0.037497    0.45239  0.0000E+00  0.2427E-09  0.7068E-13  0.1000E-09  0.0000E+00  0.2374E+17
   -0.074995    0.88526  0.8466E-12  0.5312E-09  0.9925E-13  0.1000E-09  0.0000E+00  0.1971E+17
   -0.112493    1.30022  0.3918E-15  0.1019E-08  0.1623E-12  0.1000E-09  0.0000E+00  0.1616E+17
   -0.149991    1.69868  0.8730E-13  0.1836E-08  0.2748E-12  0.1004E-09  0.0000E+00  0.1302E+17
   -0.187490    2.08195  0.8102E-13  0.3214E-08  0.4669E-12  0.1268E-09  0.0000E+00  0.1023E+17
   -0.224988    2.45125  0.8132E-13  0.5554E-08  0.7917E-12  0.2838E-09  0.0000E+00  0.7742E+16
   -0.262488    2.80771  0.8131E-13  0.9524E-08  0.1338E-11  0.6712E-09  0.0000E+00  0.5528E+16
   -0.299987    3.15296  0.8131E-13  0.1624E-07  0.2252E-11  0.1762E-08  0.0000E+00  0.3539E+16
   -0.337486    3.48959  0.8131E-13  0.2750E-07  0.3767E-11  0.6468E-08  0.0000E+00  0.1696E+16
   -0.374986    3.81806  0.8131E-13  0.4187E-07  0.5651E-11  0.9907E-05  0.0000E+00  0.2401E+15
   -0.412486    4.02930  0.8131E-13  0.4266E-07  0.5766E-11  0.1083E-03  0.0000E+00 -0.3107E+12
   -0.449986    4.02976  0.8131E-13  0.4305E-07  0.5832E-11  0.1061E-03  0.0000E+00 -0.3174E+12
   -0.487487    4.03022  0.8131E-13  0.4340E-07  0.5903E-11  0.1064E-03  0.0000E+00 -0.3180E+12
   -0.524987    4.03068  0.8131E-13  0.4371E-07  0.5977E-11  0.1066E-03  0.0000E+00 -0.3191E+12
   -0.562488    4.03114  0.8131E-13  0.4397E-07  0.6056E-11  0.1066E-03  0.0000E+00 -0.3213E+12
   -0.599988    4.03160  0.8131E-13  0.4420E-07  0.6140E-11  0.1062E-03  0.0000E+00 -0.3242E+12
   -0.637489    4.03205  0.8131E-13  0.4438E-07  0.6229E-11  0.1057E-03  0.0000E+00 -0.3282E+12
   -0.674990    4.03251  0.8131E-13  0.4452E-07  0.6324E-11  0.1049E-03  0.0000E+00 -0.3331E+12
   -0.712490    4.03297  0.8131E-13  0.4462E-07  0.6425E-11  0.1038E-03  0.0000E+00 -0.3391E+12
   -0.749991    4.03343  0.8131E-13  0.4467E-07  0.6534E-11  0.1025E-03  0.0000E+00 -0.3459E+12
   -0.787492    4.03390  0.8131E-13  0.4468E-07  0.6651E-11  0.1010E-03  0.0000E+00 -0.3539E+12
   -0.824993    4.03437  0.8131E-13  0.4465E-07  0.6777E-11  0.9915E-04  0.0000E+00 -0.3632E+12
   -0.862494    4.03485  0.8131E-13  0.4457E-07  0.6915E-11  0.9709E-04  0.0000E+00 -0.3741E+12
   -0.899994    4.03534  0.8131E-13  0.4444E-07  0.7065E-11  0.9477E-04  0.0000E+00 -0.3867E+12
   -0.937495    4.03584  0.8131E-13  0.4426E-07  0.7230E-11  0.9219E-04  0.0000E+00 -0.4014E+12
   -0.974995    4.03635  0.8131E-13  0.4403E-07  0.7412E-11  0.8935E-04  0.0000E+00 -0.4182E+12
   -1.012496    4.03688  0.8131E-13  0.4373E-07  0.7614E-11  0.8621E-04  0.0000E+00 -0.4386E+12
   -1.049996    4.03743  0.8131E-13  0.4337E-07  0.7845E-11  0.8275E-04  0.0000E+00 -0.4626E+12
   -1.087496    4.03801  0.8131E-13  0.4294E-07  0.8109E-11  0.7894E-04  0.0000E+00 -0.4916E+12
   -1.124996    4.03861  0.8131E-13  0.4242E-07  0.8414E-11  0.7479E-04  0.0000E+00 -0.5259E+12
   -1.162496    4.03925  0.8131E-13  0.4180E-07  0.8772E-11  0.7024E-04  0.0000E+00 -0.5681E+12
   -1.199996    4.03993  0.8131E-13  0.4107E-07  0.9198E-11  0.6530E-04  0.0000E+00 -0.6207E+12
   -1.237495    4.04066  0.8131E-13  0.4022E-07  0.9714E-11  0.5989E-04  0.0000E+00 -0.6884E+12
   -1.274994    4.04147  0.8131E-13  0.3920E-07  0.1035E-10  0.5412E-04  0.0000E+00 -0.7761E+12
   -1.312493    4.04236  0.8131E-13  0.3789E-07  0.1124E-10  0.4719E-04  0.0000E+00 -0.9072E+12
   -1.349991    4.04338  0.8131E-13  0.3592E-07  0.1272E-10  0.2981E-04  0.0000E+00 -0.1476E+13
   -1.387490    4.04502  0.8131E-13  0.3287E-07  0.1544E-10  0.1759E-04  0.0000E+00 -0.2599E+13
   -1.424988    4.04779  0.8131E-13  0.2789E-07  0.2138E-10  0.8002E-05  0.0000E+00 -0.6109E+13
   -1.462485    4.05385  0.8131E-13  0.1648E-07  0.4685E-10  0.1020E-05  0.0000E+00 -0.5931E+14
   -1.499982    4.09654  0.8131E-13  0.0000E+00  0.0000E+00  0.0000E+00  0.0000E+00  0.0000E+00
