 1 - depth, m
 2 - temperature, C
 3 - salinity, kg/kg
 4 - turbulent kinetic energy, m**2/s**2
 5 - dissipation rate, m**2/s**3
 6 - kinematic heat conductance, m**2/s
 7 - modulus of horizontal velocity, m/s
 8 - Richardson number, n/d
   -0.000000   -0.00000  0.1761E-14  0.3119E-10  0.2636E-13  0.1000E-09  0.0000E+00  0.2276E+17
   -0.037499    0.35891  0.7583E-14  0.8281E-10  0.3499E-13  0.1000E-09  0.0000E+00  0.1819E+17
   -0.074997    0.67569  0.2582E-13  0.2068E-09  0.7245E-13  0.1000E-09  0.0000E+00  0.1496E+17
   -0.112497    0.96269  0.5785E-13  0.4837E-09  0.1607E-12  0.1053E-09  0.0000E+00  0.1262E+17
   -0.149996    1.22911  0.9838E-13  0.1101E-08  0.3564E-12  0.1424E-09  0.0000E+00  0.1087E+17
   -0.187496    1.48250  0.1396E-12  0.2475E-08  0.7840E-12  0.2601E-09  0.0000E+00  0.9571E+16
   -0.224996    1.73027  0.1742E-12  0.5511E-08  0.1710E-11  0.5468E-09  0.0000E+00  0.8637E+16
   -0.262497    1.98206  0.1974E-12  0.1215E-07  0.3691E-11  0.1146E-08  0.0000E+00  0.8124E+16
   -0.299997    2.25723  0.2077E-12  0.2648E-07  0.7877E-11  0.2458E-08  0.0000E+00  0.7712E+16
   -0.337498    2.58560  0.2043E-12  0.5630E-07  0.1643E-10  0.1033E-07  0.0000E+00  0.6486E+16
   -0.374999    2.99025  0.1815E-12  0.8713E-07  0.2497E-10  0.3029E-04  0.0000E+00  0.4678E+16
   -0.412500    3.36211  0.1544E-12  0.1129E-06  0.3185E-10  0.7085E-04  0.0000E+00  0.2985E+16
   -0.450002    3.66592  0.1306E-12  0.1317E-06  0.3675E-10  0.1082E-03  0.0000E+00  0.1570E+16
   -0.487503    3.88411  0.1125E-12  0.1430E-06  0.3961E-10  0.1380E-03  0.0000E+00  0.6070E+15
   -0.525005    4.01781  0.9950E-13  0.1485E-06  0.4093E-10  0.1582E-03  0.0000E+00  0.9815E+14
   -0.562507    4.08131  0.9710E-13  0.1496E-06  0.4147E-10  0.1774E-03  0.0000E+00 -0.1157E+13
   -0.600009    4.08209  0.9707E-13  0.1505E-06  0.4203E-10  0.1765E-03  0.0000E+00 -0.1180E+13
   -0.637511    4.08289  0.9705E-13  0.1513E-06  0.4263E-10  0.1759E-03  0.0000E+00 -0.1199E+13
   -0.675013    4.08369  0.9702E-13  0.1519E-06  0.4328E-10  0.1747E-03  0.0000E+00 -0.1229E+13
   -0.712515    4.08450  0.9700E-13  0.1524E-06  0.4399E-10  0.1731E-03  0.0000E+00 -0.1260E+13
   -0.750017    4.08532  0.9698E-13  0.1527E-06  0.4477E-10  0.1710E-03  0.0000E+00 -0.1294E+13
   -0.787519    4.08616  0.9696E-13  0.1529E-06  0.4560E-10  0.1685E-03  0.0000E+00 -0.1327E+13
   -0.825021    4.08701  0.9694E-13  0.1530E-06  0.4652E-10  0.1655E-03  0.0000E+00 -0.1372E+13
   -0.862523    4.08788  0.9692E-13  0.1528E-06  0.4751E-10  0.1620E-03  0.0000E+00 -0.1419E+13
   -0.900025    4.08877  0.9690E-13  0.1526E-06  0.4861E-10  0.1580E-03  0.0000E+00 -0.1479E+13
   -0.937527    4.08969  0.9688E-13  0.1521E-06  0.4982E-10  0.1535E-03  0.0000E+00 -0.1544E+13
   -0.975029    4.09065  0.9686E-13  0.1514E-06  0.5116E-10  0.1486E-03  0.0000E+00 -0.1625E+13
   -1.012531    4.09164  0.9684E-13  0.1505E-06  0.5267E-10  0.1431E-03  0.0000E+00 -0.1715E+13
   -1.050032    4.09268  0.9683E-13  0.1494E-06  0.5439E-10  0.1370E-03  0.0000E+00 -0.1828E+13
   -1.087534    4.09378  0.9681E-13  0.1480E-06  0.5636E-10  0.1303E-03  0.0000E+00 -0.1957E+13
   -1.125035    4.09494  0.9679E-13  0.1463E-06  0.5866E-10  0.1230E-03  0.0000E+00 -0.2114E+13
   -1.162536    4.09619  0.9678E-13  0.1442E-06  0.6136E-10  0.1151E-03  0.0000E+00 -0.2301E+13
   -1.200037    4.09752  0.9677E-13  0.1417E-06  0.6461E-10  0.1065E-03  0.0000E+00 -0.2542E+13
   -1.237538    4.09898  0.9675E-13  0.1387E-06  0.6857E-10  0.9720E-04  0.0000E+00 -0.2846E+13
   -1.275038    4.10060  0.9674E-13  0.1352E-06  0.7353E-10  0.8716E-04  0.0000E+00 -0.3257E+13
   -1.312538    4.10242  0.9672E-13  0.1308E-06  0.7998E-10  0.7600E-04  0.0000E+00 -0.3831E+13
   -1.350038    4.10453  0.9671E-13  0.1255E-06  0.8877E-10  0.6438E-04  0.0000E+00 -0.4657E+13
   -1.387537    4.10707  0.9670E-13  0.1177E-06  0.1039E-09  0.4365E-04  0.0000E+00 -0.7151E+13
   -1.425037    4.11094  0.9669E-13  0.1032E-06  0.1405E-09  0.1767E-04  0.0000E+00 -0.1861E+14
   -1.462536    4.12029  0.9667E-13  0.6220E-07  0.3202E-09  0.2219E-05  0.0000E+00 -0.1827E+15
   -1.500034    4.18898  0.9662E-13  0.0000E+00  0.0000E+00  0.0000E+00  0.0000E+00  0.0000E+00
