 1 - depth, m
 2 - temperature, C
 3 - salinity, kg/kg
 4 - turbulent kinetic energy, m**2/s**2
 5 - dissipation rate, m**2/s**3
 6 - kinematic heat conductance, m**2/s
 7 - modulus of horizontal velocity, m/s
 8 - Richardson number, n/d
   -0.000000   -0.00000  0.2592E-11  0.7141E-09  0.1043E-11  0.1031E-09  0.0000E+00  0.3477E+17
   -0.037497    0.56412  0.0000E+00  0.2678E-08  0.9733E-12  0.1108E-09  0.0000E+00  0.2780E+17
   -0.074994    1.09922  0.1135E-12  0.6529E-08  0.1532E-11  0.1884E-09  0.0000E+00  0.2239E+17
   -0.112492    1.62252  0.8153E-13  0.1338E-07  0.2740E-11  0.4239E-09  0.0000E+00  0.1789E+17
   -0.149989    2.15120  0.8752E-13  0.2559E-07  0.4971E-11  0.1019E-08  0.0000E+00  0.1366E+17
   -0.187488    2.70115  0.8622E-13  0.4748E-07  0.8953E-11  0.2895E-08  0.0000E+00  0.9089E+16
   -0.224986    3.28183  0.8496E-13  0.8599E-07  0.1587E-10  0.1840E-07  0.0000E+00  0.3833E+16
   -0.262485    3.85077  0.8213E-13  0.1093E-06  0.2014E-10  0.1021E-03  0.0000E+00  0.4828E+15
   -0.299984    4.06278  0.8112E-13  0.1103E-06  0.2036E-10  0.1934E-03  0.0000E+00 -0.5908E+12
   -0.337483    4.06327  0.8112E-13  0.1110E-06  0.2052E-10  0.1921E-03  0.0000E+00 -0.5908E+12
   -0.374982    4.06376  0.8112E-13  0.1115E-06  0.2069E-10  0.1924E-03  0.0000E+00 -0.5918E+12
   -0.412482    4.06425  0.8112E-13  0.1120E-06  0.2088E-10  0.1924E-03  0.0000E+00 -0.5938E+12
   -0.449981    4.06474  0.8112E-13  0.1124E-06  0.2108E-10  0.1920E-03  0.0000E+00 -0.5979E+12
   -0.487481    4.06522  0.8112E-13  0.1127E-06  0.2129E-10  0.1912E-03  0.0000E+00 -0.6029E+12
   -0.524981    4.06571  0.8112E-13  0.1130E-06  0.2152E-10  0.1901E-03  0.0000E+00 -0.6078E+12
   -0.562481    4.06620  0.8112E-13  0.1131E-06  0.2176E-10  0.1887E-03  0.0000E+00 -0.6141E+12
   -0.599982    4.06669  0.8112E-13  0.1132E-06  0.2202E-10  0.1868E-03  0.0000E+00 -0.6224E+12
   -0.637482    4.06718  0.8112E-13  0.1132E-06  0.2230E-10  0.1847E-03  0.0000E+00 -0.6322E+12
   -0.674982    4.06768  0.8112E-13  0.1131E-06  0.2260E-10  0.1821E-03  0.0000E+00 -0.6443E+12
   -0.712483    4.06819  0.8111E-13  0.1129E-06  0.2293E-10  0.1792E-03  0.0000E+00 -0.6581E+12
   -0.749983    4.06870  0.8111E-13  0.1127E-06  0.2328E-10  0.1759E-03  0.0000E+00 -0.6729E+12
   -0.787483    4.06922  0.8111E-13  0.1123E-06  0.2366E-10  0.1723E-03  0.0000E+00 -0.6893E+12
   -0.824984    4.06975  0.8111E-13  0.1119E-06  0.2408E-10  0.1683E-03  0.0000E+00 -0.7086E+12
   -0.862484    4.07029  0.8111E-13  0.1113E-06  0.2453E-10  0.1639E-03  0.0000E+00 -0.7306E+12
   -0.899984    4.07084  0.8111E-13  0.1106E-06  0.2503E-10  0.1591E-03  0.0000E+00 -0.7562E+12
   -0.937485    4.07141  0.8111E-13  0.1099E-06  0.2559E-10  0.1540E-03  0.0000E+00 -0.7856E+12
   -0.974985    4.07200  0.8111E-13  0.1090E-06  0.2620E-10  0.1485E-03  0.0000E+00 -0.8199E+12
   -1.012485    4.07261  0.8111E-13  0.1080E-06  0.2690E-10  0.1425E-03  0.0000E+00 -0.8615E+12
   -1.049985    4.07324  0.8111E-13  0.1068E-06  0.2769E-10  0.1360E-03  0.0000E+00 -0.9115E+12
   -1.087484    4.07391  0.8111E-13  0.1054E-06  0.2860E-10  0.1291E-03  0.0000E+00 -0.9708E+12
   -1.124984    4.07462  0.8111E-13  0.1039E-06  0.2967E-10  0.1216E-03  0.0000E+00 -0.1040E+13
   -1.162483    4.07536  0.8111E-13  0.1022E-06  0.3093E-10  0.1137E-03  0.0000E+00 -0.1123E+13
   -1.199982    4.07617  0.8111E-13  0.1002E-06  0.3244E-10  0.1051E-03  0.0000E+00 -0.1227E+13
   -1.237481    4.07703  0.8111E-13  0.9785E-07  0.3428E-10  0.9599E-04  0.0000E+00 -0.1359E+13
   -1.274980    4.07798  0.8111E-13  0.9519E-07  0.3658E-10  0.8619E-04  0.0000E+00 -0.1533E+13
   -1.312478    4.07905  0.8111E-13  0.9210E-07  0.3955E-10  0.7616E-04  0.0000E+00 -0.1761E+13
   -1.349977    4.08025  0.8111E-13  0.8803E-07  0.4400E-10  0.6308E-04  0.0000E+00 -0.2152E+13
   -1.387474    4.08170  0.8111E-13  0.8158E-07  0.5247E-10  0.3176E-04  0.0000E+00 -0.4381E+13
   -1.424972    4.08460  0.8111E-13  0.7042E-07  0.7206E-10  0.1432E-04  0.0000E+00 -0.1016E+14
   -1.462469    4.09100  0.8111E-13  0.4192E-07  0.1626E-09  0.1795E-05  0.0000E+00 -0.9628E+14
   -1.499966    4.13886  0.8111E-13  0.0000E+00  0.0000E+00  0.0000E+00  0.0000E+00  0.0000E+00
