 1 - depth, m
 2 - temperature, C
 3 - salinity, kg/kg
 4 - turbulent kinetic energy, m**2/s**2
 5 - dissipation rate, m**2/s**3
 6 - kinematic heat conductance, m**2/s
 7 - modulus of horizontal velocity, m/s
 8 - Richardson number, n/d
   -0.000000   -0.00000  0.8793E-11  0.4274E-08  0.9848E-11  0.5153E-09  0.0000E+00  0.5260E+17
   -0.037498    0.89552  0.4110E-10  0.2280E-07  0.9285E-11  0.6612E-09  0.0000E+00  0.3870E+17
   -0.074996    1.79151  0.7310E-10  0.5966E-07  0.1547E-10  0.1679E-08  0.0000E+00  0.2543E+17
   -0.112495    2.70170  0.6829E-10  0.1267E-06  0.2894E-10  0.7448E-08  0.0000E+00  0.1180E+17
   -0.149994    3.62032  0.1548E-10  0.2046E-06  0.4508E-10  0.5415E-04  0.0000E+00  0.1293E+16
   -0.187493    4.11417  0.8544E-11  0.2065E-06  0.4553E-10  0.2974E-03  0.0000E+00 -0.9819E+12
   -0.224993    4.11466  0.8542E-11  0.2074E-06  0.4578E-10  0.2945E-03  0.0000E+00 -0.9528E+12
   -0.262493    4.11513  0.8539E-11  0.2081E-06  0.4604E-10  0.2950E-03  0.0000E+00 -0.9416E+12
   -0.299993    4.11561  0.8537E-11  0.2087E-06  0.4631E-10  0.2950E-03  0.0000E+00 -0.9334E+12
   -0.337493    4.11607  0.8534E-11  0.2092E-06  0.4660E-10  0.2945E-03  0.0000E+00 -0.9282E+12
   -0.374994    4.11653  0.8532E-11  0.2095E-06  0.4690E-10  0.2936E-03  0.0000E+00 -0.9228E+12
   -0.412495    4.11699  0.8530E-11  0.2096E-06  0.4722E-10  0.2922E-03  0.0000E+00 -0.9187E+12
   -0.449996    4.11744  0.8528E-11  0.2096E-06  0.4757E-10  0.2903E-03  0.0000E+00 -0.9169E+12
   -0.487497    4.11789  0.8525E-11  0.2095E-06  0.4794E-10  0.2879E-03  0.0000E+00 -0.9172E+12
   -0.524998    4.11834  0.8523E-11  0.2092E-06  0.4833E-10  0.2850E-03  0.0000E+00 -0.9191E+12
   -0.562499    4.11879  0.8521E-11  0.2088E-06  0.4876E-10  0.2816E-03  0.0000E+00 -0.9235E+12
   -0.600001    4.11924  0.8519E-11  0.2082E-06  0.4922E-10  0.2777E-03  0.0000E+00 -0.9301E+12
   -0.637502    4.11969  0.8517E-11  0.2075E-06  0.4972E-10  0.2734E-03  0.0000E+00 -0.9393E+12
   -0.675004    4.12014  0.8515E-11  0.2067E-06  0.5026E-10  0.2686E-03  0.0000E+00 -0.9509E+12
   -0.712505    4.12060  0.8513E-11  0.2057E-06  0.5086E-10  0.2632E-03  0.0000E+00 -0.9654E+12
   -0.750007    4.12106  0.8511E-11  0.2045E-06  0.5151E-10  0.2574E-03  0.0000E+00 -0.9826E+12
   -0.787508    4.12152  0.8510E-11  0.2033E-06  0.5222E-10  0.2512E-03  0.0000E+00 -0.1003E+13
   -0.825010    4.12200  0.8508E-11  0.2018E-06  0.5301E-10  0.2444E-03  0.0000E+00 -0.1027E+13
   -0.862511    4.12249  0.8506E-11  0.2002E-06  0.5388E-10  0.2371E-03  0.0000E+00 -0.1055E+13
   -0.900013    4.12298  0.8505E-11  0.1985E-06  0.5486E-10  0.2293E-03  0.0000E+00 -0.1088E+13
   -0.937514    4.12349  0.8503E-11  0.1965E-06  0.5595E-10  0.2210E-03  0.0000E+00 -0.1126E+13
   -0.975015    4.12402  0.8501E-11  0.1944E-06  0.5718E-10  0.2123E-03  0.0000E+00 -0.1171E+13
   -1.012517    4.12456  0.8500E-11  0.1920E-06  0.5857E-10  0.2030E-03  0.0000E+00 -0.1224E+13
   -1.050018    4.12513  0.8499E-11  0.1894E-06  0.6019E-10  0.1930E-03  0.0000E+00 -0.1287E+13
   -1.087519    4.12572  0.8497E-11  0.1866E-06  0.6207E-10  0.1824E-03  0.0000E+00 -0.1362E+13
   -1.125019    4.12635  0.8496E-11  0.1834E-06  0.6430E-10  0.1711E-03  0.0000E+00 -0.1453E+13
   -1.162520    4.12701  0.8494E-11  0.1798E-06  0.6695E-10  0.1591E-03  0.0000E+00 -0.1565E+13
   -1.200020    4.12772  0.8493E-11  0.1758E-06  0.7015E-10  0.1465E-03  0.0000E+00 -0.1703E+13
   -1.237520    4.12849  0.8492E-11  0.1713E-06  0.7411E-10  0.1331E-03  0.0000E+00 -0.1880E+13
   -1.275020    4.12933  0.8490E-11  0.1663E-06  0.7910E-10  0.1189E-03  0.0000E+00 -0.2111E+13
   -1.312520    4.13028  0.8489E-11  0.1605E-06  0.8558E-10  0.1040E-03  0.0000E+00 -0.2426E+13
   -1.350019    4.13135  0.8488E-11  0.1538E-06  0.9449E-10  0.8956E-04  0.0000E+00 -0.2827E+13
   -1.387518    4.13259  0.8487E-11  0.1438E-06  0.1107E-09  0.4819E-04  0.0000E+00 -0.5287E+13
   -1.425017    4.13490  0.8486E-11  0.1250E-06  0.1515E-09  0.2018E-04  0.0000E+00 -0.1289E+14
   -1.462515    4.14035  0.8483E-11  0.7194E-07  0.3561E-09  0.2253E-05  0.0000E+00 -0.1278E+15
   -1.500013    4.18658  0.8477E-11  0.0000E+00  0.0000E+00  0.0000E+00  0.0000E+00  0.0000E+00
