 1 - depth, m
 2 - temperature, C
 3 - salinity, kg/kg
 4 - turbulent kinetic energy, m**2/s**2
 5 - dissipation rate, m**2/s**3
 6 - kinematic heat conductance, m**2/s
 7 - modulus of horizontal velocity, m/s
 8 - Richardson number, n/d
   -0.000000    2.55478  0.8466E-13  0.2920E-03  0.3710E-03  0.6140E-04  0.1670E+00 -0.1001E-02
   -0.037498    2.63653  0.8466E-13  0.1507E-03  0.1020E-03  0.1163E-03  0.5247E-01 -0.4590E-02
   -0.074996    2.65361  0.8466E-13  0.1027E-03  0.3522E-04  0.1310E-03  0.3591E-01  0.1006E-01
   -0.112494    2.66606  0.8466E-13  0.7903E-04  0.1839E-04  0.1269E-03  0.2987E-01  0.1434E-01
   -0.149993    2.67657  0.8466E-13  0.6330E-04  0.1078E-04  0.1239E-03  0.2569E-01  0.2548E-01
   -0.187492    2.68589  0.8466E-13  0.5141E-04  0.6547E-05  0.1217E-03  0.2236E-01  0.4425E-01
   -0.224991    2.69522  0.8466E-13  0.4224E-04  0.4068E-05  0.1201E-03  0.1959E-01  0.8883E-01
   -0.262490    2.70565  0.8466E-13  0.3511E-04  0.2529E-05  0.1176E-03  0.1736E-01  0.2296E+00
   -0.299990    2.72559  0.8467E-13  0.2946E-04  0.1574E-05  0.1150E-03  0.1541E-01  0.8974E+00
   -0.337490    2.76014  0.8467E-13  0.2494E-04  0.9920E-06  0.1124E-03  0.1368E-01  0.4374E+01
   -0.374990    2.80004  0.8468E-13  0.2127E-04  0.6438E-06  0.1097E-03  0.1217E-01  0.3523E+02
   -0.412490    2.84834  0.8468E-13  0.1829E-04  0.4365E-06  0.1076E-03  0.1085E-01  0.5595E+03
   -0.449991    2.94408  0.8469E-13  0.1587E-04  0.3105E-06  0.1065E-03  0.9677E-02  0.1527E+05
   -0.487492    3.12268  0.8471E-13  0.1396E-04  0.2310E-06  0.1123E-03  0.8693E-02  0.5302E+06
   -0.524992    3.24817  0.8472E-13  0.1247E-04  0.1788E-06  0.1280E-03  0.7940E-02  0.3643E+07
   -0.562493    3.34178  0.8473E-13  0.1125E-04  0.1422E-06  0.1443E-03  0.7232E-02  0.8638E+07
   -0.599994    3.38087  0.8474E-13  0.1022E-04  0.1153E-06  0.1473E-03  0.6585E-02  0.3670E+08
   -0.637495    3.40789  0.8474E-13  0.9335E-05  0.9489E-07  0.1486E-03  0.6000E-02  0.2482E+08
   -0.674996    3.43019  0.8474E-13  0.8560E-05  0.7903E-07  0.1498E-03  0.5468E-02  0.2723E+08
   -0.712498    3.45055  0.8475E-13  0.7873E-05  0.6646E-07  0.1501E-03  0.4981E-02  0.3449E+08
   -0.749999    3.46929  0.8475E-13  0.7256E-05  0.5635E-07  0.1504E-03  0.4533E-02  0.3995E+08
   -0.787500    3.48782  0.8475E-13  0.6698E-05  0.4811E-07  0.1498E-03  0.4115E-02  0.5182E+08
   -0.825001    3.50785  0.8475E-13  0.6191E-05  0.4131E-07  0.1486E-03  0.3724E-02  0.6111E+08
   -0.862502    3.52818  0.8475E-13  0.5726E-05  0.3564E-07  0.1468E-03  0.3360E-02  0.8034E+08
   -0.900003    3.54564  0.8475E-13  0.5296E-05  0.3088E-07  0.1444E-03  0.3026E-02  0.9626E+08
   -0.937504    3.56019  0.8475E-13  0.4892E-05  0.2682E-07  0.1409E-03  0.2716E-02  0.1278E+09
   -0.975005    3.57303  0.8475E-13  0.4500E-05  0.2327E-07  0.1361E-03  0.2420E-02  0.1625E+09
   -1.012506    3.58485  0.8476E-13  0.4110E-05  0.2008E-07  0.1330E-03  0.2129E-02  0.2308E+09
   -1.050007    3.59628  0.8476E-13  0.3732E-05  0.1726E-07  0.1291E-03  0.1874E-02  0.3285E+09
   -1.087507    3.60782  0.8476E-13  0.3371E-05  0.1479E-07  0.1240E-03  0.1650E-02  0.5344E+09
   -1.125008    3.61896  0.8476E-13  0.3030E-05  0.1265E-07  0.1178E-03  0.1453E-02  0.8372E+09
   -1.162508    3.63051  0.8476E-13  0.2707E-05  0.1079E-07  0.1107E-03  0.1277E-02  0.1494E+10
   -1.200008    3.64272  0.8476E-13  0.2403E-05  0.9181E-08  0.1026E-03  0.1120E-02  0.2673E+10
   -1.237507    3.65539  0.8476E-13  0.2117E-05  0.7805E-08  0.9365E-04  0.9810E-03  0.5661E+10
   -1.275007    3.66821  0.8476E-13  0.1848E-05  0.6642E-08  0.8378E-04  0.8569E-03  0.1336E+11
   -1.312506    3.68182  0.8476E-13  0.1592E-05  0.5684E-08  0.7297E-04  0.7471E-03  0.4438E+11
   -1.350005    3.69534  0.8476E-13  0.1346E-05  0.4934E-08  0.6118E-04  0.6503E-03  0.6614E+11
   -1.387504    3.71081  0.8476E-13  0.1105E-05  0.4449E-08  0.4654E-04  0.5658E-03  0.1775E+11
   -1.425002    3.72922  0.8476E-13  0.8484E-06  0.4453E-08  0.2334E-04  0.4952E-03 -0.1064E+12
   -1.462500    3.75530  0.8476E-13  0.4057E-06  0.7354E-08  0.3588E-05  0.4411E-03 -0.1164E+14
   -1.499998    3.87015  0.8476E-13  0.0000E+00  0.0000E+00  0.0000E+00  0.4396E-03  0.0000E+00
