 1 - depth, m
 2 - temperature, C
 3 - salinity, kg/kg
 4 - turbulent kinetic energy, m**2/s**2
 5 - dissipation rate, m**2/s**3
 6 - kinematic heat conductance, m**2/s
 7 - modulus of horizontal velocity, m/s
 8 - Richardson number, n/d
   -0.000000   -0.00000  0.2062E-09  0.2576E-10  0.1536E-13  0.1000E-09  0.0000E+00  0.2471E+17
   -0.037497    0.39117  0.0000E+00  0.5467E-10  0.1297E-13  0.1000E-09  0.0000E+00  0.2120E+17
   -0.074994    0.76686  0.1005E-12  0.1085E-09  0.1593E-13  0.1000E-09  0.0000E+00  0.1804E+17
   -0.112492    1.12763  0.7731E-13  0.1932E-09  0.2303E-13  0.1000E-09  0.0000E+00  0.1522E+17
   -0.149990    1.47399  0.8221E-13  0.3227E-09  0.3505E-13  0.1000E-09  0.0000E+00  0.1269E+17
   -0.187488    1.80639  0.8105E-13  0.5204E-09  0.5393E-13  0.1000E-09  0.0000E+00  0.1042E+17
   -0.224987    2.12522  0.8140E-13  0.8229E-09  0.8291E-13  0.1000E-09  0.0000E+00  0.8405E+16
   -0.262486    2.43083  0.8128E-13  0.1286E-08  0.1269E-12  0.1000E-09  0.0000E+00  0.6606E+16
   -0.299985    2.72343  0.8132E-13  0.1994E-08  0.1934E-12  0.1081E-09  0.0000E+00  0.5012E+16
   -0.337484    3.00327  0.8131E-13  0.3075E-08  0.2936E-12  0.2262E-09  0.0000E+00  0.3603E+16
   -0.374983    3.27040  0.8131E-13  0.4721E-08  0.4440E-12  0.5189E-09  0.0000E+00  0.2376E+16
   -0.412483    3.52581  0.8131E-13  0.7219E-08  0.6690E-12  0.1430E-08  0.0000E+00  0.1300E+16
   -0.449983    3.76937  0.8131E-13  0.1098E-07  0.1003E-11  0.7559E-08  0.0000E+00  0.3691E+15
   -0.487483    3.99344  0.8131E-13  0.1150E-07  0.1053E-11  0.3931E-04  0.0000E+00 -0.9808E+11
   -0.524983    3.99429  0.8131E-13  0.1174E-07  0.1080E-11  0.4469E-04  0.0000E+00 -0.9456E+11
   -0.562483    3.99503  0.8131E-13  0.1196E-07  0.1108E-11  0.4711E-04  0.0000E+00 -0.9652E+11
   -0.599984    3.99571  0.8131E-13  0.1216E-07  0.1136E-11  0.4782E-04  0.0000E+00 -0.1018E+12
   -0.637484    3.99638  0.8131E-13  0.1234E-07  0.1167E-11  0.4799E-04  0.0000E+00 -0.1080E+12
   -0.674985    3.99705  0.8131E-13  0.1252E-07  0.1199E-11  0.4804E-04  0.0000E+00 -0.1145E+12
   -0.712485    3.99771  0.8131E-13  0.1268E-07  0.1235E-11  0.4795E-04  0.0000E+00 -0.1212E+12
   -0.749986    3.99837  0.8131E-13  0.1284E-07  0.1273E-11  0.4773E-04  0.0000E+00 -0.1283E+12
   -0.787486    3.99903  0.8131E-13  0.1299E-07  0.1314E-11  0.4737E-04  0.0000E+00 -0.1359E+12
   -0.824987    3.99970  0.8131E-13  0.1313E-07  0.1358E-11  0.4686E-04  0.0000E+00 -0.1442E+12
   -0.862487    4.00037  0.8131E-13  0.1325E-07  0.1405E-11  0.4622E-04  0.0000E+00 -0.1531E+12
   -0.899988    4.00105  0.8131E-13  0.1335E-07  0.1456E-11  0.4542E-04  0.0000E+00 -0.1630E+12
   -0.937488    4.00174  0.8131E-13  0.1344E-07  0.1512E-11  0.4448E-04  0.0000E+00 -0.1739E+12
   -0.974988    4.00245  0.8131E-13  0.1351E-07  0.1572E-11  0.4337E-04  0.0000E+00 -0.1862E+12
   -1.012488    4.00317  0.8131E-13  0.1356E-07  0.1637E-11  0.4211E-04  0.0000E+00 -0.2005E+12
   -1.049988    4.00391  0.8131E-13  0.1359E-07  0.1710E-11  0.4064E-04  0.0000E+00 -0.2174E+12
   -1.087488    4.00468  0.8131E-13  0.1358E-07  0.1792E-11  0.3898E-04  0.0000E+00 -0.2372E+12
   -1.124988    4.00549  0.8131E-13  0.1355E-07  0.1884E-11  0.3709E-04  0.0000E+00 -0.2606E+12
   -1.162487    4.00634  0.8131E-13  0.1348E-07  0.1990E-11  0.3497E-04  0.0000E+00 -0.2893E+12
   -1.199987    4.00724  0.8131E-13  0.1336E-07  0.2114E-11  0.3261E-04  0.0000E+00 -0.3251E+12
   -1.237486    4.00821  0.8131E-13  0.1317E-07  0.2281E-11  0.2908E-04  0.0000E+00 -0.3833E+12
   -1.274985    4.00931  0.8131E-13  0.1285E-07  0.2521E-11  0.2224E-04  0.0000E+00 -0.5300E+12
   -1.312483    4.01073  0.8131E-13  0.1237E-07  0.2855E-11  0.1688E-04  0.0000E+00 -0.7482E+12
   -1.349981    4.01262  0.8131E-13  0.1167E-07  0.3352E-11  0.1215E-04  0.0000E+00 -0.1133E+13
   -1.387479    4.01524  0.8131E-13  0.1060E-07  0.4196E-11  0.7496E-05  0.0000E+00 -0.2060E+13
   -1.424977    4.01948  0.8131E-13  0.8772E-08  0.6052E-11  0.3218E-05  0.0000E+00 -0.5761E+13
   -1.462474    4.02916  0.8131E-13  0.5379E-08  0.1283E-10  0.4781E-06  0.0000E+00 -0.5693E+14
   -1.499971    4.08176  0.8131E-13  0.0000E+00  0.0000E+00  0.0000E+00  0.0000E+00  0.0000E+00
