 1 - depth, m
 2 - temperature, C
 3 - salinity, kg/kg
 4 - turbulent kinetic energy, m**2/s**2
 5 - dissipation rate, m**2/s**3
 6 - kinematic heat conductance, m**2/s
 7 - modulus of horizontal velocity, m/s
 8 - Richardson number, n/d
   -0.000000   17.28527  0.9422E-13  0.7660E-04  0.3313E-04  0.3641E-04  0.6510E-01 -0.3254E-01
   -0.037498   17.35208  0.9421E-13  0.4550E-04  0.8698E-05  0.6805E-04  0.2425E-01 -0.1005E+00
   -0.074996   17.36818  0.9421E-13  0.3435E-04  0.3843E-05  0.9269E-04  0.1737E-01 -0.1170E+00
   -0.112494   17.37835  0.9421E-13  0.2809E-04  0.2090E-05  0.1417E-03  0.1418E-01  0.9783E+02
   -0.149992   17.38501  0.9421E-13  0.2372E-04  0.1227E-05  0.1819E-03  0.1204E-01  0.2224E+03
   -0.187491   17.39002  0.9420E-13  0.2054E-04  0.7607E-06  0.2310E-03  0.1041E-01  0.1605E+02
   -0.224991   17.39392  0.9420E-13  0.1820E-04  0.4951E-06  0.2848E-03  0.9128E-02  0.1599E+02
   -0.262490   17.39701  0.9420E-13  0.1649E-04  0.3376E-06  0.3324E-03  0.8105E-02  0.3275E+02
   -0.299990   17.39956  0.9420E-13  0.1522E-04  0.2415E-06  0.3777E-03  0.7247E-02  0.2288E+03
   -0.337490   17.40171  0.9420E-13  0.1425E-04  0.1793E-06  0.4266E-03  0.6518E-02  0.2890E+02
   -0.374990   17.40347  0.9420E-13  0.1353E-04  0.1386E-06  0.4728E-03  0.5896E-02  0.2575E+02
   -0.412490   17.40496  0.9420E-13  0.1298E-04  0.1105E-06  0.5137E-03  0.5359E-02  0.5084E+02
   -0.449990   17.40624  0.9420E-13  0.1257E-04  0.9051E-07  0.5573E-03  0.4893E-02  0.1916E+02
   -0.487491   17.40737  0.9420E-13  0.1227E-04  0.7598E-07  0.6000E-03  0.4492E-02  0.1071E+02
   -0.524992   17.40839  0.9420E-13  0.1205E-04  0.6532E-07  0.6315E-03  0.4144E-02  0.4777E+01
   -0.562493   17.40934  0.9420E-13  0.1190E-04  0.5721E-07  0.6618E-03  0.3817E-02  0.5363E+01
   -0.599994   17.41024  0.9420E-13  0.1177E-04  0.5085E-07  0.6926E-03  0.3509E-02  0.6698E+01
   -0.637495   17.41110  0.9420E-13  0.1166E-04  0.4579E-07  0.7235E-03  0.3219E-02  0.3477E+01
   -0.674996   17.41192  0.9420E-13  0.1155E-04  0.4171E-07  0.7553E-03  0.2944E-02  0.3287E+01
   -0.712497   17.41271  0.9420E-13  0.1143E-04  0.3839E-07  0.7839E-03  0.2685E-02  0.3230E+01
   -0.749998   17.41347  0.9420E-13  0.1129E-04  0.3566E-07  0.8127E-03  0.2440E-02  0.3048E+01
   -0.787499   17.41422  0.9420E-13  0.1112E-04  0.3338E-07  0.8393E-03  0.2211E-02  0.2958E+01
   -0.825000   17.41494  0.9420E-13  0.1096E-04  0.3180E-07  0.1011E-02  0.1985E-02  0.2236E+01
   -0.862501   17.41555  0.9420E-13  0.1079E-04  0.3069E-07  0.1001E-02  0.1834E-02  0.2340E+01
   -0.900003   17.41616  0.9420E-13  0.1059E-04  0.2977E-07  0.8861E-03  0.1695E-02  0.2345E+01
   -0.937503   17.41688  0.9420E-13  0.1030E-04  0.2895E-07  0.8656E-03  0.1506E-02  0.2508E+01
   -0.975004   17.41760  0.9420E-13  0.9967E-05  0.2837E-07  0.8283E-03  0.1337E-02  0.2485E+01
   -1.012505   17.41839  0.9420E-13  0.9669E-05  0.2807E-07  0.9313E-03  0.1171E-02  0.1908E+01
   -1.050006   17.41908  0.9420E-13  0.9384E-05  0.2800E-07  0.8221E-03  0.1067E-02  0.2907E+01
   -1.087506   17.41986  0.9420E-13  0.9067E-05  0.2814E-07  0.7579E-03  0.9787E-03  0.1587E+01
   -1.125007   17.42071  0.9420E-13  0.8682E-05  0.2856E-07  0.7082E-03  0.8762E-03  0.1469E+01
   -1.162507   17.42164  0.9420E-13  0.8315E-05  0.2921E-07  0.6632E-03  0.7958E-03  0.1461E+01
   -1.200007   17.42263  0.9420E-13  0.7959E-05  0.3015E-07  0.6137E-03  0.7306E-03  0.1670E+01
   -1.237506   17.42372  0.9420E-13  0.7612E-05  0.3144E-07  0.5243E-03  0.6788E-03  0.2358E+01
   -1.275006   17.42502  0.9420E-13  0.7277E-05  0.3312E-07  0.6378E-03  0.6365E-03  0.4099E+01
   -1.312505   17.42610  0.9420E-13  0.6866E-05  0.3590E-07  0.3030E-03  0.6120E-03  0.1284E+07
   -1.350004   17.42839  0.9420E-13  0.6399E-05  0.3988E-07  0.2857E-03  0.5759E-03  0.3597E+02
   -1.387502   17.43087  0.9420E-13  0.5801E-05  0.4692E-07  0.2645E-03  0.5446E-03  0.7100E+02
   -1.425001   17.43362  0.9420E-13  0.4853E-05  0.6721E-07  0.1226E-03  0.5212E-03  0.1124E+05
   -1.462499   17.44347  0.9420E-13  0.2837E-05  0.1497E-06  0.3396E-04  0.4881E-03 -0.2562E+05
   -1.499996   17.46802  0.9420E-13  0.0000E+00  0.0000E+00  0.0000E+00  0.4917E-03  0.0000E+00
