 1 - depth, m
 2 - temperature, C
 3 - salinity, kg/kg
 4 - turbulent kinetic energy, m**2/s**2
 5 - dissipation rate, m**2/s**3
 6 - kinematic heat conductance, m**2/s
 7 - modulus of horizontal velocity, m/s
 8 - Richardson number, n/d
   -0.000000   -0.00000  0.4203E-12  0.4096E-13  0.8590E-16  0.1000E-09  0.0000E+00  0.1229E+17
   -0.037498    0.18914  0.3827E-12  0.4096E-13  0.8590E-16  0.1000E-09  0.0000E+00  0.1158E+17
   -0.074996    0.37710  0.3062E-12  0.4096E-13  0.8590E-16  0.1000E-09  0.0000E+00  0.1088E+17
   -0.112494    0.56371  0.2246E-12  0.1367E-12  0.8590E-16  0.1000E-09  0.0000E+00  0.1019E+17
   -0.149993    0.74884  0.1635E-12  0.3979E-12  0.9957E-16  0.1000E-09  0.0000E+00  0.9516E+16
   -0.187492    0.93235  0.1264E-12  0.8539E-12  0.1583E-15  0.1000E-09  0.0000E+00  0.8851E+16
   -0.224991    1.11409  0.1073E-12  0.1621E-11  0.2704E-15  0.1000E-09  0.0000E+00  0.8200E+16
   -0.262491    1.29395  0.9874E-13  0.2918E-11  0.4646E-15  0.1000E-09  0.0000E+00  0.7572E+16
   -0.299990    1.47199  0.9533E-13  0.5121E-11  0.7932E-15  0.1000E-09  0.0000E+00  0.6962E+16
   -0.337490    1.64814  0.9410E-13  0.8871E-11  0.1345E-14  0.1000E-09  0.0000E+00  0.6367E+16
   -0.374991    1.82228  0.9364E-13  0.1525E-10  0.2268E-14  0.1000E-09  0.0000E+00  0.5824E+16
   -0.412491    1.99537  0.9340E-13  0.2606E-10  0.3806E-14  0.1000E-09  0.0000E+00  0.5309E+16
   -0.449992    2.16796  0.9313E-13  0.4430E-10  0.6358E-14  0.1000E-09  0.0000E+00  0.4800E+16
   -0.487492    2.34002  0.9275E-13  0.7499E-10  0.1057E-13  0.1000E-09  0.0000E+00  0.4297E+16
   -0.524993    2.51148  0.9220E-13  0.1260E-09  0.1746E-13  0.1000E-09  0.0000E+00  0.3799E+16
   -0.562494    2.68218  0.9147E-13  0.2104E-09  0.2865E-13  0.1000E-09  0.0000E+00  0.3308E+16
   -0.599995    2.85208  0.9055E-13  0.3494E-09  0.4678E-13  0.1000E-09  0.0000E+00  0.2826E+16
   -0.637496    3.02110  0.8949E-13  0.5777E-09  0.7604E-13  0.1000E-09  0.0000E+00  0.2353E+16
   -0.674998    3.18917  0.8832E-13  0.9509E-09  0.1231E-12  0.1810E-09  0.0000E+00  0.1888E+16
   -0.712499    3.35614  0.8719E-13  0.1559E-08  0.1984E-12  0.3845E-09  0.0000E+00  0.1433E+16
   -0.750000    3.52177  0.8625E-13  0.2544E-08  0.3184E-12  0.8921E-09  0.0000E+00  0.9912E+15
   -0.787501    3.68627  0.8563E-13  0.4130E-08  0.5086E-12  0.2531E-08  0.0000E+00  0.5584E+15
   -0.825003    3.84853  0.8536E-13  0.6641E-08  0.8052E-12  0.1516E-07  0.0000E+00  0.1480E+15
   -0.862504    3.99733  0.8530E-13  0.7345E-08  0.8942E-12  0.1978E-04  0.0000E+00 -0.2115E+12
   -0.900005    3.99851  0.8530E-13  0.7687E-08  0.9462E-12  0.2158E-04  0.0000E+00 -0.2139E+12
   -0.937506    3.99959  0.8530E-13  0.7989E-08  0.1001E-11  0.2305E-04  0.0000E+00 -0.2179E+12
   -0.975007    4.00061  0.8530E-13  0.8254E-08  0.1059E-11  0.2376E-04  0.0000E+00 -0.2276E+12
   -1.012508    4.00160  0.8530E-13  0.8483E-08  0.1121E-11  0.2395E-04  0.0000E+00 -0.2428E+12
   -1.050009    4.00259  0.8530E-13  0.8679E-08  0.1190E-11  0.2377E-04  0.0000E+00 -0.2626E+12
   -1.087509    4.00359  0.8530E-13  0.8843E-08  0.1266E-11  0.2326E-04  0.0000E+00 -0.2879E+12
   -1.125010    4.00463  0.8530E-13  0.8972E-08  0.1354E-11  0.2218E-04  0.0000E+00 -0.3227E+12
   -1.162510    4.00572  0.8530E-13  0.9061E-08  0.1458E-11  0.2052E-04  0.0000E+00 -0.3729E+12
   -1.200010    4.00691  0.8530E-13  0.9098E-08  0.1583E-11  0.1847E-04  0.0000E+00 -0.4443E+12
   -1.237510    4.00825  0.8530E-13  0.9071E-08  0.1737E-11  0.1630E-04  0.0000E+00 -0.5425E+12
   -1.275009    4.00977  0.8530E-13  0.8958E-08  0.1932E-11  0.1399E-04  0.0000E+00 -0.6859E+12
   -1.312508    4.01157  0.8530E-13  0.8726E-08  0.2196E-11  0.1140E-04  0.0000E+00 -0.9217E+12
   -1.350007    4.01380  0.8530E-13  0.8317E-08  0.2581E-11  0.8503E-05  0.0000E+00 -0.1373E+13
   -1.387506    4.01683  0.8530E-13  0.7616E-08  0.3229E-11  0.5389E-05  0.0000E+00 -0.2475E+13
   -1.425004    4.02163  0.8530E-13  0.6352E-08  0.4633E-11  0.2374E-05  0.0000E+00 -0.6843E+13
   -1.462503    4.03237  0.8530E-13  0.4076E-08  0.9436E-11  0.3958E-06  0.0000E+00 -0.5756E+14
   -1.500000    4.08367  0.8530E-13  0.0000E+00  0.0000E+00  0.0000E+00  0.0000E+00  0.0000E+00
