 1 - depth, m
 2 - temperature, C
 3 - salinity, kg/kg
 4 - turbulent kinetic energy, m**2/s**2
 5 - dissipation rate, m**2/s**3
 6 - kinematic heat conductance, m**2/s
 7 - modulus of horizontal velocity, m/s
 8 - Richardson number, n/d
   -0.000000   -0.00000  0.9682E-11  0.5764E-08  0.1403E-10  0.6377E-09  0.0000E+00  0.6097E+17
   -0.037498    1.06467  0.3355E-10  0.3207E-07  0.1241E-10  0.8394E-09  0.0000E+00  0.4106E+17
   -0.074996    2.11671  0.5481E-10  0.8257E-07  0.1919E-10  0.2382E-08  0.0000E+00  0.2239E+17
   -0.112495    3.14928  0.2639E-10  0.1690E-06  0.3378E-10  0.1720E-07  0.0000E+00  0.5469E+16
   -0.149994    4.07901  0.1134E-10  0.1709E-06  0.3413E-10  0.2730E-03  0.0000E+00 -0.7931E+12
   -0.187493    4.07954  0.1134E-10  0.1717E-06  0.3432E-10  0.2696E-03  0.0000E+00 -0.7732E+12
   -0.224992    4.08007  0.1134E-10  0.1723E-06  0.3451E-10  0.2702E-03  0.0000E+00 -0.7636E+12
   -0.262492    4.08059  0.1134E-10  0.1729E-06  0.3472E-10  0.2705E-03  0.0000E+00 -0.7565E+12
   -0.299992    4.08110  0.1134E-10  0.1734E-06  0.3493E-10  0.2703E-03  0.0000E+00 -0.7514E+12
   -0.337492    4.08161  0.1134E-10  0.1737E-06  0.3516E-10  0.2698E-03  0.0000E+00 -0.7484E+12
   -0.374993    4.08211  0.1134E-10  0.1739E-06  0.3540E-10  0.2687E-03  0.0000E+00 -0.7458E+12
   -0.412493    4.08260  0.1134E-10  0.1740E-06  0.3566E-10  0.2673E-03  0.0000E+00 -0.7443E+12
   -0.449994    4.08310  0.1133E-10  0.1740E-06  0.3594E-10  0.2654E-03  0.0000E+00 -0.7447E+12
   -0.487495    4.08359  0.1133E-10  0.1739E-06  0.3624E-10  0.2630E-03  0.0000E+00 -0.7469E+12
   -0.524996    4.08408  0.1133E-10  0.1737E-06  0.3657E-10  0.2603E-03  0.0000E+00 -0.7507E+12
   -0.562497    4.08457  0.1133E-10  0.1733E-06  0.3692E-10  0.2570E-03  0.0000E+00 -0.7565E+12
   -0.599999    4.08506  0.1133E-10  0.1729E-06  0.3730E-10  0.2534E-03  0.0000E+00 -0.7643E+12
   -0.637500    4.08555  0.1133E-10  0.1724E-06  0.3771E-10  0.2493E-03  0.0000E+00 -0.7741E+12
   -0.675001    4.08605  0.1133E-10  0.1717E-06  0.3815E-10  0.2448E-03  0.0000E+00 -0.7861E+12
   -0.712503    4.08655  0.1133E-10  0.1709E-06  0.3864E-10  0.2399E-03  0.0000E+00 -0.8005E+12
   -0.750004    4.08706  0.1133E-10  0.1700E-06  0.3917E-10  0.2345E-03  0.0000E+00 -0.8174E+12
   -0.787506    4.08758  0.1133E-10  0.1690E-06  0.3976E-10  0.2287E-03  0.0000E+00 -0.8370E+12
   -0.825007    4.08811  0.1133E-10  0.1678E-06  0.4040E-10  0.2225E-03  0.0000E+00 -0.8599E+12
   -0.862509    4.08865  0.1133E-10  0.1666E-06  0.4111E-10  0.2158E-03  0.0000E+00 -0.8864E+12
   -0.900010    4.08920  0.1132E-10  0.1651E-06  0.4190E-10  0.2086E-03  0.0000E+00 -0.9170E+12
   -0.937511    4.08977  0.1132E-10  0.1636E-06  0.4279E-10  0.2010E-03  0.0000E+00 -0.9524E+12
   -0.975012    4.09036  0.1132E-10  0.1619E-06  0.4378E-10  0.1930E-03  0.0000E+00 -0.9934E+12
   -1.012514    4.09097  0.1132E-10  0.1600E-06  0.4490E-10  0.1845E-03  0.0000E+00 -0.1042E+13
   -1.050014    4.09160  0.1132E-10  0.1578E-06  0.4620E-10  0.1754E-03  0.0000E+00 -0.1099E+13
   -1.087515    4.09227  0.1132E-10  0.1555E-06  0.4771E-10  0.1656E-03  0.0000E+00 -0.1168E+13
   -1.125016    4.09297  0.1132E-10  0.1529E-06  0.4949E-10  0.1553E-03  0.0000E+00 -0.1250E+13
   -1.162516    4.09372  0.1132E-10  0.1500E-06  0.5161E-10  0.1444E-03  0.0000E+00 -0.1351E+13
   -1.200017    4.09452  0.1132E-10  0.1467E-06  0.5416E-10  0.1329E-03  0.0000E+00 -0.1477E+13
   -1.237517    4.09539  0.1132E-10  0.1430E-06  0.5731E-10  0.1206E-03  0.0000E+00 -0.1637E+13
   -1.275016    4.09634  0.1132E-10  0.1388E-06  0.6127E-10  0.1077E-03  0.0000E+00 -0.1847E+13
   -1.312516    4.09741  0.1132E-10  0.1340E-06  0.6643E-10  0.9394E-04  0.0000E+00 -0.2137E+13
   -1.350015    4.09863  0.1132E-10  0.1285E-06  0.7342E-10  0.8122E-04  0.0000E+00 -0.2495E+13
   -1.387514    4.10005  0.1132E-10  0.1202E-06  0.8612E-10  0.4242E-04  0.0000E+00 -0.4857E+13
   -1.425012    4.10275  0.1132E-10  0.1043E-06  0.1187E-09  0.1817E-04  0.0000E+00 -0.1174E+14
   -1.462511    4.10903  0.1132E-10  0.6069E-07  0.2774E-09  0.2104E-05  0.0000E+00 -0.1188E+15
   -1.500009    4.16028  0.1131E-10  0.0000E+00  0.0000E+00  0.0000E+00  0.0000E+00  0.0000E+00
