 1 - depth, m
 2 - temperature, C
 3 - salinity, kg/kg
 4 - turbulent kinetic energy, m**2/s**2
 5 - dissipation rate, m**2/s**3
 6 - kinematic heat conductance, m**2/s
 7 - modulus of horizontal velocity, m/s
 8 - Richardson number, n/d
   -0.000000    6.94296  0.9492E-13  0.2975E-03  0.2774E-03  0.6392E-04  0.1819E+00 -0.1850E-02
   -0.037498    6.98928  0.9492E-13  0.1577E-03  0.7717E-04  0.1571E-03  0.5599E-01 -0.2786E+00
   -0.074996    6.99673  0.9492E-13  0.1120E-03  0.3362E-04  0.1557E-03  0.3863E-01 -0.6823E+00
   -0.112494    7.00185  0.9492E-13  0.8778E-04  0.1886E-04  0.1527E-03  0.3215E-01 -0.1769E-01
   -0.149993    7.00557  0.9492E-13  0.7075E-04  0.1088E-04  0.1523E-03  0.2778E-01 -0.5703E-01
   -0.187492    7.00863  0.9492E-13  0.5777E-04  0.6268E-05  0.1541E-03  0.2433E-01 -0.1536E-01
   -0.224991    7.01142  0.9492E-13  0.4801E-04  0.3719E-05  0.1576E-03  0.2143E-01 -0.1493E-01
   -0.262490    7.01401  0.9492E-13  0.4059E-04  0.2262E-05  0.1610E-03  0.1905E-01 -0.1550E-01
   -0.299990    7.01638  0.9492E-13  0.3475E-04  0.1417E-05  0.1647E-03  0.1699E-01 -0.2024E-01
   -0.337490    7.01859  0.9492E-13  0.3007E-04  0.9244E-06  0.1690E-03  0.1521E-01 -0.2859E-01
   -0.374990    7.02069  0.9492E-13  0.2626E-04  0.6296E-06  0.1742E-03  0.1367E-01 -0.2806E-01
   -0.412491    7.02264  0.9492E-13  0.2312E-04  0.4463E-06  0.1801E-03  0.1235E-01  0.1975E+00
   -0.449991    7.02448  0.9492E-13  0.2053E-04  0.3278E-06  0.1872E-03  0.1123E-01 -0.2358E-01
   -0.487492    7.02622  0.9492E-13  0.1841E-04  0.2486E-06  0.1949E-03  0.1027E-01  0.5353E-02
   -0.524993    7.02785  0.9492E-13  0.1670E-04  0.1943E-06  0.1997E-03  0.9454E-02  0.1753E-01
   -0.562494    7.02943  0.9492E-13  0.1527E-04  0.1553E-06  0.2062E-03  0.8693E-02 -0.6332E-01
   -0.599995    7.03094  0.9492E-13  0.1405E-04  0.1264E-06  0.2138E-03  0.7990E-02  0.1133E+00
   -0.637496    7.03238  0.9492E-13  0.1301E-04  0.1044E-06  0.2215E-03  0.7344E-02  0.2557E+01
   -0.674997    7.03375  0.9492E-13  0.1209E-04  0.8734E-07  0.2301E-03  0.6750E-02  0.1775E+00
   -0.712498    7.03507  0.9492E-13  0.1127E-04  0.7385E-07  0.2417E-03  0.6204E-02  0.2200E+02
   -0.750000    7.03632  0.9492E-13  0.1055E-04  0.6304E-07  0.2578E-03  0.5701E-02  0.1100E+02
   -0.787501    7.03750  0.9492E-13  0.9888E-05  0.5428E-07  0.2794E-03  0.5236E-02  0.1451E+02
   -0.825002    7.03861  0.9492E-13  0.9288E-05  0.4711E-07  0.3001E-03  0.4805E-02  0.2144E+02
   -0.862503    7.03965  0.9492E-13  0.8735E-05  0.4116E-07  0.3184E-03  0.4404E-02  0.1297E+02
   -0.900004    7.04064  0.9492E-13  0.8220E-05  0.3619E-07  0.3359E-03  0.4027E-02  0.5085E+02
   -0.937505    7.04157  0.9492E-13  0.7733E-05  0.3197E-07  0.3544E-03  0.3671E-02  0.2598E+02
   -0.975006    7.04246  0.9492E-13  0.7264E-05  0.2835E-07  0.3721E-03  0.3332E-02  0.1300E+02
   -1.012507    7.04330  0.9492E-13  0.6804E-05  0.2518E-07  0.3974E-03  0.3005E-02  0.2308E+02
   -1.050008    7.04408  0.9492E-13  0.6355E-05  0.2242E-07  0.4192E-03  0.2708E-02  0.2135E+03
   -1.087508    7.04481  0.9492E-13  0.5915E-05  0.2001E-07  0.4388E-03  0.2440E-02  0.1415E+02
   -1.125009    7.04550  0.9492E-13  0.5485E-05  0.1792E-07  0.4473E-03  0.2198E-02  0.1441E+02
   -1.162509    7.04617  0.9492E-13  0.5064E-05  0.1614E-07  0.4462E-03  0.1978E-02  0.6261E+02
   -1.200009    7.04682  0.9492E-13  0.4654E-05  0.1464E-07  0.4328E-03  0.1781E-02  0.7172E+02
   -1.237509    7.04749  0.9492E-13  0.4261E-05  0.1344E-07  0.4085E-03  0.1606E-02  0.1492E+02
   -1.275008    7.04819  0.9492E-13  0.3893E-05  0.1257E-07  0.3729E-03  0.1456E-02  0.3550E+02
   -1.312508    7.04896  0.9492E-13  0.3562E-05  0.1206E-07  0.3263E-03  0.1331E-02  0.1345E+02
   -1.350007    7.04983  0.9492E-13  0.3268E-05  0.1195E-07  0.2792E-03  0.1234E-02  0.7894E+02
   -1.387505    7.05086  0.9492E-13  0.2963E-05  0.1238E-07  0.2157E-03  0.1160E-02  0.1662E+03
   -1.425004    7.05219  0.9492E-13  0.2543E-05  0.1427E-07  0.9714E-04  0.1093E-02  0.3694E+04
   -1.462502    7.05505  0.9492E-13  0.1356E-05  0.2895E-07  0.9167E-05  0.1024E-02 -0.2262E+04
   -1.499999    7.08473  0.9492E-13  0.0000E+00  0.0000E+00  0.0000E+00  0.1001E-02  0.0000E+00
