 1 - depth, m
 2 - temperature, C
 3 - salinity, kg/kg
 4 - turbulent kinetic energy, m**2/s**2
 5 - dissipation rate, m**2/s**3
 6 - kinematic heat conductance, m**2/s
 7 - modulus of horizontal velocity, m/s
 8 - Richardson number, n/d
   -0.000000   -0.00000  0.2266E-12  0.4096E-13  0.8590E-16  0.1000E-09  0.0000E+00  0.8180E+16
   -0.037498    0.12479  0.2498E-12  0.4096E-13  0.8590E-16  0.1000E-09  0.0000E+00  0.7896E+16
   -0.074996    0.24948  0.2678E-12  0.4096E-13  0.8590E-16  0.1000E-09  0.0000E+00  0.7611E+16
   -0.112494    0.37399  0.2692E-12  0.4096E-13  0.8590E-16  0.1000E-09  0.0000E+00  0.7324E+16
   -0.149993    0.49828  0.2513E-12  0.4096E-13  0.8590E-16  0.1000E-09  0.0000E+00  0.7036E+16
   -0.187492    0.62226  0.2211E-12  0.4096E-13  0.8590E-16  0.1000E-09  0.0000E+00  0.6748E+16
   -0.224991    0.74588  0.1877E-12  0.4096E-13  0.8590E-16  0.1000E-09  0.0000E+00  0.6460E+16
   -0.262491    0.86908  0.1577E-12  0.4096E-13  0.8590E-16  0.1000E-09  0.0000E+00  0.6174E+16
   -0.299991    0.99182  0.1341E-12  0.4096E-13  0.8590E-16  0.1000E-09  0.0000E+00  0.5890E+16
   -0.337491    1.11405  0.1172E-12  0.4096E-13  0.8590E-16  0.1000E-09  0.0000E+00  0.5607E+16
   -0.374991    1.23571  0.1058E-12  0.4096E-13  0.8590E-16  0.1000E-09  0.0000E+00  0.5329E+16
   -0.412491    1.35678  0.9846E-13  0.4096E-13  0.8590E-16  0.1000E-09  0.0000E+00  0.5053E+16
   -0.449992    1.47723  0.9379E-13  0.4096E-13  0.8590E-16  0.1000E-09  0.0000E+00  0.4780E+16
   -0.487493    1.59698  0.9079E-13  0.4096E-13  0.8590E-16  0.1000E-09  0.0000E+00  0.4510E+16
   -0.524994    1.71601  0.8881E-13  0.4096E-13  0.8590E-16  0.1000E-09  0.0000E+00  0.4249E+16
   -0.562495    1.83439  0.8744E-13  0.4096E-13  0.8590E-16  0.1000E-09  0.0000E+00  0.3991E+16
   -0.599996    1.95208  0.8643E-13  0.4096E-13  0.8590E-16  0.1000E-09  0.0000E+00  0.3736E+16
   -0.637497    2.06903  0.8564E-13  0.4096E-13  0.8590E-16  0.1000E-09  0.0000E+00  0.3485E+16
   -0.674998    2.18518  0.8501E-13  0.4096E-13  0.8590E-16  0.1000E-09  0.0000E+00  0.3238E+16
   -0.712499    2.30048  0.8450E-13  0.4096E-13  0.8590E-16  0.1000E-09  0.0000E+00  0.2996E+16
   -0.750001    2.41488  0.8409E-13  0.4096E-13  0.8590E-16  0.1000E-09  0.0000E+00  0.2761E+16
   -0.787502    2.52845  0.8378E-13  0.4096E-13  0.8590E-16  0.1000E-09  0.0000E+00  0.2531E+16
   -0.825003    2.64119  0.8355E-13  0.4096E-13  0.8590E-16  0.1000E-09  0.0000E+00  0.2306E+16
   -0.862504    2.75305  0.8338E-13  0.4096E-13  0.8590E-16  0.1000E-09  0.0000E+00  0.2085E+16
   -0.900005    2.86398  0.8326E-13  0.1118E-12  0.8590E-16  0.1000E-09  0.0000E+00  0.1870E+16
   -0.937507    2.97393  0.8318E-13  0.3456E-12  0.1773E-15  0.1000E-09  0.0000E+00  0.1660E+16
   -0.975008    3.08287  0.8313E-13  0.9162E-12  0.4305E-15  0.1000E-09  0.0000E+00  0.1455E+16
   -1.012508    3.19074  0.8311E-13  0.2312E-11  0.1046E-14  0.1000E-09  0.0000E+00  0.1254E+16
   -1.050009    3.29736  0.8309E-13  0.5734E-11  0.2521E-14  0.1000E-09  0.0000E+00  0.1060E+16
   -1.087510    3.40260  0.8308E-13  0.1404E-10  0.6008E-14  0.1000E-09  0.0000E+00  0.8722E+15
   -1.125010    3.50642  0.8308E-13  0.3402E-10  0.1417E-13  0.1000E-09  0.0000E+00  0.6991E+15
   -1.162510    3.60996  0.8307E-13  0.8155E-10  0.3310E-13  0.1726E-09  0.0000E+00  0.5286E+15
   -1.200010    3.71337  0.8307E-13  0.1935E-09  0.7656E-13  0.5864E-09  0.0000E+00  0.3587E+15
   -1.237510    3.81643  0.8307E-13  0.4537E-09  0.1753E-12  0.2515E-08  0.0000E+00  0.1900E+15
   -1.275010    3.91812  0.8307E-13  0.1040E-08  0.3934E-12  0.2930E-07  0.0000E+00  0.3407E+14
   -1.312509    4.00387  0.8307E-13  0.1995E-08  0.7603E-12  0.1985E-05  0.0000E+00 -0.2271E+13
   -1.350008    4.01077  0.8307E-13  0.2457E-08  0.1057E-11  0.2107E-05  0.0000E+00 -0.2860E+13
   -1.387507    4.01735  0.8307E-13  0.2638E-08  0.1427E-11  0.1715E-05  0.0000E+00 -0.4415E+13
   -1.425005    4.02540  0.8307E-13  0.2462E-08  0.2044E-11  0.9547E-06  0.0000E+00 -0.9907E+13
   -1.462503    4.03916  0.8307E-13  0.1794E-08  0.3662E-11  0.2177E-06  0.0000E+00 -0.4943E+14
   -1.500001    4.08176  0.8307E-13  0.0000E+00  0.0000E+00  0.0000E+00  0.0000E+00  0.0000E+00
