 1 - depth, m
 2 - temperature, C
 3 - salinity, kg/kg
 4 - turbulent kinetic energy, m**2/s**2
 5 - dissipation rate, m**2/s**3
 6 - kinematic heat conductance, m**2/s
 7 - modulus of horizontal velocity, m/s
 8 - Richardson number, n/d
   -0.000000   -0.00000  0.7481E-09  0.4632E-10  0.3235E-13  0.1000E-09  0.0000E+00  0.2670E+17
   -0.037497    0.42459  0.0000E+00  0.1073E-09  0.2734E-13  0.1000E-09  0.0000E+00  0.2280E+17
   -0.074995    0.83521  0.9293E-13  0.2210E-09  0.3452E-13  0.1000E-09  0.0000E+00  0.1927E+17
   -0.112493    1.23236  0.7938E-13  0.4021E-09  0.5142E-13  0.1000E-09  0.0000E+00  0.1606E+17
   -0.149991    1.61632  0.8168E-13  0.6841E-09  0.8044E-13  0.1000E-09  0.0000E+00  0.1314E+17
   -0.187489    1.98700  0.8124E-13  0.1124E-08  0.1272E-12  0.1000E-09  0.0000E+00  0.1048E+17
   -0.224988    2.34381  0.8133E-13  0.1816E-08  0.2010E-12  0.1000E-09  0.0000E+00  0.8064E+16
   -0.262487    2.68550  0.8131E-13  0.2906E-08  0.3171E-12  0.1521E-09  0.0000E+00  0.5889E+16
   -0.299987    3.00989  0.8131E-13  0.4623E-08  0.4987E-12  0.3481E-09  0.0000E+00  0.3972E+16
   -0.337486    3.31390  0.8131E-13  0.7330E-08  0.7829E-12  0.9142E-09  0.0000E+00  0.2344E+16
   -0.374986    3.59341  0.8131E-13  0.1159E-07  0.1226E-11  0.3181E-08  0.0000E+00  0.1044E+16
   -0.412486    3.84240  0.8131E-13  0.1770E-07  0.1866E-11  0.1331E-05  0.0000E+00  0.1873E+15
   -0.449986    4.00542  0.8131E-13  0.1822E-07  0.1925E-11  0.5946E-04  0.0000E+00 -0.1495E+12
   -0.487486    4.00605  0.8131E-13  0.1850E-07  0.1961E-11  0.5913E-04  0.0000E+00 -0.1577E+12
   -0.524986    4.00665  0.8131E-13  0.1877E-07  0.2000E-11  0.6013E-04  0.0000E+00 -0.1617E+12
   -0.562487    4.00722  0.8131E-13  0.1902E-07  0.2042E-11  0.6122E-04  0.0000E+00 -0.1650E+12
   -0.599987    4.00777  0.8131E-13  0.1925E-07  0.2086E-11  0.6224E-04  0.0000E+00 -0.1680E+12
   -0.637488    4.00830  0.8131E-13  0.1946E-07  0.2133E-11  0.6256E-04  0.0000E+00 -0.1726E+12
   -0.674989    4.00882  0.8131E-13  0.1965E-07  0.2183E-11  0.6258E-04  0.0000E+00 -0.1779E+12
   -0.712490    4.00935  0.8131E-13  0.1982E-07  0.2236E-11  0.6237E-04  0.0000E+00 -0.1842E+12
   -0.749990    4.00988  0.8131E-13  0.1998E-07  0.2293E-11  0.6192E-04  0.0000E+00 -0.1913E+12
   -0.787491    4.01042  0.8131E-13  0.2012E-07  0.2354E-11  0.6123E-04  0.0000E+00 -0.1995E+12
   -0.824992    4.01097  0.8131E-13  0.2023E-07  0.2420E-11  0.6038E-04  0.0000E+00 -0.2085E+12
   -0.862493    4.01153  0.8131E-13  0.2033E-07  0.2491E-11  0.5935E-04  0.0000E+00 -0.2188E+12
   -0.899993    4.01210  0.8131E-13  0.2041E-07  0.2568E-11  0.5816E-04  0.0000E+00 -0.2303E+12
   -0.937494    4.01269  0.8131E-13  0.2046E-07  0.2652E-11  0.5679E-04  0.0000E+00 -0.2435E+12
   -0.974994    4.01330  0.8131E-13  0.2048E-07  0.2744E-11  0.5524E-04  0.0000E+00 -0.2583E+12
   -1.012495    4.01392  0.8131E-13  0.2047E-07  0.2844E-11  0.5349E-04  0.0000E+00 -0.2759E+12
   -1.049995    4.01458  0.8131E-13  0.2043E-07  0.2957E-11  0.5151E-04  0.0000E+00 -0.2964E+12
   -1.087495    4.01527  0.8131E-13  0.2036E-07  0.3084E-11  0.4930E-04  0.0000E+00 -0.3209E+12
   -1.124995    4.01599  0.8131E-13  0.2023E-07  0.3229E-11  0.4683E-04  0.0000E+00 -0.3499E+12
   -1.162495    4.01676  0.8131E-13  0.2006E-07  0.3397E-11  0.4408E-04  0.0000E+00 -0.3855E+12
   -1.199994    4.01758  0.8131E-13  0.1982E-07  0.3594E-11  0.4103E-04  0.0000E+00 -0.4302E+12
   -1.237493    4.01847  0.8131E-13  0.1951E-07  0.3834E-11  0.3746E-04  0.0000E+00 -0.4913E+12
   -1.274993    4.01946  0.8131E-13  0.1907E-07  0.4151E-11  0.3289E-04  0.0000E+00 -0.5914E+12
   -1.312491    4.02063  0.8131E-13  0.1841E-07  0.4618E-11  0.2456E-04  0.0000E+00 -0.8339E+12
   -1.349990    4.02220  0.8131E-13  0.1740E-07  0.5360E-11  0.1676E-04  0.0000E+00 -0.1293E+13
   -1.387488    4.02449  0.8131E-13  0.1586E-07  0.6625E-11  0.1035E-04  0.0000E+00 -0.2283E+13
   -1.424986    4.02821  0.8131E-13  0.1327E-07  0.9389E-11  0.4548E-05  0.0000E+00 -0.5988E+13
   -1.462484    4.03661  0.8131E-13  0.7948E-08  0.2019E-10  0.6229E-06  0.0000E+00 -0.5962E+14
   -1.499981    4.08706  0.8131E-13  0.0000E+00  0.0000E+00  0.0000E+00  0.0000E+00  0.0000E+00
