 1 - depth, m
 2 - temperature, C
 3 - salinity, kg/kg
 4 - turbulent kinetic energy, m**2/s**2
 5 - dissipation rate, m**2/s**3
 6 - kinematic heat conductance, m**2/s
 7 - modulus of horizontal velocity, m/s
 8 - Richardson number, n/d
   -0.000000   -0.00000  0.2700E-12  0.4096E-13  0.8590E-16  0.1000E-09  0.0000E+00  0.8311E+16
   -0.037498    0.12682  0.3611E-12  0.4096E-13  0.8590E-16  0.1000E-09  0.0000E+00  0.8037E+16
   -0.074996    0.25385  0.3635E-12  0.4096E-13  0.8590E-16  0.1000E-09  0.0000E+00  0.7759E+16
   -0.112494    0.38101  0.3098E-12  0.4096E-13  0.8590E-16  0.1000E-09  0.0000E+00  0.7477E+16
   -0.149993    0.50822  0.2449E-12  0.4096E-13  0.8590E-16  0.1000E-09  0.0000E+00  0.7192E+16
   -0.187492    0.63541  0.1908E-12  0.4096E-13  0.8590E-16  0.1000E-09  0.0000E+00  0.6903E+16
   -0.224992    0.76248  0.1524E-12  0.4096E-13  0.8590E-16  0.1000E-09  0.0000E+00  0.6612E+16
   -0.262491    0.88935  0.1275E-12  0.4096E-13  0.8590E-16  0.1000E-09  0.0000E+00  0.6320E+16
   -0.299991    1.01597  0.1123E-12  0.4096E-13  0.8590E-16  0.1000E-09  0.0000E+00  0.6028E+16
   -0.337491    1.14224  0.1032E-12  0.4096E-13  0.8590E-16  0.1000E-09  0.0000E+00  0.5734E+16
   -0.374991    1.26807  0.9791E-13  0.4096E-13  0.8590E-16  0.1000E-09  0.0000E+00  0.5443E+16
   -0.412492    1.39343  0.9473E-13  0.4096E-13  0.8590E-16  0.1000E-09  0.0000E+00  0.5154E+16
   -0.449993    1.51826  0.9272E-13  0.4096E-13  0.8590E-16  0.1000E-09  0.0000E+00  0.4866E+16
   -0.487493    1.64246  0.9133E-13  0.4096E-13  0.8590E-16  0.1000E-09  0.0000E+00  0.4580E+16
   -0.524994    1.76594  0.9026E-13  0.4096E-13  0.8590E-16  0.1000E-09  0.0000E+00  0.4299E+16
   -0.562495    1.88873  0.8936E-13  0.4096E-13  0.8590E-16  0.1000E-09  0.0000E+00  0.4021E+16
   -0.599996    2.01072  0.8858E-13  0.4096E-13  0.8590E-16  0.1000E-09  0.0000E+00  0.3747E+16
   -0.637498    2.13184  0.8788E-13  0.4096E-13  0.8590E-16  0.1000E-09  0.0000E+00  0.3476E+16
   -0.674999    2.25200  0.8726E-13  0.4096E-13  0.8590E-16  0.1000E-09  0.0000E+00  0.3210E+16
   -0.712500    2.37112  0.8675E-13  0.4096E-13  0.8590E-16  0.1000E-09  0.0000E+00  0.2949E+16
   -0.750002    2.48911  0.8632E-13  0.4096E-13  0.8590E-16  0.1000E-09  0.0000E+00  0.2697E+16
   -0.787503    2.60607  0.8600E-13  0.4096E-13  0.8590E-16  0.1000E-09  0.0000E+00  0.2452E+16
   -0.825004    2.72199  0.8576E-13  0.1492E-12  0.8755E-16  0.1000E-09  0.0000E+00  0.2213E+16
   -0.862505    2.83680  0.8559E-13  0.4241E-12  0.1791E-15  0.1000E-09  0.0000E+00  0.1979E+16
   -0.900007    2.95044  0.8549E-13  0.1040E-11  0.4049E-15  0.1000E-09  0.0000E+00  0.1752E+16
   -0.937508    3.06285  0.8542E-13  0.2426E-11  0.9112E-15  0.1000E-09  0.0000E+00  0.1532E+16
   -0.975009    3.17397  0.8538E-13  0.5547E-11  0.2026E-14  0.1000E-09  0.0000E+00  0.1319E+16
   -1.012510    3.28376  0.8536E-13  0.1256E-10  0.4472E-14  0.1000E-09  0.0000E+00  0.1112E+16
   -1.050011    3.39210  0.8535E-13  0.2827E-10  0.9814E-14  0.1000E-09  0.0000E+00  0.9126E+15
   -1.087511    3.49890  0.8534E-13  0.6310E-10  0.2137E-13  0.1000E-09  0.0000E+00  0.7216E+15
   -1.125012    3.60412  0.8534E-13  0.1396E-09  0.4613E-13  0.2339E-09  0.0000E+00  0.5452E+15
   -1.162512    3.70914  0.8534E-13  0.3060E-09  0.9876E-13  0.7358E-09  0.0000E+00  0.3704E+15
   -1.200012    3.81397  0.8534E-13  0.6643E-09  0.2095E-12  0.2938E-08  0.0000E+00  0.1959E+15
   -1.237512    3.91750  0.8534E-13  0.1409E-08  0.4355E-12  0.3300E-07  0.0000E+00  0.3486E+14
   -1.275011    4.00354  0.8534E-13  0.2405E-08  0.7477E-12  0.2941E-05  0.0000E+00 -0.1512E+13
   -1.312511    4.00845  0.8534E-13  0.2886E-08  0.9763E-12  0.3168E-05  0.0000E+00 -0.1773E+13
   -1.350010    4.01308  0.8534E-13  0.3154E-08  0.1241E-11  0.2881E-05  0.0000E+00 -0.2364E+13
   -1.387509    4.01823  0.8534E-13  0.3178E-08  0.1611E-11  0.2146E-05  0.0000E+00 -0.3825E+13
   -1.425007    4.02513  0.8534E-13  0.2849E-08  0.2284E-11  0.1113E-05  0.0000E+00 -0.9084E+13
   -1.462505    4.03796  0.8534E-13  0.2015E-08  0.4170E-11  0.2368E-06  0.0000E+00 -0.4993E+14
   -1.500003    4.08144  0.8534E-13  0.0000E+00  0.0000E+00  0.0000E+00  0.0000E+00  0.0000E+00
