 1 - depth, m
 2 - temperature, C
 3 - salinity, kg/kg
 4 - turbulent kinetic energy, m**2/s**2
 5 - dissipation rate, m**2/s**3
 6 - kinematic heat conductance, m**2/s
 7 - modulus of horizontal velocity, m/s
 8 - Richardson number, n/d
   -0.000000   -0.00000  0.1835E-11  0.4096E-13  0.8590E-16  0.1000E-09  0.0000E+00  0.1622E+17
   -0.037498    0.25177  0.6290E-13  0.4096E-13  0.8590E-16  0.1000E-09  0.0000E+00  0.1439E+17
   -0.074996    0.49141  0.1230E-12  0.4096E-13  0.8590E-16  0.1000E-09  0.0000E+00  0.1248E+17
   -0.112494    0.71436  0.8671E-13  0.4096E-13  0.8590E-16  0.1000E-09  0.0000E+00  0.1063E+17
   -0.149993    0.91761  0.9563E-13  0.1038E-12  0.8590E-16  0.1000E-09  0.0000E+00  0.8911E+16
   -0.187492    1.09964  0.9335E-13  0.3320E-12  0.1076E-15  0.1000E-09  0.0000E+00  0.7392E+16
   -0.224991    1.26029  0.9370E-13  0.7738E-12  0.1947E-15  0.1000E-09  0.0000E+00  0.6093E+16
   -0.262491    1.40053  0.9364E-13  0.1602E-11  0.3723E-15  0.1000E-09  0.0000E+00  0.5052E+16
   -0.299991    1.52313  0.9363E-13  0.3163E-11  0.7090E-15  0.1000E-09  0.0000E+00  0.4231E+16
   -0.337491    1.63092  0.9362E-13  0.6117E-11  0.1337E-14  0.1000E-09  0.0000E+00  0.3607E+16
   -0.374991    1.72707  0.9361E-13  0.1169E-10  0.2500E-14  0.1000E-09  0.0000E+00  0.3333E+16
   -0.412491    1.81991  0.9360E-13  0.2215E-10  0.4638E-14  0.1000E-09  0.0000E+00  0.3312E+16
   -0.449992    1.91649  0.9355E-13  0.4164E-10  0.8540E-14  0.1000E-09  0.0000E+00  0.3416E+16
   -0.487493    2.02131  0.9341E-13  0.7773E-10  0.1561E-13  0.1000E-09  0.0000E+00  0.3614E+16
   -0.524994    2.13892  0.9305E-13  0.1436E-09  0.2825E-13  0.1000E-09  0.0000E+00  0.3851E+16
   -0.562495    2.27335  0.9232E-13  0.2628E-09  0.5065E-13  0.1000E-09  0.0000E+00  0.4069E+16
   -0.599996    2.42823  0.9122E-13  0.4773E-09  0.9012E-13  0.1000E-09  0.0000E+00  0.4190E+16
   -0.637497    2.60610  0.8989E-13  0.8606E-09  0.1592E-12  0.1130E-09  0.0000E+00  0.4130E+16
   -0.674998    2.80780  0.8858E-13  0.1541E-08  0.2793E-12  0.1989E-09  0.0000E+00  0.3817E+16
   -0.712499    3.03190  0.8746E-13  0.2740E-08  0.4866E-12  0.4095E-09  0.0000E+00  0.3215E+16
   -0.750001    3.27422  0.8660E-13  0.4836E-08  0.8417E-12  0.9628E-09  0.0000E+00  0.2360E+16
   -0.787502    3.52883  0.8584E-13  0.8468E-08  0.1445E-11  0.2955E-08  0.0000E+00  0.1328E+16
   -0.825003    3.78501  0.8510E-13  0.1455E-07  0.2436E-11  0.2317E-07  0.0000E+00  0.3148E+15
   -0.862504    4.00744  0.8500E-13  0.1561E-07  0.2614E-11  0.3344E-04  0.0000E+00 -0.3508E+12
   -0.900005    4.00868  0.8500E-13  0.1609E-07  0.2713E-11  0.3457E-04  0.0000E+00 -0.3624E+12
   -0.937507    4.00982  0.8500E-13  0.1650E-07  0.2817E-11  0.3543E-04  0.0000E+00 -0.3741E+12
   -0.975008    4.01091  0.8500E-13  0.1686E-07  0.2928E-11  0.3586E-04  0.0000E+00 -0.3887E+12
   -1.012508    4.01198  0.8500E-13  0.1717E-07  0.3048E-11  0.3601E-04  0.0000E+00 -0.4121E+12
   -1.050009    4.01305  0.8500E-13  0.1742E-07  0.3182E-11  0.3644E-04  0.0000E+00 -0.4348E+12
   -1.087510    4.01413  0.8500E-13  0.1762E-07  0.3334E-11  0.3558E-04  0.0000E+00 -0.4761E+12
   -1.125010    4.01525  0.8500E-13  0.1775E-07  0.3502E-11  0.3412E-04  0.0000E+00 -0.5203E+12
   -1.162510    4.01643  0.8500E-13  0.1781E-07  0.3689E-11  0.3263E-04  0.0000E+00 -0.5694E+12
   -1.200011    4.01766  0.8500E-13  0.1779E-07  0.3909E-11  0.3068E-04  0.0000E+00 -0.6358E+12
   -1.237510    4.01898  0.8500E-13  0.1767E-07  0.4181E-11  0.2803E-04  0.0000E+00 -0.7345E+12
   -1.275010    4.02045  0.8500E-13  0.1740E-07  0.4545E-11  0.2416E-04  0.0000E+00 -0.9054E+12
   -1.312509    4.02218  0.8500E-13  0.1690E-07  0.5065E-11  0.1867E-04  0.0000E+00 -0.1241E+13
   -1.350008    4.02440  0.8500E-13  0.1609E-07  0.5844E-11  0.1366E-04  0.0000E+00 -0.1829E+13
   -1.387507    4.02743  0.8500E-13  0.1478E-07  0.7155E-11  0.8804E-05  0.0000E+00 -0.3148E+13
   -1.425005    4.03215  0.8500E-13  0.1249E-07  0.1001E-10  0.4047E-05  0.0000E+00 -0.8048E+13
   -1.462503    4.04239  0.8500E-13  0.7861E-08  0.2086E-10  0.6354E-06  0.0000E+00 -0.7140E+14
   -1.500001    4.09717  0.8500E-13  0.0000E+00  0.0000E+00  0.0000E+00  0.0000E+00  0.0000E+00
