 1 - depth, m
 2 - temperature, C
 3 - salinity, kg/kg
 4 - turbulent kinetic energy, m**2/s**2
 5 - dissipation rate, m**2/s**3
 6 - kinematic heat conductance, m**2/s
 7 - modulus of horizontal velocity, m/s
 8 - Richardson number, n/d
   -0.000000   -0.00000  0.3519E-11  0.7634E-10  0.6080E-13  0.1000E-09  0.0000E+00  0.2768E+17
   -0.037497    0.44117  0.3231E-12  0.1911E-09  0.5196E-13  0.1000E-09  0.0000E+00  0.2324E+17
   -0.074994    0.86257  0.1673E-12  0.4066E-09  0.6806E-13  0.1000E-09  0.0000E+00  0.1940E+17
   -0.112492    1.26686  0.9774E-13  0.7559E-09  0.1048E-12  0.1000E-09  0.0000E+00  0.1604E+17
   -0.149990    1.65609  0.8415E-13  0.1313E-08  0.1685E-12  0.1000E-09  0.0000E+00  0.1305E+17
   -0.187488    2.03182  0.8183E-13  0.2203E-08  0.2724E-12  0.1000E-09  0.0000E+00  0.1038E+17
   -0.224986    2.39519  0.8142E-13  0.3635E-08  0.4394E-12  0.1533E-09  0.0000E+00  0.7975E+16
   -0.262485    2.74680  0.8133E-13  0.5940E-08  0.7059E-12  0.3391E-09  0.0000E+00  0.5796E+16
   -0.299984    3.08686  0.8132E-13  0.9641E-08  0.1129E-11  0.8231E-09  0.0000E+00  0.3825E+16
   -0.337483    3.41497  0.8131E-13  0.1557E-07  0.1799E-11  0.2453E-08  0.0000E+00  0.2052E+16
   -0.374983    3.72876  0.8131E-13  0.2491E-07  0.2841E-11  0.1564E-07  0.0000E+00  0.5184E+15
   -0.412482    4.00785  0.8131E-13  0.2550E-07  0.2914E-11  0.7989E-04  0.0000E+00 -0.1819E+12
   -0.449982    4.00838  0.8131E-13  0.2579E-07  0.2955E-11  0.7813E-04  0.0000E+00 -0.1897E+12
   -0.487482    4.00893  0.8131E-13  0.2607E-07  0.3001E-11  0.7841E-04  0.0000E+00 -0.1938E+12
   -0.524982    4.00948  0.8131E-13  0.2634E-07  0.3051E-11  0.7863E-04  0.0000E+00 -0.1980E+12
   -0.562482    4.01003  0.8131E-13  0.2658E-07  0.3105E-11  0.7867E-04  0.0000E+00 -0.2029E+12
   -0.599982    4.01058  0.8131E-13  0.2681E-07  0.3163E-11  0.7854E-04  0.0000E+00 -0.2082E+12
   -0.637483    4.01113  0.8131E-13  0.2701E-07  0.3226E-11  0.7821E-04  0.0000E+00 -0.2143E+12
   -0.674983    4.01168  0.8131E-13  0.2720E-07  0.3293E-11  0.7771E-04  0.0000E+00 -0.2210E+12
   -0.712484    4.01223  0.8131E-13  0.2736E-07  0.3366E-11  0.7702E-04  0.0000E+00 -0.2286E+12
   -0.749984    4.01280  0.8131E-13  0.2750E-07  0.3444E-11  0.7616E-04  0.0000E+00 -0.2368E+12
   -0.787485    4.01337  0.8131E-13  0.2762E-07  0.3527E-11  0.7510E-04  0.0000E+00 -0.2459E+12
   -0.824985    4.01395  0.8131E-13  0.2771E-07  0.3618E-11  0.7385E-04  0.0000E+00 -0.2561E+12
   -0.862485    4.01454  0.8131E-13  0.2777E-07  0.3716E-11  0.7241E-04  0.0000E+00 -0.2677E+12
   -0.899986    4.01515  0.8131E-13  0.2780E-07  0.3822E-11  0.7077E-04  0.0000E+00 -0.2806E+12
   -0.937486    4.01577  0.8131E-13  0.2780E-07  0.3937E-11  0.6893E-04  0.0000E+00 -0.2954E+12
   -0.974986    4.01641  0.8131E-13  0.2777E-07  0.4064E-11  0.6689E-04  0.0000E+00 -0.3123E+12
   -1.012486    4.01707  0.8131E-13  0.2769E-07  0.4204E-11  0.6462E-04  0.0000E+00 -0.3323E+12
   -1.049986    4.01775  0.8131E-13  0.2758E-07  0.4362E-11  0.6210E-04  0.0000E+00 -0.3559E+12
   -1.087486    4.01847  0.8131E-13  0.2741E-07  0.4540E-11  0.5930E-04  0.0000E+00 -0.3840E+12
   -1.124985    4.01923  0.8131E-13  0.2718E-07  0.4744E-11  0.5622E-04  0.0000E+00 -0.4169E+12
   -1.162485    4.02004  0.8131E-13  0.2689E-07  0.4981E-11  0.5283E-04  0.0000E+00 -0.4574E+12
   -1.199984    4.02090  0.8131E-13  0.2653E-07  0.5260E-11  0.4910E-04  0.0000E+00 -0.5080E+12
   -1.237483    4.02183  0.8131E-13  0.2606E-07  0.5594E-11  0.4501E-04  0.0000E+00 -0.5733E+12
   -1.274982    4.02285  0.8131E-13  0.2548E-07  0.6011E-11  0.4065E-04  0.0000E+00 -0.6580E+12
   -1.312480    4.02399  0.8131E-13  0.2463E-07  0.6625E-11  0.3186E-04  0.0000E+00 -0.8772E+12
   -1.349979    4.02546  0.8131E-13  0.2328E-07  0.7657E-11  0.2082E-04  0.0000E+00 -0.1413E+13
   -1.387476    4.02772  0.8131E-13  0.2126E-07  0.9432E-11  0.1278E-04  0.0000E+00 -0.2481E+13
   -1.424974    4.03140  0.8131E-13  0.1791E-07  0.1331E-10  0.5714E-05  0.0000E+00 -0.6288E+13
   -1.462471    4.03959  0.8131E-13  0.1076E-07  0.2897E-10  0.7807E-06  0.0000E+00 -0.6469E+14
   -1.499968    4.09173  0.8131E-13  0.0000E+00  0.0000E+00  0.0000E+00  0.0000E+00  0.0000E+00
