 1 - depth, m
 2 - temperature, C
 3 - salinity, kg/kg
 4 - turbulent kinetic energy, m**2/s**2
 5 - dissipation rate, m**2/s**3
 6 - kinematic heat conductance, m**2/s
 7 - modulus of horizontal velocity, m/s
 8 - Richardson number, n/d
   -0.000000   -0.00000  0.1644E-11  0.5287E-10  0.3906E-13  0.1000E-09  0.0000E+00  0.2471E+17
   -0.037497    0.39114  0.9080E-12  0.1267E-09  0.3560E-13  0.1000E-09  0.0000E+00  0.2147E+17
   -0.074995    0.77194  0.3252E-12  0.2696E-09  0.4975E-13  0.1000E-09  0.0000E+00  0.1850E+17
   -0.112493    1.14306  0.1297E-12  0.5099E-09  0.8049E-13  0.1000E-09  0.0000E+00  0.1575E+17
   -0.149991    1.50484  0.8924E-13  0.9083E-09  0.1345E-12  0.1000E-09  0.0000E+00  0.1321E+17
   -0.187490    1.85740  0.8271E-13  0.1571E-08  0.2251E-12  0.1000E-09  0.0000E+00  0.1087E+17
   -0.224989    2.20082  0.8161E-13  0.2678E-08  0.3752E-12  0.1197E-09  0.0000E+00  0.8699E+16
   -0.262488    2.53520  0.8138E-13  0.4522E-08  0.6222E-12  0.2574E-09  0.0000E+00  0.6710E+16
   -0.299988    2.86090  0.8132E-13  0.7586E-08  0.1026E-11  0.5840E-09  0.0000E+00  0.4879E+16
   -0.337487    3.17811  0.8131E-13  0.1266E-07  0.1685E-11  0.1466E-08  0.0000E+00  0.3192E+16
   -0.374987    3.48639  0.8131E-13  0.2100E-07  0.2753E-11  0.4646E-08  0.0000E+00  0.1647E+16
   -0.412487    3.78429  0.8131E-13  0.3415E-07  0.4418E-11  0.4004E-07  0.0000E+00  0.3103E+15
   -0.449987    4.02310  0.8131E-13  0.3490E-07  0.4521E-11  0.9411E-04  0.0000E+00 -0.2649E+12
   -0.487488    4.02356  0.8131E-13  0.3525E-07  0.4578E-11  0.9197E-04  0.0000E+00 -0.2731E+12
   -0.524988    4.02402  0.8131E-13  0.3558E-07  0.4639E-11  0.9227E-04  0.0000E+00 -0.2750E+12
   -0.562489    4.02449  0.8131E-13  0.3587E-07  0.4704E-11  0.9245E-04  0.0000E+00 -0.2776E+12
   -0.599990    4.02495  0.8131E-13  0.3612E-07  0.4774E-11  0.9242E-04  0.0000E+00 -0.2809E+12
   -0.637490    4.02541  0.8131E-13  0.3634E-07  0.4848E-11  0.9215E-04  0.0000E+00 -0.2851E+12
   -0.674991    4.02587  0.8131E-13  0.3652E-07  0.4928E-11  0.9166E-04  0.0000E+00 -0.2901E+12
   -0.712492    4.02634  0.8131E-13  0.3667E-07  0.5012E-11  0.9093E-04  0.0000E+00 -0.2961E+12
   -0.749993    4.02681  0.8131E-13  0.3678E-07  0.5104E-11  0.8999E-04  0.0000E+00 -0.3029E+12
   -0.787494    4.02729  0.8131E-13  0.3685E-07  0.5202E-11  0.8880E-04  0.0000E+00 -0.3108E+12
   -0.824995    4.02777  0.8131E-13  0.3689E-07  0.5308E-11  0.8739E-04  0.0000E+00 -0.3199E+12
   -0.862496    4.02826  0.8131E-13  0.3688E-07  0.5423E-11  0.8574E-04  0.0000E+00 -0.3304E+12
   -0.899996    4.02876  0.8131E-13  0.3684E-07  0.5548E-11  0.8385E-04  0.0000E+00 -0.3424E+12
   -0.937497    4.02927  0.8131E-13  0.3675E-07  0.5684E-11  0.8172E-04  0.0000E+00 -0.3563E+12
   -0.974998    4.02980  0.8131E-13  0.3661E-07  0.5835E-11  0.7934E-04  0.0000E+00 -0.3723E+12
   -1.012498    4.03034  0.8131E-13  0.3643E-07  0.6002E-11  0.7669E-04  0.0000E+00 -0.3918E+12
   -1.049999    4.03091  0.8131E-13  0.3618E-07  0.6191E-11  0.7374E-04  0.0000E+00 -0.4150E+12
   -1.087499    4.03150  0.8131E-13  0.3587E-07  0.6407E-11  0.7047E-04  0.0000E+00 -0.4428E+12
   -1.124999    4.03212  0.8131E-13  0.3549E-07  0.6655E-11  0.6687E-04  0.0000E+00 -0.4751E+12
   -1.162499    4.03278  0.8131E-13  0.3502E-07  0.6945E-11  0.6291E-04  0.0000E+00 -0.5147E+12
   -1.199998    4.03348  0.8131E-13  0.3446E-07  0.7288E-11  0.5856E-04  0.0000E+00 -0.5641E+12
   -1.237498    4.03424  0.8131E-13  0.3378E-07  0.7702E-11  0.5378E-04  0.0000E+00 -0.6276E+12
   -1.274997    4.03507  0.8131E-13  0.3296E-07  0.8213E-11  0.4872E-04  0.0000E+00 -0.7092E+12
   -1.312496    4.03599  0.8131E-13  0.3184E-07  0.8955E-11  0.4136E-04  0.0000E+00 -0.8571E+12
   -1.349995    4.03708  0.8131E-13  0.3009E-07  0.1022E-10  0.2561E-04  0.0000E+00 -0.1430E+13
   -1.387493    4.03885  0.8131E-13  0.2749E-07  0.1242E-10  0.1552E-04  0.0000E+00 -0.2478E+13
   -1.424991    4.04179  0.8131E-13  0.2322E-07  0.1725E-10  0.7029E-05  0.0000E+00 -0.5931E+13
   -1.462489    4.04825  0.8131E-13  0.1367E-07  0.3760E-10  0.8994E-06  0.0000E+00 -0.5918E+14
   -1.499986    4.09310  0.8131E-13  0.0000E+00  0.0000E+00  0.0000E+00  0.0000E+00  0.0000E+00
