 1 - depth, m
 2 - temperature, C
 3 - salinity, kg/kg
 4 - turbulent kinetic energy, m**2/s**2
 5 - dissipation rate, m**2/s**3
 6 - kinematic heat conductance, m**2/s
 7 - modulus of horizontal velocity, m/s
 8 - Richardson number, n/d
   -0.000000   11.80624  0.9877E-13  0.2795E-03  0.3057E-03  0.7203E-04  0.1939E+00 -0.4660E-01
   -0.037498   11.86622  0.9879E-13  0.1538E-03  0.8419E-04  0.1364E-03  0.6213E-01 -0.4593E-02
   -0.074996   11.87880  0.9880E-13  0.1058E-03  0.2908E-04  0.1414E-03  0.4123E-01 -0.6222E-01
   -0.112494   11.88681  0.9880E-13  0.8209E-04  0.1492E-04  0.1417E-03  0.3343E-01 -0.5376E-01
   -0.149993   11.89211  0.9880E-13  0.6615E-04  0.8147E-05  0.1452E-03  0.2839E-01 -0.4979E-01
   -0.187492   11.89632  0.9880E-13  0.5436E-04  0.4627E-05  0.1508E-03  0.2450E-01 -0.2911E-01
   -0.224992   11.89995  0.9880E-13  0.4560E-04  0.2746E-05  0.1594E-03  0.2142E-01  0.2250E+01
   -0.262491   11.90299  0.9880E-13  0.3899E-04  0.1700E-05  0.1677E-03  0.1901E-01  0.2062E+01
   -0.299991   11.90576  0.9880E-13  0.3383E-04  0.1106E-05  0.1771E-03  0.1693E-01  0.3337E+00
   -0.337491   11.90829  0.9881E-13  0.2970E-04  0.7548E-06  0.1875E-03  0.1516E-01  0.6799E+02
   -0.374991   11.91061  0.9881E-13  0.2633E-04  0.5378E-06  0.2007E-03  0.1365E-01  0.4778E+02
   -0.412492   11.91272  0.9881E-13  0.2356E-04  0.3973E-06  0.2153E-03  0.1238E-01  0.1055E+02
   -0.449992   11.91464  0.9881E-13  0.2126E-04  0.3024E-06  0.2329E-03  0.1130E-01  0.3393E+03
   -0.487493   11.91638  0.9881E-13  0.1937E-04  0.2364E-06  0.2539E-03  0.1040E-01  0.4655E+01
   -0.524994   11.91797  0.9881E-13  0.1785E-04  0.1896E-06  0.2761E-03  0.9633E-02  0.1837E+02
   -0.562495   11.91943  0.9881E-13  0.1659E-04  0.1552E-06  0.3083E-03  0.8932E-02  0.4430E+02
   -0.599996   11.92076  0.9881E-13  0.1554E-04  0.1293E-06  0.3623E-03  0.8291E-02  0.7676E+02
   -0.637498   11.92192  0.9881E-13  0.1463E-04  0.1094E-06  0.4251E-03  0.7706E-02  0.5433E+02
   -0.674999   11.92293  0.9881E-13  0.1386E-04  0.9372E-07  0.4904E-03  0.7164E-02  0.1522E+02
   -0.712500   11.92379  0.9881E-13  0.1318E-04  0.8124E-07  0.5364E-03  0.6658E-02  0.1278E+03
   -0.750001   11.92454  0.9881E-13  0.1257E-04  0.7111E-07  0.5680E-03  0.6179E-02  0.1684E+02
   -0.787503   11.92521  0.9881E-13  0.1201E-04  0.6277E-07  0.5872E-03  0.5725E-02  0.4028E+02
   -0.825004   11.92584  0.9881E-13  0.1149E-04  0.5580E-07  0.6003E-03  0.5290E-02  0.6446E+02
   -0.862505   11.92642  0.9881E-13  0.1100E-04  0.4990E-07  0.6068E-03  0.4874E-02  0.2986E+02
   -0.900007   11.92700  0.9881E-13  0.1051E-04  0.4483E-07  0.6050E-03  0.4473E-02  0.1169E+02
   -0.937508   11.92756  0.9881E-13  0.1002E-04  0.4041E-07  0.5991E-03  0.4085E-02  0.1359E+02
   -0.975009   11.92813  0.9881E-13  0.9528E-05  0.3652E-07  0.5861E-03  0.3708E-02  0.1340E+02
   -1.012510   11.92871  0.9881E-13  0.9009E-05  0.3302E-07  0.5771E-03  0.3338E-02  0.7919E+01
   -1.050010   11.92929  0.9881E-13  0.8469E-05  0.2988E-07  0.5645E-03  0.2996E-02  0.5377E+01
   -1.087511   11.92988  0.9881E-13  0.7911E-05  0.2710E-07  0.5479E-03  0.2683E-02  0.4054E+01
   -1.125012   11.93049  0.9881E-13  0.7339E-05  0.2468E-07  0.5275E-03  0.2398E-02  0.3180E+01
   -1.162512   11.93111  0.9881E-13  0.6759E-05  0.2264E-07  0.5039E-03  0.2141E-02  0.2540E+01
   -1.200012   11.93177  0.9881E-13  0.6181E-05  0.2103E-07  0.4778E-03  0.1912E-02  0.2038E+01
   -1.237512   11.93246  0.9881E-13  0.5618E-05  0.1989E-07  0.4499E-03  0.1712E-02  0.1666E+01
   -1.275011   11.93319  0.9881E-13  0.5094E-05  0.1929E-07  0.4039E-03  0.1542E-02  0.1459E+01
   -1.312511   11.93400  0.9881E-13  0.4637E-05  0.1931E-07  0.3379E-03  0.1406E-02  0.1668E+01
   -1.350010   11.93497  0.9881E-13  0.4236E-05  0.2010E-07  0.2816E-03  0.1306E-02  0.4027E+01
   -1.387509   11.93617  0.9881E-13  0.3821E-05  0.2206E-07  0.2315E-03  0.1230E-02  0.1439E+02
   -1.425007   11.93767  0.9881E-13  0.3284E-05  0.2739E-07  0.1548E-03  0.1169E-02  0.1676E+03
   -1.462505   11.94037  0.9881E-13  0.1870E-05  0.5859E-07  0.1532E-04  0.1109E-02 -0.6820E+04
   -1.500003   11.96374  0.9881E-13  0.0000E+00  0.0000E+00  0.0000E+00  0.1099E-02  0.0000E+00
