 1 - depth, m
 2 - temperature, C
 3 - salinity, kg/kg
 4 - turbulent kinetic energy, m**2/s**2
 5 - dissipation rate, m**2/s**3
 6 - kinematic heat conductance, m**2/s
 7 - modulus of horizontal velocity, m/s
 8 - Richardson number, n/d
   -0.000000   -0.00000  0.1977E-11  0.5030E-10  0.3612E-13  0.1000E-09  0.0000E+00  0.2514E+17
   -0.037498    0.39823  0.8666E-12  0.1184E-09  0.3040E-13  0.1000E-09  0.0000E+00  0.2216E+17
   -0.074996    0.79295  0.2431E-12  0.2450E-09  0.3814E-13  0.1000E-09  0.0000E+00  0.1921E+17
   -0.112494    1.18251  0.1037E-12  0.4454E-09  0.5637E-13  0.1000E-09  0.0000E+00  0.1633E+17
   -0.149993    1.56515  0.8462E-13  0.7548E-09  0.8743E-13  0.1000E-09  0.0000E+00  0.1357E+17
   -0.187492    1.93914  0.8206E-13  0.1233E-08  0.1369E-12  0.1000E-09  0.0000E+00  0.1095E+17
   -0.224992    2.30283  0.8150E-13  0.1977E-08  0.2141E-12  0.1001E-09  0.0000E+00  0.8508E+16
   -0.262491    2.65454  0.8135E-13  0.3135E-08  0.3338E-12  0.1501E-09  0.0000E+00  0.6269E+16
   -0.299991    2.99254  0.8132E-13  0.4938E-08  0.5188E-12  0.3399E-09  0.0000E+00  0.4245E+16
   -0.337491    3.31413  0.8131E-13  0.7745E-08  0.8040E-12  0.9055E-09  0.0000E+00  0.2464E+16
   -0.374992    3.61519  0.8131E-13  0.1210E-07  0.1242E-11  0.3738E-08  0.0000E+00  0.9796E+15
   -0.412492    3.88960  0.8131E-13  0.1610E-07  0.1666E-11  0.1524E-04  0.0000E+00  0.1363E+15
   -0.449993    3.99929  0.8131E-13  0.1657E-07  0.1720E-11  0.5269E-04  0.0000E+00 -0.1275E+12
   -0.487494    4.00008  0.8131E-13  0.1686E-07  0.1758E-11  0.5417E-04  0.0000E+00 -0.1351E+12
   -0.524995    4.00080  0.8131E-13  0.1713E-07  0.1800E-11  0.5594E-04  0.0000E+00 -0.1400E+12
   -0.562496    4.00149  0.8131E-13  0.1740E-07  0.1845E-11  0.5732E-04  0.0000E+00 -0.1448E+12
   -0.599997    4.00214  0.8131E-13  0.1764E-07  0.1892E-11  0.5823E-04  0.0000E+00 -0.1501E+12
   -0.637498    4.00278  0.8131E-13  0.1788E-07  0.1942E-11  0.5860E-04  0.0000E+00 -0.1566E+12
   -0.674999    4.00342  0.8131E-13  0.1810E-07  0.1996E-11  0.5868E-04  0.0000E+00 -0.1637E+12
   -0.712501    4.00405  0.8131E-13  0.1830E-07  0.2054E-11  0.5854E-04  0.0000E+00 -0.1717E+12
   -0.750002    4.00469  0.8131E-13  0.1849E-07  0.2116E-11  0.5814E-04  0.0000E+00 -0.1805E+12
   -0.787503    4.00534  0.8131E-13  0.1867E-07  0.2183E-11  0.5751E-04  0.0000E+00 -0.1905E+12
   -0.825005    4.00599  0.8131E-13  0.1883E-07  0.2254E-11  0.5673E-04  0.0000E+00 -0.2013E+12
   -0.862506    4.00666  0.8131E-13  0.1897E-07  0.2332E-11  0.5579E-04  0.0000E+00 -0.2134E+12
   -0.900007    4.00734  0.8131E-13  0.1909E-07  0.2415E-11  0.5469E-04  0.0000E+00 -0.2267E+12
   -0.937508    4.00804  0.8131E-13  0.1919E-07  0.2506E-11  0.5342E-04  0.0000E+00 -0.2418E+12
   -0.975009    4.00877  0.8131E-13  0.1926E-07  0.2605E-11  0.5199E-04  0.0000E+00 -0.2588E+12
   -1.012510    4.00951  0.8131E-13  0.1931E-07  0.2713E-11  0.5036E-04  0.0000E+00 -0.2788E+12
   -1.050011    4.01028  0.8131E-13  0.1932E-07  0.2834E-11  0.4852E-04  0.0000E+00 -0.3023E+12
   -1.087512    4.01110  0.8131E-13  0.1930E-07  0.2970E-11  0.4646E-04  0.0000E+00 -0.3301E+12
   -1.125012    4.01195  0.8131E-13  0.1923E-07  0.3125E-11  0.4415E-04  0.0000E+00 -0.3626E+12
   -1.162513    4.01286  0.8131E-13  0.1912E-07  0.3302E-11  0.4156E-04  0.0000E+00 -0.4024E+12
   -1.200013    4.01382  0.8131E-13  0.1894E-07  0.3510E-11  0.3870E-04  0.0000E+00 -0.4523E+12
   -1.237513    4.01487  0.8131E-13  0.1868E-07  0.3765E-11  0.3540E-04  0.0000E+00 -0.5188E+12
   -1.275012    4.01602  0.8131E-13  0.1830E-07  0.4105E-11  0.3018E-04  0.0000E+00 -0.6435E+12
   -1.312512    4.01741  0.8131E-13  0.1770E-07  0.4605E-11  0.2269E-04  0.0000E+00 -0.9127E+12
   -1.350011    4.01927  0.8131E-13  0.1676E-07  0.5387E-11  0.1573E-04  0.0000E+00 -0.1415E+13
   -1.387510    4.02195  0.8131E-13  0.1532E-07  0.6713E-11  0.9763E-05  0.0000E+00 -0.2528E+13
   -1.425008    4.02627  0.8131E-13  0.1288E-07  0.9607E-11  0.4319E-05  0.0000E+00 -0.6751E+13
   -1.462506    4.03596  0.8131E-13  0.7952E-08  0.2069E-10  0.6392E-06  0.0000E+00 -0.6666E+14
   -1.500004    4.09114  0.8131E-13  0.0000E+00  0.0000E+00  0.0000E+00  0.0000E+00  0.0000E+00
