 1 - depth, m
 2 - temperature, C
 3 - salinity, kg/kg
 4 - turbulent kinetic energy, m**2/s**2
 5 - dissipation rate, m**2/s**3
 6 - kinematic heat conductance, m**2/s
 7 - modulus of horizontal velocity, m/s
 8 - Richardson number, n/d
   -0.000000   -0.00000  0.1386E-11  0.4096E-13  0.8590E-16  0.1000E-09  0.0000E+00  0.2021E+17
   -0.037497    0.31656  0.0000E+00  0.4096E-13  0.8590E-16  0.1000E-09  0.0000E+00  0.1589E+17
   -0.074994    0.58748  0.1203E-12  0.4096E-13  0.8590E-16  0.1000E-09  0.0000E+00  0.1243E+17
   -0.112492    0.81658  0.7965E-13  0.4096E-13  0.8590E-16  0.1000E-09  0.0000E+00  0.9674E+16
   -0.149990    1.00771  0.8907E-13  0.4096E-13  0.8590E-16  0.1000E-09  0.0000E+00  0.7471E+16
   -0.187488    1.16465  0.8646E-13  0.4096E-13  0.8590E-16  0.1000E-09  0.0000E+00  0.5708E+16
   -0.224986    1.29103  0.8662E-13  0.4096E-13  0.8590E-16  0.1000E-09  0.0000E+00  0.4291E+16
   -0.262485    1.39028  0.8659E-13  0.4515E-13  0.8590E-16  0.1000E-09  0.0000E+00  0.3254E+16
   -0.299984    1.46831  0.8657E-13  0.9124E-13  0.9482E-16  0.1000E-09  0.0000E+00  0.2448E+16
   -0.337483    1.52875  0.8656E-13  0.2445E-12  0.1405E-15  0.1000E-09  0.0000E+00  0.1809E+16
   -0.374982    1.57444  0.8656E-13  0.6382E-12  0.2891E-15  0.1000E-09  0.0000E+00  0.1427E+16
   -0.412482    1.61118  0.8655E-13  0.1606E-11  0.6699E-15  0.1000E-09  0.0000E+00  0.1236E+16
   -0.449982    1.64351  0.8653E-13  0.3907E-11  0.1575E-14  0.1000E-09  0.0000E+00  0.1155E+16
   -0.487482    1.67421  0.8647E-13  0.9341E-11  0.3667E-14  0.1000E-09  0.0000E+00  0.1236E+16
   -0.524982    1.70758  0.8626E-13  0.2198E-10  0.8416E-14  0.1000E-09  0.0000E+00  0.1666E+16
   -0.562482    1.75337  0.8575E-13  0.5109E-10  0.1909E-13  0.1000E-09  0.0000E+00  0.2199E+16
   -0.599982    1.81537  0.8493E-13  0.1175E-09  0.4286E-13  0.1000E-09  0.0000E+00  0.2829E+16
   -0.637482    1.89802  0.8395E-13  0.2678E-09  0.9530E-13  0.1064E-09  0.0000E+00  0.3545E+16
   -0.674983    2.00680  0.8292E-13  0.6044E-09  0.2099E-12  0.1421E-09  0.0000E+00  0.4315E+16
   -0.712483    2.14851  0.8164E-13  0.1351E-08  0.4582E-12  0.2453E-09  0.0000E+00  0.5072E+16
   -0.749984    2.33173  0.8013E-13  0.2991E-08  0.9908E-12  0.4711E-09  0.0000E+00  0.5769E+16
   -0.787484    2.57077  0.7888E-13  0.6560E-08  0.2123E-11  0.1002E-08  0.0000E+00  0.6038E+16
   -0.824985    2.87869  0.7830E-13  0.1424E-07  0.4503E-11  0.2658E-08  0.0000E+00  0.5413E+16
   -0.862485    3.26520  0.7823E-13  0.3020E-07  0.9362E-11  0.1896E-07  0.0000E+00  0.3461E+16
   -0.899985    3.70163  0.7819E-13  0.4493E-07  0.1407E-10  0.2364E-04  0.0000E+00  0.1252E+16
   -0.937485    3.97928  0.7812E-13  0.5221E-07  0.1654E-10  0.4899E-04  0.0000E+00  0.1202E+15
   -0.974986    4.05606  0.7810E-13  0.5388E-07  0.1723E-10  0.6294E-04  0.0000E+00 -0.1510E+13
   -1.012486    4.05744  0.7810E-13  0.5498E-07  0.1783E-10  0.6272E-04  0.0000E+00 -0.1585E+13
   -1.049986    4.05885  0.7810E-13  0.5587E-07  0.1850E-10  0.6048E-04  0.0000E+00 -0.1712E+13
   -1.087485    4.06035  0.7810E-13  0.5655E-07  0.1924E-10  0.5954E-04  0.0000E+00 -0.1814E+13
   -1.124985    4.06190  0.7810E-13  0.5698E-07  0.2006E-10  0.5815E-04  0.0000E+00 -0.1908E+13
   -1.162484    4.06350  0.7810E-13  0.5716E-07  0.2099E-10  0.5619E-04  0.0000E+00 -0.2026E+13
   -1.199983    4.06516  0.7810E-13  0.5705E-07  0.2206E-10  0.5361E-04  0.0000E+00 -0.2180E+13
   -1.237482    4.06690  0.7810E-13  0.5663E-07  0.2333E-10  0.5037E-04  0.0000E+00 -0.2386E+13
   -1.274981    4.06877  0.7810E-13  0.5586E-07  0.2488E-10  0.4640E-04  0.0000E+00 -0.2669E+13
   -1.312480    4.07081  0.7810E-13  0.5464E-07  0.2686E-10  0.4176E-04  0.0000E+00 -0.3062E+13
   -1.349978    4.07310  0.7810E-13  0.5263E-07  0.2985E-10  0.3414E-04  0.0000E+00 -0.3871E+13
   -1.387476    4.07591  0.7810E-13  0.4906E-07  0.3539E-10  0.2037E-04  0.0000E+00 -0.6815E+13
   -1.424973    4.08066  0.7810E-13  0.4272E-07  0.4745E-10  0.9921E-05  0.0000E+00 -0.1511E+14
   -1.462470    4.09040  0.7810E-13  0.2787E-07  0.9742E-10  0.1624E-05  0.0000E+00 -0.1153E+15
   -1.499967    4.14627  0.7810E-13  0.0000E+00  0.0000E+00  0.0000E+00  0.0000E+00  0.0000E+00
