 1 - depth, m
 2 - temperature, C
 3 - salinity, kg/kg
 4 - turbulent kinetic energy, m**2/s**2
 5 - dissipation rate, m**2/s**3
 6 - kinematic heat conductance, m**2/s
 7 - modulus of horizontal velocity, m/s
 8 - Richardson number, n/d
   -0.000000   -0.00000  0.2239E-14  0.1281E-11  0.5879E-15  0.1000E-09  0.0000E+00  0.2076E+17
   -0.037498    0.32560  0.8195E-14  0.2427E-11  0.8385E-15  0.1000E-09  0.0000E+00  0.1715E+17
   -0.074996    0.61988  0.3017E-13  0.5251E-11  0.1628E-14  0.1000E-09  0.0000E+00  0.1408E+17
   -0.112495    0.88351  0.6632E-13  0.1136E-10  0.3370E-14  0.1000E-09  0.0000E+00  0.1151E+17
   -0.149993    1.11806  0.1095E-12  0.2427E-10  0.7005E-14  0.1000E-09  0.0000E+00  0.9408E+16
   -0.187493    1.32582  0.1511E-12  0.5133E-10  0.1447E-13  0.1000E-09  0.0000E+00  0.7710E+16
   -0.224992    1.50970  0.1839E-12  0.1076E-09  0.2966E-13  0.1000E-09  0.0000E+00  0.6374E+16
   -0.262492    1.67326  0.2040E-12  0.2238E-09  0.6031E-13  0.1000E-09  0.0000E+00  0.5424E+16
   -0.299992    1.82266  0.2109E-12  0.4611E-09  0.1216E-12  0.1005E-09  0.0000E+00  0.4777E+16
   -0.337492    1.96389  0.2066E-12  0.9428E-09  0.2433E-12  0.1542E-09  0.0000E+00  0.4403E+16
   -0.374992    2.10419  0.1944E-12  0.1913E-08  0.4833E-12  0.2897E-09  0.0000E+00  0.4470E+16
   -0.412493    2.25935  0.1778E-12  0.3855E-08  0.9533E-12  0.5307E-09  0.0000E+00  0.4825E+16
   -0.449993    2.44622  0.1599E-12  0.7710E-08  0.1867E-11  0.9662E-09  0.0000E+00  0.5224E+16
   -0.487494    2.68170  0.1427E-12  0.1531E-07  0.3631E-11  0.1868E-08  0.0000E+00  0.5373E+16
   -0.524995    2.98575  0.1271E-12  0.3003E-07  0.6979E-11  0.4568E-08  0.0000E+00  0.4722E+16
   -0.562496    3.37561  0.1093E-12  0.5689E-07  0.1302E-10  0.5210E-07  0.0000E+00  0.2760E+16
   -0.599998    3.79405  0.9434E-13  0.7534E-07  0.1743E-10  0.6023E-04  0.0000E+00  0.8805E+15
   -0.637499    4.01672  0.8802E-13  0.8148E-07  0.1899E-10  0.1036E-03  0.0000E+00  0.5775E+14
   -0.675000    4.06015  0.8726E-13  0.8251E-07  0.1931E-10  0.1176E-03  0.0000E+00 -0.9232E+12
   -0.712502    4.06095  0.8725E-13  0.8326E-07  0.1960E-10  0.1173E-03  0.0000E+00 -0.9358E+12
   -0.750003    4.06175  0.8725E-13  0.8388E-07  0.1992E-10  0.1172E-03  0.0000E+00 -0.9426E+12
   -0.787505    4.06254  0.8724E-13  0.8436E-07  0.2025E-10  0.1167E-03  0.0000E+00 -0.9522E+12
   -0.825006    4.06334  0.8723E-13  0.8473E-07  0.2062E-10  0.1158E-03  0.0000E+00 -0.9664E+12
   -0.862507    4.06414  0.8723E-13  0.8496E-07  0.2101E-10  0.1144E-03  0.0000E+00 -0.9845E+12
   -0.900009    4.06494  0.8722E-13  0.8506E-07  0.2143E-10  0.1126E-03  0.0000E+00 -0.1008E+13
   -0.937510    4.06575  0.8722E-13  0.8503E-07  0.2190E-10  0.1104E-03  0.0000E+00 -0.1036E+13
   -0.975011    4.06658  0.8721E-13  0.8486E-07  0.2241E-10  0.1077E-03  0.0000E+00 -0.1070E+13
   -1.012512    4.06743  0.8721E-13  0.8454E-07  0.2299E-10  0.1046E-03  0.0000E+00 -0.1117E+13
   -1.050013    4.06830  0.8720E-13  0.8407E-07  0.2364E-10  0.1010E-03  0.0000E+00 -0.1176E+13
   -1.087514    4.06921  0.8720E-13  0.8342E-07  0.2438E-10  0.9686E-04  0.0000E+00 -0.1247E+13
   -1.125014    4.07016  0.8719E-13  0.8257E-07  0.2525E-10  0.9222E-04  0.0000E+00 -0.1323E+13
   -1.162514    4.07116  0.8719E-13  0.8151E-07  0.2626E-10  0.8704E-04  0.0000E+00 -0.1417E+13
   -1.200015    4.07222  0.8718E-13  0.8019E-07  0.2747E-10  0.8127E-04  0.0000E+00 -0.1535E+13
   -1.237515    4.07335  0.8718E-13  0.7858E-07  0.2894E-10  0.7487E-04  0.0000E+00 -0.1688E+13
   -1.275014    4.07457  0.8718E-13  0.7663E-07  0.3078E-10  0.6777E-04  0.0000E+00 -0.1892E+13
   -1.312514    4.07593  0.8717E-13  0.7426E-07  0.3316E-10  0.6019E-04  0.0000E+00 -0.2167E+13
   -1.350013    4.07745  0.8717E-13  0.7103E-07  0.3674E-10  0.4950E-04  0.0000E+00 -0.2671E+13
   -1.387512    4.07930  0.8717E-13  0.6583E-07  0.4348E-10  0.2700E-04  0.0000E+00 -0.5036E+13
   -1.425010    4.08270  0.8716E-13  0.5685E-07  0.5889E-10  0.1244E-04  0.0000E+00 -0.1149E+14
   -1.462508    4.09004  0.8716E-13  0.3487E-07  0.1277E-09  0.1704E-05  0.0000E+00 -0.1009E+15
   -1.500006    4.14006  0.8714E-13  0.0000E+00  0.0000E+00  0.0000E+00  0.0000E+00  0.0000E+00
