 1 - depth, m
 2 - temperature, C
 3 - salinity, kg/kg
 4 - turbulent kinetic energy, m**2/s**2
 5 - dissipation rate, m**2/s**3
 6 - kinematic heat conductance, m**2/s
 7 - modulus of horizontal velocity, m/s
 8 - Richardson number, n/d
   -0.000000    8.59724  0.8630E-13  0.2633E-03  0.2533E-03  0.6872E-04  0.1743E+00 -0.6187E-02
   -0.037498    8.65189  0.8631E-13  0.1415E-03  0.7685E-04  0.1292E-03  0.5514E-01 -0.1400E+00
   -0.074996    8.66103  0.8631E-13  0.9836E-04  0.2609E-04  0.1346E-03  0.3818E-01 -0.2303E+01
   -0.112494    8.66737  0.8631E-13  0.7706E-04  0.1353E-04  0.1351E-03  0.3169E-01 -0.1893E-01
   -0.149993    8.67199  0.8631E-13  0.6214E-04  0.7431E-05  0.1379E-03  0.2718E-01 -0.3456E-01
   -0.187492    8.67594  0.8631E-13  0.5108E-04  0.4360E-05  0.1426E-03  0.2358E-01 -0.2000E-01
   -0.224992    8.67947  0.8631E-13  0.4271E-04  0.2667E-05  0.1487E-03  0.2069E-01 -0.3120E-01
   -0.262491    8.68259  0.8631E-13  0.3630E-04  0.1689E-05  0.1544E-03  0.1834E-01 -0.1758E-01
   -0.299991    8.68550  0.8631E-13  0.3125E-04  0.1105E-05  0.1603E-03  0.1629E-01  0.1284E+01
   -0.337491    8.68822  0.8631E-13  0.2719E-04  0.7442E-06  0.1670E-03  0.1453E-01  0.8247E+01
   -0.374992    8.69073  0.8631E-13  0.2387E-04  0.5154E-06  0.1747E-03  0.1302E-01  0.2794E+01
   -0.412492    8.69307  0.8631E-13  0.2113E-04  0.3679E-06  0.1836E-03  0.1173E-01  0.2266E+01
   -0.449993    8.69525  0.8631E-13  0.1887E-04  0.2711E-06  0.1942E-03  0.1062E-01  0.2253E+00
   -0.487494    8.69728  0.8631E-13  0.1703E-04  0.2065E-06  0.2064E-03  0.9697E-02  0.2431E+00
   -0.524994    8.69915  0.8631E-13  0.1555E-04  0.1624E-06  0.2170E-03  0.8915E-02  0.3937E+01
   -0.562496    8.70091  0.8631E-13  0.1432E-04  0.1310E-06  0.2325E-03  0.8195E-02  0.1056E+01
   -0.599997    8.70254  0.8631E-13  0.1329E-04  0.1077E-06  0.2554E-03  0.7541E-02  0.5224E+02
   -0.637498    8.70404  0.8631E-13  0.1240E-04  0.9001E-07  0.2870E-03  0.6947E-02  0.3507E+02
   -0.674999    8.70538  0.8631E-13  0.1163E-04  0.7623E-07  0.3274E-03  0.6407E-02  0.1599E+02
   -0.712501    8.70657  0.8631E-13  0.1095E-04  0.6534E-07  0.3660E-03  0.5913E-02  0.3698E+02
   -0.750002    8.70763  0.8631E-13  0.1034E-04  0.5659E-07  0.4044E-03  0.5457E-02  0.3353E+02
   -0.787503    8.70858  0.8631E-13  0.9798E-05  0.4944E-07  0.4409E-03  0.5033E-02  0.1818E+02
   -0.825005    8.70942  0.8631E-13  0.9296E-05  0.4354E-07  0.4705E-03  0.4636E-02  0.3998E+02
   -0.862506    8.71019  0.8631E-13  0.8827E-05  0.3859E-07  0.4955E-03  0.4261E-02  0.1147E+02
   -0.900007    8.71090  0.8631E-13  0.8381E-05  0.3439E-07  0.5120E-03  0.3903E-02  0.2546E+02
   -0.937508    8.71156  0.8631E-13  0.7949E-05  0.3079E-07  0.5205E-03  0.3560E-02  0.1328E+02
   -0.975009    8.71220  0.8631E-13  0.7521E-05  0.2763E-07  0.5174E-03  0.3229E-02  0.1051E+02
   -1.012510    8.71282  0.8631E-13  0.7087E-05  0.2483E-07  0.5186E-03  0.2905E-02  0.4550E+02
   -1.050011    8.71343  0.8631E-13  0.6647E-05  0.2234E-07  0.5135E-03  0.2608E-02  0.9586E+01
   -1.087512    8.71403  0.8631E-13  0.6202E-05  0.2013E-07  0.5042E-03  0.2337E-02  0.4260E+01
   -1.125012    8.71464  0.8631E-13  0.5756E-05  0.1821E-07  0.4909E-03  0.2091E-02  0.2788E+01
   -1.162512    8.71526  0.8631E-13  0.5312E-05  0.1656E-07  0.4755E-03  0.1870E-02  0.1169E+02
   -1.200013    8.71588  0.8631E-13  0.4875E-05  0.1521E-07  0.4564E-03  0.1673E-02  0.2250E+01
   -1.237512    8.71653  0.8631E-13  0.4454E-05  0.1418E-07  0.4260E-03  0.1500E-02  0.1438E+01
   -1.275012    8.71722  0.8631E-13  0.4064E-05  0.1350E-07  0.3798E-03  0.1354E-02  0.1244E+01
   -1.312511    8.71799  0.8631E-13  0.3721E-05  0.1323E-07  0.3285E-03  0.1236E-02  0.1396E+01
   -1.350011    8.71887  0.8631E-13  0.3424E-05  0.1339E-07  0.2810E-03  0.1147E-02  0.2718E+01
   -1.387509    8.71989  0.8631E-13  0.3136E-05  0.1412E-07  0.2425E-03  0.1082E-02  0.1445E+02
   -1.425008    8.72108  0.8631E-13  0.2745E-05  0.1644E-07  0.1356E-03  0.1031E-02  0.4758E+03
   -1.462506    8.72312  0.8631E-13  0.1509E-05  0.3417E-07  0.1006E-04  0.9766E-03 -0.3927E+04
   -1.500004    8.74963  0.8631E-13  0.0000E+00  0.0000E+00  0.0000E+00  0.9567E-03  0.0000E+00
