 1 - depth, m
 2 - temperature, C
 3 - salinity, kg/kg
 4 - turbulent kinetic energy, m**2/s**2
 5 - dissipation rate, m**2/s**3
 6 - kinematic heat conductance, m**2/s
 7 - modulus of horizontal velocity, m/s
 8 - Richardson number, n/d
   -0.000000   -0.00000  0.5324E-12  0.4096E-13  0.8590E-16  0.1000E-09  0.0000E+00  0.1105E+17
   -0.037498    0.16962  0.3804E-12  0.4096E-13  0.8590E-16  0.1000E-09  0.0000E+00  0.1045E+17
   -0.074995    0.33773  0.3007E-12  0.4096E-13  0.8590E-16  0.1000E-09  0.0000E+00  0.9860E+16
   -0.112494    0.50429  0.2328E-12  0.4096E-13  0.8590E-16  0.1000E-09  0.0000E+00  0.9286E+16
   -0.149992    0.66928  0.1784E-12  0.4096E-13  0.8590E-16  0.1000E-09  0.0000E+00  0.8726E+16
   -0.187491    0.83263  0.1409E-12  0.4096E-13  0.8590E-16  0.1000E-09  0.0000E+00  0.8179E+16
   -0.224990    0.99428  0.1186E-12  0.4096E-13  0.8590E-16  0.1000E-09  0.0000E+00  0.7646E+16
   -0.262490    1.15418  0.1069E-12  0.4096E-13  0.8590E-16  0.1000E-09  0.0000E+00  0.7130E+16
   -0.299989    1.31232  0.1014E-12  0.4096E-13  0.8590E-16  0.1000E-09  0.0000E+00  0.6628E+16
   -0.337489    1.46863  0.9895E-13  0.1335E-12  0.8590E-16  0.1000E-09  0.0000E+00  0.6140E+16
   -0.374989    1.62304  0.9792E-13  0.3912E-12  0.1113E-15  0.1000E-09  0.0000E+00  0.5692E+16
   -0.412490    1.77619  0.9739E-13  0.8656E-12  0.1939E-15  0.1000E-09  0.0000E+00  0.5268E+16
   -0.449990    1.92846  0.9695E-13  0.1718E-11  0.3553E-15  0.1000E-09  0.0000E+00  0.4851E+16
   -0.487491    2.07979  0.9645E-13  0.3265E-11  0.6504E-15  0.1000E-09  0.0000E+00  0.4439E+16
   -0.524991    2.23005  0.9580E-13  0.6061E-11  0.1178E-14  0.1000E-09  0.0000E+00  0.4031E+16
   -0.562492    2.37899  0.9502E-13  0.1111E-10  0.2114E-14  0.1000E-09  0.0000E+00  0.3632E+16
   -0.599993    2.52651  0.9414E-13  0.2020E-10  0.3768E-14  0.1000E-09  0.0000E+00  0.3243E+16
   -0.637494    2.67251  0.9320E-13  0.3650E-10  0.6678E-14  0.1000E-09  0.0000E+00  0.2865E+16
   -0.674995    2.81692  0.9226E-13  0.6558E-10  0.1177E-13  0.1000E-09  0.0000E+00  0.2498E+16
   -0.712496    2.95965  0.9137E-13  0.1172E-09  0.2065E-13  0.1000E-09  0.0000E+00  0.2144E+16
   -0.749998    3.10062  0.9058E-13  0.2084E-09  0.3602E-13  0.1000E-09  0.0000E+00  0.1810E+16
   -0.787499    3.24039  0.8992E-13  0.3686E-09  0.6254E-13  0.1168E-09  0.0000E+00  0.1486E+16
   -0.825000    3.37911  0.8943E-13  0.6486E-09  0.1081E-12  0.2563E-09  0.0000E+00  0.1170E+16
   -0.862501    3.51665  0.8912E-13  0.1136E-08  0.1858E-12  0.5980E-09  0.0000E+00  0.8620E+15
   -0.900002    3.65279  0.8896E-13  0.1977E-08  0.3177E-12  0.1567E-08  0.0000E+00  0.5623E+15
   -0.937503    3.78694  0.8889E-13  0.3419E-08  0.5399E-12  0.5466E-08  0.0000E+00  0.2738E+15
   -0.975004    3.91649  0.8887E-13  0.5722E-08  0.8911E-12  0.6956E-07  0.0000E+00  0.3521E+14
   -1.012504    4.00601  0.8887E-13  0.6629E-08  0.1038E-11  0.1574E-04  0.0000E+00 -0.3803E+12
   -1.050005    4.00720  0.8887E-13  0.7056E-08  0.1123E-11  0.1639E-04  0.0000E+00 -0.3920E+12
   -1.087505    4.00837  0.8887E-13  0.7413E-08  0.1213E-11  0.1664E-04  0.0000E+00 -0.4130E+12
   -1.125006    4.00953  0.8887E-13  0.7705E-08  0.1311E-11  0.1653E-04  0.0000E+00 -0.4448E+12
   -1.162506    4.01073  0.8887E-13  0.7931E-08  0.1419E-11  0.1605E-04  0.0000E+00 -0.4904E+12
   -1.200006    4.01198  0.8887E-13  0.8087E-08  0.1544E-11  0.1519E-04  0.0000E+00 -0.5555E+12
   -1.237505    4.01332  0.8887E-13  0.8163E-08  0.1692E-11  0.1394E-04  0.0000E+00 -0.6505E+12
   -1.275005    4.01482  0.8887E-13  0.8143E-08  0.1877E-11  0.1229E-04  0.0000E+00 -0.7965E+12
   -1.312504    4.01655  0.8887E-13  0.7997E-08  0.2120E-11  0.1023E-04  0.0000E+00 -0.1040E+13
   -1.350003    4.01867  0.8887E-13  0.7670E-08  0.2470E-11  0.7791E-05  0.0000E+00 -0.1504E+13
   -1.387501    4.02151  0.8887E-13  0.7054E-08  0.3051E-11  0.5033E-05  0.0000E+00 -0.2622E+13
   -1.425000    4.02599  0.8887E-13  0.5892E-08  0.4297E-11  0.2251E-05  0.0000E+00 -0.6948E+13
   -1.462498    4.03592  0.8887E-13  0.3757E-08  0.8524E-11  0.3707E-06  0.0000E+00 -0.5501E+14
   -1.499995    4.08374  0.8887E-13  0.0000E+00  0.0000E+00  0.0000E+00  0.0000E+00  0.0000E+00
