 1 - depth, m
 2 - temperature, C
 3 - salinity, kg/kg
 4 - turbulent kinetic energy, m**2/s**2
 5 - dissipation rate, m**2/s**3
 6 - kinematic heat conductance, m**2/s
 7 - modulus of horizontal velocity, m/s
 8 - Richardson number, n/d
   -0.000000   -0.00000  0.9519E-10  0.4803E-10  0.3378E-13  0.1000E-09  0.0000E+00  0.2579E+17
   -0.037497    0.40917  0.0000E+00  0.1116E-09  0.2849E-13  0.1000E-09  0.0000E+00  0.2211E+17
   -0.074995    0.80446  0.9735E-13  0.2300E-09  0.3582E-13  0.1000E-09  0.0000E+00  0.1877E+17
   -0.112492    1.18612  0.7700E-13  0.4177E-09  0.5300E-13  0.1000E-09  0.0000E+00  0.1574E+17
   -0.149990    1.55435  0.8288E-13  0.7081E-09  0.8218E-13  0.1000E-09  0.0000E+00  0.1300E+17
   -0.187489    1.90926  0.8070E-13  0.1158E-08  0.1284E-12  0.1000E-09  0.0000E+00  0.1052E+17
   -0.224987    2.25090  0.8152E-13  0.1855E-08  0.2001E-12  0.1000E-09  0.0000E+00  0.8289E+16
   -0.262486    2.57929  0.8125E-13  0.2938E-08  0.3104E-12  0.1371E-09  0.0000E+00  0.6289E+16
   -0.299986    2.89421  0.8132E-13  0.4614E-08  0.4786E-12  0.2949E-09  0.0000E+00  0.4509E+16
   -0.337485    3.19537  0.8131E-13  0.7202E-08  0.7346E-12  0.6944E-09  0.0000E+00  0.2941E+16
   -0.374985    3.48233  0.8131E-13  0.1118E-07  0.1122E-11  0.1980E-08  0.0000E+00  0.1579E+16
   -0.412484    3.75477  0.8131E-13  0.1722E-07  0.1701E-11  0.1141E-07  0.0000E+00  0.4196E+15
   -0.449984    4.00033  0.8131E-13  0.1767E-07  0.1748E-11  0.6540E-04  0.0000E+00 -0.1244E+12
   -0.487484    4.00089  0.8131E-13  0.1789E-07  0.1775E-11  0.6420E-04  0.0000E+00 -0.1306E+12
   -0.524985    4.00146  0.8131E-13  0.1810E-07  0.1804E-11  0.6448E-04  0.0000E+00 -0.1342E+12
   -0.562485    4.00203  0.8131E-13  0.1829E-07  0.1835E-11  0.6470E-04  0.0000E+00 -0.1379E+12
   -0.599985    4.00259  0.8131E-13  0.1847E-07  0.1868E-11  0.6476E-04  0.0000E+00 -0.1418E+12
   -0.637486    4.00314  0.8131E-13  0.1864E-07  0.1904E-11  0.6467E-04  0.0000E+00 -0.1461E+12
   -0.674987    4.00369  0.8131E-13  0.1878E-07  0.1943E-11  0.6441E-04  0.0000E+00 -0.1507E+12
   -0.712487    4.00425  0.8131E-13  0.1891E-07  0.1984E-11  0.6400E-04  0.0000E+00 -0.1557E+12
   -0.749988    4.00480  0.8131E-13  0.1903E-07  0.2027E-11  0.6342E-04  0.0000E+00 -0.1612E+12
   -0.787488    4.00535  0.8131E-13  0.1912E-07  0.2074E-11  0.6269E-04  0.0000E+00 -0.1672E+12
   -0.824989    4.00591  0.8131E-13  0.1919E-07  0.2125E-11  0.6178E-04  0.0000E+00 -0.1738E+12
   -0.862490    4.00648  0.8131E-13  0.1924E-07  0.2179E-11  0.6072E-04  0.0000E+00 -0.1811E+12
   -0.899990    4.00705  0.8131E-13  0.1927E-07  0.2237E-11  0.5947E-04  0.0000E+00 -0.1894E+12
   -0.937491    4.00763  0.8131E-13  0.1928E-07  0.2301E-11  0.5805E-04  0.0000E+00 -0.1987E+12
   -0.974991    4.00822  0.8131E-13  0.1926E-07  0.2370E-11  0.5644E-04  0.0000E+00 -0.2093E+12
   -1.012491    4.00883  0.8131E-13  0.1921E-07  0.2447E-11  0.5464E-04  0.0000E+00 -0.2219E+12
   -1.049991    4.00945  0.8131E-13  0.1913E-07  0.2532E-11  0.5260E-04  0.0000E+00 -0.2370E+12
   -1.087491    4.01010  0.8131E-13  0.1901E-07  0.2629E-11  0.5033E-04  0.0000E+00 -0.2547E+12
   -1.124991    4.01078  0.8131E-13  0.1886E-07  0.2740E-11  0.4780E-04  0.0000E+00 -0.2757E+12
   -1.162491    4.01150  0.8131E-13  0.1865E-07  0.2867E-11  0.4500E-04  0.0000E+00 -0.3013E+12
   -1.199990    4.01225  0.8131E-13  0.1840E-07  0.3017E-11  0.4190E-04  0.0000E+00 -0.3333E+12
   -1.237489    4.01307  0.8131E-13  0.1806E-07  0.3202E-11  0.3853E-04  0.0000E+00 -0.3741E+12
   -1.274988    4.01395  0.8131E-13  0.1758E-07  0.3463E-11  0.3174E-04  0.0000E+00 -0.4724E+12
   -1.312487    4.01503  0.8131E-13  0.1686E-07  0.3865E-11  0.2255E-04  0.0000E+00 -0.6935E+12
   -1.349985    4.01654  0.8131E-13  0.1585E-07  0.4478E-11  0.1582E-04  0.0000E+00 -0.1049E+13
   -1.387483    4.01869  0.8131E-13  0.1435E-07  0.5525E-11  0.9754E-05  0.0000E+00 -0.1848E+13
   -1.424981    4.02217  0.8131E-13  0.1188E-07  0.7846E-11  0.4213E-05  0.0000E+00 -0.4921E+13
   -1.462478    4.03008  0.8131E-13  0.6964E-08  0.1692E-10  0.5581E-06  0.0000E+00 -0.5250E+14
   -1.499976    4.07919  0.8131E-13  0.0000E+00  0.0000E+00  0.0000E+00  0.0000E+00  0.0000E+00
