 1 - depth, m
 2 - temperature, C
 3 - salinity, kg/kg
 4 - turbulent kinetic energy, m**2/s**2
 5 - dissipation rate, m**2/s**3
 6 - kinematic heat conductance, m**2/s
 7 - modulus of horizontal velocity, m/s
 8 - Richardson number, n/d
   -0.000000   -0.00000  0.2017E-12  0.4096E-13  0.8590E-16  0.1000E-09  0.0000E+00  0.7999E+16
   -0.037498    0.12199  0.2456E-12  0.4096E-13  0.8590E-16  0.1000E-09  0.0000E+00  0.7762E+16
   -0.074996    0.24441  0.2640E-12  0.4096E-13  0.8590E-16  0.1000E-09  0.0000E+00  0.7512E+16
   -0.112495    0.36711  0.2663E-12  0.4096E-13  0.8590E-16  0.1000E-09  0.0000E+00  0.7252E+16
   -0.149993    0.48990  0.2508E-12  0.4096E-13  0.8590E-16  0.1000E-09  0.0000E+00  0.6984E+16
   -0.187493    0.61263  0.2229E-12  0.4096E-13  0.8590E-16  0.1000E-09  0.0000E+00  0.6711E+16
   -0.224992    0.73518  0.1908E-12  0.4096E-13  0.8590E-16  0.1000E-09  0.0000E+00  0.6434E+16
   -0.262492    0.85742  0.1610E-12  0.4096E-13  0.8590E-16  0.1000E-09  0.0000E+00  0.6157E+16
   -0.299992    0.97931  0.1370E-12  0.4096E-13  0.8590E-16  0.1000E-09  0.0000E+00  0.5879E+16
   -0.337492    1.10076  0.1194E-12  0.4096E-13  0.8590E-16  0.1000E-09  0.0000E+00  0.5602E+16
   -0.374992    1.22170  0.1074E-12  0.4096E-13  0.8590E-16  0.1000E-09  0.0000E+00  0.5328E+16
   -0.412493    1.34207  0.9948E-13  0.4096E-13  0.8590E-16  0.1000E-09  0.0000E+00  0.5055E+16
   -0.449993    1.46183  0.9443E-13  0.4096E-13  0.8590E-16  0.1000E-09  0.0000E+00  0.4784E+16
   -0.487494    1.58090  0.9120E-13  0.4096E-13  0.8590E-16  0.1000E-09  0.0000E+00  0.4517E+16
   -0.524995    1.69924  0.8907E-13  0.4096E-13  0.8590E-16  0.1000E-09  0.0000E+00  0.4259E+16
   -0.562496    1.81696  0.8761E-13  0.4096E-13  0.8590E-16  0.1000E-09  0.0000E+00  0.4004E+16
   -0.599998    1.93402  0.8654E-13  0.4096E-13  0.8590E-16  0.1000E-09  0.0000E+00  0.3752E+16
   -0.637499    2.05035  0.8573E-13  0.4096E-13  0.8590E-16  0.1000E-09  0.0000E+00  0.3504E+16
   -0.675000    2.16591  0.8508E-13  0.4096E-13  0.8590E-16  0.1000E-09  0.0000E+00  0.3259E+16
   -0.712502    2.28065  0.8456E-13  0.4096E-13  0.8590E-16  0.1000E-09  0.0000E+00  0.3019E+16
   -0.750003    2.39451  0.8414E-13  0.4096E-13  0.8590E-16  0.1000E-09  0.0000E+00  0.2787E+16
   -0.787504    2.50757  0.8382E-13  0.4096E-13  0.8590E-16  0.1000E-09  0.0000E+00  0.2559E+16
   -0.825006    2.61984  0.8357E-13  0.4096E-13  0.8590E-16  0.1000E-09  0.0000E+00  0.2336E+16
   -0.862507    2.73126  0.8340E-13  0.4096E-13  0.8590E-16  0.1000E-09  0.0000E+00  0.2118E+16
   -0.900008    2.84182  0.8328E-13  0.4349E-13  0.8590E-16  0.1000E-09  0.0000E+00  0.1904E+16
   -0.937510    2.95145  0.8319E-13  0.1842E-12  0.1133E-15  0.1000E-09  0.0000E+00  0.1696E+16
   -0.975011    3.06014  0.8314E-13  0.5393E-12  0.2659E-15  0.1000E-09  0.0000E+00  0.1492E+16
   -1.012512    3.16785  0.8311E-13  0.1402E-11  0.6525E-15  0.1000E-09  0.0000E+00  0.1292E+16
   -1.050013    3.27434  0.8309E-13  0.3524E-11  0.1587E-14  0.1000E-09  0.0000E+00  0.1098E+16
   -1.087513    3.37950  0.8308E-13  0.8711E-11  0.3816E-14  0.1000E-09  0.0000E+00  0.9100E+15
   -1.125014    3.48327  0.8308E-13  0.2128E-10  0.9076E-14  0.1000E-09  0.0000E+00  0.7371E+15
   -1.162514    3.58679  0.8307E-13  0.5143E-10  0.2137E-13  0.1077E-09  0.0000E+00  0.5667E+15
   -1.200014    3.69024  0.8307E-13  0.1230E-09  0.4981E-13  0.3456E-09  0.0000E+00  0.3968E+15
   -1.237514    3.79346  0.8307E-13  0.2909E-09  0.1150E-12  0.1383E-08  0.0000E+00  0.2277E+15
   -1.275014    3.89587  0.8307E-13  0.6775E-09  0.2618E-12  0.1094E-07  0.0000E+00  0.6393E+14
   -1.312513    3.99178  0.8307E-13  0.1398E-08  0.5383E-12  0.1117E-05  0.0000E+00 -0.2053E+13
   -1.350013    4.00363  0.8307E-13  0.1905E-08  0.8448E-12  0.1527E-05  0.0000E+00 -0.2987E+13
   -1.387511    4.01243  0.8307E-13  0.2179E-08  0.1228E-11  0.1356E-05  0.0000E+00 -0.4788E+13
   -1.425010    4.02229  0.8307E-13  0.2133E-08  0.1836E-11  0.8093E-06  0.0000E+00 -0.1075E+14
   -1.462508    4.03795  0.8307E-13  0.1632E-08  0.3320E-11  0.2044E-06  0.0000E+00 -0.5027E+14
   -1.500006    4.08166  0.8307E-13  0.0000E+00  0.0000E+00  0.0000E+00  0.0000E+00  0.0000E+00
