 1 - depth, m
 2 - temperature, C
 3 - salinity, kg/kg
 4 - turbulent kinetic energy, m**2/s**2
 5 - dissipation rate, m**2/s**3
 6 - kinematic heat conductance, m**2/s
 7 - modulus of horizontal velocity, m/s
 8 - Richardson number, n/d
   -0.000000   -0.00000  0.8283E-09  0.5462E-10  0.4033E-13  0.1000E-09  0.0000E+00  0.2592E+17
   -0.037497    0.41148  0.0000E+00  0.1307E-09  0.3574E-13  0.1000E-09  0.0000E+00  0.2222E+17
   -0.074995    0.80922  0.9002E-13  0.2759E-09  0.4830E-13  0.1000E-09  0.0000E+00  0.1885E+17
   -0.112493    1.19337  0.8000E-13  0.5154E-09  0.7602E-13  0.1000E-09  0.0000E+00  0.1580E+17
   -0.149991    1.56413  0.8155E-13  0.9037E-09  0.1241E-12  0.1000E-09  0.0000E+00  0.1303E+17
   -0.187490    1.92172  0.8126E-13  0.1535E-08  0.2032E-12  0.1000E-09  0.0000E+00  0.1053E+17
   -0.224988    2.26643  0.8132E-13  0.2565E-08  0.3316E-12  0.1111E-09  0.0000E+00  0.8288E+16
   -0.262487    2.59858  0.8131E-13  0.4242E-08  0.5381E-12  0.2383E-09  0.0000E+00  0.6270E+16
   -0.299987    2.91822  0.8131E-13  0.6965E-08  0.8684E-12  0.5400E-09  0.0000E+00  0.4465E+16
   -0.337486    3.22538  0.8131E-13  0.1137E-07  0.1395E-11  0.1356E-08  0.0000E+00  0.2856E+16
   -0.374986    3.51947  0.8131E-13  0.1847E-07  0.2229E-11  0.4308E-08  0.0000E+00  0.1437E+16
   -0.412486    3.79791  0.8131E-13  0.2945E-07  0.3504E-11  0.3610E-07  0.0000E+00  0.2699E+15
   -0.449986    4.01968  0.8131E-13  0.3009E-07  0.3586E-11  0.8874E-04  0.0000E+00 -0.2297E+12
   -0.487486    4.02011  0.8131E-13  0.3039E-07  0.3630E-11  0.8664E-04  0.0000E+00 -0.2363E+12
   -0.524987    4.02056  0.8131E-13  0.3067E-07  0.3678E-11  0.8692E-04  0.0000E+00 -0.2372E+12
   -0.562487    4.02100  0.8131E-13  0.3090E-07  0.3727E-11  0.8710E-04  0.0000E+00 -0.2384E+12
   -0.599988    4.02143  0.8131E-13  0.3111E-07  0.3780E-11  0.8708E-04  0.0000E+00 -0.2404E+12
   -0.637489    4.02187  0.8131E-13  0.3128E-07  0.3835E-11  0.8684E-04  0.0000E+00 -0.2430E+12
   -0.674989    4.02230  0.8131E-13  0.3143E-07  0.3894E-11  0.8638E-04  0.0000E+00 -0.2463E+12
   -0.712490    4.02274  0.8131E-13  0.3153E-07  0.3957E-11  0.8572E-04  0.0000E+00 -0.2504E+12
   -0.749991    4.02317  0.8131E-13  0.3161E-07  0.4024E-11  0.8483E-04  0.0000E+00 -0.2551E+12
   -0.787492    4.02361  0.8131E-13  0.3165E-07  0.4096E-11  0.8373E-04  0.0000E+00 -0.2607E+12
   -0.824992    4.02406  0.8131E-13  0.3166E-07  0.4173E-11  0.8241E-04  0.0000E+00 -0.2672E+12
   -0.862493    4.02451  0.8131E-13  0.3163E-07  0.4257E-11  0.8087E-04  0.0000E+00 -0.2748E+12
   -0.899994    4.02496  0.8131E-13  0.3157E-07  0.4349E-11  0.7911E-04  0.0000E+00 -0.2836E+12
   -0.937494    4.02543  0.8131E-13  0.3147E-07  0.4449E-11  0.7711E-04  0.0000E+00 -0.2938E+12
   -0.974995    4.02590  0.8131E-13  0.3132E-07  0.4558E-11  0.7488E-04  0.0000E+00 -0.3057E+12
   -1.012495    4.02639  0.8131E-13  0.3114E-07  0.4681E-11  0.7240E-04  0.0000E+00 -0.3202E+12
   -1.049996    4.02690  0.8131E-13  0.3090E-07  0.4820E-11  0.6962E-04  0.0000E+00 -0.3376E+12
   -1.087496    4.02743  0.8131E-13  0.3061E-07  0.4978E-11  0.6654E-04  0.0000E+00 -0.3584E+12
   -1.124996    4.02798  0.8131E-13  0.3026E-07  0.5161E-11  0.6315E-04  0.0000E+00 -0.3831E+12
   -1.162495    4.02857  0.8131E-13  0.2983E-07  0.5374E-11  0.5941E-04  0.0000E+00 -0.4134E+12
   -1.199995    4.02919  0.8131E-13  0.2933E-07  0.5628E-11  0.5530E-04  0.0000E+00 -0.4514E+12
   -1.237494    4.02985  0.8131E-13  0.2872E-07  0.5935E-11  0.5078E-04  0.0000E+00 -0.5002E+12
   -1.274993    4.03058  0.8131E-13  0.2801E-07  0.6314E-11  0.4612E-04  0.0000E+00 -0.5615E+12
   -1.312492    4.03138  0.8131E-13  0.2700E-07  0.6879E-11  0.3532E-04  0.0000E+00 -0.7494E+12
   -1.349991    4.03243  0.8131E-13  0.2543E-07  0.7859E-11  0.2281E-04  0.0000E+00 -0.1196E+13
   -1.387489    4.03406  0.8131E-13  0.2313E-07  0.9560E-11  0.1399E-04  0.0000E+00 -0.2040E+13
   -1.424987    4.03672  0.8131E-13  0.1938E-07  0.1329E-10  0.6227E-05  0.0000E+00 -0.4940E+13
   -1.462485    4.04263  0.8131E-13  0.1114E-07  0.2898E-10  0.7586E-06  0.0000E+00 -0.5081E+14
   -1.499982    4.08463  0.8131E-13  0.0000E+00  0.0000E+00  0.0000E+00  0.0000E+00  0.0000E+00
