 1 - depth, m
 2 - temperature, C
 3 - salinity, kg/kg
 4 - turbulent kinetic energy, m**2/s**2
 5 - dissipation rate, m**2/s**3
 6 - kinematic heat conductance, m**2/s
 7 - modulus of horizontal velocity, m/s
 8 - Richardson number, n/d
   -0.000000   -0.00000  0.5126E-12  0.4096E-13  0.8590E-16  0.1000E-09  0.0000E+00  0.1263E+17
   -0.037498    0.19458  0.3555E-12  0.4096E-13  0.8590E-16  0.1000E-09  0.0000E+00  0.1187E+17
   -0.074996    0.38756  0.2764E-12  0.4096E-13  0.8590E-16  0.1000E-09  0.0000E+00  0.1111E+17
   -0.112494    0.57884  0.2163E-12  0.1685E-12  0.8590E-16  0.1000E-09  0.0000E+00  0.1038E+17
   -0.149992    0.76831  0.1682E-12  0.4622E-12  0.1071E-15  0.1000E-09  0.0000E+00  0.9657E+16
   -0.187491    0.95586  0.1339E-12  0.9660E-12  0.1732E-15  0.1000E-09  0.0000E+00  0.8954E+16
   -0.224990    1.14138  0.1125E-12  0.1811E-11  0.2959E-15  0.1000E-09  0.0000E+00  0.8269E+16
   -0.262490    1.32475  0.1008E-12  0.3236E-11  0.5068E-15  0.1000E-09  0.0000E+00  0.7608E+16
   -0.299990    1.50596  0.9494E-13  0.5652E-11  0.8621E-15  0.1000E-09  0.0000E+00  0.6967E+16
   -0.337489    1.68495  0.9228E-13  0.9753E-11  0.1457E-14  0.1000E-09  0.0000E+00  0.6346E+16
   -0.374990    1.86160  0.9109E-13  0.1670E-10  0.2449E-14  0.1000E-09  0.0000E+00  0.5770E+16
   -0.412490    2.03660  0.9047E-13  0.2845E-10  0.4097E-14  0.1000E-09  0.0000E+00  0.5224E+16
   -0.449990    2.21035  0.8997E-13  0.4822E-10  0.6823E-14  0.1000E-09  0.0000E+00  0.4689E+16
   -0.487491    2.38278  0.8940E-13  0.8138E-10  0.1131E-13  0.1000E-09  0.0000E+00  0.4167E+16
   -0.524992    2.55384  0.8869E-13  0.1363E-09  0.1863E-13  0.1000E-09  0.0000E+00  0.3657E+16
   -0.562493    2.72339  0.8780E-13  0.2269E-09  0.3048E-13  0.1000E-09  0.0000E+00  0.3161E+16
   -0.599994    2.89139  0.8678E-13  0.3758E-09  0.4964E-13  0.1000E-09  0.0000E+00  0.2680E+16
   -0.637495    3.05778  0.8570E-13  0.6197E-09  0.8047E-13  0.1024E-09  0.0000E+00  0.2213E+16
   -0.674996    3.22250  0.8470E-13  0.1017E-08  0.1299E-12  0.2049E-09  0.0000E+00  0.1760E+16
   -0.712497    3.38538  0.8392E-13  0.1663E-08  0.2089E-12  0.4385E-09  0.0000E+00  0.1322E+16
   -0.749998    3.54622  0.8342E-13  0.2707E-08  0.3344E-12  0.1029E-08  0.0000E+00  0.9028E+15
   -0.787499    3.70510  0.8317E-13  0.4383E-08  0.5329E-12  0.2975E-08  0.0000E+00  0.4974E+15
   -0.825000    3.86068  0.8308E-13  0.7018E-08  0.8404E-12  0.1909E-07  0.0000E+00  0.1224E+15
   -0.862501    3.99961  0.8306E-13  0.7691E-08  0.9246E-12  0.2283E-04  0.0000E+00 -0.2084E+12
   -0.900002    4.00058  0.8306E-13  0.8005E-08  0.9716E-12  0.2532E-04  0.0000E+00 -0.2010E+12
   -0.937503    4.00146  0.8306E-13  0.8271E-08  0.1019E-11  0.2640E-04  0.0000E+00 -0.2042E+12
   -0.975004    4.00230  0.8306E-13  0.8494E-08  0.1068E-11  0.2668E-04  0.0000E+00 -0.2133E+12
   -1.012505    4.00313  0.8306E-13  0.8681E-08  0.1120E-11  0.2661E-04  0.0000E+00 -0.2260E+12
   -1.050005    4.00396  0.8306E-13  0.8837E-08  0.1178E-11  0.2629E-04  0.0000E+00 -0.2417E+12
   -1.087506    4.00482  0.8306E-13  0.8963E-08  0.1242E-11  0.2568E-04  0.0000E+00 -0.2612E+12
   -1.125006    4.00570  0.8306E-13  0.9055E-08  0.1318E-11  0.2451E-04  0.0000E+00 -0.2888E+12
   -1.162506    4.00663  0.8306E-13  0.9107E-08  0.1408E-11  0.2228E-04  0.0000E+00 -0.3355E+12
   -1.200006    4.00766  0.8306E-13  0.9107E-08  0.1517E-11  0.1965E-04  0.0000E+00 -0.4031E+12
   -1.237506    4.00883  0.8306E-13  0.9041E-08  0.1652E-11  0.1712E-04  0.0000E+00 -0.4930E+12
   -1.275005    4.01019  0.8306E-13  0.8889E-08  0.1825E-11  0.1458E-04  0.0000E+00 -0.6204E+12
   -1.312505    4.01180  0.8306E-13  0.8619E-08  0.2058E-11  0.1182E-04  0.0000E+00 -0.8277E+12
   -1.350003    4.01379  0.8306E-13  0.8173E-08  0.2400E-11  0.8761E-05  0.0000E+00 -0.1224E+13
   -1.387502    4.01650  0.8306E-13  0.7438E-08  0.2979E-11  0.5505E-05  0.0000E+00 -0.2190E+13
   -1.425000    4.02082  0.8306E-13  0.6144E-08  0.4241E-11  0.2383E-05  0.0000E+00 -0.6042E+13
   -1.462498    4.03062  0.8306E-13  0.3838E-08  0.8605E-11  0.3741E-06  0.0000E+00 -0.5227E+14
   -1.499996    4.07927  0.8306E-13  0.0000E+00  0.0000E+00  0.0000E+00  0.0000E+00  0.0000E+00
