 1 - depth, m
 2 - temperature, C
 3 - salinity, kg/kg
 4 - turbulent kinetic energy, m**2/s**2
 5 - dissipation rate, m**2/s**3
 6 - kinematic heat conductance, m**2/s
 7 - modulus of horizontal velocity, m/s
 8 - Richardson number, n/d
   -0.000000   -0.00000  0.1346E-10  0.5540E-08  0.1336E-10  0.6050E-09  0.0000E+00  0.6112E+17
   -0.037498    1.06788  0.2521E-10  0.3061E-07  0.1177E-10  0.7990E-09  0.0000E+00  0.4092E+17
   -0.074996    2.11721  0.2972E-10  0.7875E-07  0.1819E-10  0.2268E-08  0.0000E+00  0.2231E+17
   -0.112495    3.14475  0.1766E-10  0.1614E-06  0.3208E-10  0.1637E-07  0.0000E+00  0.5539E+16
   -0.149994    4.07481  0.1275E-10  0.1632E-06  0.3243E-10  0.2631E-03  0.0000E+00 -0.7756E+12
   -0.187493    4.07536  0.1275E-10  0.1640E-06  0.3261E-10  0.2597E-03  0.0000E+00 -0.7556E+12
   -0.224993    4.07590  0.1275E-10  0.1646E-06  0.3281E-10  0.2604E-03  0.0000E+00 -0.7444E+12
   -0.262492    4.07644  0.1275E-10  0.1652E-06  0.3301E-10  0.2607E-03  0.0000E+00 -0.7374E+12
   -0.299992    4.07696  0.1275E-10  0.1657E-06  0.3323E-10  0.2606E-03  0.0000E+00 -0.7312E+12
   -0.337493    4.07748  0.1275E-10  0.1661E-06  0.3346E-10  0.2601E-03  0.0000E+00 -0.7284E+12
   -0.374993    4.07800  0.1275E-10  0.1663E-06  0.3371E-10  0.2591E-03  0.0000E+00 -0.7255E+12
   -0.412494    4.07850  0.1275E-10  0.1665E-06  0.3398E-10  0.2577E-03  0.0000E+00 -0.7254E+12
   -0.449995    4.07901  0.1275E-10  0.1666E-06  0.3428E-10  0.2559E-03  0.0000E+00 -0.7260E+12
   -0.487496    4.07951  0.1275E-10  0.1665E-06  0.3459E-10  0.2537E-03  0.0000E+00 -0.7299E+12
   -0.524997    4.08002  0.1275E-10  0.1664E-06  0.3494E-10  0.2510E-03  0.0000E+00 -0.7353E+12
   -0.562498    4.08052  0.1275E-10  0.1662E-06  0.3530E-10  0.2479E-03  0.0000E+00 -0.7439E+12
   -0.599999    4.08103  0.1275E-10  0.1658E-06  0.3570E-10  0.2444E-03  0.0000E+00 -0.7534E+12
   -0.637501    4.08154  0.1275E-10  0.1654E-06  0.3614E-10  0.2405E-03  0.0000E+00 -0.7664E+12
   -0.675002    4.08206  0.1275E-10  0.1649E-06  0.3661E-10  0.2361E-03  0.0000E+00 -0.7806E+12
   -0.712504    4.08258  0.1275E-10  0.1642E-06  0.3712E-10  0.2314E-03  0.0000E+00 -0.7987E+12
   -0.750005    4.08312  0.1275E-10  0.1635E-06  0.3768E-10  0.2262E-03  0.0000E+00 -0.8182E+12
   -0.787507    4.08366  0.1275E-10  0.1626E-06  0.3829E-10  0.2206E-03  0.0000E+00 -0.8421E+12
   -0.825008    4.08421  0.1275E-10  0.1616E-06  0.3897E-10  0.2145E-03  0.0000E+00 -0.8684E+12
   -0.862510    4.08478  0.1275E-10  0.1605E-06  0.3971E-10  0.2081E-03  0.0000E+00 -0.8998E+12
   -0.900011    4.08537  0.1275E-10  0.1593E-06  0.4054E-10  0.2012E-03  0.0000E+00 -0.9348E+12
   -0.937512    4.08598  0.1274E-10  0.1579E-06  0.4146E-10  0.1938E-03  0.0000E+00 -0.9762E+12
   -0.975014    4.08661  0.1274E-10  0.1563E-06  0.4248E-10  0.1861E-03  0.0000E+00 -0.1023E+13
   -1.012515    4.08726  0.1274E-10  0.1546E-06  0.4364E-10  0.1778E-03  0.0000E+00 -0.1078E+13
   -1.050016    4.08795  0.1274E-10  0.1527E-06  0.4498E-10  0.1690E-03  0.0000E+00 -0.1142E+13
   -1.087516    4.08867  0.1274E-10  0.1505E-06  0.4653E-10  0.1596E-03  0.0000E+00 -0.1220E+13
   -1.125017    4.08943  0.1274E-10  0.1481E-06  0.4835E-10  0.1497E-03  0.0000E+00 -0.1311E+13
   -1.162518    4.09025  0.1274E-10  0.1454E-06  0.5050E-10  0.1391E-03  0.0000E+00 -0.1425E+13
   -1.200018    4.09112  0.1274E-10  0.1423E-06  0.5310E-10  0.1279E-03  0.0000E+00 -0.1566E+13
   -1.237518    4.09208  0.1274E-10  0.1389E-06  0.5629E-10  0.1161E-03  0.0000E+00 -0.1746E+13
   -1.275018    4.09314  0.1274E-10  0.1349E-06  0.6030E-10  0.1036E-03  0.0000E+00 -0.1983E+13
   -1.312517    4.09433  0.1274E-10  0.1303E-06  0.6550E-10  0.9031E-04  0.0000E+00 -0.2309E+13
   -1.350017    4.09569  0.1274E-10  0.1249E-06  0.7257E-10  0.7777E-04  0.0000E+00 -0.2723E+13
   -1.387515    4.09728  0.1274E-10  0.1168E-06  0.8533E-10  0.4245E-04  0.0000E+00 -0.5109E+13
   -1.425014    4.10022  0.1274E-10  0.1015E-06  0.1175E-09  0.1799E-04  0.0000E+00 -0.1260E+14
   -1.462512    4.10712  0.1274E-10  0.5960E-07  0.2738E-09  0.2118E-05  0.0000E+00 -0.1288E+15
   -1.500010    4.16271  0.1274E-10  0.0000E+00  0.0000E+00  0.0000E+00  0.0000E+00  0.0000E+00
