 1 - depth, m
 2 - temperature, C
 3 - salinity, kg/kg
 4 - turbulent kinetic energy, m**2/s**2
 5 - dissipation rate, m**2/s**3
 6 - kinematic heat conductance, m**2/s
 7 - modulus of horizontal velocity, m/s
 8 - Richardson number, n/d
   -0.000000   -0.00000  0.7553E-15  0.4096E-13  0.8590E-16  0.1000E-09  0.0000E+00  0.1653E+17
   -0.037498    0.25689  0.5465E-14  0.4096E-13  0.8590E-16  0.1000E-09  0.0000E+00  0.1310E+17
   -0.074996    0.47468  0.3291E-13  0.4096E-13  0.8590E-16  0.1000E-09  0.0000E+00  0.1045E+17
   -0.112494    0.65928  0.7514E-13  0.4096E-13  0.8590E-16  0.1000E-09  0.0000E+00  0.8409E+16
   -0.149993    0.81615  0.1232E-12  0.4096E-13  0.8590E-16  0.1000E-09  0.0000E+00  0.6845E+16
   -0.187492    0.95018  0.1674E-12  0.4096E-13  0.8590E-16  0.1000E-09  0.0000E+00  0.5644E+16
   -0.224992    1.06557  0.2001E-12  0.4096E-13  0.8590E-16  0.1000E-09  0.0000E+00  0.4717E+16
   -0.262491    1.16580  0.2179E-12  0.4096E-13  0.8590E-16  0.1000E-09  0.0000E+00  0.4108E+16
   -0.299991    1.25620  0.2214E-12  0.4096E-13  0.8590E-16  0.1000E-09  0.0000E+00  0.3661E+16
   -0.337491    1.33946  0.2136E-12  0.4096E-13  0.8590E-16  0.1000E-09  0.0000E+00  0.3307E+16
   -0.374992    1.41707  0.1985E-12  0.4096E-13  0.8590E-16  0.1000E-09  0.0000E+00  0.3018E+16
   -0.412492    1.49005  0.1799E-12  0.4096E-13  0.8590E-16  0.1000E-09  0.0000E+00  0.2764E+16
   -0.449993    1.55888  0.1607E-12  0.5774E-13  0.8716E-16  0.1000E-09  0.0000E+00  0.2526E+16
   -0.487494    1.62359  0.1431E-12  0.1239E-12  0.1153E-15  0.1000E-09  0.0000E+00  0.2348E+16
   -0.524995    1.68543  0.1282E-12  0.3333E-12  0.2152E-15  0.1000E-09  0.0000E+00  0.2447E+16
   -0.562496    1.75177  0.1165E-12  0.9135E-12  0.5030E-15  0.1000E-09  0.0000E+00  0.2527E+16
   -0.599997    1.82250  0.1076E-12  0.2462E-11  0.1276E-14  0.1000E-09  0.0000E+00  0.2587E+16
   -0.637498    1.89751  0.1012E-12  0.6544E-11  0.3278E-14  0.1000E-09  0.0000E+00  0.2631E+16
   -0.675000    1.97677  0.9671E-13  0.1715E-10  0.8355E-14  0.1000E-09  0.0000E+00  0.2666E+16
   -0.712501    2.06057  0.9360E-13  0.4449E-10  0.2109E-13  0.1000E-09  0.0000E+00  0.2706E+16
   -0.750002    2.14975  0.9143E-13  0.1144E-09  0.5279E-13  0.1049E-09  0.0000E+00  0.2857E+16
   -0.787504    2.24920  0.8991E-13  0.2918E-09  0.1312E-12  0.1439E-09  0.0000E+00  0.3083E+16
   -0.825005    2.36394  0.8880E-13  0.7395E-09  0.3240E-12  0.2562E-09  0.0000E+00  0.3384E+16
   -0.862506    2.50131  0.8797E-13  0.1861E-08  0.7952E-12  0.5226E-09  0.0000E+00  0.3757E+16
   -0.900008    2.67352  0.8734E-13  0.4642E-08  0.1936E-11  0.1170E-08  0.0000E+00  0.4102E+16
   -0.937509    2.89998  0.8684E-13  0.1141E-07  0.4646E-11  0.3386E-08  0.0000E+00  0.4053E+16
   -0.975010    3.20918  0.8635E-13  0.2436E-07  0.9747E-11  0.1646E-05  0.0000E+00  0.3066E+16
   -1.012511    3.56592  0.8592E-13  0.3623E-07  0.1465E-10  0.1731E-04  0.0000E+00  0.1822E+16
   -1.050012    3.84069  0.8568E-13  0.4572E-07  0.1880E-10  0.3045E-04  0.0000E+00  0.7133E+15
   -1.087512    4.01463  0.8555E-13  0.5107E-07  0.2139E-10  0.4136E-04  0.0000E+00  0.7575E+14
   -1.125013    4.06767  0.8552E-13  0.5312E-07  0.2273E-10  0.4666E-04  0.0000E+00 -0.2864E+13
   -1.162513    4.06992  0.8552E-13  0.5436E-07  0.2397E-10  0.4613E-04  0.0000E+00 -0.3004E+13
   -1.200013    4.07220  0.8552E-13  0.5518E-07  0.2536E-10  0.4510E-04  0.0000E+00 -0.3180E+13
   -1.237513    4.07454  0.8552E-13  0.5556E-07  0.2695E-10  0.4318E-04  0.0000E+00 -0.3440E+13
   -1.275013    4.07701  0.8552E-13  0.5545E-07  0.2884E-10  0.4037E-04  0.0000E+00 -0.3815E+13
   -1.312512    4.07967  0.8552E-13  0.5476E-07  0.3122E-10  0.3665E-04  0.0000E+00 -0.4369E+13
   -1.350011    4.08262  0.8552E-13  0.5321E-07  0.3475E-10  0.3036E-04  0.0000E+00 -0.5511E+13
   -1.387510    4.08623  0.8552E-13  0.5009E-07  0.4106E-10  0.1926E-04  0.0000E+00 -0.9169E+13
   -1.425009    4.09196  0.8552E-13  0.4408E-07  0.5461E-10  0.9710E-05  0.0000E+00 -0.1974E+14
   -1.462507    4.10332  0.8552E-13  0.2959E-07  0.1099E-09  0.1712E-05  0.0000E+00 -0.1395E+15
   -1.500005    4.16396  0.8552E-13  0.0000E+00  0.0000E+00  0.0000E+00  0.0000E+00  0.0000E+00
