 1 - depth, m
 2 - temperature, C
 3 - salinity, kg/kg
 4 - turbulent kinetic energy, m**2/s**2
 5 - dissipation rate, m**2/s**3
 6 - kinematic heat conductance, m**2/s
 7 - modulus of horizontal velocity, m/s
 8 - Richardson number, n/d
   -0.000000   -0.00000  0.5793E-12  0.4096E-13  0.8590E-16  0.1000E-09  0.0000E+00  0.1050E+17
   -0.037498    0.16103  0.4681E-12  0.4096E-13  0.8590E-16  0.1000E-09  0.0000E+00  0.1001E+17
   -0.074996    0.32152  0.3349E-12  0.4096E-13  0.8590E-16  0.1000E-09  0.0000E+00  0.9516E+16
   -0.112494    0.48135  0.2328E-12  0.4096E-13  0.8590E-16  0.1000E-09  0.0000E+00  0.9024E+16
   -0.149993    0.64040  0.1697E-12  0.4096E-13  0.8590E-16  0.1000E-09  0.0000E+00  0.8534E+16
   -0.187492    0.79853  0.1342E-12  0.4096E-13  0.8590E-16  0.1000E-09  0.0000E+00  0.8047E+16
   -0.224991    0.95562  0.1145E-12  0.4096E-13  0.8590E-16  0.1000E-09  0.0000E+00  0.7565E+16
   -0.262490    1.11153  0.1034E-12  0.4096E-13  0.8590E-16  0.1000E-09  0.0000E+00  0.7090E+16
   -0.299990    1.26617  0.9703E-13  0.4096E-13  0.8590E-16  0.1000E-09  0.0000E+00  0.6623E+16
   -0.337490    1.41941  0.9333E-13  0.4096E-13  0.8590E-16  0.1000E-09  0.0000E+00  0.6163E+16
   -0.374990    1.57112  0.9112E-13  0.6433E-13  0.8590E-16  0.1000E-09  0.0000E+00  0.5720E+16
   -0.412491    1.72140  0.8968E-13  0.2514E-12  0.8671E-16  0.1000E-09  0.0000E+00  0.5291E+16
   -0.449991    1.87027  0.8861E-13  0.6068E-12  0.1399E-15  0.1000E-09  0.0000E+00  0.4871E+16
   -0.487492    2.01759  0.8769E-13  0.1235E-11  0.2513E-15  0.1000E-09  0.0000E+00  0.4460E+16
   -0.524993    2.16327  0.8683E-13  0.2347E-11  0.4542E-15  0.1000E-09  0.0000E+00  0.4063E+16
   -0.562494    2.30730  0.8602E-13  0.4325E-11  0.8136E-15  0.1000E-09  0.0000E+00  0.3677E+16
   -0.599995    2.44958  0.8528E-13  0.7857E-11  0.1446E-14  0.1000E-09  0.0000E+00  0.3303E+16
   -0.637496    2.59004  0.8463E-13  0.1415E-10  0.2551E-14  0.1000E-09  0.0000E+00  0.2942E+16
   -0.674997    2.72858  0.8411E-13  0.2531E-10  0.4476E-14  0.1000E-09  0.0000E+00  0.2593E+16
   -0.712498    2.86515  0.8371E-13  0.4502E-10  0.7811E-14  0.1000E-09  0.0000E+00  0.2259E+16
   -0.750000    2.99967  0.8343E-13  0.7965E-10  0.1356E-13  0.1000E-09  0.0000E+00  0.1944E+16
   -0.787501    3.13257  0.8326E-13  0.1402E-09  0.2342E-13  0.1000E-09  0.0000E+00  0.1642E+16
   -0.825002    3.26396  0.8316E-13  0.2455E-09  0.4026E-13  0.1000E-09  0.0000E+00  0.1352E+16
   -0.862503    3.39384  0.8311E-13  0.4276E-09  0.6887E-13  0.1785E-09  0.0000E+00  0.1071E+16
   -0.900004    3.52214  0.8309E-13  0.7413E-09  0.1172E-12  0.4067E-09  0.0000E+00  0.8001E+15
   -0.937505    3.64874  0.8308E-13  0.1278E-08  0.1985E-12  0.1021E-08  0.0000E+00  0.5397E+15
   -0.975006    3.77333  0.8307E-13  0.2191E-08  0.3343E-12  0.3199E-08  0.0000E+00  0.2902E+15
   -1.012507    3.89466  0.8307E-13  0.3708E-08  0.5568E-12  0.2401E-07  0.0000E+00  0.6450E+14
   -1.050008    3.99972  0.8307E-13  0.4479E-08  0.6762E-12  0.1083E-04  0.0000E+00 -0.3499E+12
   -1.087508    4.00130  0.8307E-13  0.4848E-08  0.7472E-12  0.1150E-04  0.0000E+00 -0.3651E+12
   -1.125009    4.00279  0.8307E-13  0.5153E-08  0.8220E-12  0.1181E-04  0.0000E+00 -0.3912E+12
   -1.162509    4.00424  0.8307E-13  0.5397E-08  0.9034E-12  0.1175E-04  0.0000E+00 -0.4300E+12
   -1.200009    4.00571  0.8307E-13  0.5580E-08  0.9948E-12  0.1132E-04  0.0000E+00 -0.4861E+12
   -1.237509    4.00725  0.8307E-13  0.5694E-08  0.1101E-11  0.1052E-04  0.0000E+00 -0.5690E+12
   -1.275008    4.00892  0.8307E-13  0.5729E-08  0.1232E-11  0.9363E-05  0.0000E+00 -0.6974E+12
   -1.312507    4.01081  0.8307E-13  0.5661E-08  0.1402E-11  0.7843E-05  0.0000E+00 -0.9136E+12
   -1.350006    4.01309  0.8307E-13  0.5449E-08  0.1645E-11  0.5977E-05  0.0000E+00 -0.1331E+13
   -1.387505    4.01610  0.8307E-13  0.5011E-08  0.2044E-11  0.3842E-05  0.0000E+00 -0.2353E+13
   -1.425003    4.02077  0.8307E-13  0.4164E-08  0.2888E-11  0.1700E-05  0.0000E+00 -0.6367E+13
   -1.462501    4.03104  0.8307E-13  0.2673E-08  0.5598E-11  0.2872E-06  0.0000E+00 -0.4719E+14
   -1.499999    4.07593  0.8307E-13  0.0000E+00  0.0000E+00  0.0000E+00  0.0000E+00  0.0000E+00
