 1 - depth, m
 2 - temperature, C
 3 - salinity, kg/kg
 4 - turbulent kinetic energy, m**2/s**2
 5 - dissipation rate, m**2/s**3
 6 - kinematic heat conductance, m**2/s
 7 - modulus of horizontal velocity, m/s
 8 - Richardson number, n/d
   -0.000000    0.00000  0.0000E+00  0.1196E-09  0.8440E-13  0.1000E-09  0.0000E+00  0.3438E+17
   -0.068753    0.55698  0.0000E+00  0.6570E-09  0.9311E-13  0.1000E-09  0.0000E+00  0.2682E+17
   -0.137507    1.06933  0.0000E+00  0.1815E-08  0.1826E-12  0.1000E-09  0.0000E+00  0.2098E+17
   -0.206262    1.54822  0.0000E+00  0.4204E-08  0.3869E-12  0.1270E-09  0.0000E+00  0.1650E+17
   -0.275017    2.00882  0.0000E+00  0.9190E-08  0.8134E-12  0.3205E-09  0.0000E+00  0.1290E+17
   -0.343773    2.46719  0.0000E+00  0.1958E-07  0.1685E-11  0.8829E-09  0.0000E+00  0.9705E+16
   -0.412529    2.94132  0.0000E+00  0.4109E-07  0.3445E-11  0.2761E-08  0.0000E+00  0.6344E+16
   -0.481286    3.44916  0.0000E+00  0.8446E-07  0.6916E-11  0.1710E-07  0.0000E+00  0.2249E+16
   -0.550043    3.96938  0.0000E+00  0.9899E-07  0.8143E-11  0.2783E-03  0.0000E+00  0.6137E+14
   -0.618801    4.03911  0.0000E+00  0.9955E-07  0.8196E-11  0.4031E-03  0.0000E+00 -0.1832E+12
   -0.687559    4.03934  0.0000E+00  0.9992E-07  0.8241E-11  0.4049E-03  0.0000E+00 -0.1877E+12
   -0.756317    4.03956  0.0000E+00  0.1003E-06  0.8290E-11  0.4048E-03  0.0000E+00 -0.1868E+12
   -0.825076    4.03979  0.0000E+00  0.1006E-06  0.8344E-11  0.4046E-03  0.0000E+00 -0.1875E+12
   -0.893835    4.04001  0.0000E+00  0.1008E-06  0.8404E-11  0.4039E-03  0.0000E+00 -0.1884E+12
   -0.962594    4.04024  0.0000E+00  0.1011E-06  0.8469E-11  0.4028E-03  0.0000E+00 -0.1897E+12
   -1.031353    4.04046  0.0000E+00  0.1013E-06  0.8541E-11  0.4012E-03  0.0000E+00 -0.1908E+12
   -1.100113    4.04069  0.0000E+00  0.1014E-06  0.8618E-11  0.3991E-03  0.0000E+00 -0.1923E+12
   -1.168873    4.04091  0.0000E+00  0.1015E-06  0.8703E-11  0.3965E-03  0.0000E+00 -0.1941E+12
   -1.237632    4.04114  0.0000E+00  0.1016E-06  0.8796E-11  0.3934E-03  0.0000E+00 -0.1964E+12
   -1.306392    4.04136  0.0000E+00  0.1017E-06  0.8896E-11  0.3898E-03  0.0000E+00 -0.1990E+12
   -1.375152    4.04159  0.0000E+00  0.1017E-06  0.9006E-11  0.3857E-03  0.0000E+00 -0.2008E+12
   -1.443912    4.04182  0.0000E+00  0.1017E-06  0.9126E-11  0.3811E-03  0.0000E+00 -0.2023E+12
   -1.512672    4.04206  0.0000E+00  0.1016E-06  0.9258E-11  0.3760E-03  0.0000E+00 -0.2048E+12
   -1.581432    4.04229  0.0000E+00  0.1015E-06  0.9405E-11  0.3702E-03  0.0000E+00 -0.2079E+12
   -1.650191    4.04253  0.0000E+00  0.1014E-06  0.9569E-11  0.3637E-03  0.0000E+00 -0.2117E+12
   -1.718951    4.04276  0.0000E+00  0.1012E-06  0.9754E-11  0.3565E-03  0.0000E+00 -0.2161E+12
   -1.787710    4.04301  0.0000E+00  0.1010E-06  0.9962E-11  0.3485E-03  0.0000E+00 -0.2215E+12
   -1.856470    4.04326  0.0000E+00  0.1007E-06  0.1020E-10  0.3398E-03  0.0000E+00 -0.2276E+12
   -1.925228    4.04351  0.0000E+00  0.1004E-06  0.1047E-10  0.3302E-03  0.0000E+00 -0.2350E+12
   -1.993987    4.04377  0.0000E+00  0.1000E-06  0.1078E-10  0.3198E-03  0.0000E+00 -0.2436E+12
   -2.062745    4.04404  0.0000E+00  0.9957E-07  0.1113E-10  0.3083E-03  0.0000E+00 -0.2521E+12
   -2.131503    4.04432  0.0000E+00  0.9908E-07  0.1155E-10  0.2960E-03  0.0000E+00 -0.2618E+12
   -2.200261    4.04460  0.0000E+00  0.9853E-07  0.1205E-10  0.2824E-03  0.0000E+00 -0.2736E+12
   -2.269018    4.04490  0.0000E+00  0.9790E-07  0.1265E-10  0.2675E-03  0.0000E+00 -0.2887E+12
   -2.337775    4.04521  0.0000E+00  0.9716E-07  0.1343E-10  0.2509E-03  0.0000E+00 -0.3081E+12
   -2.406531    4.04555  0.0000E+00  0.9616E-07  0.1458E-10  0.2123E-03  0.0000E+00 -0.3622E+12
   -2.475287    4.04594  0.0000E+00  0.9460E-07  0.1664E-10  0.1409E-03  0.0000E+00 -0.5502E+12
   -2.544042    4.04653  0.0000E+00  0.9197E-07  0.2074E-10  0.8748E-04  0.0000E+00 -0.8972E+12
   -2.612797    4.04748  0.0000E+00  0.8685E-07  0.3098E-10  0.4454E-04  0.0000E+00 -0.1819E+13
   -2.681551    4.04936  0.0000E+00  0.5385E-07  0.1303E-09  0.3084E-05  0.0000E+00 -0.3278E+14
   -2.750304    4.07667  0.0000E+00  0.0000E+00  0.0000E+00  0.0000E+00  0.0000E+00  0.0000E+00
