 1 - depth, m
 2 - temperature, C
 3 - salinity, kg/kg
 4 - turbulent kinetic energy, m**2/s**2
 5 - dissipation rate, m**2/s**3
 6 - kinematic heat conductance, m**2/s
 7 - modulus of horizontal velocity, m/s
 8 - Richardson number, n/d
   -0.000000    0.00000  0.0000E+00  0.1219E-13  0.7604E-17  0.1000E-09  0.0000E+00  0.1001E+17
   -0.068752    0.15337  0.0000E+00  0.1219E-13  0.7604E-17  0.1000E-09  0.0000E+00  0.9292E+16
   -0.137505    0.30178  0.0000E+00  0.1219E-13  0.7604E-17  0.1000E-09  0.0000E+00  0.8612E+16
   -0.206259    0.44524  0.0000E+00  0.1219E-13  0.7604E-17  0.1000E-09  0.0000E+00  0.7972E+16
   -0.275013    0.58376  0.0000E+00  0.1219E-13  0.7604E-17  0.1000E-09  0.0000E+00  0.7399E+16
   -0.343768    0.71789  0.0000E+00  0.1219E-13  0.7604E-17  0.1000E-09  0.0000E+00  0.6864E+16
   -0.412523    0.84774  0.0000E+00  0.1219E-13  0.7604E-17  0.1000E-09  0.0000E+00  0.6362E+16
   -0.481279    0.97336  0.0000E+00  0.1219E-13  0.7604E-17  0.1000E-09  0.0000E+00  0.5885E+16
   -0.550035    1.09467  0.0000E+00  0.1219E-13  0.7604E-17  0.1000E-09  0.0000E+00  0.5421E+16
   -0.618791    1.21133  0.0000E+00  0.1219E-13  0.7604E-17  0.1000E-09  0.0000E+00  0.4984E+16
   -0.687548    1.32331  0.0000E+00  0.1219E-13  0.7604E-17  0.1000E-09  0.0000E+00  0.4635E+16
   -0.756306    1.43205  0.0000E+00  0.1219E-13  0.7604E-17  0.1000E-09  0.0000E+00  0.4340E+16
   -0.825063    1.53844  0.0000E+00  0.1219E-13  0.7604E-17  0.1000E-09  0.0000E+00  0.4059E+16
   -0.893821    1.64249  0.0000E+00  0.1219E-13  0.7604E-17  0.1000E-09  0.0000E+00  0.3790E+16
   -0.962579    1.74417  0.0000E+00  0.1219E-13  0.7604E-17  0.1000E-09  0.0000E+00  0.3533E+16
   -1.031338    1.84347  0.0000E+00  0.1219E-13  0.7604E-17  0.1000E-09  0.0000E+00  0.3292E+16
   -1.100096    1.94050  0.0000E+00  0.1219E-13  0.7604E-17  0.1000E-09  0.0000E+00  0.3062E+16
   -1.168855    2.03523  0.0000E+00  0.1219E-13  0.7604E-17  0.1000E-09  0.0000E+00  0.2842E+16
   -1.237614    2.12761  0.0000E+00  0.1219E-13  0.7604E-17  0.1000E-09  0.0000E+00  0.2632E+16
   -1.306372    2.21761  0.0000E+00  0.1219E-13  0.7604E-17  0.1000E-09  0.0000E+00  0.2432E+16
   -1.375131    2.30515  0.0000E+00  0.1219E-13  0.7604E-17  0.1000E-09  0.0000E+00  0.2271E+16
   -1.443890    2.39137  0.0000E+00  0.1219E-13  0.7604E-17  0.1000E-09  0.0000E+00  0.2126E+16
   -1.512649    2.47664  0.0000E+00  0.1219E-13  0.7604E-17  0.1000E-09  0.0000E+00  0.1988E+16
   -1.581408    2.56111  0.0000E+00  0.1219E-13  0.7604E-17  0.1000E-09  0.0000E+00  0.1854E+16
   -1.650166    2.64481  0.0000E+00  0.1219E-13  0.7604E-17  0.1000E-09  0.0000E+00  0.1723E+16
   -1.718925    2.72769  0.0000E+00  0.1219E-13  0.7604E-17  0.1000E-09  0.0000E+00  0.1594E+16
   -1.787683    2.80968  0.0000E+00  0.1219E-13  0.7604E-17  0.1000E-09  0.0000E+00  0.1468E+16
   -1.856441    2.89069  0.0000E+00  0.1219E-13  0.7604E-17  0.1000E-09  0.0000E+00  0.1344E+16
   -1.925199    2.97064  0.0000E+00  0.1219E-13  0.7604E-17  0.1000E-09  0.0000E+00  0.1223E+16
   -1.993957    3.04941  0.0000E+00  0.1219E-13  0.7604E-17  0.1000E-09  0.0000E+00  0.1106E+16
   -2.062714    3.12689  0.0000E+00  0.1219E-13  0.7604E-17  0.1000E-09  0.0000E+00  0.1014E+16
   -2.131471    3.20475  0.0000E+00  0.1219E-13  0.7604E-17  0.1000E-09  0.0000E+00  0.9249E+15
   -2.200227    3.28336  0.0000E+00  0.1219E-13  0.7604E-17  0.1000E-09  0.0000E+00  0.8346E+15
   -2.268984    3.36286  0.0000E+00  0.1219E-13  0.7607E-17  0.1000E-09  0.0000E+00  0.7569E+15
   -2.337739    3.44508  0.0000E+00  0.1866E-13  0.2193E-16  0.1000E-09  0.0000E+00  0.6803E+15
   -2.406495    3.53160  0.0000E+00  0.1707E-12  0.2054E-15  0.1000E-09  0.0000E+00  0.5969E+15
   -2.475249    3.62430  0.0000E+00  0.1718E-11  0.2055E-14  0.1000E-09  0.0000E+00  0.5008E+15
   -2.544003    3.72664  0.0000E+00  0.1779E-10  0.2130E-13  0.2448E-09  0.0000E+00  0.3786E+15
   -2.612757    3.84758  0.0000E+00  0.1918E-09  0.2333E-12  0.5555E-08  0.0000E+00  0.1489E+15
   -2.681510    4.00258  0.0000E+00  0.2063E-08  0.2789E-11  0.5127E-06  0.0000E+00 -0.4932E+14
   -2.750262    4.06735  0.0000E+00  0.0000E+00  0.0000E+00  0.0000E+00  0.0000E+00  0.0000E+00
