 1 - depth, m
 2 - temperature, C
 3 - salinity, kg/kg
 4 - turbulent kinetic energy, m**2/s**2
 5 - dissipation rate, m**2/s**3
 6 - kinematic heat conductance, m**2/s
 7 - modulus of horizontal velocity, m/s
 8 - Richardson number, n/d
   -0.000000   12.48563  0.0000E+00  0.9289E-04  0.2919E-04  0.7684E-04  0.8019E-01 -0.5484E-01
   -0.068742   12.55115  0.0000E+00  0.5091E-04  0.6629E-05  0.1077E-03  0.3053E-01 -0.4305E-01
   -0.137484   12.56639  0.0000E+00  0.3730E-04  0.2550E-05  0.1304E-03  0.2251E-01 -0.5789E-01
   -0.206227   12.57735  0.0000E+00  0.2938E-04  0.1154E-05  0.1640E-03  0.1789E-01 -0.9557E-01
   -0.274970   12.58564  0.0000E+00  0.2464E-04  0.5928E-06  0.2060E-03  0.1469E-01 -0.1288E+00
   -0.343715   12.59216  0.0000E+00  0.2157E-04  0.3438E-06  0.2821E-03  0.1222E-01  0.2413E+01
   -0.412459   12.59719  0.0000E+00  0.1944E-04  0.2215E-06  0.4054E-03  0.1031E-01  0.3494E+02
   -0.481204   12.60106  0.0000E+00  0.1788E-04  0.1549E-06  0.5054E-03  0.8826E-02  0.5746E+01
   -0.549950   12.60415  0.0000E+00  0.1668E-04  0.1151E-06  0.6270E-03  0.7638E-02  0.5141E+02
   -0.618696   12.60657  0.0000E+00  0.1576E-04  0.8982E-07  0.7845E-03  0.6698E-02  0.2445E+03
   -0.687442   12.60842  0.0000E+00  0.1504E-04  0.7290E-07  0.9351E-03  0.5945E-02  0.3006E+03
   -0.756189   12.60985  0.0000E+00  0.1449E-04  0.6102E-07  0.1077E-02  0.5323E-02  0.8490E+02
   -0.824936   12.61099  0.0000E+00  0.1405E-04  0.5228E-07  0.1185E-02  0.4794E-02  0.3860E+02
   -0.893683   12.61196  0.0000E+00  0.1368E-04  0.4556E-07  0.1264E-02  0.4332E-02  0.1684E+02
   -0.962430   12.61284  0.0000E+00  0.1337E-04  0.4025E-07  0.1336E-02  0.3920E-02  0.4599E+01
   -1.031178   12.61364  0.0000E+00  0.1311E-04  0.3598E-07  0.1388E-02  0.3553E-02  0.4690E+01
   -1.099926   12.61439  0.0000E+00  0.1287E-04  0.3248E-07  0.1434E-02  0.3217E-02  0.3288E+01
   -1.168674   12.61510  0.0000E+00  0.1265E-04  0.2956E-07  0.1477E-02  0.2906E-02  0.3155E+01
   -1.237422   12.61579  0.0000E+00  0.1244E-04  0.2711E-07  0.1519E-02  0.2618E-02  0.3037E+01
   -1.306170   12.61645  0.0000E+00  0.1223E-04  0.2505E-07  0.1560E-02  0.2351E-02  0.2930E+01
   -1.374918   12.61708  0.0000E+00  0.1202E-04  0.2331E-07  0.1599E-02  0.2104E-02  0.2833E+01
   -1.443667   12.61769  0.0000E+00  0.1180E-04  0.2184E-07  0.1636E-02  0.1873E-02  0.2750E+01
   -1.512415   12.61827  0.0000E+00  0.1157E-04  0.2061E-07  0.1688E-02  0.1658E-02  0.2514E+01
   -1.581163   12.61884  0.0000E+00  0.1133E-04  0.1958E-07  0.1750E-02  0.1464E-02  0.2261E+01
   -1.649911   12.61938  0.0000E+00  0.1109E-04  0.1875E-07  0.1801E-02  0.1290E-02  0.2047E+01
   -1.718659   12.61989  0.0000E+00  0.1084E-04  0.1810E-07  0.1828E-02  0.1136E-02  0.1859E+01
   -1.787407   12.62040  0.0000E+00  0.1059E-04  0.1763E-07  0.1841E-02  0.1000E-02  0.1691E+01
   -1.856154   12.62088  0.0000E+00  0.1033E-04  0.1732E-07  0.1838E-02  0.8809E-03  0.1538E+01
   -1.924901   12.62137  0.0000E+00  0.1008E-04  0.1718E-07  0.1798E-02  0.7766E-03  0.1393E+01
   -1.993648   12.62185  0.0000E+00  0.9840E-05  0.1719E-07  0.1726E-02  0.6858E-03  0.1255E+01
   -2.062395   12.62235  0.0000E+00  0.9606E-05  0.1736E-07  0.1634E-02  0.6072E-03  0.1124E+01
   -2.131141   12.62287  0.0000E+00  0.9381E-05  0.1769E-07  0.1534E-02  0.5391E-03  0.1038E+01
   -2.199887   12.62342  0.0000E+00  0.9165E-05  0.1820E-07  0.1430E-02  0.4798E-03  0.1038E+01
   -2.268633   12.62400  0.0000E+00  0.8951E-05  0.1894E-07  0.1325E-02  0.4273E-03  0.1143E+01
   -2.337378   12.62462  0.0000E+00  0.8721E-05  0.2006E-07  0.1203E-02  0.3811E-03  0.1543E+01
   -2.406122   12.62530  0.0000E+00  0.8455E-05  0.2183E-07  0.1074E-02  0.3376E-03  0.2439E+01
   -2.474866   12.62606  0.0000E+00  0.8128E-05  0.2491E-07  0.8818E-03  0.2951E-03  0.5403E+01
   -2.543610   12.62699  0.0000E+00  0.7661E-05  0.3122E-07  0.7351E-03  0.2504E-03  0.2323E+03
   -2.612353   12.62818  0.0000E+00  0.6718E-05  0.5212E-07  0.3832E-03  0.2058E-03 -0.8747E+01
   -2.681095   12.63259  0.0000E+00  0.3963E-05  0.1765E-06  0.7655E-04  0.1328E-03 -0.2150E+04
   -2.749837   12.64379  0.0000E+00  0.0000E+00  0.0000E+00  0.0000E+00  0.1582E-03  0.0000E+00
