 1 - depth, m
 2 - temperature, C
 3 - salinity, kg/kg
 4 - turbulent kinetic energy, m**2/s**2
 5 - dissipation rate, m**2/s**3
 6 - kinematic heat conductance, m**2/s
 7 - modulus of horizontal velocity, m/s
 8 - Richardson number, n/d
   -0.000000    0.00000  0.0000E+00  0.5478E-09  0.5550E-12  0.1000E-09  0.0000E+00  0.5005E+17
   -0.068733    0.84576  0.0000E+00  0.4053E-08  0.5570E-12  0.1000E-09  0.0000E+00  0.3520E+17
   -0.137467    1.62717  0.0000E+00  0.1116E-07  0.1012E-11  0.2213E-09  0.0000E+00  0.2328E+17
   -0.206201    2.34665  0.0000E+00  0.2480E-07  0.2016E-11  0.7427E-09  0.0000E+00  0.1382E+17
   -0.274936    3.00610  0.0000E+00  0.5130E-07  0.3994E-11  0.3160E-08  0.0000E+00  0.6438E+16
   -0.343672    3.60127  0.0000E+00  0.1013E-06  0.7690E-11  0.3465E-07  0.0000E+00  0.1133E+16
   -0.412408    4.05140  0.0000E+00  0.1021E-06  0.7749E-11  0.4607E-03  0.0000E+00 -0.1580E+12
   -0.481145    4.05155  0.0000E+00  0.1024E-06  0.7781E-11  0.4443E-03  0.0000E+00 -0.1695E+12
   -0.549882    4.05172  0.0000E+00  0.1027E-06  0.7816E-11  0.4439E-03  0.0000E+00 -0.1696E+12
   -0.618619    4.05188  0.0000E+00  0.1030E-06  0.7854E-11  0.4434E-03  0.0000E+00 -0.1681E+12
   -0.687357    4.05204  0.0000E+00  0.1032E-06  0.7896E-11  0.4432E-03  0.0000E+00 -0.1670E+12
   -0.756095    4.05221  0.0000E+00  0.1034E-06  0.7943E-11  0.4425E-03  0.0000E+00 -0.1663E+12
   -0.824834    4.05237  0.0000E+00  0.1035E-06  0.7994E-11  0.4413E-03  0.0000E+00 -0.1659E+12
   -0.893572    4.05253  0.0000E+00  0.1036E-06  0.8051E-11  0.4397E-03  0.0000E+00 -0.1659E+12
   -0.962311    4.05269  0.0000E+00  0.1037E-06  0.8113E-11  0.4375E-03  0.0000E+00 -0.1663E+12
   -1.031051    4.05285  0.0000E+00  0.1038E-06  0.8181E-11  0.4349E-03  0.0000E+00 -0.1668E+12
   -1.099790    4.05301  0.0000E+00  0.1038E-06  0.8256E-11  0.4317E-03  0.0000E+00 -0.1676E+12
   -1.168529    4.05317  0.0000E+00  0.1038E-06  0.8337E-11  0.4281E-03  0.0000E+00 -0.1687E+12
   -1.237269    4.05333  0.0000E+00  0.1038E-06  0.8426E-11  0.4240E-03  0.0000E+00 -0.1702E+12
   -1.306009    4.05349  0.0000E+00  0.1038E-06  0.8523E-11  0.4193E-03  0.0000E+00 -0.1719E+12
   -1.374748    4.05365  0.0000E+00  0.1037E-06  0.8630E-11  0.4142E-03  0.0000E+00 -0.1738E+12
   -1.443488    4.05382  0.0000E+00  0.1036E-06  0.8747E-11  0.4086E-03  0.0000E+00 -0.1759E+12
   -1.512228    4.05399  0.0000E+00  0.1034E-06  0.8877E-11  0.4023E-03  0.0000E+00 -0.1785E+12
   -1.580967    4.05415  0.0000E+00  0.1032E-06  0.9021E-11  0.3954E-03  0.0000E+00 -0.1815E+12
   -1.649707    4.05432  0.0000E+00  0.1030E-06  0.9183E-11  0.3879E-03  0.0000E+00 -0.1851E+12
   -1.718446    4.05450  0.0000E+00  0.1028E-06  0.9365E-11  0.3796E-03  0.0000E+00 -0.1892E+12
   -1.787185    4.05468  0.0000E+00  0.1025E-06  0.9570E-11  0.3706E-03  0.0000E+00 -0.1940E+12
   -1.855924    4.05486  0.0000E+00  0.1021E-06  0.9803E-11  0.3608E-03  0.0000E+00 -0.1995E+12
   -1.924663    4.05504  0.0000E+00  0.1018E-06  0.1007E-10  0.3501E-03  0.0000E+00 -0.2060E+12
   -1.993402    4.05523  0.0000E+00  0.1013E-06  0.1038E-10  0.3386E-03  0.0000E+00 -0.2135E+12
   -2.062140    4.05543  0.0000E+00  0.1009E-06  0.1073E-10  0.3260E-03  0.0000E+00 -0.2218E+12
   -2.130878    4.05564  0.0000E+00  0.1004E-06  0.1115E-10  0.3125E-03  0.0000E+00 -0.2315E+12
   -2.199615    4.05585  0.0000E+00  0.9979E-07  0.1164E-10  0.2978E-03  0.0000E+00 -0.2431E+12
   -2.268352    4.05607  0.0000E+00  0.9915E-07  0.1223E-10  0.2816E-03  0.0000E+00 -0.2576E+12
   -2.337089    4.05631  0.0000E+00  0.9841E-07  0.1300E-10  0.2639E-03  0.0000E+00 -0.2758E+12
   -2.405825    4.05656  0.0000E+00  0.9742E-07  0.1413E-10  0.2425E-03  0.0000E+00 -0.3012E+12
   -2.474560    4.05683  0.0000E+00  0.9585E-07  0.1619E-10  0.1447E-03  0.0000E+00 -0.5081E+12
   -2.543295    4.05729  0.0000E+00  0.9322E-07  0.2028E-10  0.8942E-04  0.0000E+00 -0.8339E+12
   -2.612030    4.05804  0.0000E+00  0.8811E-07  0.3048E-10  0.4563E-04  0.0000E+00 -0.1682E+13
   -2.680764    4.05952  0.0000E+00  0.5451E-07  0.1308E-09  0.3078E-05  0.0000E+00 -0.2920E+14
   -2.749497    4.08166  0.0000E+00  0.0000E+00  0.0000E+00  0.0000E+00  0.0000E+00  0.0000E+00
