 1 - depth, m
 2 - temperature, C
 3 - salinity, kg/kg
 4 - turbulent kinetic energy, m**2/s**2
 5 - dissipation rate, m**2/s**3
 6 - kinematic heat conductance, m**2/s
 7 - modulus of horizontal velocity, m/s
 8 - Richardson number, n/d
   -0.000000    7.95241  0.0000E+00  0.1572E-03  0.6594E-04  0.9910E-04  0.1219E+00  0.1162E-02
   -0.068756    7.98813  0.0000E+00  0.8396E-04  0.1551E-04  0.1440E-03  0.4282E-01 -0.1459E-01
   -0.137512    7.99419  0.0000E+00  0.5921E-04  0.5708E-05  0.1439E-03  0.3218E-01 -0.7636E-02
   -0.206269    7.99879  0.0000E+00  0.4442E-04  0.2508E-05  0.1548E-03  0.2611E-01 -0.9950E-02
   -0.275027    8.00241  0.0000E+00  0.3545E-04  0.1242E-05  0.1694E-03  0.2183E-01 -0.1255E-01
   -0.343785    8.00548  0.0000E+00  0.2953E-04  0.6878E-06  0.1867E-03  0.1837E-01 -0.1570E-01
   -0.412543    8.00815  0.0000E+00  0.2534E-04  0.4205E-06  0.2046E-03  0.1554E-01 -0.1975E-01
   -0.481302    8.01049  0.0000E+00  0.2213E-04  0.2776E-06  0.2221E-03  0.1322E-01 -0.2518E-01
   -0.550062    8.01259  0.0000E+00  0.1951E-04  0.1934E-06  0.2404E-03  0.1128E-01 -0.3380E-01
   -0.618822    8.01448  0.0000E+00  0.1733E-04  0.1405E-06  0.2575E-03  0.9693E-02 -0.4486E-01
   -0.687582    8.01621  0.0000E+00  0.1551E-04  0.1054E-06  0.2741E-03  0.8366E-02 -0.5911E-01
   -0.756343    8.01781  0.0000E+00  0.1395E-04  0.8100E-07  0.2908E-03  0.7245E-02 -0.7750E-01
   -0.825104    8.01930  0.0000E+00  0.1262E-04  0.6354E-07  0.3081E-03  0.6294E-02 -0.1013E+00
   -0.893865    8.02069  0.0000E+00  0.1148E-04  0.5071E-07  0.3269E-03  0.5485E-02 -0.1310E+00
   -0.962627    8.02199  0.0000E+00  0.1050E-04  0.4112E-07  0.3488E-03  0.4795E-02 -0.1038E+00
   -1.031389    8.02319  0.0000E+00  0.9668E-05  0.3386E-07  0.3738E-03  0.4207E-02  0.1769E+01
   -1.100150    8.02432  0.0000E+00  0.8955E-05  0.2826E-07  0.4145E-03  0.3693E-02  0.1288E+02
   -1.168912    8.02536  0.0000E+00  0.8338E-05  0.2388E-07  0.4732E-03  0.3242E-02  0.3362E+02
   -1.237675    8.02629  0.0000E+00  0.7808E-05  0.2044E-07  0.5807E-03  0.2848E-02  0.1745E+03
   -1.306437    8.02710  0.0000E+00  0.7356E-05  0.1773E-07  0.7196E-03  0.2508E-02  0.4198E+03
   -1.375199    8.02776  0.0000E+00  0.6967E-05  0.1557E-07  0.8406E-03  0.2214E-02  0.7143E+02
   -1.443961    8.02833  0.0000E+00  0.6625E-05  0.1381E-07  0.9247E-03  0.1954E-02  0.4678E+03
   -1.512723    8.02882  0.0000E+00  0.6320E-05  0.1237E-07  0.1010E-02  0.1717E-02  0.1402E+03
   -1.581486    8.02925  0.0000E+00  0.6046E-05  0.1117E-07  0.1074E-02  0.1509E-02  0.3148E+02
   -1.650248    8.02963  0.0000E+00  0.5798E-05  0.1017E-07  0.1107E-02  0.1325E-02  0.4926E+01
   -1.719009    8.03000  0.0000E+00  0.5569E-05  0.9327E-08  0.1113E-02  0.1161E-02  0.1569E+01
   -1.787771    8.03037  0.0000E+00  0.5359E-05  0.8616E-08  0.1112E-02  0.1015E-02  0.1430E+01
   -1.856533    8.03074  0.0000E+00  0.5165E-05  0.8028E-08  0.1105E-02  0.8854E-03  0.1309E+01
   -1.925294    8.03111  0.0000E+00  0.4988E-05  0.7552E-08  0.1090E-02  0.7703E-03  0.1203E+01
   -1.994055    8.03148  0.0000E+00  0.4827E-05  0.7180E-08  0.1069E-02  0.6687E-03  0.1115E+01
   -2.062816    8.03187  0.0000E+00  0.4680E-05  0.6905E-08  0.1042E-02  0.5793E-03  0.1070E+01
   -2.131576    8.03227  0.0000E+00  0.4546E-05  0.6722E-08  0.1009E-02  0.5004E-03  0.1085E+01
   -2.200336    8.03268  0.0000E+00  0.4424E-05  0.6630E-08  0.9682E-03  0.4304E-03  0.1182E+01
   -2.269096    8.03311  0.0000E+00  0.4314E-05  0.6631E-08  0.9207E-03  0.3678E-03  0.1354E+01
   -2.337855    8.03356  0.0000E+00  0.4211E-05  0.6734E-08  0.8676E-03  0.3141E-03  0.1763E+01
   -2.406613    8.03405  0.0000E+00  0.4109E-05  0.6966E-08  0.8063E-03  0.2682E-03  0.2693E+01
   -2.475371    8.03457  0.0000E+00  0.4001E-05  0.7401E-08  0.7258E-03  0.2269E-03  0.4698E+01
   -2.544129    8.03516  0.0000E+00  0.3874E-05  0.8227E-08  0.6384E-03  0.1881E-03  0.1042E+02
   -2.612886    8.03585  0.0000E+00  0.3669E-05  0.1037E-07  0.4348E-03  0.1534E-03  0.1158E+03
   -2.681642    8.03687  0.0000E+00  0.2248E-05  0.3621E-07  0.2002E-04  0.1113E-03 -0.4322E+04
   -2.750398    8.06080  0.0000E+00  0.0000E+00  0.0000E+00  0.0000E+00  0.1111E-03  0.0000E+00
