 1 - depth, m
 2 - temperature, C
 3 - salinity, kg/kg
 4 - turbulent kinetic energy, m**2/s**2
 5 - dissipation rate, m**2/s**3
 6 - kinematic heat conductance, m**2/s
 7 - modulus of horizontal velocity, m/s
 8 - Richardson number, n/d
   -0.000000    0.00000  0.0000E+00  0.2633E-09  0.2216E-12  0.1000E-09  0.0000E+00  0.4423E+17
   -0.068760    0.73532  0.0000E+00  0.1663E-08  0.2185E-12  0.1000E-09  0.0000E+00  0.3218E+17
   -0.137521    1.40737  0.0000E+00  0.4478E-08  0.3866E-12  0.1000E-09  0.0000E+00  0.2289E+17
   -0.206282    2.02832  0.0000E+00  0.9811E-08  0.7581E-12  0.2489E-09  0.0000E+00  0.1551E+17
   -0.275044    2.60586  0.0000E+00  0.2006E-07  0.1488E-11  0.7949E-09  0.0000E+00  0.9539E+16
   -0.343806    3.14395  0.0000E+00  0.3987E-07  0.2886E-11  0.3155E-08  0.0000E+00  0.4671E+16
   -0.412569    3.64115  0.0000E+00  0.7711E-07  0.5483E-11  0.3092E-07  0.0000E+00  0.9182E+15
   -0.481333    4.03665  0.0000E+00  0.7774E-07  0.5532E-11  0.3735E-03  0.0000E+00 -0.1361E+12
   -0.550097    4.03682  0.0000E+00  0.7804E-07  0.5560E-11  0.3677E-03  0.0000E+00 -0.1392E+12
   -0.618861    4.03700  0.0000E+00  0.7833E-07  0.5591E-11  0.3673E-03  0.0000E+00 -0.1393E+12
   -0.687626    4.03717  0.0000E+00  0.7859E-07  0.5627E-11  0.3675E-03  0.0000E+00 -0.1395E+12
   -0.756391    4.03735  0.0000E+00  0.7883E-07  0.5667E-11  0.3672E-03  0.0000E+00 -0.1399E+12
   -0.825156    4.03753  0.0000E+00  0.7906E-07  0.5711E-11  0.3666E-03  0.0000E+00 -0.1406E+12
   -0.893922    4.03770  0.0000E+00  0.7926E-07  0.5760E-11  0.3655E-03  0.0000E+00 -0.1418E+12
   -0.962688    4.03788  0.0000E+00  0.7945E-07  0.5814E-11  0.3640E-03  0.0000E+00 -0.1432E+12
   -1.031454    4.03805  0.0000E+00  0.7962E-07  0.5873E-11  0.3621E-03  0.0000E+00 -0.1451E+12
   -1.100220    4.03823  0.0000E+00  0.7977E-07  0.5938E-11  0.3597E-03  0.0000E+00 -0.1474E+12
   -1.168986    4.03841  0.0000E+00  0.7989E-07  0.6009E-11  0.3569E-03  0.0000E+00 -0.1500E+12
   -1.237753    4.03860  0.0000E+00  0.8000E-07  0.6086E-11  0.3536E-03  0.0000E+00 -0.1530E+12
   -1.306519    4.03879  0.0000E+00  0.8008E-07  0.6171E-11  0.3499E-03  0.0000E+00 -0.1565E+12
   -1.375286    4.03898  0.0000E+00  0.8014E-07  0.6263E-11  0.3458E-03  0.0000E+00 -0.1599E+12
   -1.444052    4.03917  0.0000E+00  0.8017E-07  0.6363E-11  0.3412E-03  0.0000E+00 -0.1636E+12
   -1.512819    4.03937  0.0000E+00  0.8018E-07  0.6473E-11  0.3361E-03  0.0000E+00 -0.1676E+12
   -1.581585    4.03957  0.0000E+00  0.8016E-07  0.6595E-11  0.3304E-03  0.0000E+00 -0.1721E+12
   -1.650352    4.03978  0.0000E+00  0.8011E-07  0.6731E-11  0.3242E-03  0.0000E+00 -0.1772E+12
   -1.719118    4.03999  0.0000E+00  0.8003E-07  0.6883E-11  0.3173E-03  0.0000E+00 -0.1830E+12
   -1.787884    4.04020  0.0000E+00  0.7992E-07  0.7053E-11  0.3097E-03  0.0000E+00 -0.1896E+12
   -1.856650    4.04043  0.0000E+00  0.7977E-07  0.7246E-11  0.3015E-03  0.0000E+00 -0.1971E+12
   -1.925416    4.04066  0.0000E+00  0.7959E-07  0.7465E-11  0.2925E-03  0.0000E+00 -0.2057E+12
   -1.994181    4.04090  0.0000E+00  0.7936E-07  0.7715E-11  0.2827E-03  0.0000E+00 -0.2157E+12
   -2.062946    4.04116  0.0000E+00  0.7909E-07  0.8003E-11  0.2720E-03  0.0000E+00 -0.2267E+12
   -2.131711    4.04142  0.0000E+00  0.7877E-07  0.8340E-11  0.2605E-03  0.0000E+00 -0.2394E+12
   -2.200475    4.04170  0.0000E+00  0.7840E-07  0.8736E-11  0.2479E-03  0.0000E+00 -0.2546E+12
   -2.269239    4.04199  0.0000E+00  0.7796E-07  0.9216E-11  0.2340E-03  0.0000E+00 -0.2729E+12
   -2.338002    4.04230  0.0000E+00  0.7742E-07  0.9831E-11  0.2182E-03  0.0000E+00 -0.2965E+12
   -2.406765    4.04264  0.0000E+00  0.7673E-07  0.1067E-10  0.2010E-03  0.0000E+00 -0.3262E+12
   -2.475528    4.04301  0.0000E+00  0.7567E-07  0.1209E-10  0.1380E-03  0.0000E+00 -0.4832E+12
   -2.544290    4.04355  0.0000E+00  0.7371E-07  0.1512E-10  0.8290E-04  0.0000E+00 -0.8246E+12
   -2.613051    4.04447  0.0000E+00  0.6974E-07  0.2272E-10  0.4157E-04  0.0000E+00 -0.1716E+13
   -2.681812    4.04633  0.0000E+00  0.4379E-07  0.9546E-10  0.2845E-05  0.0000E+00 -0.3155E+14
   -2.750572    4.07370  0.0000E+00  0.0000E+00  0.0000E+00  0.0000E+00  0.0000E+00  0.0000E+00
