 1 - depth, m
 2 - temperature, C
 3 - salinity, kg/kg
 4 - turbulent kinetic energy, m**2/s**2
 5 - dissipation rate, m**2/s**3
 6 - kinematic heat conductance, m**2/s
 7 - modulus of horizontal velocity, m/s
 8 - Richardson number, n/d
   -0.000000    0.00000  0.0000E+00  0.1219E-13  0.7603E-17  0.1000E-09  0.0000E+00  0.1274E+17
   -0.068738    0.19632  0.0000E+00  0.1219E-13  0.7603E-17  0.1000E-09  0.0000E+00  0.1215E+17
   -0.137476    0.39409  0.0000E+00  0.1219E-13  0.7603E-17  0.1000E-09  0.0000E+00  0.1149E+17
   -0.206215    0.59243  0.0000E+00  0.3013E-13  0.7603E-17  0.1000E-09  0.0000E+00  0.1078E+17
   -0.274955    0.79031  0.0000E+00  0.9715E-13  0.8888E-17  0.1000E-09  0.0000E+00  0.1006E+17
   -0.343695    0.98738  0.0000E+00  0.2223E-12  0.1505E-16  0.1000E-09  0.0000E+00  0.9312E+16
   -0.412436    1.18288  0.0000E+00  0.4461E-12  0.2737E-16  0.1000E-09  0.0000E+00  0.8560E+16
   -0.481177    1.37611  0.0000E+00  0.8487E-12  0.4982E-16  0.1000E-09  0.0000E+00  0.7808E+16
   -0.549919    1.56640  0.0000E+00  0.1578E-11  0.9005E-16  0.1000E-09  0.0000E+00  0.7056E+16
   -0.618661    1.75287  0.0000E+00  0.2899E-11  0.1615E-15  0.1000E-09  0.0000E+00  0.6328E+16
   -0.687403    1.93505  0.0000E+00  0.5277E-11  0.2873E-15  0.1000E-09  0.0000E+00  0.5668E+16
   -0.756146    2.11377  0.0000E+00  0.9532E-11  0.5078E-15  0.1000E-09  0.0000E+00  0.5055E+16
   -0.824889    2.28947  0.0000E+00  0.1710E-10  0.8912E-15  0.1000E-09  0.0000E+00  0.4464E+16
   -0.893633    2.46191  0.0000E+00  0.3046E-10  0.1554E-14  0.1000E-09  0.0000E+00  0.3899E+16
   -0.962376    2.63083  0.0000E+00  0.5391E-10  0.2691E-14  0.1000E-09  0.0000E+00  0.3361E+16
   -1.031120    2.79599  0.0000E+00  0.9467E-10  0.4625E-14  0.1000E-09  0.0000E+00  0.2857E+16
   -1.099864    2.95749  0.0000E+00  0.1649E-09  0.7888E-14  0.1000E-09  0.0000E+00  0.2383E+16
   -1.168608    3.11521  0.0000E+00  0.2853E-09  0.1336E-13  0.1000E-09  0.0000E+00  0.1938E+16
   -1.237353    3.26906  0.0000E+00  0.4903E-09  0.2247E-13  0.1000E-09  0.0000E+00  0.1524E+16
   -1.306097    3.41904  0.0000E+00  0.8369E-09  0.3756E-13  0.1679E-09  0.0000E+00  0.1140E+16
   -1.374841    3.56517  0.0000E+00  0.1419E-08  0.6235E-13  0.4010E-09  0.0000E+00  0.7929E+15
   -1.443586    3.70938  0.0000E+00  0.2389E-08  0.1028E-12  0.1137E-08  0.0000E+00  0.4614E+15
   -1.512330    3.85220  0.0000E+00  0.3988E-08  0.1681E-12  0.6122E-08  0.0000E+00  0.1410E+15
   -1.581074    3.99002  0.0000E+00  0.4304E-08  0.1819E-12  0.2925E-04  0.0000E+00 -0.3800E+11
   -1.649818    3.99070  0.0000E+00  0.4464E-08  0.1903E-12  0.3187E-04  0.0000E+00 -0.4506E+11
   -1.718562    3.99135  0.0000E+00  0.4614E-08  0.1995E-12  0.3395E-04  0.0000E+00 -0.4834E+11
   -1.787306    3.99194  0.0000E+00  0.4752E-08  0.2097E-12  0.3538E-04  0.0000E+00 -0.5148E+11
   -1.856050    3.99251  0.0000E+00  0.4880E-08  0.2208E-12  0.3620E-04  0.0000E+00 -0.5495E+11
   -1.924793    3.99306  0.0000E+00  0.4997E-08  0.2332E-12  0.3646E-04  0.0000E+00 -0.5901E+11
   -1.993536    3.99361  0.0000E+00  0.5101E-08  0.2471E-12  0.3617E-04  0.0000E+00 -0.6391E+11
   -2.062279    3.99415  0.0000E+00  0.5192E-08  0.2628E-12  0.3534E-04  0.0000E+00 -0.6999E+11
   -2.131022    3.99471  0.0000E+00  0.5268E-08  0.2810E-12  0.3398E-04  0.0000E+00 -0.7774E+11
   -2.199764    3.99528  0.0000E+00  0.5326E-08  0.3025E-12  0.3206E-04  0.0000E+00 -0.8788E+11
   -2.268505    3.99589  0.0000E+00  0.5365E-08  0.3289E-12  0.2960E-04  0.0000E+00 -0.1019E+12
   -2.337247    3.99655  0.0000E+00  0.5379E-08  0.3638E-12  0.2643E-04  0.0000E+00 -0.1229E+12
   -2.405987    3.99729  0.0000E+00  0.5360E-08  0.4130E-12  0.2246E-04  0.0000E+00 -0.1571E+12
   -2.474727    3.99817  0.0000E+00  0.5290E-08  0.4892E-12  0.1768E-04  0.0000E+00 -0.2205E+12
   -2.543467    3.99931  0.0000E+00  0.5126E-08  0.6300E-12  0.1202E-04  0.0000E+00 -0.3722E+12
   -2.612206    4.00103  0.0000E+00  0.4728E-08  0.9932E-12  0.5736E-05  0.0000E+00 -0.9900E+12
   -2.680945    4.00483  0.0000E+00  0.3273E-08  0.3108E-11  0.7342E-06  0.0000E+00 -0.1666E+14
   -2.749683    4.03600  0.0000E+00  0.0000E+00  0.0000E+00  0.0000E+00  0.0000E+00  0.0000E+00
