 1 - depth, m
 2 - temperature, C
 3 - salinity, kg/kg
 4 - turbulent kinetic energy, m**2/s**2
 5 - dissipation rate, m**2/s**3
 6 - kinematic heat conductance, m**2/s
 7 - modulus of horizontal velocity, m/s
 8 - Richardson number, n/d
   -0.000000    0.00000  0.0000E+00  0.2178E-08  0.3115E-11  0.2523E-09  0.0000E+00  0.6277E+17
   -0.068741    1.10240  0.0000E+00  0.2177E-07  0.3112E-11  0.3925E-09  0.0000E+00  0.4038E+17
   -0.137483    2.15401  0.0000E+00  0.6164E-07  0.5727E-11  0.1370E-08  0.0000E+00  0.2130E+17
   -0.206225    3.15072  0.0000E+00  0.1377E-06  0.1146E-10  0.1067E-07  0.0000E+00  0.5491E+16
   -0.274968    4.04433  0.0000E+00  0.1386E-06  0.1153E-10  0.6212E-03  0.0000E+00 -0.1831E+12
   -0.343711    4.04454  0.0000E+00  0.1389E-06  0.1157E-10  0.5625E-03  0.0000E+00 -0.2076E+12
   -0.412455    4.04476  0.0000E+00  0.1393E-06  0.1161E-10  0.5412E-03  0.0000E+00 -0.2115E+12
   -0.481199    4.04499  0.0000E+00  0.1396E-06  0.1166E-10  0.5408E-03  0.0000E+00 -0.2081E+12
   -0.549944    4.04522  0.0000E+00  0.1398E-06  0.1171E-10  0.5407E-03  0.0000E+00 -0.2055E+12
   -0.618689    4.04544  0.0000E+00  0.1400E-06  0.1177E-10  0.5400E-03  0.0000E+00 -0.2032E+12
   -0.687435    4.04566  0.0000E+00  0.1401E-06  0.1183E-10  0.5388E-03  0.0000E+00 -0.2016E+12
   -0.756181    4.04588  0.0000E+00  0.1402E-06  0.1190E-10  0.5370E-03  0.0000E+00 -0.2004E+12
   -0.824927    4.04609  0.0000E+00  0.1403E-06  0.1198E-10  0.5347E-03  0.0000E+00 -0.1996E+12
   -0.893673    4.04631  0.0000E+00  0.1403E-06  0.1206E-10  0.5318E-03  0.0000E+00 -0.1992E+12
   -0.962420    4.04652  0.0000E+00  0.1403E-06  0.1215E-10  0.5283E-03  0.0000E+00 -0.1994E+12
   -1.031167    4.04673  0.0000E+00  0.1403E-06  0.1225E-10  0.5243E-03  0.0000E+00 -0.1996E+12
   -1.099914    4.04694  0.0000E+00  0.1402E-06  0.1236E-10  0.5197E-03  0.0000E+00 -0.2003E+12
   -1.168661    4.04715  0.0000E+00  0.1401E-06  0.1248E-10  0.5146E-03  0.0000E+00 -0.2013E+12
   -1.237409    4.04736  0.0000E+00  0.1399E-06  0.1262E-10  0.5088E-03  0.0000E+00 -0.2028E+12
   -1.306156    4.04758  0.0000E+00  0.1398E-06  0.1276E-10  0.5025E-03  0.0000E+00 -0.2045E+12
   -1.374904    4.04779  0.0000E+00  0.1395E-06  0.1292E-10  0.4956E-03  0.0000E+00 -0.2066E+12
   -1.443651    4.04800  0.0000E+00  0.1393E-06  0.1310E-10  0.4881E-03  0.0000E+00 -0.2089E+12
   -1.512399    4.04822  0.0000E+00  0.1390E-06  0.1329E-10  0.4800E-03  0.0000E+00 -0.2120E+12
   -1.581146    4.04844  0.0000E+00  0.1386E-06  0.1351E-10  0.4711E-03  0.0000E+00 -0.2155E+12
   -1.649893    4.04866  0.0000E+00  0.1382E-06  0.1375E-10  0.4614E-03  0.0000E+00 -0.2197E+12
   -1.718640    4.04888  0.0000E+00  0.1378E-06  0.1403E-10  0.4509E-03  0.0000E+00 -0.2245E+12
   -1.787387    4.04911  0.0000E+00  0.1374E-06  0.1434E-10  0.4395E-03  0.0000E+00 -0.2301E+12
   -1.856134    4.04935  0.0000E+00  0.1368E-06  0.1470E-10  0.4273E-03  0.0000E+00 -0.2365E+12
   -1.924881    4.04959  0.0000E+00  0.1363E-06  0.1510E-10  0.4140E-03  0.0000E+00 -0.2441E+12
   -1.993627    4.04983  0.0000E+00  0.1356E-06  0.1557E-10  0.3998E-03  0.0000E+00 -0.2527E+12
   -2.062373    4.05009  0.0000E+00  0.1350E-06  0.1611E-10  0.3844E-03  0.0000E+00 -0.2627E+12
   -2.131118    4.05035  0.0000E+00  0.1342E-06  0.1675E-10  0.3679E-03  0.0000E+00 -0.2742E+12
   -2.199864    4.05062  0.0000E+00  0.1334E-06  0.1751E-10  0.3501E-03  0.0000E+00 -0.2881E+12
   -2.268608    4.05091  0.0000E+00  0.1325E-06  0.1842E-10  0.3307E-03  0.0000E+00 -0.3053E+12
   -2.337353    4.05121  0.0000E+00  0.1315E-06  0.1960E-10  0.3087E-03  0.0000E+00 -0.3277E+12
   -2.406097    4.05153  0.0000E+00  0.1303E-06  0.2119E-10  0.2860E-03  0.0000E+00 -0.3543E+12
   -2.474840    4.05188  0.0000E+00  0.1285E-06  0.2395E-10  0.1853E-03  0.0000E+00 -0.5495E+12
   -2.543583    4.05241  0.0000E+00  0.1251E-06  0.3000E-10  0.1070E-03  0.0000E+00 -0.9630E+12
   -2.612325    4.05334  0.0000E+00  0.1185E-06  0.4529E-10  0.5421E-04  0.0000E+00 -0.1949E+13
   -2.681067    4.05517  0.0000E+00  0.7289E-07  0.2017E-09  0.3535E-05  0.0000E+00 -0.3606E+14
   -2.749808    4.08302  0.0000E+00  0.0000E+00  0.0000E+00  0.0000E+00  0.0000E+00  0.0000E+00
