 1 - depth, m
 2 - temperature, C
 3 - salinity, kg/kg
 4 - turbulent kinetic energy, m**2/s**2
 5 - dissipation rate, m**2/s**3
 6 - kinematic heat conductance, m**2/s
 7 - modulus of horizontal velocity, m/s
 8 - Richardson number, n/d
   -0.000000    0.00000  0.0000E+00  0.1219E-13  0.7603E-17  0.1000E-09  0.0000E+00  0.1329E+17
   -0.068783    0.20492  0.0000E+00  0.1219E-13  0.7603E-17  0.1000E-09  0.0000E+00  0.1215E+17
   -0.137567    0.40319  0.0000E+00  0.1219E-13  0.7603E-17  0.1000E-09  0.0000E+00  0.1109E+17
   -0.206352    0.59503  0.0000E+00  0.1219E-13  0.7603E-17  0.1000E-09  0.0000E+00  0.1012E+17
   -0.275137    0.78063  0.0000E+00  0.1219E-13  0.7603E-17  0.1000E-09  0.0000E+00  0.9294E+16
   -0.343923    0.96169  0.0000E+00  0.5678E-13  0.8256E-17  0.1000E-09  0.0000E+00  0.8538E+16
   -0.412709    1.13870  0.0000E+00  0.1545E-12  0.1610E-16  0.1000E-09  0.0000E+00  0.7832E+16
   -0.481496    1.31187  0.0000E+00  0.3559E-12  0.3403E-16  0.1000E-09  0.0000E+00  0.7160E+16
   -0.550283    1.48113  0.0000E+00  0.7776E-12  0.7165E-16  0.1000E-09  0.0000E+00  0.6497E+16
   -0.619071    1.64577  0.0000E+00  0.1664E-11  0.1494E-15  0.1000E-09  0.0000E+00  0.5882E+16
   -0.687859    1.80593  0.0000E+00  0.3523E-11  0.3087E-15  0.1000E-09  0.0000E+00  0.5411E+16
   -0.756647    1.96488  0.0000E+00  0.7393E-11  0.6332E-15  0.1000E-09  0.0000E+00  0.5018E+16
   -0.825436    2.12483  0.0000E+00  0.1540E-10  0.1289E-14  0.1000E-09  0.0000E+00  0.4632E+16
   -0.894225    2.28622  0.0000E+00  0.3184E-10  0.2607E-14  0.1000E-09  0.0000E+00  0.4247E+16
   -0.963014    2.44947  0.0000E+00  0.6540E-10  0.5237E-14  0.1000E-09  0.0000E+00  0.3859E+16
   -1.031803    2.61499  0.0000E+00  0.1332E-09  0.1044E-13  0.1000E-09  0.0000E+00  0.3467E+16
   -1.100593    2.78347  0.0000E+00  0.2692E-09  0.2064E-13  0.1000E-09  0.0000E+00  0.3059E+16
   -1.169382    2.95523  0.0000E+00  0.5402E-09  0.4054E-13  0.1000E-09  0.0000E+00  0.2629E+16
   -1.238172    3.13047  0.0000E+00  0.1077E-08  0.7912E-13  0.1854E-09  0.0000E+00  0.2172E+16
   -1.306962    3.30917  0.0000E+00  0.2133E-08  0.1535E-12  0.4633E-09  0.0000E+00  0.1686E+16
   -1.375752    3.49110  0.0000E+00  0.4197E-08  0.2957E-12  0.1279E-08  0.0000E+00  0.1178E+16
   -1.444542    3.67672  0.0000E+00  0.8190E-08  0.5655E-12  0.4543E-08  0.0000E+00  0.6342E+15
   -1.513332    3.86313  0.0000E+00  0.1555E-07  0.1055E-11  0.4730E-07  0.0000E+00  0.1143E+15
   -1.582121    4.01118  0.0000E+00  0.1615E-07  0.1098E-11  0.8949E-04  0.0000E+00 -0.1001E+12
   -1.650911    4.01144  0.0000E+00  0.1643E-07  0.1122E-11  0.8816E-04  0.0000E+00 -0.1231E+12
   -1.719701    4.01175  0.0000E+00  0.1669E-07  0.1149E-11  0.8978E-04  0.0000E+00 -0.1273E+12
   -1.788490    4.01207  0.0000E+00  0.1692E-07  0.1180E-11  0.9058E-04  0.0000E+00 -0.1309E+12
   -1.857279    4.01239  0.0000E+00  0.1712E-07  0.1213E-11  0.9276E-04  0.0000E+00 -0.1322E+12
   -1.926068    4.01271  0.0000E+00  0.1729E-07  0.1249E-11  0.9339E-04  0.0000E+00 -0.1357E+12
   -1.994857    4.01304  0.0000E+00  0.1742E-07  0.1288E-11  0.9303E-04  0.0000E+00 -0.1410E+12
   -2.063645    4.01337  0.0000E+00  0.1752E-07  0.1332E-11  0.9119E-04  0.0000E+00 -0.1468E+12
   -2.132433    4.01372  0.0000E+00  0.1759E-07  0.1385E-11  0.8808E-04  0.0000E+00 -0.1548E+12
   -2.201221    4.01407  0.0000E+00  0.1762E-07  0.1454E-11  0.8143E-04  0.0000E+00 -0.1707E+12
   -2.270008    4.01446  0.0000E+00  0.1760E-07  0.1544E-11  0.7112E-04  0.0000E+00 -0.1999E+12
   -2.338795    4.01491  0.0000E+00  0.1752E-07  0.1666E-11  0.6128E-04  0.0000E+00 -0.2382E+12
   -2.407581    4.01544  0.0000E+00  0.1735E-07  0.1839E-11  0.5168E-04  0.0000E+00 -0.2918E+12
   -2.476367    4.01607  0.0000E+00  0.1706E-07  0.2107E-11  0.4109E-04  0.0000E+00 -0.3826E+12
   -2.545152    4.01688  0.0000E+00  0.1654E-07  0.2593E-11  0.2882E-04  0.0000E+00 -0.5801E+12
   -2.613936    4.01807  0.0000E+00  0.1545E-07  0.3795E-11  0.1487E-04  0.0000E+00 -0.1255E+13
   -2.682720    4.02050  0.0000E+00  0.1051E-07  0.1218E-10  0.1594E-05  0.0000E+00 -0.1816E+14
   -2.751504    4.04538  0.0000E+00  0.0000E+00  0.0000E+00  0.0000E+00  0.0000E+00  0.0000E+00
