 1 - depth, m
 2 - temperature, C
 3 - salinity, kg/kg
 4 - turbulent kinetic energy, m**2/s**2
 5 - dissipation rate, m**2/s**3
 6 - kinematic heat conductance, m**2/s
 7 - modulus of horizontal velocity, m/s
 8 - Richardson number, n/d
   -0.000000    0.00000  0.0000E+00  0.1219E-13  0.7604E-17  0.1000E-09  0.0000E+00  0.9736E+16
   -0.068750    0.14902  0.0000E+00  0.1219E-13  0.7604E-17  0.1000E-09  0.0000E+00  0.9067E+16
   -0.137500    0.29358  0.0000E+00  0.1219E-13  0.7604E-17  0.1000E-09  0.0000E+00  0.8426E+16
   -0.206251    0.43354  0.0000E+00  0.1219E-13  0.7604E-17  0.1000E-09  0.0000E+00  0.7815E+16
   -0.275002    0.56878  0.0000E+00  0.1219E-13  0.7604E-17  0.1000E-09  0.0000E+00  0.7278E+16
   -0.343754    0.70003  0.0000E+00  0.1219E-13  0.7604E-17  0.1000E-09  0.0000E+00  0.6777E+16
   -0.412506    0.82742  0.0000E+00  0.1219E-13  0.7604E-17  0.1000E-09  0.0000E+00  0.6302E+16
   -0.481259    0.95095  0.0000E+00  0.1219E-13  0.7604E-17  0.1000E-09  0.0000E+00  0.5846E+16
   -0.550013    1.07046  0.0000E+00  0.1219E-13  0.7604E-17  0.1000E-09  0.0000E+00  0.5390E+16
   -0.618767    1.18539  0.0000E+00  0.1219E-13  0.7604E-17  0.1000E-09  0.0000E+00  0.4959E+16
   -0.687521    1.29567  0.0000E+00  0.1219E-13  0.7604E-17  0.1000E-09  0.0000E+00  0.4621E+16
   -0.756275    1.40288  0.0000E+00  0.1219E-13  0.7604E-17  0.1000E-09  0.0000E+00  0.4341E+16
   -0.825030    1.50800  0.0000E+00  0.1219E-13  0.7604E-17  0.1000E-09  0.0000E+00  0.4073E+16
   -0.893785    1.61102  0.0000E+00  0.1219E-13  0.7604E-17  0.1000E-09  0.0000E+00  0.3815E+16
   -0.962541    1.71191  0.0000E+00  0.1219E-13  0.7604E-17  0.1000E-09  0.0000E+00  0.3567E+16
   -1.031296    1.81065  0.0000E+00  0.1219E-13  0.7604E-17  0.1000E-09  0.0000E+00  0.3339E+16
   -1.100052    1.90748  0.0000E+00  0.1219E-13  0.7604E-17  0.1000E-09  0.0000E+00  0.3120E+16
   -1.168808    2.00240  0.0000E+00  0.1219E-13  0.7604E-17  0.1000E-09  0.0000E+00  0.2910E+16
   -1.237564    2.09535  0.0000E+00  0.1219E-13  0.7604E-17  0.1000E-09  0.0000E+00  0.2708E+16
   -1.306320    2.18629  0.0000E+00  0.1219E-13  0.7604E-17  0.1000E-09  0.0000E+00  0.2514E+16
   -1.375076    2.27517  0.0000E+00  0.1219E-13  0.7604E-17  0.1000E-09  0.0000E+00  0.2365E+16
   -1.443832    2.36333  0.0000E+00  0.1219E-13  0.7604E-17  0.1000E-09  0.0000E+00  0.2230E+16
   -1.512588    2.45125  0.0000E+00  0.1219E-13  0.7604E-17  0.1000E-09  0.0000E+00  0.2098E+16
   -1.581344    2.53896  0.0000E+00  0.1219E-13  0.7604E-17  0.1000E-09  0.0000E+00  0.1968E+16
   -1.650100    2.62649  0.0000E+00  0.1219E-13  0.7604E-17  0.1000E-09  0.0000E+00  0.1838E+16
   -1.718856    2.71377  0.0000E+00  0.1219E-13  0.7604E-17  0.1000E-09  0.0000E+00  0.1707E+16
   -1.787611    2.80070  0.0000E+00  0.1219E-13  0.7604E-17  0.1000E-09  0.0000E+00  0.1576E+16
   -1.856367    2.88718  0.0000E+00  0.1219E-13  0.7604E-17  0.1000E-09  0.0000E+00  0.1445E+16
   -1.925122    2.97308  0.0000E+00  0.1219E-13  0.7604E-17  0.1000E-09  0.0000E+00  0.1315E+16
   -1.993877    3.05824  0.0000E+00  0.1219E-13  0.7604E-17  0.1000E-09  0.0000E+00  0.1186E+16
   -2.062631    3.14247  0.0000E+00  0.1219E-13  0.7604E-17  0.1000E-09  0.0000E+00  0.1082E+16
   -2.131386    3.22761  0.0000E+00  0.1219E-13  0.7604E-17  0.1000E-09  0.0000E+00  0.9792E+15
   -2.200139    3.31398  0.0000E+00  0.1219E-13  0.7604E-17  0.1000E-09  0.0000E+00  0.8720E+15
   -2.268893    3.40168  0.0000E+00  0.1373E-13  0.1337E-16  0.1000E-09  0.0000E+00  0.7733E+15
   -2.337646    3.49244  0.0000E+00  0.1038E-12  0.1029E-15  0.1000E-09  0.0000E+00  0.6713E+15
   -2.406398    3.58781  0.0000E+00  0.8924E-12  0.8640E-15  0.1000E-09  0.0000E+00  0.5575E+15
   -2.475150    3.68963  0.0000E+00  0.7652E-11  0.7266E-14  0.1000E-09  0.0000E+00  0.4232E+15
   -2.543902    3.80138  0.0000E+00  0.6671E-10  0.6263E-13  0.1122E-08  0.0000E+00  0.2447E+15
   -2.612652    3.93137  0.0000E+00  0.5874E-09  0.5592E-12  0.7680E-07  0.0000E+00 -0.1475E+13
   -2.681403    4.04298  0.0000E+00  0.3597E-08  0.5510E-11  0.7752E-06  0.0000E+00 -0.6274E+14
   -2.750152    4.09229  0.0000E+00  0.0000E+00  0.0000E+00  0.0000E+00  0.0000E+00  0.0000E+00
