 1 - depth, m
 2 - temperature, C
 3 - salinity, kg/kg
 4 - turbulent kinetic energy, m**2/s**2
 5 - dissipation rate, m**2/s**3
 6 - kinematic heat conductance, m**2/s
 7 - modulus of horizontal velocity, m/s
 8 - Richardson number, n/d
   -0.000000    0.00000  0.0000E+00  0.1219E-13  0.7603E-17  0.1000E-09  0.0000E+00  0.1246E+17
   -0.068744    0.19182  0.0000E+00  0.1219E-13  0.7603E-17  0.1000E-09  0.0000E+00  0.1119E+17
   -0.137490    0.37341  0.0000E+00  0.1219E-13  0.7603E-17  0.1000E-09  0.0000E+00  0.9920E+16
   -0.206235    0.54285  0.0000E+00  0.1219E-13  0.7603E-17  0.1000E-09  0.0000E+00  0.8665E+16
   -0.274982    0.69844  0.0000E+00  0.1219E-13  0.7603E-17  0.1000E-09  0.0000E+00  0.7559E+16
   -0.343729    0.84082  0.0000E+00  0.1219E-13  0.7603E-17  0.1000E-09  0.0000E+00  0.6532E+16
   -0.412476    0.96954  0.0000E+00  0.1219E-13  0.7603E-17  0.1000E-09  0.0000E+00  0.5584E+16
   -0.481224    1.08435  0.0000E+00  0.1219E-13  0.7603E-17  0.1000E-09  0.0000E+00  0.4711E+16
   -0.549972    1.18506  0.0000E+00  0.1219E-13  0.7603E-17  0.1000E-09  0.0000E+00  0.3881E+16
   -0.618721    1.27096  0.0000E+00  0.1219E-13  0.7603E-17  0.1000E-09  0.0000E+00  0.3154E+16
   -0.687470    1.34292  0.0000E+00  0.1219E-13  0.7603E-17  0.1000E-09  0.0000E+00  0.2719E+16
   -0.756220    1.40664  0.0000E+00  0.1219E-13  0.7603E-17  0.1000E-09  0.0000E+00  0.2491E+16
   -0.824969    1.46649  0.0000E+00  0.1219E-13  0.7603E-17  0.1000E-09  0.0000E+00  0.2353E+16
   -0.893719    1.52443  0.0000E+00  0.1219E-13  0.7603E-17  0.1000E-09  0.0000E+00  0.2298E+16
   -0.962470    1.58242  0.0000E+00  0.1219E-13  0.7603E-17  0.1000E-09  0.0000E+00  0.2317E+16
   -1.031220    1.64239  0.0000E+00  0.1219E-13  0.7603E-17  0.1000E-09  0.0000E+00  0.2416E+16
   -1.099971    1.70667  0.0000E+00  0.1219E-13  0.7603E-17  0.1000E-09  0.0000E+00  0.2556E+16
   -1.168722    1.77679  0.0000E+00  0.1219E-13  0.7603E-17  0.1000E-09  0.0000E+00  0.2714E+16
   -1.237473    1.85385  0.0000E+00  0.1219E-13  0.7603E-17  0.1000E-09  0.0000E+00  0.2866E+16
   -1.306224    1.93850  0.0000E+00  0.1219E-13  0.7603E-17  0.1000E-09  0.0000E+00  0.2991E+16
   -1.374975    2.03088  0.0000E+00  0.1219E-13  0.7603E-17  0.1000E-09  0.0000E+00  0.3142E+16
   -1.443726    2.13303  0.0000E+00  0.1219E-13  0.7603E-17  0.1000E-09  0.0000E+00  0.3242E+16
   -1.512477    2.24491  0.0000E+00  0.1219E-13  0.7603E-17  0.1000E-09  0.0000E+00  0.3273E+16
   -1.581227    2.36589  0.0000E+00  0.1219E-13  0.7603E-17  0.1000E-09  0.0000E+00  0.3218E+16
   -1.649978    2.49464  0.0000E+00  0.1219E-13  0.7603E-17  0.1000E-09  0.0000E+00  0.3070E+16
   -1.718729    2.62915  0.0000E+00  0.1219E-13  0.7603E-17  0.1000E-09  0.0000E+00  0.2842E+16
   -1.787479    2.76713  0.0000E+00  0.1219E-13  0.7603E-17  0.1000E-09  0.0000E+00  0.2551E+16
   -1.856230    2.90622  0.0000E+00  0.1219E-13  0.7603E-17  0.1000E-09  0.0000E+00  0.2220E+16
   -1.924980    3.04412  0.0000E+00  0.3418E-13  0.1346E-16  0.1000E-09  0.0000E+00  0.1871E+16
   -1.993730    3.17879  0.0000E+00  0.1442E-12  0.5166E-16  0.1000E-09  0.0000E+00  0.1528E+16
   -2.062479    3.30857  0.0000E+00  0.5941E-12  0.2038E-15  0.1000E-09  0.0000E+00  0.1211E+16
   -2.131228    3.43290  0.0000E+00  0.2390E-11  0.7886E-15  0.1000E-09  0.0000E+00  0.9243E+15
   -2.199977    3.55137  0.0000E+00  0.9421E-11  0.2992E-14  0.1000E-09  0.0000E+00  0.6726E+15
   -2.268725    3.66411  0.0000E+00  0.3674E-10  0.1125E-13  0.1232E-09  0.0000E+00  0.4639E+15
   -2.337473    3.77454  0.0000E+00  0.1429E-09  0.4221E-13  0.7830E-09  0.0000E+00  0.2724E+15
   -2.406221    3.88546  0.0000E+00  0.5472E-09  0.1564E-12  0.9795E-08  0.0000E+00  0.7937E+14
   -2.474967    3.99455  0.0000E+00  0.1707E-08  0.4860E-12  0.1753E-05  0.0000E+00 -0.1999E+13
   -2.543714    4.00443  0.0000E+00  0.2637E-08  0.9894E-12  0.2149E-05  0.0000E+00 -0.3599E+13
   -2.612460    4.01440  0.0000E+00  0.3672E-08  0.2257E-11  0.1782E-05  0.0000E+00 -0.9493E+13
   -2.681205    4.03105  0.0000E+00  0.5226E-08  0.7873E-11  0.1063E-05  0.0000E+00 -0.5802E+14
   -2.749949    4.08335  0.0000E+00  0.0000E+00  0.0000E+00  0.0000E+00  0.0000E+00  0.0000E+00
