 1 - depth, m
 2 - temperature, C
 3 - salinity, kg/kg
 4 - turbulent kinetic energy, m**2/s**2
 5 - dissipation rate, m**2/s**3
 6 - kinematic heat conductance, m**2/s
 7 - modulus of horizontal velocity, m/s
 8 - Richardson number, n/d
   -0.000000    0.00000  0.0000E+00  0.1389E-09  0.9996E-13  0.1000E-09  0.0000E+00  0.3359E+17
   -0.068743    0.54324  0.0000E+00  0.7739E-09  0.1008E-12  0.1000E-09  0.0000E+00  0.2742E+17
   -0.137486    1.06562  0.0000E+00  0.2063E-08  0.1791E-12  0.1000E-09  0.0000E+00  0.2203E+17
   -0.206230    1.57040  0.0000E+00  0.4516E-08  0.3502E-12  0.1052E-09  0.0000E+00  0.1744E+17
   -0.274974    2.06618  0.0000E+00  0.9220E-08  0.6821E-12  0.2604E-09  0.0000E+00  0.1334E+17
   -0.343720    2.56192  0.0000E+00  0.1826E-07  0.1309E-11  0.7076E-09  0.0000E+00  0.9410E+16
   -0.412465    3.06430  0.0000E+00  0.3554E-07  0.2482E-11  0.2355E-08  0.0000E+00  0.5353E+16
   -0.481211    3.56877  0.0000E+00  0.6784E-07  0.4622E-11  0.1728E-07  0.0000E+00  0.1361E+16
   -0.549958    4.02342  0.0000E+00  0.6845E-07  0.4665E-11  0.3334E-03  0.0000E+00 -0.1143E+12
   -0.618705    4.02362  0.0000E+00  0.6873E-07  0.4689E-11  0.3364E-03  0.0000E+00 -0.1207E+12
   -0.687452    4.02382  0.0000E+00  0.6898E-07  0.4716E-11  0.3417E-03  0.0000E+00 -0.1206E+12
   -0.756200    4.02403  0.0000E+00  0.6921E-07  0.4745E-11  0.3414E-03  0.0000E+00 -0.1213E+12
   -0.824948    4.02423  0.0000E+00  0.6942E-07  0.4778E-11  0.3411E-03  0.0000E+00 -0.1221E+12
   -0.893696    4.02444  0.0000E+00  0.6962E-07  0.4814E-11  0.3405E-03  0.0000E+00 -0.1232E+12
   -0.962444    4.02464  0.0000E+00  0.6979E-07  0.4854E-11  0.3395E-03  0.0000E+00 -0.1246E+12
   -1.031193    4.02485  0.0000E+00  0.6994E-07  0.4897E-11  0.3381E-03  0.0000E+00 -0.1259E+12
   -1.099942    4.02506  0.0000E+00  0.7006E-07  0.4944E-11  0.3363E-03  0.0000E+00 -0.1275E+12
   -1.168691    4.02527  0.0000E+00  0.7017E-07  0.4996E-11  0.3341E-03  0.0000E+00 -0.1293E+12
   -1.237440    4.02548  0.0000E+00  0.7025E-07  0.5052E-11  0.3314E-03  0.0000E+00 -0.1314E+12
   -1.306189    4.02569  0.0000E+00  0.7031E-07  0.5113E-11  0.3284E-03  0.0000E+00 -0.1339E+12
   -1.374938    4.02591  0.0000E+00  0.7034E-07  0.5179E-11  0.3250E-03  0.0000E+00 -0.1356E+12
   -1.443687    4.02613  0.0000E+00  0.7035E-07  0.5252E-11  0.3212E-03  0.0000E+00 -0.1371E+12
   -1.512437    4.02635  0.0000E+00  0.7033E-07  0.5331E-11  0.3169E-03  0.0000E+00 -0.1392E+12
   -1.581186    4.02657  0.0000E+00  0.7029E-07  0.5419E-11  0.3121E-03  0.0000E+00 -0.1418E+12
   -1.649935    4.02680  0.0000E+00  0.7021E-07  0.5518E-11  0.3067E-03  0.0000E+00 -0.1449E+12
   -1.718683    4.02702  0.0000E+00  0.7011E-07  0.5628E-11  0.3007E-03  0.0000E+00 -0.1484E+12
   -1.787432    4.02726  0.0000E+00  0.6998E-07  0.5751E-11  0.2940E-03  0.0000E+00 -0.1526E+12
   -1.856181    4.02749  0.0000E+00  0.6982E-07  0.5891E-11  0.2867E-03  0.0000E+00 -0.1574E+12
   -1.924929    4.02774  0.0000E+00  0.6963E-07  0.6050E-11  0.2787E-03  0.0000E+00 -0.1631E+12
   -1.993677    4.02799  0.0000E+00  0.6940E-07  0.6233E-11  0.2699E-03  0.0000E+00 -0.1697E+12
   -2.062424    4.02825  0.0000E+00  0.6913E-07  0.6443E-11  0.2603E-03  0.0000E+00 -0.1762E+12
   -2.131172    4.02852  0.0000E+00  0.6881E-07  0.6688E-11  0.2499E-03  0.0000E+00 -0.1836E+12
   -2.199919    4.02879  0.0000E+00  0.6845E-07  0.6978E-11  0.2384E-03  0.0000E+00 -0.1926E+12
   -2.268665    4.02908  0.0000E+00  0.6804E-07  0.7328E-11  0.2258E-03  0.0000E+00 -0.2039E+12
   -2.337411    4.02939  0.0000E+00  0.6754E-07  0.7786E-11  0.2120E-03  0.0000E+00 -0.2181E+12
   -2.406157    4.02971  0.0000E+00  0.6680E-07  0.8509E-11  0.1624E-03  0.0000E+00 -0.2864E+12
   -2.474902    4.03013  0.0000E+00  0.6562E-07  0.9834E-11  0.1066E-03  0.0000E+00 -0.4414E+12
   -2.543646    4.03077  0.0000E+00  0.6372E-07  0.1234E-10  0.7016E-04  0.0000E+00 -0.6859E+12
   -2.612390    4.03175  0.0000E+00  0.6005E-07  0.1852E-10  0.3590E-04  0.0000E+00 -0.1404E+13
   -2.681134    4.03368  0.0000E+00  0.3759E-07  0.7593E-10  0.2613E-05  0.0000E+00 -0.2562E+14
   -2.749876    4.06060  0.0000E+00  0.0000E+00  0.0000E+00  0.0000E+00  0.0000E+00  0.0000E+00
