 1 - depth, m
 2 - temperature, C
 3 - salinity, kg/kg
 4 - turbulent kinetic energy, m**2/s**2
 5 - dissipation rate, m**2/s**3
 6 - kinematic heat conductance, m**2/s
 7 - modulus of horizontal velocity, m/s
 8 - Richardson number, n/d
   -0.000000    0.00000  0.0000E+00  0.2538E-08  0.3782E-11  0.2989E-09  0.0000E+00  0.6432E+17
   -0.068728    1.13545  0.0000E+00  0.2624E-07  0.3981E-11  0.5021E-09  0.0000E+00  0.4038E+17
   -0.137457    2.20762  0.0000E+00  0.7591E-07  0.7751E-11  0.1925E-08  0.0000E+00  0.2051E+17
   -0.206187    3.21166  0.0000E+00  0.1740E-06  0.1613E-10  0.1759E-07  0.0000E+00  0.4685E+16
   -0.274917    4.06902  0.0000E+00  0.1749E-06  0.1622E-10  0.7166E-03  0.0000E+00 -0.2355E+12
   -0.343647    4.06920  0.0000E+00  0.1754E-06  0.1628E-10  0.6317E-03  0.0000E+00 -0.2630E+12
   -0.412379    4.06940  0.0000E+00  0.1758E-06  0.1633E-10  0.6082E-03  0.0000E+00 -0.2671E+12
   -0.481110    4.06961  0.0000E+00  0.1761E-06  0.1640E-10  0.6078E-03  0.0000E+00 -0.2626E+12
   -0.549842    4.06981  0.0000E+00  0.1764E-06  0.1647E-10  0.6075E-03  0.0000E+00 -0.2590E+12
   -0.618575    4.07001  0.0000E+00  0.1766E-06  0.1655E-10  0.6066E-03  0.0000E+00 -0.2561E+12
   -0.687308    4.07020  0.0000E+00  0.1768E-06  0.1663E-10  0.6052E-03  0.0000E+00 -0.2538E+12
   -0.756041    4.07040  0.0000E+00  0.1769E-06  0.1673E-10  0.6030E-03  0.0000E+00 -0.2521E+12
   -0.824774    4.07059  0.0000E+00  0.1769E-06  0.1683E-10  0.6003E-03  0.0000E+00 -0.2510E+12
   -0.893508    4.07078  0.0000E+00  0.1770E-06  0.1695E-10  0.5969E-03  0.0000E+00 -0.2503E+12
   -0.962242    4.07097  0.0000E+00  0.1769E-06  0.1708E-10  0.5928E-03  0.0000E+00 -0.2504E+12
   -1.030977    4.07116  0.0000E+00  0.1768E-06  0.1722E-10  0.5881E-03  0.0000E+00 -0.2507E+12
   -1.099711    4.07134  0.0000E+00  0.1767E-06  0.1737E-10  0.5828E-03  0.0000E+00 -0.2515E+12
   -1.168446    4.07153  0.0000E+00  0.1765E-06  0.1754E-10  0.5769E-03  0.0000E+00 -0.2528E+12
   -1.237180    4.07172  0.0000E+00  0.1763E-06  0.1773E-10  0.5702E-03  0.0000E+00 -0.2546E+12
   -1.305915    4.07191  0.0000E+00  0.1761E-06  0.1793E-10  0.5630E-03  0.0000E+00 -0.2569E+12
   -1.374650    4.07210  0.0000E+00  0.1758E-06  0.1816E-10  0.5550E-03  0.0000E+00 -0.2596E+12
   -1.443385    4.07230  0.0000E+00  0.1754E-06  0.1840E-10  0.5465E-03  0.0000E+00 -0.2626E+12
   -1.512119    4.07249  0.0000E+00  0.1750E-06  0.1868E-10  0.5371E-03  0.0000E+00 -0.2664E+12
   -1.580854    4.07269  0.0000E+00  0.1746E-06  0.1898E-10  0.5270E-03  0.0000E+00 -0.2709E+12
   -1.649589    4.07289  0.0000E+00  0.1741E-06  0.1933E-10  0.5159E-03  0.0000E+00 -0.2763E+12
   -1.718323    4.07309  0.0000E+00  0.1735E-06  0.1972E-10  0.5039E-03  0.0000E+00 -0.2824E+12
   -1.787057    4.07330  0.0000E+00  0.1729E-06  0.2016E-10  0.4910E-03  0.0000E+00 -0.2895E+12
   -1.855791    4.07351  0.0000E+00  0.1722E-06  0.2066E-10  0.4771E-03  0.0000E+00 -0.2977E+12
   -1.924525    4.07373  0.0000E+00  0.1715E-06  0.2124E-10  0.4621E-03  0.0000E+00 -0.3073E+12
   -1.993259    4.07396  0.0000E+00  0.1707E-06  0.2190E-10  0.4459E-03  0.0000E+00 -0.3183E+12
   -2.061992    4.07419  0.0000E+00  0.1698E-06  0.2267E-10  0.4286E-03  0.0000E+00 -0.3310E+12
   -2.130725    4.07443  0.0000E+00  0.1689E-06  0.2358E-10  0.4100E-03  0.0000E+00 -0.3457E+12
   -2.199457    4.07468  0.0000E+00  0.1678E-06  0.2465E-10  0.3900E-03  0.0000E+00 -0.3633E+12
   -2.268189    4.07494  0.0000E+00  0.1667E-06  0.2595E-10  0.3681E-03  0.0000E+00 -0.3851E+12
   -2.336921    4.07522  0.0000E+00  0.1654E-06  0.2763E-10  0.3433E-03  0.0000E+00 -0.4136E+12
   -2.405652    4.07552  0.0000E+00  0.1639E-06  0.2985E-10  0.3180E-03  0.0000E+00 -0.4473E+12
   -2.474383    4.07584  0.0000E+00  0.1617E-06  0.3357E-10  0.2370E-03  0.0000E+00 -0.6022E+12
   -2.543113    4.07627  0.0000E+00  0.1577E-06  0.4172E-10  0.1253E-03  0.0000E+00 -0.1149E+13
   -2.611842    4.07708  0.0000E+00  0.1496E-06  0.6276E-10  0.6241E-04  0.0000E+00 -0.2353E+13
   -2.680571    4.07872  0.0000E+00  0.9169E-07  0.2838E-09  0.3945E-05  0.0000E+00 -0.4264E+14
   -2.749300    4.10460  0.0000E+00  0.0000E+00  0.0000E+00  0.0000E+00  0.0000E+00  0.0000E+00
