 1 - depth, m
 2 - temperature, C
 3 - salinity, kg/kg
 4 - turbulent kinetic energy, m**2/s**2
 5 - dissipation rate, m**2/s**3
 6 - kinematic heat conductance, m**2/s
 7 - modulus of horizontal velocity, m/s
 8 - Richardson number, n/d
   -0.000000    0.00000  0.0000E+00  0.1219E-13  0.7604E-17  0.1000E-09  0.0000E+00  0.1499E+17
   -0.068733    0.23201  0.0000E+00  0.3260E-13  0.7604E-17  0.1000E-09  0.0000E+00  0.1373E+17
   -0.137466    0.45883  0.0000E+00  0.1021E-12  0.1016E-16  0.1000E-09  0.0000E+00  0.1253E+17
   -0.206200    0.68029  0.0000E+00  0.2381E-12  0.1883E-16  0.1000E-09  0.0000E+00  0.1140E+17
   -0.274934    0.89633  0.0000E+00  0.4970E-12  0.3652E-16  0.1000E-09  0.0000E+00  0.1037E+17
   -0.343669    1.10763  0.0000E+00  0.9924E-12  0.7043E-16  0.1000E-09  0.0000E+00  0.9399E+16
   -0.412405    1.31433  0.0000E+00  0.1944E-11  0.1346E-15  0.1000E-09  0.0000E+00  0.8487E+16
   -0.481141    1.51650  0.0000E+00  0.3768E-11  0.2550E-15  0.1000E-09  0.0000E+00  0.7623E+16
   -0.549877    1.71403  0.0000E+00  0.7257E-11  0.4807E-15  0.1000E-09  0.0000E+00  0.6795E+16
   -0.618614    1.90652  0.0000E+00  0.1389E-10  0.9010E-15  0.1000E-09  0.0000E+00  0.6019E+16
   -0.687351    2.09392  0.0000E+00  0.2644E-10  0.1679E-14  0.1000E-09  0.0000E+00  0.5356E+16
   -0.756089    2.27846  0.0000E+00  0.5000E-10  0.3111E-14  0.1000E-09  0.0000E+00  0.4757E+16
   -0.824827    2.46154  0.0000E+00  0.9402E-10  0.5731E-14  0.1000E-09  0.0000E+00  0.4175E+16
   -0.893565    2.64319  0.0000E+00  0.1758E-09  0.1050E-13  0.1000E-09  0.0000E+00  0.3609E+16
   -0.962303    2.82339  0.0000E+00  0.3268E-09  0.1913E-13  0.1000E-09  0.0000E+00  0.3057E+16
   -1.031042    3.00210  0.0000E+00  0.6035E-09  0.3463E-13  0.1000E-09  0.0000E+00  0.2520E+16
   -1.099781    3.17920  0.0000E+00  0.1107E-08  0.6228E-13  0.1587E-09  0.0000E+00  0.1998E+16
   -1.168520    3.35447  0.0000E+00  0.2018E-08  0.1114E-12  0.3801E-09  0.0000E+00  0.1491E+16
   -1.237259    3.52752  0.0000E+00  0.3658E-08  0.1980E-12  0.1006E-08  0.0000E+00  0.1002E+16
   -1.305998    3.69767  0.0000E+00  0.6587E-08  0.3498E-12  0.3329E-08  0.0000E+00  0.5348E+15
   -1.374737    3.86275  0.0000E+00  0.1166E-07  0.6085E-12  0.2636E-07  0.0000E+00  0.1174E+15
   -1.443476    4.00337  0.0000E+00  0.1205E-07  0.6301E-12  0.8700E-04  0.0000E+00 -0.5929E+11
   -1.512215    4.00359  0.0000E+00  0.1223E-07  0.6420E-12  0.8507E-04  0.0000E+00 -0.7255E+11
   -1.580954    4.00385  0.0000E+00  0.1240E-07  0.6550E-12  0.8659E-04  0.0000E+00 -0.7453E+11
   -1.649693    4.00412  0.0000E+00  0.1254E-07  0.6692E-12  0.8778E-04  0.0000E+00 -0.7565E+11
   -1.718432    4.00439  0.0000E+00  0.1267E-07  0.6847E-12  0.8850E-04  0.0000E+00 -0.7691E+11
   -1.787171    4.00466  0.0000E+00  0.1279E-07  0.7015E-12  0.8934E-04  0.0000E+00 -0.7796E+11
   -1.855909    4.00493  0.0000E+00  0.1288E-07  0.7200E-12  0.8914E-04  0.0000E+00 -0.7997E+11
   -1.924647    4.00520  0.0000E+00  0.1296E-07  0.7410E-12  0.8804E-04  0.0000E+00 -0.8290E+11
   -1.993385    4.00548  0.0000E+00  0.1302E-07  0.7656E-12  0.8562E-04  0.0000E+00 -0.8738E+11
   -2.062123    4.00577  0.0000E+00  0.1306E-07  0.7954E-12  0.8171E-04  0.0000E+00 -0.9334E+11
   -2.130860    4.00607  0.0000E+00  0.1307E-07  0.8321E-12  0.7488E-04  0.0000E+00 -0.1038E+12
   -2.199597    4.00641  0.0000E+00  0.1306E-07  0.8776E-12  0.6695E-04  0.0000E+00 -0.1184E+12
   -2.268333    4.00678  0.0000E+00  0.1302E-07  0.9353E-12  0.5967E-04  0.0000E+00 -0.1363E+12
   -2.337069    4.00720  0.0000E+00  0.1293E-07  0.1013E-11  0.5232E-04  0.0000E+00 -0.1602E+12
   -2.405805    4.00768  0.0000E+00  0.1278E-07  0.1125E-11  0.4412E-04  0.0000E+00 -0.1970E+12
   -2.474540    4.00826  0.0000E+00  0.1253E-07  0.1298E-11  0.3474E-04  0.0000E+00 -0.2623E+12
   -2.543274    4.00901  0.0000E+00  0.1212E-07  0.1615E-11  0.2401E-04  0.0000E+00 -0.4077E+12
   -2.612008    4.01013  0.0000E+00  0.1127E-07  0.2411E-11  0.1208E-04  0.0000E+00 -0.9231E+12
   -2.680742    4.01249  0.0000E+00  0.7580E-08  0.7869E-11  0.1285E-05  0.0000E+00 -0.1461E+14
   -2.749474    4.03682  0.0000E+00  0.0000E+00  0.0000E+00  0.0000E+00  0.0000E+00  0.0000E+00
