 1 - depth, m
 2 - temperature, C
 3 - salinity, kg/kg
 4 - turbulent kinetic energy, m**2/s**2
 5 - dissipation rate, m**2/s**3
 6 - kinematic heat conductance, m**2/s
 7 - modulus of horizontal velocity, m/s
 8 - Richardson number, n/d
   -0.000000    0.00000  0.0000E+00  0.1219E-13  0.7603E-17  0.1000E-09  0.0000E+00  0.1055E+17
   -0.068732    0.16181  0.0000E+00  0.1219E-13  0.7603E-17  0.1000E-09  0.0000E+00  0.9682E+16
   -0.137464    0.31697  0.0000E+00  0.1219E-13  0.7603E-17  0.1000E-09  0.0000E+00  0.8847E+16
   -0.206197    0.46511  0.0000E+00  0.1219E-13  0.7603E-17  0.1000E-09  0.0000E+00  0.8044E+16
   -0.274930    0.60578  0.0000E+00  0.1219E-13  0.7603E-17  0.1000E-09  0.0000E+00  0.7351E+16
   -0.343664    0.73997  0.0000E+00  0.1219E-13  0.7603E-17  0.1000E-09  0.0000E+00  0.6703E+16
   -0.412399    0.86765  0.0000E+00  0.1219E-13  0.7603E-17  0.1000E-09  0.0000E+00  0.6091E+16
   -0.481134    0.98865  0.0000E+00  0.1219E-13  0.7603E-17  0.1000E-09  0.0000E+00  0.5507E+16
   -0.549869    1.10263  0.0000E+00  0.1219E-13  0.7603E-17  0.1000E-09  0.0000E+00  0.4924E+16
   -0.618605    1.20871  0.0000E+00  0.1219E-13  0.7603E-17  0.1000E-09  0.0000E+00  0.4388E+16
   -0.687341    1.30693  0.0000E+00  0.1219E-13  0.7603E-17  0.1000E-09  0.0000E+00  0.4026E+16
   -0.756078    1.40050  0.0000E+00  0.1219E-13  0.7603E-17  0.1000E-09  0.0000E+00  0.3777E+16
   -0.824815    1.49162  0.0000E+00  0.1219E-13  0.7603E-17  0.1000E-09  0.0000E+00  0.3558E+16
   -0.893552    1.58072  0.0000E+00  0.1219E-13  0.7603E-17  0.1000E-09  0.0000E+00  0.3364E+16
   -0.962290    1.66826  0.0000E+00  0.1219E-13  0.7603E-17  0.1000E-09  0.0000E+00  0.3193E+16
   -1.031027    1.75466  0.0000E+00  0.1219E-13  0.7603E-17  0.1000E-09  0.0000E+00  0.3056E+16
   -1.099765    1.84072  0.0000E+00  0.1219E-13  0.7603E-17  0.1000E-09  0.0000E+00  0.2933E+16
   -1.168503    1.92682  0.0000E+00  0.1219E-13  0.7603E-17  0.1000E-09  0.0000E+00  0.2819E+16
   -1.237241    2.01323  0.0000E+00  0.1219E-13  0.7603E-17  0.1000E-09  0.0000E+00  0.2709E+16
   -1.305979    2.10011  0.0000E+00  0.1219E-13  0.7603E-17  0.1000E-09  0.0000E+00  0.2599E+16
   -1.374717    2.18752  0.0000E+00  0.1219E-13  0.7603E-17  0.1000E-09  0.0000E+00  0.2533E+16
   -1.443455    2.27715  0.0000E+00  0.1219E-13  0.7603E-17  0.1000E-09  0.0000E+00  0.2470E+16
   -1.512194    2.36949  0.0000E+00  0.1219E-13  0.7603E-17  0.1000E-09  0.0000E+00  0.2396E+16
   -1.580932    2.46456  0.0000E+00  0.1219E-13  0.7603E-17  0.1000E-09  0.0000E+00  0.2307E+16
   -1.649669    2.56224  0.0000E+00  0.1219E-13  0.7603E-17  0.1000E-09  0.0000E+00  0.2201E+16
   -1.718407    2.66226  0.0000E+00  0.1219E-13  0.7603E-17  0.1000E-09  0.0000E+00  0.2076E+16
   -1.787145    2.76428  0.0000E+00  0.1219E-13  0.7603E-17  0.1000E-09  0.0000E+00  0.1935E+16
   -1.855882    2.86792  0.0000E+00  0.1219E-13  0.7603E-17  0.1000E-09  0.0000E+00  0.1780E+16
   -1.924620    2.97275  0.0000E+00  0.1219E-13  0.7603E-17  0.1000E-09  0.0000E+00  0.1614E+16
   -1.993356    3.07834  0.0000E+00  0.1219E-13  0.7603E-17  0.1000E-09  0.0000E+00  0.1438E+16
   -2.062093    3.18427  0.0000E+00  0.2538E-13  0.1374E-16  0.1000E-09  0.0000E+00  0.1272E+16
   -2.130829    3.29145  0.0000E+00  0.1285E-12  0.6554E-16  0.1000E-09  0.0000E+00  0.1099E+16
   -2.199565    3.39989  0.0000E+00  0.6639E-12  0.3248E-15  0.1000E-09  0.0000E+00  0.9210E+15
   -2.268301    3.50957  0.0000E+00  0.3384E-11  0.1590E-14  0.1000E-09  0.0000E+00  0.7486E+15
   -2.337036    3.62253  0.0000E+00  0.1713E-10  0.7737E-14  0.1000E-09  0.0000E+00  0.5663E+15
   -2.405770    3.74057  0.0000E+00  0.8542E-10  0.3717E-13  0.5138E-09  0.0000E+00  0.3597E+15
   -2.474504    3.86551  0.0000E+00  0.4198E-09  0.1766E-12  0.7407E-08  0.0000E+00  0.1138E+15
   -2.543238    3.99541  0.0000E+00  0.1777E-08  0.7449E-12  0.1253E-05  0.0000E+00 -0.4381E+13
   -2.611971    4.01171  0.0000E+00  0.3035E-08  0.1935E-11  0.1456E-05  0.0000E+00 -0.1038E+14
   -2.680703    4.03071  0.0000E+00  0.4576E-08  0.6756E-11  0.9559E-06  0.0000E+00 -0.5599E+14
   -2.749435    4.08184  0.0000E+00  0.0000E+00  0.0000E+00  0.0000E+00  0.0000E+00  0.0000E+00
