 1 - depth, m
 2 - temperature, C
 3 - salinity, kg/kg
 4 - turbulent kinetic energy, m**2/s**2
 5 - dissipation rate, m**2/s**3
 6 - kinematic heat conductance, m**2/s
 7 - modulus of horizontal velocity, m/s
 8 - Richardson number, n/d
   -0.000000    0.00000  0.0000E+00  0.1219E-13  0.7604E-17  0.1000E-09  0.0000E+00  0.1380E+17
   -0.068786    0.21301  0.0000E+00  0.1219E-13  0.7604E-17  0.1000E-09  0.0000E+00  0.1260E+17
   -0.137573    0.41942  0.0000E+00  0.5686E-13  0.7695E-17  0.1000E-09  0.0000E+00  0.1149E+17
   -0.206360    0.61940  0.0000E+00  0.1516E-12  0.1404E-16  0.1000E-09  0.0000E+00  0.1047E+17
   -0.275148    0.81317  0.0000E+00  0.3374E-12  0.2821E-16  0.1000E-09  0.0000E+00  0.9599E+16
   -0.343937    1.00251  0.0000E+00  0.7049E-12  0.5660E-16  0.1000E-09  0.0000E+00  0.8804E+16
   -0.412726    1.18802  0.0000E+00  0.1437E-11  0.1124E-15  0.1000E-09  0.0000E+00  0.8063E+16
   -0.481516    1.37001  0.0000E+00  0.2895E-11  0.2213E-15  0.1000E-09  0.0000E+00  0.7361E+16
   -0.550306    1.54854  0.0000E+00  0.5791E-11  0.4330E-15  0.1000E-09  0.0000E+00  0.6672E+16
   -0.619096    1.72301  0.0000E+00  0.1151E-10  0.8426E-15  0.1000E-09  0.0000E+00  0.6031E+16
   -0.687887    1.89369  0.0000E+00  0.2274E-10  0.1630E-14  0.1000E-09  0.0000E+00  0.5542E+16
   -0.756678    2.06436  0.0000E+00  0.4464E-10  0.3133E-14  0.1000E-09  0.0000E+00  0.5132E+16
   -0.825469    2.23770  0.0000E+00  0.8711E-10  0.5990E-14  0.1000E-09  0.0000E+00  0.4722E+16
   -0.894261    2.41449  0.0000E+00  0.1690E-09  0.1139E-13  0.1000E-09  0.0000E+00  0.4303E+16
   -0.963053    2.59561  0.0000E+00  0.3260E-09  0.2153E-13  0.1000E-09  0.0000E+00  0.3867E+16
   -1.031845    2.78199  0.0000E+00  0.6247E-09  0.4043E-13  0.1000E-09  0.0000E+00  0.3403E+16
   -1.100637    2.97462  0.0000E+00  0.1189E-08  0.7545E-13  0.1329E-09  0.0000E+00  0.2891E+16
   -1.169430    3.17407  0.0000E+00  0.2249E-08  0.1400E-12  0.3078E-09  0.0000E+00  0.2316E+16
   -1.238222    3.38023  0.0000E+00  0.4231E-08  0.2583E-12  0.7865E-09  0.0000E+00  0.1673E+16
   -1.307015    3.59206  0.0000E+00  0.7909E-08  0.4739E-12  0.2494E-08  0.0000E+00  0.9685E+15
   -1.375808    3.80635  0.0000E+00  0.1459E-07  0.8589E-12  0.1740E-07  0.0000E+00  0.2519E+15
   -1.444600    4.00343  0.0000E+00  0.1507E-07  0.8890E-12  0.9489E-04  0.0000E+00 -0.7641E+11
   -1.513393    4.00372  0.0000E+00  0.1531E-07  0.9068E-12  0.9251E-04  0.0000E+00 -0.9057E+11
   -1.582186    4.00405  0.0000E+00  0.1554E-07  0.9276E-12  0.9419E-04  0.0000E+00 -0.9378E+11
   -1.650978    4.00438  0.0000E+00  0.1574E-07  0.9493E-12  0.9740E-04  0.0000E+00 -0.9409E+11
   -1.719770    4.00471  0.0000E+00  0.1591E-07  0.9717E-12  0.9925E-04  0.0000E+00 -0.9541E+11
   -1.788563    4.00504  0.0000E+00  0.1605E-07  0.9961E-12  0.1003E-03  0.0000E+00 -0.9749E+11
   -1.857355    4.00537  0.0000E+00  0.1618E-07  0.1023E-11  0.9986E-04  0.0000E+00 -0.1011E+12
   -1.926146    4.00570  0.0000E+00  0.1628E-07  0.1052E-11  0.9880E-04  0.0000E+00 -0.1055E+12
   -1.994938    4.00605  0.0000E+00  0.1636E-07  0.1085E-11  0.9717E-04  0.0000E+00 -0.1111E+12
   -2.063729    4.00641  0.0000E+00  0.1642E-07  0.1123E-11  0.9465E-04  0.0000E+00 -0.1168E+12
   -2.132520    4.00677  0.0000E+00  0.1646E-07  0.1171E-11  0.9123E-04  0.0000E+00 -0.1239E+12
   -2.201310    4.00716  0.0000E+00  0.1647E-07  0.1234E-11  0.8313E-04  0.0000E+00 -0.1393E+12
   -2.270100    4.00758  0.0000E+00  0.1644E-07  0.1315E-11  0.7196E-04  0.0000E+00 -0.1653E+12
   -2.338890    4.00807  0.0000E+00  0.1635E-07  0.1424E-11  0.6165E-04  0.0000E+00 -0.1990E+12
   -2.407679    4.00865  0.0000E+00  0.1618E-07  0.1581E-11  0.5170E-04  0.0000E+00 -0.2463E+12
   -2.476467    4.00934  0.0000E+00  0.1590E-07  0.1823E-11  0.4081E-04  0.0000E+00 -0.3269E+12
   -2.545255    4.01023  0.0000E+00  0.1542E-07  0.2261E-11  0.2834E-04  0.0000E+00 -0.5024E+12
   -2.614043    4.01153  0.0000E+00  0.1440E-07  0.3350E-11  0.1441E-04  0.0000E+00 -0.1107E+13
   -2.682829    4.01420  0.0000E+00  0.9814E-08  0.1095E-10  0.1539E-05  0.0000E+00 -0.1665E+14
   -2.751616    4.04021  0.0000E+00  0.0000E+00  0.0000E+00  0.0000E+00  0.0000E+00  0.0000E+00
