 1 - depth, m
 2 - temperature, C
 3 - salinity, kg/kg
 4 - turbulent kinetic energy, m**2/s**2
 5 - dissipation rate, m**2/s**3
 6 - kinematic heat conductance, m**2/s
 7 - modulus of horizontal velocity, m/s
 8 - Richardson number, n/d
   -0.000000    0.00000  0.0000E+00  0.4597E-08  0.7904E-11  0.5315E-09  0.0000E+00  0.7562E+17
   -0.068733    1.38880  0.0000E+00  0.5355E-07  0.7538E-11  0.9127E-09  0.0000E+00  0.4209E+17
   -0.137467    2.74416  0.0000E+00  0.1526E-06  0.1342E-10  0.5608E-08  0.0000E+00  0.1223E+17
   -0.206201    4.03468  0.0000E+00  0.1537E-06  0.1350E-10  0.5739E-03  0.0000E+00 -0.2458E+12
   -0.274936    4.03500  0.0000E+00  0.1541E-06  0.1355E-10  0.5654E-03  0.0000E+00 -0.2419E+12
   -0.343672    4.03532  0.0000E+00  0.1546E-06  0.1360E-10  0.5666E-03  0.0000E+00 -0.2365E+12
   -0.412408    4.03563  0.0000E+00  0.1549E-06  0.1365E-10  0.5674E-03  0.0000E+00 -0.2323E+12
   -0.481144    4.03593  0.0000E+00  0.1552E-06  0.1371E-10  0.5677E-03  0.0000E+00 -0.2289E+12
   -0.549881    4.03622  0.0000E+00  0.1555E-06  0.1377E-10  0.5673E-03  0.0000E+00 -0.2264E+12
   -0.618618    4.03651  0.0000E+00  0.1557E-06  0.1384E-10  0.5664E-03  0.0000E+00 -0.2246E+12
   -0.687356    4.03680  0.0000E+00  0.1559E-06  0.1392E-10  0.5650E-03  0.0000E+00 -0.2233E+12
   -0.756094    4.03708  0.0000E+00  0.1560E-06  0.1401E-10  0.5629E-03  0.0000E+00 -0.2224E+12
   -0.824832    4.03736  0.0000E+00  0.1561E-06  0.1411E-10  0.5603E-03  0.0000E+00 -0.2221E+12
   -0.893571    4.03763  0.0000E+00  0.1562E-06  0.1422E-10  0.5570E-03  0.0000E+00 -0.2223E+12
   -0.962310    4.03791  0.0000E+00  0.1562E-06  0.1433E-10  0.5532E-03  0.0000E+00 -0.2231E+12
   -1.031049    4.03819  0.0000E+00  0.1562E-06  0.1446E-10  0.5487E-03  0.0000E+00 -0.2243E+12
   -1.099788    4.03846  0.0000E+00  0.1561E-06  0.1460E-10  0.5436E-03  0.0000E+00 -0.2261E+12
   -1.168528    4.03874  0.0000E+00  0.1560E-06  0.1476E-10  0.5380E-03  0.0000E+00 -0.2283E+12
   -1.237267    4.03901  0.0000E+00  0.1559E-06  0.1493E-10  0.5317E-03  0.0000E+00 -0.2310E+12
   -1.306007    4.03929  0.0000E+00  0.1557E-06  0.1512E-10  0.5248E-03  0.0000E+00 -0.2342E+12
   -1.374746    4.03958  0.0000E+00  0.1555E-06  0.1532E-10  0.5173E-03  0.0000E+00 -0.2378E+12
   -1.443486    4.03986  0.0000E+00  0.1553E-06  0.1555E-10  0.5092E-03  0.0000E+00 -0.2419E+12
   -1.512226    4.04015  0.0000E+00  0.1550E-06  0.1579E-10  0.5004E-03  0.0000E+00 -0.2467E+12
   -1.580965    4.04044  0.0000E+00  0.1547E-06  0.1607E-10  0.4907E-03  0.0000E+00 -0.2521E+12
   -1.649704    4.04074  0.0000E+00  0.1543E-06  0.1638E-10  0.4803E-03  0.0000E+00 -0.2584E+12
   -1.718444    4.04104  0.0000E+00  0.1539E-06  0.1673E-10  0.4690E-03  0.0000E+00 -0.2655E+12
   -1.787183    4.04135  0.0000E+00  0.1534E-06  0.1712E-10  0.4568E-03  0.0000E+00 -0.2737E+12
   -1.855922    4.04166  0.0000E+00  0.1529E-06  0.1757E-10  0.4437E-03  0.0000E+00 -0.2829E+12
   -1.924660    4.04199  0.0000E+00  0.1523E-06  0.1809E-10  0.4295E-03  0.0000E+00 -0.2937E+12
   -1.993399    4.04233  0.0000E+00  0.1517E-06  0.1867E-10  0.4143E-03  0.0000E+00 -0.3060E+12
   -2.062137    4.04267  0.0000E+00  0.1510E-06  0.1936E-10  0.3980E-03  0.0000E+00 -0.3202E+12
   -2.130874    4.04304  0.0000E+00  0.1502E-06  0.2016E-10  0.3804E-03  0.0000E+00 -0.3368E+12
   -2.199612    4.04341  0.0000E+00  0.1493E-06  0.2110E-10  0.3616E-03  0.0000E+00 -0.3565E+12
   -2.268349    4.04381  0.0000E+00  0.1483E-06  0.2225E-10  0.3410E-03  0.0000E+00 -0.3805E+12
   -2.337085    4.04423  0.0000E+00  0.1472E-06  0.2373E-10  0.3176E-03  0.0000E+00 -0.4115E+12
   -2.405821    4.04468  0.0000E+00  0.1459E-06  0.2569E-10  0.2934E-03  0.0000E+00 -0.4490E+12
   -2.474557    4.04517  0.0000E+00  0.1440E-06  0.2894E-10  0.2280E-03  0.0000E+00 -0.5832E+12
   -2.543292    4.04580  0.0000E+00  0.1405E-06  0.3597E-10  0.1201E-03  0.0000E+00 -0.1127E+13
   -2.612026    4.04700  0.0000E+00  0.1333E-06  0.5419E-10  0.5931E-04  0.0000E+00 -0.2362E+13
   -2.680760    4.04944  0.0000E+00  0.8230E-07  0.2434E-09  0.3810E-05  0.0000E+00 -0.4787E+14
   -2.749493    4.08683  0.0000E+00  0.0000E+00  0.0000E+00  0.0000E+00  0.0000E+00  0.0000E+00
