 1 - depth, m
 2 - temperature, C
 3 - salinity, kg/kg
 4 - turbulent kinetic energy, m**2/s**2
 5 - dissipation rate, m**2/s**3
 6 - kinematic heat conductance, m**2/s
 7 - modulus of horizontal velocity, m/s
 8 - Richardson number, n/d
   -0.000000    0.00000  0.0000E+00  0.2906E-09  0.2521E-12  0.1000E-09  0.0000E+00  0.4452E+17
   -0.068773    0.74083  0.0000E+00  0.1887E-08  0.2626E-12  0.1000E-09  0.0000E+00  0.3258E+17
   -0.137546    1.42393  0.0000E+00  0.5189E-08  0.4914E-12  0.1083E-09  0.0000E+00  0.2310E+17
   -0.206321    2.05703  0.0000E+00  0.1170E-07  0.1003E-11  0.3295E-09  0.0000E+00  0.1550E+17
   -0.275095    2.64672  0.0000E+00  0.2472E-07  0.2039E-11  0.1108E-08  0.0000E+00  0.9368E+16
   -0.343871    3.19965  0.0000E+00  0.5079E-07  0.4084E-11  0.4835E-08  0.0000E+00  0.4309E+16
   -0.412647    3.71524  0.0000E+00  0.9929E-07  0.7844E-11  0.7640E-07  0.0000E+00  0.5420E+15
   -0.481423    4.05633  0.0000E+00  0.1001E-06  0.7909E-11  0.4273E-03  0.0000E+00 -0.1819E+12
   -0.550200    4.05649  0.0000E+00  0.1004E-06  0.7946E-11  0.4191E-03  0.0000E+00 -0.1836E+12
   -0.618977    4.05666  0.0000E+00  0.1007E-06  0.7986E-11  0.4193E-03  0.0000E+00 -0.1812E+12
   -0.687754    4.05682  0.0000E+00  0.1010E-06  0.8032E-11  0.4196E-03  0.0000E+00 -0.1798E+12
   -0.756532    4.05699  0.0000E+00  0.1013E-06  0.8082E-11  0.4193E-03  0.0000E+00 -0.1792E+12
   -0.825310    4.05715  0.0000E+00  0.1015E-06  0.8138E-11  0.4186E-03  0.0000E+00 -0.1790E+12
   -0.894089    4.05731  0.0000E+00  0.1017E-06  0.8200E-11  0.4174E-03  0.0000E+00 -0.1793E+12
   -0.962868    4.05747  0.0000E+00  0.1019E-06  0.8268E-11  0.4156E-03  0.0000E+00 -0.1800E+12
   -1.031647    4.05763  0.0000E+00  0.1020E-06  0.8343E-11  0.4134E-03  0.0000E+00 -0.1812E+12
   -1.100426    4.05779  0.0000E+00  0.1021E-06  0.8425E-11  0.4107E-03  0.0000E+00 -0.1827E+12
   -1.169205    4.05796  0.0000E+00  0.1022E-06  0.8515E-11  0.4074E-03  0.0000E+00 -0.1847E+12
   -1.237984    4.05812  0.0000E+00  0.1023E-06  0.8614E-11  0.4037E-03  0.0000E+00 -0.1871E+12
   -1.306764    4.05829  0.0000E+00  0.1023E-06  0.8721E-11  0.3994E-03  0.0000E+00 -0.1900E+12
   -1.375543    4.05846  0.0000E+00  0.1023E-06  0.8839E-11  0.3946E-03  0.0000E+00 -0.1931E+12
   -1.444323    4.05863  0.0000E+00  0.1022E-06  0.8969E-11  0.3893E-03  0.0000E+00 -0.1965E+12
   -1.513102    4.05880  0.0000E+00  0.1022E-06  0.9111E-11  0.3835E-03  0.0000E+00 -0.2003E+12
   -1.581881    4.05898  0.0000E+00  0.1021E-06  0.9270E-11  0.3769E-03  0.0000E+00 -0.2047E+12
   -1.650661    4.05916  0.0000E+00  0.1019E-06  0.9447E-11  0.3697E-03  0.0000E+00 -0.2098E+12
   -1.719440    4.05934  0.0000E+00  0.1017E-06  0.9647E-11  0.3618E-03  0.0000E+00 -0.2155E+12
   -1.788219    4.05953  0.0000E+00  0.1015E-06  0.9871E-11  0.3532E-03  0.0000E+00 -0.2222E+12
   -1.856997    4.05972  0.0000E+00  0.1013E-06  0.1013E-10  0.3437E-03  0.0000E+00 -0.2297E+12
   -1.925776    4.05992  0.0000E+00  0.1010E-06  0.1042E-10  0.3335E-03  0.0000E+00 -0.2385E+12
   -1.994554    4.06013  0.0000E+00  0.1006E-06  0.1075E-10  0.3223E-03  0.0000E+00 -0.2487E+12
   -2.063332    4.06035  0.0000E+00  0.1002E-06  0.1114E-10  0.3102E-03  0.0000E+00 -0.2600E+12
   -2.132109    4.06057  0.0000E+00  0.9971E-07  0.1159E-10  0.2970E-03  0.0000E+00 -0.2733E+12
   -2.200887    4.06080  0.0000E+00  0.9918E-07  0.1212E-10  0.2828E-03  0.0000E+00 -0.2892E+12
   -2.269663    4.06105  0.0000E+00  0.9857E-07  0.1277E-10  0.2671E-03  0.0000E+00 -0.3084E+12
   -2.338440    4.06132  0.0000E+00  0.9785E-07  0.1360E-10  0.2491E-03  0.0000E+00 -0.3335E+12
   -2.407215    4.06160  0.0000E+00  0.9698E-07  0.1471E-10  0.2304E-03  0.0000E+00 -0.3638E+12
   -2.475991    4.06191  0.0000E+00  0.9566E-07  0.1658E-10  0.1609E-03  0.0000E+00 -0.5268E+12
   -2.544766    4.06235  0.0000E+00  0.9319E-07  0.2067E-10  0.9377E-04  0.0000E+00 -0.9201E+12
   -2.613540    4.06312  0.0000E+00  0.8822E-07  0.3100E-10  0.4713E-04  0.0000E+00 -0.1891E+13
   -2.682313    4.06468  0.0000E+00  0.5488E-07  0.1328E-09  0.3128E-05  0.0000E+00 -0.3348E+14
   -2.751086    4.08841  0.0000E+00  0.0000E+00  0.0000E+00  0.0000E+00  0.0000E+00  0.0000E+00
