 1 - depth, m
 2 - temperature, C
 3 - salinity, kg/kg
 4 - turbulent kinetic energy, m**2/s**2
 5 - dissipation rate, m**2/s**3
 6 - kinematic heat conductance, m**2/s
 7 - modulus of horizontal velocity, m/s
 8 - Richardson number, n/d
   -0.000000    9.03705  0.0000E+00  0.1445E-04  0.6527E-06  0.3445E-04  0.2037E-01 -0.3971E-01
   -0.068768    9.07843  0.0000E+00  0.1208E-04  0.2252E-06  0.8064E-04  0.1147E-01 -0.1320E+00
   -0.137536    9.09527  0.0000E+00  0.1061E-04  0.1186E-06  0.1500E-03  0.8062E-02  0.1643E+03
   -0.206305    9.10501  0.0000E+00  0.9643E-05  0.7466E-07  0.2424E-03  0.6163E-02  0.4122E+02
   -0.275075    9.11133  0.0000E+00  0.9024E-05  0.5268E-07  0.3324E-03  0.4991E-02  0.5673E+02
   -0.343845    9.11579  0.0000E+00  0.8603E-05  0.4001E-07  0.4356E-03  0.4179E-02  0.2571E+02
   -0.412616    9.11902  0.0000E+00  0.8318E-05  0.3218E-07  0.6107E-03  0.3586E-02  0.9389E+02
   -0.481387    9.12104  0.0000E+00  0.8149E-05  0.2737E-07  0.8316E-03  0.3152E-02  0.3499E+01
   -0.550158    9.12241  0.0000E+00  0.8049E-05  0.2394E-07  0.9089E-03  0.2838E-02  0.3204E+01
   -0.618930    9.12364  0.0000E+00  0.7970E-05  0.2114E-07  0.9990E-03  0.2537E-02  0.3084E+01
   -0.687703    9.12473  0.0000E+00  0.7914E-05  0.1890E-07  0.1089E-02  0.2275E-02  0.2860E+01
   -0.756476    9.12571  0.0000E+00  0.7870E-05  0.1708E-07  0.1176E-02  0.2043E-02  0.2671E+01
   -0.825249    9.12661  0.0000E+00  0.7834E-05  0.1559E-07  0.1255E-02  0.1836E-02  0.2489E+01
   -0.894022    9.12743  0.0000E+00  0.7802E-05  0.1435E-07  0.1330E-02  0.1653E-02  0.2321E+01
   -0.962796    9.12820  0.0000E+00  0.7772E-05  0.1332E-07  0.1404E-02  0.1490E-02  0.2163E+01
   -1.031569    9.12891  0.0000E+00  0.7742E-05  0.1245E-07  0.1468E-02  0.1347E-02  0.2096E+01
   -1.100343    9.12959  0.0000E+00  0.7708E-05  0.1172E-07  0.1528E-02  0.1216E-02  0.2029E+01
   -1.169117    9.13022  0.0000E+00  0.7670E-05  0.1110E-07  0.1584E-02  0.1097E-02  0.1961E+01
   -1.237892    9.13082  0.0000E+00  0.7627E-05  0.1058E-07  0.1636E-02  0.9881E-03  0.1894E+01
   -1.306666    9.13140  0.0000E+00  0.7578E-05  0.1015E-07  0.1683E-02  0.8890E-03  0.1827E+01
   -1.375440    9.13194  0.0000E+00  0.7523E-05  0.9785E-08  0.1725E-02  0.7983E-03  0.1763E+01
   -1.444214    9.13247  0.0000E+00  0.7461E-05  0.9488E-08  0.1762E-02  0.7154E-03  0.1701E+01
   -1.512989    9.13297  0.0000E+00  0.7394E-05  0.9251E-08  0.1798E-02  0.6393E-03  0.1604E+01
   -1.581763    9.13346  0.0000E+00  0.7323E-05  0.9070E-08  0.1820E-02  0.5716E-03  0.1502E+01
   -1.650537    9.13393  0.0000E+00  0.7248E-05  0.8941E-08  0.1814E-02  0.5122E-03  0.1414E+01
   -1.719311    9.13439  0.0000E+00  0.7170E-05  0.8859E-08  0.1790E-02  0.4603E-03  0.1336E+01
   -1.788085    9.13486  0.0000E+00  0.7092E-05  0.8823E-08  0.1758E-02  0.4148E-03  0.1279E+01
   -1.856858    9.13533  0.0000E+00  0.7012E-05  0.8830E-08  0.1718E-02  0.3751E-03  0.1240E+01
   -1.925631    9.13580  0.0000E+00  0.6932E-05  0.8880E-08  0.1671E-02  0.3401E-03  0.1238E+01
   -1.994405    9.13628  0.0000E+00  0.6852E-05  0.8973E-08  0.1617E-02  0.3092E-03  0.1271E+01
   -2.063177    9.13677  0.0000E+00  0.6771E-05  0.9114E-08  0.1559E-02  0.2816E-03  0.1359E+01
   -2.131950    9.13726  0.0000E+00  0.6688E-05  0.9311E-08  0.1496E-02  0.2567E-03  0.1529E+01
   -2.200722    9.13777  0.0000E+00  0.6601E-05  0.9583E-08  0.1424E-02  0.2334E-03  0.1874E+01
   -2.269493    9.13830  0.0000E+00  0.6506E-05  0.9961E-08  0.1337E-02  0.2106E-03  0.2367E+01
   -2.338264    9.13885  0.0000E+00  0.6397E-05  0.1051E-07  0.1233E-02  0.1884E-03  0.3227E+01
   -2.407035    9.13944  0.0000E+00  0.6272E-05  0.1131E-07  0.1111E-02  0.1669E-03  0.4753E+01
   -2.475805    9.14009  0.0000E+00  0.6123E-05  0.1257E-07  0.9696E-03  0.1457E-03  0.7808E+01
   -2.544575    9.14082  0.0000E+00  0.5931E-05  0.1474E-07  0.7809E-03  0.1247E-03  0.1533E+02
   -2.613344    9.14172  0.0000E+00  0.5647E-05  0.1934E-07  0.6207E-03  0.1037E-03  0.3814E+02
   -2.682112    9.14283  0.0000E+00  0.3619E-05  0.7239E-07  0.2651E-04  0.8500E-04 -0.3829E+04
   -2.750880    9.16847  0.0000E+00  0.0000E+00  0.0000E+00  0.0000E+00  0.8493E-04  0.0000E+00
