 1 - depth, m
 2 - temperature, C
 3 - salinity, kg/kg
 4 - turbulent kinetic energy, m**2/s**2
 5 - dissipation rate, m**2/s**3
 6 - kinematic heat conductance, m**2/s
 7 - modulus of horizontal velocity, m/s
 8 - Richardson number, n/d
   -0.000000    0.00000  0.0000E+00  0.1219E-13  0.7603E-17  0.1000E-09  0.0000E+00  0.1064E+17
   -0.068732    0.16319  0.0000E+00  0.1219E-13  0.7603E-17  0.1000E-09  0.0000E+00  0.1009E+17
   -0.137464    0.32510  0.0000E+00  0.1219E-13  0.7603E-17  0.1000E-09  0.0000E+00  0.9544E+16
   -0.206196    0.48559  0.0000E+00  0.1219E-13  0.7603E-17  0.1000E-09  0.0000E+00  0.9002E+16
   -0.274930    0.64444  0.0000E+00  0.1219E-13  0.7603E-17  0.1000E-09  0.0000E+00  0.8480E+16
   -0.343664    0.80176  0.0000E+00  0.1219E-13  0.7603E-17  0.1000E-09  0.0000E+00  0.7964E+16
   -0.412398    0.95735  0.0000E+00  0.1219E-13  0.7603E-17  0.1000E-09  0.0000E+00  0.7452E+16
   -0.481133    1.11097  0.0000E+00  0.1219E-13  0.7603E-17  0.1000E-09  0.0000E+00  0.6944E+16
   -0.549869    1.26229  0.0000E+00  0.1219E-13  0.7603E-17  0.1000E-09  0.0000E+00  0.6436E+16
   -0.618604    1.41085  0.0000E+00  0.1219E-13  0.7603E-17  0.1000E-09  0.0000E+00  0.5941E+16
   -0.687340    1.55639  0.0000E+00  0.1219E-13  0.7603E-17  0.1000E-09  0.0000E+00  0.5490E+16
   -0.756077    1.69946  0.0000E+00  0.1219E-13  0.7603E-17  0.1000E-09  0.0000E+00  0.5069E+16
   -0.824814    1.84035  0.0000E+00  0.1219E-13  0.7603E-17  0.1000E-09  0.0000E+00  0.4659E+16
   -0.893551    1.97886  0.0000E+00  0.1219E-13  0.7603E-17  0.1000E-09  0.0000E+00  0.4261E+16
   -0.962288    2.11482  0.0000E+00  0.1219E-13  0.7603E-17  0.1000E-09  0.0000E+00  0.3876E+16
   -1.031026    2.24800  0.0000E+00  0.1219E-13  0.7603E-17  0.1000E-09  0.0000E+00  0.3510E+16
   -1.099763    2.37839  0.0000E+00  0.1219E-13  0.7603E-17  0.1000E-09  0.0000E+00  0.3159E+16
   -1.168501    2.50578  0.0000E+00  0.1219E-13  0.7603E-17  0.1000E-09  0.0000E+00  0.2823E+16
   -1.237239    2.63000  0.0000E+00  0.1539E-13  0.7603E-17  0.1000E-09  0.0000E+00  0.2504E+16
   -1.305977    2.75083  0.0000E+00  0.6567E-13  0.9351E-17  0.1000E-09  0.0000E+00  0.2202E+16
   -1.374715    2.86808  0.0000E+00  0.1760E-12  0.1905E-16  0.1000E-09  0.0000E+00  0.1931E+16
   -1.443453    2.98232  0.0000E+00  0.4087E-12  0.4106E-16  0.1000E-09  0.0000E+00  0.1679E+16
   -1.512191    3.09364  0.0000E+00  0.9063E-12  0.8788E-16  0.1000E-09  0.0000E+00  0.1439E+16
   -1.580929    3.20174  0.0000E+00  0.1980E-11  0.1868E-15  0.1000E-09  0.0000E+00  0.1214E+16
   -1.649667    3.30635  0.0000E+00  0.4281E-11  0.3937E-15  0.1000E-09  0.0000E+00  0.1005E+16
   -1.718405    3.40720  0.0000E+00  0.9177E-11  0.8232E-15  0.1000E-09  0.0000E+00  0.8117E+15
   -1.787142    3.50403  0.0000E+00  0.1951E-10  0.1708E-14  0.1000E-09  0.0000E+00  0.6363E+15
   -1.855880    3.59654  0.0000E+00  0.4118E-10  0.3518E-14  0.1000E-09  0.0000E+00  0.4788E+15
   -1.924617    3.68445  0.0000E+00  0.8627E-10  0.7197E-14  0.1102E-09  0.0000E+00  0.3398E+15
   -1.993354    3.76742  0.0000E+00  0.1795E-09  0.1462E-13  0.3392E-09  0.0000E+00  0.2194E+15
   -2.062090    3.84496  0.0000E+00  0.3707E-09  0.2951E-13  0.1229E-08  0.0000E+00  0.1223E+15
   -2.130826    3.92001  0.0000E+00  0.7575E-09  0.5896E-13  0.8749E-08  0.0000E+00  0.3436E+14
   -2.199562    3.98987  0.0000E+00  0.1151E-08  0.8984E-13  0.4638E-05  0.0000E+00 -0.1548E+12
   -2.268297    3.99207  0.0000E+00  0.1371E-08  0.1134E-12  0.5701E-05  0.0000E+00 -0.1867E+12
   -2.337032    3.99387  0.0000E+00  0.1559E-08  0.1418E-12  0.6015E-05  0.0000E+00 -0.2286E+12
   -2.405767    3.99561  0.0000E+00  0.1716E-08  0.1791E-12  0.5723E-05  0.0000E+00 -0.2998E+12
   -2.474501    3.99748  0.0000E+00  0.1839E-08  0.2345E-12  0.4877E-05  0.0000E+00 -0.4410E+12
   -2.543234    3.99977  0.0000E+00  0.1916E-08  0.3352E-12  0.3523E-05  0.0000E+00 -0.8072E+12
   -2.611967    4.00317  0.0000E+00  0.1907E-08  0.5871E-12  0.1833E-05  0.0000E+00 -0.2372E+13
   -2.680699    4.01054  0.0000E+00  0.1723E-08  0.1700E-11  0.4753E-06  0.0000E+00 -0.2289E+14
   -2.749431    4.04556  0.0000E+00  0.0000E+00  0.0000E+00  0.0000E+00  0.0000E+00  0.0000E+00
