 1 - depth, m
 2 - temperature, C
 3 - salinity, kg/kg
 4 - turbulent kinetic energy, m**2/s**2
 5 - dissipation rate, m**2/s**3
 6 - kinematic heat conductance, m**2/s
 7 - modulus of horizontal velocity, m/s
 8 - Richardson number, n/d
   -0.000000    1.50930  0.0000E+00  0.1695E-03  0.7346E-04  0.1063E-03  0.1234E+00  0.7313E-02
   -0.068756    1.54544  0.0000E+00  0.8979E-04  0.1769E-04  0.1498E-03  0.4386E-01  0.7568E-02
   -0.137512    1.55292  0.0000E+00  0.6359E-04  0.7415E-05  0.1432E-03  0.3365E-01  0.6056E-02
   -0.206269    1.55867  0.0000E+00  0.4738E-04  0.3547E-05  0.1473E-03  0.2769E-01  0.9233E-02
   -0.275027    1.56343  0.0000E+00  0.3721E-04  0.1813E-05  0.1545E-03  0.2343E-01  0.1164E-01
   -0.343785    1.56754  0.0000E+00  0.3030E-04  0.9821E-06  0.1635E-03  0.1991E-01  0.1490E-01
   -0.412544    1.57115  0.0000E+00  0.2536E-04  0.5717E-06  0.1717E-03  0.1698E-01  0.1896E-01
   -0.481303    1.57437  0.0000E+00  0.2158E-04  0.3580E-06  0.1773E-03  0.1452E-01  0.2429E-01
   -0.550062    1.57731  0.0000E+00  0.1848E-04  0.2379E-06  0.1817E-03  0.1244E-01  0.3318E-01
   -0.618822    1.58003  0.0000E+00  0.1591E-04  0.1657E-06  0.1825E-03  0.1070E-01  0.4486E-01
   -0.687583    1.58260  0.0000E+00  0.1374E-04  0.1196E-06  0.1804E-03  0.9240E-02  0.6059E-01
   -0.756343    1.58509  0.0000E+00  0.1188E-04  0.8848E-07  0.1758E-03  0.7990E-02  0.8233E-01
   -0.825104    1.58753  0.0000E+00  0.1026E-04  0.6666E-07  0.1692E-03  0.6913E-02  0.1136E+00
   -0.893866    1.58997  0.0000E+00  0.8854E-05  0.5089E-07  0.1612E-03  0.5983E-02  0.1619E+00
   -0.962627    1.59247  0.0000E+00  0.7639E-05  0.3932E-07  0.1526E-03  0.5180E-02  0.2474E+00
   -1.031389    1.59505  0.0000E+00  0.6605E-05  0.3078E-07  0.1412E-03  0.4496E-02  0.3416E+00
   -1.100151    1.59788  0.0000E+00  0.5711E-05  0.2433E-07  0.1297E-03  0.3877E-02  0.4957E+00
   -1.168913    1.60114  0.0000E+00  0.4933E-05  0.1938E-07  0.1184E-03  0.3315E-02  0.7960E+00
   -1.237675    1.60528  0.0000E+00  0.4256E-05  0.1553E-07  0.1077E-03  0.2804E-02  0.1655E+01
   -1.306437    1.61219  0.0000E+00  0.3673E-05  0.1252E-07  0.9776E-04  0.2332E-02  0.9436E+01
   -1.375200    1.62675  0.0000E+00  0.3182E-05  0.1016E-07  0.8829E-04  0.1910E-02  0.1583E+03
   -1.443962    1.64573  0.0000E+00  0.2757E-05  0.8273E-08  0.7856E-04  0.1564E-02  0.3776E+04
   -1.512724    1.66667  0.0000E+00  0.2373E-05  0.6708E-08  0.7068E-04  0.1265E-02  0.1613E+06
   -1.581486    1.68656  0.0000E+00  0.2028E-05  0.5410E-08  0.6342E-04  0.1019E-02  0.9277E+07
   -1.650248    1.70579  0.0000E+00  0.1724E-05  0.4346E-08  0.5607E-04  0.8195E-03  0.6509E+09
   -1.719010    1.72444  0.0000E+00  0.1455E-05  0.3473E-08  0.4881E-04  0.6569E-03  0.5185E+11
   -1.787772    1.74353  0.0000E+00  0.1219E-05  0.2759E-08  0.4186E-04  0.5212E-03  0.4375E+13
   -1.856534    1.76450  0.0000E+00  0.1014E-05  0.2180E-08  0.3525E-04  0.4092E-03  0.1156E+15
   -1.925295    1.78307  0.0000E+00  0.8365E-06  0.1710E-08  0.2904E-04  0.3184E-03  0.1583E+15
   -1.994056    1.79459  0.0000E+00  0.6824E-06  0.1330E-08  0.2348E-04  0.2434E-03 -0.3842E+14
   -2.062817    1.79420  0.0000E+00  0.5479E-06  0.1023E-08  0.1776E-04  0.1821E-03  0.2908E+15
   -2.131577    1.80722  0.0000E+00  0.4300E-06  0.7742E-09  0.1257E-04  0.1314E-03  0.9433E+15
   -2.200337    1.84341  0.0000E+00  0.3244E-06  0.5680E-09  0.8001E-05  0.8957E-04  0.1924E+16
   -2.269097    1.92093  0.0000E+00  0.2348E-06  0.4019E-09  0.4973E-05  0.5308E-04  0.2556E+16
   -2.337856    2.02308  0.0000E+00  0.1623E-06  0.2720E-09  0.2810E-05  0.2896E-04  0.3039E+16
   -2.406614    2.15656  0.0000E+00  0.1047E-06  0.1723E-09  0.1403E-05  0.1383E-04  0.3897E+16
   -2.475372    2.35385  0.0000E+00  0.6386E-07  0.1035E-09  0.4552E-06  0.5821E-05  0.4718E+16
   -2.544130    2.65046  0.0000E+00  0.3112E-07  0.5006E-10  0.9419E-07  0.1521E-05  0.4495E+16
   -2.612887    3.05481  0.0000E+00  0.8797E-08  0.1509E-10  0.1257E-07  0.1159E-06  0.2783E+16
   -2.681643    3.56157  0.0000E+00  0.1338E-08  0.4916E-11  0.2406E-08  0.2256E-08 -0.1058E+15
   -2.750399    3.73897  0.0000E+00  0.0000E+00  0.0000E+00  0.0000E+00  0.1174E-07  0.0000E+00
