 1 - depth, m
 2 - temperature, C
 3 - salinity, kg/kg
 4 - turbulent kinetic energy, m**2/s**2
 5 - dissipation rate, m**2/s**3
 6 - kinematic heat conductance, m**2/s
 7 - modulus of horizontal velocity, m/s
 8 - Richardson number, n/d
   -0.000000    0.00000  0.0000E+00  0.5013E-10  0.2887E-13  0.1000E-09  0.0000E+00  0.3145E+17
   -0.068733    0.50599  0.0000E+00  0.2336E-09  0.3356E-13  0.1000E-09  0.0000E+00  0.2419E+17
   -0.137466    0.95594  0.0000E+00  0.6405E-09  0.6801E-13  0.1000E-09  0.0000E+00  0.1911E+17
   -0.206200    1.36876  0.0000E+00  0.1507E-08  0.1480E-12  0.1000E-09  0.0000E+00  0.1547E+17
   -0.274935    1.76101  0.0000E+00  0.3372E-08  0.3195E-12  0.1358E-09  0.0000E+00  0.1273E+17
   -0.343670    2.14840  0.0000E+00  0.7379E-08  0.6805E-12  0.3323E-09  0.0000E+00  0.1045E+17
   -0.412406    2.54494  0.0000E+00  0.1594E-07  0.1434E-11  0.8906E-09  0.0000E+00  0.8238E+16
   -0.481142    2.96431  0.0000E+00  0.3403E-07  0.2987E-11  0.2699E-08  0.0000E+00  0.5707E+16
   -0.549879    3.42044  0.0000E+00  0.7137E-07  0.6123E-11  0.1557E-07  0.0000E+00  0.2411E+16
   -0.618616    3.89864  0.0000E+00  0.9554E-07  0.8146E-11  0.1838E-03  0.0000E+00  0.1675E+15
   -0.687353    4.04278  0.0000E+00  0.9625E-07  0.8214E-11  0.3777E-03  0.0000E+00 -0.1902E+12
   -0.756091    4.04300  0.0000E+00  0.9666E-07  0.8264E-11  0.3793E-03  0.0000E+00 -0.1966E+12
   -0.824829    4.04322  0.0000E+00  0.9705E-07  0.8320E-11  0.3793E-03  0.0000E+00 -0.1977E+12
   -0.893567    4.04345  0.0000E+00  0.9741E-07  0.8383E-11  0.3790E-03  0.0000E+00 -0.1996E+12
   -0.962306    4.04367  0.0000E+00  0.9773E-07  0.8452E-11  0.3783E-03  0.0000E+00 -0.2020E+12
   -1.031045    4.04390  0.0000E+00  0.9803E-07  0.8529E-11  0.3772E-03  0.0000E+00 -0.2043E+12
   -1.099784    4.04413  0.0000E+00  0.9829E-07  0.8613E-11  0.3756E-03  0.0000E+00 -0.2070E+12
   -1.168523    4.04436  0.0000E+00  0.9852E-07  0.8705E-11  0.3735E-03  0.0000E+00 -0.2104E+12
   -1.237262    4.04459  0.0000E+00  0.9872E-07  0.8806E-11  0.3709E-03  0.0000E+00 -0.2143E+12
   -1.306001    4.04482  0.0000E+00  0.9887E-07  0.8916E-11  0.3678E-03  0.0000E+00 -0.2188E+12
   -1.374741    4.04506  0.0000E+00  0.9899E-07  0.9035E-11  0.3642E-03  0.0000E+00 -0.2220E+12
   -1.443480    4.04531  0.0000E+00  0.9907E-07  0.9166E-11  0.3601E-03  0.0000E+00 -0.2250E+12
   -1.512219    4.04555  0.0000E+00  0.9911E-07  0.9309E-11  0.3555E-03  0.0000E+00 -0.2289E+12
   -1.580959    4.04580  0.0000E+00  0.9911E-07  0.9468E-11  0.3501E-03  0.0000E+00 -0.2335E+12
   -1.649698    4.04605  0.0000E+00  0.9907E-07  0.9646E-11  0.3442E-03  0.0000E+00 -0.2390E+12
   -1.718437    4.04630  0.0000E+00  0.9898E-07  0.9845E-11  0.3375E-03  0.0000E+00 -0.2454E+12
   -1.787176    4.04656  0.0000E+00  0.9885E-07  0.1007E-10  0.3300E-03  0.0000E+00 -0.2529E+12
   -1.855914    4.04683  0.0000E+00  0.9867E-07  0.1032E-10  0.3218E-03  0.0000E+00 -0.2616E+12
   -1.924653    4.04711  0.0000E+00  0.9844E-07  0.1061E-10  0.3128E-03  0.0000E+00 -0.2718E+12
   -1.993391    4.04739  0.0000E+00  0.9816E-07  0.1094E-10  0.3029E-03  0.0000E+00 -0.2837E+12
   -2.062128    4.04769  0.0000E+00  0.9781E-07  0.1132E-10  0.2920E-03  0.0000E+00 -0.2955E+12
   -2.130866    4.04799  0.0000E+00  0.9739E-07  0.1177E-10  0.2802E-03  0.0000E+00 -0.3090E+12
   -2.199603    4.04831  0.0000E+00  0.9690E-07  0.1230E-10  0.2672E-03  0.0000E+00 -0.3253E+12
   -2.268340    4.04865  0.0000E+00  0.9633E-07  0.1294E-10  0.2528E-03  0.0000E+00 -0.3456E+12
   -2.337076    4.04900  0.0000E+00  0.9564E-07  0.1376E-10  0.2365E-03  0.0000E+00 -0.3721E+12
   -2.405811    4.04938  0.0000E+00  0.9474E-07  0.1490E-10  0.2132E-03  0.0000E+00 -0.4136E+12
   -2.474547    4.04980  0.0000E+00  0.9337E-07  0.1685E-10  0.1523E-03  0.0000E+00 -0.5856E+12
   -2.543281    4.05039  0.0000E+00  0.9091E-07  0.2090E-10  0.9066E-04  0.0000E+00 -0.1002E+13
   -2.612015    4.05138  0.0000E+00  0.8596E-07  0.3112E-10  0.4562E-04  0.0000E+00 -0.2065E+13
   -2.680749    4.05338  0.0000E+00  0.5363E-07  0.1298E-09  0.3129E-05  0.0000E+00 -0.3769E+14
   -2.749482    4.08285  0.0000E+00  0.0000E+00  0.0000E+00  0.0000E+00  0.0000E+00  0.0000E+00
