 1 - depth, m
 2 - temperature, C
 3 - salinity, kg/kg
 4 - turbulent kinetic energy, m**2/s**2
 5 - dissipation rate, m**2/s**3
 6 - kinematic heat conductance, m**2/s
 7 - modulus of horizontal velocity, m/s
 8 - Richardson number, n/d
   -0.000000    0.00000  0.0000E+00  0.5950E-09  0.6173E-12  0.1000E-09  0.0000E+00  0.5020E+17
   -0.068755    0.84865  0.0000E+00  0.4491E-08  0.6433E-12  0.1000E-09  0.0000E+00  0.3547E+17
   -0.137512    1.63806  0.0000E+00  0.1253E-07  0.1213E-11  0.2621E-09  0.0000E+00  0.2357E+17
   -0.206268    2.37360  0.0000E+00  0.2838E-07  0.2483E-11  0.9107E-09  0.0000E+00  0.1388E+17
   -0.275026    3.05618  0.0000E+00  0.5994E-07  0.5031E-11  0.4220E-08  0.0000E+00  0.6072E+16
   -0.343784    3.67316  0.0000E+00  0.1190E-06  0.9749E-11  0.6926E-07  0.0000E+00  0.7225E+15
   -0.412542    4.06510  0.0000E+00  0.1198E-06  0.9821E-11  0.5029E-03  0.0000E+00 -0.1869E+12
   -0.481301    4.06525  0.0000E+00  0.1202E-06  0.9860E-11  0.4865E-03  0.0000E+00 -0.1973E+12
   -0.550060    4.06541  0.0000E+00  0.1205E-06  0.9903E-11  0.4794E-03  0.0000E+00 -0.1990E+12
   -0.618820    4.06557  0.0000E+00  0.1208E-06  0.9950E-11  0.4791E-03  0.0000E+00 -0.1973E+12
   -0.687580    4.06573  0.0000E+00  0.1211E-06  0.1000E-10  0.4789E-03  0.0000E+00 -0.1959E+12
   -0.756340    4.06589  0.0000E+00  0.1213E-06  0.1006E-10  0.4781E-03  0.0000E+00 -0.1949E+12
   -0.825101    4.06604  0.0000E+00  0.1214E-06  0.1012E-10  0.4768E-03  0.0000E+00 -0.1944E+12
   -0.893862    4.06620  0.0000E+00  0.1216E-06  0.1019E-10  0.4750E-03  0.0000E+00 -0.1942E+12
   -0.962624    4.06635  0.0000E+00  0.1216E-06  0.1027E-10  0.4726E-03  0.0000E+00 -0.1944E+12
   -1.031385    4.06651  0.0000E+00  0.1217E-06  0.1035E-10  0.4697E-03  0.0000E+00 -0.1947E+12
   -1.100147    4.06666  0.0000E+00  0.1217E-06  0.1045E-10  0.4663E-03  0.0000E+00 -0.1955E+12
   -1.168909    4.06682  0.0000E+00  0.1217E-06  0.1055E-10  0.4623E-03  0.0000E+00 -0.1965E+12
   -1.237670    4.06697  0.0000E+00  0.1216E-06  0.1066E-10  0.4578E-03  0.0000E+00 -0.1979E+12
   -1.306432    4.06713  0.0000E+00  0.1216E-06  0.1078E-10  0.4527E-03  0.0000E+00 -0.1997E+12
   -1.375194    4.06729  0.0000E+00  0.1214E-06  0.1091E-10  0.4471E-03  0.0000E+00 -0.2016E+12
   -1.443956    4.06745  0.0000E+00  0.1213E-06  0.1106E-10  0.4409E-03  0.0000E+00 -0.2036E+12
   -1.512718    4.06761  0.0000E+00  0.1211E-06  0.1122E-10  0.4341E-03  0.0000E+00 -0.2063E+12
   -1.581480    4.06777  0.0000E+00  0.1208E-06  0.1140E-10  0.4266E-03  0.0000E+00 -0.2096E+12
   -1.650242    4.06793  0.0000E+00  0.1206E-06  0.1160E-10  0.4183E-03  0.0000E+00 -0.2135E+12
   -1.719004    4.06810  0.0000E+00  0.1202E-06  0.1182E-10  0.4093E-03  0.0000E+00 -0.2179E+12
   -1.787765    4.06827  0.0000E+00  0.1199E-06  0.1208E-10  0.3995E-03  0.0000E+00 -0.2232E+12
   -1.856527    4.06844  0.0000E+00  0.1195E-06  0.1237E-10  0.3888E-03  0.0000E+00 -0.2292E+12
   -1.925288    4.06862  0.0000E+00  0.1190E-06  0.1271E-10  0.3772E-03  0.0000E+00 -0.2363E+12
   -1.994048    4.06881  0.0000E+00  0.1185E-06  0.1309E-10  0.3647E-03  0.0000E+00 -0.2445E+12
   -2.062809    4.06900  0.0000E+00  0.1179E-06  0.1354E-10  0.3511E-03  0.0000E+00 -0.2537E+12
   -2.131569    4.06919  0.0000E+00  0.1173E-06  0.1406E-10  0.3365E-03  0.0000E+00 -0.2644E+12
   -2.200329    4.06939  0.0000E+00  0.1166E-06  0.1468E-10  0.3206E-03  0.0000E+00 -0.2772E+12
   -2.269088    4.06961  0.0000E+00  0.1158E-06  0.1544E-10  0.3031E-03  0.0000E+00 -0.2933E+12
   -2.337847    4.06983  0.0000E+00  0.1149E-06  0.1640E-10  0.2835E-03  0.0000E+00 -0.3139E+12
   -2.406605    4.07007  0.0000E+00  0.1138E-06  0.1777E-10  0.2619E-03  0.0000E+00 -0.3405E+12
   -2.475363    4.07033  0.0000E+00  0.1121E-06  0.2016E-10  0.1642E-03  0.0000E+00 -0.5456E+12
   -2.544120    4.07075  0.0000E+00  0.1091E-06  0.2521E-10  0.9812E-04  0.0000E+00 -0.9232E+12
   -2.612877    4.07144  0.0000E+00  0.1032E-06  0.3787E-10  0.4998E-04  0.0000E+00 -0.1857E+13
   -2.681633    4.07283  0.0000E+00  0.6364E-07  0.1646E-09  0.3307E-05  0.0000E+00 -0.3206E+14
   -2.750389    4.09394  0.0000E+00  0.0000E+00  0.0000E+00  0.0000E+00  0.0000E+00  0.0000E+00
