 1 - depth, m
 2 - temperature, C
 3 - salinity, kg/kg
 4 - turbulent kinetic energy, m**2/s**2
 5 - dissipation rate, m**2/s**3
 6 - kinematic heat conductance, m**2/s
 7 - modulus of horizontal velocity, m/s
 8 - Richardson number, n/d
   -0.000000    3.50648  0.0000E+00  0.6572E-03  0.1098E-02  0.1225E-03  0.2742E+00 -0.8175E-03
   -0.068793    3.56260  0.0000E+00  0.3390E-03  0.3039E-03  0.3908E-03  0.7743E-01  0.2032E-01
   -0.137588    3.57148  0.0000E+00  0.2493E-03  0.1488E-03  0.3617E-03  0.6031E-01  0.2798E-02
   -0.206382    3.57730  0.0000E+00  0.1938E-03  0.8779E-04  0.3556E-03  0.5115E-01  0.1080E-02
   -0.275178    3.58126  0.0000E+00  0.1544E-03  0.5094E-04  0.3411E-03  0.4509E-01  0.9677E-03
   -0.343974    3.58456  0.0000E+00  0.1247E-03  0.2844E-04  0.3432E-03  0.3938E-01  0.5325E-03
   -0.412770    3.58752  0.0000E+00  0.1024E-03  0.1510E-04  0.3488E-03  0.3460E-01  0.3393E-02
   -0.481567    3.59014  0.0000E+00  0.8606E-04  0.9106E-05  0.3620E-03  0.3036E-01  0.1648E-02
   -0.550364    3.59236  0.0000E+00  0.7392E-04  0.5615E-05  0.3770E-03  0.2680E-01  0.2065E-02
   -0.619162    3.59443  0.0000E+00  0.6457E-04  0.3495E-05  0.3926E-03  0.2380E-01  0.2692E-02
   -0.687960    3.59639  0.0000E+00  0.5717E-04  0.2212E-05  0.4069E-03  0.2124E-01  0.3512E-02
   -0.756759    3.59827  0.0000E+00  0.5120E-04  0.1444E-05  0.4207E-03  0.1902E-01  0.4575E-02
   -0.825557    3.60009  0.0000E+00  0.4628E-04  0.9831E-06  0.4338E-03  0.1708E-01  0.6013E-02
   -0.894356    3.60187  0.0000E+00  0.4218E-04  0.6999E-06  0.4469E-03  0.1539E-01  0.7983E-02
   -0.963156    3.60362  0.0000E+00  0.3872E-04  0.5207E-06  0.4601E-03  0.1392E-01  0.1077E-01
   -1.031955    3.60535  0.0000E+00  0.3582E-04  0.4033E-06  0.4683E-03  0.1264E-01  0.1356E-01
   -1.100755    3.60708  0.0000E+00  0.3330E-04  0.3228E-06  0.4757E-03  0.1149E-01  0.1712E-01
   -1.169555    3.60884  0.0000E+00  0.3109E-04  0.2653E-06  0.4820E-03  0.1043E-01  0.2174E-01
   -1.238355    3.61064  0.0000E+00  0.2910E-04  0.2225E-06  0.4868E-03  0.9475E-02  0.2771E-01
   -1.307155    3.61249  0.0000E+00  0.2731E-04  0.1896E-06  0.4895E-03  0.8594E-02  0.3541E-01
   -1.375955    3.61441  0.0000E+00  0.2565E-04  0.1634E-06  0.4898E-03  0.7781E-02  0.4511E-01
   -1.444755    3.61644  0.0000E+00  0.2411E-04  0.1421E-06  0.4872E-03  0.7025E-02  0.5696E-01
   -1.513555    3.61860  0.0000E+00  0.2265E-04  0.1244E-06  0.4872E-03  0.6314E-02  0.8092E-01
   -1.582354    3.62093  0.0000E+00  0.2127E-04  0.1095E-06  0.4867E-03  0.5668E-02  0.1242E+00
   -1.651154    3.62346  0.0000E+00  0.1997E-04  0.9675E-07  0.4834E-03  0.5087E-02  0.1986E+00
   -1.719954    3.62632  0.0000E+00  0.1875E-04  0.8592E-07  0.4778E-03  0.4561E-02  0.3382E+00
   -1.788753    3.62969  0.0000E+00  0.1761E-04  0.7667E-07  0.4701E-03  0.4085E-02  0.6372E+00
   -1.857553    3.63404  0.0000E+00  0.1655E-04  0.6876E-07  0.4604E-03  0.3652E-02  0.1416E+01
   -1.926352    3.64096  0.0000E+00  0.1554E-04  0.6198E-07  0.4494E-03  0.3256E-02  0.3517E+01
   -1.995151    3.66157  0.0000E+00  0.1461E-04  0.5621E-07  0.4388E-03  0.2886E-02  0.1005E+02
   -2.063949    3.70310  0.0000E+00  0.1377E-04  0.5138E-07  0.4322E-03  0.2551E-02 -0.4188E+02
   -2.132747    3.72176  0.0000E+00  0.1299E-04  0.4738E-07  0.4234E-03  0.2254E-02 -0.6849E+03
   -2.201545    3.73038  0.0000E+00  0.1227E-04  0.4416E-07  0.4087E-03  0.1980E-02 -0.1508E+04
   -2.270342    3.73837  0.0000E+00  0.1160E-04  0.4170E-07  0.3932E-03  0.1723E-02 -0.3714E+04
   -2.339139    3.74629  0.0000E+00  0.1095E-04  0.4000E-07  0.3726E-03  0.1492E-02 -0.9618E+04
   -2.407936    3.75450  0.0000E+00  0.1031E-04  0.3926E-07  0.3442E-03  0.1282E-02 -0.1905E+05
   -2.476731    3.76338  0.0000E+00  0.9655E-05  0.3993E-07  0.3051E-03  0.1090E-02  0.1006E+07
   -2.545527    3.77500  0.0000E+00  0.8938E-05  0.4334E-07  0.2500E-03  0.9094E-03  0.3496E+08
   -2.614322    3.78889  0.0000E+00  0.7992E-05  0.5464E-07  0.1677E-03  0.7379E-03 -0.1237E+12
   -2.683116    3.80375  0.0000E+00  0.4376E-05  0.1605E-06  0.1917E-04  0.5693E-03 -0.6905E+13
   -2.751909    3.87485  0.0000E+00  0.0000E+00  0.0000E+00  0.0000E+00  0.5694E-03  0.0000E+00
