 1 - depth, m
 2 - temperature, C
 3 - salinity, kg/kg
 4 - turbulent kinetic energy, m**2/s**2
 5 - dissipation rate, m**2/s**3
 6 - kinematic heat conductance, m**2/s
 7 - modulus of horizontal velocity, m/s
 8 - Richardson number, n/d
   -0.000000   16.94573  0.0000E+00  0.2039E-04  0.1770E-05  0.3183E-04  0.2836E-01 -0.3543E-01
   -0.068741   16.97262  0.0000E+00  0.1491E-04  0.4371E-06  0.7580E-04  0.1428E-01 -0.1186E+00
   -0.137483   16.98164  0.0000E+00  0.1255E-04  0.1938E-06  0.1436E-03  0.1001E-01  0.2915E+00
   -0.206225   16.98666  0.0000E+00  0.1115E-04  0.1102E-06  0.2155E-03  0.7567E-02  0.7125E+02
   -0.274968   16.98986  0.0000E+00  0.1030E-04  0.7297E-07  0.2894E-03  0.6036E-02  0.1167E+02
   -0.343711   16.99204  0.0000E+00  0.9759E-05  0.5320E-07  0.4155E-03  0.4971E-02  0.8574E+02
   -0.412455   16.99350  0.0000E+00  0.9401E-05  0.4148E-07  0.5366E-03  0.4212E-02  0.2739E+02
   -0.481200   16.99457  0.0000E+00  0.9171E-05  0.3391E-07  0.6903E-03  0.3640E-02  0.8869E+02
   -0.549945   16.99534  0.0000E+00  0.9041E-05  0.2889E-07  0.9100E-03  0.3197E-02  0.1112E+03
   -0.618690   16.99587  0.0000E+00  0.8990E-05  0.2543E-07  0.1075E-02  0.2860E-02  0.2613E+01
   -0.687436   16.99629  0.0000E+00  0.8990E-05  0.2279E-07  0.1172E-02  0.2577E-02  0.2445E+01
   -0.756182   16.99667  0.0000E+00  0.9023E-05  0.2070E-07  0.1270E-02  0.2320E-02  0.2313E+01
   -0.824928   16.99703  0.0000E+00  0.9083E-05  0.1906E-07  0.1357E-02  0.2092E-02  0.2169E+01
   -0.893675   16.99736  0.0000E+00  0.9163E-05  0.1777E-07  0.1442E-02  0.1890E-02  0.2045E+01
   -0.962421   16.99768  0.0000E+00  0.9259E-05  0.1676E-07  0.1525E-02  0.1709E-02  0.1934E+01
   -1.031169   16.99800  0.0000E+00  0.9367E-05  0.1599E-07  0.1597E-02  0.1548E-02  0.1910E+01
   -1.099916   16.99830  0.0000E+00  0.9480E-05  0.1541E-07  0.1665E-02  0.1400E-02  0.1887E+01
   -1.168663   16.99861  0.0000E+00  0.9595E-05  0.1500E-07  0.1730E-02  0.1265E-02  0.1857E+01
   -1.237411   16.99892  0.0000E+00  0.9706E-05  0.1472E-07  0.1791E-02  0.1141E-02  0.1823E+01
   -1.306158   16.99923  0.0000E+00  0.9809E-05  0.1457E-07  0.1848E-02  0.1027E-02  0.1785E+01
   -1.374906   16.99955  0.0000E+00  0.9902E-05  0.1452E-07  0.1901E-02  0.9234E-03  0.1747E+01
   -1.443653   16.99986  0.0000E+00  0.9980E-05  0.1457E-07  0.1951E-02  0.8281E-03  0.1705E+01
   -1.512401   17.00019  0.0000E+00  0.1004E-04  0.1470E-07  0.2010E-02  0.7413E-03  0.1624E+01
   -1.581148   17.00051  0.0000E+00  0.1009E-04  0.1491E-07  0.2064E-02  0.6646E-03  0.1536E+01
   -1.649896   17.00084  0.0000E+00  0.1012E-04  0.1519E-07  0.2061E-02  0.5978E-03  0.1454E+01
   -1.718643   17.00118  0.0000E+00  0.1013E-04  0.1552E-07  0.2024E-02  0.5402E-03  0.1391E+01
   -1.787390   17.00154  0.0000E+00  0.1014E-04  0.1592E-07  0.1973E-02  0.4902E-03  0.1379E+01
   -1.856137   17.00192  0.0000E+00  0.1013E-04  0.1638E-07  0.1912E-02  0.4467E-03  0.1404E+01
   -1.924883   17.00233  0.0000E+00  0.1011E-04  0.1690E-07  0.1844E-02  0.4085E-03  0.1476E+01
   -1.993630   17.00276  0.0000E+00  0.1007E-04  0.1749E-07  0.1770E-02  0.3747E-03  0.1593E+01
   -2.062376   17.00323  0.0000E+00  0.1003E-04  0.1817E-07  0.1694E-02  0.3445E-03  0.1813E+01
   -2.131121   17.00374  0.0000E+00  0.9968E-05  0.1899E-07  0.1610E-02  0.3171E-03  0.2241E+01
   -2.199867   17.00429  0.0000E+00  0.9887E-05  0.2000E-07  0.1508E-02  0.2903E-03  0.2934E+01
   -2.268612   17.00490  0.0000E+00  0.9779E-05  0.2131E-07  0.1389E-02  0.2635E-03  0.3966E+01
   -2.337356   17.00558  0.0000E+00  0.9632E-05  0.2312E-07  0.1248E-02  0.2370E-03  0.5844E+01
   -2.406100   17.00636  0.0000E+00  0.9431E-05  0.2574E-07  0.1093E-02  0.2108E-03  0.9575E+01
   -2.474843   17.00728  0.0000E+00  0.9152E-05  0.2988E-07  0.8722E-03  0.1845E-03  0.1845E+02
   -2.543586   17.00846  0.0000E+00  0.8740E-05  0.3738E-07  0.7942E-03  0.1566E-03  0.3800E+02
   -2.612329   17.00978  0.0000E+00  0.7866E-05  0.6174E-07  0.3432E-03  0.1323E-03 -0.1327E+03
   -2.681070   17.01536  0.0000E+00  0.4785E-05  0.2050E-06  0.8701E-04  0.8649E-04 -0.2693E+04
   -2.749811   17.02847  0.0000E+00  0.0000E+00  0.0000E+00  0.0000E+00  0.9711E-04  0.0000E+00
