 1 - depth, m
 2 - temperature, C
 3 - salinity, kg/kg
 4 - turbulent kinetic energy, m**2/s**2
 5 - dissipation rate, m**2/s**3
 6 - kinematic heat conductance, m**2/s
 7 - modulus of horizontal velocity, m/s
 8 - Richardson number, n/d
   -0.000000   12.00367  0.0000E+00  0.1652E-03  0.5979E-04  0.1045E-03  0.1222E+00 -0.1801E-01
   -0.068755   12.03462  0.0000E+00  0.8886E-04  0.1412E-04  0.1593E-03  0.4246E-01 -0.5470E-02
   -0.137510   12.03956  0.0000E+00  0.6313E-04  0.5586E-05  0.1541E-03  0.3230E-01 -0.1001E-01
   -0.206266   12.04320  0.0000E+00  0.4744E-04  0.2551E-05  0.1631E-03  0.2647E-01 -0.1543E-01
   -0.275023   12.04607  0.0000E+00  0.3772E-04  0.1297E-05  0.1778E-03  0.2229E-01 -0.1896E-01
   -0.343780   12.04851  0.0000E+00  0.3131E-04  0.7272E-06  0.1959E-03  0.1885E-01 -0.2324E-01
   -0.412537   12.05062  0.0000E+00  0.2683E-04  0.4456E-06  0.2153E-03  0.1600E-01 -0.2872E-01
   -0.481295   12.05247  0.0000E+00  0.2345E-04  0.2939E-06  0.2351E-03  0.1363E-01 -0.3603E-01
   -0.550054   12.05411  0.0000E+00  0.2074E-04  0.2047E-06  0.2568E-03  0.1164E-01 -0.4754E-01
   -0.618813   12.05558  0.0000E+00  0.1853E-04  0.1490E-06  0.2786E-03  0.1000E-01 -0.6229E-01
   -0.687572   12.05690  0.0000E+00  0.1669E-04  0.1121E-06  0.3012E-03  0.8631E-02 -0.8112E-01
   -0.756332   12.05811  0.0000E+00  0.1514E-04  0.8664E-07  0.3265E-03  0.7481E-02 -0.7260E-01
   -0.825092   12.05921  0.0000E+00  0.1382E-04  0.6843E-07  0.3593E-03  0.6510E-02  0.3284E+01
   -0.893852   12.06021  0.0000E+00  0.1271E-04  0.5508E-07  0.4062E-03  0.5692E-02  0.1872E+01
   -0.962613   12.06111  0.0000E+00  0.1178E-04  0.4516E-07  0.4834E-03  0.5002E-02  0.5597E+01
   -1.031374   12.06190  0.0000E+00  0.1100E-04  0.3772E-07  0.5913E-03  0.4423E-02  0.4720E+02
   -1.100135   12.06256  0.0000E+00  0.1036E-04  0.3207E-07  0.7373E-03  0.3926E-02  0.6964E+02
   -1.168896   12.06312  0.0000E+00  0.9825E-05  0.2773E-07  0.8825E-03  0.3500E-02  0.7804E+02
   -1.237657   12.06358  0.0000E+00  0.9370E-05  0.2430E-07  0.9865E-03  0.3127E-02  0.1150E+03
   -1.306418   12.06400  0.0000E+00  0.8978E-05  0.2154E-07  0.1081E-02  0.2794E-02  0.2099E+03
   -1.375179   12.06437  0.0000E+00  0.8635E-05  0.1930E-07  0.1161E-02  0.2492E-02  0.6850E+01
   -1.443940   12.06471  0.0000E+00  0.8329E-05  0.1745E-07  0.1215E-02  0.2215E-02  0.1069E+02
   -1.512702   12.06504  0.0000E+00  0.8049E-05  0.1590E-07  0.1264E-02  0.1958E-02  0.9803E+01
   -1.581463   12.06535  0.0000E+00  0.7789E-05  0.1459E-07  0.1300E-02  0.1725E-02  0.2840E+02
   -1.650224   12.06565  0.0000E+00  0.7547E-05  0.1350E-07  0.1326E-02  0.1516E-02  0.2518E+01
   -1.718985   12.06595  0.0000E+00  0.7320E-05  0.1259E-07  0.1346E-02  0.1328E-02  0.1964E+01
   -1.787745   12.06625  0.0000E+00  0.7108E-05  0.1185E-07  0.1354E-02  0.1160E-02  0.1790E+01
   -1.856506   12.06656  0.0000E+00  0.6910E-05  0.1126E-07  0.1349E-02  0.1011E-02  0.1633E+01
   -1.925266   12.06687  0.0000E+00  0.6725E-05  0.1082E-07  0.1327E-02  0.8789E-03  0.1490E+01
   -1.994026   12.06719  0.0000E+00  0.6553E-05  0.1052E-07  0.1292E-02  0.7629E-03  0.1358E+01
   -2.062786   12.06753  0.0000E+00  0.6393E-05  0.1034E-07  0.1247E-02  0.6614E-03  0.1236E+01
   -2.131545   12.06788  0.0000E+00  0.6246E-05  0.1029E-07  0.1193E-02  0.5728E-03  0.1122E+01
   -2.200304   12.06826  0.0000E+00  0.6111E-05  0.1037E-07  0.1133E-02  0.4956E-03  0.1034E+01
   -2.269063   12.06866  0.0000E+00  0.5987E-05  0.1057E-07  0.1071E-02  0.4287E-03  0.1008E+01
   -2.337821   12.06910  0.0000E+00  0.5865E-05  0.1093E-07  0.1002E-02  0.3720E-03  0.1235E+01
   -2.406579   12.06957  0.0000E+00  0.5735E-05  0.1153E-07  0.9170E-03  0.3218E-03  0.1829E+01
   -2.475336   12.07010  0.0000E+00  0.5586E-05  0.1255E-07  0.8110E-03  0.2751E-03  0.3130E+01
   -2.544092   12.07071  0.0000E+00  0.5399E-05  0.1440E-07  0.6692E-03  0.2301E-03  0.6521E+01
   -2.612848   12.07147  0.0000E+00  0.5121E-05  0.1850E-07  0.5272E-03  0.1869E-03  0.1906E+02
   -2.681604   12.07249  0.0000E+00  0.3273E-05  0.6379E-07  0.2604E-04  0.1471E-03 -0.1729E+04
   -2.750358   12.09527  0.0000E+00  0.0000E+00  0.0000E+00  0.0000E+00  0.1470E-03  0.0000E+00
