 1 - depth, m
 2 - temperature, C
 3 - salinity, kg/kg
 4 - turbulent kinetic energy, m**2/s**2
 5 - dissipation rate, m**2/s**3
 6 - kinematic heat conductance, m**2/s
 7 - modulus of horizontal velocity, m/s
 8 - Richardson number, n/d
   -0.000000    0.00000  0.0000E+00  0.7404E-10  0.4621E-13  0.1000E-09  0.0000E+00  0.3359E+17
   -0.068734    0.54322  0.0000E+00  0.3656E-09  0.5181E-13  0.1000E-09  0.0000E+00  0.2555E+17
   -0.137470    1.02694  0.0000E+00  0.9910E-09  0.1011E-12  0.1000E-09  0.0000E+00  0.1994E+17
   -0.206205    1.47198  0.0000E+00  0.2270E-08  0.2125E-12  0.1000E-09  0.0000E+00  0.1591E+17
   -0.274942    1.89718  0.0000E+00  0.4918E-08  0.4437E-12  0.1763E-09  0.0000E+00  0.1281E+17
   -0.343678    2.31993  0.0000E+00  0.1041E-07  0.9148E-12  0.4617E-09  0.0000E+00  0.1010E+17
   -0.412416    2.75490  0.0000E+00  0.2175E-07  0.1868E-11  0.1312E-08  0.0000E+00  0.7293E+16
   -0.481154    3.21153  0.0000E+00  0.4498E-07  0.3777E-11  0.4877E-08  0.0000E+00  0.4029E+16
   -0.549892    3.68367  0.0000E+00  0.8967E-07  0.7394E-11  0.6115E-07  0.0000E+00  0.7115E+15
   -0.618631    4.04570  0.0000E+00  0.9049E-07  0.7466E-11  0.3765E-03  0.0000E+00 -0.1703E+12
   -0.687370    4.04588  0.0000E+00  0.9088E-07  0.7508E-11  0.3696E-03  0.0000E+00 -0.1753E+12
   -0.756109    4.04607  0.0000E+00  0.9126E-07  0.7557E-11  0.3697E-03  0.0000E+00 -0.1769E+12
   -0.824849    4.04626  0.0000E+00  0.9162E-07  0.7613E-11  0.3697E-03  0.0000E+00 -0.1788E+12
   -0.893589    4.04645  0.0000E+00  0.9196E-07  0.7676E-11  0.3692E-03  0.0000E+00 -0.1814E+12
   -0.962329    4.04664  0.0000E+00  0.9228E-07  0.7747E-11  0.3684E-03  0.0000E+00 -0.1845E+12
   -1.031069    4.04684  0.0000E+00  0.9257E-07  0.7825E-11  0.3670E-03  0.0000E+00 -0.1879E+12
   -1.099810    4.04704  0.0000E+00  0.9285E-07  0.7912E-11  0.3652E-03  0.0000E+00 -0.1918E+12
   -1.168551    4.04724  0.0000E+00  0.9309E-07  0.8006E-11  0.3630E-03  0.0000E+00 -0.1963E+12
   -1.237292    4.04744  0.0000E+00  0.9331E-07  0.8109E-11  0.3602E-03  0.0000E+00 -0.2015E+12
   -1.306033    4.04765  0.0000E+00  0.9350E-07  0.8222E-11  0.3569E-03  0.0000E+00 -0.2073E+12
   -1.374774    4.04787  0.0000E+00  0.9366E-07  0.8345E-11  0.3532E-03  0.0000E+00 -0.2120E+12
   -1.443515    4.04809  0.0000E+00  0.9378E-07  0.8479E-11  0.3491E-03  0.0000E+00 -0.2165E+12
   -1.512256    4.04831  0.0000E+00  0.9387E-07  0.8626E-11  0.3444E-03  0.0000E+00 -0.2217E+12
   -1.580996    4.04854  0.0000E+00  0.9392E-07  0.8788E-11  0.3390E-03  0.0000E+00 -0.2277E+12
   -1.649737    4.04878  0.0000E+00  0.9394E-07  0.8969E-11  0.3330E-03  0.0000E+00 -0.2345E+12
   -1.718478    4.04902  0.0000E+00  0.9392E-07  0.9171E-11  0.3264E-03  0.0000E+00 -0.2423E+12
   -1.787218    4.04926  0.0000E+00  0.9385E-07  0.9398E-11  0.3190E-03  0.0000E+00 -0.2513E+12
   -1.855959    4.04952  0.0000E+00  0.9374E-07  0.9654E-11  0.3108E-03  0.0000E+00 -0.2616E+12
   -1.924699    4.04978  0.0000E+00  0.9358E-07  0.9943E-11  0.3019E-03  0.0000E+00 -0.2736E+12
   -1.993438    4.05006  0.0000E+00  0.9336E-07  0.1027E-10  0.2921E-03  0.0000E+00 -0.2876E+12
   -2.062178    4.05035  0.0000E+00  0.9309E-07  0.1066E-10  0.2814E-03  0.0000E+00 -0.3017E+12
   -2.130917    4.05065  0.0000E+00  0.9275E-07  0.1110E-10  0.2697E-03  0.0000E+00 -0.3179E+12
   -2.199655    4.05096  0.0000E+00  0.9233E-07  0.1162E-10  0.2570E-03  0.0000E+00 -0.3371E+12
   -2.268394    4.05130  0.0000E+00  0.9183E-07  0.1226E-10  0.2428E-03  0.0000E+00 -0.3606E+12
   -2.337132    4.05165  0.0000E+00  0.9120E-07  0.1307E-10  0.2265E-03  0.0000E+00 -0.3912E+12
   -2.405869    4.05203  0.0000E+00  0.9041E-07  0.1415E-10  0.2090E-03  0.0000E+00 -0.4295E+12
   -2.474606    4.05245  0.0000E+00  0.8922E-07  0.1594E-10  0.1589E-03  0.0000E+00 -0.5739E+12
   -2.543342    4.05300  0.0000E+00  0.8697E-07  0.1975E-10  0.9140E-04  0.0000E+00 -0.1021E+13
   -2.612078    4.05398  0.0000E+00  0.8234E-07  0.2943E-10  0.4566E-04  0.0000E+00 -0.2133E+13
   -2.680813    4.05597  0.0000E+00  0.5165E-07  0.1227E-09  0.3104E-05  0.0000E+00 -0.3936E+14
   -2.749547    4.08575  0.0000E+00  0.0000E+00  0.0000E+00  0.0000E+00  0.0000E+00  0.0000E+00
