 1 - depth, m
 2 - temperature, C
 3 - salinity, kg/kg
 4 - turbulent kinetic energy, m**2/s**2
 5 - dissipation rate, m**2/s**3
 6 - kinematic heat conductance, m**2/s
 7 - modulus of horizontal velocity, m/s
 8 - Richardson number, n/d
   -0.000000   11.11194  0.0000E+00  0.1220E-03  0.4233E-04  0.9266E-04  0.9647E-01 -0.6688E-02
   -0.068781   11.14438  0.0000E+00  0.6666E-04  0.9715E-05  0.1294E-03  0.3576E-01 -0.3272E-01
   -0.137563   11.15101  0.0000E+00  0.4789E-04  0.3720E-05  0.1371E-03  0.2681E-01 -0.1965E-01
   -0.206346   11.15591  0.0000E+00  0.3674E-04  0.1696E-05  0.1546E-03  0.2171E-01 -0.2845E-01
   -0.275129   11.15974  0.0000E+00  0.2982E-04  0.8732E-06  0.1753E-03  0.1814E-01 -0.3849E-01
   -0.343913   11.16295  0.0000E+00  0.2520E-04  0.5011E-06  0.1987E-03  0.1528E-01 -0.5040E-01
   -0.412697   11.16570  0.0000E+00  0.2192E-04  0.3155E-06  0.2232E-03  0.1294E-01 -0.6500E-01
   -0.481482   11.16808  0.0000E+00  0.1941E-04  0.2134E-06  0.2489E-03  0.1101E-01 -0.8367E-01
   -0.550267   11.17017  0.0000E+00  0.1737E-04  0.1519E-06  0.2776E-03  0.9410E-02 -0.1101E+00
   -0.619052   11.17201  0.0000E+00  0.1568E-04  0.1126E-06  0.3121E-03  0.8098E-02 -0.1162E+00
   -0.687838   11.17364  0.0000E+00  0.1428E-04  0.8612E-07  0.3831E-03  0.7009E-02  0.6590E+02
   -0.756625   11.17505  0.0000E+00  0.1310E-04  0.6763E-07  0.4730E-03  0.6105E-02  0.3297E+02
   -0.825411   11.17627  0.0000E+00  0.1211E-04  0.5429E-07  0.5522E-03  0.5353E-02  0.2977E+02
   -0.894198   11.17734  0.0000E+00  0.1128E-04  0.4444E-07  0.6238E-03  0.4720E-02  0.2551E+02
   -0.962985   11.17829  0.0000E+00  0.1057E-04  0.3704E-07  0.7088E-03  0.4184E-02  0.1657E+02
   -1.031773   11.17911  0.0000E+00  0.9989E-05  0.3143E-07  0.8169E-03  0.3732E-02  0.5400E+02
   -1.100560   11.17981  0.0000E+00  0.9502E-05  0.2713E-07  0.9530E-03  0.3340E-02  0.4799E+02
   -1.169348   11.18038  0.0000E+00  0.9092E-05  0.2378E-07  0.1082E-02  0.2998E-02  0.7259E+02
   -1.238136   11.18084  0.0000E+00  0.8742E-05  0.2113E-07  0.1181E-02  0.2695E-02  0.9226E+02
   -1.306923   11.18124  0.0000E+00  0.8434E-05  0.1896E-07  0.1237E-02  0.2420E-02  0.1352E+03
   -1.375711   11.18161  0.0000E+00  0.8154E-05  0.1714E-07  0.1264E-02  0.2166E-02  0.3097E+01
   -1.444499   11.18197  0.0000E+00  0.7895E-05  0.1559E-07  0.1280E-02  0.1929E-02  0.4175E+01
   -1.513287   11.18232  0.0000E+00  0.7651E-05  0.1428E-07  0.1300E-02  0.1706E-02  0.2629E+01
   -1.582075   11.18267  0.0000E+00  0.7420E-05  0.1316E-07  0.1319E-02  0.1504E-02  0.2318E+01
   -1.650862   11.18301  0.0000E+00  0.7201E-05  0.1222E-07  0.1336E-02  0.1322E-02  0.2074E+01
   -1.719650   11.18335  0.0000E+00  0.6993E-05  0.1143E-07  0.1349E-02  0.1160E-02  0.1874E+01
   -1.788437   11.18368  0.0000E+00  0.6796E-05  0.1078E-07  0.1358E-02  0.1015E-02  0.1703E+01
   -1.857224   11.18401  0.0000E+00  0.6610E-05  0.1026E-07  0.1359E-02  0.8872E-03  0.1552E+01
   -1.926011   11.18434  0.0000E+00  0.6435E-05  0.9870E-08  0.1343E-02  0.7739E-03  0.1412E+01
   -1.994798   11.18467  0.0000E+00  0.6270E-05  0.9591E-08  0.1309E-02  0.6743E-03  0.1283E+01
   -2.063584   11.18501  0.0000E+00  0.6116E-05  0.9423E-08  0.1266E-02  0.5871E-03  0.1196E+01
   -2.132370   11.18536  0.0000E+00  0.5972E-05  0.9365E-08  0.1214E-02  0.5107E-03  0.1164E+01
   -2.201155   11.18573  0.0000E+00  0.5838E-05  0.9419E-08  0.1153E-02  0.4433E-03  0.1206E+01
   -2.269941   11.18612  0.0000E+00  0.5713E-05  0.9592E-08  0.1086E-02  0.3836E-03  0.1312E+01
   -2.338725   11.18653  0.0000E+00  0.5591E-05  0.9910E-08  0.1014E-02  0.3325E-03  0.1631E+01
   -2.407510   11.18697  0.0000E+00  0.5464E-05  0.1044E-07  0.9303E-03  0.2887E-03  0.2422E+01
   -2.476293   11.18746  0.0000E+00  0.5319E-05  0.1132E-07  0.8234E-03  0.2476E-03  0.4111E+01
   -2.545076   11.18800  0.0000E+00  0.5140E-05  0.1293E-07  0.6883E-03  0.2081E-03  0.8440E+01
   -2.613859   11.18866  0.0000E+00  0.4870E-05  0.1666E-07  0.5316E-03  0.1704E-03  0.2384E+03
   -2.682641   11.18954  0.0000E+00  0.3073E-05  0.5868E-07  0.2534E-04  0.1329E-03 -0.3678E+04
   -2.751422   11.20763  0.0000E+00  0.0000E+00  0.0000E+00  0.0000E+00  0.1333E-03  0.0000E+00
