 1 - depth, m
 2 - temperature, C
 3 - salinity, kg/kg
 4 - turbulent kinetic energy, m**2/s**2
 5 - dissipation rate, m**2/s**3
 6 - kinematic heat conductance, m**2/s
 7 - modulus of horizontal velocity, m/s
 8 - Richardson number, n/d
   -0.000000   11.09505  0.0000E+00  0.1821E-03  0.7123E-04  0.1081E-03  0.1264E+00 -0.4391E-02
   -0.068755   11.13009  0.0000E+00  0.9978E-04  0.1761E-04  0.1747E-03  0.4290E-01 -0.8207E-02
   -0.137512   11.13593  0.0000E+00  0.7161E-04  0.7284E-05  0.1721E-03  0.3268E-01 -0.1600E-01
   -0.206268   11.14042  0.0000E+00  0.5426E-04  0.3395E-05  0.1826E-03  0.2688E-01 -0.2855E-01
   -0.275026   11.14396  0.0000E+00  0.4341E-04  0.1749E-05  0.1984E-03  0.2277E-01 -0.2392E-01
   -0.343784   11.14692  0.0000E+00  0.3613E-04  0.9868E-06  0.2180E-03  0.1941E-01 -0.3034E-01
   -0.412542   11.14947  0.0000E+00  0.3096E-04  0.6064E-06  0.2391E-03  0.1661E-01 -0.3835E-01
   -0.481301   11.15169  0.0000E+00  0.2705E-04  0.3998E-06  0.2608E-03  0.1428E-01 -0.4865E-01
   -0.550060   11.15366  0.0000E+00  0.2393E-04  0.2778E-06  0.2848E-03  0.1231E-01 -0.6421E-01
   -0.618820   11.15541  0.0000E+00  0.2138E-04  0.2014E-06  0.3089E-03  0.1068E-01 -0.8368E-01
   -0.687580   11.15698  0.0000E+00  0.1928E-04  0.1510E-06  0.3339E-03  0.9315E-02 -0.1076E+00
   -0.756341   11.15840  0.0000E+00  0.1750E-04  0.1163E-06  0.3629E-03  0.8154E-02 -0.1257E+00
   -0.825101   11.15969  0.0000E+00  0.1600E-04  0.9162E-07  0.4169E-03  0.7165E-02  0.3678E+01
   -0.893862   11.16083  0.0000E+00  0.1473E-04  0.7365E-07  0.5355E-03  0.6323E-02  0.9327E+02
   -0.962624   11.16181  0.0000E+00  0.1365E-04  0.6030E-07  0.5943E-03  0.5618E-02  0.4533E+02
   -1.031385   11.16269  0.0000E+00  0.1274E-04  0.5020E-07  0.6511E-03  0.5011E-02  0.6004E+01
   -1.100147   11.16349  0.0000E+00  0.1196E-04  0.4242E-07  0.7258E-03  0.4476E-02  0.4559E+02
   -1.168909   11.16421  0.0000E+00  0.1129E-04  0.3635E-07  0.8211E-03  0.4003E-02  0.1055E+03
   -1.237671   11.16483  0.0000E+00  0.1070E-04  0.3155E-07  0.9374E-03  0.3584E-02  0.8354E+02
   -1.306433   11.16537  0.0000E+00  0.1019E-04  0.2772E-07  0.1053E-02  0.3210E-02  0.1689E+02
   -1.375195   11.16583  0.0000E+00  0.9743E-05  0.2460E-07  0.1141E-02  0.2874E-02  0.4345E+02
   -1.443957   11.16624  0.0000E+00  0.9336E-05  0.2201E-07  0.1204E-02  0.2566E-02  0.5805E+01
   -1.512719   11.16661  0.0000E+00  0.8960E-05  0.1984E-07  0.1259E-02  0.2279E-02  0.9350E+02
   -1.581481   11.16696  0.0000E+00  0.8609E-05  0.1800E-07  0.1305E-02  0.2019E-02  0.3996E+02
   -1.650242   11.16729  0.0000E+00  0.8280E-05  0.1643E-07  0.1330E-02  0.1785E-02  0.7287E+01
   -1.719004   11.16760  0.0000E+00  0.7971E-05  0.1510E-07  0.1340E-02  0.1573E-02  0.2706E+01
   -1.787766   11.16792  0.0000E+00  0.7679E-05  0.1397E-07  0.1347E-02  0.1383E-02  0.1801E+01
   -1.856527   11.16823  0.0000E+00  0.7405E-05  0.1304E-07  0.1346E-02  0.1211E-02  0.1625E+01
   -1.925288   11.16853  0.0000E+00  0.7147E-05  0.1227E-07  0.1338E-02  0.1058E-02  0.1476E+01
   -1.994049   11.16885  0.0000E+00  0.6906E-05  0.1168E-07  0.1318E-02  0.9203E-03  0.1337E+01
   -2.062809   11.16916  0.0000E+00  0.6681E-05  0.1124E-07  0.1284E-02  0.7980E-03  0.1207E+01
   -2.131569   11.16948  0.0000E+00  0.6473E-05  0.1095E-07  0.1237E-02  0.6894E-03  0.1104E+01
   -2.200329   11.16982  0.0000E+00  0.6281E-05  0.1083E-07  0.1178E-02  0.5929E-03  0.1075E+01
   -2.269088   11.17017  0.0000E+00  0.6104E-05  0.1087E-07  0.1107E-02  0.5067E-03  0.1086E+01
   -2.337847   11.17055  0.0000E+00  0.5939E-05  0.1109E-07  0.1029E-02  0.4328E-03  0.1224E+01
   -2.406606   11.17095  0.0000E+00  0.5782E-05  0.1154E-07  0.9455E-03  0.3706E-03  0.1647E+01
   -2.475364   11.17139  0.0000E+00  0.5619E-05  0.1234E-07  0.8472E-03  0.3174E-03  0.2690E+01
   -2.544121   11.17188  0.0000E+00  0.5430E-05  0.1384E-07  0.7300E-03  0.2682E-03  0.5471E+01
   -2.612878   11.17245  0.0000E+00  0.5139E-05  0.1751E-07  0.5482E-03  0.2226E-03  0.3072E+02
   -2.681634   11.17322  0.0000E+00  0.3186E-05  0.6076E-07  0.2422E-04  0.1722E-03 -0.1699E+04
   -2.750389   11.19079  0.0000E+00  0.0000E+00  0.0000E+00  0.0000E+00  0.1721E-03  0.0000E+00
