 1 - depth, m
 2 - temperature, C
 3 - salinity, kg/kg
 4 - turbulent kinetic energy, m**2/s**2
 5 - dissipation rate, m**2/s**3
 6 - kinematic heat conductance, m**2/s
 7 - modulus of horizontal velocity, m/s
 8 - Richardson number, n/d
   -0.000000    0.00000  0.0000E+00  0.1219E-13  0.7603E-17  0.1000E-09  0.0000E+00  0.1246E+17
   -0.068749    0.19190  0.0000E+00  0.1219E-13  0.7603E-17  0.1000E-09  0.0000E+00  0.1166E+17
   -0.137498    0.38125  0.0000E+00  0.1219E-13  0.7603E-17  0.1000E-09  0.0000E+00  0.1086E+17
   -0.206248    0.56767  0.0000E+00  0.1219E-13  0.7603E-17  0.1000E-09  0.0000E+00  0.1007E+17
   -0.274999    0.75079  0.0000E+00  0.1219E-13  0.7603E-17  0.1000E-09  0.0000E+00  0.9338E+16
   -0.343750    0.93086  0.0000E+00  0.1219E-13  0.7603E-17  0.1000E-09  0.0000E+00  0.8625E+16
   -0.412501    1.10772  0.0000E+00  0.1219E-13  0.7603E-17  0.1000E-09  0.0000E+00  0.7935E+16
   -0.481254    1.28115  0.0000E+00  0.1219E-13  0.7603E-17  0.1000E-09  0.0000E+00  0.7267E+16
   -0.550006    1.45084  0.0000E+00  0.1219E-13  0.7603E-17  0.1000E-09  0.0000E+00  0.6611E+16
   -0.618759    1.61624  0.0000E+00  0.2039E-13  0.7603E-17  0.1000E-09  0.0000E+00  0.5987E+16
   -0.687513    1.77712  0.0000E+00  0.7746E-13  0.9145E-17  0.1000E-09  0.0000E+00  0.5441E+16
   -0.756266    1.93468  0.0000E+00  0.1945E-12  0.1720E-16  0.1000E-09  0.0000E+00  0.4946E+16
   -0.825020    2.08962  0.0000E+00  0.4246E-12  0.3455E-16  0.1000E-09  0.0000E+00  0.4469E+16
   -0.893775    2.24181  0.0000E+00  0.8819E-12  0.6913E-16  0.1000E-09  0.0000E+00  0.4010E+16
   -0.962529    2.39106  0.0000E+00  0.1794E-11  0.1370E-15  0.1000E-09  0.0000E+00  0.3570E+16
   -1.031284    2.53720  0.0000E+00  0.3604E-11  0.2688E-15  0.1000E-09  0.0000E+00  0.3154E+16
   -1.100039    2.68017  0.0000E+00  0.7170E-11  0.5229E-15  0.1000E-09  0.0000E+00  0.2757E+16
   -1.168794    2.81976  0.0000E+00  0.1416E-10  0.1010E-14  0.1000E-09  0.0000E+00  0.2381E+16
   -1.237549    2.95572  0.0000E+00  0.2775E-10  0.1937E-14  0.1000E-09  0.0000E+00  0.2026E+16
   -1.306304    3.08778  0.0000E+00  0.5404E-10  0.3691E-14  0.1000E-09  0.0000E+00  0.1694E+16
   -1.375059    3.21565  0.0000E+00  0.1046E-09  0.6988E-14  0.1000E-09  0.0000E+00  0.1400E+16
   -1.443815    3.34043  0.0000E+00  0.2010E-09  0.1315E-13  0.1000E-09  0.0000E+00  0.1128E+16
   -1.512570    3.46241  0.0000E+00  0.3844E-09  0.2463E-13  0.1436E-09  0.0000E+00  0.8729E+15
   -1.581325    3.58154  0.0000E+00  0.7341E-09  0.4605E-13  0.3696E-09  0.0000E+00  0.6342E+15
   -1.650080    3.69767  0.0000E+00  0.1395E-08  0.8574E-13  0.1060E-08  0.0000E+00  0.4118E+15
   -1.718835    3.81045  0.0000E+00  0.2634E-08  0.1586E-12  0.3911E-08  0.0000E+00  0.2064E+15
   -1.787590    3.91832  0.0000E+00  0.4852E-08  0.2871E-12  0.4240E-07  0.0000E+00  0.3444E+14
   -1.856344    4.00148  0.0000E+00  0.5326E-08  0.3166E-12  0.3578E-04  0.0000E+00 -0.9126E+11
   -1.925099    4.00186  0.0000E+00  0.5539E-08  0.3327E-12  0.3557E-04  0.0000E+00 -0.1027E+12
   -1.993853    4.00228  0.0000E+00  0.5720E-08  0.3500E-12  0.3530E-04  0.0000E+00 -0.1067E+12
   -2.062606    4.00270  0.0000E+00  0.5872E-08  0.3691E-12  0.3471E-04  0.0000E+00 -0.1121E+12
   -2.131360    4.00313  0.0000E+00  0.5994E-08  0.3908E-12  0.3358E-04  0.0000E+00 -0.1197E+12
   -2.200113    4.00358  0.0000E+00  0.6087E-08  0.4163E-12  0.3188E-04  0.0000E+00 -0.1305E+12
   -2.268865    4.00405  0.0000E+00  0.6150E-08  0.4476E-12  0.2964E-04  0.0000E+00 -0.1463E+12
   -2.337617    4.00457  0.0000E+00  0.6179E-08  0.4891E-12  0.2667E-04  0.0000E+00 -0.1708E+12
   -2.406369    4.00516  0.0000E+00  0.6165E-08  0.5481E-12  0.2290E-04  0.0000E+00 -0.2113E+12
   -2.475120    4.00586  0.0000E+00  0.6090E-08  0.6400E-12  0.1824E-04  0.0000E+00 -0.2872E+12
   -2.543871    4.00678  0.0000E+00  0.5909E-08  0.8105E-12  0.1266E-04  0.0000E+00 -0.4681E+12
   -2.612621    4.00819  0.0000E+00  0.5468E-08  0.1249E-11  0.6242E-05  0.0000E+00 -0.1188E+13
   -2.681370    4.01142  0.0000E+00  0.3841E-08  0.3822E-11  0.8362E-06  0.0000E+00 -0.1865E+14
   -2.750119    4.04119  0.0000E+00  0.0000E+00  0.0000E+00  0.0000E+00  0.0000E+00  0.0000E+00
