 1 - depth, m
 2 - temperature, C
 3 - salinity, kg/kg
 4 - turbulent kinetic energy, m**2/s**2
 5 - dissipation rate, m**2/s**3
 6 - kinematic heat conductance, m**2/s
 7 - modulus of horizontal velocity, m/s
 8 - Richardson number, n/d
   -0.000000    0.00000  0.0000E+00  0.1219E-13  0.7603E-17  0.1000E-09  0.0000E+00  0.1270E+17
   -0.068739    0.19571  0.0000E+00  0.1219E-13  0.7603E-17  0.1000E-09  0.0000E+00  0.1200E+17
   -0.137479    0.39107  0.0000E+00  0.1219E-13  0.7603E-17  0.1000E-09  0.0000E+00  0.1129E+17
   -0.206220    0.58573  0.0000E+00  0.1219E-13  0.7603E-17  0.1000E-09  0.0000E+00  0.1057E+17
   -0.274961    0.77931  0.0000E+00  0.1219E-13  0.7603E-17  0.1000E-09  0.0000E+00  0.9876E+16
   -0.343703    0.97201  0.0000E+00  0.5184E-13  0.7604E-17  0.1000E-09  0.0000E+00  0.9177E+16
   -0.412445    1.16345  0.0000E+00  0.1405E-12  0.1204E-16  0.1000E-09  0.0000E+00  0.8473E+16
   -0.481188    1.35317  0.0000E+00  0.3073E-12  0.2269E-16  0.1000E-09  0.0000E+00  0.7766E+16
   -0.549931    1.54056  0.0000E+00  0.6222E-12  0.4356E-16  0.1000E-09  0.0000E+00  0.7054E+16
   -0.618675    1.72477  0.0000E+00  0.1223E-11  0.8314E-16  0.1000E-09  0.0000E+00  0.6359E+16
   -0.687419    1.90530  0.0000E+00  0.2369E-11  0.1575E-15  0.1000E-09  0.0000E+00  0.5720E+16
   -0.756163    2.08281  0.0000E+00  0.4552E-11  0.2965E-15  0.1000E-09  0.0000E+00  0.5120E+16
   -0.824908    2.25761  0.0000E+00  0.8691E-11  0.5549E-15  0.1000E-09  0.0000E+00  0.4538E+16
   -0.893653    2.42938  0.0000E+00  0.1650E-10  0.1033E-14  0.1000E-09  0.0000E+00  0.3978E+16
   -0.962398    2.59780  0.0000E+00  0.3116E-10  0.1913E-14  0.1000E-09  0.0000E+00  0.3441E+16
   -1.031143    2.76253  0.0000E+00  0.5846E-10  0.3520E-14  0.1000E-09  0.0000E+00  0.2935E+16
   -1.099889    2.92342  0.0000E+00  0.1090E-09  0.6436E-14  0.1000E-09  0.0000E+00  0.2453E+16
   -1.168634    3.07997  0.0000E+00  0.2020E-09  0.1170E-13  0.1000E-09  0.0000E+00  0.1998E+16
   -1.237380    3.23150  0.0000E+00  0.3724E-09  0.2118E-13  0.1000E-09  0.0000E+00  0.1574E+16
   -1.306126    3.37723  0.0000E+00  0.6833E-09  0.3812E-13  0.1636E-09  0.0000E+00  0.1186E+16
   -1.374872    3.51635  0.0000E+00  0.1247E-08  0.6828E-13  0.4088E-09  0.0000E+00  0.8501E+15
   -1.443618    3.65011  0.0000E+00  0.2264E-08  0.1217E-12  0.1123E-08  0.0000E+00  0.5512E+15
   -1.512363    3.77902  0.0000E+00  0.4087E-08  0.2157E-12  0.3891E-08  0.0000E+00  0.2822E+15
   -1.581109    3.90248  0.0000E+00  0.7257E-08  0.3768E-12  0.3609E-07  0.0000E+00  0.5313E+14
   -1.649855    4.00222  0.0000E+00  0.7658E-08  0.3988E-12  0.5961E-04  0.0000E+00 -0.6450E+11
   -1.718600    4.00248  0.0000E+00  0.7839E-08  0.4106E-12  0.5797E-04  0.0000E+00 -0.7562E+11
   -1.787346    4.00278  0.0000E+00  0.7995E-08  0.4230E-12  0.5832E-04  0.0000E+00 -0.7784E+11
   -1.856091    4.00308  0.0000E+00  0.8133E-08  0.4368E-12  0.5801E-04  0.0000E+00 -0.8001E+11
   -1.924836    4.00338  0.0000E+00  0.8252E-08  0.4523E-12  0.5695E-04  0.0000E+00 -0.8306E+11
   -1.993581    4.00368  0.0000E+00  0.8351E-08  0.4701E-12  0.5485E-04  0.0000E+00 -0.8775E+11
   -2.062325    4.00400  0.0000E+00  0.8429E-08  0.4905E-12  0.5237E-04  0.0000E+00 -0.9397E+11
   -2.131069    4.00434  0.0000E+00  0.8484E-08  0.5146E-12  0.4952E-04  0.0000E+00 -0.1018E+12
   -2.199812    4.00470  0.0000E+00  0.8513E-08  0.5435E-12  0.4623E-04  0.0000E+00 -0.1118E+12
   -2.268556    4.00508  0.0000E+00  0.8513E-08  0.5795E-12  0.4238E-04  0.0000E+00 -0.1257E+12
   -2.337298    4.00550  0.0000E+00  0.8478E-08  0.6278E-12  0.3769E-04  0.0000E+00 -0.1464E+12
   -2.406041    4.00598  0.0000E+00  0.8395E-08  0.6967E-12  0.3203E-04  0.0000E+00 -0.1798E+12
   -2.474782    4.00656  0.0000E+00  0.8241E-08  0.8042E-12  0.2534E-04  0.0000E+00 -0.2403E+12
   -2.543524    4.00730  0.0000E+00  0.7958E-08  0.1002E-11  0.1751E-04  0.0000E+00 -0.3785E+12
   -2.612264    4.00842  0.0000E+00  0.7350E-08  0.1507E-11  0.8666E-05  0.0000E+00 -0.8927E+12
   -2.681004    4.01087  0.0000E+00  0.4886E-08  0.4763E-11  0.9434E-06  0.0000E+00 -0.1461E+14
   -2.749744    4.03600  0.0000E+00  0.0000E+00  0.0000E+00  0.0000E+00  0.0000E+00  0.0000E+00
