 1 - depth, m
 2 - temperature, C
 3 - salinity, kg/kg
 4 - turbulent kinetic energy, m**2/s**2
 5 - dissipation rate, m**2/s**3
 6 - kinematic heat conductance, m**2/s
 7 - modulus of horizontal velocity, m/s
 8 - Richardson number, n/d
   -0.000000    0.00000  0.0000E+00  0.4756E-09  0.4630E-12  0.1000E-09  0.0000E+00  0.4717E+17
   -0.068732    0.79056  0.0000E+00  0.3410E-08  0.4434E-12  0.1000E-09  0.0000E+00  0.3429E+17
   -0.137464    1.53030  0.0000E+00  0.9239E-08  0.7677E-12  0.1645E-09  0.0000E+00  0.2376E+17
   -0.206197    2.22565  0.0000E+00  0.2011E-07  0.1483E-11  0.5021E-09  0.0000E+00  0.1504E+17
   -0.274930    2.88014  0.0000E+00  0.4065E-07  0.2870E-11  0.1878E-08  0.0000E+00  0.7786E+16
   -0.343664    3.49372  0.0000E+00  0.7927E-07  0.5468E-11  0.1474E-07  0.0000E+00  0.1896E+16
   -0.412399    4.02921  0.0000E+00  0.7991E-07  0.5514E-11  0.3975E-03  0.0000E+00 -0.1273E+12
   -0.481134    4.02940  0.0000E+00  0.8019E-07  0.5540E-11  0.3890E-03  0.0000E+00 -0.1358E+12
   -0.549869    4.02960  0.0000E+00  0.8045E-07  0.5568E-11  0.3872E-03  0.0000E+00 -0.1364E+12
   -0.618605    4.02980  0.0000E+00  0.8068E-07  0.5599E-11  0.3869E-03  0.0000E+00 -0.1356E+12
   -0.687341    4.03000  0.0000E+00  0.8090E-07  0.5634E-11  0.3867E-03  0.0000E+00 -0.1350E+12
   -0.756078    4.03020  0.0000E+00  0.8109E-07  0.5672E-11  0.3861E-03  0.0000E+00 -0.1349E+12
   -0.824815    4.03040  0.0000E+00  0.8126E-07  0.5715E-11  0.3851E-03  0.0000E+00 -0.1351E+12
   -0.893552    4.03059  0.0000E+00  0.8141E-07  0.5762E-11  0.3837E-03  0.0000E+00 -0.1357E+12
   -0.962289    4.03079  0.0000E+00  0.8154E-07  0.5814E-11  0.3818E-03  0.0000E+00 -0.1367E+12
   -1.031027    4.03098  0.0000E+00  0.8165E-07  0.5871E-11  0.3795E-03  0.0000E+00 -0.1380E+12
   -1.099764    4.03118  0.0000E+00  0.8174E-07  0.5933E-11  0.3767E-03  0.0000E+00 -0.1397E+12
   -1.168502    4.03138  0.0000E+00  0.8181E-07  0.6001E-11  0.3735E-03  0.0000E+00 -0.1417E+12
   -1.237240    4.03158  0.0000E+00  0.8186E-07  0.6075E-11  0.3698E-03  0.0000E+00 -0.1440E+12
   -1.305978    4.03178  0.0000E+00  0.8188E-07  0.6156E-11  0.3657E-03  0.0000E+00 -0.1467E+12
   -1.374717    4.03199  0.0000E+00  0.8189E-07  0.6245E-11  0.3611E-03  0.0000E+00 -0.1496E+12
   -1.443455    4.03220  0.0000E+00  0.8187E-07  0.6342E-11  0.3561E-03  0.0000E+00 -0.1528E+12
   -1.512193    4.03241  0.0000E+00  0.8182E-07  0.6448E-11  0.3506E-03  0.0000E+00 -0.1563E+12
   -1.580931    4.03262  0.0000E+00  0.8175E-07  0.6566E-11  0.3444E-03  0.0000E+00 -0.1603E+12
   -1.649669    4.03284  0.0000E+00  0.8166E-07  0.6698E-11  0.3377E-03  0.0000E+00 -0.1648E+12
   -1.718406    4.03307  0.0000E+00  0.8153E-07  0.6846E-11  0.3304E-03  0.0000E+00 -0.1699E+12
   -1.787144    4.03330  0.0000E+00  0.8138E-07  0.7012E-11  0.3223E-03  0.0000E+00 -0.1757E+12
   -1.855881    4.03354  0.0000E+00  0.8119E-07  0.7200E-11  0.3136E-03  0.0000E+00 -0.1823E+12
   -1.924619    4.03379  0.0000E+00  0.8096E-07  0.7414E-11  0.3041E-03  0.0000E+00 -0.1899E+12
   -1.993355    4.03404  0.0000E+00  0.8070E-07  0.7659E-11  0.2939E-03  0.0000E+00 -0.1987E+12
   -2.062092    4.03430  0.0000E+00  0.8039E-07  0.7941E-11  0.2827E-03  0.0000E+00 -0.2086E+12
   -2.130828    4.03458  0.0000E+00  0.8004E-07  0.8271E-11  0.2706E-03  0.0000E+00 -0.2203E+12
   -2.199564    4.03487  0.0000E+00  0.7964E-07  0.8661E-11  0.2576E-03  0.0000E+00 -0.2340E+12
   -2.268300    4.03518  0.0000E+00  0.7918E-07  0.9133E-11  0.2431E-03  0.0000E+00 -0.2507E+12
   -2.337035    4.03550  0.0000E+00  0.7862E-07  0.9737E-11  0.2270E-03  0.0000E+00 -0.2718E+12
   -2.405769    4.03585  0.0000E+00  0.7789E-07  0.1059E-10  0.2078E-03  0.0000E+00 -0.3006E+12
   -2.474503    4.03624  0.0000E+00  0.7674E-07  0.1209E-10  0.1361E-03  0.0000E+00 -0.4661E+12
   -2.543236    4.03683  0.0000E+00  0.7471E-07  0.1516E-10  0.8266E-04  0.0000E+00 -0.7857E+12
   -2.611969    4.03782  0.0000E+00  0.7067E-07  0.2285E-10  0.4155E-04  0.0000E+00 -0.1631E+13
   -2.680702    4.03980  0.0000E+00  0.4429E-07  0.9686E-10  0.2849E-05  0.0000E+00 -0.3064E+14
   -2.749433    4.06861  0.0000E+00  0.0000E+00  0.0000E+00  0.0000E+00  0.0000E+00  0.0000E+00
