 1 - depth, m
 2 - temperature, C
 3 - salinity, kg/kg
 4 - turbulent kinetic energy, m**2/s**2
 5 - dissipation rate, m**2/s**3
 6 - kinematic heat conductance, m**2/s
 7 - modulus of horizontal velocity, m/s
 8 - Richardson number, n/d
   -0.000000    0.00000  0.0000E+00  0.1219E-13  0.7604E-17  0.1000E-09  0.0000E+00  0.1389E+17
   -0.068764    0.21454  0.0000E+00  0.1219E-13  0.7604E-17  0.1000E-09  0.0000E+00  0.1245E+17
   -0.137529    0.41851  0.0000E+00  0.1219E-13  0.7604E-17  0.1000E-09  0.0000E+00  0.1114E+17
   -0.206294    0.61215  0.0000E+00  0.1219E-13  0.7604E-17  0.1000E-09  0.0000E+00  0.9958E+16
   -0.275060    0.79576  0.0000E+00  0.1219E-13  0.7604E-17  0.1000E-09  0.0000E+00  0.8996E+16
   -0.343827    0.97177  0.0000E+00  0.1219E-13  0.7604E-17  0.1000E-09  0.0000E+00  0.8141E+16
   -0.412594    1.14091  0.0000E+00  0.1283E-13  0.7604E-17  0.1000E-09  0.0000E+00  0.7365E+16
   -0.481362    1.30357  0.0000E+00  0.6096E-13  0.9568E-17  0.1000E-09  0.0000E+00  0.6648E+16
   -0.550130    1.45979  0.0000E+00  0.1708E-12  0.2056E-16  0.1000E-09  0.0000E+00  0.5950E+16
   -0.618898    1.60867  0.0000E+00  0.4136E-12  0.4649E-16  0.1000E-09  0.0000E+00  0.5324E+16
   -0.687667    1.75064  0.0000E+00  0.9576E-12  0.1041E-15  0.1000E-09  0.0000E+00  0.4900E+16
   -0.756436    1.89013  0.0000E+00  0.2178E-11  0.2306E-15  0.1000E-09  0.0000E+00  0.4595E+16
   -0.825206    2.03027  0.0000E+00  0.4899E-11  0.5061E-15  0.1000E-09  0.0000E+00  0.4311E+16
   -0.893975    2.17190  0.0000E+00  0.1093E-10  0.1102E-14  0.1000E-09  0.0000E+00  0.4042E+16
   -0.962745    2.31591  0.0000E+00  0.2417E-10  0.2379E-14  0.1000E-09  0.0000E+00  0.3780E+16
   -1.031516    2.46322  0.0000E+00  0.5298E-10  0.5092E-14  0.1000E-09  0.0000E+00  0.3529E+16
   -1.100286    2.61537  0.0000E+00  0.1151E-09  0.1081E-13  0.1000E-09  0.0000E+00  0.3262E+16
   -1.169056    2.77328  0.0000E+00  0.2484E-09  0.2278E-13  0.1000E-09  0.0000E+00  0.2967E+16
   -1.237827    2.93778  0.0000E+00  0.5325E-09  0.4774E-13  0.1007E-09  0.0000E+00  0.2630E+16
   -1.306598    3.10956  0.0000E+00  0.1136E-08  0.9959E-13  0.2263E-09  0.0000E+00  0.2241E+16
   -1.375368    3.28910  0.0000E+00  0.2419E-08  0.2074E-12  0.5851E-09  0.0000E+00  0.1806E+16
   -1.444139    3.47869  0.0000E+00  0.5147E-08  0.4321E-12  0.1708E-08  0.0000E+00  0.1289E+16
   -1.512910    3.67963  0.0000E+00  0.1094E-07  0.9001E-12  0.6975E-08  0.0000E+00  0.6659E+15
   -1.581680    3.89343  0.0000E+00  0.2020E-07  0.1639E-11  0.4207E-05  0.0000E+00  0.6755E+14
   -1.650451    4.01645  0.0000E+00  0.2102E-07  0.1710E-11  0.9688E-04  0.0000E+00 -0.1645E+12
   -1.719221    4.01681  0.0000E+00  0.2140E-07  0.1750E-11  0.9734E-04  0.0000E+00 -0.1837E+12
   -1.787991    4.01720  0.0000E+00  0.2174E-07  0.1793E-11  0.9981E-04  0.0000E+00 -0.1868E+12
   -1.856761    4.01759  0.0000E+00  0.2202E-07  0.1840E-11  0.1021E-03  0.0000E+00 -0.1891E+12
   -1.925531    4.01798  0.0000E+00  0.2226E-07  0.1891E-11  0.1029E-03  0.0000E+00 -0.1939E+12
   -1.994301    4.01837  0.0000E+00  0.2246E-07  0.1946E-11  0.1022E-03  0.0000E+00 -0.2021E+12
   -2.063070    4.01878  0.0000E+00  0.2260E-07  0.2007E-11  0.1003E-03  0.0000E+00 -0.2087E+12
   -2.131839    4.01919  0.0000E+00  0.2270E-07  0.2077E-11  0.9770E-04  0.0000E+00 -0.2164E+12
   -2.200607    4.01961  0.0000E+00  0.2275E-07  0.2162E-11  0.9429E-04  0.0000E+00 -0.2266E+12
   -2.269375    4.02004  0.0000E+00  0.2274E-07  0.2277E-11  0.8738E-04  0.0000E+00 -0.2478E+12
   -2.338143    4.02051  0.0000E+00  0.2264E-07  0.2441E-11  0.7386E-04  0.0000E+00 -0.2982E+12
   -2.406910    4.02107  0.0000E+00  0.2244E-07  0.2679E-11  0.6086E-04  0.0000E+00 -0.3697E+12
   -2.475676    4.02174  0.0000E+00  0.2206E-07  0.3049E-11  0.4813E-04  0.0000E+00 -0.4811E+12
   -2.544442    4.02260  0.0000E+00  0.2140E-07  0.3719E-11  0.3389E-04  0.0000E+00 -0.7149E+12
   -2.613208    4.02384  0.0000E+00  0.2001E-07  0.5370E-11  0.1762E-04  0.0000E+00 -0.1494E+13
   -2.681973    4.02630  0.0000E+00  0.1340E-07  0.1741E-10  0.1768E-05  0.0000E+00 -0.2150E+14
   -2.750737    4.05224  0.0000E+00  0.0000E+00  0.0000E+00  0.0000E+00  0.0000E+00  0.0000E+00
