 1 - depth, m
 2 - temperature, C
 3 - salinity, kg/kg
 4 - turbulent kinetic energy, m**2/s**2
 5 - dissipation rate, m**2/s**3
 6 - kinematic heat conductance, m**2/s
 7 - modulus of horizontal velocity, m/s
 8 - Richardson number, n/d
   -0.000000    0.00000  0.0000E+00  0.1219E-13  0.7603E-17  0.1000E-09  0.0000E+00  0.1443E+17
   -0.068759    0.22317  0.0000E+00  0.5474E-13  0.7604E-17  0.1000E-09  0.0000E+00  0.1346E+17
   -0.137519    0.44483  0.0000E+00  0.1471E-12  0.1202E-16  0.1000E-09  0.0000E+00  0.1249E+17
   -0.206280    0.66450  0.0000E+00  0.3191E-12  0.2241E-16  0.1000E-09  0.0000E+00  0.1152E+17
   -0.275041    0.88170  0.0000E+00  0.6385E-12  0.4243E-16  0.1000E-09  0.0000E+00  0.1059E+17
   -0.343802    1.09649  0.0000E+00  0.1235E-11  0.7959E-16  0.1000E-09  0.0000E+00  0.9674E+16
   -0.412565    1.30856  0.0000E+00  0.2351E-11  0.1479E-15  0.1000E-09  0.0000E+00  0.8780E+16
   -0.481327    1.51752  0.0000E+00  0.4432E-11  0.2729E-15  0.1000E-09  0.0000E+00  0.7907E+16
   -0.550090    1.72288  0.0000E+00  0.8307E-11  0.5007E-15  0.1000E-09  0.0000E+00  0.7053E+16
   -0.618854    1.92392  0.0000E+00  0.1548E-10  0.9137E-15  0.1000E-09  0.0000E+00  0.6233E+16
   -0.687618    2.12021  0.0000E+00  0.2868E-10  0.1658E-14  0.1000E-09  0.0000E+00  0.5489E+16
   -0.756382    2.31266  0.0000E+00  0.5281E-10  0.2991E-14  0.1000E-09  0.0000E+00  0.4797E+16
   -0.825146    2.50174  0.0000E+00  0.9670E-10  0.5367E-14  0.1000E-09  0.0000E+00  0.4133E+16
   -0.893911    2.68714  0.0000E+00  0.1761E-09  0.9578E-14  0.1000E-09  0.0000E+00  0.3502E+16
   -0.962676    2.86860  0.0000E+00  0.3188E-09  0.1700E-13  0.1000E-09  0.0000E+00  0.2905E+16
   -1.031441    3.04587  0.0000E+00  0.5734E-09  0.2997E-13  0.1000E-09  0.0000E+00  0.2347E+16
   -1.100207    3.21899  0.0000E+00  0.1024E-08  0.5251E-13  0.1464E-09  0.0000E+00  0.1826E+16
   -1.168972    3.38786  0.0000E+00  0.1819E-08  0.9145E-13  0.3472E-09  0.0000E+00  0.1341E+16
   -1.237738    3.55231  0.0000E+00  0.3213E-08  0.1584E-12  0.9049E-09  0.0000E+00  0.8912E+15
   -1.306504    3.71206  0.0000E+00  0.5636E-08  0.2727E-12  0.2912E-08  0.0000E+00  0.4768E+15
   -1.375270    3.86576  0.0000E+00  0.9747E-08  0.4632E-12  0.2100E-07  0.0000E+00  0.1124E+15
   -1.444035    4.00044  0.0000E+00  0.1009E-07  0.4802E-12  0.8010E-04  0.0000E+00 -0.5351E+11
   -1.512801    4.00068  0.0000E+00  0.1024E-07  0.4895E-12  0.7859E-04  0.0000E+00 -0.6139E+11
   -1.581567    4.00095  0.0000E+00  0.1038E-07  0.4995E-12  0.8018E-04  0.0000E+00 -0.6232E+11
   -1.650332    4.00122  0.0000E+00  0.1050E-07  0.5102E-12  0.8167E-04  0.0000E+00 -0.6268E+11
   -1.719098    4.00149  0.0000E+00  0.1061E-07  0.5219E-12  0.8258E-04  0.0000E+00 -0.6331E+11
   -1.787863    4.00175  0.0000E+00  0.1070E-07  0.5348E-12  0.8287E-04  0.0000E+00 -0.6438E+11
   -1.856628    4.00202  0.0000E+00  0.1078E-07  0.5495E-12  0.8231E-04  0.0000E+00 -0.6613E+11
   -1.925393    4.00228  0.0000E+00  0.1085E-07  0.5667E-12  0.8024E-04  0.0000E+00 -0.6923E+11
   -1.994157    4.00256  0.0000E+00  0.1090E-07  0.5869E-12  0.7653E-04  0.0000E+00 -0.7416E+11
   -2.062922    4.00285  0.0000E+00  0.1093E-07  0.6108E-12  0.7095E-04  0.0000E+00 -0.8146E+11
   -2.131685    4.00316  0.0000E+00  0.1094E-07  0.6396E-12  0.6492E-04  0.0000E+00 -0.9071E+11
   -2.200449    4.00350  0.0000E+00  0.1093E-07  0.6747E-12  0.5921E-04  0.0000E+00 -0.1016E+12
   -2.269212    4.00387  0.0000E+00  0.1089E-07  0.7189E-12  0.5353E-04  0.0000E+00 -0.1152E+12
   -2.337975    4.00429  0.0000E+00  0.1081E-07  0.7784E-12  0.4715E-04  0.0000E+00 -0.1348E+12
   -2.406737    4.00476  0.0000E+00  0.1067E-07  0.8635E-12  0.3975E-04  0.0000E+00 -0.1657E+12
   -2.475498    4.00532  0.0000E+00  0.1045E-07  0.9961E-12  0.3122E-04  0.0000E+00 -0.2208E+12
   -2.544260    4.00605  0.0000E+00  0.1009E-07  0.1240E-11  0.2145E-04  0.0000E+00 -0.3441E+12
   -2.613020    4.00713  0.0000E+00  0.9339E-08  0.1858E-11  0.1063E-04  0.0000E+00 -0.7860E+12
   -2.681780    4.00942  0.0000E+00  0.6144E-08  0.6078E-11  0.1079E-05  0.0000E+00 -0.1288E+14
   -2.750539    4.03299  0.0000E+00  0.0000E+00  0.0000E+00  0.0000E+00  0.0000E+00  0.0000E+00
