 1 - depth, m
 2 - temperature, C
 3 - salinity, kg/kg
 4 - turbulent kinetic energy, m**2/s**2
 5 - dissipation rate, m**2/s**3
 6 - kinematic heat conductance, m**2/s
 7 - modulus of horizontal velocity, m/s
 8 - Richardson number, n/d
   -0.000000   12.54048  0.0000E+00  0.4582E-04  0.9263E-05  0.5841E-04  0.4831E-01 -0.3939E-01
   -0.068737   12.58595  0.0000E+00  0.2576E-04  0.1928E-05  0.8264E-04  0.1994E-01 -0.9271E-01
   -0.137474   12.59920  0.0000E+00  0.1968E-04  0.7159E-06  0.1315E-03  0.1442E-01 -0.1604E+00
   -0.206211   12.60771  0.0000E+00  0.1626E-04  0.3315E-06  0.2271E-03  0.1118E-01  0.4080E+03
   -0.274950   12.61378  0.0000E+00  0.1434E-04  0.1845E-06  0.3069E-03  0.9015E-02  0.5168E+03
   -0.343689   12.61842  0.0000E+00  0.1313E-04  0.1181E-06  0.3829E-03  0.7429E-02  0.2320E+02
   -0.412428   12.62203  0.0000E+00  0.1231E-04  0.8330E-07  0.4740E-03  0.6234E-02  0.7111E+01
   -0.481168   12.62483  0.0000E+00  0.1171E-04  0.6291E-07  0.5834E-03  0.5320E-02  0.3002E+01
   -0.549909   12.62698  0.0000E+00  0.1129E-04  0.5024E-07  0.7815E-03  0.4612E-02  0.5529E+02
   -0.618649   12.62843  0.0000E+00  0.1101E-04  0.4213E-07  0.9975E-03  0.4086E-02  0.7967E+02
   -0.687390   12.62943  0.0000E+00  0.1083E-04  0.3644E-07  0.1126E-02  0.3674E-02  0.1560E+03
   -0.756132   12.63025  0.0000E+00  0.1069E-04  0.3206E-07  0.1223E-02  0.3310E-02  0.4390E+01
   -0.824874   12.63099  0.0000E+00  0.1059E-04  0.2858E-07  0.1303E-02  0.2986E-02  0.3116E+01
   -0.893616   12.63168  0.0000E+00  0.1052E-04  0.2579E-07  0.1377E-02  0.2697E-02  0.2820E+01
   -0.962358   12.63233  0.0000E+00  0.1046E-04  0.2352E-07  0.1449E-02  0.2439E-02  0.2574E+01
   -1.031101   12.63294  0.0000E+00  0.1042E-04  0.2166E-07  0.1509E-02  0.2209E-02  0.2502E+01
   -1.099843   12.63353  0.0000E+00  0.1038E-04  0.2013E-07  0.1566E-02  0.1997E-02  0.2433E+01
   -1.168586   12.63409  0.0000E+00  0.1033E-04  0.1886E-07  0.1620E-02  0.1803E-02  0.2360E+01
   -1.237329   12.63463  0.0000E+00  0.1029E-04  0.1782E-07  0.1669E-02  0.1624E-02  0.2286E+01
   -1.306072   12.63516  0.0000E+00  0.1024E-04  0.1695E-07  0.1713E-02  0.1459E-02  0.2212E+01
   -1.374815   12.63567  0.0000E+00  0.1018E-04  0.1624E-07  0.1751E-02  0.1307E-02  0.2139E+01
   -1.443558   12.63617  0.0000E+00  0.1010E-04  0.1567E-07  0.1784E-02  0.1166E-02  0.2068E+01
   -1.512301   12.63666  0.0000E+00  0.1002E-04  0.1523E-07  0.1823E-02  0.1035E-02  0.1928E+01
   -1.581044   12.63713  0.0000E+00  0.9919E-05  0.1490E-07  0.1863E-02  0.9185E-03  0.1778E+01
   -1.649787   12.63760  0.0000E+00  0.9811E-05  0.1468E-07  0.1905E-02  0.8153E-03  0.1649E+01
   -1.718530   12.63805  0.0000E+00  0.9695E-05  0.1456E-07  0.1937E-02  0.7250E-03  0.1533E+01
   -1.787272   12.63849  0.0000E+00  0.9573E-05  0.1454E-07  0.1924E-02  0.6462E-03  0.1428E+01
   -1.856015   12.63893  0.0000E+00  0.9447E-05  0.1461E-07  0.1876E-02  0.5776E-03  0.1356E+01
   -1.924757   12.63939  0.0000E+00  0.9318E-05  0.1477E-07  0.1807E-02  0.5179E-03  0.1323E+01
   -1.993499   12.63986  0.0000E+00  0.9186E-05  0.1503E-07  0.1726E-02  0.4658E-03  0.1323E+01
   -2.062240   12.64036  0.0000E+00  0.9053E-05  0.1538E-07  0.1638E-02  0.4201E-03  0.1366E+01
   -2.130981   12.64089  0.0000E+00  0.8919E-05  0.1585E-07  0.1547E-02  0.3798E-03  0.1461E+01
   -2.199722   12.64145  0.0000E+00  0.8780E-05  0.1645E-07  0.1454E-02  0.3440E-03  0.1721E+01
   -2.268463   12.64205  0.0000E+00  0.8628E-05  0.1727E-07  0.1350E-02  0.3109E-03  0.2230E+01
   -2.337202   12.64269  0.0000E+00  0.8448E-05  0.1845E-07  0.1220E-02  0.2790E-03  0.3213E+01
   -2.405942   12.64341  0.0000E+00  0.8228E-05  0.2024E-07  0.1074E-02  0.2476E-03  0.5158E+01
   -2.474681   12.64423  0.0000E+00  0.7948E-05  0.2315E-07  0.8657E-03  0.2163E-03  0.9659E+01
   -2.543419   12.64525  0.0000E+00  0.7567E-05  0.2853E-07  0.7845E-03  0.1836E-03  0.1912E+02
   -2.612157   12.64637  0.0000E+00  0.6801E-05  0.4635E-07  0.3371E-03  0.1548E-03 -0.6124E+02
   -2.680894   12.65113  0.0000E+00  0.4068E-05  0.1570E-06  0.7916E-04  0.1005E-03 -0.1209E+04
   -2.749631   12.66259  0.0000E+00  0.0000E+00  0.0000E+00  0.0000E+00  0.1137E-03  0.0000E+00
