 1 - depth, m
 2 - temperature, C
 3 - salinity, kg/kg
 4 - turbulent kinetic energy, m**2/s**2
 5 - dissipation rate, m**2/s**3
 6 - kinematic heat conductance, m**2/s
 7 - modulus of horizontal velocity, m/s
 8 - Richardson number, n/d
   -0.000000    9.04425  0.0000E+00  0.1446E-04  0.6527E-06  0.3446E-04  0.2037E-01 -0.3981E-01
   -0.068729    9.08568  0.0000E+00  0.1208E-04  0.2252E-06  0.8072E-04  0.1147E-01 -0.1324E+00
   -0.137459    9.10252  0.0000E+00  0.1062E-04  0.1186E-06  0.1503E-03  0.8058E-02  0.1438E+03
   -0.206189    9.11226  0.0000E+00  0.9650E-05  0.7469E-07  0.2429E-03  0.6161E-02  0.4995E+02
   -0.274920    9.11858  0.0000E+00  0.9031E-05  0.5272E-07  0.3331E-03  0.4989E-02  0.2479E+02
   -0.343651    9.12305  0.0000E+00  0.8612E-05  0.4005E-07  0.4367E-03  0.4179E-02  0.3195E+02
   -0.412383    9.12627  0.0000E+00  0.8329E-05  0.3223E-07  0.6137E-03  0.3586E-02  0.1498E+02
   -0.481116    9.12828  0.0000E+00  0.8162E-05  0.2741E-07  0.8326E-03  0.3154E-02  0.3500E+01
   -0.549849    9.12965  0.0000E+00  0.8062E-05  0.2398E-07  0.9102E-03  0.2839E-02  0.3206E+01
   -0.618582    9.13088  0.0000E+00  0.7985E-05  0.2117E-07  0.1001E-02  0.2538E-02  0.3083E+01
   -0.687316    9.13197  0.0000E+00  0.7929E-05  0.1894E-07  0.1090E-02  0.2276E-02  0.2860E+01
   -0.756050    9.13295  0.0000E+00  0.7885E-05  0.1712E-07  0.1178E-02  0.2044E-02  0.2671E+01
   -0.824784    9.13385  0.0000E+00  0.7850E-05  0.1562E-07  0.1257E-02  0.1837E-02  0.2489E+01
   -0.893519    9.13467  0.0000E+00  0.7819E-05  0.1438E-07  0.1332E-02  0.1654E-02  0.2321E+01
   -0.962253    9.13544  0.0000E+00  0.7789E-05  0.1335E-07  0.1406E-02  0.1491E-02  0.2163E+01
   -1.030988    9.13616  0.0000E+00  0.7759E-05  0.1248E-07  0.1470E-02  0.1347E-02  0.2096E+01
   -1.099724    9.13683  0.0000E+00  0.7726E-05  0.1175E-07  0.1530E-02  0.1217E-02  0.2029E+01
   -1.168459    9.13746  0.0000E+00  0.7688E-05  0.1113E-07  0.1586E-02  0.1097E-02  0.1961E+01
   -1.237194    9.13807  0.0000E+00  0.7645E-05  0.1061E-07  0.1639E-02  0.9888E-03  0.1894E+01
   -1.305930    9.13864  0.0000E+00  0.7596E-05  0.1018E-07  0.1686E-02  0.8896E-03  0.1827E+01
   -1.374666    9.13919  0.0000E+00  0.7541E-05  0.9813E-08  0.1727E-02  0.7989E-03  0.1763E+01
   -1.443401    9.13971  0.0000E+00  0.7480E-05  0.9516E-08  0.1764E-02  0.7159E-03  0.1701E+01
   -1.512137    9.14022  0.0000E+00  0.7413E-05  0.9279E-08  0.1801E-02  0.6398E-03  0.1604E+01
   -1.580872    9.14070  0.0000E+00  0.7341E-05  0.9098E-08  0.1823E-02  0.5721E-03  0.1502E+01
   -1.649607    9.14117  0.0000E+00  0.7266E-05  0.8969E-08  0.1817E-02  0.5126E-03  0.1414E+01
   -1.718343    9.14164  0.0000E+00  0.7189E-05  0.8888E-08  0.1794E-02  0.4607E-03  0.1336E+01
   -1.787078    9.14211  0.0000E+00  0.7110E-05  0.8852E-08  0.1761E-02  0.4152E-03  0.1279E+01
   -1.855813    9.14257  0.0000E+00  0.7030E-05  0.8860E-08  0.1721E-02  0.3754E-03  0.1240E+01
   -1.924547    9.14305  0.0000E+00  0.6950E-05  0.8910E-08  0.1674E-02  0.3405E-03  0.1238E+01
   -1.993281    9.14353  0.0000E+00  0.6870E-05  0.9004E-08  0.1620E-02  0.3095E-03  0.1270E+01
   -2.062015    9.14401  0.0000E+00  0.6788E-05  0.9146E-08  0.1561E-02  0.2819E-03  0.1357E+01
   -2.130749    9.14451  0.0000E+00  0.6706E-05  0.9344E-08  0.1498E-02  0.2569E-03  0.1526E+01
   -2.199482    9.14502  0.0000E+00  0.6618E-05  0.9617E-08  0.1426E-02  0.2337E-03  0.1870E+01
   -2.268215    9.14555  0.0000E+00  0.6523E-05  0.9997E-08  0.1339E-02  0.2109E-03  0.2362E+01
   -2.336948    9.14610  0.0000E+00  0.6414E-05  0.1054E-07  0.1235E-02  0.1887E-03  0.3219E+01
   -2.405680    9.14669  0.0000E+00  0.6289E-05  0.1135E-07  0.1113E-02  0.1671E-03  0.4741E+01
   -2.474411    9.14734  0.0000E+00  0.6139E-05  0.1261E-07  0.9711E-03  0.1459E-03  0.7785E+01
   -2.543142    9.14807  0.0000E+00  0.5946E-05  0.1479E-07  0.7821E-03  0.1249E-03  0.1527E+02
   -2.611872    9.14897  0.0000E+00  0.5662E-05  0.1941E-07  0.6217E-03  0.1039E-03  0.3799E+02
   -2.680602    9.15008  0.0000E+00  0.3628E-05  0.7267E-07  0.2654E-04  0.8521E-04 -0.3810E+04
   -2.749331    9.17570  0.0000E+00  0.0000E+00  0.0000E+00  0.0000E+00  0.8514E-04  0.0000E+00
