 1 - depth, m
 2 - temperature, C
 3 - salinity, kg/kg
 4 - turbulent kinetic energy, m**2/s**2
 5 - dissipation rate, m**2/s**3
 6 - kinematic heat conductance, m**2/s
 7 - modulus of horizontal velocity, m/s
 8 - Richardson number, n/d
   -0.000000    0.00000  0.0000E+00  0.3557E-08  0.5816E-11  0.4497E-09  0.0000E+00  0.6574E+17
   -0.068774    1.16595  0.0000E+00  0.3991E-07  0.7088E-11  0.8666E-09  0.0000E+00  0.4166E+17
   -0.137549    2.30441  0.0000E+00  0.1228E-06  0.1587E-10  0.4066E-08  0.0000E+00  0.1990E+17
   -0.206325    3.40563  0.0000E+00  0.2962E-06  0.3577E-10  0.7422E-07  0.0000E+00  0.2465E+16
   -0.275101    4.14327  0.0000E+00  0.2978E-06  0.3599E-10  0.7931E-03  0.0000E+00 -0.4793E+12
   -0.343878    4.14346  0.0000E+00  0.2986E-06  0.3610E-10  0.8100E-03  0.0000E+00 -0.4543E+12
   -0.412655    4.14365  0.0000E+00  0.2991E-06  0.3622E-10  0.8147E-03  0.0000E+00 -0.4466E+12
   -0.481433    4.14383  0.0000E+00  0.2996E-06  0.3636E-10  0.7842E-03  0.0000E+00 -0.4525E+12
   -0.550211    4.14401  0.0000E+00  0.3000E-06  0.3651E-10  0.7829E-03  0.0000E+00 -0.4456E+12
   -0.618989    4.14419  0.0000E+00  0.3003E-06  0.3668E-10  0.7815E-03  0.0000E+00 -0.4399E+12
   -0.687768    4.14437  0.0000E+00  0.3006E-06  0.3687E-10  0.7792E-03  0.0000E+00 -0.4353E+12
   -0.756548    4.14455  0.0000E+00  0.3007E-06  0.3708E-10  0.7761E-03  0.0000E+00 -0.4319E+12
   -0.825327    4.14472  0.0000E+00  0.3007E-06  0.3731E-10  0.7722E-03  0.0000E+00 -0.4296E+12
   -0.894107    4.14490  0.0000E+00  0.3007E-06  0.3757E-10  0.7674E-03  0.0000E+00 -0.4286E+12
   -0.962887    4.14507  0.0000E+00  0.3006E-06  0.3785E-10  0.7617E-03  0.0000E+00 -0.4285E+12
   -1.031668    4.14524  0.0000E+00  0.3004E-06  0.3817E-10  0.7551E-03  0.0000E+00 -0.4295E+12
   -1.100448    4.14541  0.0000E+00  0.3001E-06  0.3852E-10  0.7477E-03  0.0000E+00 -0.4315E+12
   -1.169229    4.14559  0.0000E+00  0.2998E-06  0.3890E-10  0.7395E-03  0.0000E+00 -0.4344E+12
   -1.238010    4.14576  0.0000E+00  0.2993E-06  0.3933E-10  0.7303E-03  0.0000E+00 -0.4383E+12
   -1.306790    4.14594  0.0000E+00  0.2988E-06  0.3980E-10  0.7203E-03  0.0000E+00 -0.4432E+12
   -1.375571    4.14612  0.0000E+00  0.2983E-06  0.4031E-10  0.7095E-03  0.0000E+00 -0.4489E+12
   -1.444352    4.14630  0.0000E+00  0.2976E-06  0.4088E-10  0.6977E-03  0.0000E+00 -0.4554E+12
   -1.513133    4.14648  0.0000E+00  0.2969E-06  0.4151E-10  0.6850E-03  0.0000E+00 -0.4632E+12
   -1.581914    4.14666  0.0000E+00  0.2961E-06  0.4222E-10  0.6712E-03  0.0000E+00 -0.4722E+12
   -1.650694    4.14685  0.0000E+00  0.2952E-06  0.4302E-10  0.6562E-03  0.0000E+00 -0.4827E+12
   -1.719475    4.14704  0.0000E+00  0.2942E-06  0.4392E-10  0.6400E-03  0.0000E+00 -0.4948E+12
   -1.788255    4.14724  0.0000E+00  0.2931E-06  0.4494E-10  0.6226E-03  0.0000E+00 -0.5088E+12
   -1.857035    4.14744  0.0000E+00  0.2919E-06  0.4611E-10  0.6038E-03  0.0000E+00 -0.5249E+12
   -1.925815    4.14765  0.0000E+00  0.2906E-06  0.4745E-10  0.5836E-03  0.0000E+00 -0.5436E+12
   -1.994595    4.14787  0.0000E+00  0.2892E-06  0.4900E-10  0.5621E-03  0.0000E+00 -0.5653E+12
   -2.063374    4.14809  0.0000E+00  0.2877E-06  0.5081E-10  0.5389E-03  0.0000E+00 -0.5902E+12
   -2.132153    4.14832  0.0000E+00  0.2860E-06  0.5293E-10  0.5142E-03  0.0000E+00 -0.6194E+12
   -2.200932    4.14857  0.0000E+00  0.2841E-06  0.5545E-10  0.4878E-03  0.0000E+00 -0.6540E+12
   -2.269710    4.14883  0.0000E+00  0.2821E-06  0.5853E-10  0.4591E-03  0.0000E+00 -0.6962E+12
   -2.338488    4.14910  0.0000E+00  0.2798E-06  0.6250E-10  0.4268E-03  0.0000E+00 -0.7507E+12
   -2.407265    4.14939  0.0000E+00  0.2772E-06  0.6781E-10  0.3900E-03  0.0000E+00 -0.8240E+12
   -2.476042    4.14972  0.0000E+00  0.2739E-06  0.7529E-10  0.3541E-03  0.0000E+00 -0.9110E+12
   -2.544818    4.15007  0.0000E+00  0.2687E-06  0.8990E-10  0.2052E-03  0.0000E+00 -0.1582E+13
   -2.613593    4.15069  0.0000E+00  0.2562E-06  0.1335E-09  0.8836E-04  0.0000E+00 -0.3725E+13
   -2.682368    4.15213  0.0000E+00  0.1566E-06  0.6317E-09  0.5140E-05  0.0000E+00 -0.6918E+14
   -2.751143    4.17698  0.0000E+00  0.0000E+00  0.0000E+00  0.0000E+00  0.0000E+00  0.0000E+00
