 1 - depth, m
 2 - temperature, C
 3 - salinity, kg/kg
 4 - turbulent kinetic energy, m**2/s**2
 5 - dissipation rate, m**2/s**3
 6 - kinematic heat conductance, m**2/s
 7 - modulus of horizontal velocity, m/s
 8 - Richardson number, n/d
   -0.000000    0.00000  0.0000E+00  0.1219E-13  0.7603E-17  0.1000E-09  0.0000E+00  0.1405E+17
   -0.068758    0.21710  0.0000E+00  0.1219E-13  0.7603E-17  0.1000E-09  0.0000E+00  0.1257E+17
   -0.137518    0.42324  0.0000E+00  0.1219E-13  0.7603E-17  0.1000E-09  0.0000E+00  0.1113E+17
   -0.206277    0.61688  0.0000E+00  0.1219E-13  0.7603E-17  0.1000E-09  0.0000E+00  0.9751E+16
   -0.275037    0.79683  0.0000E+00  0.1219E-13  0.7603E-17  0.1000E-09  0.0000E+00  0.8617E+16
   -0.343798    0.96525  0.0000E+00  0.1219E-13  0.7603E-17  0.1000E-09  0.0000E+00  0.7602E+16
   -0.412560    1.12250  0.0000E+00  0.1219E-13  0.7603E-17  0.1000E-09  0.0000E+00  0.6691E+16
   -0.481321    1.26880  0.0000E+00  0.1219E-13  0.7603E-17  0.1000E-09  0.0000E+00  0.5866E+16
   -0.550084    1.40420  0.0000E+00  0.1219E-13  0.7603E-17  0.1000E-09  0.0000E+00  0.5078E+16
   -0.618846    1.52770  0.0000E+00  0.1280E-13  0.7603E-17  0.1000E-09  0.0000E+00  0.4400E+16
   -0.687610    1.64017  0.0000E+00  0.6150E-13  0.1038E-16  0.1000E-09  0.0000E+00  0.4013E+16
   -0.756373    1.74788  0.0000E+00  0.1775E-12  0.2371E-16  0.1000E-09  0.0000E+00  0.3813E+16
   -0.825137    1.85545  0.0000E+00  0.4476E-12  0.5625E-16  0.1000E-09  0.0000E+00  0.3667E+16
   -0.893901    1.96448  0.0000E+00  0.1083E-11  0.1318E-15  0.1000E-09  0.0000E+00  0.3561E+16
   -0.962665    2.07653  0.0000E+00  0.2578E-11  0.3052E-15  0.1000E-09  0.0000E+00  0.3479E+16
   -1.031429    2.19299  0.0000E+00  0.6056E-11  0.6982E-15  0.1000E-09  0.0000E+00  0.3432E+16
   -1.100194    2.31603  0.0000E+00  0.1407E-10  0.1581E-14  0.1000E-09  0.0000E+00  0.3370E+16
   -1.168959    2.44667  0.0000E+00  0.3236E-10  0.3544E-14  0.1000E-09  0.0000E+00  0.3276E+16
   -1.237724    2.58561  0.0000E+00  0.7375E-10  0.7876E-14  0.1000E-09  0.0000E+00  0.3134E+16
   -1.306488    2.73324  0.0000E+00  0.1666E-09  0.1735E-13  0.1000E-09  0.0000E+00  0.2934E+16
   -1.375253    2.88969  0.0000E+00  0.3730E-09  0.3791E-13  0.1000E-09  0.0000E+00  0.2713E+16
   -1.444018    3.05800  0.0000E+00  0.8280E-09  0.8211E-13  0.1736E-09  0.0000E+00  0.2408E+16
   -1.512783    3.23907  0.0000E+00  0.1825E-08  0.1767E-12  0.4503E-09  0.0000E+00  0.1998E+16
   -1.581548    3.43321  0.0000E+00  0.4007E-08  0.3787E-12  0.1314E-08  0.0000E+00  0.1469E+16
   -1.650313    3.64024  0.0000E+00  0.8717E-08  0.8051E-12  0.5073E-08  0.0000E+00  0.8096E+15
   -1.719077    3.85665  0.0000E+00  0.1817E-07  0.1647E-11  0.6916E-07  0.0000E+00  0.1242E+15
   -1.787842    4.01867  0.0000E+00  0.1916E-07  0.1741E-11  0.8044E-04  0.0000E+00 -0.1941E+12
   -1.856606    4.01905  0.0000E+00  0.1960E-07  0.1794E-11  0.7986E-04  0.0000E+00 -0.2266E+12
   -1.925370    4.01949  0.0000E+00  0.1999E-07  0.1851E-11  0.8236E-04  0.0000E+00 -0.2341E+12
   -1.994134    4.01994  0.0000E+00  0.2031E-07  0.1913E-11  0.8432E-04  0.0000E+00 -0.2414E+12
   -2.062897    4.02039  0.0000E+00  0.2056E-07  0.1981E-11  0.8437E-04  0.0000E+00 -0.2473E+12
   -2.131660    4.02086  0.0000E+00  0.2076E-07  0.2058E-11  0.8279E-04  0.0000E+00 -0.2570E+12
   -2.200423    4.02133  0.0000E+00  0.2090E-07  0.2154E-11  0.7959E-04  0.0000E+00 -0.2729E+12
   -2.269185    4.02182  0.0000E+00  0.2098E-07  0.2280E-11  0.7215E-04  0.0000E+00 -0.3080E+12
   -2.337947    4.02237  0.0000E+00  0.2097E-07  0.2450E-11  0.6270E-04  0.0000E+00 -0.3639E+12
   -2.406708    4.02301  0.0000E+00  0.2084E-07  0.2691E-11  0.5324E-04  0.0000E+00 -0.4426E+12
   -2.475469    4.02377  0.0000E+00  0.2055E-07  0.3061E-11  0.4293E-04  0.0000E+00 -0.5723E+12
   -2.544230    4.02474  0.0000E+00  0.1998E-07  0.3726E-11  0.3070E-04  0.0000E+00 -0.8511E+12
   -2.612989    4.02613  0.0000E+00  0.1871E-07  0.5357E-11  0.1627E-04  0.0000E+00 -0.1792E+13
   -2.681748    4.02890  0.0000E+00  0.1279E-07  0.1672E-10  0.1790E-05  0.0000E+00 -0.2505E+14
   -2.750507    4.05713  0.0000E+00  0.0000E+00  0.0000E+00  0.0000E+00  0.0000E+00  0.0000E+00
