 1 - depth, m
 2 - temperature, C
 3 - salinity, kg/kg
 4 - turbulent kinetic energy, m**2/s**2
 5 - dissipation rate, m**2/s**3
 6 - kinematic heat conductance, m**2/s
 7 - modulus of horizontal velocity, m/s
 8 - Richardson number, n/d
   -0.000000    0.62298  0.0000E+00  0.2087E-03  0.8739E-04  0.1179E-03  0.1450E+00  0.2386E-02
   -0.068736    0.66801  0.0000E+00  0.1129E-03  0.2140E-04  0.1913E-03  0.4957E-01  0.9290E-02
   -0.137473    0.67441  0.0000E+00  0.8000E-04  0.8882E-05  0.1744E-03  0.3849E-01  0.7431E-02
   -0.206210    0.67978  0.0000E+00  0.5943E-04  0.4165E-05  0.1729E-03  0.3222E-01  0.1052E-01
   -0.274948    0.68428  0.0000E+00  0.4630E-04  0.2100E-05  0.1774E-03  0.2770E-01  0.1291E-01
   -0.343687    0.68828  0.0000E+00  0.3744E-04  0.1137E-05  0.1851E-03  0.2388E-01  0.1554E-01
   -0.412426    0.69191  0.0000E+00  0.3113E-04  0.6653E-06  0.1926E-03  0.2062E-01  0.1886E-01
   -0.481166    0.69523  0.0000E+00  0.2633E-04  0.4194E-06  0.1976E-03  0.1785E-01  0.2323E-01
   -0.549906    0.69834  0.0000E+00  0.2239E-04  0.2796E-06  0.2011E-03  0.1546E-01  0.3083E-01
   -0.618646    0.70128  0.0000E+00  0.1912E-04  0.1945E-06  0.2002E-03  0.1345E-01  0.4065E-01
   -0.687387    0.70413  0.0000E+00  0.1633E-04  0.1394E-06  0.1957E-03  0.1173E-01  0.5364E-01
   -0.756128    0.70693  0.0000E+00  0.1390E-04  0.1019E-06  0.1876E-03  0.1024E-01  0.7131E-01
   -0.824869    0.70974  0.0000E+00  0.1177E-04  0.7534E-07  0.1764E-03  0.8939E-02  0.9628E-01
   -0.893611    0.71261  0.0000E+00  0.9891E-05  0.5604E-07  0.1626E-03  0.7809E-02  0.1338E+00
   -0.962353    0.71558  0.0000E+00  0.8239E-05  0.4182E-07  0.1471E-03  0.6826E-02  0.1963E+00
   -1.031095    0.71872  0.0000E+00  0.6815E-05  0.3137E-07  0.1273E-03  0.5984E-02  0.2605E+00
   -1.099838    0.72219  0.0000E+00  0.5563E-05  0.2348E-07  0.1064E-03  0.5215E-02  0.3565E+00
   -1.168580    0.72615  0.0000E+00  0.4454E-05  0.1744E-07  0.8470E-04  0.4511E-02  0.5146E+00
   -1.237323    0.73093  0.0000E+00  0.3468E-05  0.1275E-07  0.6271E-04  0.3864E-02  0.8105E+00
   -1.306065    0.73723  0.0000E+00  0.2596E-05  0.9120E-08  0.4143E-04  0.3266E-02  0.1517E+01
   -1.374808    0.74725  0.0000E+00  0.1775E-05  0.6172E-08  0.2097E-04  0.2708E-02  0.3871E+01
   -1.443551    0.82001  0.0000E+00  0.1020E-05  0.3652E-08  0.8228E-05  0.1912E-02  0.4465E+02
   -1.512293    1.19564  0.0000E+00  0.4777E-06  0.1804E-08  0.1900E-05  0.9860E-03  0.1125E+04
   -1.581036    1.67545  0.0000E+00  0.1360E-06  0.5516E-09  0.6952E-07  0.3871E-03  0.3973E+05
   -1.649778    2.10706  0.0000E+00  0.1248E-07  0.5214E-10  0.9826E-08  0.7190E-04  0.1720E+07
   -1.718521    2.36480  0.0000E+00  0.6329E-09  0.3400E-11  0.1588E-08  0.8369E-05  0.9431E+08
   -1.787263    2.50249  0.0000E+00  0.2468E-10  0.1045E-11  0.2049E-09  0.8276E-06  0.6490E+10
   -1.856005    2.59010  0.0000E+00  0.4419E-11  0.1000E-11  0.1000E-09  0.7658E-07  0.5289E+12
   -1.924747    2.65407  0.0000E+00  0.4419E-11  0.1000E-11  0.1000E-09  0.6717E-08  0.4774E+14
   -1.993488    2.70284  0.0000E+00  0.4419E-11  0.1000E-11  0.1000E-09  0.5558E-09  0.4083E+15
   -2.062229    2.73781  0.0000E+00  0.4419E-11  0.1000E-11  0.1000E-09  0.4325E-10  0.1402E+16
   -2.130970    2.82430  0.0000E+00  0.4419E-11  0.1000E-11  0.1000E-09  0.3161E-11  0.2683E+16
   -2.199710    2.98301  0.0000E+00  0.4419E-11  0.1000E-11  0.1000E-09  0.2163E-12  0.3371E+16
   -2.268450    3.22423  0.0000E+00  0.4419E-11  0.1000E-11  0.1000E-09  0.1055E-13  0.2922E+16
   -2.337190    3.52590  0.0000E+00  0.4419E-11  0.1000E-11  0.1000E-09  0.4335E-15  0.1580E+16
   -2.405929    3.85345  0.0000E+00  0.4419E-11  0.1000E-11  0.1000E-09  0.1562E-16 -0.7740E+15
   -2.474668    4.29625  0.0000E+00  0.4419E-11  0.1000E-11  0.1000E-09  0.4753E-18 -0.5857E+16
   -2.543406    4.91265  0.0000E+00  0.4419E-11  0.1000E-11  0.1000E-09  0.1096E-19 -0.1302E+17
   -2.612143    5.58598  0.0000E+00  0.4419E-11  0.1000E-11  0.1000E-09  0.1909E-21 -0.1902E+17
   -2.680880    6.23700  0.0000E+00  0.4419E-11  0.1000E-11  0.1000E-09  0.2221E-23 -0.1104E+17
   -2.749616    6.54124  0.0000E+00  0.0000E+00  0.0000E+00  0.0000E+00  0.1872E-23  0.0000E+00
