 1 - depth, m
 2 - temperature, C
 3 - salinity, kg/kg
 4 - turbulent kinetic energy, m**2/s**2
 5 - dissipation rate, m**2/s**3
 6 - kinematic heat conductance, m**2/s
 7 - modulus of horizontal velocity, m/s
 8 - Richardson number, n/d
   -0.000000    6.96572  0.0000E+00  0.2359E-03  0.2340E-02  0.1303E-03  0.1462E+00 -0.6743E-02
   -0.068731    7.04059  0.0000E+00  0.1311E-03  0.1157E-02  0.2107E-03  0.4813E-01 -0.1546E-01
   -0.137463    7.05088  0.0000E+00  0.9370E-04  0.5801E-03  0.1938E-03  0.3691E-01 -0.1691E-01
   -0.206196    7.05932  0.0000E+00  0.6817E-04  0.1848E-03  0.1973E-03  0.3064E-01 -0.1473E-01
   -0.274929    7.06607  0.0000E+00  0.5161E-04  0.2730E-04  0.2084E-03  0.2618E-01 -0.1667E-01
   -0.343663    7.07192  0.0000E+00  0.4172E-04  0.2497E-05  0.2248E-03  0.2237E-01 -0.1976E-01
   -0.412398    7.07709  0.0000E+00  0.3537E-04  0.7695E-06  0.2435E-03  0.1917E-01 -0.2371E-01
   -0.481132    7.08154  0.0000E+00  0.3073E-04  0.4779E-06  0.2624E-03  0.1650E-01 -0.2932E-01
   -0.549868    7.08552  0.0000E+00  0.2705E-04  0.3273E-06  0.2834E-03  0.1426E-01 -0.3814E-01
   -0.618603    7.08911  0.0000E+00  0.2408E-04  0.2353E-06  0.3039E-03  0.1239E-01 -0.4899E-01
   -0.687339    7.09238  0.0000E+00  0.2162E-04  0.1755E-06  0.3248E-03  0.1081E-01 -0.6159E-01
   -0.756076    7.09538  0.0000E+00  0.1954E-04  0.1346E-06  0.3469E-03  0.9465E-02 -0.6739E-01
   -0.824812    7.09815  0.0000E+00  0.1777E-04  0.1056E-06  0.3697E-03  0.8316E-02 -0.8727E-01
   -0.893549    7.10069  0.0000E+00  0.1625E-04  0.8437E-07  0.3954E-03  0.7331E-02  0.2740E+00
   -0.962287    7.10304  0.0000E+00  0.1494E-04  0.6857E-07  0.4268E-03  0.6485E-02  0.5656E+01
   -1.031024    7.10520  0.0000E+00  0.1382E-04  0.5662E-07  0.4622E-03  0.5760E-02  0.3883E+02
   -1.099762    7.10718  0.0000E+00  0.1286E-04  0.4742E-07  0.5156E-03  0.5120E-02  0.1594E+02
   -1.168499    7.10897  0.0000E+00  0.1201E-04  0.4022E-07  0.6019E-03  0.4554E-02  0.1090E+03
   -1.237237    7.11053  0.0000E+00  0.1128E-04  0.3453E-07  0.7096E-03  0.4055E-02  0.3143E+02
   -1.305975    7.11189  0.0000E+00  0.1064E-04  0.2998E-07  0.8289E-03  0.3611E-02  0.6712E+02
   -1.374713    7.11304  0.0000E+00  0.1006E-04  0.2629E-07  0.9528E-03  0.3215E-02  0.7340E+02
   -1.443451    7.11401  0.0000E+00  0.9551E-05  0.2326E-07  0.1060E-02  0.2858E-02  0.1982E+03
   -1.512189    7.11484  0.0000E+00  0.9085E-05  0.2074E-07  0.1147E-02  0.2530E-02  0.5179E+02
   -1.580927    7.11557  0.0000E+00  0.8653E-05  0.1861E-07  0.1212E-02  0.2236E-02  0.3225E+02
   -1.649665    7.11623  0.0000E+00  0.8253E-05  0.1680E-07  0.1258E-02  0.1972E-02  0.1227E+03
   -1.718402    7.11683  0.0000E+00  0.7881E-05  0.1526E-07  0.1289E-02  0.1735E-02  0.5617E+01
   -1.787140    7.11741  0.0000E+00  0.7535E-05  0.1395E-07  0.1305E-02  0.1522E-02  0.7345E+01
   -1.855877    7.11796  0.0000E+00  0.7212E-05  0.1285E-07  0.1309E-02  0.1331E-02  0.4262E+01
   -1.924614    7.11850  0.0000E+00  0.6912E-05  0.1194E-07  0.1300E-02  0.1160E-02  0.2429E+01
   -1.993350    7.11903  0.0000E+00  0.6635E-05  0.1120E-07  0.1279E-02  0.1007E-02  0.1226E+01
   -2.062087    7.11956  0.0000E+00  0.6380E-05  0.1062E-07  0.1247E-02  0.8699E-03  0.1089E+01
   -2.130823    7.12009  0.0000E+00  0.6147E-05  0.1021E-07  0.1203E-02  0.7484E-03  0.9662E+00
   -2.199559    7.12063  0.0000E+00  0.5937E-05  0.9947E-08  0.1151E-02  0.6405E-03  0.8539E+00
   -2.268294    7.12118  0.0000E+00  0.5750E-05  0.9843E-08  0.1090E-02  0.5449E-03  0.7155E+00
   -2.337029    7.12175  0.0000E+00  0.5582E-05  0.9900E-08  0.1025E-02  0.4643E-03  0.6377E+00
   -2.405763    7.12235  0.0000E+00  0.5429E-05  0.1014E-07  0.9577E-03  0.3977E-03  0.7229E+00
   -2.474497    7.12298  0.0000E+00  0.5277E-05  0.1064E-07  0.8729E-03  0.3406E-03  0.1052E+01
   -2.543230    7.12365  0.0000E+00  0.5109E-05  0.1163E-07  0.7993E-03  0.2886E-03  0.2032E+01
   -2.611963    7.12437  0.0000E+00  0.4830E-05  0.1446E-07  0.4078E-03  0.2424E-03  0.7048E+02
   -2.680695    7.12577  0.0000E+00  0.2862E-05  0.5068E-07  0.2160E-04  0.1762E-03 -0.1521E+04
   -2.749426    7.15139  0.0000E+00  0.0000E+00  0.0000E+00  0.0000E+00  0.1760E-03  0.0000E+00
