 1 - depth, m
 2 - temperature, C
 3 - salinity, kg/kg
 4 - turbulent kinetic energy, m**2/s**2
 5 - dissipation rate, m**2/s**3
 6 - kinematic heat conductance, m**2/s
 7 - modulus of horizontal velocity, m/s
 8 - Richardson number, n/d
   -0.000000    0.00000  0.0000E+00  0.1219E-13  0.7604E-17  0.1000E-09  0.0000E+00  0.1058E+17
   -0.068730    0.16219  0.0000E+00  0.1219E-13  0.7604E-17  0.1000E-09  0.0000E+00  0.9664E+16
   -0.137461    0.31706  0.0000E+00  0.1219E-13  0.7604E-17  0.1000E-09  0.0000E+00  0.8812E+16
   -0.206192    0.46460  0.0000E+00  0.1219E-13  0.7604E-17  0.1000E-09  0.0000E+00  0.8010E+16
   -0.274924    0.60464  0.0000E+00  0.1219E-13  0.7604E-17  0.1000E-09  0.0000E+00  0.7328E+16
   -0.343656    0.73835  0.0000E+00  0.1219E-13  0.7604E-17  0.1000E-09  0.0000E+00  0.6698E+16
   -0.412389    0.86587  0.0000E+00  0.1219E-13  0.7604E-17  0.1000E-09  0.0000E+00  0.6107E+16
   -0.481122    0.98711  0.0000E+00  0.1219E-13  0.7604E-17  0.1000E-09  0.0000E+00  0.5545E+16
   -0.549856    1.10184  0.0000E+00  0.1219E-13  0.7604E-17  0.1000E-09  0.0000E+00  0.4986E+16
   -0.618590    1.20925  0.0000E+00  0.1219E-13  0.7604E-17  0.1000E-09  0.0000E+00  0.4470E+16
   -0.687325    1.30937  0.0000E+00  0.1219E-13  0.7604E-17  0.1000E-09  0.0000E+00  0.4116E+16
   -0.756060    1.40517  0.0000E+00  0.1219E-13  0.7604E-17  0.1000E-09  0.0000E+00  0.3866E+16
   -0.824795    1.49864  0.0000E+00  0.1219E-13  0.7604E-17  0.1000E-09  0.0000E+00  0.3640E+16
   -0.893531    1.59012  0.0000E+00  0.1219E-13  0.7604E-17  0.1000E-09  0.0000E+00  0.3436E+16
   -0.962267    1.67995  0.0000E+00  0.1219E-13  0.7604E-17  0.1000E-09  0.0000E+00  0.3252E+16
   -1.031003    1.76845  0.0000E+00  0.1219E-13  0.7604E-17  0.1000E-09  0.0000E+00  0.3099E+16
   -1.099739    1.85633  0.0000E+00  0.1219E-13  0.7604E-17  0.1000E-09  0.0000E+00  0.2958E+16
   -1.168475    1.94387  0.0000E+00  0.1219E-13  0.7604E-17  0.1000E-09  0.0000E+00  0.2826E+16
   -1.237212    2.03128  0.0000E+00  0.1219E-13  0.7604E-17  0.1000E-09  0.0000E+00  0.2699E+16
   -1.305948    2.11869  0.0000E+00  0.1219E-13  0.7604E-17  0.1000E-09  0.0000E+00  0.2573E+16
   -1.374685    2.20616  0.0000E+00  0.1219E-13  0.7604E-17  0.1000E-09  0.0000E+00  0.2493E+16
   -1.443421    2.29534  0.0000E+00  0.1219E-13  0.7604E-17  0.1000E-09  0.0000E+00  0.2418E+16
   -1.512158    2.38674  0.0000E+00  0.1219E-13  0.7604E-17  0.1000E-09  0.0000E+00  0.2336E+16
   -1.580894    2.48042  0.0000E+00  0.1219E-13  0.7604E-17  0.1000E-09  0.0000E+00  0.2241E+16
   -1.649630    2.57630  0.0000E+00  0.1219E-13  0.7604E-17  0.1000E-09  0.0000E+00  0.2133E+16
   -1.718366    2.67418  0.0000E+00  0.1219E-13  0.7604E-17  0.1000E-09  0.0000E+00  0.2010E+16
   -1.787102    2.77381  0.0000E+00  0.1219E-13  0.7604E-17  0.1000E-09  0.0000E+00  0.1874E+16
   -1.855838    2.87489  0.0000E+00  0.1219E-13  0.7604E-17  0.1000E-09  0.0000E+00  0.1726E+16
   -1.924574    2.97709  0.0000E+00  0.1219E-13  0.7604E-17  0.1000E-09  0.0000E+00  0.1569E+16
   -1.993309    3.08006  0.0000E+00  0.1219E-13  0.7604E-17  0.1000E-09  0.0000E+00  0.1403E+16
   -2.062044    3.18346  0.0000E+00  0.1324E-13  0.7892E-17  0.1000E-09  0.0000E+00  0.1247E+16
   -2.130779    3.28827  0.0000E+00  0.6376E-13  0.3471E-16  0.1000E-09  0.0000E+00  0.1084E+16
   -2.199513    3.39452  0.0000E+00  0.3427E-12  0.1786E-15  0.1000E-09  0.0000E+00  0.9147E+15
   -2.268247    3.50212  0.0000E+00  0.1820E-11  0.9106E-15  0.1000E-09  0.0000E+00  0.7500E+15
   -2.336980    3.61304  0.0000E+00  0.9590E-11  0.4615E-14  0.1000E-09  0.0000E+00  0.5752E+15
   -2.405713    3.72890  0.0000E+00  0.4980E-10  0.2308E-13  0.3033E-09  0.0000E+00  0.3776E+15
   -2.474445    3.85142  0.0000E+00  0.2553E-09  0.1144E-12  0.3849E-08  0.0000E+00  0.1425E+15
   -2.543177    3.98118  0.0000E+00  0.1203E-08  0.5328E-12  0.6354E-06  0.0000E+00 -0.4013E+13
   -2.611908    4.00961  0.0000E+00  0.2693E-08  0.1801E-11  0.1235E-05  0.0000E+00 -0.1145E+14
   -2.680639    4.03109  0.0000E+00  0.4412E-08  0.6548E-11  0.9255E-06  0.0000E+00 -0.5691E+14
   -2.749369    4.08263  0.0000E+00  0.0000E+00  0.0000E+00  0.0000E+00  0.0000E+00  0.0000E+00
