 1 - depth, m
 2 - temperature, C
 3 - salinity, kg/kg
 4 - turbulent kinetic energy, m**2/s**2
 5 - dissipation rate, m**2/s**3
 6 - kinematic heat conductance, m**2/s
 7 - modulus of horizontal velocity, m/s
 8 - Richardson number, n/d
   -0.000000    0.00000  0.0000E+00  0.1832E-10  0.8321E-14  0.1000E-09  0.0000E+00  0.2841E+17
   -0.068737    0.45356  0.0000E+00  0.7170E-10  0.1052E-13  0.1000E-09  0.0000E+00  0.2217E+17
   -0.137474    0.85595  0.0000E+00  0.1964E-09  0.2244E-13  0.1000E-09  0.0000E+00  0.1763E+17
   -0.206212    1.21985  0.0000E+00  0.4761E-09  0.5098E-13  0.1000E-09  0.0000E+00  0.1431E+17
   -0.274950    1.55703  0.0000E+00  0.1108E-08  0.1150E-12  0.1000E-09  0.0000E+00  0.1195E+17
   -0.343689    1.88165  0.0000E+00  0.2532E-08  0.2564E-12  0.1277E-09  0.0000E+00  0.1020E+17
   -0.412429    2.20666  0.0000E+00  0.5721E-08  0.5660E-12  0.3282E-09  0.0000E+00  0.8770E+16
   -0.481169    2.54580  0.0000E+00  0.1279E-07  0.1237E-11  0.8543E-09  0.0000E+00  0.7391E+16
   -0.549909    2.91453  0.0000E+00  0.2834E-07  0.2677E-11  0.2426E-08  0.0000E+00  0.5679E+16
   -0.618650    3.33040  0.0000E+00  0.6173E-07  0.5698E-11  0.1096E-07  0.0000E+00  0.3047E+16
   -0.687392    3.80130  0.0000E+00  0.9895E-07  0.8990E-11  0.8499E-04  0.0000E+00  0.3794E+15
   -0.756133    4.04633  0.0000E+00  0.9984E-07  0.9078E-11  0.3713E-03  0.0000E+00 -0.2138E+12
   -0.824875    4.04656  0.0000E+00  0.1003E-06  0.9136E-11  0.3702E-03  0.0000E+00 -0.2216E+12
   -0.893617    4.04680  0.0000E+00  0.1008E-06  0.9203E-11  0.3703E-03  0.0000E+00 -0.2233E+12
   -0.962360    4.04703  0.0000E+00  0.1012E-06  0.9277E-11  0.3701E-03  0.0000E+00 -0.2265E+12
   -1.031102    4.04728  0.0000E+00  0.1016E-06  0.9360E-11  0.3694E-03  0.0000E+00 -0.2295E+12
   -1.099845    4.04752  0.0000E+00  0.1019E-06  0.9451E-11  0.3683E-03  0.0000E+00 -0.2331E+12
   -1.168588    4.04776  0.0000E+00  0.1022E-06  0.9551E-11  0.3667E-03  0.0000E+00 -0.2373E+12
   -1.237331    4.04801  0.0000E+00  0.1025E-06  0.9661E-11  0.3645E-03  0.0000E+00 -0.2422E+12
   -1.306074    4.04826  0.0000E+00  0.1027E-06  0.9781E-11  0.3619E-03  0.0000E+00 -0.2478E+12
   -1.374818    4.04852  0.0000E+00  0.1029E-06  0.9912E-11  0.3587E-03  0.0000E+00 -0.2516E+12
   -1.443561    4.04878  0.0000E+00  0.1030E-06  0.1006E-10  0.3551E-03  0.0000E+00 -0.2550E+12
   -1.512304    4.04904  0.0000E+00  0.1031E-06  0.1021E-10  0.3508E-03  0.0000E+00 -0.2595E+12
   -1.581047    4.04930  0.0000E+00  0.1032E-06  0.1039E-10  0.3459E-03  0.0000E+00 -0.2648E+12
   -1.649790    4.04957  0.0000E+00  0.1032E-06  0.1058E-10  0.3403E-03  0.0000E+00 -0.2712E+12
   -1.718533    4.04984  0.0000E+00  0.1032E-06  0.1080E-10  0.3340E-03  0.0000E+00 -0.2786E+12
   -1.787275    4.05012  0.0000E+00  0.1031E-06  0.1105E-10  0.3269E-03  0.0000E+00 -0.2872E+12
   -1.856018    4.05041  0.0000E+00  0.1029E-06  0.1133E-10  0.3190E-03  0.0000E+00 -0.2973E+12
   -1.924760    4.05071  0.0000E+00  0.1027E-06  0.1164E-10  0.3102E-03  0.0000E+00 -0.3092E+12
   -1.993502    4.05101  0.0000E+00  0.1025E-06  0.1200E-10  0.3006E-03  0.0000E+00 -0.3231E+12
   -2.062244    4.05133  0.0000E+00  0.1021E-06  0.1242E-10  0.2900E-03  0.0000E+00 -0.3367E+12
   -2.130985    4.05166  0.0000E+00  0.1017E-06  0.1291E-10  0.2784E-03  0.0000E+00 -0.3522E+12
   -2.199726    4.05200  0.0000E+00  0.1012E-06  0.1349E-10  0.2657E-03  0.0000E+00 -0.3709E+12
   -2.268466    4.05236  0.0000E+00  0.1007E-06  0.1419E-10  0.2515E-03  0.0000E+00 -0.3942E+12
   -2.337206    4.05274  0.0000E+00  0.9994E-07  0.1509E-10  0.2353E-03  0.0000E+00 -0.4246E+12
   -2.405946    4.05315  0.0000E+00  0.9902E-07  0.1632E-10  0.2126E-03  0.0000E+00 -0.4711E+12
   -2.474685    4.05360  0.0000E+00  0.9761E-07  0.1842E-10  0.1606E-03  0.0000E+00 -0.6304E+12
   -2.543423    4.05420  0.0000E+00  0.9508E-07  0.2275E-10  0.9372E-04  0.0000E+00 -0.1101E+13
   -2.612161    4.05523  0.0000E+00  0.8993E-07  0.3371E-10  0.4695E-04  0.0000E+00 -0.2280E+13
   -2.680899    4.05731  0.0000E+00  0.5618E-07  0.1397E-09  0.3221E-05  0.0000E+00 -0.4167E+14
   -2.749635    4.08814  0.0000E+00  0.0000E+00  0.0000E+00  0.0000E+00  0.0000E+00  0.0000E+00
