 1 - depth, m
 2 - temperature, C
 3 - salinity, kg/kg
 4 - turbulent kinetic energy, m**2/s**2
 5 - dissipation rate, m**2/s**3
 6 - kinematic heat conductance, m**2/s
 7 - modulus of horizontal velocity, m/s
 8 - Richardson number, n/d
   -0.000000    0.00000  0.0000E+00  0.5046E-12  0.1184E-15  0.1000E-09  0.0000E+00  0.2540E+17
   -0.068745    0.40273  0.0000E+00  0.1268E-11  0.1925E-15  0.1000E-09  0.0000E+00  0.1977E+17
   -0.137491    0.75305  0.0000E+00  0.3302E-11  0.4459E-15  0.1000E-09  0.0000E+00  0.1547E+17
   -0.206237    1.05787  0.0000E+00  0.8288E-11  0.1072E-14  0.1000E-09  0.0000E+00  0.1215E+17
   -0.274984    1.32301  0.0000E+00  0.2032E-10  0.2548E-14  0.1000E-09  0.0000E+00  0.9778E+16
   -0.343732    1.55835  0.0000E+00  0.4900E-10  0.5969E-14  0.1000E-09  0.0000E+00  0.7996E+16
   -0.412480    1.77013  0.0000E+00  0.1165E-09  0.1380E-13  0.1000E-09  0.0000E+00  0.6669E+16
   -0.481229    1.96434  0.0000E+00  0.2737E-09  0.3152E-13  0.1000E-09  0.0000E+00  0.5700E+16
   -0.549978    2.14710  0.0000E+00  0.6364E-09  0.7125E-13  0.1000E-09  0.0000E+00  0.4988E+16
   -0.618727    2.32405  0.0000E+00  0.1463E-08  0.1593E-12  0.1775E-09  0.0000E+00  0.4571E+16
   -0.687477    2.50531  0.0000E+00  0.3327E-08  0.3524E-12  0.3903E-09  0.0000E+00  0.4597E+16
   -0.756227    2.71425  0.0000E+00  0.7484E-08  0.7716E-12  0.8343E-09  0.0000E+00  0.4709E+16
   -0.824977    2.97324  0.0000E+00  0.1665E-07  0.1672E-11  0.1947E-08  0.0000E+00  0.4392E+16
   -0.893728    3.29943  0.0000E+00  0.3660E-07  0.3583E-11  0.6107E-08  0.0000E+00  0.3084E+16
   -0.962479    3.70005  0.0000E+00  0.7666E-07  0.7353E-11  0.7776E-07  0.0000E+00  0.6566E+15
   -1.031230    4.04246  0.0000E+00  0.7774E-07  0.7463E-11  0.2807E-03  0.0000E+00 -0.2180E+12
   -1.099981    4.04271  0.0000E+00  0.7826E-07  0.7528E-11  0.2809E-03  0.0000E+00 -0.2298E+12
   -1.168733    4.04297  0.0000E+00  0.7873E-07  0.7601E-11  0.2815E-03  0.0000E+00 -0.2362E+12
   -1.237485    4.04323  0.0000E+00  0.7917E-07  0.7683E-11  0.2809E-03  0.0000E+00 -0.2430E+12
   -1.306236    4.04350  0.0000E+00  0.7958E-07  0.7775E-11  0.2803E-03  0.0000E+00 -0.2503E+12
   -1.374988    4.04378  0.0000E+00  0.7995E-07  0.7877E-11  0.2793E-03  0.0000E+00 -0.2552E+12
   -1.443740    4.04407  0.0000E+00  0.8028E-07  0.7991E-11  0.2777E-03  0.0000E+00 -0.2599E+12
   -1.512491    4.04435  0.0000E+00  0.8057E-07  0.8117E-11  0.2757E-03  0.0000E+00 -0.2657E+12
   -1.581243    4.04465  0.0000E+00  0.8083E-07  0.8258E-11  0.2730E-03  0.0000E+00 -0.2727E+12
   -1.649994    4.04494  0.0000E+00  0.8104E-07  0.8417E-11  0.2696E-03  0.0000E+00 -0.2809E+12
   -1.718746    4.04525  0.0000E+00  0.8122E-07  0.8595E-11  0.2657E-03  0.0000E+00 -0.2906E+12
   -1.787497    4.04556  0.0000E+00  0.8135E-07  0.8795E-11  0.2610E-03  0.0000E+00 -0.3019E+12
   -1.856248    4.04589  0.0000E+00  0.8143E-07  0.9022E-11  0.2556E-03  0.0000E+00 -0.3151E+12
   -1.924998    4.04623  0.0000E+00  0.8145E-07  0.9280E-11  0.2494E-03  0.0000E+00 -0.3306E+12
   -1.993749    4.04658  0.0000E+00  0.8141E-07  0.9574E-11  0.2425E-03  0.0000E+00 -0.3490E+12
   -2.062499    4.04695  0.0000E+00  0.8130E-07  0.9912E-11  0.2346E-03  0.0000E+00 -0.3652E+12
   -2.131249    4.04733  0.0000E+00  0.8111E-07  0.1031E-10  0.2258E-03  0.0000E+00 -0.3835E+12
   -2.199998    4.04773  0.0000E+00  0.8084E-07  0.1077E-10  0.2160E-03  0.0000E+00 -0.4056E+12
   -2.268747    4.04815  0.0000E+00  0.8047E-07  0.1133E-10  0.2048E-03  0.0000E+00 -0.4330E+12
   -2.337496    4.04860  0.0000E+00  0.7997E-07  0.1205E-10  0.1917E-03  0.0000E+00 -0.4690E+12
   -2.406244    4.04908  0.0000E+00  0.7930E-07  0.1301E-10  0.1771E-03  0.0000E+00 -0.5152E+12
   -2.474991    4.04960  0.0000E+00  0.7824E-07  0.1460E-10  0.1362E-03  0.0000E+00 -0.6825E+12
   -2.543738    4.05029  0.0000E+00  0.7622E-07  0.1796E-10  0.8161E-04  0.0000E+00 -0.1171E+13
   -2.612485    4.05145  0.0000E+00  0.7203E-07  0.2638E-10  0.4136E-04  0.0000E+00 -0.2433E+13
   -2.681231    4.05380  0.0000E+00  0.4563E-07  0.1038E-09  0.2998E-05  0.0000E+00 -0.4401E+14
   -2.749976    4.08723  0.0000E+00  0.0000E+00  0.0000E+00  0.0000E+00  0.0000E+00  0.0000E+00
