 1 - depth, m
 2 - temperature, C
 3 - salinity, kg/kg
 4 - turbulent kinetic energy, m**2/s**2
 5 - dissipation rate, m**2/s**3
 6 - kinematic heat conductance, m**2/s
 7 - modulus of horizontal velocity, m/s
 8 - Richardson number, n/d
   -0.000000    0.00000  0.0000E+00  0.7100E-08  0.1370E-10  0.9140E-09  0.0000E+00  0.7622E+17
   -0.068735    1.40299  0.0000E+00  0.8986E-07  0.1493E-10  0.1787E-08  0.0000E+00  0.4258E+17
   -0.137471    2.80049  0.0000E+00  0.2712E-06  0.3067E-10  0.1415E-07  0.0000E+00  0.1106E+17
   -0.206208    4.09330  0.0000E+00  0.2728E-06  0.3084E-10  0.7763E-03  0.0000E+00 -0.4256E+12
   -0.274945    4.09355  0.0000E+00  0.2735E-06  0.3093E-10  0.7670E-03  0.0000E+00 -0.4173E+12
   -0.343683    4.09380  0.0000E+00  0.2740E-06  0.3103E-10  0.7682E-03  0.0000E+00 -0.4069E+12
   -0.412421    4.09404  0.0000E+00  0.2745E-06  0.3114E-10  0.7687E-03  0.0000E+00 -0.3985E+12
   -0.481160    4.09428  0.0000E+00  0.2749E-06  0.3125E-10  0.7685E-03  0.0000E+00 -0.3914E+12
   -0.549899    4.09451  0.0000E+00  0.2752E-06  0.3138E-10  0.7675E-03  0.0000E+00 -0.3862E+12
   -0.618638    4.09474  0.0000E+00  0.2754E-06  0.3152E-10  0.7657E-03  0.0000E+00 -0.3820E+12
   -0.687378    4.09496  0.0000E+00  0.2755E-06  0.3168E-10  0.7632E-03  0.0000E+00 -0.3784E+12
   -0.756119    4.09519  0.0000E+00  0.2755E-06  0.3185E-10  0.7599E-03  0.0000E+00 -0.3752E+12
   -0.824859    4.09541  0.0000E+00  0.2755E-06  0.3205E-10  0.7558E-03  0.0000E+00 -0.3732E+12
   -0.893600    4.09562  0.0000E+00  0.2754E-06  0.3226E-10  0.7509E-03  0.0000E+00 -0.3718E+12
   -0.962341    4.09584  0.0000E+00  0.2752E-06  0.3249E-10  0.7451E-03  0.0000E+00 -0.3715E+12
   -1.031082    4.09606  0.0000E+00  0.2749E-06  0.3276E-10  0.7386E-03  0.0000E+00 -0.3714E+12
   -1.099824    4.09627  0.0000E+00  0.2746E-06  0.3304E-10  0.7313E-03  0.0000E+00 -0.3724E+12
   -1.168566    4.09649  0.0000E+00  0.2742E-06  0.3336E-10  0.7232E-03  0.0000E+00 -0.3738E+12
   -1.237307    4.09671  0.0000E+00  0.2737E-06  0.3371E-10  0.7142E-03  0.0000E+00 -0.3763E+12
   -1.306049    4.09693  0.0000E+00  0.2732E-06  0.3409E-10  0.7045E-03  0.0000E+00 -0.3791E+12
   -1.374791    4.09714  0.0000E+00  0.2726E-06  0.3452E-10  0.6939E-03  0.0000E+00 -0.3829E+12
   -1.443533    4.09737  0.0000E+00  0.2719E-06  0.3498E-10  0.6825E-03  0.0000E+00 -0.3870E+12
   -1.512275    4.09759  0.0000E+00  0.2712E-06  0.3550E-10  0.6702E-03  0.0000E+00 -0.3925E+12
   -1.581016    4.09781  0.0000E+00  0.2704E-06  0.3609E-10  0.6568E-03  0.0000E+00 -0.3989E+12
   -1.649758    4.09804  0.0000E+00  0.2695E-06  0.3675E-10  0.6422E-03  0.0000E+00 -0.4067E+12
   -1.718499    4.09827  0.0000E+00  0.2685E-06  0.3749E-10  0.6266E-03  0.0000E+00 -0.4154E+12
   -1.787241    4.09851  0.0000E+00  0.2674E-06  0.3834E-10  0.6098E-03  0.0000E+00 -0.4258E+12
   -1.855982    4.09875  0.0000E+00  0.2663E-06  0.3930E-10  0.5917E-03  0.0000E+00 -0.4377E+12
   -1.924723    4.09900  0.0000E+00  0.2651E-06  0.4041E-10  0.5723E-03  0.0000E+00 -0.4516E+12
   -1.993463    4.09926  0.0000E+00  0.2637E-06  0.4169E-10  0.5516E-03  0.0000E+00 -0.4676E+12
   -2.062204    4.09952  0.0000E+00  0.2623E-06  0.4318E-10  0.5293E-03  0.0000E+00 -0.4863E+12
   -2.130943    4.09980  0.0000E+00  0.2607E-06  0.4494E-10  0.5055E-03  0.0000E+00 -0.5080E+12
   -2.199683    4.10008  0.0000E+00  0.2590E-06  0.4702E-10  0.4801E-03  0.0000E+00 -0.5339E+12
   -2.268422    4.10038  0.0000E+00  0.2572E-06  0.4956E-10  0.4525E-03  0.0000E+00 -0.5659E+12
   -2.337161    4.10070  0.0000E+00  0.2551E-06  0.5284E-10  0.4212E-03  0.0000E+00 -0.6077E+12
   -2.405899    4.10104  0.0000E+00  0.2527E-06  0.5721E-10  0.3872E-03  0.0000E+00 -0.6613E+12
   -2.474637    4.10141  0.0000E+00  0.2496E-06  0.6378E-10  0.3497E-03  0.0000E+00 -0.7325E+12
   -2.543374    4.10182  0.0000E+00  0.2443E-06  0.7727E-10  0.1749E-03  0.0000E+00 -0.1471E+13
   -2.612111    4.10263  0.0000E+00  0.2325E-06  0.1157E-09  0.8109E-04  0.0000E+00 -0.3216E+13
   -2.680847    4.10438  0.0000E+00  0.1417E-06  0.5441E-09  0.4871E-05  0.0000E+00 -0.5999E+14
   -2.749582    4.13334  0.0000E+00  0.0000E+00  0.0000E+00  0.0000E+00  0.0000E+00  0.0000E+00
