 1 - depth, m
 2 - temperature, C
 3 - salinity, kg/kg
 4 - turbulent kinetic energy, m**2/s**2
 5 - dissipation rate, m**2/s**3
 6 - kinematic heat conductance, m**2/s
 7 - modulus of horizontal velocity, m/s
 8 - Richardson number, n/d
   -0.000000    8.51470  0.0000E+00  0.4822E-04  0.8725E-05  0.5350E-04  0.5344E-01 -0.6798E-02
   -0.068755    8.57321  0.0000E+00  0.2932E-04  0.1944E-05  0.8037E-04  0.2454E-01 -0.2535E-01
   -0.137511    8.59353  0.0000E+00  0.2264E-04  0.7358E-06  0.1106E-03  0.1787E-01 -0.4716E-01
   -0.206267    8.60757  0.0000E+00  0.1870E-04  0.3496E-06  0.1459E-03  0.1384E-01 -0.7838E-01
   -0.275024    8.61816  0.0000E+00  0.1634E-04  0.2002E-06  0.1847E-03  0.1113E-01 -0.1119E+00
   -0.343782    8.62640  0.0000E+00  0.1473E-04  0.1307E-06  0.2287E-03  0.9134E-02 -0.1521E+00
   -0.412540    8.63292  0.0000E+00  0.1352E-04  0.9296E-07  0.2844E-03  0.7625E-02 -0.1709E+00
   -0.481299    8.63808  0.0000E+00  0.1257E-04  0.7006E-07  0.4243E-03  0.6457E-02  0.4356E+03
   -0.550058    8.64189  0.0000E+00  0.1182E-04  0.5534E-07  0.6416E-03  0.5561E-02  0.2810E+03
   -0.618817    8.64456  0.0000E+00  0.1124E-04  0.4544E-07  0.8069E-03  0.4888E-02  0.2588E+02
   -0.687577    8.64654  0.0000E+00  0.1079E-04  0.3839E-07  0.9539E-03  0.4344E-02  0.9287E+02
   -0.756337    8.64804  0.0000E+00  0.1042E-04  0.3314E-07  0.1063E-02  0.3891E-02  0.8229E+02
   -0.825097    8.64927  0.0000E+00  0.1012E-04  0.2903E-07  0.1136E-02  0.3498E-02  0.8712E+01
   -0.893858    8.65038  0.0000E+00  0.9864E-05  0.2571E-07  0.1193E-02  0.3148E-02  0.4467E+01
   -0.962619    8.65141  0.0000E+00  0.9639E-05  0.2298E-07  0.1246E-02  0.2837E-02  0.2994E+01
   -1.031380    8.65237  0.0000E+00  0.9440E-05  0.2074E-07  0.1288E-02  0.2560E-02  0.2881E+01
   -1.100142    8.65329  0.0000E+00  0.9260E-05  0.1886E-07  0.1327E-02  0.2306E-02  0.2777E+01
   -1.168903    8.65416  0.0000E+00  0.9092E-05  0.1728E-07  0.1368E-02  0.2074E-02  0.2679E+01
   -1.237665    8.65499  0.0000E+00  0.8931E-05  0.1594E-07  0.1407E-02  0.1860E-02  0.2583E+01
   -1.306426    8.65578  0.0000E+00  0.8775E-05  0.1480E-07  0.1447E-02  0.1664E-02  0.2488E+01
   -1.375188    8.65653  0.0000E+00  0.8620E-05  0.1384E-07  0.1484E-02  0.1483E-02  0.2398E+01
   -1.443950    8.65725  0.0000E+00  0.8464E-05  0.1302E-07  0.1523E-02  0.1316E-02  0.2318E+01
   -1.512711    8.65793  0.0000E+00  0.8306E-05  0.1233E-07  0.1577E-02  0.1161E-02  0.2140E+01
   -1.581473    8.65858  0.0000E+00  0.8147E-05  0.1176E-07  0.1644E-02  0.1022E-02  0.1955E+01
   -1.650234    8.65919  0.0000E+00  0.7986E-05  0.1130E-07  0.1712E-02  0.8999E-03  0.1794E+01
   -1.718996    8.65977  0.0000E+00  0.7827E-05  0.1095E-07  0.1725E-02  0.7925E-03  0.1642E+01
   -1.787757    8.66033  0.0000E+00  0.7671E-05  0.1068E-07  0.1706E-02  0.6987E-03  0.1499E+01
   -1.856518    8.66089  0.0000E+00  0.7518E-05  0.1051E-07  0.1664E-02  0.6171E-03  0.1366E+01
   -1.925278    8.66145  0.0000E+00  0.7370E-05  0.1042E-07  0.1612E-02  0.5462E-03  0.1242E+01
   -1.994039    8.66201  0.0000E+00  0.7229E-05  0.1041E-07  0.1552E-02  0.4849E-03  0.1125E+01
   -2.062799    8.66259  0.0000E+00  0.7094E-05  0.1047E-07  0.1485E-02  0.4318E-03  0.1013E+01
   -2.131559    8.66318  0.0000E+00  0.6968E-05  0.1061E-07  0.1417E-02  0.3858E-03  0.9090E+00
   -2.200318    8.66379  0.0000E+00  0.6847E-05  0.1084E-07  0.1351E-02  0.3460E-03  0.9107E+00
   -2.269077    8.66441  0.0000E+00  0.6725E-05  0.1118E-07  0.1277E-02  0.3102E-03  0.1079E+01
   -2.337836    8.66506  0.0000E+00  0.6592E-05  0.1170E-07  0.1182E-02  0.2766E-03  0.1459E+01
   -2.406594    8.66574  0.0000E+00  0.6440E-05  0.1251E-07  0.1067E-02  0.2441E-03  0.2173E+01
   -2.475351    8.66649  0.0000E+00  0.6261E-05  0.1382E-07  0.9204E-03  0.2125E-03  0.3610E+01
   -2.544108    8.66734  0.0000E+00  0.6036E-05  0.1616E-07  0.7983E-03  0.1810E-03  0.7004E+01
   -2.612865    8.66830  0.0000E+00  0.5662E-05  0.2251E-07  0.4819E-03  0.1519E-03  0.1420E+04
   -2.681621    8.67063  0.0000E+00  0.3434E-05  0.8682E-07  0.4509E-04  0.1125E-03 -0.5284E+04
   -2.750376    8.68890  0.0000E+00  0.0000E+00  0.0000E+00  0.0000E+00  0.1172E-03  0.0000E+00
