 1 - depth, m
 2 - temperature, C
 3 - salinity, kg/kg
 4 - turbulent kinetic energy, m**2/s**2
 5 - dissipation rate, m**2/s**3
 6 - kinematic heat conductance, m**2/s
 7 - modulus of horizontal velocity, m/s
 8 - Richardson number, n/d
   -0.000000    0.00000  0.0000E+00  0.1219E-13  0.7604E-17  0.1000E-09  0.0000E+00  0.2624E+17
   -0.068731    0.41684  0.0000E+00  0.1219E-13  0.7604E-17  0.1000E-09  0.0000E+00  0.1928E+17
   -0.137463    0.75948  0.0000E+00  0.1219E-13  0.7604E-17  0.1000E-09  0.0000E+00  0.1415E+17
   -0.206195    1.03767  0.0000E+00  0.1219E-13  0.7604E-17  0.1000E-09  0.0000E+00  0.1038E+17
   -0.274928    1.26079  0.0000E+00  0.1827E-13  0.7837E-17  0.1000E-09  0.0000E+00  0.7863E+16
   -0.343662    1.44340  0.0000E+00  0.5482E-13  0.1228E-16  0.1000E-09  0.0000E+00  0.6048E+16
   -0.412396    1.59375  0.0000E+00  0.1750E-12  0.3286E-16  0.1000E-09  0.0000E+00  0.4706E+16
   -0.481131    1.71793  0.0000E+00  0.5194E-12  0.9263E-16  0.1000E-09  0.0000E+00  0.3675E+16
   -0.549866    1.82003  0.0000E+00  0.1496E-11  0.2576E-15  0.1000E-09  0.0000E+00  0.2790E+16
   -0.618601    1.90103  0.0000E+00  0.4231E-11  0.7046E-15  0.1000E-09  0.0000E+00  0.2131E+16
   -0.687337    1.96514  0.0000E+00  0.1176E-10  0.1897E-14  0.1000E-09  0.0000E+00  0.1925E+16
   -0.756073    2.02495  0.0000E+00  0.3218E-10  0.5028E-14  0.1000E-09  0.0000E+00  0.2031E+16
   -0.824809    2.09017  0.0000E+00  0.8671E-10  0.1313E-13  0.1000E-09  0.0000E+00  0.2279E+16
   -0.893546    2.16624  0.0000E+00  0.2302E-09  0.3380E-13  0.1000E-09  0.0000E+00  0.2674E+16
   -0.962283    2.25993  0.0000E+00  0.6021E-09  0.8579E-13  0.1418E-09  0.0000E+00  0.3214E+16
   -1.031020    2.38004  0.0000E+00  0.1550E-08  0.2144E-12  0.2752E-09  0.0000E+00  0.3915E+16
   -1.099758    2.54030  0.0000E+00  0.3931E-08  0.5280E-12  0.5775E-09  0.0000E+00  0.4614E+16
   -1.168495    2.75680  0.0000E+00  0.9828E-08  0.1282E-11  0.1293E-08  0.0000E+00  0.5037E+16
   -1.237233    3.05105  0.0000E+00  0.2420E-07  0.3070E-11  0.3483E-08  0.0000E+00  0.4560E+16
   -1.305970    3.44684  0.0000E+00  0.5799E-07  0.7170E-11  0.2163E-07  0.0000E+00  0.2238E+16
   -1.374708    3.91761  0.0000E+00  0.7770E-07  0.9693E-11  0.1203E-03  0.0000E+00  0.1788E+15
   -1.443446    4.04825  0.0000E+00  0.7893E-07  0.9869E-11  0.2157E-03  0.0000E+00 -0.3869E+12
   -1.512184    4.04865  0.0000E+00  0.7968E-07  0.1001E-10  0.2196E-03  0.0000E+00 -0.4059E+12
   -1.580921    4.04907  0.0000E+00  0.8036E-07  0.1016E-10  0.2238E-03  0.0000E+00 -0.4131E+12
   -1.649659    4.04949  0.0000E+00  0.8095E-07  0.1034E-10  0.2242E-03  0.0000E+00 -0.4226E+12
   -1.718396    4.04992  0.0000E+00  0.8148E-07  0.1053E-10  0.2233E-03  0.0000E+00 -0.4345E+12
   -1.787133    4.05036  0.0000E+00  0.8194E-07  0.1075E-10  0.2214E-03  0.0000E+00 -0.4494E+12
   -1.855870    4.05080  0.0000E+00  0.8232E-07  0.1100E-10  0.2188E-03  0.0000E+00 -0.4675E+12
   -1.924607    4.05127  0.0000E+00  0.8262E-07  0.1128E-10  0.2153E-03  0.0000E+00 -0.4897E+12
   -1.993343    4.05175  0.0000E+00  0.8282E-07  0.1160E-10  0.2110E-03  0.0000E+00 -0.5165E+12
   -2.062079    4.05225  0.0000E+00  0.8292E-07  0.1197E-10  0.2056E-03  0.0000E+00 -0.5351E+12
   -2.130815    4.05276  0.0000E+00  0.8290E-07  0.1240E-10  0.1993E-03  0.0000E+00 -0.5554E+12
   -2.199551    4.05330  0.0000E+00  0.8276E-07  0.1290E-10  0.1918E-03  0.0000E+00 -0.5808E+12
   -2.268286    4.05385  0.0000E+00  0.8248E-07  0.1352E-10  0.1830E-03  0.0000E+00 -0.6141E+12
   -2.337020    4.05442  0.0000E+00  0.8204E-07  0.1431E-10  0.1719E-03  0.0000E+00 -0.6602E+12
   -2.405754    4.05504  0.0000E+00  0.8136E-07  0.1540E-10  0.1564E-03  0.0000E+00 -0.7321E+12
   -2.474488    4.05572  0.0000E+00  0.8022E-07  0.1722E-10  0.1240E-03  0.0000E+00 -0.9376E+12
   -2.543221    4.05658  0.0000E+00  0.7810E-07  0.2088E-10  0.7745E-04  0.0000E+00 -0.1544E+13
   -2.611953    4.05798  0.0000E+00  0.7366E-07  0.3001E-10  0.3999E-04  0.0000E+00 -0.3157E+13
   -2.680685    4.06075  0.0000E+00  0.4689E-07  0.1108E-09  0.3103E-05  0.0000E+00 -0.5437E+14
   -2.749416    4.09812  0.0000E+00  0.0000E+00  0.0000E+00  0.0000E+00  0.0000E+00  0.0000E+00
