 1 - depth, m
 2 - temperature, C
 3 - salinity, kg/kg
 4 - turbulent kinetic energy, m**2/s**2
 5 - dissipation rate, m**2/s**3
 6 - kinematic heat conductance, m**2/s
 7 - modulus of horizontal velocity, m/s
 8 - Richardson number, n/d
   -0.000000    0.00000  0.0000E+00  0.2813E-09  0.2416E-12  0.1000E-09  0.0000E+00  0.4542E+17
   -0.068733    0.75756  0.0000E+00  0.1805E-08  0.2463E-12  0.1000E-09  0.0000E+00  0.3257E+17
   -0.137466    1.44512  0.0000E+00  0.4920E-08  0.4510E-12  0.1019E-09  0.0000E+00  0.2280E+17
   -0.206200    2.07574  0.0000E+00  0.1096E-07  0.9058E-12  0.3038E-09  0.0000E+00  0.1518E+17
   -0.274935    2.65893  0.0000E+00  0.2284E-07  0.1812E-11  0.1013E-08  0.0000E+00  0.9118E+16
   -0.343670    3.20044  0.0000E+00  0.4625E-07  0.3576E-11  0.4319E-08  0.0000E+00  0.4227E+16
   -0.412406    3.69846  0.0000E+00  0.8993E-07  0.6823E-11  0.5711E-07  0.0000E+00  0.6230E+15
   -0.481142    4.04867  0.0000E+00  0.9064E-07  0.6881E-11  0.4050E-03  0.0000E+00 -0.1592E+12
   -0.549879    4.04883  0.0000E+00  0.9098E-07  0.6914E-11  0.3979E-03  0.0000E+00 -0.1622E+12
   -0.618616    4.04900  0.0000E+00  0.9128E-07  0.6951E-11  0.3979E-03  0.0000E+00 -0.1619E+12
   -0.687353    4.04916  0.0000E+00  0.9157E-07  0.6992E-11  0.3981E-03  0.0000E+00 -0.1617E+12
   -0.756091    4.04933  0.0000E+00  0.9182E-07  0.7039E-11  0.3978E-03  0.0000E+00 -0.1617E+12
   -0.824829    4.04949  0.0000E+00  0.9206E-07  0.7090E-11  0.3971E-03  0.0000E+00 -0.1621E+12
   -0.893568    4.04965  0.0000E+00  0.9227E-07  0.7146E-11  0.3960E-03  0.0000E+00 -0.1630E+12
   -0.962306    4.04982  0.0000E+00  0.9245E-07  0.7209E-11  0.3943E-03  0.0000E+00 -0.1642E+12
   -1.031045    4.04998  0.0000E+00  0.9261E-07  0.7278E-11  0.3922E-03  0.0000E+00 -0.1658E+12
   -1.099784    4.05015  0.0000E+00  0.9274E-07  0.7353E-11  0.3897E-03  0.0000E+00 -0.1678E+12
   -1.168523    4.05032  0.0000E+00  0.9284E-07  0.7435E-11  0.3866E-03  0.0000E+00 -0.1701E+12
   -1.237263    4.05049  0.0000E+00  0.9292E-07  0.7524E-11  0.3831E-03  0.0000E+00 -0.1729E+12
   -1.306002    4.05066  0.0000E+00  0.9297E-07  0.7622E-11  0.3791E-03  0.0000E+00 -0.1760E+12
   -1.374741    4.05083  0.0000E+00  0.9300E-07  0.7729E-11  0.3746E-03  0.0000E+00 -0.1792E+12
   -1.443481    4.05101  0.0000E+00  0.9299E-07  0.7845E-11  0.3696E-03  0.0000E+00 -0.1826E+12
   -1.512220    4.05119  0.0000E+00  0.9295E-07  0.7973E-11  0.3641E-03  0.0000E+00 -0.1864E+12
   -1.580959    4.05137  0.0000E+00  0.9288E-07  0.8116E-11  0.3580E-03  0.0000E+00 -0.1908E+12
   -1.649698    4.05156  0.0000E+00  0.9278E-07  0.8275E-11  0.3512E-03  0.0000E+00 -0.1958E+12
   -1.718437    4.05175  0.0000E+00  0.9264E-07  0.8453E-11  0.3437E-03  0.0000E+00 -0.2015E+12
   -1.787176    4.05195  0.0000E+00  0.9247E-07  0.8654E-11  0.3356E-03  0.0000E+00 -0.2080E+12
   -1.855915    4.05215  0.0000E+00  0.9225E-07  0.8881E-11  0.3267E-03  0.0000E+00 -0.2154E+12
   -1.924653    4.05236  0.0000E+00  0.9200E-07  0.9139E-11  0.3169E-03  0.0000E+00 -0.2240E+12
   -1.993391    4.05258  0.0000E+00  0.9170E-07  0.9435E-11  0.3064E-03  0.0000E+00 -0.2339E+12
   -2.062129    4.05280  0.0000E+00  0.9134E-07  0.9777E-11  0.2949E-03  0.0000E+00 -0.2448E+12
   -2.130866    4.05304  0.0000E+00  0.9093E-07  0.1018E-10  0.2824E-03  0.0000E+00 -0.2575E+12
   -2.199603    4.05329  0.0000E+00  0.9047E-07  0.1065E-10  0.2689E-03  0.0000E+00 -0.2726E+12
   -2.268340    4.05355  0.0000E+00  0.8993E-07  0.1122E-10  0.2540E-03  0.0000E+00 -0.2911E+12
   -2.337076    4.05382  0.0000E+00  0.8928E-07  0.1195E-10  0.2370E-03  0.0000E+00 -0.3149E+12
   -2.405812    4.05412  0.0000E+00  0.8848E-07  0.1294E-10  0.2188E-03  0.0000E+00 -0.3444E+12
   -2.474547    4.05444  0.0000E+00  0.8725E-07  0.1464E-10  0.1492E-03  0.0000E+00 -0.5115E+12
   -2.543282    4.05492  0.0000E+00  0.8497E-07  0.1827E-10  0.8870E-04  0.0000E+00 -0.8780E+12
   -2.612016    4.05574  0.0000E+00  0.8040E-07  0.2742E-10  0.4466E-04  0.0000E+00 -0.1808E+13
   -2.680750    4.05738  0.0000E+00  0.5016E-07  0.1163E-09  0.3007E-05  0.0000E+00 -0.3235E+14
   -2.749482    4.08217  0.0000E+00  0.0000E+00  0.0000E+00  0.0000E+00  0.0000E+00  0.0000E+00
