 1 - depth, m
 2 - temperature, C
 3 - salinity, kg/kg
 4 - turbulent kinetic energy, m**2/s**2
 5 - dissipation rate, m**2/s**3
 6 - kinematic heat conductance, m**2/s
 7 - modulus of horizontal velocity, m/s
 8 - Richardson number, n/d
   -0.000000    0.00000  0.0000E+00  0.4672E-08  0.8068E-11  0.5453E-09  0.0000E+00  0.7523E+17
   -0.068728    1.37971  0.0000E+00  0.5464E-07  0.7735E-11  0.9317E-09  0.0000E+00  0.4231E+17
   -0.137457    2.73586  0.0000E+00  0.1561E-06  0.1385E-10  0.5709E-08  0.0000E+00  0.1239E+17
   -0.206187    4.03561  0.0000E+00  0.1571E-06  0.1393E-10  0.5811E-03  0.0000E+00 -0.2504E+12
   -0.274917    4.03593  0.0000E+00  0.1576E-06  0.1398E-10  0.5725E-03  0.0000E+00 -0.2463E+12
   -0.343648    4.03625  0.0000E+00  0.1580E-06  0.1403E-10  0.5737E-03  0.0000E+00 -0.2409E+12
   -0.412379    4.03656  0.0000E+00  0.1584E-06  0.1408E-10  0.5745E-03  0.0000E+00 -0.2366E+12
   -0.481111    4.03686  0.0000E+00  0.1587E-06  0.1414E-10  0.5748E-03  0.0000E+00 -0.2331E+12
   -0.549843    4.03715  0.0000E+00  0.1590E-06  0.1421E-10  0.5744E-03  0.0000E+00 -0.2306E+12
   -0.618576    4.03744  0.0000E+00  0.1592E-06  0.1428E-10  0.5735E-03  0.0000E+00 -0.2287E+12
   -0.687309    4.03772  0.0000E+00  0.1593E-06  0.1436E-10  0.5720E-03  0.0000E+00 -0.2273E+12
   -0.756042    4.03801  0.0000E+00  0.1595E-06  0.1445E-10  0.5699E-03  0.0000E+00 -0.2263E+12
   -0.824776    4.03828  0.0000E+00  0.1596E-06  0.1455E-10  0.5672E-03  0.0000E+00 -0.2260E+12
   -0.893510    4.03856  0.0000E+00  0.1596E-06  0.1466E-10  0.5639E-03  0.0000E+00 -0.2262E+12
   -0.962244    4.03884  0.0000E+00  0.1596E-06  0.1478E-10  0.5600E-03  0.0000E+00 -0.2269E+12
   -1.030978    4.03911  0.0000E+00  0.1596E-06  0.1491E-10  0.5555E-03  0.0000E+00 -0.2280E+12
   -1.099713    4.03939  0.0000E+00  0.1596E-06  0.1506E-10  0.5503E-03  0.0000E+00 -0.2297E+12
   -1.168448    4.03966  0.0000E+00  0.1594E-06  0.1521E-10  0.5446E-03  0.0000E+00 -0.2318E+12
   -1.237182    4.03994  0.0000E+00  0.1593E-06  0.1539E-10  0.5382E-03  0.0000E+00 -0.2344E+12
   -1.305917    4.04022  0.0000E+00  0.1591E-06  0.1558E-10  0.5313E-03  0.0000E+00 -0.2375E+12
   -1.374652    4.04050  0.0000E+00  0.1589E-06  0.1579E-10  0.5237E-03  0.0000E+00 -0.2411E+12
   -1.443387    4.04078  0.0000E+00  0.1587E-06  0.1602E-10  0.5155E-03  0.0000E+00 -0.2451E+12
   -1.512122    4.04107  0.0000E+00  0.1584E-06  0.1627E-10  0.5065E-03  0.0000E+00 -0.2498E+12
   -1.580857    4.04136  0.0000E+00  0.1580E-06  0.1655E-10  0.4968E-03  0.0000E+00 -0.2552E+12
   -1.649591    4.04166  0.0000E+00  0.1576E-06  0.1687E-10  0.4862E-03  0.0000E+00 -0.2614E+12
   -1.718326    4.04196  0.0000E+00  0.1572E-06  0.1723E-10  0.4748E-03  0.0000E+00 -0.2685E+12
   -1.787060    4.04226  0.0000E+00  0.1567E-06  0.1763E-10  0.4625E-03  0.0000E+00 -0.2766E+12
   -1.855794    4.04258  0.0000E+00  0.1562E-06  0.1809E-10  0.4492E-03  0.0000E+00 -0.2858E+12
   -1.924528    4.04290  0.0000E+00  0.1555E-06  0.1862E-10  0.4349E-03  0.0000E+00 -0.2965E+12
   -1.993262    4.04324  0.0000E+00  0.1549E-06  0.1922E-10  0.4195E-03  0.0000E+00 -0.3088E+12
   -2.061995    4.04358  0.0000E+00  0.1541E-06  0.1992E-10  0.4029E-03  0.0000E+00 -0.3229E+12
   -2.130728    4.04394  0.0000E+00  0.1533E-06  0.2074E-10  0.3852E-03  0.0000E+00 -0.3394E+12
   -2.199461    4.04432  0.0000E+00  0.1524E-06  0.2171E-10  0.3661E-03  0.0000E+00 -0.3590E+12
   -2.268193    4.04471  0.0000E+00  0.1515E-06  0.2289E-10  0.3453E-03  0.0000E+00 -0.3828E+12
   -2.336925    4.04513  0.0000E+00  0.1503E-06  0.2441E-10  0.3217E-03  0.0000E+00 -0.4138E+12
   -2.405656    4.04558  0.0000E+00  0.1490E-06  0.2642E-10  0.2972E-03  0.0000E+00 -0.4511E+12
   -2.474387    4.04606  0.0000E+00  0.1470E-06  0.2975E-10  0.2304E-03  0.0000E+00 -0.5870E+12
   -2.543117    4.04669  0.0000E+00  0.1434E-06  0.3698E-10  0.1212E-03  0.0000E+00 -0.1135E+13
   -2.611847    4.04787  0.0000E+00  0.1361E-06  0.5570E-10  0.5988E-04  0.0000E+00 -0.2375E+13
   -2.680576    4.05029  0.0000E+00  0.8395E-07  0.2505E-09  0.3841E-05  0.0000E+00 -0.4793E+14
   -2.749304    4.08741  0.0000E+00  0.0000E+00  0.0000E+00  0.0000E+00  0.0000E+00  0.0000E+00
