 1 - depth, m
 2 - temperature, C
 3 - salinity, kg/kg
 4 - turbulent kinetic energy, m**2/s**2
 5 - dissipation rate, m**2/s**3
 6 - kinematic heat conductance, m**2/s
 7 - modulus of horizontal velocity, m/s
 8 - Richardson number, n/d
   -0.000000    0.00000  0.0000E+00  0.2677E-08  0.4178E-11  0.3823E-09  0.0000E+00  0.5508E+17
   -0.068745    0.94473  0.0000E+00  0.2890E-07  0.5250E-11  0.6768E-09  0.0000E+00  0.3911E+17
   -0.137492    1.87491  0.0000E+00  0.9064E-07  0.1222E-10  0.2430E-08  0.0000E+00  0.2532E+17
   -0.206238    2.85189  0.0000E+00  0.2317E-06  0.2924E-10  0.1768E-07  0.0000E+00  0.9781E+16
   -0.274986    3.87408  0.0000E+00  0.2978E-06  0.3703E-10  0.4561E-03  0.0000E+00  0.5361E+15
   -0.343734    4.11904  0.0000E+00  0.2991E-06  0.3720E-10  0.7895E-03  0.0000E+00 -0.4697E+12
   -0.412482    4.11927  0.0000E+00  0.2998E-06  0.3734E-10  0.7862E-03  0.0000E+00 -0.4837E+12
   -0.481231    4.11951  0.0000E+00  0.3004E-06  0.3748E-10  0.7690E-03  0.0000E+00 -0.4706E+12
   -0.549980    4.11974  0.0000E+00  0.3009E-06  0.3765E-10  0.7684E-03  0.0000E+00 -0.4641E+12
   -0.618730    4.11996  0.0000E+00  0.3013E-06  0.3784E-10  0.7673E-03  0.0000E+00 -0.4594E+12
   -0.687480    4.12018  0.0000E+00  0.3017E-06  0.3804E-10  0.7654E-03  0.0000E+00 -0.4554E+12
   -0.756231    4.12040  0.0000E+00  0.3019E-06  0.3827E-10  0.7626E-03  0.0000E+00 -0.4524E+12
   -0.824981    4.12062  0.0000E+00  0.3021E-06  0.3852E-10  0.7591E-03  0.0000E+00 -0.4506E+12
   -0.893732    4.12084  0.0000E+00  0.3022E-06  0.3880E-10  0.7546E-03  0.0000E+00 -0.4500E+12
   -0.962484    4.12105  0.0000E+00  0.3022E-06  0.3911E-10  0.7493E-03  0.0000E+00 -0.4505E+12
   -1.031235    4.12127  0.0000E+00  0.3021E-06  0.3945E-10  0.7431E-03  0.0000E+00 -0.4524E+12
   -1.099987    4.12148  0.0000E+00  0.3020E-06  0.3982E-10  0.7361E-03  0.0000E+00 -0.4552E+12
   -1.168739    4.12170  0.0000E+00  0.3017E-06  0.4023E-10  0.7281E-03  0.0000E+00 -0.4593E+12
   -1.237491    4.12191  0.0000E+00  0.3014E-06  0.4069E-10  0.7193E-03  0.0000E+00 -0.4643E+12
   -1.306243    4.12213  0.0000E+00  0.3011E-06  0.4118E-10  0.7096E-03  0.0000E+00 -0.4705E+12
   -1.374995    4.12236  0.0000E+00  0.3006E-06  0.4173E-10  0.6991E-03  0.0000E+00 -0.4775E+12
   -1.443747    4.12258  0.0000E+00  0.3001E-06  0.4234E-10  0.6877E-03  0.0000E+00 -0.4858E+12
   -1.512499    4.12281  0.0000E+00  0.2995E-06  0.4300E-10  0.6753E-03  0.0000E+00 -0.4950E+12
   -1.581251    4.12304  0.0000E+00  0.2988E-06  0.4375E-10  0.6617E-03  0.0000E+00 -0.5058E+12
   -1.650002    4.12328  0.0000E+00  0.2980E-06  0.4460E-10  0.6471E-03  0.0000E+00 -0.5180E+12
   -1.718754    4.12352  0.0000E+00  0.2971E-06  0.4555E-10  0.6312E-03  0.0000E+00 -0.5322E+12
   -1.787506    4.12377  0.0000E+00  0.2961E-06  0.4663E-10  0.6140E-03  0.0000E+00 -0.5484E+12
   -1.856257    4.12402  0.0000E+00  0.2950E-06  0.4785E-10  0.5956E-03  0.0000E+00 -0.5672E+12
   -1.925008    4.12428  0.0000E+00  0.2937E-06  0.4926E-10  0.5757E-03  0.0000E+00 -0.5887E+12
   -1.993759    4.12456  0.0000E+00  0.2924E-06  0.5089E-10  0.5544E-03  0.0000E+00 -0.6138E+12
   -2.062509    4.12484  0.0000E+00  0.2909E-06  0.5278E-10  0.5316E-03  0.0000E+00 -0.6425E+12
   -2.131259    4.12514  0.0000E+00  0.2893E-06  0.5500E-10  0.5072E-03  0.0000E+00 -0.6763E+12
   -2.200009    4.12545  0.0000E+00  0.2875E-06  0.5763E-10  0.4811E-03  0.0000E+00 -0.7162E+12
   -2.268758    4.12578  0.0000E+00  0.2855E-06  0.6085E-10  0.4527E-03  0.0000E+00 -0.7646E+12
   -2.337507    4.12613  0.0000E+00  0.2832E-06  0.6499E-10  0.4208E-03  0.0000E+00 -0.8268E+12
   -2.406256    4.12650  0.0000E+00  0.2805E-06  0.7053E-10  0.3851E-03  0.0000E+00 -0.9093E+12
   -2.475004    4.12692  0.0000E+00  0.2772E-06  0.7850E-10  0.3433E-03  0.0000E+00 -0.1021E+13
   -2.543751    4.12738  0.0000E+00  0.2718E-06  0.9412E-10  0.2124E-03  0.0000E+00 -0.1660E+13
   -2.612498    4.12813  0.0000E+00  0.2592E-06  0.1390E-09  0.8964E-04  0.0000E+00 -0.3994E+13
   -2.681244    4.12993  0.0000E+00  0.1587E-06  0.6535E-09  0.5198E-05  0.0000E+00 -0.7641E+14
   -2.749989    4.16068  0.0000E+00  0.0000E+00  0.0000E+00  0.0000E+00  0.0000E+00  0.0000E+00
