 1 - depth, m
 2 - temperature, C
 3 - salinity, kg/kg
 4 - turbulent kinetic energy, m**2/s**2
 5 - dissipation rate, m**2/s**3
 6 - kinematic heat conductance, m**2/s
 7 - modulus of horizontal velocity, m/s
 8 - Richardson number, n/d
   -0.000000    4.20781  0.0000E+00  0.3621E-03  0.2540E-03  0.1295E-03  0.1954E+00 -0.1267E-01
   -0.068772    4.30813  0.0000E+00  0.1952E-03  0.6555E-04  0.2817E-03  0.5976E-01 -0.1853E-02
   -0.137544    4.32451  0.0000E+00  0.1405E-03  0.2968E-04  0.2641E-03  0.4566E-01 -0.4749E-02
   -0.206317    4.33710  0.0000E+00  0.1068E-03  0.1562E-04  0.2599E-03  0.3821E-01 -0.6250E-02
   -0.275091    4.34656  0.0000E+00  0.8501E-04  0.8668E-05  0.2625E-03  0.3312E-01 -0.2954E-02
   -0.343865    4.35447  0.0000E+00  0.6962E-04  0.4818E-05  0.2731E-03  0.2873E-01 -0.5091E-02
   -0.412640    4.36129  0.0000E+00  0.5843E-04  0.2703E-05  0.2865E-03  0.2501E-01 -0.4896E-02
   -0.481415    4.36733  0.0000E+00  0.5018E-04  0.1616E-05  0.3013E-03  0.2183E-01 -0.6304E-02
   -0.550191    4.37278  0.0000E+00  0.4370E-04  0.1023E-05  0.3185E-03  0.1911E-01 -0.8624E-02
   -0.618967    4.37772  0.0000E+00  0.3854E-04  0.6866E-06  0.3344E-03  0.1683E-01 -0.1166E-01
   -0.687743    4.38228  0.0000E+00  0.3432E-04  0.4860E-06  0.3492E-03  0.1490E-01 -0.1565E-01
   -0.756520    4.38652  0.0000E+00  0.3081E-04  0.3590E-06  0.3632E-03  0.1325E-01 -0.2090E-01
   -0.825297    4.39050  0.0000E+00  0.2785E-04  0.2740E-06  0.3766E-03  0.1181E-01 -0.2786E-01
   -0.894074    4.39425  0.0000E+00  0.2531E-04  0.2143E-06  0.3900E-03  0.1057E-01 -0.3717E-01
   -0.962852    4.39780  0.0000E+00  0.2313E-04  0.1710E-06  0.4038E-03  0.9475E-02 -0.4977E-01
   -1.031630    4.40117  0.0000E+00  0.2125E-04  0.1388E-06  0.4141E-03  0.8521E-02 -0.6222E-01
   -1.100408    4.40438  0.0000E+00  0.1961E-04  0.1144E-06  0.4243E-03  0.7659E-02 -0.7717E-01
   -1.169186    4.40745  0.0000E+00  0.1816E-04  0.9545E-07  0.4344E-03  0.6876E-02 -0.9447E-01
   -1.237964    4.41038  0.0000E+00  0.1686E-04  0.8047E-07  0.4447E-03  0.6166E-02 -0.1067E+00
   -1.306742    4.41318  0.0000E+00  0.1569E-04  0.6845E-07  0.4585E-03  0.5518E-02  0.6150E+01
   -1.375521    4.41583  0.0000E+00  0.1462E-04  0.5867E-07  0.4773E-03  0.4925E-02  0.3087E+01
   -1.444299    4.41833  0.0000E+00  0.1364E-04  0.5059E-07  0.4974E-03  0.4380E-02  0.7136E+03
   -1.513077    4.42068  0.0000E+00  0.1274E-04  0.4383E-07  0.5215E-03  0.3877E-02  0.1337E+03
   -1.581855    4.42290  0.0000E+00  0.1189E-04  0.3812E-07  0.5429E-03  0.3427E-02  0.3373E+01
   -1.650634    4.42498  0.0000E+00  0.1111E-04  0.3329E-07  0.5645E-03  0.3027E-02  0.3754E+02
   -1.719411    4.42695  0.0000E+00  0.1040E-04  0.2922E-07  0.5832E-03  0.2671E-02  0.3406E+01
   -1.788189    4.42883  0.0000E+00  0.9746E-05  0.2577E-07  0.5938E-03  0.2355E-02  0.1254E+02
   -1.856967    4.43063  0.0000E+00  0.9149E-05  0.2286E-07  0.6029E-03  0.2072E-02  0.8230E+01
   -1.925744    4.43236  0.0000E+00  0.8604E-05  0.2040E-07  0.6070E-03  0.1819E-02  0.6317E+02
   -1.994521    4.43405  0.0000E+00  0.8107E-05  0.1834E-07  0.6081E-03  0.1591E-02  0.9662E+01
   -2.063298    4.43568  0.0000E+00  0.7655E-05  0.1662E-07  0.6047E-03  0.1386E-02  0.7104E+02
   -2.132075    4.43729  0.0000E+00  0.7242E-05  0.1521E-07  0.5973E-03  0.1199E-02  0.3900E+01
   -2.200851    4.43888  0.0000E+00  0.6865E-05  0.1409E-07  0.5850E-03  0.1029E-02  0.1687E+02
   -2.269626    4.44046  0.0000E+00  0.6518E-05  0.1323E-07  0.5680E-03  0.8716E-03  0.2944E+03
   -2.338401    4.44205  0.0000E+00  0.6187E-05  0.1263E-07  0.5416E-03  0.7303E-03  0.1834E+03
   -2.407176    4.44369  0.0000E+00  0.5864E-05  0.1233E-07  0.5037E-03  0.6043E-03  0.1913E+02
   -2.475950    4.44542  0.0000E+00  0.5537E-05  0.1246E-07  0.4480E-03  0.4905E-03  0.4308E+02
   -2.544724    4.44734  0.0000E+00  0.5175E-05  0.1338E-07  0.3452E-03  0.3859E-03  0.1503E+04
   -2.613497    4.44976  0.0000E+00  0.4687E-05  0.1657E-07  0.1987E-03  0.2886E-03 -0.2533E+02
   -2.682269    4.45380  0.0000E+00  0.2610E-05  0.4968E-07  0.1849E-04  0.1968E-03 -0.1464E+06
   -2.751041    4.49757  0.0000E+00  0.0000E+00  0.0000E+00  0.0000E+00  0.1966E-03  0.0000E+00
