 1 - depth, m
 2 - temperature, C
 3 - salinity, kg/kg
 4 - turbulent kinetic energy, m**2/s**2
 5 - dissipation rate, m**2/s**3
 6 - kinematic heat conductance, m**2/s
 7 - modulus of horizontal velocity, m/s
 8 - Richardson number, n/d
   -0.000000    0.00000  0.0000E+00  0.1219E-13  0.7603E-17  0.1000E-09  0.0000E+00  0.1339E+17
   -0.068735    0.20649  0.0000E+00  0.1219E-13  0.7603E-17  0.1000E-09  0.0000E+00  0.1255E+17
   -0.137470    0.41158  0.0000E+00  0.3005E-13  0.7603E-17  0.1000E-09  0.0000E+00  0.1171E+17
   -0.206206    0.61504  0.0000E+00  0.9064E-13  0.8511E-17  0.1000E-09  0.0000E+00  0.1089E+17
   -0.274943    0.81666  0.0000E+00  0.2026E-12  0.1280E-16  0.1000E-09  0.0000E+00  0.1011E+17
   -0.343680    1.01676  0.0000E+00  0.3904E-12  0.2172E-16  0.1000E-09  0.0000E+00  0.9346E+16
   -0.412418    1.21517  0.0000E+00  0.7069E-12  0.3741E-16  0.1000E-09  0.0000E+00  0.8589E+16
   -0.481156    1.41164  0.0000E+00  0.1245E-11  0.6417E-16  0.1000E-09  0.0000E+00  0.7841E+16
   -0.549895    1.60575  0.0000E+00  0.2168E-11  0.1097E-15  0.1000E-09  0.0000E+00  0.7096E+16
   -0.618634    1.79683  0.0000E+00  0.3750E-11  0.1868E-15  0.1000E-09  0.0000E+00  0.6371E+16
   -0.687374    1.98447  0.0000E+00  0.6464E-11  0.3176E-15  0.1000E-09  0.0000E+00  0.5699E+16
   -0.756113    2.16927  0.0000E+00  0.1111E-10  0.5392E-15  0.1000E-09  0.0000E+00  0.5064E+16
   -0.824853    2.35146  0.0000E+00  0.1908E-10  0.9154E-15  0.1000E-09  0.0000E+00  0.4448E+16
   -0.893594    2.53073  0.0000E+00  0.3274E-10  0.1555E-14  0.1000E-09  0.0000E+00  0.3855E+16
   -0.962334    2.70677  0.0000E+00  0.5621E-10  0.2645E-14  0.1000E-09  0.0000E+00  0.3287E+16
   -1.031075    2.87930  0.0000E+00  0.9649E-10  0.4504E-14  0.1000E-09  0.0000E+00  0.2751E+16
   -1.099816    3.04830  0.0000E+00  0.1658E-09  0.7682E-14  0.1000E-09  0.0000E+00  0.2243E+16
   -1.168557    3.21345  0.0000E+00  0.2854E-09  0.1314E-13  0.1000E-09  0.0000E+00  0.1763E+16
   -1.237299    3.37421  0.0000E+00  0.4928E-09  0.2256E-13  0.1051E-09  0.0000E+00  0.1310E+16
   -1.306040    3.52941  0.0000E+00  0.8541E-09  0.3889E-13  0.2234E-09  0.0000E+00  0.8880E+15
   -1.374781    3.67642  0.0000E+00  0.1486E-08  0.6729E-13  0.6634E-09  0.0000E+00  0.5147E+15
   -1.443523    3.81188  0.0000E+00  0.2593E-08  0.1168E-12  0.2750E-08  0.0000E+00  0.2104E+15
   -1.512264    3.92719  0.0000E+00  0.4464E-08  0.2003E-12  0.5946E-07  0.0000E+00  0.2906E+14
   -1.581005    3.99707  0.0000E+00  0.4789E-08  0.2158E-12  0.4098E-04  0.0000E+00 -0.5032E+11
   -1.649747    3.99739  0.0000E+00  0.4950E-08  0.2248E-12  0.4183E-04  0.0000E+00 -0.5580E+11
   -1.718488    3.99772  0.0000E+00  0.5101E-08  0.2348E-12  0.4283E-04  0.0000E+00 -0.5823E+11
   -1.787228    3.99806  0.0000E+00  0.5242E-08  0.2458E-12  0.4338E-04  0.0000E+00 -0.6093E+11
   -1.855969    3.99841  0.0000E+00  0.5373E-08  0.2580E-12  0.4346E-04  0.0000E+00 -0.6427E+11
   -1.924709    3.99876  0.0000E+00  0.5494E-08  0.2717E-12  0.4301E-04  0.0000E+00 -0.6849E+11
   -1.993450    3.99912  0.0000E+00  0.5604E-08  0.2873E-12  0.4202E-04  0.0000E+00 -0.7384E+11
   -2.062189    3.99950  0.0000E+00  0.5701E-08  0.3051E-12  0.4068E-04  0.0000E+00 -0.8076E+11
   -2.130929    3.99990  0.0000E+00  0.5784E-08  0.3258E-12  0.3888E-04  0.0000E+00 -0.8957E+11
   -2.199668    4.00033  0.0000E+00  0.5851E-08  0.3502E-12  0.3658E-04  0.0000E+00 -0.1011E+12
   -2.268407    4.00079  0.0000E+00  0.5896E-08  0.3801E-12  0.3367E-04  0.0000E+00 -0.1168E+12
   -2.337145    4.00132  0.0000E+00  0.5916E-08  0.4194E-12  0.2998E-04  0.0000E+00 -0.1400E+12
   -2.405883    4.00192  0.0000E+00  0.5902E-08  0.4744E-12  0.2546E-04  0.0000E+00 -0.1775E+12
   -2.474620    4.00265  0.0000E+00  0.5834E-08  0.5589E-12  0.2004E-04  0.0000E+00 -0.2463E+12
   -2.543356    4.00360  0.0000E+00  0.5667E-08  0.7129E-12  0.1367E-04  0.0000E+00 -0.4071E+12
   -2.612093    4.00508  0.0000E+00  0.5249E-08  0.1104E-11  0.6568E-05  0.0000E+00 -0.1038E+13
   -2.680828    4.00837  0.0000E+00  0.3597E-08  0.3435E-11  0.7803E-06  0.0000E+00 -0.1634E+14
   -2.749563    4.03705  0.0000E+00  0.0000E+00  0.0000E+00  0.0000E+00  0.0000E+00  0.0000E+00
