 1 - depth, m
 2 - temperature, C
 3 - salinity, kg/kg
 4 - turbulent kinetic energy, m**2/s**2
 5 - dissipation rate, m**2/s**3
 6 - kinematic heat conductance, m**2/s
 7 - modulus of horizontal velocity, m/s
 8 - Richardson number, n/d
   -0.000000    0.00000  0.0000E+00  0.6796E-10  0.4086E-13  0.1000E-09  0.0000E+00  0.3056E+17
   -0.068735    0.49044  0.0000E+00  0.3272E-09  0.3505E-13  0.1000E-09  0.0000E+00  0.2680E+17
   -0.137470    0.99037  0.0000E+00  0.8054E-09  0.4996E-13  0.1000E-09  0.0000E+00  0.2263E+17
   -0.206206    1.49387  0.0000E+00  0.1585E-08  0.8151E-13  0.1000E-09  0.0000E+00  0.1829E+17
   -0.274943    1.99622  0.0000E+00  0.2839E-08  0.1350E-12  0.1000E-09  0.0000E+00  0.1393E+17
   -0.343680    2.49272  0.0000E+00  0.4861E-08  0.2212E-12  0.1287E-09  0.0000E+00  0.9688E+16
   -0.412418    2.97734  0.0000E+00  0.8125E-08  0.3582E-12  0.3228E-09  0.0000E+00  0.5658E+16
   -0.481156    3.43650  0.0000E+00  0.1338E-07  0.5743E-12  0.1438E-08  0.0000E+00  0.2141E+16
   -0.549895    3.83863  0.0000E+00  0.1836E-07  0.7797E-12  0.2401E-04  0.0000E+00  0.2681E+15
   -0.618634    3.99363  0.0000E+00  0.1865E-07  0.7928E-12  0.1231E-03  0.0000E+00 -0.3331E+11
   -0.687374    3.99401  0.0000E+00  0.1883E-07  0.8024E-12  0.1270E-03  0.0000E+00 -0.3580E+11
   -0.756114    3.99436  0.0000E+00  0.1901E-07  0.8133E-12  0.1328E-03  0.0000E+00 -0.3725E+11
   -0.824854    3.99470  0.0000E+00  0.1918E-07  0.8254E-12  0.1374E-03  0.0000E+00 -0.3873E+11
   -0.893594    3.99503  0.0000E+00  0.1935E-07  0.8387E-12  0.1413E-03  0.0000E+00 -0.4025E+11
   -0.962335    3.99536  0.0000E+00  0.1952E-07  0.8532E-12  0.1448E-03  0.0000E+00 -0.4184E+11
   -1.031076    3.99567  0.0000E+00  0.1968E-07  0.8688E-12  0.1476E-03  0.0000E+00 -0.4346E+11
   -1.099817    3.99599  0.0000E+00  0.1984E-07  0.8856E-12  0.1501E-03  0.0000E+00 -0.4517E+11
   -1.168558    3.99630  0.0000E+00  0.2000E-07  0.9035E-12  0.1519E-03  0.0000E+00 -0.4705E+11
   -1.237299    3.99661  0.0000E+00  0.2015E-07  0.9225E-12  0.1531E-03  0.0000E+00 -0.4916E+11
   -1.306040    3.99692  0.0000E+00  0.2029E-07  0.9427E-12  0.1537E-03  0.0000E+00 -0.5154E+11
   -1.374782    3.99723  0.0000E+00  0.2042E-07  0.9642E-12  0.1534E-03  0.0000E+00 -0.5379E+11
   -1.443523    3.99755  0.0000E+00  0.2055E-07  0.9871E-12  0.1525E-03  0.0000E+00 -0.5613E+11
   -1.512265    3.99787  0.0000E+00  0.2066E-07  0.1012E-11  0.1512E-03  0.0000E+00 -0.5876E+11
   -1.581006    3.99820  0.0000E+00  0.2077E-07  0.1038E-11  0.1494E-03  0.0000E+00 -0.6167E+11
   -1.649747    3.99853  0.0000E+00  0.2088E-07  0.1068E-11  0.1473E-03  0.0000E+00 -0.6492E+11
   -1.718488    3.99887  0.0000E+00  0.2097E-07  0.1100E-11  0.1448E-03  0.0000E+00 -0.6855E+11
   -1.787229    3.99922  0.0000E+00  0.2105E-07  0.1135E-11  0.1420E-03  0.0000E+00 -0.7266E+11
   -1.855970    3.99958  0.0000E+00  0.2112E-07  0.1175E-11  0.1387E-03  0.0000E+00 -0.7733E+11
   -1.924710    3.99995  0.0000E+00  0.2117E-07  0.1219E-11  0.1350E-03  0.0000E+00 -0.8272E+11
   -1.993450    4.00034  0.0000E+00  0.2122E-07  0.1268E-11  0.1309E-03  0.0000E+00 -0.8899E+11
   -2.062190    4.00074  0.0000E+00  0.2124E-07  0.1324E-11  0.1260E-03  0.0000E+00 -0.9570E+11
   -2.130929    4.00116  0.0000E+00  0.2124E-07  0.1391E-11  0.1204E-03  0.0000E+00 -0.1037E+12
   -2.199668    4.00161  0.0000E+00  0.2121E-07  0.1471E-11  0.1121E-03  0.0000E+00 -0.1150E+12
   -2.268407    4.00208  0.0000E+00  0.2115E-07  0.1573E-11  0.1009E-03  0.0000E+00 -0.1321E+12
   -2.337145    4.00262  0.0000E+00  0.2103E-07  0.1716E-11  0.8857E-04  0.0000E+00 -0.1574E+12
   -2.405883    4.00324  0.0000E+00  0.2082E-07  0.1931E-11  0.6954E-04  0.0000E+00 -0.2097E+12
   -2.474620    4.00402  0.0000E+00  0.2049E-07  0.2269E-11  0.5251E-04  0.0000E+00 -0.2946E+12
   -2.543357    4.00507  0.0000E+00  0.1991E-07  0.2884E-11  0.3557E-04  0.0000E+00 -0.4722E+12
   -2.612093    4.00662  0.0000E+00  0.1870E-07  0.4415E-11  0.1769E-04  0.0000E+00 -0.1090E+13
   -2.680829    4.00981  0.0000E+00  0.1264E-07  0.1592E-10  0.1734E-05  0.0000E+00 -0.2032E+14
   -2.749564    4.04243  0.0000E+00  0.0000E+00  0.0000E+00  0.0000E+00  0.0000E+00  0.0000E+00
