 1 - depth, m
 2 - temperature, C
 3 - salinity, kg/kg
 4 - turbulent kinetic energy, m**2/s**2
 5 - dissipation rate, m**2/s**3
 6 - kinematic heat conductance, m**2/s
 7 - modulus of horizontal velocity, m/s
 8 - Richardson number, n/d
   -0.000000    0.00000  0.0000E+00  0.1219E-13  0.7604E-17  0.1000E-09  0.0000E+00  0.1218E+17
   -0.068757    0.18739  0.0000E+00  0.1219E-13  0.7604E-17  0.1000E-09  0.0000E+00  0.1135E+17
   -0.137514    0.37143  0.0000E+00  0.1219E-13  0.7604E-17  0.1000E-09  0.0000E+00  0.1059E+17
   -0.206272    0.55260  0.0000E+00  0.1219E-13  0.7604E-17  0.1000E-09  0.0000E+00  0.9877E+16
   -0.275030    0.73114  0.0000E+00  0.1219E-13  0.7604E-17  0.1000E-09  0.0000E+00  0.9207E+16
   -0.343789    0.90741  0.0000E+00  0.1219E-13  0.7604E-17  0.1000E-09  0.0000E+00  0.8561E+16
   -0.412548    1.08142  0.0000E+00  0.1219E-13  0.7604E-17  0.1000E-09  0.0000E+00  0.7934E+16
   -0.481308    1.25307  0.0000E+00  0.1219E-13  0.7604E-17  0.1000E-09  0.0000E+00  0.7320E+16
   -0.550069    1.42209  0.0000E+00  0.1219E-13  0.7604E-17  0.1000E-09  0.0000E+00  0.6714E+16
   -0.618829    1.58806  0.0000E+00  0.3950E-13  0.7604E-17  0.1000E-09  0.0000E+00  0.6128E+16
   -0.687591    1.75070  0.0000E+00  0.1160E-12  0.1044E-16  0.1000E-09  0.0000E+00  0.5586E+16
   -0.756352    1.91050  0.0000E+00  0.2609E-12  0.1894E-16  0.1000E-09  0.0000E+00  0.5076E+16
   -0.825114    2.06763  0.0000E+00  0.5301E-12  0.3581E-16  0.1000E-09  0.0000E+00  0.4582E+16
   -0.893876    2.22185  0.0000E+00  0.1034E-11  0.6744E-16  0.1000E-09  0.0000E+00  0.4106E+16
   -0.962638    2.37289  0.0000E+00  0.1981E-11  0.1259E-15  0.1000E-09  0.0000E+00  0.3649E+16
   -1.031401    2.52049  0.0000E+00  0.3748E-11  0.2329E-15  0.1000E-09  0.0000E+00  0.3216E+16
   -1.100164    2.66455  0.0000E+00  0.7029E-11  0.4275E-15  0.1000E-09  0.0000E+00  0.2806E+16
   -1.168927    2.80486  0.0000E+00  0.1309E-10  0.7791E-15  0.1000E-09  0.0000E+00  0.2420E+16
   -1.237690    2.94120  0.0000E+00  0.2420E-10  0.1411E-14  0.1000E-09  0.0000E+00  0.2059E+16
   -1.306453    3.07335  0.0000E+00  0.4449E-10  0.2540E-14  0.1000E-09  0.0000E+00  0.1723E+16
   -1.375216    3.20114  0.0000E+00  0.8128E-10  0.4545E-14  0.1000E-09  0.0000E+00  0.1425E+16
   -1.443979    3.32554  0.0000E+00  0.1476E-09  0.8087E-14  0.1000E-09  0.0000E+00  0.1151E+16
   -1.512742    3.44683  0.0000E+00  0.2668E-09  0.1432E-13  0.1000E-09  0.0000E+00  0.8956E+15
   -1.581505    3.56493  0.0000E+00  0.4817E-09  0.2534E-13  0.1960E-09  0.0000E+00  0.6579E+15
   -1.650268    3.67963  0.0000E+00  0.8662E-09  0.4466E-13  0.5184E-09  0.0000E+00  0.4384E+15
   -1.719030    3.79059  0.0000E+00  0.1550E-08  0.7832E-13  0.1674E-08  0.0000E+00  0.2381E+15
   -1.787793    3.89703  0.0000E+00  0.2745E-08  0.1361E-12  0.1116E-07  0.0000E+00  0.6211E+14
   -1.856555    3.99319  0.0000E+00  0.3089E-08  0.1539E-12  0.2290E-04  0.0000E+00 -0.6254E+11
   -1.925317    3.99376  0.0000E+00  0.3250E-08  0.1640E-12  0.2355E-04  0.0000E+00 -0.7101E+11
   -1.994079    3.99434  0.0000E+00  0.3391E-08  0.1750E-12  0.2385E-04  0.0000E+00 -0.7458E+11
   -2.062841    3.99492  0.0000E+00  0.3513E-08  0.1871E-12  0.2389E-04  0.0000E+00 -0.7954E+11
   -2.131602    3.99549  0.0000E+00  0.3616E-08  0.2009E-12  0.2346E-04  0.0000E+00 -0.8634E+11
   -2.200363    3.99607  0.0000E+00  0.3699E-08  0.2168E-12  0.2253E-04  0.0000E+00 -0.9570E+11
   -2.269123    3.99668  0.0000E+00  0.3761E-08  0.2362E-12  0.2111E-04  0.0000E+00 -0.1092E+12
   -2.337883    3.99733  0.0000E+00  0.3801E-08  0.2617E-12  0.1908E-04  0.0000E+00 -0.1299E+12
   -2.406642    3.99806  0.0000E+00  0.3810E-08  0.2975E-12  0.1637E-04  0.0000E+00 -0.1644E+12
   -2.475401    3.99892  0.0000E+00  0.3776E-08  0.3529E-12  0.1296E-04  0.0000E+00 -0.2297E+12
   -2.544160    4.00003  0.0000E+00  0.3665E-08  0.4557E-12  0.8825E-05  0.0000E+00 -0.3898E+12
   -2.612917    4.00174  0.0000E+00  0.3368E-08  0.7227E-12  0.4165E-05  0.0000E+00 -0.1063E+13
   -2.681675    4.00565  0.0000E+00  0.2376E-08  0.2162E-11  0.5842E-06  0.0000E+00 -0.1621E+14
   -2.750431    4.03575  0.0000E+00  0.0000E+00  0.0000E+00  0.0000E+00  0.0000E+00  0.0000E+00
