 1 - depth, m
 2 - temperature, C
 3 - salinity, kg/kg
 4 - turbulent kinetic energy, m**2/s**2
 5 - dissipation rate, m**2/s**3
 6 - kinematic heat conductance, m**2/s
 7 - modulus of horizontal velocity, m/s
 8 - Richardson number, n/d
   -0.000000   12.22451  0.0000E+00  0.1686E-03  0.6328E-04  0.1238E-03  0.1238E+00 -0.6602E-01
   -0.068741   12.26067  0.0000E+00  0.9003E-04  0.1491E-04  0.1603E-03  0.4267E-01 -0.3110E-01
   -0.137482   12.26582  0.0000E+00  0.6361E-04  0.5803E-05  0.1550E-03  0.3218E-01 -0.9034E-02
   -0.206225   12.26989  0.0000E+00  0.4771E-04  0.2610E-05  0.1647E-03  0.2626E-01 -0.1805E-01
   -0.274967   12.27318  0.0000E+00  0.3794E-04  0.1314E-05  0.1801E-03  0.2207E-01 -0.2268E-01
   -0.343711   12.27600  0.0000E+00  0.3153E-04  0.7338E-06  0.1993E-03  0.1864E-01 -0.2816E-01
   -0.412454   12.27846  0.0000E+00  0.2705E-04  0.4499E-06  0.2202E-03  0.1580E-01 -0.3505E-01
   -0.481199   12.28062  0.0000E+00  0.2369E-04  0.2972E-06  0.2421E-03  0.1345E-01 -0.4418E-01
   -0.549943   12.28253  0.0000E+00  0.2099E-04  0.2072E-06  0.2663E-03  0.1149E-01 -0.5834E-01
   -0.618688   12.28423  0.0000E+00  0.1879E-04  0.1508E-06  0.2913E-03  0.9871E-02 -0.7570E-01
   -0.687434   12.28576  0.0000E+00  0.1697E-04  0.1136E-06  0.3190E-03  0.8528E-02 -0.6847E-01
   -0.756180   12.28715  0.0000E+00  0.1545E-04  0.8795E-07  0.3498E-03  0.7404E-02 -0.8645E-01
   -0.824926   12.28841  0.0000E+00  0.1418E-04  0.6969E-07  0.3922E-03  0.6459E-02  0.9902E+01
   -0.893672   12.28953  0.0000E+00  0.1311E-04  0.5638E-07  0.4694E-03  0.5665E-02  0.1059E+02
   -0.962419   12.29051  0.0000E+00  0.1223E-04  0.4656E-07  0.6001E-03  0.5001E-02  0.5103E+02
   -1.031166   12.29133  0.0000E+00  0.1151E-04  0.3926E-07  0.7600E-03  0.4450E-02  0.5049E+02
   -1.099913   12.29199  0.0000E+00  0.1092E-04  0.3372E-07  0.9167E-03  0.3979E-02  0.7741E+02
   -1.168660   12.29253  0.0000E+00  0.1043E-04  0.2941E-07  0.1043E-02  0.3570E-02  0.1035E+03
   -1.237408   12.29300  0.0000E+00  0.1001E-04  0.2599E-07  0.1139E-02  0.3205E-02  0.1826E+03
   -1.306155   12.29342  0.0000E+00  0.9643E-05  0.2322E-07  0.1209E-02  0.2875E-02  0.2228E+02
   -1.374902   12.29380  0.0000E+00  0.9320E-05  0.2094E-07  0.1256E-02  0.2572E-02  0.1521E+02
   -1.443650   12.29417  0.0000E+00  0.9027E-05  0.1903E-07  0.1283E-02  0.2290E-02  0.8718E+01
   -1.512397   12.29453  0.0000E+00  0.8754E-05  0.1742E-07  0.1315E-02  0.2026E-02  0.3081E+01
   -1.581144   12.29489  0.0000E+00  0.8497E-05  0.1605E-07  0.1346E-02  0.1785E-02  0.2686E+01
   -1.649892   12.29524  0.0000E+00  0.8255E-05  0.1491E-07  0.1379E-02  0.1568E-02  0.2292E+01
   -1.718639   12.29558  0.0000E+00  0.8025E-05  0.1396E-07  0.1410E-02  0.1374E-02  0.2072E+01
   -1.787385   12.29592  0.0000E+00  0.7807E-05  0.1319E-07  0.1433E-02  0.1200E-02  0.1884E+01
   -1.856132   12.29626  0.0000E+00  0.7601E-05  0.1259E-07  0.1438E-02  0.1046E-02  0.1716E+01
   -1.924879   12.29661  0.0000E+00  0.7406E-05  0.1215E-07  0.1418E-02  0.9098E-03  0.1561E+01
   -1.993625   12.29696  0.0000E+00  0.7223E-05  0.1186E-07  0.1382E-02  0.7901E-03  0.1418E+01
   -2.062371   12.29732  0.0000E+00  0.7051E-05  0.1170E-07  0.1332E-02  0.6854E-03  0.1285E+01
   -2.131116   12.29771  0.0000E+00  0.6890E-05  0.1169E-07  0.1271E-02  0.5943E-03  0.1161E+01
   -2.199861   12.29812  0.0000E+00  0.6742E-05  0.1181E-07  0.1202E-02  0.5149E-03  0.1051E+01
   -2.268606   12.29856  0.0000E+00  0.6605E-05  0.1207E-07  0.1134E-02  0.4463E-03  0.9720E+00
   -2.337350   12.29903  0.0000E+00  0.6471E-05  0.1250E-07  0.1060E-02  0.3888E-03  0.1142E+01
   -2.406094   12.29954  0.0000E+00  0.6327E-05  0.1321E-07  0.9700E-03  0.3381E-03  0.1651E+01
   -2.474837   12.30010  0.0000E+00  0.6161E-05  0.1439E-07  0.8568E-03  0.2907E-03  0.2766E+01
   -2.543580   12.30075  0.0000E+00  0.5951E-05  0.1654E-07  0.7077E-03  0.2450E-03  0.5812E+01
   -2.612322   12.30155  0.0000E+00  0.5637E-05  0.2137E-07  0.5479E-03  0.2008E-03  0.3549E+03
   -2.681064   12.30262  0.0000E+00  0.3576E-05  0.7432E-07  0.2811E-04  0.1589E-03 -0.4490E+04
   -2.749805   12.32356  0.0000E+00  0.0000E+00  0.0000E+00  0.0000E+00  0.1595E-03  0.0000E+00
