 1 - depth, m
 2 - temperature, C
 3 - salinity, kg/kg
 4 - turbulent kinetic energy, m**2/s**2
 5 - dissipation rate, m**2/s**3
 6 - kinematic heat conductance, m**2/s
 7 - modulus of horizontal velocity, m/s
 8 - Richardson number, n/d
   -0.000000    0.00000  0.0000E+00  0.1219E-13  0.7603E-17  0.1000E-09  0.0000E+00  0.1332E+17
   -0.068773    0.20550  0.0000E+00  0.1219E-13  0.7603E-17  0.1000E-09  0.0000E+00  0.1214E+17
   -0.137546    0.40364  0.0000E+00  0.1219E-13  0.7603E-17  0.1000E-09  0.0000E+00  0.1098E+17
   -0.206320    0.59355  0.0000E+00  0.1219E-13  0.7603E-17  0.1000E-09  0.0000E+00  0.9885E+16
   -0.275094    0.77465  0.0000E+00  0.1219E-13  0.7603E-17  0.1000E-09  0.0000E+00  0.8964E+16
   -0.343869    0.94873  0.0000E+00  0.1219E-13  0.7603E-17  0.1000E-09  0.0000E+00  0.8129E+16
   -0.412645    1.11621  0.0000E+00  0.2165E-13  0.7603E-17  0.1000E-09  0.0000E+00  0.7366E+16
   -0.481421    1.27734  0.0000E+00  0.7081E-13  0.9966E-17  0.1000E-09  0.0000E+00  0.6657E+16
   -0.550197    1.43211  0.0000E+00  0.1891E-12  0.1990E-16  0.1000E-09  0.0000E+00  0.5967E+16
   -0.618974    1.57965  0.0000E+00  0.4470E-12  0.4351E-16  0.1000E-09  0.0000E+00  0.5344E+16
   -0.687751    1.72027  0.0000E+00  0.1009E-11  0.9464E-16  0.1000E-09  0.0000E+00  0.4911E+16
   -0.756529    1.85801  0.0000E+00  0.2227E-11  0.2032E-15  0.1000E-09  0.0000E+00  0.4592E+16
   -0.825307    1.99571  0.0000E+00  0.4849E-11  0.4307E-15  0.1000E-09  0.0000E+00  0.4294E+16
   -0.894085    2.13404  0.0000E+00  0.1043E-10  0.9024E-15  0.1000E-09  0.0000E+00  0.4012E+16
   -0.962863    2.27367  0.0000E+00  0.2217E-10  0.1868E-14  0.1000E-09  0.0000E+00  0.3739E+16
   -1.031642    2.41527  0.0000E+00  0.4652E-10  0.3817E-14  0.1000E-09  0.0000E+00  0.3483E+16
   -1.100421    2.56012  0.0000E+00  0.9629E-10  0.7692E-14  0.1000E-09  0.0000E+00  0.3221E+16
   -1.169200    2.70897  0.0000E+00  0.1969E-09  0.1530E-13  0.1000E-09  0.0000E+00  0.2945E+16
   -1.237979    2.86261  0.0000E+00  0.3977E-09  0.3007E-13  0.1000E-09  0.0000E+00  0.2652E+16
   -1.306758    3.02211  0.0000E+00  0.7936E-09  0.5835E-13  0.1272E-09  0.0000E+00  0.2336E+16
   -1.375537    3.18910  0.0000E+00  0.1565E-08  0.1119E-12  0.2835E-09  0.0000E+00  0.2010E+16
   -1.444316    3.36841  0.0000E+00  0.3051E-08  0.2122E-12  0.6699E-09  0.0000E+00  0.1609E+16
   -1.513095    3.56441  0.0000E+00  0.5889E-08  0.3984E-12  0.1893E-08  0.0000E+00  0.1066E+16
   -1.581874    3.77980  0.0000E+00  0.1124E-07  0.7408E-12  0.1123E-07  0.0000E+00  0.3343E+15
   -1.650653    3.99899  0.0000E+00  0.1189E-07  0.7853E-12  0.6118E-04  0.0000E+00 -0.9177E+11
   -1.719432    3.99946  0.0000E+00  0.1221E-07  0.8111E-12  0.6206E-04  0.0000E+00 -0.1127E+12
   -1.788211    3.99999  0.0000E+00  0.1249E-07  0.8397E-12  0.6392E-04  0.0000E+00 -0.1186E+12
   -1.856989    4.00054  0.0000E+00  0.1275E-07  0.8712E-12  0.6520E-04  0.0000E+00 -0.1242E+12
   -1.925767    4.00108  0.0000E+00  0.1297E-07  0.9063E-12  0.6595E-04  0.0000E+00 -0.1307E+12
   -1.994545    4.00164  0.0000E+00  0.1317E-07  0.9454E-12  0.6605E-04  0.0000E+00 -0.1390E+12
   -2.063323    4.00221  0.0000E+00  0.1333E-07  0.9898E-12  0.6436E-04  0.0000E+00 -0.1485E+12
   -2.132100    4.00279  0.0000E+00  0.1346E-07  0.1042E-11  0.6147E-04  0.0000E+00 -0.1613E+12
   -2.200877    4.00340  0.0000E+00  0.1354E-07  0.1103E-11  0.5749E-04  0.0000E+00 -0.1789E+12
   -2.269653    4.00406  0.0000E+00  0.1359E-07  0.1180E-11  0.5289E-04  0.0000E+00 -0.2026E+12
   -2.338429    4.00477  0.0000E+00  0.1357E-07  0.1281E-11  0.4738E-04  0.0000E+00 -0.2367E+12
   -2.407205    4.00557  0.0000E+00  0.1349E-07  0.1423E-11  0.4071E-04  0.0000E+00 -0.2902E+12
   -2.475980    4.00651  0.0000E+00  0.1330E-07  0.1640E-11  0.3267E-04  0.0000E+00 -0.3855E+12
   -2.544754    4.00770  0.0000E+00  0.1291E-07  0.2034E-11  0.2305E-04  0.0000E+00 -0.5974E+12
   -2.613528    4.00941  0.0000E+00  0.1206E-07  0.3012E-11  0.1191E-04  0.0000E+00 -0.1349E+13
   -2.682301    4.01288  0.0000E+00  0.8444E-08  0.9402E-11  0.1463E-05  0.0000E+00 -0.1984E+14
   -2.751074    4.04324  0.0000E+00  0.0000E+00  0.0000E+00  0.0000E+00  0.0000E+00  0.0000E+00
