 1 - depth, m
 2 - temperature, C
 3 - salinity, kg/kg
 4 - turbulent kinetic energy, m**2/s**2
 5 - dissipation rate, m**2/s**3
 6 - kinematic heat conductance, m**2/s
 7 - modulus of horizontal velocity, m/s
 8 - Richardson number, n/d
   -0.000000    0.00000  0.0000E+00  0.1219E-13  0.7603E-17  0.1000E-09  0.0000E+00  0.1310E+17
   -0.068761    0.20192  0.0000E+00  0.1219E-13  0.7603E-17  0.1000E-09  0.0000E+00  0.1230E+17
   -0.137523    0.40256  0.0000E+00  0.1219E-13  0.7603E-17  0.1000E-09  0.0000E+00  0.1148E+17
   -0.206286    0.60136  0.0000E+00  0.1219E-13  0.7603E-17  0.1000E-09  0.0000E+00  0.1067E+17
   -0.275049    0.79780  0.0000E+00  0.1393E-13  0.7603E-17  0.1000E-09  0.0000E+00  0.9882E+16
   -0.343813    0.99188  0.0000E+00  0.6429E-13  0.7626E-17  0.1000E-09  0.0000E+00  0.9112E+16
   -0.412577    1.18334  0.0000E+00  0.1644E-12  0.1296E-16  0.1000E-09  0.0000E+00  0.8360E+16
   -0.481342    1.37193  0.0000E+00  0.3493E-12  0.2448E-16  0.1000E-09  0.0000E+00  0.7629E+16
   -0.550107    1.55736  0.0000E+00  0.6954E-12  0.4650E-16  0.1000E-09  0.0000E+00  0.6913E+16
   -0.618873    1.73912  0.0000E+00  0.1348E-11  0.8759E-16  0.1000E-09  0.0000E+00  0.6225E+16
   -0.687639    1.91696  0.0000E+00  0.2577E-11  0.1636E-15  0.1000E-09  0.0000E+00  0.5592E+16
   -0.756405    2.09144  0.0000E+00  0.4886E-11  0.3035E-15  0.1000E-09  0.0000E+00  0.4999E+16
   -0.825172    2.26280  0.0000E+00  0.9197E-11  0.5592E-15  0.1000E-09  0.0000E+00  0.4429E+16
   -0.893939    2.43079  0.0000E+00  0.1720E-10  0.1024E-14  0.1000E-09  0.0000E+00  0.3883E+16
   -0.962706    2.59513  0.0000E+00  0.3198E-10  0.1865E-14  0.1000E-09  0.0000E+00  0.3364E+16
   -1.031473    2.75552  0.0000E+00  0.5902E-10  0.3371E-14  0.1000E-09  0.0000E+00  0.2876E+16
   -1.100241    2.91192  0.0000E+00  0.1082E-09  0.6053E-14  0.1000E-09  0.0000E+00  0.2418E+16
   -1.169009    3.06410  0.0000E+00  0.1970E-09  0.1080E-13  0.1000E-09  0.0000E+00  0.1990E+16
   -1.237776    3.21184  0.0000E+00  0.3566E-09  0.1917E-13  0.1000E-09  0.0000E+00  0.1594E+16
   -1.306544    3.35497  0.0000E+00  0.6420E-09  0.3383E-13  0.1401E-09  0.0000E+00  0.1229E+16
   -1.375312    3.49331  0.0000E+00  0.1149E-08  0.5936E-13  0.3338E-09  0.0000E+00  0.9053E+15
   -1.444080    3.62819  0.0000E+00  0.2045E-08  0.1036E-12  0.8706E-09  0.0000E+00  0.6059E+15
   -1.512848    3.75991  0.0000E+00  0.3621E-08  0.1799E-12  0.2811E-08  0.0000E+00  0.3259E+15
   -1.581616    3.88749  0.0000E+00  0.6345E-08  0.3095E-12  0.2096E-07  0.0000E+00  0.7533E+14
   -1.650383    3.99893  0.0000E+00  0.6713E-08  0.3285E-12  0.5347E-04  0.0000E+00 -0.5827E+11
   -1.719151    3.99922  0.0000E+00  0.6881E-08  0.3387E-12  0.5343E-04  0.0000E+00 -0.6680E+11
   -1.787918    3.99955  0.0000E+00  0.7027E-08  0.3496E-12  0.5358E-04  0.0000E+00 -0.6897E+11
   -1.856686    3.99987  0.0000E+00  0.7153E-08  0.3614E-12  0.5322E-04  0.0000E+00 -0.7114E+11
   -1.925452    4.00020  0.0000E+00  0.7262E-08  0.3746E-12  0.5217E-04  0.0000E+00 -0.7410E+11
   -1.994219    4.00054  0.0000E+00  0.7351E-08  0.3894E-12  0.5046E-04  0.0000E+00 -0.7810E+11
   -2.062986    4.00089  0.0000E+00  0.7421E-08  0.4065E-12  0.4843E-04  0.0000E+00 -0.8331E+11
   -2.131752    4.00125  0.0000E+00  0.7470E-08  0.4264E-12  0.4597E-04  0.0000E+00 -0.8996E+11
   -2.200517    4.00163  0.0000E+00  0.7495E-08  0.4503E-12  0.4299E-04  0.0000E+00 -0.9872E+11
   -2.269282    4.00203  0.0000E+00  0.7494E-08  0.4800E-12  0.3944E-04  0.0000E+00 -0.1109E+12
   -2.338047    4.00248  0.0000E+00  0.7461E-08  0.5198E-12  0.3507E-04  0.0000E+00 -0.1291E+12
   -2.406811    4.00298  0.0000E+00  0.7384E-08  0.5765E-12  0.2979E-04  0.0000E+00 -0.1585E+12
   -2.475575    4.00358  0.0000E+00  0.7242E-08  0.6649E-12  0.2352E-04  0.0000E+00 -0.2117E+12
   -2.544338    4.00434  0.0000E+00  0.6982E-08  0.8281E-12  0.1617E-04  0.0000E+00 -0.3334E+12
   -2.613101    4.00549  0.0000E+00  0.6422E-08  0.1246E-11  0.7893E-05  0.0000E+00 -0.7883E+12
   -2.681863    4.00795  0.0000E+00  0.4192E-08  0.3925E-11  0.8271E-06  0.0000E+00 -0.1304E+14
   -2.750624    4.03250  0.0000E+00  0.0000E+00  0.0000E+00  0.0000E+00  0.0000E+00  0.0000E+00
