 1 - depth, m
 2 - temperature, C
 3 - salinity, kg/kg
 4 - turbulent kinetic energy, m**2/s**2
 5 - dissipation rate, m**2/s**3
 6 - kinematic heat conductance, m**2/s
 7 - modulus of horizontal velocity, m/s
 8 - Richardson number, n/d
   -0.000000   10.93801  0.0000E+00  0.5937E-03  0.1579E-02  0.9999E-04  0.2346E+00 -0.6426E-01
   -0.068744   10.98575  0.0000E+00  0.3159E-03  0.3408E-03  0.3758E-03  0.6739E-01 -0.4066E-01
   -0.137489   10.99552  0.0000E+00  0.2302E-03  0.1154E-03  0.3631E-03  0.5139E-01  0.1797E+00
   -0.206235   11.00162  0.0000E+00  0.1760E-03  0.5215E-04  0.3736E-03  0.4332E-01  0.3527E+01
   -0.274981   11.00575  0.0000E+00  0.1400E-03  0.2823E-04  0.3751E-03  0.3814E-01  0.1960E+01
   -0.343728   11.00899  0.0000E+00  0.1119E-03  0.1496E-04  0.3940E-03  0.3344E-01  0.1712E+02
   -0.412475   11.01163  0.0000E+00  0.9172E-04  0.7873E-05  0.4234E-03  0.2936E-01  0.5762E+01
   -0.481223   11.01384  0.0000E+00  0.7714E-04  0.4189E-05  0.4593E-03  0.2591E-01  0.2104E+02
   -0.549971   11.01579  0.0000E+00  0.6658E-04  0.2436E-05  0.5007E-03  0.2291E-01  0.1402E+02
   -0.618720   11.01753  0.0000E+00  0.5868E-04  0.1548E-05  0.5438E-03  0.2038E-01  0.5185E+00
   -0.687468   11.01910  0.0000E+00  0.5257E-04  0.1059E-05  0.5876E-03  0.1822E-01  0.1340E+01
   -0.756218   11.02051  0.0000E+00  0.4770E-04  0.7674E-06  0.6349E-03  0.1638E-01  0.7418E+00
   -0.824967   11.02178  0.0000E+00  0.4373E-04  0.5812E-06  0.6824E-03  0.1481E-01  0.4905E+01
   -0.893717   11.02293  0.0000E+00  0.4042E-04  0.4548E-06  0.7303E-03  0.1345E-01  0.5432E+01
   -0.962467   11.02397  0.0000E+00  0.3763E-04  0.3651E-06  0.7779E-03  0.1226E-01  0.1041E+01
   -1.031218   11.02494  0.0000E+00  0.3525E-04  0.2994E-06  0.8251E-03  0.1122E-01  0.2346E+01
   -1.099968   11.02583  0.0000E+00  0.3319E-04  0.2499E-06  0.8709E-03  0.1027E-01  0.9619E+00
   -1.168719   11.02667  0.0000E+00  0.3137E-04  0.2117E-06  0.9212E-03  0.9400E-02  0.3656E+01
   -1.237470   11.02745  0.0000E+00  0.2974E-04  0.1815E-06  0.9623E-03  0.8607E-02  0.9521E+00
   -1.306221   11.02818  0.0000E+00  0.2826E-04  0.1574E-06  0.9998E-03  0.7876E-02  0.9704E+00
   -1.374971   11.02888  0.0000E+00  0.2691E-04  0.1377E-06  0.1037E-02  0.7200E-02  0.3308E+01
   -1.443722   11.02954  0.0000E+00  0.2565E-04  0.1214E-06  0.1075E-02  0.6571E-02  0.2161E+01
   -1.512473   11.03017  0.0000E+00  0.2447E-04  0.1078E-06  0.1112E-02  0.5982E-02  0.2406E+01
   -1.581224   11.03077  0.0000E+00  0.2336E-04  0.9623E-07  0.1154E-02  0.5442E-02  0.1326E+01
   -1.649974   11.03134  0.0000E+00  0.2231E-04  0.8639E-07  0.1200E-02  0.4951E-02  0.6219E+02
   -1.718725   11.03189  0.0000E+00  0.2133E-04  0.7800E-07  0.1269E-02  0.4502E-02  0.9625E+02
   -1.787475   11.03239  0.0000E+00  0.2041E-04  0.7084E-07  0.1336E-02  0.4091E-02  0.7269E+02
   -1.856225   11.03287  0.0000E+00  0.1954E-04  0.6472E-07  0.1372E-02  0.3712E-02  0.8770E+02
   -1.924975   11.03332  0.0000E+00  0.1872E-04  0.5950E-07  0.1393E-02  0.3360E-02  0.4055E+01
   -1.993725   11.03377  0.0000E+00  0.1794E-04  0.5509E-07  0.1406E-02  0.3032E-02  0.1233E+02
   -2.062474   11.03420  0.0000E+00  0.1721E-04  0.5142E-07  0.1406E-02  0.2726E-02  0.4225E+02
   -2.131223   11.03462  0.0000E+00  0.1651E-04  0.4845E-07  0.1395E-02  0.2439E-02  0.3457E+02
   -2.199972   11.03504  0.0000E+00  0.1585E-04  0.4618E-07  0.1360E-02  0.2169E-02  0.5630E+02
   -2.268720   11.03546  0.0000E+00  0.1522E-04  0.4461E-07  0.1306E-02  0.1913E-02  0.3180E+02
   -2.337468   11.03589  0.0000E+00  0.1459E-04  0.4381E-07  0.1223E-02  0.1676E-02  0.3502E+03
   -2.406215   11.03636  0.0000E+00  0.1397E-04  0.4400E-07  0.1100E-02  0.1460E-02  0.9183E+01
   -2.474962   11.03687  0.0000E+00  0.1334E-04  0.4566E-07  0.9334E-03  0.1261E-02  0.1893E+02
   -2.543708   11.03746  0.0000E+00  0.1261E-04  0.5020E-07  0.7259E-03  0.1075E-02  0.3116E+02
   -2.612453   11.03821  0.0000E+00  0.1157E-04  0.6338E-07  0.4515E-03  0.8908E-03  0.6824E+02
   -2.681198   11.03947  0.0000E+00  0.6610E-05  0.1981E-06  0.3256E-04  0.6953E-03 -0.9316E+04
   -2.749943   11.05582  0.0000E+00  0.0000E+00  0.0000E+00  0.0000E+00  0.6950E-03  0.0000E+00
