 1 - depth, m
 2 - temperature, C
 3 - salinity, kg/kg
 4 - turbulent kinetic energy, m**2/s**2
 5 - dissipation rate, m**2/s**3
 6 - kinematic heat conductance, m**2/s
 7 - modulus of horizontal velocity, m/s
 8 - Richardson number, n/d
   -0.000000    0.00000  0.0000E+00  0.1241E-13  0.7604E-17  0.1000E-09  0.0000E+00  0.1511E+17
   -0.068728    0.23404  0.0000E+00  0.6021E-13  0.8207E-17  0.1000E-09  0.0000E+00  0.1373E+17
   -0.137457    0.46102  0.0000E+00  0.1613E-12  0.1554E-16  0.1000E-09  0.0000E+00  0.1248E+17
   -0.206187    0.68161  0.0000E+00  0.3636E-12  0.3195E-16  0.1000E-09  0.0000E+00  0.1133E+17
   -0.274917    0.89632  0.0000E+00  0.7728E-12  0.6533E-16  0.1000E-09  0.0000E+00  0.1031E+17
   -0.343648    1.10649  0.0000E+00  0.1603E-11  0.1319E-15  0.1000E-09  0.0000E+00  0.9380E+16
   -0.412379    1.31267  0.0000E+00  0.3283E-11  0.2640E-15  0.1000E-09  0.0000E+00  0.8507E+16
   -0.481111    1.51518  0.0000E+00  0.6667E-11  0.5241E-15  0.1000E-09  0.0000E+00  0.7681E+16
   -0.549843    1.71419  0.0000E+00  0.1346E-10  0.1034E-14  0.1000E-09  0.0000E+00  0.6885E+16
   -0.618575    1.90936  0.0000E+00  0.2699E-10  0.2029E-14  0.1000E-09  0.0000E+00  0.6137E+16
   -0.687308    2.10091  0.0000E+00  0.5377E-10  0.3956E-14  0.1000E-09  0.0000E+00  0.5511E+16
   -0.756041    2.29189  0.0000E+00  0.1064E-09  0.7663E-14  0.1000E-09  0.0000E+00  0.4942E+16
   -0.824775    2.48428  0.0000E+00  0.2093E-09  0.1475E-13  0.1000E-09  0.0000E+00  0.4367E+16
   -0.893509    2.67828  0.0000E+00  0.4090E-09  0.2822E-13  0.1000E-09  0.0000E+00  0.3783E+16
   -0.962243    2.87400  0.0000E+00  0.7943E-09  0.5368E-13  0.1000E-09  0.0000E+00  0.3187E+16
   -1.030977    3.07150  0.0000E+00  0.1531E-08  0.1014E-12  0.2004E-09  0.0000E+00  0.2575E+16
   -1.099712    3.27047  0.0000E+00  0.2930E-08  0.1900E-12  0.4964E-09  0.0000E+00  0.1949E+16
   -1.168446    3.47052  0.0000E+00  0.5569E-08  0.3539E-12  0.1373E-08  0.0000E+00  0.1312E+16
   -1.237181    3.67065  0.0000E+00  0.1050E-07  0.6542E-12  0.4963E-08  0.0000E+00  0.6713E+15
   -1.305916    3.86694  0.0000E+00  0.1917E-07  0.1175E-11  0.5644E-07  0.0000E+00  0.1063E+15
   -1.374651    4.01287  0.0000E+00  0.1967E-07  0.1208E-11  0.1160E-03  0.0000E+00 -0.8736E+11
   -1.443386    4.01308  0.0000E+00  0.1990E-07  0.1226E-11  0.1160E-03  0.0000E+00 -0.1015E+12
   -1.512120    4.01332  0.0000E+00  0.2011E-07  0.1245E-11  0.1201E-03  0.0000E+00 -0.1015E+12
   -1.580855    4.01356  0.0000E+00  0.2028E-07  0.1266E-11  0.1233E-03  0.0000E+00 -0.1009E+12
   -1.649590    4.01380  0.0000E+00  0.2044E-07  0.1288E-11  0.1238E-03  0.0000E+00 -0.1022E+12
   -1.718324    4.01403  0.0000E+00  0.2057E-07  0.1312E-11  0.1233E-03  0.0000E+00 -0.1043E+12
   -1.787058    4.01427  0.0000E+00  0.2068E-07  0.1340E-11  0.1222E-03  0.0000E+00 -0.1070E+12
   -1.855793    4.01451  0.0000E+00  0.2077E-07  0.1370E-11  0.1207E-03  0.0000E+00 -0.1102E+12
   -1.924526    4.01476  0.0000E+00  0.2084E-07  0.1404E-11  0.1187E-03  0.0000E+00 -0.1141E+12
   -1.993260    4.01502  0.0000E+00  0.2089E-07  0.1444E-11  0.1162E-03  0.0000E+00 -0.1187E+12
   -2.061993    4.01528  0.0000E+00  0.2091E-07  0.1488E-11  0.1131E-03  0.0000E+00 -0.1236E+12
   -2.130726    4.01555  0.0000E+00  0.2091E-07  0.1540E-11  0.1094E-03  0.0000E+00 -0.1294E+12
   -2.199459    4.01583  0.0000E+00  0.2087E-07  0.1607E-11  0.1050E-03  0.0000E+00 -0.1366E+12
   -2.268191    4.01613  0.0000E+00  0.2078E-07  0.1702E-11  0.9094E-04  0.0000E+00 -0.1603E+12
   -2.336923    4.01647  0.0000E+00  0.2062E-07  0.1835E-11  0.7494E-04  0.0000E+00 -0.1982E+12
   -2.405654    4.01688  0.0000E+00  0.2037E-07  0.2028E-11  0.6136E-04  0.0000E+00 -0.2479E+12
   -2.474384    4.01740  0.0000E+00  0.1998E-07  0.2330E-11  0.4803E-04  0.0000E+00 -0.3268E+12
   -2.543115    4.01806  0.0000E+00  0.1935E-07  0.2878E-11  0.3325E-04  0.0000E+00 -0.4947E+12
   -2.611844    4.01904  0.0000E+00  0.1807E-07  0.4239E-11  0.1693E-04  0.0000E+00 -0.1057E+13
   -2.680573    4.02104  0.0000E+00  0.1198E-07  0.1432E-10  0.1622E-05  0.0000E+00 -0.1580E+14
   -2.749301    4.04309  0.0000E+00  0.0000E+00  0.0000E+00  0.0000E+00  0.0000E+00  0.0000E+00
