 1 - depth, m
 2 - temperature, C
 3 - salinity, kg/kg
 4 - turbulent kinetic energy, m**2/s**2
 5 - dissipation rate, m**2/s**3
 6 - kinematic heat conductance, m**2/s
 7 - modulus of horizontal velocity, m/s
 8 - Richardson number, n/d
   -0.000000    0.00000  0.0000E+00  0.1219E-13  0.7603E-17  0.1000E-09  0.0000E+00  0.1273E+17
   -0.068738    0.19609  0.0000E+00  0.1219E-13  0.7603E-17  0.1000E-09  0.0000E+00  0.1185E+17
   -0.137476    0.38895  0.0000E+00  0.1219E-13  0.7603E-17  0.1000E-09  0.0000E+00  0.1100E+17
   -0.206215    0.57837  0.0000E+00  0.1219E-13  0.7603E-17  0.1000E-09  0.0000E+00  0.1018E+17
   -0.274954    0.76411  0.0000E+00  0.1219E-13  0.7603E-17  0.1000E-09  0.0000E+00  0.9416E+16
   -0.343694    0.94658  0.0000E+00  0.1219E-13  0.7603E-17  0.1000E-09  0.0000E+00  0.8682E+16
   -0.412435    1.12567  0.0000E+00  0.1219E-13  0.7603E-17  0.1000E-09  0.0000E+00  0.7974E+16
   -0.481176    1.30120  0.0000E+00  0.1219E-13  0.7603E-17  0.1000E-09  0.0000E+00  0.7289E+16
   -0.549918    1.47285  0.0000E+00  0.4418E-13  0.7604E-17  0.1000E-09  0.0000E+00  0.6617E+16
   -0.618660    1.64001  0.0000E+00  0.1256E-12  0.1187E-16  0.1000E-09  0.0000E+00  0.5978E+16
   -0.687402    1.80244  0.0000E+00  0.2850E-12  0.2294E-16  0.1000E-09  0.0000E+00  0.5425E+16
   -0.756144    1.96153  0.0000E+00  0.5952E-12  0.4529E-16  0.1000E-09  0.0000E+00  0.4925E+16
   -0.824887    2.11809  0.0000E+00  0.1203E-11  0.8876E-16  0.1000E-09  0.0000E+00  0.4444E+16
   -0.893631    2.27200  0.0000E+00  0.2395E-11  0.1724E-15  0.1000E-09  0.0000E+00  0.3982E+16
   -0.962374    2.42311  0.0000E+00  0.4722E-11  0.3322E-15  0.1000E-09  0.0000E+00  0.3539E+16
   -1.031118    2.57127  0.0000E+00  0.9225E-11  0.6347E-15  0.1000E-09  0.0000E+00  0.3121E+16
   -1.099862    2.71653  0.0000E+00  0.1787E-10  0.1203E-14  0.1000E-09  0.0000E+00  0.2722E+16
   -1.168606    2.85874  0.0000E+00  0.3439E-10  0.2265E-14  0.1000E-09  0.0000E+00  0.2343E+16
   -1.237350    2.99777  0.0000E+00  0.6572E-10  0.4237E-14  0.1000E-09  0.0000E+00  0.1986E+16
   -1.306094    3.13346  0.0000E+00  0.1248E-09  0.7874E-14  0.1000E-09  0.0000E+00  0.1650E+16
   -1.374838    3.26565  0.0000E+00  0.2354E-09  0.1455E-13  0.1000E-09  0.0000E+00  0.1349E+16
   -1.443582    3.39563  0.0000E+00  0.4414E-09  0.2671E-13  0.1275E-09  0.0000E+00  0.1066E+16
   -1.512326    3.52377  0.0000E+00  0.8236E-09  0.4881E-13  0.3125E-09  0.0000E+00  0.7949E+15
   -1.581070    3.65001  0.0000E+00  0.1534E-08  0.8907E-13  0.8468E-09  0.0000E+00  0.5354E+15
   -1.649814    3.77408  0.0000E+00  0.2843E-08  0.1617E-12  0.2861E-08  0.0000E+00  0.2877E+15
   -1.718558    3.89467  0.0000E+00  0.5186E-08  0.2896E-12  0.2282E-07  0.0000E+00  0.6457E+14
   -1.787302    3.99899  0.0000E+00  0.5633E-08  0.3158E-12  0.3868E-04  0.0000E+00 -0.7806E+11
   -1.856045    3.99938  0.0000E+00  0.5837E-08  0.3303E-12  0.3872E-04  0.0000E+00 -0.8971E+11
   -1.924789    3.99981  0.0000E+00  0.6015E-08  0.3459E-12  0.3889E-04  0.0000E+00 -0.9348E+11
   -1.993532    4.00024  0.0000E+00  0.6167E-08  0.3630E-12  0.3853E-04  0.0000E+00 -0.9777E+11
   -2.062274    4.00069  0.0000E+00  0.6295E-08  0.3824E-12  0.3766E-04  0.0000E+00 -0.1036E+12
   -2.131016    4.00114  0.0000E+00  0.6397E-08  0.4047E-12  0.3623E-04  0.0000E+00 -0.1116E+12
   -2.199758    4.00161  0.0000E+00  0.6474E-08  0.4311E-12  0.3423E-04  0.0000E+00 -0.1227E+12
   -2.268500    4.00211  0.0000E+00  0.6522E-08  0.4638E-12  0.3168E-04  0.0000E+00 -0.1385E+12
   -2.337241    4.00266  0.0000E+00  0.6537E-08  0.5073E-12  0.2839E-04  0.0000E+00 -0.1629E+12
   -2.405981    4.00329  0.0000E+00  0.6511E-08  0.5693E-12  0.2427E-04  0.0000E+00 -0.2029E+12
   -2.474722    4.00403  0.0000E+00  0.6424E-08  0.6661E-12  0.1926E-04  0.0000E+00 -0.2774E+12
   -2.543461    4.00501  0.0000E+00  0.6228E-08  0.8458E-12  0.1330E-04  0.0000E+00 -0.4549E+12
   -2.612200    4.00650  0.0000E+00  0.5763E-08  0.1309E-11  0.6536E-05  0.0000E+00 -0.1161E+13
   -2.680938    4.00989  0.0000E+00  0.4048E-08  0.4058E-11  0.8700E-06  0.0000E+00 -0.1880E+14
   -2.749676    4.04069  0.0000E+00  0.0000E+00  0.0000E+00  0.0000E+00  0.0000E+00  0.0000E+00
