 1 - depth, m
 2 - temperature, C
 3 - salinity, kg/kg
 4 - turbulent kinetic energy, m**2/s**2
 5 - dissipation rate, m**2/s**3
 6 - kinematic heat conductance, m**2/s
 7 - modulus of horizontal velocity, m/s
 8 - Richardson number, n/d
   -0.000000    0.00000  0.0000E+00  0.4250E-05  0.1378E-06  0.1241E-04  0.1292E-01  0.3323E+00
   -0.068752    0.01812  0.0000E+00  0.2920E-05  0.4171E-07  0.1867E-04  0.7110E-02  0.3122E+01
   -0.137505    0.03125  0.0000E+00  0.1969E-05  0.1774E-07  0.1952E-04  0.4659E-02  0.3918E+02
   -0.206259    0.04093  0.0000E+00  0.1281E-05  0.8216E-08  0.1747E-04  0.3255E-02  0.2581E+03
   -0.275013    0.04667  0.0000E+00  0.8419E-06  0.4140E-08  0.1390E-04  0.2382E-02  0.6999E+04
   -0.343768    0.05269  0.0000E+00  0.5334E-06  0.2123E-08  0.9816E-05  0.1728E-02  0.2212E+06
   -0.412523    0.05989  0.0000E+00  0.3080E-06  0.1039E-08  0.5704E-05  0.1211E-02  0.7834E+07
   -0.481278    0.07103  0.0000E+00  0.1389E-06  0.4224E-09  0.2133E-05  0.7826E-03  0.2672E+09
   -0.550035    0.09381  0.0000E+00  0.3954E-07  0.1039E-09  0.6335E-06  0.3732E-03  0.8242E+10
   -0.618791    0.13846  0.0000E+00  0.1134E-07  0.2404E-10  0.1680E-06  0.1215E-03  0.1969E+12
   -0.687548    0.16886  0.0000E+00  0.4501E-08  0.4554E-11  0.2796E-07  0.3636E-04  0.3754E+13
   -0.756305    0.18637  0.0000E+00  0.6397E-08  0.1173E-11  0.8208E-08  0.8979E-05  0.4734E+14
   -0.825063    0.19729  0.0000E+00  0.1347E-07  0.1537E-11  0.1099E-06  0.1843E-05  0.7431E+13
   -0.893821    0.20295  0.0000E+00  0.1523E-07  0.1872E-11  0.6685E-04  0.3551E-06 -0.9459E+11
   -0.962579    0.20524  0.0000E+00  0.1633E-07  0.2204E-11  0.8901E-04  0.6945E-07 -0.2021E+12
   -1.031337    0.20538  0.0000E+00  0.1535E-07  0.1889E-11  0.6538E-04  0.1875E-07 -0.9571E+11
   -1.100095    0.20683  0.0000E+00  0.1372E-07  0.1539E-11  0.3218E-07  0.5603E-08  0.5433E+14
   -1.168854    0.21217  0.0000E+00  0.5909E-08  0.6625E-12  0.3965E-08  0.1188E-08  0.2709E+15
   -1.237613    0.22401  0.0000E+00  0.2421E-08  0.2752E-12  0.9177E-09  0.2476E-09  0.8276E+15
   -1.306371    0.24447  0.0000E+00  0.9698E-09  0.1125E-12  0.2674E-09  0.5162E-10  0.1838E+16
   -1.375130    0.27936  0.0000E+00  0.3807E-09  0.4525E-13  0.1153E-09  0.1075E-10  0.3720E+16
   -1.443889    0.34286  0.0000E+00  0.1465E-09  0.1791E-13  0.1000E-09  0.2204E-11  0.5928E+16
   -1.512648    0.44340  0.0000E+00  0.5548E-10  0.6997E-14  0.1000E-09  0.3389E-12  0.6580E+16
   -1.581407    0.55723  0.0000E+00  0.2053E-10  0.2680E-14  0.1000E-09  0.4545E-13  0.6195E+16
   -1.650165    0.66818  0.0000E+00  0.7379E-11  0.1010E-14  0.1000E-09  0.5865E-14  0.5614E+16
   -1.718924    0.77232  0.0000E+00  0.2530E-11  0.3959E-15  0.1000E-09  0.7260E-15  0.5042E+16
   -1.787682    0.86912  0.0000E+00  0.8852E-12  0.2555E-15  0.1000E-09  0.8587E-16  0.4684E+16
   -1.856440    0.96217  0.0000E+00  0.1112E-11  0.6902E-15  0.1000E-09  0.9673E-17  0.4704E+16
   -1.925198    1.05900  0.0000E+00  0.5948E-11  0.3837E-14  0.1000E-09  0.1034E-17  0.5264E+16
   -1.993955    1.17187  0.0000E+00  0.3632E-10  0.2254E-13  0.1000E-09  0.1044E-18  0.6549E+16
   -2.062713    1.31987  0.0000E+00  0.2173E-09  0.1296E-12  0.1019E-09  0.9923E-20  0.1106E+17
   -2.131469    1.59184  0.0000E+00  0.1268E-08  0.7267E-12  0.2532E-09  0.8833E-21  0.1562E+17
   -2.200226    2.04612  0.0000E+00  0.7207E-08  0.3976E-11  0.1239E-08  0.7315E-22  0.1746E+17
   -2.268982    2.76069  0.0000E+00  0.3908E-07  0.2086E-10  0.2471E-07  0.4061E-23  0.1100E+17
   -2.337738    3.71082  0.0000E+00  0.7018E-07  0.3905E-10  0.3385E-04  0.1844E-24  0.2192E+16
   -2.406493    4.16753  0.0000E+00  0.8462E-07  0.4880E-10  0.6007E-04  0.6024E-26 -0.9014E+13
   -2.475248    4.17082  0.0000E+00  0.9033E-07  0.5582E-10  0.5759E-04  0.2002E-26 -0.1059E+14
   -2.544002    4.17460  0.0000E+00  0.9311E-07  0.6621E-10  0.4858E-04  0.5831E-27 -0.1373E+14
   -2.612755    4.17940  0.0000E+00  0.9135E-07  0.8847E-10  0.3082E-04  0.1336E-27 -0.2441E+14
   -2.681508    4.18763  0.0000E+00  0.6643E-07  0.2327E-09  0.4380E-05  0.1752E-28 -0.2430E+15
   -2.750261    4.25523  0.0000E+00  0.0000E+00  0.0000E+00  0.0000E+00  0.1911E-28  0.0000E+00
