 1 - depth, m
 2 - temperature, C
 3 - salinity, kg/kg
 4 - turbulent kinetic energy, m**2/s**2
 5 - dissipation rate, m**2/s**3
 6 - kinematic heat conductance, m**2/s
 7 - modulus of horizontal velocity, m/s
 8 - Richardson number, n/d
   -0.000000    0.00000  0.0000E+00  0.1219E-13  0.7603E-17  0.1000E-09  0.0000E+00  0.1341E+17
   -0.068733    0.20685  0.0000E+00  0.1219E-13  0.7603E-17  0.1000E-09  0.0000E+00  0.1228E+17
   -0.137466    0.40750  0.0000E+00  0.1219E-13  0.7603E-17  0.1000E-09  0.0000E+00  0.1123E+17
   -0.206200    0.60202  0.0000E+00  0.1343E-13  0.7603E-17  0.1000E-09  0.0000E+00  0.1025E+17
   -0.274935    0.79045  0.0000E+00  0.3472E-13  0.8047E-17  0.1000E-09  0.0000E+00  0.9405E+16
   -0.343670    0.97437  0.0000E+00  0.1081E-12  0.1228E-16  0.1000E-09  0.0000E+00  0.8631E+16
   -0.412406    1.15422  0.0000E+00  0.2680E-12  0.2573E-16  0.1000E-09  0.0000E+00  0.7909E+16
   -0.481142    1.33024  0.0000E+00  0.6096E-12  0.5532E-16  0.1000E-09  0.0000E+00  0.7225E+16
   -0.549878    1.50240  0.0000E+00  0.1342E-11  0.1178E-15  0.1000E-09  0.0000E+00  0.6552E+16
   -0.618615    1.67007  0.0000E+00  0.2905E-11  0.2478E-15  0.1000E-09  0.0000E+00  0.5926E+16
   -0.687353    1.83338  0.0000E+00  0.6211E-11  0.5155E-15  0.1000E-09  0.0000E+00  0.5440E+16
   -0.756090    1.99552  0.0000E+00  0.1313E-10  0.1061E-14  0.1000E-09  0.0000E+00  0.5030E+16
   -0.824828    2.15862  0.0000E+00  0.2747E-10  0.2162E-14  0.1000E-09  0.0000E+00  0.4623E+16
   -0.893567    2.32302  0.0000E+00  0.5686E-10  0.4361E-14  0.1000E-09  0.0000E+00  0.4216E+16
   -0.962305    2.48909  0.0000E+00  0.1165E-09  0.8709E-14  0.1000E-09  0.0000E+00  0.3806E+16
   -1.031044    2.65717  0.0000E+00  0.2361E-09  0.1720E-13  0.1000E-09  0.0000E+00  0.3394E+16
   -1.099783    2.82795  0.0000E+00  0.4730E-09  0.3361E-13  0.1000E-09  0.0000E+00  0.2971E+16
   -1.168522    3.00201  0.0000E+00  0.9382E-09  0.6501E-13  0.1309E-09  0.0000E+00  0.2536E+16
   -1.237261    3.18033  0.0000E+00  0.1843E-08  0.1246E-12  0.3042E-09  0.0000E+00  0.2085E+16
   -1.306000    3.36472  0.0000E+00  0.3584E-08  0.2364E-12  0.7491E-09  0.0000E+00  0.1606E+16
   -1.374740    3.55862  0.0000E+00  0.6898E-08  0.4442E-12  0.2115E-08  0.0000E+00  0.1063E+16
   -1.443479    3.76797  0.0000E+00  0.1308E-07  0.8229E-12  0.1126E-07  0.0000E+00  0.3733E+15
   -1.512218    3.98831  0.0000E+00  0.1480E-07  0.9408E-12  0.6561E-04  0.0000E+00  0.2854E+13
   -1.580957    4.00139  0.0000E+00  0.1513E-07  0.9655E-12  0.8355E-04  0.0000E+00 -0.1005E+12
   -1.649696    4.00181  0.0000E+00  0.1537E-07  0.9876E-12  0.8438E-04  0.0000E+00 -0.1053E+12
   -1.718435    4.00224  0.0000E+00  0.1559E-07  0.1012E-11  0.8549E-04  0.0000E+00 -0.1080E+12
   -1.787174    4.00267  0.0000E+00  0.1578E-07  0.1038E-11  0.8600E-04  0.0000E+00 -0.1109E+12
   -1.855913    4.00311  0.0000E+00  0.1595E-07  0.1067E-11  0.8595E-04  0.0000E+00 -0.1145E+12
   -1.924651    4.00354  0.0000E+00  0.1609E-07  0.1099E-11  0.8524E-04  0.0000E+00 -0.1192E+12
   -1.993389    4.00398  0.0000E+00  0.1620E-07  0.1136E-11  0.8376E-04  0.0000E+00 -0.1254E+12
   -2.062127    4.00443  0.0000E+00  0.1628E-07  0.1178E-11  0.8075E-04  0.0000E+00 -0.1325E+12
   -2.130864    4.00490  0.0000E+00  0.1633E-07  0.1228E-11  0.7659E-04  0.0000E+00 -0.1421E+12
   -2.199601    4.00539  0.0000E+00  0.1633E-07  0.1289E-11  0.7096E-04  0.0000E+00 -0.1562E+12
   -2.268338    4.00592  0.0000E+00  0.1630E-07  0.1368E-11  0.6405E-04  0.0000E+00 -0.1771E+12
   -2.337074    4.00650  0.0000E+00  0.1620E-07  0.1474E-11  0.5616E-04  0.0000E+00 -0.2076E+12
   -2.405810    4.00715  0.0000E+00  0.1602E-07  0.1627E-11  0.4748E-04  0.0000E+00 -0.2538E+12
   -2.474545    4.00793  0.0000E+00  0.1572E-07  0.1864E-11  0.3769E-04  0.0000E+00 -0.3339E+12
   -2.543279    4.00890  0.0000E+00  0.1521E-07  0.2296E-11  0.2636E-04  0.0000E+00 -0.5100E+12
   -2.612013    4.01032  0.0000E+00  0.1417E-07  0.3377E-11  0.1353E-04  0.0000E+00 -0.1123E+13
   -2.680747    4.01318  0.0000E+00  0.9594E-08  0.1089E-10  0.1490E-05  0.0000E+00 -0.1706E+14
   -2.749479    4.04023  0.0000E+00  0.0000E+00  0.0000E+00  0.0000E+00  0.0000E+00  0.0000E+00
