 1 - depth, m
 2 - temperature, C
 3 - salinity, kg/kg
 4 - turbulent kinetic energy, m**2/s**2
 5 - dissipation rate, m**2/s**3
 6 - kinematic heat conductance, m**2/s
 7 - modulus of horizontal velocity, m/s
 8 - Richardson number, n/d
   -0.000000    0.00000  0.0000E+00  0.1219E-13  0.7603E-17  0.1000E-09  0.0000E+00  0.1331E+17
   -0.068770    0.20531  0.0000E+00  0.1219E-13  0.7603E-17  0.1000E-09  0.0000E+00  0.1244E+17
   -0.137540    0.40854  0.0000E+00  0.1219E-13  0.7603E-17  0.1000E-09  0.0000E+00  0.1159E+17
   -0.206311    0.60955  0.0000E+00  0.3435E-13  0.7603E-17  0.1000E-09  0.0000E+00  0.1076E+17
   -0.275082    0.80821  0.0000E+00  0.1056E-12  0.9535E-17  0.1000E-09  0.0000E+00  0.9973E+16
   -0.343854    1.00485  0.0000E+00  0.2392E-12  0.1664E-16  0.1000E-09  0.0000E+00  0.9210E+16
   -0.412627    1.19938  0.0000E+00  0.4815E-12  0.3075E-16  0.1000E-09  0.0000E+00  0.8463E+16
   -0.481400    1.39161  0.0000E+00  0.9246E-12  0.5678E-16  0.1000E-09  0.0000E+00  0.7730E+16
   -0.550174    1.58121  0.0000E+00  0.1741E-11  0.1041E-15  0.1000E-09  0.0000E+00  0.7006E+16
   -0.618948    1.76758  0.0000E+00  0.3242E-11  0.1896E-15  0.1000E-09  0.0000E+00  0.6304E+16
   -0.687722    1.95038  0.0000E+00  0.5991E-11  0.3429E-15  0.1000E-09  0.0000E+00  0.5653E+16
   -0.756497    2.13013  0.0000E+00  0.1100E-10  0.6165E-15  0.1000E-09  0.0000E+00  0.5039E+16
   -0.825271    2.30703  0.0000E+00  0.2007E-10  0.1102E-14  0.1000E-09  0.0000E+00  0.4445E+16
   -0.894047    2.48076  0.0000E+00  0.3640E-10  0.1958E-14  0.1000E-09  0.0000E+00  0.3875E+16
   -0.962822    2.65099  0.0000E+00  0.6565E-10  0.3461E-14  0.1000E-09  0.0000E+00  0.3330E+16
   -1.031598    2.81743  0.0000E+00  0.1176E-09  0.6075E-14  0.1000E-09  0.0000E+00  0.2819E+16
   -1.100374    2.98003  0.0000E+00  0.2092E-09  0.1059E-13  0.1000E-09  0.0000E+00  0.2337E+16
   -1.169150    3.13860  0.0000E+00  0.3699E-09  0.1837E-13  0.1000E-09  0.0000E+00  0.1886E+16
   -1.237926    3.29293  0.0000E+00  0.6506E-09  0.3167E-13  0.1099E-09  0.0000E+00  0.1467E+16
   -1.306702    3.44287  0.0000E+00  0.1138E-08  0.5432E-13  0.2562E-09  0.0000E+00  0.1079E+16
   -1.375478    3.58813  0.0000E+00  0.1979E-08  0.9266E-13  0.6450E-09  0.0000E+00  0.7314E+15
   -1.444254    3.73008  0.0000E+00  0.3421E-08  0.1572E-12  0.1968E-08  0.0000E+00  0.4066E+15
   -1.513031    3.86841  0.0000E+00  0.5859E-08  0.2642E-12  0.1243E-07  0.0000E+00  0.1084E+15
   -1.581807    3.99538  0.0000E+00  0.6192E-08  0.2800E-12  0.4995E-04  0.0000E+00 -0.4965E+11
   -1.650583    3.99573  0.0000E+00  0.6350E-08  0.2889E-12  0.5025E-04  0.0000E+00 -0.5662E+11
   -1.719358    3.99610  0.0000E+00  0.6492E-08  0.2985E-12  0.5093E-04  0.0000E+00 -0.5869E+11
   -1.788134    3.99648  0.0000E+00  0.6619E-08  0.3090E-12  0.5114E-04  0.0000E+00 -0.6074E+11
   -1.856910    3.99685  0.0000E+00  0.6731E-08  0.3206E-12  0.5085E-04  0.0000E+00 -0.6325E+11
   -1.925685    3.99723  0.0000E+00  0.6828E-08  0.3335E-12  0.5005E-04  0.0000E+00 -0.6643E+11
   -1.994460    3.99761  0.0000E+00  0.6909E-08  0.3480E-12  0.4875E-04  0.0000E+00 -0.7046E+11
   -2.063234    3.99800  0.0000E+00  0.6974E-08  0.3647E-12  0.4695E-04  0.0000E+00 -0.7563E+11
   -2.132009    3.99841  0.0000E+00  0.7020E-08  0.3842E-12  0.4461E-04  0.0000E+00 -0.8233E+11
   -2.200783    3.99884  0.0000E+00  0.7046E-08  0.4076E-12  0.4171E-04  0.0000E+00 -0.9120E+11
   -2.269556    3.99929  0.0000E+00  0.7049E-08  0.4365E-12  0.3823E-04  0.0000E+00 -0.1035E+12
   -2.338329    3.99979  0.0000E+00  0.7021E-08  0.4752E-12  0.3395E-04  0.0000E+00 -0.1218E+12
   -2.407102    4.00036  0.0000E+00  0.6954E-08  0.5302E-12  0.2877E-04  0.0000E+00 -0.1513E+12
   -2.475874    4.00103  0.0000E+00  0.6825E-08  0.6158E-12  0.2265E-04  0.0000E+00 -0.2050E+12
   -2.544645    4.00189  0.0000E+00  0.6585E-08  0.7737E-12  0.1549E-04  0.0000E+00 -0.3288E+12
   -2.613416    4.00319  0.0000E+00  0.6059E-08  0.1179E-11  0.7494E-05  0.0000E+00 -0.8005E+12
   -2.682187    4.00598  0.0000E+00  0.3991E-08  0.3737E-11  0.8093E-06  0.0000E+00 -0.1370E+14
   -2.750956    4.03253  0.0000E+00  0.0000E+00  0.0000E+00  0.0000E+00  0.0000E+00  0.0000E+00
