 1 - depth, m
 2 - temperature, C
 3 - salinity, kg/kg
 4 - turbulent kinetic energy, m**2/s**2
 5 - dissipation rate, m**2/s**3
 6 - kinematic heat conductance, m**2/s
 7 - modulus of horizontal velocity, m/s
 8 - Richardson number, n/d
   -0.000000    0.00000  0.0000E+00  0.1219E-13  0.7603E-17  0.1000E-09  0.0000E+00  0.1335E+17
   -0.068740    0.20593  0.0000E+00  0.1219E-13  0.7603E-17  0.1000E-09  0.0000E+00  0.1224E+17
   -0.137480    0.40588  0.0000E+00  0.1219E-13  0.7603E-17  0.1000E-09  0.0000E+00  0.1118E+17
   -0.206220    0.59942  0.0000E+00  0.1219E-13  0.7603E-17  0.1000E-09  0.0000E+00  0.1017E+17
   -0.274962    0.78617  0.0000E+00  0.2314E-13  0.7657E-17  0.1000E-09  0.0000E+00  0.9307E+16
   -0.343704    0.96786  0.0000E+00  0.7095E-13  0.1030E-16  0.1000E-09  0.0000E+00  0.8514E+16
   -0.412446    1.14475  0.0000E+00  0.1910E-12  0.2084E-16  0.1000E-09  0.0000E+00  0.7772E+16
   -0.481189    1.31695  0.0000E+00  0.4581E-12  0.4627E-16  0.1000E-09  0.0000E+00  0.7067E+16
   -0.549932    1.48430  0.0000E+00  0.1053E-11  0.1024E-15  0.1000E-09  0.0000E+00  0.6372E+16
   -0.618676    1.64586  0.0000E+00  0.2370E-11  0.2237E-15  0.1000E-09  0.0000E+00  0.5734E+16
   -0.687420    1.80187  0.0000E+00  0.5260E-11  0.4829E-15  0.1000E-09  0.0000E+00  0.5273E+16
   -0.756165    1.95630  0.0000E+00  0.1154E-10  0.1031E-14  0.1000E-09  0.0000E+00  0.4912E+16
   -0.824910    2.11196  0.0000E+00  0.2503E-10  0.2176E-14  0.1000E-09  0.0000E+00  0.4563E+16
   -0.893655    2.26958  0.0000E+00  0.5370E-10  0.4547E-14  0.1000E-09  0.0000E+00  0.4219E+16
   -0.962400    2.42990  0.0000E+00  0.1140E-09  0.9403E-14  0.1000E-09  0.0000E+00  0.3874E+16
   -1.031146    2.59373  0.0000E+00  0.2392E-09  0.1922E-13  0.1000E-09  0.0000E+00  0.3529E+16
   -1.099891    2.76236  0.0000E+00  0.4959E-09  0.3885E-13  0.1000E-09  0.0000E+00  0.3163E+16
   -1.168637    2.93683  0.0000E+00  0.1018E-08  0.7774E-13  0.1429E-09  0.0000E+00  0.2771E+16
   -1.237383    3.11859  0.0000E+00  0.2067E-08  0.1540E-12  0.3346E-09  0.0000E+00  0.2343E+16
   -1.306129    3.31004  0.0000E+00  0.4157E-08  0.3021E-12  0.8259E-09  0.0000E+00  0.1861E+16
   -1.374875    3.51550  0.0000E+00  0.8271E-08  0.5866E-12  0.2331E-08  0.0000E+00  0.1275E+16
   -1.443621    3.74250  0.0000E+00  0.1619E-07  0.1122E-11  0.1252E-07  0.0000E+00  0.4646E+15
   -1.512367    3.98607  0.0000E+00  0.1863E-07  0.1306E-11  0.7343E-04  0.0000E+00  0.5380E+13
   -1.581113    4.00505  0.0000E+00  0.1902E-07  0.1339E-11  0.9542E-04  0.0000E+00 -0.1239E+12
   -1.649859    4.00548  0.0000E+00  0.1931E-07  0.1368E-11  0.9690E-04  0.0000E+00 -0.1290E+12
   -1.718605    4.00591  0.0000E+00  0.1956E-07  0.1399E-11  0.9876E-04  0.0000E+00 -0.1311E+12
   -1.787350    4.00633  0.0000E+00  0.1978E-07  0.1433E-11  0.1003E-03  0.0000E+00 -0.1333E+12
   -1.856095    4.00676  0.0000E+00  0.1997E-07  0.1469E-11  0.1009E-03  0.0000E+00 -0.1366E+12
   -1.924841    4.00718  0.0000E+00  0.2012E-07  0.1510E-11  0.1008E-03  0.0000E+00 -0.1411E+12
   -1.993585    4.00761  0.0000E+00  0.2024E-07  0.1556E-11  0.9955E-04  0.0000E+00 -0.1476E+12
   -2.062330    4.00805  0.0000E+00  0.2033E-07  0.1608E-11  0.9671E-04  0.0000E+00 -0.1542E+12
   -2.131074    4.00850  0.0000E+00  0.2037E-07  0.1671E-11  0.9192E-04  0.0000E+00 -0.1641E+12
   -2.199818    4.00897  0.0000E+00  0.2037E-07  0.1749E-11  0.8460E-04  0.0000E+00 -0.1805E+12
   -2.268561    4.00949  0.0000E+00  0.2032E-07  0.1850E-11  0.7626E-04  0.0000E+00 -0.2040E+12
   -2.337304    4.01005  0.0000E+00  0.2020E-07  0.1988E-11  0.6606E-04  0.0000E+00 -0.2406E+12
   -2.406046    4.01070  0.0000E+00  0.1998E-07  0.2187E-11  0.5530E-04  0.0000E+00 -0.2950E+12
   -2.474788    4.01148  0.0000E+00  0.1961E-07  0.2498E-11  0.4380E-04  0.0000E+00 -0.3856E+12
   -2.543530    4.01245  0.0000E+00  0.1898E-07  0.3062E-11  0.3071E-04  0.0000E+00 -0.5802E+12
   -2.612271    4.01385  0.0000E+00  0.1771E-07  0.4463E-11  0.1586E-04  0.0000E+00 -0.1239E+13
   -2.681011    4.01662  0.0000E+00  0.1187E-07  0.1457E-10  0.1652E-05  0.0000E+00 -0.1849E+14
   -2.749750    4.04365  0.0000E+00  0.0000E+00  0.0000E+00  0.0000E+00  0.0000E+00  0.0000E+00
