 1 - depth, m
 2 - temperature, C
 3 - salinity, kg/kg
 4 - turbulent kinetic energy, m**2/s**2
 5 - dissipation rate, m**2/s**3
 6 - kinematic heat conductance, m**2/s
 7 - modulus of horizontal velocity, m/s
 8 - Richardson number, n/d
   -0.000000   11.10485  0.0000E+00  0.3462E-03  0.2696E-03  0.1131E-03  0.1891E+00  0.3938E-02
   -0.068744   11.13269  0.0000E+00  0.1870E-03  0.8889E-04  0.2805E-03  0.5712E-01 -0.1106E-01
   -0.137489   11.13797  0.0000E+00  0.1367E-03  0.4107E-04  0.2666E-03  0.4392E-01 -0.1454E-01
   -0.206235   11.14149  0.0000E+00  0.1042E-03  0.2014E-04  0.2635E-03  0.3681E-01 -0.1498E-01
   -0.274981   11.14399  0.0000E+00  0.8265E-04  0.1009E-04  0.2665E-03  0.3198E-01 -0.1834E-01
   -0.343728   11.14602  0.0000E+00  0.6746E-04  0.5269E-05  0.2790E-03  0.2776E-01 -0.1689E-01
   -0.412475   11.14774  0.0000E+00  0.5657E-04  0.2906E-05  0.2952E-03  0.2418E-01 -0.2080E-01
   -0.481223   11.14924  0.0000E+00  0.4848E-04  0.1691E-05  0.3132E-03  0.2112E-01 -0.2649E-01
   -0.549972   11.15057  0.0000E+00  0.4221E-04  0.1034E-05  0.3346E-03  0.1849E-01 -0.3482E-01
   -0.618720   11.15176  0.0000E+00  0.3729E-04  0.6676E-06  0.3560E-03  0.1629E-01 -0.4542E-01
   -0.687469   11.15285  0.0000E+00  0.3335E-04  0.4573E-06  0.3782E-03  0.1440E-01 -0.5861E-01
   -0.756219   11.15385  0.0000E+00  0.3011E-04  0.3309E-06  0.4019E-03  0.1278E-01 -0.7275E-01
   -0.824968   11.15477  0.0000E+00  0.2740E-04  0.2502E-06  0.4328E-03  0.1138E-01  0.1730E-02
   -0.893718   11.15561  0.0000E+00  0.2510E-04  0.1955E-06  0.4973E-03  0.1018E-01  0.3025E+03
   -0.962468   11.15636  0.0000E+00  0.2314E-04  0.1566E-06  0.5599E-03  0.9133E-02  0.1181E+03
   -1.031219   11.15703  0.0000E+00  0.2147E-04  0.1281E-06  0.6039E-03  0.8228E-02  0.1430E+02
   -1.099969   11.15766  0.0000E+00  0.2002E-04  0.1065E-06  0.6434E-03  0.7415E-02  0.1529E+02
   -1.168720   11.15825  0.0000E+00  0.1875E-04  0.8973E-07  0.6884E-03  0.6681E-02  0.6659E+01
   -1.237471   11.15880  0.0000E+00  0.1761E-04  0.7650E-07  0.7339E-03  0.6018E-02  0.4605E+01
   -1.306222   11.15932  0.0000E+00  0.1660E-04  0.6587E-07  0.7693E-03  0.5415E-02  0.1162E+01
   -1.374973   11.15982  0.0000E+00  0.1567E-04  0.5722E-07  0.8046E-03  0.4863E-02  0.1452E+03
   -1.443724   11.16030  0.0000E+00  0.1482E-04  0.5007E-07  0.8434E-03  0.4357E-02  0.3626E+02
   -1.512475   11.16076  0.0000E+00  0.1404E-04  0.4411E-07  0.8853E-03  0.3888E-02  0.5167E+01
   -1.581225   11.16120  0.0000E+00  0.1331E-04  0.3907E-07  0.9271E-03  0.3466E-02  0.1260E+02
   -1.649976   11.16162  0.0000E+00  0.1263E-04  0.3482E-07  0.9854E-03  0.3088E-02  0.3455E+02
   -1.718727   11.16202  0.0000E+00  0.1201E-04  0.3124E-07  0.1064E-02  0.2750E-02  0.1010E+02
   -1.787477   11.16239  0.0000E+00  0.1144E-04  0.2823E-07  0.1130E-02  0.2447E-02  0.5189E+02
   -1.856227   11.16274  0.0000E+00  0.1091E-04  0.2569E-07  0.1192E-02  0.2173E-02  0.6253E+02
   -1.924977   11.16308  0.0000E+00  0.1042E-04  0.2357E-07  0.1258E-02  0.1925E-02  0.3997E+02
   -1.993727   11.16339  0.0000E+00  0.9968E-05  0.2181E-07  0.1306E-02  0.1699E-02  0.8951E+02
   -2.062476   11.16368  0.0000E+00  0.9547E-05  0.2039E-07  0.1347E-02  0.1492E-02  0.7283E+02
   -2.131225   11.16396  0.0000E+00  0.9158E-05  0.1928E-07  0.1362E-02  0.1303E-02  0.6948E+03
   -2.199974   11.16424  0.0000E+00  0.8795E-05  0.1848E-07  0.1338E-02  0.1130E-02  0.1327E+02
   -2.268722   11.16452  0.0000E+00  0.8459E-05  0.1798E-07  0.1293E-02  0.9690E-03  0.4799E+01
   -2.337470   11.16482  0.0000E+00  0.8141E-05  0.1782E-07  0.1213E-02  0.8264E-03  0.1228E+02
   -2.406217   11.16513  0.0000E+00  0.7844E-05  0.1806E-07  0.1102E-02  0.7024E-03  0.1867E+03
   -2.474964   11.16548  0.0000E+00  0.7563E-05  0.1883E-07  0.9658E-03  0.5969E-03  0.4495E+01
   -2.543711   11.16588  0.0000E+00  0.7246E-05  0.2061E-07  0.7743E-03  0.5060E-03  0.7234E+02
   -2.612456   11.16638  0.0000E+00  0.6751E-05  0.2583E-07  0.4330E-03  0.4151E-03  0.2062E+03
   -2.681201   11.16730  0.0000E+00  0.3955E-05  0.8481E-07  0.2520E-04  0.3089E-03 -0.8394E+04
   -2.749946   11.18247  0.0000E+00  0.0000E+00  0.0000E+00  0.0000E+00  0.3086E-03  0.0000E+00
