 1 - depth, m
 2 - temperature, C
 3 - salinity, kg/kg
 4 - turbulent kinetic energy, m**2/s**2
 5 - dissipation rate, m**2/s**3
 6 - kinematic heat conductance, m**2/s
 7 - modulus of horizontal velocity, m/s
 8 - Richardson number, n/d
   -0.000000    0.00000  0.0000E+00  0.4121E-09  0.3948E-12  0.1000E-09  0.0000E+00  0.4475E+17
   -0.068770    0.74514  0.0000E+00  0.2919E-08  0.4123E-12  0.1008E-09  0.0000E+00  0.3287E+17
   -0.137542    1.43652  0.0000E+00  0.8179E-08  0.7871E-12  0.1711E-09  0.0000E+00  0.2337E+17
   -0.206313    2.08273  0.0000E+00  0.1877E-07  0.1638E-11  0.5273E-09  0.0000E+00  0.1575E+17
   -0.275086    2.69637  0.0000E+00  0.4036E-07  0.3382E-11  0.1812E-08  0.0000E+00  0.9440E+16
   -0.343859    3.29743  0.0000E+00  0.8398E-07  0.6847E-11  0.1039E-07  0.0000E+00  0.3592E+16
   -0.412632    3.89340  0.0000E+00  0.1144E-06  0.9266E-11  0.2156E-03  0.0000E+00  0.1546E+15
   -0.481406    4.05009  0.0000E+00  0.1150E-06  0.9325E-11  0.4743E-03  0.0000E+00 -0.1991E+12
   -0.550180    4.05029  0.0000E+00  0.1154E-06  0.9365E-11  0.4661E-03  0.0000E+00 -0.2043E+12
   -0.618955    4.05050  0.0000E+00  0.1157E-06  0.9409E-11  0.4661E-03  0.0000E+00 -0.2003E+12
   -0.687730    4.05070  0.0000E+00  0.1160E-06  0.9457E-11  0.4661E-03  0.0000E+00 -0.1986E+12
   -0.756506    4.05090  0.0000E+00  0.1162E-06  0.9509E-11  0.4657E-03  0.0000E+00 -0.1970E+12
   -0.825282    4.05110  0.0000E+00  0.1164E-06  0.9565E-11  0.4647E-03  0.0000E+00 -0.1959E+12
   -0.894058    4.05130  0.0000E+00  0.1165E-06  0.9627E-11  0.4633E-03  0.0000E+00 -0.1950E+12
   -0.962834    4.05149  0.0000E+00  0.1166E-06  0.9695E-11  0.4613E-03  0.0000E+00 -0.1945E+12
   -1.031610    4.05168  0.0000E+00  0.1166E-06  0.9768E-11  0.4587E-03  0.0000E+00 -0.1939E+12
   -1.100387    4.05188  0.0000E+00  0.1167E-06  0.9849E-11  0.4557E-03  0.0000E+00 -0.1937E+12
   -1.169164    4.05207  0.0000E+00  0.1166E-06  0.9937E-11  0.4521E-03  0.0000E+00 -0.1937E+12
   -1.237941    4.05226  0.0000E+00  0.1166E-06  0.1003E-10  0.4480E-03  0.0000E+00 -0.1941E+12
   -1.306718    4.05245  0.0000E+00  0.1165E-06  0.1014E-10  0.4433E-03  0.0000E+00 -0.1947E+12
   -1.375495    4.05264  0.0000E+00  0.1163E-06  0.1025E-10  0.4381E-03  0.0000E+00 -0.1955E+12
   -1.444272    4.05283  0.0000E+00  0.1162E-06  0.1038E-10  0.4323E-03  0.0000E+00 -0.1965E+12
   -1.513049    4.05302  0.0000E+00  0.1160E-06  0.1052E-10  0.4260E-03  0.0000E+00 -0.1981E+12
   -1.581826    4.05321  0.0000E+00  0.1157E-06  0.1068E-10  0.4189E-03  0.0000E+00 -0.2003E+12
   -1.650603    4.05340  0.0000E+00  0.1154E-06  0.1086E-10  0.4110E-03  0.0000E+00 -0.2031E+12
   -1.719379    4.05359  0.0000E+00  0.1151E-06  0.1106E-10  0.4025E-03  0.0000E+00 -0.2063E+12
   -1.788156    4.05379  0.0000E+00  0.1147E-06  0.1128E-10  0.3931E-03  0.0000E+00 -0.2102E+12
   -1.856932    4.05399  0.0000E+00  0.1143E-06  0.1154E-10  0.3830E-03  0.0000E+00 -0.2147E+12
   -1.925708    4.05419  0.0000E+00  0.1138E-06  0.1184E-10  0.3719E-03  0.0000E+00 -0.2201E+12
   -1.994484    4.05440  0.0000E+00  0.1133E-06  0.1218E-10  0.3599E-03  0.0000E+00 -0.2264E+12
   -2.063260    4.05461  0.0000E+00  0.1127E-06  0.1257E-10  0.3468E-03  0.0000E+00 -0.2336E+12
   -2.132035    4.05483  0.0000E+00  0.1121E-06  0.1304E-10  0.3327E-03  0.0000E+00 -0.2420E+12
   -2.200809    4.05506  0.0000E+00  0.1114E-06  0.1359E-10  0.3174E-03  0.0000E+00 -0.2521E+12
   -2.269584    4.05529  0.0000E+00  0.1107E-06  0.1426E-10  0.3007E-03  0.0000E+00 -0.2651E+12
   -2.338358    4.05554  0.0000E+00  0.1098E-06  0.1514E-10  0.2794E-03  0.0000E+00 -0.2839E+12
   -2.407131    4.05580  0.0000E+00  0.1086E-06  0.1648E-10  0.2310E-03  0.0000E+00 -0.3413E+12
   -2.475904    4.05612  0.0000E+00  0.1068E-06  0.1884E-10  0.1494E-03  0.0000E+00 -0.5277E+12
   -2.544676    4.05661  0.0000E+00  0.1038E-06  0.2358E-10  0.9290E-04  0.0000E+00 -0.8536E+12
   -2.613448    4.05739  0.0000E+00  0.9807E-07  0.3538E-10  0.4744E-04  0.0000E+00 -0.1705E+13
   -2.682219    4.05891  0.0000E+00  0.6034E-07  0.1525E-09  0.3207E-05  0.0000E+00 -0.2939E+14
   -2.750990    4.08137  0.0000E+00  0.0000E+00  0.0000E+00  0.0000E+00  0.0000E+00  0.0000E+00
