 1 - depth, m
 2 - temperature, C
 3 - salinity, kg/kg
 4 - turbulent kinetic energy, m**2/s**2
 5 - dissipation rate, m**2/s**3
 6 - kinematic heat conductance, m**2/s
 7 - modulus of horizontal velocity, m/s
 8 - Richardson number, n/d
   -0.000000    1.57027  0.0000E+00  0.8078E-03  0.7032E-03  0.1329E-03  0.3267E+00 -0.4916E-02
   -0.068738    1.60773  0.0000E+00  0.4523E-03  0.2259E-03  0.5997E-03  0.8589E-01  0.8645E-02
   -0.137477    1.61396  0.0000E+00  0.3385E-03  0.1148E-03  0.5248E-03  0.6808E-01  0.5012E-01
   -0.206217    1.61794  0.0000E+00  0.2602E-03  0.6273E-04  0.4958E-03  0.5895E-01  0.7284E-01
   -0.274957    1.62061  0.0000E+00  0.2074E-03  0.3562E-04  0.4662E-03  0.5296E-01  0.4241E-02
   -0.343698    1.62270  0.0000E+00  0.1684E-03  0.2041E-04  0.4603E-03  0.4736E-01  0.9237E-02
   -0.412440    1.62450  0.0000E+00  0.1397E-03  0.1189E-04  0.4637E-03  0.4237E-01  0.4028E-02
   -0.481181    1.62613  0.0000E+00  0.1181E-03  0.7082E-05  0.4726E-03  0.3792E-01  0.3817E-02
   -0.549924    1.62765  0.0000E+00  0.1014E-03  0.4365E-05  0.4879E-03  0.3394E-01  0.5532E-02
   -0.618666    1.62907  0.0000E+00  0.8855E-04  0.2810E-05  0.5034E-03  0.3053E-01  0.5586E-02
   -0.687409    1.63042  0.0000E+00  0.7835E-04  0.1894E-05  0.5191E-03  0.2756E-01  0.6826E-02
   -0.756153    1.63171  0.0000E+00  0.7010E-04  0.1336E-05  0.5347E-03  0.2497E-01  0.8689E-02
   -0.824896    1.63296  0.0000E+00  0.6331E-04  0.9818E-06  0.5502E-03  0.2268E-01  0.1053E-01
   -0.893640    1.63418  0.0000E+00  0.5761E-04  0.7478E-06  0.5655E-03  0.2066E-01  0.1329E-01
   -0.962385    1.63537  0.0000E+00  0.5281E-04  0.5868E-06  0.5808E-03  0.1886E-01  0.1686E-01
   -1.031129    1.63654  0.0000E+00  0.4873E-04  0.4724E-06  0.5900E-03  0.1727E-01  0.1987E-01
   -1.099874    1.63770  0.0000E+00  0.4520E-04  0.3880E-06  0.5978E-03  0.1581E-01  0.2335E-01
   -1.168618    1.63886  0.0000E+00  0.4208E-04  0.3240E-06  0.6040E-03  0.1446E-01  0.2738E-01
   -1.237363    1.64002  0.0000E+00  0.3928E-04  0.2741E-06  0.6078E-03  0.1321E-01  0.3198E-01
   -1.306108    1.64121  0.0000E+00  0.3673E-04  0.2344E-06  0.6087E-03  0.1205E-01  0.3710E-01
   -1.374853    1.64241  0.0000E+00  0.3438E-04  0.2022E-06  0.6060E-03  0.1096E-01  0.4265E-01
   -1.443598    1.64365  0.0000E+00  0.3217E-04  0.1756E-06  0.5987E-03  0.9943E-02  0.4839E-01
   -1.512343    1.64493  0.0000E+00  0.3005E-04  0.1530E-06  0.5946E-03  0.8973E-02  0.5964E-01
   -1.581088    1.64626  0.0000E+00  0.2802E-04  0.1336E-06  0.5895E-03  0.8079E-02  0.7652E-01
   -1.649832    1.64765  0.0000E+00  0.2609E-04  0.1170E-06  0.5802E-03  0.7265E-02  0.9844E-01
   -1.718577    1.64912  0.0000E+00  0.2425E-04  0.1028E-06  0.5672E-03  0.6519E-02  0.1274E+00
   -1.787322    1.65069  0.0000E+00  0.2252E-04  0.9047E-07  0.5506E-03  0.5834E-02  0.1666E+00
   -1.856066    1.65240  0.0000E+00  0.2089E-04  0.7985E-07  0.5307E-03  0.5204E-02  0.2206E+00
   -1.924810    1.65429  0.0000E+00  0.1935E-04  0.7066E-07  0.5073E-03  0.4621E-02  0.2974E+00
   -1.993553    1.65643  0.0000E+00  0.1790E-04  0.6273E-07  0.4805E-03  0.4081E-02  0.4103E+00
   -2.062297    1.65891  0.0000E+00  0.1653E-04  0.5590E-07  0.4518E-03  0.3579E-02  0.5695E+00
   -2.131040    1.66183  0.0000E+00  0.1525E-04  0.5005E-07  0.4202E-03  0.3110E-02  0.8117E+00
   -2.199783    1.66542  0.0000E+00  0.1404E-04  0.4511E-07  0.3850E-03  0.2668E-02  0.1179E+01
   -2.268525    1.67025  0.0000E+00  0.1290E-04  0.4095E-07  0.3504E-03  0.2244E-02  0.2568E+01
   -2.337267    1.67849  0.0000E+00  0.1172E-04  0.3734E-07  0.3117E-03  0.1858E-02  0.1157E+02
   -2.406008    1.73961  0.0000E+00  0.1035E-04  0.3386E-07  0.2731E-03  0.1461E-02  0.9725E+03
   -2.474749    2.01205  0.0000E+00  0.9225E-05  0.3207E-07  0.2350E-03  0.1084E-02  0.1692E+05
   -2.543489    2.07410  0.0000E+00  0.8123E-05  0.3231E-07  0.1856E-03  0.8319E-03  0.1063E+08
   -2.612229    2.20467  0.0000E+00  0.6867E-05  0.3744E-07  0.1237E-03  0.6081E-03  0.9333E+10
   -2.680968    2.34852  0.0000E+00  0.3575E-05  0.1019E-06  0.1527E-04  0.4311E-03 -0.1194E+10
   -2.749706    2.48167  0.0000E+00  0.0000E+00  0.0000E+00  0.0000E+00  0.4302E-03  0.0000E+00
