 1 - depth, m
 2 - temperature, C
 3 - salinity, kg/kg
 4 - turbulent kinetic energy, m**2/s**2
 5 - dissipation rate, m**2/s**3
 6 - kinematic heat conductance, m**2/s
 7 - modulus of horizontal velocity, m/s
 8 - Richardson number, n/d
   -0.000000    0.00000  0.0000E+00  0.5330E-09  0.5360E-12  0.1000E-09  0.0000E+00  0.4790E+17
   -0.068770    0.80455  0.0000E+00  0.3914E-08  0.5347E-12  0.1000E-09  0.0000E+00  0.3434E+17
   -0.137540    1.55018  0.0000E+00  0.1074E-07  0.9646E-12  0.2076E-09  0.0000E+00  0.2366E+17
   -0.206311    2.25006  0.0000E+00  0.2379E-07  0.1911E-11  0.6524E-09  0.0000E+00  0.1491E+17
   -0.275082    2.91214  0.0000E+00  0.4900E-07  0.3766E-11  0.2550E-08  0.0000E+00  0.7518E+16
   -0.343854    3.53200  0.0000E+00  0.9690E-07  0.7247E-11  0.2309E-07  0.0000E+00  0.1600E+16
   -0.412627    4.04255  0.0000E+00  0.9762E-07  0.7303E-11  0.4478E-03  0.0000E+00 -0.1479E+12
   -0.481399    4.04272  0.0000E+00  0.9794E-07  0.7334E-11  0.4351E-03  0.0000E+00 -0.1588E+12
   -0.550173    4.04290  0.0000E+00  0.9822E-07  0.7368E-11  0.4321E-03  0.0000E+00 -0.1605E+12
   -0.618947    4.04308  0.0000E+00  0.9848E-07  0.7406E-11  0.4316E-03  0.0000E+00 -0.1601E+12
   -0.687721    4.04326  0.0000E+00  0.9870E-07  0.7447E-11  0.4314E-03  0.0000E+00 -0.1596E+12
   -0.756495    4.04344  0.0000E+00  0.9890E-07  0.7493E-11  0.4307E-03  0.0000E+00 -0.1591E+12
   -0.825270    4.04362  0.0000E+00  0.9906E-07  0.7543E-11  0.4295E-03  0.0000E+00 -0.1591E+12
   -0.894045    4.04379  0.0000E+00  0.9920E-07  0.7598E-11  0.4279E-03  0.0000E+00 -0.1593E+12
   -0.962821    4.04397  0.0000E+00  0.9931E-07  0.7659E-11  0.4259E-03  0.0000E+00 -0.1599E+12
   -1.031596    4.04415  0.0000E+00  0.9939E-07  0.7725E-11  0.4233E-03  0.0000E+00 -0.1607E+12
   -1.100372    4.04432  0.0000E+00  0.9944E-07  0.7798E-11  0.4203E-03  0.0000E+00 -0.1618E+12
   -1.169148    4.04450  0.0000E+00  0.9946E-07  0.7877E-11  0.4168E-03  0.0000E+00 -0.1631E+12
   -1.237924    4.04468  0.0000E+00  0.9946E-07  0.7964E-11  0.4127E-03  0.0000E+00 -0.1648E+12
   -1.306700    4.04486  0.0000E+00  0.9942E-07  0.8059E-11  0.4082E-03  0.0000E+00 -0.1668E+12
   -1.375476    4.04504  0.0000E+00  0.9936E-07  0.8162E-11  0.4032E-03  0.0000E+00 -0.1689E+12
   -1.444252    4.04523  0.0000E+00  0.9926E-07  0.8276E-11  0.3978E-03  0.0000E+00 -0.1711E+12
   -1.513028    4.04541  0.0000E+00  0.9914E-07  0.8401E-11  0.3917E-03  0.0000E+00 -0.1739E+12
   -1.581804    4.04560  0.0000E+00  0.9899E-07  0.8540E-11  0.3850E-03  0.0000E+00 -0.1771E+12
   -1.650580    4.04579  0.0000E+00  0.9880E-07  0.8696E-11  0.3776E-03  0.0000E+00 -0.1809E+12
   -1.719356    4.04598  0.0000E+00  0.9857E-07  0.8871E-11  0.3696E-03  0.0000E+00 -0.1852E+12
   -1.788132    4.04618  0.0000E+00  0.9831E-07  0.9069E-11  0.3608E-03  0.0000E+00 -0.1902E+12
   -1.856907    4.04638  0.0000E+00  0.9801E-07  0.9293E-11  0.3513E-03  0.0000E+00 -0.1959E+12
   -1.925682    4.04659  0.0000E+00  0.9767E-07  0.9549E-11  0.3409E-03  0.0000E+00 -0.2026E+12
   -1.994457    4.04681  0.0000E+00  0.9729E-07  0.9843E-11  0.3296E-03  0.0000E+00 -0.2103E+12
   -2.063232    4.04703  0.0000E+00  0.9686E-07  0.1018E-10  0.3174E-03  0.0000E+00 -0.2189E+12
   -2.132006    4.04726  0.0000E+00  0.9638E-07  0.1058E-10  0.3042E-03  0.0000E+00 -0.2288E+12
   -2.200780    4.04750  0.0000E+00  0.9584E-07  0.1105E-10  0.2899E-03  0.0000E+00 -0.2407E+12
   -2.269553    4.04775  0.0000E+00  0.9523E-07  0.1162E-10  0.2741E-03  0.0000E+00 -0.2554E+12
   -2.338326    4.04801  0.0000E+00  0.9453E-07  0.1235E-10  0.2568E-03  0.0000E+00 -0.2739E+12
   -2.407098    4.04829  0.0000E+00  0.9358E-07  0.1344E-10  0.2346E-03  0.0000E+00 -0.3012E+12
   -2.475870    4.04860  0.0000E+00  0.9208E-07  0.1539E-10  0.1414E-03  0.0000E+00 -0.5042E+12
   -2.544642    4.04912  0.0000E+00  0.8956E-07  0.1929E-10  0.8757E-04  0.0000E+00 -0.8276E+12
   -2.613413    4.04996  0.0000E+00  0.8463E-07  0.2900E-10  0.4464E-04  0.0000E+00 -0.1677E+13
   -2.682183    4.05162  0.0000E+00  0.5247E-07  0.1238E-09  0.3035E-05  0.0000E+00 -0.2985E+14
   -2.750953    4.07619  0.0000E+00  0.0000E+00  0.0000E+00  0.0000E+00  0.0000E+00  0.0000E+00
