 1 - depth, m
 2 - temperature, C
 3 - salinity, kg/kg
 4 - turbulent kinetic energy, m**2/s**2
 5 - dissipation rate, m**2/s**3
 6 - kinematic heat conductance, m**2/s
 7 - modulus of horizontal velocity, m/s
 8 - Richardson number, n/d
   -0.000000   -0.00000  0.5080E-11  0.1219E-13  0.7604E-17  0.1000E-09  0.0000E+00  0.2005E+17
   -0.068745    0.31389  0.6553E-12  0.1219E-13  0.7604E-17  0.1000E-09  0.0000E+00  0.1782E+17
   -0.137492    0.61896  0.5628E-12  0.1219E-13  0.7604E-17  0.1000E-09  0.0000E+00  0.1569E+17
   -0.206238    0.91408  0.5522E-12  0.3599E-13  0.7604E-17  0.1000E-09  0.0000E+00  0.1367E+17
   -0.274986    1.19810  0.5517E-12  0.1073E-12  0.7702E-17  0.1000E-09  0.0000E+00  0.1179E+17
   -0.343734    1.46997  0.5517E-12  0.2261E-12  0.1094E-16  0.1000E-09  0.0000E+00  0.1006E+17
   -0.412482    1.72875  0.5517E-12  0.4124E-12  0.1724E-16  0.1000E-09  0.0000E+00  0.8476E+16
   -0.481231    1.97362  0.5517E-12  0.7048E-12  0.2770E-16  0.1000E-09  0.0000E+00  0.7059E+16
   -0.549980    2.20397  0.5517E-12  0.1168E-11  0.4440E-16  0.1000E-09  0.0000E+00  0.5803E+16
   -0.618730    2.41933  0.5517E-12  0.1903E-11  0.7076E-16  0.1000E-09  0.0000E+00  0.4706E+16
   -0.687480    2.61939  0.5517E-12  0.3071E-11  0.1121E-15  0.1000E-09  0.0000E+00  0.3769E+16
   -0.756231    2.80440  0.5517E-12  0.4922E-11  0.1766E-15  0.1000E-09  0.0000E+00  0.2976E+16
   -0.824981    2.97461  0.5517E-12  0.7840E-11  0.2767E-15  0.1000E-09  0.0000E+00  0.2309E+16
   -0.893733    3.13014  0.5517E-12  0.1242E-10  0.4311E-15  0.1000E-09  0.0000E+00  0.1758E+16
   -0.962484    3.27123  0.5517E-12  0.1956E-10  0.6680E-15  0.1000E-09  0.0000E+00  0.1310E+16
   -1.031235    3.39826  0.5517E-12  0.3064E-10  0.1029E-14  0.1000E-09  0.0000E+00  0.9520E+15
   -1.099987    3.51168  0.5517E-12  0.4770E-10  0.1576E-14  0.1000E-09  0.0000E+00  0.6717E+15
   -1.168739    3.61201  0.5517E-12  0.7382E-10  0.2399E-14  0.1000E-09  0.0000E+00  0.4570E+15
   -1.237491    3.69985  0.5517E-12  0.1135E-09  0.3630E-14  0.1000E-09  0.0000E+00  0.2972E+15
   -1.306243    3.77589  0.5517E-12  0.1735E-09  0.5459E-14  0.1551E-09  0.0000E+00  0.1819E+15
   -1.374995    3.84097  0.5517E-12  0.2636E-09  0.8158E-14  0.4113E-09  0.0000E+00  0.1026E+15
   -1.443747    3.89657  0.5517E-12  0.3977E-09  0.1211E-13  0.1288E-08  0.0000E+00  0.4908E+14
   -1.512499    3.94392  0.5517E-12  0.5949E-09  0.1783E-13  0.7048E-08  0.0000E+00  0.1384E+14
   -1.581251    3.98246  0.5517E-12  0.7447E-09  0.2231E-13  0.3302E-05  0.0000E+00  0.3634E+12
   -1.650003    3.98779  0.5517E-12  0.8374E-09  0.2548E-13  0.6586E-05  0.0000E+00 -0.1912E+11
   -1.718754    3.98848  0.5517E-12  0.9094E-09  0.2849E-13  0.7698E-05  0.0000E+00 -0.2242E+11
   -1.787506    3.98907  0.5517E-12  0.9789E-09  0.3193E-13  0.8565E-05  0.0000E+00 -0.2579E+11
   -1.856257    3.98961  0.5517E-12  0.1048E-08  0.3600E-13  0.9163E-05  0.0000E+00 -0.2964E+11
   -1.925008    3.99014  0.5517E-12  0.1118E-08  0.4087E-13  0.9530E-05  0.0000E+00 -0.3441E+11
   -1.993759    3.99068  0.5517E-12  0.1189E-08  0.4678E-13  0.9614E-05  0.0000E+00 -0.4049E+11
   -2.062509    3.99123  0.5517E-12  0.1256E-08  0.5380E-13  0.9360E-05  0.0000E+00 -0.4805E+11
   -2.131260    3.99182  0.5517E-12  0.1321E-08  0.6239E-13  0.8890E-05  0.0000E+00 -0.5830E+11
   -2.200009    3.99246  0.5517E-12  0.1384E-08  0.7328E-13  0.8214E-05  0.0000E+00 -0.7293E+11
   -2.268759    3.99317  0.5517E-12  0.1445E-08  0.8788E-13  0.7413E-05  0.0000E+00 -0.9594E+11
   -2.337508    3.99401  0.5517E-12  0.1506E-08  0.1093E-12  0.6411E-05  0.0000E+00 -0.1358E+12
   -2.406256    3.99507  0.5517E-12  0.1570E-08  0.1436E-12  0.5215E-05  0.0000E+00 -0.2134E+12
   -2.475004    3.99650  0.5517E-12  0.1639E-08  0.2053E-12  0.3880E-05  0.0000E+00 -0.3940E+12
   -2.543751    3.99873  0.5517E-12  0.1724E-08  0.3375E-12  0.2519E-05  0.0000E+00 -0.9377E+12
   -2.612498    4.00285  0.5517E-12  0.1873E-08  0.7112E-12  0.1368E-05  0.0000E+00 -0.3450E+13
   -2.681244    4.01303  0.5517E-12  0.2315E-08  0.2401E-11  0.6769E-06  0.0000E+00 -0.2733E+14
   -2.749990    4.05116  0.5517E-12  0.0000E+00  0.0000E+00  0.0000E+00  0.0000E+00  0.0000E+00
