 1 - depth, m
 2 - temperature, C
 3 - salinity, kg/kg
 4 - turbulent kinetic energy, m**2/s**2
 5 - dissipation rate, m**2/s**3
 6 - kinematic heat conductance, m**2/s
 7 - modulus of horizontal velocity, m/s
 8 - Richardson number, n/d
   -0.000000   -0.00000  0.1214E-11  0.2033E-11  0.5264E-15  0.1000E-09  0.2861E-84  0.8341E+16
   -0.068746    0.12729  0.8604E-12  0.5358E-11  0.5908E-15  0.1000E-09  0.2654E-84  0.8060E+16
   -0.137492    0.25469  0.8062E-12  0.1244E-10  0.1041E-14  0.1000E-09  0.2393E-84  0.7771E+16
   -0.206239    0.38208  0.7934E-12  0.2616E-10  0.2007E-14  0.1000E-09  0.2086E-84  0.7475E+16
   -0.274987    0.50930  0.7839E-12  0.5267E-10  0.3886E-14  0.1000E-09  0.1773E-84  0.7170E+16
   -0.343735    0.63613  0.7750E-12  0.1039E-09  0.7463E-14  0.1000E-09  0.1482E-84  0.6854E+16
   -0.412483    0.76230  0.7672E-12  0.2027E-09  0.1421E-13  0.1000E-09  0.1226E-84  0.6524E+16
   -0.481232    0.88745  0.7614E-12  0.3918E-09  0.2684E-13  0.1000E-09  0.1007E-84  0.6179E+16
   -0.549982    1.01108  0.7576E-12  0.7514E-09  0.5034E-13  0.1000E-09  0.8216E-85  0.5815E+16
   -0.618732    1.13258  0.7558E-12  0.1430E-08  0.9371E-13  0.1000E-09  0.6657E-85  0.5430E+16
   -0.687482    1.25114  0.7551E-12  0.2702E-08  0.1732E-12  0.1751E-09  0.5351E-85  0.5034E+16
   -0.756233    1.36607  0.7548E-12  0.5070E-08  0.3179E-12  0.3504E-09  0.4259E-85  0.4617E+16
   -0.824984    1.47632  0.7545E-12  0.9442E-08  0.5794E-12  0.7073E-09  0.3349E-85  0.4169E+16
   -0.893735    1.58040  0.7538E-12  0.1745E-07  0.1048E-11  0.1447E-08  0.2592E-85  0.3688E+16
   -0.962487    1.67653  0.7524E-12  0.3201E-07  0.1883E-11  0.3020E-08  0.1962E-85  0.3172E+16
   -1.031238    1.76268  0.7488E-12  0.5818E-07  0.3352E-11  0.6515E-08  0.1435E-85  0.2618E+16
   -1.099990    1.83647  0.7436E-12  0.1044E-06  0.5900E-11  0.1489E-07  0.9895E-86  0.2017E+16
   -1.168742    1.89516  0.7398E-12  0.1836E-06  0.1019E-10  0.3829E-07  0.6093E-86  0.1354E+16
   -1.237494    1.93554  0.7382E-12  0.3056E-06  0.1675E-10  0.1368E-06  0.2854E-86  0.6233E+15
   -1.306247    1.95440  0.7377E-12  0.3637E-06  0.2002E-10  0.2577E-05  0.4127E-87  0.4014E+14
   -1.374999    1.95562  0.7377E-12  0.3652E-06  0.2010E-10  0.4593E-03  0.5780E-88  0.9369E+11
   -1.443751    1.95562  0.7377E-12  0.3657E-06  0.2013E-10  0.2171E-02  0.5098E-88 -0.9834E+10
   -1.512503    1.95562  0.7377E-12  0.3661E-06  0.2016E-10  0.2093E-02  0.4846E-88 -0.4111E+11
   -1.581255    1.95562  0.7377E-12  0.3666E-06  0.2020E-10  0.2068E-02  0.4590E-88 -0.7300E+11
   -1.650007    1.95562  0.7377E-12  0.3670E-06  0.2023E-10  0.2058E-02  0.4314E-88 -0.1051E+12
   -1.718759    1.95562  0.7377E-12  0.3674E-06  0.2027E-10  0.2053E-02  0.4046E-88 -0.1360E+12
   -1.787511    1.95561  0.7377E-12  0.3678E-06  0.2031E-10  0.2052E-02  0.3763E-88 -0.1413E+12
   -1.856263    1.95561  0.7377E-12  0.3682E-06  0.2035E-10  0.2051E-02  0.3508E-88 -0.1439E+12
   -1.925014    1.95561  0.7377E-12  0.3685E-06  0.2040E-10  0.2050E-02  0.3259E-88 -0.1435E+12
   -1.993765    1.95560  0.7377E-12  0.3688E-06  0.2044E-10  0.2048E-02  0.3039E-88 -0.1458E+12
   -2.062515    1.95560  0.7377E-12  0.3691E-06  0.2049E-10  0.2045E-02  0.2822E-88 -0.1571E+12
   -2.131266    1.95559  0.7377E-12  0.3693E-06  0.2054E-10  0.2041E-02  0.2625E-88 -0.1675E+12
   -2.200016    1.95559  0.7377E-12  0.3694E-06  0.2060E-10  0.2037E-02  0.2427E-88 -0.1768E+12
   -2.268765    1.95558  0.7377E-12  0.3694E-06  0.2065E-10  0.2032E-02  0.2247E-88 -0.1729E+12
   -2.337514    1.95558  0.7377E-12  0.3693E-06  0.2071E-10  0.2028E-02  0.2071E-88 -0.1575E+12
   -2.406263    1.95557  0.7377E-12  0.3692E-06  0.2077E-10  0.2026E-02  0.1919E-88 -0.1271E+12
   -2.475011    1.95557  0.7377E-12  0.3689E-06  0.2086E-10  0.2048E-02  0.1780E-88 -0.6990E+11
   -2.543759    1.95557  0.7377E-12  0.3685E-06  0.2099E-10  0.1270E-02  0.1674E-88  0.8467E+11
   -2.612506    1.95557  0.7377E-12  0.3671E-06  0.2159E-10  0.3650E-07  0.1605E-88  0.3012E+16
   -2.681252    2.04945  0.7376E-12  0.9347E-07  0.1742E-09  0.9977E-07  0.1960E-90  0.8731E+16
   -2.749998    2.35287  0.7376E-12  0.0000E+00  0.0000E+00  0.0000E+00  0.2154E-90  0.0000E+00
