 1 - depth, m
 2 - temperature, C
 3 - salinity, kg/kg
 4 - turbulent kinetic energy, m**2/s**2
 5 - dissipation rate, m**2/s**3
 6 - kinematic heat conductance, m**2/s
 7 - modulus of horizontal velocity, m/s
 8 - Richardson number, n/d
   -0.000000   -0.00000  0.5105E-11  0.1219E-13  0.7603E-17  0.1000E-09  0.0000E+00  0.1450E+17
   -0.068746    0.22421  0.1283E-11  0.1219E-13  0.7603E-17  0.1000E-09  0.0000E+00  0.1350E+17
   -0.137492    0.44664  0.6164E-12  0.1219E-13  0.7603E-17  0.1000E-09  0.0000E+00  0.1248E+17
   -0.206239    0.66628  0.5558E-12  0.1219E-13  0.7603E-17  0.1000E-09  0.0000E+00  0.1144E+17
   -0.274987    0.88208  0.5519E-12  0.1219E-13  0.7603E-17  0.1000E-09  0.0000E+00  0.1040E+17
   -0.343735    1.09303  0.5517E-12  0.1219E-13  0.7603E-17  0.1000E-09  0.0000E+00  0.9384E+16
   -0.412483    1.29822  0.5517E-12  0.1219E-13  0.7603E-17  0.1000E-09  0.0000E+00  0.8398E+16
   -0.481232    1.49683  0.5517E-12  0.1219E-13  0.7603E-17  0.1000E-09  0.0000E+00  0.7458E+16
   -0.549982    1.68818  0.5517E-12  0.1219E-13  0.7603E-17  0.1000E-09  0.0000E+00  0.6572E+16
   -0.618732    1.87172  0.5517E-12  0.1219E-13  0.7603E-17  0.1000E-09  0.0000E+00  0.5749E+16
   -0.687482    2.04698  0.5517E-12  0.1219E-13  0.7603E-17  0.1000E-09  0.0000E+00  0.4997E+16
   -0.756233    2.21382  0.5517E-12  0.1219E-13  0.7603E-17  0.1000E-09  0.0000E+00  0.4314E+16
   -0.824984    2.37211  0.5517E-12  0.1219E-13  0.7603E-17  0.1000E-09  0.0000E+00  0.3697E+16
   -0.893735    2.52168  0.5517E-12  0.1219E-13  0.7603E-17  0.1000E-09  0.0000E+00  0.3143E+16
   -0.962487    2.66243  0.5517E-12  0.1219E-13  0.7603E-17  0.1000E-09  0.0000E+00  0.2652E+16
   -1.031238    2.79434  0.5517E-12  0.1219E-13  0.7603E-17  0.1000E-09  0.0000E+00  0.2219E+16
   -1.099990    2.91743  0.5517E-12  0.1219E-13  0.7603E-17  0.1000E-09  0.0000E+00  0.1842E+16
   -1.168742    3.03179  0.5517E-12  0.1219E-13  0.7603E-17  0.1000E-09  0.0000E+00  0.1515E+16
   -1.237494    3.13756  0.5517E-12  0.1219E-13  0.7603E-17  0.1000E-09  0.0000E+00  0.1236E+16
   -1.306247    3.23491  0.5517E-12  0.1219E-13  0.7603E-17  0.1000E-09  0.0000E+00  0.9982E+15
   -1.374999    3.32406  0.5517E-12  0.1219E-13  0.7603E-17  0.1000E-09  0.0000E+00  0.8021E+15
   -1.443751    3.40564  0.5517E-12  0.1219E-13  0.7603E-17  0.1000E-09  0.0000E+00  0.6391E+15
   -1.512503    3.48007  0.5517E-12  0.1219E-13  0.7603E-17  0.1000E-09  0.0000E+00  0.5038E+15
   -1.581255    3.54763  0.5517E-12  0.1219E-13  0.7603E-17  0.1000E-09  0.0000E+00  0.3927E+15
   -1.650007    3.60866  0.5517E-12  0.1219E-13  0.7603E-17  0.1000E-09  0.0000E+00  0.3024E+15
   -1.718759    3.66347  0.5517E-12  0.1219E-13  0.7603E-17  0.1000E-09  0.0000E+00  0.2299E+15
   -1.787511    3.71244  0.5517E-12  0.1219E-13  0.7603E-17  0.1000E-09  0.0000E+00  0.1737E+15
   -1.856262    3.75626  0.5517E-12  0.1219E-13  0.7603E-17  0.1000E-09  0.0000E+00  0.1278E+15
   -1.925014    3.79483  0.5517E-12  0.4240E-13  0.1089E-16  0.1000E-09  0.0000E+00  0.9088E+14
   -1.993765    3.82790  0.5517E-12  0.1472E-12  0.3206E-16  0.1000E-09  0.0000E+00  0.6238E+14
   -2.062515    3.85535  0.5517E-12  0.4632E-12  0.9713E-16  0.1000E-09  0.0000E+00  0.4642E+14
   -2.131266    3.88031  0.5517E-12  0.1419E-11  0.2911E-15  0.1000E-09  0.0000E+00  0.3433E+14
   -2.200016    3.90348  0.5517E-12  0.4298E-11  0.8669E-15  0.1683E-09  0.0000E+00  0.2451E+14
   -2.268765    3.92519  0.5517E-12  0.1302E-10  0.2596E-14  0.7071E-09  0.0000E+00  0.1701E+14
   -2.337514    3.94673  0.5517E-12  0.3988E-10  0.7919E-14  0.3479E-08  0.0000E+00  0.9937E+13
   -2.406263    3.96901  0.5517E-12  0.1213E-09  0.2440E-13  0.3187E-07  0.0000E+00  0.2255E+13
   -2.475011    3.98999  0.5517E-12  0.3392E-09  0.7517E-13  0.3867E-06  0.0000E+00 -0.1085E+13
   -2.543759    3.99866  0.5517E-12  0.6350E-09  0.1898E-12  0.6068E-06  0.0000E+00 -0.2180E+13
   -2.612505    4.00707  0.5517E-12  0.1036E-08  0.4989E-12  0.6181E-06  0.0000E+00 -0.5678E+13
   -2.681252    4.02031  0.5517E-12  0.1734E-08  0.1810E-11  0.5321E-06  0.0000E+00 -0.2861E+14
   -2.749998    4.05567  0.5517E-12  0.0000E+00  0.0000E+00  0.0000E+00  0.0000E+00  0.0000E+00
