 1 - depth, m
 2 - temperature, C
 3 - salinity, kg/kg
 4 - turbulent kinetic energy, m**2/s**2
 5 - dissipation rate, m**2/s**3
 6 - kinematic heat conductance, m**2/s
 7 - modulus of horizontal velocity, m/s
 8 - Richardson number, n/d
   -0.000000   -0.00000  0.1911E-11  0.1219E-13  0.7603E-17  0.1000E-09  0.0000E+00  0.9950E+16
   -0.068746    0.15238  0.8957E-12  0.1219E-13  0.7603E-17  0.1000E-09  0.0000E+00  0.9472E+16
   -0.137492    0.30368  0.5703E-12  0.1219E-13  0.7603E-17  0.1000E-09  0.0000E+00  0.9012E+16
   -0.206239    0.45404  0.5010E-12  0.1219E-13  0.7603E-17  0.1000E-09  0.0000E+00  0.8572E+16
   -0.274987    0.60364  0.4903E-12  0.1219E-13  0.7603E-17  0.1000E-09  0.0000E+00  0.8153E+16
   -0.343735    0.75273  0.4885E-12  0.1219E-13  0.7603E-17  0.1000E-09  0.0000E+00  0.7754E+16
   -0.412483    0.90157  0.4875E-12  0.1219E-13  0.7603E-17  0.1000E-09  0.0000E+00  0.7370E+16
   -0.481233    1.05040  0.4862E-12  0.1219E-13  0.7603E-17  0.1000E-09  0.0000E+00  0.6998E+16
   -0.549982    1.19945  0.4843E-12  0.1219E-13  0.7603E-17  0.1000E-09  0.0000E+00  0.6633E+16
   -0.618732    1.34888  0.4815E-12  0.2046E-13  0.7603E-17  0.1000E-09  0.0000E+00  0.6273E+16
   -0.687482    1.49881  0.4773E-12  0.7696E-13  0.9634E-17  0.1000E-09  0.0000E+00  0.5924E+16
   -0.756233    1.64961  0.4715E-12  0.1947E-12  0.1883E-16  0.1000E-09  0.0000E+00  0.5578E+16
   -0.824984    1.80148  0.4649E-12  0.4319E-12  0.3878E-16  0.1000E-09  0.0000E+00  0.5223E+16
   -0.893736    1.95435  0.4594E-12  0.9153E-12  0.7933E-16  0.1000E-09  0.0000E+00  0.4858E+16
   -0.962487    2.10807  0.4565E-12  0.1902E-11  0.1605E-15  0.1000E-09  0.0000E+00  0.4483E+16
   -1.031239    2.26243  0.4557E-12  0.3905E-11  0.3216E-15  0.1000E-09  0.0000E+00  0.4098E+16
   -1.099991    2.41717  0.4556E-12  0.7946E-11  0.6389E-15  0.1000E-09  0.0000E+00  0.3704E+16
   -1.168743    2.57193  0.4556E-12  0.1603E-10  0.1259E-14  0.1000E-09  0.0000E+00  0.3304E+16
   -1.237495    2.72631  0.4556E-12  0.3208E-10  0.2462E-14  0.1000E-09  0.0000E+00  0.2901E+16
   -1.306247    2.87988  0.4556E-12  0.6370E-10  0.4777E-14  0.1000E-09  0.0000E+00  0.2498E+16
   -1.374999    3.03216  0.4556E-12  0.1255E-09  0.9199E-14  0.1000E-09  0.0000E+00  0.2103E+16
   -1.443752    3.18278  0.4556E-12  0.2454E-09  0.1759E-13  0.1000E-09  0.0000E+00  0.1717E+16
   -1.512504    3.33130  0.4556E-12  0.4762E-09  0.3337E-13  0.1264E-09  0.0000E+00  0.1343E+16
   -1.581256    3.47728  0.4556E-12  0.9171E-09  0.6287E-13  0.3244E-09  0.0000E+00  0.9863E+15
   -1.650008    3.62017  0.4556E-12  0.1753E-08  0.1176E-12  0.9214E-09  0.0000E+00  0.6494E+15
   -1.718760    3.75930  0.4556E-12  0.3322E-08  0.2180E-12  0.3302E-08  0.0000E+00  0.3362E+15
   -1.787512    3.89289  0.4556E-12  0.6287E-08  0.4045E-12  0.3115E-07  0.0000E+00  0.6619E+14
   -1.856263    4.00326  0.4556E-12  0.6858E-08  0.4431E-12  0.4189E-04  0.0000E+00 -0.1218E+12
   -1.925014    4.00371  0.4556E-12  0.7121E-08  0.4647E-12  0.4264E-04  0.0000E+00 -0.1237E+12
   -1.993766    4.00416  0.4556E-12  0.7356E-08  0.4887E-12  0.4273E-04  0.0000E+00 -0.1275E+12
   -2.062516    4.00461  0.4556E-12  0.7555E-08  0.5149E-12  0.4204E-04  0.0000E+00 -0.1332E+12
   -2.131267    4.00507  0.4556E-12  0.7719E-08  0.5444E-12  0.4073E-04  0.0000E+00 -0.1414E+12
   -2.200017    4.00555  0.4556E-12  0.7846E-08  0.5786E-12  0.3875E-04  0.0000E+00 -0.1530E+12
   -2.268766    4.00605  0.4556E-12  0.7937E-08  0.6204E-12  0.3617E-04  0.0000E+00 -0.1700E+12
   -2.337515    4.00659  0.4556E-12  0.7989E-08  0.6757E-12  0.3274E-04  0.0000E+00 -0.1963E+12
   -2.406264    4.00720  0.4556E-12  0.7993E-08  0.7544E-12  0.2833E-04  0.0000E+00 -0.2399E+12
   -2.475012    4.00792  0.4556E-12  0.7928E-08  0.8786E-12  0.2278E-04  0.0000E+00 -0.3215E+12
   -2.543760    4.00885  0.4556E-12  0.7746E-08  0.1108E-11  0.1599E-04  0.0000E+00 -0.5108E+12
   -2.612507    4.01025  0.4556E-12  0.7289E-08  0.1686E-11  0.8226E-05  0.0000E+00 -0.1218E+13
   -2.681253    4.01331  0.4556E-12  0.5531E-08  0.5111E-11  0.1280E-05  0.0000E+00 -0.1585E+14
   -2.749999    4.03878  0.4556E-12  0.0000E+00  0.0000E+00  0.0000E+00  0.0000E+00  0.0000E+00
