 1 - depth, m
 2 - temperature, C
 3 - salinity, kg/kg
 4 - turbulent kinetic energy, m**2/s**2
 5 - dissipation rate, m**2/s**3
 6 - kinematic heat conductance, m**2/s
 7 - modulus of horizontal velocity, m/s
 8 - Richardson number, n/d
   -0.000000   -0.00000  0.1796E-11  0.1219E-13  0.7603E-17  0.1000E-09  0.0000E+00  0.9940E+16
   -0.068746    0.15222  0.9366E-12  0.1219E-13  0.7603E-17  0.1000E-09  0.0000E+00  0.9498E+16
   -0.137492    0.30394  0.5890E-12  0.1219E-13  0.7603E-17  0.1000E-09  0.0000E+00  0.9063E+16
   -0.206239    0.45518  0.5057E-12  0.1219E-13  0.7603E-17  0.1000E-09  0.0000E+00  0.8636E+16
   -0.274987    0.60598  0.4910E-12  0.1219E-13  0.7603E-17  0.1000E-09  0.0000E+00  0.8220E+16
   -0.343735    0.75644  0.4886E-12  0.1219E-13  0.7603E-17  0.1000E-09  0.0000E+00  0.7814E+16
   -0.412484    0.90666  0.4875E-12  0.1219E-13  0.7603E-17  0.1000E-09  0.0000E+00  0.7417E+16
   -0.481233    1.05675  0.4861E-12  0.1219E-13  0.7603E-17  0.1000E-09  0.0000E+00  0.7028E+16
   -0.549982    1.20682  0.4842E-12  0.1219E-13  0.7603E-17  0.1000E-09  0.0000E+00  0.6645E+16
   -0.618732    1.35696  0.4814E-12  0.2742E-13  0.7603E-17  0.1000E-09  0.0000E+00  0.6266E+16
   -0.687483    1.50723  0.4771E-12  0.9085E-13  0.9968E-17  0.1000E-09  0.0000E+00  0.5899E+16
   -0.756234    1.65794  0.4714E-12  0.2176E-12  0.1881E-16  0.1000E-09  0.0000E+00  0.5536E+16
   -0.824985    1.80923  0.4649E-12  0.4636E-12  0.3722E-16  0.1000E-09  0.0000E+00  0.5168E+16
   -0.893736    1.96104  0.4596E-12  0.9453E-12  0.7323E-16  0.1000E-09  0.0000E+00  0.4794E+16
   -0.962487    2.11323  0.4566E-12  0.1890E-11  0.1426E-15  0.1000E-09  0.0000E+00  0.4415E+16
   -1.031239    2.26561  0.4557E-12  0.3734E-11  0.2749E-15  0.1000E-09  0.0000E+00  0.4029E+16
   -1.099991    2.41797  0.4556E-12  0.7311E-11  0.5256E-15  0.1000E-09  0.0000E+00  0.3640E+16
   -1.168743    2.57001  0.4556E-12  0.1419E-10  0.9970E-15  0.1000E-09  0.0000E+00  0.3249E+16
   -1.237495    2.72142  0.4556E-12  0.2734E-10  0.1876E-14  0.1000E-09  0.0000E+00  0.2858E+16
   -1.306248    2.87188  0.4556E-12  0.5224E-10  0.3505E-14  0.1000E-09  0.0000E+00  0.2470E+16
   -1.375000    3.02103  0.4556E-12  0.9905E-10  0.6497E-14  0.1000E-09  0.0000E+00  0.2090E+16
   -1.443752    3.16862  0.4556E-12  0.1864E-09  0.1195E-13  0.1000E-09  0.0000E+00  0.1720E+16
   -1.512505    3.31433  0.4556E-12  0.3482E-09  0.2184E-13  0.1000E-09  0.0000E+00  0.1362E+16
   -1.581257    3.45785  0.4556E-12  0.6455E-09  0.3959E-13  0.1979E-09  0.0000E+00  0.1019E+16
   -1.650009    3.59878  0.4556E-12  0.1188E-08  0.7128E-13  0.5247E-09  0.0000E+00  0.6917E+15
   -1.718761    3.73667  0.4556E-12  0.2168E-08  0.1273E-12  0.1687E-08  0.0000E+00  0.3845E+15
   -1.787513    3.87064  0.4556E-12  0.3988E-08  0.2292E-12  0.1123E-07  0.0000E+00  0.1043E+15
   -1.856264    3.99493  0.4556E-12  0.4452E-08  0.2570E-12  0.2812E-04  0.0000E+00 -0.9361E+11
   -1.925015    3.99560  0.4556E-12  0.4675E-08  0.2733E-12  0.2944E-04  0.0000E+00 -0.9644E+11
   -1.993766    3.99625  0.4556E-12  0.4879E-08  0.2916E-12  0.3012E-04  0.0000E+00 -0.1009E+12
   -2.062517    3.99688  0.4556E-12  0.5058E-08  0.3117E-12  0.3012E-04  0.0000E+00 -0.1071E+12
   -2.131268    3.99751  0.4556E-12  0.5211E-08  0.3344E-12  0.2954E-04  0.0000E+00 -0.1156E+12
   -2.200018    3.99815  0.4556E-12  0.5337E-08  0.3606E-12  0.2837E-04  0.0000E+00 -0.1274E+12
   -2.268767    3.99882  0.4556E-12  0.5436E-08  0.3925E-12  0.2665E-04  0.0000E+00 -0.1445E+12
   -2.337516    3.99954  0.4556E-12  0.5507E-08  0.4346E-12  0.2420E-04  0.0000E+00 -0.1709E+12
   -2.406265    4.00034  0.4556E-12  0.5543E-08  0.4944E-12  0.2092E-04  0.0000E+00 -0.2150E+12
   -2.475013    4.00129  0.4556E-12  0.5528E-08  0.5889E-12  0.1672E-04  0.0000E+00 -0.2993E+12
   -2.543761    4.00252  0.4556E-12  0.5426E-08  0.7649E-12  0.1157E-04  0.0000E+00 -0.5025E+12
   -2.612508    4.00439  0.4556E-12  0.5122E-08  0.1216E-11  0.5796E-05  0.0000E+00 -0.1314E+13
   -2.681254    4.00855  0.4556E-12  0.4044E-08  0.3701E-11  0.1035E-05  0.0000E+00 -0.1725E+14
   -2.750000    4.03825  0.4556E-12  0.0000E+00  0.0000E+00  0.0000E+00  0.0000E+00  0.0000E+00
