 1 - depth, m
 2 - temperature, C
 3 - salinity, kg/kg
 4 - turbulent kinetic energy, m**2/s**2
 5 - dissipation rate, m**2/s**3
 6 - kinematic heat conductance, m**2/s
 7 - modulus of horizontal velocity, m/s
 8 - Richardson number, n/d
   -0.000000   -0.00000  0.4099E-11  0.1219E-13  0.7603E-17  0.1000E-09  0.0000E+00  0.1299E+17
   -0.068746    0.20021  0.1697E-11  0.1219E-13  0.7603E-17  0.1000E-09  0.0000E+00  0.1217E+17
   -0.137492    0.39853  0.7722E-12  0.1219E-13  0.7603E-17  0.1000E-09  0.0000E+00  0.1134E+17
   -0.206239    0.59443  0.5816E-12  0.1219E-13  0.7603E-17  0.1000E-09  0.0000E+00  0.1051E+17
   -0.274986    0.78736  0.5548E-12  0.1219E-13  0.7603E-17  0.1000E-09  0.0000E+00  0.9685E+16
   -0.343735    0.97675  0.5519E-12  0.1219E-13  0.7603E-17  0.1000E-09  0.0000E+00  0.8875E+16
   -0.412483    1.16202  0.5517E-12  0.1219E-13  0.7603E-17  0.1000E-09  0.0000E+00  0.8085E+16
   -0.481232    1.34264  0.5517E-12  0.1219E-13  0.7603E-17  0.1000E-09  0.0000E+00  0.7321E+16
   -0.549982    1.51810  0.5517E-12  0.1219E-13  0.7603E-17  0.1000E-09  0.0000E+00  0.6589E+16
   -0.618732    1.68793  0.5517E-12  0.1219E-13  0.7603E-17  0.1000E-09  0.0000E+00  0.5893E+16
   -0.687482    1.85172  0.5517E-12  0.1219E-13  0.7603E-17  0.1000E-09  0.0000E+00  0.5244E+16
   -0.756233    2.00926  0.5517E-12  0.1219E-13  0.7603E-17  0.1000E-09  0.0000E+00  0.4639E+16
   -0.824984    2.16032  0.5517E-12  0.1219E-13  0.7603E-17  0.1000E-09  0.0000E+00  0.4078E+16
   -0.893735    2.30465  0.5517E-12  0.1219E-13  0.7603E-17  0.1000E-09  0.0000E+00  0.3562E+16
   -0.962486    2.44205  0.5517E-12  0.1219E-13  0.7603E-17  0.1000E-09  0.0000E+00  0.3092E+16
   -1.031238    2.57238  0.5517E-12  0.1219E-13  0.7603E-17  0.1000E-09  0.0000E+00  0.2666E+16
   -1.099990    2.69553  0.5517E-12  0.1219E-13  0.7603E-17  0.1000E-09  0.0000E+00  0.2283E+16
   -1.168742    2.81145  0.5517E-12  0.1219E-13  0.7603E-17  0.1000E-09  0.0000E+00  0.1942E+16
   -1.237494    2.92014  0.5517E-12  0.1219E-13  0.7603E-17  0.1000E-09  0.0000E+00  0.1641E+16
   -1.306246    3.02164  0.5517E-12  0.1219E-13  0.7603E-17  0.1000E-09  0.0000E+00  0.1376E+16
   -1.374998    3.11600  0.5517E-12  0.1219E-13  0.7603E-17  0.1000E-09  0.0000E+00  0.1150E+16
   -1.443751    3.20368  0.5517E-12  0.1219E-13  0.7603E-17  0.1000E-09  0.0000E+00  0.9554E+15
   -1.512503    3.28491  0.5517E-12  0.1219E-13  0.7603E-17  0.1000E-09  0.0000E+00  0.7877E+15
   -1.581255    3.35985  0.5517E-12  0.1219E-13  0.7603E-17  0.1000E-09  0.0000E+00  0.6444E+15
   -1.650007    3.42869  0.5517E-12  0.1219E-13  0.7603E-17  0.1000E-09  0.0000E+00  0.5229E+15
   -1.718759    3.49161  0.5517E-12  0.1219E-13  0.7603E-17  0.1000E-09  0.0000E+00  0.4210E+15
   -1.787510    3.54884  0.5517E-12  0.1219E-13  0.7603E-17  0.1000E-09  0.0000E+00  0.3386E+15
   -1.856262    3.60105  0.5517E-12  0.1219E-13  0.7603E-17  0.1000E-09  0.0000E+00  0.2677E+15
   -1.925013    3.64801  0.5517E-12  0.1219E-13  0.7603E-17  0.1000E-09  0.0000E+00  0.2070E+15
   -1.993764    3.68941  0.5517E-12  0.1219E-13  0.7603E-17  0.1000E-09  0.0000E+00  0.1565E+15
   -2.062515    3.72505  0.5517E-12  0.1219E-13  0.7603E-17  0.1000E-09  0.0000E+00  0.1272E+15
   -2.131265    3.75810  0.5517E-12  0.1219E-13  0.7603E-17  0.1000E-09  0.0000E+00  0.1040E+15
   -2.200015    3.78921  0.5517E-12  0.3499E-13  0.1648E-16  0.1000E-09  0.0000E+00  0.8449E+14
   -2.268765    3.81871  0.5517E-12  0.1647E-12  0.7541E-16  0.1000E-09  0.0000E+00  0.7027E+14
   -2.337514    3.84796  0.5517E-12  0.8012E-12  0.3674E-15  0.1000E-09  0.0000E+00  0.5845E+14
   -2.406262    3.87817  0.5517E-12  0.3943E-11  0.1828E-14  0.1648E-09  0.0000E+00  0.4699E+14
   -2.475010    3.91079  0.5517E-12  0.1980E-10  0.9398E-14  0.1110E-08  0.0000E+00  0.3323E+14
   -2.543758    3.94803  0.5517E-12  0.1013E-09  0.5050E-13  0.1171E-07  0.0000E+00  0.1130E+14
   -2.612505    3.99112  0.5517E-12  0.5025E-09  0.2940E-12  0.2200E-06  0.0000E+00 -0.7659E+13
   -2.681251    4.01798  0.5517E-12  0.1367E-08  0.1431E-11  0.4393E-06  0.0000E+00 -0.2956E+14
   -2.749997    4.05544  0.5517E-12  0.0000E+00  0.0000E+00  0.0000E+00  0.0000E+00  0.0000E+00
