 1 - depth, m
 2 - temperature, C
 3 - salinity, kg/kg
 4 - turbulent kinetic energy, m**2/s**2
 5 - dissipation rate, m**2/s**3
 6 - kinematic heat conductance, m**2/s
 7 - modulus of horizontal velocity, m/s
 8 - Richardson number, n/d
   -0.000000   -0.00000  0.1418E-11  0.1219E-13  0.7603E-17  0.1000E-09  0.0000E+00  0.7234E+16
   -0.068746    0.11015  0.6924E-12  0.1219E-13  0.7603E-17  0.1000E-09  0.0000E+00  0.6939E+16
   -0.137492    0.21903  0.4396E-12  0.1219E-13  0.7603E-17  0.1000E-09  0.0000E+00  0.6676E+16
   -0.206239    0.32704  0.3827E-12  0.1219E-13  0.7603E-17  0.1000E-09  0.0000E+00  0.6445E+16
   -0.274987    0.43463  0.3730E-12  0.1219E-13  0.7603E-17  0.1000E-09  0.0000E+00  0.6242E+16
   -0.343735    0.54224  0.3716E-12  0.1219E-13  0.7603E-17  0.1000E-09  0.0000E+00  0.6067E+16
   -0.412483    0.65035  0.3714E-12  0.1219E-13  0.7603E-17  0.1000E-09  0.0000E+00  0.5916E+16
   -0.481232    0.75946  0.3714E-12  0.1219E-13  0.7603E-17  0.1000E-09  0.0000E+00  0.5784E+16
   -0.549982    0.87004  0.3714E-12  0.1219E-13  0.7603E-17  0.1000E-09  0.0000E+00  0.5669E+16
   -0.618732    0.98258  0.3714E-12  0.1219E-13  0.7603E-17  0.1000E-09  0.0000E+00  0.5565E+16
   -0.687482    1.09755  0.3714E-12  0.1219E-13  0.7603E-17  0.1000E-09  0.0000E+00  0.5484E+16
   -0.756233    1.21573  0.3714E-12  0.1219E-13  0.7603E-17  0.1000E-09  0.0000E+00  0.5412E+16
   -0.824984    1.33776  0.3714E-12  0.1327E-13  0.7603E-17  0.1000E-09  0.0000E+00  0.5332E+16
   -0.893735    1.46404  0.3714E-12  0.3772E-13  0.7853E-17  0.1000E-09  0.0000E+00  0.5240E+16
   -0.962487    1.59490  0.3713E-12  0.1095E-12  0.1390E-16  0.1000E-09  0.0000E+00  0.5130E+16
   -1.031238    1.73065  0.3712E-12  0.2646E-12  0.3028E-16  0.1000E-09  0.0000E+00  0.4995E+16
   -1.099990    1.87155  0.3708E-12  0.6037E-12  0.6695E-16  0.1000E-09  0.0000E+00  0.4832E+16
   -1.168742    2.01777  0.3700E-12  0.1355E-11  0.1476E-15  0.1000E-09  0.0000E+00  0.4636E+16
   -1.237494    2.16945  0.3684E-12  0.3029E-11  0.3247E-15  0.1000E-09  0.0000E+00  0.4401E+16
   -1.306247    2.32665  0.3661E-12  0.6757E-11  0.7126E-15  0.1000E-09  0.0000E+00  0.4126E+16
   -1.374999    2.48939  0.3633E-12  0.1505E-10  0.1560E-14  0.1000E-09  0.0000E+00  0.3814E+16
   -1.443751    2.65791  0.3611E-12  0.3343E-10  0.3406E-14  0.1000E-09  0.0000E+00  0.3456E+16
   -1.512503    2.83217  0.3598E-12  0.7404E-10  0.7408E-14  0.1000E-09  0.0000E+00  0.3046E+16
   -1.581255    3.01178  0.3593E-12  0.1634E-09  0.1604E-13  0.1000E-09  0.0000E+00  0.2581E+16
   -1.650007    3.19585  0.3590E-12  0.3589E-09  0.3458E-13  0.1038E-09  0.0000E+00  0.2062E+16
   -1.718759    3.38258  0.3588E-12  0.7845E-09  0.7414E-13  0.2526E-09  0.0000E+00  0.1500E+16
   -1.787511    3.56855  0.3586E-12  0.1745E-08  0.1617E-12  0.8830E-09  0.0000E+00  0.9305E+15
   -1.856263    3.74897  0.3584E-12  0.3918E-08  0.3560E-12  0.4415E-08  0.0000E+00  0.4052E+15
   -1.925014    3.91759  0.3583E-12  0.8243E-08  0.7392E-12  0.1275E-06  0.0000E+00  0.3221E+14
   -1.993765    4.01182  0.3583E-12  0.9248E-08  0.8344E-12  0.4265E-04  0.0000E+00 -0.2393E+12
   -2.062516    4.01242  0.3583E-12  0.9690E-08  0.8860E-12  0.4333E-04  0.0000E+00 -0.2444E+12
   -2.131266    4.01301  0.3583E-12  0.1006E-07  0.9415E-12  0.4315E-04  0.0000E+00 -0.2547E+12
   -2.200016    4.01361  0.3583E-12  0.1036E-07  0.1003E-11  0.4211E-04  0.0000E+00 -0.2711E+12
   -2.268765    4.01424  0.3583E-12  0.1059E-07  0.1076E-11  0.4015E-04  0.0000E+00 -0.2961E+12
   -2.337515    4.01492  0.3583E-12  0.1075E-07  0.1168E-11  0.3710E-04  0.0000E+00 -0.3352E+12
   -2.406263    4.01566  0.3583E-12  0.1084E-07  0.1296E-11  0.3277E-04  0.0000E+00 -0.3997E+12
   -2.475011    4.01652  0.3583E-12  0.1083E-07  0.1492E-11  0.2698E-04  0.0000E+00 -0.5183E+12
   -2.543759    4.01760  0.3583E-12  0.1066E-07  0.1842E-11  0.1952E-04  0.0000E+00 -0.7837E+12
   -2.612506    4.01918  0.3583E-12  0.1011E-07  0.2695E-11  0.1048E-04  0.0000E+00 -0.1707E+13
   -2.681252    4.02236  0.3583E-12  0.7725E-08  0.7792E-11  0.1616E-05  0.0000E+00 -0.1855E+14
   -2.749998    4.04691  0.3583E-12  0.0000E+00  0.0000E+00  0.0000E+00  0.0000E+00  0.0000E+00
