 1 - depth, m
 2 - temperature, C
 3 - salinity, kg/kg
 4 - turbulent kinetic energy, m**2/s**2
 5 - dissipation rate, m**2/s**3
 6 - kinematic heat conductance, m**2/s
 7 - modulus of horizontal velocity, m/s
 8 - Richardson number, n/d
   -0.000000   -0.00000  0.1617E-11  0.1219E-13  0.7603E-17  0.1000E-09  0.0000E+00  0.1009E+17
   -0.068746    0.15460  0.9881E-12  0.1219E-13  0.7603E-17  0.1000E-09  0.0000E+00  0.9620E+16
   -0.137492    0.30843  0.6340E-12  0.1219E-13  0.7603E-17  0.1000E-09  0.0000E+00  0.9161E+16
   -0.206239    0.46154  0.5202E-12  0.1219E-13  0.7603E-17  0.1000E-09  0.0000E+00  0.8714E+16
   -0.274987    0.61403  0.4941E-12  0.1219E-13  0.7603E-17  0.1000E-09  0.0000E+00  0.8278E+16
   -0.343735    0.76597  0.4890E-12  0.1219E-13  0.7603E-17  0.1000E-09  0.0000E+00  0.7852E+16
   -0.412483    0.91743  0.4874E-12  0.1219E-13  0.7603E-17  0.1000E-09  0.0000E+00  0.7434E+16
   -0.481233    1.06844  0.4859E-12  0.1219E-13  0.7603E-17  0.1000E-09  0.0000E+00  0.7022E+16
   -0.549982    1.21905  0.4839E-12  0.1219E-13  0.7603E-17  0.1000E-09  0.0000E+00  0.6616E+16
   -0.618732    1.36925  0.4809E-12  0.1219E-13  0.7603E-17  0.1000E-09  0.0000E+00  0.6214E+16
   -0.687482    1.51902  0.4766E-12  0.1219E-13  0.7603E-17  0.1000E-09  0.0000E+00  0.5825E+16
   -0.756233    1.66856  0.4710E-12  0.5033E-13  0.7603E-17  0.1000E-09  0.0000E+00  0.5441E+16
   -0.824984    1.81792  0.4649E-12  0.1367E-12  0.1324E-16  0.1000E-09  0.0000E+00  0.5057E+16
   -0.893735    1.96699  0.4599E-12  0.3071E-12  0.2645E-16  0.1000E-09  0.0000E+00  0.4672E+16
   -0.962487    2.11562  0.4569E-12  0.6450E-12  0.5308E-16  0.1000E-09  0.0000E+00  0.4287E+16
   -1.031239    2.26361  0.4559E-12  0.1319E-11  0.1054E-15  0.1000E-09  0.0000E+00  0.3903E+16
   -1.099991    2.41075  0.4557E-12  0.2659E-11  0.2073E-15  0.1000E-09  0.0000E+00  0.3520E+16
   -1.168743    2.55675  0.4556E-12  0.5308E-11  0.4040E-15  0.1000E-09  0.0000E+00  0.3141E+16
   -1.237495    2.70134  0.4556E-12  0.1050E-10  0.7810E-15  0.1000E-09  0.0000E+00  0.2769E+16
   -1.306247    2.84420  0.4556E-12  0.2062E-10  0.1498E-14  0.1000E-09  0.0000E+00  0.2404E+16
   -1.374999    2.98500  0.4556E-12  0.4015E-10  0.2851E-14  0.1000E-09  0.0000E+00  0.2052E+16
   -1.443752    3.12351  0.4556E-12  0.7759E-10  0.5384E-14  0.1000E-09  0.0000E+00  0.1714E+16
   -1.512504    3.25944  0.4556E-12  0.1488E-09  0.1009E-13  0.1000E-09  0.0000E+00  0.1391E+16
   -1.581256    3.39253  0.4556E-12  0.2832E-09  0.1879E-13  0.1000E-09  0.0000E+00  0.1086E+16
   -1.650008    3.52252  0.4556E-12  0.5349E-09  0.3471E-13  0.2210E-09  0.0000E+00  0.7993E+15
   -1.718760    3.64912  0.4556E-12  0.1003E-08  0.6365E-13  0.6078E-09  0.0000E+00  0.5332E+15
   -1.787512    3.77202  0.4556E-12  0.1903E-08  0.1181E-12  0.2081E-08  0.0000E+00  0.2892E+15
   -1.856263    3.89099  0.4556E-12  0.3624E-08  0.2203E-12  0.1599E-07  0.0000E+00  0.7037E+14
   -1.925014    3.99697  0.4556E-12  0.4115E-08  0.2514E-12  0.2606E-04  0.0000E+00 -0.1079E+12
   -1.993765    3.99760  0.4556E-12  0.4346E-08  0.2694E-12  0.2676E-04  0.0000E+00 -0.1103E+12
   -2.062516    3.99821  0.4556E-12  0.4545E-08  0.2886E-12  0.2696E-04  0.0000E+00 -0.1151E+12
   -2.131266    3.99881  0.4556E-12  0.4713E-08  0.3098E-12  0.2661E-04  0.0000E+00 -0.1226E+12
   -2.200016    3.99943  0.4556E-12  0.4851E-08  0.3342E-12  0.2569E-04  0.0000E+00 -0.1336E+12
   -2.268766    4.00006  0.4556E-12  0.4958E-08  0.3635E-12  0.2423E-04  0.0000E+00 -0.1500E+12
   -2.337515    4.00074  0.4556E-12  0.5036E-08  0.4021E-12  0.2209E-04  0.0000E+00 -0.1758E+12
   -2.406264    4.00150  0.4556E-12  0.5079E-08  0.4568E-12  0.1916E-04  0.0000E+00 -0.2194E+12
   -2.475012    4.00240  0.4556E-12  0.5072E-08  0.5433E-12  0.1536E-04  0.0000E+00 -0.3037E+12
   -2.543760    4.00356  0.4556E-12  0.4981E-08  0.7047E-12  0.1065E-04  0.0000E+00 -0.5079E+12
   -2.612507    4.00535  0.4556E-12  0.4700E-08  0.1119E-11  0.5334E-05  0.0000E+00 -0.1329E+13
   -2.681253    4.00938  0.4556E-12  0.3722E-08  0.3373E-11  0.9713E-06  0.0000E+00 -0.1707E+14
   -2.749999    4.03839  0.4556E-12  0.0000E+00  0.0000E+00  0.0000E+00  0.0000E+00  0.0000E+00
