 1 - depth, m
 2 - temperature, C
 3 - salinity, kg/kg
 4 - turbulent kinetic energy, m**2/s**2
 5 - dissipation rate, m**2/s**3
 6 - kinematic heat conductance, m**2/s
 7 - modulus of horizontal velocity, m/s
 8 - Richardson number, n/d
   -0.000000   -0.00000  0.6049E-11  0.1219E-13  0.7604E-17  0.1000E-09  0.0000E+00  0.1641E+17
   -0.068746    0.25481  0.7425E-12  0.1219E-13  0.7604E-17  0.1000E-09  0.0000E+00  0.1494E+17
   -0.137492    0.50408  0.5617E-12  0.1219E-13  0.7604E-17  0.1000E-09  0.0000E+00  0.1352E+17
   -0.206238    0.74730  0.5520E-12  0.1219E-13  0.7604E-17  0.1000E-09  0.0000E+00  0.1216E+17
   -0.274986    0.98382  0.5517E-12  0.1219E-13  0.7604E-17  0.1000E-09  0.0000E+00  0.1086E+17
   -0.343734    1.21294  0.5517E-12  0.1219E-13  0.7604E-17  0.1000E-09  0.0000E+00  0.9624E+16
   -0.412482    1.43394  0.5517E-12  0.1219E-13  0.7604E-17  0.1000E-09  0.0000E+00  0.8460E+16
   -0.481231    1.64617  0.5517E-12  0.1219E-13  0.7604E-17  0.1000E-09  0.0000E+00  0.7375E+16
   -0.549980    1.84904  0.5517E-12  0.1219E-13  0.7604E-17  0.1000E-09  0.0000E+00  0.6376E+16
   -0.618730    2.04207  0.5517E-12  0.1219E-13  0.7604E-17  0.1000E-09  0.0000E+00  0.5465E+16
   -0.687480    2.22484  0.5517E-12  0.1219E-13  0.7604E-17  0.1000E-09  0.0000E+00  0.4650E+16
   -0.756231    2.39734  0.5517E-12  0.1219E-13  0.7604E-17  0.1000E-09  0.0000E+00  0.3924E+16
   -0.824982    2.55950  0.5517E-12  0.1219E-13  0.7604E-17  0.1000E-09  0.0000E+00  0.3281E+16
   -0.893733    2.71125  0.5517E-12  0.1219E-13  0.7604E-17  0.1000E-09  0.0000E+00  0.2718E+16
   -0.962484    2.85258  0.5517E-12  0.1219E-13  0.7604E-17  0.1000E-09  0.0000E+00  0.2229E+16
   -1.031236    2.98356  0.5517E-12  0.1219E-13  0.7604E-17  0.1000E-09  0.0000E+00  0.1810E+16
   -1.099987    3.10435  0.5517E-12  0.1219E-13  0.7604E-17  0.1000E-09  0.0000E+00  0.1454E+16
   -1.168739    3.21517  0.5517E-12  0.1219E-13  0.7604E-17  0.1000E-09  0.0000E+00  0.1155E+16
   -1.237491    3.31629  0.5517E-12  0.1219E-13  0.7604E-17  0.1000E-09  0.0000E+00  0.9059E+15
   -1.306243    3.40804  0.5517E-12  0.1219E-13  0.7604E-17  0.1000E-09  0.0000E+00  0.7018E+15
   -1.374995    3.49077  0.5517E-12  0.1219E-13  0.7604E-17  0.1000E-09  0.0000E+00  0.5389E+15
   -1.443747    3.56529  0.5517E-12  0.1275E-13  0.7604E-17  0.1000E-09  0.0000E+00  0.4084E+15
   -1.512499    3.63214  0.5517E-12  0.3773E-13  0.7825E-17  0.1000E-09  0.0000E+00  0.3045E+15
   -1.581251    3.69177  0.5517E-12  0.1097E-12  0.1281E-16  0.1000E-09  0.0000E+00  0.2229E+15
   -1.650003    3.74460  0.5517E-12  0.2578E-12  0.2640E-16  0.1000E-09  0.0000E+00  0.1597E+15
   -1.718755    3.79109  0.5517E-12  0.5635E-12  0.5529E-16  0.1000E-09  0.0000E+00  0.1116E+15
   -1.787506    3.83171  0.5517E-12  0.1229E-11  0.1176E-15  0.1000E-09  0.0000E+00  0.7657E+14
   -1.856258    3.86737  0.5517E-12  0.2697E-11  0.2529E-15  0.1000E-09  0.0000E+00  0.4991E+14
   -1.925009    3.89807  0.5517E-12  0.5926E-11  0.5449E-15  0.1023E-09  0.0000E+00  0.3033E+14
   -1.993760    3.92371  0.5517E-12  0.1302E-10  0.1176E-14  0.3504E-09  0.0000E+00  0.1685E+14
   -2.062510    3.94424  0.5517E-12  0.2799E-10  0.2488E-14  0.1326E-08  0.0000E+00  0.9308E+13
   -2.131260    3.96217  0.5517E-12  0.5943E-10  0.5216E-14  0.6288E-08  0.0000E+00  0.4001E+13
   -2.200010    3.97774  0.5517E-12  0.1232E-09  0.1078E-13  0.6793E-07  0.0000E+00  0.5773E+12
   -2.268759    3.98807  0.5517E-12  0.2334E-09  0.2152E-13  0.5908E-06  0.0000E+00 -0.1738E+12
   -2.337508    3.99135  0.5517E-12  0.3586E-09  0.3849E-13  0.9174E-06  0.0000E+00 -0.2732E+12
   -2.406257    3.99407  0.5517E-12  0.5018E-09  0.6667E-13  0.1078E-05  0.0000E+00 -0.4306E+12
   -2.475005    3.99704  0.5517E-12  0.6734E-09  0.1192E-12  0.1096E-05  0.0000E+00 -0.7692E+12
   -2.543752    4.00092  0.5517E-12  0.8941E-09  0.2340E-12  0.9729E-06  0.0000E+00 -0.1667E+13
   -2.612499    4.00695  0.5517E-12  0.1228E-08  0.5597E-12  0.7605E-06  0.0000E+00 -0.5027E+13
   -2.681245    4.01899  0.5517E-12  0.1899E-08  0.1994E-11  0.5724E-06  0.0000E+00 -0.2875E+14
   -2.749990    4.05516  0.5517E-12  0.0000E+00  0.0000E+00  0.0000E+00  0.0000E+00  0.0000E+00
