 1 - depth, m
 2 - temperature, C
 3 - salinity, kg/kg
 4 - turbulent kinetic energy, m**2/s**2
 5 - dissipation rate, m**2/s**3
 6 - kinematic heat conductance, m**2/s
 7 - modulus of horizontal velocity, m/s
 8 - Richardson number, n/d
   -0.000000    5.33522  0.3611E-12  0.1458E-04  0.6269E-06  0.3353E-04  0.2816E-01 -0.7154E-02
   -0.068746    5.37330  0.3611E-12  0.1373E-04  0.2314E-06  0.8131E-04  0.1899E-01 -0.1836E-01
   -0.137492    5.38842  0.3611E-12  0.1310E-04  0.1358E-06  0.1279E-03  0.1541E-01 -0.3024E-01
   -0.206239    5.39775  0.3611E-12  0.1257E-04  0.9396E-07  0.1736E-03  0.1320E-01 -0.4280E-01
   -0.274987    5.40443  0.3611E-12  0.1210E-04  0.7074E-07  0.2188E-03  0.1163E-01 -0.5599E-01
   -0.343735    5.40957  0.3611E-12  0.1170E-04  0.5609E-07  0.2637E-03  0.1041E-01 -0.6980E-01
   -0.412483    5.41372  0.3611E-12  0.1133E-04  0.4607E-07  0.3085E-03  0.9433E-02 -0.8419E-01
   -0.481233    5.41718  0.3611E-12  0.1101E-04  0.3884E-07  0.3533E-03  0.8616E-02 -0.9902E-01
   -0.549982    5.42012  0.3611E-12  0.1072E-04  0.3340E-07  0.3988E-03  0.7918E-02 -0.1119E+00
   -0.618732    5.42265  0.3611E-12  0.1045E-04  0.2920E-07  0.4513E-03  0.7311E-02 -0.8788E-01
   -0.687482    5.42485  0.3611E-12  0.1021E-04  0.2588E-07  0.5456E-03  0.6777E-02  0.4560E+02
   -0.756233    5.42669  0.3611E-12  0.9998E-05  0.2323E-07  0.6679E-03  0.6305E-02  0.4862E+02
   -0.824984    5.42823  0.3611E-12  0.9803E-05  0.2107E-07  0.7732E-03  0.5881E-02  0.3820E+02
   -0.893735    5.42956  0.3611E-12  0.9625E-05  0.1928E-07  0.8698E-03  0.5494E-02  0.4504E+02
   -0.962487    5.43072  0.3611E-12  0.9460E-05  0.1777E-07  0.9733E-03  0.5135E-02  0.3060E+02
   -1.031239    5.43173  0.3611E-12  0.9307E-05  0.1650E-07  0.1086E-02  0.4801E-02  0.5724E+02
   -1.099991    5.43260  0.3611E-12  0.9163E-05  0.1541E-07  0.1227E-02  0.4485E-02  0.5894E+02
   -1.168743    5.43334  0.3611E-12  0.9026E-05  0.1447E-07  0.1338E-02  0.4185E-02  0.6517E+02
   -1.237495    5.43400  0.3611E-12  0.8892E-05  0.1366E-07  0.1425E-02  0.3896E-02  0.1135E+03
   -1.306247    5.43459  0.3611E-12  0.8759E-05  0.1293E-07  0.1494E-02  0.3616E-02  0.5006E+02
   -1.374999    5.43513  0.3611E-12  0.8625E-05  0.1229E-07  0.1549E-02  0.3343E-02  0.6791E+02
   -1.443751    5.43563  0.3611E-12  0.8489E-05  0.1172E-07  0.1589E-02  0.3075E-02  0.1190E+03
   -1.512504    5.43610  0.3611E-12  0.8346E-05  0.1120E-07  0.1611E-02  0.2810E-02  0.2605E+03
   -1.581256    5.43656  0.3611E-12  0.8196E-05  0.1074E-07  0.1606E-02  0.2548E-02  0.2534E+04
   -1.650008    5.43701  0.3611E-12  0.8036E-05  0.1031E-07  0.1604E-02  0.2287E-02  0.1681E+05
   -1.718760    5.43744  0.3611E-12  0.7863E-05  0.9908E-08  0.1574E-02  0.2028E-02  0.7242E+04
   -1.787512    5.43788  0.3611E-12  0.7669E-05  0.9521E-08  0.1610E-02  0.1766E-02  0.2104E+02
   -1.856263    5.43830  0.3611E-12  0.7460E-05  0.9159E-08  0.1624E-02  0.1539E-02  0.5094E+01
   -1.925014    5.43871  0.3611E-12  0.7240E-05  0.8832E-08  0.1646E-02  0.1341E-02  0.2360E+01
   -1.993765    5.43911  0.3611E-12  0.7016E-05  0.8553E-08  0.1671E-02  0.1171E-02  0.1506E+01
   -2.062516    5.43950  0.3611E-12  0.6799E-05  0.8347E-08  0.1679E-02  0.1022E-02  0.1187E+01
   -2.131266    5.43988  0.3611E-12  0.6594E-05  0.8220E-08  0.1658E-02  0.8880E-03  0.9519E+00
   -2.200016    5.44026  0.3611E-12  0.6402E-05  0.8183E-08  0.1619E-02  0.7658E-03  0.7714E+00
   -2.268766    5.44064  0.3611E-12  0.6225E-05  0.8247E-08  0.1525E-02  0.6553E-03  0.6050E+00
   -2.337515    5.44104  0.3611E-12  0.6061E-05  0.8430E-08  0.1356E-02  0.5603E-03  0.8454E+00
   -2.406264    5.44149  0.3611E-12  0.5905E-05  0.8768E-08  0.1148E-02  0.4800E-03  0.2695E+03
   -2.475012    5.44201  0.3611E-12  0.5742E-05  0.9372E-08  0.9738E-03  0.4107E-03  0.3632E+03
   -2.543759    5.44264  0.3611E-12  0.5534E-05  0.1064E-07  0.7240E-03  0.3463E-03  0.2429E+03
   -2.612506    5.44352  0.3611E-12  0.5187E-05  0.1418E-07  0.2975E-03  0.2758E-03  0.1528E+04
   -2.681253    5.44542  0.3611E-12  0.3163E-05  0.5310E-07  0.2365E-04  0.1931E-03 -0.5602E+05
   -2.749998    5.46892  0.3611E-12  0.0000E+00  0.0000E+00  0.0000E+00  0.1929E-03  0.0000E+00
