 1 - depth, m
 2 - temperature, C
 3 - salinity, kg/kg
 4 - turbulent kinetic energy, m**2/s**2
 5 - dissipation rate, m**2/s**3
 6 - kinematic heat conductance, m**2/s
 7 - modulus of horizontal velocity, m/s
 8 - Richardson number, n/d
   -0.000000   -0.00000  0.1930E-11  0.1219E-13  0.7603E-17  0.1000E-09  0.0000E+00  0.1033E+17
   -0.068746    0.15834  0.1036E-11  0.1219E-13  0.7603E-17  0.1000E-09  0.0000E+00  0.9811E+16
   -0.137492    0.31546  0.6742E-12  0.1219E-13  0.7603E-17  0.1000E-09  0.0000E+00  0.9302E+16
   -0.206239    0.47132  0.5436E-12  0.1219E-13  0.7603E-17  0.1000E-09  0.0000E+00  0.8802E+16
   -0.274986    0.62587  0.5021E-12  0.1219E-13  0.7603E-17  0.1000E-09  0.0000E+00  0.8310E+16
   -0.343735    0.77902  0.4904E-12  0.1219E-13  0.7603E-17  0.1000E-09  0.0000E+00  0.7828E+16
   -0.412483    0.93069  0.4867E-12  0.1219E-13  0.7603E-17  0.1000E-09  0.0000E+00  0.7355E+16
   -0.481232    1.08079  0.4843E-12  0.1219E-13  0.7603E-17  0.1000E-09  0.0000E+00  0.6893E+16
   -0.549982    1.22924  0.4815E-12  0.1219E-13  0.7603E-17  0.1000E-09  0.0000E+00  0.6441E+16
   -0.618732    1.37595  0.4778E-12  0.1219E-13  0.7603E-17  0.1000E-09  0.0000E+00  0.6001E+16
   -0.687482    1.52082  0.4731E-12  0.1219E-13  0.7603E-17  0.1000E-09  0.0000E+00  0.5578E+16
   -0.756233    1.66394  0.4679E-12  0.1219E-13  0.7603E-17  0.1000E-09  0.0000E+00  0.5170E+16
   -0.824984    1.80529  0.4630E-12  0.1219E-13  0.7603E-17  0.1000E-09  0.0000E+00  0.4772E+16
   -0.893735    1.94476  0.4593E-12  0.1219E-13  0.7603E-17  0.1000E-09  0.0000E+00  0.4386E+16
   -0.962486    2.08225  0.4571E-12  0.1219E-13  0.7603E-17  0.1000E-09  0.0000E+00  0.4011E+16
   -1.031238    2.21763  0.4561E-12  0.1219E-13  0.7603E-17  0.1000E-09  0.0000E+00  0.3648E+16
   -1.099990    2.35076  0.4557E-12  0.1219E-13  0.7603E-17  0.1000E-09  0.0000E+00  0.3298E+16
   -1.168742    2.48151  0.4556E-12  0.1219E-13  0.7603E-17  0.1000E-09  0.0000E+00  0.2961E+16
   -1.237494    2.60972  0.4556E-12  0.3596E-13  0.7603E-17  0.1000E-09  0.0000E+00  0.2638E+16
   -1.306246    2.73526  0.4556E-12  0.1078E-12  0.1343E-16  0.1000E-09  0.0000E+00  0.2330E+16
   -1.374998    2.85796  0.4556E-12  0.2647E-12  0.2913E-16  0.1000E-09  0.0000E+00  0.2038E+16
   -1.443751    2.97768  0.4556E-12  0.6056E-12  0.6374E-16  0.1000E-09  0.0000E+00  0.1762E+16
   -1.512503    3.09428  0.4556E-12  0.1349E-11  0.1379E-15  0.1000E-09  0.0000E+00  0.1502E+16
   -1.581255    3.20758  0.4556E-12  0.2965E-11  0.2952E-15  0.1000E-09  0.0000E+00  0.1260E+16
   -1.650007    3.31740  0.4556E-12  0.6446E-11  0.6258E-15  0.1000E-09  0.0000E+00  0.1034E+16
   -1.718759    3.42352  0.4556E-12  0.1388E-10  0.1315E-14  0.1000E-09  0.0000E+00  0.8257E+15
   -1.787510    3.52570  0.4556E-12  0.3031E-10  0.2800E-14  0.1000E-09  0.0000E+00  0.6301E+15
   -1.856262    3.62266  0.4556E-12  0.6679E-10  0.6020E-14  0.1000E-09  0.0000E+00  0.4555E+15
   -1.925013    3.71360  0.4556E-12  0.1470E-09  0.1294E-13  0.2162E-09  0.0000E+00  0.3043E+15
   -1.993764    3.79747  0.4556E-12  0.3230E-09  0.2776E-13  0.7819E-09  0.0000E+00  0.1805E+15
   -2.062515    3.87372  0.4556E-12  0.6915E-09  0.5809E-13  0.3419E-08  0.0000E+00  0.8629E+14
   -2.131265    3.94540  0.4556E-12  0.1430E-08  0.1178E-12  0.4923E-07  0.0000E+00  0.1205E+14
   -2.200015    3.99811  0.4556E-12  0.1966E-08  0.1633E-12  0.9461E-05  0.0000E+00 -0.2026E+12
   -2.268765    3.99916  0.4556E-12  0.2205E-08  0.1906E-12  0.9839E-05  0.0000E+00 -0.2159E+12
   -2.337514    4.00019  0.4556E-12  0.2398E-08  0.2228E-12  0.9622E-05  0.0000E+00 -0.2456E+12
   -2.406262    4.00127  0.4556E-12  0.2550E-08  0.2655E-12  0.8796E-05  0.0000E+00 -0.3029E+12
   -2.475010    4.00251  0.4556E-12  0.2658E-08  0.3304E-12  0.7331E-05  0.0000E+00 -0.4217E+12
   -2.543758    4.00410  0.4556E-12  0.2708E-08  0.4497E-12  0.5227E-05  0.0000E+00 -0.7251E+12
   -2.612505    4.00653  0.4556E-12  0.2653E-08  0.7525E-12  0.2714E-05  0.0000E+00 -0.1984E+13
   -2.681251    4.01204  0.4556E-12  0.2384E-08  0.2176E-11  0.7001E-06  0.0000E+00 -0.1936E+14
   -2.749997    4.04230  0.4556E-12  0.0000E+00  0.0000E+00  0.0000E+00  0.0000E+00  0.0000E+00
