 1 - depth, m
 2 - temperature, C
 3 - salinity, kg/kg
 4 - turbulent kinetic energy, m**2/s**2
 5 - dissipation rate, m**2/s**3
 6 - kinematic heat conductance, m**2/s
 7 - modulus of horizontal velocity, m/s
 8 - Richardson number, n/d
   -0.000000   -0.00000  0.1404E-11  0.8123E-10  0.4851E-13  0.1000E-09  0.0000E+00  0.7124E+16
   -0.068746    0.10845  0.9438E-12  0.3860E-09  0.3193E-13  0.1000E-09  0.0000E+00  0.6851E+16
   -0.137492    0.21587  0.8272E-12  0.8915E-09  0.3069E-13  0.1000E-09  0.0000E+00  0.6561E+16
   -0.206239    0.32190  0.7951E-12  0.1588E-08  0.3552E-13  0.1000E-09  0.0000E+00  0.6256E+16
   -0.274986    0.42613  0.7824E-12  0.2505E-08  0.4487E-13  0.1000E-09  0.0000E+00  0.5936E+16
   -0.343734    0.52811  0.7736E-12  0.3697E-08  0.5879E-13  0.1000E-09  0.0000E+00  0.5603E+16
   -0.412483    0.62737  0.7665E-12  0.5250E-08  0.7799E-13  0.1000E-09  0.0000E+00  0.5258E+16
   -0.481232    0.72343  0.7612E-12  0.7280E-08  0.1037E-12  0.1076E-09  0.0000E+00  0.4904E+16
   -0.549981    0.81580  0.7578E-12  0.9945E-08  0.1378E-12  0.1544E-09  0.0000E+00  0.4543E+16
   -0.618731    0.90396  0.7560E-12  0.1346E-07  0.1826E-12  0.2225E-09  0.0000E+00  0.4177E+16
   -0.687482    0.98743  0.7551E-12  0.1809E-07  0.2413E-12  0.3220E-09  0.0000E+00  0.3815E+16
   -0.756232    1.06586  0.7545E-12  0.2421E-07  0.3182E-12  0.4687E-09  0.0000E+00  0.3455E+16
   -0.824983    1.13885  0.7535E-12  0.3229E-07  0.4185E-12  0.6876E-09  0.0000E+00  0.3098E+16
   -0.893734    1.20600  0.7515E-12  0.4296E-07  0.5493E-12  0.1019E-08  0.0000E+00  0.2744E+16
   -0.962486    1.26694  0.7484E-12  0.5703E-07  0.7192E-12  0.1528E-08  0.0000E+00  0.2396E+16
   -1.031237    1.32134  0.7450E-12  0.7554E-07  0.9397E-12  0.2327E-08  0.0000E+00  0.2055E+16
   -1.099989    1.36894  0.7421E-12  0.9982E-07  0.1225E-11  0.3621E-08  0.0000E+00  0.1721E+16
   -1.168741    1.40951  0.7402E-12  0.1316E-06  0.1591E-11  0.5803E-08  0.0000E+00  0.1396E+16
   -1.237493    1.44290  0.7391E-12  0.1728E-06  0.2061E-11  0.9721E-08  0.0000E+00  0.1079E+16
   -1.306245    1.46904  0.7386E-12  0.2259E-06  0.2655E-11  0.1752E-07  0.0000E+00  0.7715E+15
   -1.374998    1.48790  0.7383E-12  0.2928E-06  0.3395E-11  0.3635E-07  0.0000E+00  0.4758E+15
   -1.443750    1.49960  0.7382E-12  0.3707E-06  0.4249E-11  0.1125E-06  0.0000E+00  0.1932E+15
   -1.512502    1.50437  0.7382E-12  0.3708E-06  0.4250E-11  0.1899E-02  0.0000E+00  0.9428E+10
   -1.581254    1.50437  0.7382E-12  0.3709E-06  0.4251E-11  0.9948E-02  0.0000E+00 -0.1697E+10
   -1.650006    1.50437  0.7382E-12  0.3709E-06  0.4251E-11  0.9901E-02  0.0000E+00 -0.5041E+10
   -1.718758    1.50437  0.7382E-12  0.3709E-06  0.4252E-11  0.9891E-02  0.0000E+00 -0.8249E+10
   -1.787509    1.50437  0.7382E-12  0.3709E-06  0.4252E-11  0.9890E-02  0.0000E+00 -0.8524E+10
   -1.856261    1.50437  0.7382E-12  0.3709E-06  0.4252E-11  0.9890E-02  0.0000E+00 -0.8466E+10
   -1.925012    1.50437  0.7382E-12  0.3710E-06  0.4252E-11  0.9891E-02  0.0000E+00 -0.8011E+10
   -1.993763    1.50437  0.7382E-12  0.3710E-06  0.4253E-11  0.9891E-02  0.0000E+00 -0.7833E+10
   -2.062513    1.50437  0.7382E-12  0.3710E-06  0.4253E-11  0.9890E-02  0.0000E+00 -0.8435E+10
   -2.131264    1.50437  0.7382E-12  0.3710E-06  0.4253E-11  0.9889E-02  0.0000E+00 -0.8785E+10
   -2.200014    1.50437  0.7382E-12  0.3710E-06  0.4253E-11  0.9889E-02  0.0000E+00 -0.8904E+10
   -2.268763    1.50437  0.7382E-12  0.3710E-06  0.4253E-11  0.9893E-02  0.0000E+00 -0.7036E+10
   -2.337512    1.50437  0.7382E-12  0.3709E-06  0.4253E-11  0.9928E-02  0.0000E+00 -0.3320E+10
   -2.406261    1.50437  0.7382E-12  0.3709E-06  0.4254E-11  0.5798E-06  0.0000E+00  0.4411E+14
   -2.475009    1.50546  0.7382E-12  0.3042E-06  0.4931E-11  0.3246E-07  0.0000E+00  0.7737E+15
   -2.543756    1.52467  0.7382E-12  0.2021E-06  0.6757E-11  0.1737E-07  0.0000E+00  0.1980E+16
   -2.612503    1.57455  0.7382E-12  0.1007E-06  0.1090E-10  0.1227E-07  0.0000E+00  0.4523E+16
   -2.681249    1.69270  0.7382E-12  0.1917E-07  0.2569E-10  0.1027E-07  0.0000E+00  0.1265E+17
   -2.749995    2.06306  0.7382E-12  0.0000E+00  0.0000E+00  0.0000E+00  0.0000E+00  0.0000E+00
