 1 - depth, m
 2 - temperature, C
 3 - salinity, kg/kg
 4 - turbulent kinetic energy, m**2/s**2
 5 - dissipation rate, m**2/s**3
 6 - kinematic heat conductance, m**2/s
 7 - modulus of horizontal velocity, m/s
 8 - Richardson number, n/d
   -0.000000   -0.00000  0.4655E-12  0.3288E-05  0.5781E-07  0.1672E-04  0.1740E-01  0.2690E-01
   -0.068745    0.00946  0.4652E-12  0.2784E-05  0.2513E-07  0.2588E-04  0.1352E-01  0.5644E-01
   -0.137490    0.01503  0.4650E-12  0.2303E-05  0.1454E-07  0.2866E-04  0.1150E-01  0.9179E-01
   -0.206236    0.01963  0.4649E-12  0.1860E-05  0.9340E-08  0.2690E-04  0.1007E-01  0.1367E+00
   -0.274983    0.02412  0.4647E-12  0.1454E-05  0.6283E-08  0.2203E-04  0.8916E-02  0.1985E+00
   -0.343730    0.02922  0.4646E-12  0.1077E-05  0.4297E-08  0.1528E-04  0.7898E-02  0.2908E+00
   -0.412478    0.03638  0.4644E-12  0.7189E-06  0.2910E-08  0.8086E-05  0.6906E-02  0.4482E+00
   -0.481226    0.05372  0.4640E-12  0.3670E-06  0.1710E-08  0.2714E-05  0.5712E-02  0.1362E+01
   -0.549974    0.16369  0.4615E-12  0.1032E-06  0.6816E-09  0.3200E-06  0.3969E-02  0.5101E+01
   -0.618723    0.36765  0.4582E-12  0.6537E-08  0.4823E-10  0.9541E-08  0.2045E-02  0.1791E+02
   -0.687473    0.57086  0.4557E-12  0.1865E-09  0.1350E-11  0.5809E-09  0.8454E-03  0.6090E+02
   -0.756223    0.68240  0.4556E-12  0.5093E-11  0.3331E-13  0.1065E-09  0.3429E-03  0.2206E+03
   -0.824973    0.74751  0.4556E-12  0.4710E-12  0.1115E-14  0.1000E-09  0.1391E-03  0.8833E+03
   -0.893723    0.79113  0.4556E-12  0.1172E-11  0.2209E-15  0.1000E-09  0.5648E-04  0.3884E+04
   -0.962473    0.82395  0.4556E-12  0.3019E-11  0.3345E-15  0.1000E-09  0.2295E-04  0.1823E+05
   -1.031224    0.85083  0.4556E-12  0.6770E-11  0.6776E-15  0.1000E-09  0.9336E-05  0.8899E+05
   -1.099975    0.87416  0.4556E-12  0.1434E-10  0.1380E-14  0.1000E-09  0.3798E-05  0.4474E+06
   -1.168726    0.89532  0.4556E-12  0.2953E-10  0.2766E-14  0.1000E-09  0.1545E-05  0.2332E+07
   -1.237477    0.91547  0.4556E-12  0.5966E-10  0.5456E-14  0.1000E-09  0.6286E-06  0.1297E+08
   -1.306229    0.93616  0.4556E-12  0.1186E-09  0.1060E-13  0.1042E-09  0.2555E-06  0.8080E+08
   -1.374980    0.95996  0.4556E-12  0.2321E-09  0.2030E-13  0.1227E-09  0.1037E-06  0.6069E+09
   -1.443731    0.99228  0.4556E-12  0.4477E-09  0.3838E-13  0.1409E-09  0.4207E-07  0.5127E+10
   -1.512483    1.04042  0.4556E-12  0.8519E-09  0.7171E-13  0.1566E-09  0.1703E-07  0.4506E+11
   -1.581234    1.11447  0.4556E-12  0.1600E-08  0.1326E-12  0.1742E-09  0.6853E-08  0.3799E+12
   -1.649985    1.22722  0.4556E-12  0.2971E-08  0.2430E-12  0.2034E-09  0.2667E-08  0.2557E+13
   -1.718736    1.39241  0.4556E-12  0.5458E-08  0.4422E-12  0.2674E-09  0.7913E-09  0.1993E+14
   -1.787487    1.61574  0.4556E-12  0.1014E-07  0.8165E-12  0.7636E-09  0.5096E-10  0.2839E+16
   -1.856237    1.76839  0.4556E-12  0.1900E-07  0.1530E-11  0.2915E-08  0.3036E-11  0.2934E+16
   -1.924987    1.85212  0.4556E-12  0.2918E-07  0.2457E-11  0.7448E-05  0.1589E-12  0.4343E+15
   -1.993737    1.86533  0.4556E-12  0.2970E-07  0.2512E-11  0.2202E-03  0.1310E-13 -0.1948E+12
   -2.062487    1.86532  0.4556E-12  0.2926E-07  0.2467E-11  0.1415E-07  0.1024E-13  0.1250E+16
   -2.131237    1.90300  0.4556E-12  0.1588E-07  0.1364E-11  0.1766E-08  0.7934E-15  0.4079E+16
   -2.199986    2.02899  0.4556E-12  0.8348E-08  0.7803E-12  0.5896E-09  0.5409E-16  0.6768E+16
   -2.268734    2.25870  0.4556E-12  0.4283E-08  0.5734E-12  0.3607E-09  0.2532E-17  0.8077E+16
   -2.337482    2.58520  0.4556E-12  0.2966E-08  0.1051E-11  0.6772E-09  0.9735E-19  0.8214E+16
   -2.406230    3.04026  0.4556E-12  0.8408E-08  0.4812E-11  0.8787E-08  0.3200E-20  0.5802E+16
   -2.474977    3.67306  0.4556E-12  0.2052E-07  0.1308E-10  0.9783E-05  0.8544E-22  0.1776E+16
   -2.543724    4.07984  0.4556E-12  0.3368E-07  0.2451E-10  0.1854E-04  0.4351E-23  0.9151E+13
   -2.612470    4.12992  0.4556E-12  0.3902E-07  0.3689E-10  0.1518E-04  0.5265E-24 -0.2456E+14
   -2.681215    4.14156  0.4556E-12  0.3303E-07  0.8269E-10  0.3432E-05  0.4598E-25 -0.1372E+15
   -2.749960    4.19282  0.4556E-12  0.0000E+00  0.0000E+00  0.0000E+00  0.4587E-25  0.0000E+00
