 1 - depth, m
 2 - temperature, C
 3 - salinity, kg/kg
 4 - turbulent kinetic energy, m**2/s**2
 5 - dissipation rate, m**2/s**3
 6 - kinematic heat conductance, m**2/s
 7 - modulus of horizontal velocity, m/s
 8 - Richardson number, n/d
   -0.000000   -0.00000  0.1355E-11  0.1219E-13  0.7603E-17  0.1000E-09  0.0000E+00  0.7795E+16
   -0.068746    0.11883  0.7328E-12  0.1219E-13  0.7603E-17  0.1000E-09  0.0000E+00  0.7479E+16
   -0.137492    0.23662  0.4645E-12  0.1219E-13  0.7603E-17  0.1000E-09  0.0000E+00  0.7192E+16
   -0.206239    0.35372  0.3901E-12  0.1219E-13  0.7603E-17  0.1000E-09  0.0000E+00  0.6932E+16
   -0.274987    0.47052  0.3745E-12  0.1219E-13  0.7603E-17  0.1000E-09  0.0000E+00  0.6697E+16
   -0.343735    0.58740  0.3718E-12  0.1219E-13  0.7603E-17  0.1000E-09  0.0000E+00  0.6484E+16
   -0.412483    0.70477  0.3714E-12  0.1219E-13  0.7603E-17  0.1000E-09  0.0000E+00  0.6289E+16
   -0.481232    0.82301  0.3714E-12  0.1219E-13  0.7603E-17  0.1000E-09  0.0000E+00  0.6109E+16
   -0.549982    0.94250  0.3714E-12  0.1219E-13  0.7603E-17  0.1000E-09  0.0000E+00  0.5940E+16
   -0.618732    1.06361  0.3714E-12  0.1219E-13  0.7603E-17  0.1000E-09  0.0000E+00  0.5778E+16
   -0.687482    1.18670  0.3714E-12  0.1219E-13  0.7603E-17  0.1000E-09  0.0000E+00  0.5633E+16
   -0.756233    1.31241  0.3714E-12  0.1219E-13  0.7603E-17  0.1000E-09  0.0000E+00  0.5493E+16
   -0.824984    1.44124  0.3714E-12  0.2010E-13  0.7603E-17  0.1000E-09  0.0000E+00  0.5343E+16
   -0.893735    1.57343  0.3714E-12  0.6354E-13  0.8939E-17  0.1000E-09  0.0000E+00  0.5180E+16
   -0.962487    1.70921  0.3713E-12  0.1603E-12  0.1671E-16  0.1000E-09  0.0000E+00  0.4999E+16
   -1.031239    1.84874  0.3711E-12  0.3564E-12  0.3454E-16  0.1000E-09  0.0000E+00  0.4797E+16
   -1.099990    1.99213  0.3706E-12  0.7590E-12  0.7169E-16  0.1000E-09  0.0000E+00  0.4569E+16
   -1.168743    2.13940  0.3697E-12  0.1594E-11  0.1482E-15  0.1000E-09  0.0000E+00  0.4315E+16
   -1.237495    2.29056  0.3680E-12  0.3331E-11  0.3059E-15  0.1000E-09  0.0000E+00  0.4031E+16
   -1.306247    2.44552  0.3657E-12  0.6948E-11  0.6305E-15  0.1000E-09  0.0000E+00  0.3718E+16
   -1.374999    2.60417  0.3632E-12  0.1448E-10  0.1299E-14  0.1000E-09  0.0000E+00  0.3378E+16
   -1.443751    2.76654  0.3611E-12  0.3018E-10  0.2676E-14  0.1000E-09  0.0000E+00  0.3009E+16
   -1.512504    2.93246  0.3598E-12  0.6289E-10  0.5512E-14  0.1000E-09  0.0000E+00  0.2608E+16
   -1.581256    3.10157  0.3593E-12  0.1310E-09  0.1135E-13  0.1000E-09  0.0000E+00  0.2175E+16
   -1.650008    3.27319  0.3590E-12  0.2730E-09  0.2335E-13  0.1008E-09  0.0000E+00  0.1714E+16
   -1.718760    3.44603  0.3588E-12  0.5685E-09  0.4799E-13  0.1998E-09  0.0000E+00  0.1230E+16
   -1.787511    3.61751  0.3586E-12  0.1209E-08  0.1007E-12  0.6910E-09  0.0000E+00  0.7435E+15
   -1.856263    3.78275  0.3584E-12  0.2611E-08  0.2143E-12  0.3533E-08  0.0000E+00  0.3008E+15
   -1.925014    3.93148  0.3583E-12  0.5374E-08  0.4372E-12  0.1274E-06  0.0000E+00  0.2202E+14
   -1.993765    4.00561  0.3583E-12  0.6182E-08  0.5063E-12  0.3057E-04  0.0000E+00 -0.1891E+12
   -2.062516    4.00627  0.3583E-12  0.6557E-08  0.5456E-12  0.3167E-04  0.0000E+00 -0.1961E+12
   -2.131266    4.00692  0.3583E-12  0.6880E-08  0.5885E-12  0.3205E-04  0.0000E+00 -0.2079E+12
   -2.200016    4.00759  0.3583E-12  0.7153E-08  0.6365E-12  0.3169E-04  0.0000E+00 -0.2255E+12
   -2.268766    4.00829  0.3583E-12  0.7377E-08  0.6928E-12  0.3049E-04  0.0000E+00 -0.2512E+12
   -2.337515    4.00905  0.3583E-12  0.7555E-08  0.7646E-12  0.2834E-04  0.0000E+00 -0.2908E+12
   -2.406263    4.00989  0.3583E-12  0.7678E-08  0.8630E-12  0.2511E-04  0.0000E+00 -0.3558E+12
   -2.475012    4.01087  0.3583E-12  0.7727E-08  0.1013E-11  0.2067E-04  0.0000E+00 -0.4764E+12
   -2.543759    4.01213  0.3583E-12  0.7654E-08  0.1280E-11  0.1488E-04  0.0000E+00 -0.7518E+12
   -2.612506    4.01399  0.3583E-12  0.7307E-08  0.1930E-11  0.7901E-05  0.0000E+00 -0.1750E+13
   -2.681253    4.01787  0.3583E-12  0.5744E-08  0.5570E-11  0.1339E-05  0.0000E+00 -0.1889E+14
   -2.749998    4.04476  0.3583E-12  0.0000E+00  0.0000E+00  0.0000E+00  0.0000E+00  0.0000E+00
