 1 - depth, m
 2 - temperature, C
 3 - salinity, kg/kg
 4 - turbulent kinetic energy, m**2/s**2
 5 - dissipation rate, m**2/s**3
 6 - kinematic heat conductance, m**2/s
 7 - modulus of horizontal velocity, m/s
 8 - Richardson number, n/d
   -0.000000   -0.00000  0.2042E-11  0.1219E-13  0.7603E-17  0.1000E-09  0.0000E+00  0.1013E+17
   -0.068746    0.15514  0.1081E-11  0.1219E-13  0.7603E-17  0.1000E-09  0.0000E+00  0.9621E+16
   -0.137492    0.30899  0.7039E-12  0.1219E-13  0.7603E-17  0.1000E-09  0.0000E+00  0.9120E+16
   -0.206239    0.46143  0.5584E-12  0.1219E-13  0.7603E-17  0.1000E-09  0.0000E+00  0.8627E+16
   -0.274987    0.61235  0.5079E-12  0.1219E-13  0.7603E-17  0.1000E-09  0.0000E+00  0.8143E+16
   -0.343735    0.76168  0.4919E-12  0.1219E-13  0.7603E-17  0.1000E-09  0.0000E+00  0.7670E+16
   -0.412483    0.90933  0.4864E-12  0.1219E-13  0.7603E-17  0.1000E-09  0.0000E+00  0.7209E+16
   -0.481232    1.05524  0.4833E-12  0.1219E-13  0.7603E-17  0.1000E-09  0.0000E+00  0.6759E+16
   -0.549982    1.19932  0.4800E-12  0.1219E-13  0.7603E-17  0.1000E-09  0.0000E+00  0.6320E+16
   -0.618732    1.34149  0.4761E-12  0.1219E-13  0.7603E-17  0.1000E-09  0.0000E+00  0.5894E+16
   -0.687482    1.48167  0.4714E-12  0.1219E-13  0.7603E-17  0.1000E-09  0.0000E+00  0.5484E+16
   -0.756233    1.61989  0.4666E-12  0.1219E-13  0.7603E-17  0.1000E-09  0.0000E+00  0.5090E+16
   -0.824984    1.75612  0.4623E-12  0.1219E-13  0.7603E-17  0.1000E-09  0.0000E+00  0.4706E+16
   -0.893735    1.89026  0.4591E-12  0.1219E-13  0.7603E-17  0.1000E-09  0.0000E+00  0.4335E+16
   -0.962487    2.02220  0.4571E-12  0.1219E-13  0.7603E-17  0.1000E-09  0.0000E+00  0.3976E+16
   -1.031238    2.15182  0.4562E-12  0.1219E-13  0.7603E-17  0.1000E-09  0.0000E+00  0.3630E+16
   -1.099990    2.27902  0.4558E-12  0.1219E-13  0.7603E-17  0.1000E-09  0.0000E+00  0.3297E+16
   -1.168742    2.40366  0.4557E-12  0.1219E-13  0.7603E-17  0.1000E-09  0.0000E+00  0.2979E+16
   -1.237494    2.52563  0.4556E-12  0.1219E-13  0.7603E-17  0.1000E-09  0.0000E+00  0.2675E+16
   -1.306246    2.64481  0.4556E-12  0.1219E-13  0.7603E-17  0.1000E-09  0.0000E+00  0.2386E+16
   -1.374999    2.76107  0.4556E-12  0.1219E-13  0.7603E-17  0.1000E-09  0.0000E+00  0.2112E+16
   -1.443751    2.87432  0.4556E-12  0.1219E-13  0.7603E-17  0.1000E-09  0.0000E+00  0.1854E+16
   -1.512503    2.98442  0.4556E-12  0.1223E-13  0.7603E-17  0.1000E-09  0.0000E+00  0.1612E+16
   -1.581255    3.09127  0.4556E-12  0.5559E-13  0.1033E-16  0.1000E-09  0.0000E+00  0.1385E+16
   -1.650007    3.19474  0.4556E-12  0.1638E-12  0.2435E-16  0.1000E-09  0.0000E+00  0.1175E+16
   -1.718759    3.29471  0.4556E-12  0.4245E-12  0.5954E-16  0.1000E-09  0.0000E+00  0.9810E+15
   -1.787511    3.39106  0.4556E-12  0.1086E-11  0.1472E-15  0.1000E-09  0.0000E+00  0.7968E+15
   -1.856262    3.48284  0.4556E-12  0.2772E-11  0.3649E-15  0.1000E-09  0.0000E+00  0.6289E+15
   -1.925013    3.56946  0.4556E-12  0.7034E-11  0.8999E-15  0.1000E-09  0.0000E+00  0.4787E+15
   -1.993764    3.65014  0.4556E-12  0.1775E-10  0.2208E-14  0.1000E-09  0.0000E+00  0.3502E+15
   -2.062515    3.72455  0.4556E-12  0.4351E-10  0.5269E-14  0.1064E-09  0.0000E+00  0.2552E+15
   -2.131265    3.79644  0.4556E-12  0.1052E-09  0.1241E-13  0.3710E-09  0.0000E+00  0.1698E+15
   -2.200015    3.86621  0.4556E-12  0.2521E-09  0.2896E-13  0.1608E-08  0.0000E+00  0.9128E+14
   -2.268765    3.93353  0.4556E-12  0.5990E-09  0.6714E-13  0.1573E-07  0.0000E+00  0.2139E+14
   -2.337514    3.99390  0.4556E-12  0.1102E-08  0.1238E-12  0.3604E-05  0.0000E+00 -0.3560E+12
   -2.406263    3.99647  0.4556E-12  0.1371E-08  0.1691E-12  0.4016E-05  0.0000E+00 -0.4260E+12
   -2.475011    3.99887  0.4556E-12  0.1587E-08  0.2319E-12  0.3775E-05  0.0000E+00 -0.5874E+12
   -2.543758    4.00157  0.4556E-12  0.1751E-08  0.3406E-12  0.2951E-05  0.0000E+00 -0.1008E+13
   -2.612505    4.00533  0.4556E-12  0.1850E-08  0.6031E-12  0.1710E-05  0.0000E+00 -0.2689E+13
   -2.681252    4.01286  0.4556E-12  0.1876E-08  0.1726E-11  0.5804E-06  0.0000E+00 -0.2064E+14
   -2.749997    4.04411  0.4556E-12  0.0000E+00  0.0000E+00  0.0000E+00  0.0000E+00  0.0000E+00
