 1 - depth, m
 2 - temperature, C
 3 - salinity, kg/kg
 4 - turbulent kinetic energy, m**2/s**2
 5 - dissipation rate, m**2/s**3
 6 - kinematic heat conductance, m**2/s
 7 - modulus of horizontal velocity, m/s
 8 - Richardson number, n/d
   -0.000000   -0.03000  0.4565E-12  0.3143E-05  0.6444E-07  0.1209E-04  0.1938E-01  0.9731E-01
   -0.068745    0.03814  0.4564E-12  0.2595E-05  0.2675E-07  0.1991E-04  0.1462E-01  0.8076E-01
   -0.137490    0.05270  0.4563E-12  0.2088E-05  0.1556E-07  0.2055E-04  0.1239E-01  0.1349E+00
   -0.206237    0.06483  0.4563E-12  0.1614E-05  0.9983E-08  0.1739E-04  0.1074E-01  0.1920E+00
   -0.274983    0.07747  0.4562E-12  0.1177E-05  0.6580E-08  0.1244E-04  0.9340E-02  0.2624E+00
   -0.343731    0.09244  0.4562E-12  0.7759E-06  0.4233E-08  0.7076E-05  0.8025E-02  0.3559E+00
   -0.412478    0.11377  0.4561E-12  0.3984E-06  0.2350E-08  0.2649E-05  0.6633E-02  0.5279E+00
   -0.481227    0.17326  0.4561E-12  0.1320E-06  0.7958E-09  0.8523E-06  0.4726E-02  0.1687E+01
   -0.549975    0.35322  0.4557E-12  0.6227E-07  0.3534E-09  0.4621E-06  0.2683E-02  0.5231E+01
   -0.618724    0.48882  0.4556E-12  0.3124E-07  0.1718E-09  0.2317E-06  0.1583E-02  0.1578E+02
   -0.687474    0.57151  0.4556E-12  0.1343E-07  0.7261E-10  0.9796E-07  0.9865E-03  0.5603E+02
   -0.756224    0.62887  0.4556E-12  0.4418E-08  0.2392E-10  0.3152E-07  0.6350E-03  0.2346E+03
   -0.824974    0.67429  0.4556E-12  0.9320E-09  0.5389E-11  0.6632E-08  0.4137E-03  0.1083E+04
   -0.893724    0.71275  0.4556E-12  0.1102E-09  0.1145E-11  0.8794E-09  0.2705E-03  0.5294E+04
   -0.962475    0.74634  0.4556E-12  0.1045E-10  0.6837E-12  0.1557E-09  0.1785E-03  0.2700E+05
   -1.031226    0.77615  0.4556E-12  0.3932E-11  0.6677E-12  0.1000E-09  0.1195E-03  0.1429E+06
   -1.099977    0.80292  0.4556E-12  0.5670E-11  0.6679E-12  0.1000E-09  0.8099E-04  0.7859E+06
   -1.168728    0.82714  0.4556E-12  0.1023E-10  0.6684E-12  0.1000E-09  0.5546E-04  0.4519E+07
   -1.237480    0.84915  0.4556E-12  0.2188E-10  0.6695E-12  0.1000E-09  0.3828E-04  0.2775E+08
   -1.306231    0.86928  0.4556E-12  0.5081E-10  0.6723E-12  0.1027E-09  0.2658E-04  0.1940E+09
   -1.374982    0.88803  0.4556E-12  0.1208E-09  0.6789E-12  0.1233E-09  0.1851E-04  0.1988E+10
   -1.443734    0.90707  0.4556E-12  0.2864E-09  0.6943E-12  0.1577E-09  0.1285E-04  0.7847E+11
   -1.512485    0.92937  0.4556E-12  0.6700E-09  0.7295E-12  0.2018E-09  0.8791E-05  0.8491E+11
   -1.581236    0.96102  0.4556E-12  0.1856E-08  0.8091E-12  0.1222E-08  0.5750E-05  0.4852E+12
   -1.649988    1.01388  0.4556E-12  0.7200E-08  0.9710E-12  0.1240E-08  0.3338E-05  0.2864E+13
   -1.718739    1.10937  0.4556E-12  0.1925E-07  0.1933E-11  0.1408E-08  0.1283E-05  0.2298E+14
   -1.787490    1.27087  0.4556E-12  0.4473E-07  0.4196E-11  0.6060E-08  0.8714E-07  0.1515E+16
   -1.856240    1.36251  0.4556E-12  0.9718E-07  0.8831E-11  0.4639E-07  0.5482E-08  0.9353E+15
   -1.924991    1.39619  0.4556E-12  0.9826E-07  0.8940E-11  0.3872E-03  0.1842E-09 -0.2009E+12
   -1.993741    1.39619  0.4556E-12  0.9858E-07  0.8976E-11  0.7000E-03  0.1541E-09 -0.5561E+12
   -2.062491    1.39617  0.4556E-12  0.9812E-07  0.8924E-11  0.9824E-04  0.1415E-09  0.1157E+15
   -2.131240    1.39913  0.4556E-12  0.8110E-07  0.7681E-11  0.1969E-07  0.1274E-09  0.2149E+16
   -2.199989    1.46135  0.4556E-12  0.4000E-07  0.3902E-11  0.3567E-08  0.1000E-10  0.5483E+16
   -2.268738    1.61098  0.4556E-12  0.1895E-07  0.1960E-11  0.1333E-08  0.4864E-12  0.7646E+16
   -2.337486    1.82225  0.4556E-12  0.7870E-08  0.1025E-11  0.5994E-09  0.1915E-13  0.8736E+16
   -2.406234    2.09494  0.4556E-12  0.2019E-08  0.8252E-12  0.3981E-09  0.6412E-15  0.9412E+16
   -2.474981    2.44666  0.4556E-12  0.3588E-09  0.9301E-12  0.2652E-09  0.1784E-16  0.9103E+16
   -2.543728    2.90139  0.4556E-12  0.1631E-08  0.2461E-11  0.5778E-08  0.4134E-18  0.6720E+16
   -2.612474    3.48256  0.4556E-12  0.8316E-08  0.1043E-10  0.2857E-05  0.7090E-20  0.3158E+16
   -2.681220    3.85526  0.4556E-12  0.8766E-08  0.2347E-10  0.9890E-06  0.7860E-22  0.1657E+15
   -2.749965    4.01790  0.4556E-12  0.0000E+00  0.0000E+00  0.0000E+00  0.8828E-22  0.0000E+00
