 1 - depth, m
 2 - temperature, C
 3 - salinity, kg/kg
 4 - turbulent kinetic energy, m**2/s**2
 5 - dissipation rate, m**2/s**3
 6 - kinematic heat conductance, m**2/s
 7 - modulus of horizontal velocity, m/s
 8 - Richardson number, n/d
   -0.000000   -0.00000  0.1408E-11  0.1219E-13  0.7603E-17  0.1000E-09  0.0000E+00  0.7312E+16
   -0.068746    0.11135  0.6985E-12  0.1219E-13  0.7603E-17  0.1000E-09  0.0000E+00  0.7008E+16
   -0.137492    0.22138  0.4428E-12  0.1219E-13  0.7603E-17  0.1000E-09  0.0000E+00  0.6741E+16
   -0.206239    0.33054  0.3836E-12  0.1219E-13  0.7603E-17  0.1000E-09  0.0000E+00  0.6508E+16
   -0.274986    0.43931  0.3731E-12  0.1219E-13  0.7603E-17  0.1000E-09  0.0000E+00  0.6303E+16
   -0.343735    0.54814  0.3716E-12  0.1219E-13  0.7603E-17  0.1000E-09  0.0000E+00  0.6124E+16
   -0.412483    0.65749  0.3714E-12  0.1219E-13  0.7603E-17  0.1000E-09  0.0000E+00  0.5968E+16
   -0.481232    0.76785  0.3714E-12  0.1219E-13  0.7603E-17  0.1000E-09  0.0000E+00  0.5831E+16
   -0.549982    0.87966  0.3714E-12  0.1219E-13  0.7603E-17  0.1000E-09  0.0000E+00  0.5709E+16
   -0.618732    0.99340  0.3714E-12  0.1219E-13  0.7603E-17  0.1000E-09  0.0000E+00  0.5598E+16
   -0.687482    1.10952  0.3714E-12  0.1219E-13  0.7603E-17  0.1000E-09  0.0000E+00  0.5509E+16
   -0.756233    1.22878  0.3714E-12  0.1243E-13  0.7603E-17  0.1000E-09  0.0000E+00  0.5427E+16
   -0.824984    1.35182  0.3714E-12  0.3380E-13  0.8034E-17  0.1000E-09  0.0000E+00  0.5338E+16
   -0.893735    1.47898  0.3714E-12  0.9982E-13  0.1312E-16  0.1000E-09  0.0000E+00  0.5237E+16
   -0.962486    1.61062  0.3713E-12  0.2551E-12  0.2868E-16  0.1000E-09  0.0000E+00  0.5117E+16
   -1.031238    1.74701  0.3712E-12  0.6049E-12  0.6470E-16  0.1000E-09  0.0000E+00  0.4973E+16
   -1.099990    1.88840  0.3708E-12  0.1391E-11  0.1442E-15  0.1000E-09  0.0000E+00  0.4802E+16
   -1.168742    2.03495  0.3699E-12  0.3142E-11  0.3171E-15  0.1000E-09  0.0000E+00  0.4597E+16
   -1.237494    2.18678  0.3684E-12  0.7005E-11  0.6883E-15  0.1000E-09  0.0000E+00  0.4354E+16
   -1.306246    2.34391  0.3660E-12  0.1542E-10  0.1477E-14  0.1000E-09  0.0000E+00  0.4070E+16
   -1.374998    2.50623  0.3633E-12  0.3355E-10  0.3130E-14  0.1000E-09  0.0000E+00  0.3749E+16
   -1.443751    2.67387  0.3611E-12  0.7213E-10  0.6560E-14  0.1000E-09  0.0000E+00  0.3381E+16
   -1.512503    2.84651  0.3598E-12  0.1533E-09  0.1359E-13  0.1000E-09  0.0000E+00  0.2964E+16
   -1.581255    3.02348  0.3593E-12  0.3222E-09  0.2785E-13  0.1000E-09  0.0000E+00  0.2503E+16
   -1.650007    3.20408  0.3590E-12  0.6693E-09  0.5640E-13  0.1431E-09  0.0000E+00  0.2011E+16
   -1.718759    3.38807  0.3588E-12  0.1374E-08  0.1129E-12  0.3837E-09  0.0000E+00  0.1500E+16
   -1.787511    3.57661  0.3586E-12  0.2852E-08  0.2283E-12  0.1185E-08  0.0000E+00  0.9753E+15
   -1.856262    3.77683  0.3584E-12  0.5931E-08  0.4630E-12  0.6649E-08  0.0000E+00  0.3442E+15
   -1.925013    3.98989  0.3583E-12  0.7024E-08  0.5539E-12  0.2503E-04  0.0000E+00  0.4842E+12
   -1.993764    3.99561  0.3583E-12  0.7462E-08  0.5961E-12  0.3247E-04  0.0000E+00 -0.1648E+12
   -2.062515    3.99673  0.3583E-12  0.7808E-08  0.6368E-12  0.3391E-04  0.0000E+00 -0.1743E+12
   -2.131265    3.99779  0.3583E-12  0.8102E-08  0.6808E-12  0.3440E-04  0.0000E+00 -0.1862E+12
   -2.200015    3.99881  0.3583E-12  0.8345E-08  0.7300E-12  0.3399E-04  0.0000E+00 -0.2022E+12
   -2.268765    3.99983  0.3583E-12  0.8537E-08  0.7878E-12  0.3272E-04  0.0000E+00 -0.2253E+12
   -2.337514    4.00088  0.3583E-12  0.8679E-08  0.8617E-12  0.3041E-04  0.0000E+00 -0.2602E+12
   -2.406262    4.00200  0.3583E-12  0.8759E-08  0.9635E-12  0.2695E-04  0.0000E+00 -0.3172E+12
   -2.475010    4.00327  0.3583E-12  0.8754E-08  0.1120E-11  0.2217E-04  0.0000E+00 -0.4224E+12
   -2.543758    4.00482  0.3583E-12  0.8611E-08  0.1401E-11  0.1593E-04  0.0000E+00 -0.6624E+12
   -2.612505    4.00702  0.3583E-12  0.8158E-08  0.2094E-11  0.8440E-05  0.0000E+00 -0.1534E+13
   -2.681251    4.01137  0.3583E-12  0.6261E-08  0.6137E-11  0.1377E-05  0.0000E+00 -0.1790E+14
   -2.749997    4.04034  0.3583E-12  0.0000E+00  0.0000E+00  0.0000E+00  0.0000E+00  0.0000E+00
