 1 - depth, m
 2 - temperature, C
 3 - salinity, kg/kg
 4 - turbulent kinetic energy, m**2/s**2
 5 - dissipation rate, m**2/s**3
 6 - kinematic heat conductance, m**2/s
 7 - modulus of horizontal velocity, m/s
 8 - Richardson number, n/d
   -0.000000    6.81661  0.3607E-12  0.1765E-04  0.9298E-06  0.3514E-04  0.3112E-01 -0.1190E-01
   -0.068746    6.85915  0.3607E-12  0.1626E-04  0.3151E-06  0.8856E-04  0.2039E-01 -0.3184E-01
   -0.137492    6.87501  0.3607E-12  0.1548E-04  0.1788E-06  0.1435E-03  0.1649E-01 -0.5251E-01
   -0.206239    6.88452  0.3607E-12  0.1489E-04  0.1218E-06  0.2009E-03  0.1414E-01 -0.7473E-01
   -0.274987    6.89110  0.3607E-12  0.1440E-04  0.9096E-07  0.2607E-03  0.1249E-01 -0.9851E-01
   -0.343735    6.89603  0.3607E-12  0.1400E-04  0.7186E-07  0.3232E-03  0.1125E-01 -0.1237E+00
   -0.412483    6.89989  0.3607E-12  0.1366E-04  0.5902E-07  0.3898E-03  0.1027E-01 -0.1445E+00
   -0.481232    6.90300  0.3607E-12  0.1337E-04  0.4991E-07  0.4834E-03  0.9467E-02 -0.3513E-01
   -0.549982    6.90547  0.3607E-12  0.1314E-04  0.4332E-07  0.7515E-03  0.8796E-02  0.8224E+02
   -0.618732    6.90723  0.3607E-12  0.1296E-04  0.3842E-07  0.9770E-03  0.8245E-02  0.3694E+02
   -0.687482    6.90852  0.3607E-12  0.1281E-04  0.3466E-07  0.1313E-02  0.7755E-02  0.3533E+02
   -0.756233    6.90941  0.3607E-12  0.1271E-04  0.3168E-07  0.1406E-02  0.7322E-02  0.1900E+02
   -0.824984    6.91018  0.3607E-12  0.1261E-04  0.2917E-07  0.1495E-02  0.6904E-02  0.1589E+02
   -0.893735    6.91087  0.3607E-12  0.1253E-04  0.2705E-07  0.1530E-02  0.6505E-02  0.1788E+02
   -0.962487    6.91154  0.3607E-12  0.1246E-04  0.2522E-07  0.1575E-02  0.6120E-02  0.2007E+02
   -1.031239    6.91217  0.3607E-12  0.1238E-04  0.2364E-07  0.1612E-02  0.5749E-02  0.2239E+02
   -1.099990    6.91278  0.3607E-12  0.1230E-04  0.2227E-07  0.1648E-02  0.5388E-02  0.2520E+02
   -1.168742    6.91336  0.3607E-12  0.1221E-04  0.2106E-07  0.1680E-02  0.5038E-02  0.2866E+02
   -1.237495    6.91391  0.3607E-12  0.1211E-04  0.2000E-07  0.1708E-02  0.4696E-02  0.3323E+02
   -1.306247    6.91444  0.3607E-12  0.1200E-04  0.1905E-07  0.1732E-02  0.4361E-02  0.3960E+02
   -1.374999    6.91495  0.3607E-12  0.1188E-04  0.1821E-07  0.1751E-02  0.4032E-02  0.4931E+02
   -1.443751    6.91545  0.3607E-12  0.1174E-04  0.1745E-07  0.1764E-02  0.3708E-02  0.6607E+02
   -1.512503    6.91593  0.3607E-12  0.1158E-04  0.1676E-07  0.1772E-02  0.3387E-02  0.1022E+03
   -1.581256    6.91639  0.3607E-12  0.1140E-04  0.1614E-07  0.1770E-02  0.3070E-02  0.2365E+03
   -1.650008    6.91685  0.3607E-12  0.1120E-04  0.1556E-07  0.1768E-02  0.2754E-02  0.1060E+06
   -1.718760    6.91729  0.3607E-12  0.1097E-04  0.1503E-07  0.1739E-02  0.2439E-02  0.3816E+05
   -1.787511    6.91773  0.3607E-12  0.1070E-04  0.1452E-07  0.1761E-02  0.2122E-02  0.1781E+02
   -1.856263    6.91816  0.3607E-12  0.1040E-04  0.1404E-07  0.1763E-02  0.1847E-02  0.5749E+01
   -1.925014    6.91859  0.3607E-12  0.1009E-04  0.1363E-07  0.1772E-02  0.1606E-02  0.2902E+01
   -1.993765    6.91900  0.3607E-12  0.9755E-05  0.1330E-07  0.1785E-02  0.1399E-02  0.1900E+01
   -2.062516    6.91941  0.3607E-12  0.9433E-05  0.1310E-07  0.1792E-02  0.1219E-02  0.1498E+01
   -2.131266    6.91981  0.3607E-12  0.9124E-05  0.1305E-07  0.1796E-02  0.1056E-02  0.1205E+01
   -2.200016    6.92021  0.3607E-12  0.8832E-05  0.1315E-07  0.1783E-02  0.9086E-03  0.9797E+00
   -2.268766    6.92060  0.3607E-12  0.8561E-05  0.1344E-07  0.1706E-02  0.7753E-03  0.7477E+00
   -2.337515    6.92100  0.3607E-12  0.8309E-05  0.1396E-07  0.1568E-02  0.6604E-03  0.5595E+00
   -2.406263    6.92143  0.3607E-12  0.8081E-05  0.1475E-07  0.1401E-02  0.5641E-03  0.4126E+00
   -2.475011    6.92190  0.3607E-12  0.7875E-05  0.1590E-07  0.1266E-02  0.4863E-03  0.3503E+00
   -2.543759    6.92242  0.3607E-12  0.7653E-05  0.1785E-07  0.1121E-02  0.4254E-03  0.6654E+00
   -2.612506    6.92300  0.3607E-12  0.7270E-05  0.2323E-07  0.5313E-03  0.3662E-03  0.4412E+03
   -2.681252    6.92422  0.3607E-12  0.4537E-05  0.9101E-07  0.2903E-04  0.2811E-03 -0.4835E+03
   -2.749998    6.94573  0.3607E-12  0.0000E+00  0.0000E+00  0.0000E+00  0.2807E-03  0.0000E+00
