 1 - depth, m
 2 - temperature, C
 3 - salinity, kg/kg
 4 - turbulent kinetic energy, m**2/s**2
 5 - dissipation rate, m**2/s**3
 6 - kinematic heat conductance, m**2/s
 7 - modulus of horizontal velocity, m/s
 8 - Richardson number, n/d
   -0.000000   -0.00000  0.2367E-11  0.1219E-13  0.7603E-17  0.1000E-09  0.0000E+00  0.8151E+16
   -0.068746    0.12434  0.5670E-12  0.1219E-13  0.7603E-17  0.1000E-09  0.0000E+00  0.7825E+16
   -0.137492    0.24786  0.4953E-12  0.1219E-13  0.7603E-17  0.1000E-09  0.0000E+00  0.7533E+16
   -0.206239    0.37103  0.4893E-12  0.1219E-13  0.7603E-17  0.1000E-09  0.0000E+00  0.7274E+16
   -0.274987    0.49434  0.4892E-12  0.1219E-13  0.7603E-17  0.1000E-09  0.0000E+00  0.7046E+16
   -0.343735    0.61835  0.4889E-12  0.1219E-13  0.7603E-17  0.1000E-09  0.0000E+00  0.6847E+16
   -0.412483    0.74366  0.4882E-12  0.1219E-13  0.7603E-17  0.1000E-09  0.0000E+00  0.6674E+16
   -0.481233    0.87093  0.4870E-12  0.1219E-13  0.7603E-17  0.1000E-09  0.0000E+00  0.6522E+16
   -0.549982    1.00082  0.4855E-12  0.2506E-13  0.7603E-17  0.1000E-09  0.0000E+00  0.6384E+16
   -0.618732    1.13399  0.4836E-12  0.8489E-13  0.1040E-16  0.1000E-09  0.0000E+00  0.6253E+16
   -0.687483    1.27108  0.4803E-12  0.2085E-12  0.2074E-16  0.1000E-09  0.0000E+00  0.6141E+16
   -0.756233    1.41313  0.4748E-12  0.4606E-12  0.4329E-16  0.1000E-09  0.0000E+00  0.6025E+16
   -0.824984    1.56095  0.4671E-12  0.9837E-12  0.9016E-16  0.1000E-09  0.0000E+00  0.5882E+16
   -0.893736    1.71491  0.4595E-12  0.2076E-11  0.1868E-15  0.1000E-09  0.0000E+00  0.5702E+16
   -0.962487    1.87529  0.4554E-12  0.4358E-11  0.3853E-15  0.1000E-09  0.0000E+00  0.5477E+16
   -1.031239    2.04221  0.4554E-12  0.9109E-11  0.7913E-15  0.1000E-09  0.0000E+00  0.5198E+16
   -1.099991    2.21563  0.4557E-12  0.1896E-10  0.1618E-14  0.1000E-09  0.0000E+00  0.4861E+16
   -1.168743    2.39533  0.4556E-12  0.3930E-10  0.3293E-14  0.1000E-09  0.0000E+00  0.4460E+16
   -1.237495    2.58086  0.4556E-12  0.8104E-10  0.6668E-14  0.1000E-09  0.0000E+00  0.3994E+16
   -1.306247    2.77141  0.4556E-12  0.1663E-09  0.1343E-13  0.1000E-09  0.0000E+00  0.3464E+16
   -1.374999    2.96573  0.4556E-12  0.3393E-09  0.2690E-13  0.1000E-09  0.0000E+00  0.2877E+16
   -1.443752    3.16193  0.4556E-12  0.6884E-09  0.5355E-13  0.1234E-09  0.0000E+00  0.2246E+16
   -1.512504    3.35697  0.4556E-12  0.1388E-08  0.1060E-12  0.3373E-09  0.0000E+00  0.1601E+16
   -1.581256    3.54652  0.4556E-12  0.2782E-08  0.2084E-12  0.1069E-08  0.0000E+00  0.9902E+15
   -1.650008    3.72609  0.4556E-12  0.5529E-08  0.4065E-12  0.4448E-08  0.0000E+00  0.4629E+15
   -1.718760    3.89237  0.4556E-12  0.1060E-07  0.7678E-12  0.6019E-07  0.0000E+00  0.6457E+14
   -1.787512    4.01056  0.4556E-12  0.1132E-07  0.8228E-12  0.6182E-04  0.0000E+00 -0.1497E+12
   -1.856263    4.01095  0.4556E-12  0.1165E-07  0.8538E-12  0.6521E-04  0.0000E+00 -0.1474E+12
   -1.925015    4.01133  0.4556E-12  0.1195E-07  0.8880E-12  0.6634E-04  0.0000E+00 -0.1507E+12
   -1.993766    4.01172  0.4556E-12  0.1221E-07  0.9268E-12  0.6634E-04  0.0000E+00 -0.1568E+12
   -2.062516    4.01211  0.4556E-12  0.1244E-07  0.9705E-12  0.6461E-04  0.0000E+00 -0.1656E+12
   -2.131267    4.01252  0.4556E-12  0.1263E-07  0.1021E-11  0.6107E-04  0.0000E+00 -0.1801E+12
   -2.200017    4.01295  0.4556E-12  0.1278E-07  0.1081E-11  0.5680E-04  0.0000E+00 -0.1994E+12
   -2.268766    4.01343  0.4556E-12  0.1288E-07  0.1155E-11  0.5227E-04  0.0000E+00 -0.2243E+12
   -2.337515    4.01395  0.4556E-12  0.1293E-07  0.1253E-11  0.4704E-04  0.0000E+00 -0.2594E+12
   -2.406264    4.01455  0.4556E-12  0.1291E-07  0.1392E-11  0.4066E-04  0.0000E+00 -0.3152E+12
   -2.475012    4.01525  0.4556E-12  0.1280E-07  0.1610E-11  0.3277E-04  0.0000E+00 -0.4171E+12
   -2.543760    4.01616  0.4556E-12  0.1251E-07  0.2007E-11  0.2320E-04  0.0000E+00 -0.6455E+12
   -2.612507    4.01751  0.4556E-12  0.1183E-07  0.2989E-11  0.1218E-04  0.0000E+00 -0.1452E+13
   -2.681253    4.02036  0.4556E-12  0.8882E-08  0.9212E-11  0.1729E-05  0.0000E+00 -0.1843E+14
   -2.749999    4.04559  0.4556E-12  0.0000E+00  0.0000E+00  0.0000E+00  0.0000E+00  0.0000E+00
