 1 - depth, m
 2 - temperature, C
 3 - salinity, kg/kg
 4 - turbulent kinetic energy, m**2/s**2
 5 - dissipation rate, m**2/s**3
 6 - kinematic heat conductance, m**2/s
 7 - modulus of horizontal velocity, m/s
 8 - Richardson number, n/d
   -0.000000   -0.00000  0.1455E-11  0.1219E-13  0.7603E-17  0.1000E-09  0.0000E+00  0.8835E+16
   -0.068746    0.13497  0.7502E-12  0.1219E-13  0.7603E-17  0.1000E-09  0.0000E+00  0.8412E+16
   -0.137492    0.26834  0.4897E-12  0.1219E-13  0.7603E-17  0.1000E-09  0.0000E+00  0.8023E+16
   -0.206239    0.40047  0.4013E-12  0.1219E-13  0.7603E-17  0.1000E-09  0.0000E+00  0.7666E+16
   -0.274986    0.53172  0.3777E-12  0.1219E-13  0.7603E-17  0.1000E-09  0.0000E+00  0.7335E+16
   -0.343734    0.66246  0.3725E-12  0.1219E-13  0.7603E-17  0.1000E-09  0.0000E+00  0.7027E+16
   -0.412483    0.79302  0.3716E-12  0.1219E-13  0.7603E-17  0.1000E-09  0.0000E+00  0.6737E+16
   -0.481232    0.92372  0.3714E-12  0.1219E-13  0.7603E-17  0.1000E-09  0.0000E+00  0.6461E+16
   -0.549982    1.05482  0.3714E-12  0.1219E-13  0.7603E-17  0.1000E-09  0.0000E+00  0.6195E+16
   -0.618731    1.18657  0.3714E-12  0.1219E-13  0.7603E-17  0.1000E-09  0.0000E+00  0.5935E+16
   -0.687482    1.31919  0.3714E-12  0.1219E-13  0.7603E-17  0.1000E-09  0.0000E+00  0.5689E+16
   -0.756232    1.45312  0.3714E-12  0.1219E-13  0.7603E-17  0.1000E-09  0.0000E+00  0.5446E+16
   -0.824983    1.58865  0.3714E-12  0.1219E-13  0.7603E-17  0.1000E-09  0.0000E+00  0.5198E+16
   -0.893735    1.72587  0.3713E-12  0.4969E-13  0.8171E-17  0.1000E-09  0.0000E+00  0.4941E+16
   -0.962486    1.86484  0.3712E-12  0.1389E-12  0.1673E-16  0.1000E-09  0.0000E+00  0.4673E+16
   -1.031238    2.00556  0.3708E-12  0.3341E-12  0.3718E-16  0.1000E-09  0.0000E+00  0.4393E+16
   -1.099990    2.14798  0.3702E-12  0.7644E-12  0.8205E-16  0.1000E-09  0.0000E+00  0.4100E+16
   -1.168741    2.29203  0.3690E-12  0.1714E-11  0.1789E-15  0.1000E-09  0.0000E+00  0.3794E+16
   -1.237494    2.43756  0.3672E-12  0.3794E-11  0.3859E-15  0.1000E-09  0.0000E+00  0.3474E+16
   -1.306246    2.58439  0.3650E-12  0.8315E-11  0.8246E-15  0.1000E-09  0.0000E+00  0.3143E+16
   -1.374998    2.73229  0.3627E-12  0.1805E-10  0.1746E-14  0.1000E-09  0.0000E+00  0.2803E+16
   -1.443750    2.88116  0.3609E-12  0.3882E-10  0.3663E-14  0.1000E-09  0.0000E+00  0.2454E+16
   -1.512502    3.03072  0.3598E-12  0.8275E-10  0.7618E-14  0.1000E-09  0.0000E+00  0.2097E+16
   -1.581254    3.18063  0.3593E-12  0.1749E-09  0.1571E-13  0.1000E-09  0.0000E+00  0.1735E+16
   -1.650006    3.33047  0.3589E-12  0.3663E-09  0.3213E-13  0.1192E-09  0.0000E+00  0.1372E+16
   -1.718758    3.47982  0.3587E-12  0.7606E-09  0.6516E-13  0.3280E-09  0.0000E+00  0.1011E+16
   -1.787510    3.62804  0.3585E-12  0.1601E-08  0.1340E-12  0.1033E-08  0.0000E+00  0.6599E+15
   -1.856261    3.77538  0.3583E-12  0.3396E-08  0.2776E-12  0.4506E-08  0.0000E+00  0.3134E+15
   -1.925012    3.91867  0.3583E-12  0.6901E-08  0.5541E-12  0.8809E-07  0.0000E+00  0.3176E+14
   -1.993763    4.00917  0.3583E-12  0.7720E-08  0.6233E-12  0.3900E-04  0.0000E+00 -0.1929E+12
   -2.062514    4.00971  0.3583E-12  0.8074E-08  0.6602E-12  0.3941E-04  0.0000E+00 -0.1961E+12
   -2.131264    4.01023  0.3583E-12  0.8363E-08  0.6994E-12  0.3905E-04  0.0000E+00 -0.2032E+12
   -2.200014    4.01077  0.3583E-12  0.8592E-08  0.7429E-12  0.3793E-04  0.0000E+00 -0.2151E+12
   -2.268764    4.01133  0.3583E-12  0.8761E-08  0.7940E-12  0.3603E-04  0.0000E+00 -0.2337E+12
   -2.337513    4.01192  0.3583E-12  0.8875E-08  0.8597E-12  0.3318E-04  0.0000E+00 -0.2633E+12
   -2.406261    4.01256  0.3583E-12  0.8924E-08  0.9509E-12  0.2921E-04  0.0000E+00 -0.3128E+12
   -2.475009    4.01331  0.3583E-12  0.8884E-08  0.1092E-11  0.2394E-04  0.0000E+00 -0.4046E+12
   -2.543757    4.01425  0.3583E-12  0.8703E-08  0.1347E-11  0.1721E-04  0.0000E+00 -0.6123E+12
   -2.612504    4.01562  0.3583E-12  0.8205E-08  0.1977E-11  0.9109E-05  0.0000E+00 -0.1348E+13
   -2.681250    4.01842  0.3583E-12  0.6150E-08  0.5730E-11  0.1362E-05  0.0000E+00 -0.1539E+14
   -2.749996    4.04105  0.3583E-12  0.0000E+00  0.0000E+00  0.0000E+00  0.0000E+00  0.0000E+00
