 1 - depth, m
 2 - temperature, C
 3 - salinity, kg/kg
 4 - turbulent kinetic energy, m**2/s**2
 5 - dissipation rate, m**2/s**3
 6 - kinematic heat conductance, m**2/s
 7 - modulus of horizontal velocity, m/s
 8 - Richardson number, n/d
   -0.000000   -0.00000  0.1924E-11  0.1219E-13  0.7603E-17  0.1000E-09  0.0000E+00  0.1024E+17
   -0.068746    0.15684  0.1059E-11  0.1219E-13  0.7603E-17  0.1000E-09  0.0000E+00  0.9739E+16
   -0.137492    0.31271  0.6864E-12  0.1219E-13  0.7603E-17  0.1000E-09  0.0000E+00  0.9244E+16
   -0.206239    0.46744  0.5491E-12  0.1219E-13  0.7603E-17  0.1000E-09  0.0000E+00  0.8752E+16
   -0.274987    0.62091  0.5041E-12  0.1219E-13  0.7603E-17  0.1000E-09  0.0000E+00  0.8267E+16
   -0.343735    0.77299  0.4909E-12  0.1219E-13  0.7603E-17  0.1000E-09  0.0000E+00  0.7789E+16
   -0.412483    0.92357  0.4866E-12  0.1219E-13  0.7603E-17  0.1000E-09  0.0000E+00  0.7320E+16
   -0.481232    1.07254  0.4840E-12  0.1219E-13  0.7603E-17  0.1000E-09  0.0000E+00  0.6860E+16
   -0.549982    1.21981  0.4811E-12  0.1219E-13  0.7603E-17  0.1000E-09  0.0000E+00  0.6412E+16
   -0.618732    1.36529  0.4773E-12  0.1219E-13  0.7603E-17  0.1000E-09  0.0000E+00  0.5975E+16
   -0.687482    1.50887  0.4726E-12  0.1219E-13  0.7603E-17  0.1000E-09  0.0000E+00  0.5555E+16
   -0.756233    1.65062  0.4676E-12  0.1219E-13  0.7603E-17  0.1000E-09  0.0000E+00  0.5149E+16
   -0.824984    1.79051  0.4629E-12  0.1219E-13  0.7603E-17  0.1000E-09  0.0000E+00  0.4755E+16
   -0.893735    1.92844  0.4593E-12  0.1219E-13  0.7603E-17  0.1000E-09  0.0000E+00  0.4372E+16
   -0.962487    2.06429  0.4571E-12  0.1219E-13  0.7603E-17  0.1000E-09  0.0000E+00  0.4001E+16
   -1.031238    2.19793  0.4561E-12  0.1219E-13  0.7603E-17  0.1000E-09  0.0000E+00  0.3643E+16
   -1.099990    2.32925  0.4557E-12  0.1219E-13  0.7603E-17  0.1000E-09  0.0000E+00  0.3298E+16
   -1.168742    2.45810  0.4556E-12  0.1219E-13  0.7603E-17  0.1000E-09  0.0000E+00  0.2966E+16
   -1.237495    2.58435  0.4556E-12  0.1219E-13  0.7603E-17  0.1000E-09  0.0000E+00  0.2649E+16
   -1.306247    2.70785  0.4556E-12  0.1488E-13  0.7603E-17  0.1000E-09  0.0000E+00  0.2346E+16
   -1.374999    2.82845  0.4556E-12  0.4072E-13  0.8349E-17  0.1000E-09  0.0000E+00  0.2060E+16
   -1.443751    2.94603  0.4556E-12  0.1165E-12  0.1442E-16  0.1000E-09  0.0000E+00  0.1790E+16
   -1.512503    3.06046  0.4556E-12  0.2779E-12  0.3085E-16  0.1000E-09  0.0000E+00  0.1536E+16
   -1.581256    3.17160  0.4556E-12  0.6236E-12  0.6692E-16  0.1000E-09  0.0000E+00  0.1299E+16
   -1.650008    3.27932  0.4556E-12  0.1373E-11  0.1444E-15  0.1000E-09  0.0000E+00  0.1080E+16
   -1.718759    3.38351  0.4556E-12  0.2999E-11  0.3101E-15  0.1000E-09  0.0000E+00  0.8777E+15
   -1.787511    3.48404  0.4556E-12  0.6683E-11  0.6797E-15  0.1000E-09  0.0000E+00  0.6870E+15
   -1.856263    3.57987  0.4556E-12  0.1511E-10  0.1512E-14  0.1000E-09  0.0000E+00  0.5147E+15
   -1.925014    3.67031  0.4556E-12  0.3436E-10  0.3381E-14  0.1000E-09  0.0000E+00  0.3620E+15
   -1.993765    3.75428  0.4556E-12  0.7842E-10  0.7590E-14  0.1654E-09  0.0000E+00  0.2329E+15
   -2.062516    3.83078  0.4556E-12  0.1756E-09  0.1671E-13  0.6287E-09  0.0000E+00  0.1344E+15
   -2.131266    3.90233  0.4556E-12  0.3900E-09  0.3650E-13  0.3499E-08  0.0000E+00  0.5217E+14
   -2.200016    3.96658  0.4556E-12  0.8208E-09  0.7601E-13  0.1745E-06  0.0000E+00  0.2617E+13
   -2.268765    3.99554  0.4556E-12  0.1277E-08  0.1211E-12  0.5195E-05  0.0000E+00 -0.2565E+12
   -2.337515    3.99723  0.4556E-12  0.1531E-08  0.1559E-12  0.5639E-05  0.0000E+00 -0.2943E+12
   -2.406263    3.99886  0.4556E-12  0.1743E-08  0.2003E-12  0.5511E-05  0.0000E+00 -0.3709E+12
   -2.475011    4.00065  0.4556E-12  0.1919E-08  0.2661E-12  0.4822E-05  0.0000E+00 -0.5314E+12
   -2.543759    4.00287  0.4556E-12  0.2051E-08  0.3844E-12  0.3590E-05  0.0000E+00 -0.9414E+12
   -2.612506    4.00619  0.4556E-12  0.2119E-08  0.6760E-12  0.1991E-05  0.0000E+00 -0.2587E+13
   -2.681252    4.01326  0.4556E-12  0.2094E-08  0.1955E-11  0.6327E-06  0.0000E+00 -0.2109E+14
   -2.749998    4.04479  0.4556E-12  0.0000E+00  0.0000E+00  0.0000E+00  0.0000E+00  0.0000E+00
