 1 - depth, m
 2 - temperature, C
 3 - salinity, kg/kg
 4 - turbulent kinetic energy, m**2/s**2
 5 - dissipation rate, m**2/s**3
 6 - kinematic heat conductance, m**2/s
 7 - modulus of horizontal velocity, m/s
 8 - Richardson number, n/d
   -0.000000   -0.00000  0.1436E-11  0.1219E-13  0.7603E-17  0.1000E-09  0.0000E+00  0.8776E+16
   -0.068746    0.13406  0.7508E-12  0.1219E-13  0.7603E-17  0.1000E-09  0.0000E+00  0.8354E+16
   -0.137492    0.26646  0.4896E-12  0.1219E-13  0.7603E-17  0.1000E-09  0.0000E+00  0.7969E+16
   -0.206239    0.39761  0.4010E-12  0.1219E-13  0.7603E-17  0.1000E-09  0.0000E+00  0.7618E+16
   -0.274986    0.52792  0.3776E-12  0.1219E-13  0.7603E-17  0.1000E-09  0.0000E+00  0.7295E+16
   -0.343734    0.65777  0.3725E-12  0.1219E-13  0.7603E-17  0.1000E-09  0.0000E+00  0.6995E+16
   -0.412483    0.78751  0.3716E-12  0.1219E-13  0.7603E-17  0.1000E-09  0.0000E+00  0.6713E+16
   -0.481232    0.91747  0.3714E-12  0.1219E-13  0.7603E-17  0.1000E-09  0.0000E+00  0.6444E+16
   -0.549982    1.04792  0.3714E-12  0.1219E-13  0.7603E-17  0.1000E-09  0.0000E+00  0.6185E+16
   -0.618731    1.17911  0.3714E-12  0.1219E-13  0.7603E-17  0.1000E-09  0.0000E+00  0.5931E+16
   -0.687482    1.31126  0.3714E-12  0.1219E-13  0.7603E-17  0.1000E-09  0.0000E+00  0.5691E+16
   -0.756232    1.44481  0.3714E-12  0.1219E-13  0.7603E-17  0.1000E-09  0.0000E+00  0.5455E+16
   -0.824983    1.58006  0.3714E-12  0.1219E-13  0.7603E-17  0.1000E-09  0.0000E+00  0.5212E+16
   -0.893735    1.71712  0.3713E-12  0.4939E-13  0.8153E-17  0.1000E-09  0.0000E+00  0.4959E+16
   -0.962486    1.85604  0.3712E-12  0.1382E-12  0.1671E-16  0.1000E-09  0.0000E+00  0.4696E+16
   -1.031238    1.99684  0.3709E-12  0.3327E-12  0.3718E-16  0.1000E-09  0.0000E+00  0.4419E+16
   -1.099990    2.13946  0.3702E-12  0.7624E-12  0.8215E-16  0.1000E-09  0.0000E+00  0.4129E+16
   -1.168742    2.28383  0.3691E-12  0.1712E-11  0.1794E-15  0.1000E-09  0.0000E+00  0.3825E+16
   -1.237494    2.42981  0.3673E-12  0.3795E-11  0.3874E-15  0.1000E-09  0.0000E+00  0.3506E+16
   -1.306246    2.57721  0.3651E-12  0.8328E-11  0.8289E-15  0.1000E-09  0.0000E+00  0.3174E+16
   -1.374998    2.72580  0.3628E-12  0.1810E-10  0.1757E-14  0.1000E-09  0.0000E+00  0.2833E+16
   -1.443750    2.87547  0.3610E-12  0.3898E-10  0.3691E-14  0.1000E-09  0.0000E+00  0.2482E+16
   -1.512502    3.02594  0.3598E-12  0.8320E-10  0.7688E-14  0.1000E-09  0.0000E+00  0.2122E+16
   -1.581254    3.17687  0.3593E-12  0.1760E-09  0.1587E-13  0.1000E-09  0.0000E+00  0.1756E+16
   -1.650006    3.32784  0.3590E-12  0.3692E-09  0.3250E-13  0.1191E-09  0.0000E+00  0.1388E+16
   -1.718758    3.47841  0.3587E-12  0.7676E-09  0.6599E-13  0.3287E-09  0.0000E+00  0.1022E+16
   -1.787510    3.62795  0.3585E-12  0.1618E-08  0.1358E-12  0.1039E-08  0.0000E+00  0.6648E+15
   -1.856261    3.77672  0.3583E-12  0.3436E-08  0.2818E-12  0.4596E-08  0.0000E+00  0.3118E+15
   -1.925012    3.92141  0.3583E-12  0.6958E-08  0.5609E-12  0.9784E-07  0.0000E+00  0.2891E+14
   -1.993763    4.00918  0.3583E-12  0.7783E-08  0.6308E-12  0.3915E-04  0.0000E+00 -0.1944E+12
   -2.062514    4.00971  0.3583E-12  0.8140E-08  0.6682E-12  0.3957E-04  0.0000E+00 -0.1977E+12
   -2.131264    4.01025  0.3583E-12  0.8432E-08  0.7080E-12  0.3922E-04  0.0000E+00 -0.2049E+12
   -2.200014    4.01079  0.3583E-12  0.8663E-08  0.7521E-12  0.3810E-04  0.0000E+00 -0.2168E+12
   -2.268764    4.01134  0.3583E-12  0.8835E-08  0.8038E-12  0.3620E-04  0.0000E+00 -0.2356E+12
   -2.337513    4.01194  0.3583E-12  0.8950E-08  0.8703E-12  0.3334E-04  0.0000E+00 -0.2654E+12
   -2.406261    4.01259  0.3583E-12  0.8999E-08  0.9627E-12  0.2936E-04  0.0000E+00 -0.3152E+12
   -2.475009    4.01335  0.3583E-12  0.8960E-08  0.1105E-11  0.2407E-04  0.0000E+00 -0.4077E+12
   -2.543757    4.01429  0.3583E-12  0.8778E-08  0.1364E-11  0.1730E-04  0.0000E+00 -0.6167E+12
   -2.612504    4.01567  0.3583E-12  0.8277E-08  0.2000E-11  0.9166E-05  0.0000E+00 -0.1356E+13
   -2.681250    4.01848  0.3583E-12  0.6208E-08  0.5797E-11  0.1373E-05  0.0000E+00 -0.1545E+14
   -2.749996    4.04116  0.3583E-12  0.0000E+00  0.0000E+00  0.0000E+00  0.0000E+00  0.0000E+00
