 1 - depth, m
 2 - temperature, C
 3 - salinity, kg/kg
 4 - turbulent kinetic energy, m**2/s**2
 5 - dissipation rate, m**2/s**3
 6 - kinematic heat conductance, m**2/s
 7 - modulus of horizontal velocity, m/s
 8 - Richardson number, n/d
   -0.000000   -0.00000  0.5282E-11  0.1219E-13  0.7603E-17  0.1000E-09  0.0000E+00  0.1467E+17
   -0.068746    0.22697  0.1205E-11  0.1219E-13  0.7603E-17  0.1000E-09  0.0000E+00  0.1367E+17
   -0.137492    0.45241  0.6025E-12  0.1219E-13  0.7603E-17  0.1000E-09  0.0000E+00  0.1262E+17
   -0.206239    0.67498  0.5546E-12  0.1219E-13  0.7603E-17  0.1000E-09  0.0000E+00  0.1155E+17
   -0.274987    0.89348  0.5518E-12  0.1219E-13  0.7603E-17  0.1000E-09  0.0000E+00  0.1047E+17
   -0.343735    1.10682  0.5517E-12  0.1219E-13  0.7603E-17  0.1000E-09  0.0000E+00  0.9425E+16
   -0.412483    1.31404  0.5517E-12  0.1219E-13  0.7603E-17  0.1000E-09  0.0000E+00  0.8413E+16
   -0.481233    1.51436  0.5517E-12  0.1219E-13  0.7603E-17  0.1000E-09  0.0000E+00  0.7452E+16
   -0.549982    1.70709  0.5517E-12  0.1219E-13  0.7603E-17  0.1000E-09  0.0000E+00  0.6551E+16
   -0.618732    1.89171  0.5517E-12  0.1219E-13  0.7603E-17  0.1000E-09  0.0000E+00  0.5716E+16
   -0.687483    2.06779  0.5517E-12  0.1219E-13  0.7603E-17  0.1000E-09  0.0000E+00  0.4955E+16
   -0.756233    2.23520  0.5517E-12  0.1219E-13  0.7603E-17  0.1000E-09  0.0000E+00  0.4267E+16
   -0.824984    2.39386  0.5517E-12  0.1219E-13  0.7603E-17  0.1000E-09  0.0000E+00  0.3647E+16
   -0.893736    2.54360  0.5517E-12  0.1219E-13  0.7603E-17  0.1000E-09  0.0000E+00  0.3093E+16
   -0.962487    2.68435  0.5517E-12  0.1219E-13  0.7603E-17  0.1000E-09  0.0000E+00  0.2602E+16
   -1.031239    2.81611  0.5517E-12  0.1219E-13  0.7603E-17  0.1000E-09  0.0000E+00  0.2171E+16
   -1.099991    2.93891  0.5517E-12  0.1219E-13  0.7603E-17  0.1000E-09  0.0000E+00  0.1796E+16
   -1.168743    3.05286  0.5517E-12  0.1219E-13  0.7603E-17  0.1000E-09  0.0000E+00  0.1473E+16
   -1.237495    3.15811  0.5517E-12  0.1219E-13  0.7603E-17  0.1000E-09  0.0000E+00  0.1196E+16
   -1.306247    3.25484  0.5517E-12  0.1219E-13  0.7603E-17  0.1000E-09  0.0000E+00  0.9626E+15
   -1.375000    3.34328  0.5517E-12  0.1219E-13  0.7603E-17  0.1000E-09  0.0000E+00  0.7702E+15
   -1.443752    3.42409  0.5517E-12  0.1219E-13  0.7603E-17  0.1000E-09  0.0000E+00  0.6108E+15
   -1.512504    3.49768  0.5517E-12  0.1219E-13  0.7603E-17  0.1000E-09  0.0000E+00  0.4791E+15
   -1.581256    3.56437  0.5517E-12  0.1219E-13  0.7603E-17  0.1000E-09  0.0000E+00  0.3714E+15
   -1.650008    3.62449  0.5517E-12  0.1219E-13  0.7603E-17  0.1000E-09  0.0000E+00  0.2842E+15
   -1.718760    3.67838  0.5517E-12  0.1219E-13  0.7603E-17  0.1000E-09  0.0000E+00  0.2147E+15
   -1.787512    3.72643  0.5517E-12  0.1219E-13  0.7603E-17  0.1000E-09  0.0000E+00  0.1609E+15
   -1.856263    3.76936  0.5517E-12  0.2103E-13  0.7687E-17  0.1000E-09  0.0000E+00  0.1174E+15
   -1.925015    3.80706  0.5517E-12  0.7899E-13  0.1678E-16  0.1000E-09  0.0000E+00  0.8262E+14
   -1.993766    3.83930  0.5517E-12  0.2523E-12  0.4909E-16  0.1000E-09  0.0000E+00  0.5600E+14
   -2.062516    3.86598  0.5517E-12  0.7484E-12  0.1415E-15  0.1000E-09  0.0000E+00  0.4113E+14
   -2.131267    3.89020  0.5517E-12  0.2176E-11  0.4031E-15  0.1000E-09  0.0000E+00  0.2990E+14
   -2.200017    3.91265  0.5517E-12  0.6266E-11  0.1143E-14  0.2625E-09  0.0000E+00  0.2079E+14
   -2.268766    3.93363  0.5517E-12  0.1807E-10  0.3262E-14  0.1098E-08  0.0000E+00  0.1375E+14
   -2.337516    3.95436  0.5517E-12  0.5267E-10  0.9485E-14  0.5743E-08  0.0000E+00  0.7083E+13
   -2.406264    3.97547  0.5517E-12  0.1513E-09  0.2777E-13  0.6960E-07  0.0000E+00  0.6824E+12
   -2.475012    3.99210  0.5517E-12  0.3805E-09  0.8195E-13  0.4754E-06  0.0000E+00 -0.1082E+13
   -2.543760    3.99941  0.5517E-12  0.6689E-09  0.1965E-12  0.6530E-06  0.0000E+00 -0.2111E+13
   -2.612507    4.00731  0.5517E-12  0.1062E-08  0.5072E-12  0.6372E-06  0.0000E+00 -0.5586E+13
   -2.681253    4.02029  0.5517E-12  0.1755E-08  0.1833E-11  0.5373E-06  0.0000E+00 -0.2861E+14
   -2.749999    4.05566  0.5517E-12  0.0000E+00  0.0000E+00  0.0000E+00  0.0000E+00  0.0000E+00
