 1 - depth, m
 2 - temperature, C
 3 - salinity, kg/kg
 4 - turbulent kinetic energy, m**2/s**2
 5 - dissipation rate, m**2/s**3
 6 - kinematic heat conductance, m**2/s
 7 - modulus of horizontal velocity, m/s
 8 - Richardson number, n/d
   -0.000000   -0.00000  0.2242E-11  0.1219E-13  0.7603E-17  0.1000E-09  0.0000E+00  0.8912E+16
   -0.068746    0.13618  0.6879E-12  0.1219E-13  0.7603E-17  0.1000E-09  0.0000E+00  0.8485E+16
   -0.137492    0.27079  0.5055E-12  0.1219E-13  0.7603E-17  0.1000E-09  0.0000E+00  0.8107E+16
   -0.206239    0.40441  0.4901E-12  0.1219E-13  0.7603E-17  0.1000E-09  0.0000E+00  0.7774E+16
   -0.274987    0.53772  0.4891E-12  0.1219E-13  0.7603E-17  0.1000E-09  0.0000E+00  0.7481E+16
   -0.343735    0.67138  0.4887E-12  0.1219E-13  0.7603E-17  0.1000E-09  0.0000E+00  0.7221E+16
   -0.412483    0.80603  0.4880E-12  0.1219E-13  0.7603E-17  0.1000E-09  0.0000E+00  0.6985E+16
   -0.481232    0.94224  0.4867E-12  0.1219E-13  0.7603E-17  0.1000E-09  0.0000E+00  0.6764E+16
   -0.549982    1.08054  0.4851E-12  0.2239E-13  0.7603E-17  0.1000E-09  0.0000E+00  0.6549E+16
   -0.618732    1.22138  0.4829E-12  0.8078E-13  0.1067E-16  0.1000E-09  0.0000E+00  0.6334E+16
   -0.687482    1.36513  0.4793E-12  0.2068E-12  0.2209E-16  0.1000E-09  0.0000E+00  0.6127E+16
   -0.756233    1.51249  0.4735E-12  0.4730E-12  0.4746E-16  0.1000E-09  0.0000E+00  0.5912E+16
   -0.824984    1.66390  0.4661E-12  0.1040E-11  0.1010E-15  0.1000E-09  0.0000E+00  0.5670E+16
   -0.893735    1.81944  0.4593E-12  0.2246E-11  0.2123E-15  0.1000E-09  0.0000E+00  0.5397E+16
   -0.962486    1.97907  0.4557E-12  0.4797E-11  0.4422E-15  0.1000E-09  0.0000E+00  0.5089E+16
   -1.031238    2.14265  0.4554E-12  0.1015E-10  0.9127E-15  0.1000E-09  0.0000E+00  0.4743E+16
   -1.099990    2.30992  0.4556E-12  0.2127E-10  0.1868E-14  0.1000E-09  0.0000E+00  0.4361E+16
   -1.168742    2.48049  0.4556E-12  0.4422E-10  0.3790E-14  0.1000E-09  0.0000E+00  0.3944E+16
   -1.237494    2.65391  0.4556E-12  0.9113E-10  0.7627E-14  0.1000E-09  0.0000E+00  0.3494E+16
   -1.306246    2.82963  0.4556E-12  0.1863E-09  0.1523E-13  0.1000E-09  0.0000E+00  0.3019E+16
   -1.374999    3.00702  0.4556E-12  0.3777E-09  0.3016E-13  0.1000E-09  0.0000E+00  0.2524E+16
   -1.443751    3.18549  0.4556E-12  0.7596E-09  0.5928E-13  0.1497E-09  0.0000E+00  0.2015E+16
   -1.512503    3.36427  0.4556E-12  0.1516E-08  0.1156E-12  0.3924E-09  0.0000E+00  0.1499E+16
   -1.581255    3.54234  0.4556E-12  0.3000E-08  0.2237E-12  0.1154E-08  0.0000E+00  0.9865E+15
   -1.650007    3.71821  0.4556E-12  0.5879E-08  0.4290E-12  0.4465E-08  0.0000E+00  0.4889E+15
   -1.718759    3.88806  0.4556E-12  0.1113E-07  0.7973E-12  0.5710E-07  0.0000E+00  0.7094E+14
   -1.787511    4.01089  0.4556E-12  0.1183E-07  0.8497E-12  0.6509E-04  0.0000E+00 -0.1456E+12
   -1.856262    4.01127  0.4556E-12  0.1214E-07  0.8788E-12  0.6877E-04  0.0000E+00 -0.1417E+12
   -1.925013    4.01163  0.4556E-12  0.1242E-07  0.9106E-12  0.7021E-04  0.0000E+00 -0.1431E+12
   -1.993764    4.01198  0.4556E-12  0.1266E-07  0.9468E-12  0.6982E-04  0.0000E+00 -0.1483E+12
   -2.062515    4.01235  0.4556E-12  0.1287E-07  0.9877E-12  0.6661E-04  0.0000E+00 -0.1583E+12
   -2.131265    4.01274  0.4556E-12  0.1303E-07  0.1035E-11  0.6231E-04  0.0000E+00 -0.1725E+12
   -2.200015    4.01315  0.4556E-12  0.1316E-07  0.1091E-11  0.5772E-04  0.0000E+00 -0.1902E+12
   -2.268765    4.01360  0.4556E-12  0.1323E-07  0.1161E-11  0.5309E-04  0.0000E+00 -0.2123E+12
   -2.337514    4.01409  0.4556E-12  0.1325E-07  0.1255E-11  0.4775E-04  0.0000E+00 -0.2439E+12
   -2.406263    4.01464  0.4556E-12  0.1320E-07  0.1388E-11  0.4122E-04  0.0000E+00 -0.2944E+12
   -2.475011    4.01530  0.4556E-12  0.1305E-07  0.1597E-11  0.3319E-04  0.0000E+00 -0.3868E+12
   -2.543758    4.01614  0.4556E-12  0.1273E-07  0.1982E-11  0.2349E-04  0.0000E+00 -0.5937E+12
   -2.612505    4.01738  0.4556E-12  0.1199E-07  0.2936E-11  0.1233E-04  0.0000E+00 -0.1321E+13
   -2.681251    4.01999  0.4556E-12  0.8891E-08  0.9072E-11  0.1698E-05  0.0000E+00 -0.1697E+14
   -2.749997    4.04377  0.4556E-12  0.0000E+00  0.0000E+00  0.0000E+00  0.0000E+00  0.0000E+00
