 1 - depth, m
 2 - temperature, C
 3 - salinity, kg/kg
 4 - turbulent kinetic energy, m**2/s**2
 5 - dissipation rate, m**2/s**3
 6 - kinematic heat conductance, m**2/s
 7 - modulus of horizontal velocity, m/s
 8 - Richardson number, n/d
   -0.000000   -0.00000  0.1950E-11  0.1219E-13  0.7603E-17  0.1000E-09  0.0000E+00  0.9875E+16
   -0.068746    0.15119  0.1125E-11  0.1219E-13  0.7603E-17  0.1000E-09  0.0000E+00  0.9432E+16
   -0.137492    0.30178  0.7253E-12  0.1219E-13  0.7603E-17  0.1000E-09  0.0000E+00  0.8981E+16
   -0.206239    0.45152  0.5678E-12  0.1219E-13  0.7603E-17  0.1000E-09  0.0000E+00  0.8525E+16
   -0.274987    0.60017  0.5115E-12  0.1219E-13  0.7603E-17  0.1000E-09  0.0000E+00  0.8070E+16
   -0.343735    0.74753  0.4930E-12  0.1219E-13  0.7603E-17  0.1000E-09  0.0000E+00  0.7617E+16
   -0.412484    0.89344  0.4865E-12  0.1219E-13  0.7603E-17  0.1000E-09  0.0000E+00  0.7170E+16
   -0.481233    1.03772  0.4831E-12  0.1219E-13  0.7603E-17  0.1000E-09  0.0000E+00  0.6731E+16
   -0.549982    1.18025  0.4797E-12  0.1219E-13  0.7603E-17  0.1000E-09  0.0000E+00  0.6300E+16
   -0.618732    1.32090  0.4757E-12  0.1219E-13  0.7603E-17  0.1000E-09  0.0000E+00  0.5880E+16
   -0.687483    1.45955  0.4711E-12  0.1219E-13  0.7603E-17  0.1000E-09  0.0000E+00  0.5476E+16
   -0.756233    1.59621  0.4664E-12  0.1219E-13  0.7603E-17  0.1000E-09  0.0000E+00  0.5085E+16
   -0.824984    1.73083  0.4622E-12  0.1219E-13  0.7603E-17  0.1000E-09  0.0000E+00  0.4706E+16
   -0.893736    1.86332  0.4591E-12  0.1219E-13  0.7603E-17  0.1000E-09  0.0000E+00  0.4340E+16
   -0.962487    1.99357  0.4572E-12  0.1219E-13  0.7603E-17  0.1000E-09  0.0000E+00  0.3986E+16
   -1.031239    2.12146  0.4562E-12  0.1219E-13  0.7603E-17  0.1000E-09  0.0000E+00  0.3645E+16
   -1.099991    2.24689  0.4558E-12  0.1219E-13  0.7603E-17  0.1000E-09  0.0000E+00  0.3317E+16
   -1.168743    2.36976  0.4557E-12  0.1219E-13  0.7603E-17  0.1000E-09  0.0000E+00  0.3004E+16
   -1.237495    2.48994  0.4556E-12  0.1219E-13  0.7603E-17  0.1000E-09  0.0000E+00  0.2705E+16
   -1.306247    2.60734  0.4556E-12  0.1219E-13  0.7603E-17  0.1000E-09  0.0000E+00  0.2421E+16
   -1.375000    2.72184  0.4556E-12  0.1219E-13  0.7603E-17  0.1000E-09  0.0000E+00  0.2153E+16
   -1.443752    2.83337  0.4556E-12  0.1219E-13  0.7603E-17  0.1000E-09  0.0000E+00  0.1900E+16
   -1.512504    2.94183  0.4556E-12  0.1219E-13  0.7603E-17  0.1000E-09  0.0000E+00  0.1662E+16
   -1.581256    3.04713  0.4556E-12  0.1219E-13  0.7603E-17  0.1000E-09  0.0000E+00  0.1440E+16
   -1.650008    3.14919  0.4556E-12  0.1219E-13  0.7603E-17  0.1000E-09  0.0000E+00  0.1234E+16
   -1.718760    3.24790  0.4556E-12  0.5381E-13  0.1174E-16  0.1000E-09  0.0000E+00  0.1042E+16
   -1.787512    3.34318  0.4556E-12  0.1745E-12  0.3184E-16  0.1000E-09  0.0000E+00  0.8587E+15
   -1.856263    3.43402  0.4556E-12  0.5165E-12  0.8960E-16  0.1000E-09  0.0000E+00  0.6903E+15
   -1.925015    3.51983  0.4556E-12  0.1488E-11  0.2496E-15  0.1000E-09  0.0000E+00  0.5379E+15
   -1.993766    3.59980  0.4556E-12  0.4237E-11  0.6893E-15  0.1000E-09  0.0000E+00  0.4062E+15
   -2.062517    3.67356  0.4556E-12  0.1168E-10  0.1844E-14  0.1000E-09  0.0000E+00  0.3108E+15
   -2.131267    3.74484  0.4556E-12  0.3170E-10  0.4862E-14  0.1094E-09  0.0000E+00  0.2252E+15
   -2.200017    3.81411  0.4556E-12  0.8514E-10  0.1269E-13  0.4390E-09  0.0000E+00  0.1462E+15
   -2.268766    3.88129  0.4556E-12  0.2281E-09  0.3305E-13  0.2247E-08  0.0000E+00  0.7405E+14
   -2.337516    3.94649  0.4556E-12  0.6059E-09  0.8572E-13  0.3649E-07  0.0000E+00  0.1122E+14
   -2.406264    3.99883  0.4556E-12  0.1233E-08  0.1762E-12  0.3382E-05  0.0000E+00 -0.5946E+12
   -2.475012    4.00156  0.4556E-12  0.1545E-08  0.2498E-12  0.3485E-05  0.0000E+00 -0.7370E+12
   -2.543760    4.00438  0.4556E-12  0.1766E-08  0.3651E-12  0.2894E-05  0.0000E+00 -0.1159E+13
   -2.612507    4.00810  0.4556E-12  0.1893E-08  0.6298E-12  0.1750E-05  0.0000E+00 -0.2839E+13
   -2.681253    4.01524  0.4556E-12  0.1897E-08  0.1749E-11  0.5837E-06  0.0000E+00 -0.2063E+14
   -2.749999    4.04524  0.4556E-12  0.0000E+00  0.0000E+00  0.0000E+00  0.0000E+00  0.0000E+00
