 1 - depth, m
 2 - temperature, C
 3 - salinity, kg/kg
 4 - turbulent kinetic energy, m**2/s**2
 5 - dissipation rate, m**2/s**3
 6 - kinematic heat conductance, m**2/s
 7 - modulus of horizontal velocity, m/s
 8 - Richardson number, n/d
   -0.000000   -0.00000  0.1395E-11  0.1219E-13  0.7603E-17  0.1000E-09  0.0000E+00  0.7614E+16
   -0.068746    0.11603  0.7154E-12  0.1219E-13  0.7603E-17  0.1000E-09  0.0000E+00  0.7301E+16
   -0.137492    0.23087  0.4537E-12  0.1219E-13  0.7603E-17  0.1000E-09  0.0000E+00  0.7018E+16
   -0.206239    0.34491  0.3868E-12  0.1219E-13  0.7603E-17  0.1000E-09  0.0000E+00  0.6765E+16
   -0.274987    0.45855  0.3738E-12  0.1219E-13  0.7603E-17  0.1000E-09  0.0000E+00  0.6540E+16
   -0.343735    0.57222  0.3717E-12  0.1219E-13  0.7603E-17  0.1000E-09  0.0000E+00  0.6340E+16
   -0.412483    0.68637  0.3714E-12  0.1219E-13  0.7603E-17  0.1000E-09  0.0000E+00  0.6161E+16
   -0.481233    0.80144  0.3714E-12  0.1219E-13  0.7603E-17  0.1000E-09  0.0000E+00  0.5999E+16
   -0.549982    0.91786  0.3714E-12  0.1219E-13  0.7603E-17  0.1000E-09  0.0000E+00  0.5850E+16
   -0.618732    1.03605  0.3714E-12  0.1219E-13  0.7603E-17  0.1000E-09  0.0000E+00  0.5710E+16
   -0.687482    1.15639  0.3714E-12  0.1219E-13  0.7603E-17  0.1000E-09  0.0000E+00  0.5588E+16
   -0.756233    1.27961  0.3714E-12  0.1219E-13  0.7603E-17  0.1000E-09  0.0000E+00  0.5472E+16
   -0.824984    1.40622  0.3714E-12  0.1256E-13  0.7603E-17  0.1000E-09  0.0000E+00  0.5347E+16
   -0.893735    1.53655  0.3714E-12  0.4098E-13  0.8028E-17  0.1000E-09  0.0000E+00  0.5209E+16
   -0.962487    1.67085  0.3713E-12  0.1223E-12  0.1572E-16  0.1000E-09  0.0000E+00  0.5052E+16
   -1.031239    1.80935  0.3711E-12  0.3088E-12  0.3605E-16  0.1000E-09  0.0000E+00  0.4874E+16
   -1.099991    1.95220  0.3707E-12  0.7383E-12  0.8305E-16  0.1000E-09  0.0000E+00  0.4669E+16
   -1.168743    2.09951  0.3698E-12  0.1731E-11  0.1896E-15  0.1000E-09  0.0000E+00  0.4434E+16
   -1.237495    2.25133  0.3681E-12  0.4014E-11  0.4288E-15  0.1000E-09  0.0000E+00  0.4166E+16
   -1.306247    2.40765  0.3658E-12  0.9226E-11  0.9609E-15  0.1000E-09  0.0000E+00  0.3863E+16
   -1.374999    2.56833  0.3632E-12  0.2100E-10  0.2132E-14  0.1000E-09  0.0000E+00  0.3528E+16
   -1.443751    2.73341  0.3610E-12  0.4734E-10  0.4683E-14  0.1000E-09  0.0000E+00  0.3154E+16
   -1.512504    2.90255  0.3598E-12  0.1056E-09  0.1017E-13  0.1000E-09  0.0000E+00  0.2738E+16
   -1.581256    3.07503  0.3593E-12  0.2329E-09  0.2185E-13  0.1000E-09  0.0000E+00  0.2284E+16
   -1.650008    3.24971  0.3590E-12  0.5076E-09  0.4638E-13  0.1357E-09  0.0000E+00  0.1800E+16
   -1.718760    3.42490  0.3588E-12  0.1093E-08  0.9729E-13  0.3800E-09  0.0000E+00  0.1302E+16
   -1.787512    3.59881  0.3586E-12  0.2379E-08  0.2062E-12  0.1263E-08  0.0000E+00  0.8232E+15
   -1.856263    3.77306  0.3584E-12  0.5188E-08  0.4381E-12  0.6600E-08  0.0000E+00  0.3397E+15
   -1.925014    3.95144  0.3583E-12  0.8220E-08  0.6992E-12  0.1117E-04  0.0000E+00  0.1469E+14
   -1.993765    4.00588  0.3583E-12  0.8999E-08  0.7724E-12  0.4134E-04  0.0000E+00 -0.2132E+12
   -2.062516    4.00663  0.3583E-12  0.9398E-08  0.8188E-12  0.4200E-04  0.0000E+00 -0.2184E+12
   -2.131266    4.00736  0.3583E-12  0.9726E-08  0.8681E-12  0.4178E-04  0.0000E+00 -0.2273E+12
   -2.200016    4.00808  0.3583E-12  0.9987E-08  0.9225E-12  0.4070E-04  0.0000E+00 -0.2410E+12
   -2.268766    4.00882  0.3583E-12  0.1018E-07  0.9863E-12  0.3877E-04  0.0000E+00 -0.2623E+12
   -2.337515    4.00959  0.3583E-12  0.1031E-07  0.1068E-11  0.3578E-04  0.0000E+00 -0.2959E+12
   -2.406264    4.01042  0.3583E-12  0.1037E-07  0.1181E-11  0.3158E-04  0.0000E+00 -0.3515E+12
   -2.475012    4.01137  0.3583E-12  0.1033E-07  0.1355E-11  0.2594E-04  0.0000E+00 -0.4545E+12
   -2.543759    4.01254  0.3583E-12  0.1013E-07  0.1669E-11  0.1870E-04  0.0000E+00 -0.6863E+12
   -2.612506    4.01421  0.3583E-12  0.9572E-08  0.2441E-11  0.9985E-05  0.0000E+00 -0.1500E+13
   -2.681253    4.01752  0.3583E-12  0.7251E-08  0.7075E-11  0.1539E-05  0.0000E+00 -0.1688E+14
   -2.749998    4.04237  0.3583E-12  0.0000E+00  0.0000E+00  0.0000E+00  0.0000E+00  0.0000E+00
