 1 - depth, m
 2 - temperature, C
 3 - salinity, kg/kg
 4 - turbulent kinetic energy, m**2/s**2
 5 - dissipation rate, m**2/s**3
 6 - kinematic heat conductance, m**2/s
 7 - modulus of horizontal velocity, m/s
 8 - Richardson number, n/d
   -0.000000   -0.00000  0.6535E-11  0.1219E-13  0.7603E-17  0.1000E-09  0.0000E+00  0.1750E+17
   -0.068746    0.27245  0.3868E-12  0.1219E-13  0.7603E-17  0.1000E-09  0.0000E+00  0.1598E+17
   -0.137492    0.54132  0.5629E-12  0.1219E-13  0.7603E-17  0.1000E-09  0.0000E+00  0.1439E+17
   -0.206239    0.80399  0.5514E-12  0.1219E-13  0.7603E-17  0.1000E-09  0.0000E+00  0.1280E+17
   -0.274987    1.05855  0.5517E-12  0.1219E-13  0.7603E-17  0.1000E-09  0.0000E+00  0.1127E+17
   -0.343735    1.30362  0.5517E-12  0.1219E-13  0.7603E-17  0.1000E-09  0.0000E+00  0.9828E+16
   -0.412483    1.53826  0.5517E-12  0.1219E-13  0.7603E-17  0.1000E-09  0.0000E+00  0.8493E+16
   -0.481233    1.76175  0.5517E-12  0.1219E-13  0.7603E-17  0.1000E-09  0.0000E+00  0.7274E+16
   -0.549982    1.97360  0.5517E-12  0.1219E-13  0.7603E-17  0.1000E-09  0.0000E+00  0.6175E+16
   -0.618732    2.17346  0.5517E-12  0.1219E-13  0.7603E-17  0.1000E-09  0.0000E+00  0.5194E+16
   -0.687483    2.36112  0.5517E-12  0.1219E-13  0.7603E-17  0.1000E-09  0.0000E+00  0.4336E+16
   -0.756233    2.53678  0.5517E-12  0.1219E-13  0.7603E-17  0.1000E-09  0.0000E+00  0.3587E+16
   -0.824984    2.70061  0.5517E-12  0.1219E-13  0.7603E-17  0.1000E-09  0.0000E+00  0.2938E+16
   -0.893736    2.85267  0.5517E-12  0.1219E-13  0.7603E-17  0.1000E-09  0.0000E+00  0.2380E+16
   -0.962487    2.99311  0.5517E-12  0.1219E-13  0.7603E-17  0.1000E-09  0.0000E+00  0.1905E+16
   -1.031239    3.12214  0.5517E-12  0.3360E-13  0.7603E-17  0.1000E-09  0.0000E+00  0.1506E+16
   -1.099991    3.24003  0.5517E-12  0.9924E-13  0.8992E-17  0.1000E-09  0.0000E+00  0.1175E+16
   -1.168743    3.34708  0.5517E-12  0.2178E-12  0.1442E-16  0.1000E-09  0.0000E+00  0.9027E+15
   -1.237495    3.44369  0.5517E-12  0.4201E-12  0.2515E-16  0.1000E-09  0.0000E+00  0.6826E+15
   -1.306247    3.53026  0.5517E-12  0.7678E-12  0.4407E-16  0.1000E-09  0.0000E+00  0.5069E+15
   -1.374999    3.60724  0.5517E-12  0.1369E-11  0.7660E-16  0.1000E-09  0.0000E+00  0.3712E+15
   -1.443752    3.67556  0.5517E-12  0.2409E-11  0.1321E-15  0.1000E-09  0.0000E+00  0.2663E+15
   -1.512504    3.73587  0.5517E-12  0.4202E-11  0.2262E-15  0.1000E-09  0.0000E+00  0.1861E+15
   -1.581256    3.78869  0.5517E-12  0.7277E-11  0.3849E-15  0.1000E-09  0.0000E+00  0.1259E+15
   -1.650008    3.83457  0.5517E-12  0.1253E-10  0.6514E-15  0.1000E-09  0.0000E+00  0.8189E+14
   -1.718760    3.87408  0.5517E-12  0.2144E-10  0.1097E-14  0.1215E-09  0.0000E+00  0.5056E+14
   -1.787512    3.90787  0.5517E-12  0.3716E-10  0.1872E-14  0.3313E-09  0.0000E+00  0.2928E+14
   -1.856263    3.93710  0.5517E-12  0.6528E-10  0.3239E-14  0.1179E-08  0.0000E+00  0.1431E+14
   -1.925015    3.96189  0.5517E-12  0.1149E-09  0.5626E-14  0.6875E-08  0.0000E+00  0.4468E+13
   -1.993766    3.98142  0.5517E-12  0.1924E-09  0.9387E-14  0.3579E-06  0.0000E+00  0.2620E+12
   -2.062516    3.98788  0.5517E-12  0.2805E-09  0.1435E-13  0.1347E-05  0.0000E+00 -0.5642E+11
   -2.131267    3.98942  0.5517E-12  0.3610E-09  0.2024E-13  0.1768E-05  0.0000E+00 -0.7469E+11
   -2.200017    3.99069  0.5517E-12  0.4416E-09  0.2795E-13  0.1970E-05  0.0000E+00 -0.9727E+11
   -2.268766    3.99193  0.5517E-12  0.5259E-09  0.3885E-13  0.2048E-05  0.0000E+00 -0.1342E+12
   -2.337515    3.99329  0.5517E-12  0.6200E-09  0.5573E-13  0.2002E-05  0.0000E+00 -0.1999E+12
   -2.406264    3.99492  0.5517E-12  0.7296E-09  0.8414E-13  0.1837E-05  0.0000E+00 -0.3289E+12
   -2.475012    3.99708  0.5517E-12  0.8656E-09  0.1378E-12  0.1570E-05  0.0000E+00 -0.6232E+12
   -2.543760    4.00030  0.5517E-12  0.1050E-08  0.2562E-12  0.1219E-05  0.0000E+00 -0.1446E+13
   -2.612507    4.00581  0.5517E-12  0.1348E-08  0.5951E-12  0.8571E-06  0.0000E+00 -0.4692E+13
   -2.681253    4.01760  0.5517E-12  0.1998E-08  0.2103E-11  0.5967E-06  0.0000E+00 -0.2877E+14
   -2.749999    4.05454  0.5517E-12  0.0000E+00  0.0000E+00  0.0000E+00  0.0000E+00  0.0000E+00
