 1 - depth, m
 2 - temperature, C
 3 - salinity, kg/kg
 4 - turbulent kinetic energy, m**2/s**2
 5 - dissipation rate, m**2/s**3
 6 - kinematic heat conductance, m**2/s
 7 - modulus of horizontal velocity, m/s
 8 - Richardson number, n/d
   -0.000000   18.27264  0.3750E-12  0.2293E-05  0.5117E-07  0.1017E-04  0.2035E-01  0.7952E-01
   -0.068746   18.16802  0.3750E-12  0.1791E-05  0.1977E-07  0.1579E-04  0.1369E-01  0.2887E+00
   -0.137492   18.01592  0.3751E-12  0.1663E-05  0.1114E-07  0.1940E-04  0.8608E-02  0.9700E+00
   -0.206239   17.83884  0.3752E-12  0.2371E-05  0.7590E-08  0.2539E-04  0.4721E-02  0.2985E+01
   -0.274987   17.70437  0.3752E-12  0.3437E-05  0.6550E-08  0.3570E-04  0.2353E-02  0.2630E+02
   -0.343735   17.67175  0.3752E-12  0.4086E-05  0.6042E-08  0.6310E-04  0.1497E-02  0.1093E+03
   -0.412484   17.66678  0.3752E-12  0.4506E-05  0.5767E-08  0.1117E-03  0.1210E-02  0.1819E+03
   -0.481233   17.66480  0.3752E-12  0.4811E-05  0.5651E-08  0.1935E-03  0.1011E-02  0.2079E+03
   -0.549983   17.66430  0.3752E-12  0.5089E-05  0.5672E-08  0.2981E-03  0.9141E-03  0.1882E+03
   -0.618733   17.66408  0.3752E-12  0.5359E-05  0.5783E-08  0.4273E-03  0.8426E-03  0.1377E+03
   -0.687483   17.66398  0.3752E-12  0.5627E-05  0.5961E-08  0.6003E-03  0.7862E-03  0.2584E+05
   -0.756234   17.66396  0.3752E-12  0.5857E-05  0.6150E-08  0.1355E-02  0.7400E-03  0.9330E+04
   -0.824985   17.66397  0.3752E-12  0.6036E-05  0.6314E-08  0.1895E-02  0.7042E-03  0.9281E+01
   -0.893736   17.66400  0.3752E-12  0.6207E-05  0.6487E-08  0.1885E-02  0.6712E-03  0.9579E+01
   -0.962488   17.66405  0.3752E-12  0.6394E-05  0.6703E-08  0.1885E-02  0.6371E-03  0.1254E+02
   -1.031240   17.66412  0.3752E-12  0.6595E-05  0.6959E-08  0.1893E-02  0.6024E-03  0.1561E+02
   -1.099992   17.66421  0.3752E-12  0.6806E-05  0.7252E-08  0.1905E-02  0.5670E-03  0.1879E+02
   -1.168744   17.66433  0.3752E-12  0.7022E-05  0.7579E-08  0.1918E-02  0.5311E-03  0.2203E+02
   -1.237496   17.66446  0.3752E-12  0.7239E-05  0.7935E-08  0.1930E-02  0.4949E-03  0.2547E+02
   -1.306248   17.66462  0.3752E-12  0.7453E-05  0.8318E-08  0.1940E-02  0.4587E-03  0.2900E+02
   -1.375001   17.66481  0.3752E-12  0.7661E-05  0.8724E-08  0.1947E-02  0.4224E-03  0.3280E+02
   -1.443753   17.66502  0.3752E-12  0.7859E-05  0.9151E-08  0.1948E-02  0.3863E-03  0.3674E+02
   -1.512505   17.66526  0.3752E-12  0.8043E-05  0.9597E-08  0.1945E-02  0.3504E-03  0.4105E+02
   -1.581258   17.66553  0.3752E-12  0.8210E-05  0.1006E-07  0.1935E-02  0.3149E-03  0.4555E+02
   -1.650010   17.66582  0.3752E-12  0.8357E-05  0.1053E-07  0.1918E-02  0.2797E-03  0.5076E+02
   -1.718762   17.66615  0.3752E-12  0.8480E-05  0.1102E-07  0.1897E-02  0.2449E-03  0.5698E+02
   -1.787514   17.66651  0.3752E-12  0.8579E-05  0.1152E-07  0.1888E-02  0.2110E-03  0.6459E+02
   -1.856265   17.66688  0.3752E-12  0.8662E-05  0.1208E-07  0.1872E-02  0.1836E-03  0.7942E+02
   -1.925017   17.66727  0.3752E-12  0.8730E-05  0.1270E-07  0.1826E-02  0.1617E-03  0.9925E+02
   -1.993768   17.66767  0.3752E-12  0.8785E-05  0.1341E-07  0.1753E-02  0.1444E-03  0.1274E+03
   -2.062518   17.66811  0.3752E-12  0.8825E-05  0.1421E-07  0.1671E-02  0.1300E-03  0.1673E+03
   -2.131269   17.66858  0.3752E-12  0.8846E-05  0.1513E-07  0.1580E-02  0.1176E-03  0.2137E+03
   -2.200019   17.66911  0.3752E-12  0.8847E-05  0.1620E-07  0.1480E-02  0.1063E-03  0.2826E+03
   -2.268769   17.66970  0.3752E-12  0.8820E-05  0.1751E-07  0.1366E-02  0.9580E-04  0.3845E+03
   -2.337518   17.67036  0.3752E-12  0.8756E-05  0.1925E-07  0.1231E-02  0.8560E-04  0.5700E+03
   -2.406266   17.67112  0.3752E-12  0.8643E-05  0.2171E-07  0.1080E-02  0.7563E-04  0.9425E+03
   -2.475015   17.67201  0.3752E-12  0.8456E-05  0.2559E-07  0.8643E-03  0.6575E-04  0.1860E+04
   -2.543762   17.67316  0.3752E-12  0.8147E-05  0.3249E-07  0.7806E-03  0.5559E-04  0.4062E+04
   -2.612509   17.67448  0.3752E-12  0.7455E-05  0.5415E-07  0.3494E-03  0.4657E-04 -0.1438E+05
   -2.681256   17.67963  0.3752E-12  0.4776E-05  0.1824E-06  0.9055E-04  0.3007E-04 -0.3907E+06
   -2.750002   17.69268  0.3752E-12  0.0000E+00  0.0000E+00  0.0000E+00  0.3333E-04  0.0000E+00
