 1 - depth, m
 2 - temperature, C
 3 - salinity, kg/kg
 4 - turbulent kinetic energy, m**2/s**2
 5 - dissipation rate, m**2/s**3
 6 - kinematic heat conductance, m**2/s
 7 - modulus of horizontal velocity, m/s
 8 - Richardson number, n/d
   -0.000000   -0.00000  0.2424E-13  0.2549E-07  0.6577E-10  0.1039E-07  0.0000E+00  0.3184E+17
   -0.068747    0.51281  0.1198E-12  0.2819E-06  0.4019E-10  0.1014E-07  0.0000E+00  0.2014E+17
   -0.137494    0.88362  0.3423E-12  0.9155E-06  0.3444E-10  0.1455E-07  0.0000E+00  0.1205E+17
   -0.206242    1.12959  0.5683E-12  0.1781E-05  0.3612E-10  0.2960E-07  0.0000E+00  0.6215E+16
   -0.274990    1.26568  0.6810E-12  0.2792E-05  0.4161E-10  0.1194E-06  0.0000E+00  0.1807E+16
   -0.343739    1.30665  0.7096E-12  0.2792E-05  0.4161E-10  0.5760E-01  0.0000E+00  0.8222E+08
   -0.412489    1.30665  0.7096E-12  0.2792E-05  0.4161E-10  0.5736E-01  0.0000E+00 -0.6370E+10
   -0.481239    1.30665  0.7096E-12  0.2792E-05  0.4161E-10  0.5733E-01  0.0000E+00 -0.1170E+11
   -0.549989    1.30665  0.7096E-12  0.2792E-05  0.4161E-10  0.5733E-01  0.0000E+00 -0.1501E+11
   -0.618740    1.30665  0.7096E-12  0.2792E-05  0.4161E-10  0.5732E-01  0.0000E+00 -0.1801E+11
   -0.687491    1.30665  0.7096E-12  0.2792E-05  0.4162E-10  0.5732E-01  0.0000E+00 -0.1896E+11
   -0.756243    1.30665  0.7096E-12  0.2792E-05  0.4162E-10  0.5731E-01  0.0000E+00 -0.2011E+11
   -0.824995    1.30665  0.7096E-12  0.2792E-05  0.4162E-10  0.5732E-01  0.0000E+00 -0.1935E+11
   -0.893747    1.30665  0.7096E-12  0.2792E-05  0.4161E-10  0.5731E-01  0.0000E+00 -0.1902E+11
   -0.962499    1.30665  0.7096E-12  0.2792E-05  0.4161E-10  0.5732E-01  0.0000E+00 -0.1702E+11
   -1.031252    1.30665  0.7096E-12  0.2792E-05  0.4161E-10  0.5732E-01  0.0000E+00 -0.1551E+11
   -1.100005    1.30665  0.7096E-12  0.2792E-05  0.4161E-10  0.5733E-01  0.0000E+00 -0.1262E+11
   -1.168758    1.30665  0.7096E-12  0.2792E-05  0.4161E-10  0.5734E-01  0.0000E+00 -0.1011E+11
   -1.237511    1.30665  0.7096E-12  0.2792E-05  0.4161E-10  0.5736E-01  0.0000E+00 -0.6590E+10
   -1.306264    1.30665  0.7096E-12  0.2792E-05  0.4161E-10  0.5740E-01  0.0000E+00 -0.3231E+10
   -1.375017    1.30665  0.7096E-12  0.2792E-05  0.4161E-10  0.5817E-01  0.0000E+00  0.9330E+09
   -1.443770    1.30665  0.7096E-12  0.2792E-05  0.4161E-10  0.3193E-06  0.0000E+00  0.6703E+15
   -1.512523    1.32203  0.7105E-12  0.2189E-05  0.3359E-10  0.5523E-07  0.0000E+00  0.3098E+16
   -1.581276    1.39424  0.7136E-12  0.1590E-05  0.2590E-10  0.2216E-07  0.0000E+00  0.5946E+16
   -1.650029    1.53901  0.7198E-12  0.1120E-05  0.2023E-10  0.1155E-07  0.0000E+00  0.8913E+16
   -1.718782    1.77449  0.7290E-12  0.7674E-06  0.1666E-10  0.7477E-08  0.0000E+00  0.1134E+17
   -1.787534    2.11838  0.7355E-12  0.5001E-06  0.1539E-10  0.8091E-08  0.0000E+00  0.9576E+16
   -1.856287    2.47321  0.7377E-12  0.3011E-06  0.1766E-10  0.1040E-07  0.0000E+00  0.8276E+16
   -1.925039    2.89058  0.7382E-12  0.1886E-06  0.2882E-10  0.3748E-07  0.0000E+00  0.5866E+16
   -1.993791    3.43363  0.7383E-12  0.1488E-06  0.3901E-10  0.6137E-04  0.0000E+00  0.3137E+16
   -2.062542    3.85550  0.7383E-12  0.1501E-06  0.4692E-10  0.1195E-03  0.0000E+00  0.9439E+15
   -2.131294    4.11777  0.7383E-12  0.1535E-06  0.4895E-10  0.1721E-03  0.0000E+00 -0.2610E+13
   -2.200045    4.11937  0.7383E-12  0.1553E-06  0.5084E-10  0.1693E-03  0.0000E+00 -0.2822E+13
   -2.268795    4.12076  0.7383E-12  0.1566E-06  0.5316E-10  0.1652E-03  0.0000E+00 -0.2998E+13
   -2.337545    4.12221  0.7383E-12  0.1573E-06  0.5619E-10  0.1584E-03  0.0000E+00 -0.3240E+13
   -2.406295    4.12375  0.7383E-12  0.1573E-06  0.6036E-10  0.1485E-03  0.0000E+00 -0.3587E+13
   -2.475044    4.12544  0.7383E-12  0.1564E-06  0.6661E-10  0.1338E-03  0.0000E+00 -0.4156E+13
   -2.543792    4.12737  0.7383E-12  0.1540E-06  0.7781E-10  0.1076E-03  0.0000E+00 -0.5474E+13
   -2.612540    4.12991  0.7383E-12  0.1473E-06  0.1064E-09  0.5666E-04  0.0000E+00 -0.1137E+14
   -2.681287    4.13501  0.7383E-12  0.1020E-06  0.3578E-09  0.5422E-05  0.0000E+00 -0.1706E+15
   -2.750034    4.19621  0.7383E-12  0.0000E+00  0.0000E+00  0.0000E+00  0.0000E+00  0.0000E+00
