 1 - depth, m
 2 - temperature, C
 3 - salinity, kg/kg
 4 - turbulent kinetic energy, m**2/s**2
 5 - dissipation rate, m**2/s**3
 6 - kinematic heat conductance, m**2/s
 7 - modulus of horizontal velocity, m/s
 8 - Richardson number, n/d
   -0.000000   -0.00000  0.5395E-12  0.1069E-04  0.3207E-06  0.3307E-04  0.3164E-01  0.1381E-01
   -0.068745    0.01271  0.5393E-12  0.9670E-05  0.1414E-06  0.5924E-04  0.2530E-01  0.2928E-01
   -0.137490    0.01945  0.5392E-12  0.8698E-05  0.8604E-07  0.7621E-04  0.2218E-01  0.4624E-01
   -0.206236    0.02445  0.5391E-12  0.7793E-05  0.5930E-07  0.8577E-04  0.2006E-01  0.6534E-01
   -0.274983    0.02873  0.5391E-12  0.6948E-05  0.4357E-07  0.8939E-04  0.1842E-01  0.8764E-01
   -0.343730    0.03271  0.5390E-12  0.6153E-05  0.3323E-07  0.8817E-04  0.1706E-01  0.1146E+00
   -0.412477    0.03668  0.5389E-12  0.5403E-05  0.2594E-07  0.8300E-04  0.1588E-01  0.1482E+00
   -0.481225    0.04094  0.5388E-12  0.4690E-05  0.2055E-07  0.7470E-04  0.1481E-01  0.1912E+00
   -0.549974    0.04599  0.5387E-12  0.4009E-05  0.1641E-07  0.6414E-04  0.1380E-01  0.2465E+00
   -0.618723    0.05347  0.5385E-12  0.3354E-05  0.1312E-07  0.5228E-04  0.1280E-01  0.3285E+00
   -0.687472    0.06706  0.5380E-12  0.2735E-05  0.1046E-07  0.4009E-04  0.1172E-01  0.6188E+00
   -0.756222    0.08987  0.5375E-12  0.2154E-05  0.8284E-08  0.2843E-04  0.1059E-01  0.4257E+01
   -0.824972    0.12813  0.5369E-12  0.1614E-05  0.6468E-08  0.1811E-04  0.9395E-02  0.6369E+02
   -0.893722    0.19224  0.5362E-12  0.1118E-05  0.4900E-08  0.9826E-05  0.8102E-02  0.1024E+04
   -0.962473    0.29608  0.5356E-12  0.6730E-06  0.3467E-08  0.4039E-05  0.6684E-02  0.1556E+05
   -1.031223    0.45594  0.5353E-12  0.2865E-06  0.1949E-08  0.9364E-06  0.5083E-02  0.2149E+06
   -1.099974    0.71743  0.5359E-12  0.4061E-07  0.4075E-09  0.3907E-07  0.3159E-02  0.2673E+07
   -1.168725    1.10377  0.5368E-12  0.1268E-08  0.1236E-10  0.1901E-08  0.1357E-02  0.3045E+08
   -1.237476    1.39947  0.5372E-12  0.1957E-08  0.1771E-11  0.7113E-09  0.5303E-03  0.3176E+09
   -1.306227    1.64645  0.5373E-12  0.1217E-07  0.4196E-11  0.1696E-08  0.2052E-03  0.2501E+10
   -1.374979    1.94311  0.5373E-12  0.4942E-07  0.1535E-10  0.4945E-08  0.7810E-04  0.1432E+11
   -1.443730    2.43391  0.5373E-12  0.1754E-06  0.5277E-10  0.4802E-07  0.2650E-04  0.8398E+11
   -1.512481    3.19632  0.5373E-12  0.2878E-06  0.8692E-10  0.1532E-03  0.1995E-05  0.5081E+12
   -1.581232    3.80677  0.5373E-12  0.3705E-06  0.1126E-09  0.2908E-03  0.6751E-06  0.1024E+13
   -1.649983    4.16588  0.5373E-12  0.3830E-06  0.1170E-09  0.4098E-03  0.5833E-06 -0.1459E+12
   -1.718734    4.18596  0.5373E-12  0.3864E-06  0.1189E-09  0.4190E-03  0.4973E-06 -0.3785E+12
   -1.787485    4.18681  0.5373E-12  0.3892E-06  0.1209E-09  0.4168E-03  0.4133E-06 -0.4063E+12
   -1.856235    4.18769  0.5373E-12  0.3917E-06  0.1234E-09  0.4134E-03  0.3424E-06 -0.4376E+12
   -1.924986    4.18859  0.5373E-12  0.3939E-06  0.1265E-09  0.4078E-03  0.2835E-06 -0.4912E+12
   -1.993735    4.18953  0.5373E-12  0.3957E-06  0.1302E-09  0.4002E-03  0.2352E-06 -0.5508E+12
   -2.062485    4.19051  0.5373E-12  0.3969E-06  0.1345E-09  0.3908E-03  0.1954E-06 -0.6051E+12
   -2.131234    4.19152  0.5373E-12  0.3976E-06  0.1395E-09  0.3791E-03  0.1602E-06 -0.6741E+12
   -2.199983    4.19257  0.5373E-12  0.3976E-06  0.1456E-09  0.3651E-03  0.1291E-06 -0.7630E+12
   -2.268732    4.19366  0.5373E-12  0.3969E-06  0.1530E-09  0.3481E-03  0.1013E-06 -0.8740E+12
   -2.337480    4.19482  0.5373E-12  0.3953E-06  0.1628E-09  0.3273E-03  0.7774E-07 -0.1022E+13
   -2.406228    4.19607  0.5373E-12  0.3927E-06  0.1762E-09  0.3016E-03  0.5807E-07 -0.1232E+13
   -2.474975    4.19744  0.5373E-12  0.3886E-06  0.1961E-09  0.2697E-03  0.4199E-07 -0.1539E+13
   -2.543721    4.19901  0.5373E-12  0.3820E-06  0.2293E-09  0.2250E-03  0.2907E-07 -0.2075E+13
   -2.612467    4.20094  0.5373E-12  0.3674E-06  0.3135E-09  0.1175E-03  0.1880E-07 -0.4741E+13
   -2.681213    4.20486  0.5373E-12  0.2473E-06  0.1247E-08  0.7932E-05  0.8234E-08 -0.1333E+15
   -2.749957    4.27262  0.5373E-12  0.0000E+00  0.0000E+00  0.0000E+00  0.8185E-08  0.0000E+00
