 1 - depth, m
 2 - temperature, C
 3 - salinity, kg/kg
 4 - turbulent kinetic energy, m**2/s**2
 5 - dissipation rate, m**2/s**3
 6 - kinematic heat conductance, m**2/s
 7 - modulus of horizontal velocity, m/s
 8 - Richardson number, n/d
   -0.000000   -0.00000  0.1992E-11  0.1219E-13  0.7603E-17  0.1000E-09  0.0000E+00  0.9510E+16
   -0.068746    0.14549  0.1166E-11  0.1219E-13  0.7603E-17  0.1000E-09  0.0000E+00  0.9073E+16
   -0.137492    0.29000  0.7681E-12  0.1219E-13  0.7603E-17  0.1000E-09  0.0000E+00  0.8640E+16
   -0.206239    0.43342  0.5917E-12  0.1219E-13  0.7603E-17  0.1000E-09  0.0000E+00  0.8210E+16
   -0.274987    0.57564  0.5219E-12  0.1219E-13  0.7603E-17  0.1000E-09  0.0000E+00  0.7784E+16
   -0.343735    0.71653  0.4964E-12  0.1219E-13  0.7603E-17  0.1000E-09  0.0000E+00  0.7364E+16
   -0.412483    0.85598  0.4869E-12  0.1219E-13  0.7603E-17  0.1000E-09  0.0000E+00  0.6950E+16
   -0.481232    0.99388  0.4822E-12  0.1219E-13  0.7603E-17  0.1000E-09  0.0000E+00  0.6543E+16
   -0.549982    1.13011  0.4783E-12  0.1219E-13  0.7603E-17  0.1000E-09  0.0000E+00  0.6145E+16
   -0.618732    1.26457  0.4742E-12  0.1219E-13  0.7603E-17  0.1000E-09  0.0000E+00  0.5756E+16
   -0.687482    1.39714  0.4698E-12  0.1219E-13  0.7603E-17  0.1000E-09  0.0000E+00  0.5381E+16
   -0.756233    1.52781  0.4655E-12  0.1219E-13  0.7603E-17  0.1000E-09  0.0000E+00  0.5017E+16
   -0.824984    1.65653  0.4618E-12  0.1219E-13  0.7603E-17  0.1000E-09  0.0000E+00  0.4664E+16
   -0.893735    1.78319  0.4590E-12  0.1219E-13  0.7603E-17  0.1000E-09  0.0000E+00  0.4322E+16
   -0.962487    1.90769  0.4573E-12  0.1219E-13  0.7603E-17  0.1000E-09  0.0000E+00  0.3991E+16
   -1.031238    2.02994  0.4563E-12  0.1219E-13  0.7603E-17  0.1000E-09  0.0000E+00  0.3671E+16
   -1.099990    2.14982  0.4559E-12  0.1219E-13  0.7603E-17  0.1000E-09  0.0000E+00  0.3365E+16
   -1.168742    2.26725  0.4557E-12  0.1219E-13  0.7603E-17  0.1000E-09  0.0000E+00  0.3071E+16
   -1.237494    2.38213  0.4556E-12  0.1219E-13  0.7603E-17  0.1000E-09  0.0000E+00  0.2790E+16
   -1.306246    2.49437  0.4556E-12  0.1219E-13  0.7603E-17  0.1000E-09  0.0000E+00  0.2523E+16
   -1.374999    2.60388  0.4556E-12  0.1219E-13  0.7603E-17  0.1000E-09  0.0000E+00  0.2269E+16
   -1.443751    2.71060  0.4556E-12  0.1219E-13  0.7603E-17  0.1000E-09  0.0000E+00  0.2030E+16
   -1.512503    2.81445  0.4556E-12  0.1219E-13  0.7603E-17  0.1000E-09  0.0000E+00  0.1805E+16
   -1.581255    2.91536  0.4556E-12  0.1219E-13  0.7603E-17  0.1000E-09  0.0000E+00  0.1593E+16
   -1.650007    3.01326  0.4556E-12  0.1219E-13  0.7603E-17  0.1000E-09  0.0000E+00  0.1395E+16
   -1.718759    3.10807  0.4556E-12  0.1219E-13  0.7603E-17  0.1000E-09  0.0000E+00  0.1211E+16
   -1.787511    3.19971  0.4556E-12  0.1219E-13  0.7603E-17  0.1000E-09  0.0000E+00  0.1034E+16
   -1.856262    3.28760  0.4556E-12  0.1219E-13  0.7603E-17  0.1000E-09  0.0000E+00  0.8697E+15
   -1.925014    3.37123  0.4556E-12  0.1219E-13  0.7603E-17  0.1000E-09  0.0000E+00  0.7169E+15
   -1.993765    3.45001  0.4556E-12  0.1860E-13  0.7747E-17  0.1000E-09  0.0000E+00  0.5806E+15
   -2.062515    3.52363  0.4556E-12  0.7563E-13  0.2570E-16  0.1000E-09  0.0000E+00  0.4822E+15
   -2.131266    3.59526  0.4556E-12  0.3037E-12  0.9827E-16  0.1000E-09  0.0000E+00  0.3930E+15
   -2.200016    3.66534  0.4556E-12  0.1190E-11  0.3714E-15  0.1000E-09  0.0000E+00  0.3093E+15
   -2.268765    3.73390  0.4556E-12  0.4624E-11  0.1394E-14  0.1000E-09  0.0000E+00  0.2329E+15
   -2.337514    3.80171  0.4556E-12  0.1802E-10  0.5259E-14  0.1633E-09  0.0000E+00  0.1601E+15
   -2.406263    3.86935  0.4556E-12  0.6989E-10  0.1980E-13  0.1097E-08  0.0000E+00  0.8830E+14
   -2.475011    3.93711  0.4556E-12  0.2692E-09  0.7447E-13  0.1811E-07  0.0000E+00  0.1766E+14
   -2.543758    3.99927  0.4556E-12  0.8987E-09  0.2551E-12  0.1131E-05  0.0000E+00 -0.2245E+13
   -2.612505    4.00764  0.4556E-12  0.1289E-08  0.5240E-12  0.1040E-05  0.0000E+00 -0.4404E+13
   -2.681252    4.01821  0.4556E-12  0.1548E-08  0.1461E-11  0.4935E-06  0.0000E+00 -0.2254E+14
   -2.749997    4.04873  0.4556E-12  0.0000E+00  0.0000E+00  0.0000E+00  0.0000E+00  0.0000E+00
