 1 - depth, m
 2 - temperature, C
 3 - salinity, kg/kg
 4 - turbulent kinetic energy, m**2/s**2
 5 - dissipation rate, m**2/s**3
 6 - kinematic heat conductance, m**2/s
 7 - modulus of horizontal velocity, m/s
 8 - Richardson number, n/d
   -0.000000   -0.00000  0.1986E-11  0.1219E-13  0.7603E-17  0.1000E-09  0.0000E+00  0.9552E+16
   -0.068746    0.14615  0.1161E-11  0.1219E-13  0.7603E-17  0.1000E-09  0.0000E+00  0.9112E+16
   -0.137492    0.29132  0.7647E-12  0.1219E-13  0.7603E-17  0.1000E-09  0.0000E+00  0.8674E+16
   -0.206239    0.43539  0.5896E-12  0.1219E-13  0.7603E-17  0.1000E-09  0.0000E+00  0.8240E+16
   -0.274987    0.57823  0.5209E-12  0.1219E-13  0.7603E-17  0.1000E-09  0.0000E+00  0.7810E+16
   -0.343735    0.71973  0.4960E-12  0.1219E-13  0.7603E-17  0.1000E-09  0.0000E+00  0.7386E+16
   -0.412483    0.85977  0.4869E-12  0.1219E-13  0.7603E-17  0.1000E-09  0.0000E+00  0.6969E+16
   -0.481232    0.99825  0.4823E-12  0.1219E-13  0.7603E-17  0.1000E-09  0.0000E+00  0.6560E+16
   -0.549982    1.13506  0.4785E-12  0.1219E-13  0.7603E-17  0.1000E-09  0.0000E+00  0.6159E+16
   -0.618732    1.27009  0.4744E-12  0.1219E-13  0.7603E-17  0.1000E-09  0.0000E+00  0.5768E+16
   -0.687482    1.40322  0.4699E-12  0.1219E-13  0.7603E-17  0.1000E-09  0.0000E+00  0.5390E+16
   -0.756233    1.53445  0.4656E-12  0.1219E-13  0.7603E-17  0.1000E-09  0.0000E+00  0.5024E+16
   -0.824984    1.66372  0.4618E-12  0.1219E-13  0.7603E-17  0.1000E-09  0.0000E+00  0.4668E+16
   -0.893735    1.79093  0.4590E-12  0.1219E-13  0.7603E-17  0.1000E-09  0.0000E+00  0.4324E+16
   -0.962487    1.91597  0.4573E-12  0.1219E-13  0.7603E-17  0.1000E-09  0.0000E+00  0.3990E+16
   -1.031238    2.03875  0.4563E-12  0.1219E-13  0.7603E-17  0.1000E-09  0.0000E+00  0.3669E+16
   -1.099990    2.15916  0.4559E-12  0.1219E-13  0.7603E-17  0.1000E-09  0.0000E+00  0.3361E+16
   -1.168742    2.27710  0.4557E-12  0.1219E-13  0.7603E-17  0.1000E-09  0.0000E+00  0.3065E+16
   -1.237494    2.39248  0.4556E-12  0.1219E-13  0.7603E-17  0.1000E-09  0.0000E+00  0.2782E+16
   -1.306247    2.50520  0.4556E-12  0.1219E-13  0.7603E-17  0.1000E-09  0.0000E+00  0.2513E+16
   -1.374999    2.61517  0.4556E-12  0.1219E-13  0.7603E-17  0.1000E-09  0.0000E+00  0.2259E+16
   -1.443751    2.72233  0.4556E-12  0.1219E-13  0.7603E-17  0.1000E-09  0.0000E+00  0.2018E+16
   -1.512503    2.82661  0.4556E-12  0.1219E-13  0.7603E-17  0.1000E-09  0.0000E+00  0.1791E+16
   -1.581255    2.92793  0.4556E-12  0.1219E-13  0.7603E-17  0.1000E-09  0.0000E+00  0.1579E+16
   -1.650007    3.02620  0.4556E-12  0.1219E-13  0.7603E-17  0.1000E-09  0.0000E+00  0.1380E+16
   -1.718759    3.12137  0.4556E-12  0.1219E-13  0.7603E-17  0.1000E-09  0.0000E+00  0.1195E+16
   -1.787511    3.21334  0.4556E-12  0.1219E-13  0.7603E-17  0.1000E-09  0.0000E+00  0.1018E+16
   -1.856262    3.30150  0.4556E-12  0.1219E-13  0.7603E-17  0.1000E-09  0.0000E+00  0.8531E+15
   -1.925014    3.38535  0.4556E-12  0.1219E-13  0.7603E-17  0.1000E-09  0.0000E+00  0.7002E+15
   -1.993765    3.46425  0.4556E-12  0.2787E-13  0.1018E-16  0.1000E-09  0.0000E+00  0.5641E+15
   -2.062515    3.53789  0.4556E-12  0.1108E-12  0.3570E-16  0.1000E-09  0.0000E+00  0.4658E+15
   -2.131266    3.60948  0.4556E-12  0.4320E-12  0.1333E-15  0.1000E-09  0.0000E+00  0.3766E+15
   -2.200016    3.67943  0.4556E-12  0.1648E-11  0.4910E-15  0.1000E-09  0.0000E+00  0.2931E+15
   -2.268765    3.74775  0.4556E-12  0.6241E-11  0.1798E-14  0.1000E-09  0.0000E+00  0.2171E+15
   -2.337514    3.81517  0.4556E-12  0.2372E-10  0.6616E-14  0.2270E-09  0.0000E+00  0.1448E+15
   -2.406263    3.88220  0.4556E-12  0.8975E-10  0.2431E-13  0.1601E-08  0.0000E+00  0.7403E+14
   -2.475011    3.94894  0.4556E-12  0.3350E-09  0.8883E-13  0.3865E-07  0.0000E+00  0.8720E+13
   -2.543759    4.00322  0.4556E-12  0.1038E-08  0.2911E-12  0.1372E-05  0.0000E+00 -0.2234E+13
   -2.612506    4.01021  0.4556E-12  0.1419E-08  0.5677E-12  0.1170E-05  0.0000E+00 -0.4274E+13
   -2.681252    4.01973  0.4556E-12  0.1635E-08  0.1547E-11  0.5147E-06  0.0000E+00 -0.2245E+14
   -2.749998    4.04943  0.4556E-12  0.0000E+00  0.0000E+00  0.0000E+00  0.0000E+00  0.0000E+00
