 1 - depth, m
 2 - temperature, C
 3 - salinity, kg/kg
 4 - turbulent kinetic energy, m**2/s**2
 5 - dissipation rate, m**2/s**3
 6 - kinematic heat conductance, m**2/s
 7 - modulus of horizontal velocity, m/s
 8 - Richardson number, n/d
   -0.000000    9.94266  0.3682E-12  0.5328E-04  0.1192E-04  0.5432E-04  0.5750E-01 -0.2209E-01
   -0.068747    9.97325  0.3683E-12  0.3491E-04  0.2829E-05  0.1090E-03  0.2916E-01 -0.6845E-01
   -0.137494    9.98119  0.3684E-12  0.2935E-04  0.1217E-05  0.1568E-03  0.2349E-01 -0.5590E-01
   -0.206242    9.98605  0.3684E-12  0.2633E-04  0.6432E-06  0.2139E-03  0.2017E-01  0.3077E+00
   -0.274990    9.98944  0.3684E-12  0.2444E-04  0.3921E-06  0.2844E-03  0.1779E-01  0.6567E+01
   -0.343739    9.99195  0.3684E-12  0.2318E-04  0.2668E-06  0.3610E-03  0.1596E-01  0.2171E+02
   -0.412488    9.99390  0.3684E-12  0.2228E-04  0.1970E-06  0.4465E-03  0.1449E-01  0.7571E+01
   -0.481238    9.99546  0.3684E-12  0.2160E-04  0.1543E-06  0.5367E-03  0.1329E-01  0.6413E+01
   -0.549989    9.99673  0.3684E-12  0.2107E-04  0.1262E-06  0.6308E-03  0.1227E-01  0.3153E+01
   -0.618739    9.99780  0.3684E-12  0.2064E-04  0.1065E-06  0.7414E-03  0.1140E-01  0.2023E+02
   -0.687491    9.99868  0.3684E-12  0.2028E-04  0.9212E-07  0.9255E-03  0.1063E-01  0.1513E+02
   -0.756242    9.99941  0.3684E-12  0.1998E-04  0.8124E-07  0.1058E-02  0.9960E-02  0.2369E+02
   -0.824994   10.00003  0.3684E-12  0.1972E-04  0.7274E-07  0.1173E-02  0.9347E-02  0.2932E+02
   -0.893746   10.00057  0.3684E-12  0.1948E-04  0.6594E-07  0.1276E-02  0.8783E-02  0.1394E+02
   -0.962498   10.00106  0.3684E-12  0.1927E-04  0.6040E-07  0.1367E-02  0.8258E-02  0.1562E+02
   -1.031251   10.00150  0.3684E-12  0.1907E-04  0.5580E-07  0.1460E-02  0.7763E-02  0.2863E+02
   -1.100004   10.00190  0.3684E-12  0.1888E-04  0.5195E-07  0.1547E-02  0.7295E-02  0.2202E+02
   -1.168756   10.00227  0.3684E-12  0.1870E-04  0.4868E-07  0.1616E-02  0.6846E-02  0.2175E+02
   -1.237509   10.00261  0.3684E-12  0.1851E-04  0.4587E-07  0.1690E-02  0.6414E-02  0.5246E+02
   -1.306262   10.00293  0.3684E-12  0.1832E-04  0.4344E-07  0.1752E-02  0.5995E-02  0.1207E+03
   -1.375016   10.00324  0.3684E-12  0.1812E-04  0.4131E-07  0.1791E-02  0.5587E-02  0.4144E+04
   -1.443769   10.00353  0.3684E-12  0.1790E-04  0.3944E-07  0.1832E-02  0.5187E-02  0.7296E+03
   -1.512522   10.00381  0.3684E-12  0.1767E-04  0.3777E-07  0.1871E-02  0.4793E-02  0.2851E+05
   -1.581275   10.00408  0.3684E-12  0.1741E-04  0.3626E-07  0.1887E-02  0.4403E-02  0.3464E+05
   -1.650027   10.00435  0.3684E-12  0.1712E-04  0.3489E-07  0.1902E-02  0.4015E-02  0.1063E+05
   -1.718780   10.00460  0.3684E-12  0.1680E-04  0.3362E-07  0.1897E-02  0.3628E-02  0.5816E+04
   -1.787533   10.00486  0.3684E-12  0.1643E-04  0.3238E-07  0.1942E-02  0.3239E-02  0.1440E+03
   -1.856285   10.00510  0.3684E-12  0.1601E-04  0.3121E-07  0.1961E-02  0.2896E-02  0.1985E+02
   -1.925037   10.00534  0.3684E-12  0.1557E-04  0.3014E-07  0.1974E-02  0.2590E-02  0.2514E+02
   -1.993789   10.00558  0.3684E-12  0.1510E-04  0.2921E-07  0.1971E-02  0.2319E-02  0.2341E+01
   -2.062540   10.00581  0.3684E-12  0.1464E-04  0.2850E-07  0.1944E-02  0.2076E-02  0.4107E+01
   -2.131292   10.00605  0.3684E-12  0.1419E-04  0.2805E-07  0.1896E-02  0.1850E-02  0.1120E+02
   -2.200042   10.00629  0.3684E-12  0.1375E-04  0.2789E-07  0.1843E-02  0.1639E-02  0.2887E+01
   -2.268793   10.00653  0.3684E-12  0.1332E-04  0.2808E-07  0.1761E-02  0.1441E-02  0.1088E+01
   -2.337543   10.00679  0.3684E-12  0.1290E-04  0.2873E-07  0.1633E-02  0.1261E-02  0.9125E+01
   -2.406292   10.00706  0.3684E-12  0.1248E-04  0.3003E-07  0.1472E-02  0.1100E-02  0.6953E+01
   -2.475041   10.00736  0.3684E-12  0.1206E-04  0.3234E-07  0.1229E-02  0.9577E-03  0.2157E+04
   -2.543790   10.00773  0.3684E-12  0.1157E-04  0.3682E-07  0.9952E-03  0.8310E-03  0.1057E+03
   -2.612537   10.00818  0.3684E-12  0.1083E-04  0.4862E-07  0.5124E-03  0.7048E-03  0.6064E+03
   -2.681285   10.00907  0.3684E-12  0.6614E-05  0.1751E-06  0.3554E-04  0.5531E-03 -0.1066E+05
   -2.750031   10.02117  0.3684E-12  0.0000E+00  0.0000E+00  0.0000E+00  0.5524E-03  0.0000E+00
