 1 - depth, m
 2 - temperature, C
 3 - salinity, kg/kg
 4 - turbulent kinetic energy, m**2/s**2
 5 - dissipation rate, m**2/s**3
 6 - kinematic heat conductance, m**2/s
 7 - modulus of horizontal velocity, m/s
 8 - Richardson number, n/d
   -0.000000   -0.00000  0.1349E-11  0.1219E-13  0.7603E-17  0.1000E-09  0.0000E+00  0.8223E+16
   -0.068746    0.12547  0.7480E-12  0.1219E-13  0.7603E-17  0.1000E-09  0.0000E+00  0.7862E+16
   -0.137492    0.24964  0.4797E-12  0.1219E-13  0.7603E-17  0.1000E-09  0.0000E+00  0.7538E+16
   -0.206239    0.37295  0.3958E-12  0.1219E-13  0.7603E-17  0.1000E-09  0.0000E+00  0.7244E+16
   -0.274987    0.49581  0.3759E-12  0.1219E-13  0.7603E-17  0.1000E-09  0.0000E+00  0.6976E+16
   -0.343735    0.61861  0.3721E-12  0.1219E-13  0.7603E-17  0.1000E-09  0.0000E+00  0.6728E+16
   -0.412483    0.74173  0.3715E-12  0.1219E-13  0.7603E-17  0.1000E-09  0.0000E+00  0.6498E+16
   -0.481232    0.86550  0.3714E-12  0.1219E-13  0.7603E-17  0.1000E-09  0.0000E+00  0.6281E+16
   -0.549982    0.99026  0.3714E-12  0.1219E-13  0.7603E-17  0.1000E-09  0.0000E+00  0.6073E+16
   -0.618732    1.11631  0.3714E-12  0.1219E-13  0.7603E-17  0.1000E-09  0.0000E+00  0.5871E+16
   -0.687482    1.24394  0.3714E-12  0.1219E-13  0.7603E-17  0.1000E-09  0.0000E+00  0.5682E+16
   -0.756233    1.37368  0.3714E-12  0.1219E-13  0.7603E-17  0.1000E-09  0.0000E+00  0.5497E+16
   -0.824984    1.50593  0.3714E-12  0.1221E-13  0.7603E-17  0.1000E-09  0.0000E+00  0.5303E+16
   -0.893735    1.64088  0.3713E-12  0.4562E-13  0.7690E-17  0.1000E-09  0.0000E+00  0.5096E+16
   -0.962486    1.77865  0.3712E-12  0.1271E-12  0.1502E-16  0.1000E-09  0.0000E+00  0.4874E+16
   -1.031238    1.91932  0.3710E-12  0.3028E-12  0.3290E-16  0.1000E-09  0.0000E+00  0.4634E+16
   -1.099990    2.06293  0.3705E-12  0.6863E-12  0.7219E-16  0.1000E-09  0.0000E+00  0.4374E+16
   -1.168742    2.20945  0.3694E-12  0.1529E-11  0.1573E-15  0.1000E-09  0.0000E+00  0.4092E+16
   -1.237494    2.35880  0.3677E-12  0.3379E-11  0.3406E-15  0.1000E-09  0.0000E+00  0.3788E+16
   -1.306246    2.51085  0.3655E-12  0.7423E-11  0.7331E-15  0.1000E-09  0.0000E+00  0.3462E+16
   -1.374999    2.66543  0.3630E-12  0.1621E-10  0.1568E-14  0.1000E-09  0.0000E+00  0.3118E+16
   -1.443751    2.82250  0.3611E-12  0.3518E-10  0.3335E-14  0.1000E-09  0.0000E+00  0.2753E+16
   -1.512503    2.98184  0.3599E-12  0.7586E-10  0.7044E-14  0.1000E-09  0.0000E+00  0.2367E+16
   -1.581255    3.14302  0.3593E-12  0.1625E-09  0.1478E-13  0.1000E-09  0.0000E+00  0.1960E+16
   -1.650007    3.30521  0.3590E-12  0.3458E-09  0.3080E-13  0.1085E-09  0.0000E+00  0.1535E+16
   -1.718759    3.46691  0.3588E-12  0.7307E-09  0.6373E-13  0.2946E-09  0.0000E+00  0.1102E+16
   -1.787511    3.62568  0.3585E-12  0.1568E-08  0.1338E-12  0.9925E-09  0.0000E+00  0.6849E+15
   -1.856262    3.77891  0.3584E-12  0.3390E-08  0.2835E-12  0.4676E-08  0.0000E+00  0.3071E+15
   -1.925013    3.92400  0.3583E-12  0.6934E-08  0.5715E-12  0.1144E-06  0.0000E+00  0.2640E+14
   -1.993764    4.00937  0.3583E-12  0.7795E-08  0.6464E-12  0.3887E-04  0.0000E+00 -0.2039E+12
   -2.062515    4.00992  0.3583E-12  0.8172E-08  0.6868E-12  0.3939E-04  0.0000E+00 -0.2078E+12
   -2.131265    4.01048  0.3583E-12  0.8483E-08  0.7298E-12  0.3914E-04  0.0000E+00 -0.2160E+12
   -2.200015    4.01104  0.3583E-12  0.8733E-08  0.7777E-12  0.3810E-04  0.0000E+00 -0.2294E+12
   -2.268765    4.01163  0.3583E-12  0.8923E-08  0.8338E-12  0.3626E-04  0.0000E+00 -0.2502E+12
   -2.337514    4.01225  0.3583E-12  0.9056E-08  0.9058E-12  0.3344E-04  0.0000E+00 -0.2831E+12
   -2.406262    4.01294  0.3583E-12  0.9124E-08  0.1005E-11  0.2947E-04  0.0000E+00 -0.3377E+12
   -2.475011    4.01374  0.3583E-12  0.9104E-08  0.1159E-11  0.2418E-04  0.0000E+00 -0.4390E+12
   -2.543758    4.01474  0.3583E-12  0.8940E-08  0.1435E-11  0.1740E-04  0.0000E+00 -0.6680E+12
   -2.612505    4.01621  0.3583E-12  0.8457E-08  0.2114E-11  0.9242E-05  0.0000E+00 -0.1479E+13
   -2.681251    4.01922  0.3583E-12  0.6429E-08  0.6116E-11  0.1429E-05  0.0000E+00 -0.1659E+14
   -2.749997    4.04290  0.3583E-12  0.0000E+00  0.0000E+00  0.0000E+00  0.0000E+00  0.0000E+00
