 1 - depth, m
 2 - temperature, C
 3 - salinity, kg/kg
 4 - turbulent kinetic energy, m**2/s**2
 5 - dissipation rate, m**2/s**3
 6 - kinematic heat conductance, m**2/s
 7 - modulus of horizontal velocity, m/s
 8 - Richardson number, n/d
   -0.000000   -0.00000  0.1410E-11  0.1219E-13  0.7603E-17  0.1000E-09  0.0000E+00  0.8705E+16
   -0.068746    0.13296  0.7529E-12  0.1219E-13  0.7603E-17  0.1000E-09  0.0000E+00  0.8286E+16
   -0.137492    0.26422  0.4898E-12  0.1219E-13  0.7603E-17  0.1000E-09  0.0000E+00  0.7909E+16
   -0.206239    0.39429  0.4008E-12  0.1219E-13  0.7603E-17  0.1000E-09  0.0000E+00  0.7568E+16
   -0.274986    0.52359  0.3775E-12  0.1219E-13  0.7603E-17  0.1000E-09  0.0000E+00  0.7254E+16
   -0.343734    0.65253  0.3725E-12  0.1219E-13  0.7603E-17  0.1000E-09  0.0000E+00  0.6963E+16
   -0.412483    0.78145  0.3716E-12  0.1219E-13  0.7603E-17  0.1000E-09  0.0000E+00  0.6689E+16
   -0.481232    0.91067  0.3714E-12  0.1219E-13  0.7603E-17  0.1000E-09  0.0000E+00  0.6428E+16
   -0.549981    1.04046  0.3714E-12  0.1219E-13  0.7603E-17  0.1000E-09  0.0000E+00  0.6175E+16
   -0.618731    1.17108  0.3714E-12  0.1219E-13  0.7603E-17  0.1000E-09  0.0000E+00  0.5928E+16
   -0.687482    1.30273  0.3714E-12  0.1219E-13  0.7603E-17  0.1000E-09  0.0000E+00  0.5694E+16
   -0.756232    1.43589  0.3714E-12  0.1219E-13  0.7603E-17  0.1000E-09  0.0000E+00  0.5464E+16
   -0.824983    1.57084  0.3714E-12  0.1219E-13  0.7603E-17  0.1000E-09  0.0000E+00  0.5226E+16
   -0.893734    1.70772  0.3713E-12  0.4906E-13  0.8132E-17  0.1000E-09  0.0000E+00  0.4979E+16
   -0.962486    1.84657  0.3712E-12  0.1374E-12  0.1668E-16  0.1000E-09  0.0000E+00  0.4720E+16
   -1.031238    1.98742  0.3709E-12  0.3313E-12  0.3716E-16  0.1000E-09  0.0000E+00  0.4447E+16
   -1.099989    2.13023  0.3703E-12  0.7601E-12  0.8223E-16  0.1000E-09  0.0000E+00  0.4160E+16
   -1.168741    2.27492  0.3691E-12  0.1709E-11  0.1798E-15  0.1000E-09  0.0000E+00  0.3857E+16
   -1.237493    2.42135  0.3674E-12  0.3794E-11  0.3889E-15  0.1000E-09  0.0000E+00  0.3540E+16
   -1.306246    2.56933  0.3651E-12  0.8338E-11  0.8331E-15  0.1000E-09  0.0000E+00  0.3207E+16
   -1.374998    2.71863  0.3628E-12  0.1815E-10  0.1768E-14  0.1000E-09  0.0000E+00  0.2865E+16
   -1.443750    2.86911  0.3610E-12  0.3914E-10  0.3720E-14  0.1000E-09  0.0000E+00  0.2511E+16
   -1.512502    3.02051  0.3598E-12  0.8365E-10  0.7757E-14  0.1000E-09  0.0000E+00  0.2148E+16
   -1.581254    3.17246  0.3593E-12  0.1772E-09  0.1604E-13  0.1000E-09  0.0000E+00  0.1779E+16
   -1.650006    3.32456  0.3590E-12  0.3721E-09  0.3287E-13  0.1190E-09  0.0000E+00  0.1406E+16
   -1.718758    3.47635  0.3587E-12  0.7746E-09  0.6683E-13  0.3289E-09  0.0000E+00  0.1034E+16
   -1.787510    3.62723  0.3585E-12  0.1635E-08  0.1377E-12  0.1044E-08  0.0000E+00  0.6713E+15
   -1.856261    3.77745  0.3583E-12  0.3475E-08  0.2860E-12  0.4668E-08  0.0000E+00  0.3116E+15
   -1.925012    3.92364  0.3583E-12  0.7016E-08  0.5678E-12  0.1072E-06  0.0000E+00  0.2668E+14
   -1.993763    4.00916  0.3583E-12  0.7848E-08  0.6386E-12  0.3931E-04  0.0000E+00 -0.1959E+12
   -2.062514    4.00970  0.3583E-12  0.8208E-08  0.6764E-12  0.3974E-04  0.0000E+00 -0.1992E+12
   -2.131264    4.01023  0.3583E-12  0.8503E-08  0.7167E-12  0.3939E-04  0.0000E+00 -0.2065E+12
   -2.200014    4.01078  0.3583E-12  0.8736E-08  0.7613E-12  0.3827E-04  0.0000E+00 -0.2185E+12
   -2.268763    4.01134  0.3583E-12  0.8909E-08  0.8137E-12  0.3637E-04  0.0000E+00 -0.2374E+12
   -2.337512    4.01194  0.3583E-12  0.9026E-08  0.8811E-12  0.3350E-04  0.0000E+00 -0.2675E+12
   -2.406261    4.01260  0.3583E-12  0.9076E-08  0.9745E-12  0.2950E-04  0.0000E+00 -0.3177E+12
   -2.475009    4.01336  0.3583E-12  0.9037E-08  0.1119E-11  0.2419E-04  0.0000E+00 -0.4108E+12
   -2.543757    4.01431  0.3583E-12  0.8854E-08  0.1380E-11  0.1740E-04  0.0000E+00 -0.6211E+12
   -2.612503    4.01569  0.3583E-12  0.8350E-08  0.2024E-11  0.9222E-05  0.0000E+00 -0.1365E+13
   -2.681250    4.01852  0.3583E-12  0.6267E-08  0.5863E-11  0.1383E-05  0.0000E+00 -0.1552E+14
   -2.749995    4.04126  0.3583E-12  0.0000E+00  0.0000E+00  0.0000E+00  0.0000E+00  0.0000E+00
