 1 - depth, m
 2 - temperature, C
 3 - salinity, kg/kg
 4 - turbulent kinetic energy, m**2/s**2
 5 - dissipation rate, m**2/s**3
 6 - kinematic heat conductance, m**2/s
 7 - modulus of horizontal velocity, m/s
 8 - Richardson number, n/d
   -0.000000   -0.00000  0.1914E-11  0.1219E-13  0.7603E-17  0.1000E-09  0.0000E+00  0.1019E+17
   -0.068746    0.15616  0.1071E-11  0.1219E-13  0.7603E-17  0.1000E-09  0.0000E+00  0.9690E+16
   -0.137492    0.31119  0.6946E-12  0.1219E-13  0.7603E-17  0.1000E-09  0.0000E+00  0.9196E+16
   -0.206239    0.46504  0.5528E-12  0.1219E-13  0.7603E-17  0.1000E-09  0.0000E+00  0.8709E+16
   -0.274987    0.61761  0.5055E-12  0.1219E-13  0.7603E-17  0.1000E-09  0.0000E+00  0.8229E+16
   -0.343735    0.76881  0.4913E-12  0.1219E-13  0.7603E-17  0.1000E-09  0.0000E+00  0.7757E+16
   -0.412483    0.91854  0.4866E-12  0.1219E-13  0.7603E-17  0.1000E-09  0.0000E+00  0.7293E+16
   -0.481232    1.06669  0.4839E-12  0.1219E-13  0.7603E-17  0.1000E-09  0.0000E+00  0.6838E+16
   -0.549982    1.21315  0.4809E-12  0.1219E-13  0.7603E-17  0.1000E-09  0.0000E+00  0.6394E+16
   -0.618732    1.35782  0.4771E-12  0.1219E-13  0.7603E-17  0.1000E-09  0.0000E+00  0.5960E+16
   -0.687482    1.50058  0.4724E-12  0.1219E-13  0.7603E-17  0.1000E-09  0.0000E+00  0.5542E+16
   -0.756233    1.64148  0.4674E-12  0.1219E-13  0.7603E-17  0.1000E-09  0.0000E+00  0.5139E+16
   -0.824984    1.78048  0.4628E-12  0.1219E-13  0.7603E-17  0.1000E-09  0.0000E+00  0.4747E+16
   -0.893735    1.91749  0.4593E-12  0.1219E-13  0.7603E-17  0.1000E-09  0.0000E+00  0.4367E+16
   -0.962486    2.05238  0.4572E-12  0.1219E-13  0.7603E-17  0.1000E-09  0.0000E+00  0.3999E+16
   -1.031238    2.18502  0.4561E-12  0.1219E-13  0.7603E-17  0.1000E-09  0.0000E+00  0.3643E+16
   -1.099990    2.31530  0.4558E-12  0.1219E-13  0.7603E-17  0.1000E-09  0.0000E+00  0.3301E+16
   -1.168742    2.44309  0.4556E-12  0.1219E-13  0.7603E-17  0.1000E-09  0.0000E+00  0.2972E+16
   -1.237494    2.56825  0.4556E-12  0.1219E-13  0.7603E-17  0.1000E-09  0.0000E+00  0.2659E+16
   -1.306246    2.69065  0.4556E-12  0.1219E-13  0.7603E-17  0.1000E-09  0.0000E+00  0.2360E+16
   -1.374999    2.81015  0.4556E-12  0.2716E-13  0.7603E-17  0.1000E-09  0.0000E+00  0.2077E+16
   -1.443751    2.92665  0.4556E-12  0.9010E-13  0.1298E-16  0.1000E-09  0.0000E+00  0.1810E+16
   -1.512503    3.04000  0.4556E-12  0.2349E-12  0.2937E-16  0.1000E-09  0.0000E+00  0.1559E+16
   -1.581255    3.15007  0.4556E-12  0.5648E-12  0.6737E-16  0.1000E-09  0.0000E+00  0.1324E+16
   -1.650007    3.25671  0.4556E-12  0.1319E-11  0.1526E-15  0.1000E-09  0.0000E+00  0.1107E+16
   -1.718759    3.35977  0.4556E-12  0.3034E-11  0.3415E-15  0.1000E-09  0.0000E+00  0.9056E+15
   -1.787511    3.45907  0.4556E-12  0.7070E-11  0.7744E-15  0.1000E-09  0.0000E+00  0.7152E+15
   -1.856262    3.55345  0.4556E-12  0.1658E-10  0.1769E-14  0.1000E-09  0.0000E+00  0.5434E+15
   -1.925013    3.64220  0.4556E-12  0.3879E-10  0.4031E-14  0.1000E-09  0.0000E+00  0.3922E+15
   -1.993764    3.72443  0.4556E-12  0.9042E-10  0.9161E-14  0.1754E-09  0.0000E+00  0.2655E+15
   -2.062515    3.79975  0.4556E-12  0.2053E-09  0.2029E-13  0.6042E-09  0.0000E+00  0.1706E+15
   -2.131265    3.87196  0.4556E-12  0.4600E-09  0.4436E-13  0.2605E-08  0.0000E+00  0.8641E+14
   -2.200015    3.94094  0.4556E-12  0.1007E-08  0.9500E-13  0.3123E-07  0.0000E+00  0.1527E+14
   -2.268765    3.99691  0.4556E-12  0.1548E-08  0.1471E-12  0.6435E-05  0.0000E+00 -0.2636E+12
   -2.337514    3.99840  0.4556E-12  0.1804E-08  0.1816E-12  0.6789E-05  0.0000E+00 -0.2904E+12
   -2.406263    3.99984  0.4556E-12  0.2005E-08  0.2244E-12  0.6516E-05  0.0000E+00 -0.3521E+12
   -2.475011    4.00141  0.4556E-12  0.2159E-08  0.2872E-12  0.5625E-05  0.0000E+00 -0.4861E+12
   -2.543758    4.00334  0.4556E-12  0.2256E-08  0.4001E-12  0.4128E-05  0.0000E+00 -0.8329E+12
   -2.612505    4.00622  0.4556E-12  0.2267E-08  0.6818E-12  0.2224E-05  0.0000E+00 -0.2258E+13
   -2.681251    4.01248  0.4556E-12  0.2136E-08  0.1954E-11  0.6428E-06  0.0000E+00 -0.1989E+14
   -2.749997    4.04310  0.4556E-12  0.0000E+00  0.0000E+00  0.0000E+00  0.0000E+00  0.0000E+00
