 1 - depth, m
 2 - temperature, C
 3 - salinity, kg/kg
 4 - turbulent kinetic energy, m**2/s**2
 5 - dissipation rate, m**2/s**3
 6 - kinematic heat conductance, m**2/s
 7 - modulus of horizontal velocity, m/s
 8 - Richardson number, n/d
   -0.000000   -0.00000  0.1954E-11  0.1219E-13  0.7603E-17  0.1000E-09  0.0000E+00  0.1046E+17
   -0.068746    0.16042  0.9916E-12  0.1219E-13  0.7603E-17  0.1000E-09  0.0000E+00  0.9921E+16
   -0.137492    0.31943  0.6551E-12  0.1219E-13  0.7603E-17  0.1000E-09  0.0000E+00  0.9390E+16
   -0.206239    0.47699  0.5352E-12  0.1219E-13  0.7603E-17  0.1000E-09  0.0000E+00  0.8870E+16
   -0.274987    0.63304  0.4991E-12  0.1219E-13  0.7603E-17  0.1000E-09  0.0000E+00  0.8364E+16
   -0.343735    0.78757  0.4897E-12  0.1219E-13  0.7603E-17  0.1000E-09  0.0000E+00  0.7872E+16
   -0.412483    0.94056  0.4868E-12  0.1219E-13  0.7603E-17  0.1000E-09  0.0000E+00  0.7393E+16
   -0.481232    1.09198  0.4847E-12  0.1219E-13  0.7603E-17  0.1000E-09  0.0000E+00  0.6927E+16
   -0.549982    1.24183  0.4821E-12  0.1219E-13  0.7603E-17  0.1000E-09  0.0000E+00  0.6474E+16
   -0.618732    1.39005  0.4785E-12  0.1219E-13  0.7603E-17  0.1000E-09  0.0000E+00  0.6033E+16
   -0.687482    1.53660  0.4739E-12  0.1219E-13  0.7603E-17  0.1000E-09  0.0000E+00  0.5611E+16
   -0.756233    1.68161  0.4685E-12  0.1219E-13  0.7603E-17  0.1000E-09  0.0000E+00  0.5203E+16
   -0.824984    1.82511  0.4633E-12  0.1219E-13  0.7603E-17  0.1000E-09  0.0000E+00  0.4805E+16
   -0.893735    1.96700  0.4594E-12  0.1219E-13  0.7603E-17  0.1000E-09  0.0000E+00  0.4416E+16
   -0.962486    2.10716  0.4570E-12  0.1219E-13  0.7603E-17  0.1000E-09  0.0000E+00  0.4037E+16
   -1.031238    2.24547  0.4560E-12  0.1219E-13  0.7603E-17  0.1000E-09  0.0000E+00  0.3668E+16
   -1.099990    2.38177  0.4557E-12  0.2820E-13  0.7603E-17  0.1000E-09  0.0000E+00  0.3311E+16
   -1.168742    2.51590  0.4556E-12  0.9308E-13  0.1139E-16  0.1000E-09  0.0000E+00  0.2965E+16
   -1.237494    2.64769  0.4556E-12  0.2316E-12  0.2358E-16  0.1000E-09  0.0000E+00  0.2633E+16
   -1.306246    2.77697  0.4556E-12  0.5224E-12  0.5024E-16  0.1000E-09  0.0000E+00  0.2314E+16
   -1.374999    2.90354  0.4556E-12  0.1137E-11  0.1061E-15  0.1000E-09  0.0000E+00  0.2011E+16
   -1.443751    3.02724  0.4556E-12  0.2437E-11  0.2216E-15  0.1000E-09  0.0000E+00  0.1723E+16
   -1.512503    3.14790  0.4556E-12  0.5166E-11  0.4589E-15  0.1000E-09  0.0000E+00  0.1452E+16
   -1.581255    3.26530  0.4556E-12  0.1085E-10  0.9420E-15  0.1000E-09  0.0000E+00  0.1198E+16
   -1.650007    3.37926  0.4556E-12  0.2262E-10  0.1918E-14  0.1000E-09  0.0000E+00  0.9614E+15
   -1.718759    3.48948  0.4556E-12  0.4673E-10  0.3873E-14  0.1000E-09  0.0000E+00  0.7426E+15
   -1.787511    3.59556  0.4556E-12  0.9794E-10  0.7933E-14  0.1000E-09  0.0000E+00  0.5383E+15
   -1.856262    3.69593  0.4556E-12  0.2073E-09  0.1641E-13  0.2334E-09  0.0000E+00  0.3575E+15
   -1.925013    3.78920  0.4556E-12  0.4386E-09  0.3396E-13  0.8388E-09  0.0000E+00  0.2057E+15
   -1.993764    3.87380  0.4556E-12  0.9253E-09  0.7008E-13  0.4036E-08  0.0000E+00  0.8818E+14
   -2.062515    3.94864  0.4556E-12  0.1847E-08  0.1375E-12  0.6913E-07  0.0000E+00  0.9934E+13
   -2.131265    3.99867  0.4556E-12  0.2371E-08  0.1780E-12  0.1267E-04  0.0000E+00 -0.1658E+12
   -2.200015    3.99950  0.4556E-12  0.2606E-08  0.2015E-12  0.1310E-04  0.0000E+00 -0.1733E+12
   -2.268765    4.00032  0.4556E-12  0.2795E-08  0.2276E-12  0.1298E-04  0.0000E+00 -0.1900E+12
   -2.337514    4.00116  0.4556E-12  0.2949E-08  0.2602E-12  0.1229E-04  0.0000E+00 -0.2201E+12
   -2.406262    4.00207  0.4556E-12  0.3067E-08  0.3048E-12  0.1097E-04  0.0000E+00 -0.2746E+12
   -2.475011    4.00315  0.4556E-12  0.3144E-08  0.3741E-12  0.8973E-05  0.0000E+00 -0.3847E+12
   -2.543758    4.00455  0.4556E-12  0.3159E-08  0.5029E-12  0.6301E-05  0.0000E+00 -0.6626E+12
   -2.612505    4.00674  0.4556E-12  0.3054E-08  0.8324E-12  0.3209E-05  0.0000E+00 -0.1817E+13
   -2.681251    4.01179  0.4556E-12  0.2659E-08  0.2433E-11  0.7612E-06  0.0000E+00 -0.1912E+14
   -2.749997    4.04190  0.4556E-12  0.0000E+00  0.0000E+00  0.0000E+00  0.0000E+00  0.0000E+00
