 1 - depth, m
 2 - temperature, C
 3 - salinity, kg/kg
 4 - turbulent kinetic energy, m**2/s**2
 5 - dissipation rate, m**2/s**3
 6 - kinematic heat conductance, m**2/s
 7 - modulus of horizontal velocity, m/s
 8 - Richardson number, n/d
   -0.000000   -0.00000  0.1361E-11  0.1420E-08  0.1771E-11  0.6609E-09  0.6789E-44  0.1360E+17
   -0.068745    0.20986  0.3982E-12  0.1221E-07  0.1110E-11  0.6191E-09  0.5362E-44  0.9137E+16
   -0.137491    0.35817  0.3793E-12  0.3009E-07  0.1017E-11  0.8680E-09  0.4433E-44  0.5973E+16
   -0.206237    0.45870  0.3724E-12  0.5407E-07  0.1115E-11  0.1542E-08  0.3707E-44  0.3692E+16
   -0.274984    0.52239  0.3715E-12  0.8452E-07  0.1336E-11  0.3308E-08  0.3053E-44  0.2066E+16
   -0.343731    0.55858  0.3714E-12  0.1223E-06  0.1662E-11  0.9038E-08  0.2437E-44  0.9481E+15
   -0.412479    0.57533  0.3714E-12  0.1671E-06  0.2082E-11  0.5168E-07  0.1865E-44  0.2220E+15
   -0.481228    0.57927  0.3714E-12  0.1671E-06  0.2083E-11  0.4122E-02  0.1423E-44 -0.4361E+10
   -0.549977    0.57927  0.3714E-12  0.1671E-06  0.2083E-11  0.4102E-02  0.1423E-44 -0.1325E+11
   -0.618726    0.57927  0.3714E-12  0.1671E-06  0.2083E-11  0.4099E-02  0.1423E-44 -0.1735E+11
   -0.687476    0.57927  0.3714E-12  0.1671E-06  0.2083E-11  0.4099E-02  0.1423E-44 -0.1737E+11
   -0.756226    0.57927  0.3714E-12  0.1671E-06  0.2083E-11  0.4102E-02  0.1423E-44 -0.1380E+11
   -0.824976    0.57926  0.3714E-12  0.1671E-06  0.2083E-11  0.4115E-02  0.1423E-44 -0.7036E+10
   -0.893727    0.57926  0.3714E-12  0.1671E-06  0.2082E-11  0.2103E-02  0.1422E-44  0.1346E+14
   -0.962478    0.57951  0.3714E-12  0.1556E-06  0.1945E-11  0.3081E-07  0.1422E-44  0.3604E+15
   -1.031229    0.58591  0.3714E-12  0.1212E-06  0.1542E-11  0.9074E-08  0.1191E-44  0.8998E+15
   -1.099980    0.60195  0.3714E-12  0.9349E-07  0.1213E-11  0.3880E-08  0.9756E-45  0.1625E+16
   -1.168731    0.63111  0.3713E-12  0.7164E-07  0.9511E-12  0.1928E-08  0.7916E-45  0.2540E+16
   -1.237483    0.67723  0.3708E-12  0.5457E-07  0.7437E-12  0.1051E-08  0.6365E-45  0.3627E+16
   -1.306234    0.74428  0.3696E-12  0.4126E-07  0.5804E-12  0.6132E-09  0.5061E-45  0.4835E+16
   -1.374986    0.83600  0.3667E-12  0.3088E-07  0.4526E-12  0.3726E-09  0.3963E-45  0.6193E+16
   -1.443738    0.95775  0.3624E-12  0.2279E-07  0.3540E-12  0.2397E-09  0.3032E-45  0.7524E+16
   -1.512489    1.11295  0.3597E-12  0.1648E-07  0.2801E-12  0.1641E-09  0.2236E-45  0.8689E+16
   -1.581241    1.30389  0.3594E-12  0.1156E-07  0.2286E-12  0.1212E-09  0.1544E-45  0.9596E+16
   -1.649992    1.53280  0.3592E-12  0.7771E-08  0.2004E-12  0.1041E-09  0.9290E-46  0.1017E+17
   -1.718743    1.80254  0.3590E-12  0.4999E-08  0.2026E-12  0.1052E-09  0.3622E-46  0.1027E+17
   -1.787494    2.11566  0.3589E-12  0.3232E-08  0.2638E-12  0.1528E-09  0.2453E-47  0.8791E+16
   -1.856245    2.43524  0.3588E-12  0.2938E-08  0.5040E-12  0.3439E-09  0.1530E-48  0.7452E+16
   -1.924996    2.77306  0.3589E-12  0.6026E-08  0.1391E-11  0.1157E-08  0.8716E-50  0.6117E+16
   -1.993746    3.15301  0.3588E-12  0.1906E-07  0.4477E-11  0.6388E-08  0.5410E-51  0.4234E+16
   -2.062496    3.62704  0.3585E-12  0.4197E-07  0.9755E-11  0.1362E-04  0.4370E-52  0.1315E+16
   -2.131246    4.02574  0.3579E-12  0.4944E-07  0.1162E-10  0.7359E-04  0.3118E-53  0.2921E+14
   -2.199995    4.06463  0.3579E-12  0.5174E-07  0.1235E-10  0.8580E-04  0.2046E-54 -0.1581E+13
   -2.268744    4.06595  0.3579E-12  0.5316E-07  0.1303E-10  0.8500E-04  0.1024E-54 -0.1646E+13
   -2.337493    4.06730  0.3579E-12  0.5418E-07  0.1385E-10  0.8258E-04  0.5050E-55 -0.1748E+13
   -2.406241    4.06870  0.3579E-12  0.5482E-07  0.1497E-10  0.7709E-04  0.2349E-55 -0.1937E+13
   -2.474988    4.07023  0.3579E-12  0.5496E-07  0.1672E-10  0.6530E-04  0.9776E-56 -0.2385E+13
   -2.543735    4.07208  0.3579E-12  0.5427E-07  0.1988E-10  0.4831E-04  0.3553E-56 -0.3416E+13
   -2.612481    4.07464  0.3579E-12  0.5177E-07  0.2738E-10  0.2770E-04  0.1002E-56 -0.6603E+13
   -2.681227    4.07938  0.3579E-12  0.3719E-07  0.8139E-10  0.3422E-05  0.1594E-57 -0.7884E+14
   -2.749972    4.12351  0.3579E-12  0.0000E+00  0.0000E+00  0.0000E+00  0.1643E-57  0.0000E+00
