 1 - depth, m
 2 - temperature, C
 3 - salinity, kg/kg
 4 - turbulent kinetic energy, m**2/s**2
 5 - dissipation rate, m**2/s**3
 6 - kinematic heat conductance, m**2/s
 7 - modulus of horizontal velocity, m/s
 8 - Richardson number, n/d
   -0.000000   -0.00000  0.6271E-11  0.1219E-13  0.7603E-17  0.1000E-09  0.0000E+00  0.1712E+17
   -0.068746    0.26633  0.5272E-12  0.1219E-13  0.7603E-17  0.1000E-09  0.0000E+00  0.1567E+17
   -0.137492    0.52931  0.5601E-12  0.1219E-13  0.7603E-17  0.1000E-09  0.0000E+00  0.1419E+17
   -0.206239    0.78708  0.5517E-12  0.1219E-13  0.7603E-17  0.1000E-09  0.0000E+00  0.1269E+17
   -0.274986    1.03785  0.5517E-12  0.1219E-13  0.7603E-17  0.1000E-09  0.0000E+00  0.1123E+17
   -0.343734    1.28013  0.5517E-12  0.1219E-13  0.7603E-17  0.1000E-09  0.0000E+00  0.9840E+16
   -0.412483    1.51275  0.5517E-12  0.1219E-13  0.7603E-17  0.1000E-09  0.0000E+00  0.8537E+16
   -0.481232    1.73481  0.5517E-12  0.1219E-13  0.7603E-17  0.1000E-09  0.0000E+00  0.7338E+16
   -0.549981    1.94570  0.5517E-12  0.1219E-13  0.7603E-17  0.1000E-09  0.0000E+00  0.6250E+16
   -0.618731    2.14496  0.5517E-12  0.1219E-13  0.7603E-17  0.1000E-09  0.0000E+00  0.5275E+16
   -0.687482    2.33233  0.5517E-12  0.1219E-13  0.7603E-17  0.1000E-09  0.0000E+00  0.4418E+16
   -0.756232    2.50795  0.5517E-12  0.1219E-13  0.7603E-17  0.1000E-09  0.0000E+00  0.3668E+16
   -0.824983    2.67195  0.5517E-12  0.1219E-13  0.7603E-17  0.1000E-09  0.0000E+00  0.3015E+16
   -0.893734    2.82439  0.5517E-12  0.1219E-13  0.7603E-17  0.1000E-09  0.0000E+00  0.2453E+16
   -0.962486    2.96537  0.5517E-12  0.1219E-13  0.7603E-17  0.1000E-09  0.0000E+00  0.1973E+16
   -1.031238    3.09510  0.5517E-12  0.1219E-13  0.7603E-17  0.1000E-09  0.0000E+00  0.1568E+16
   -1.099989    3.21382  0.5517E-12  0.1447E-13  0.7603E-17  0.1000E-09  0.0000E+00  0.1230E+16
   -1.168741    3.32185  0.5517E-12  0.4944E-13  0.7686E-17  0.1000E-09  0.0000E+00  0.9513E+15
   -1.237493    3.41953  0.5517E-12  0.1303E-12  0.1077E-16  0.1000E-09  0.0000E+00  0.7247E+15
   -1.306246    3.50727  0.5517E-12  0.2750E-12  0.1896E-16  0.1000E-09  0.0000E+00  0.5429E+15
   -1.374998    3.58551  0.5517E-12  0.5326E-12  0.3451E-16  0.1000E-09  0.0000E+00  0.4016E+15
   -1.443750    3.65515  0.5517E-12  0.9975E-12  0.6268E-16  0.1000E-09  0.0000E+00  0.2916E+15
   -1.512502    3.71683  0.5517E-12  0.1842E-11  0.1132E-15  0.1000E-09  0.0000E+00  0.2068E+15
   -1.581254    3.77108  0.5517E-12  0.3374E-11  0.2034E-15  0.1000E-09  0.0000E+00  0.1426E+15
   -1.650006    3.81843  0.5517E-12  0.6146E-11  0.3636E-15  0.1000E-09  0.0000E+00  0.9491E+14
   -1.718758    3.85944  0.5517E-12  0.1114E-10  0.6471E-15  0.1000E-09  0.0000E+00  0.6040E+14
   -1.787510    3.89465  0.5517E-12  0.2049E-10  0.1168E-14  0.1636E-09  0.0000E+00  0.3644E+14
   -1.856261    3.92502  0.5517E-12  0.3819E-10  0.2137E-14  0.5619E-09  0.0000E+00  0.1946E+14
   -1.925012    3.95058  0.5517E-12  0.7136E-10  0.3923E-14  0.2448E-08  0.0000E+00  0.8249E+13
   -1.993763    3.97125  0.5517E-12  0.1324E-09  0.7168E-14  0.2085E-07  0.0000E+00  0.1806E+13
   -2.062514    3.98606  0.5517E-12  0.2223E-09  0.1203E-13  0.7738E-06  0.0000E+00 -0.3815E+11
   -2.131264    3.98875  0.5517E-12  0.3102E-09  0.1821E-13  0.1406E-05  0.0000E+00 -0.7946E+11
   -2.200014    3.99033  0.5517E-12  0.3973E-09  0.2618E-13  0.1700E-05  0.0000E+00 -0.1049E+12
   -2.268763    3.99174  0.5517E-12  0.4880E-09  0.3733E-13  0.1844E-05  0.0000E+00 -0.1439E+12
   -2.337513    3.99323  0.5517E-12  0.5884E-09  0.5445E-13  0.1856E-05  0.0000E+00 -0.2120E+12
   -2.406261    3.99497  0.5517E-12  0.7042E-09  0.8304E-13  0.1742E-05  0.0000E+00 -0.3443E+12
   -2.475009    3.99721  0.5517E-12  0.8460E-09  0.1367E-12  0.1516E-05  0.0000E+00 -0.6435E+12
   -2.543757    4.00049  0.5517E-12  0.1035E-08  0.2548E-12  0.1194E-05  0.0000E+00 -0.1473E+13
   -2.612504    4.00603  0.5517E-12  0.1337E-08  0.5921E-12  0.8479E-06  0.0000E+00 -0.4724E+13
   -2.681250    4.01781  0.5517E-12  0.1988E-08  0.2091E-11  0.5942E-06  0.0000E+00 -0.2876E+14
   -2.749995    4.05462  0.5517E-12  0.0000E+00  0.0000E+00  0.0000E+00  0.0000E+00  0.0000E+00
