 1 - depth, m
 2 - temperature, C
 3 - salinity, kg/kg
 4 - turbulent kinetic energy, m**2/s**2
 5 - dissipation rate, m**2/s**3
 6 - kinematic heat conductance, m**2/s
 7 - modulus of horizontal velocity, m/s
 8 - Richardson number, n/d
   -0.000000   -0.00000  0.1294E-11  0.1219E-13  0.7603E-17  0.1000E-09  0.0000E+00  0.8328E+16
   -0.068746    0.12709  0.1200E-11  0.1219E-13  0.7603E-17  0.1000E-09  0.0000E+00  0.8044E+16
   -0.137492    0.25424  0.9152E-12  0.1219E-13  0.7603E-17  0.1000E-09  0.0000E+00  0.7751E+16
   -0.206239    0.38128  0.6941E-12  0.1219E-13  0.7603E-17  0.1000E-09  0.0000E+00  0.7451E+16
   -0.274987    0.50805  0.5735E-12  0.1219E-13  0.7603E-17  0.1000E-09  0.0000E+00  0.7145E+16
   -0.343735    0.63437  0.5181E-12  0.1219E-13  0.7603E-17  0.1000E-09  0.0000E+00  0.6834E+16
   -0.412484    0.76010  0.4947E-12  0.1219E-13  0.7603E-17  0.1000E-09  0.0000E+00  0.6520E+16
   -0.481233    0.88507  0.4844E-12  0.1219E-13  0.7603E-17  0.1000E-09  0.0000E+00  0.6205E+16
   -0.549983    1.00913  0.4786E-12  0.1219E-13  0.7603E-17  0.1000E-09  0.0000E+00  0.5890E+16
   -0.618733    1.13213  0.4740E-12  0.1219E-13  0.7603E-17  0.1000E-09  0.0000E+00  0.5576E+16
   -0.687483    1.25393  0.4698E-12  0.1219E-13  0.7603E-17  0.1000E-09  0.0000E+00  0.5267E+16
   -0.756234    1.37443  0.4659E-12  0.1219E-13  0.7603E-17  0.1000E-09  0.0000E+00  0.4962E+16
   -0.824985    1.49354  0.4625E-12  0.1219E-13  0.7603E-17  0.1000E-09  0.0000E+00  0.4663E+16
   -0.893736    1.61113  0.4598E-12  0.1219E-13  0.7603E-17  0.1000E-09  0.0000E+00  0.4369E+16
   -0.962488    1.72708  0.4579E-12  0.1219E-13  0.7603E-17  0.1000E-09  0.0000E+00  0.4081E+16
   -1.031239    1.84128  0.4568E-12  0.1219E-13  0.7603E-17  0.1000E-09  0.0000E+00  0.3801E+16
   -1.099991    1.95362  0.4561E-12  0.1219E-13  0.7603E-17  0.1000E-09  0.0000E+00  0.3530E+16
   -1.168744    2.06401  0.4558E-12  0.1219E-13  0.7603E-17  0.1000E-09  0.0000E+00  0.3267E+16
   -1.237496    2.17235  0.4557E-12  0.1219E-13  0.7603E-17  0.1000E-09  0.0000E+00  0.3013E+16
   -1.306248    2.27857  0.4556E-12  0.1219E-13  0.7603E-17  0.1000E-09  0.0000E+00  0.2770E+16
   -1.375000    2.38257  0.4556E-12  0.1219E-13  0.7603E-17  0.1000E-09  0.0000E+00  0.2538E+16
   -1.443753    2.48433  0.4556E-12  0.1219E-13  0.7603E-17  0.1000E-09  0.0000E+00  0.2316E+16
   -1.512505    2.58380  0.4556E-12  0.1219E-13  0.7603E-17  0.1000E-09  0.0000E+00  0.2105E+16
   -1.581257    2.68091  0.4556E-12  0.1219E-13  0.7603E-17  0.1000E-09  0.0000E+00  0.1904E+16
   -1.650009    2.77562  0.4556E-12  0.1219E-13  0.7603E-17  0.1000E-09  0.0000E+00  0.1715E+16
   -1.718761    2.86788  0.4556E-12  0.1219E-13  0.7603E-17  0.1000E-09  0.0000E+00  0.1535E+16
   -1.787513    2.95763  0.4556E-12  0.1219E-13  0.7603E-17  0.1000E-09  0.0000E+00  0.1361E+16
   -1.856264    3.04445  0.4556E-12  0.1219E-13  0.7603E-17  0.1000E-09  0.0000E+00  0.1194E+16
   -1.925016    3.12795  0.4556E-12  0.1219E-13  0.7603E-17  0.1000E-09  0.0000E+00  0.1036E+16
   -1.993767    3.20768  0.4556E-12  0.1219E-13  0.7603E-17  0.1000E-09  0.0000E+00  0.8891E+15
   -2.062518    3.28341  0.4556E-12  0.1219E-13  0.7603E-17  0.1000E-09  0.0000E+00  0.7825E+15
   -2.131268    3.35766  0.4556E-12  0.1219E-13  0.7603E-17  0.1000E-09  0.0000E+00  0.6847E+15
   -2.200018    3.43079  0.4556E-12  0.1219E-13  0.7603E-17  0.1000E-09  0.0000E+00  0.5914E+15
   -2.268768    3.50287  0.4556E-12  0.1219E-13  0.7603E-17  0.1000E-09  0.0000E+00  0.5061E+15
   -2.337517    3.57454  0.4556E-12  0.1219E-13  0.7682E-17  0.1000E-09  0.0000E+00  0.4252E+15
   -2.406266    3.64632  0.4556E-12  0.5666E-13  0.3685E-16  0.1000E-09  0.0000E+00  0.3466E+15
   -2.475014    3.71881  0.4556E-12  0.3667E-12  0.2327E-15  0.1000E-09  0.0000E+00  0.2688E+15
   -2.543761    3.79302  0.4556E-12  0.2412E-11  0.1498E-14  0.1000E-09  0.0000E+00  0.1883E+15
   -2.612508    3.87066  0.4556E-12  0.1641E-10  0.1007E-13  0.4476E-09  0.0000E+00  0.9795E+14
   -2.681255    3.95661  0.4556E-12  0.1227E-09  0.7652E-13  0.7654E-07  0.0000E+00 -0.1116E+14
   -2.750001    4.03439  0.4556E-12  0.0000E+00  0.0000E+00  0.0000E+00  0.0000E+00  0.0000E+00
