 1 - depth, m
 2 - temperature, C
 3 - salinity, kg/kg
 4 - turbulent kinetic energy, m**2/s**2
 5 - dissipation rate, m**2/s**3
 6 - kinematic heat conductance, m**2/s
 7 - modulus of horizontal velocity, m/s
 8 - Richardson number, n/d
   -0.000000   -0.00000  0.1981E-11  0.1219E-13  0.7603E-17  0.1000E-09  0.0000E+00  0.9574E+16
   -0.068746    0.14650  0.1159E-11  0.1219E-13  0.7603E-17  0.1000E-09  0.0000E+00  0.9131E+16
   -0.137492    0.29199  0.7631E-12  0.1219E-13  0.7603E-17  0.1000E-09  0.0000E+00  0.8690E+16
   -0.206239    0.43636  0.5886E-12  0.1219E-13  0.7603E-17  0.1000E-09  0.0000E+00  0.8254E+16
   -0.274987    0.57949  0.5204E-12  0.1219E-13  0.7603E-17  0.1000E-09  0.0000E+00  0.7823E+16
   -0.343735    0.72128  0.4959E-12  0.1219E-13  0.7603E-17  0.1000E-09  0.0000E+00  0.7398E+16
   -0.412483    0.86162  0.4869E-12  0.1219E-13  0.7603E-17  0.1000E-09  0.0000E+00  0.6979E+16
   -0.481232    1.00039  0.4823E-12  0.1219E-13  0.7603E-17  0.1000E-09  0.0000E+00  0.6569E+16
   -0.549982    1.13749  0.4785E-12  0.1219E-13  0.7603E-17  0.1000E-09  0.0000E+00  0.6166E+16
   -0.618732    1.27280  0.4744E-12  0.1219E-13  0.7603E-17  0.1000E-09  0.0000E+00  0.5773E+16
   -0.687482    1.40622  0.4700E-12  0.1219E-13  0.7603E-17  0.1000E-09  0.0000E+00  0.5394E+16
   -0.756233    1.53773  0.4656E-12  0.1219E-13  0.7603E-17  0.1000E-09  0.0000E+00  0.5027E+16
   -0.824984    1.66728  0.4619E-12  0.1219E-13  0.7603E-17  0.1000E-09  0.0000E+00  0.4670E+16
   -0.893735    1.79477  0.4591E-12  0.1219E-13  0.7603E-17  0.1000E-09  0.0000E+00  0.4325E+16
   -0.962487    1.92008  0.4573E-12  0.1219E-13  0.7603E-17  0.1000E-09  0.0000E+00  0.3990E+16
   -1.031238    2.04313  0.4563E-12  0.1219E-13  0.7603E-17  0.1000E-09  0.0000E+00  0.3668E+16
   -1.099990    2.16380  0.4559E-12  0.1219E-13  0.7603E-17  0.1000E-09  0.0000E+00  0.3359E+16
   -1.168742    2.28201  0.4557E-12  0.1219E-13  0.7603E-17  0.1000E-09  0.0000E+00  0.3062E+16
   -1.237494    2.39764  0.4556E-12  0.1219E-13  0.7603E-17  0.1000E-09  0.0000E+00  0.2779E+16
   -1.306247    2.51060  0.4556E-12  0.1219E-13  0.7603E-17  0.1000E-09  0.0000E+00  0.2509E+16
   -1.374999    2.62081  0.4556E-12  0.1219E-13  0.7603E-17  0.1000E-09  0.0000E+00  0.2253E+16
   -1.443751    2.72820  0.4556E-12  0.1219E-13  0.7603E-17  0.1000E-09  0.0000E+00  0.2012E+16
   -1.512503    2.83270  0.4556E-12  0.1219E-13  0.7603E-17  0.1000E-09  0.0000E+00  0.1785E+16
   -1.581255    2.93422  0.4556E-12  0.1219E-13  0.7603E-17  0.1000E-09  0.0000E+00  0.1572E+16
   -1.650007    3.03269  0.4556E-12  0.1219E-13  0.7603E-17  0.1000E-09  0.0000E+00  0.1373E+16
   -1.718759    3.12803  0.4556E-12  0.1219E-13  0.7603E-17  0.1000E-09  0.0000E+00  0.1188E+16
   -1.787511    3.22017  0.4556E-12  0.1219E-13  0.7603E-17  0.1000E-09  0.0000E+00  0.1010E+16
   -1.856262    3.30848  0.4556E-12  0.1219E-13  0.7603E-17  0.1000E-09  0.0000E+00  0.8449E+15
   -1.925014    3.39245  0.4556E-12  0.1219E-13  0.7603E-17  0.1000E-09  0.0000E+00  0.6920E+15
   -1.993765    3.47144  0.4556E-12  0.3357E-13  0.1174E-16  0.1000E-09  0.0000E+00  0.5560E+15
   -2.062515    3.54513  0.4556E-12  0.1327E-12  0.4123E-16  0.1000E-09  0.0000E+00  0.4577E+15
   -2.131266    3.61676  0.4556E-12  0.5070E-12  0.1511E-15  0.1000E-09  0.0000E+00  0.3686E+15
   -2.200016    3.68671  0.4556E-12  0.1896E-11  0.5459E-15  0.1000E-09  0.0000E+00  0.2851E+15
   -2.268765    3.75498  0.4556E-12  0.7045E-11  0.1961E-14  0.1000E-09  0.0000E+00  0.2090E+15
   -2.337514    3.82226  0.4556E-12  0.2627E-10  0.7087E-14  0.2573E-09  0.0000E+00  0.1369E+15
   -2.406263    3.88900  0.4556E-12  0.9760E-10  0.2558E-13  0.1868E-08  0.0000E+00  0.6663E+14
   -2.475011    3.95516  0.4556E-12  0.3562E-09  0.9150E-13  0.5798E-07  0.0000E+00  0.5255E+13
   -2.543758    4.00369  0.4556E-12  0.1055E-08  0.2943E-12  0.1407E-05  0.0000E+00 -0.2214E+13
   -2.612505    4.01049  0.4556E-12  0.1434E-08  0.5723E-12  0.1185E-05  0.0000E+00 -0.4255E+13
   -2.681252    4.01990  0.4556E-12  0.1647E-08  0.1558E-11  0.5175E-06  0.0000E+00 -0.2246E+14
   -2.749997    4.04954  0.4556E-12  0.0000E+00  0.0000E+00  0.0000E+00  0.0000E+00  0.0000E+00
