 1 - depth, m
 2 - temperature, C
 3 - salinity, kg/kg
 4 - turbulent kinetic energy, m**2/s**2
 5 - dissipation rate, m**2/s**3
 6 - kinematic heat conductance, m**2/s
 7 - modulus of horizontal velocity, m/s
 8 - Richardson number, n/d
   -0.000000   -0.00000  0.1476E-11  0.1219E-13  0.7603E-17  0.1000E-09  0.0000E+00  0.8898E+16
   -0.068746    0.13595  0.7497E-12  0.1219E-13  0.7603E-17  0.1000E-09  0.0000E+00  0.8467E+16
   -0.137492    0.27025  0.4898E-12  0.1219E-13  0.7603E-17  0.1000E-09  0.0000E+00  0.8073E+16
   -0.206239    0.40330  0.4016E-12  0.1219E-13  0.7603E-17  0.1000E-09  0.0000E+00  0.7710E+16
   -0.274986    0.53544  0.3778E-12  0.1219E-13  0.7603E-17  0.1000E-09  0.0000E+00  0.7373E+16
   -0.343734    0.66703  0.3726E-12  0.1219E-13  0.7603E-17  0.1000E-09  0.0000E+00  0.7058E+16
   -0.412483    0.79837  0.3716E-12  0.1219E-13  0.7603E-17  0.1000E-09  0.0000E+00  0.6761E+16
   -0.481232    0.92978  0.3714E-12  0.1219E-13  0.7603E-17  0.1000E-09  0.0000E+00  0.6478E+16
   -0.549981    1.06152  0.3714E-12  0.1219E-13  0.7603E-17  0.1000E-09  0.0000E+00  0.6205E+16
   -0.618731    1.19383  0.3714E-12  0.1219E-13  0.7603E-17  0.1000E-09  0.0000E+00  0.5939E+16
   -0.687482    1.32691  0.3714E-12  0.1219E-13  0.7603E-17  0.1000E-09  0.0000E+00  0.5686E+16
   -0.756232    1.46120  0.3714E-12  0.1219E-13  0.7603E-17  0.1000E-09  0.0000E+00  0.5438E+16
   -0.824983    1.59699  0.3714E-12  0.1219E-13  0.7603E-17  0.1000E-09  0.0000E+00  0.5184E+16
   -0.893734    1.73436  0.3713E-12  0.5011E-13  0.8201E-17  0.1000E-09  0.0000E+00  0.4922E+16
   -0.962486    1.87337  0.3712E-12  0.1400E-12  0.1678E-16  0.1000E-09  0.0000E+00  0.4650E+16
   -1.031237    2.01400  0.3708E-12  0.3360E-12  0.3724E-16  0.1000E-09  0.0000E+00  0.4367E+16
   -1.099989    2.15623  0.3701E-12  0.7677E-12  0.8205E-16  0.1000E-09  0.0000E+00  0.4071E+16
   -1.168741    2.29995  0.3689E-12  0.1718E-11  0.1786E-15  0.1000E-09  0.0000E+00  0.3764E+16
   -1.237493    2.44503  0.3672E-12  0.3798E-11  0.3847E-15  0.1000E-09  0.0000E+00  0.3444E+16
   -1.306245    2.59130  0.3649E-12  0.8311E-11  0.8207E-15  0.1000E-09  0.0000E+00  0.3112E+16
   -1.374998    2.73853  0.3627E-12  0.1801E-10  0.1735E-14  0.1000E-09  0.0000E+00  0.2774E+16
   -1.443750    2.88660  0.3609E-12  0.3868E-10  0.3634E-14  0.1000E-09  0.0000E+00  0.2427E+16
   -1.512502    3.03526  0.3598E-12  0.8233E-10  0.7548E-14  0.1000E-09  0.0000E+00  0.2073E+16
   -1.581254    3.18416  0.3593E-12  0.1737E-09  0.1554E-13  0.1000E-09  0.0000E+00  0.1715E+16
   -1.650006    3.33289  0.3589E-12  0.3633E-09  0.3174E-13  0.1190E-09  0.0000E+00  0.1357E+16
   -1.718758    3.48103  0.3587E-12  0.7533E-09  0.6428E-13  0.3268E-09  0.0000E+00  0.1001E+16
   -1.787509    3.62797  0.3585E-12  0.1584E-08  0.1319E-12  0.1024E-08  0.0000E+00  0.6556E+15
   -1.856261    3.77397  0.3583E-12  0.3354E-08  0.2730E-12  0.4406E-08  0.0000E+00  0.3152E+15
   -1.925012    3.91598  0.3583E-12  0.6833E-08  0.5462E-12  0.7953E-07  0.0000E+00  0.3470E+14
   -1.993763    4.00909  0.3583E-12  0.7644E-08  0.6144E-12  0.3879E-04  0.0000E+00 -0.1912E+12
   -2.062514    4.00962  0.3583E-12  0.7994E-08  0.6507E-12  0.3919E-04  0.0000E+00 -0.1943E+12
   -2.131264    4.01014  0.3583E-12  0.8280E-08  0.6894E-12  0.3883E-04  0.0000E+00 -0.2014E+12
   -2.200014    4.01068  0.3583E-12  0.8506E-08  0.7323E-12  0.3771E-04  0.0000E+00 -0.2132E+12
   -2.268763    4.01123  0.3583E-12  0.8674E-08  0.7827E-12  0.3582E-04  0.0000E+00 -0.2316E+12
   -2.337512    4.01182  0.3583E-12  0.8787E-08  0.8474E-12  0.3298E-04  0.0000E+00 -0.2610E+12
   -2.406261    4.01246  0.3583E-12  0.8834E-08  0.9374E-12  0.2903E-04  0.0000E+00 -0.3100E+12
   -2.475009    4.01321  0.3583E-12  0.8795E-08  0.1076E-11  0.2379E-04  0.0000E+00 -0.4012E+12
   -2.543756    4.01414  0.3583E-12  0.8615E-08  0.1328E-11  0.1709E-04  0.0000E+00 -0.6075E+12
   -2.612503    4.01550  0.3583E-12  0.8119E-08  0.1950E-11  0.9040E-05  0.0000E+00 -0.1339E+13
   -2.681250    4.01830  0.3583E-12  0.6082E-08  0.5655E-11  0.1350E-05  0.0000E+00 -0.1533E+14
   -2.749995    4.04091  0.3583E-12  0.0000E+00  0.0000E+00  0.0000E+00  0.0000E+00  0.0000E+00
