 1 - depth, m
 2 - temperature, C
 3 - salinity, kg/kg
 4 - turbulent kinetic energy, m**2/s**2
 5 - dissipation rate, m**2/s**3
 6 - kinematic heat conductance, m**2/s
 7 - modulus of horizontal velocity, m/s
 8 - Richardson number, n/d
   -0.000000   -0.00000  0.3821E-11  0.1219E-13  0.7603E-17  0.1000E-09  0.0000E+00  0.1165E+17
   -0.068746    0.17904  0.1816E-11  0.1219E-13  0.7603E-17  0.1000E-09  0.0000E+00  0.1099E+17
   -0.137492    0.35661  0.9044E-12  0.1219E-13  0.7603E-17  0.1000E-09  0.0000E+00  0.1033E+17
   -0.206239    0.53227  0.6263E-12  0.1219E-13  0.7603E-17  0.1000E-09  0.0000E+00  0.9656E+16
   -0.274987    0.70555  0.5642E-12  0.1219E-13  0.7603E-17  0.1000E-09  0.0000E+00  0.8988E+16
   -0.343735    0.87600  0.5534E-12  0.1219E-13  0.7603E-17  0.1000E-09  0.0000E+00  0.8327E+16
   -0.412483    1.04322  0.5519E-12  0.1219E-13  0.7603E-17  0.1000E-09  0.0000E+00  0.7680E+16
   -0.481232    1.20680  0.5517E-12  0.1219E-13  0.7603E-17  0.1000E-09  0.0000E+00  0.7050E+16
   -0.549982    1.36638  0.5517E-12  0.1219E-13  0.7603E-17  0.1000E-09  0.0000E+00  0.6442E+16
   -0.618732    1.52163  0.5517E-12  0.1219E-13  0.7603E-17  0.1000E-09  0.0000E+00  0.5859E+16
   -0.687482    1.67225  0.5517E-12  0.1219E-13  0.7603E-17  0.1000E-09  0.0000E+00  0.5307E+16
   -0.756233    1.81807  0.5517E-12  0.1219E-13  0.7603E-17  0.1000E-09  0.0000E+00  0.4787E+16
   -0.824984    1.95892  0.5517E-12  0.1219E-13  0.7603E-17  0.1000E-09  0.0000E+00  0.4297E+16
   -0.893735    2.09457  0.5517E-12  0.1219E-13  0.7603E-17  0.1000E-09  0.0000E+00  0.3838E+16
   -0.962486    2.22484  0.5517E-12  0.1219E-13  0.7603E-17  0.1000E-09  0.0000E+00  0.3412E+16
   -1.031238    2.34958  0.5517E-12  0.1219E-13  0.7603E-17  0.1000E-09  0.0000E+00  0.3017E+16
   -1.099990    2.46865  0.5517E-12  0.1219E-13  0.7603E-17  0.1000E-09  0.0000E+00  0.2655E+16
   -1.168742    2.58197  0.5517E-12  0.1219E-13  0.7603E-17  0.1000E-09  0.0000E+00  0.2324E+16
   -1.237494    2.68945  0.5517E-12  0.1219E-13  0.7603E-17  0.1000E-09  0.0000E+00  0.2023E+16
   -1.306246    2.79106  0.5517E-12  0.1219E-13  0.7603E-17  0.1000E-09  0.0000E+00  0.1752E+16
   -1.374999    2.88677  0.5517E-12  0.1219E-13  0.7603E-17  0.1000E-09  0.0000E+00  0.1513E+16
   -1.443751    2.97686  0.5517E-12  0.1219E-13  0.7603E-17  0.1000E-09  0.0000E+00  0.1301E+16
   -1.512503    3.06145  0.5517E-12  0.1219E-13  0.7603E-17  0.1000E-09  0.0000E+00  0.1113E+16
   -1.581255    3.14059  0.5517E-12  0.1219E-13  0.7603E-17  0.1000E-09  0.0000E+00  0.9467E+15
   -1.650007    3.21435  0.5517E-12  0.1219E-13  0.7603E-17  0.1000E-09  0.0000E+00  0.8006E+15
   -1.718759    3.28283  0.5517E-12  0.1219E-13  0.7603E-17  0.1000E-09  0.0000E+00  0.6736E+15
   -1.787511    3.34615  0.5517E-12  0.1219E-13  0.7603E-17  0.1000E-09  0.0000E+00  0.5685E+15
   -1.856262    3.40500  0.5517E-12  0.1219E-13  0.7603E-17  0.1000E-09  0.0000E+00  0.4742E+15
   -1.925013    3.45914  0.5517E-12  0.1219E-13  0.7603E-17  0.1000E-09  0.0000E+00  0.3896E+15
   -1.993764    3.50823  0.5517E-12  0.1219E-13  0.7603E-17  0.1000E-09  0.0000E+00  0.3153E+15
   -2.062515    3.55203  0.5517E-12  0.1219E-13  0.7603E-17  0.1000E-09  0.0000E+00  0.2694E+15
   -2.131265    3.59333  0.5517E-12  0.1219E-13  0.7603E-17  0.1000E-09  0.0000E+00  0.2317E+15
   -2.200015    3.63271  0.5517E-12  0.1219E-13  0.7603E-17  0.1000E-09  0.0000E+00  0.1987E+15
   -2.268765    3.67041  0.5517E-12  0.1219E-13  0.7603E-17  0.1000E-09  0.0000E+00  0.1745E+15
   -2.337514    3.70770  0.5517E-12  0.1374E-13  0.8517E-17  0.1000E-09  0.0000E+00  0.1550E+15
   -2.406263    3.74567  0.5517E-12  0.7175E-13  0.4382E-16  0.1000E-09  0.0000E+00  0.1384E+15
   -2.475011    3.78557  0.5517E-12  0.4387E-12  0.2673E-15  0.1000E-09  0.0000E+00  0.1234E+15
   -2.543758    3.82952  0.5517E-12  0.2752E-11  0.1682E-14  0.1000E-09  0.0000E+00  0.1061E+15
   -2.612505    3.88111  0.5517E-12  0.1818E-10  0.1123E-13  0.6123E-09  0.0000E+00  0.7672E+14
   -2.681251    3.95052  0.5517E-12  0.1346E-09  0.8583E-13  0.8159E-07  0.0000E+00 -0.1159E+14
   -2.749997    4.03891  0.5517E-12  0.0000E+00  0.0000E+00  0.0000E+00  0.0000E+00  0.0000E+00
