 1 - depth, m
 2 - temperature, C
 3 - salinity, kg/kg
 4 - turbulent kinetic energy, m**2/s**2
 5 - dissipation rate, m**2/s**3
 6 - kinematic heat conductance, m**2/s
 7 - modulus of horizontal velocity, m/s
 8 - Richardson number, n/d
   -0.000000   -0.00000  0.2133E-11  0.2338E-07  0.6451E-10  0.3380E-08  0.8832E-89  0.9367E+17
   -0.068745    1.86634  0.5003E-12  0.3111E-06  0.5845E-10  0.9469E-08  0.7452E-89  0.3403E+17
   -0.137491    3.64764  0.5528E-12  0.5164E-06  0.8551E-10  0.3811E-03  0.4206E-89  0.1915E+16
   -0.206237    4.19743  0.5519E-12  0.5189E-06  0.8583E-10  0.9997E-03  0.2890E-90 -0.9375E+12
   -0.274984    4.19773  0.5519E-12  0.5202E-06  0.8602E-10  0.9947E-03  0.2816E-90 -0.8907E+12
   -0.343731    4.19800  0.5519E-12  0.5212E-06  0.8623E-10  0.9967E-03  0.2742E-90 -0.8512E+12
   -0.412479    4.19827  0.5519E-12  0.5220E-06  0.8647E-10  0.9978E-03  0.2664E-90 -0.8305E+12
   -0.481228    4.19852  0.5519E-12  0.5226E-06  0.8673E-10  0.9977E-03  0.2588E-90 -0.8138E+12
   -0.549977    4.19877  0.5519E-12  0.5230E-06  0.8702E-10  0.9965E-03  0.2508E-90 -0.7999E+12
   -0.618726    4.19902  0.5519E-12  0.5233E-06  0.8735E-10  0.9942E-03  0.2429E-90 -0.7894E+12
   -0.687476    4.19926  0.5519E-12  0.5234E-06  0.8773E-10  0.9908E-03  0.2347E-90 -0.7803E+12
   -0.756226    4.19950  0.5519E-12  0.5233E-06  0.8814E-10  0.9864E-03  0.2266E-90 -0.7735E+12
   -0.824976    4.19973  0.5519E-12  0.5230E-06  0.8860E-10  0.9811E-03  0.2181E-90 -0.7682E+12
   -0.893727    4.19996  0.5519E-12  0.5227E-06  0.8912E-10  0.9747E-03  0.2097E-90 -0.7651E+12
   -0.962478    4.20020  0.5519E-12  0.5222E-06  0.8969E-10  0.9673E-03  0.2010E-90 -0.7633E+12
   -1.031229    4.20043  0.5519E-12  0.5216E-06  0.9033E-10  0.9589E-03  0.1922E-90 -0.7635E+12
   -1.099980    4.20066  0.5519E-12  0.5208E-06  0.9103E-10  0.9496E-03  0.1831E-90 -0.7648E+12
   -1.168731    4.20089  0.5519E-12  0.5200E-06  0.9180E-10  0.9393E-03  0.1741E-90 -0.7679E+12
   -1.237483    4.20112  0.5519E-12  0.5190E-06  0.9265E-10  0.9282E-03  0.1646E-90 -0.7721E+12
   -1.306235    4.20135  0.5519E-12  0.5180E-06  0.9358E-10  0.9161E-03  0.1552E-90 -0.7780E+12
   -1.374986    4.20158  0.5519E-12  0.5168E-06  0.9461E-10  0.9032E-03  0.1453E-90 -0.7847E+12
   -1.443738    4.20182  0.5519E-12  0.5156E-06  0.9574E-10  0.8893E-03  0.1355E-90 -0.7929E+12
   -1.512489    4.20205  0.5519E-12  0.5143E-06  0.9698E-10  0.8747E-03  0.1252E-90 -0.8023E+12
   -1.581241    4.20229  0.5519E-12  0.5129E-06  0.9833E-10  0.8592E-03  0.1148E-90 -0.8132E+12
   -1.649992    4.20253  0.5519E-12  0.5115E-06  0.9983E-10  0.8430E-03  0.1040E-90 -0.8255E+12
   -1.718743    4.20278  0.5519E-12  0.5100E-06  0.1015E-09  0.8259E-03  0.9308E-91 -0.8399E+12
   -1.787494    4.20303  0.5519E-12  0.5084E-06  0.1033E-09  0.8073E-03  0.8175E-91 -0.8590E+12
   -1.856245    4.20328  0.5519E-12  0.5066E-06  0.1056E-09  0.7862E-03  0.7171E-91 -0.8823E+12
   -1.924996    4.20354  0.5519E-12  0.5046E-06  0.1083E-09  0.7621E-03  0.6260E-91 -0.9113E+12
   -1.993746    4.20381  0.5519E-12  0.5023E-06  0.1117E-09  0.7351E-03  0.5475E-91 -0.9458E+12
   -2.062496    4.20409  0.5519E-12  0.4998E-06  0.1156E-09  0.7061E-03  0.4763E-91 -0.9842E+12
   -2.131246    4.20438  0.5519E-12  0.4971E-06  0.1203E-09  0.6737E-03  0.4107E-91 -0.1030E+13
   -2.199995    4.20468  0.5519E-12  0.4942E-06  0.1259E-09  0.6388E-03  0.3481E-91 -0.1085E+13
   -2.268744    4.20500  0.5519E-12  0.4910E-06  0.1328E-09  0.6011E-03  0.2897E-91 -0.1153E+13
   -2.337493    4.20533  0.5519E-12  0.4873E-06  0.1419E-09  0.5584E-03  0.2360E-91 -0.1243E+13
   -2.406241    4.20570  0.5519E-12  0.4830E-06  0.1544E-09  0.5095E-03  0.1886E-91 -0.1369E+13
   -2.474988    4.20610  0.5519E-12  0.4777E-06  0.1728E-09  0.4562E-03  0.1465E-91 -0.1543E+13
   -2.543735    4.20655  0.5519E-12  0.4699E-06  0.2058E-09  0.3624E-03  0.1106E-91 -0.1949E+13
   -2.612481    4.20711  0.5519E-12  0.4527E-06  0.2971E-09  0.1337E-03  0.7730E-92 -0.5439E+13
   -2.681227    4.20869  0.5519E-12  0.2934E-06  0.1496E-08  0.7699E-05  0.3719E-92 -0.1086E+15
   -2.749972    4.23803  0.5519E-12  0.0000E+00  0.0000E+00  0.0000E+00  0.3801E-92  0.0000E+00
