 1 - depth, m
 2 - temperature, C
 3 - salinity, kg/kg
 4 - turbulent kinetic energy, m**2/s**2
 5 - dissipation rate, m**2/s**3
 6 - kinematic heat conductance, m**2/s
 7 - modulus of horizontal velocity, m/s
 8 - Richardson number, n/d
   -0.000000   -0.00000  0.2135E-11  0.1072E-10  0.3761E-14  0.1000E-09  0.0000E+00  0.5560E+16
   -0.068746    0.08436  0.1055E-11  0.3424E-10  0.2483E-14  0.1000E-09  0.0000E+00  0.5375E+16
   -0.137492    0.16780  0.8399E-12  0.7292E-10  0.2218E-14  0.1000E-09  0.0000E+00  0.5173E+16
   -0.206239    0.24999  0.7936E-12  0.1244E-09  0.2311E-14  0.1000E-09  0.0000E+00  0.4957E+16
   -0.274986    0.33058  0.7786E-12  0.1885E-09  0.2618E-14  0.1000E-09  0.0000E+00  0.4728E+16
   -0.343734    0.40925  0.7701E-12  0.2660E-09  0.3094E-14  0.1000E-09  0.0000E+00  0.4488E+16
   -0.412483    0.48567  0.7641E-12  0.3585E-09  0.3730E-14  0.1000E-09  0.0000E+00  0.4241E+16
   -0.481232    0.55954  0.7598E-12  0.4683E-09  0.4530E-14  0.1000E-09  0.0000E+00  0.3987E+16
   -0.549981    0.63055  0.7572E-12  0.5983E-09  0.5507E-14  0.1000E-09  0.0000E+00  0.3728E+16
   -0.618731    0.69843  0.7556E-12  0.7521E-09  0.6683E-14  0.1000E-09  0.0000E+00  0.3468E+16
   -0.687482    0.76293  0.7546E-12  0.9341E-09  0.8086E-14  0.1000E-09  0.0000E+00  0.3209E+16
   -0.756232    0.82384  0.7534E-12  0.1149E-08  0.9747E-14  0.1000E-09  0.0000E+00  0.2952E+16
   -0.824983    0.88100  0.7517E-12  0.1403E-08  0.1171E-13  0.1000E-09  0.0000E+00  0.2698E+16
   -0.893734    0.93422  0.7492E-12  0.1703E-08  0.1401E-13  0.1000E-09  0.0000E+00  0.2447E+16
   -0.962486    0.98334  0.7462E-12  0.2056E-08  0.1670E-13  0.1000E-09  0.0000E+00  0.2201E+16
   -1.031237    1.02827  0.7435E-12  0.2470E-08  0.1984E-13  0.1000E-09  0.0000E+00  0.1961E+16
   -1.099989    1.06889  0.7413E-12  0.2956E-08  0.2350E-13  0.1000E-09  0.0000E+00  0.1726E+16
   -1.168741    1.10515  0.7399E-12  0.3523E-08  0.2774E-13  0.1040E-09  0.0000E+00  0.1499E+16
   -1.237493    1.13703  0.7391E-12  0.4185E-08  0.3264E-13  0.1302E-09  0.0000E+00  0.1278E+16
   -1.306245    1.16451  0.7386E-12  0.4953E-08  0.3829E-13  0.1830E-09  0.0000E+00  0.1065E+16
   -1.374998    1.18764  0.7384E-12  0.5843E-08  0.4477E-13  0.2640E-09  0.0000E+00  0.8637E+15
   -1.443750    1.20654  0.7383E-12  0.6869E-08  0.5220E-13  0.3962E-09  0.0000E+00  0.6712E+15
   -1.512502    1.22131  0.7383E-12  0.8049E-08  0.6065E-13  0.6350E-09  0.0000E+00  0.4870E+15
   -1.581254    1.23209  0.7383E-12  0.9398E-08  0.7025E-13  0.1152E-08  0.0000E+00  0.3114E+15
   -1.650006    1.23900  0.7382E-12  0.1093E-07  0.8105E-13  0.2882E-08  0.0000E+00  0.1443E+15
   -1.718758    1.24221  0.7382E-12  0.1095E-07  0.8120E-13  0.4460E-03  0.0000E+00  0.1981E+10
   -1.787509    1.24221  0.7382E-12  0.1095E-07  0.8125E-13  0.4668E-03  0.0000E+00 -0.5514E+10
   -1.856261    1.24221  0.7382E-12  0.1095E-07  0.8126E-13  0.4679E-03  0.0000E+00 -0.5329E+10
   -1.925012    1.24221  0.7382E-12  0.1095E-07  0.8123E-13  0.2894E-03  0.0000E+00  0.5633E+12
   -1.993763    1.24222  0.7382E-12  0.1070E-07  0.8001E-13  0.7333E-07  0.0000E+00  0.6623E+13
   -2.062514    1.24237  0.7382E-12  0.1003E-07  0.7711E-13  0.1883E-05  0.0000E+00  0.3025E+13
   -2.131264    1.24244  0.7382E-12  0.9343E-08  0.7451E-13  0.2033E-07  0.0000E+00  0.2012E+14
   -2.200014    1.24288  0.7382E-12  0.8274E-08  0.7121E-13  0.6266E-08  0.0000E+00  0.5933E+14
   -2.268763    1.24421  0.7382E-12  0.7178E-08  0.6873E-13  0.1589E-08  0.0000E+00  0.2216E+15
   -2.337512    1.24915  0.7382E-12  0.6051E-08  0.6752E-13  0.6827E-09  0.0000E+00  0.5049E+15
   -2.406261    1.26043  0.7382E-12  0.4907E-08  0.6844E-13  0.3693E-09  0.0000E+00  0.9449E+15
   -2.475009    1.28170  0.7382E-12  0.3752E-08  0.7331E-13  0.2259E-09  0.0000E+00  0.1653E+16
   -2.543756    1.31932  0.7382E-12  0.2603E-08  0.8650E-13  0.1569E-09  0.0000E+00  0.2812E+16
   -2.612503    1.38462  0.7382E-12  0.1495E-08  0.1224E-12  0.1250E-09  0.0000E+00  0.5209E+16
   -2.681250    1.51034  0.7382E-12  0.5095E-09  0.2623E-12  0.1138E-09  0.0000E+00  0.1300E+17
   -2.749995    1.85753  0.7382E-12  0.0000E+00  0.0000E+00  0.0000E+00  0.0000E+00  0.0000E+00
