 1 - depth, m
 2 - temperature, C
 3 - salinity, kg/kg
 4 - turbulent kinetic energy, m**2/s**2
 5 - dissipation rate, m**2/s**3
 6 - kinematic heat conductance, m**2/s
 7 - modulus of horizontal velocity, m/s
 8 - Richardson number, n/d
   -0.000000   -0.00000  0.6282E-11  0.1219E-13  0.7603E-17  0.1000E-09  0.0000E+00  0.1607E+17
   -0.068746    0.24940  0.7202E-12  0.1219E-13  0.7603E-17  0.1000E-09  0.0000E+00  0.1468E+17
   -0.137492    0.49386  0.5603E-12  0.1219E-13  0.7603E-17  0.1000E-09  0.0000E+00  0.1330E+17
   -0.206239    0.73218  0.5519E-12  0.1219E-13  0.7603E-17  0.1000E-09  0.0000E+00  0.1197E+17
   -0.274986    0.96355  0.5517E-12  0.1219E-13  0.7603E-17  0.1000E-09  0.0000E+00  0.1070E+17
   -0.343735    1.18737  0.5517E-12  0.1219E-13  0.7603E-17  0.1000E-09  0.0000E+00  0.9500E+16
   -0.412483    1.40313  0.5517E-12  0.1219E-13  0.7603E-17  0.1000E-09  0.0000E+00  0.8378E+16
   -0.481232    1.61038  0.5517E-12  0.1219E-13  0.7603E-17  0.1000E-09  0.0000E+00  0.7337E+16
   -0.549982    1.80869  0.5517E-12  0.1219E-13  0.7603E-17  0.1000E-09  0.0000E+00  0.6377E+16
   -0.618732    1.99770  0.5517E-12  0.1219E-13  0.7603E-17  0.1000E-09  0.0000E+00  0.5501E+16
   -0.687482    2.17708  0.5517E-12  0.1219E-13  0.7603E-17  0.1000E-09  0.0000E+00  0.4713E+16
   -0.756233    2.34682  0.5517E-12  0.1219E-13  0.7603E-17  0.1000E-09  0.0000E+00  0.4009E+16
   -0.824984    2.50688  0.5517E-12  0.1219E-13  0.7603E-17  0.1000E-09  0.0000E+00  0.3381E+16
   -0.893735    2.65716  0.5517E-12  0.1219E-13  0.7603E-17  0.1000E-09  0.0000E+00  0.2826E+16
   -0.962486    2.79761  0.5517E-12  0.1219E-13  0.7603E-17  0.1000E-09  0.0000E+00  0.2341E+16
   -1.031238    2.92829  0.5517E-12  0.1219E-13  0.7603E-17  0.1000E-09  0.0000E+00  0.1921E+16
   -1.099990    3.04929  0.5517E-12  0.1219E-13  0.7603E-17  0.1000E-09  0.0000E+00  0.1561E+16
   -1.168742    3.16079  0.5517E-12  0.1219E-13  0.7603E-17  0.1000E-09  0.0000E+00  0.1255E+16
   -1.237494    3.26300  0.5517E-12  0.1219E-13  0.7603E-17  0.1000E-09  0.0000E+00  0.9987E+15
   -1.306246    3.35621  0.5517E-12  0.1219E-13  0.7603E-17  0.1000E-09  0.0000E+00  0.7855E+15
   -1.374998    3.44072  0.5517E-12  0.1219E-13  0.7603E-17  0.1000E-09  0.0000E+00  0.6131E+15
   -1.443751    3.51725  0.5517E-12  0.1219E-13  0.7603E-17  0.1000E-09  0.0000E+00  0.4732E+15
   -1.512503    3.58629  0.5517E-12  0.1219E-13  0.7603E-17  0.1000E-09  0.0000E+00  0.3602E+15
   -1.581255    3.64823  0.5517E-12  0.1219E-13  0.7603E-17  0.1000E-09  0.0000E+00  0.2699E+15
   -1.650007    3.70346  0.5517E-12  0.2144E-13  0.7603E-17  0.1000E-09  0.0000E+00  0.1988E+15
   -1.718759    3.75237  0.5517E-12  0.7628E-13  0.1200E-16  0.1000E-09  0.0000E+00  0.1437E+15
   -1.787510    3.79541  0.5517E-12  0.2100E-12  0.2808E-16  0.1000E-09  0.0000E+00  0.1028E+15
   -1.856262    3.83348  0.5517E-12  0.5359E-12  0.6831E-16  0.1000E-09  0.0000E+00  0.7079E+14
   -1.925013    3.86656  0.5517E-12  0.1335E-11  0.1656E-15  0.1000E-09  0.0000E+00  0.4640E+14
   -1.993764    3.89451  0.5517E-12  0.3301E-11  0.3999E-15  0.1000E-09  0.0000E+00  0.2874E+14
   -2.062515    3.91729  0.5517E-12  0.7933E-11  0.9418E-15  0.2490E-09  0.0000E+00  0.1876E+14
   -2.131265    3.93761  0.5517E-12  0.1884E-10  0.2197E-14  0.9384E-09  0.0000E+00  0.1144E+14
   -2.200015    3.95609  0.5517E-12  0.4432E-10  0.5101E-14  0.4179E-08  0.0000E+00  0.5743E+13
   -2.268765    3.97284  0.5517E-12  0.1031E-09  0.1184E-13  0.3188E-07  0.0000E+00  0.1435E+13
   -2.337514    3.98705  0.5517E-12  0.2263E-09  0.2708E-13  0.4062E-06  0.0000E+00 -0.2627E+12
   -2.406262    3.99221  0.5517E-12  0.3849E-09  0.5532E-13  0.7351E-06  0.0000E+00 -0.4895E+12
   -2.475010    3.99617  0.5517E-12  0.5745E-09  0.1075E-12  0.8778E-06  0.0000E+00 -0.8551E+12
   -2.543758    4.00068  0.5517E-12  0.8135E-09  0.2204E-12  0.8559E-06  0.0000E+00 -0.1788E+13
   -2.612505    4.00716  0.5517E-12  0.1164E-08  0.5384E-12  0.7126E-06  0.0000E+00 -0.5191E+13
   -2.681251    4.01944  0.5517E-12  0.1842E-08  0.1929E-11  0.5588E-06  0.0000E+00 -0.2867E+14
   -2.749997    4.05530  0.5517E-12  0.0000E+00  0.0000E+00  0.0000E+00  0.0000E+00  0.0000E+00
