 1 - depth, m
 2 - temperature, C
 3 - salinity, kg/kg
 4 - turbulent kinetic energy, m**2/s**2
 5 - dissipation rate, m**2/s**3
 6 - kinematic heat conductance, m**2/s
 7 - modulus of horizontal velocity, m/s
 8 - Richardson number, n/d
   -0.000000    0.51422  0.3586E-12  0.7769E-05  0.2279E-06  0.2301E-04  0.3166E-01  0.5615E-01
   -0.068745    0.57572  0.3585E-12  0.6824E-05  0.1018E-06  0.3647E-04  0.2553E-01  0.8530E-01
   -0.137490    0.60500  0.3585E-12  0.5919E-05  0.6279E-07  0.4066E-04  0.2234E-01  0.1296E+00
   -0.206236    0.62879  0.3584E-12  0.5065E-05  0.4350E-07  0.3935E-04  0.2000E-01  0.1733E+00
   -0.274982    0.65117  0.3584E-12  0.4262E-05  0.3181E-07  0.3499E-04  0.1804E-01  0.2181E+00
   -0.343729    0.67397  0.3584E-12  0.3507E-05  0.2382E-07  0.2917E-04  0.1628E-01  0.2648E+00
   -0.412477    0.69888  0.3584E-12  0.2801E-05  0.1791E-07  0.2299E-04  0.1460E-01  0.3147E+00
   -0.481225    0.72875  0.3583E-12  0.2145E-05  0.1322E-07  0.1722E-04  0.1290E-01  0.4268E+00
   -0.549973    0.77881  0.3583E-12  0.1593E-05  0.9461E-08  0.1241E-04  0.1101E-01  0.1175E+01
   -0.618722    0.87334  0.3583E-12  0.1146E-05  0.6814E-08  0.8342E-05  0.9173E-02  0.2614E+01
   -0.687471    0.95137  0.3583E-12  0.7558E-06  0.4680E-08  0.4966E-05  0.7636E-02  0.9746E+01
   -0.756221    1.04088  0.3583E-12  0.4210E-06  0.2868E-08  0.2375E-05  0.6203E-02  0.5754E+02
   -0.824971    1.18409  0.3583E-12  0.1445E-06  0.1133E-08  0.6688E-06  0.4695E-02  0.3274E+03
   -0.893721    1.48433  0.3583E-12  0.2281E-07  0.1839E-09  0.8534E-07  0.2842E-02  0.1401E+04
   -0.962471    1.89536  0.3583E-12  0.1298E-08  0.9316E-11  0.3583E-08  0.1401E-02  0.4755E+04
   -1.031222    2.25368  0.3583E-12  0.8824E-09  0.1261E-11  0.4137E-09  0.6374E-03  0.1427E+05
   -1.099973    2.52550  0.3583E-12  0.3991E-08  0.2455E-11  0.1624E-08  0.2879E-03  0.4443E+05
   -1.168724    2.73394  0.3583E-12  0.1762E-07  0.8448E-11  0.7782E-08  0.1298E-03  0.1517E+06
   -1.237475    2.92102  0.3583E-12  0.6538E-07  0.3007E-10  0.3327E-07  0.5843E-04  0.1311E+06
   -1.306226    3.13997  0.3583E-12  0.9985E-07  0.5771E-10  0.5330E-04  0.2613E-04  0.7990E+08
   -1.374977    3.23936  0.3583E-12  0.1165E-06  0.8196E-10  0.7641E-04  0.1169E-04  0.7643E+07
   -1.443728    3.30651  0.3583E-12  0.1285E-06  0.1051E-09  0.8390E-04  0.5255E-05  0.4369E+08
   -1.512479    3.37110  0.3583E-12  0.1384E-06  0.1280E-09  0.8744E-04  0.2369E-05  0.2702E+07
   -1.581230    3.44593  0.3583E-12  0.1468E-06  0.1499E-09  0.8910E-04  0.1069E-05  0.5219E+07
   -1.649981    3.54554  0.3583E-12  0.1542E-06  0.1712E-09  0.8984E-04  0.4688E-06  0.1440E+08
   -1.718732    3.68510  0.3583E-12  0.1609E-06  0.1924E-09  0.9021E-04  0.1599E-06  0.1630E+09
   -1.787482    3.86211  0.3583E-12  0.1674E-06  0.2151E-09  0.8994E-04  0.2332E-07 -0.1021E+08
   -1.856233    3.98622  0.3583E-12  0.1743E-06  0.2422E-09  0.8938E-04  0.1242E-07 -0.1421E+13
   -1.924983    4.07911  0.3583E-12  0.1818E-06  0.2756E-09  0.8803E-04  0.1012E-07 -0.4698E+14
   -1.993733    4.10398  0.3583E-12  0.1901E-06  0.3182E-09  0.8672E-04  0.8618E-08  0.3466E+14
   -2.062482    4.08088  0.3583E-12  0.1982E-06  0.3669E-09  0.8497E-04  0.7356E-08 -0.1594E+14
   -2.131232    4.09545  0.3583E-12  0.2058E-06  0.4201E-09  0.8343E-04  0.6223E-08 -0.1994E+15
   -2.199980    4.16685  0.3583E-12  0.2134E-06  0.4836E-09  0.7993E-04  0.5203E-08 -0.7712E+15
   -2.268729    4.32581  0.3583E-12  0.2202E-06  0.5553E-09  0.7626E-04  0.4240E-08 -0.1906E+16
   -2.337477    4.55565  0.3583E-12  0.2264E-06  0.6431E-09  0.7205E-04  0.3396E-08 -0.3831E+16
   -2.406224    4.84671  0.3583E-12  0.2310E-06  0.7464E-09  0.6671E-04  0.2667E-08 -0.7047E+16
   -2.474971    5.21346  0.3583E-12  0.2327E-06  0.8685E-09  0.5943E-04  0.2048E-08 -0.1217E+17
   -2.543718    5.67018  0.3583E-12  0.2283E-06  0.1037E-08  0.4969E-04  0.1520E-08 -0.2009E+17
   -2.612464    6.23360  0.3583E-12  0.2106E-06  0.1439E-08  0.2512E-04  0.1019E-08 -0.2758E+17
   -2.681209    6.83667  0.3583E-12  0.1325E-06  0.3908E-08  0.2579E-05  0.5134E-09 -0.8392E+16
   -2.749954    7.01990  0.3583E-12  0.0000E+00  0.0000E+00  0.0000E+00  0.5199E-09  0.0000E+00
