 1 - depth, m
 2 - temperature, C
 3 - salinity, kg/kg
 4 - turbulent kinetic energy, m**2/s**2
 5 - dissipation rate, m**2/s**3
 6 - kinematic heat conductance, m**2/s
 7 - modulus of horizontal velocity, m/s
 8 - Richardson number, n/d
   -0.000000   -0.00000  0.1906E-11  0.1219E-13  0.7603E-17  0.1000E-09  0.0000E+00  0.9810E+16
   -0.068746    0.15018  0.1138E-11  0.1219E-13  0.7603E-17  0.1000E-09  0.0000E+00  0.9368E+16
   -0.137492    0.29968  0.7348E-12  0.1219E-13  0.7603E-17  0.1000E-09  0.0000E+00  0.8923E+16
   -0.206239    0.44835  0.5720E-12  0.1219E-13  0.7603E-17  0.1000E-09  0.0000E+00  0.8478E+16
   -0.274987    0.59600  0.5131E-12  0.1219E-13  0.7603E-17  0.1000E-09  0.0000E+00  0.8032E+16
   -0.343735    0.74245  0.4935E-12  0.1219E-13  0.7603E-17  0.1000E-09  0.0000E+00  0.7588E+16
   -0.412483    0.88753  0.4866E-12  0.1219E-13  0.7603E-17  0.1000E-09  0.0000E+00  0.7149E+16
   -0.481233    1.03108  0.4830E-12  0.1219E-13  0.7603E-17  0.1000E-09  0.0000E+00  0.6716E+16
   -0.549982    1.17293  0.4796E-12  0.1219E-13  0.7603E-17  0.1000E-09  0.0000E+00  0.6291E+16
   -0.618732    1.31296  0.4756E-12  0.1219E-13  0.7603E-17  0.1000E-09  0.0000E+00  0.5875E+16
   -0.687482    1.45102  0.4710E-12  0.1219E-13  0.7603E-17  0.1000E-09  0.0000E+00  0.5473E+16
   -0.756233    1.58712  0.4664E-12  0.1219E-13  0.7603E-17  0.1000E-09  0.0000E+00  0.5086E+16
   -0.824984    1.72120  0.4623E-12  0.1219E-13  0.7603E-17  0.1000E-09  0.0000E+00  0.4709E+16
   -0.893735    1.85315  0.4592E-12  0.1219E-13  0.7603E-17  0.1000E-09  0.0000E+00  0.4344E+16
   -0.962487    1.98286  0.4572E-12  0.1219E-13  0.7603E-17  0.1000E-09  0.0000E+00  0.3992E+16
   -1.031239    2.11021  0.4562E-12  0.1219E-13  0.7603E-17  0.1000E-09  0.0000E+00  0.3653E+16
   -1.099991    2.23511  0.4558E-12  0.1219E-13  0.7603E-17  0.1000E-09  0.0000E+00  0.3327E+16
   -1.168743    2.35745  0.4557E-12  0.1219E-13  0.7603E-17  0.1000E-09  0.0000E+00  0.3016E+16
   -1.237495    2.47711  0.4556E-12  0.1219E-13  0.7603E-17  0.1000E-09  0.0000E+00  0.2719E+16
   -1.306247    2.59399  0.4556E-12  0.1219E-13  0.7603E-17  0.1000E-09  0.0000E+00  0.2436E+16
   -1.374999    2.70799  0.4556E-12  0.1219E-13  0.7603E-17  0.1000E-09  0.0000E+00  0.2169E+16
   -1.443751    2.81904  0.4556E-12  0.1219E-13  0.7603E-17  0.1000E-09  0.0000E+00  0.1917E+16
   -1.512504    2.92705  0.4556E-12  0.1219E-13  0.7603E-17  0.1000E-09  0.0000E+00  0.1681E+16
   -1.581256    3.03193  0.4556E-12  0.1219E-13  0.7603E-17  0.1000E-09  0.0000E+00  0.1460E+16
   -1.650008    3.13359  0.4556E-12  0.1219E-13  0.7603E-17  0.1000E-09  0.0000E+00  0.1254E+16
   -1.718760    3.23194  0.4556E-12  0.3952E-13  0.9120E-17  0.1000E-09  0.0000E+00  0.1063E+16
   -1.787511    3.32688  0.4556E-12  0.1278E-12  0.2364E-16  0.1000E-09  0.0000E+00  0.8799E+15
   -1.856263    3.41745  0.4556E-12  0.3794E-12  0.6630E-16  0.1000E-09  0.0000E+00  0.7114E+15
   -1.925014    3.50307  0.4556E-12  0.1094E-11  0.1847E-15  0.1000E-09  0.0000E+00  0.5588E+15
   -1.993765    3.58297  0.4556E-12  0.3115E-11  0.5098E-15  0.1000E-09  0.0000E+00  0.4266E+15
   -2.062516    3.65687  0.4556E-12  0.8582E-11  0.1363E-14  0.1000E-09  0.0000E+00  0.3310E+15
   -2.131266    3.72848  0.4556E-12  0.2329E-10  0.3591E-14  0.1000E-09  0.0000E+00  0.2448E+15
   -2.200016    3.79835  0.4556E-12  0.6251E-10  0.9364E-14  0.2881E-09  0.0000E+00  0.1646E+15
   -2.268766    3.86646  0.4556E-12  0.1674E-09  0.2438E-13  0.1359E-08  0.0000E+00  0.9054E+14
   -2.337515    3.93320  0.4556E-12  0.4492E-09  0.6374E-13  0.1454E-07  0.0000E+00  0.2164E+14
   -2.406264    3.99414  0.4556E-12  0.9736E-09  0.1382E-12  0.2478E-05  0.0000E+00 -0.5639E+12
   -2.475012    3.99788  0.4556E-12  0.1276E-08  0.2081E-12  0.2768E-05  0.0000E+00 -0.7374E+12
   -2.543759    4.00141  0.4556E-12  0.1510E-08  0.3196E-12  0.2386E-05  0.0000E+00 -0.1208E+13
   -2.612506    4.00586  0.4556E-12  0.1673E-08  0.5750E-12  0.1498E-05  0.0000E+00 -0.3032E+13
   -2.681253    4.01405  0.4556E-12  0.1761E-08  0.1626E-11  0.5511E-06  0.0000E+00 -0.2098E+14
   -2.749998    4.04504  0.4556E-12  0.0000E+00  0.0000E+00  0.0000E+00  0.0000E+00  0.0000E+00
