 1 - depth, m
 2 - temperature, C
 3 - salinity, kg/kg
 4 - turbulent kinetic energy, m**2/s**2
 5 - dissipation rate, m**2/s**3
 6 - kinematic heat conductance, m**2/s
 7 - modulus of horizontal velocity, m/s
 8 - Richardson number, n/d
   -0.000000   -0.00000  0.6558E-11  0.1219E-13  0.7604E-17  0.1000E-09  0.0000E+00  0.1918E+17
   -0.068745    0.29976  0.2252E-12  0.1219E-13  0.7604E-17  0.1000E-09  0.0000E+00  0.1701E+17
   -0.137492    0.58919  0.5688E-12  0.1219E-13  0.7604E-17  0.1000E-09  0.0000E+00  0.1498E+17
   -0.206238    0.86766  0.5512E-12  0.1219E-13  0.7604E-17  0.1000E-09  0.0000E+00  0.1310E+17
   -0.274985    1.13464  0.5517E-12  0.1219E-13  0.7604E-17  0.1000E-09  0.0000E+00  0.1137E+17
   -0.343733    1.38970  0.5517E-12  0.1219E-13  0.7604E-17  0.1000E-09  0.0000E+00  0.9797E+16
   -0.412482    1.63248  0.5517E-12  0.1219E-13  0.7604E-17  0.1000E-09  0.0000E+00  0.8368E+16
   -0.481231    1.86266  0.5517E-12  0.1219E-13  0.7604E-17  0.1000E-09  0.0000E+00  0.7084E+16
   -0.549980    2.07995  0.5517E-12  0.1219E-13  0.7604E-17  0.1000E-09  0.0000E+00  0.5941E+16
   -0.618729    2.28415  0.5517E-12  0.1233E-13  0.7604E-17  0.1000E-09  0.0000E+00  0.4931E+16
   -0.687480    2.47512  0.5517E-12  0.2392E-13  0.7604E-17  0.1000E-09  0.0000E+00  0.4056E+16
   -0.756230    2.65310  0.5517E-12  0.8044E-13  0.7866E-17  0.1000E-09  0.0000E+00  0.3301E+16
   -0.824981    2.81828  0.5517E-12  0.1825E-12  0.1102E-16  0.1000E-09  0.0000E+00  0.2653E+16
   -0.893732    2.97075  0.5517E-12  0.3482E-12  0.1794E-16  0.1000E-09  0.0000E+00  0.2104E+16
   -0.962483    3.11067  0.5517E-12  0.6190E-12  0.3003E-16  0.1000E-09  0.0000E+00  0.1644E+16
   -1.031234    3.23828  0.5517E-12  0.1068E-11  0.5030E-16  0.1000E-09  0.0000E+00  0.1264E+16
   -1.099986    3.35388  0.5517E-12  0.1820E-11  0.8401E-16  0.1000E-09  0.0000E+00  0.9543E+15
   -1.168738    3.45788  0.5517E-12  0.3084E-11  0.1400E-15  0.1000E-09  0.0000E+00  0.7063E+15
   -1.237490    3.55071  0.5517E-12  0.5208E-11  0.2327E-15  0.1000E-09  0.0000E+00  0.5110E+15
   -1.306241    3.63287  0.5517E-12  0.8777E-11  0.3862E-15  0.1000E-09  0.0000E+00  0.3600E+15
   -1.374993    3.70491  0.5517E-12  0.1476E-10  0.6396E-15  0.1000E-09  0.0000E+00  0.2474E+15
   -1.443745    3.76783  0.5517E-12  0.2476E-10  0.1057E-14  0.1000E-09  0.0000E+00  0.1639E+15
   -1.512497    3.82236  0.5517E-12  0.4144E-10  0.1741E-14  0.1000E-09  0.0000E+00  0.1031E+15
   -1.581249    3.86906  0.5517E-12  0.6913E-10  0.2859E-14  0.2415E-09  0.0000E+00  0.6027E+14
   -1.650001    3.90841  0.5517E-12  0.1149E-09  0.4678E-14  0.7580E-09  0.0000E+00  0.3148E+14
   -1.718753    3.94096  0.5517E-12  0.1900E-09  0.7618E-14  0.2930E-08  0.0000E+00  0.1337E+14
   -1.787504    3.96743  0.5517E-12  0.3156E-09  0.1247E-13  0.2351E-07  0.0000E+00  0.2810E+13
   -1.856255    3.98804  0.5517E-12  0.4426E-09  0.1752E-13  0.3077E-05  0.0000E+00 -0.3707E+11
   -1.925006    3.98911  0.5517E-12  0.5301E-09  0.2186E-13  0.3932E-05  0.0000E+00 -0.4345E+11
   -1.993757    3.98997  0.5517E-12  0.6152E-09  0.2701E-13  0.4438E-05  0.0000E+00 -0.5030E+11
   -2.062507    3.99076  0.5517E-12  0.6963E-09  0.3306E-13  0.4675E-05  0.0000E+00 -0.5910E+11
   -2.131257    3.99154  0.5517E-12  0.7743E-09  0.4047E-13  0.4699E-05  0.0000E+00 -0.7137E+11
   -2.200007    3.99235  0.5517E-12  0.8505E-09  0.4995E-13  0.4527E-05  0.0000E+00 -0.8932E+11
   -2.268756    3.99323  0.5517E-12  0.9275E-09  0.6292E-13  0.4241E-05  0.0000E+00 -0.1186E+12
   -2.337505    3.99424  0.5517E-12  0.1010E-08  0.8236E-13  0.3800E-05  0.0000E+00 -0.1705E+12
   -2.406254    3.99551  0.5517E-12  0.1100E-08  0.1140E-12  0.3211E-05  0.0000E+00 -0.2721E+12
   -2.475001    3.99724  0.5517E-12  0.1208E-08  0.1720E-12  0.2508E-05  0.0000E+00 -0.5072E+12
   -2.543749    3.99988  0.5517E-12  0.1348E-08  0.2974E-12  0.1750E-05  0.0000E+00 -0.1191E+13
   -2.612495    4.00464  0.5517E-12  0.1580E-08  0.6518E-12  0.1072E-05  0.0000E+00 -0.4095E+13
   -2.681241    4.01562  0.5517E-12  0.2137E-08  0.2235E-11  0.6317E-06  0.0000E+00 -0.2814E+14
   -2.749987    4.05304  0.5517E-12  0.0000E+00  0.0000E+00  0.0000E+00  0.0000E+00  0.0000E+00
