 1 - depth, m
 2 - temperature, C
 3 - salinity, kg/kg
 4 - turbulent kinetic energy, m**2/s**2
 5 - dissipation rate, m**2/s**3
 6 - kinematic heat conductance, m**2/s
 7 - modulus of horizontal velocity, m/s
 8 - Richardson number, n/d
   -0.000000   -0.00000  0.5816E-11  0.1219E-13  0.7604E-17  0.1000E-09  0.0000E+00  0.1953E+17
   -0.068745    0.30548  0.4576E-12  0.1219E-13  0.7604E-17  0.1000E-09  0.0000E+00  0.1730E+17
   -0.137491    0.60056  0.5607E-12  0.1219E-13  0.7604E-17  0.1000E-09  0.0000E+00  0.1523E+17
   -0.206238    0.88481  0.5517E-12  0.1219E-13  0.7604E-17  0.1000E-09  0.0000E+00  0.1330E+17
   -0.274985    1.15774  0.5517E-12  0.1219E-13  0.7604E-17  0.1000E-09  0.0000E+00  0.1153E+17
   -0.343733    1.41881  0.5517E-12  0.1219E-13  0.7604E-17  0.1000E-09  0.0000E+00  0.9899E+16
   -0.412481    1.66747  0.5517E-12  0.1219E-13  0.7604E-17  0.1000E-09  0.0000E+00  0.8422E+16
   -0.481230    1.90323  0.5517E-12  0.4543E-13  0.7604E-17  0.1000E-09  0.0000E+00  0.7092E+16
   -0.549980    2.12567  0.5517E-12  0.1258E-12  0.8561E-17  0.1000E-09  0.0000E+00  0.5907E+16
   -0.618729    2.33442  0.5517E-12  0.2583E-12  0.1289E-16  0.1000E-09  0.0000E+00  0.4864E+16
   -0.687479    2.52926  0.5517E-12  0.4687E-12  0.2088E-16  0.1000E-09  0.0000E+00  0.3963E+16
   -0.756230    2.71038  0.5517E-12  0.8045E-12  0.3408E-16  0.1000E-09  0.0000E+00  0.3190E+16
   -0.824980    2.87798  0.5517E-12  0.1344E-11  0.5530E-16  0.1000E-09  0.0000E+00  0.2531E+16
   -0.893731    3.03211  0.5517E-12  0.2211E-11  0.8907E-16  0.1000E-09  0.0000E+00  0.1978E+16
   -0.962482    3.17296  0.5517E-12  0.3602E-11  0.1425E-15  0.1000E-09  0.0000E+00  0.1519E+16
   -1.031234    3.30081  0.5517E-12  0.5825E-11  0.2264E-15  0.1000E-09  0.0000E+00  0.1144E+16
   -1.099985    3.41601  0.5517E-12  0.9356E-11  0.3574E-15  0.1000E-09  0.0000E+00  0.8439E+15
   -1.168737    3.51900  0.5517E-12  0.1493E-10  0.5610E-15  0.1000E-09  0.0000E+00  0.6070E+15
   -1.237489    3.61027  0.5517E-12  0.2369E-10  0.8753E-15  0.1000E-09  0.0000E+00  0.4239E+15
   -1.306241    3.69038  0.5517E-12  0.3735E-10  0.1358E-14  0.1000E-09  0.0000E+00  0.2857E+15
   -1.374993    3.75993  0.5517E-12  0.5855E-10  0.2094E-14  0.1000E-09  0.0000E+00  0.1854E+15
   -1.443745    3.82003  0.5517E-12  0.9127E-10  0.3213E-14  0.1469E-09  0.0000E+00  0.1137E+15
   -1.512497    3.87159  0.5517E-12  0.1415E-09  0.4902E-14  0.3973E-09  0.0000E+00  0.6383E+14
   -1.581249    3.91541  0.5517E-12  0.2180E-09  0.7440E-14  0.1281E-08  0.0000E+00  0.3027E+14
   -1.650000    3.95217  0.5517E-12  0.3334E-09  0.1121E-13  0.6982E-08  0.0000E+00  0.8848E+13
   -1.718752    3.98129  0.5517E-12  0.4537E-09  0.1524E-13  0.1339E-05  0.0000E+00  0.3917E+12
   -1.787503    3.98776  0.5517E-12  0.5492E-09  0.1889E-13  0.3893E-05  0.0000E+00 -0.2529E+11
   -1.856254    3.98862  0.5517E-12  0.6277E-09  0.2258E-13  0.4832E-05  0.0000E+00 -0.3083E+11
   -1.925005    3.98936  0.5517E-12  0.7054E-09  0.2695E-13  0.5481E-05  0.0000E+00 -0.3658E+11
   -1.993756    3.99005  0.5517E-12  0.7832E-09  0.3225E-13  0.5859E-05  0.0000E+00 -0.4352E+11
   -2.062506    3.99073  0.5517E-12  0.8582E-09  0.3854E-13  0.5950E-05  0.0000E+00 -0.5212E+11
   -2.131257    3.99142  0.5517E-12  0.9311E-09  0.4626E-13  0.5835E-05  0.0000E+00 -0.6386E+11
   -2.200006    3.99217  0.5517E-12  0.1002E-08  0.5615E-13  0.5525E-05  0.0000E+00 -0.8081E+11
   -2.268755    3.99299  0.5517E-12  0.1074E-08  0.6961E-13  0.5097E-05  0.0000E+00 -0.1080E+12
   -2.337504    3.99395  0.5517E-12  0.1149E-08  0.8970E-13  0.4499E-05  0.0000E+00 -0.1559E+12
   -2.406253    3.99516  0.5517E-12  0.1232E-08  0.1223E-12  0.3741E-05  0.0000E+00 -0.2499E+12
   -2.475000    3.99680  0.5517E-12  0.1328E-08  0.1818E-12  0.2867E-05  0.0000E+00 -0.4686E+12
   -2.543748    3.99934  0.5517E-12  0.1454E-08  0.3102E-12  0.1952E-05  0.0000E+00 -0.1114E+13
   -2.612494    4.00397  0.5517E-12  0.1666E-08  0.6730E-12  0.1153E-05  0.0000E+00 -0.3923E+13
   -2.681240    4.01482  0.5517E-12  0.2197E-08  0.2296E-11  0.6465E-06  0.0000E+00 -0.2801E+14
   -2.749986    4.05257  0.5517E-12  0.0000E+00  0.0000E+00  0.0000E+00  0.0000E+00  0.0000E+00
