 1 - depth, m
 2 - temperature, C
 3 - salinity, kg/kg
 4 - turbulent kinetic energy, m**2/s**2
 5 - dissipation rate, m**2/s**3
 6 - kinematic heat conductance, m**2/s
 7 - modulus of horizontal velocity, m/s
 8 - Richardson number, n/d
   -0.000000   -0.00000  0.1102E-11  0.4838E-13  0.1259E-16  0.1000E-09  0.2172E-36  0.8404E+16
   -0.068746    0.12828  0.8261E-12  0.1087E-12  0.1832E-16  0.1000E-09  0.1748E-36  0.8120E+16
   -0.137492    0.25670  0.8037E-12  0.2866E-12  0.3885E-16  0.1000E-09  0.1485E-36  0.7834E+16
   -0.206239    0.38521  0.7943E-12  0.7591E-12  0.9427E-16  0.1000E-09  0.1281E-36  0.7545E+16
   -0.274986    0.51377  0.7850E-12  0.1979E-11  0.2368E-15  0.1000E-09  0.1098E-36  0.7255E+16
   -0.343735    0.64231  0.7758E-12  0.5059E-11  0.5901E-15  0.1000E-09  0.9285E-37  0.6964E+16
   -0.412483    0.77081  0.7676E-12  0.1272E-10  0.1449E-14  0.1000E-09  0.7749E-37  0.6675E+16
   -0.481232    0.89927  0.7616E-12  0.3147E-10  0.3506E-14  0.1000E-09  0.6396E-37  0.6389E+16
   -0.549982    1.02775  0.7575E-12  0.7677E-10  0.8367E-14  0.1000E-09  0.5231E-37  0.6110E+16
   -0.618732    1.15633  0.7557E-12  0.1846E-09  0.1971E-13  0.1000E-09  0.4244E-37  0.5836E+16
   -0.687482    1.28515  0.7551E-12  0.4381E-09  0.4582E-13  0.1000E-09  0.3416E-37  0.5601E+16
   -0.756233    1.41514  0.7548E-12  0.1026E-08  0.1053E-12  0.1288E-09  0.2726E-37  0.5380E+16
   -0.824984    1.54679  0.7546E-12  0.2374E-08  0.2389E-12  0.2411E-09  0.2154E-37  0.5136E+16
   -0.893735    1.67978  0.7542E-12  0.5424E-08  0.5356E-12  0.5638E-09  0.1680E-37  0.4853E+16
   -0.962486    1.81321  0.7534E-12  0.1224E-07  0.1187E-11  0.1347E-08  0.1287E-37  0.4507E+16
   -1.031238    1.94522  0.7523E-12  0.2727E-07  0.2595E-11  0.3273E-08  0.9609E-38  0.4065E+16
   -1.099990    2.07234  0.7504E-12  0.5979E-07  0.5590E-11  0.8261E-08  0.6865E-38  0.3476E+16
   -1.168742    2.18840  0.7462E-12  0.1281E-06  0.1178E-10  0.2276E-07  0.4522E-38  0.2666E+16
   -1.237494    2.28295  0.7397E-12  0.2613E-06  0.2373E-10  0.8004E-07  0.2490E-38  0.1533E+16
   -1.306246    2.33992  0.7367E-12  0.4090E-06  0.3750E-10  0.8582E-06  0.7864E-39  0.2307E+15
   -1.374998    2.34868  0.7364E-12  0.4131E-06  0.3794E-10  0.2475E-03  0.6952E-40  0.5238E+12
   -1.443751    2.34870  0.7364E-12  0.4149E-06  0.3815E-10  0.1402E-02  0.5538E-40 -0.1046E+11
   -1.512503    2.34870  0.7364E-12  0.4162E-06  0.3832E-10  0.1506E-02  0.4680E-40 -0.9694E+11
   -1.581255    2.34870  0.7364E-12  0.4174E-06  0.3849E-10  0.1477E-02  0.4269E-40 -0.1914E+12
   -1.650007    2.34869  0.7364E-12  0.4186E-06  0.3868E-10  0.1465E-02  0.3839E-40 -0.2868E+12
   -1.718759    2.34868  0.7364E-12  0.4199E-06  0.3888E-10  0.1460E-02  0.3405E-40 -0.3790E+12
   -1.787510    2.34867  0.7364E-12  0.4210E-06  0.3910E-10  0.1459E-02  0.2962E-40 -0.4009E+12
   -1.856262    2.34865  0.7364E-12  0.4222E-06  0.3932E-10  0.1458E-02  0.2575E-40 -0.4167E+12
   -1.925013    2.34864  0.7364E-12  0.4233E-06  0.3957E-10  0.1457E-02  0.2232E-40 -0.4251E+12
   -1.993764    2.34862  0.7364E-12  0.4243E-06  0.3985E-10  0.1455E-02  0.1942E-40 -0.4424E+12
   -2.062515    2.34860  0.7364E-12  0.4252E-06  0.4013E-10  0.1451E-02  0.1685E-40 -0.4859E+12
   -2.131265    2.34858  0.7364E-12  0.4260E-06  0.4043E-10  0.1446E-02  0.1453E-40 -0.5292E+12
   -2.200015    2.34856  0.7364E-12  0.4267E-06  0.4074E-10  0.1440E-02  0.1237E-40 -0.5719E+12
   -2.268765    2.34854  0.7364E-12  0.4270E-06  0.4105E-10  0.1433E-02  0.1040E-40 -0.5859E+12
   -2.337514    2.34852  0.7364E-12  0.4272E-06  0.4140E-10  0.1426E-02  0.8641E-41 -0.5766E+12
   -2.406262    2.34850  0.7364E-12  0.4270E-06  0.4180E-10  0.1416E-02  0.7129E-41 -0.5384E+12
   -2.475010    2.34848  0.7364E-12  0.4265E-06  0.4229E-10  0.1407E-02  0.5826E-41 -0.4472E+12
   -2.543758    2.34846  0.7364E-12  0.4257E-06  0.4292E-10  0.1443E-02  0.4775E-41 -0.2521E+12
   -2.612505    2.34845  0.7364E-12  0.4235E-06  0.4473E-10  0.8788E-05  0.4001E-41  0.2661E+15
   -2.681251    2.35847  0.7364E-12  0.1536E-06  0.3007E-09  0.2571E-06  0.1590E-41  0.5799E+16
   -2.749997    2.59821  0.7364E-12  0.0000E+00  0.0000E+00  0.0000E+00  0.1705E-41  0.0000E+00
