 1 - depth, m
 2 - temperature, C
 3 - salinity, kg/kg
 4 - turbulent kinetic energy, m**2/s**2
 5 - dissipation rate, m**2/s**3
 6 - kinematic heat conductance, m**2/s
 7 - modulus of horizontal velocity, m/s
 8 - Richardson number, n/d
   -0.000000   -0.00000  0.1353E-11  0.1219E-13  0.7603E-17  0.1000E-09  0.0000E+00  0.8395E+16
   -0.068746    0.12813  0.7545E-12  0.1219E-13  0.7603E-17  0.1000E-09  0.0000E+00  0.8032E+16
   -0.137492    0.25512  0.4862E-12  0.1219E-13  0.7603E-17  0.1000E-09  0.0000E+00  0.7698E+16
   -0.206239    0.38131  0.3986E-12  0.1219E-13  0.7603E-17  0.1000E-09  0.0000E+00  0.7390E+16
   -0.274987    0.50702  0.3767E-12  0.1219E-13  0.7603E-17  0.1000E-09  0.0000E+00  0.7105E+16
   -0.343735    0.63258  0.3723E-12  0.1219E-13  0.7603E-17  0.1000E-09  0.0000E+00  0.6839E+16
   -0.412483    0.75834  0.3715E-12  0.1219E-13  0.7603E-17  0.1000E-09  0.0000E+00  0.6590E+16
   -0.481232    0.88460  0.3714E-12  0.1219E-13  0.7603E-17  0.1000E-09  0.0000E+00  0.6353E+16
   -0.549982    1.01167  0.3714E-12  0.1219E-13  0.7603E-17  0.1000E-09  0.0000E+00  0.6125E+16
   -0.618732    1.13982  0.3714E-12  0.1219E-13  0.7603E-17  0.1000E-09  0.0000E+00  0.5902E+16
   -0.687482    1.26932  0.3714E-12  0.1219E-13  0.7603E-17  0.1000E-09  0.0000E+00  0.5694E+16
   -0.756233    1.40066  0.3714E-12  0.1219E-13  0.7603E-17  0.1000E-09  0.0000E+00  0.5488E+16
   -0.824984    1.53420  0.3714E-12  0.1219E-13  0.7603E-17  0.1000E-09  0.0000E+00  0.5274E+16
   -0.893735    1.67010  0.3713E-12  0.4677E-13  0.7810E-17  0.1000E-09  0.0000E+00  0.5049E+16
   -0.962487    1.80845  0.3712E-12  0.1309E-12  0.1573E-16  0.1000E-09  0.0000E+00  0.4810E+16
   -1.031238    1.94931  0.3710E-12  0.3148E-12  0.3491E-16  0.1000E-09  0.0000E+00  0.4555E+16
   -1.099990    2.09268  0.3704E-12  0.7203E-12  0.7718E-16  0.1000E-09  0.0000E+00  0.4282E+16
   -1.168742    2.23851  0.3693E-12  0.1617E-11  0.1689E-15  0.1000E-09  0.0000E+00  0.3991E+16
   -1.237494    2.38671  0.3676E-12  0.3590E-11  0.3663E-15  0.1000E-09  0.0000E+00  0.3681E+16
   -1.306247    2.53714  0.3653E-12  0.7903E-11  0.7879E-15  0.1000E-09  0.0000E+00  0.3352E+16
   -1.374999    2.68960  0.3630E-12  0.1725E-10  0.1681E-14  0.1000E-09  0.0000E+00  0.3008E+16
   -1.443751    2.84404  0.3610E-12  0.3737E-10  0.3559E-14  0.1000E-09  0.0000E+00  0.2648E+16
   -1.512503    3.00021  0.3599E-12  0.8031E-10  0.7476E-14  0.1000E-09  0.0000E+00  0.2270E+16
   -1.581255    3.15760  0.3593E-12  0.1712E-09  0.1558E-13  0.1000E-09  0.0000E+00  0.1875E+16
   -1.650007    3.31537  0.3590E-12  0.3621E-09  0.3222E-13  0.1122E-09  0.0000E+00  0.1469E+16
   -1.718759    3.47217  0.3587E-12  0.7599E-09  0.6612E-13  0.3168E-09  0.0000E+00  0.1062E+16
   -1.787511    3.62621  0.3585E-12  0.1618E-08  0.1376E-12  0.1039E-08  0.0000E+00  0.6735E+15
   -1.856262    3.77635  0.3583E-12  0.3470E-08  0.2888E-12  0.4697E-08  0.0000E+00  0.3124E+15
   -1.925014    3.92086  0.3583E-12  0.7088E-08  0.5804E-12  0.1011E-06  0.0000E+00  0.2934E+14
   -1.993765    4.00969  0.3583E-12  0.7939E-08  0.6538E-12  0.3954E-04  0.0000E+00 -0.2011E+12
   -2.062515    4.01023  0.3583E-12  0.8308E-08  0.6932E-12  0.3999E-04  0.0000E+00 -0.2046E+12
   -2.131266    4.01077  0.3583E-12  0.8612E-08  0.7352E-12  0.3967E-04  0.0000E+00 -0.2123E+12
   -2.200016    4.01132  0.3583E-12  0.8853E-08  0.7817E-12  0.3856E-04  0.0000E+00 -0.2250E+12
   -2.268765    4.01189  0.3583E-12  0.9034E-08  0.8364E-12  0.3666E-04  0.0000E+00 -0.2447E+12
   -2.337514    4.01249  0.3583E-12  0.9158E-08  0.9067E-12  0.3378E-04  0.0000E+00 -0.2762E+12
   -2.406263    4.01316  0.3583E-12  0.9215E-08  0.1004E-11  0.2976E-04  0.0000E+00 -0.3285E+12
   -2.475011    4.01393  0.3583E-12  0.9183E-08  0.1155E-11  0.2441E-04  0.0000E+00 -0.4256E+12
   -2.543759    4.01490  0.3583E-12  0.9006E-08  0.1426E-11  0.1756E-04  0.0000E+00 -0.6449E+12
   -2.612506    4.01630  0.3583E-12  0.8506E-08  0.2095E-11  0.9327E-05  0.0000E+00 -0.1420E+13
   -2.681252    4.01919  0.3583E-12  0.6424E-08  0.6068E-11  0.1419E-05  0.0000E+00 -0.1605E+14
   -2.749998    4.04226  0.3583E-12  0.0000E+00  0.0000E+00  0.0000E+00  0.0000E+00  0.0000E+00
