 1 - depth, m
 2 - temperature, C
 3 - salinity, kg/kg
 4 - turbulent kinetic energy, m**2/s**2
 5 - dissipation rate, m**2/s**3
 6 - kinematic heat conductance, m**2/s
 7 - modulus of horizontal velocity, m/s
 8 - Richardson number, n/d
   -0.000000   -0.00000  0.1733E-11  0.1219E-13  0.7603E-17  0.1000E-09  0.0000E+00  0.1036E+17
   -0.068746    0.15886  0.9805E-12  0.1219E-13  0.7603E-17  0.1000E-09  0.0000E+00  0.9821E+16
   -0.137492    0.31615  0.6484E-12  0.1219E-13  0.7603E-17  0.1000E-09  0.0000E+00  0.9301E+16
   -0.206239    0.47203  0.5284E-12  0.1219E-13  0.7603E-17  0.1000E-09  0.0000E+00  0.8804E+16
   -0.274986    0.62665  0.4965E-12  0.1219E-13  0.7603E-17  0.1000E-09  0.0000E+00  0.8325E+16
   -0.343734    0.78011  0.4893E-12  0.1219E-13  0.7603E-17  0.1000E-09  0.0000E+00  0.7862E+16
   -0.412483    0.93252  0.4872E-12  0.1219E-13  0.7603E-17  0.1000E-09  0.0000E+00  0.7413E+16
   -0.481232    1.08392  0.4855E-12  0.1219E-13  0.7603E-17  0.1000E-09  0.0000E+00  0.6975E+16
   -0.549982    1.23436  0.4833E-12  0.1219E-13  0.7603E-17  0.1000E-09  0.0000E+00  0.6546E+16
   -0.618732    1.38384  0.4800E-12  0.1219E-13  0.7603E-17  0.1000E-09  0.0000E+00  0.6126E+16
   -0.687482    1.53233  0.4756E-12  0.1219E-13  0.7603E-17  0.1000E-09  0.0000E+00  0.5721E+16
   -0.756232    1.67999  0.4700E-12  0.1219E-13  0.7603E-17  0.1000E-09  0.0000E+00  0.5326E+16
   -0.824983    1.82688  0.4643E-12  0.1835E-13  0.7603E-17  0.1000E-09  0.0000E+00  0.4934E+16
   -0.893735    1.97287  0.4597E-12  0.7263E-13  0.9133E-17  0.1000E-09  0.0000E+00  0.4547E+16
   -0.962486    2.11784  0.4570E-12  0.1847E-12  0.1747E-16  0.1000E-09  0.0000E+00  0.4164E+16
   -1.031238    2.26160  0.4560E-12  0.4074E-12  0.3554E-16  0.1000E-09  0.0000E+00  0.3786E+16
   -1.099990    2.40396  0.4557E-12  0.8548E-12  0.7187E-16  0.1000E-09  0.0000E+00  0.3415E+16
   -1.168742    2.54470  0.4556E-12  0.1756E-11  0.1437E-15  0.1000E-09  0.0000E+00  0.3051E+16
   -1.237494    2.68355  0.4556E-12  0.3565E-11  0.2847E-15  0.1000E-09  0.0000E+00  0.2696E+16
   -1.306246    2.82025  0.4556E-12  0.7168E-11  0.5591E-15  0.1000E-09  0.0000E+00  0.2352E+16
   -1.374998    2.95451  0.4556E-12  0.1429E-10  0.1089E-14  0.1000E-09  0.0000E+00  0.2022E+16
   -1.443750    3.08608  0.4556E-12  0.2827E-10  0.2105E-14  0.1000E-09  0.0000E+00  0.1707E+16
   -1.512502    3.21470  0.4556E-12  0.5548E-10  0.4037E-14  0.1000E-09  0.0000E+00  0.1408E+16
   -1.581254    3.34007  0.4556E-12  0.1081E-09  0.7686E-14  0.1000E-09  0.0000E+00  0.1128E+16
   -1.650006    3.46196  0.4556E-12  0.2088E-09  0.1453E-13  0.1000E-09  0.0000E+00  0.8678E+15
   -1.718758    3.58016  0.4556E-12  0.4006E-09  0.2725E-13  0.2208E-09  0.0000E+00  0.6282E+15
   -1.787510    3.69443  0.4556E-12  0.7786E-09  0.5178E-13  0.6430E-09  0.0000E+00  0.4099E+15
   -1.856261    3.80449  0.4556E-12  0.1528E-08  0.9943E-13  0.2381E-08  0.0000E+00  0.2126E+15
   -1.925013    3.90907  0.4556E-12  0.2974E-08  0.1896E-12  0.2112E-07  0.0000E+00  0.4577E+14
   -1.993764    3.99770  0.4556E-12  0.3483E-08  0.2234E-12  0.2131E-04  0.0000E+00 -0.1197E+12
   -2.062514    3.99835  0.4556E-12  0.3710E-08  0.2420E-12  0.2190E-04  0.0000E+00 -0.1228E+12
   -2.131264    3.99899  0.4556E-12  0.3900E-08  0.2620E-12  0.2194E-04  0.0000E+00 -0.1292E+12
   -2.200014    3.99962  0.4556E-12  0.4056E-08  0.2845E-12  0.2142E-04  0.0000E+00 -0.1395E+12
   -2.268764    4.00027  0.4556E-12  0.4180E-08  0.3112E-12  0.2038E-04  0.0000E+00 -0.1557E+12
   -2.337513    4.00097  0.4556E-12  0.4274E-08  0.3461E-12  0.1871E-04  0.0000E+00 -0.1820E+12
   -2.406262    4.00174  0.4556E-12  0.4334E-08  0.3952E-12  0.1632E-04  0.0000E+00 -0.2271E+12
   -2.475010    4.00265  0.4556E-12  0.4348E-08  0.4730E-12  0.1312E-04  0.0000E+00 -0.3153E+12
   -2.543757    4.00384  0.4556E-12  0.4286E-08  0.6183E-12  0.9105E-05  0.0000E+00 -0.5323E+12
   -2.612504    4.00569  0.4556E-12  0.4057E-08  0.9924E-12  0.4554E-05  0.0000E+00 -0.1419E+13
   -2.681250    4.00990  0.4556E-12  0.3280E-08  0.2959E-11  0.8865E-06  0.0000E+00 -0.1743E+14
   -2.749996    4.03906  0.4556E-12  0.0000E+00  0.0000E+00  0.0000E+00  0.0000E+00  0.0000E+00
