 1 - depth, m
 2 - temperature, C
 3 - salinity, kg/kg
 4 - turbulent kinetic energy, m**2/s**2
 5 - dissipation rate, m**2/s**3
 6 - kinematic heat conductance, m**2/s
 7 - modulus of horizontal velocity, m/s
 8 - Richardson number, n/d
   -0.000000   -0.00000  0.6134E-11  0.1219E-13  0.7603E-17  0.1000E-09  0.0000E+00  0.1573E+17
   -0.068746    0.24399  0.8040E-12  0.1219E-13  0.7603E-17  0.1000E-09  0.0000E+00  0.1448E+17
   -0.137492    0.48458  0.5634E-12  0.1219E-13  0.7603E-17  0.1000E-09  0.0000E+00  0.1320E+17
   -0.206239    0.72017  0.5521E-12  0.1219E-13  0.7603E-17  0.1000E-09  0.0000E+00  0.1192E+17
   -0.274987    0.94953  0.5517E-12  0.1219E-13  0.7603E-17  0.1000E-09  0.0000E+00  0.1068E+17
   -0.343735    1.17176  0.5517E-12  0.1219E-13  0.7603E-17  0.1000E-09  0.0000E+00  0.9500E+16
   -0.412483    1.38618  0.5517E-12  0.1219E-13  0.7603E-17  0.1000E-09  0.0000E+00  0.8392E+16
   -0.481232    1.59225  0.5517E-12  0.1219E-13  0.7603E-17  0.1000E-09  0.0000E+00  0.7361E+16
   -0.549982    1.78952  0.5517E-12  0.1219E-13  0.7603E-17  0.1000E-09  0.0000E+00  0.6409E+16
   -0.618732    1.97765  0.5517E-12  0.1219E-13  0.7603E-17  0.1000E-09  0.0000E+00  0.5540E+16
   -0.687482    2.15631  0.5517E-12  0.1219E-13  0.7603E-17  0.1000E-09  0.0000E+00  0.4757E+16
   -0.756233    2.32550  0.5517E-12  0.1219E-13  0.7603E-17  0.1000E-09  0.0000E+00  0.4056E+16
   -0.824984    2.48519  0.5517E-12  0.1219E-13  0.7603E-17  0.1000E-09  0.0000E+00  0.3430E+16
   -0.893735    2.63528  0.5517E-12  0.1219E-13  0.7603E-17  0.1000E-09  0.0000E+00  0.2876E+16
   -0.962487    2.77573  0.5517E-12  0.1219E-13  0.7603E-17  0.1000E-09  0.0000E+00  0.2390E+16
   -1.031239    2.90656  0.5517E-12  0.1219E-13  0.7603E-17  0.1000E-09  0.0000E+00  0.1968E+16
   -1.099990    3.02789  0.5517E-12  0.1219E-13  0.7603E-17  0.1000E-09  0.0000E+00  0.1606E+16
   -1.168743    3.13984  0.5517E-12  0.1219E-13  0.7603E-17  0.1000E-09  0.0000E+00  0.1297E+16
   -1.237495    3.24265  0.5517E-12  0.1219E-13  0.7603E-17  0.1000E-09  0.0000E+00  0.1036E+16
   -1.306247    3.33654  0.5517E-12  0.1219E-13  0.7603E-17  0.1000E-09  0.0000E+00  0.8189E+15
   -1.374999    3.42182  0.5517E-12  0.1219E-13  0.7603E-17  0.1000E-09  0.0000E+00  0.6426E+15
   -1.443751    3.49919  0.5517E-12  0.1219E-13  0.7603E-17  0.1000E-09  0.0000E+00  0.4989E+15
   -1.512504    3.56912  0.5517E-12  0.1219E-13  0.7603E-17  0.1000E-09  0.0000E+00  0.3822E+15
   -1.581256    3.63199  0.5517E-12  0.1219E-13  0.7603E-17  0.1000E-09  0.0000E+00  0.2886E+15
   -1.650008    3.68817  0.5517E-12  0.1219E-13  0.7603E-17  0.1000E-09  0.0000E+00  0.2145E+15
   -1.718760    3.73807  0.5517E-12  0.3724E-13  0.8045E-17  0.1000E-09  0.0000E+00  0.1566E+15
   -1.787511    3.78210  0.5517E-12  0.1148E-12  0.1720E-16  0.1000E-09  0.0000E+00  0.1133E+15
   -1.856263    3.82113  0.5517E-12  0.3097E-12  0.4280E-16  0.1000E-09  0.0000E+00  0.7910E+14
   -1.925014    3.85512  0.5517E-12  0.8000E-12  0.1070E-15  0.1000E-09  0.0000E+00  0.5280E+14
   -1.993765    3.88392  0.5517E-12  0.2039E-11  0.2661E-15  0.1000E-09  0.0000E+00  0.3348E+14
   -2.062516    3.90747  0.5517E-12  0.5046E-11  0.6447E-15  0.1415E-09  0.0000E+00  0.2263E+14
   -2.131266    3.92860  0.5517E-12  0.1233E-10  0.1547E-14  0.5201E-09  0.0000E+00  0.1458E+14
   -2.200016    3.94795  0.5517E-12  0.2990E-10  0.3696E-14  0.2144E-08  0.0000E+00  0.8217E+13
   -2.268766    3.96572  0.5517E-12  0.7216E-10  0.8862E-14  0.1209E-07  0.0000E+00  0.3204E+13
   -2.337515    3.98227  0.5517E-12  0.1698E-09  0.2122E-13  0.1813E-06  0.0000E+00 -0.2265E+11
   -2.406263    3.99100  0.5517E-12  0.3339E-09  0.4974E-13  0.5931E-06  0.0000E+00 -0.5110E+12
   -2.475012    3.99565  0.5517E-12  0.5321E-09  0.1023E-12  0.7877E-06  0.0000E+00 -0.8988E+12
   -2.543759    4.00052  0.5517E-12  0.7809E-09  0.2151E-12  0.8089E-06  0.0000E+00 -0.1850E+13
   -2.612506    4.00724  0.5517E-12  0.1140E-08  0.5314E-12  0.6947E-06  0.0000E+00 -0.5276E+13
   -2.681252    4.01965  0.5517E-12  0.1824E-08  0.1909E-11  0.5541E-06  0.0000E+00 -0.2867E+14
   -2.749998    4.05541  0.5517E-12  0.0000E+00  0.0000E+00  0.0000E+00  0.0000E+00  0.0000E+00
