 1 - depth, m
 2 - temperature, C
 3 - salinity, kg/kg
 4 - turbulent kinetic energy, m**2/s**2
 5 - dissipation rate, m**2/s**3
 6 - kinematic heat conductance, m**2/s
 7 - modulus of horizontal velocity, m/s
 8 - Richardson number, n/d
   -0.000000   -0.00000  0.1380E-11  0.1219E-13  0.7603E-17  0.1000E-09  0.0000E+00  0.7671E+16
   -0.068746    0.11691  0.7219E-12  0.1219E-13  0.7603E-17  0.1000E-09  0.0000E+00  0.7359E+16
   -0.137492    0.23271  0.4574E-12  0.1219E-13  0.7603E-17  0.1000E-09  0.0000E+00  0.7077E+16
   -0.206239    0.34778  0.3879E-12  0.1219E-13  0.7603E-17  0.1000E-09  0.0000E+00  0.6823E+16
   -0.274987    0.46250  0.3740E-12  0.1219E-13  0.7603E-17  0.1000E-09  0.0000E+00  0.6595E+16
   -0.343735    0.57729  0.3718E-12  0.1219E-13  0.7603E-17  0.1000E-09  0.0000E+00  0.6391E+16
   -0.412483    0.69256  0.3714E-12  0.1219E-13  0.7603E-17  0.1000E-09  0.0000E+00  0.6206E+16
   -0.481232    0.80873  0.3714E-12  0.1219E-13  0.7603E-17  0.1000E-09  0.0000E+00  0.6038E+16
   -0.549982    0.92621  0.3714E-12  0.1219E-13  0.7603E-17  0.1000E-09  0.0000E+00  0.5882E+16
   -0.618732    1.04541  0.3714E-12  0.1219E-13  0.7603E-17  0.1000E-09  0.0000E+00  0.5734E+16
   -0.687482    1.16671  0.3714E-12  0.1219E-13  0.7603E-17  0.1000E-09  0.0000E+00  0.5604E+16
   -0.756233    1.29079  0.3714E-12  0.1557E-13  0.7603E-17  0.1000E-09  0.0000E+00  0.5480E+16
   -0.824984    1.41818  0.3714E-12  0.6191E-13  0.8939E-17  0.1000E-09  0.0000E+00  0.5347E+16
   -0.893735    1.54917  0.3714E-12  0.1668E-12  0.1770E-16  0.1000E-09  0.0000E+00  0.5200E+16
   -0.962487    1.68401  0.3713E-12  0.3876E-12  0.3785E-16  0.1000E-09  0.0000E+00  0.5036E+16
   -1.031239    1.82291  0.3711E-12  0.8541E-12  0.8023E-16  0.1000E-09  0.0000E+00  0.4849E+16
   -1.099990    1.96601  0.3707E-12  0.1838E-11  0.1675E-15  0.1000E-09  0.0000E+00  0.4637E+16
   -1.168742    2.11339  0.3697E-12  0.3891E-11  0.3447E-15  0.1000E-09  0.0000E+00  0.4394E+16
   -1.237495    2.26506  0.3681E-12  0.8128E-11  0.7001E-15  0.1000E-09  0.0000E+00  0.4119E+16
   -1.306247    2.42091  0.3658E-12  0.1676E-10  0.1404E-14  0.1000E-09  0.0000E+00  0.3808E+16
   -1.374999    2.58073  0.3632E-12  0.3414E-10  0.2779E-14  0.1000E-09  0.0000E+00  0.3468E+16
   -1.443751    2.74450  0.3611E-12  0.6867E-10  0.5436E-14  0.1000E-09  0.0000E+00  0.3092E+16
   -1.512504    2.91184  0.3598E-12  0.1365E-09  0.1051E-13  0.1000E-09  0.0000E+00  0.2683E+16
   -1.581256    3.08227  0.3593E-12  0.2681E-09  0.2007E-13  0.1000E-09  0.0000E+00  0.2248E+16
   -1.650008    3.25553  0.3590E-12  0.5206E-09  0.3794E-13  0.1130E-09  0.0000E+00  0.1794E+16
   -1.718760    3.43192  0.3588E-12  0.1000E-08  0.7097E-13  0.2729E-09  0.0000E+00  0.1322E+16
   -1.787511    3.61241  0.3586E-12  0.1941E-08  0.1341E-12  0.8208E-09  0.0000E+00  0.8284E+15
   -1.856263    3.80049  0.3584E-12  0.3792E-08  0.2553E-12  0.4776E-08  0.0000E+00  0.2709E+15
   -1.925014    3.99032  0.3583E-12  0.4429E-08  0.2996E-12  0.1878E-04  0.0000E+00 -0.1095E+12
   -1.993765    3.99188  0.3583E-12  0.4767E-08  0.3288E-12  0.2223E-04  0.0000E+00 -0.1242E+12
   -2.062516    3.99319  0.3583E-12  0.5071E-08  0.3607E-12  0.2426E-04  0.0000E+00 -0.1370E+12
   -2.131266    3.99438  0.3583E-12  0.5341E-08  0.3960E-12  0.2529E-04  0.0000E+00 -0.1517E+12
   -2.200016    3.99551  0.3583E-12  0.5576E-08  0.4360E-12  0.2546E-04  0.0000E+00 -0.1703E+12
   -2.268766    3.99663  0.3583E-12  0.5775E-08  0.4829E-12  0.2481E-04  0.0000E+00 -0.1956E+12
   -2.337515    3.99779  0.3583E-12  0.5941E-08  0.5427E-12  0.2324E-04  0.0000E+00 -0.2332E+12
   -2.406263    3.99902  0.3583E-12  0.6064E-08  0.6244E-12  0.2066E-04  0.0000E+00 -0.2939E+12
   -2.475012    4.00042  0.3583E-12  0.6127E-08  0.7486E-12  0.1698E-04  0.0000E+00 -0.4065E+12
   -2.543759    4.00216  0.3583E-12  0.6091E-08  0.9708E-12  0.1213E-04  0.0000E+00 -0.6681E+12
   -2.612506    4.00466  0.3583E-12  0.5828E-08  0.1516E-11  0.6337E-05  0.0000E+00 -0.1653E+13
   -2.681252    4.00971  0.3583E-12  0.4665E-08  0.4457E-11  0.1155E-05  0.0000E+00 -0.1901E+14
   -2.749998    4.04085  0.3583E-12  0.0000E+00  0.0000E+00  0.0000E+00  0.0000E+00  0.0000E+00
