 1 - depth, m
 2 - temperature, C
 3 - salinity, kg/kg
 4 - turbulent kinetic energy, m**2/s**2
 5 - dissipation rate, m**2/s**3
 6 - kinematic heat conductance, m**2/s
 7 - modulus of horizontal velocity, m/s
 8 - Richardson number, n/d
   -0.000000   10.46140  0.3882E-12  0.5584E-04  0.1501E-04  0.5461E-04  0.8030E-01  0.4340E-01
   -0.068746   10.41299  0.3882E-12  0.3481E-04  0.3282E-05  0.8343E-04  0.4888E-01  0.3294E-01
   -0.137492   10.39756  0.3882E-12  0.2860E-04  0.1239E-05  0.1053E-03  0.4181E-01  0.5167E-01
   -0.206239   10.38557  0.3882E-12  0.2507E-04  0.6170E-06  0.1258E-03  0.3737E-01  0.7137E-01
   -0.274987   10.37539  0.3882E-12  0.2275E-04  0.3738E-06  0.1430E-03  0.3402E-01  0.9207E-01
   -0.343735   10.36618  0.3882E-12  0.2104E-04  0.2586E-06  0.1565E-03  0.3130E-01  0.1133E+00
   -0.412484   10.35747  0.3882E-12  0.1965E-04  0.1948E-06  0.1664E-03  0.2900E-01  0.1347E+00
   -0.481233   10.34894  0.3882E-12  0.1845E-04  0.1551E-06  0.1729E-03  0.2697E-01  0.1557E+00
   -0.549982   10.34030  0.3882E-12  0.1739E-04  0.1281E-06  0.1766E-03  0.2513E-01  0.1764E+00
   -0.618732   10.33136  0.3882E-12  0.1642E-04  0.1086E-06  0.1780E-03  0.2342E-01  0.2008E+00
   -0.687483   10.32223  0.3883E-12  0.1553E-04  0.9381E-07  0.1780E-03  0.2182E-01  0.2349E+00
   -0.756234   10.31301  0.3883E-12  0.1471E-04  0.8225E-07  0.1773E-03  0.2030E-01  0.2747E+00
   -0.824985   10.30345  0.3883E-12  0.1395E-04  0.7298E-07  0.1767E-03  0.1886E-01  0.3299E+00
   -0.893736   10.29309  0.3883E-12  0.1322E-04  0.6540E-07  0.1787E-03  0.1747E-01  0.4980E+00
   -0.962488   10.28100  0.3883E-12  0.1251E-04  0.5912E-07  0.1850E-03  0.1608E-01  0.5146E+00
   -1.031239   10.26504  0.3883E-12  0.1182E-04  0.5375E-07  0.1960E-03  0.1465E-01  0.4607E+01
   -1.099991   10.24036  0.3883E-12  0.1117E-04  0.4872E-07  0.2204E-03  0.1308E-01  0.3024E+03
   -1.168743   10.20494  0.3883E-12  0.1061E-04  0.4404E-07  0.2552E-03  0.1135E-01  0.1346E+02
   -1.237496   10.16686  0.3883E-12  0.1017E-04  0.3985E-07  0.2900E-03  0.9617E-02  0.3164E+01
   -1.306248   10.13043  0.3883E-12  0.9811E-05  0.3607E-07  0.3299E-03  0.7976E-02  0.1214E+02
   -1.375000   10.09925  0.3884E-12  0.9547E-05  0.3271E-07  0.3770E-03  0.6518E-02  0.2408E+01
   -1.443752   10.07500  0.3884E-12  0.9345E-05  0.2975E-07  0.4594E-03  0.5283E-02  0.5489E+02
   -1.512505   10.05826  0.3884E-12  0.9176E-05  0.2721E-07  0.5532E-03  0.4283E-02  0.7813E+02
   -1.581257   10.04779  0.3884E-12  0.9024E-05  0.2507E-07  0.6533E-03  0.3493E-02  0.1698E+02
   -1.650009   10.04197  0.3884E-12  0.8873E-05  0.2329E-07  0.7439E-03  0.2870E-02  0.4201E+02
   -1.718761   10.03935  0.3884E-12  0.8683E-05  0.2169E-07  0.8257E-03  0.2374E-02  0.5485E+04
   -1.787513   10.03833  0.3884E-12  0.8367E-05  0.1954E-07  0.8915E-03  0.1933E-02  0.8031E+02
   -1.856264   10.03761  0.3884E-12  0.8077E-05  0.1790E-07  0.9320E-03  0.1634E-02  0.2048E+03
   -1.925016   10.03687  0.3884E-12  0.7811E-05  0.1662E-07  0.9856E-03  0.1398E-02  0.7729E+03
   -1.993767   10.03611  0.3884E-12  0.7568E-05  0.1566E-07  0.9987E-03  0.1212E-02  0.2689E+03
   -2.062517   10.03561  0.3884E-12  0.7347E-05  0.1499E-07  0.9868E-03  0.1056E-02  0.1356E+03
   -2.131268   10.03533  0.3884E-12  0.7144E-05  0.1458E-07  0.9677E-03  0.9157E-03  0.2342E+04
   -2.200018   10.03535  0.3884E-12  0.6957E-05  0.1443E-07  0.9364E-03  0.7881E-03  0.1526E+04
   -2.268767   10.03572  0.3884E-12  0.6781E-05  0.1455E-07  0.8949E-03  0.6733E-03  0.2888E+03
   -2.337517   10.03630  0.3884E-12  0.6607E-05  0.1500E-07  0.8368E-03  0.5737E-03  0.4746E+03
   -2.406265   10.03707  0.3884E-12  0.6432E-05  0.1587E-07  0.7664E-03  0.4882E-03  0.5449E+03
   -2.475013   10.03802  0.3884E-12  0.6237E-05  0.1752E-07  0.6594E-03  0.4150E-03  0.1041E+05
   -2.543761   10.03924  0.3884E-12  0.5985E-05  0.2066E-07  0.5509E-03  0.3479E-03  0.2780E+06
   -2.612508   10.04085  0.3884E-12  0.5559E-05  0.2881E-07  0.3663E-03  0.2859E-03  0.1301E+07
   -2.681254   10.04362  0.3884E-12  0.3560E-05  0.9596E-07  0.3655E-04  0.2117E-03 -0.3179E+06
   -2.750000   10.07285  0.3884E-12  0.0000E+00  0.0000E+00  0.0000E+00  0.2212E-03  0.0000E+00
