 1 - depth, m
 2 - temperature, C
 3 - salinity, kg/kg
 4 - turbulent kinetic energy, m**2/s**2
 5 - dissipation rate, m**2/s**3
 6 - kinematic heat conductance, m**2/s
 7 - modulus of horizontal velocity, m/s
 8 - Richardson number, n/d
   -0.000000   -0.00000  0.1677E-11  0.4069E-08  0.6952E-11  0.6537E-09  0.8800E-64  0.5411E+17
   -0.068745    0.92807  0.5196E-12  0.4636E-07  0.9610E-11  0.1231E-08  0.7480E-64  0.3968E+17
   -0.137491    1.87759  0.5700E-12  0.1507E-06  0.2420E-10  0.4542E-08  0.6009E-64  0.2733E+17
   -0.206238    2.99076  0.5635E-12  0.3959E-06  0.6027E-10  0.5696E-07  0.4146E-64  0.8343E+16
   -0.274985    4.07956  0.5521E-12  0.4347E-06  0.6637E-10  0.7880E-03  0.1948E-64  0.2116E+15
   -0.343732    4.17318  0.5511E-12  0.4360E-06  0.6663E-10  0.9082E-03  0.1426E-65 -0.7384E+12
   -0.412481    4.17343  0.5511E-12  0.4369E-06  0.6686E-10  0.9073E-03  0.1382E-65 -0.7011E+12
   -0.481229    4.17367  0.5511E-12  0.4377E-06  0.6712E-10  0.9075E-03  0.1339E-65 -0.6881E+12
   -0.549978    4.17391  0.5511E-12  0.4383E-06  0.6740E-10  0.9067E-03  0.1294E-65 -0.6788E+12
   -0.618728    4.17414  0.5511E-12  0.4387E-06  0.6771E-10  0.9049E-03  0.1251E-65 -0.6713E+12
   -0.687478    4.17438  0.5511E-12  0.4390E-06  0.6805E-10  0.9021E-03  0.1206E-65 -0.6652E+12
   -0.756228    4.17461  0.5511E-12  0.4391E-06  0.6843E-10  0.8984E-03  0.1161E-65 -0.6601E+12
   -0.824979    4.17483  0.5511E-12  0.4392E-06  0.6884E-10  0.8938E-03  0.1115E-65 -0.6570E+12
   -0.893729    4.17506  0.5511E-12  0.4391E-06  0.6929E-10  0.8883E-03  0.1070E-65 -0.6551E+12
   -0.962480    4.17528  0.5511E-12  0.4389E-06  0.6979E-10  0.8819E-03  0.1024E-65 -0.6549E+12
   -1.031232    4.17550  0.5511E-12  0.4386E-06  0.7033E-10  0.8745E-03  0.9774E-66 -0.6557E+12
   -1.099983    4.17572  0.5511E-12  0.4382E-06  0.7092E-10  0.8663E-03  0.9298E-66 -0.6581E+12
   -1.168735    4.17595  0.5511E-12  0.4377E-06  0.7156E-10  0.8573E-03  0.8824E-66 -0.6614E+12
   -1.237486    4.17617  0.5511E-12  0.4370E-06  0.7227E-10  0.8474E-03  0.8335E-66 -0.6662E+12
   -1.306238    4.17640  0.5511E-12  0.4364E-06  0.7304E-10  0.8367E-03  0.7846E-66 -0.6719E+12
   -1.374990    4.17662  0.5511E-12  0.4356E-06  0.7388E-10  0.8251E-03  0.7342E-66 -0.6787E+12
   -1.443742    4.17685  0.5511E-12  0.4347E-06  0.7479E-10  0.8128E-03  0.6837E-66 -0.6862E+12
   -1.512493    4.17708  0.5511E-12  0.4338E-06  0.7580E-10  0.7997E-03  0.6313E-66 -0.6952E+12
   -1.581245    4.17731  0.5511E-12  0.4328E-06  0.7689E-10  0.7858E-03  0.5788E-66 -0.7051E+12
   -1.649997    4.17755  0.5511E-12  0.4317E-06  0.7808E-10  0.7713E-03  0.5244E-66 -0.7166E+12
   -1.718748    4.17779  0.5511E-12  0.4306E-06  0.7939E-10  0.7559E-03  0.4695E-66 -0.7294E+12
   -1.787499    4.17803  0.5511E-12  0.4293E-06  0.8088E-10  0.7392E-03  0.4129E-66 -0.7470E+12
   -1.856250    4.17828  0.5511E-12  0.4280E-06  0.8267E-10  0.7201E-03  0.3626E-66 -0.7679E+12
   -1.925001    4.17854  0.5511E-12  0.4264E-06  0.8483E-10  0.6984E-03  0.3171E-66 -0.7944E+12
   -1.993752    4.17880  0.5511E-12  0.4246E-06  0.8746E-10  0.6740E-03  0.2776E-66 -0.8252E+12
   -2.062502    4.17908  0.5511E-12  0.4226E-06  0.9055E-10  0.6477E-03  0.2420E-66 -0.8593E+12
   -2.131252    4.17936  0.5511E-12  0.4204E-06  0.9421E-10  0.6192E-03  0.2091E-66 -0.8990E+12
   -2.200001    4.17966  0.5511E-12  0.4181E-06  0.9858E-10  0.5886E-03  0.1778E-66 -0.9468E+12
   -2.268750    4.17997  0.5511E-12  0.4155E-06  0.1040E-09  0.5551E-03  0.1485E-66 -0.1006E+13
   -2.337499    4.18030  0.5511E-12  0.4125E-06  0.1110E-09  0.5169E-03  0.1216E-66 -0.1085E+13
   -2.406247    4.18066  0.5511E-12  0.4090E-06  0.1206E-09  0.4726E-03  0.9787E-67 -0.1194E+13
   -2.474995    4.18105  0.5511E-12  0.4047E-06  0.1346E-09  0.4254E-03  0.7677E-67 -0.1341E+13
   -2.543742    4.18149  0.5511E-12  0.3979E-06  0.1608E-09  0.3262E-03  0.5869E-67 -0.1762E+13
   -2.612489    4.18207  0.5511E-12  0.3827E-06  0.2354E-09  0.1185E-03  0.4052E-67 -0.5023E+13
   -2.681234    4.18371  0.5511E-12  0.2482E-06  0.1168E-08  0.7108E-05  0.1969E-67 -0.9837E+14
   -2.749980    4.21338  0.5511E-12  0.0000E+00  0.0000E+00  0.0000E+00  0.2001E-67  0.0000E+00
