 1 - depth, m
 2 - temperature, C
 3 - salinity, kg/kg
 4 - turbulent kinetic energy, m**2/s**2
 5 - dissipation rate, m**2/s**3
 6 - kinematic heat conductance, m**2/s
 7 - modulus of horizontal velocity, m/s
 8 - Richardson number, n/d
   -0.000000   -0.00000  0.1600E-11  0.1219E-13  0.7603E-17  0.1000E-09  0.0000E+00  0.8775E+16
   -0.068746    0.13404  0.1235E-11  0.1219E-13  0.7603E-17  0.1000E-09  0.0000E+00  0.8455E+16
   -0.137492    0.26807  0.8550E-12  0.1219E-13  0.7603E-17  0.1000E-09  0.0000E+00  0.8123E+16
   -0.206239    0.40187  0.6420E-12  0.1219E-13  0.7603E-17  0.1000E-09  0.0000E+00  0.7781E+16
   -0.274987    0.53520  0.5450E-12  0.1219E-13  0.7603E-17  0.1000E-09  0.0000E+00  0.7432E+16
   -0.343735    0.66785  0.5054E-12  0.1219E-13  0.7603E-17  0.1000E-09  0.0000E+00  0.7079E+16
   -0.412484    0.79963  0.4897E-12  0.1219E-13  0.7603E-17  0.1000E-09  0.0000E+00  0.6723E+16
   -0.481233    0.93034  0.4826E-12  0.1219E-13  0.7603E-17  0.1000E-09  0.0000E+00  0.6368E+16
   -0.549983    1.05981  0.4780E-12  0.1219E-13  0.7603E-17  0.1000E-09  0.0000E+00  0.6016E+16
   -0.618733    1.18790  0.4737E-12  0.1219E-13  0.7603E-17  0.1000E-09  0.0000E+00  0.5668E+16
   -0.687483    1.31446  0.4695E-12  0.1219E-13  0.7603E-17  0.1000E-09  0.0000E+00  0.5327E+16
   -0.756234    1.43941  0.4655E-12  0.1219E-13  0.7603E-17  0.1000E-09  0.0000E+00  0.4995E+16
   -0.824985    1.56267  0.4620E-12  0.1219E-13  0.7603E-17  0.1000E-09  0.0000E+00  0.4670E+16
   -0.893736    1.68412  0.4593E-12  0.1219E-13  0.7603E-17  0.1000E-09  0.0000E+00  0.4353E+16
   -0.962488    1.80364  0.4576E-12  0.1219E-13  0.7603E-17  0.1000E-09  0.0000E+00  0.4045E+16
   -1.031240    1.92114  0.4565E-12  0.1219E-13  0.7603E-17  0.1000E-09  0.0000E+00  0.3747E+16
   -1.099991    2.03651  0.4560E-12  0.1219E-13  0.7603E-17  0.1000E-09  0.0000E+00  0.3459E+16
   -1.168744    2.14966  0.4558E-12  0.1219E-13  0.7603E-17  0.1000E-09  0.0000E+00  0.3182E+16
   -1.237496    2.26050  0.4557E-12  0.1219E-13  0.7603E-17  0.1000E-09  0.0000E+00  0.2917E+16
   -1.306248    2.36895  0.4556E-12  0.1219E-13  0.7603E-17  0.1000E-09  0.0000E+00  0.2663E+16
   -1.375000    2.47494  0.4556E-12  0.1219E-13  0.7603E-17  0.1000E-09  0.0000E+00  0.2422E+16
   -1.443753    2.57842  0.4556E-12  0.1219E-13  0.7603E-17  0.1000E-09  0.0000E+00  0.2193E+16
   -1.512505    2.67934  0.4556E-12  0.1219E-13  0.7603E-17  0.1000E-09  0.0000E+00  0.1976E+16
   -1.581257    2.77767  0.4556E-12  0.1219E-13  0.7603E-17  0.1000E-09  0.0000E+00  0.1772E+16
   -1.650009    2.87333  0.4556E-12  0.1219E-13  0.7603E-17  0.1000E-09  0.0000E+00  0.1580E+16
   -1.718761    2.96630  0.4556E-12  0.1219E-13  0.7603E-17  0.1000E-09  0.0000E+00  0.1399E+16
   -1.787513    3.05653  0.4556E-12  0.1219E-13  0.7603E-17  0.1000E-09  0.0000E+00  0.1224E+16
   -1.856265    3.14347  0.4556E-12  0.1219E-13  0.7603E-17  0.1000E-09  0.0000E+00  0.1058E+16
   -1.925016    3.22671  0.4556E-12  0.1219E-13  0.7603E-17  0.1000E-09  0.0000E+00  0.9015E+15
   -1.993767    3.30572  0.4556E-12  0.1219E-13  0.7603E-17  0.1000E-09  0.0000E+00  0.7587E+15
   -2.062518    3.38024  0.4556E-12  0.1219E-13  0.7603E-17  0.1000E-09  0.0000E+00  0.6560E+15
   -2.131268    3.45309  0.4556E-12  0.1219E-13  0.7603E-17  0.1000E-09  0.0000E+00  0.5621E+15
   -2.200018    3.52466  0.4556E-12  0.1219E-13  0.7603E-17  0.1000E-09  0.0000E+00  0.4731E+15
   -2.268768    3.59500  0.4556E-12  0.1621E-13  0.1113E-16  0.1000E-09  0.0000E+00  0.3917E+15
   -2.337517    3.66475  0.4556E-12  0.9512E-13  0.6435E-16  0.1000E-09  0.0000E+00  0.3145E+15
   -2.406266    3.73446  0.4556E-12  0.6224E-12  0.4120E-15  0.1000E-09  0.0000E+00  0.2394E+15
   -2.475014    3.80473  0.4556E-12  0.4096E-11  0.2671E-14  0.1000E-09  0.0000E+00  0.1644E+15
   -2.543761    3.87664  0.4556E-12  0.2713E-10  0.1764E-13  0.8663E-09  0.0000E+00  0.8488E+14
   -2.612508    3.95161  0.4556E-12  0.1835E-09  0.1231E-12  0.3218E-07  0.0000E+00  0.3888E+12
   -2.681255    4.02032  0.4556E-12  0.1023E-08  0.1035E-11  0.3533E-06  0.0000E+00 -0.2826E+14
   -2.750001    4.05536  0.4556E-12  0.0000E+00  0.0000E+00  0.0000E+00  0.0000E+00  0.0000E+00
