 1 - depth, m
 2 - temperature, C
 3 - salinity, kg/kg
 4 - turbulent kinetic energy, m**2/s**2
 5 - dissipation rate, m**2/s**3
 6 - kinematic heat conductance, m**2/s
 7 - modulus of horizontal velocity, m/s
 8 - Richardson number, n/d
   -0.000000   -0.00000  0.1569E-11  0.1219E-13  0.7603E-17  0.1000E-09  0.0000E+00  0.8736E+16
   -0.068746    0.13343  0.1235E-11  0.1219E-13  0.7603E-17  0.1000E-09  0.0000E+00  0.8420E+16
   -0.137492    0.26688  0.8607E-12  0.1219E-13  0.7603E-17  0.1000E-09  0.0000E+00  0.8092E+16
   -0.206239    0.40011  0.6458E-12  0.1219E-13  0.7603E-17  0.1000E-09  0.0000E+00  0.7754E+16
   -0.274987    0.53290  0.5468E-12  0.1219E-13  0.7603E-17  0.1000E-09  0.0000E+00  0.7410E+16
   -0.343735    0.66505  0.5062E-12  0.1219E-13  0.7603E-17  0.1000E-09  0.0000E+00  0.7061E+16
   -0.412484    0.79637  0.4900E-12  0.1219E-13  0.7603E-17  0.1000E-09  0.0000E+00  0.6709E+16
   -0.481233    0.92665  0.4827E-12  0.1219E-13  0.7603E-17  0.1000E-09  0.0000E+00  0.6358E+16
   -0.549983    1.05575  0.4780E-12  0.1219E-13  0.7603E-17  0.1000E-09  0.0000E+00  0.6009E+16
   -0.618733    1.18348  0.4738E-12  0.1219E-13  0.7603E-17  0.1000E-09  0.0000E+00  0.5663E+16
   -0.687483    1.30971  0.4695E-12  0.1219E-13  0.7603E-17  0.1000E-09  0.0000E+00  0.5325E+16
   -0.756234    1.43436  0.4655E-12  0.1219E-13  0.7603E-17  0.1000E-09  0.0000E+00  0.4994E+16
   -0.824985    1.55734  0.4620E-12  0.1219E-13  0.7603E-17  0.1000E-09  0.0000E+00  0.4671E+16
   -0.893736    1.67853  0.4594E-12  0.1219E-13  0.7603E-17  0.1000E-09  0.0000E+00  0.4356E+16
   -0.962488    1.79781  0.4576E-12  0.1219E-13  0.7603E-17  0.1000E-09  0.0000E+00  0.4049E+16
   -1.031240    1.91509  0.4565E-12  0.1219E-13  0.7603E-17  0.1000E-09  0.0000E+00  0.3752E+16
   -1.099991    2.03025  0.4560E-12  0.1219E-13  0.7603E-17  0.1000E-09  0.0000E+00  0.3465E+16
   -1.168744    2.14321  0.4558E-12  0.1219E-13  0.7603E-17  0.1000E-09  0.0000E+00  0.3189E+16
   -1.237496    2.25388  0.4557E-12  0.1219E-13  0.7603E-17  0.1000E-09  0.0000E+00  0.2924E+16
   -1.306248    2.36217  0.4556E-12  0.1219E-13  0.7603E-17  0.1000E-09  0.0000E+00  0.2671E+16
   -1.375000    2.46801  0.4556E-12  0.1219E-13  0.7603E-17  0.1000E-09  0.0000E+00  0.2431E+16
   -1.443753    2.57137  0.4556E-12  0.1219E-13  0.7603E-17  0.1000E-09  0.0000E+00  0.2203E+16
   -1.512505    2.67220  0.4556E-12  0.1219E-13  0.7603E-17  0.1000E-09  0.0000E+00  0.1986E+16
   -1.581257    2.77044  0.4556E-12  0.1219E-13  0.7603E-17  0.1000E-09  0.0000E+00  0.1782E+16
   -1.650009    2.86605  0.4556E-12  0.1219E-13  0.7603E-17  0.1000E-09  0.0000E+00  0.1590E+16
   -1.718761    2.95898  0.4556E-12  0.1219E-13  0.7603E-17  0.1000E-09  0.0000E+00  0.1410E+16
   -1.787513    3.04919  0.4556E-12  0.1219E-13  0.7603E-17  0.1000E-09  0.0000E+00  0.1234E+16
   -1.856265    3.13612  0.4556E-12  0.1219E-13  0.7603E-17  0.1000E-09  0.0000E+00  0.1068E+16
   -1.925016    3.21938  0.4556E-12  0.1219E-13  0.7603E-17  0.1000E-09  0.0000E+00  0.9112E+15
   -1.993767    3.29843  0.4556E-12  0.1219E-13  0.7603E-17  0.1000E-09  0.0000E+00  0.7680E+15
   -2.062518    3.37302  0.4556E-12  0.1219E-13  0.7603E-17  0.1000E-09  0.0000E+00  0.6650E+15
   -2.131268    3.44595  0.4556E-12  0.1219E-13  0.7603E-17  0.1000E-09  0.0000E+00  0.5709E+15
   -2.200018    3.51761  0.4556E-12  0.1219E-13  0.7603E-17  0.1000E-09  0.0000E+00  0.4816E+15
   -2.268768    3.58804  0.4556E-12  0.1264E-13  0.8925E-17  0.1000E-09  0.0000E+00  0.4000E+15
   -2.337517    3.65792  0.4556E-12  0.7151E-13  0.5101E-16  0.1000E-09  0.0000E+00  0.3226E+15
   -2.406266    3.72777  0.4556E-12  0.4844E-12  0.3390E-15  0.1000E-09  0.0000E+00  0.2473E+15
   -2.475014    3.79822  0.4556E-12  0.3311E-11  0.2288E-14  0.1000E-09  0.0000E+00  0.1722E+15
   -2.543761    3.87035  0.4556E-12  0.2280E-10  0.1575E-13  0.7050E-09  0.0000E+00  0.9253E+14
   -2.612508    3.94573  0.4556E-12  0.1610E-09  0.1151E-12  0.2229E-07  0.0000E+00  0.4518E+13
   -2.681255    4.01905  0.4556E-12  0.9978E-09  0.1009E-11  0.3462E-06  0.0000E+00 -0.2824E+14
   -2.750001    4.05472  0.4556E-12  0.0000E+00  0.0000E+00  0.0000E+00  0.0000E+00  0.0000E+00
