 1 - depth, m
 2 - temperature, C
 3 - salinity, kg/kg
 4 - turbulent kinetic energy, m**2/s**2
 5 - dissipation rate, m**2/s**3
 6 - kinematic heat conductance, m**2/s
 7 - modulus of horizontal velocity, m/s
 8 - Richardson number, n/d
   -0.000000   -0.00000  0.1847E-11  0.1219E-13  0.7603E-17  0.1000E-09  0.0000E+00  0.1044E+17
   -0.068746    0.16008  0.9822E-12  0.1219E-13  0.7603E-17  0.1000E-09  0.0000E+00  0.9893E+16
   -0.137492    0.31862  0.6521E-12  0.1219E-13  0.7603E-17  0.1000E-09  0.0000E+00  0.9364E+16
   -0.206239    0.47570  0.5322E-12  0.1219E-13  0.7603E-17  0.1000E-09  0.0000E+00  0.8853E+16
   -0.274986    0.63137  0.4979E-12  0.1219E-13  0.7603E-17  0.1000E-09  0.0000E+00  0.8357E+16
   -0.343734    0.78568  0.4895E-12  0.1219E-13  0.7603E-17  0.1000E-09  0.0000E+00  0.7876E+16
   -0.412483    0.93866  0.4870E-12  0.1219E-13  0.7603E-17  0.1000E-09  0.0000E+00  0.7408E+16
   -0.481232    1.09030  0.4851E-12  0.1219E-13  0.7603E-17  0.1000E-09  0.0000E+00  0.6952E+16
   -0.549982    1.24062  0.4827E-12  0.1219E-13  0.7603E-17  0.1000E-09  0.0000E+00  0.6508E+16
   -0.618732    1.38959  0.4793E-12  0.1219E-13  0.7603E-17  0.1000E-09  0.0000E+00  0.6075E+16
   -0.687482    1.53717  0.4747E-12  0.1219E-13  0.7603E-17  0.1000E-09  0.0000E+00  0.5659E+16
   -0.756232    1.68351  0.4692E-12  0.1219E-13  0.7603E-17  0.1000E-09  0.0000E+00  0.5256E+16
   -0.824983    1.82865  0.4638E-12  0.1219E-13  0.7603E-17  0.1000E-09  0.0000E+00  0.4860E+16
   -0.893735    1.97249  0.4596E-12  0.1219E-13  0.7603E-17  0.1000E-09  0.0000E+00  0.4471E+16
   -0.962486    2.11492  0.4570E-12  0.2924E-13  0.7603E-17  0.1000E-09  0.0000E+00  0.4090E+16
   -1.031238    2.25578  0.4560E-12  0.9443E-13  0.1107E-16  0.1000E-09  0.0000E+00  0.3718E+16
   -1.099990    2.39492  0.4557E-12  0.2297E-12  0.2220E-16  0.1000E-09  0.0000E+00  0.3354E+16
   -1.168742    2.53217  0.4556E-12  0.5055E-12  0.4600E-16  0.1000E-09  0.0000E+00  0.3001E+16
   -1.237494    2.66732  0.4556E-12  0.1072E-11  0.9449E-16  0.1000E-09  0.0000E+00  0.2659E+16
   -1.306246    2.80016  0.4556E-12  0.2237E-11  0.1921E-15  0.1000E-09  0.0000E+00  0.2329E+16
   -1.374998    2.93047  0.4556E-12  0.4616E-11  0.3870E-15  0.1000E-09  0.0000E+00  0.2013E+16
   -1.443750    3.05799  0.4556E-12  0.9441E-11  0.7732E-15  0.1000E-09  0.0000E+00  0.1712E+16
   -1.512502    3.18246  0.4556E-12  0.1915E-10  0.1532E-14  0.1000E-09  0.0000E+00  0.1427E+16
   -1.581254    3.30353  0.4556E-12  0.3855E-10  0.3014E-14  0.1000E-09  0.0000E+00  0.1159E+16
   -1.650006    3.42087  0.4556E-12  0.7698E-10  0.5884E-14  0.1000E-09  0.0000E+00  0.9102E+15
   -1.718758    3.53415  0.4556E-12  0.1526E-09  0.1140E-13  0.1000E-09  0.0000E+00  0.6829E+15
   -1.787510    3.64307  0.4556E-12  0.3066E-09  0.2240E-13  0.2399E-09  0.0000E+00  0.4750E+15
   -1.856261    3.74663  0.4556E-12  0.6225E-09  0.4447E-13  0.7744E-09  0.0000E+00  0.2922E+15
   -1.925013    3.84400  0.4556E-12  0.1264E-08  0.8834E-13  0.3281E-08  0.0000E+00  0.1370E+15
   -1.993764    3.93346  0.4556E-12  0.2512E-08  0.1723E-12  0.4245E-07  0.0000E+00  0.2062E+14
   -2.062514    3.99913  0.4556E-12  0.3034E-08  0.2096E-12  0.1752E-04  0.0000E+00 -0.1400E+12
   -2.131265    3.99981  0.4556E-12  0.3265E-08  0.2304E-12  0.1798E-04  0.0000E+00 -0.1444E+12
   -2.200014    4.00047  0.4556E-12  0.3452E-08  0.2529E-12  0.1786E-04  0.0000E+00 -0.1538E+12
   -2.268764    4.00115  0.4556E-12  0.3603E-08  0.2790E-12  0.1722E-04  0.0000E+00 -0.1701E+12
   -2.337513    4.00186  0.4556E-12  0.3721E-08  0.3125E-12  0.1598E-04  0.0000E+00 -0.1976E+12
   -2.406262    4.00265  0.4556E-12  0.3804E-08  0.3594E-12  0.1405E-04  0.0000E+00 -0.2458E+12
   -2.475010    4.00359  0.4556E-12  0.3842E-08  0.4330E-12  0.1137E-04  0.0000E+00 -0.3414E+12
   -2.543757    4.00481  0.4556E-12  0.3810E-08  0.5703E-12  0.7930E-05  0.0000E+00 -0.5790E+12
   -2.612504    4.00671  0.4556E-12  0.3629E-08  0.9235E-12  0.3989E-05  0.0000E+00 -0.1557E+13
   -2.681250    4.01110  0.4556E-12  0.3007E-08  0.2724E-11  0.8330E-06  0.0000E+00 -0.1803E+14
   -2.749996    4.04032  0.4556E-12  0.0000E+00  0.0000E+00  0.0000E+00  0.0000E+00  0.0000E+00
