 1 - depth, m
 2 - temperature, C
 3 - salinity, kg/kg
 4 - turbulent kinetic energy, m**2/s**2
 5 - dissipation rate, m**2/s**3
 6 - kinematic heat conductance, m**2/s
 7 - modulus of horizontal velocity, m/s
 8 - Richardson number, n/d
   -0.000000   -0.00000  0.2043E-11  0.1105E-08  0.1300E-11  0.3920E-09  0.7813E-58  0.1683E+17
   -0.068745    0.26168  0.2126E-12  0.9065E-08  0.8168E-12  0.3811E-09  0.6917E-58  0.1096E+17
   -0.137490    0.44312  0.3871E-12  0.2194E-07  0.7393E-12  0.5445E-09  0.6115E-58  0.6952E+16
   -0.206237    0.56352  0.3710E-12  0.3873E-07  0.7886E-12  0.9526E-09  0.5229E-58  0.4243E+16
   -0.274983    0.63925  0.3715E-12  0.5918E-07  0.9106E-12  0.1939E-08  0.4299E-58  0.2412E+16
   -0.343731    0.68313  0.3714E-12  0.8323E-07  0.1088E-11  0.4738E-08  0.3387E-58  0.1186E+16
   -0.412479    0.70494  0.3714E-12  0.1106E-06  0.1311E-11  0.1771E-07  0.2535E-58  0.3987E+15
   -0.481227    0.71231  0.3714E-12  0.1138E-06  0.1337E-11  0.2318E-02  0.1790E-58  0.9906E+13
   -0.549976    0.71249  0.3714E-12  0.1139E-06  0.1338E-11  0.2820E-02  0.1790E-58  0.1317E+12
   -0.618725    0.71250  0.3714E-12  0.1140E-06  0.1338E-11  0.2848E-02  0.1790E-58 -0.1337E+11
   -0.687474    0.71250  0.3714E-12  0.1139E-06  0.1338E-11  0.2838E-02  0.1789E-58 -0.1037E+11
   -0.756224    0.71250  0.3714E-12  0.1139E-06  0.1338E-11  0.2826E-02  0.1789E-58  0.1331E+13
   -0.824974    0.71252  0.3714E-12  0.1137E-06  0.1335E-11  0.7561E-03  0.1789E-58  0.6953E+14
   -0.893725    0.71381  0.3714E-12  0.1011E-06  0.1194E-11  0.1434E-07  0.1786E-58  0.4632E+15
   -0.962476    0.72241  0.3714E-12  0.8128E-07  0.9736E-12  0.5055E-08  0.1441E-58  0.1015E+16
   -1.031227    0.74131  0.3714E-12  0.6436E-07  0.7862E-12  0.2383E-08  0.1146E-58  0.1712E+16
   -1.099978    0.77345  0.3713E-12  0.5025E-07  0.6308E-12  0.1279E-08  0.9031E-59  0.2541E+16
   -1.168729    0.82178  0.3711E-12  0.3858E-07  0.5044E-12  0.7428E-09  0.7058E-59  0.3484E+16
   -1.237480    0.88934  0.3703E-12  0.2899E-07  0.4042E-12  0.4581E-09  0.5468E-59  0.4515E+16
   -1.306232    0.97927  0.3685E-12  0.2115E-07  0.3281E-12  0.2993E-09  0.4191E-59  0.5601E+16
   -1.374983    1.09490  0.3651E-12  0.1480E-07  0.2757E-12  0.2055E-09  0.3168E-59  0.6846E+16
   -1.443735    1.24319  0.3612E-12  0.9785E-08  0.2495E-12  0.1576E-09  0.2347E-59  0.8075E+16
   -1.512486    1.42971  0.3593E-12  0.6052E-08  0.2593E-12  0.1439E-09  0.1682E-59  0.9182E+16
   -1.581237    1.66083  0.3593E-12  0.3766E-08  0.3376E-12  0.1700E-09  0.1136E-59  0.1010E+17
   -1.649989    1.94662  0.3591E-12  0.3509E-08  0.6095E-12  0.2899E-09  0.6716E-60  0.1068E+17
   -1.718740    2.30323  0.3589E-12  0.7087E-08  0.1524E-11  0.7407E-09  0.2590E-60  0.1047E+17
   -1.787491    2.75422  0.3588E-12  0.2092E-07  0.4513E-11  0.2739E-08  0.1749E-61  0.8537E+16
   -1.856241    3.32947  0.3587E-12  0.6475E-07  0.1361E-10  0.2715E-07  0.1089E-62  0.3454E+16
   -1.924992    3.98083  0.3583E-12  0.8120E-07  0.1747E-10  0.1121E-03  0.6111E-64  0.1487E+15
   -1.993742    4.07868  0.3582E-12  0.8367E-07  0.1813E-10  0.1476E-03  0.2222E-65 -0.1317E+13
   -2.062492    4.07959  0.3582E-12  0.8521E-07  0.1868E-10  0.1465E-03  0.1594E-65 -0.1351E+13
   -2.131241    4.08052  0.3582E-12  0.8643E-07  0.1930E-10  0.1456E-03  0.1123E-65 -0.1372E+13
   -2.199991    4.08145  0.3582E-12  0.8732E-07  0.2000E-10  0.1434E-03  0.7704E-66 -0.1406E+13
   -2.268739    4.08239  0.3582E-12  0.8789E-07  0.2085E-10  0.1395E-03  0.5007E-66 -0.1459E+13
   -2.337488    4.08336  0.3582E-12  0.8813E-07  0.2193E-10  0.1335E-03  0.3120E-66 -0.1544E+13
   -2.406236    4.08438  0.3582E-12  0.8797E-07  0.2343E-10  0.1234E-03  0.1863E-66 -0.1689E+13
   -2.474983    4.08548  0.3582E-12  0.8726E-07  0.2582E-10  0.1086E-03  0.1051E-66 -0.1954E+13
   -2.543730    4.08674  0.3582E-12  0.8546E-07  0.3047E-10  0.7407E-04  0.5304E-67 -0.2945E+13
   -2.612476    4.08863  0.3582E-12  0.8107E-07  0.4223E-10  0.3967E-04  0.2003E-67 -0.5843E+13
   -2.681221    4.09225  0.3582E-12  0.5548E-07  0.1381E-09  0.3888E-05  0.4446E-68 -0.7912E+14
   -2.749966    4.13250  0.3582E-12  0.0000E+00  0.0000E+00  0.0000E+00  0.4569E-68  0.0000E+00
