 1 - depth, m
 2 - temperature, C
 3 - salinity, kg/kg
 4 - turbulent kinetic energy, m**2/s**2
 5 - dissipation rate, m**2/s**3
 6 - kinematic heat conductance, m**2/s
 7 - modulus of horizontal velocity, m/s
 8 - Richardson number, n/d
   -0.000000   -0.00000  0.1988E-11  0.1219E-13  0.7603E-17  0.1000E-09  0.0000E+00  0.9528E+16
   -0.068746    0.14578  0.1164E-11  0.1219E-13  0.7603E-17  0.1000E-09  0.0000E+00  0.9092E+16
   -0.137492    0.29061  0.7665E-12  0.1219E-13  0.7603E-17  0.1000E-09  0.0000E+00  0.8657E+16
   -0.206239    0.43435  0.5907E-12  0.1219E-13  0.7603E-17  0.1000E-09  0.0000E+00  0.8225E+16
   -0.274987    0.57688  0.5214E-12  0.1219E-13  0.7603E-17  0.1000E-09  0.0000E+00  0.7797E+16
   -0.343735    0.71808  0.4962E-12  0.1219E-13  0.7603E-17  0.1000E-09  0.0000E+00  0.7375E+16
   -0.412483    0.85783  0.4869E-12  0.1219E-13  0.7603E-17  0.1000E-09  0.0000E+00  0.6960E+16
   -0.481232    0.99602  0.4822E-12  0.1219E-13  0.7603E-17  0.1000E-09  0.0000E+00  0.6552E+16
   -0.549982    1.13254  0.4784E-12  0.1219E-13  0.7603E-17  0.1000E-09  0.0000E+00  0.6152E+16
   -0.618732    1.26729  0.4743E-12  0.1219E-13  0.7603E-17  0.1000E-09  0.0000E+00  0.5762E+16
   -0.687482    1.40014  0.4699E-12  0.1219E-13  0.7603E-17  0.1000E-09  0.0000E+00  0.5385E+16
   -0.756233    1.53109  0.4655E-12  0.1219E-13  0.7603E-17  0.1000E-09  0.0000E+00  0.5021E+16
   -0.824984    1.66008  0.4618E-12  0.1219E-13  0.7603E-17  0.1000E-09  0.0000E+00  0.4666E+16
   -0.893735    1.78702  0.4590E-12  0.1219E-13  0.7603E-17  0.1000E-09  0.0000E+00  0.4323E+16
   -0.962487    1.91179  0.4573E-12  0.1219E-13  0.7603E-17  0.1000E-09  0.0000E+00  0.3991E+16
   -1.031238    2.03430  0.4563E-12  0.1219E-13  0.7603E-17  0.1000E-09  0.0000E+00  0.3670E+16
   -1.099990    2.15444  0.4559E-12  0.1219E-13  0.7603E-17  0.1000E-09  0.0000E+00  0.3363E+16
   -1.168742    2.27213  0.4557E-12  0.1219E-13  0.7603E-17  0.1000E-09  0.0000E+00  0.3068E+16
   -1.237494    2.38726  0.4556E-12  0.1219E-13  0.7603E-17  0.1000E-09  0.0000E+00  0.2786E+16
   -1.306247    2.49974  0.4556E-12  0.1219E-13  0.7603E-17  0.1000E-09  0.0000E+00  0.2518E+16
   -1.374999    2.60948  0.4556E-12  0.1219E-13  0.7603E-17  0.1000E-09  0.0000E+00  0.2264E+16
   -1.443751    2.71642  0.4556E-12  0.1219E-13  0.7603E-17  0.1000E-09  0.0000E+00  0.2024E+16
   -1.512503    2.82048  0.4556E-12  0.1219E-13  0.7603E-17  0.1000E-09  0.0000E+00  0.1798E+16
   -1.581255    2.92160  0.4556E-12  0.1219E-13  0.7603E-17  0.1000E-09  0.0000E+00  0.1586E+16
   -1.650007    3.01968  0.4556E-12  0.1219E-13  0.7603E-17  0.1000E-09  0.0000E+00  0.1388E+16
   -1.718759    3.11467  0.4556E-12  0.1219E-13  0.7603E-17  0.1000E-09  0.0000E+00  0.1203E+16
   -1.787511    3.20648  0.4556E-12  0.1219E-13  0.7603E-17  0.1000E-09  0.0000E+00  0.1026E+16
   -1.856262    3.29450  0.4556E-12  0.1219E-13  0.7603E-17  0.1000E-09  0.0000E+00  0.8614E+15
   -1.925014    3.37824  0.4556E-12  0.1219E-13  0.7603E-17  0.1000E-09  0.0000E+00  0.7086E+15
   -1.993765    3.45707  0.4556E-12  0.2336E-13  0.8852E-17  0.1000E-09  0.0000E+00  0.5723E+15
   -2.062515    3.53069  0.4556E-12  0.9284E-13  0.3071E-16  0.1000E-09  0.0000E+00  0.4740E+15
   -2.131266    3.60229  0.4556E-12  0.3670E-12  0.1162E-15  0.1000E-09  0.0000E+00  0.3848E+15
   -2.200016    3.67228  0.4556E-12  0.1420E-11  0.4338E-15  0.1000E-09  0.0000E+00  0.3013E+15
   -2.268765    3.74071  0.4556E-12  0.5454E-11  0.1610E-14  0.1000E-09  0.0000E+00  0.2251E+15
   -2.337514    3.80832  0.4556E-12  0.2101E-10  0.6005E-14  0.1956E-09  0.0000E+00  0.1526E+15
   -2.406263    3.87567  0.4556E-12  0.8057E-10  0.2235E-13  0.1344E-08  0.0000E+00  0.8126E+14
   -2.475011    3.94296  0.4556E-12  0.3059E-09  0.8296E-13  0.2637E-07  0.0000E+00  0.1288E+14
   -2.543758    4.00170  0.4556E-12  0.9844E-09  0.2775E-12  0.1279E-05  0.0000E+00 -0.2242E+13
   -2.612505    4.00918  0.4556E-12  0.1369E-08  0.5506E-12  0.1120E-05  0.0000E+00 -0.4318E+13
   -2.681252    4.01909  0.4556E-12  0.1600E-08  0.1512E-11  0.5063E-06  0.0000E+00 -0.2247E+14
   -2.749997    4.04912  0.4556E-12  0.0000E+00  0.0000E+00  0.0000E+00  0.0000E+00  0.0000E+00
