 1 - depth, m
 2 - temperature, C
 3 - salinity, kg/kg
 4 - turbulent kinetic energy, m**2/s**2
 5 - dissipation rate, m**2/s**3
 6 - kinematic heat conductance, m**2/s
 7 - modulus of horizontal velocity, m/s
 8 - Richardson number, n/d
   -0.000000   -0.00000  0.1780E-11  0.1219E-13  0.7603E-17  0.1000E-09  0.2816E-58  0.6527E+16
   -0.068746    0.09924  0.4109E-12  0.1219E-13  0.7603E-17  0.1000E-09  0.2273E-58  0.5959E+16
   -0.137492    0.19225  0.5020E-12  0.1219E-13  0.7603E-17  0.1000E-09  0.1938E-58  0.5368E+16
   -0.206239    0.27817  0.4884E-12  0.1219E-13  0.7603E-17  0.1000E-09  0.1674E-58  0.4803E+16
   -0.274987    0.35688  0.4893E-12  0.1219E-13  0.7603E-17  0.1000E-09  0.1436E-58  0.4310E+16
   -0.343735    0.42910  0.4893E-12  0.1219E-13  0.7603E-17  0.1000E-09  0.1215E-58  0.3925E+16
   -0.412484    0.49624  0.4891E-12  0.1219E-13  0.7603E-17  0.1000E-09  0.1014E-58  0.3671E+16
   -0.481233    0.56030  0.4884E-12  0.1219E-13  0.7603E-17  0.1000E-09  0.8377E-59  0.3561E+16
   -0.549982    0.62368  0.4867E-12  0.1219E-13  0.7603E-17  0.1000E-09  0.6861E-59  0.3597E+16
   -0.618732    0.68901  0.4856E-12  0.1219E-13  0.7603E-17  0.1000E-09  0.5579E-59  0.3772E+16
   -0.687483    0.75901  0.4843E-12  0.5651E-13  0.1031E-16  0.1000E-09  0.4507E-59  0.4106E+16
   -0.756233    0.83707  0.4815E-12  0.1664E-12  0.2420E-16  0.1000E-09  0.3618E-59  0.4564E+16
   -0.824984    0.92631  0.4755E-12  0.4305E-12  0.5898E-16  0.1000E-09  0.2886E-59  0.5102E+16
   -0.893736    1.02944  0.4652E-12  0.1070E-11  0.1417E-15  0.1000E-09  0.2287E-59  0.5691E+16
   -0.962487    1.14911  0.4551E-12  0.2610E-11  0.3355E-15  0.1000E-09  0.1801E-59  0.6291E+16
   -1.031239    1.28786  0.4547E-12  0.6282E-11  0.7845E-15  0.1000E-09  0.1409E-59  0.6849E+16
   -1.099991    1.44792  0.4559E-12  0.1494E-10  0.1813E-14  0.1000E-09  0.1094E-59  0.7300E+16
   -1.168743    1.63101  0.4556E-12  0.3510E-10  0.4142E-14  0.1000E-09  0.8438E-60  0.7569E+16
   -1.237495    1.83793  0.4556E-12  0.8152E-10  0.9358E-14  0.1000E-09  0.6452E-60  0.7582E+16
   -1.306248    2.06832  0.4556E-12  0.1872E-09  0.2091E-13  0.1000E-09  0.4884E-60  0.7282E+16
   -1.375000    2.32034  0.4556E-12  0.4253E-09  0.4622E-13  0.1000E-09  0.3649E-60  0.6663E+16
   -1.443752    2.59153  0.4556E-12  0.9557E-09  0.1011E-12  0.1000E-09  0.2674E-60  0.5726E+16
   -1.512504    2.87773  0.4556E-12  0.2125E-08  0.2189E-12  0.2463E-09  0.1898E-60  0.4523E+16
   -1.581256    3.17368  0.4556E-12  0.4672E-08  0.4688E-12  0.7578E-09  0.1269E-60  0.3148E+16
   -1.650009    3.47375  0.4556E-12  0.1015E-07  0.9928E-12  0.2968E-08  0.7429E-61  0.1702E+16
   -1.718760    3.77024  0.4556E-12  0.2151E-07  0.2054E-11  0.2923E-07  0.2802E-61  0.3579E+15
   -1.787512    4.01944  0.4556E-12  0.2265E-07  0.2168E-11  0.9531E-04  0.9149E-63 -0.2360E+12
   -1.856264    4.01989  0.4556E-12  0.2311E-07  0.2226E-11  0.9566E-04  0.5261E-63 -0.2440E+12
   -1.925015    4.02035  0.4556E-12  0.2349E-07  0.2286E-11  0.9611E-04  0.3325E-63 -0.2533E+12
   -1.993766    4.02082  0.4556E-12  0.2383E-07  0.2356E-11  0.9618E-04  0.2159E-63 -0.2638E+12
   -2.062517    4.02131  0.4556E-12  0.2411E-07  0.2433E-11  0.9524E-04  0.1446E-63 -0.2709E+12
   -2.131267    4.02180  0.4556E-12  0.2433E-07  0.2520E-11  0.9351E-04  0.9510E-64 -0.2800E+12
   -2.200017    4.02230  0.4556E-12  0.2449E-07  0.2624E-11  0.9098E-04  0.6093E-64 -0.2922E+12
   -2.268767    4.02281  0.4556E-12  0.2459E-07  0.2763E-11  0.8705E-04  0.3554E-64 -0.3113E+12
   -2.337516    4.02335  0.4556E-12  0.2461E-07  0.2964E-11  0.7452E-04  0.1822E-64 -0.3723E+12
   -2.406265    4.02399  0.4556E-12  0.2451E-07  0.3257E-11  0.6167E-04  0.8388E-65 -0.4639E+12
   -2.475013    4.02477  0.4556E-12  0.2423E-07  0.3722E-11  0.4914E-04  0.3380E-65 -0.6076E+12
   -2.543760    4.02576  0.4556E-12  0.2364E-07  0.4566E-11  0.3497E-04  0.1141E-65 -0.9095E+12
   -2.612507    4.02721  0.4556E-12  0.2233E-07  0.6638E-11  0.1862E-04  0.2739E-66 -0.1923E+13
   -2.681254    4.03011  0.4556E-12  0.1597E-07  0.2143E-10  0.2194E-05  0.3178E-67 -0.2664E+14
   -2.750000    4.05926  0.4556E-12  0.0000E+00  0.0000E+00  0.0000E+00  0.3338E-67  0.0000E+00
