 1 - depth, m
 2 - temperature, C
 3 - salinity, kg/kg
 4 - turbulent kinetic energy, m**2/s**2
 5 - dissipation rate, m**2/s**3
 6 - kinematic heat conductance, m**2/s
 7 - modulus of horizontal velocity, m/s
 8 - Richardson number, n/d
   -0.000000    8.86948  0.5413E-12  0.4406E-04  0.7884E-05  0.5406E-04  0.5525E-01 -0.1768E-01
   -0.068746    8.92105  0.5413E-12  0.2813E-04  0.1698E-05  0.9521E-04  0.2848E-01 -0.5247E-01
   -0.137492    8.93514  0.5413E-12  0.2448E-04  0.6950E-06  0.1515E-03  0.2289E-01 -0.8589E-01
   -0.206239    8.94362  0.5413E-12  0.2265E-04  0.3752E-06  0.2344E-03  0.1954E-01  0.1296E+02
   -0.274987    8.94943  0.5413E-12  0.2160E-04  0.2430E-06  0.3342E-03  0.1717E-01  0.1388E+02
   -0.343735    8.95363  0.5413E-12  0.2092E-04  0.1762E-06  0.4437E-03  0.1540E-01  0.8778E+01
   -0.412484    8.95681  0.5413E-12  0.2042E-04  0.1372E-06  0.5538E-03  0.1402E-01  0.4798E+01
   -0.481233    8.95930  0.5413E-12  0.2004E-04  0.1120E-06  0.6688E-03  0.1289E-01  0.9283E+01
   -0.549983    8.96130  0.5413E-12  0.1974E-04  0.9459E-07  0.7785E-03  0.1195E-01  0.5300E+01
   -0.618733    8.96295  0.5413E-12  0.1949E-04  0.8187E-07  0.8799E-03  0.1114E-01  0.4453E+01
   -0.687484    8.96434  0.5413E-12  0.1929E-04  0.7226E-07  0.9874E-03  0.1042E-01  0.2666E+02
   -0.756235    8.96553  0.5413E-12  0.1911E-04  0.6479E-07  0.1102E-02  0.9787E-02  0.7560E+01
   -0.824986    8.96653  0.5413E-12  0.1896E-04  0.5889E-07  0.1317E-02  0.9208E-02  0.3880E+02
   -0.893737    8.96732  0.5413E-12  0.1884E-04  0.5417E-07  0.1603E-02  0.8678E-02  0.1066E+03
   -0.962489    8.96793  0.5413E-12  0.1873E-04  0.5026E-07  0.1780E-02  0.8186E-02  0.1192E+03
   -1.031241    8.96846  0.5413E-12  0.1862E-04  0.4693E-07  0.1888E-02  0.7710E-02  0.2452E+03
   -1.099993    8.96893  0.5413E-12  0.1850E-04  0.4405E-07  0.1935E-02  0.7250E-02  0.6706E+02
   -1.168745    8.96938  0.5413E-12  0.1838E-04  0.4153E-07  0.1985E-02  0.6801E-02  0.6765E+02
   -1.237497    8.96980  0.5413E-12  0.1823E-04  0.3932E-07  0.2028E-02  0.6364E-02  0.9025E+02
   -1.306249    8.97020  0.5413E-12  0.1807E-04  0.3736E-07  0.2067E-02  0.5937E-02  0.1371E+03
   -1.375002    8.97058  0.5413E-12  0.1789E-04  0.3562E-07  0.2099E-02  0.5519E-02  0.2831E+03
   -1.443754    8.97093  0.5413E-12  0.1768E-04  0.3405E-07  0.2124E-02  0.5109E-02  0.1140E+05
   -1.512506    8.97127  0.5413E-12  0.1745E-04  0.3264E-07  0.2143E-02  0.4705E-02  0.1234E+06
   -1.581259    8.97160  0.5413E-12  0.1718E-04  0.3136E-07  0.2151E-02  0.4307E-02  0.5150E+05
   -1.650011    8.97191  0.5413E-12  0.1689E-04  0.3018E-07  0.2158E-02  0.3912E-02  0.1121E+05
   -1.718763    8.97220  0.5413E-12  0.1656E-04  0.2908E-07  0.2137E-02  0.3523E-02  0.7641E+04
   -1.787515    8.97249  0.5413E-12  0.1618E-04  0.2801E-07  0.2158E-02  0.3133E-02  0.3539E+02
   -1.856266    8.97276  0.5413E-12  0.1575E-04  0.2700E-07  0.2156E-02  0.2788E-02  0.7379E+01
   -1.925018    8.97304  0.5413E-12  0.1529E-04  0.2606E-07  0.2157E-02  0.2479E-02  0.3304E+01
   -1.993769    8.97330  0.5413E-12  0.1481E-04  0.2525E-07  0.2158E-02  0.2206E-02  0.2065E+01
   -2.062520    8.97356  0.5413E-12  0.1433E-04  0.2464E-07  0.2142E-02  0.1961E-02  0.1595E+01
   -2.131270    8.97382  0.5413E-12  0.1386E-04  0.2426E-07  0.2104E-02  0.1734E-02  0.1252E+01
   -2.200020    8.97407  0.5413E-12  0.1342E-04  0.2415E-07  0.2055E-02  0.1524E-02  0.9933E+00
   -2.268770    8.97431  0.5413E-12  0.1298E-04  0.2436E-07  0.1994E-02  0.1328E-02  0.7330E+00
   -2.337519    8.97456  0.5413E-12  0.1257E-04  0.2498E-07  0.1957E-02  0.1151E-02  0.5379E+00
   -2.406268    8.97481  0.5413E-12  0.1217E-04  0.2614E-07  0.1700E-02  0.9980E-03  0.5703E+00
   -2.475016    8.97509  0.5413E-12  0.1177E-04  0.2814E-07  0.1379E-02  0.8639E-03  0.5733E+02
   -2.543764    8.97542  0.5413E-12  0.1130E-04  0.3205E-07  0.9374E-03  0.7477E-03  0.1178E+03
   -2.612511    8.97592  0.5413E-12  0.1056E-04  0.4258E-07  0.4810E-03  0.6238E-03  0.1284E+03
   -2.681258    8.97685  0.5413E-12  0.6426E-05  0.1556E-06  0.3362E-04  0.4802E-03 -0.1421E+05
   -2.750004    8.98953  0.5413E-12  0.0000E+00  0.0000E+00  0.0000E+00  0.4795E-03  0.0000E+00
