 1 - depth, m
 2 - temperature, C
 3 - salinity, kg/kg
 4 - turbulent kinetic energy, m**2/s**2
 5 - dissipation rate, m**2/s**3
 6 - kinematic heat conductance, m**2/s
 7 - modulus of horizontal velocity, m/s
 8 - Richardson number, n/d
   -0.000000   -0.00000  0.1627E-11  0.1219E-13  0.7604E-17  0.1000E-09  0.1281E-85  0.6138E+16
   -0.068745    0.09324  0.5162E-12  0.1219E-13  0.7604E-17  0.1000E-09  0.1183E-85  0.5745E+16
   -0.137492    0.18273  0.4978E-12  0.1219E-13  0.7604E-17  0.1000E-09  0.1034E-85  0.5414E+16
   -0.206238    0.26917  0.4893E-12  0.1219E-13  0.7604E-17  0.1000E-09  0.8753E-86  0.5139E+16
   -0.274986    0.35323  0.4893E-12  0.1219E-13  0.7604E-17  0.1000E-09  0.7303E-86  0.4920E+16
   -0.343734    0.43570  0.4892E-12  0.1219E-13  0.7604E-17  0.1000E-09  0.6055E-86  0.4766E+16
   -0.412482    0.51757  0.4890E-12  0.1219E-13  0.7604E-17  0.1000E-09  0.5004E-86  0.4684E+16
   -0.481231    0.60009  0.4882E-12  0.1219E-13  0.7604E-17  0.1000E-09  0.4120E-86  0.4680E+16
   -0.549980    0.68471  0.4867E-12  0.1219E-13  0.7604E-17  0.1000E-09  0.3376E-86  0.4756E+16
   -0.618730    0.77311  0.4855E-12  0.3827E-13  0.7604E-17  0.1000E-09  0.2749E-86  0.4908E+16
   -0.687480    0.86711  0.4840E-12  0.1126E-12  0.1489E-16  0.1000E-09  0.2224E-86  0.5157E+16
   -0.756231    0.96920  0.4809E-12  0.2811E-12  0.3380E-16  0.1000E-09  0.1787E-86  0.5469E+16
   -0.824982    1.08159  0.4746E-12  0.6635E-12  0.7670E-16  0.1000E-09  0.1426E-86  0.5801E+16
   -0.893733    1.20601  0.4648E-12  0.1531E-11  0.1719E-15  0.1000E-09  0.1130E-86  0.6122E+16
   -0.962484    1.34397  0.4558E-12  0.3485E-11  0.3809E-15  0.1000E-09  0.8897E-87  0.6397E+16
   -1.031235    1.49668  0.4549E-12  0.7848E-11  0.8356E-15  0.1000E-09  0.6958E-87  0.6590E+16
   -1.099987    1.66492  0.4558E-12  0.1749E-10  0.1815E-14  0.1000E-09  0.5405E-87  0.6665E+16
   -1.168739    1.84906  0.4556E-12  0.3861E-10  0.3904E-14  0.1000E-09  0.4167E-87  0.6590E+16
   -1.237491    2.04890  0.4556E-12  0.8440E-10  0.8322E-14  0.1000E-09  0.3186E-87  0.6343E+16
   -1.306243    2.26375  0.4556E-12  0.1828E-09  0.1758E-13  0.1000E-09  0.2412E-87  0.5911E+16
   -1.374995    2.49238  0.4556E-12  0.3922E-09  0.3680E-13  0.1000E-09  0.1803E-87  0.5304E+16
   -1.443747    2.73358  0.4556E-12  0.8341E-09  0.7637E-13  0.1000E-09  0.1321E-87  0.4526E+16
   -1.512499    2.98538  0.4556E-12  0.1758E-08  0.1571E-12  0.2226E-09  0.9378E-88  0.3594E+16
   -1.581251    3.24512  0.4556E-12  0.3673E-08  0.3205E-12  0.6407E-09  0.6275E-88  0.2548E+16
   -1.650003    3.50954  0.4556E-12  0.7602E-08  0.6479E-12  0.2301E-08  0.3678E-88  0.1434E+16
   -1.718754    3.77348  0.4556E-12  0.1545E-07  0.1288E-11  0.1869E-07  0.1394E-88  0.3512E+15
   -1.787506    4.01025  0.4556E-12  0.1637E-07  0.1369E-11  0.7580E-04  0.4928E-90 -0.1899E+12
   -1.856257    4.01075  0.4556E-12  0.1678E-07  0.1413E-11  0.8130E-04  0.2706E-90 -0.1843E+12
   -1.925008    4.01123  0.4556E-12  0.1712E-07  0.1461E-11  0.8151E-04  0.1501E-90 -0.1919E+12
   -1.993759    4.01172  0.4556E-12  0.1742E-07  0.1513E-11  0.8157E-04  0.8936E-91 -0.2001E+12
   -2.062510    4.01222  0.4556E-12  0.1767E-07  0.1571E-11  0.8074E-04  0.5624E-91 -0.2073E+12
   -2.131260    4.01272  0.4556E-12  0.1789E-07  0.1641E-11  0.7921E-04  0.3431E-91 -0.2163E+12
   -2.200009    4.01324  0.4556E-12  0.1805E-07  0.1727E-11  0.7385E-04  0.1961E-91 -0.2378E+12
   -2.268759    4.01380  0.4556E-12  0.1816E-07  0.1836E-11  0.6618E-04  0.9884E-92 -0.2733E+12
   -2.337508    4.01443  0.4556E-12  0.1820E-07  0.1982E-11  0.5829E-04  0.4530E-92 -0.3212E+12
   -2.406256    4.01515  0.4556E-12  0.1815E-07  0.2191E-11  0.5004E-04  0.1873E-92 -0.3904E+12
   -2.475004    4.01600  0.4556E-12  0.1796E-07  0.2518E-11  0.4038E-04  0.6743E-93 -0.5112E+12
   -2.543751    4.01708  0.4556E-12  0.1754E-07  0.3113E-11  0.2873E-04  0.2004E-93 -0.7773E+12
   -2.612498    4.01865  0.4556E-12  0.1657E-07  0.4578E-11  0.1520E-04  0.4110E-94 -0.1694E+13
   -2.681244    4.02184  0.4556E-12  0.1213E-07  0.1447E-10  0.1969E-05  0.3901E-95 -0.2289E+14
   -2.749990    4.05101  0.4556E-12  0.0000E+00  0.0000E+00  0.0000E+00  0.4117E-95  0.0000E+00
