 1 - depth, m
 2 - temperature, C
 3 - salinity, kg/kg
 4 - turbulent kinetic energy, m**2/s**2
 5 - dissipation rate, m**2/s**3
 6 - kinematic heat conductance, m**2/s
 7 - modulus of horizontal velocity, m/s
 8 - Richardson number, n/d
   -0.000000   -0.00000  0.1996E-11  0.4805E-10  0.2495E-13  0.1000E-09  0.0000E+00  0.6119E+16
   -0.068746    0.09295  0.9894E-12  0.2048E-09  0.1600E-13  0.1000E-09  0.0000E+00  0.5912E+16
   -0.137492    0.18506  0.8290E-12  0.4618E-09  0.1427E-13  0.1000E-09  0.0000E+00  0.5676E+16
   -0.206239    0.27578  0.7928E-12  0.8069E-09  0.1504E-13  0.1000E-09  0.0000E+00  0.5419E+16
   -0.274987    0.36465  0.7794E-12  0.1243E-08  0.1738E-13  0.1000E-09  0.0000E+00  0.5146E+16
   -0.343735    0.45125  0.7710E-12  0.1782E-08  0.2104E-13  0.1000E-09  0.0000E+00  0.4862E+16
   -0.412483    0.53518  0.7647E-12  0.2445E-08  0.2605E-13  0.1000E-09  0.0000E+00  0.4570E+16
   -0.481232    0.61610  0.7602E-12  0.3259E-08  0.3255E-13  0.1000E-09  0.0000E+00  0.4274E+16
   -0.549982    0.69368  0.7573E-12  0.4260E-08  0.4077E-13  0.1000E-09  0.0000E+00  0.3975E+16
   -0.618732    0.76761  0.7557E-12  0.5492E-08  0.5104E-13  0.1000E-09  0.0000E+00  0.3676E+16
   -0.687482    0.83760  0.7548E-12  0.7014E-08  0.6379E-13  0.1004E-09  0.0000E+00  0.3381E+16
   -0.756233    0.90345  0.7538E-12  0.8895E-08  0.7956E-13  0.1311E-09  0.0000E+00  0.3089E+16
   -0.824984    0.96495  0.7522E-12  0.1122E-07  0.9901E-13  0.1798E-09  0.0000E+00  0.2802E+16
   -0.893735    1.02188  0.7498E-12  0.1410E-07  0.1230E-12  0.2484E-09  0.0000E+00  0.2520E+16
   -0.962487    1.07408  0.7468E-12  0.1766E-07  0.1524E-12  0.3458E-09  0.0000E+00  0.2243E+16
   -1.031238    1.12139  0.7438E-12  0.2207E-07  0.1886E-12  0.4862E-09  0.0000E+00  0.1974E+16
   -1.099990    1.16371  0.7415E-12  0.2752E-07  0.2329E-12  0.6924E-09  0.0000E+00  0.1712E+16
   -1.168742    1.20097  0.7400E-12  0.3426E-07  0.2873E-12  0.1002E-08  0.0000E+00  0.1459E+16
   -1.237494    1.23312  0.7391E-12  0.4257E-07  0.3537E-12  0.1484E-08  0.0000E+00  0.1214E+16
   -1.306246    1.26018  0.7387E-12  0.5281E-07  0.4350E-12  0.2264E-08  0.0000E+00  0.9779E+15
   -1.374999    1.28219  0.7384E-12  0.6541E-07  0.5339E-12  0.3606E-08  0.0000E+00  0.7540E+15
   -1.443751    1.29928  0.7383E-12  0.8087E-07  0.6542E-12  0.6163E-08  0.0000E+00  0.5407E+15
   -1.512503    1.31161  0.7383E-12  0.9969E-07  0.7993E-12  0.1207E-07  0.0000E+00  0.3375E+15
   -1.581255    1.31934  0.7383E-12  0.1221E-06  0.9705E-12  0.3428E-07  0.0000E+00  0.1450E+15
   -1.650007    1.32267  0.7382E-12  0.1221E-06  0.9707E-12  0.4738E-02  0.0000E+00  0.1789E+09
   -1.718759    1.32267  0.7382E-12  0.1221E-06  0.9708E-12  0.4699E-02  0.0000E+00 -0.4821E+10
   -1.787511    1.32267  0.7382E-12  0.1221E-06  0.9709E-12  0.4695E-02  0.0000E+00 -0.5097E+10
   -1.856262    1.32267  0.7382E-12  0.1221E-06  0.9709E-12  0.4696E-02  0.0000E+00 -0.4839E+10
   -1.925013    1.32267  0.7382E-12  0.1221E-06  0.9710E-12  0.4698E-02  0.0000E+00 -0.3897E+10
   -1.993764    1.32267  0.7382E-12  0.1221E-06  0.9710E-12  0.4700E-02  0.0000E+00 -0.3408E+10
   -2.062515    1.32267  0.7382E-12  0.1221E-06  0.9711E-12  0.4699E-02  0.0000E+00 -0.3767E+10
   -2.131265    1.32267  0.7382E-12  0.1221E-06  0.9711E-12  0.4700E-02  0.0000E+00 -0.3599E+10
   -2.200015    1.32267  0.7382E-12  0.1221E-06  0.9711E-12  0.4712E-02  0.0000E+00 -0.2907E+10
   -2.268765    1.32267  0.7382E-12  0.1221E-06  0.9710E-12  0.9177E-03  0.0000E+00  0.1068E+14
   -2.337514    1.32291  0.7382E-12  0.1111E-06  0.9706E-12  0.1716E-07  0.0000E+00  0.2883E+15
   -2.406263    1.32954  0.7382E-12  0.8917E-07  0.1027E-11  0.7214E-08  0.0000E+00  0.7249E+15
   -2.475011    1.34628  0.7382E-12  0.6709E-07  0.1163E-11  0.4114E-08  0.0000E+00  0.1440E+16
   -2.543758    1.37987  0.7382E-12  0.4523E-07  0.1464E-11  0.2843E-08  0.0000E+00  0.2621E+16
   -2.612505    1.44219  0.7382E-12  0.2407E-07  0.2211E-11  0.2217E-08  0.0000E+00  0.5077E+16
   -2.681251    1.56768  0.7382E-12  0.5308E-08  0.5105E-11  0.1990E-08  0.0000E+00  0.1302E+17
   -2.749997    1.92556  0.7382E-12  0.0000E+00  0.0000E+00  0.0000E+00  0.0000E+00  0.0000E+00
