 1 - depth, m
 2 - temperature, C
 3 - salinity, kg/kg
 4 - turbulent kinetic energy, m**2/s**2
 5 - dissipation rate, m**2/s**3
 6 - kinematic heat conductance, m**2/s
 7 - modulus of horizontal velocity, m/s
 8 - Richardson number, n/d
   -0.000000   -0.00000  0.1877E-17  0.1256E-07  0.2775E-10  0.2957E-08  0.0000E+00  0.4741E+17
   -0.068749    0.79549  0.0000E+00  0.1584E-06  0.2115E-10  0.4074E-08  0.0000E+00  0.2624E+17
   -0.137499    1.34414  0.5678E-13  0.4741E-06  0.2987E-10  0.1120E-07  0.0000E+00  0.1349E+17
   -0.206249    1.67999  0.4240E-12  0.9719E-06  0.4974E-10  0.4707E-07  0.0000E+00  0.5380E+16
   -0.275000    1.82966  0.7424E-12  0.1056E-05  0.5457E-10  0.2210E-02  0.0000E+00  0.7390E+14
   -0.343751    1.83195  0.7461E-12  0.1056E-05  0.5460E-10  0.6430E-02  0.0000E+00 -0.5992E+11
   -0.412503    1.83194  0.7461E-12  0.1057E-05  0.5463E-10  0.6389E-02  0.0000E+00 -0.1364E+12
   -0.481255    1.83194  0.7461E-12  0.1057E-05  0.5465E-10  0.6381E-02  0.0000E+00 -0.1863E+12
   -0.550008    1.83194  0.7461E-12  0.1057E-05  0.5466E-10  0.6378E-02  0.0000E+00 -0.2119E+12
   -0.618761    1.83193  0.7461E-12  0.1057E-05  0.5467E-10  0.6377E-02  0.0000E+00 -0.2173E+12
   -0.687515    1.83192  0.7461E-12  0.1057E-05  0.5468E-10  0.6377E-02  0.0000E+00 -0.2044E+12
   -0.756269    1.83192  0.7461E-12  0.1057E-05  0.5468E-10  0.6379E-02  0.0000E+00 -0.1756E+12
   -0.825023    1.83191  0.7461E-12  0.1057E-05  0.5467E-10  0.6384E-02  0.0000E+00 -0.1333E+12
   -0.893778    1.83191  0.7461E-12  0.1056E-05  0.5466E-10  0.6365E-02  0.0000E+00  0.8430E+12
   -0.962532    1.83193  0.7449E-12  0.1054E-05  0.5451E-10  0.5732E-02  0.0000E+00  0.7695E+14
   -1.031287    1.83393  0.7240E-12  0.1018E-05  0.5249E-10  0.4109E-02  0.0000E+00  0.5091E+15
   -1.100042    1.84909  0.6974E-12  0.9103E-06  0.6142E-10  0.1115E-02  0.0000E+00  0.2719E+16
   -1.168798    1.94730  0.6663E-12  0.7630E-06  0.1094E-09  0.8855E-07  0.0000E+00  0.6136E+16
   -1.237553    2.30402  0.5939E-12  0.6046E-06  0.1727E-09  0.1128E-03  0.0000E+00  0.6962E+16
   -1.306308    2.74500  0.5580E-12  0.6166E-06  0.2354E-09  0.2645E-03  0.0000E+00  0.7004E+16
   -1.375064    3.20307  0.5541E-12  0.7479E-06  0.3019E-09  0.4164E-03  0.0000E+00  0.6509E+16
   -1.443819    3.65581  0.5541E-12  0.8988E-06  0.3675E-09  0.5565E-03  0.0000E+00  0.5066E+16
   -1.512575    4.06195  0.5541E-12  0.9995E-06  0.4113E-09  0.6833E-03  0.0000E+00  0.1596E+16
   -1.581330    4.30232  0.5540E-12  0.1006E-05  0.4164E-09  0.7816E-03  0.0000E+00 -0.4807E+13
   -1.650086    4.30331  0.5540E-12  0.1010E-05  0.4216E-09  0.7756E-03  0.0000E+00 -0.4792E+13
   -1.718841    4.30430  0.5540E-12  0.1013E-05  0.4274E-09  0.7691E-03  0.0000E+00 -0.4920E+13
   -1.787596    4.30531  0.5540E-12  0.1016E-05  0.4342E-09  0.7584E-03  0.0000E+00 -0.5043E+13
   -1.856350    4.30633  0.5540E-12  0.1017E-05  0.4426E-09  0.7430E-03  0.0000E+00 -0.5180E+13
   -1.925105    4.30737  0.5540E-12  0.1018E-05  0.4529E-09  0.7235E-03  0.0000E+00 -0.5359E+13
   -1.993859    4.30844  0.5540E-12  0.1018E-05  0.4656E-09  0.7012E-03  0.0000E+00 -0.5555E+13
   -2.062613    4.30955  0.5540E-12  0.1017E-05  0.4808E-09  0.6853E-03  0.0000E+00 -0.5698E+13
   -2.131367    4.31069  0.5540E-12  0.1014E-05  0.4989E-09  0.6558E-03  0.0000E+00 -0.6056E+13
   -2.200120    4.31189  0.5540E-12  0.1011E-05  0.5208E-09  0.6208E-03  0.0000E+00 -0.6443E+13
   -2.268873    4.31315  0.5540E-12  0.1006E-05  0.5480E-09  0.6075E-03  0.0000E+00 -0.6618E+13
   -2.337625    4.31446  0.5540E-12  0.9989E-06  0.5839E-09  0.5514E-03  0.0000E+00 -0.7384E+13
   -2.406377    4.31589  0.5540E-12  0.9896E-06  0.6343E-09  0.4965E-03  0.0000E+00 -0.8260E+13
   -2.475128    4.31748  0.5540E-12  0.9764E-06  0.7106E-09  0.4382E-03  0.0000E+00 -0.9440E+13
   -2.543879    4.31930  0.5540E-12  0.9572E-06  0.8368E-09  0.3733E-03  0.0000E+00 -0.1136E+14
   -2.612629    4.32148  0.5540E-12  0.9200E-06  0.1139E-08  0.2363E-03  0.0000E+00 -0.1839E+14
   -2.681379    4.32501  0.5540E-12  0.6125E-06  0.4702E-08  0.1181E-04  0.0000E+00 -0.4233E+15
   -2.750128    4.39756  0.5540E-12  0.0000E+00  0.0000E+00  0.0000E+00  0.0000E+00  0.0000E+00
