 1 - depth, m
 2 - temperature, C
 3 - salinity, kg/kg
 4 - turbulent kinetic energy, m**2/s**2
 5 - dissipation rate, m**2/s**3
 6 - kinematic heat conductance, m**2/s
 7 - modulus of horizontal velocity, m/s
 8 - Richardson number, n/d
   -0.000000   -0.00000  0.1957E-11  0.1219E-13  0.7603E-17  0.1000E-09  0.0000E+00  0.1045E+17
   -0.068746    0.16017  0.9967E-12  0.1219E-13  0.7603E-17  0.1000E-09  0.0000E+00  0.9911E+16
   -0.137492    0.31901  0.6568E-12  0.1219E-13  0.7603E-17  0.1000E-09  0.0000E+00  0.9383E+16
   -0.206239    0.47643  0.5360E-12  0.1219E-13  0.7603E-17  0.1000E-09  0.0000E+00  0.8866E+16
   -0.274987    0.63239  0.4994E-12  0.1219E-13  0.7603E-17  0.1000E-09  0.0000E+00  0.8362E+16
   -0.343735    0.78685  0.4898E-12  0.1219E-13  0.7603E-17  0.1000E-09  0.0000E+00  0.7870E+16
   -0.412483    0.93976  0.4868E-12  0.1219E-13  0.7603E-17  0.1000E-09  0.0000E+00  0.7391E+16
   -0.481232    1.09110  0.4847E-12  0.1219E-13  0.7603E-17  0.1000E-09  0.0000E+00  0.6924E+16
   -0.549982    1.24083  0.4820E-12  0.1219E-13  0.7603E-17  0.1000E-09  0.0000E+00  0.6470E+16
   -0.618732    1.38891  0.4784E-12  0.1219E-13  0.7603E-17  0.1000E-09  0.0000E+00  0.6029E+16
   -0.687482    1.53529  0.4738E-12  0.1219E-13  0.7603E-17  0.1000E-09  0.0000E+00  0.5606E+16
   -0.756233    1.68008  0.4684E-12  0.1219E-13  0.7603E-17  0.1000E-09  0.0000E+00  0.5197E+16
   -0.824984    1.82331  0.4633E-12  0.1219E-13  0.7603E-17  0.1000E-09  0.0000E+00  0.4799E+16
   -0.893735    1.96489  0.4594E-12  0.1219E-13  0.7603E-17  0.1000E-09  0.0000E+00  0.4410E+16
   -0.962487    2.10471  0.4570E-12  0.1219E-13  0.7603E-17  0.1000E-09  0.0000E+00  0.4032E+16
   -1.031238    2.24262  0.4560E-12  0.1219E-13  0.7603E-17  0.1000E-09  0.0000E+00  0.3664E+16
   -1.099990    2.37850  0.4557E-12  0.3542E-13  0.7603E-17  0.1000E-09  0.0000E+00  0.3307E+16
   -1.168742    2.51219  0.4556E-12  0.1068E-12  0.1248E-16  0.1000E-09  0.0000E+00  0.2963E+16
   -1.237494    2.64351  0.4556E-12  0.2573E-12  0.2599E-16  0.1000E-09  0.0000E+00  0.2632E+16
   -1.306246    2.77230  0.4556E-12  0.5723E-12  0.5499E-16  0.1000E-09  0.0000E+00  0.2315E+16
   -1.374999    2.89837  0.4556E-12  0.1235E-11  0.1152E-15  0.1000E-09  0.0000E+00  0.2013E+16
   -1.443751    3.02155  0.4556E-12  0.2627E-11  0.2388E-15  0.1000E-09  0.0000E+00  0.1726E+16
   -1.512503    3.14162  0.4556E-12  0.5530E-11  0.4906E-15  0.1000E-09  0.0000E+00  0.1456E+16
   -1.581255    3.25838  0.4556E-12  0.1153E-10  0.9990E-15  0.1000E-09  0.0000E+00  0.1203E+16
   -1.650007    3.37153  0.4556E-12  0.2386E-10  0.2018E-14  0.1000E-09  0.0000E+00  0.9674E+15
   -1.718759    3.48081  0.4556E-12  0.4894E-10  0.4044E-14  0.1000E-09  0.0000E+00  0.7508E+15
   -1.787511    3.58586  0.4556E-12  0.1018E-09  0.8216E-14  0.1000E-09  0.0000E+00  0.5500E+15
   -1.856262    3.68544  0.4556E-12  0.2139E-09  0.1687E-13  0.2302E-09  0.0000E+00  0.3729E+15
   -1.925013    3.77868  0.4556E-12  0.4495E-09  0.3465E-13  0.7936E-09  0.0000E+00  0.2221E+15
   -1.993764    3.86452  0.4556E-12  0.9422E-09  0.7103E-13  0.3584E-08  0.0000E+00  0.1008E+15
   -2.062515    3.94178  0.4556E-12  0.1886E-08  0.1395E-12  0.4903E-07  0.0000E+00  0.1441E+14
   -2.131265    3.99847  0.4556E-12  0.2408E-08  0.1796E-12  0.1290E-04  0.0000E+00 -0.1633E+12
   -2.200015    3.99929  0.4556E-12  0.2640E-08  0.2026E-12  0.1331E-04  0.0000E+00 -0.1705E+12
   -2.268765    4.00011  0.4556E-12  0.2825E-08  0.2281E-12  0.1317E-04  0.0000E+00 -0.1865E+12
   -2.337514    4.00094  0.4556E-12  0.2974E-08  0.2600E-12  0.1245E-04  0.0000E+00 -0.2155E+12
   -2.406263    4.00186  0.4556E-12  0.3088E-08  0.3036E-12  0.1111E-04  0.0000E+00 -0.2681E+12
   -2.475011    4.00292  0.4556E-12  0.3160E-08  0.3716E-12  0.9083E-05  0.0000E+00 -0.3746E+12
   -2.543758    4.00430  0.4556E-12  0.3168E-08  0.4978E-12  0.6373E-05  0.0000E+00 -0.6436E+12
   -2.612505    4.00646  0.4556E-12  0.3055E-08  0.8217E-12  0.3237E-05  0.0000E+00 -0.1763E+13
   -2.681252    4.01143  0.4556E-12  0.2641E-08  0.2401E-11  0.7568E-06  0.0000E+00 -0.1879E+14
   -2.749997    4.04136  0.4556E-12  0.0000E+00  0.0000E+00  0.0000E+00  0.0000E+00  0.0000E+00
