 1 - depth, m
 2 - temperature, C
 3 - salinity, kg/kg
 4 - turbulent kinetic energy, m**2/s**2
 5 - dissipation rate, m**2/s**3
 6 - kinematic heat conductance, m**2/s
 7 - modulus of horizontal velocity, m/s
 8 - Richardson number, n/d
   -0.000000   -0.00000  0.3877E-11  0.6094E-12  0.1055E-15  0.1000E-09  0.0000E+00  0.2334E+17
   -0.068746    0.36815  0.8710E-12  0.1269E-11  0.9046E-16  0.1000E-09  0.0000E+00  0.2038E+17
   -0.137492    0.72572  0.5783E-12  0.2488E-11  0.1124E-15  0.1000E-09  0.0000E+00  0.1753E+17
   -0.206239    1.07043  0.5532E-12  0.4398E-11  0.1632E-15  0.1000E-09  0.0000E+00  0.1486E+17
   -0.274986    1.40022  0.5517E-12  0.7309E-11  0.2487E-15  0.1000E-09  0.0000E+00  0.1239E+17
   -0.343734    1.71330  0.5517E-12  0.1175E-10  0.3832E-15  0.1000E-09  0.0000E+00  0.1016E+17
   -0.412482    2.00811  0.5517E-12  0.1858E-10  0.5909E-15  0.1000E-09  0.0000E+00  0.8175E+16
   -0.481231    2.28339  0.5517E-12  0.2912E-10  0.9099E-15  0.1000E-09  0.0000E+00  0.6449E+16
   -0.549981    2.53819  0.5517E-12  0.4541E-10  0.1399E-14  0.1000E-09  0.0000E+00  0.4978E+16
   -0.618731    2.77187  0.5517E-12  0.7063E-10  0.2148E-14  0.1000E-09  0.0000E+00  0.3751E+16
   -0.687481    2.98414  0.5517E-12  0.1097E-09  0.3294E-14  0.1000E-09  0.0000E+00  0.2759E+16
   -0.756231    3.17565  0.5517E-12  0.1700E-09  0.5044E-14  0.1000E-09  0.0000E+00  0.1969E+16
   -0.824982    3.34705  0.5517E-12  0.2630E-09  0.7709E-14  0.1000E-09  0.0000E+00  0.1351E+16
   -0.893733    3.49877  0.5517E-12  0.4061E-09  0.1176E-13  0.1000E-09  0.0000E+00  0.8805E+15
   -0.962485    3.63129  0.5517E-12  0.6256E-09  0.1788E-13  0.1704E-09  0.0000E+00  0.5342E+15
   -1.031236    3.74513  0.5517E-12  0.9608E-09  0.2710E-13  0.4738E-09  0.0000E+00  0.2920E+15
   -1.099988    3.84128  0.5517E-12  0.1470E-08  0.4091E-13  0.1583E-08  0.0000E+00  0.1330E+15
   -1.168740    3.92199  0.5517E-12  0.2233E-08  0.6132E-13  0.9867E-08  0.0000E+00  0.3260E+14
   -1.237492    3.98919  0.5517E-12  0.2388E-08  0.6579E-13  0.2507E-04  0.0000E+00 -0.1861E+11
   -1.306244    3.98959  0.5517E-12  0.2468E-08  0.6846E-13  0.2673E-04  0.0000E+00 -0.1941E+11
   -1.374996    3.98995  0.5517E-12  0.2542E-08  0.7137E-13  0.2803E-04  0.0000E+00 -0.2026E+11
   -1.443748    3.99029  0.5517E-12  0.2613E-08  0.7452E-13  0.2897E-04  0.0000E+00 -0.2119E+11
   -1.512500    3.99062  0.5517E-12  0.2680E-08  0.7791E-13  0.2958E-04  0.0000E+00 -0.2223E+11
   -1.581252    3.99094  0.5517E-12  0.2743E-08  0.8158E-13  0.2988E-04  0.0000E+00 -0.2342E+11
   -1.650004    3.99125  0.5517E-12  0.2801E-08  0.8556E-13  0.2989E-04  0.0000E+00 -0.2478E+11
   -1.718755    3.99157  0.5517E-12  0.2855E-08  0.8989E-13  0.2965E-04  0.0000E+00 -0.2636E+11
   -1.787507    3.99188  0.5517E-12  0.2907E-08  0.9482E-13  0.2957E-04  0.0000E+00 -0.2854E+11
   -1.856258    3.99219  0.5517E-12  0.2958E-08  0.1007E-12  0.2922E-04  0.0000E+00 -0.3128E+11
   -1.925009    3.99252  0.5517E-12  0.3008E-08  0.1077E-12  0.2858E-04  0.0000E+00 -0.3481E+11
   -1.993760    3.99287  0.5517E-12  0.3057E-08  0.1162E-12  0.2749E-04  0.0000E+00 -0.3936E+11
   -2.062511    3.99324  0.5517E-12  0.3102E-08  0.1262E-12  0.2579E-04  0.0000E+00 -0.4494E+11
   -2.131261    3.99365  0.5517E-12  0.3141E-08  0.1384E-12  0.2380E-04  0.0000E+00 -0.5231E+11
   -2.200011    3.99409  0.5517E-12  0.3174E-08  0.1536E-12  0.2154E-04  0.0000E+00 -0.6244E+11
   -2.268760    3.99458  0.5517E-12  0.3201E-08  0.1733E-12  0.1912E-04  0.0000E+00 -0.7750E+11
   -2.337509    3.99516  0.5517E-12  0.3219E-08  0.2011E-12  0.1635E-04  0.0000E+00 -0.1021E+12
   -2.406258    3.99587  0.5517E-12  0.3225E-08  0.2436E-12  0.1321E-04  0.0000E+00 -0.1468E+12
   -2.475006    3.99680  0.5517E-12  0.3212E-08  0.3163E-12  0.9731E-05  0.0000E+00 -0.2440E+12
   -2.543753    3.99819  0.5517E-12  0.3164E-08  0.4652E-12  0.6085E-05  0.0000E+00 -0.5242E+12
   -2.612500    4.00074  0.5517E-12  0.3053E-08  0.8840E-12  0.2801E-05  0.0000E+00 -0.1936E+13
   -2.681246    4.00764  0.5517E-12  0.2967E-08  0.2938E-11  0.8379E-06  0.0000E+00 -0.2354E+14
   -2.749992    4.04514  0.5517E-12  0.0000E+00  0.0000E+00  0.0000E+00  0.0000E+00  0.0000E+00
