 1 - depth, m
 2 - temperature, C
 3 - salinity, kg/kg
 4 - turbulent kinetic energy, m**2/s**2
 5 - dissipation rate, m**2/s**3
 6 - kinematic heat conductance, m**2/s
 7 - modulus of horizontal velocity, m/s
 8 - Richardson number, n/d
   -0.000000   -0.00000  0.1902E-11  0.5828E-10  0.3181E-13  0.1000E-09  0.0000E+00  0.6379E+16
   -0.068746    0.09696  0.9692E-12  0.2582E-09  0.2037E-13  0.1000E-09  0.0000E+00  0.6128E+16
   -0.137492    0.19258  0.8275E-12  0.5865E-09  0.1830E-13  0.1000E-09  0.0000E+00  0.5863E+16
   -0.206239    0.28654  0.7931E-12  0.1030E-08  0.1955E-13  0.1000E-09  0.0000E+00  0.5585E+16
   -0.274986    0.37847  0.7800E-12  0.1596E-08  0.2293E-13  0.1000E-09  0.0000E+00  0.5297E+16
   -0.343734    0.46801  0.7715E-12  0.2304E-08  0.2819E-13  0.1000E-09  0.0000E+00  0.5000E+16
   -0.412483    0.55480  0.7650E-12  0.3187E-08  0.3540E-13  0.1000E-09  0.0000E+00  0.4695E+16
   -0.481232    0.63848  0.7603E-12  0.4288E-08  0.4483E-13  0.1000E-09  0.0000E+00  0.4386E+16
   -0.549981    0.71870  0.7574E-12  0.5665E-08  0.5688E-13  0.1000E-09  0.0000E+00  0.4075E+16
   -0.618731    0.79513  0.7558E-12  0.7391E-08  0.7213E-13  0.1001E-09  0.0000E+00  0.3763E+16
   -0.687481    0.86746  0.7549E-12  0.9557E-08  0.9129E-13  0.1345E-09  0.0000E+00  0.3454E+16
   -0.756232    0.93545  0.7539E-12  0.1228E-07  0.1153E-12  0.1863E-09  0.0000E+00  0.3150E+16
   -0.824983    0.99887  0.7525E-12  0.1570E-07  0.1452E-12  0.2594E-09  0.0000E+00  0.2849E+16
   -0.893734    1.05748  0.7501E-12  0.2000E-07  0.1826E-12  0.3638E-09  0.0000E+00  0.2554E+16
   -0.962485    1.11109  0.7471E-12  0.2539E-07  0.2290E-12  0.5145E-09  0.0000E+00  0.2266E+16
   -1.031237    1.15953  0.7440E-12  0.3216E-07  0.2867E-12  0.7354E-09  0.0000E+00  0.1984E+16
   -1.099989    1.20267  0.7416E-12  0.4063E-07  0.3582E-12  0.1066E-08  0.0000E+00  0.1710E+16
   -1.168741    1.24044  0.7400E-12  0.5123E-07  0.4467E-12  0.1573E-08  0.0000E+00  0.1445E+16
   -1.237493    1.27278  0.7391E-12  0.6444E-07  0.5559E-12  0.2380E-08  0.0000E+00  0.1189E+16
   -1.306245    1.29969  0.7387E-12  0.8088E-07  0.6905E-12  0.3732E-08  0.0000E+00  0.9418E+15
   -1.374997    1.32121  0.7384E-12  0.1013E-06  0.8556E-12  0.6166E-08  0.0000E+00  0.7065E+15
   -1.443749    1.33747  0.7383E-12  0.1263E-06  0.1057E-11  0.1118E-07  0.0000E+00  0.4813E+15
   -1.512501    1.34861  0.7383E-12  0.1567E-06  0.1299E-11  0.2490E-07  0.0000E+00  0.2659E+15
   -1.581253    1.35479  0.7382E-12  0.1896E-06  0.1561E-11  0.1312E-06  0.0000E+00  0.6170E+14
   -1.650005    1.35622  0.7382E-12  0.1896E-06  0.1561E-11  0.7063E-02  0.0000E+00 -0.1294E+10
   -1.718757    1.35622  0.7382E-12  0.1896E-06  0.1561E-11  0.7038E-02  0.0000E+00 -0.4809E+10
   -1.787509    1.35622  0.7382E-12  0.1896E-06  0.1561E-11  0.7035E-02  0.0000E+00 -0.5016E+10
   -1.856260    1.35622  0.7382E-12  0.1896E-06  0.1562E-11  0.7036E-02  0.0000E+00 -0.4847E+10
   -1.925011    1.35622  0.7382E-12  0.1896E-06  0.1562E-11  0.7037E-02  0.0000E+00 -0.4209E+10
   -1.993762    1.35622  0.7382E-12  0.1896E-06  0.1562E-11  0.7039E-02  0.0000E+00 -0.3880E+10
   -2.062513    1.35622  0.7382E-12  0.1896E-06  0.1562E-11  0.7038E-02  0.0000E+00 -0.4183E+10
   -2.131263    1.35622  0.7382E-12  0.1896E-06  0.1562E-11  0.7038E-02  0.0000E+00 -0.4117E+10
   -2.200013    1.35622  0.7382E-12  0.1896E-06  0.1562E-11  0.7043E-02  0.0000E+00 -0.3709E+10
   -2.268762    1.35622  0.7382E-12  0.1896E-06  0.1562E-11  0.7077E-02  0.0000E+00 -0.7476E+09
   -2.337511    1.35622  0.7382E-12  0.1896E-06  0.1562E-11  0.4585E-07  0.0000E+00  0.1748E+15
   -2.406260    1.36029  0.7382E-12  0.1519E-06  0.1668E-11  0.1382E-07  0.0000E+00  0.6147E+15
   -2.475008    1.37465  0.7382E-12  0.1136E-06  0.1914E-11  0.7268E-08  0.0000E+00  0.1341E+16
   -2.543755    1.40627  0.7382E-12  0.7590E-07  0.2445E-11  0.4902E-08  0.0000E+00  0.2540E+16
   -2.612502    1.46730  0.7382E-12  0.3963E-07  0.3755E-11  0.3807E-08  0.0000E+00  0.5020E+16
   -2.681248    1.59268  0.7382E-12  0.8162E-08  0.8772E-11  0.3431E-08  0.0000E+00  0.1296E+17
   -2.749994    1.95343  0.7382E-12  0.0000E+00  0.0000E+00  0.0000E+00  0.0000E+00  0.0000E+00
