 1 - depth, m
 2 - temperature, C
 3 - salinity, kg/kg
 4 - turbulent kinetic energy, m**2/s**2
 5 - dissipation rate, m**2/s**3
 6 - kinematic heat conductance, m**2/s
 7 - modulus of horizontal velocity, m/s
 8 - Richardson number, n/d
   -0.000000   -0.00000  0.1613E-11  0.1219E-13  0.7603E-17  0.1000E-09  0.0000E+00  0.1017E+17
   -0.068746    0.15588  0.9921E-12  0.1219E-13  0.7603E-17  0.1000E-09  0.0000E+00  0.9674E+16
   -0.137492    0.31064  0.6447E-12  0.1219E-13  0.7603E-17  0.1000E-09  0.0000E+00  0.9197E+16
   -0.206239    0.46447  0.5249E-12  0.1219E-13  0.7603E-17  0.1000E-09  0.0000E+00  0.8737E+16
   -0.274986    0.61753  0.4953E-12  0.1219E-13  0.7603E-17  0.1000E-09  0.0000E+00  0.8291E+16
   -0.343735    0.76989  0.4892E-12  0.1219E-13  0.7603E-17  0.1000E-09  0.0000E+00  0.7856E+16
   -0.412483    0.92163  0.4874E-12  0.1219E-13  0.7603E-17  0.1000E-09  0.0000E+00  0.7429E+16
   -0.481232    1.07277  0.4858E-12  0.1219E-13  0.7603E-17  0.1000E-09  0.0000E+00  0.7009E+16
   -0.549982    1.22333  0.4837E-12  0.1219E-13  0.7603E-17  0.1000E-09  0.0000E+00  0.6595E+16
   -0.618732    1.37329  0.4806E-12  0.1219E-13  0.7603E-17  0.1000E-09  0.0000E+00  0.6186E+16
   -0.687482    1.52261  0.4763E-12  0.1219E-13  0.7603E-17  0.1000E-09  0.0000E+00  0.5790E+16
   -0.756233    1.67145  0.4707E-12  0.1649E-13  0.7603E-17  0.1000E-09  0.0000E+00  0.5401E+16
   -0.824984    1.81988  0.4648E-12  0.4660E-13  0.8044E-17  0.1000E-09  0.0000E+00  0.5013E+16
   -0.893735    1.96777  0.4599E-12  0.1222E-12  0.1136E-16  0.1000E-09  0.0000E+00  0.4627E+16
   -0.962486    2.11496  0.4570E-12  0.2627E-12  0.2062E-16  0.1000E-09  0.0000E+00  0.4242E+16
   -1.031238    2.26129  0.4559E-12  0.5211E-12  0.3871E-16  0.1000E-09  0.0000E+00  0.3861E+16
   -1.099990    2.40654  0.4557E-12  0.1001E-11  0.7246E-16  0.1000E-09  0.0000E+00  0.3483E+16
   -1.168742    2.55051  0.4556E-12  0.1899E-11  0.1349E-15  0.1000E-09  0.0000E+00  0.3112E+16
   -1.237494    2.69294  0.4556E-12  0.3578E-11  0.2503E-15  0.1000E-09  0.0000E+00  0.2748E+16
   -1.306246    2.83360  0.4556E-12  0.6717E-11  0.4633E-15  0.1000E-09  0.0000E+00  0.2394E+16
   -1.374998    2.97224  0.4556E-12  0.1258E-10  0.8567E-15  0.1000E-09  0.0000E+00  0.2052E+16
   -1.443751    3.10866  0.4556E-12  0.2355E-10  0.1584E-14  0.1000E-09  0.0000E+00  0.1723E+16
   -1.512503    3.24264  0.4556E-12  0.4406E-10  0.2932E-14  0.1000E-09  0.0000E+00  0.1409E+16
   -1.581255    3.37389  0.4556E-12  0.8249E-10  0.5433E-14  0.1000E-09  0.0000E+00  0.1111E+16
   -1.650007    3.50206  0.4556E-12  0.1546E-09  0.1009E-13  0.1000E-09  0.0000E+00  0.8282E+15
   -1.718759    3.62651  0.4556E-12  0.2903E-09  0.1876E-13  0.1694E-09  0.0000E+00  0.5639E+15
   -1.787510    3.74592  0.4556E-12  0.5573E-09  0.3567E-13  0.5631E-09  0.0000E+00  0.3218E+15
   -1.856262    3.85684  0.4556E-12  0.1090E-08  0.6915E-13  0.2840E-08  0.0000E+00  0.1214E+15
   -1.925013    3.95225  0.4556E-12  0.2054E-08  0.1299E-12  0.2764E-06  0.0000E+00  0.9804E+13
   -1.993764    3.99666  0.4556E-12  0.2512E-08  0.1608E-12  0.1496E-04  0.0000E+00 -0.1126E+12
   -2.062515    3.99743  0.4556E-12  0.2746E-08  0.1801E-12  0.1598E-04  0.0000E+00 -0.1198E+12
   -2.131265    3.99816  0.4556E-12  0.2953E-08  0.2014E-12  0.1649E-04  0.0000E+00 -0.1306E+12
   -2.200015    3.99889  0.4556E-12  0.3134E-08  0.2257E-12  0.1648E-04  0.0000E+00 -0.1463E+12
   -2.268765    3.99966  0.4556E-12  0.3291E-08  0.2548E-12  0.1593E-04  0.0000E+00 -0.1694E+12
   -2.337514    4.00049  0.4556E-12  0.3426E-08  0.2926E-12  0.1478E-04  0.0000E+00 -0.2056E+12
   -2.406262    4.00142  0.4556E-12  0.3537E-08  0.3457E-12  0.1297E-04  0.0000E+00 -0.2672E+12
   -2.475010    4.00255  0.4556E-12  0.3614E-08  0.4288E-12  0.1047E-04  0.0000E+00 -0.3882E+12
   -2.543758    4.00406  0.4556E-12  0.3632E-08  0.5828E-12  0.7288E-05  0.0000E+00 -0.6890E+12
   -2.612505    4.00643  0.4556E-12  0.3524E-08  0.9732E-12  0.3701E-05  0.0000E+00 -0.1922E+13
   -2.681251    4.01187  0.4556E-12  0.3067E-08  0.2887E-11  0.8505E-06  0.0000E+00 -0.2028E+14
   -2.749997    4.04326  0.4556E-12  0.0000E+00  0.0000E+00  0.0000E+00  0.0000E+00  0.0000E+00
