 1 - depth, m
 2 - temperature, C
 3 - salinity, kg/kg
 4 - turbulent kinetic energy, m**2/s**2
 5 - dissipation rate, m**2/s**3
 6 - kinematic heat conductance, m**2/s
 7 - modulus of horizontal velocity, m/s
 8 - Richardson number, n/d
   -0.000000   -0.00000  0.1643E-14  0.1219E-13  0.7603E-17  0.1000E-09  0.0000E+00  0.1186E+17
   -0.068746    0.18240  0.9706E-13  0.1219E-13  0.7603E-17  0.1000E-09  0.0000E+00  0.8161E+16
   -0.137493    0.31354  0.4416E-12  0.1219E-13  0.7603E-17  0.1000E-09  0.0000E+00  0.5858E+16
   -0.206240    0.41082  0.8435E-12  0.1219E-13  0.7603E-17  0.1000E-09  0.0000E+00  0.4514E+16
   -0.274988    0.48775  0.1101E-11  0.1219E-13  0.7603E-17  0.1000E-09  0.0000E+00  0.3801E+16
   -0.343736    0.55393  0.1156E-11  0.1219E-13  0.7603E-17  0.1000E-09  0.0000E+00  0.3477E+16
   -0.412485    0.61566  0.1064E-11  0.1219E-13  0.7603E-17  0.1000E-09  0.0000E+00  0.3372E+16
   -0.481234    0.67668  0.9158E-12  0.1219E-13  0.7603E-17  0.1000E-09  0.0000E+00  0.3377E+16
   -0.549984    0.73900  0.7778E-12  0.1219E-13  0.7603E-17  0.1000E-09  0.0000E+00  0.3425E+16
   -0.618734    0.80354  0.6773E-12  0.1219E-13  0.7603E-17  0.1000E-09  0.0000E+00  0.3481E+16
   -0.687485    0.87057  0.6151E-12  0.1219E-13  0.7603E-17  0.1000E-09  0.0000E+00  0.3515E+16
   -0.756236    0.93984  0.5811E-12  0.1219E-13  0.7603E-17  0.1000E-09  0.0000E+00  0.3524E+16
   -0.824987    1.01099  0.5643E-12  0.1219E-13  0.7603E-17  0.1000E-09  0.0000E+00  0.3512E+16
   -0.893738    1.08372  0.5568E-12  0.1219E-13  0.7603E-17  0.1000E-09  0.0000E+00  0.3480E+16
   -0.962490    1.15773  0.5536E-12  0.1219E-13  0.7603E-17  0.1000E-09  0.0000E+00  0.3431E+16
   -1.031242    1.23274  0.5524E-12  0.1219E-13  0.7603E-17  0.1000E-09  0.0000E+00  0.3368E+16
   -1.099994    1.30850  0.5519E-12  0.1219E-13  0.7603E-17  0.1000E-09  0.0000E+00  0.3294E+16
   -1.168746    1.38484  0.5517E-12  0.1219E-13  0.7603E-17  0.1000E-09  0.0000E+00  0.3217E+16
   -1.237499    1.46171  0.5517E-12  0.1219E-13  0.7603E-17  0.1000E-09  0.0000E+00  0.3144E+16
   -1.306251    1.53927  0.5517E-12  0.1219E-13  0.7603E-17  0.1000E-09  0.0000E+00  0.3087E+16
   -1.375004    1.61800  0.5517E-12  0.1219E-13  0.7603E-17  0.1000E-09  0.0000E+00  0.3084E+16
   -1.443756    1.69949  0.5517E-12  0.1219E-13  0.7603E-17  0.1000E-09  0.0000E+00  0.3143E+16
   -1.512508    1.78574  0.5517E-12  0.1219E-13  0.7603E-17  0.1000E-09  0.0000E+00  0.3280E+16
   -1.581261    1.87968  0.5517E-12  0.1219E-13  0.7603E-17  0.1000E-09  0.0000E+00  0.3515E+16
   -1.650013    1.98543  0.5517E-12  0.1219E-13  0.7603E-17  0.1000E-09  0.0000E+00  0.3851E+16
   -1.718765    2.10835  0.5517E-12  0.1219E-13  0.7603E-17  0.1000E-09  0.0000E+00  0.4195E+16
   -1.787517    2.25246  0.5517E-12  0.1219E-13  0.7603E-17  0.1000E-09  0.0000E+00  0.3306E+16
   -1.856269    2.37538  0.5517E-12  0.1219E-13  0.7603E-17  0.1000E-09  0.0000E+00  0.2499E+16
   -1.925020    2.47513  0.5517E-12  0.1219E-13  0.7603E-17  0.1000E-09  0.0000E+00  0.1695E+16
   -1.993772    2.54682  0.5517E-12  0.1219E-13  0.7603E-17  0.1000E-09  0.0000E+00  0.1139E+16
   -2.062523    2.59711  0.5517E-12  0.1219E-13  0.7603E-17  0.1000E-09  0.0000E+00  0.1439E+16
   -2.131273    2.66345  0.5517E-12  0.1219E-13  0.7603E-17  0.1000E-09  0.0000E+00  0.1786E+16
   -2.200023    2.75088  0.5517E-12  0.1324E-13  0.9174E-17  0.1000E-09  0.0000E+00  0.2115E+16
   -2.268773    2.86338  0.5517E-12  0.3443E-13  0.3029E-16  0.1000E-09  0.0000E+00  0.2204E+16
   -2.337522    2.99446  0.5517E-12  0.2412E-12  0.2295E-15  0.1000E-09  0.0000E+00  0.2181E+16
   -2.406271    3.14450  0.5517E-12  0.2160E-11  0.2007E-14  0.1000E-09  0.0000E+00  0.2078E+16
   -2.475020    3.31895  0.5517E-12  0.1949E-10  0.1771E-13  0.1203E-09  0.0000E+00  0.1835E+16
   -2.543767    3.52723  0.5517E-12  0.1762E-09  0.1578E-12  0.8496E-09  0.0000E+00  0.1302E+16
   -2.612515    3.79423  0.5517E-12  0.1382E-08  0.1287E-11  0.4292E-06  0.0000E+00  0.3586E+15
   -2.681261    4.02745  0.5517E-12  0.5282E-08  0.8398E-11  0.1123E-05  0.0000E+00 -0.5545E+14
   -2.750007    4.10078  0.5517E-12  0.0000E+00  0.0000E+00  0.0000E+00  0.0000E+00  0.0000E+00
