 1 - depth, m
 2 - temperature, C
 3 - salinity, kg/kg
 4 - turbulent kinetic energy, m**2/s**2
 5 - dissipation rate, m**2/s**3
 6 - kinematic heat conductance, m**2/s
 7 - modulus of horizontal velocity, m/s
 8 - Richardson number, n/d
   -0.000000   -0.00000  0.4362E-11  0.1219E-13  0.7603E-17  0.1000E-09  0.0000E+00  0.1341E+17
   -0.068746    0.20682  0.1604E-11  0.1219E-13  0.7603E-17  0.1000E-09  0.0000E+00  0.1256E+17
   -0.137492    0.41214  0.7178E-12  0.1219E-13  0.7603E-17  0.1000E-09  0.0000E+00  0.1168E+17
   -0.206239    0.61510  0.5701E-12  0.1219E-13  0.7603E-17  0.1000E-09  0.0000E+00  0.1080E+17
   -0.274987    0.81493  0.5533E-12  0.1219E-13  0.7603E-17  0.1000E-09  0.0000E+00  0.9916E+16
   -0.343735    1.01088  0.5518E-12  0.1219E-13  0.7603E-17  0.1000E-09  0.0000E+00  0.9046E+16
   -0.412483    1.20227  0.5517E-12  0.1219E-13  0.7603E-17  0.1000E-09  0.0000E+00  0.8198E+16
   -0.481233    1.38847  0.5517E-12  0.1219E-13  0.7603E-17  0.1000E-09  0.0000E+00  0.7382E+16
   -0.549982    1.56894  0.5517E-12  0.1219E-13  0.7603E-17  0.1000E-09  0.0000E+00  0.6603E+16
   -0.618732    1.74317  0.5517E-12  0.1219E-13  0.7603E-17  0.1000E-09  0.0000E+00  0.5868E+16
   -0.687482    1.91073  0.5517E-12  0.1219E-13  0.7603E-17  0.1000E-09  0.0000E+00  0.5186E+16
   -0.756233    2.07143  0.5517E-12  0.1219E-13  0.7603E-17  0.1000E-09  0.0000E+00  0.4556E+16
   -0.824984    2.22505  0.5517E-12  0.1219E-13  0.7603E-17  0.1000E-09  0.0000E+00  0.3975E+16
   -0.893735    2.37137  0.5517E-12  0.1219E-13  0.7603E-17  0.1000E-09  0.0000E+00  0.3445E+16
   -0.962487    2.51020  0.5517E-12  0.1219E-13  0.7603E-17  0.1000E-09  0.0000E+00  0.2965E+16
   -1.031239    2.64141  0.5517E-12  0.1219E-13  0.7603E-17  0.1000E-09  0.0000E+00  0.2534E+16
   -1.099991    2.76495  0.5517E-12  0.1219E-13  0.7603E-17  0.1000E-09  0.0000E+00  0.2151E+16
   -1.168743    2.88079  0.5517E-12  0.1219E-13  0.7603E-17  0.1000E-09  0.0000E+00  0.1812E+16
   -1.237495    2.98896  0.5517E-12  0.1219E-13  0.7603E-17  0.1000E-09  0.0000E+00  0.1515E+16
   -1.306247    3.08953  0.5517E-12  0.1219E-13  0.7603E-17  0.1000E-09  0.0000E+00  0.1257E+16
   -1.374999    3.18262  0.5517E-12  0.1219E-13  0.7603E-17  0.1000E-09  0.0000E+00  0.1038E+16
   -1.443752    3.26872  0.5517E-12  0.1219E-13  0.7603E-17  0.1000E-09  0.0000E+00  0.8523E+15
   -1.512504    3.34812  0.5517E-12  0.1219E-13  0.7603E-17  0.1000E-09  0.0000E+00  0.6938E+15
   -1.581256    3.42103  0.5517E-12  0.1219E-13  0.7603E-17  0.1000E-09  0.0000E+00  0.5600E+15
   -1.650008    3.48766  0.5517E-12  0.1219E-13  0.7603E-17  0.1000E-09  0.0000E+00  0.4479E+15
   -1.718760    3.54826  0.5517E-12  0.1219E-13  0.7603E-17  0.1000E-09  0.0000E+00  0.3551E+15
   -1.787512    3.60311  0.5517E-12  0.1219E-13  0.7603E-17  0.1000E-09  0.0000E+00  0.2808E+15
   -1.856263    3.65284  0.5517E-12  0.1219E-13  0.7603E-17  0.1000E-09  0.0000E+00  0.2178E+15
   -1.925014    3.69729  0.5517E-12  0.1219E-13  0.7603E-17  0.1000E-09  0.0000E+00  0.1648E+15
   -1.993765    3.73614  0.5517E-12  0.1219E-13  0.7603E-17  0.1000E-09  0.0000E+00  0.1215E+15
   -2.062516    3.76923  0.5517E-12  0.1219E-13  0.7603E-17  0.1000E-09  0.0000E+00  0.9678E+14
   -2.131267    3.79974  0.5517E-12  0.4192E-13  0.1588E-16  0.1000E-09  0.0000E+00  0.7747E+14
   -2.200017    3.82838  0.5517E-12  0.1744E-12  0.6210E-16  0.1000E-09  0.0000E+00  0.6135E+14
   -2.268766    3.85543  0.5517E-12  0.7177E-12  0.2524E-15  0.1000E-09  0.0000E+00  0.4950E+14
   -2.337515    3.88228  0.5517E-12  0.2986E-11  0.1046E-14  0.1189E-09  0.0000E+00  0.3936E+14
   -2.406264    3.91013  0.5517E-12  0.1252E-10  0.4404E-14  0.6530E-09  0.0000E+00  0.2891E+14
   -2.475012    3.94030  0.5517E-12  0.5317E-10  0.1904E-13  0.4614E-08  0.0000E+00  0.1548E+14
   -2.543760    3.97442  0.5517E-12  0.2237E-09  0.8496E-13  0.8369E-07  0.0000E+00 -0.9116E+12
   -2.612507    4.00246  0.5517E-12  0.7342E-09  0.3980E-12  0.3905E-06  0.0000E+00 -0.7220E+13
   -2.681253    4.02070  0.5517E-12  0.1535E-08  0.1609E-11  0.4811E-06  0.0000E+00 -0.2931E+14
   -2.749999    4.05651  0.5517E-12  0.0000E+00  0.0000E+00  0.0000E+00  0.0000E+00  0.0000E+00
