 1 - depth, m
 2 - temperature, C
 3 - salinity, kg/kg
 4 - turbulent kinetic energy, m**2/s**2
 5 - dissipation rate, m**2/s**3
 6 - kinematic heat conductance, m**2/s
 7 - modulus of horizontal velocity, m/s
 8 - Richardson number, n/d
   -0.000000    6.29798  0.3608E-12  0.5771E-04  0.1162E-04  0.6532E-04  0.6551E-01 -0.8044E-01
   -0.068746    6.36785  0.3608E-12  0.3587E-04  0.2639E-05  0.1017E-03  0.3275E-01 -0.1891E-01
   -0.137492    6.38556  0.3608E-12  0.3029E-04  0.1100E-05  0.1450E-03  0.2642E-01 -0.3135E-01
   -0.206239    6.39685  0.3608E-12  0.2739E-04  0.5781E-06  0.1961E-03  0.2261E-01 -0.4463E-01
   -0.274987    6.40506  0.3608E-12  0.2567E-04  0.3592E-06  0.2528E-03  0.1984E-01 -0.5854E-01
   -0.343735    6.41133  0.3608E-12  0.2454E-04  0.2510E-06  0.3156E-03  0.1773E-01 -0.5980E-01
   -0.412483    6.41624  0.3608E-12  0.2372E-04  0.1900E-06  0.3972E-03  0.1605E-01  0.9052E+01
   -0.481233    6.42015  0.3608E-12  0.2308E-04  0.1518E-06  0.4897E-03  0.1467E-01  0.8414E+01
   -0.549982    6.42333  0.3608E-12  0.2256E-04  0.1259E-06  0.5871E-03  0.1353E-01  0.1069E+02
   -0.618732    6.42597  0.3608E-12  0.2211E-04  0.1074E-06  0.6782E-03  0.1254E-01  0.6283E+01
   -0.687482    6.42822  0.3608E-12  0.2172E-04  0.9360E-07  0.7648E-03  0.1168E-01  0.4635E+01
   -0.756233    6.43016  0.3608E-12  0.2137E-04  0.8293E-07  0.8599E-03  0.1091E-01  0.3866E+02
   -0.824984    6.43184  0.3608E-12  0.2106E-04  0.7449E-07  0.9709E-03  0.1022E-01  0.2604E+02
   -0.893735    6.43329  0.3608E-12  0.2078E-04  0.6768E-07  0.1119E-02  0.9595E-02  0.7334E+02
   -0.962487    6.43454  0.3608E-12  0.2052E-04  0.6211E-07  0.1254E-02  0.9017E-02  0.2578E+02
   -1.031239    6.43562  0.3608E-12  0.2027E-04  0.5746E-07  0.1385E-02  0.8476E-02  0.3318E+02
   -1.099991    6.43657  0.3608E-12  0.2004E-04  0.5354E-07  0.1518E-02  0.7965E-02  0.7368E+02
   -1.168743    6.43741  0.3608E-12  0.1981E-04  0.5019E-07  0.1631E-02  0.7478E-02  0.7867E+02
   -1.237495    6.43815  0.3608E-12  0.1959E-04  0.4730E-07  0.1750E-02  0.7010E-02  0.1208E+03
   -1.306247    6.43883  0.3608E-12  0.1936E-04  0.4478E-07  0.1840E-02  0.6558E-02  0.8143E+02
   -1.374999    6.43944  0.3608E-12  0.1912E-04  0.4256E-07  0.1929E-02  0.6117E-02  0.3856E+03
   -1.443752    6.44001  0.3608E-12  0.1887E-04  0.4059E-07  0.1991E-02  0.5686E-02  0.7775E+04
   -1.512504    6.44054  0.3608E-12  0.1861E-04  0.3882E-07  0.2045E-02  0.5262E-02  0.1657E+05
   -1.581256    6.44103  0.3608E-12  0.1832E-04  0.3723E-07  0.2076E-02  0.4844E-02  0.6100E+05
   -1.650008    6.44150  0.3608E-12  0.1801E-04  0.3576E-07  0.2119E-02  0.4428E-02  0.3390E+04
   -1.718760    6.44194  0.3608E-12  0.1766E-04  0.3441E-07  0.2124E-02  0.4017E-02  0.2201E+04
   -1.787512    6.44236  0.3608E-12  0.1727E-04  0.3308E-07  0.2187E-02  0.3604E-02  0.1363E+03
   -1.856263    6.44276  0.3608E-12  0.1683E-04  0.3182E-07  0.2201E-02  0.3237E-02  0.9066E+01
   -1.925014    6.44315  0.3608E-12  0.1636E-04  0.3063E-07  0.2215E-02  0.2905E-02  0.4325E+01
   -1.993765    6.44353  0.3608E-12  0.1587E-04  0.2957E-07  0.2212E-02  0.2607E-02  0.5594E+01
   -2.062516    6.44390  0.3608E-12  0.1538E-04  0.2871E-07  0.2179E-02  0.2336E-02  0.3648E+01
   -2.131267    6.44427  0.3608E-12  0.1489E-04  0.2811E-07  0.2117E-02  0.2083E-02  0.2490E+01
   -2.200017    6.44465  0.3608E-12  0.1443E-04  0.2779E-07  0.2026E-02  0.1846E-02  0.4320E+02
   -2.268766    6.44503  0.3608E-12  0.1398E-04  0.2781E-07  0.1920E-02  0.1622E-02  0.1535E+02
   -2.337515    6.44543  0.3608E-12  0.1353E-04  0.2828E-07  0.1769E-02  0.1419E-02  0.8411E+03
   -2.406264    6.44587  0.3608E-12  0.1309E-04  0.2936E-07  0.1466E-02  0.1237E-02  0.1168E+03
   -2.475012    6.44640  0.3608E-12  0.1262E-04  0.3150E-07  0.1085E-02  0.1075E-02  0.5867E+03
   -2.543760    6.44710  0.3608E-12  0.1204E-04  0.3603E-07  0.7232E-03  0.9195E-03  0.3532E+03
   -2.612507    6.44810  0.3608E-12  0.1116E-04  0.4796E-07  0.3849E-03  0.7561E-03  0.5823E+02
   -2.681253    6.44985  0.3608E-12  0.6708E-05  0.1686E-06  0.3360E-04  0.5771E-03 -0.2406E+05
   -2.749999    6.46939  0.3608E-12  0.0000E+00  0.0000E+00  0.0000E+00  0.5760E-03  0.0000E+00
