 1 - depth, m
 2 - temperature, C
 3 - salinity, kg/kg
 4 - turbulent kinetic energy, m**2/s**2
 5 - dissipation rate, m**2/s**3
 6 - kinematic heat conductance, m**2/s
 7 - modulus of horizontal velocity, m/s
 8 - Richardson number, n/d
   -0.000000   -0.00000  0.1342E-11  0.1219E-13  0.7603E-17  0.1000E-09  0.0000E+00  0.8144E+16
   -0.068746    0.12424  0.7472E-12  0.1219E-13  0.7603E-17  0.1000E-09  0.0000E+00  0.7795E+16
   -0.137492    0.24728  0.4780E-12  0.1219E-13  0.7603E-17  0.1000E-09  0.0000E+00  0.7480E+16
   -0.206239    0.36953  0.3950E-12  0.1219E-13  0.7603E-17  0.1000E-09  0.0000E+00  0.7194E+16
   -0.274986    0.49140  0.3757E-12  0.1219E-13  0.7603E-17  0.1000E-09  0.0000E+00  0.6932E+16
   -0.343735    0.61326  0.3721E-12  0.1219E-13  0.7603E-17  0.1000E-09  0.0000E+00  0.6691E+16
   -0.412483    0.73546  0.3715E-12  0.1219E-13  0.7603E-17  0.1000E-09  0.0000E+00  0.6467E+16
   -0.481232    0.85837  0.3714E-12  0.1219E-13  0.7603E-17  0.1000E-09  0.0000E+00  0.6256E+16
   -0.549982    0.98231  0.3714E-12  0.1219E-13  0.7603E-17  0.1000E-09  0.0000E+00  0.6055E+16
   -0.618732    1.10761  0.3714E-12  0.1219E-13  0.7603E-17  0.1000E-09  0.0000E+00  0.5859E+16
   -0.687482    1.23455  0.3714E-12  0.1219E-13  0.7603E-17  0.1000E-09  0.0000E+00  0.5678E+16
   -0.756233    1.36369  0.3714E-12  0.1571E-13  0.7603E-17  0.1000E-09  0.0000E+00  0.5499E+16
   -0.824984    1.49545  0.3714E-12  0.6013E-13  0.8649E-17  0.1000E-09  0.0000E+00  0.5312E+16
   -0.893735    1.63001  0.3713E-12  0.1573E-12  0.1559E-16  0.1000E-09  0.0000E+00  0.5112E+16
   -0.962486    1.76752  0.3713E-12  0.3485E-12  0.3130E-16  0.1000E-09  0.0000E+00  0.4897E+16
   -1.031238    1.90808  0.3710E-12  0.7272E-12  0.6264E-16  0.1000E-09  0.0000E+00  0.4663E+16
   -1.099990    2.05172  0.3705E-12  0.1478E-11  0.1237E-15  0.1000E-09  0.0000E+00  0.4407E+16
   -1.168742    2.19844  0.3695E-12  0.2959E-11  0.2413E-15  0.1000E-09  0.0000E+00  0.4129E+16
   -1.237494    2.34814  0.3678E-12  0.5854E-11  0.4657E-15  0.1000E-09  0.0000E+00  0.3826E+16
   -1.306246    2.50066  0.3655E-12  0.1146E-10  0.8903E-15  0.1000E-09  0.0000E+00  0.3499E+16
   -1.374998    2.65578  0.3631E-12  0.2223E-10  0.1687E-14  0.1000E-09  0.0000E+00  0.3153E+16
   -1.443751    2.81343  0.3611E-12  0.4275E-10  0.3174E-14  0.1000E-09  0.0000E+00  0.2786E+16
   -1.512503    2.97337  0.3599E-12  0.8159E-10  0.5932E-14  0.1000E-09  0.0000E+00  0.2401E+16
   -1.581255    3.13541  0.3593E-12  0.1547E-09  0.1103E-13  0.1000E-09  0.0000E+00  0.2001E+16
   -1.650007    3.29957  0.3590E-12  0.2918E-09  0.2043E-13  0.1001E-09  0.0000E+00  0.1589E+16
   -1.718759    3.46604  0.3588E-12  0.5482E-09  0.3775E-13  0.1654E-09  0.0000E+00  0.1159E+16
   -1.787510    3.63457  0.3585E-12  0.1048E-08  0.7110E-13  0.5070E-09  0.0000E+00  0.7111E+15
   -1.856262    3.80391  0.3584E-12  0.2036E-08  0.1363E-12  0.2753E-08  0.0000E+00  0.2520E+15
   -1.925013    3.96262  0.3583E-12  0.3168E-08  0.2162E-12  0.4220E-05  0.0000E+00  0.8614E+13
   -1.993764    3.99467  0.3583E-12  0.3682E-08  0.2567E-12  0.1757E-04  0.0000E+00 -0.1263E+12
   -2.062515    3.99589  0.3583E-12  0.4001E-08  0.2873E-12  0.1976E-04  0.0000E+00 -0.1403E+12
   -2.131265    3.99696  0.3583E-12  0.4287E-08  0.3212E-12  0.2103E-04  0.0000E+00 -0.1562E+12
   -2.200015    3.99799  0.3583E-12  0.4541E-08  0.3594E-12  0.2150E-04  0.0000E+00 -0.1766E+12
   -2.268765    3.99902  0.3583E-12  0.4761E-08  0.4041E-12  0.2116E-04  0.0000E+00 -0.2042E+12
   -2.337514    4.00009  0.3583E-12  0.4952E-08  0.4607E-12  0.1994E-04  0.0000E+00 -0.2453E+12
   -2.406262    4.00125  0.3583E-12  0.5105E-08  0.5375E-12  0.1781E-04  0.0000E+00 -0.3120E+12
   -2.475010    4.00259  0.3583E-12  0.5207E-08  0.6534E-12  0.1468E-04  0.0000E+00 -0.4363E+12
   -2.543758    4.00428  0.3583E-12  0.5220E-08  0.8592E-12  0.1050E-04  0.0000E+00 -0.7268E+12
   -2.612505    4.00677  0.3583E-12  0.5038E-08  0.1360E-11  0.5492E-05  0.0000E+00 -0.1827E+13
   -2.681251    4.01192  0.3583E-12  0.4130E-08  0.3950E-11  0.1061E-05  0.0000E+00 -0.1976E+14
   -2.749997    4.04276  0.3583E-12  0.0000E+00  0.0000E+00  0.0000E+00  0.0000E+00  0.0000E+00
