 1 - depth, m
 2 - temperature, C
 3 - salinity, kg/kg
 4 - turbulent kinetic energy, m**2/s**2
 5 - dissipation rate, m**2/s**3
 6 - kinematic heat conductance, m**2/s
 7 - modulus of horizontal velocity, m/s
 8 - Richardson number, n/d
   -0.000000   -0.00000  0.1442E-11  0.1219E-13  0.7603E-17  0.1000E-09  0.0000E+00  0.7022E+16
   -0.068746    0.10687  0.6742E-12  0.1219E-13  0.7603E-17  0.1000E-09  0.0000E+00  0.6717E+16
   -0.137492    0.21213  0.4306E-12  0.1219E-13  0.7603E-17  0.1000E-09  0.0000E+00  0.6457E+16
   -0.206239    0.31633  0.3805E-12  0.1219E-13  0.7603E-17  0.1000E-09  0.0000E+00  0.6234E+16
   -0.274986    0.42001  0.3726E-12  0.1219E-13  0.7603E-17  0.1000E-09  0.0000E+00  0.6044E+16
   -0.343735    0.52367  0.3715E-12  0.1219E-13  0.7603E-17  0.1000E-09  0.0000E+00  0.5882E+16
   -0.412483    0.62783  0.3714E-12  0.1219E-13  0.7603E-17  0.1000E-09  0.0000E+00  0.5746E+16
   -0.481232    0.73298  0.3714E-12  0.1219E-13  0.7603E-17  0.1000E-09  0.0000E+00  0.5632E+16
   -0.549982    0.83964  0.3714E-12  0.1219E-13  0.7603E-17  0.1000E-09  0.0000E+00  0.5536E+16
   -0.618732    0.94833  0.3714E-12  0.1219E-13  0.7603E-17  0.1000E-09  0.0000E+00  0.5454E+16
   -0.687482    1.05957  0.3714E-12  0.1219E-13  0.7603E-17  0.1000E-09  0.0000E+00  0.5398E+16
   -0.756233    1.17420  0.3714E-12  0.1219E-13  0.7603E-17  0.1000E-09  0.0000E+00  0.5353E+16
   -0.824984    1.29293  0.3714E-12  0.1219E-13  0.7603E-17  0.1000E-09  0.0000E+00  0.5303E+16
   -0.893735    1.41620  0.3714E-12  0.2602E-13  0.7603E-17  0.1000E-09  0.0000E+00  0.5241E+16
   -0.962486    1.54442  0.3713E-12  0.8730E-13  0.1280E-16  0.1000E-09  0.0000E+00  0.5162E+16
   -1.031238    1.67795  0.3712E-12  0.2284E-12  0.2913E-16  0.1000E-09  0.0000E+00  0.5058E+16
   -1.099990    1.81708  0.3709E-12  0.5525E-12  0.6759E-16  0.1000E-09  0.0000E+00  0.4925E+16
   -1.168742    1.96205  0.3701E-12  0.1304E-11  0.1556E-15  0.1000E-09  0.0000E+00  0.4756E+16
   -1.237494    2.11304  0.3686E-12  0.3045E-11  0.3553E-15  0.1000E-09  0.0000E+00  0.4547E+16
   -1.306246    2.27019  0.3662E-12  0.7058E-11  0.8057E-15  0.1000E-09  0.0000E+00  0.4295E+16
   -1.374998    2.43360  0.3634E-12  0.1624E-10  0.1814E-14  0.1000E-09  0.0000E+00  0.4003E+16
   -1.443750    2.60367  0.3611E-12  0.3711E-10  0.4053E-14  0.1000E-09  0.0000E+00  0.3659E+16
   -1.512503    2.78044  0.3597E-12  0.8417E-10  0.8989E-14  0.1000E-09  0.0000E+00  0.3254E+16
   -1.581255    2.96360  0.3593E-12  0.1895E-09  0.1979E-13  0.1000E-09  0.0000E+00  0.2784E+16
   -1.650007    3.15222  0.3590E-12  0.4232E-09  0.4321E-13  0.1054E-09  0.0000E+00  0.2247E+16
   -1.718759    3.34433  0.3588E-12  0.9378E-09  0.9364E-13  0.2880E-09  0.0000E+00  0.1658E+16
   -1.787510    3.53655  0.3586E-12  0.2110E-08  0.2060E-12  0.9890E-09  0.0000E+00  0.1059E+16
   -1.856262    3.72583  0.3584E-12  0.4783E-08  0.4566E-12  0.4770E-08  0.0000E+00  0.4856E+15
   -1.925013    3.90910  0.3583E-12  0.1014E-07  0.9537E-12  0.1310E-06  0.0000E+00  0.4082E+14
   -1.993764    4.01509  0.3583E-12  0.1125E-07  0.1064E-11  0.4906E-04  0.0000E+00 -0.2648E+12
   -2.062515    4.01567  0.3583E-12  0.1172E-07  0.1122E-11  0.4953E-04  0.0000E+00 -0.2693E+12
   -2.131265    4.01625  0.3583E-12  0.1212E-07  0.1185E-11  0.4906E-04  0.0000E+00 -0.2790E+12
   -2.200015    4.01684  0.3583E-12  0.1242E-07  0.1255E-11  0.4766E-04  0.0000E+00 -0.2948E+12
   -2.268764    4.01745  0.3583E-12  0.1265E-07  0.1338E-11  0.4532E-04  0.0000E+00 -0.3195E+12
   -2.337513    4.01810  0.3583E-12  0.1281E-07  0.1443E-11  0.4179E-04  0.0000E+00 -0.3584E+12
   -2.406262    4.01881  0.3583E-12  0.1287E-07  0.1590E-11  0.3690E-04  0.0000E+00 -0.4228E+12
   -2.475010    4.01963  0.3583E-12  0.1282E-07  0.1815E-11  0.3039E-04  0.0000E+00 -0.5410E+12
   -2.543758    4.02066  0.3583E-12  0.1257E-07  0.2220E-11  0.2204E-04  0.0000E+00 -0.8033E+12
   -2.612505    4.02212  0.3583E-12  0.1190E-07  0.3208E-11  0.1189E-04  0.0000E+00 -0.1702E+13
   -2.681251    4.02504  0.3583E-12  0.8919E-08  0.9334E-11  0.1726E-05  0.0000E+00 -0.1884E+14
   -2.749997    4.04882  0.3583E-12  0.0000E+00  0.0000E+00  0.0000E+00  0.0000E+00  0.0000E+00
