 1 - depth, m
 2 - temperature, C
 3 - salinity, kg/kg
 4 - turbulent kinetic energy, m**2/s**2
 5 - dissipation rate, m**2/s**3
 6 - kinematic heat conductance, m**2/s
 7 - modulus of horizontal velocity, m/s
 8 - Richardson number, n/d
   -0.000000   -0.00000  0.3812E-11  0.1219E-13  0.7603E-17  0.1000E-09  0.0000E+00  0.1159E+17
   -0.068746    0.17812  0.1820E-11  0.1219E-13  0.7603E-17  0.1000E-09  0.0000E+00  0.1093E+17
   -0.137492    0.35463  0.9112E-12  0.1219E-13  0.7603E-17  0.1000E-09  0.0000E+00  0.1027E+17
   -0.206239    0.52917  0.6292E-12  0.1219E-13  0.7603E-17  0.1000E-09  0.0000E+00  0.9604E+16
   -0.274986    0.70133  0.5650E-12  0.1219E-13  0.7603E-17  0.1000E-09  0.0000E+00  0.8945E+16
   -0.343735    0.87071  0.5536E-12  0.1219E-13  0.7603E-17  0.1000E-09  0.0000E+00  0.8293E+16
   -0.412483    1.03690  0.5519E-12  0.1219E-13  0.7603E-17  0.1000E-09  0.0000E+00  0.7654E+16
   -0.481232    1.19953  0.5517E-12  0.1219E-13  0.7603E-17  0.1000E-09  0.0000E+00  0.7032E+16
   -0.549982    1.35823  0.5517E-12  0.1219E-13  0.7603E-17  0.1000E-09  0.0000E+00  0.6431E+16
   -0.618732    1.51268  0.5517E-12  0.1219E-13  0.7603E-17  0.1000E-09  0.0000E+00  0.5854E+16
   -0.687482    1.66258  0.5517E-12  0.1219E-13  0.7603E-17  0.1000E-09  0.0000E+00  0.5308E+16
   -0.756233    1.80775  0.5517E-12  0.1219E-13  0.7603E-17  0.1000E-09  0.0000E+00  0.4792E+16
   -0.824984    1.94801  0.5517E-12  0.1219E-13  0.7603E-17  0.1000E-09  0.0000E+00  0.4306E+16
   -0.893735    2.08315  0.5517E-12  0.1219E-13  0.7603E-17  0.1000E-09  0.0000E+00  0.3851E+16
   -0.962486    2.21299  0.5517E-12  0.1219E-13  0.7603E-17  0.1000E-09  0.0000E+00  0.3426E+16
   -1.031238    2.33736  0.5517E-12  0.1219E-13  0.7603E-17  0.1000E-09  0.0000E+00  0.3034E+16
   -1.099990    2.45615  0.5517E-12  0.1219E-13  0.7603E-17  0.1000E-09  0.0000E+00  0.2673E+16
   -1.168742    2.56924  0.5517E-12  0.1219E-13  0.7603E-17  0.1000E-09  0.0000E+00  0.2343E+16
   -1.237494    2.67658  0.5517E-12  0.1219E-13  0.7603E-17  0.1000E-09  0.0000E+00  0.2043E+16
   -1.306246    2.77810  0.5517E-12  0.1219E-13  0.7603E-17  0.1000E-09  0.0000E+00  0.1772E+16
   -1.374998    2.87380  0.5517E-12  0.1219E-13  0.7603E-17  0.1000E-09  0.0000E+00  0.1533E+16
   -1.443751    2.96394  0.5517E-12  0.1219E-13  0.7603E-17  0.1000E-09  0.0000E+00  0.1321E+16
   -1.512503    3.04862  0.5517E-12  0.1219E-13  0.7603E-17  0.1000E-09  0.0000E+00  0.1131E+16
   -1.581255    3.12791  0.5517E-12  0.1219E-13  0.7603E-17  0.1000E-09  0.0000E+00  0.9641E+15
   -1.650007    3.20186  0.5517E-12  0.1219E-13  0.7603E-17  0.1000E-09  0.0000E+00  0.8169E+15
   -1.718759    3.27057  0.5517E-12  0.1219E-13  0.7603E-17  0.1000E-09  0.0000E+00  0.6887E+15
   -1.787510    3.33415  0.5517E-12  0.1219E-13  0.7603E-17  0.1000E-09  0.0000E+00  0.5826E+15
   -1.856262    3.39331  0.5517E-12  0.1219E-13  0.7603E-17  0.1000E-09  0.0000E+00  0.4872E+15
   -1.925013    3.44780  0.5517E-12  0.1219E-13  0.7603E-17  0.1000E-09  0.0000E+00  0.4016E+15
   -1.993764    3.49729  0.5517E-12  0.1219E-13  0.7603E-17  0.1000E-09  0.0000E+00  0.3260E+15
   -2.062515    3.54153  0.5517E-12  0.1219E-13  0.7603E-17  0.1000E-09  0.0000E+00  0.2791E+15
   -2.131265    3.58328  0.5517E-12  0.1219E-13  0.7603E-17  0.1000E-09  0.0000E+00  0.2405E+15
   -2.200015    3.62311  0.5517E-12  0.1219E-13  0.7603E-17  0.1000E-09  0.0000E+00  0.2067E+15
   -2.268765    3.66124  0.5517E-12  0.1219E-13  0.7603E-17  0.1000E-09  0.0000E+00  0.1817E+15
   -2.337514    3.69893  0.5517E-12  0.1219E-13  0.7603E-17  0.1000E-09  0.0000E+00  0.1616E+15
   -2.406262    3.73722  0.5517E-12  0.4689E-13  0.2581E-16  0.1000E-09  0.0000E+00  0.1445E+15
   -2.475010    3.77734  0.5517E-12  0.2651E-12  0.1433E-15  0.1000E-09  0.0000E+00  0.1292E+15
   -2.543758    3.82132  0.5517E-12  0.1542E-11  0.8271E-15  0.1000E-09  0.0000E+00  0.1121E+15
   -2.612505    3.87258  0.5517E-12  0.9393E-11  0.5023E-14  0.2619E-09  0.0000E+00  0.8534E+14
   -2.681251    3.94102  0.5517E-12  0.6422E-10  0.3466E-13  0.4791E-07  0.0000E+00 -0.8298E+13
   -2.749997    4.04215  0.5517E-12  0.0000E+00  0.0000E+00  0.0000E+00  0.0000E+00  0.0000E+00
