 1 - depth, m
 2 - temperature, C
 3 - salinity, kg/kg
 4 - turbulent kinetic energy, m**2/s**2
 5 - dissipation rate, m**2/s**3
 6 - kinematic heat conductance, m**2/s
 7 - modulus of horizontal velocity, m/s
 8 - Richardson number, n/d
   -0.000000   -0.00000  0.1955E-11  0.1219E-13  0.7603E-17  0.1000E-09  0.0000E+00  0.1043E+17
   -0.068746    0.15986  0.1003E-11  0.1219E-13  0.7603E-17  0.1000E-09  0.0000E+00  0.9898E+16
   -0.137492    0.31846  0.6590E-12  0.1219E-13  0.7603E-17  0.1000E-09  0.0000E+00  0.9375E+16
   -0.206239    0.47571  0.5370E-12  0.1219E-13  0.7603E-17  0.1000E-09  0.0000E+00  0.8861E+16
   -0.274987    0.63154  0.4998E-12  0.1219E-13  0.7603E-17  0.1000E-09  0.0000E+00  0.8358E+16
   -0.343735    0.78588  0.4899E-12  0.1219E-13  0.7603E-17  0.1000E-09  0.0000E+00  0.7867E+16
   -0.412483    0.93868  0.4868E-12  0.1219E-13  0.7603E-17  0.1000E-09  0.0000E+00  0.7388E+16
   -0.481232    1.08991  0.4846E-12  0.1219E-13  0.7603E-17  0.1000E-09  0.0000E+00  0.6921E+16
   -0.549982    1.23952  0.4820E-12  0.1219E-13  0.7603E-17  0.1000E-09  0.0000E+00  0.6467E+16
   -0.618732    1.38744  0.4783E-12  0.1219E-13  0.7603E-17  0.1000E-09  0.0000E+00  0.6025E+16
   -0.687482    1.53364  0.4737E-12  0.1219E-13  0.7603E-17  0.1000E-09  0.0000E+00  0.5602E+16
   -0.756233    1.67821  0.4683E-12  0.1219E-13  0.7603E-17  0.1000E-09  0.0000E+00  0.5193E+16
   -0.824984    1.82118  0.4633E-12  0.1219E-13  0.7603E-17  0.1000E-09  0.0000E+00  0.4794E+16
   -0.893735    1.96246  0.4593E-12  0.1219E-13  0.7603E-17  0.1000E-09  0.0000E+00  0.4405E+16
   -0.962487    2.10194  0.4570E-12  0.1219E-13  0.7603E-17  0.1000E-09  0.0000E+00  0.4027E+16
   -1.031238    2.23948  0.4560E-12  0.1219E-13  0.7603E-17  0.1000E-09  0.0000E+00  0.3660E+16
   -1.099990    2.37495  0.4557E-12  0.3470E-13  0.7603E-17  0.1000E-09  0.0000E+00  0.3305E+16
   -1.168742    2.50820  0.4556E-12  0.1053E-12  0.1229E-16  0.1000E-09  0.0000E+00  0.2962E+16
   -1.237494    2.63906  0.4556E-12  0.2536E-12  0.2544E-16  0.1000E-09  0.0000E+00  0.2632E+16
   -1.306247    2.76735  0.4556E-12  0.5626E-12  0.5362E-16  0.1000E-09  0.0000E+00  0.2316E+16
   -1.374999    2.89290  0.4556E-12  0.1210E-11  0.1119E-15  0.1000E-09  0.0000E+00  0.2015E+16
   -1.443751    3.01550  0.4556E-12  0.2564E-11  0.2310E-15  0.1000E-09  0.0000E+00  0.1730E+16
   -1.512503    3.13496  0.4556E-12  0.5376E-11  0.4726E-15  0.1000E-09  0.0000E+00  0.1461E+16
   -1.581255    3.25104  0.4556E-12  0.1117E-10  0.9583E-15  0.1000E-09  0.0000E+00  0.1209E+16
   -1.650007    3.36351  0.4556E-12  0.2300E-10  0.1927E-14  0.1000E-09  0.0000E+00  0.9760E+15
   -1.718759    3.47212  0.4556E-12  0.4698E-10  0.3845E-14  0.1000E-09  0.0000E+00  0.7619E+15
   -1.787511    3.57665  0.4556E-12  0.9729E-10  0.7775E-14  0.1000E-09  0.0000E+00  0.5634E+15
   -1.856262    3.67599  0.4556E-12  0.2035E-09  0.1589E-13  0.2087E-09  0.0000E+00  0.3874E+15
   -1.925014    3.76941  0.4556E-12  0.4257E-09  0.3247E-13  0.7002E-09  0.0000E+00  0.2360E+15
   -1.993765    3.85591  0.4556E-12  0.8882E-09  0.6626E-13  0.3002E-08  0.0000E+00  0.1123E+15
   -2.062515    3.93446  0.4556E-12  0.1783E-08  0.1304E-12  0.3290E-07  0.0000E+00  0.2014E+14
   -2.131266    3.99735  0.4556E-12  0.2290E-08  0.1688E-12  0.1227E-04  0.0000E+00 -0.1585E+12
   -2.200016    3.99823  0.4556E-12  0.2516E-08  0.1908E-12  0.1272E-04  0.0000E+00 -0.1659E+12
   -2.268765    3.99909  0.4556E-12  0.2696E-08  0.2155E-12  0.1262E-04  0.0000E+00 -0.1820E+12
   -2.337514    3.99997  0.4556E-12  0.2843E-08  0.2462E-12  0.1195E-04  0.0000E+00 -0.2111E+12
   -2.406263    4.00092  0.4556E-12  0.2955E-08  0.2885E-12  0.1066E-04  0.0000E+00 -0.2637E+12
   -2.475011    4.00203  0.4556E-12  0.3027E-08  0.3544E-12  0.8711E-05  0.0000E+00 -0.3706E+12
   -2.543759    4.00347  0.4556E-12  0.3039E-08  0.4772E-12  0.6100E-05  0.0000E+00 -0.6417E+12
   -2.612506    4.00571  0.4556E-12  0.2934E-08  0.7929E-12  0.3094E-05  0.0000E+00 -0.1778E+13
   -2.681252    4.01087  0.4556E-12  0.2558E-08  0.2322E-11  0.7391E-06  0.0000E+00 -0.1881E+14
   -2.749998    4.04114  0.4556E-12  0.0000E+00  0.0000E+00  0.0000E+00  0.0000E+00  0.0000E+00
