 1 - depth, m
 2 - temperature, C
 3 - salinity, kg/kg
 4 - turbulent kinetic energy, m**2/s**2
 5 - dissipation rate, m**2/s**3
 6 - kinematic heat conductance, m**2/s
 7 - modulus of horizontal velocity, m/s
 8 - Richardson number, n/d
   -0.000000   -0.00000  0.1146E-11  0.6182E-12  0.1350E-15  0.1000E-09  0.4010E-50  0.8394E+16
   -0.068746    0.12812  0.8346E-12  0.1480E-11  0.1864E-15  0.1000E-09  0.3664E-50  0.8110E+16
   -0.137492    0.25637  0.8040E-12  0.3550E-11  0.3795E-15  0.1000E-09  0.3299E-50  0.7824E+16
   -0.206239    0.38470  0.7940E-12  0.8091E-11  0.8186E-15  0.1000E-09  0.2884E-50  0.7538E+16
   -0.274987    0.51312  0.7846E-12  0.1796E-10  0.1760E-14  0.1000E-09  0.2458E-50  0.7252E+16
   -0.343735    0.64159  0.7755E-12  0.3928E-10  0.3744E-14  0.1000E-09  0.2060E-50  0.6967E+16
   -0.412483    0.77012  0.7674E-12  0.8492E-10  0.7885E-14  0.1000E-09  0.1706E-50  0.6682E+16
   -0.481232    0.89870  0.7615E-12  0.1817E-09  0.1645E-13  0.1000E-09  0.1402E-50  0.6397E+16
   -0.549982    1.02732  0.7575E-12  0.3852E-09  0.3398E-13  0.1000E-09  0.1144E-50  0.6110E+16
   -0.618732    1.15590  0.7557E-12  0.8085E-09  0.6955E-13  0.1000E-09  0.9271E-51  0.5818E+16
   -0.687482    1.28429  0.7551E-12  0.1681E-08  0.1411E-12  0.1297E-09  0.7455E-51  0.5539E+16
   -0.756233    1.41275  0.7548E-12  0.3464E-08  0.2835E-12  0.2752E-09  0.5938E-51  0.5246E+16
   -0.824984    1.54091  0.7545E-12  0.7071E-08  0.5648E-12  0.5857E-09  0.4675E-51  0.4910E+16
   -0.893735    1.66754  0.7541E-12  0.1430E-07  0.1115E-11  0.1257E-08  0.3624E-51  0.4516E+16
   -0.962486    1.79071  0.7533E-12  0.2863E-07  0.2180E-11  0.2743E-08  0.2750E-51  0.4047E+16
   -1.031238    1.90752  0.7517E-12  0.5668E-07  0.4216E-11  0.6169E-08  0.2018E-51  0.3482E+16
   -1.099990    2.01374  0.7482E-12  0.1106E-06  0.8044E-11  0.1468E-07  0.1400E-51  0.2792E+16
   -1.168742    2.10340  0.7423E-12  0.2104E-06  0.1500E-10  0.3945E-07  0.8693E-52  0.1938E+16
   -1.237494    2.16833  0.7382E-12  0.3743E-06  0.2633E-10  0.1516E-06  0.4145E-52  0.8870E+15
   -1.306246    2.19887  0.7370E-12  0.4413E-06  0.3120E-10  0.3555E-05  0.6715E-53  0.4619E+14
   -1.374999    2.20048  0.7370E-12  0.4438E-06  0.3138E-10  0.4157E-03  0.8399E-54  0.1697E+12
   -1.443751    2.20048  0.7370E-12  0.4446E-06  0.3145E-10  0.2076E-02  0.7333E-54 -0.1159E+11
   -1.512503    2.20048  0.7370E-12  0.4452E-06  0.3151E-10  0.1992E-02  0.6962E-54 -0.5972E+11
   -1.581255    2.20048  0.7370E-12  0.4459E-06  0.3158E-10  0.1964E-02  0.6584E-54 -0.1091E+12
   -1.650007    2.20048  0.7370E-12  0.4467E-06  0.3166E-10  0.1953E-02  0.6176E-54 -0.1588E+12
   -1.718759    2.20047  0.7370E-12  0.4474E-06  0.3174E-10  0.1948E-02  0.5778E-54 -0.2068E+12
   -1.787511    2.20046  0.7370E-12  0.4481E-06  0.3182E-10  0.1946E-02  0.5359E-54 -0.2173E+12
   -1.856262    2.20046  0.7370E-12  0.4487E-06  0.3191E-10  0.1945E-02  0.4981E-54 -0.2243E+12
   -1.925013    2.20045  0.7370E-12  0.4493E-06  0.3201E-10  0.1944E-02  0.4614E-54 -0.2273E+12
   -1.993764    2.20044  0.7370E-12  0.4499E-06  0.3212E-10  0.1942E-02  0.4288E-54 -0.2346E+12
   -2.062515    2.20043  0.7370E-12  0.4504E-06  0.3223E-10  0.1938E-02  0.3971E-54 -0.2555E+12
   -2.131265    2.20042  0.7370E-12  0.4508E-06  0.3235E-10  0.1933E-02  0.3681E-54 -0.2755E+12
   -2.200015    2.20041  0.7370E-12  0.4511E-06  0.3247E-10  0.1928E-02  0.3391E-54 -0.2948E+12
   -2.268765    2.20040  0.7370E-12  0.4513E-06  0.3259E-10  0.1922E-02  0.3126E-54 -0.2971E+12
   -2.337514    2.20039  0.7370E-12  0.4513E-06  0.3273E-10  0.1915E-02  0.2870E-54 -0.2855E+12
   -2.406263    2.20038  0.7370E-12  0.4512E-06  0.3288E-10  0.1908E-02  0.2647E-54 -0.2561E+12
   -2.475011    2.20038  0.7370E-12  0.4509E-06  0.3307E-10  0.1902E-02  0.2443E-54 -0.1955E+12
   -2.543758    2.20037  0.7370E-12  0.4504E-06  0.3332E-10  0.1961E-02  0.2285E-54 -0.7683E+11
   -2.612505    2.20037  0.7370E-12  0.4491E-06  0.3406E-10  0.1237E-06  0.2179E-54  0.1415E+16
   -2.681251    2.25022  0.7369E-12  0.1355E-06  0.2696E-09  0.2124E-06  0.3358E-56  0.6286E+16
   -2.749997    2.49232  0.7369E-12  0.0000E+00  0.0000E+00  0.0000E+00  0.3624E-56  0.0000E+00
