 1 - depth, m
 2 - temperature, C
 3 - salinity, kg/kg
 4 - turbulent kinetic energy, m**2/s**2
 5 - dissipation rate, m**2/s**3
 6 - kinematic heat conductance, m**2/s
 7 - modulus of horizontal velocity, m/s
 8 - Richardson number, n/d
   -0.000000   -0.00000  0.4790E-12  0.6257E-05  0.1550E-06  0.2326E-04  0.2336E-01  0.1185E-01
   -0.068745    0.00831  0.4787E-12  0.5593E-05  0.6467E-07  0.4307E-04  0.1800E-01  0.2625E-01
   -0.137490    0.01252  0.4786E-12  0.4952E-05  0.3816E-07  0.5551E-04  0.1548E-01  0.4227E-01
   -0.206237    0.01558  0.4785E-12  0.4359E-05  0.2561E-07  0.6203E-04  0.1380E-01  0.6043E-01
   -0.274983    0.01816  0.4784E-12  0.3810E-05  0.1833E-07  0.6384E-04  0.1252E-01  0.8173E-01
   -0.343731    0.02053  0.4783E-12  0.3300E-05  0.1359E-07  0.6184E-04  0.1147E-01  0.1076E+00
   -0.412478    0.02285  0.4782E-12  0.2822E-05  0.1028E-07  0.5672E-04  0.1057E-01  0.1403E+00
   -0.481227    0.02524  0.4782E-12  0.2373E-05  0.7857E-08  0.4909E-04  0.9774E-02  0.1831E+00
   -0.549975    0.02788  0.4781E-12  0.1950E-05  0.6019E-08  0.3956E-04  0.9045E-02  0.2418E+00
   -0.618725    0.03102  0.4780E-12  0.1550E-05  0.4594E-08  0.2881E-04  0.8357E-02  0.3261E+00
   -0.687474    0.03515  0.4779E-12  0.1169E-05  0.3476E-08  0.1779E-04  0.7678E-02  0.4531E+00
   -0.756224    0.04171  0.4777E-12  0.7951E-06  0.2593E-08  0.7874E-05  0.6954E-02  0.6360E+00
   -0.824974    0.05744  0.4774E-12  0.3654E-06  0.1616E-08  0.1530E-05  0.6019E-02  0.9597E+00
   -0.893725    0.18997  0.4731E-12  0.4261E-07  0.2133E-09  0.3702E-07  0.4028E-02  0.3061E+01
   -0.962475    0.56060  0.4593E-12  0.1678E-08  0.8703E-11  0.2393E-08  0.1777E-02  0.9221E+01
   -1.031226    0.81091  0.4556E-12  0.5619E-10  0.2844E-12  0.1869E-09  0.7463E-03  0.2470E+02
   -1.099977    0.93734  0.4556E-12  0.2025E-11  0.9667E-14  0.1000E-09  0.3116E-03  0.7273E+02
   -1.168728    1.00408  0.4556E-12  0.9209E-13  0.4262E-15  0.1000E-09  0.1297E-03  0.2927E+03
   -1.237480    1.04967  0.4556E-12  0.1234E-13  0.3690E-16  0.1000E-09  0.5384E-04  0.1717E+04
   -1.306231    1.09379  0.4556E-12  0.1219E-13  0.9765E-17  0.1000E-09  0.2229E-04  0.1261E+05
   -1.374982    1.14733  0.4556E-12  0.1219E-13  0.7604E-17  0.1000E-09  0.9201E-05  0.1039E+06
   -1.443734    1.22043  0.4556E-12  0.1219E-13  0.7604E-17  0.1000E-09  0.3788E-05  0.8564E+06
   -1.512485    1.32063  0.4556E-12  0.1586E-13  0.8885E-17  0.1000E-09  0.1555E-05  0.6826E+07
   -1.581237    1.45435  0.4556E-12  0.5340E-13  0.2614E-16  0.1000E-09  0.6341E-06  0.5119E+08
   -1.649988    1.62761  0.4556E-12  0.2548E-12  0.1166E-15  0.1000E-09  0.2499E-06  0.3120E+09
   -1.718739    1.84557  0.4556E-12  0.1260E-11  0.5515E-15  0.1000E-09  0.7488E-07  0.2207E+10
   -1.787490    2.10780  0.4556E-12  0.6275E-11  0.2628E-14  0.1000E-09  0.4833E-08  0.3692E+12
   -1.856240    2.31946  0.4556E-12  0.3069E-10  0.1230E-13  0.1000E-09  0.2883E-09  0.6855E+14
   -1.924991    2.48203  0.4556E-12  0.1463E-09  0.5607E-13  0.1321E-09  0.1577E-10  0.2712E+16
   -1.993741    2.60075  0.4556E-12  0.6785E-09  0.2492E-12  0.4385E-09  0.9366E-12  0.2440E+16
   -2.062491    2.71966  0.4556E-12  0.2977E-08  0.1050E-11  0.1172E-08  0.7140E-13  0.4197E+16
   -2.131240    2.95943  0.4556E-12  0.1252E-07  0.4254E-11  0.5175E-08  0.5117E-14  0.5092E+16
   -2.199990    3.39793  0.4556E-12  0.3299E-07  0.1129E-10  0.7091E-05  0.3151E-15  0.3054E+16
   -2.268738    3.89441  0.4556E-12  0.4884E-07  0.1726E-10  0.4029E-04  0.2327E-16  0.4825E+15
   -2.337487    4.09586  0.4556E-12  0.5511E-07  0.2006E-10  0.6099E-04  0.9095E-17 -0.3838E+13
   -2.406234    4.09815  0.4556E-12  0.5807E-07  0.2224E-10  0.5948E-04  0.3946E-17 -0.4138E+13
   -2.474982    4.10056  0.4556E-12  0.5994E-07  0.2515E-10  0.5371E-04  0.1589E-17 -0.4847E+13
   -2.543728    4.10331  0.4556E-12  0.6049E-07  0.2988E-10  0.4276E-04  0.5709E-18 -0.6543E+13
   -2.612474    4.10692  0.4556E-12  0.5865E-07  0.4053E-10  0.2616E-04  0.1627E-18 -0.1203E+14
   -2.681220    4.11328  0.4556E-12  0.4384E-07  0.1110E-09  0.3848E-05  0.2763E-19 -0.1207E+15
   -2.749965    4.16453  0.4556E-12  0.0000E+00  0.0000E+00  0.0000E+00  0.2813E-19  0.0000E+00
