 1 - depth, m
 2 - temperature, C
 3 - salinity, kg/kg
 4 - turbulent kinetic energy, m**2/s**2
 5 - dissipation rate, m**2/s**3
 6 - kinematic heat conductance, m**2/s
 7 - modulus of horizontal velocity, m/s
 8 - Richardson number, n/d
   -0.000000   -0.00000  0.1612E-11  0.1219E-13  0.7603E-17  0.1000E-09  0.1052E-78  0.6057E+16
   -0.068746    0.09199  0.5059E-12  0.1219E-13  0.7603E-17  0.1000E-09  0.8330E-79  0.5693E+16
   -0.137492    0.18063  0.4981E-12  0.1219E-13  0.7603E-17  0.1000E-09  0.6787E-79  0.5355E+16
   -0.206239    0.26606  0.4893E-12  0.1219E-13  0.7603E-17  0.1000E-09  0.5667E-79  0.5050E+16
   -0.274986    0.34857  0.4893E-12  0.1219E-13  0.7603E-17  0.1000E-09  0.4781E-79  0.4792E+16
   -0.343734    0.42875  0.4893E-12  0.1219E-13  0.7603E-17  0.1000E-09  0.4028E-79  0.4597E+16
   -0.412483    0.50752  0.4891E-12  0.1219E-13  0.7603E-17  0.1000E-09  0.3368E-79  0.4481E+16
   -0.481232    0.58616  0.4883E-12  0.1219E-13  0.7603E-17  0.1000E-09  0.2790E-79  0.4453E+16
   -0.549981    0.66626  0.4868E-12  0.1219E-13  0.7603E-17  0.1000E-09  0.2290E-79  0.4518E+16
   -0.618731    0.74967  0.4856E-12  0.3366E-13  0.7603E-17  0.1000E-09  0.1864E-79  0.4674E+16
   -0.687481    0.83843  0.4842E-12  0.1036E-12  0.1423E-16  0.1000E-09  0.1507E-79  0.4943E+16
   -0.756232    0.93525  0.4811E-12  0.2640E-12  0.3243E-16  0.1000E-09  0.1210E-79  0.5292E+16
   -0.824983    1.04263  0.4750E-12  0.6306E-12  0.7422E-16  0.1000E-09  0.9649E-80  0.5676E+16
   -0.893734    1.16255  0.4651E-12  0.1468E-11  0.1677E-15  0.1000E-09  0.7647E-80  0.6061E+16
   -0.962486    1.29680  0.4558E-12  0.3371E-11  0.3744E-15  0.1000E-09  0.6021E-80  0.6409E+16
   -1.031237    1.44684  0.4548E-12  0.7647E-11  0.8270E-15  0.1000E-09  0.4710E-80  0.6678E+16
   -1.099989    1.61366  0.4558E-12  0.1717E-10  0.1808E-14  0.1000E-09  0.3659E-80  0.6824E+16
   -1.168741    1.79779  0.4556E-12  0.3813E-10  0.3912E-14  0.1000E-09  0.2822E-80  0.6809E+16
   -1.237493    1.99910  0.4556E-12  0.8387E-10  0.8384E-14  0.1000E-09  0.2158E-80  0.6605E+16
   -1.306245    2.21690  0.4556E-12  0.1826E-09  0.1780E-13  0.1000E-09  0.1634E-80  0.6194E+16
   -1.374997    2.44984  0.4556E-12  0.3939E-09  0.3742E-13  0.1000E-09  0.1221E-80  0.5586E+16
   -1.443749    2.69654  0.4556E-12  0.8417E-09  0.7797E-13  0.1000E-09  0.8949E-81  0.4784E+16
   -1.512501    2.95480  0.4556E-12  0.1782E-08  0.1610E-12  0.2152E-09  0.6354E-81  0.3808E+16
   -1.581254    3.22163  0.4556E-12  0.3737E-08  0.3295E-12  0.6200E-09  0.4252E-81  0.2705E+16
   -1.650005    3.49348  0.4556E-12  0.7758E-08  0.6679E-12  0.2225E-08  0.2493E-81  0.1528E+16
   -1.718757    3.76505  0.4556E-12  0.1582E-07  0.1332E-11  0.1784E-07  0.9448E-82  0.3799E+15
   -1.787509    4.01009  0.4556E-12  0.1675E-07  0.1414E-11  0.7671E-04  0.3307E-83 -0.1928E+12
   -1.856260    4.01060  0.4556E-12  0.1717E-07  0.1460E-11  0.8227E-04  0.1827E-83 -0.1871E+12
   -1.925011    4.01109  0.4556E-12  0.1752E-07  0.1508E-11  0.8249E-04  0.1027E-83 -0.1949E+12
   -1.993762    4.01159  0.4556E-12  0.1782E-07  0.1560E-11  0.8256E-04  0.6197E-84 -0.2034E+12
   -2.062513    4.01209  0.4556E-12  0.1807E-07  0.1619E-11  0.8172E-04  0.3952E-84 -0.2105E+12
   -2.131263    4.01261  0.4556E-12  0.1828E-07  0.1690E-11  0.8017E-04  0.2443E-84 -0.2194E+12
   -2.200013    4.01314  0.4556E-12  0.1845E-07  0.1778E-11  0.7503E-04  0.1419E-84 -0.2401E+12
   -2.268763    4.01370  0.4556E-12  0.1856E-07  0.1889E-11  0.6714E-04  0.7233E-85 -0.2760E+12
   -2.337512    4.01434  0.4556E-12  0.1859E-07  0.2039E-11  0.5903E-04  0.3356E-85 -0.3247E+12
   -2.406260    4.01507  0.4556E-12  0.1854E-07  0.2252E-11  0.5061E-04  0.1405E-85 -0.3948E+12
   -2.475008    4.01593  0.4556E-12  0.1834E-07  0.2588E-11  0.4084E-04  0.5128E-86 -0.5166E+12
   -2.543756    4.01703  0.4556E-12  0.1791E-07  0.3197E-11  0.2906E-04  0.1548E-86 -0.7847E+12
   -2.612503    4.01862  0.4556E-12  0.1692E-07  0.4699E-11  0.1538E-04  0.3236E-87 -0.1708E+13
   -2.681249    4.02183  0.4556E-12  0.1237E-07  0.1488E-10  0.1984E-05  0.3146E-88 -0.2320E+14
   -2.749994    4.05131  0.4556E-12  0.0000E+00  0.0000E+00  0.0000E+00  0.3321E-88  0.0000E+00
