 1 - depth, m
 2 - temperature, C
 3 - salinity, kg/kg
 4 - turbulent kinetic energy, m**2/s**2
 5 - dissipation rate, m**2/s**3
 6 - kinematic heat conductance, m**2/s
 7 - modulus of horizontal velocity, m/s
 8 - Richardson number, n/d
   -0.000000   -0.00000  0.6219E-12  0.1361E-08  0.7384E-11  0.7115E-08  0.5026E-03  0.7585E+14
   -0.068745    0.06632  0.4951E-12  0.4301E-08  0.1368E-11  0.3226E-08  0.2748E-03  0.1901E+14
   -0.137490    0.09158  0.4938E-12  0.1188E-07  0.1220E-11  0.1212E-07  0.1479E-03  0.6252E+13
   -0.206236    0.09877  0.4906E-12  0.1297E-07  0.1337E-11  0.4794E-04  0.7901E-04 -0.2934E+11
   -0.274982    0.09998  0.4899E-12  0.1350E-07  0.1476E-11  0.8773E-04  0.4226E-04 -0.7698E+11
   -0.343729    0.10061  0.4894E-12  0.1350E-07  0.1476E-11  0.8780E-04  0.2275E-04 -0.7766E+11
   -0.412476    0.10103  0.4891E-12  0.1295E-07  0.1323E-11  0.5257E-04  0.1237E-04 -0.3361E+11
   -0.481224    0.10165  0.4887E-12  0.1186E-07  0.1143E-11  0.1749E-07  0.6790E-05  0.3913E+13
   -0.549973    0.10638  0.4872E-12  0.5259E-08  0.5096E-12  0.2280E-08  0.3744E-05  0.1406E+14
   -0.618722    0.12127  0.4865E-12  0.2257E-08  0.2219E-12  0.5297E-09  0.2088E-05  0.3467E+14
   -0.687471    0.15274  0.4859E-12  0.9506E-09  0.9527E-13  0.1766E-09  0.1179E-05  0.7778E+14
   -0.756220    0.20920  0.4849E-12  0.3929E-09  0.4030E-13  0.1025E-09  0.6739E-06  0.1654E+15
   -0.824970    0.29706  0.4828E-12  0.1592E-09  0.1676E-13  0.1000E-09  0.3891E-06  0.3077E+15
   -0.893720    0.41627  0.4774E-12  0.6319E-10  0.6848E-14  0.1000E-09  0.2265E-06  0.4806E+15
   -0.962471    0.55859  0.4614E-12  0.2454E-10  0.2744E-14  0.1000E-09  0.1326E-06  0.6577E+15
   -1.031221    0.71014  0.4547E-12  0.9319E-11  0.1080E-14  0.1000E-09  0.7787E-07  0.8172E+15
   -1.099972    0.85712  0.4557E-12  0.3458E-11  0.4203E-15  0.1000E-09  0.4571E-07  0.9570E+15
   -1.168723    0.99103  0.4556E-12  0.1274E-11  0.1729E-15  0.1000E-09  0.2674E-07  0.1103E+16
   -1.237474    1.11077  0.4556E-12  0.5886E-12  0.1144E-15  0.1000E-09  0.1555E-07  0.1314E+16
   -1.306225    1.22155  0.4556E-12  0.7860E-12  0.2208E-15  0.1000E-09  0.8975E-08  0.1687E+16
   -1.374976    1.33211  0.4556E-12  0.2463E-11  0.7162E-15  0.1000E-09  0.5127E-08  0.2381E+16
   -1.443727    1.45512  0.4556E-12  0.8803E-11  0.2485E-14  0.1000E-09  0.2894E-08  0.3142E+16
   -1.512478    1.60048  0.4556E-12  0.3127E-10  0.8532E-14  0.1000E-09  0.1608E-08  0.3747E+16
   -1.581229    1.77589  0.4556E-12  0.1092E-09  0.2879E-13  0.1000E-09  0.8684E-09  0.4337E+16
   -1.649980    1.98817  0.4556E-12  0.3742E-09  0.9546E-13  0.1009E-09  0.4325E-09  0.4817E+16
   -1.718731    2.24457  0.4556E-12  0.1260E-08  0.3111E-12  0.2097E-09  0.1506E-09  0.5315E+16
   -1.787481    2.55434  0.4556E-12  0.4297E-08  0.1027E-11  0.7333E-09  0.9993E-11  0.6425E+16
   -1.856232    2.90596  0.4556E-12  0.1458E-07  0.3380E-11  0.2986E-08  0.6118E-12  0.5840E+16
   -1.924982    3.34972  0.4556E-12  0.4732E-07  0.1068E-10  0.3810E-07  0.3431E-13  0.3022E+16
   -1.993732    3.87912  0.4556E-12  0.6750E-07  0.1531E-10  0.7099E-04  0.2088E-14  0.4532E+15
   -2.062481    4.07998  0.4556E-12  0.7057E-07  0.1613E-10  0.1203E-03  0.7502E-16 -0.1436E+13
   -2.131230    4.08097  0.4556E-12  0.7226E-07  0.1676E-10  0.1195E-03  0.4629E-16 -0.1495E+13
   -2.199979    4.08199  0.4556E-12  0.7359E-07  0.1747E-10  0.1188E-03  0.2947E-16 -0.1552E+13
   -2.268728    4.08303  0.4556E-12  0.7458E-07  0.1830E-10  0.1164E-03  0.1758E-16 -0.1631E+13
   -2.337476    4.08411  0.4556E-12  0.7523E-07  0.1936E-10  0.1122E-03  0.1003E-16 -0.1746E+13
   -2.406223    4.08526  0.4556E-12  0.7551E-07  0.2079E-10  0.1052E-03  0.5497E-17 -0.1924E+13
   -2.474970    4.08650  0.4556E-12  0.7527E-07  0.2304E-10  0.9315E-04  0.2744E-17 -0.2264E+13
   -2.543716    4.08796  0.4556E-12  0.7409E-07  0.2735E-10  0.6583E-04  0.1122E-17 -0.3382E+13
   -2.612462    4.09009  0.4556E-12  0.7061E-07  0.3800E-10  0.3607E-04  0.3484E-18 -0.6747E+13
   -2.681207    4.09421  0.4556E-12  0.4956E-07  0.1204E-09  0.3847E-05  0.5987E-19 -0.8879E+14
   -2.749952    4.13811  0.4556E-12  0.0000E+00  0.0000E+00  0.0000E+00  0.6096E-19  0.0000E+00
