 1 - depth, m
 2 - temperature, C
 3 - salinity, kg/kg
 4 - turbulent kinetic energy, m**2/s**2
 5 - dissipation rate, m**2/s**3
 6 - kinematic heat conductance, m**2/s
 7 - modulus of horizontal velocity, m/s
 8 - Richardson number, n/d
   -0.000000   -0.00000  0.1381E-11  0.1219E-13  0.7603E-17  0.1000E-09  0.0000E+00  0.8615E+16
   -0.068746    0.13156  0.7560E-12  0.1219E-13  0.7603E-17  0.1000E-09  0.0000E+00  0.8211E+16
   -0.137492    0.26156  0.4903E-12  0.1219E-13  0.7603E-17  0.1000E-09  0.0000E+00  0.7849E+16
   -0.206239    0.39050  0.4007E-12  0.1219E-13  0.7603E-17  0.1000E-09  0.0000E+00  0.7519E+16
   -0.274986    0.51881  0.3774E-12  0.1219E-13  0.7603E-17  0.1000E-09  0.0000E+00  0.7216E+16
   -0.343734    0.64687  0.3724E-12  0.1219E-13  0.7603E-17  0.1000E-09  0.0000E+00  0.6933E+16
   -0.412483    0.77499  0.3716E-12  0.1219E-13  0.7603E-17  0.1000E-09  0.0000E+00  0.6667E+16
   -0.481232    0.90348  0.3714E-12  0.1219E-13  0.7603E-17  0.1000E-09  0.0000E+00  0.6412E+16
   -0.549981    1.03262  0.3714E-12  0.1219E-13  0.7603E-17  0.1000E-09  0.0000E+00  0.6166E+16
   -0.618731    1.16265  0.3714E-12  0.1219E-13  0.7603E-17  0.1000E-09  0.0000E+00  0.5925E+16
   -0.687482    1.29379  0.3714E-12  0.1219E-13  0.7603E-17  0.1000E-09  0.0000E+00  0.5697E+16
   -0.756232    1.42652  0.3714E-12  0.1219E-13  0.7603E-17  0.1000E-09  0.0000E+00  0.5472E+16
   -0.824983    1.56115  0.3714E-12  0.1219E-13  0.7603E-17  0.1000E-09  0.0000E+00  0.5240E+16
   -0.893734    1.69780  0.3713E-12  0.4870E-13  0.8102E-17  0.1000E-09  0.0000E+00  0.4999E+16
   -0.962486    1.83656  0.3712E-12  0.1365E-12  0.1662E-16  0.1000E-09  0.0000E+00  0.4745E+16
   -1.031237    1.97744  0.3709E-12  0.3294E-12  0.3706E-16  0.1000E-09  0.0000E+00  0.4476E+16
   -1.099989    2.12042  0.3703E-12  0.7568E-12  0.8212E-16  0.1000E-09  0.0000E+00  0.4192E+16
   -1.168741    2.26543  0.3692E-12  0.1703E-11  0.1798E-15  0.1000E-09  0.0000E+00  0.3892E+16
   -1.237493    2.41233  0.3674E-12  0.3787E-11  0.3893E-15  0.1000E-09  0.0000E+00  0.3575E+16
   -1.306245    2.56091  0.3652E-12  0.8332E-11  0.8351E-15  0.1000E-09  0.0000E+00  0.3243E+16
   -1.374998    2.71094  0.3629E-12  0.1816E-10  0.1775E-14  0.1000E-09  0.0000E+00  0.2899E+16
   -1.443750    2.86227  0.3610E-12  0.3921E-10  0.3738E-14  0.1000E-09  0.0000E+00  0.2543E+16
   -1.512502    3.01461  0.3599E-12  0.8389E-10  0.7804E-14  0.1000E-09  0.0000E+00  0.2176E+16
   -1.581254    3.16758  0.3593E-12  0.1779E-09  0.1615E-13  0.1000E-09  0.0000E+00  0.1802E+16
   -1.650006    3.32079  0.3590E-12  0.3741E-09  0.3316E-13  0.1184E-09  0.0000E+00  0.1425E+16
   -1.718758    3.47379  0.3587E-12  0.7797E-09  0.6749E-13  0.3278E-09  0.0000E+00  0.1048E+16
   -1.787509    3.62598  0.3585E-12  0.1648E-08  0.1392E-12  0.1044E-08  0.0000E+00  0.6788E+15
   -1.856261    3.77758  0.3583E-12  0.3507E-08  0.2896E-12  0.4709E-08  0.0000E+00  0.3127E+15
   -1.925012    3.92519  0.3583E-12  0.7066E-08  0.5738E-12  0.1146E-06  0.0000E+00  0.2519E+14
   -1.993763    4.00913  0.3583E-12  0.7903E-08  0.6454E-12  0.3945E-04  0.0000E+00 -0.1973E+12
   -2.062514    4.00968  0.3583E-12  0.8267E-08  0.6837E-12  0.3988E-04  0.0000E+00 -0.2006E+12
   -2.131264    4.01022  0.3583E-12  0.8564E-08  0.7244E-12  0.3954E-04  0.0000E+00 -0.2080E+12
   -2.200014    4.01077  0.3583E-12  0.8799E-08  0.7696E-12  0.3842E-04  0.0000E+00 -0.2201E+12
   -2.268763    4.01134  0.3583E-12  0.8974E-08  0.8226E-12  0.3651E-04  0.0000E+00 -0.2392E+12
   -2.337512    4.01194  0.3583E-12  0.9092E-08  0.8908E-12  0.3364E-04  0.0000E+00 -0.2695E+12
   -2.406261    4.01260  0.3583E-12  0.9143E-08  0.9852E-12  0.2963E-04  0.0000E+00 -0.3200E+12
   -2.475009    4.01337  0.3583E-12  0.9105E-08  0.1131E-11  0.2430E-04  0.0000E+00 -0.4138E+12
   -2.543756    4.01433  0.3583E-12  0.8921E-08  0.1395E-11  0.1748E-04  0.0000E+00 -0.6255E+12
   -2.612503    4.01572  0.3583E-12  0.8415E-08  0.2046E-11  0.9272E-05  0.0000E+00 -0.1373E+13
   -2.681250    4.01856  0.3583E-12  0.6321E-08  0.5925E-11  0.1393E-05  0.0000E+00 -0.1559E+14
   -2.749995    4.04137  0.3583E-12  0.0000E+00  0.0000E+00  0.0000E+00  0.0000E+00  0.0000E+00
