 1 - depth, m
 2 - temperature, C
 3 - salinity, kg/kg
 4 - turbulent kinetic energy, m**2/s**2
 5 - dissipation rate, m**2/s**3
 6 - kinematic heat conductance, m**2/s
 7 - modulus of horizontal velocity, m/s
 8 - Richardson number, n/d
   -0.000000   -0.00000  0.9872E-12  0.8106E-09  0.9093E-12  0.5397E-09  0.3277E-10  0.8737E+16
   -0.068744    0.14130  0.4596E-12  0.6297E-08  0.7595E-12  0.1062E-08  0.2586E-10  0.3907E+16
   -0.137489    0.20537  0.4939E-12  0.1616E-07  0.1098E-11  0.4991E-08  0.2041E-10  0.1335E+16
   -0.206235    0.22718  0.4893E-12  0.2370E-07  0.1449E-11  0.1377E-04  0.1601E-10  0.1194E+15
   -0.274981    0.22912  0.4894E-12  0.2401E-07  0.1466E-11  0.2359E-03  0.1591E-10 -0.1811E+12
   -0.343728    0.22911  0.4894E-12  0.2404E-07  0.1467E-11  0.2414E-03  0.1588E-10 -0.2077E+12
   -0.412475    0.22911  0.4894E-12  0.2385E-07  0.1453E-11  0.8997E-04  0.1586E-10  0.6305E+13
   -0.481223    0.22921  0.4894E-12  0.2225E-07  0.1361E-11  0.1408E-07  0.1582E-10  0.5252E+15
   -0.549971    0.23771  0.4875E-12  0.1230E-07  0.7716E-12  0.2722E-08  0.1304E-10  0.1453E+16
   -0.618720    0.26130  0.4863E-12  0.6655E-08  0.4287E-12  0.8417E-09  0.1046E-10  0.2586E+16
   -0.687469    0.30353  0.4856E-12  0.3548E-08  0.2347E-12  0.3100E-09  0.8191E-11  0.3838E+16
   -0.756218    0.36688  0.4843E-12  0.1865E-08  0.1267E-12  0.1295E-09  0.6267E-11  0.5040E+16
   -0.824968    0.45170  0.4813E-12  0.9662E-09  0.6738E-13  0.1000E-09  0.4682E-11  0.5996E+16
   -0.893718    0.55549  0.4738E-12  0.4934E-09  0.3534E-13  0.1000E-09  0.3417E-11  0.6581E+16
   -0.962468    0.67337  0.4585E-12  0.2481E-09  0.1828E-13  0.1000E-09  0.2436E-11  0.6756E+16
   -1.031218    0.79918  0.4543E-12  0.1224E-09  0.9341E-14  0.1000E-09  0.1696E-11  0.6592E+16
   -1.099969    0.92723  0.4558E-12  0.5885E-10  0.4789E-14  0.1000E-09  0.1154E-11  0.6241E+16
   -1.168719    1.05389  0.4556E-12  0.2748E-10  0.2666E-14  0.1000E-09  0.7678E-12  0.5875E+16
   -1.237470    1.17864  0.4556E-12  0.1405E-10  0.2176E-14  0.1000E-09  0.4990E-12  0.5637E+16
   -1.306221    1.30408  0.4556E-12  0.1507E-10  0.3831E-14  0.1000E-09  0.3171E-12  0.5615E+16
   -1.374972    1.43549  0.4556E-12  0.4128E-10  0.1151E-13  0.1000E-09  0.1969E-12  0.5975E+16
   -1.443723    1.58360  0.4556E-12  0.1429E-09  0.3890E-13  0.1000E-09  0.1194E-12  0.6568E+16
   -1.512474    1.75831  0.4556E-12  0.4993E-09  0.1313E-12  0.1244E-09  0.7047E-13  0.7304E+16
   -1.581224    1.97128  0.4556E-12  0.1714E-08  0.4356E-12  0.2674E-09  0.3987E-13  0.8131E+16
   -1.649975    2.24060  0.4556E-12  0.5767E-08  0.1417E-11  0.7847E-09  0.2050E-13  0.8861E+16
   -1.718726    2.59745  0.4556E-12  0.1899E-07  0.4516E-11  0.2630E-08  0.7250E-14  0.8685E+16
   -1.787476    3.09192  0.4556E-12  0.6187E-07  0.1428E-10  0.2147E-07  0.4823E-15  0.5425E+16
   -1.856226    3.72379  0.4556E-12  0.9994E-07  0.2318E-10  0.7615E-04  0.2966E-16  0.1342E+16
   -1.924976    4.07466  0.4556E-12  0.1065E-06  0.2486E-10  0.1614E-03  0.1116E-17  0.9190E+13
   -1.993726    4.08990  0.4556E-12  0.1088E-06  0.2566E-10  0.1699E-03  0.3393E-18 -0.1577E+13
   -2.062475    4.09089  0.4556E-12  0.1106E-06  0.2650E-10  0.1695E-03  0.2441E-18 -0.1626E+13
   -2.131224    4.09189  0.4556E-12  0.1121E-06  0.2744E-10  0.1677E-03  0.1740E-18 -0.1678E+13
   -2.199973    4.09291  0.4556E-12  0.1131E-06  0.2852E-10  0.1645E-03  0.1210E-18 -0.1748E+13
   -2.268721    4.09396  0.4556E-12  0.1138E-06  0.2982E-10  0.1596E-03  0.8007E-19 -0.1835E+13
   -2.337469    4.09505  0.4556E-12  0.1141E-06  0.3149E-10  0.1523E-03  0.5106E-19 -0.1958E+13
   -2.406216    4.09620  0.4556E-12  0.1140E-06  0.3377E-10  0.1416E-03  0.3120E-19 -0.2148E+13
   -2.474963    4.09745  0.4556E-12  0.1131E-06  0.3720E-10  0.1262E-03  0.1780E-19 -0.2467E+13
   -2.543709    4.09888  0.4556E-12  0.1111E-06  0.4365E-10  0.9340E-04  0.9035E-20 -0.3448E+13
   -2.612454    4.10085  0.4556E-12  0.1057E-06  0.6058E-10  0.4798E-04  0.3610E-20 -0.7116E+13
   -2.681199    4.10480  0.4556E-12  0.7219E-07  0.2041E-09  0.4432E-05  0.8874E-21 -0.1006E+15
   -2.749944    4.15054  0.4556E-12  0.0000E+00  0.0000E+00  0.0000E+00  0.9052E-21  0.0000E+00
