 1 - depth, m
 2 - temperature, C
 3 - salinity, kg/kg
 4 - turbulent kinetic energy, m**2/s**2
 5 - dissipation rate, m**2/s**3
 6 - kinematic heat conductance, m**2/s
 7 - modulus of horizontal velocity, m/s
 8 - Richardson number, n/d
   -0.000000   14.73964  0.3750E-12  0.1240E-04  0.4961E-06  0.3229E-04  0.2367E-01 -0.2956E-01
   -0.068746   14.75942  0.3750E-12  0.1186E-04  0.1812E-06  0.8634E-04  0.1546E-01 -0.7435E-01
   -0.137492   14.76630  0.3750E-12  0.1145E-04  0.1056E-06  0.1482E-03  0.1243E-01 -0.1226E+00
   -0.206239   14.77006  0.3750E-12  0.1116E-04  0.7291E-07  0.2183E-03  0.1068E-01 -0.1751E+00
   -0.274987   14.77248  0.3750E-12  0.1095E-04  0.5514E-07  0.3000E-03  0.9510E-02 -0.2154E+00
   -0.343735   14.77415  0.3750E-12  0.1081E-04  0.4432E-07  0.4593E-03  0.8660E-02  0.1455E+01
   -0.412484   14.77523  0.3750E-12  0.1074E-04  0.3772E-07  0.9087E-03  0.8021E-02  0.1172E+03
   -0.481233   14.77576  0.3750E-12  0.1074E-04  0.3337E-07  0.1129E-02  0.7571E-02  0.6649E+01
   -0.549982   14.77616  0.3750E-12  0.1078E-04  0.2992E-07  0.1193E-02  0.7149E-02  0.7522E+01
   -0.618732   14.77652  0.3750E-12  0.1085E-04  0.2716E-07  0.1256E-02  0.6748E-02  0.7942E+01
   -0.687483   14.77687  0.3750E-12  0.1093E-04  0.2492E-07  0.1313E-02  0.6372E-02  0.8252E+01
   -0.756233   14.77719  0.3750E-12  0.1101E-04  0.2308E-07  0.1369E-02  0.6015E-02  0.8549E+01
   -0.824984   14.77749  0.3750E-12  0.1110E-04  0.2155E-07  0.1421E-02  0.5674E-02  0.8846E+01
   -0.893736   14.77778  0.3750E-12  0.1118E-04  0.2026E-07  0.1471E-02  0.5347E-02  0.9154E+01
   -0.962487   14.77806  0.3750E-12  0.1125E-04  0.1916E-07  0.1519E-02  0.5030E-02  0.9481E+01
   -1.031239   14.77833  0.3750E-12  0.1132E-04  0.1822E-07  0.1563E-02  0.4723E-02  0.9831E+01
   -1.099991   14.77859  0.3750E-12  0.1137E-04  0.1742E-07  0.1605E-02  0.4422E-02  0.1021E+02
   -1.168743   14.77885  0.3750E-12  0.1140E-04  0.1673E-07  0.1642E-02  0.4128E-02  0.1062E+02
   -1.237495   14.77910  0.3750E-12  0.1142E-04  0.1614E-07  0.1674E-02  0.3837E-02  0.1108E+02
   -1.306247   14.77934  0.3750E-12  0.1141E-04  0.1563E-07  0.1700E-02  0.3551E-02  0.1161E+02
   -1.375000   14.77959  0.3750E-12  0.1138E-04  0.1519E-07  0.1718E-02  0.3267E-02  0.1223E+02
   -1.443752   14.77983  0.3750E-12  0.1132E-04  0.1482E-07  0.1727E-02  0.2984E-02  0.1298E+02
   -1.512504   14.78007  0.3750E-12  0.1123E-04  0.1451E-07  0.1726E-02  0.2703E-02  0.1396E+02
   -1.581256   14.78032  0.3750E-12  0.1110E-04  0.1424E-07  0.1712E-02  0.2422E-02  0.1529E+02
   -1.650008   14.78057  0.3750E-12  0.1094E-04  0.1403E-07  0.1688E-02  0.2140E-02  0.1719E+02
   -1.718760   14.78083  0.3751E-12  0.1073E-04  0.1385E-07  0.1644E-02  0.1857E-02  0.1853E+02
   -1.787512   14.78110  0.3751E-12  0.1047E-04  0.1371E-07  0.1646E-02  0.1573E-02  0.6388E+01
   -1.856263   14.78137  0.3751E-12  0.1018E-04  0.1365E-07  0.1663E-02  0.1334E-02  0.3460E+01
   -1.925015   14.78164  0.3751E-12  0.9868E-05  0.1368E-07  0.1706E-02  0.1135E-02  0.2233E+01
   -1.993766   14.78190  0.3751E-12  0.9549E-05  0.1385E-07  0.1774E-02  0.9723E-03  0.1668E+01
   -2.062517   14.78215  0.3751E-12  0.9244E-05  0.1415E-07  0.1754E-02  0.8391E-03  0.1394E+01
   -2.131267   14.78241  0.3751E-12  0.8955E-05  0.1461E-07  0.1662E-02  0.7248E-03  0.1171E+01
   -2.200017   14.78268  0.3751E-12  0.8687E-05  0.1523E-07  0.1523E-02  0.6258E-03  0.9857E+00
   -2.268766   14.78298  0.3751E-12  0.8443E-05  0.1605E-07  0.1373E-02  0.5408E-03  0.8015E+00
   -2.337516   14.78332  0.3751E-12  0.8212E-05  0.1714E-07  0.1237E-02  0.4713E-03  0.7717E+00
   -2.406264   14.78370  0.3751E-12  0.7971E-05  0.1876E-07  0.1125E-02  0.4136E-03  0.1116E+01
   -2.475012   14.78412  0.3751E-12  0.7672E-05  0.2182E-07  0.9234E-03  0.3617E-03  0.5495E+01
   -2.543760   14.78468  0.3751E-12  0.7226E-05  0.2821E-07  0.7572E-03  0.3051E-03  0.2923E+03
   -2.612507   14.78541  0.3751E-12  0.6357E-05  0.4777E-07  0.4000E-03  0.2482E-03  0.2287E+04
   -2.681253   14.78804  0.3751E-12  0.3878E-05  0.1603E-06  0.8145E-04  0.1568E-03 -0.1388E+06
   -2.749999   14.79522  0.3751E-12  0.0000E+00  0.0000E+00  0.0000E+00  0.1913E-03  0.0000E+00
