 1 - depth, m
 2 - temperature, C
 3 - salinity, kg/kg
 4 - turbulent kinetic energy, m**2/s**2
 5 - dissipation rate, m**2/s**3
 6 - kinematic heat conductance, m**2/s
 7 - modulus of horizontal velocity, m/s
 8 - Richardson number, n/d
   -0.000000   -0.00000  0.1704E-11  0.7889E-10  0.4665E-13  0.1000E-09  0.0000E+00  0.6635E+16
   -0.068746    0.10090  0.9596E-12  0.3719E-09  0.2997E-13  0.1000E-09  0.0000E+00  0.6382E+16
   -0.137492    0.20066  0.8280E-12  0.8530E-09  0.2728E-13  0.1000E-09  0.0000E+00  0.6110E+16
   -0.206239    0.29886  0.7941E-12  0.1503E-08  0.2958E-13  0.1000E-09  0.0000E+00  0.5821E+16
   -0.274986    0.39508  0.7809E-12  0.2334E-08  0.3517E-13  0.1000E-09  0.0000E+00  0.5519E+16
   -0.343734    0.48891  0.7723E-12  0.3376E-08  0.4372E-13  0.1000E-09  0.0000E+00  0.5206E+16
   -0.412483    0.57993  0.7656E-12  0.4680E-08  0.5541E-13  0.1000E-09  0.0000E+00  0.4886E+16
   -0.481232    0.66774  0.7607E-12  0.6311E-08  0.7072E-13  0.1000E-09  0.0000E+00  0.4559E+16
   -0.549981    0.75196  0.7576E-12  0.8358E-08  0.9038E-13  0.1088E-09  0.0000E+00  0.4229E+16
   -0.618731    0.83221  0.7559E-12  0.1093E-07  0.1154E-12  0.1507E-09  0.0000E+00  0.3897E+16
   -0.687482    0.90811  0.7550E-12  0.1418E-07  0.1470E-12  0.2096E-09  0.0000E+00  0.3570E+16
   -0.756232    0.97941  0.7542E-12  0.1828E-07  0.1870E-12  0.2930E-09  0.0000E+00  0.3247E+16
   -0.824983    1.04584  0.7529E-12  0.2347E-07  0.2373E-12  0.4124E-09  0.0000E+00  0.2928E+16
   -0.893734    1.10711  0.7506E-12  0.3002E-07  0.3005E-12  0.5852E-09  0.0000E+00  0.2614E+16
   -0.962486    1.16300  0.7475E-12  0.3831E-07  0.3801E-12  0.8388E-09  0.0000E+00  0.2306E+16
   -1.031237    1.21328  0.7443E-12  0.4878E-07  0.4799E-12  0.1218E-08  0.0000E+00  0.2006E+16
   -1.099989    1.25780  0.7418E-12  0.6200E-07  0.6051E-12  0.1797E-08  0.0000E+00  0.1713E+16
   -1.168741    1.29645  0.7401E-12  0.7867E-07  0.7618E-12  0.2712E-08  0.0000E+00  0.1430E+16
   -1.237493    1.32914  0.7392E-12  0.9966E-07  0.9575E-12  0.4219E-08  0.0000E+00  0.1155E+16
   -1.306245    1.35587  0.7387E-12  0.1260E-06  0.1201E-11  0.6867E-08  0.0000E+00  0.8907E+15
   -1.374998    1.37668  0.7384E-12  0.1589E-06  0.1504E-11  0.1199E-07  0.0000E+00  0.6385E+15
   -1.443750    1.39170  0.7383E-12  0.1995E-06  0.1874E-11  0.2402E-07  0.0000E+00  0.3975E+15
   -1.512502    1.40109  0.7383E-12  0.2471E-06  0.2307E-11  0.7014E-07  0.0000E+00  0.1682E+15
   -1.581254    1.40508  0.7382E-12  0.2471E-06  0.2307E-11  0.8402E-02  0.0000E+00  0.8827E+09
   -1.650006    1.40508  0.7382E-12  0.2471E-06  0.2308E-11  0.8104E-02  0.0000E+00 -0.2543E+10
   -1.718758    1.40508  0.7382E-12  0.2471E-06  0.2308E-11  0.8086E-02  0.0000E+00 -0.5876E+10
   -1.787509    1.40508  0.7382E-12  0.2471E-06  0.2308E-11  0.8084E-02  0.0000E+00 -0.6093E+10
   -1.856261    1.40508  0.7382E-12  0.2471E-06  0.2308E-11  0.8084E-02  0.0000E+00 -0.5956E+10
   -1.925012    1.40508  0.7382E-12  0.2471E-06  0.2308E-11  0.8085E-02  0.0000E+00 -0.5381E+10
   -1.993763    1.40508  0.7382E-12  0.2471E-06  0.2308E-11  0.8086E-02  0.0000E+00 -0.5101E+10
   -2.062513    1.40508  0.7382E-12  0.2471E-06  0.2308E-11  0.8085E-02  0.0000E+00 -0.5512E+10
   -2.131264    1.40508  0.7382E-12  0.2471E-06  0.2308E-11  0.8085E-02  0.0000E+00 -0.5613E+10
   -2.200014    1.40508  0.7382E-12  0.2471E-06  0.2308E-11  0.8086E-02  0.0000E+00 -0.5415E+10
   -2.268763    1.40508  0.7382E-12  0.2471E-06  0.2308E-11  0.8107E-02  0.0000E+00 -0.2937E+10
   -2.337512    1.40508  0.7382E-12  0.2471E-06  0.2308E-11  0.2635E-02  0.0000E+00  0.9134E+13
   -2.406261    1.40529  0.7382E-12  0.2320E-06  0.2366E-11  0.2653E-07  0.0000E+00  0.4542E+15
   -2.475009    1.41609  0.7382E-12  0.1753E-06  0.2860E-11  0.1242E-07  0.0000E+00  0.1173E+16
   -2.543756    1.44420  0.7382E-12  0.1172E-06  0.3807E-11  0.8173E-08  0.0000E+00  0.2372E+16
   -2.612503    1.50205  0.7382E-12  0.6028E-07  0.5992E-11  0.6259E-08  0.0000E+00  0.4873E+16
   -2.681249    1.62555  0.7382E-12  0.1186E-07  0.1406E-10  0.5527E-08  0.0000E+00  0.1289E+17
   -2.749995    1.99018  0.7382E-12  0.0000E+00  0.0000E+00  0.0000E+00  0.0000E+00  0.0000E+00
