 1 - depth, m
 2 - temperature, C
 3 - salinity, kg/kg
 4 - turbulent kinetic energy, m**2/s**2
 5 - dissipation rate, m**2/s**3
 6 - kinematic heat conductance, m**2/s
 7 - modulus of horizontal velocity, m/s
 8 - Richardson number, n/d
   -0.000000   -0.00000  0.1714E-11  0.1219E-13  0.7603E-17  0.1000E-09  0.4488E-65  0.6277E+16
   -0.068746    0.09537  0.4473E-12  0.1219E-13  0.7603E-17  0.1000E-09  0.3825E-65  0.5818E+16
   -0.137492    0.18607  0.4997E-12  0.1219E-13  0.7603E-17  0.1000E-09  0.3178E-65  0.5344E+16
   -0.206239    0.27145  0.4888E-12  0.1219E-13  0.7603E-17  0.1000E-09  0.2627E-65  0.4892E+16
   -0.274987    0.35148  0.4893E-12  0.1219E-13  0.7603E-17  0.1000E-09  0.2179E-65  0.4495E+16
   -0.343735    0.42670  0.4893E-12  0.1219E-13  0.7603E-17  0.1000E-09  0.1812E-65  0.4184E+16
   -0.412484    0.49827  0.4891E-12  0.1219E-13  0.7603E-17  0.1000E-09  0.1505E-65  0.3979E+16
   -0.481233    0.56781  0.4884E-12  0.1219E-13  0.7603E-17  0.1000E-09  0.1245E-65  0.3895E+16
   -0.549982    0.63737  0.4867E-12  0.1219E-13  0.7603E-17  0.1000E-09  0.1022E-65  0.3937E+16
   -0.618732    0.70926  0.4856E-12  0.1613E-13  0.7603E-17  0.1000E-09  0.8330E-66  0.4103E+16
   -0.687483    0.78599  0.4843E-12  0.6850E-13  0.1146E-16  0.1000E-09  0.6739E-66  0.4415E+16
   -0.756233    0.87078  0.4814E-12  0.1941E-12  0.2675E-16  0.1000E-09  0.5414E-66  0.4840E+16
   -0.824985    0.96662  0.4753E-12  0.4904E-12  0.6393E-16  0.1000E-09  0.4319E-66  0.5332E+16
   -0.893736    1.07605  0.4652E-12  0.1194E-11  0.1506E-15  0.1000E-09  0.3423E-66  0.5858E+16
   -0.962487    1.20147  0.4554E-12  0.2856E-11  0.3497E-15  0.1000E-09  0.2695E-66  0.6373E+16
   -1.031239    1.34498  0.4547E-12  0.6743E-11  0.8025E-15  0.1000E-09  0.2108E-66  0.6824E+16
   -1.099991    1.50828  0.4559E-12  0.1573E-10  0.1820E-14  0.1000E-09  0.1637E-66  0.7152E+16
   -1.168743    1.69241  0.4556E-12  0.3627E-10  0.4082E-14  0.1000E-09  0.1262E-66  0.7298E+16
   -1.237495    1.89764  0.4556E-12  0.8270E-10  0.9057E-14  0.1000E-09  0.9654E-67  0.7210E+16
   -1.306248    2.12330  0.4556E-12  0.1865E-09  0.1988E-13  0.1000E-09  0.7310E-67  0.6854E+16
   -1.375000    2.36771  0.4556E-12  0.4161E-09  0.4317E-13  0.1000E-09  0.5462E-67  0.6237E+16
   -1.443752    2.62897  0.4556E-12  0.9185E-09  0.9279E-13  0.1000E-09  0.4003E-67  0.5359E+16
   -1.512504    2.90398  0.4556E-12  0.2006E-08  0.1974E-12  0.2361E-09  0.2841E-67  0.4256E+16
   -1.581257    3.18867  0.4556E-12  0.4337E-08  0.4157E-12  0.7066E-09  0.1901E-67  0.2994E+16
   -1.650009    3.47838  0.4556E-12  0.9268E-08  0.8660E-12  0.2669E-08  0.1113E-67  0.1651E+16
   -1.718761    3.76623  0.4556E-12  0.1937E-07  0.1767E-11  0.2409E-07  0.4206E-68  0.3734E+15
   -1.787512    4.01578  0.4556E-12  0.2042E-07  0.1868E-11  0.8841E-04  0.1396E-69 -0.2197E+12
   -1.856264    4.01625  0.4556E-12  0.2086E-07  0.1921E-11  0.9100E-04  0.7896E-70 -0.2214E+12
   -1.925015    4.01672  0.4556E-12  0.2122E-07  0.1974E-11  0.9134E-04  0.4880E-70 -0.2300E+12
   -1.993766    4.01720  0.4556E-12  0.2153E-07  0.2035E-11  0.9141E-04  0.3136E-70 -0.2394E+12
   -2.062517    4.01769  0.4556E-12  0.2179E-07  0.2102E-11  0.9052E-04  0.2086E-70 -0.2461E+12
   -2.131267    4.01819  0.4556E-12  0.2199E-07  0.2179E-11  0.8886E-04  0.1367E-70 -0.2548E+12
   -2.200017    4.01870  0.4556E-12  0.2215E-07  0.2276E-11  0.8640E-04  0.8624E-71 -0.2665E+12
   -2.268767    4.01922  0.4556E-12  0.2225E-07  0.2406E-11  0.7945E-04  0.4808E-71 -0.2960E+12
   -2.337516    4.01979  0.4556E-12  0.2227E-07  0.2586E-11  0.6824E-04  0.2379E-71 -0.3537E+12
   -2.406265    4.02046  0.4556E-12  0.2219E-07  0.2846E-11  0.5733E-04  0.1064E-71 -0.4353E+12
   -2.475013    4.02126  0.4556E-12  0.2194E-07  0.3257E-11  0.4598E-04  0.4164E-72 -0.5682E+12
   -2.543761    4.02228  0.4556E-12  0.2140E-07  0.4003E-11  0.3272E-04  0.1360E-72 -0.8537E+12
   -2.612508    4.02377  0.4556E-12  0.2021E-07  0.5840E-11  0.1739E-04  0.3135E-73 -0.1822E+13
   -2.681254    4.02676  0.4556E-12  0.1455E-07  0.1872E-10  0.2110E-05  0.3451E-74 -0.2509E+14
   -2.750000    4.05589  0.4556E-12  0.0000E+00  0.0000E+00  0.0000E+00  0.3632E-74  0.0000E+00
