 1 - depth, m
 2 - temperature, C
 3 - salinity, kg/kg
 4 - turbulent kinetic energy, m**2/s**2
 5 - dissipation rate, m**2/s**3
 6 - kinematic heat conductance, m**2/s
 7 - modulus of horizontal velocity, m/s
 8 - Richardson number, n/d
   -0.000000    6.47912  0.0000E+00  0.4781E-03  0.8803E-03  0.9581E-04  0.2698E+00  0.9269E-02
   -0.042497    6.67042  0.0000E+00  0.2397E-03  0.3242E-03  0.1995E-03  0.6119E-01 -0.3510E-02
   -0.084995    6.71818  0.0000E+00  0.1609E-03  0.1147E-03  0.1629E-03  0.3631E-01 -0.6340E-01
   -0.127493    6.75258  0.0000E+00  0.1180E-03  0.5170E-04  0.1503E-03  0.2815E-01 -0.1004E+00
   -0.169991    6.78033  0.0000E+00  0.8936E-04  0.2578E-04  0.1507E-03  0.2255E-01  0.1633E+02
   -0.212490    6.80731  0.0000E+00  0.6828E-04  0.1276E-04  0.1644E-03  0.1806E-01  0.1844E+02
   -0.254989    6.83273  0.0000E+00  0.5329E-04  0.6510E-05  0.1875E-03  0.1467E-01  0.3813E+02
   -0.297489    6.85403  0.0000E+00  0.4261E-04  0.3407E-05  0.2114E-03  0.1226E-01  0.1289E+02
   -0.339988    6.87188  0.0000E+00  0.3510E-04  0.1853E-05  0.2358E-03  0.1042E-01 -0.8461E+02
   -0.382488    6.88835  0.0000E+00  0.2979E-04  0.1116E-05  0.2751E-03  0.8834E-02  0.2288E+03
   -0.424988    6.90133  0.0000E+00  0.2596E-04  0.7219E-06  0.3077E-03  0.7622E-02  0.1049E+03
   -0.467489    6.91460  0.0000E+00  0.2314E-04  0.4960E-06  0.3578E-03  0.6539E-02  0.1499E+03
   -0.509989    6.92449  0.0000E+00  0.2103E-04  0.3623E-06  0.4126E-03  0.5622E-02  0.4767E+02
   -0.552490    6.93402  0.0000E+00  0.1943E-04  0.2750E-06  0.4818E-03  0.4821E-02  0.2665E+02
   -0.594991    6.94149  0.0000E+00  0.1819E-04  0.2161E-06  0.5472E-03  0.4121E-02  0.5646E+02
   -0.637492    6.94798  0.0000E+00  0.1720E-04  0.1742E-06  0.6086E-03  0.3509E-02  0.2967E+02
   -0.679993    6.95366  0.0000E+00  0.1640E-04  0.1435E-06  0.6598E-03  0.2986E-02  0.1624E+02
   -0.722494    6.95896  0.0000E+00  0.1575E-04  0.1205E-06  0.7152E-03  0.2533E-02  0.9883E+01
   -0.764995    6.96399  0.0000E+00  0.1522E-04  0.1027E-06  0.7724E-03  0.2153E-02  0.3039E+01
   -0.807497    6.96889  0.0000E+00  0.1477E-04  0.8887E-07  0.8227E-03  0.1844E-02  0.2299E+01
   -0.849998    6.97370  0.0000E+00  0.1440E-04  0.7811E-07  0.8669E-03  0.1585E-02  0.2178E+01
   -0.892499    6.97844  0.0000E+00  0.1409E-04  0.6967E-07  0.9083E-03  0.1367E-02  0.2242E+01
   -0.935001    6.98312  0.0000E+00  0.1382E-04  0.6314E-07  0.9423E-03  0.1184E-02  0.2398E+01
   -0.977502    6.98770  0.0000E+00  0.1358E-04  0.5817E-07  0.9714E-03  0.1027E-02  0.2488E+01
   -1.020003    6.99222  0.0000E+00  0.1336E-04  0.5447E-07  0.9924E-03  0.8940E-03  0.2645E+01
   -1.062504    6.99666  0.0000E+00  0.1315E-04  0.5186E-07  0.1004E-02  0.7779E-03  0.2728E+01
   -1.105005    7.00104  0.0000E+00  0.1296E-04  0.5019E-07  0.1004E-02  0.6772E-03  0.2826E+01
   -1.147506    7.00539  0.0000E+00  0.1278E-04  0.4942E-07  0.9940E-03  0.5869E-03  0.2956E+01
   -1.190007    7.00965  0.0000E+00  0.1262E-04  0.4949E-07  0.9735E-03  0.5045E-03  0.3171E+01
   -1.232507    7.01382  0.0000E+00  0.1248E-04  0.5042E-07  0.9444E-03  0.4303E-03  0.3557E+01
   -1.275008    7.01824  0.0000E+00  0.1234E-04  0.5229E-07  0.9017E-03  0.3688E-03  0.4643E+01
   -1.317508    7.02313  0.0000E+00  0.1220E-04  0.5536E-07  0.8521E-03  0.3188E-03  0.1348E+03
   -1.360008    7.02866  0.0000E+00  0.1203E-04  0.6038E-07  0.7869E-03  0.2778E-03  0.9218E+01
   -1.402507    7.03561  0.0000E+00  0.1180E-04  0.6866E-07  0.7293E-03  0.2428E-03  0.7624E+02
   -1.445007    7.04400  0.0000E+00  0.1150E-04  0.8214E-07  0.6453E-03  0.2109E-03 -0.1851E+03
   -1.487506    7.05585  0.0000E+00  0.1115E-04  0.1044E-06  0.5928E-03  0.1746E-03  0.2960E+05
   -1.530005    7.06720  0.0000E+00  0.1074E-04  0.1603E-06  0.4677E-03  0.1391E-03 -0.7214E+04
   -1.572503    7.10789  0.0000E+00  0.1027E-04  0.2722E-06  0.4770E-03  0.1016E-03  0.3277E+08
   -1.615001    7.09083  0.0000E+00  0.8989E-05  0.7217E-06  0.2039E-03  0.8165E-04 -0.6617E+10
   -1.657499    7.37465  0.0000E+00  0.6584E-05  0.1725E-05  0.1427E-03  0.5259E-04 -0.6245E+06
   -1.699996    7.38023  0.0000E+00  0.0000E+00  0.0000E+00  0.0000E+00  0.7561E-04  0.0000E+00
