 1 - depth, m
 2 - temperature, C
 3 - salinity, kg/kg
 4 - turbulent kinetic energy, m**2/s**2
 5 - dissipation rate, m**2/s**3
 6 - kinematic heat conductance, m**2/s
 7 - modulus of horizontal velocity, m/s
 8 - Richardson number, n/d
   -0.000000    7.75285  0.0000E+00  0.4219E-02  0.1531E+00  0.2694E-03  0.1258E+01  0.8322E-03
   -0.042497    8.16356  0.0000E+00  0.2124E-02  0.1132E+00  0.4528E-03  0.2798E+00  0.1145E+00
   -0.084995    8.57554  0.0000E+00  0.1296E-02  0.3898E-01  0.6140E-03  0.1362E+00  0.2117E+00
   -0.127493    8.68809  0.0000E+00  0.9605E-03  0.2248E-01  0.5765E-03  0.9706E-01  0.1706E+01
   -0.169991    8.74853  0.0000E+00  0.7440E-03  0.1344E-01  0.5174E-03  0.7351E-01  0.7130E+00
   -0.212490    8.80065  0.0000E+00  0.5873E-03  0.9173E-02  0.5168E-03  0.5648E-01 -0.9384E+03
   -0.254989    8.84673  0.0000E+00  0.4767E-03  0.6172E-02  0.5491E-03  0.4641E-01  0.4474E+01
   -0.297488    8.87046  0.0000E+00  0.3980E-03  0.4332E-02  0.5699E-03  0.4069E-01  0.9135E+02
   -0.339987    8.88537  0.0000E+00  0.3362E-03  0.3204E-02  0.5804E-03  0.3689E-01  0.6280E+03
   -0.382487    8.90139  0.0000E+00  0.2888E-03  0.2361E-02  0.5956E-03  0.3318E-01  0.1684E+03
   -0.424987    8.91219  0.0000E+00  0.2522E-03  0.1725E-02  0.6131E-03  0.3106E-01  0.1452E+02
   -0.467488    8.92519  0.0000E+00  0.2224E-03  0.1236E-02  0.6241E-03  0.2811E-01  0.3881E+03
   -0.509988    8.93227  0.0000E+00  0.1981E-03  0.8729E-03  0.6587E-03  0.2534E-01  0.2086E+04
   -0.552489    8.94365  0.0000E+00  0.1784E-03  0.5984E-03  0.6979E-03  0.2291E-01  0.2815E+03
   -0.594989    8.95115  0.0000E+00  0.1623E-03  0.3971E-03  0.7585E-03  0.2051E-01  0.4726E+02
   -0.637490    8.96342  0.0000E+00  0.1486E-03  0.2676E-03  0.8140E-03  0.1833E-01  0.8634E+02
   -0.679991    8.96713  0.0000E+00  0.1368E-03  0.1805E-03  0.8796E-03  0.1674E-01  0.9998E+04
   -0.722492    8.97510  0.0000E+00  0.1266E-03  0.1164E-03  0.9419E-03  0.1533E-01  0.7060E+03
   -0.764993    8.97991  0.0000E+00  0.1176E-03  0.7620E-04  0.1012E-02  0.1418E-01  0.2066E+04
   -0.807495    8.98572  0.0000E+00  0.1097E-03  0.5408E-04  0.1086E-02  0.1330E-01  0.9109E+03
   -0.849996    8.99110  0.0000E+00  0.1026E-03  0.3766E-04  0.1141E-02  0.1251E-01  0.2107E+04
   -0.892497    8.99601  0.0000E+00  0.9606E-04  0.2369E-04  0.1182E-02  0.1175E-01  0.1326E+03
   -0.934998    9.00171  0.0000E+00  0.9027E-04  0.1741E-04  0.1230E-02  0.1107E-01 -0.2591E+04
   -0.977499    9.00549  0.0000E+00  0.8506E-04  0.1264E-04  0.1259E-02  0.1039E-01  0.8682E+03
   -1.020000    9.01053  0.0000E+00  0.8023E-04  0.7584E-05  0.1259E-02  0.9781E-02  0.8319E+04
   -1.062501    9.01580  0.0000E+00  0.7581E-04  0.4701E-05  0.1259E-02  0.9120E-02  0.2428E+03
   -1.105002    9.02057  0.0000E+00  0.7181E-04  0.3143E-05  0.1269E-02  0.8506E-02  0.1464E+03
   -1.147503    9.02511  0.0000E+00  0.6825E-04  0.2327E-05  0.1262E-02  0.7881E-02  0.4009E+03
   -1.190004    9.03034  0.0000E+00  0.6503E-04  0.1886E-05  0.1232E-02  0.7215E-02  0.4493E+03
   -1.232504    9.03395  0.0000E+00  0.6195E-04  0.1613E-05  0.1177E-02  0.6578E-02 -0.8524E+03
   -1.275004    9.03991  0.0000E+00  0.5876E-04  0.1455E-05  0.1123E-02  0.5975E-02  0.4111E+03
   -1.317504    9.04410  0.0000E+00  0.5545E-04  0.1377E-05  0.1079E-02  0.5394E-02  0.1214E+04
   -1.360004    9.05085  0.0000E+00  0.5201E-04  0.1397E-05  0.1006E-02  0.4863E-02 -0.1955E+04
   -1.402504    9.05774  0.0000E+00  0.4833E-04  0.1499E-05  0.9263E-03  0.4401E-02  0.1723E+04
   -1.445003    9.06715  0.0000E+00  0.4479E-04  0.1764E-05  0.8147E-03  0.3969E-02  0.1839E+05
   -1.487502    9.07912  0.0000E+00  0.4139E-04  0.2393E-05  0.7176E-03  0.3431E-02  0.8298E+05
   -1.530001    9.09450  0.0000E+00  0.3780E-04  0.3718E-05  0.5771E-03  0.2653E-02  0.5281E+06
   -1.572499    9.13379  0.0000E+00  0.3419E-04  0.7305E-05  0.5801E-03  0.2016E-02  0.3292E+10
   -1.614997    9.13514  0.0000E+00  0.2823E-04  0.2470E-04  0.3141E-03  0.1689E-02 -0.4025E+10
   -1.657494    9.39540  0.0000E+00  0.2065E-04  0.4081E-04  0.2782E-03  0.1251E-02  0.7380E+08
   -1.699992    9.41405  0.0000E+00  0.0000E+00  0.0000E+00  0.0000E+00  0.2104E-02  0.0000E+00
