 1 - depth, m
 2 - temperature, C
 3 - salinity, kg/kg
 4 - turbulent kinetic energy, m**2/s**2
 5 - dissipation rate, m**2/s**3
 6 - kinematic heat conductance, m**2/s
 7 - modulus of horizontal velocity, m/s
 8 - Richardson number, n/d
   -0.000000   10.62119  0.0000E+00  0.1622E-02  0.1137E-01  0.1484E-03  0.5847E+00 -0.5883E-03
   -0.042498   10.87937  0.0000E+00  0.7775E-03  0.5456E-02  0.2931E-03  0.1237E+00 -0.7173E-03
   -0.084995   10.97292  0.0000E+00  0.5025E-03  0.2251E-02  0.3525E-03  0.6836E-01 -0.1605E+00
   -0.127494   11.01596  0.0000E+00  0.3736E-03  0.1353E-02  0.3276E-03  0.5237E-01 -0.1147E-01
   -0.169992   11.03813  0.0000E+00  0.2868E-03  0.8780E-03  0.2989E-03  0.4296E-01  0.3635E+01
   -0.212492   11.05775  0.0000E+00  0.2224E-03  0.5945E-03  0.2932E-03  0.3503E-01  0.1884E+00
   -0.254991   11.07361  0.0000E+00  0.1745E-03  0.3993E-03  0.3107E-03  0.2906E-01  0.3980E+01
   -0.297491   11.08720  0.0000E+00  0.1400E-03  0.2650E-03  0.3343E-03  0.2519E-01  0.6886E+01
   -0.339990   11.09869  0.0000E+00  0.1146E-03  0.1701E-03  0.3509E-03  0.2233E-01  0.4458E+02
   -0.382491   11.10946  0.0000E+00  0.9555E-04  0.1052E-03  0.3873E-03  0.1947E-01  0.1308E+03
   -0.424991   11.11853  0.0000E+00  0.8160E-04  0.6228E-04  0.4208E-03  0.1743E-01  0.2443E+03
   -0.467492   11.12774  0.0000E+00  0.7104E-04  0.3526E-04  0.4550E-03  0.1522E-01  0.2167E+03
   -0.509992   11.13529  0.0000E+00  0.6288E-04  0.1931E-04  0.5074E-03  0.1321E-01  0.1995E+03
   -0.552493   11.14322  0.0000E+00  0.5660E-04  0.1080E-04  0.5625E-03  0.1152E-01  0.2694E+03
   -0.594995   11.14958  0.0000E+00  0.5161E-04  0.6038E-05  0.6338E-03  0.9960E-02  0.1704E+03
   -0.637496   11.15590  0.0000E+00  0.4760E-04  0.3559E-05  0.7010E-03  0.8659E-02  0.6148E+02
   -0.679997   11.16024  0.0000E+00  0.4425E-04  0.2179E-05  0.7602E-03  0.7615E-02  0.8894E+02
   -0.722499   11.16526  0.0000E+00  0.4138E-04  0.1349E-05  0.8253E-03  0.6702E-02  0.1004E+03
   -0.765000   11.16898  0.0000E+00  0.3888E-04  0.8928E-06  0.8908E-03  0.5933E-02  0.2904E+02
   -0.807502   11.17343  0.0000E+00  0.3665E-04  0.6357E-06  0.9376E-03  0.5291E-02  0.1520E+02
   -0.850003   11.17701  0.0000E+00  0.3470E-04  0.4870E-06  0.9888E-03  0.4725E-02  0.2006E+02
   -0.892505   11.18093  0.0000E+00  0.3294E-04  0.3944E-06  0.1026E-02  0.4235E-02  0.4685E+01
   -0.935006   11.18441  0.0000E+00  0.3134E-04  0.3300E-06  0.1041E-02  0.3804E-02  0.7805E+01
   -0.977508   11.18805  0.0000E+00  0.2983E-04  0.2819E-06  0.1058E-02  0.3398E-02  0.9333E+01
   -1.020009   11.19146  0.0000E+00  0.2853E-04  0.2462E-06  0.1151E-02  0.3027E-02  0.1716E+02
   -1.062511   11.19470  0.0000E+00  0.2739E-04  0.2196E-06  0.1150E-02  0.2739E-02 -0.1244E+04
   -1.105012   11.19787  0.0000E+00  0.2628E-04  0.1979E-06  0.1056E-02  0.2474E-02  0.6536E+01
   -1.147513   11.20125  0.0000E+00  0.2514E-04  0.1803E-06  0.1040E-02  0.2166E-02  0.4690E+01
   -1.190014   11.20456  0.0000E+00  0.2411E-04  0.1682E-06  0.1006E-02  0.1877E-02  0.8776E+01
   -1.232515   11.20784  0.0000E+00  0.2311E-04  0.1605E-06  0.9684E-03  0.1599E-02  0.2097E+02
   -1.275016   11.21137  0.0000E+00  0.2211E-04  0.1573E-06  0.9202E-03  0.1356E-02 -0.9164E+00
   -1.317516   11.21533  0.0000E+00  0.2113E-04  0.1601E-06  0.8737E-03  0.1147E-02  0.2512E+02
   -1.360016   11.22004  0.0000E+00  0.2014E-04  0.1729E-06  0.8107E-03  0.9723E-03  0.1470E+02
   -1.402516   11.22630  0.0000E+00  0.1903E-04  0.2034E-06  0.7486E-03  0.8324E-03  0.4823E+02
   -1.445016   11.23423  0.0000E+00  0.1779E-04  0.2712E-06  0.6649E-03  0.7049E-03  0.1923E+03
   -1.487515   11.24671  0.0000E+00  0.1659E-04  0.4021E-06  0.6008E-03  0.5659E-03  0.5782E+05
   -1.530014   11.25654  0.0000E+00  0.1534E-04  0.7269E-06  0.4686E-03  0.4208E-03 -0.1736E+06
   -1.572513   11.31435  0.0000E+00  0.1427E-04  0.1361E-05  0.4997E-03  0.2750E-03  0.1957E+11
   -1.615011   11.26869  0.0000E+00  0.1217E-04  0.4029E-05  0.2422E-03  0.2193E-03 -0.1481E+10
   -1.657509   11.57706  0.0000E+00  0.9337E-05  0.7760E-05  0.2509E-03  0.1354E-03 -0.7532E+06
   -1.700007   11.50138  0.0000E+00  0.0000E+00  0.0000E+00  0.0000E+00  0.2615E-03  0.0000E+00
