 1 - depth, m
 2 - temperature, C
 3 - salinity, kg/kg
 4 - turbulent kinetic energy, m**2/s**2
 5 - dissipation rate, m**2/s**3
 6 - kinematic heat conductance, m**2/s
 7 - modulus of horizontal velocity, m/s
 8 - Richardson number, n/d
   -0.000000    8.04152  0.0000E+00  0.3137E-02  0.6648E-01  0.2642E-03  0.1080E+01  0.3502E-03
   -0.042497    8.35583  0.0000E+00  0.1576E-02  0.4403E-01  0.2966E-03  0.2517E+00  0.3259E-01
   -0.084995    8.70028  0.0000E+00  0.9769E-03  0.1329E-01  0.5405E-03  0.1221E+00  0.9622E+00
   -0.127493    8.79192  0.0000E+00  0.7294E-03  0.8109E-02  0.4734E-03  0.8830E-01  0.3036E+01
   -0.169991    8.82795  0.0000E+00  0.5720E-03  0.4849E-02  0.4409E-03  0.6931E-01  0.4329E+00
   -0.212490    8.85945  0.0000E+00  0.4586E-03  0.3371E-02  0.4517E-03  0.5638E-01  0.4988E+00
   -0.254989    8.89235  0.0000E+00  0.3841E-03  0.2452E-02  0.4886E-03  0.4687E-01  0.1047E+01
   -0.297488    8.91027  0.0000E+00  0.3244E-03  0.1732E-02  0.5114E-03  0.4207E-01  0.8444E+00
   -0.339987    8.92375  0.0000E+00  0.2770E-03  0.1267E-02  0.5262E-03  0.3819E-01  0.3492E+01
   -0.382487    8.93412  0.0000E+00  0.2387E-03  0.9201E-03  0.5456E-03  0.3487E-01  0.4604E+02
   -0.424987    8.94265  0.0000E+00  0.2095E-03  0.6610E-03  0.5526E-03  0.3284E-01  0.1928E+04
   -0.467487    8.95067  0.0000E+00  0.1865E-03  0.4704E-03  0.5681E-03  0.2997E-01  0.2985E+02
   -0.509988    8.96081  0.0000E+00  0.1672E-03  0.3327E-03  0.6037E-03  0.2711E-01  0.3734E+04
   -0.552488    8.96853  0.0000E+00  0.1520E-03  0.2335E-03  0.6266E-03  0.2457E-01  0.3572E+02
   -0.594989    8.97998  0.0000E+00  0.1385E-03  0.1619E-03  0.6914E-03  0.2168E-01  0.8259E+02
   -0.637490    8.99241  0.0000E+00  0.1273E-03  0.1108E-03  0.7756E-03  0.1938E-01  0.2567E+02
   -0.679991    8.99785  0.0000E+00  0.1176E-03  0.7359E-04  0.8331E-03  0.1774E-01  0.1587E+02
   -0.722492    9.00599  0.0000E+00  0.1093E-03  0.5094E-04  0.9161E-03  0.1625E-01  0.1314E+03
   -0.764993    9.00919  0.0000E+00  0.1019E-03  0.3485E-04  0.1011E-02  0.1503E-01  0.2282E+03
   -0.807494    9.01715  0.0000E+00  0.9530E-04  0.2345E-04  0.1094E-02  0.1402E-01  0.2378E+04
   -0.849995    9.01976  0.0000E+00  0.8946E-04  0.1569E-04  0.1141E-02  0.1309E-01  0.7368E+02
   -0.892497    9.02733  0.0000E+00  0.8418E-04  0.1029E-04  0.1218E-02  0.1220E-01  0.1320E+03
   -0.934998    9.02945  0.0000E+00  0.7946E-04  0.6720E-05  0.1253E-02  0.1144E-01  0.4734E+03
   -0.977499    9.03700  0.0000E+00  0.7511E-04  0.4338E-05  0.1301E-02  0.1061E-01  0.4696E+02
   -1.020000    9.03906  0.0000E+00  0.7113E-04  0.2913E-05  0.1311E-02  0.9897E-02  0.9486E+02
   -1.062501    9.04594  0.0000E+00  0.6753E-04  0.2003E-05  0.1326E-02  0.9151E-02 -0.3858E+02
   -1.105002    9.04843  0.0000E+00  0.6422E-04  0.1430E-05  0.1315E-02  0.8490E-02  0.3504E+02
   -1.147503    9.05419  0.0000E+00  0.6116E-04  0.1112E-05  0.1278E-02  0.7823E-02  0.3028E+02
   -1.190003    9.05767  0.0000E+00  0.5836E-04  0.9243E-06  0.1275E-02  0.7093E-02  0.7584E+02
   -1.232504    9.06281  0.0000E+00  0.5584E-04  0.8280E-06  0.1215E-02  0.6449E-02  0.6767E+02
   -1.275004    9.06671  0.0000E+00  0.5332E-04  0.7839E-06  0.1192E-02  0.5900E-02  0.1243E+02
   -1.317504    9.07180  0.0000E+00  0.5052E-04  0.7830E-06  0.1136E-02  0.5314E-02  0.6098E+03
   -1.360004    9.07735  0.0000E+00  0.4755E-04  0.8363E-06  0.1053E-02  0.4776E-02  0.1929E+03
   -1.402503    9.08403  0.0000E+00  0.4422E-04  0.9658E-06  0.9545E-03  0.4292E-02 -0.2980E+04
   -1.445002    9.09253  0.0000E+00  0.4087E-04  0.1218E-05  0.8265E-03  0.3837E-02  0.1586E+05
   -1.487501    9.10494  0.0000E+00  0.3745E-04  0.1651E-05  0.6996E-03  0.3287E-02  0.1841E+04
   -1.530000    9.11881  0.0000E+00  0.3376E-04  0.2615E-05  0.5916E-03  0.2549E-02  0.1867E+05
   -1.572498    9.15882  0.0000E+00  0.3034E-04  0.4938E-05  0.5825E-03  0.1854E-02  0.2400E+10
   -1.614996    9.15444  0.0000E+00  0.2509E-04  0.1284E-04  0.3352E-03  0.1530E-02 -0.5443E+10
   -1.657494    9.39785  0.0000E+00  0.1806E-04  0.2410E-04  0.2686E-03  0.1128E-02 -0.2565E+07
   -1.699991    9.40925  0.0000E+00  0.0000E+00  0.0000E+00  0.0000E+00  0.1969E-02  0.0000E+00
