 1 - depth, m
 2 - temperature, C
 3 - salinity, kg/kg
 4 - turbulent kinetic energy, m**2/s**2
 5 - dissipation rate, m**2/s**3
 6 - kinematic heat conductance, m**2/s
 7 - modulus of horizontal velocity, m/s
 8 - Richardson number, n/d
   -0.000000   12.32973  0.0000E+00  0.4653E-04  0.1232E-04  0.3663E-04  0.4187E-01 -0.1078E+00
   -0.042497   12.44252  0.0000E+00  0.2707E-04  0.3227E-05  0.6795E-04  0.1312E-01 -0.1912E-01
   -0.084995   12.47258  0.0000E+00  0.2070E-04  0.1365E-05  0.1451E-03  0.8570E-02  0.2753E+03
   -0.127493   12.48899  0.0000E+00  0.1736E-04  0.6893E-06  0.2254E-03  0.6412E-02  0.6928E+02
   -0.169991   12.50042  0.0000E+00  0.1550E-04  0.3838E-06  0.3141E-03  0.5005E-02  0.4283E+02
   -0.212490   12.50911  0.0000E+00  0.1453E-04  0.2348E-06  0.4100E-03  0.3995E-02  0.2033E+02
   -0.254989   12.51574  0.0000E+00  0.1416E-04  0.1597E-06  0.5030E-03  0.3266E-02  0.6129E+01
   -0.297489   12.52089  0.0000E+00  0.1419E-04  0.1192E-06  0.5952E-03  0.2743E-02  0.1906E+02
   -0.339988   12.52504  0.0000E+00  0.1447E-04  0.9705E-07  0.6840E-03  0.2350E-02  0.7278E+01
   -0.382488   12.52849  0.0000E+00  0.1488E-04  0.8375E-07  0.7732E-03  0.2031E-02  0.2211E+01
   -0.424988   12.53152  0.0000E+00  0.1536E-04  0.7510E-07  0.8519E-03  0.1768E-02  0.3188E+01
   -0.467489   12.53423  0.0000E+00  0.1585E-04  0.6926E-07  0.9268E-03  0.1534E-02  0.1679E+01
   -0.509989   12.53671  0.0000E+00  0.1634E-04  0.6528E-07  0.1004E-02  0.1325E-02  0.1633E+01
   -0.552490   12.53900  0.0000E+00  0.1681E-04  0.6267E-07  0.1087E-02  0.1138E-02  0.1592E+01
   -0.594991   12.54113  0.0000E+00  0.1724E-04  0.6114E-07  0.1175E-02  0.9726E-03  0.1531E+01
   -0.637492   12.54311  0.0000E+00  0.1764E-04  0.6048E-07  0.1278E-02  0.8287E-03  0.1453E+01
   -0.679993   12.54499  0.0000E+00  0.1800E-04  0.6050E-07  0.1391E-02  0.7095E-03  0.1404E+01
   -0.722494   12.54677  0.0000E+00  0.1830E-04  0.6109E-07  0.1501E-02  0.6122E-03  0.1363E+01
   -0.764995   12.54849  0.0000E+00  0.1855E-04  0.6209E-07  0.1582E-02  0.5356E-03  0.1324E+01
   -0.807497   12.55021  0.0000E+00  0.1873E-04  0.6340E-07  0.1617E-02  0.4764E-03  0.1304E+01
   -0.849998   12.55198  0.0000E+00  0.1886E-04  0.6492E-07  0.1614E-02  0.4299E-03  0.1278E+01
   -0.892499   12.55381  0.0000E+00  0.1893E-04  0.6663E-07  0.1591E-02  0.3924E-03  0.1257E+01
   -0.935000   12.55574  0.0000E+00  0.1896E-04  0.6853E-07  0.1558E-02  0.3619E-03  0.1281E+01
   -0.977502   12.55776  0.0000E+00  0.1894E-04  0.7072E-07  0.1514E-02  0.3360E-03  0.1476E+01
   -1.020003   12.55988  0.0000E+00  0.1888E-04  0.7323E-07  0.1488E-02  0.3135E-03  0.1589E+01
   -1.062504   12.56207  0.0000E+00  0.1877E-04  0.7623E-07  0.1490E-02  0.2941E-03  0.1210E+02
   -1.105005   12.56431  0.0000E+00  0.1862E-04  0.8015E-07  0.1299E-02  0.2765E-03  0.1256E+02
   -1.147506   12.56688  0.0000E+00  0.1843E-04  0.8517E-07  0.1286E-02  0.2571E-03  0.3384E+01
   -1.190006   12.56954  0.0000E+00  0.1820E-04  0.9184E-07  0.1237E-02  0.2375E-03  0.1137E+03
   -1.232507   12.57208  0.0000E+00  0.1791E-04  0.1017E-06  0.1181E-02  0.2181E-03 -0.5087E+02
   -1.275007   12.57544  0.0000E+00  0.1755E-04  0.1165E-06  0.1102E-02  0.1982E-03 -0.1439E+02
   -1.317508   12.57916  0.0000E+00  0.1708E-04  0.1389E-06  0.9990E-03  0.1785E-03  0.2045E+04
   -1.360007   12.58475  0.0000E+00  0.1648E-04  0.1737E-06  0.9337E-03  0.1579E-03  0.6386E+04
   -1.402507   12.59142  0.0000E+00  0.1571E-04  0.2343E-06  0.7953E-03  0.1387E-03 -0.1839E+03
   -1.445006   12.60137  0.0000E+00  0.1477E-04  0.3289E-06  0.7144E-03  0.1189E-03  0.4817E+07
   -1.487506   12.61306  0.0000E+00  0.1391E-04  0.4703E-06  0.6293E-03  0.9527E-04  0.5302E+05
   -1.530004   12.62896  0.0000E+00  0.1295E-04  0.8853E-06  0.5266E-03  0.7089E-04  0.2487E+07
   -1.572503   12.69391  0.0000E+00  0.1222E-04  0.1462E-05  0.5333E-03  0.4681E-04  0.1342E+12
   -1.615001   12.62879  0.0000E+00  0.1069E-04  0.4539E-05  0.2956E-03  0.3856E-04 -0.3730E+10
   -1.657498   12.97577  0.0000E+00  0.8443E-05  0.8609E-05  0.3033E-03  0.2419E-04 -0.4160E+06
   -1.699996   12.89494  0.0000E+00  0.0000E+00  0.0000E+00  0.0000E+00  0.4972E-04  0.0000E+00
