 1 - depth, m
 2 - temperature, C
 3 - salinity, kg/kg
 4 - turbulent kinetic energy, m**2/s**2
 5 - dissipation rate, m**2/s**3
 6 - kinematic heat conductance, m**2/s
 7 - modulus of horizontal velocity, m/s
 8 - Richardson number, n/d
   -0.000000    3.13935  0.0000E+00  0.4592E-02  0.1683E+00  0.1943E-03  0.1191E+01  0.9357E-03
   -0.042497    3.71431  0.0000E+00  0.2389E-02  0.9665E-01  0.4992E-03  0.2444E+00  0.6211E-02
   -0.084995    3.98820  0.0000E+00  0.1462E-02  0.2947E-01  0.6373E-03  0.1272E+00 -0.6517E+00
   -0.127493    4.07755  0.0000E+00  0.1056E-02  0.1577E-01  0.6448E-03  0.9441E-01 -0.3259E+01
   -0.169991    4.12610  0.0000E+00  0.8194E-03  0.8736E-02  0.5890E-03  0.7549E-01  0.3849E+00
   -0.212490    4.16719  0.0000E+00  0.6569E-03  0.6002E-02  0.5516E-03  0.6025E-01  0.4557E+00
   -0.254989    4.20510  0.0000E+00  0.5400E-03  0.4175E-02  0.5328E-03  0.5009E-01  0.9323E+00
   -0.297488    4.23980  0.0000E+00  0.4532E-03  0.2759E-02  0.5227E-03  0.4432E-01  0.3710E+02
   -0.339988    4.26508  0.0000E+00  0.3877E-03  0.2171E-02  0.5081E-03  0.4086E-01  0.2613E+01
   -0.382488    4.28855  0.0000E+00  0.3303E-03  0.1688E-02  0.5062E-03  0.3722E-01  0.1928E+02
   -0.424988    4.31007  0.0000E+00  0.2858E-03  0.1306E-02  0.4953E-03  0.3485E-01  0.3999E+02
   -0.467488    4.33335  0.0000E+00  0.2506E-03  0.1010E-02  0.4968E-03  0.3158E-01  0.2915E+03
   -0.509989    4.35331  0.0000E+00  0.2216E-03  0.7818E-03  0.5010E-03  0.2844E-01  0.2692E+03
   -0.552490    4.37262  0.0000E+00  0.1980E-03  0.5675E-03  0.4915E-03  0.2561E-01  0.2071E+02
   -0.594990    4.39675  0.0000E+00  0.1774E-03  0.3952E-03  0.5044E-03  0.2251E-01  0.3252E+03
   -0.637491    4.41570  0.0000E+00  0.1599E-03  0.2832E-03  0.5141E-03  0.1986E-01  0.6679E+02
   -0.679992    4.43683  0.0000E+00  0.1449E-03  0.2005E-03  0.5242E-03  0.1791E-01  0.8040E+02
   -0.722494    4.45631  0.0000E+00  0.1318E-03  0.1417E-03  0.5324E-03  0.1615E-01  0.2960E+03
   -0.764995    4.48113  0.0000E+00  0.1205E-03  0.1007E-03  0.5479E-03  0.1477E-01  0.2029E+04
   -0.807496    4.50489  0.0000E+00  0.1106E-03  0.7204E-04  0.5605E-03  0.1379E-01  0.1644E+05
   -0.849997    4.53596  0.0000E+00  0.1020E-03  0.5235E-04  0.5702E-03  0.1288E-01  0.1306E+06
   -0.892499    4.56424  0.0000E+00  0.9434E-04  0.3858E-04  0.5854E-03  0.1204E-01  0.3215E+07
   -0.935000    4.59998  0.0000E+00  0.8756E-04  0.2900E-04  0.5953E-03  0.1136E-01  0.1957E+06
   -0.977501    4.63557  0.0000E+00  0.8154E-04  0.2226E-04  0.6028E-03  0.1061E-01  0.1267E+06
   -1.020002    4.66708  0.0000E+00  0.7619E-04  0.1723E-04  0.6180E-03  0.1001E-01  0.1421E+06
   -1.062503    4.69066  0.0000E+00  0.7145E-04  0.1366E-04  0.6238E-03  0.9373E-02  0.1882E+06
   -1.105004    4.70931  0.0000E+00  0.6722E-04  0.1101E-04  0.6294E-03  0.8850E-02  0.1272E+06
   -1.147505    4.72317  0.0000E+00  0.6348E-04  0.8923E-05  0.6238E-03  0.8289E-02  0.1433E+06
   -1.190006    4.73821  0.0000E+00  0.6015E-04  0.7350E-05  0.6266E-03  0.7570E-02  0.8708E+06
   -1.232506    4.74901  0.0000E+00  0.5700E-04  0.6145E-05  0.6302E-03  0.6845E-02  0.9190E+06
   -1.275007    4.76120  0.0000E+00  0.5399E-04  0.5193E-05  0.6247E-03  0.6259E-02  0.6732E+06
   -1.317507    4.77370  0.0000E+00  0.5103E-04  0.4448E-05  0.6117E-03  0.5720E-02  0.6786E+06
   -1.360007    4.78606  0.0000E+00  0.4804E-04  0.3857E-05  0.5901E-03  0.5222E-02  0.9399E+06
   -1.402506    4.80049  0.0000E+00  0.4489E-04  0.3416E-05  0.5590E-03  0.4796E-02  0.2243E+07
   -1.445006    4.81603  0.0000E+00  0.4181E-04  0.3234E-05  0.5053E-03  0.4389E-02  0.1709E+07
   -1.487505    4.83265  0.0000E+00  0.3889E-04  0.3345E-05  0.4527E-03  0.3822E-02  0.4578E+07
   -1.530003    4.85157  0.0000E+00  0.3496E-04  0.3933E-05  0.3940E-03  0.3017E-02  0.4371E+07
   -1.572502    4.87730  0.0000E+00  0.3142E-04  0.5833E-05  0.3789E-03  0.2325E-02  0.1208E+08
   -1.615000    4.91901  0.0000E+00  0.2586E-04  0.1276E-04  0.2434E-03  0.2001E-02  0.1729E+09
   -1.657497    5.07367  0.0000E+00  0.1841E-04  0.2574E-04  0.1623E-03  0.1527E-02 -0.4843E+11
   -1.699995    5.31001  0.0000E+00  0.0000E+00  0.0000E+00  0.0000E+00  0.2507E-02  0.0000E+00
