 1 - depth, m
 2 - temperature, C
 3 - salinity, kg/kg
 4 - turbulent kinetic energy, m**2/s**2
 5 - dissipation rate, m**2/s**3
 6 - kinematic heat conductance, m**2/s
 7 - modulus of horizontal velocity, m/s
 8 - Richardson number, n/d
   -0.000000   10.25262  0.0000E+00  0.2907E-02  0.9979E-01  0.2107E-03  0.7615E+00 -0.6102E-01
   -0.042497   10.56823  0.0000E+00  0.1448E-02  0.4368E-01  0.3548E-03  0.1656E+00 -0.2136E+00
   -0.084995   10.67970  0.0000E+00  0.9485E-03  0.1933E-01  0.4728E-03  0.9070E-01 -0.3930E+00
   -0.127493   10.73380  0.0000E+00  0.6965E-03  0.1071E-01  0.4667E-03  0.6905E-01  0.2533E+01
   -0.169991   10.76037  0.0000E+00  0.5247E-03  0.6185E-02  0.4037E-03  0.5577E-01  0.7284E-02
   -0.212490   10.78021  0.0000E+00  0.3986E-03  0.4055E-02  0.4016E-03  0.4546E-01 -0.4145E+01
   -0.254989   10.80044  0.0000E+00  0.3088E-03  0.2937E-02  0.4327E-03  0.3731E-01 -0.1663E+04
   -0.297488   10.81319  0.0000E+00  0.2433E-03  0.2204E-02  0.4394E-03  0.3222E-01  0.5273E+02
   -0.339988   10.82427  0.0000E+00  0.1999E-03  0.1715E-02  0.4461E-03  0.2881E-01  0.1358E+03
   -0.382488   10.83381  0.0000E+00  0.1660E-03  0.1336E-02  0.4687E-03  0.2555E-01  0.1532E+02
   -0.424988   10.84318  0.0000E+00  0.1419E-03  0.1035E-02  0.4844E-03  0.2357E-01  0.1914E+03
   -0.467488   10.85179  0.0000E+00  0.1237E-03  0.7982E-03  0.5154E-03  0.2107E-01  0.2168E+03
   -0.509989   10.86025  0.0000E+00  0.1094E-03  0.6063E-03  0.5619E-03  0.1864E-01  0.5992E+03
   -0.552489   10.86737  0.0000E+00  0.9809E-04  0.4546E-03  0.5968E-03  0.1653E-01  0.1043E+03
   -0.594990   10.87569  0.0000E+00  0.8876E-04  0.3427E-03  0.6663E-03  0.1443E-01  0.1090E+04
   -0.637491   10.88160  0.0000E+00  0.8083E-04  0.2513E-03  0.7342E-03  0.1259E-01  0.9883E+03
   -0.679992   10.88606  0.0000E+00  0.7427E-04  0.1763E-03  0.7954E-03  0.1129E-01  0.7978E+02
   -0.722493   10.89153  0.0000E+00  0.6872E-04  0.1278E-03  0.8786E-03  0.1012E-01  0.9887E+02
   -0.764995   10.89562  0.0000E+00  0.6398E-04  0.8992E-04  0.9671E-03  0.9178E-02  0.7140E+03
   -0.807496   10.90007  0.0000E+00  0.5982E-04  0.6336E-04  0.1033E-02  0.8416E-02  0.3471E+03
   -0.849997   10.90420  0.0000E+00  0.5625E-04  0.5027E-04  0.1086E-02  0.7717E-02  0.2655E+03
   -0.892498   10.90726  0.0000E+00  0.5308E-04  0.3755E-04  0.1133E-02  0.7111E-02  0.4011E+03
   -0.935000   10.91230  0.0000E+00  0.5017E-04  0.2524E-04  0.1141E-02  0.6564E-02  0.2036E+03
   -0.977501   10.91515  0.0000E+00  0.4753E-04  0.1959E-04  0.1179E-02  0.6010E-02  0.6419E+01
   -1.020002   10.91830  0.0000E+00  0.4512E-04  0.1411E-04  0.1181E-02  0.5539E-02  0.1016E+03
   -1.062503   10.92296  0.0000E+00  0.4289E-04  0.7823E-05  0.1199E-02  0.5049E-02  0.1570E+02
   -1.105004   10.92541  0.0000E+00  0.4091E-04  0.4307E-05  0.1197E-02  0.4634E-02  0.1097E+02
   -1.147505   10.92991  0.0000E+00  0.3910E-04  0.2432E-05  0.1152E-02  0.4228E-02  0.2317E+02
   -1.190006   10.93257  0.0000E+00  0.3735E-04  0.1443E-05  0.1120E-02  0.3767E-02  0.1428E+02
   -1.232506   10.93667  0.0000E+00  0.3566E-04  0.9263E-06  0.1088E-02  0.3332E-02  0.5250E+02
   -1.275006   10.93981  0.0000E+00  0.3401E-04  0.6443E-06  0.1050E-02  0.2944E-02  0.4656E+02
   -1.317507   10.94424  0.0000E+00  0.3237E-04  0.5014E-06  0.9797E-03  0.2610E-02  0.2812E+03
   -1.360006   10.94853  0.0000E+00  0.3057E-04  0.4340E-06  0.8914E-03  0.2306E-02  0.2023E+06
   -1.402506   10.95478  0.0000E+00  0.2844E-04  0.4503E-06  0.8109E-03  0.2016E-02  0.1474E+03
   -1.445005   10.96272  0.0000E+00  0.2624E-04  0.5371E-06  0.7250E-03  0.1748E-02  0.5164E+03
   -1.487504   10.97429  0.0000E+00  0.2411E-04  0.7263E-06  0.6404E-03  0.1456E-02  0.6771E+04
   -1.530003   10.98558  0.0000E+00  0.2195E-04  0.1178E-05  0.5175E-03  0.1117E-02 -0.1295E+05
   -1.572502   11.03175  0.0000E+00  0.2003E-04  0.2281E-05  0.5076E-03  0.8009E-03  0.2881E+09
   -1.615000   11.01597  0.0000E+00  0.1669E-04  0.6197E-05  0.2756E-03  0.6470E-03 -0.1700E+10
   -1.657497   11.29178  0.0000E+00  0.1244E-04  0.1182E-04  0.2673E-03  0.4513E-03 -0.2879E+06
   -1.699994   11.24822  0.0000E+00  0.0000E+00  0.0000E+00  0.0000E+00  0.7750E-03  0.0000E+00
