 1 - depth, m
 2 - temperature, C
 3 - salinity, kg/kg
 4 - turbulent kinetic energy, m**2/s**2
 5 - dissipation rate, m**2/s**3
 6 - kinematic heat conductance, m**2/s
 7 - modulus of horizontal velocity, m/s
 8 - Richardson number, n/d
   -0.000000   -0.00106  0.0000E+00  0.6992E-03  0.2391E-02  0.1219E-03  0.4090E+00  0.2762E-02
   -0.042498    0.08857  0.0000E+00  0.3921E-03  0.1216E-02  0.2121E-03  0.1009E+00  0.7736E-02
   -0.084995    0.14478  0.0000E+00  0.2636E-03  0.4776E-03  0.2048E-03  0.6033E-01 -0.7656E-02
   -0.127494    0.18421  0.0000E+00  0.1981E-03  0.2191E-03  0.1913E-03  0.4776E-01  0.5380E-01
   -0.169992    0.21615  0.0000E+00  0.1533E-03  0.1095E-03  0.1791E-03  0.3942E-01  0.6077E-01
   -0.212492    0.24893  0.0000E+00  0.1191E-03  0.5104E-04  0.1705E-03  0.3241E-01  0.1641E+00
   -0.254991    0.28816  0.0000E+00  0.9343E-04  0.2333E-04  0.1644E-03  0.2680E-01  0.1381E+02
   -0.297491    0.33025  0.0000E+00  0.7525E-04  0.1156E-04  0.1568E-03  0.2310E-01  0.6731E+02
   -0.339990    0.36982  0.0000E+00  0.6150E-04  0.5571E-05  0.1474E-03  0.2047E-01  0.3567E+03
   -0.382491    0.41184  0.0000E+00  0.5102E-04  0.2839E-05  0.1389E-03  0.1806E-01  0.8230E+02
   -0.424991    0.45494  0.0000E+00  0.4299E-04  0.1683E-05  0.1279E-03  0.1625E-01  0.4553E+03
   -0.467492    0.49898  0.0000E+00  0.3648E-04  0.1152E-05  0.1164E-03  0.1433E-01  0.4137E+01
   -0.509992    0.54440  0.0000E+00  0.3095E-04  0.8394E-06  0.1038E-03  0.1243E-01  0.8664E+01
   -0.552493    0.59460  0.0000E+00  0.2607E-04  0.6278E-06  0.8950E-04  0.1060E-01  0.2364E+02
   -0.594995    0.65023  0.0000E+00  0.2153E-04  0.4710E-06  0.7458E-04  0.8776E-02  0.2986E+03
   -0.637496    0.71857  0.0000E+00  0.1723E-04  0.3491E-06  0.5911E-04  0.7062E-02  0.1255E+05
   -0.679997    0.81692  0.0000E+00  0.1333E-04  0.2545E-06  0.4216E-04  0.5617E-02  0.6541E+06
   -0.722499    0.99062  0.0000E+00  0.9841E-05  0.1777E-06  0.2654E-04  0.4283E-02  0.6085E+08
   -0.765000    1.33714  0.0000E+00  0.6875E-05  0.1159E-06  0.3744E-04  0.3105E-02  0.8999E+10
   -0.807502    1.95292  0.0000E+00  0.4776E-05  0.6893E-07  0.6792E-04  0.2119E-02  0.1760E+12
   -0.850003    2.84962  0.0000E+00  0.3681E-05  0.3834E-07  0.1486E-03  0.1236E-02  0.7420E+11
   -0.892505    3.65144  0.0000E+00  0.3212E-05  0.2294E-07  0.2467E-03  0.6832E-03  0.6335E+11
   -0.935006    4.11999  0.0000E+00  0.3034E-05  0.1521E-07  0.3147E-03  0.3864E-03  0.2152E+12
   -0.977508    4.27035  0.0000E+00  0.2973E-05  0.1164E-07  0.3575E-03  0.2438E-03  0.1860E+12
   -1.020009    4.31198  0.0000E+00  0.2969E-05  0.9799E-08  0.3813E-03  0.1789E-03  0.1280E+12
   -1.062511    4.33765  0.0000E+00  0.2992E-05  0.8799E-08  0.4028E-03  0.1368E-03  0.2790E+12
   -1.105012    4.35712  0.0000E+00  0.3031E-05  0.8246E-08  0.4195E-03  0.1075E-03  0.1145E+12
   -1.147513    4.37319  0.0000E+00  0.3074E-05  0.7943E-08  0.4314E-03  0.8511E-04  0.6224E+11
   -1.190014    4.38767  0.0000E+00  0.3121E-05  0.7810E-08  0.4372E-03  0.6760E-04  0.1201E+12
   -1.232515    4.40111  0.0000E+00  0.3172E-05  0.7812E-08  0.4387E-03  0.5407E-04  0.8490E+11
   -1.275016    4.41459  0.0000E+00  0.3228E-05  0.7938E-08  0.4363E-03  0.4366E-04  0.1432E+12
   -1.317516    4.42834  0.0000E+00  0.3287E-05  0.8186E-08  0.4320E-03  0.3536E-04  0.1781E+12
   -1.360016    4.44277  0.0000E+00  0.3349E-05  0.8581E-08  0.4165E-03  0.2873E-04  0.2141E+12
   -1.402516    4.45853  0.0000E+00  0.3410E-05  0.9164E-08  0.4049E-03  0.2346E-04  0.2020E+12
   -1.445016    4.47568  0.0000E+00  0.3465E-05  0.9937E-08  0.3797E-03  0.1901E-04  0.2609E+12
   -1.487515    4.49312  0.0000E+00  0.3515E-05  0.1098E-07  0.3555E-03  0.1496E-04  0.4472E+12
   -1.530014    4.51034  0.0000E+00  0.3575E-05  0.1274E-07  0.3147E-03  0.1125E-04  0.6904E+12
   -1.572513    4.53074  0.0000E+00  0.3651E-05  0.1676E-07  0.2521E-03  0.8134E-05 -0.3170E+11
   -1.615011    4.57031  0.0000E+00  0.3631E-05  0.3104E-07  0.1466E-03  0.5973E-05  0.1257E+13
   -1.657509    4.67422  0.0000E+00  0.2786E-05  0.9802E-07  0.3032E-04  0.3968E-05 -0.1110E+15
   -1.700007    5.09580  0.0000E+00  0.0000E+00  0.0000E+00  0.0000E+00  0.4128E-05  0.0000E+00
