 1 - depth, m
 2 - temperature, C
 3 - salinity, kg/kg
 4 - turbulent kinetic energy, m**2/s**2
 5 - dissipation rate, m**2/s**3
 6 - kinematic heat conductance, m**2/s
 7 - modulus of horizontal velocity, m/s
 8 - Richardson number, n/d
   -0.000000   16.30165  0.0000E+00  0.3645E-03  0.5239E-03  0.8692E-04  0.2141E+00  0.3836E+00
   -0.042497   16.58035  0.0000E+00  0.1815E-03  0.1557E-03  0.1446E-03  0.4970E-01 -0.1473E+00
   -0.084995   16.68662  0.0000E+00  0.1250E-03  0.6913E-04  0.1810E-03  0.2919E-01  0.3952E+01
   -0.127493   16.72919  0.0000E+00  0.9572E-04  0.3967E-04  0.2092E-03  0.2266E-01  0.1103E+02
   -0.169991   16.75428  0.0000E+00  0.7545E-04  0.2260E-04  0.2472E-03  0.1841E-01  0.3730E+02
   -0.212489   16.77194  0.0000E+00  0.6072E-04  0.1260E-04  0.3043E-03  0.1513E-01  0.6358E+02
   -0.254988   16.78618  0.0000E+00  0.4993E-04  0.6733E-05  0.3612E-03  0.1272E-01 -0.6915E+03
   -0.297488   16.79789  0.0000E+00  0.4223E-04  0.3535E-05  0.4242E-03  0.1091E-01  0.2369E+03
   -0.339987   16.80702  0.0000E+00  0.3700E-04  0.2071E-05  0.4880E-03  0.9471E-02  0.5258E+02
   -0.382487   16.81505  0.0000E+00  0.3344E-04  0.1254E-05  0.5461E-03  0.8222E-02  0.2411E+02
   -0.424987   16.82168  0.0000E+00  0.3106E-04  0.8298E-06  0.5916E-03  0.7211E-02  0.8525E+02
   -0.467487   16.82789  0.0000E+00  0.2950E-04  0.5808E-06  0.6492E-03  0.6271E-02  0.3601E+02
   -0.509987   16.83287  0.0000E+00  0.2847E-04  0.4165E-06  0.7057E-03  0.5438E-02  0.2246E+02
   -0.552488   16.83708  0.0000E+00  0.2781E-04  0.3226E-06  0.7850E-03  0.4677E-02  0.8041E+01
   -0.594989   16.84090  0.0000E+00  0.2735E-04  0.2623E-06  0.8611E-03  0.4010E-02  0.8870E+01
   -0.637490   16.84412  0.0000E+00  0.2702E-04  0.2225E-06  0.9161E-03  0.3415E-02  0.1018E+02
   -0.679991   16.84729  0.0000E+00  0.2678E-04  0.1943E-06  0.1010E-02  0.2890E-02  0.5347E+01
   -0.722492   16.85014  0.0000E+00  0.2658E-04  0.1737E-06  0.1070E-02  0.2454E-02  0.3429E+01
   -0.764993   16.85289  0.0000E+00  0.2640E-04  0.1580E-06  0.1113E-02  0.2095E-02  0.2241E+01
   -0.807494   16.85559  0.0000E+00  0.2619E-04  0.1458E-06  0.1146E-02  0.1799E-02  0.2062E+03
   -0.849995   16.85827  0.0000E+00  0.2595E-04  0.1363E-06  0.1212E-02  0.1540E-02  0.1916E+01
   -0.892496   16.86086  0.0000E+00  0.2567E-04  0.1298E-06  0.1267E-02  0.1330E-02  0.1964E+01
   -0.934997   16.86339  0.0000E+00  0.2535E-04  0.1255E-06  0.1309E-02  0.1160E-02  0.2066E+01
   -0.977498   16.86585  0.0000E+00  0.2499E-04  0.1232E-06  0.1336E-02  0.1017E-02  0.2125E+01
   -1.019999   16.86827  0.0000E+00  0.2461E-04  0.1227E-06  0.1346E-02  0.8984E-03  0.2262E+01
   -1.062500   16.87069  0.0000E+00  0.2420E-04  0.1237E-06  0.1351E-02  0.7973E-03  0.2418E+01
   -1.105001   16.87310  0.0000E+00  0.2377E-04  0.1263E-06  0.1320E-02  0.7134E-03  0.3514E+01
   -1.147502   16.87559  0.0000E+00  0.2333E-04  0.1310E-06  0.1264E-02  0.6408E-03  0.3249E+01
   -1.190003   16.87819  0.0000E+00  0.2286E-04  0.1384E-06  0.1214E-02  0.5714E-03  0.3232E+01
   -1.232503   16.88083  0.0000E+00  0.2236E-04  0.1505E-06  0.1161E-02  0.5068E-03  0.8919E+01
   -1.275003   16.88396  0.0000E+00  0.2178E-04  0.1705E-06  0.1096E-02  0.4493E-03 -0.4090E+02
   -1.317503   16.88770  0.0000E+00  0.2108E-04  0.2009E-06  0.1039E-02  0.3980E-03 -0.3509E+02
   -1.360003   16.89289  0.0000E+00  0.2021E-04  0.2488E-06  0.9405E-03  0.3498E-03  0.1388E+04
   -1.402502   16.89861  0.0000E+00  0.1911E-04  0.3309E-06  0.8527E-03  0.3055E-03 -0.2548E+03
   -1.445002   16.90824  0.0000E+00  0.1786E-04  0.4619E-06  0.7560E-03  0.2608E-03  0.7475E+04
   -1.487501   16.91762  0.0000E+00  0.1679E-04  0.6867E-06  0.6649E-03  0.2095E-03  0.1128E+05
   -1.529999   16.93411  0.0000E+00  0.1556E-04  0.1275E-05  0.5782E-03  0.1564E-03 -0.3398E+05
   -1.572497   16.97895  0.0000E+00  0.1469E-04  0.2114E-05  0.5915E-03  0.1054E-03  0.2482E+10
   -1.614995   16.93690  0.0000E+00  0.1269E-04  0.7465E-05  0.3487E-03  0.8701E-04 -0.7748E+10
   -1.657493   17.18622  0.0000E+00  0.1000E-04  0.1325E-04  0.3565E-03  0.5514E-04  0.1327E+06
   -1.699990   17.12427  0.0000E+00  0.0000E+00  0.0000E+00  0.0000E+00  0.1172E-03  0.0000E+00
