 1 - depth, m
 2 - temperature, C
 3 - salinity, kg/kg
 4 - turbulent kinetic energy, m**2/s**2
 5 - dissipation rate, m**2/s**3
 6 - kinematic heat conductance, m**2/s
 7 - modulus of horizontal velocity, m/s
 8 - Richardson number, n/d
   -0.000000   16.82093  0.0000E+00  0.1211E-04  0.6912E-06  0.2649E-04  0.1237E-01 -0.1121E+00
   -0.042497   16.88388  0.0000E+00  0.1144E-04  0.2462E-06  0.1188E-03  0.5532E-02  0.2514E+02
   -0.084995   16.90007  0.0000E+00  0.1169E-04  0.1573E-06  0.2823E-03  0.3809E-02  0.2383E+03
   -0.127493   16.90618  0.0000E+00  0.1226E-04  0.1239E-06  0.3705E-03  0.3145E-02  0.1943E+01
   -0.169992   16.91069  0.0000E+00  0.1304E-04  0.1037E-06  0.4906E-03  0.2625E-02  0.2000E+01
   -0.212491   16.91416  0.0000E+00  0.1392E-04  0.9053E-07  0.6143E-03  0.2206E-02  0.1896E+01
   -0.254990   16.91698  0.0000E+00  0.1482E-04  0.8148E-07  0.7270E-03  0.1873E-02  0.1763E+01
   -0.297489   16.91944  0.0000E+00  0.1571E-04  0.7511E-07  0.8416E-03  0.1611E-02  0.1678E+01
   -0.339989   16.92162  0.0000E+00  0.1653E-04  0.7064E-07  0.9544E-03  0.1402E-02  0.1645E+01
   -0.382489   16.92355  0.0000E+00  0.1728E-04  0.6749E-07  0.1066E-02  0.1227E-02  0.1580E+01
   -0.424989   16.92530  0.0000E+00  0.1795E-04  0.6533E-07  0.1166E-02  0.1079E-02  0.1558E+01
   -0.467489   16.92688  0.0000E+00  0.1854E-04  0.6396E-07  0.1261E-02  0.9493E-03  0.1515E+01
   -0.509990   16.92835  0.0000E+00  0.1905E-04  0.6323E-07  0.1357E-02  0.8337E-03  0.1462E+01
   -0.552491   16.92970  0.0000E+00  0.1950E-04  0.6307E-07  0.1456E-02  0.7316E-03  0.1414E+01
   -0.594992   16.93096  0.0000E+00  0.1987E-04  0.6340E-07  0.1557E-02  0.6417E-03  0.1366E+01
   -0.637493   16.93213  0.0000E+00  0.2020E-04  0.6417E-07  0.1668E-02  0.5639E-03  0.1316E+01
   -0.679994   16.93326  0.0000E+00  0.2046E-04  0.6530E-07  0.1776E-02  0.4988E-03  0.1291E+01
   -0.722495   16.93434  0.0000E+00  0.2067E-04  0.6673E-07  0.1851E-02  0.4450E-03  0.1268E+01
   -0.764997   16.93543  0.0000E+00  0.2084E-04  0.6841E-07  0.1866E-02  0.4014E-03  0.1241E+01
   -0.807498   16.93657  0.0000E+00  0.2095E-04  0.7023E-07  0.1823E-02  0.3667E-03  0.1200E+01
   -0.849999   16.93780  0.0000E+00  0.2099E-04  0.7178E-07  0.2034E-02  0.3387E-03  0.1906E+01
   -0.892501   16.93892  0.0000E+00  0.2100E-04  0.7356E-07  0.1618E-02  0.3242E-03  0.7329E+01
   -0.935002   16.94043  0.0000E+00  0.2097E-04  0.7563E-07  0.1724E-02  0.3068E-03  0.1354E+01
   -0.977503   16.94184  0.0000E+00  0.2090E-04  0.7828E-07  0.1682E-02  0.2890E-03  0.1412E+01
   -1.020005   16.94333  0.0000E+00  0.2079E-04  0.8138E-07  0.1623E-02  0.2728E-03  0.1644E+01
   -1.062506   16.94487  0.0000E+00  0.2063E-04  0.8516E-07  0.1555E-02  0.2575E-03  0.1834E+01
   -1.105007   16.94652  0.0000E+00  0.2041E-04  0.8982E-07  0.1500E-02  0.2425E-03  0.2343E+01
   -1.147508   16.94823  0.0000E+00  0.2015E-04  0.9574E-07  0.1421E-02  0.2276E-03  0.4120E+01
   -1.190008   16.95009  0.0000E+00  0.1984E-04  0.1035E-06  0.1347E-02  0.2117E-03  0.2787E+02
   -1.232509   16.95199  0.0000E+00  0.1946E-04  0.1144E-06  0.1274E-02  0.1955E-03  0.4635E+02
   -1.275010   16.95440  0.0000E+00  0.1899E-04  0.1305E-06  0.1184E-02  0.1782E-03  0.4389E+03
   -1.317510   16.95712  0.0000E+00  0.1838E-04  0.1562E-06  0.1104E-02  0.1610E-03 -0.2683E+04
   -1.360010   16.96153  0.0000E+00  0.1761E-04  0.1965E-06  0.1009E-02  0.1421E-03  0.6590E+04
   -1.402509   16.96589  0.0000E+00  0.1664E-04  0.2637E-06  0.8703E-03  0.1253E-03 -0.3977E+04
   -1.445009   16.97468  0.0000E+00  0.1550E-04  0.3683E-06  0.7912E-03  0.1064E-03  0.1701E+07
   -1.487508   16.98183  0.0000E+00  0.1455E-04  0.5216E-06  0.6570E-03  0.8555E-04  0.4647E+06
   -1.530007   16.99336  0.0000E+00  0.1347E-04  0.1080E-05  0.5874E-03  0.6337E-04 -0.2363E+06
   -1.572505   17.03964  0.0000E+00  0.1273E-04  0.1774E-05  0.6017E-03  0.4163E-04  0.4142E+11
   -1.615003   16.99885  0.0000E+00  0.1106E-04  0.5935E-05  0.3478E-03  0.3455E-04 -0.1369E+11
   -1.657501   17.24099  0.0000E+00  0.8775E-05  0.1066E-04  0.3659E-03  0.2168E-04 -0.1427E+06
   -1.699999   17.17465  0.0000E+00  0.0000E+00  0.0000E+00  0.0000E+00  0.4769E-04  0.0000E+00
