 1 - depth, m
 2 - temperature, C
 3 - salinity, kg/kg
 4 - turbulent kinetic energy, m**2/s**2
 5 - dissipation rate, m**2/s**3
 6 - kinematic heat conductance, m**2/s
 7 - modulus of horizontal velocity, m/s
 8 - Richardson number, n/d
   -0.000000    0.00206  0.0000E+00  0.1165E-02  0.3702E-02  0.1400E-03  0.5622E+00  0.3604E-02
   -0.042500    0.08849  0.0000E+00  0.7337E-03  0.1666E-02  0.3503E-03  0.1473E+00  0.9718E-01
   -0.085001    0.14309  0.0000E+00  0.5287E-03  0.7952E-03  0.3816E-03  0.8971E-01 -0.1581E-01
   -0.127502    0.17610  0.0000E+00  0.4240E-03  0.5213E-03  0.3693E-03  0.7130E-01  0.6791E-01
   -0.170003    0.20163  0.0000E+00  0.3497E-03  0.3555E-03  0.3688E-03  0.6035E-01  0.6865E-01
   -0.212505    0.22393  0.0000E+00  0.2943E-03  0.2264E-03  0.3734E-03  0.5234E-01  0.9911E-01
   -0.255007    0.24486  0.0000E+00  0.2507E-03  0.1467E-03  0.3834E-03  0.4614E-01  0.1058E+01
   -0.297510    0.26547  0.0000E+00  0.2173E-03  0.9377E-04  0.3921E-03  0.4168E-01  0.4408E+02
   -0.340012    0.28655  0.0000E+00  0.1916E-03  0.6063E-04  0.3987E-03  0.3816E-01  0.2907E+02
   -0.382515    0.30553  0.0000E+00  0.1711E-03  0.3857E-04  0.4066E-03  0.3495E-01  0.2668E+02
   -0.425018    0.32352  0.0000E+00  0.1546E-03  0.2377E-04  0.4098E-03  0.3238E-01  0.1242E+02
   -0.467522    0.34089  0.0000E+00  0.1410E-03  0.1436E-04  0.4106E-03  0.2967E-01  0.5824E+01
   -0.510025    0.35815  0.0000E+00  0.1295E-03  0.8809E-05  0.4117E-03  0.2703E-01  0.3930E+01
   -0.552529    0.37588  0.0000E+00  0.1193E-03  0.5707E-05  0.4060E-03  0.2456E-01  0.1647E+02
   -0.595033    0.39464  0.0000E+00  0.1101E-03  0.4024E-05  0.3996E-03  0.2214E-01  0.1100E+03
   -0.637537    0.41484  0.0000E+00  0.1014E-03  0.3061E-05  0.3934E-03  0.1992E-01  0.2384E+04
   -0.680041    0.43647  0.0000E+00  0.9319E-04  0.2454E-05  0.3817E-03  0.1803E-01  0.5792E+05
   -0.722545    0.46152  0.0000E+00  0.8528E-04  0.2029E-05  0.3688E-03  0.1632E-01  0.2227E+07
   -0.765049    0.49264  0.0000E+00  0.7775E-04  0.1709E-05  0.3529E-03  0.1482E-01  0.3533E+09
   -0.807553    0.53448  0.0000E+00  0.7069E-04  0.1455E-05  0.3317E-03  0.1357E-01  0.5935E+10
   -0.850058    0.60392  0.0000E+00  0.6412E-04  0.1246E-05  0.3103E-03  0.1241E-01  0.6148E+10
   -0.892562    0.73438  0.0000E+00  0.5808E-04  0.1072E-05  0.2919E-03  0.1132E-01  0.1732E+12
   -0.935066    0.95761  0.0000E+00  0.5263E-04  0.9270E-06  0.2824E-03  0.1032E-01  0.2179E+10
   -0.977570    1.19996  0.0000E+00  0.4778E-04  0.8046E-06  0.2743E-03  0.9315E-02  0.9794E+09
   -1.020075    1.39532  0.0000E+00  0.4353E-04  0.7043E-06  0.2699E-03  0.8504E-02  0.1303E+10
   -1.062579    1.54580  0.0000E+00  0.3973E-04  0.6208E-06  0.2631E-03  0.7708E-02  0.2474E+10
   -1.105083    1.71453  0.0000E+00  0.3644E-04  0.5516E-06  0.2544E-03  0.6961E-02  0.1650E+11
   -1.147587    1.92761  0.0000E+00  0.3367E-04  0.4966E-06  0.2526E-03  0.6198E-02  0.1702E+10
   -1.190090    2.13726  0.0000E+00  0.3124E-04  0.4528E-06  0.2559E-03  0.5359E-02  0.1357E+10
   -1.232594    2.34045  0.0000E+00  0.2897E-04  0.4162E-06  0.2587E-03  0.4559E-02  0.3034E+10
   -1.275097    2.53272  0.0000E+00  0.2693E-04  0.3890E-06  0.2580E-03  0.3938E-02  0.2961E+10
   -1.317600    2.67639  0.0000E+00  0.2509E-04  0.3760E-06  0.2492E-03  0.3432E-02  0.3161E+10
   -1.360103    2.79595  0.0000E+00  0.2313E-04  0.3585E-06  0.2455E-03  0.2924E-02  0.2693E+12
   -1.402606    2.92134  0.0000E+00  0.2120E-04  0.3516E-06  0.2332E-03  0.2558E-02  0.4498E+14
   -1.445108    3.07484  0.0000E+00  0.1949E-04  0.3617E-06  0.2227E-03  0.2197E-02  0.5424E+13
   -1.487610    3.24944  0.0000E+00  0.1802E-04  0.3975E-06  0.2139E-03  0.1821E-02  0.3677E+13
   -1.530112    3.46040  0.0000E+00  0.1660E-04  0.4817E-06  0.1992E-03  0.1448E-02  0.6526E+14
   -1.572613    3.69691  0.0000E+00  0.1529E-04  0.7093E-06  0.1858E-03  0.1156E-02 -0.4168E+14
   -1.615114    3.97462  0.0000E+00  0.1297E-04  0.1470E-05  0.1164E-03  0.9818E-03 -0.1100E+15
   -1.657615    4.21645  0.0000E+00  0.8478E-05  0.3857E-05  0.2740E-04  0.7914E-03 -0.4968E+15
   -1.700115    4.76295  0.0000E+00  0.0000E+00  0.0000E+00  0.0000E+00  0.9320E-03  0.0000E+00
