 1 - depth, m
 2 - temperature, C
 3 - salinity, kg/kg
 4 - turbulent kinetic energy, m**2/s**2
 5 - dissipation rate, m**2/s**3
 6 - kinematic heat conductance, m**2/s
 7 - modulus of horizontal velocity, m/s
 8 - Richardson number, n/d
   -0.000000    6.72976  0.0000E+00  0.3484E-03  0.4565E-03  0.7336E-04  0.1758E+00  0.9948E-02
   -0.042497    7.04649  0.0000E+00  0.1742E-03  0.1243E-03  0.1617E-03  0.3971E-01 -0.3764E-01
   -0.084995    7.10416  0.0000E+00  0.1231E-03  0.6092E-04  0.1585E-03  0.2547E-01 -0.1642E+00
   -0.127493    7.14582  0.0000E+00  0.9251E-04  0.3275E-04  0.1487E-03  0.2027E-01  0.1140E+02
   -0.169991    7.17763  0.0000E+00  0.7110E-04  0.1875E-04  0.1589E-03  0.1644E-01  0.7775E+01
   -0.212490    7.20545  0.0000E+00  0.5554E-04  0.1083E-04  0.1871E-03  0.1335E-01  0.1435E+02
   -0.254989    7.23015  0.0000E+00  0.4409E-04  0.6150E-05  0.2301E-03  0.1100E-01  0.2421E+03
   -0.297489    7.25119  0.0000E+00  0.3574E-04  0.3468E-05  0.2802E-03  0.9260E-02  0.3973E+02
   -0.339988    7.26834  0.0000E+00  0.2991E-04  0.1959E-05  0.3290E-03  0.7918E-02  0.1688E+02
   -0.382488    7.28291  0.0000E+00  0.2579E-04  0.1135E-05  0.3870E-03  0.6755E-02  0.3261E+02
   -0.424988    7.29539  0.0000E+00  0.2294E-04  0.6993E-06  0.4403E-03  0.5832E-02  0.2387E+02
   -0.467489    7.30572  0.0000E+00  0.2094E-04  0.4604E-06  0.4916E-03  0.5018E-02  0.2073E+02
   -0.509989    7.31528  0.0000E+00  0.1955E-04  0.3307E-06  0.5463E-03  0.4303E-02  0.6218E+02
   -0.552490    7.32282  0.0000E+00  0.1855E-04  0.2503E-06  0.5942E-03  0.3695E-02  0.3986E+02
   -0.594991    7.32987  0.0000E+00  0.1780E-04  0.1974E-06  0.6509E-03  0.3146E-02  0.2785E+02
   -0.637492    7.33582  0.0000E+00  0.1724E-04  0.1617E-06  0.7144E-03  0.2671E-02  0.1060E+02
   -0.679993    7.34142  0.0000E+00  0.1681E-04  0.1360E-06  0.7830E-03  0.2268E-02  0.3022E+01
   -0.722494    7.34651  0.0000E+00  0.1647E-04  0.1168E-06  0.8597E-03  0.1928E-02  0.5202E+01
   -0.764995    7.35136  0.0000E+00  0.1619E-04  0.1021E-06  0.9437E-03  0.1646E-02  0.4395E+01
   -0.807496    7.35598  0.0000E+00  0.1594E-04  0.9053E-07  0.1015E-02  0.1421E-02  0.1532E+01
   -0.849998    7.36047  0.0000E+00  0.1572E-04  0.8163E-07  0.1069E-02  0.1234E-02  0.1470E+01
   -0.892499    7.36482  0.0000E+00  0.1551E-04  0.7472E-07  0.1106E-02  0.1079E-02  0.1377E+01
   -0.935000    7.36915  0.0000E+00  0.1530E-04  0.6939E-07  0.1126E-02  0.9492E-03  0.1364E+01
   -0.977501    7.37342  0.0000E+00  0.1509E-04  0.6538E-07  0.1132E-02  0.8379E-03  0.1324E+01
   -1.020003    7.37771  0.0000E+00  0.1487E-04  0.6245E-07  0.1127E-02  0.7428E-03  0.1325E+01
   -1.062504    7.38201  0.0000E+00  0.1466E-04  0.6047E-07  0.1111E-02  0.6593E-03  0.1331E+01
   -1.105005    7.38636  0.0000E+00  0.1443E-04  0.5936E-07  0.1086E-02  0.5855E-03  0.1377E+01
   -1.147505    7.39075  0.0000E+00  0.1421E-04  0.5915E-07  0.1055E-02  0.5181E-03  0.1531E+01
   -1.190006    7.39516  0.0000E+00  0.1399E-04  0.5987E-07  0.1014E-02  0.4548E-03  0.1085E+02
   -1.232507    7.39955  0.0000E+00  0.1376E-04  0.6175E-07  0.9672E-03  0.3961E-03  0.2469E+01
   -1.275007    7.40437  0.0000E+00  0.1352E-04  0.6516E-07  0.9072E-03  0.3451E-03  0.6169E+01
   -1.317507    7.40978  0.0000E+00  0.1325E-04  0.7096E-07  0.8519E-03  0.3013E-03 -0.7401E+01
   -1.360007    7.41646  0.0000E+00  0.1290E-04  0.8124E-07  0.7696E-03  0.2631E-03  0.7641E+04
   -1.402507    7.42540  0.0000E+00  0.1241E-04  0.9969E-07  0.7055E-03  0.2278E-03 -0.5088E+02
   -1.445006    7.43698  0.0000E+00  0.1178E-04  0.1347E-06  0.6017E-03  0.1954E-03  0.1342E+05
   -1.487505    7.45561  0.0000E+00  0.1114E-04  0.1839E-06  0.5508E-03  0.1540E-03  0.1392E+05
   -1.530004    7.46749  0.0000E+00  0.1043E-04  0.3185E-06  0.4145E-03  0.1183E-03 -0.8784E+05
   -1.572502    7.55961  0.0000E+00  0.9757E-05  0.5817E-06  0.4512E-03  0.7629E-04  0.7956E+10
   -1.615000    7.48342  0.0000E+00  0.8399E-05  0.1580E-05  0.2029E-03  0.6264E-04 -0.3038E+10
   -1.657498    7.92561  0.0000E+00  0.6409E-05  0.3463E-05  0.2068E-03  0.3825E-04 -0.3835E+05
   -1.699995    7.81774  0.0000E+00  0.0000E+00  0.0000E+00  0.0000E+00  0.7023E-04  0.0000E+00
