 1 - depth, m
 2 - temperature, C
 3 - salinity, kg/kg
 4 - turbulent kinetic energy, m**2/s**2
 5 - dissipation rate, m**2/s**3
 6 - kinematic heat conductance, m**2/s
 7 - modulus of horizontal velocity, m/s
 8 - Richardson number, n/d
   -0.000000   -0.00060  0.0000E+00  0.7193E-03  0.1828E-02  0.1290E-03  0.4095E+00  0.1002E-01
   -0.042509    0.07216  0.0000E+00  0.4060E-03  0.7853E-03  0.2336E-03  0.1001E+00  0.4015E+00
   -0.085018    0.11565  0.0000E+00  0.2774E-03  0.3122E-03  0.2329E-03  0.5956E-01  0.5126E+00
   -0.127527    0.14767  0.0000E+00  0.2113E-03  0.1678E-03  0.2130E-03  0.4756E-01  0.2930E-01
   -0.170037    0.17553  0.0000E+00  0.1658E-03  0.8190E-04  0.2020E-03  0.3951E-01  0.3968E+01
   -0.212547    0.20274  0.0000E+00  0.1308E-03  0.3811E-04  0.1923E-03  0.3291E-01  0.1833E+00
   -0.255057    0.23347  0.0000E+00  0.1045E-03  0.2049E-04  0.1858E-03  0.2770E-01  0.1181E+02
   -0.297568    0.26474  0.0000E+00  0.8480E-04  0.1115E-04  0.1785E-03  0.2426E-01  0.3739E+02
   -0.340079    0.29488  0.0000E+00  0.6975E-04  0.6054E-05  0.1701E-03  0.2167E-01  0.6562E+02
   -0.382591    0.32607  0.0000E+00  0.5818E-04  0.3418E-05  0.1626E-03  0.1919E-01  0.5225E+02
   -0.425102    0.35743  0.0000E+00  0.4928E-04  0.2098E-05  0.1521E-03  0.1723E-01  0.8158E+04
   -0.467614    0.39016  0.0000E+00  0.4214E-04  0.1417E-05  0.1414E-03  0.1517E-01  0.2603E+01
   -0.510126    0.42431  0.0000E+00  0.3618E-04  0.1027E-05  0.1295E-03  0.1317E-01  0.3344E+01
   -0.552638    0.46130  0.0000E+00  0.3101E-04  0.7765E-06  0.1153E-03  0.1130E-01  0.4052E+01
   -0.595150    0.50381  0.0000E+00  0.2622E-04  0.5961E-06  0.9951E-04  0.9443E-02  0.3274E+02
   -0.637662    0.56019  0.0000E+00  0.2166E-04  0.4565E-06  0.8401E-04  0.7697E-02  0.1320E+04
   -0.680175    0.66203  0.0000E+00  0.1752E-04  0.3467E-06  0.6651E-04  0.6226E-02  0.3959E+05
   -0.722687    0.85774  0.0000E+00  0.1374E-04  0.2578E-06  0.5863E-04  0.4888E-02  0.1731E+07
   -0.765200    1.18826  0.0000E+00  0.1046E-04  0.1852E-06  0.6373E-04  0.3703E-02  0.2891E+10
   -0.807713    1.79918  0.0000E+00  0.7997E-05  0.1296E-06  0.8437E-04  0.2719E-02  0.8743E+10
   -0.850225    2.39221  0.0000E+00  0.6187E-05  0.8961E-07  0.1330E-03  0.2008E-02  0.3393E+12
   -0.892738    2.76997  0.0000E+00  0.4901E-05  0.6136E-07  0.1670E-03  0.1487E-02  0.7511E+12
   -0.935251    3.12469  0.0000E+00  0.3987E-05  0.4155E-07  0.2095E-03  0.1126E-02 -0.9227E+12
   -0.977763    3.45469  0.0000E+00  0.3416E-05  0.2754E-07  0.2472E-03  0.7779E-03 -0.8359E+11
   -1.020276    3.75310  0.0000E+00  0.3113E-05  0.1908E-07  0.2894E-03  0.5454E-03  0.3475E+12
   -1.062788    3.96318  0.0000E+00  0.2927E-05  0.1394E-07  0.3241E-03  0.3957E-03 -0.7025E+11
   -1.105301    4.10457  0.0000E+00  0.2851E-05  0.1073E-07  0.3465E-03  0.2753E-03 -0.2319E+12
   -1.147813    4.20590  0.0000E+00  0.2847E-05  0.9066E-08  0.3667E-03  0.1932E-03 -0.2391E+12
   -1.190325    4.29663  0.0000E+00  0.2873E-05  0.8193E-08  0.3817E-03  0.1213E-03  0.5464E+11
   -1.232837    4.36798  0.0000E+00  0.2915E-05  0.7790E-08  0.3911E-03  0.7529E-04 -0.1513E+12
   -1.275349    4.39676  0.0000E+00  0.2969E-05  0.7739E-08  0.3922E-03  0.5386E-04 -0.2742E+12
   -1.317860    4.41230  0.0000E+00  0.3027E-05  0.7874E-08  0.3882E-03  0.4182E-04 -0.3461E+12
   -1.360371    4.42837  0.0000E+00  0.3091E-05  0.8185E-08  0.3800E-03  0.3277E-04 -0.4773E+12
   -1.402882    4.44560  0.0000E+00  0.3157E-05  0.8707E-08  0.3653E-03  0.2600E-04 -0.8460E+12
   -1.445393    4.46420  0.0000E+00  0.3216E-05  0.9422E-08  0.3507E-03  0.2064E-04 -0.5485E+12
   -1.487904    4.48277  0.0000E+00  0.3273E-05  0.1042E-07  0.3256E-03  0.1580E-04 -0.5177E+12
   -1.530414    4.50126  0.0000E+00  0.3342E-05  0.1211E-07  0.2877E-03  0.1156E-04 -0.5628E+12
   -1.572924    4.52370  0.0000E+00  0.3433E-05  0.1594E-07  0.2334E-03  0.8051E-05 -0.1881E+13
   -1.615433    4.56727  0.0000E+00  0.3442E-05  0.2924E-07  0.1384E-03  0.5820E-05 -0.1059E+14
   -1.657942    4.67532  0.0000E+00  0.2675E-05  0.9146E-07  0.2849E-04  0.3819E-05 -0.8995E+14
   -1.700451    5.11046  0.0000E+00  0.0000E+00  0.0000E+00  0.0000E+00  0.4026E-05  0.0000E+00
