 1 - depth, m
 2 - temperature, C
 3 - salinity, kg/kg
 4 - turbulent kinetic energy, m**2/s**2
 5 - dissipation rate, m**2/s**3
 6 - kinematic heat conductance, m**2/s
 7 - modulus of horizontal velocity, m/s
 8 - Richardson number, n/d
   -0.000000   10.74256  0.0000E+00  0.9234E-04  0.4156E-04  0.4147E-04  0.6620E-01 -0.1043E+00
   -0.042497   10.91195  0.0000E+00  0.5307E-04  0.1087E-04  0.1201E-03  0.1810E-01  0.2262E+02
   -0.084995   10.94884  0.0000E+00  0.3932E-04  0.4920E-05  0.1728E-03  0.1193E-01  0.4741E+02
   -0.127493   10.97102  0.0000E+00  0.3164E-04  0.2660E-05  0.2354E-03  0.9228E-02  0.2983E+02
   -0.169992   10.98683  0.0000E+00  0.2658E-04  0.1506E-05  0.3215E-03  0.7405E-02  0.5908E+03
   -0.212490   10.99876  0.0000E+00  0.2312E-04  0.8905E-06  0.4140E-03  0.6070E-02  0.1934E+03
   -0.254989   11.00815  0.0000E+00  0.2078E-04  0.5564E-06  0.5027E-03  0.5076E-02  0.9688E+01
   -0.297489   11.01577  0.0000E+00  0.1932E-04  0.3750E-06  0.5902E-03  0.4332E-02  0.2695E+02
   -0.339988   11.02203  0.0000E+00  0.1843E-04  0.2682E-06  0.6757E-03  0.3753E-02  0.1891E+02
   -0.382488   11.02728  0.0000E+00  0.1794E-04  0.2015E-06  0.7573E-03  0.3271E-02  0.1492E+02
   -0.424989   11.03174  0.0000E+00  0.1774E-04  0.1594E-06  0.8275E-03  0.2867E-02  0.2983E+02
   -0.467489   11.03571  0.0000E+00  0.1771E-04  0.1316E-06  0.8948E-03  0.2504E-02  0.3568E+01
   -0.509989   11.03923  0.0000E+00  0.1779E-04  0.1125E-06  0.9631E-03  0.2175E-02  0.3193E+01
   -0.552490   11.04245  0.0000E+00  0.1793E-04  0.9930E-07  0.1032E-02  0.1876E-02  0.2177E+01
   -0.594991   11.04540  0.0000E+00  0.1811E-04  0.8993E-07  0.1100E-02  0.1604E-02  0.1941E+01
   -0.637492   11.04818  0.0000E+00  0.1829E-04  0.8308E-07  0.1173E-02  0.1360E-02  0.1730E+01
   -0.679993   11.05083  0.0000E+00  0.1846E-04  0.7812E-07  0.1247E-02  0.1152E-02  0.1605E+01
   -0.722494   11.05339  0.0000E+00  0.1860E-04  0.7462E-07  0.1319E-02  0.9764E-03  0.1516E+01
   -0.764996   11.05588  0.0000E+00  0.1872E-04  0.7229E-07  0.1386E-02  0.8337E-03  0.1465E+01
   -0.807497   11.05836  0.0000E+00  0.1881E-04  0.7088E-07  0.1433E-02  0.7210E-03  0.1481E+01
   -0.849998   11.06085  0.0000E+00  0.1885E-04  0.7026E-07  0.1458E-02  0.6308E-03  0.1522E+01
   -0.892500   11.06334  0.0000E+00  0.1885E-04  0.7029E-07  0.1463E-02  0.5575E-03  0.1576E+01
   -0.935001   11.06590  0.0000E+00  0.1881E-04  0.7088E-07  0.1455E-02  0.4983E-03  0.1694E+01
   -0.977502   11.06849  0.0000E+00  0.1873E-04  0.7200E-07  0.1434E-02  0.4487E-03  0.1833E+01
   -1.020003   11.07115  0.0000E+00  0.1862E-04  0.7366E-07  0.1401E-02  0.4073E-03  0.2069E+01
   -1.062505   11.07388  0.0000E+00  0.1847E-04  0.7594E-07  0.1360E-02  0.3713E-03  0.2347E+01
   -1.105006   11.07671  0.0000E+00  0.1829E-04  0.7898E-07  0.1307E-02  0.3396E-03  0.2737E+01
   -1.147506   11.07967  0.0000E+00  0.1808E-04  0.8296E-07  0.1253E-02  0.3105E-03  0.3368E+01
   -1.190007   11.08272  0.0000E+00  0.1784E-04  0.8827E-07  0.1189E-02  0.2829E-03  0.8836E+01
   -1.232508   11.08589  0.0000E+00  0.1755E-04  0.9596E-07  0.1122E-02  0.2561E-03 -0.4049E+01
   -1.275008   11.08962  0.0000E+00  0.1719E-04  0.1076E-06  0.1073E-02  0.2309E-03 -0.9981E+02
   -1.317508   11.09428  0.0000E+00  0.1673E-04  0.1256E-06  0.9696E-03  0.2065E-03  0.5257E+03
   -1.360008   11.10059  0.0000E+00  0.1612E-04  0.1574E-06  0.8957E-03  0.1819E-03 -0.1121E+05
   -1.402508   11.11017  0.0000E+00  0.1532E-04  0.2053E-06  0.7941E-03  0.1581E-03  0.3659E+05
   -1.445007   11.11862  0.0000E+00  0.1436E-04  0.2857E-06  0.6900E-03  0.1363E-03  0.1812E+05
   -1.487506   11.13648  0.0000E+00  0.1352E-04  0.4115E-06  0.6079E-03  0.1062E-03  0.2586E+08
   -1.530005   11.14656  0.0000E+00  0.1258E-04  0.7630E-06  0.4859E-03  0.7969E-04 -0.6902E+06
   -1.572504   11.23980  0.0000E+00  0.1192E-04  0.1341E-05  0.5309E-03  0.5133E-04  0.3392E+12
   -1.615002   11.14663  0.0000E+00  0.1044E-04  0.3940E-05  0.2873E-03  0.4279E-04 -0.3727E+10
   -1.657499   11.54382  0.0000E+00  0.8207E-05  0.7792E-05  0.2926E-03  0.2674E-04 -0.7029E+06
   -1.699997   11.44110  0.0000E+00  0.0000E+00  0.0000E+00  0.0000E+00  0.5658E-04  0.0000E+00
