 1 - depth, m
 2 - temperature, C
 3 - salinity, kg/kg
 4 - turbulent kinetic energy, m**2/s**2
 5 - dissipation rate, m**2/s**3
 6 - kinematic heat conductance, m**2/s
 7 - modulus of horizontal velocity, m/s
 8 - Richardson number, n/d
   -0.000000   15.23368  0.0000E+00  0.2015E-04  0.1721E-05  0.2644E-04  0.2088E-01 -0.5090E-01
   -0.042497   15.32095  0.0000E+00  0.1596E-04  0.5383E-06  0.7082E-04  0.9418E-02 -0.1907E+00
   -0.084995   15.35039  0.0000E+00  0.1479E-04  0.2828E-06  0.1951E-03  0.6174E-02  0.1321E+03
   -0.127493   15.36321  0.0000E+00  0.1464E-04  0.1965E-06  0.3550E-03  0.4751E-02  0.2135E+04
   -0.169991   15.36931  0.0000E+00  0.1499E-04  0.1553E-06  0.4464E-03  0.3980E-02  0.2577E+01
   -0.212490   15.37412  0.0000E+00  0.1562E-04  0.1289E-06  0.5466E-03  0.3330E-02  0.2328E+01
   -0.254989   15.37812  0.0000E+00  0.1638E-04  0.1113E-06  0.6337E-03  0.2818E-02  0.2016E+01
   -0.297489   15.38166  0.0000E+00  0.1721E-04  0.9897E-07  0.7268E-03  0.2414E-02  0.1869E+01
   -0.339988   15.38481  0.0000E+00  0.1803E-04  0.9025E-07  0.8216E-03  0.2089E-02  0.1820E+01
   -0.382488   15.38761  0.0000E+00  0.1883E-04  0.8396E-07  0.9210E-03  0.1816E-02  0.1736E+01
   -0.424988   15.39014  0.0000E+00  0.1956E-04  0.7945E-07  0.1014E-02  0.1585E-02  0.1720E+01
   -0.467489   15.39242  0.0000E+00  0.2021E-04  0.7628E-07  0.1104E-02  0.1380E-02  0.1677E+01
   -0.509989   15.39450  0.0000E+00  0.2079E-04  0.7420E-07  0.1195E-02  0.1196E-02  0.1614E+01
   -0.552490   15.39642  0.0000E+00  0.2129E-04  0.7305E-07  0.1286E-02  0.1034E-02  0.1554E+01
   -0.594991   15.39820  0.0000E+00  0.2171E-04  0.7270E-07  0.1377E-02  0.8917E-03  0.1483E+01
   -0.637492   15.39986  0.0000E+00  0.2205E-04  0.7304E-07  0.1481E-02  0.7692E-03  0.1405E+01
   -0.679993   15.40143  0.0000E+00  0.2232E-04  0.7396E-07  0.1605E-02  0.6679E-03  0.1357E+01
   -0.722494   15.40293  0.0000E+00  0.2252E-04  0.7534E-07  0.1746E-02  0.5856E-03  0.1319E+01
   -0.764995   15.40435  0.0000E+00  0.2266E-04  0.7708E-07  0.1863E-02  0.5203E-03  0.1287E+01
   -0.807496   15.40575  0.0000E+00  0.2273E-04  0.7908E-07  0.1900E-02  0.4694E-03  0.1264E+01
   -0.849998   15.40719  0.0000E+00  0.2275E-04  0.8126E-07  0.1868E-02  0.4289E-03  0.1236E+01
   -0.892499   15.40871  0.0000E+00  0.2272E-04  0.8364E-07  0.1813E-02  0.3961E-03  0.1202E+01
   -0.935000   15.41033  0.0000E+00  0.2265E-04  0.8625E-07  0.1760E-02  0.3690E-03  0.1214E+01
   -0.977501   15.41203  0.0000E+00  0.2253E-04  0.8924E-07  0.1700E-02  0.3457E-03  0.1263E+01
   -1.020003   15.41382  0.0000E+00  0.2236E-04  0.9276E-07  0.1645E-02  0.3251E-03  0.9057E+01
   -1.062504   15.41569  0.0000E+00  0.2215E-04  0.9710E-07  0.1571E-02  0.3062E-03  0.1004E+01
   -1.105005   15.41770  0.0000E+00  0.2187E-04  0.1025E-06  0.1541E-02  0.2879E-03  0.2576E+01
   -1.147506   15.41976  0.0000E+00  0.2155E-04  0.1096E-06  0.1411E-02  0.2703E-03  0.4998E+01
   -1.190006   15.42211  0.0000E+00  0.2117E-04  0.1189E-06  0.1372E-02  0.2510E-03  0.7278E+01
   -1.232507   15.42444  0.0000E+00  0.2072E-04  0.1324E-06  0.1293E-02  0.2317E-03 -0.3484E+02
   -1.275007   15.42753  0.0000E+00  0.2016E-04  0.1518E-06  0.1203E-02  0.2109E-03  0.5967E+04
   -1.317507   15.43089  0.0000E+00  0.1947E-04  0.1837E-06  0.1130E-02  0.1905E-03  0.1199E+05
   -1.360007   15.43665  0.0000E+00  0.1862E-04  0.2327E-06  0.1021E-02  0.1678E-03  0.1431E+05
   -1.402507   15.44118  0.0000E+00  0.1754E-04  0.3157E-06  0.9015E-03  0.1486E-03  0.5469E+05
   -1.445006   15.45355  0.0000E+00  0.1629E-04  0.4483E-06  0.8285E-03  0.1247E-03  0.8109E+06
   -1.487505   15.45971  0.0000E+00  0.1526E-04  0.6413E-06  0.6583E-03  0.1024E-03  0.7725E+05
   -1.530004   15.48222  0.0000E+00  0.1407E-04  0.1327E-05  0.6242E-03  0.7318E-04  0.2295E+06
   -1.572502   15.52499  0.0000E+00  0.1326E-04  0.2080E-05  0.6019E-03  0.4893E-04  0.1088E+12
   -1.615000   15.47960  0.0000E+00  0.1156E-04  0.7411E-05  0.3446E-03  0.4027E-04 -0.1908E+11
   -1.657498   15.77093  0.0000E+00  0.9295E-05  0.1276E-04  0.3909E-03  0.2534E-04 -0.5460E+05
   -1.699995   15.67806  0.0000E+00  0.0000E+00  0.0000E+00  0.0000E+00  0.5784E-04  0.0000E+00
