 1 - depth, m
 2 - temperature, C
 3 - salinity, kg/kg
 4 - turbulent kinetic energy, m**2/s**2
 5 - dissipation rate, m**2/s**3
 6 - kinematic heat conductance, m**2/s
 7 - modulus of horizontal velocity, m/s
 8 - Richardson number, n/d
   -0.000000   18.05247  0.0000E+00  0.3009E-03  0.6977E-03  0.7475E-04  0.1565E+00 -0.3990E-01
   -0.042497   18.24196  0.0000E+00  0.1480E-03  0.2406E-03  0.1431E-03  0.3727E-01  0.1127E+02
   -0.084995   18.30244  0.0000E+00  0.1028E-03  0.9092E-04  0.1969E-03  0.2256E-01  0.6844E+02
   -0.127493   18.33179  0.0000E+00  0.7938E-04  0.4488E-04  0.2581E-03  0.1747E-01  0.5251E+02
   -0.169991   18.34931  0.0000E+00  0.6376E-04  0.2421E-04  0.3189E-03  0.1412E-01  0.2406E+02
   -0.212490   18.36210  0.0000E+00  0.5193E-04  0.1307E-04  0.3891E-03  0.1156E-01  0.1236E+02
   -0.254989   18.37424  0.0000E+00  0.4349E-04  0.7257E-05  0.4684E-03  0.9642E-02  0.1666E+02
   -0.297488   18.38241  0.0000E+00  0.3755E-04  0.4113E-05  0.5466E-03  0.8286E-02  0.9365E+01
   -0.339988   18.38888  0.0000E+00  0.3367E-04  0.2505E-05  0.6220E-03  0.7238E-02  0.2556E+02
   -0.382488   18.39433  0.0000E+00  0.3098E-04  0.1560E-05  0.6908E-03  0.6323E-02  0.1698E+04
   -0.424988   18.39883  0.0000E+00  0.2910E-04  0.9742E-06  0.7625E-03  0.5574E-02  0.2239E+03
   -0.467488   18.40284  0.0000E+00  0.2790E-04  0.6312E-06  0.8279E-03  0.4874E-02  0.1667E+02
   -0.509989   18.40661  0.0000E+00  0.2711E-04  0.4306E-06  0.9005E-03  0.4244E-02  0.8703E+01
   -0.552490   18.40963  0.0000E+00  0.2659E-04  0.3196E-06  0.9613E-03  0.3688E-02  0.2060E+02
   -0.594990   18.41258  0.0000E+00  0.2625E-04  0.2545E-06  0.1044E-02  0.3171E-02  0.8133E+01
   -0.637491   18.41495  0.0000E+00  0.2599E-04  0.2139E-06  0.1123E-02  0.2733E-02  0.1064E+02
   -0.679992   18.41734  0.0000E+00  0.2579E-04  0.1866E-06  0.1193E-02  0.2355E-02  0.1338E+02
   -0.722494   18.41946  0.0000E+00  0.2560E-04  0.1664E-06  0.1278E-02  0.2017E-02 -0.1095E+03
   -0.764995   18.42152  0.0000E+00  0.2539E-04  0.1508E-06  0.1351E-02  0.1737E-02  0.2073E+01
   -0.807496   18.42348  0.0000E+00  0.2514E-04  0.1389E-06  0.1411E-02  0.1508E-02  0.1391E+01
   -0.849997   18.42541  0.0000E+00  0.2487E-04  0.1298E-06  0.1448E-02  0.1318E-02  0.1747E+01
   -0.892499   18.42729  0.0000E+00  0.2457E-04  0.1231E-06  0.1467E-02  0.1159E-02  0.1684E+01
   -0.935000   18.42918  0.0000E+00  0.2424E-04  0.1184E-06  0.1470E-02  0.1025E-02  0.1614E+01
   -0.977501   18.43105  0.0000E+00  0.2387E-04  0.1154E-06  0.1458E-02  0.9106E-03  0.1677E+01
   -1.020002   18.43293  0.0000E+00  0.2349E-04  0.1139E-06  0.1436E-02  0.8125E-03  0.1790E+01
   -1.062503   18.43484  0.0000E+00  0.2307E-04  0.1140E-06  0.1398E-02  0.7266E-03  0.1927E+01
   -1.105004   18.43679  0.0000E+00  0.2264E-04  0.1157E-06  0.1348E-02  0.6506E-03  0.2097E+01
   -1.147505   18.43883  0.0000E+00  0.2218E-04  0.1191E-06  0.1291E-02  0.5811E-03  0.2427E+01
   -1.190006   18.44092  0.0000E+00  0.2171E-04  0.1249E-06  0.1230E-02  0.5155E-03  0.3032E+01
   -1.232506   18.44312  0.0000E+00  0.2119E-04  0.1348E-06  0.1162E-02  0.4537E-03  0.2412E+01
   -1.275007   18.44568  0.0000E+00  0.2060E-04  0.1510E-06  0.1108E-02  0.3984E-03 -0.3476E+03
   -1.317507   18.44883  0.0000E+00  0.1989E-04  0.1779E-06  0.1027E-02  0.3490E-03  0.1027E+05
   -1.360007   18.45316  0.0000E+00  0.1900E-04  0.2225E-06  0.9486E-03  0.3026E-03  0.8368E+04
   -1.402506   18.45860  0.0000E+00  0.1790E-04  0.2964E-06  0.8523E-03  0.2622E-03  0.5922E+04
   -1.445006   18.46643  0.0000E+00  0.1662E-04  0.4218E-06  0.7510E-03  0.2215E-03  0.2167E+05
   -1.487505   18.47510  0.0000E+00  0.1556E-04  0.6226E-06  0.6495E-03  0.1750E-03  0.2797E+05
   -1.530003   18.48762  0.0000E+00  0.1435E-04  0.1218E-05  0.5501E-03  0.1269E-03 -0.1422E+06
   -1.572502   18.53238  0.0000E+00  0.1347E-04  0.2033E-05  0.5848E-03  0.8068E-04  0.7523E+11
   -1.615000   18.48751  0.0000E+00  0.1161E-04  0.6681E-05  0.3293E-03  0.6784E-04 -0.4106E+11
   -1.657497   18.71204  0.0000E+00  0.9205E-05  0.1206E-04  0.3564E-03  0.4160E-04  0.1175E+06
   -1.699995   18.64652  0.0000E+00  0.0000E+00  0.0000E+00  0.0000E+00  0.9881E-04  0.0000E+00
