 1 - depth, m
 2 - temperature, C
 3 - salinity, kg/kg
 4 - turbulent kinetic energy, m**2/s**2
 5 - dissipation rate, m**2/s**3
 6 - kinematic heat conductance, m**2/s
 7 - modulus of horizontal velocity, m/s
 8 - Richardson number, n/d
   -0.000000   -0.00063  0.0000E+00  0.2647E-03  0.2608E-03  0.1005E-03  0.1911E+00  0.1962E-01
   -0.042502    0.08113  0.0000E+00  0.1414E-03  0.9079E-04  0.1237E-03  0.5005E-01  0.5267E-01
   -0.085005    0.14002  0.0000E+00  0.9531E-04  0.3539E-04  0.9466E-04  0.3353E-01  0.2291E+00
   -0.127509    0.20225  0.0000E+00  0.6537E-04  0.1393E-04  0.7535E-04  0.2601E-01  0.3826E+00
   -0.170012    0.27213  0.0000E+00  0.4370E-04  0.5770E-05  0.6118E-04  0.2040E-01  0.9506E+00
   -0.212516    0.35555  0.0000E+00  0.2814E-04  0.2219E-05  0.4732E-04  0.1563E-01  0.8543E+00
   -0.255020    0.47801  0.0000E+00  0.1765E-04  0.9783E-06  0.3364E-04  0.1161E-01  0.2164E+02
   -0.297525    0.68965  0.0000E+00  0.1073E-04  0.4695E-06  0.2106E-04  0.8739E-02  0.1109E+04
   -0.340030    1.11583  0.0000E+00  0.6482E-05  0.2365E-06  0.1272E-04  0.6529E-02  0.6030E+02
   -0.382535    1.87924  0.0000E+00  0.4087E-05  0.1153E-06  0.4544E-04  0.4420E-02  0.6262E+03
   -0.425040    2.68558  0.0000E+00  0.2903E-05  0.5633E-07  0.1465E-03  0.2935E-02  0.1271E+04
   -0.467546    3.36779  0.0000E+00  0.2478E-05  0.2691E-07  0.2204E-03  0.1603E-02  0.1981E+04
   -0.510051    3.85864  0.0000E+00  0.2399E-05  0.1393E-07  0.3149E-03  0.7880E-03  0.8164E+04
   -0.552557    4.14214  0.0000E+00  0.2414E-05  0.8772E-08  0.3846E-03  0.3825E-03  0.1339E+04
   -0.595063    4.22233  0.0000E+00  0.2438E-05  0.6597E-08  0.4313E-03  0.2386E-03  0.1449E+04
   -0.637569    4.24626  0.0000E+00  0.2487E-05  0.5584E-08  0.4600E-03  0.1673E-03  0.4879E+04
   -0.680076    4.26228  0.0000E+00  0.2552E-05  0.5096E-08  0.4873E-03  0.1270E-03  0.2177E+04
   -0.722582    4.27506  0.0000E+00  0.2627E-05  0.4863E-08  0.5128E-03  0.1009E-03  0.2345E+04
   -0.765089    4.28632  0.0000E+00  0.2708E-05  0.4760E-08  0.5363E-03  0.8299E-04  0.2919E+04
   -0.807595    4.29703  0.0000E+00  0.2792E-05  0.4729E-08  0.5582E-03  0.7037E-04  0.3785E+04
   -0.850101    4.30734  0.0000E+00  0.2875E-05  0.4745E-08  0.5783E-03  0.6064E-04  0.4770E+04
   -0.892608    4.31737  0.0000E+00  0.2958E-05  0.4791E-08  0.5962E-03  0.5287E-04  0.5873E+04
   -0.935114    4.32723  0.0000E+00  0.3036E-05  0.4860E-08  0.6117E-03  0.4657E-04  0.7188E+04
   -0.977621    4.33679  0.0000E+00  0.3111E-05  0.4949E-08  0.6243E-03  0.4118E-04  0.8428E+04
   -1.020127    4.34618  0.0000E+00  0.3181E-05  0.5056E-08  0.6340E-03  0.3657E-04  0.9920E+04
   -1.062634    4.35532  0.0000E+00  0.3245E-05  0.5180E-08  0.6404E-03  0.3249E-04  0.1121E+05
   -1.105140    4.36426  0.0000E+00  0.3305E-05  0.5323E-08  0.6437E-03  0.2887E-04  0.1267E+05
   -1.147646    4.37296  0.0000E+00  0.3359E-05  0.5484E-08  0.6437E-03  0.2554E-04  0.1418E+05
   -1.190152    4.38131  0.0000E+00  0.3408E-05  0.5667E-08  0.6397E-03  0.2241E-04  0.1582E+05
   -1.232657    4.38936  0.0000E+00  0.3456E-05  0.5888E-08  0.6307E-03  0.1948E-04  0.1860E+05
   -1.275163    4.39770  0.0000E+00  0.3503E-05  0.6163E-08  0.6170E-03  0.1686E-04  0.2459E+05
   -1.317668    4.40650  0.0000E+00  0.3550E-05  0.6510E-08  0.5977E-03  0.1451E-04  0.3433E+05
   -1.360173    4.41597  0.0000E+00  0.3597E-05  0.6960E-08  0.5716E-03  0.1243E-04  0.4795E+05
   -1.402678    4.42650  0.0000E+00  0.3642E-05  0.7565E-08  0.5389E-03  0.1061E-04  0.7422E+05
   -1.445183    4.43845  0.0000E+00  0.3680E-05  0.8312E-08  0.5023E-03  0.8961E-05  0.1125E+06
   -1.487687    4.45072  0.0000E+00  0.3714E-05  0.9279E-08  0.4605E-03  0.7375E-05  0.1585E+06
   -1.530191    4.46261  0.0000E+00  0.3752E-05  0.1085E-07  0.3938E-03  0.5850E-05  0.2821E+06
   -1.572694    4.47626  0.0000E+00  0.3795E-05  0.1440E-07  0.3207E-03  0.4485E-05  0.8234E+06
   -1.615198    4.50065  0.0000E+00  0.3739E-05  0.2783E-07  0.1741E-03  0.3431E-05  0.2360E+08
   -1.657701    4.58578  0.0000E+00  0.2814E-05  0.9603E-07  0.3242E-04  0.2413E-05 -0.3009E+10
   -1.700203    4.96930  0.0000E+00  0.0000E+00  0.0000E+00  0.0000E+00  0.2459E-05  0.0000E+00
