 1 - depth, m
 2 - temperature, C
 3 - salinity, kg/kg
 4 - turbulent kinetic energy, m**2/s**2
 5 - dissipation rate, m**2/s**3
 6 - kinematic heat conductance, m**2/s
 7 - modulus of horizontal velocity, m/s
 8 - Richardson number, n/d
   -0.000000   17.89854  0.0000E+00  0.6362E-03  0.2692E-02  0.9682E-04  0.3177E+00 -0.1016E+00
   -0.042497   18.22858  0.0000E+00  0.3042E-03  0.9736E-03  0.1555E-03  0.7070E-01  0.5706E-01
   -0.084994   18.40148  0.0000E+00  0.1965E-03  0.3571E-03  0.2046E-03  0.3871E-01  0.3558E+01
   -0.127492   18.46729  0.0000E+00  0.1427E-03  0.1762E-03  0.2291E-03  0.2910E-01  0.4513E+02
   -0.169990   18.50209  0.0000E+00  0.1072E-03  0.8846E-04  0.2635E-03  0.2303E-01  0.7855E+02
   -0.212489   18.52928  0.0000E+00  0.8212E-04  0.4756E-04  0.3155E-03  0.1820E-01  0.3844E+03
   -0.254988   18.54779  0.0000E+00  0.6419E-04  0.2537E-04  0.3766E-03  0.1478E-01  0.5803E+02
   -0.297487   18.56236  0.0000E+00  0.5223E-04  0.1443E-04  0.4347E-03  0.1248E-01  0.6684E+02
   -0.339986   18.57274  0.0000E+00  0.4408E-04  0.8170E-05  0.4835E-03  0.1080E-01  0.7485E+02
   -0.382486   18.58231  0.0000E+00  0.3848E-04  0.4532E-05  0.5438E-03  0.9211E-02  0.2744E+03
   -0.424985   18.58937  0.0000E+00  0.3470E-04  0.2549E-05  0.5871E-03  0.8005E-02  0.4742E+02
   -0.467486   18.59658  0.0000E+00  0.3215E-04  0.1392E-05  0.6336E-03  0.6856E-02  0.1206E+03
   -0.509986   18.60189  0.0000E+00  0.3050E-04  0.8907E-06  0.6910E-03  0.5889E-02  0.1587E+03
   -0.552486   18.60636  0.0000E+00  0.2939E-04  0.6025E-06  0.7589E-03  0.5059E-02  0.3899E+03
   -0.594987   18.61018  0.0000E+00  0.2865E-04  0.4380E-06  0.8073E-03  0.4347E-02  0.6504E+03
   -0.637488   18.61424  0.0000E+00  0.2807E-04  0.3328E-06  0.8761E-03  0.3691E-02  0.1759E+03
   -0.679988   18.61744  0.0000E+00  0.2761E-04  0.2687E-06  0.9315E-03  0.3155E-02  0.3266E+04
   -0.722489   18.62141  0.0000E+00  0.2718E-04  0.2279E-06  0.1000E-02  0.2649E-02  0.1232E+04
   -0.764990   18.62423  0.0000E+00  0.2679E-04  0.1992E-06  0.1062E-02  0.2264E-02  0.1356E+06
   -0.807491   18.62705  0.0000E+00  0.2641E-04  0.1781E-06  0.1120E-02  0.1960E-02  0.2543E+03
   -0.849992   18.62969  0.0000E+00  0.2603E-04  0.1629E-06  0.1186E-02  0.1701E-02  0.5667E+02
   -0.892493   18.63213  0.0000E+00  0.2564E-04  0.1513E-06  0.1239E-02  0.1496E-02  0.4070E+02
   -0.934994   18.63458  0.0000E+00  0.2522E-04  0.1424E-06  0.1261E-02  0.1321E-02  0.3652E+02
   -0.977495   18.63689  0.0000E+00  0.2477E-04  0.1361E-06  0.1267E-02  0.1165E-02  0.3203E+02
   -1.019996   18.63920  0.0000E+00  0.2431E-04  0.1323E-06  0.1301E-02  0.1032E-02  0.4768E+03
   -1.062497   18.64148  0.0000E+00  0.2384E-04  0.1306E-06  0.1247E-02  0.9190E-03  0.3021E+02
   -1.104998   18.64381  0.0000E+00  0.2334E-04  0.1310E-06  0.1247E-02  0.8202E-03  0.3425E+02
   -1.147498   18.64612  0.0000E+00  0.2282E-04  0.1341E-06  0.1161E-02  0.7282E-03  0.1275E+02
   -1.189999   18.64862  0.0000E+00  0.2230E-04  0.1401E-06  0.1124E-02  0.6415E-03  0.2665E+02
   -1.232499   18.65118  0.0000E+00  0.2174E-04  0.1512E-06  0.1074E-02  0.5584E-03  0.1360E+03
   -1.274999   18.65409  0.0000E+00  0.2113E-04  0.1693E-06  0.1018E-02  0.4872E-03  0.1576E+03
   -1.317499   18.65746  0.0000E+00  0.2042E-04  0.1994E-06  0.9546E-03  0.4246E-03  0.1396E+05
   -1.359998   18.66231  0.0000E+00  0.1954E-04  0.2477E-06  0.8825E-03  0.3675E-03 -0.1247E+04
   -1.402498   18.66760  0.0000E+00  0.1844E-04  0.3398E-06  0.7823E-03  0.3187E-03  0.2049E+04
   -1.444997   18.67657  0.0000E+00  0.1718E-04  0.4831E-06  0.7134E-03  0.2678E-03  0.2242E+05
   -1.487496   18.68521  0.0000E+00  0.1610E-04  0.7075E-06  0.6330E-03  0.2135E-03  0.1003E+05
   -1.529994   18.69947  0.0000E+00  0.1484E-04  0.1343E-05  0.5190E-03  0.1555E-03  0.2842E+05
   -1.572492   18.74451  0.0000E+00  0.1387E-04  0.2236E-05  0.5464E-03  0.1000E-03  0.3312E+11
   -1.614990   18.70168  0.0000E+00  0.1198E-04  0.7756E-05  0.3234E-03  0.8254E-04 -0.3111E+10
   -1.657487   18.92465  0.0000E+00  0.9480E-05  0.1350E-04  0.3486E-03  0.5124E-04  0.1374E+08
   -1.699984   18.86624  0.0000E+00  0.0000E+00  0.0000E+00  0.0000E+00  0.1202E-03  0.0000E+00
