 1 - depth, m
 2 - temperature, C
 3 - salinity, kg/kg
 4 - turbulent kinetic energy, m**2/s**2
 5 - dissipation rate, m**2/s**3
 6 - kinematic heat conductance, m**2/s
 7 - modulus of horizontal velocity, m/s
 8 - Richardson number, n/d
   -0.000000   17.00069  0.0000E+00  0.9474E-03  0.6210E-02  0.1310E-03  0.3758E+00 -0.4248E-02
   -0.042498   17.31499  0.0000E+00  0.4500E-03  0.3209E-02  0.2243E-03  0.7948E-01 -0.5815E-01
   -0.084996   17.43034  0.0000E+00  0.2992E-03  0.1579E-02  0.2707E-03  0.4503E-01  0.7452E+00
   -0.127495   17.47445  0.0000E+00  0.2254E-03  0.9082E-03  0.2580E-03  0.3513E-01  0.8028E+01
   -0.169994   17.49948  0.0000E+00  0.1723E-03  0.4465E-03  0.2712E-03  0.2863E-01  0.5780E+01
   -0.212494   17.51813  0.0000E+00  0.1347E-03  0.2417E-03  0.3101E-03  0.2341E-01  0.6323E+01
   -0.254993   17.53587  0.0000E+00  0.1046E-03  0.1534E-03  0.3569E-03  0.1954E-01  0.8551E+02
   -0.297493   17.54957  0.0000E+00  0.8352E-04  0.9815E-04  0.3995E-03  0.1670E-01  0.4233E+02
   -0.339994   17.56185  0.0000E+00  0.6952E-04  0.6041E-04  0.4520E-03  0.1450E-01  0.5793E+02
   -0.382494   17.57146  0.0000E+00  0.5913E-04  0.3519E-04  0.5012E-03  0.1249E-01  0.4491E+02
   -0.424995   17.57896  0.0000E+00  0.5145E-04  0.1994E-04  0.5369E-03  0.1112E-01  0.2954E+02
   -0.467496   17.58557  0.0000E+00  0.4591E-04  0.1116E-04  0.5967E-03  0.9615E-02  0.8530E+02
   -0.509997   17.59205  0.0000E+00  0.4177E-04  0.6288E-05  0.6526E-03  0.8271E-02  0.7403E+03
   -0.552499   17.59721  0.0000E+00  0.3871E-04  0.3725E-05  0.7134E-03  0.7099E-02  0.1799E+03
   -0.595000   17.60189  0.0000E+00  0.3639E-04  0.2258E-05  0.7668E-03  0.6065E-02  0.1477E+03
   -0.637502   17.60539  0.0000E+00  0.3456E-04  0.1454E-05  0.8289E-03  0.5174E-02  0.2268E+03
   -0.680004   17.60897  0.0000E+00  0.3302E-04  0.9362E-06  0.9025E-03  0.4457E-02  0.1294E+03
   -0.722506   17.61182  0.0000E+00  0.3169E-04  0.6204E-06  0.9601E-03  0.3848E-02  0.1652E+02
   -0.765007   17.61511  0.0000E+00  0.3050E-04  0.4436E-06  0.1034E-02  0.3332E-02  0.3228E+02
   -0.807509   17.61779  0.0000E+00  0.2947E-04  0.3417E-06  0.1116E-02  0.2918E-02  0.2424E+02
   -0.850011   17.62056  0.0000E+00  0.2861E-04  0.2788E-06  0.1174E-02  0.2585E-02  0.2436E+02
   -0.892513   17.62317  0.0000E+00  0.2780E-04  0.2381E-06  0.1212E-02  0.2304E-02  0.2285E+02
   -0.935015   17.62560  0.0000E+00  0.2700E-04  0.2087E-06  0.1213E-02  0.2051E-02  0.5180E+01
   -0.977517   17.62814  0.0000E+00  0.2620E-04  0.1862E-06  0.1224E-02  0.1810E-02  0.2025E+02
   -1.020019   17.63054  0.0000E+00  0.2542E-04  0.1696E-06  0.1225E-02  0.1604E-02  0.1705E+02
   -1.062521   17.63290  0.0000E+00  0.2468E-04  0.1576E-06  0.1231E-02  0.1416E-02 -0.1349E+02
   -1.105023   17.63519  0.0000E+00  0.2400E-04  0.1501E-06  0.1217E-02  0.1265E-02  0.1269E+02
   -1.147524   17.63748  0.0000E+00  0.2335E-04  0.1460E-06  0.1178E-02  0.1131E-02  0.1109E+02
   -1.190026   17.63978  0.0000E+00  0.2271E-04  0.1452E-06  0.1104E-02  0.1002E-02  0.6581E+01
   -1.232527   17.64221  0.0000E+00  0.2202E-04  0.1482E-06  0.1052E-02  0.8672E-03  0.9699E+03
   -1.275028   17.64484  0.0000E+00  0.2130E-04  0.1570E-06  0.9797E-03  0.7441E-03  0.3923E+02
   -1.317529   17.64800  0.0000E+00  0.2052E-04  0.1742E-06  0.9195E-03  0.6426E-03  0.3408E+03
   -1.360029   17.65202  0.0000E+00  0.1960E-04  0.2076E-06  0.8589E-03  0.5480E-03  0.6008E+04
   -1.402530   17.65695  0.0000E+00  0.1845E-04  0.2717E-06  0.7816E-03  0.4701E-03  0.6548E+03
   -1.445030   17.66456  0.0000E+00  0.1714E-04  0.3828E-06  0.6805E-03  0.3951E-03 -0.4986E+05
   -1.487529   17.67362  0.0000E+00  0.1599E-04  0.5582E-06  0.6128E-03  0.3103E-03  0.3831E+04
   -1.530029   17.68354  0.0000E+00  0.1476E-04  0.1025E-05  0.5013E-03  0.2274E-03  0.5687E+06
   -1.572528   17.72751  0.0000E+00  0.1381E-04  0.1822E-05  0.5474E-03  0.1451E-03  0.4023E+11
   -1.615027   17.68782  0.0000E+00  0.1187E-04  0.5618E-05  0.2989E-03  0.1193E-03 -0.1652E+10
   -1.657525   17.91679  0.0000E+00  0.9277E-05  0.1054E-04  0.3139E-03  0.7314E-04 -0.1172E+08
   -1.700023   17.85057  0.0000E+00  0.0000E+00  0.0000E+00  0.0000E+00  0.1557E-03  0.0000E+00
