 1 - depth, m
 2 - temperature, C
 3 - salinity, kg/kg
 4 - turbulent kinetic energy, m**2/s**2
 5 - dissipation rate, m**2/s**3
 6 - kinematic heat conductance, m**2/s
 7 - modulus of horizontal velocity, m/s
 8 - Richardson number, n/d
   -0.000000    6.27045  0.0000E+00  0.2249E-03  0.2966E-03  0.5644E-04  0.1127E+00 -0.7273E-01
   -0.042497    6.55591  0.0000E+00  0.1135E-03  0.8488E-04  0.1247E-03  0.2646E-01  0.2490E+01
   -0.084995    6.61749  0.0000E+00  0.8206E-04  0.3925E-04  0.1465E-03  0.1711E-01  0.9451E+00
   -0.127493    6.65873  0.0000E+00  0.6320E-04  0.2103E-04  0.1723E-03  0.1349E-01  0.5394E+02
   -0.169991    6.68886  0.0000E+00  0.4897E-04  0.1142E-04  0.2244E-03  0.1097E-01  0.1222E+02
   -0.212490    6.71239  0.0000E+00  0.3846E-04  0.6380E-05  0.2777E-03  0.8978E-02  0.6216E+01
   -0.254989    6.73209  0.0000E+00  0.3069E-04  0.3606E-05  0.3374E-03  0.7469E-02  0.5246E+01
   -0.297488    6.74889  0.0000E+00  0.2514E-04  0.2054E-05  0.3999E-03  0.6354E-02  0.6280E+02
   -0.339988    6.76334  0.0000E+00  0.2133E-04  0.1187E-05  0.4609E-03  0.5456E-02  0.8906E+01
   -0.382488    6.77631  0.0000E+00  0.1872E-04  0.7002E-06  0.5259E-03  0.4638E-02  0.2184E+03
   -0.424988    6.78762  0.0000E+00  0.1701E-04  0.4318E-06  0.5827E-03  0.3971E-02  0.1754E+02
   -0.467488    6.79781  0.0000E+00  0.1586E-04  0.2806E-06  0.6422E-03  0.3370E-02  0.1780E+02
   -0.509989    6.80631  0.0000E+00  0.1509E-04  0.1964E-06  0.7030E-03  0.2852E-02  0.1037E+03
   -0.552489    6.81379  0.0000E+00  0.1461E-04  0.1475E-06  0.7622E-03  0.2409E-02  0.9983E+02
   -0.594990    6.82034  0.0000E+00  0.1430E-04  0.1162E-06  0.8243E-03  0.2025E-02  0.7673E+01
   -0.637491    6.82616  0.0000E+00  0.1410E-04  0.9531E-07  0.8983E-03  0.1696E-02  0.8458E+01
   -0.679992    6.83143  0.0000E+00  0.1399E-04  0.8132E-07  0.9751E-03  0.1424E-02  0.2679E+01
   -0.722493    6.83630  0.0000E+00  0.1392E-04  0.7133E-07  0.1048E-02  0.1199E-02  0.2128E+01
   -0.764995    6.84093  0.0000E+00  0.1387E-04  0.6400E-07  0.1112E-02  0.1014E-02  0.2151E+01
   -0.807496    6.84542  0.0000E+00  0.1384E-04  0.5857E-07  0.1162E-02  0.8686E-03  0.1784E+01
   -0.849997    6.84980  0.0000E+00  0.1379E-04  0.5457E-07  0.1195E-02  0.7491E-03  0.1515E+01
   -0.892498    6.85412  0.0000E+00  0.1374E-04  0.5145E-07  0.1202E-02  0.6509E-03  0.1986E+01
   -0.935000    6.85853  0.0000E+00  0.1369E-04  0.4980E-07  0.1316E-02  0.5636E-03  0.2646E+01
   -0.977501    6.86251  0.0000E+00  0.1365E-04  0.4911E-07  0.1221E-02  0.5257E-03  0.7549E+01
   -1.020002    6.86678  0.0000E+00  0.1360E-04  0.4872E-07  0.1198E-02  0.4937E-03  0.1551E+01
   -1.062503    6.87123  0.0000E+00  0.1350E-04  0.4845E-07  0.1182E-02  0.4385E-03  0.1597E+01
   -1.105004    6.87571  0.0000E+00  0.1338E-04  0.4878E-07  0.1150E-02  0.3925E-03  0.1759E+01
   -1.147505    6.88030  0.0000E+00  0.1326E-04  0.4968E-07  0.1113E-02  0.3505E-03  0.1996E+01
   -1.190005    6.88494  0.0000E+00  0.1313E-04  0.5121E-07  0.1067E-02  0.3113E-03  0.2480E+01
   -1.232506    6.88963  0.0000E+00  0.1299E-04  0.5368E-07  0.1016E-02  0.2750E-03  0.5133E+01
   -1.275006    6.89481  0.0000E+00  0.1282E-04  0.5747E-07  0.9524E-03  0.2431E-03  0.2914E+01
   -1.317506    6.90063  0.0000E+00  0.1262E-04  0.6334E-07  0.8941E-03  0.2151E-03  0.1058E+04
   -1.360006    6.90776  0.0000E+00  0.1234E-04  0.7357E-07  0.8083E-03  0.1898E-03  0.6478E+03
   -1.402506    6.91747  0.0000E+00  0.1193E-04  0.9004E-07  0.7338E-03  0.1660E-03  0.9697E+03
   -1.445005    6.92875  0.0000E+00  0.1139E-04  0.1184E-06  0.6399E-03  0.1430E-03  0.5449E+05
   -1.487504    6.94783  0.0000E+00  0.1082E-04  0.1616E-06  0.5720E-03  0.1141E-03  0.2648E+05
   -1.530003    6.96209  0.0000E+00  0.1016E-04  0.2862E-06  0.4389E-03  0.8758E-04 -0.2154E+06
   -1.572501    7.05419  0.0000E+00  0.9524E-05  0.5158E-06  0.4653E-03  0.5789E-04  0.4193E+10
   -1.614999    6.98161  0.0000E+00  0.8254E-05  0.1425E-05  0.2068E-03  0.4711E-04 -0.4465E+10
   -1.657497    7.42291  0.0000E+00  0.6259E-05  0.3099E-05  0.1973E-03  0.2915E-04 -0.8121E+06
   -1.699994    7.33624  0.0000E+00  0.0000E+00  0.0000E+00  0.0000E+00  0.5182E-04  0.0000E+00
