 1 - depth, m
 2 - temperature, C
 3 - salinity, kg/kg
 4 - turbulent kinetic energy, m**2/s**2
 5 - dissipation rate, m**2/s**3
 6 - kinematic heat conductance, m**2/s
 7 - modulus of horizontal velocity, m/s
 8 - Richardson number, n/d
   -0.000000    6.39884  0.0000E+00  0.9026E-05  0.5566E-06  0.2058E-04  0.1038E-01 -0.1866E+00
   -0.042497    6.54382  0.0000E+00  0.8128E-05  0.1860E-06  0.1144E-03  0.4631E-02  0.1215E+03
   -0.084995    6.58098  0.0000E+00  0.7766E-05  0.1007E-06  0.1976E-03  0.2992E-02  0.1182E+03
   -0.127493    6.60151  0.0000E+00  0.7750E-05  0.6877E-07  0.2855E-03  0.2190E-02  0.9331E+02
   -0.169991    6.61459  0.0000E+00  0.7941E-05  0.5402E-07  0.3816E-03  0.1729E-02  0.2576E+02
   -0.212490    6.62350  0.0000E+00  0.8248E-05  0.4600E-07  0.4810E-03  0.1430E-02  0.1578E+02
   -0.254989    6.63036  0.0000E+00  0.8610E-05  0.4082E-07  0.5777E-03  0.1212E-02  0.1431E+01
   -0.297489    6.63626  0.0000E+00  0.8992E-05  0.3718E-07  0.6781E-03  0.1040E-02  0.1414E+01
   -0.339988    6.64142  0.0000E+00  0.9368E-05  0.3463E-07  0.7729E-03  0.9047E-03  0.1422E+01
   -0.382488    6.64599  0.0000E+00  0.9731E-05  0.3279E-07  0.8607E-03  0.7920E-03  0.1395E+01
   -0.424988    6.65015  0.0000E+00  0.1007E-04  0.3147E-07  0.9397E-03  0.6975E-03  0.1400E+01
   -0.467489    6.65395  0.0000E+00  0.1039E-04  0.3054E-07  0.1015E-02  0.6140E-03  0.1386E+01
   -0.509989    6.65746  0.0000E+00  0.1069E-04  0.2992E-07  0.1087E-02  0.5396E-03  0.1356E+01
   -0.552490    6.66073  0.0000E+00  0.1097E-04  0.2955E-07  0.1158E-02  0.4735E-03  0.1331E+01
   -0.594991    6.66380  0.0000E+00  0.1122E-04  0.2940E-07  0.1225E-02  0.4151E-03  0.1300E+01
   -0.637492    6.66670  0.0000E+00  0.1145E-04  0.2943E-07  0.1291E-02  0.3644E-03  0.1269E+01
   -0.679993    6.66953  0.0000E+00  0.1166E-04  0.2962E-07  0.1352E-02  0.3221E-03  0.1270E+01
   -0.722494    6.67232  0.0000E+00  0.1185E-04  0.2993E-07  0.1399E-02  0.2870E-03  0.1296E+01
   -0.764995    6.67514  0.0000E+00  0.1201E-04  0.3035E-07  0.1425E-02  0.2587E-03  0.1352E+01
   -0.807496    6.67806  0.0000E+00  0.1216E-04  0.3084E-07  0.1435E-02  0.2359E-03  0.1474E+01
   -0.849998    6.68112  0.0000E+00  0.1228E-04  0.3140E-07  0.1434E-02  0.2172E-03  0.1625E+01
   -0.892499    6.68427  0.0000E+00  0.1237E-04  0.3203E-07  0.1427E-02  0.2014E-03  0.1820E+01
   -0.935000    6.68755  0.0000E+00  0.1245E-04  0.3274E-07  0.1414E-02  0.1877E-03  0.2087E+01
   -0.977501    6.69091  0.0000E+00  0.1251E-04  0.3353E-07  0.1395E-02  0.1755E-03  0.2381E+01
   -1.020003    6.69437  0.0000E+00  0.1254E-04  0.3443E-07  0.1370E-02  0.1644E-03  0.2762E+01
   -1.062504    6.69791  0.0000E+00  0.1256E-04  0.3548E-07  0.1338E-02  0.1539E-03  0.3163E+01
   -1.105005    6.70153  0.0000E+00  0.1255E-04  0.3672E-07  0.1298E-02  0.1438E-03  0.3621E+01
   -1.147505    6.70524  0.0000E+00  0.1253E-04  0.3818E-07  0.1256E-02  0.1339E-03  0.4204E+01
   -1.190006    6.70897  0.0000E+00  0.1248E-04  0.3995E-07  0.1202E-02  0.1240E-03  0.5014E+01
   -1.232507    6.71271  0.0000E+00  0.1242E-04  0.4226E-07  0.1146E-02  0.1140E-03  0.6384E+01
   -1.275007    6.71672  0.0000E+00  0.1234E-04  0.4549E-07  0.1070E-02  0.1044E-03  0.1241E+02
   -1.317507    6.72140  0.0000E+00  0.1222E-04  0.5010E-07  0.9996E-03  0.9473E-04 -0.2188E+03
   -1.360007    6.72673  0.0000E+00  0.1204E-04  0.5729E-07  0.9024E-03  0.8547E-04  0.1823E+03
   -1.402507    6.73445  0.0000E+00  0.1176E-04  0.6875E-07  0.8181E-03  0.7600E-04  0.1202E+05
   -1.445006    6.74284  0.0000E+00  0.1138E-04  0.8770E-07  0.7054E-03  0.6699E-04  0.1228E+07
   -1.487505    6.75751  0.0000E+00  0.1095E-04  0.1163E-06  0.6381E-03  0.5535E-04  0.1482E+06
   -1.530004    6.76883  0.0000E+00  0.1042E-04  0.1868E-06  0.5045E-03  0.4425E-04 -0.1035E+06
   -1.572502    6.82929  0.0000E+00  0.9846E-05  0.3259E-06  0.5094E-03  0.3191E-04  0.6181E+10
   -1.615000    6.79204  0.0000E+00  0.8511E-05  0.8825E-06  0.2215E-03  0.2591E-04 -0.1170E+11
   -1.657498    7.14390  0.0000E+00  0.6337E-05  0.2064E-05  0.1694E-03  0.1683E-04 -0.9456E+06
   -1.699995    7.10774  0.0000E+00  0.0000E+00  0.0000E+00  0.0000E+00  0.2535E-04  0.0000E+00
