 1 - depth, m
 2 - temperature, C
 3 - salinity, kg/kg
 4 - turbulent kinetic energy, m**2/s**2
 5 - dissipation rate, m**2/s**3
 6 - kinematic heat conductance, m**2/s
 7 - modulus of horizontal velocity, m/s
 8 - Richardson number, n/d
   -0.000000    5.77097  0.0000E+00  0.8527E-03  0.5010E-02  0.1155E-03  0.3832E+00  0.1158E+00
   -0.042497    6.17686  0.0000E+00  0.4423E-03  0.2958E-02  0.2143E-03  0.8687E-01 -0.3467E-02
   -0.084995    6.31915  0.0000E+00  0.2912E-03  0.7919E-03  0.2373E-03  0.5026E-01 -0.1466E-01
   -0.127493    6.39844  0.0000E+00  0.2190E-03  0.4305E-03  0.2257E-03  0.3850E-01  0.4745E+00
   -0.169991    6.44537  0.0000E+00  0.1715E-03  0.2650E-03  0.2267E-03  0.3111E-01  0.8180E+04
   -0.212490    6.48173  0.0000E+00  0.1358E-03  0.1635E-03  0.2492E-03  0.2554E-01  0.7068E+02
   -0.254989    6.51399  0.0000E+00  0.1095E-03  0.9931E-04  0.2865E-03  0.2128E-01  0.3252E+00
   -0.297488    6.53822  0.0000E+00  0.9042E-04  0.5981E-04  0.3205E-03  0.1844E-01  0.1196E+03
   -0.339987    6.55866  0.0000E+00  0.7611E-04  0.3553E-04  0.3477E-03  0.1629E-01  0.1543E+02
   -0.382487    6.57816  0.0000E+00  0.6548E-04  0.2090E-04  0.3816E-03  0.1427E-01  0.1893E+03
   -0.424987    6.59396  0.0000E+00  0.5768E-04  0.1207E-04  0.4117E-03  0.1272E-01  0.4989E+03
   -0.467487    6.60946  0.0000E+00  0.5171E-04  0.6948E-05  0.4497E-03  0.1121E-01  0.1459E+03
   -0.509988    6.62158  0.0000E+00  0.4707E-04  0.4054E-05  0.4899E-03  0.9879E-02  0.4632E+03
   -0.552488    6.63395  0.0000E+00  0.4333E-04  0.2429E-05  0.5339E-03  0.8699E-02  0.3041E+02
   -0.594989    6.64367  0.0000E+00  0.4024E-04  0.1563E-05  0.5861E-03  0.7637E-02  0.5878E+02
   -0.637490    6.65310  0.0000E+00  0.3758E-04  0.1072E-05  0.6412E-03  0.6706E-02  0.4143E+02
   -0.679991    6.66089  0.0000E+00  0.3526E-04  0.7682E-06  0.6976E-03  0.5931E-02  0.7284E+01
   -0.722492    6.66874  0.0000E+00  0.3321E-04  0.5917E-06  0.7580E-03  0.5256E-02  0.4854E+02
   -0.764993    6.67552  0.0000E+00  0.3136E-04  0.4730E-06  0.8219E-03  0.4689E-02 -0.8547E+01
   -0.807494    6.68256  0.0000E+00  0.2968E-04  0.3864E-06  0.8862E-03  0.4218E-02 -0.8339E+03
   -0.849996    6.68869  0.0000E+00  0.2816E-04  0.3243E-06  0.9359E-03  0.3811E-02  0.2575E+03
   -0.892497    6.69513  0.0000E+00  0.2676E-04  0.2768E-06  0.9752E-03  0.3450E-02  0.7948E+01
   -0.934998    6.70103  0.0000E+00  0.2551E-04  0.2400E-06  0.1016E-02  0.3134E-02  0.1353E+02
   -0.977499    6.70691  0.0000E+00  0.2435E-04  0.2106E-06  0.1037E-02  0.2848E-02  0.8663E+01
   -1.020000    6.71255  0.0000E+00  0.2328E-04  0.1867E-06  0.1038E-02  0.2588E-02  0.2784E+02
   -1.062501    6.71809  0.0000E+00  0.2228E-04  0.1673E-06  0.1035E-02  0.2340E-02  0.4890E+01
   -1.105002    6.72358  0.0000E+00  0.2135E-04  0.1517E-06  0.1018E-02  0.2110E-02  0.4503E+01
   -1.147503    6.72899  0.0000E+00  0.2049E-04  0.1398E-06  0.9971E-03  0.1889E-02  0.7817E+01
   -1.190003    6.73431  0.0000E+00  0.1970E-04  0.1312E-06  0.9674E-03  0.1673E-02  0.1208E+02
   -1.232504    6.73955  0.0000E+00  0.1893E-04  0.1255E-06  0.9336E-03  0.1464E-02  0.3160E+03
   -1.275004    6.74517  0.0000E+00  0.1817E-04  0.1231E-06  0.8938E-03  0.1276E-02  0.1330E+02
   -1.317504    6.75138  0.0000E+00  0.1738E-04  0.1247E-06  0.8492E-03  0.1107E-02 -0.2806E+02
   -1.360004    6.75869  0.0000E+00  0.1654E-04  0.1330E-06  0.7845E-03  0.9583E-03 -0.8436E+02
   -1.402503    6.76817  0.0000E+00  0.1557E-04  0.1531E-06  0.7106E-03  0.8303E-03  0.1036E+05
   -1.445003    6.78011  0.0000E+00  0.1452E-04  0.1926E-06  0.6179E-03  0.7127E-03  0.9145E+05
   -1.487502    6.79717  0.0000E+00  0.1348E-04  0.2628E-06  0.5537E-03  0.5849E-03  0.4003E+05
   -1.530000    6.81378  0.0000E+00  0.1238E-04  0.4387E-06  0.4479E-03  0.4433E-03 -0.7546E+05
   -1.572499    6.88437  0.0000E+00  0.1142E-04  0.7979E-06  0.4550E-03  0.3040E-03  0.5754E+10
   -1.614996    6.83276  0.0000E+00  0.9702E-05  0.2342E-05  0.2271E-03  0.2499E-03 -0.1256E+10
   -1.657494    7.22489  0.0000E+00  0.7235E-05  0.4862E-05  0.2173E-03  0.1705E-03 -0.3463E+06
   -1.699991    7.16430  0.0000E+00  0.0000E+00  0.0000E+00  0.0000E+00  0.3120E-03  0.0000E+00
