 1 - depth, m
 2 - temperature, C
 3 - salinity, kg/kg
 4 - turbulent kinetic energy, m**2/s**2
 5 - dissipation rate, m**2/s**3
 6 - kinematic heat conductance, m**2/s
 7 - modulus of horizontal velocity, m/s
 8 - Richardson number, n/d
   -0.000000    4.55687  0.0000E+00  0.9456E-02  0.3239E+00  0.3248E-03  0.2341E+01  0.8124E-04
   -0.042497    4.81969  0.0000E+00  0.4806E-02  0.2028E+00  0.9094E-03  0.5034E+00  0.1752E-01
   -0.084995    4.98097  0.0000E+00  0.3138E-02  0.6994E-01  0.1238E-02  0.2381E+00  0.5168E-01
   -0.127493    5.03117  0.0000E+00  0.2462E-02  0.5033E-01  0.1339E-02  0.1707E+00 -0.2428E-01
   -0.169991    5.05095  0.0000E+00  0.2041E-02  0.3972E-01  0.1254E-02  0.1378E+00 -0.3099E+00
   -0.212490    5.07165  0.0000E+00  0.1732E-02  0.3240E-01  0.1244E-02  0.1124E+00  0.9601E-01
   -0.254989    5.08293  0.0000E+00  0.1498E-02  0.2676E-01  0.1215E-02  0.9699E-01  0.7975E+00
   -0.297489    5.09248  0.0000E+00  0.1310E-02  0.2217E-01  0.1181E-02  0.8874E-01 -0.1878E+00
   -0.339988    5.10088  0.0000E+00  0.1146E-02  0.1849E-01  0.1117E-02  0.8363E-01 -0.8176E+00
   -0.382488    5.10995  0.0000E+00  0.1010E-02  0.1550E-01  0.1076E-02  0.7737E-01 -0.1344E+02
   -0.424989    5.11715  0.0000E+00  0.8981E-03  0.1270E-01  0.1036E-02  0.7403E-01  0.1779E+02
   -0.467489    5.12231  0.0000E+00  0.8021E-03  0.1035E-01  0.1044E-02  0.6805E-01  0.3692E-01
   -0.509989    5.12931  0.0000E+00  0.7213E-03  0.8737E-02  0.1000E-02  0.6270E-01  0.1007E+01
   -0.552490    5.13638  0.0000E+00  0.6520E-03  0.7439E-02  0.9982E-03  0.5747E-01  0.1612E+01
   -0.594991    5.14557  0.0000E+00  0.5885E-03  0.6376E-02  0.9753E-03  0.5232E-01  0.2585E+01
   -0.637492    5.15738  0.0000E+00  0.5377E-03  0.5491E-02  0.9937E-03  0.4736E-01  0.3647E+02
   -0.679993    5.16405  0.0000E+00  0.4934E-03  0.4748E-02  0.9958E-03  0.4406E-01  0.5065E+03
   -0.722494    5.17398  0.0000E+00  0.4549E-03  0.4114E-02  0.9948E-03  0.4095E-01  0.1716E+03
   -0.764996    5.18119  0.0000E+00  0.4207E-03  0.3556E-02  0.1001E-02  0.3859E-01 -0.5140E+04
   -0.807497    5.18950  0.0000E+00  0.3909E-03  0.3054E-02  0.1010E-02  0.3709E-01 -0.5104E+05
   -0.849998    5.19837  0.0000E+00  0.3644E-03  0.2610E-02  0.9822E-03  0.3563E-01 -0.4321E+05
   -0.892500    5.21015  0.0000E+00  0.3381E-03  0.2219E-02  0.1005E-02  0.3285E-01  0.2186E+05
   -0.935001    5.21919  0.0000E+00  0.3156E-03  0.1882E-02  0.9903E-03  0.3180E-01  0.2807E+07
   -0.977502    5.22710  0.0000E+00  0.2946E-03  0.1592E-02  0.9912E-03  0.3032E-01  0.1492E+08
   -1.020003    5.23681  0.0000E+00  0.2762E-03  0.1342E-02  0.9761E-03  0.2929E-01  0.3213E+08
   -1.062504    5.24347  0.0000E+00  0.2595E-03  0.1125E-02  0.9752E-03  0.2795E-01  0.7642E+06
   -1.105005    5.25582  0.0000E+00  0.2443E-03  0.9402E-03  0.9627E-03  0.2680E-01  0.1260E+08
   -1.147506    5.26266  0.0000E+00  0.2307E-03  0.7895E-03  0.9362E-03  0.2573E-01  0.9661E+06
   -1.190007    5.27414  0.0000E+00  0.2186E-03  0.6708E-03  0.9173E-03  0.2366E-01  0.3410E+06
   -1.232508    5.28201  0.0000E+00  0.2069E-03  0.5751E-03  0.9079E-03  0.2143E-01  0.3806E+06
   -1.275008    5.29393  0.0000E+00  0.1959E-03  0.4931E-03  0.8933E-03  0.1995E-01  0.5806E+06
   -1.317508    5.30139  0.0000E+00  0.1852E-03  0.4226E-03  0.8619E-03  0.1861E-01  0.1045E+07
   -1.360008    5.31546  0.0000E+00  0.1748E-03  0.3603E-03  0.8410E-03  0.1735E-01  0.3664E+07
   -1.402508    5.32929  0.0000E+00  0.1644E-03  0.2986E-03  0.7773E-03  0.1636E-01  0.6607E+09
   -1.445007    5.34369  0.0000E+00  0.1545E-03  0.2489E-03  0.7029E-03  0.1541E-01  0.6780E+07
   -1.487506    5.36220  0.0000E+00  0.1447E-03  0.2128E-03  0.6053E-03  0.1373E-01  0.1027E+08
   -1.530005    5.38443  0.0000E+00  0.1331E-03  0.1945E-03  0.5601E-03  0.1100E-01  0.1923E+08
   -1.572503    5.42015  0.0000E+00  0.1209E-03  0.1967E-03  0.5374E-03  0.8916E-02  0.5018E+08
   -1.615002    5.48151  0.0000E+00  0.1022E-03  0.2406E-03  0.3326E-03  0.7836E-02  0.2150E+10
   -1.657499    5.64564  0.0000E+00  0.7564E-04  0.3449E-03  0.2827E-03  0.6181E-02 -0.2211E+13
   -1.699997    5.87562  0.0000E+00  0.0000E+00  0.0000E+00  0.0000E+00  0.8846E-02  0.0000E+00
