 1 - depth, m
 2 - temperature, C
 3 - salinity, kg/kg
 4 - turbulent kinetic energy, m**2/s**2
 5 - dissipation rate, m**2/s**3
 6 - kinematic heat conductance, m**2/s
 7 - modulus of horizontal velocity, m/s
 8 - Richardson number, n/d
   -0.000000   15.42215  0.0000E+00  0.2816E-02  0.4483E-01  0.2055E-03  0.8308E+00 -0.7776E-01
   -0.042497   15.77261  0.0000E+00  0.1333E-02  0.2833E-01  0.4210E-03  0.1760E+00 -0.4077E+00
   -0.084995   15.94030  0.0000E+00  0.8528E-03  0.8178E-02  0.4779E-03  0.9501E-01  0.1550E+02
   -0.127492   16.00786  0.0000E+00  0.6367E-03  0.4424E-02  0.4979E-03  0.7233E-01 -0.7184E+00
   -0.169991   16.04186  0.0000E+00  0.5023E-03  0.3070E-02  0.4304E-03  0.5751E-01  0.1145E+01
   -0.212489   16.06662  0.0000E+00  0.3984E-03  0.1959E-02  0.4257E-03  0.4670E-01  0.1165E+01
   -0.254988   16.08491  0.0000E+00  0.3222E-03  0.1302E-02  0.4543E-03  0.3905E-01 -0.3582E+01
   -0.297487   16.09717  0.0000E+00  0.2639E-03  0.9071E-03  0.4956E-03  0.3419E-01  0.4988E+01
   -0.339987   16.10623  0.0000E+00  0.2186E-03  0.5751E-03  0.5037E-03  0.3088E-01  0.1562E+01
   -0.382487   16.11430  0.0000E+00  0.1805E-03  0.3432E-03  0.5365E-03  0.2742E-01  0.1295E+03
   -0.424987   16.12171  0.0000E+00  0.1531E-03  0.2281E-03  0.5572E-03  0.2533E-01  0.1005E+03
   -0.467487   16.12835  0.0000E+00  0.1315E-03  0.1484E-03  0.6027E-03  0.2236E-01  0.5938E+03
   -0.509987   16.13567  0.0000E+00  0.1148E-03  0.9345E-04  0.6751E-03  0.1960E-01  0.1559E+03
   -0.552488   16.14146  0.0000E+00  0.1023E-03  0.5690E-04  0.7325E-03  0.1718E-01  0.3251E+03
   -0.594988   16.14863  0.0000E+00  0.9219E-04  0.3500E-04  0.7948E-03  0.1486E-01  0.4078E+03
   -0.637489   16.15434  0.0000E+00  0.8399E-04  0.2175E-04  0.8910E-03  0.1291E-01  0.1598E+03
   -0.679990   16.15877  0.0000E+00  0.7737E-04  0.1352E-04  0.9274E-03  0.1148E-01  0.6843E+03
   -0.722491   16.16280  0.0000E+00  0.7169E-04  0.8379E-05  0.1006E-02  0.1023E-01  0.1902E+03
   -0.764992   16.16691  0.0000E+00  0.6673E-04  0.5208E-05  0.1079E-02  0.9192E-02  0.3837E+03
   -0.807493   16.16966  0.0000E+00  0.6236E-04  0.3214E-05  0.1121E-02  0.8388E-02  0.1450E+03
   -0.849994   16.17386  0.0000E+00  0.5862E-04  0.2090E-05  0.1175E-02  0.7639E-02  0.1235E+03
   -0.892495   16.17687  0.0000E+00  0.5537E-04  0.1540E-05  0.1209E-02  0.6981E-02  0.1529E+03
   -0.934996   16.17939  0.0000E+00  0.5249E-04  0.1164E-05  0.1221E-02  0.6421E-02  0.2573E+02
   -0.977498   16.18329  0.0000E+00  0.4983E-04  0.8926E-06  0.1245E-02  0.5854E-02  0.6208E+02
   -1.019999   16.18570  0.0000E+00  0.4735E-04  0.7229E-06  0.1238E-02  0.5354E-02  0.6747E+02
   -1.062499   16.18927  0.0000E+00  0.4501E-04  0.6117E-06  0.1230E-02  0.4864E-02  0.2382E+02
   -1.105000   16.19198  0.0000E+00  0.4273E-04  0.5293E-06  0.1208E-02  0.4386E-02  0.2236E+02
   -1.147501   16.19523  0.0000E+00  0.4070E-04  0.4696E-06  0.1240E-02  0.3917E-02  0.2574E+04
   -1.190001   16.19802  0.0000E+00  0.3893E-04  0.4300E-06  0.1182E-02  0.3500E-02 -0.3025E+03
   -1.232502   16.20119  0.0000E+00  0.3718E-04  0.4032E-06  0.1118E-02  0.3091E-02  0.1020E+05
   -1.275002   16.20434  0.0000E+00  0.3538E-04  0.3877E-06  0.1049E-02  0.2694E-02  0.3630E+02
   -1.317502   16.20780  0.0000E+00  0.3357E-04  0.3889E-06  0.9747E-03  0.2362E-02  0.6399E+02
   -1.360002   16.21188  0.0000E+00  0.3159E-04  0.4162E-06  0.9005E-03  0.2048E-02 -0.2765E+02
   -1.402501   16.21703  0.0000E+00  0.2938E-04  0.4997E-06  0.8239E-03  0.1766E-02  0.2599E+03
   -1.445000   16.22396  0.0000E+00  0.2710E-04  0.6750E-06  0.7461E-03  0.1521E-02  0.2538E+04
   -1.487499   16.23352  0.0000E+00  0.2489E-04  0.1035E-05  0.6624E-03  0.1259E-02  0.1415E+05
   -1.529998   16.24295  0.0000E+00  0.2256E-04  0.1832E-05  0.5365E-03  0.9579E-03 -0.4709E+05
   -1.572496   16.28678  0.0000E+00  0.2044E-04  0.3790E-05  0.5358E-03  0.6627E-03  0.1330E+10
   -1.614994   16.25817  0.0000E+00  0.1736E-04  0.1080E-04  0.3020E-03  0.5292E-03 -0.3073E+11
   -1.657491   16.47527  0.0000E+00  0.1322E-04  0.1957E-04  0.3039E-03  0.3611E-03 -0.1760E+07
   -1.699989   16.44078  0.0000E+00  0.0000E+00  0.0000E+00  0.0000E+00  0.6272E-03  0.0000E+00
