 1 - depth, m
 2 - temperature, C
 3 - salinity, kg/kg
 4 - turbulent kinetic energy, m**2/s**2
 5 - dissipation rate, m**2/s**3
 6 - kinematic heat conductance, m**2/s
 7 - modulus of horizontal velocity, m/s
 8 - Richardson number, n/d
   -0.000000    4.00723  0.0000E+00  0.5311E-03  0.9751E-03  0.6228E-04  0.2298E+00 -0.1686E-02
   -0.042497    4.31697  0.0000E+00  0.2661E-03  0.2882E-03  0.2257E-03  0.5097E-01  0.3024E-01
   -0.084995    4.39049  0.0000E+00  0.1879E-03  0.1328E-03  0.1846E-03  0.3260E-01 -0.6628E-01
   -0.127493    4.44149  0.0000E+00  0.1410E-03  0.7218E-04  0.1649E-03  0.2599E-01  0.1599E-01
   -0.169992    4.48476  0.0000E+00  0.1066E-03  0.3849E-04  0.1514E-03  0.2136E-01  0.6443E+00
   -0.212490    4.52461  0.0000E+00  0.8076E-04  0.2078E-04  0.1512E-03  0.1744E-01  0.3138E+02
   -0.254990    4.56391  0.0000E+00  0.6113E-04  0.1105E-04  0.1525E-03  0.1431E-01  0.2413E+01
   -0.297489    4.60294  0.0000E+00  0.4703E-04  0.6038E-05  0.1759E-03  0.1193E-01  0.8400E+02
   -0.339989    4.63880  0.0000E+00  0.3731E-04  0.3366E-05  0.2006E-03  0.1002E-01  0.1117E+02
   -0.382489    4.67019  0.0000E+00  0.3038E-04  0.1915E-05  0.2226E-03  0.8387E-02  0.1025E+03
   -0.424989    4.69655  0.0000E+00  0.2549E-04  0.1134E-05  0.2482E-03  0.7164E-02  0.1340E+02
   -0.467489    4.71971  0.0000E+00  0.2193E-04  0.7104E-06  0.2763E-03  0.6061E-02  0.5493E+01
   -0.509990    4.74016  0.0000E+00  0.1925E-04  0.4752E-06  0.3100E-03  0.5111E-02  0.1037E+02
   -0.552491    4.75820  0.0000E+00  0.1716E-04  0.3392E-06  0.3455E-03  0.4298E-02  0.7069E+01
   -0.594992    4.77424  0.0000E+00  0.1549E-04  0.2550E-06  0.3840E-03  0.3586E-02  0.2449E+02
   -0.637493    4.78865  0.0000E+00  0.1412E-04  0.1973E-06  0.4283E-03  0.2987E-02  0.1013E+02
   -0.679994    4.80165  0.0000E+00  0.1298E-04  0.1556E-06  0.4749E-03  0.2509E-02  0.1966E+02
   -0.722495    4.81364  0.0000E+00  0.1202E-04  0.1242E-06  0.5259E-03  0.2116E-02  0.5316E+02
   -0.764996    4.82489  0.0000E+00  0.1121E-04  0.1005E-06  0.5805E-03  0.1800E-02  0.4030E+02
   -0.807498    4.83539  0.0000E+00  0.1053E-04  0.8201E-07  0.6257E-03  0.1551E-02  0.1514E+02
   -0.849999    4.84532  0.0000E+00  0.9949E-05  0.6771E-07  0.6653E-03  0.1344E-02  0.1401E+02
   -0.892500    4.85472  0.0000E+00  0.9456E-05  0.5659E-07  0.6983E-03  0.1172E-02  0.1512E+03
   -0.935002    4.86377  0.0000E+00  0.9037E-05  0.4793E-07  0.7258E-03  0.1026E-02  0.3938E+01
   -0.977503    4.87241  0.0000E+00  0.8685E-05  0.4124E-07  0.7489E-03  0.8993E-03  0.2288E+01
   -1.020004    4.88072  0.0000E+00  0.8391E-05  0.3612E-07  0.7667E-03  0.7897E-03  0.1175E+02
   -1.062505    4.88862  0.0000E+00  0.8145E-05  0.3224E-07  0.7789E-03  0.6923E-03  0.4440E+01
   -1.105007    4.89618  0.0000E+00  0.7937E-05  0.2929E-07  0.7862E-03  0.6058E-03  0.7045E+01
   -1.147507    4.90340  0.0000E+00  0.7765E-05  0.2714E-07  0.7880E-03  0.5257E-03  0.3004E+01
   -1.190008    4.91021  0.0000E+00  0.7625E-05  0.2568E-07  0.7842E-03  0.4500E-03  0.2350E+01
   -1.232509    4.91668  0.0000E+00  0.7506E-05  0.2473E-07  0.7744E-03  0.3796E-03  0.2471E+01
   -1.275009    4.92331  0.0000E+00  0.7401E-05  0.2422E-07  0.7575E-03  0.3194E-03  0.4047E+01
   -1.317509    4.93028  0.0000E+00  0.7309E-05  0.2417E-07  0.7314E-03  0.2688E-03  0.3942E+01
   -1.360009    4.93779  0.0000E+00  0.7225E-05  0.2463E-07  0.6954E-03  0.2270E-03  0.5539E+01
   -1.402509    4.94617  0.0000E+00  0.7139E-05  0.2581E-07  0.6509E-03  0.1933E-03  0.1407E+02
   -1.445009    4.95596  0.0000E+00  0.7051E-05  0.2793E-07  0.5979E-03  0.1640E-03  0.1616E+02
   -1.487508    4.96632  0.0000E+00  0.6959E-05  0.3154E-07  0.5514E-03  0.1361E-03  0.2112E+02
   -1.530007    4.97685  0.0000E+00  0.6854E-05  0.3933E-07  0.4436E-03  0.1074E-03  0.2634E+02
   -1.572505    4.99050  0.0000E+00  0.6722E-05  0.5683E-07  0.4507E-03  0.8010E-04  0.5413E+03
   -1.615003    5.00310  0.0000E+00  0.6154E-05  0.1394E-06  0.1835E-03  0.6461E-04 -0.8366E+07
   -1.657501    5.15879  0.0000E+00  0.4316E-05  0.3748E-06  0.7204E-04  0.4121E-04 -0.3691E+06
   -1.699998    5.32832  0.0000E+00  0.0000E+00  0.0000E+00  0.0000E+00  0.5385E-04  0.0000E+00
