 1 - depth, m
 2 - temperature, C
 3 - salinity, kg/kg
 4 - turbulent kinetic energy, m**2/s**2
 5 - dissipation rate, m**2/s**3
 6 - kinematic heat conductance, m**2/s
 7 - modulus of horizontal velocity, m/s
 8 - Richardson number, n/d
   -0.000000    6.91680  0.0000E+00  0.1929E-02  0.2394E-01  0.1209E-03  0.5661E+00 -0.1443E-01
   -0.042497    7.11012  0.0000E+00  0.9296E-03  0.1311E-01  0.2833E-03  0.1172E+00  0.1983E+02
   -0.084995    7.18545  0.0000E+00  0.6029E-03  0.4154E-02  0.3886E-03  0.6408E-01  0.2313E+00
   -0.127493    7.21498  0.0000E+00  0.4466E-03  0.2337E-02  0.3711E-03  0.4844E-01  0.6937E+01
   -0.169992    7.23212  0.0000E+00  0.3415E-03  0.1467E-02  0.3569E-03  0.3939E-01  0.6392E+00
   -0.212490    7.24518  0.0000E+00  0.2706E-03  0.1024E-02  0.3875E-03  0.3204E-01  0.7219E+02
   -0.254989    7.26259  0.0000E+00  0.2164E-03  0.6974E-03  0.4441E-03  0.2632E-01  0.8321E+02
   -0.297489    7.27594  0.0000E+00  0.1795E-03  0.4934E-03  0.4660E-03  0.2303E-01  0.2826E+01
   -0.339988    7.28501  0.0000E+00  0.1500E-03  0.3389E-03  0.5006E-03  0.2093E-01  0.2447E+02
   -0.382488    7.29305  0.0000E+00  0.1253E-03  0.2171E-03  0.5360E-03  0.1867E-01  0.2327E+02
   -0.424989    7.30057  0.0000E+00  0.1082E-03  0.1324E-03  0.5655E-03  0.1703E-01  0.2758E+02
   -0.467489    7.30767  0.0000E+00  0.9523E-04  0.7604E-04  0.6008E-03  0.1512E-01  0.6982E+01
   -0.509989    7.31424  0.0000E+00  0.8514E-04  0.4226E-04  0.6404E-03  0.1333E-01  0.8353E+02
   -0.552490    7.32032  0.0000E+00  0.7707E-04  0.2372E-04  0.6766E-03  0.1179E-01  0.4822E+03
   -0.594991    7.32810  0.0000E+00  0.6996E-04  0.1403E-04  0.7245E-03  0.1023E-01  0.1415E+04
   -0.637492    7.33404  0.0000E+00  0.6372E-04  0.8832E-05  0.7811E-03  0.8943E-02  0.4230E+01
   -0.679993    7.33981  0.0000E+00  0.5836E-04  0.5895E-05  0.8212E-03  0.7886E-02  0.5388E+03
   -0.722494    7.34444  0.0000E+00  0.5386E-04  0.4147E-05  0.8733E-03  0.7058E-02  0.4526E+03
   -0.764996    7.34915  0.0000E+00  0.4989E-04  0.3022E-05  0.9188E-03  0.6398E-02 -0.8272E+04
   -0.807497    7.35407  0.0000E+00  0.4640E-04  0.2230E-05  0.9542E-03  0.5891E-02  0.2066E+05
   -0.849998    7.35877  0.0000E+00  0.4333E-04  0.1685E-05  0.9840E-03  0.5433E-02  0.1297E+05
   -0.892500    7.36347  0.0000E+00  0.4061E-04  0.1287E-05  0.1006E-02  0.5025E-02  0.1498E+05
   -0.935001    7.36834  0.0000E+00  0.3826E-04  0.9975E-06  0.1036E-02  0.4671E-02  0.4161E+04
   -0.977502    7.37270  0.0000E+00  0.3617E-04  0.7906E-06  0.1049E-02  0.4335E-02  0.7814E+02
   -1.020003    7.37746  0.0000E+00  0.3430E-04  0.6417E-06  0.1034E-02  0.4033E-02  0.3050E+03
   -1.062505    7.38171  0.0000E+00  0.3261E-04  0.5342E-06  0.1028E-02  0.3728E-02  0.2027E+03
   -1.105006    7.38639  0.0000E+00  0.3110E-04  0.4559E-06  0.1013E-02  0.3443E-02  0.1998E+03
   -1.147506    7.39073  0.0000E+00  0.2976E-04  0.4004E-06  0.9924E-03  0.3160E-02  0.3267E+03
   -1.190007    7.39523  0.0000E+00  0.2857E-04  0.3616E-06  0.9637E-03  0.2867E-02  0.1949E+03
   -1.232508    7.39963  0.0000E+00  0.2742E-04  0.3341E-06  0.9336E-03  0.2580E-02  0.2154E+03
   -1.275008    7.40436  0.0000E+00  0.2629E-04  0.3170E-06  0.8900E-03  0.2320E-02  0.3275E+03
   -1.317508    7.40962  0.0000E+00  0.2514E-04  0.3108E-06  0.8449E-03  0.2084E-02  0.5547E+03
   -1.360008    7.41564  0.0000E+00  0.2392E-04  0.3188E-06  0.7787E-03  0.1869E-02  0.3423E+03
   -1.402508    7.42331  0.0000E+00  0.2253E-04  0.3489E-06  0.7204E-03  0.1678E-02  0.1137E+06
   -1.445007    7.43283  0.0000E+00  0.2107E-04  0.4155E-06  0.6214E-03  0.1495E-02  0.5257E+05
   -1.487506    7.44644  0.0000E+00  0.1955E-04  0.5391E-06  0.5663E-03  0.1284E-02  0.9952E+04
   -1.530005    7.45973  0.0000E+00  0.1787E-04  0.8262E-06  0.4435E-03  0.1008E-02  0.4994E+04
   -1.572504    7.51247  0.0000E+00  0.1623E-04  0.1484E-05  0.4580E-03  0.7304E-03  0.1769E+10
   -1.615002    7.48827  0.0000E+00  0.1377E-04  0.3877E-05  0.2361E-03  0.6009E-03 -0.1730E+11
   -1.657499    7.79888  0.0000E+00  0.1009E-04  0.7824E-05  0.2065E-03  0.4436E-03 -0.1304E+08
   -1.699997    7.78112  0.0000E+00  0.0000E+00  0.0000E+00  0.0000E+00  0.7862E-03  0.0000E+00
