 1 - depth, m
 2 - temperature, C
 3 - salinity, kg/kg
 4 - turbulent kinetic energy, m**2/s**2
 5 - dissipation rate, m**2/s**3
 6 - kinematic heat conductance, m**2/s
 7 - modulus of horizontal velocity, m/s
 8 - Richardson number, n/d
   -0.000000   16.79030  0.0000E+00  0.2583E-03  0.2651E-03  0.7537E-04  0.1680E+00 -0.3461E-01
   -0.042497   17.00881  0.0000E+00  0.1325E-03  0.7085E-04  0.1259E-03  0.3999E-01 -0.9655E-01
   -0.084995   17.06570  0.0000E+00  0.9055E-04  0.2985E-04  0.1485E-03  0.2421E-01  0.1820E+01
   -0.127493   17.09946  0.0000E+00  0.6852E-04  0.1561E-04  0.1799E-03  0.1856E-01  0.1386E+02
   -0.169991   17.12032  0.0000E+00  0.5356E-04  0.8287E-05  0.2232E-03  0.1492E-01  0.6775E+02
   -0.212490   17.13775  0.0000E+00  0.4293E-04  0.4387E-05  0.2819E-03  0.1206E-01  0.3786E+02
   -0.254989   17.15026  0.0000E+00  0.3541E-04  0.2347E-05  0.3467E-03  0.9935E-02  0.1463E+03
   -0.297488   17.16029  0.0000E+00  0.3038E-04  0.1353E-05  0.4060E-03  0.8371E-02  0.1791E+04
   -0.339988   17.16816  0.0000E+00  0.2708E-04  0.8261E-06  0.4620E-03  0.7172E-02  0.2463E+02
   -0.382488   17.17500  0.0000E+00  0.2496E-04  0.5423E-06  0.5280E-03  0.6160E-02  0.1970E+02
   -0.424988   17.18024  0.0000E+00  0.2369E-04  0.3851E-06  0.5817E-03  0.5358E-02  0.1242E+02
   -0.467488   17.18494  0.0000E+00  0.2296E-04  0.2870E-06  0.6374E-03  0.4638E-02  0.1088E+03
   -0.509988   17.18883  0.0000E+00  0.2258E-04  0.2276E-06  0.7233E-03  0.3995E-02  0.4070E+01
   -0.552489   17.19228  0.0000E+00  0.2240E-04  0.1890E-06  0.7843E-03  0.3450E-02  0.5741E+01
   -0.594990   17.19530  0.0000E+00  0.2237E-04  0.1625E-06  0.7949E-03  0.2948E-02  0.3643E+01
   -0.637491   17.19821  0.0000E+00  0.2243E-04  0.1432E-06  0.8757E-03  0.2470E-02  0.2420E+01
   -0.679992   17.20086  0.0000E+00  0.2253E-04  0.1290E-06  0.9496E-03  0.2066E-02  0.2006E+01
   -0.722493   17.20337  0.0000E+00  0.2263E-04  0.1186E-06  0.1029E-02  0.1723E-02  0.1766E+01
   -0.764994   17.20576  0.0000E+00  0.2271E-04  0.1110E-06  0.1112E-02  0.1446E-02  0.1608E+01
   -0.807495   17.20805  0.0000E+00  0.2276E-04  0.1056E-06  0.1193E-02  0.1230E-02  0.1541E+01
   -0.849996   17.21027  0.0000E+00  0.2274E-04  0.1021E-06  0.1266E-02  0.1057E-02  0.1495E+01
   -0.892498   17.21240  0.0000E+00  0.2267E-04  0.1001E-06  0.1330E-02  0.9192E-03  0.1451E+01
   -0.934999   17.21447  0.0000E+00  0.2254E-04  0.9931E-07  0.1376E-02  0.8084E-03  0.1445E+01
   -0.977500   17.21648  0.0000E+00  0.2237E-04  0.9952E-07  0.1399E-02  0.7173E-03  0.1422E+01
   -1.020001   17.21847  0.0000E+00  0.2215E-04  0.1006E-06  0.1395E-02  0.6424E-03  0.1437E+01
   -1.062502   17.22048  0.0000E+00  0.2189E-04  0.1026E-06  0.1368E-02  0.5790E-03  0.1427E+01
   -1.105003   17.22252  0.0000E+00  0.2161E-04  0.1056E-06  0.1324E-02  0.5247E-03  0.1509E+01
   -1.147504   17.22463  0.0000E+00  0.2129E-04  0.1098E-06  0.1271E-02  0.4762E-03  0.1766E+01
   -1.190005   17.22679  0.0000E+00  0.2096E-04  0.1157E-06  0.1213E-02  0.4314E-03  0.2012E+01
   -1.232505   17.22900  0.0000E+00  0.2059E-04  0.1247E-06  0.1157E-02  0.3895E-03  0.4999E+02
   -1.275005   17.23154  0.0000E+00  0.2015E-04  0.1386E-06  0.1078E-02  0.3514E-03  0.2196E+02
   -1.317505   17.23460  0.0000E+00  0.1958E-04  0.1601E-06  0.1007E-02  0.3151E-03  0.1178E+03
   -1.360005   17.23872  0.0000E+00  0.1885E-04  0.1945E-06  0.9504E-03  0.2792E-03  0.1906E+04
   -1.402505   17.24405  0.0000E+00  0.1792E-04  0.2577E-06  0.8169E-03  0.2456E-03 -0.2763E+04
   -1.445004   17.25142  0.0000E+00  0.1682E-04  0.3533E-06  0.7506E-03  0.2108E-03  0.2962E+05
   -1.487503   17.26083  0.0000E+00  0.1584E-04  0.5052E-06  0.6296E-03  0.1696E-03  0.5254E+07
   -1.530002   17.27099  0.0000E+00  0.1472E-04  0.9713E-06  0.5428E-03  0.1277E-03  0.1331E+07
   -1.572500   17.31754  0.0000E+00  0.1388E-04  0.1641E-05  0.5710E-03  0.8575E-04  0.1154E+11
   -1.614998   17.27581  0.0000E+00  0.1200E-04  0.5559E-05  0.3043E-03  0.7045E-04 -0.7739E+09
   -1.657496   17.50347  0.0000E+00  0.9395E-05  0.1016E-04  0.3199E-03  0.4481E-04  0.2746E+07
   -1.699993   17.45224  0.0000E+00  0.0000E+00  0.0000E+00  0.0000E+00  0.9053E-04  0.0000E+00
