 1 - depth, m
 2 - temperature, C
 3 - salinity, kg/kg
 4 - turbulent kinetic energy, m**2/s**2
 5 - dissipation rate, m**2/s**3
 6 - kinematic heat conductance, m**2/s
 7 - modulus of horizontal velocity, m/s
 8 - Richardson number, n/d
   -0.000000   18.04472  0.0000E+00  0.4489E-04  0.1728E-04  0.3215E-04  0.3633E-01 -0.5669E-01
   -0.042497   18.12617  0.0000E+00  0.2768E-04  0.4603E-05  0.9030E-04  0.1199E-01  0.3074E+02
   -0.084995   18.14726  0.0000E+00  0.2199E-04  0.2080E-05  0.1935E-03  0.7930E-02  0.2012E+02
   -0.127493   18.15813  0.0000E+00  0.1910E-04  0.1141E-05  0.2867E-03  0.6109E-02  0.4281E+02
   -0.169991   18.16537  0.0000E+00  0.1753E-04  0.6677E-06  0.3878E-03  0.4924E-02  0.1802E+02
   -0.212490   18.17080  0.0000E+00  0.1671E-04  0.4003E-06  0.4949E-03  0.4034E-02  0.1789E+02
   -0.254989   18.17498  0.0000E+00  0.1639E-04  0.2493E-06  0.5878E-03  0.3362E-02  0.1649E+02
   -0.297488   18.17839  0.0000E+00  0.1644E-04  0.1745E-06  0.6822E-03  0.2852E-02  0.5467E+02
   -0.339988   18.18125  0.0000E+00  0.1672E-04  0.1318E-06  0.7752E-03  0.2453E-02  0.1045E+02
   -0.382488   18.18367  0.0000E+00  0.1714E-04  0.1074E-06  0.8679E-03  0.2126E-02  0.1957E+01
   -0.424988   18.18582  0.0000E+00  0.1762E-04  0.9260E-07  0.9512E-03  0.1852E-02  0.1910E+01
   -0.467488   18.18776  0.0000E+00  0.1813E-04  0.8297E-07  0.1034E-02  0.1609E-02  0.1880E+01
   -0.509989   18.18952  0.0000E+00  0.1863E-04  0.7705E-07  0.1118E-02  0.1391E-02  0.1677E+01
   -0.552489   18.19115  0.0000E+00  0.1910E-04  0.7323E-07  0.1206E-02  0.1197E-02  0.1632E+01
   -0.594990   18.19265  0.0000E+00  0.1952E-04  0.7102E-07  0.1299E-02  0.1025E-02  0.1561E+01
   -0.637491   18.19405  0.0000E+00  0.1991E-04  0.6988E-07  0.1408E-02  0.8745E-03  0.1470E+01
   -0.679992   18.19537  0.0000E+00  0.2023E-04  0.6956E-07  0.1524E-02  0.7493E-03  0.1411E+01
   -0.722493   18.19663  0.0000E+00  0.2051E-04  0.6991E-07  0.1628E-02  0.6468E-03  0.1354E+01
   -0.764994   18.19783  0.0000E+00  0.2072E-04  0.7078E-07  0.1702E-02  0.5655E-03  0.1304E+01
   -0.807496   18.19903  0.0000E+00  0.2088E-04  0.7204E-07  0.1738E-02  0.5024E-03  0.1273E+01
   -0.849997   18.20024  0.0000E+00  0.2098E-04  0.7358E-07  0.1741E-02  0.4527E-03  0.1246E+01
   -0.892498   18.20148  0.0000E+00  0.2104E-04  0.7541E-07  0.1725E-02  0.4126E-03  0.1219E+01
   -0.934999   18.20276  0.0000E+00  0.2105E-04  0.7748E-07  0.1692E-02  0.3799E-03  0.1239E+01
   -0.977501   18.20409  0.0000E+00  0.2101E-04  0.7987E-07  0.1649E-02  0.3523E-03  0.1284E+01
   -1.020002   18.20549  0.0000E+00  0.2094E-04  0.8269E-07  0.1595E-02  0.3285E-03  0.1409E+01
   -1.062503   18.20696  0.0000E+00  0.2082E-04  0.8606E-07  0.1538E-02  0.3070E-03  0.1580E+01
   -1.105004   18.20851  0.0000E+00  0.2066E-04  0.9022E-07  0.1473E-02  0.2871E-03  0.1862E+01
   -1.147505   18.21015  0.0000E+00  0.2046E-04  0.9536E-07  0.1408E-02  0.2679E-03  0.2300E+01
   -1.190005   18.21188  0.0000E+00  0.2022E-04  0.1020E-06  0.1337E-02  0.2488E-03  0.1440E+01
   -1.232506   18.21372  0.0000E+00  0.1992E-04  0.1111E-06  0.1263E-02  0.2292E-03 -0.1486E+02
   -1.275006   18.21583  0.0000E+00  0.1954E-04  0.1245E-06  0.1209E-02  0.2098E-03  0.1908E+03
   -1.317506   18.21841  0.0000E+00  0.1904E-04  0.1448E-06  0.1089E-02  0.1903E-03  0.4350E+05
   -1.360006   18.22193  0.0000E+00  0.1837E-04  0.1771E-06  0.1000E-02  0.1698E-03  0.7304E+04
   -1.402506   18.22635  0.0000E+00  0.1748E-04  0.2337E-06  0.8883E-03  0.1498E-03  0.1665E+04
   -1.445005   18.23340  0.0000E+00  0.1643E-04  0.3204E-06  0.7830E-03  0.1291E-03  0.2235E+06
   -1.487504   18.24071  0.0000E+00  0.1548E-04  0.4555E-06  0.6747E-03  0.1045E-03  0.1644E+05
   -1.530003   18.25244  0.0000E+00  0.1440E-04  0.8872E-06  0.5782E-03  0.7869E-04  0.1401E+05
   -1.572501   18.28972  0.0000E+00  0.1355E-04  0.1464E-05  0.5972E-03  0.5302E-04  0.3080E+11
   -1.614999   18.25920  0.0000E+00  0.1163E-04  0.4730E-05  0.3329E-03  0.4342E-04 -0.1096E+11
   -1.657497   18.46736  0.0000E+00  0.9167E-05  0.8925E-05  0.3298E-03  0.2774E-04 -0.6466E+05
   -1.699994   18.41347  0.0000E+00  0.0000E+00  0.0000E+00  0.0000E+00  0.5574E-04  0.0000E+00
