 1 - depth, m
 2 - temperature, C
 3 - salinity, kg/kg
 4 - turbulent kinetic energy, m**2/s**2
 5 - dissipation rate, m**2/s**3
 6 - kinematic heat conductance, m**2/s
 7 - modulus of horizontal velocity, m/s
 8 - Richardson number, n/d
   -0.000000   -0.00015  0.0000E+00  0.2741E-03  0.2342E-03  0.8130E-04  0.1975E+00  0.1992E-01
   -0.042508    0.08682  0.0000E+00  0.1531E-03  0.7900E-04  0.1371E-03  0.5307E-01  0.6266E-01
   -0.085016    0.14100  0.0000E+00  0.1050E-03  0.3018E-04  0.1107E-03  0.3621E-01  0.2232E+00
   -0.127525    0.19768  0.0000E+00  0.7469E-04  0.1222E-04  0.9463E-04  0.2841E-01  0.2211E+00
   -0.170033    0.25895  0.0000E+00  0.5287E-04  0.5373E-05  0.8055E-04  0.2258E-01  0.4405E+00
   -0.212543    0.33156  0.0000E+00  0.3653E-04  0.2434E-05  0.6614E-04  0.1768E-01  0.9537E+00
   -0.255052    0.42992  0.0000E+00  0.2482E-04  0.1261E-05  0.5089E-04  0.1374E-01  0.3204E+02
   -0.297562    0.57311  0.0000E+00  0.1639E-04  0.6885E-06  0.3540E-04  0.1096E-01  0.7996E+03
   -0.340072    0.83918  0.0000E+00  0.1055E-04  0.3755E-06  0.2207E-04  0.8797E-02  0.1199E+04
   -0.382583    1.36738  0.0000E+00  0.6542E-05  0.1971E-06  0.3288E-04  0.6614E-02  0.1144E+05
   -0.425094    1.99238  0.0000E+00  0.4223E-05  0.1040E-06  0.8196E-04  0.4895E-02  0.3359E+03
   -0.467604    2.74171  0.0000E+00  0.3095E-05  0.5381E-07  0.1294E-03  0.3028E-02  0.3017E+03
   -0.510115    3.51653  0.0000E+00  0.2662E-05  0.2755E-07  0.2218E-03  0.1557E-02  0.3308E+03
   -0.552627    3.98977  0.0000E+00  0.2449E-05  0.1527E-07  0.3209E-03  0.7651E-03  0.2987E+04
   -0.595138    4.13988  0.0000E+00  0.2382E-05  0.9501E-08  0.3631E-03  0.3979E-03  0.3724E+03
   -0.637650    4.19529  0.0000E+00  0.2387E-05  0.6986E-08  0.3991E-03  0.2439E-03  0.4503E+03
   -0.680161    4.22580  0.0000E+00  0.2437E-05  0.5847E-08  0.4295E-03  0.1685E-03  0.5310E+03
   -0.722673    4.24833  0.0000E+00  0.2503E-05  0.5276E-08  0.4584E-03  0.1261E-03  0.5081E+03
   -0.765185    4.26398  0.0000E+00  0.2579E-05  0.4981E-08  0.4841E-03  0.9979E-04  0.6427E+03
   -0.807696    4.27723  0.0000E+00  0.2661E-05  0.4841E-08  0.5078E-03  0.8237E-04  0.8217E+03
   -0.850208    4.28938  0.0000E+00  0.2745E-05  0.4796E-08  0.5296E-03  0.6960E-04  0.1054E+04
   -0.892720    4.30078  0.0000E+00  0.2828E-05  0.4808E-08  0.5496E-03  0.5977E-04  0.1307E+04
   -0.935232    4.31172  0.0000E+00  0.2909E-05  0.4855E-08  0.5669E-03  0.5204E-04  0.1637E+04
   -0.977744    4.32221  0.0000E+00  0.2986E-05  0.4928E-08  0.5814E-03  0.4571E-04  0.1943E+04
   -1.020255    4.33243  0.0000E+00  0.3058E-05  0.5023E-08  0.5929E-03  0.4038E-04  0.2327E+04
   -1.062767    4.34233  0.0000E+00  0.3125E-05  0.5137E-08  0.6012E-03  0.3572E-04  0.2654E+04
   -1.105278    4.35197  0.0000E+00  0.3187E-05  0.5270E-08  0.6063E-03  0.3161E-04  0.3031E+04
   -1.147790    4.36131  0.0000E+00  0.3243E-05  0.5423E-08  0.6082E-03  0.2786E-04  0.3413E+04
   -1.190301    4.37023  0.0000E+00  0.3294E-05  0.5599E-08  0.6059E-03  0.2434E-04  0.3824E+04
   -1.232812    4.37883  0.0000E+00  0.3344E-05  0.5815E-08  0.5989E-03  0.2106E-04  0.4515E+04
   -1.275323    4.38769  0.0000E+00  0.3393E-05  0.6084E-08  0.5872E-03  0.1815E-04  0.6040E+04
   -1.317834    4.39702  0.0000E+00  0.3442E-05  0.6424E-08  0.5702E-03  0.1556E-04  0.8524E+04
   -1.360344    4.40704  0.0000E+00  0.3491E-05  0.6866E-08  0.5463E-03  0.1327E-04  0.1206E+05
   -1.402854    4.41816  0.0000E+00  0.3539E-05  0.7460E-08  0.5164E-03  0.1128E-04  0.1901E+05
   -1.445364    4.43072  0.0000E+00  0.3580E-05  0.8194E-08  0.4825E-03  0.9489E-05  0.2910E+05
   -1.487874    4.44360  0.0000E+00  0.3616E-05  0.9143E-08  0.4430E-03  0.7774E-05  0.4105E+05
   -1.530383    4.45612  0.0000E+00  0.3657E-05  0.1069E-07  0.3805E-03  0.6132E-05  0.7092E+05
   -1.572892    4.47059  0.0000E+00  0.3705E-05  0.1417E-07  0.3079E-03  0.4657E-05  0.2069E+06
   -1.615401    4.49687  0.0000E+00  0.3659E-05  0.2714E-07  0.1695E-03  0.3550E-05  0.6995E+07
   -1.657909    4.58328  0.0000E+00  0.2768E-05  0.9318E-07  0.3146E-04  0.2476E-05 -0.4072E+09
   -1.700417    4.97743  0.0000E+00  0.0000E+00  0.0000E+00  0.0000E+00  0.2525E-05  0.0000E+00
