 1 - depth, m
 2 - temperature, C
 3 - salinity, kg/kg
 4 - turbulent kinetic energy, m**2/s**2
 5 - dissipation rate, m**2/s**3
 6 - kinematic heat conductance, m**2/s
 7 - modulus of horizontal velocity, m/s
 8 - Richardson number, n/d
   -0.000000    6.77350  0.0000E+00  0.9332E-03  0.4177E-02  0.1189E-03  0.3447E+00 -0.1228E-02
   -0.042497    7.04639  0.0000E+00  0.4624E-03  0.1714E-02  0.2437E-03  0.7428E-01 -0.1817E-01
   -0.084995    7.10064  0.0000E+00  0.3149E-03  0.6727E-03  0.2677E-03  0.4518E-01 -0.4105E-01
   -0.127493    7.14628  0.0000E+00  0.2340E-03  0.3635E-03  0.2534E-03  0.3477E-01  0.3822E+01
   -0.169992    7.17633  0.0000E+00  0.1751E-03  0.1949E-03  0.2395E-03  0.2819E-01  0.7384E+01
   -0.212490    7.19950  0.0000E+00  0.1348E-03  0.1145E-03  0.2555E-03  0.2306E-01  0.4257E+02
   -0.254990    7.22095  0.0000E+00  0.1028E-03  0.6287E-04  0.2858E-03  0.1906E-01  0.1178E+01
   -0.297489    7.24166  0.0000E+00  0.8111E-04  0.3581E-04  0.3183E-03  0.1618E-01  0.4858E+01
   -0.339989    7.26021  0.0000E+00  0.6654E-04  0.2060E-04  0.3508E-03  0.1388E-01  0.1964E+02
   -0.382489    7.27605  0.0000E+00  0.5589E-04  0.1150E-04  0.3915E-03  0.1180E-01  0.2211E+02
   -0.424989    7.28822  0.0000E+00  0.4812E-04  0.6286E-05  0.4231E-03  0.1040E-01  0.1607E+02
   -0.467489    7.29991  0.0000E+00  0.4239E-04  0.3499E-05  0.4643E-03  0.8994E-02  0.1212E+03
   -0.509990    7.30905  0.0000E+00  0.3812E-04  0.2062E-05  0.5115E-03  0.7786E-02  0.3192E+03
   -0.552490    7.31814  0.0000E+00  0.3486E-04  0.1307E-05  0.5583E-03  0.6762E-02  0.6092E+02
   -0.594991    7.32659  0.0000E+00  0.3228E-04  0.8990E-06  0.6265E-03  0.5842E-02  0.9464E+02
   -0.637492    7.33347  0.0000E+00  0.3014E-04  0.6536E-06  0.6917E-03  0.5079E-02  0.2994E+02
   -0.679994    7.33925  0.0000E+00  0.2834E-04  0.5028E-06  0.7608E-03  0.4464E-02  0.2422E+02
   -0.722495    7.34465  0.0000E+00  0.2682E-04  0.4033E-06  0.8479E-03  0.3938E-02  0.1495E+02
   -0.764996    7.34988  0.0000E+00  0.2548E-04  0.3325E-06  0.9222E-03  0.3498E-02 -0.4707E+01
   -0.807497    7.35451  0.0000E+00  0.2428E-04  0.2788E-06  0.9842E-03  0.3132E-02  0.1174E+03
   -0.849999    7.35924  0.0000E+00  0.2322E-04  0.2380E-06  0.1021E-02  0.2811E-02  0.2155E+02
   -0.892500    7.36367  0.0000E+00  0.2227E-04  0.2057E-06  0.1058E-02  0.2532E-02  0.9498E+01
   -0.935001    7.36805  0.0000E+00  0.2140E-04  0.1796E-06  0.1065E-02  0.2289E-02  0.4819E+01
   -0.977503    7.37237  0.0000E+00  0.2060E-04  0.1582E-06  0.1078E-02  0.2062E-02  0.1852E+02
   -1.020004    7.37663  0.0000E+00  0.1986E-04  0.1408E-06  0.1080E-02  0.1858E-02  0.4680E+01
   -1.062505    7.38087  0.0000E+00  0.1917E-04  0.1267E-06  0.1075E-02  0.1669E-02  0.5812E+01
   -1.105006    7.38509  0.0000E+00  0.1853E-04  0.1155E-06  0.1059E-02  0.1494E-02  0.1273E+02
   -1.147507    7.38934  0.0000E+00  0.1794E-04  0.1071E-06  0.1039E-02  0.1325E-02  0.5768E+01
   -1.190008    7.39354  0.0000E+00  0.1740E-04  0.1012E-06  0.1007E-02  0.1161E-02  0.5738E+01
   -1.232508    7.39772  0.0000E+00  0.1687E-04  0.9756E-07  0.9722E-03  0.1003E-02  0.5387E+01
   -1.275009    7.40215  0.0000E+00  0.1634E-04  0.9627E-07  0.9238E-03  0.8627E-03  0.1502E+02
   -1.317509    7.40726  0.0000E+00  0.1580E-04  0.9793E-07  0.8744E-03  0.7384E-03  0.6320E+01
   -1.360009    7.41296  0.0000E+00  0.1522E-04  0.1045E-06  0.8090E-03  0.6315E-03 -0.3440E+02
   -1.402509    7.42085  0.0000E+00  0.1455E-04  0.1191E-06  0.7542E-03  0.5415E-03  0.1817E+04
   -1.445008    7.42926  0.0000E+00  0.1383E-04  0.1498E-06  0.6555E-03  0.4626E-03  0.8966E+04
   -1.487507    7.44347  0.0000E+00  0.1310E-04  0.2001E-06  0.5937E-03  0.3789E-03  0.4810E+05
   -1.530006    7.45414  0.0000E+00  0.1225E-04  0.3295E-06  0.4572E-03  0.2896E-03 -0.9410E+05
   -1.572504    7.51418  0.0000E+00  0.1146E-04  0.6548E-06  0.4848E-03  0.1968E-03  0.5564E+10
   -1.615002    7.47353  0.0000E+00  0.9804E-05  0.1710E-05  0.2130E-03  0.1585E-03 -0.6061E+09
   -1.657500    7.80821  0.0000E+00  0.7304E-05  0.3588E-05  0.1903E-03  0.1025E-03 -0.1769E+07
   -1.699997    7.75892  0.0000E+00  0.0000E+00  0.0000E+00  0.0000E+00  0.1765E-03  0.0000E+00
