 1 - depth, m
 2 - temperature, C
 3 - salinity, kg/kg
 4 - turbulent kinetic energy, m**2/s**2
 5 - dissipation rate, m**2/s**3
 6 - kinematic heat conductance, m**2/s
 7 - modulus of horizontal velocity, m/s
 8 - Richardson number, n/d
   -0.000000   15.86042  0.0000E+00  0.2394E-03  0.1997E-03  0.9839E-04  0.1528E+00 -0.2025E-01
   -0.042497   16.02631  0.0000E+00  0.1211E-03  0.4933E-04  0.1197E-03  0.3689E-01 -0.7592E-01
   -0.084995   16.07399  0.0000E+00  0.8463E-04  0.2266E-04  0.1400E-03  0.2311E-01  0.1053E+00
   -0.127493   16.10201  0.0000E+00  0.6443E-04  0.1218E-04  0.1630E-03  0.1789E-01  0.3446E+02
   -0.169991   16.12061  0.0000E+00  0.5040E-04  0.6612E-05  0.1956E-03  0.1437E-01  0.2996E+03
   -0.212490   16.13551  0.0000E+00  0.4028E-04  0.3538E-05  0.2564E-03  0.1165E-01  0.7714E+02
   -0.254989   16.14719  0.0000E+00  0.3306E-04  0.1897E-05  0.3160E-03  0.9607E-02  0.8240E+04
   -0.297488   16.15699  0.0000E+00  0.2816E-04  0.1097E-05  0.3843E-03  0.8075E-02  0.6790E+02
   -0.339988   16.16474  0.0000E+00  0.2498E-04  0.6787E-06  0.4478E-03  0.6893E-02  0.1018E+03
   -0.382487   16.17128  0.0000E+00  0.2297E-04  0.4506E-06  0.5105E-03  0.5913E-02  0.8618E+02
   -0.424988   16.17646  0.0000E+00  0.2179E-04  0.3212E-06  0.5595E-03  0.5127E-02  0.1320E+02
   -0.467488   16.18099  0.0000E+00  0.2116E-04  0.2424E-06  0.6127E-03  0.4434E-02  0.1267E+02
   -0.509988   16.18483  0.0000E+00  0.2088E-04  0.1936E-06  0.6654E-03  0.3817E-02  0.7764E+01
   -0.552489   16.18828  0.0000E+00  0.2081E-04  0.1616E-06  0.7228E-03  0.3261E-02  0.3121E+01
   -0.594990   16.19134  0.0000E+00  0.2086E-04  0.1401E-06  0.7800E-03  0.2758E-02  0.2601E+01
   -0.637491   16.19415  0.0000E+00  0.2098E-04  0.1246E-06  0.8472E-03  0.2308E-02  0.2150E+01
   -0.679992   16.19680  0.0000E+00  0.2112E-04  0.1133E-06  0.9196E-03  0.1924E-02  0.1931E+01
   -0.722493   16.19931  0.0000E+00  0.2127E-04  0.1051E-06  0.9999E-03  0.1602E-02  0.1735E+01
   -0.764994   16.20171  0.0000E+00  0.2140E-04  0.9931E-07  0.1089E-02  0.1342E-02  0.1582E+01
   -0.807495   16.20402  0.0000E+00  0.2148E-04  0.9546E-07  0.1179E-02  0.1140E-02  0.1512E+01
   -0.849996   16.20625  0.0000E+00  0.2151E-04  0.9321E-07  0.1261E-02  0.9800E-03  0.1463E+01
   -0.892498   16.20837  0.0000E+00  0.2148E-04  0.9220E-07  0.1330E-02  0.8531E-03  0.1412E+01
   -0.934999   16.21046  0.0000E+00  0.2139E-04  0.9219E-07  0.1373E-02  0.7518E-03  0.1398E+01
   -0.977500   16.21248  0.0000E+00  0.2126E-04  0.9303E-07  0.1384E-02  0.6692E-03  0.1363E+01
   -1.020001   16.21453  0.0000E+00  0.2108E-04  0.9464E-07  0.1370E-02  0.6013E-03  0.1369E+01
   -1.062502   16.21660  0.0000E+00  0.2087E-04  0.9701E-07  0.1333E-02  0.5442E-03  0.1376E+01
   -1.105003   16.21874  0.0000E+00  0.2063E-04  0.1003E-06  0.1284E-02  0.4952E-03  0.1441E+01
   -1.147504   16.22097  0.0000E+00  0.2035E-04  0.1049E-06  0.1230E-02  0.4511E-03  0.1535E+01
   -1.190004   16.22327  0.0000E+00  0.2005E-04  0.1112E-06  0.1170E-02  0.4101E-03  0.1824E+01
   -1.232505   16.22568  0.0000E+00  0.1971E-04  0.1207E-06  0.1102E-02  0.3709E-03  0.2810E+01
   -1.275005   16.22841  0.0000E+00  0.1929E-04  0.1353E-06  0.1055E-02  0.3345E-03 -0.4919E+02
   -1.317505   16.23187  0.0000E+00  0.1875E-04  0.1578E-06  0.9685E-03  0.2995E-03  0.6439E+04
   -1.360005   16.23625  0.0000E+00  0.1804E-04  0.1954E-06  0.8979E-03  0.2650E-03 -0.2432E+02
   -1.402504   16.24260  0.0000E+00  0.1711E-04  0.2570E-06  0.7921E-03  0.2313E-03  0.2033E+04
   -1.445004   16.25036  0.0000E+00  0.1599E-04  0.3554E-06  0.7013E-03  0.1982E-03  0.8368E+04
   -1.487503   16.26123  0.0000E+00  0.1501E-04  0.5034E-06  0.6093E-03  0.1570E-03  0.1690E+05
   -1.530001   16.27245  0.0000E+00  0.1389E-04  0.9497E-06  0.5219E-03  0.1169E-03 -0.9872E+05
   -1.572500   16.32697  0.0000E+00  0.1309E-04  0.1616E-05  0.5347E-03  0.7613E-04  0.8804E+10
   -1.614998   16.27804  0.0000E+00  0.1134E-04  0.5230E-05  0.2959E-03  0.6254E-04 -0.2531E+11
   -1.657495   16.54848  0.0000E+00  0.9010E-05  0.9795E-05  0.3275E-03  0.3892E-04 -0.3372E+06
   -1.699993   16.47093  0.0000E+00  0.0000E+00  0.0000E+00  0.0000E+00  0.8368E-04  0.0000E+00
