 1 - depth, m
 2 - temperature, C
 3 - salinity, kg/kg
 4 - turbulent kinetic energy, m**2/s**2
 5 - dissipation rate, m**2/s**3
 6 - kinematic heat conductance, m**2/s
 7 - modulus of horizontal velocity, m/s
 8 - Richardson number, n/d
   -0.000000   20.49653  0.0000E+00  0.1449E-02  0.1762E-01  0.1353E-03  0.5480E+00  0.3316E+00
   -0.042497   20.81509  0.0000E+00  0.7092E-03  0.1125E-01  0.2491E-03  0.1201E+00  0.2246E+01
   -0.084994   21.08283  0.0000E+00  0.4505E-03  0.3625E-02  0.3388E-03  0.6396E-01  0.1258E+00
   -0.127492   21.15617  0.0000E+00  0.3244E-03  0.1487E-02  0.3125E-03  0.4860E-01  0.9994E+00
   -0.169990   21.18912  0.0000E+00  0.2469E-03  0.7098E-03  0.3090E-03  0.3839E-01  0.9608E+01
   -0.212489   21.20767  0.0000E+00  0.1900E-03  0.3334E-03  0.3314E-03  0.3059E-01  0.1998E+02
   -0.254988   21.22874  0.0000E+00  0.1493E-03  0.1848E-03  0.3941E-03  0.2487E-01  0.3057E+02
   -0.297487   21.24517  0.0000E+00  0.1209E-03  0.1101E-03  0.4484E-03  0.2152E-01  0.5174E+02
   -0.339986   21.25712  0.0000E+00  0.1004E-03  0.6270E-04  0.4766E-03  0.1908E-01  0.1177E+03
   -0.382486   21.26650  0.0000E+00  0.8497E-04  0.3601E-04  0.5251E-03  0.1662E-01  0.3903E+02
   -0.424986   21.27506  0.0000E+00  0.7362E-04  0.2041E-04  0.5647E-03  0.1488E-01  0.5325E+03
   -0.467486   21.28069  0.0000E+00  0.6524E-04  0.1108E-04  0.6050E-03  0.1301E-01  0.2172E+03
   -0.509986   21.28771  0.0000E+00  0.5902E-04  0.6379E-05  0.6765E-03  0.1127E-01  0.7177E+04
   -0.552487   21.29206  0.0000E+00  0.5415E-04  0.3533E-05  0.7370E-03  0.9834E-02  0.2714E+04
   -0.594987   21.29797  0.0000E+00  0.5052E-04  0.2240E-05  0.8012E-03  0.8558E-02  0.1337E+04
   -0.637488   21.30060  0.0000E+00  0.4756E-04  0.1592E-05  0.8503E-03  0.7468E-02  0.4303E+04
   -0.679989   21.30471  0.0000E+00  0.4504E-04  0.1176E-05  0.9104E-03  0.6561E-02  0.8644E+04
   -0.722490   21.30711  0.0000E+00  0.4284E-04  0.8883E-06  0.9661E-03  0.5769E-02  0.9076E+06
   -0.764991   21.31053  0.0000E+00  0.4078E-04  0.7086E-06  0.1014E-02  0.5092E-02  0.1014E+06
   -0.807492   21.31307  0.0000E+00  0.3893E-04  0.5683E-06  0.1063E-02  0.4538E-02 -0.8279E+04
   -0.849993   21.31585  0.0000E+00  0.3723E-04  0.4775E-06  0.1096E-02  0.4047E-02  0.3006E+05
   -0.892494   21.31794  0.0000E+00  0.3565E-04  0.4087E-06  0.1139E-02  0.3613E-02  0.2841E+05
   -0.934995   21.32038  0.0000E+00  0.3415E-04  0.3541E-06  0.1160E-02  0.3239E-02  0.2474E+05
   -0.977496   21.32247  0.0000E+00  0.3275E-04  0.3101E-06  0.1222E-02  0.2883E-02  0.1438E+06
   -1.019997   21.32479  0.0000E+00  0.3150E-04  0.2760E-06  0.1245E-02  0.2603E-02  0.1011E+06
   -1.062498   21.32683  0.0000E+00  0.3030E-04  0.2492E-06  0.1190E-02  0.2348E-02  0.3937E+03
   -1.104998   21.32938  0.0000E+00  0.2907E-04  0.2262E-06  0.1190E-02  0.2071E-02  0.8559E+04
   -1.147499   21.33146  0.0000E+00  0.2796E-04  0.2103E-06  0.1164E-02  0.1839E-02  0.1530E+04
   -1.189999   21.33368  0.0000E+00  0.2695E-04  0.2003E-06  0.1144E-02  0.1616E-02  0.3227E+04
   -1.232500   21.33576  0.0000E+00  0.2598E-04  0.1953E-06  0.1073E-02  0.1419E-02  0.1166E+06
   -1.275000   21.33803  0.0000E+00  0.2493E-04  0.1955E-06  0.9795E-03  0.1238E-02  0.2568E+05
   -1.317500   21.34062  0.0000E+00  0.2374E-04  0.2050E-06  0.9294E-03  0.1052E-02  0.4042E+04
   -1.359999   21.34357  0.0000E+00  0.2247E-04  0.2293E-06  0.8481E-03  0.9017E-03  0.5010E+04
   -1.402499   21.34757  0.0000E+00  0.2094E-04  0.2850E-06  0.8061E-03  0.7721E-03  0.9515E+04
   -1.444998   21.35278  0.0000E+00  0.1924E-04  0.3934E-06  0.6857E-03  0.6549E-03  0.1692E+05
   -1.487497   21.36027  0.0000E+00  0.1768E-04  0.5757E-06  0.6200E-03  0.5216E-03 -0.3274E+06
   -1.529995   21.36739  0.0000E+00  0.1601E-04  0.1052E-05  0.5082E-03  0.3817E-03  0.5873E+05
   -1.572493   21.39886  0.0000E+00  0.1461E-04  0.1938E-05  0.5294E-03  0.2426E-03  0.6099E+09
   -1.614991   21.37499  0.0000E+00  0.1233E-04  0.6342E-05  0.2847E-03  0.1898E-03 -0.1583E+10
   -1.657489   21.51694  0.0000E+00  0.9531E-05  0.1161E-04  0.3125E-03  0.1190E-03 -0.3526E+08
   -1.699986   21.48333  0.0000E+00  0.0000E+00  0.0000E+00  0.0000E+00  0.2556E-03  0.0000E+00
