 1 - depth, m
 2 - temperature, C
 3 - salinity, kg/kg
 4 - turbulent kinetic energy, m**2/s**2
 5 - dissipation rate, m**2/s**3
 6 - kinematic heat conductance, m**2/s
 7 - modulus of horizontal velocity, m/s
 8 - Richardson number, n/d
   -0.000000   -0.00049  0.0000E+00  0.1062E-02  0.3704E-02  0.1717E-03  0.5356E+00  0.3546E-02
   -0.042519    0.09790  0.0000E+00  0.6561E-03  0.1706E-02  0.3651E-03  0.1348E+00 -0.3288E-01
   -0.085038    0.15766  0.0000E+00  0.4705E-03  0.7879E-03  0.3786E-03  0.7809E-01  0.3593E+00
   -0.127558    0.19827  0.0000E+00  0.3757E-03  0.4905E-03  0.3637E-03  0.6177E-01  0.1538E+00
   -0.170078    0.23139  0.0000E+00  0.3099E-03  0.3253E-03  0.3489E-03  0.5203E-01  0.7020E+00
   -0.212598    0.26352  0.0000E+00  0.2586E-03  0.2134E-03  0.3425E-03  0.4449E-01  0.1551E+00
   -0.255119    0.29652  0.0000E+00  0.2188E-03  0.1361E-03  0.3393E-03  0.3877E-01  0.2216E+02
   -0.297640    0.32946  0.0000E+00  0.1875E-03  0.8148E-04  0.3359E-03  0.3499E-01  0.4910E+02
   -0.340161    0.36530  0.0000E+00  0.1633E-03  0.4784E-04  0.3298E-03  0.3213E-01  0.8455E+02
   -0.382682    0.40381  0.0000E+00  0.1437E-03  0.2826E-04  0.3292E-03  0.2926E-01  0.1366E+03
   -0.425204    0.44486  0.0000E+00  0.1281E-03  0.1734E-04  0.3232E-03  0.2713E-01  0.4572E+02
   -0.467726    0.49225  0.0000E+00  0.1148E-03  0.1099E-04  0.3170E-03  0.2465E-01  0.9366E+02
   -0.510248    0.54918  0.0000E+00  0.1038E-03  0.7216E-05  0.3118E-03  0.2214E-01  0.6298E+03
   -0.552770    0.62771  0.0000E+00  0.9424E-04  0.4863E-05  0.3027E-03  0.1978E-01  0.1476E+04
   -0.595293    0.73516  0.0000E+00  0.8563E-04  0.3442E-05  0.3039E-03  0.1745E-01  0.6960E+04
   -0.637815    0.83833  0.0000E+00  0.7774E-04  0.2590E-05  0.3122E-03  0.1533E-01  0.1022E+05
   -0.680338    0.94794  0.0000E+00  0.7049E-04  0.2041E-05  0.3106E-03  0.1357E-01  0.4220E+05
   -0.722861    1.08393  0.0000E+00  0.6373E-04  0.1650E-05  0.3077E-03  0.1202E-01  0.3745E+06
   -0.765384    1.23135  0.0000E+00  0.5754E-04  0.1357E-05  0.3101E-03  0.1075E-01  0.2185E+09
   -0.807906    1.37664  0.0000E+00  0.5191E-04  0.1129E-05  0.3124E-03  0.9743E-02  0.2526E+08
   -0.850429    1.48915  0.0000E+00  0.4681E-04  0.9465E-06  0.3074E-03  0.8860E-02  0.1772E+08
   -0.892952    1.59652  0.0000E+00  0.4198E-04  0.7907E-06  0.3015E-03  0.8054E-02  0.1690E+08
   -0.935475    1.73469  0.0000E+00  0.3783E-04  0.6691E-06  0.2948E-03  0.7310E-02  0.1914E+08
   -0.977998    1.88491  0.0000E+00  0.3409E-04  0.5664E-06  0.2935E-03  0.6574E-02  0.8704E+07
   -1.020521    2.04655  0.0000E+00  0.3091E-04  0.4847E-06  0.2924E-03  0.5941E-02  0.3763E+08
   -1.063043    2.18928  0.0000E+00  0.2812E-04  0.4177E-06  0.2928E-03  0.5342E-02  0.5393E+10
   -1.105566    2.34127  0.0000E+00  0.2574E-04  0.3628E-06  0.2947E-03  0.4793E-02  0.5811E+07
   -1.148088    2.49603  0.0000E+00  0.2371E-04  0.3191E-06  0.3054E-03  0.4272E-02  0.2183E+08
   -1.190610    2.63123  0.0000E+00  0.2191E-04  0.2833E-06  0.3035E-03  0.3698E-02  0.4846E+08
   -1.233133    2.72139  0.0000E+00  0.2021E-04  0.2525E-06  0.3069E-03  0.3155E-02  0.1390E+08
   -1.275654    2.80310  0.0000E+00  0.1865E-04  0.2267E-06  0.2954E-03  0.2712E-02  0.7545E+08
   -1.318176    2.88367  0.0000E+00  0.1720E-04  0.2053E-06  0.2856E-03  0.2333E-02  0.4528E+10
   -1.360698    2.98480  0.0000E+00  0.1581E-04  0.1867E-06  0.2784E-03  0.1968E-02  0.1783E+13
   -1.403219    3.12752  0.0000E+00  0.1452E-04  0.1735E-06  0.2689E-03  0.1696E-02  0.1902E+15
   -1.445740    3.30051  0.0000E+00  0.1341E-04  0.1662E-06  0.2571E-03  0.1434E-02  0.4183E+14
   -1.488260    3.50172  0.0000E+00  0.1262E-04  0.1684E-06  0.2463E-03  0.1175E-02  0.1261E+15
   -1.530781    3.69296  0.0000E+00  0.1202E-04  0.1855E-06  0.2262E-03  0.9725E-03  0.2093E+13
   -1.573301    3.86312  0.0000E+00  0.1129E-04  0.2410E-06  0.1952E-03  0.8034E-03 -0.7094E+14
   -1.615820    4.06113  0.0000E+00  0.9640E-05  0.4672E-06  0.1187E-03  0.6598E-03 -0.1481E+15
   -1.658340    4.26317  0.0000E+00  0.6251E-05  0.1373E-05  0.2663E-04  0.5239E-03 -0.6527E+15
   -1.700858    4.78544  0.0000E+00  0.0000E+00  0.0000E+00  0.0000E+00  0.5952E-03  0.0000E+00
