 1 - depth, m
 2 - temperature, C
 3 - salinity, kg/kg
 4 - turbulent kinetic energy, m**2/s**2
 5 - dissipation rate, m**2/s**3
 6 - kinematic heat conductance, m**2/s
 7 - modulus of horizontal velocity, m/s
 8 - Richardson number, n/d
   -0.000000    8.04709  0.0000E+00  0.5772E-03  0.8537E-03  0.1273E-03  0.2594E+00 -0.2312E-03
   -0.042498    8.29359  0.0000E+00  0.2820E-03  0.2467E-03  0.2265E-03  0.5439E-01 -0.1025E+00
   -0.084997    8.35822  0.0000E+00  0.1982E-03  0.1292E-03  0.2071E-03  0.3395E-01 -0.1895E+00
   -0.127496    8.40203  0.0000E+00  0.1506E-03  0.7621E-04  0.1975E-03  0.2731E-01  0.4621E+02
   -0.169995    8.43235  0.0000E+00  0.1153E-03  0.4291E-04  0.1980E-03  0.2257E-01  0.1113E+02
   -0.212495    8.45939  0.0000E+00  0.8920E-04  0.2448E-04  0.2170E-03  0.1862E-01  0.9517E+02
   -0.254994    8.48057  0.0000E+00  0.6915E-04  0.1348E-04  0.2455E-03  0.1560E-01  0.3560E+02
   -0.297495    8.50066  0.0000E+00  0.5423E-04  0.7124E-05  0.2740E-03  0.1337E-01  0.6044E+02
   -0.339995    8.51834  0.0000E+00  0.4393E-04  0.3878E-05  0.3078E-03  0.1149E-01  0.4056E+02
   -0.382496    8.53398  0.0000E+00  0.3676E-04  0.2228E-05  0.3455E-03  0.9733E-02  0.5245E+02
   -0.424997    8.54731  0.0000E+00  0.3174E-04  0.1369E-05  0.3857E-03  0.8353E-02  0.1201E+03
   -0.467498    8.55895  0.0000E+00  0.2818E-04  0.8858E-06  0.4319E-03  0.7141E-02  0.4329E+02
   -0.510000    8.56898  0.0000E+00  0.2562E-04  0.6022E-06  0.4857E-03  0.6113E-02  0.2634E+04
   -0.552501    8.57738  0.0000E+00  0.2375E-04  0.4305E-06  0.5396E-03  0.5236E-02  0.2171E+02
   -0.595003    8.58443  0.0000E+00  0.2236E-04  0.3242E-06  0.5951E-03  0.4466E-02  0.4129E+03
   -0.637505    8.59053  0.0000E+00  0.2126E-04  0.2544E-06  0.6532E-03  0.3791E-02  0.1312E+02
   -0.680007    8.59610  0.0000E+00  0.2041E-04  0.2068E-06  0.7100E-03  0.3219E-02  0.1217E+02
   -0.722509    8.60127  0.0000E+00  0.1974E-04  0.1728E-06  0.7728E-03  0.2730E-02  0.6351E+01
   -0.765011    8.60617  0.0000E+00  0.1919E-04  0.1476E-06  0.8385E-03  0.2325E-02  0.2744E+01
   -0.807513    8.61086  0.0000E+00  0.1873E-04  0.1283E-06  0.8970E-03  0.1998E-02  0.1989E+01
   -0.850015    8.61543  0.0000E+00  0.1832E-04  0.1134E-06  0.9499E-03  0.1727E-02  0.1764E+01
   -0.892517    8.61987  0.0000E+00  0.1794E-04  0.1018E-06  0.9967E-03  0.1500E-02  0.1759E+01
   -0.935020    8.62423  0.0000E+00  0.1760E-04  0.9292E-07  0.1032E-02  0.1310E-02  0.1488E+01
   -0.977522    8.62848  0.0000E+00  0.1726E-04  0.8620E-07  0.1055E-02  0.1147E-02  0.2020E+01
   -1.020024    8.63269  0.0000E+00  0.1693E-04  0.8128E-07  0.1064E-02  0.1008E-02  0.1461E+01
   -1.062526    8.63686  0.0000E+00  0.1661E-04  0.7792E-07  0.1059E-02  0.8869E-03  0.1538E+01
   -1.105028    8.64104  0.0000E+00  0.1629E-04  0.7593E-07  0.1042E-02  0.7804E-03  0.1467E+01
   -1.147529    8.64525  0.0000E+00  0.1597E-04  0.7531E-07  0.1016E-02  0.6842E-03  0.1530E+01
   -1.190031    8.64944  0.0000E+00  0.1567E-04  0.7610E-07  0.9777E-03  0.5950E-03  0.1676E+01
   -1.232532    8.65365  0.0000E+00  0.1537E-04  0.7858E-07  0.9368E-03  0.5133E-03  0.1976E+01
   -1.275033    8.65822  0.0000E+00  0.1506E-04  0.8344E-07  0.8777E-03  0.4439E-03  0.3059E+01
   -1.317534    8.66362  0.0000E+00  0.1470E-04  0.9188E-07  0.8309E-03  0.3845E-03 -0.6371E+01
   -1.360035    8.67019  0.0000E+00  0.1426E-04  0.1071E-06  0.7542E-03  0.3332E-03 -0.9761E+02
   -1.402536    8.68025  0.0000E+00  0.1367E-04  0.1315E-06  0.6942E-03  0.2870E-03  0.1464E+04
   -1.445036    8.68966  0.0000E+00  0.1294E-04  0.1744E-06  0.5907E-03  0.2473E-03  0.1222E+04
   -1.487536    8.70963  0.0000E+00  0.1223E-04  0.2447E-06  0.5498E-03  0.1928E-03  0.1356E+06
   -1.530036    8.71835  0.0000E+00  0.1147E-04  0.4231E-06  0.4186E-03  0.1477E-03 -0.4587E+05
   -1.572535    8.81219  0.0000E+00  0.1078E-04  0.7864E-06  0.4486E-03  0.9601E-04  0.7744E+10
   -1.615034    8.73414  0.0000E+00  0.9357E-05  0.2150E-05  0.2227E-03  0.7842E-04 -0.3338E+10
   -1.657532    9.14775  0.0000E+00  0.7202E-05  0.4613E-05  0.2211E-03  0.4860E-04  0.1188E+07
   -1.700030    9.06284  0.0000E+00  0.0000E+00  0.0000E+00  0.0000E+00  0.9230E-04  0.0000E+00
