 1 - depth, m
 2 - temperature, C
 3 - salinity, kg/kg
 4 - turbulent kinetic energy, m**2/s**2
 5 - dissipation rate, m**2/s**3
 6 - kinematic heat conductance, m**2/s
 7 - modulus of horizontal velocity, m/s
 8 - Richardson number, n/d
   -0.000000    7.21405  0.0000E+00  0.2377E-03  0.1799E-03  0.8636E-04  0.1567E+00 -0.2059E-01
   -0.042497    7.47550  0.0000E+00  0.1248E-03  0.5280E-04  0.1217E-03  0.3893E-01 -0.7623E-01
   -0.084995    7.52006  0.0000E+00  0.8630E-04  0.2262E-04  0.1175E-03  0.2530E-01 -0.1368E+00
   -0.127493    7.55726  0.0000E+00  0.6420E-04  0.1149E-04  0.1226E-03  0.1958E-01  0.6076E+00
   -0.169991    7.58884  0.0000E+00  0.4914E-04  0.6145E-05  0.1374E-03  0.1561E-01  0.2712E+02
   -0.212490    7.61568  0.0000E+00  0.3820E-04  0.3266E-05  0.1613E-03  0.1250E-01  0.5066E+02
   -0.254989    7.63924  0.0000E+00  0.3028E-04  0.1748E-05  0.1938E-03  0.1012E-01  0.2607E+02
   -0.297488    7.66018  0.0000E+00  0.2480E-04  0.9780E-06  0.2408E-03  0.8350E-02  0.1518E+02
   -0.339988    7.67824  0.0000E+00  0.2111E-04  0.5760E-06  0.3045E-03  0.6977E-02  0.8497E+02
   -0.382488    7.69347  0.0000E+00  0.1867E-04  0.3705E-06  0.3777E-03  0.5868E-02  0.4031E+02
   -0.424988    7.70525  0.0000E+00  0.1709E-04  0.2590E-06  0.4368E-03  0.5018E-02  0.2041E+02
   -0.467488    7.71492  0.0000E+00  0.1608E-04  0.1910E-06  0.4898E-03  0.4296E-02  0.2897E+02
   -0.509989    7.72299  0.0000E+00  0.1544E-04  0.1471E-06  0.5375E-03  0.3669E-02  0.1011E+02
   -0.552489    7.72978  0.0000E+00  0.1505E-04  0.1192E-06  0.5858E-03  0.3119E-02  0.1079E+02
   -0.594990    7.73585  0.0000E+00  0.1484E-04  0.1003E-06  0.6336E-03  0.2626E-02  0.8476E+01
   -0.637491    7.74131  0.0000E+00  0.1472E-04  0.8701E-07  0.6872E-03  0.2191E-02  0.5791E+01
   -0.679992    7.74648  0.0000E+00  0.1468E-04  0.7717E-07  0.7467E-03  0.1821E-02  0.2020E+01
   -0.722493    7.75137  0.0000E+00  0.1468E-04  0.6984E-07  0.8160E-03  0.1510E-02  0.1777E+01
   -0.764995    7.75608  0.0000E+00  0.1471E-04  0.6439E-07  0.8944E-03  0.1257E-02  0.1594E+01
   -0.807496    7.76064  0.0000E+00  0.1473E-04  0.6040E-07  0.9711E-03  0.1061E-02  0.1516E+01
   -0.849997    7.76503  0.0000E+00  0.1474E-04  0.5763E-07  0.1042E-02  0.9044E-03  0.1461E+01
   -0.892498    7.76926  0.0000E+00  0.1473E-04  0.5581E-07  0.1102E-02  0.7795E-03  0.1404E+01
   -0.935000    7.77336  0.0000E+00  0.1469E-04  0.5475E-07  0.1142E-02  0.6799E-03  0.1383E+01
   -0.977501    7.77737  0.0000E+00  0.1463E-04  0.5432E-07  0.1159E-02  0.5983E-03  0.1341E+01
   -1.020002    7.78137  0.0000E+00  0.1454E-04  0.5441E-07  0.1155E-02  0.5316E-03  0.1336E+01
   -1.062503    7.78540  0.0000E+00  0.1444E-04  0.5497E-07  0.1134E-02  0.4755E-03  0.1330E+01
   -1.105004    7.78949  0.0000E+00  0.1431E-04  0.5601E-07  0.1101E-02  0.4276E-03  0.1360E+01
   -1.147505    7.79369  0.0000E+00  0.1417E-04  0.5758E-07  0.1064E-02  0.3852E-03  0.1448E+01
   -1.190005    7.79791  0.0000E+00  0.1402E-04  0.5981E-07  0.1015E-02  0.3462E-03  0.1650E+01
   -1.232506    7.80220  0.0000E+00  0.1386E-04  0.6312E-07  0.9679E-03  0.3100E-03  0.2088E+01
   -1.275006    7.80686  0.0000E+00  0.1366E-04  0.6821E-07  0.8995E-03  0.2777E-03  0.8007E+01
   -1.317506    7.81248  0.0000E+00  0.1340E-04  0.7599E-07  0.8609E-03  0.2473E-03  0.7256E+01
   -1.360006    7.81919  0.0000E+00  0.1303E-04  0.8938E-07  0.7561E-03  0.2194E-03 -0.1250E+03
   -1.402506    7.83021  0.0000E+00  0.1251E-04  0.1107E-06  0.7032E-03  0.1903E-03  0.5999E+04
   -1.445005    7.84039  0.0000E+00  0.1185E-04  0.1502E-06  0.5957E-03  0.1652E-03  0.1239E+04
   -1.487504    7.86214  0.0000E+00  0.1121E-04  0.2095E-06  0.5493E-03  0.1292E-03  0.3761E+05
   -1.530003    7.87153  0.0000E+00  0.1050E-04  0.3598E-06  0.4193E-03  0.9980E-04  0.7046E+06
   -1.572501    7.97626  0.0000E+00  0.9858E-05  0.6653E-06  0.4480E-03  0.6525E-04  0.1497E+10
   -1.614999    7.88154  0.0000E+00  0.8562E-05  0.1783E-05  0.2167E-03  0.5364E-04 -0.1251E+11
   -1.657497    8.33914  0.0000E+00  0.6579E-05  0.3908E-05  0.2172E-03  0.3338E-04  0.1243E+08
   -1.699994    8.24432  0.0000E+00  0.0000E+00  0.0000E+00  0.0000E+00  0.6050E-04  0.0000E+00
