 1 - depth, m
 2 - temperature, C
 3 - salinity, kg/kg
 4 - turbulent kinetic energy, m**2/s**2
 5 - dissipation rate, m**2/s**3
 6 - kinematic heat conductance, m**2/s
 7 - modulus of horizontal velocity, m/s
 8 - Richardson number, n/d
   -0.000000    7.83158  0.0000E+00  0.6071E-03  0.1446E-02  0.6089E-04  0.2083E+00 -0.7644E-01
   -0.042497    8.04730  0.0000E+00  0.2919E-03  0.4514E-03  0.1849E-03  0.4472E-01 -0.8176E-01
   -0.084995    8.08748  0.0000E+00  0.2059E-03  0.2551E-03  0.2318E-03  0.2837E-01  0.3243E+03
   -0.127493    8.11494  0.0000E+00  0.1620E-03  0.1567E-03  0.2632E-03  0.2324E-01  0.4454E+01
   -0.169991    8.13431  0.0000E+00  0.1260E-03  0.8770E-04  0.2956E-03  0.1957E-01  0.4028E+01
   -0.212490    8.15055  0.0000E+00  0.9925E-04  0.4794E-04  0.3406E-03  0.1635E-01  0.2794E+01
   -0.254989    8.16513  0.0000E+00  0.7928E-04  0.2896E-04  0.3945E-03  0.1375E-01  0.3110E+01
   -0.297489    8.17731  0.0000E+00  0.6339E-04  0.1601E-04  0.4477E-03  0.1195E-01  0.6619E+02
   -0.339988    8.18788  0.0000E+00  0.5236E-04  0.9589E-05  0.5002E-03  0.1048E-01  0.1071E+02
   -0.382488    8.19830  0.0000E+00  0.4404E-04  0.6057E-05  0.5607E-03  0.9011E-02  0.4016E+03
   -0.424988    8.20696  0.0000E+00  0.3874E-04  0.3998E-05  0.6149E-03  0.7944E-02  0.2770E+02
   -0.467489    8.21453  0.0000E+00  0.3480E-04  0.2750E-05  0.6730E-03  0.6894E-02  0.6913E+02
   -0.509989    8.22111  0.0000E+00  0.3178E-04  0.1949E-05  0.7300E-03  0.5970E-02  0.4278E+02
   -0.552490    8.22708  0.0000E+00  0.2941E-04  0.1413E-05  0.7913E-03  0.5178E-02  0.1111E+02
   -0.594991    8.23232  0.0000E+00  0.2751E-04  0.1041E-05  0.8579E-03  0.4474E-02  0.2252E+02
   -0.637492    8.23705  0.0000E+00  0.2590E-04  0.7656E-06  0.9381E-03  0.3866E-02  0.2084E+02
   -0.679993    8.24139  0.0000E+00  0.2454E-04  0.5628E-06  0.1019E-02  0.3359E-02  0.2095E+02
   -0.722494    8.24554  0.0000E+00  0.2342E-04  0.4291E-06  0.1102E-02  0.2921E-02  0.2391E+02
   -0.764995    8.24943  0.0000E+00  0.2246E-04  0.3314E-06  0.1162E-02  0.2565E-02  0.1104E+02
   -0.807497    8.25316  0.0000E+00  0.2162E-04  0.2607E-06  0.1200E-02  0.2276E-02  0.2587E+01
   -0.849998    8.25685  0.0000E+00  0.2088E-04  0.2089E-06  0.1223E-02  0.2024E-02  0.3168E+01
   -0.892499    8.26047  0.0000E+00  0.2023E-04  0.1716E-06  0.1239E-02  0.1804E-02  0.5081E+01
   -0.935000    8.26414  0.0000E+00  0.1965E-04  0.1456E-06  0.1243E-02  0.1617E-02  0.6708E+01
   -0.977502    8.26775  0.0000E+00  0.1913E-04  0.1261E-06  0.1237E-02  0.1449E-02  0.1884E+01
   -1.020003    8.27145  0.0000E+00  0.1863E-04  0.1112E-06  0.1224E-02  0.1296E-02  0.3782E+01
   -1.062504    8.27513  0.0000E+00  0.1817E-04  0.1009E-06  0.1200E-02  0.1156E-02  0.2237E+01
   -1.105005    8.27887  0.0000E+00  0.1772E-04  0.9385E-07  0.1168E-02  0.1028E-02  0.2314E+01
   -1.147506    8.28266  0.0000E+00  0.1730E-04  0.8944E-07  0.1132E-02  0.9063E-03  0.2880E+01
   -1.190006    8.28642  0.0000E+00  0.1691E-04  0.8730E-07  0.1085E-02  0.7896E-03  0.3066E+01
   -1.232507    8.29016  0.0000E+00  0.1651E-04  0.8726E-07  0.1035E-02  0.6787E-03  0.3544E+01
   -1.275007    8.29426  0.0000E+00  0.1609E-04  0.8966E-07  0.9715E-03  0.5818E-03  0.4637E+01
   -1.317507    8.29905  0.0000E+00  0.1563E-04  0.9534E-07  0.9081E-03  0.4974E-03  0.9171E+02
   -1.360007    8.30483  0.0000E+00  0.1511E-04  0.1063E-06  0.8340E-03  0.4259E-03  0.1061E+06
   -1.402507    8.31273  0.0000E+00  0.1447E-04  0.1262E-06  0.7604E-03  0.3649E-03  0.1464E+04
   -1.445006    8.32171  0.0000E+00  0.1373E-04  0.1615E-06  0.6553E-03  0.3124E-03  0.1806E+06
   -1.487505    8.33685  0.0000E+00  0.1298E-04  0.2210E-06  0.5882E-03  0.2540E-03  0.3005E+05
   -1.530004    8.34856  0.0000E+00  0.1213E-04  0.3967E-06  0.4693E-03  0.1953E-03 -0.2328E+06
   -1.572503    8.41930  0.0000E+00  0.1134E-04  0.7087E-06  0.4847E-03  0.1315E-03  0.3006E+10
   -1.615001    8.36703  0.0000E+00  0.9713E-05  0.1984E-05  0.2368E-03  0.1052E-03 -0.5968E+10
   -1.657498    8.73433  0.0000E+00  0.7391E-05  0.4252E-05  0.2157E-03  0.6639E-04 -0.9493E+04
   -1.699996    8.67090  0.0000E+00  0.0000E+00  0.0000E+00  0.0000E+00  0.1150E-03  0.0000E+00
