 1 - depth, m
 2 - temperature, C
 3 - salinity, kg/kg
 4 - turbulent kinetic energy, m**2/s**2
 5 - dissipation rate, m**2/s**3
 6 - kinematic heat conductance, m**2/s
 7 - modulus of horizontal velocity, m/s
 8 - Richardson number, n/d
   -0.000000    0.00005  0.0000E+00  0.8957E-03  0.3251E-02  0.1445E-03  0.4867E+00  0.6517E-02
   -0.042493    0.09778  0.0000E+00  0.5184E-03  0.1607E-02  0.2551E-03  0.1160E+00  0.3984E-01
   -0.084986    0.15762  0.0000E+00  0.3625E-03  0.6764E-03  0.2946E-03  0.6880E-01  0.3958E-01
   -0.127480    0.19206  0.0000E+00  0.2824E-03  0.3837E-03  0.2756E-03  0.5532E-01  0.2868E-01
   -0.169974    0.22050  0.0000E+00  0.2271E-03  0.2359E-03  0.2635E-03  0.4639E-01  0.1164E+00
   -0.212469    0.24711  0.0000E+00  0.1843E-03  0.1452E-03  0.2542E-03  0.3917E-01  0.2720E+00
   -0.254964    0.27478  0.0000E+00  0.1510E-03  0.8466E-04  0.2506E-03  0.3340E-01  0.7466E+01
   -0.297459    0.30285  0.0000E+00  0.1257E-03  0.4851E-04  0.2446E-03  0.2962E-01  0.1442E+02
   -0.339954    0.32937  0.0000E+00  0.1063E-03  0.2746E-04  0.2392E-03  0.2682E-01  0.5209E+02
   -0.382450    0.35531  0.0000E+00  0.9115E-04  0.1487E-04  0.2351E-03  0.2408E-01  0.4993E+02
   -0.424946    0.37970  0.0000E+00  0.7927E-04  0.7948E-05  0.2278E-03  0.2195E-01  0.6093E+01
   -0.467442    0.40418  0.0000E+00  0.6979E-04  0.4431E-05  0.2208E-03  0.1956E-01  0.1599E+01
   -0.509938    0.42846  0.0000E+00  0.6178E-04  0.2753E-05  0.2123E-03  0.1728E-01  0.2798E+01
   -0.552435    0.45249  0.0000E+00  0.5479E-04  0.1866E-05  0.2003E-03  0.1519E-01  0.4053E+01
   -0.594931    0.47744  0.0000E+00  0.4839E-04  0.1337E-05  0.1867E-03  0.1317E-01  0.2236E+02
   -0.637428    0.50442  0.0000E+00  0.4231E-04  0.1001E-05  0.1728E-03  0.1130E-01  0.4441E+03
   -0.679925    0.53395  0.0000E+00  0.3667E-04  0.7765E-06  0.1540E-03  0.9735E-02  0.1075E+05
   -0.722422    0.56856  0.0000E+00  0.3134E-04  0.6129E-06  0.1342E-03  0.8351E-02  0.4604E+06
   -0.764919    0.61077  0.0000E+00  0.2637E-04  0.4851E-06  0.1124E-03  0.7188E-02  0.5199E+09
   -0.807416    0.66522  0.0000E+00  0.2180E-04  0.3821E-06  0.8809E-04  0.6254E-02  0.6971E+09
   -0.849913    0.74516  0.0000E+00  0.1763E-04  0.2974E-06  0.6505E-04  0.5404E-02  0.1435E+11
   -0.892410    0.87987  0.0000E+00  0.1389E-04  0.2268E-06  0.4418E-04  0.4600E-02  0.3932E+13
   -0.934907    1.15063  0.0000E+00  0.1067E-04  0.1686E-06  0.3777E-04  0.3843E-02  0.2180E+13
   -0.977404    1.62318  0.0000E+00  0.8034E-05  0.1201E-06  0.4909E-04  0.2969E-02  0.1331E+13
   -1.019901    2.29409  0.0000E+00  0.6214E-05  0.8331E-07  0.8688E-04  0.2183E-02 -0.1272E+12
   -1.062398    2.94324  0.0000E+00  0.5099E-05  0.5897E-07  0.1428E-03  0.1555E-02 -0.1836E+12
   -1.104894    3.41686  0.0000E+00  0.4406E-05  0.4340E-07  0.1893E-03  0.1167E-02 -0.8377E+11
   -1.147391    3.73613  0.0000E+00  0.3981E-05  0.3322E-07  0.2254E-03  0.8414E-03 -0.7903E+11
   -1.189887    3.93955  0.0000E+00  0.3718E-05  0.2688E-07  0.2527E-03  0.5738E-03 -0.1709E+12
   -1.232384    4.07376  0.0000E+00  0.3545E-05  0.2246E-07  0.2696E-03  0.3758E-03 -0.7538E+11
   -1.274880    4.16384  0.0000E+00  0.3451E-05  0.1952E-07  0.2804E-03  0.2632E-03 -0.9590E+11
   -1.317376    4.22452  0.0000E+00  0.3403E-05  0.1756E-07  0.2857E-03  0.1960E-03 -0.1239E+12
   -1.359871    4.27266  0.0000E+00  0.3381E-05  0.1625E-07  0.2868E-03  0.1503E-03 -0.1617E+12
   -1.402367    4.31574  0.0000E+00  0.3375E-05  0.1545E-07  0.2835E-03  0.1178E-03  0.1245E+14
   -1.444862    4.35534  0.0000E+00  0.3382E-05  0.1525E-07  0.2755E-03  0.9216E-04  0.1094E+14
   -1.487357    4.39541  0.0000E+00  0.3407E-05  0.1576E-07  0.2607E-03  0.6972E-04 -0.2628E+13
   -1.529851    4.43643  0.0000E+00  0.3459E-05  0.1746E-07  0.2340E-03  0.5031E-04 -0.6872E+13
   -1.572345    4.48086  0.0000E+00  0.3541E-05  0.2211E-07  0.1944E-03  0.3483E-04 -0.1742E+14
   -1.614839    4.55205  0.0000E+00  0.3507E-05  0.3894E-07  0.1207E-03  0.2499E-04 -0.3936E+14
   -1.657332    4.69069  0.0000E+00  0.2728E-05  0.1109E-06  0.2831E-04  0.1691E-04 -0.3164E+15
   -1.699825    5.15666  0.0000E+00  0.0000E+00  0.0000E+00  0.0000E+00  0.1899E-04  0.0000E+00
