 1 - depth, m
 2 - temperature, C
 3 - salinity, kg/kg
 4 - turbulent kinetic energy, m**2/s**2
 5 - dissipation rate, m**2/s**3
 6 - kinematic heat conductance, m**2/s
 7 - modulus of horizontal velocity, m/s
 8 - Richardson number, n/d
   -0.000000    9.20722  0.0000E+00  0.6675E-04  0.3041E-04  0.4280E-04  0.6128E-01 -0.3176E-01
   -0.042497    9.31418  0.0000E+00  0.3786E-04  0.9621E-05  0.5281E-04  0.2094E-01 -0.3198E-01
   -0.084995    9.34487  0.0000E+00  0.2691E-04  0.3995E-05  0.6682E-04  0.1393E-01 -0.5374E-01
   -0.127493    9.36750  0.0000E+00  0.2042E-04  0.1709E-05  0.8616E-04  0.1005E-01  0.6194E+01
   -0.169991    9.38624  0.0000E+00  0.1639E-04  0.7337E-06  0.1188E-03  0.7415E-02  0.4558E+01
   -0.212490    9.40169  0.0000E+00  0.1390E-04  0.3310E-06  0.1962E-03  0.5576E-02  0.6931E+03
   -0.254989    9.41316  0.0000E+00  0.1250E-04  0.1807E-06  0.3145E-03  0.4368E-02  0.1044E+03
   -0.297489    9.42085  0.0000E+00  0.1183E-04  0.1220E-06  0.3990E-03  0.3603E-02  0.1842E+02
   -0.339988    9.42665  0.0000E+00  0.1159E-04  0.9315E-07  0.4774E-03  0.3046E-02  0.2979E+03
   -0.382488    9.43131  0.0000E+00  0.1162E-04  0.7647E-07  0.5479E-03  0.2609E-02  0.2067E+01
   -0.424988    9.43532  0.0000E+00  0.1180E-04  0.6575E-07  0.6067E-03  0.2252E-02  0.2153E+01
   -0.467489    9.43889  0.0000E+00  0.1207E-04  0.5845E-07  0.6623E-03  0.1938E-02  0.2483E+01
   -0.509989    9.44216  0.0000E+00  0.1241E-04  0.5338E-07  0.7207E-03  0.1656E-02  0.1875E+01
   -0.552490    9.44518  0.0000E+00  0.1277E-04  0.4986E-07  0.7824E-03  0.1406E-02  0.1815E+01
   -0.594991    9.44800  0.0000E+00  0.1314E-04  0.4750E-07  0.8510E-03  0.1182E-02  0.1736E+01
   -0.637492    9.45065  0.0000E+00  0.1350E-04  0.4606E-07  0.9343E-03  0.9881E-03  0.1611E+01
   -0.679993    9.45317  0.0000E+00  0.1385E-04  0.4537E-07  0.1031E-02  0.8276E-03  0.1531E+01
   -0.722494    9.45557  0.0000E+00  0.1417E-04  0.4527E-07  0.1143E-02  0.6976E-03  0.1458E+01
   -0.764995    9.45787  0.0000E+00  0.1444E-04  0.4563E-07  0.1260E-02  0.5961E-03  0.1401E+01
   -0.807496    9.46011  0.0000E+00  0.1466E-04  0.4632E-07  0.1345E-02  0.5190E-03  0.1373E+01
   -0.849998    9.46235  0.0000E+00  0.1482E-04  0.4723E-07  0.1377E-02  0.4593E-03  0.1338E+01
   -0.892499    9.46464  0.0000E+00  0.1494E-04  0.4831E-07  0.1374E-02  0.4123E-03  0.1290E+01
   -0.935000    9.46705  0.0000E+00  0.1501E-04  0.4953E-07  0.1355E-02  0.3747E-03  0.1280E+01
   -0.977502    9.46955  0.0000E+00  0.1505E-04  0.5091E-07  0.1326E-02  0.3437E-03  0.1282E+01
   -1.020003    9.47217  0.0000E+00  0.1504E-04  0.5248E-07  0.1292E-02  0.3174E-03  0.1358E+01
   -1.062504    9.47489  0.0000E+00  0.1501E-04  0.5432E-07  0.1255E-02  0.2942E-03  0.1480E+01
   -1.105005    9.47772  0.0000E+00  0.1494E-04  0.5658E-07  0.1209E-02  0.2731E-03  0.1708E+01
   -1.147506    9.48069  0.0000E+00  0.1484E-04  0.5936E-07  0.1164E-02  0.2528E-03  0.1996E+01
   -1.190006    9.48372  0.0000E+00  0.1472E-04  0.6291E-07  0.1108E-02  0.2329E-03  0.2682E+01
   -1.232507    9.48684  0.0000E+00  0.1456E-04  0.6793E-07  0.1051E-02  0.2127E-03  0.2717E+03
   -1.275007    9.49039  0.0000E+00  0.1435E-04  0.7551E-07  0.9801E-03  0.1930E-03 -0.1276E+02
   -1.317507    9.49498  0.0000E+00  0.1406E-04  0.8694E-07  0.9149E-03  0.1729E-03 -0.1171E+02
   -1.360007    9.50057  0.0000E+00  0.1366E-04  0.1088E-06  0.8142E-03  0.1537E-03  0.6999E+03
   -1.402507    9.51054  0.0000E+00  0.1312E-04  0.1401E-06  0.7353E-03  0.1335E-03  0.3529E+06
   -1.445006    9.51802  0.0000E+00  0.1245E-04  0.1944E-06  0.6457E-03  0.1162E-03  0.1981E+06
   -1.487505    9.53667  0.0000E+00  0.1182E-04  0.2788E-06  0.5636E-03  0.9141E-04  0.3648E+05
   -1.530004    9.54412  0.0000E+00  0.1112E-04  0.4943E-06  0.4461E-03  0.7032E-04 -0.1291E+06
   -1.572503    9.63688  0.0000E+00  0.1054E-04  0.8930E-06  0.4688E-03  0.4680E-04  0.5716E+12
   -1.615001    9.55367  0.0000E+00  0.9202E-05  0.2459E-05  0.2337E-03  0.3823E-04 -0.3251E+11
   -1.657498    9.95751  0.0000E+00  0.7137E-05  0.5054E-05  0.2430E-03  0.2408E-04 -0.8606E+06
   -1.699996    9.87023  0.0000E+00  0.0000E+00  0.0000E+00  0.0000E+00  0.4384E-04  0.0000E+00
