 1 - depth, m
 2 - temperature, C
 3 - salinity, kg/kg
 4 - turbulent kinetic energy, m**2/s**2
 5 - dissipation rate, m**2/s**3
 6 - kinematic heat conductance, m**2/s
 7 - modulus of horizontal velocity, m/s
 8 - Richardson number, n/d
   -0.000000    2.82336  0.0000E+00  0.7513E-03  0.3589E-02  0.6998E-04  0.2818E+00  0.7542E-02
   -0.042497    3.15153  0.0000E+00  0.3770E-03  0.1342E-02  0.2110E-03  0.6104E-01  0.8269E-02
   -0.084995    3.24401  0.0000E+00  0.2607E-03  0.6098E-03  0.2167E-03  0.3800E-01  0.2453E-01
   -0.127493    3.32135  0.0000E+00  0.1973E-03  0.3373E-03  0.1869E-03  0.2976E-01  0.5200E-01
   -0.169991    3.41928  0.0000E+00  0.1494E-03  0.1851E-03  0.1593E-03  0.2414E-01  0.7069E-01
   -0.212490    3.60522  0.0000E+00  0.1158E-03  0.1200E-03  0.1511E-03  0.1930E-01  0.4166E+01
   -0.254989    3.77244  0.0000E+00  0.8756E-04  0.7136E-04  0.1689E-03  0.1571E-01  0.1226E+02
   -0.297489    3.83917  0.0000E+00  0.6869E-04  0.4657E-04  0.1752E-03  0.1311E-01  0.4344E+02
   -0.339988    3.89998  0.0000E+00  0.5542E-04  0.3056E-04  0.1815E-03  0.1110E-01  0.9292E+01
   -0.382488    3.95242  0.0000E+00  0.4485E-04  0.1934E-04  0.1992E-03  0.9343E-02  0.2644E+02
   -0.424988    3.99704  0.0000E+00  0.3669E-04  0.1206E-04  0.2159E-03  0.8114E-02  0.3977E+02
   -0.467489    4.03517  0.0000E+00  0.3097E-04  0.7333E-05  0.2352E-03  0.6870E-02  0.2614E+02
   -0.509989    4.06749  0.0000E+00  0.2626E-04  0.4198E-05  0.2551E-03  0.5797E-02  0.7913E+02
   -0.552490    4.09521  0.0000E+00  0.2270E-04  0.2266E-05  0.2789E-03  0.4877E-02  0.1551E+02
   -0.594991    4.11942  0.0000E+00  0.2002E-04  0.1226E-05  0.3060E-03  0.4073E-02  0.1380E+02
   -0.637492    4.14159  0.0000E+00  0.1784E-04  0.7113E-06  0.3312E-03  0.3406E-02  0.2148E+02
   -0.679993    4.16128  0.0000E+00  0.1606E-04  0.4584E-06  0.3561E-03  0.2901E-02  0.1469E+02
   -0.722494    4.17944  0.0000E+00  0.1456E-04  0.3242E-06  0.3803E-03  0.2488E-02  0.1392E+02
   -0.764995    4.19656  0.0000E+00  0.1330E-04  0.2457E-06  0.4062E-03  0.2161E-02 -0.1471E+02
   -0.807497    4.21290  0.0000E+00  0.1222E-04  0.1944E-06  0.4304E-03  0.1907E-02 -0.2124E+04
   -0.849998    4.22849  0.0000E+00  0.1131E-04  0.1587E-06  0.4522E-03  0.1694E-02 -0.5091E+04
   -0.892499    4.24338  0.0000E+00  0.1052E-04  0.1320E-06  0.4726E-03  0.1512E-02 -0.2028E+04
   -0.935001    4.25774  0.0000E+00  0.9848E-05  0.1115E-06  0.4929E-03  0.1357E-02 -0.7103E+03
   -0.977502    4.27134  0.0000E+00  0.9270E-05  0.9515E-07  0.5102E-03  0.1220E-02  0.5415E+04
   -1.020003    4.28432  0.0000E+00  0.8769E-05  0.8196E-07  0.5252E-03  0.1100E-02  0.3348E+02
   -1.062504    4.29664  0.0000E+00  0.8332E-05  0.7120E-07  0.5349E-03  0.9908E-03  0.1677E+03
   -1.105005    4.30856  0.0000E+00  0.7946E-05  0.6234E-07  0.5427E-03  0.8915E-03  0.2646E+02
   -1.147506    4.32002  0.0000E+00  0.7609E-05  0.5519E-07  0.5460E-03  0.7974E-03  0.9852E+02
   -1.190007    4.33099  0.0000E+00  0.7319E-05  0.4960E-07  0.5470E-03  0.7057E-03  0.5876E+02
   -1.232507    4.34152  0.0000E+00  0.7059E-05  0.4515E-07  0.5447E-03  0.6184E-03  0.4838E+02
   -1.275008    4.35229  0.0000E+00  0.6820E-05  0.4168E-07  0.5379E-03  0.5402E-03  0.1279E+03
   -1.317508    4.36352  0.0000E+00  0.6599E-05  0.3922E-07  0.5274E-03  0.4702E-03  0.4198E+02
   -1.360008    4.37545  0.0000E+00  0.6388E-05  0.3789E-07  0.5092E-03  0.4081E-03  0.7591E+02
   -1.402507    4.38853  0.0000E+00  0.6170E-05  0.3810E-07  0.4857E-03  0.3542E-03  0.1311E+03
   -1.445007    4.40310  0.0000E+00  0.5961E-05  0.4067E-07  0.4547E-03  0.3039E-03  0.1496E+03
   -1.487506    4.41818  0.0000E+00  0.5765E-05  0.4725E-07  0.4193E-03  0.2521E-03  0.2286E+03
   -1.530004    4.43330  0.0000E+00  0.5564E-05  0.6319E-07  0.3614E-03  0.1961E-03  0.3840E+03
   -1.572503    4.45166  0.0000E+00  0.5360E-05  0.1042E-06  0.3085E-03  0.1441E-03 -0.3105E+07
   -1.615001    4.48227  0.0000E+00  0.4910E-05  0.2558E-06  0.1696E-03  0.1148E-03 -0.7284E+05
   -1.657499    4.59424  0.0000E+00  0.3585E-05  0.6062E-06  0.4972E-04  0.8404E-04 -0.3578E+07
   -1.699996    4.94601  0.0000E+00  0.0000E+00  0.0000E+00  0.0000E+00  0.1302E-03  0.0000E+00
