 1 - depth, m
 2 - temperature, C
 3 - salinity, kg/kg
 4 - turbulent kinetic energy, m**2/s**2
 5 - dissipation rate, m**2/s**3
 6 - kinematic heat conductance, m**2/s
 7 - modulus of horizontal velocity, m/s
 8 - Richardson number, n/d
   -0.000000    6.97748  0.0000E+00  0.1016E-02  0.5375E-02  0.1376E-03  0.4689E+00 -0.1466E-01
   -0.042497    7.35227  0.0000E+00  0.4994E-03  0.2554E-02  0.2005E-03  0.1071E+00  0.4509E+00
   -0.084995    7.53009  0.0000E+00  0.3169E-03  0.7888E-03  0.2435E-03  0.5842E-01  0.1168E+00
   -0.127493    7.60673  0.0000E+00  0.2304E-03  0.4282E-03  0.2176E-03  0.4384E-01  0.5710E+01
   -0.169991    7.64956  0.0000E+00  0.1764E-03  0.2546E-03  0.2074E-03  0.3482E-01  0.1440E+01
   -0.212489    7.68455  0.0000E+00  0.1361E-03  0.1504E-03  0.2236E-03  0.2807E-01  0.3619E+01
   -0.254988    7.71836  0.0000E+00  0.1071E-03  0.8719E-04  0.2644E-03  0.2291E-01  0.1059E+02
   -0.297488    7.74350  0.0000E+00  0.8616E-04  0.4805E-04  0.2925E-03  0.1957E-01  0.1860E+02
   -0.339987    7.76473  0.0000E+00  0.7097E-04  0.2555E-04  0.3160E-03  0.1708E-01  0.1535E+02
   -0.382487    7.78538  0.0000E+00  0.5998E-04  0.1368E-04  0.3537E-03  0.1472E-01  0.8219E+02
   -0.424987    7.80073  0.0000E+00  0.5213E-04  0.7509E-05  0.3869E-03  0.1301E-01  0.7535E+02
   -0.467487    7.81511  0.0000E+00  0.4640E-04  0.4243E-05  0.4297E-03  0.1133E-01  0.1209E+03
   -0.509988    7.82855  0.0000E+00  0.4210E-04  0.2506E-05  0.4821E-03  0.9861E-02  0.3154E+03
   -0.552488    7.83918  0.0000E+00  0.3873E-04  0.1588E-05  0.5410E-03  0.8609E-02  0.7692E+02
   -0.594989    7.84872  0.0000E+00  0.3603E-04  0.1066E-05  0.6046E-03  0.7495E-02  0.1076E+03
   -0.637490    7.85734  0.0000E+00  0.3379E-04  0.7548E-06  0.6807E-03  0.6530E-02  0.4797E+02
   -0.679991    7.86444  0.0000E+00  0.3189E-04  0.5684E-06  0.7462E-03  0.5725E-02  0.7705E+02
   -0.722492    7.87115  0.0000E+00  0.3024E-04  0.4476E-06  0.8116E-03  0.5018E-02  0.2309E+02
   -0.764993    7.87715  0.0000E+00  0.2876E-04  0.3648E-06  0.8620E-03  0.4419E-02  0.9013E+02
   -0.807494    7.88295  0.0000E+00  0.2737E-04  0.3033E-06  0.8992E-03  0.3911E-02  0.1368E+04
   -0.849995    7.88851  0.0000E+00  0.2617E-04  0.2583E-06  0.9789E-03  0.3462E-02  0.1900E+02
   -0.892496    7.89376  0.0000E+00  0.2511E-04  0.2235E-06  0.1018E-02  0.3105E-02  0.1299E+02
   -0.934997    7.89887  0.0000E+00  0.2414E-04  0.1958E-06  0.1013E-02  0.2794E-02  0.2292E+02
   -0.977499    7.90402  0.0000E+00  0.2322E-04  0.1729E-06  0.1037E-02  0.2491E-02  0.1121E+02
   -1.020000    7.90906  0.0000E+00  0.2237E-04  0.1544E-06  0.1025E-02  0.2227E-02  0.7363E+01
   -1.062501    7.91410  0.0000E+00  0.2155E-04  0.1395E-06  0.1029E-02  0.1974E-02  0.2318E+02
   -1.105001    7.91909  0.0000E+00  0.2078E-04  0.1278E-06  0.1020E-02  0.1746E-02  0.7532E+01
   -1.147502    7.92404  0.0000E+00  0.2005E-04  0.1193E-06  0.1003E-02  0.1530E-02  0.6870E+01
   -1.190003    7.92893  0.0000E+00  0.1939E-04  0.1137E-06  0.9764E-03  0.1323E-02  0.6198E+01
   -1.232503    7.93378  0.0000E+00  0.1874E-04  0.1108E-06  0.9464E-03  0.1129E-02  0.6203E+01
   -1.275003    7.93892  0.0000E+00  0.1811E-04  0.1107E-06  0.9045E-03  0.9600E-03  0.8655E+01
   -1.317503    7.94458  0.0000E+00  0.1747E-04  0.1145E-06  0.8612E-03  0.8171E-03  0.1722E+02
   -1.360003    7.95129  0.0000E+00  0.1678E-04  0.1247E-06  0.7923E-03  0.6968E-03  0.1063E+04
   -1.402503    7.95998  0.0000E+00  0.1597E-04  0.1463E-06  0.7360E-03  0.5957E-03  0.3728E+04
   -1.445002    7.97106  0.0000E+00  0.1506E-04  0.1862E-06  0.6442E-03  0.5050E-03  0.7096E+03
   -1.487501    7.98777  0.0000E+00  0.1419E-04  0.2532E-06  0.5926E-03  0.4076E-03  0.3148E+06
   -1.529999    7.99904  0.0000E+00  0.1325E-04  0.4253E-06  0.4671E-03  0.3166E-03 -0.4004E+04
   -1.572498    8.07406  0.0000E+00  0.1237E-04  0.7970E-06  0.4767E-03  0.2160E-03  0.3066E+09
   -1.614996    8.01777  0.0000E+00  0.1055E-04  0.2287E-05  0.2409E-03  0.1745E-03 -0.9225E+09
   -1.657493    8.38473  0.0000E+00  0.7915E-05  0.4830E-05  0.2148E-03  0.1114E-03 -0.1527E+07
   -1.699990    8.33365  0.0000E+00  0.0000E+00  0.0000E+00  0.0000E+00  0.1908E-03  0.0000E+00
