 1 - depth, m
 2 - temperature, C
 3 - salinity, kg/kg
 4 - turbulent kinetic energy, m**2/s**2
 5 - dissipation rate, m**2/s**3
 6 - kinematic heat conductance, m**2/s
 7 - modulus of horizontal velocity, m/s
 8 - Richardson number, n/d
   -0.000000   12.32402  0.0000E+00  0.5448E-03  0.1567E-02  0.1193E-03  0.2928E+00  0.8199E-02
   -0.042497   12.50492  0.0000E+00  0.2832E-03  0.6073E-03  0.2103E-03  0.6638E-01 -0.1928E+00
   -0.084995   12.56040  0.0000E+00  0.1950E-03  0.2938E-03  0.1968E-03  0.3928E-01  0.2187E+01
   -0.127493   12.58978  0.0000E+00  0.1482E-03  0.1548E-03  0.2012E-03  0.3091E-01  0.4006E+00
   -0.169992   12.60955  0.0000E+00  0.1160E-03  0.8217E-04  0.2074E-03  0.2551E-01  0.7333E+03
   -0.212490   12.62730  0.0000E+00  0.9189E-04  0.4283E-04  0.2361E-03  0.2116E-01  0.7248E+01
   -0.254990   12.64202  0.0000E+00  0.7359E-04  0.2189E-04  0.2782E-03  0.1784E-01  0.1315E+02
   -0.297489   12.65480  0.0000E+00  0.5997E-04  0.1080E-04  0.3159E-03  0.1542E-01  0.1165E+02
   -0.339989   12.66618  0.0000E+00  0.5020E-04  0.5380E-05  0.3621E-03  0.1346E-01  0.2417E+02
   -0.382489   12.67640  0.0000E+00  0.4317E-04  0.2874E-05  0.4260E-03  0.1165E-01  0.8272E+02
   -0.424989   12.68474  0.0000E+00  0.3814E-04  0.1614E-05  0.4830E-03  0.1025E-01  0.3011E+02
   -0.467489   12.69239  0.0000E+00  0.3459E-04  0.1016E-05  0.5463E-03  0.8928E-02  0.1143E+03
   -0.509990   12.69840  0.0000E+00  0.3200E-04  0.6922E-06  0.6047E-03  0.7782E-02  0.1759E+03
   -0.552491   12.70364  0.0000E+00  0.3009E-04  0.4973E-06  0.6628E-03  0.6764E-02  0.1057E+03
   -0.594992   12.70805  0.0000E+00  0.2866E-04  0.3827E-06  0.7054E-03  0.5852E-02  0.9865E+02
   -0.637493   12.71214  0.0000E+00  0.2749E-04  0.3075E-06  0.7580E-03  0.5019E-02  0.9285E+02
   -0.679994   12.71579  0.0000E+00  0.2653E-04  0.2558E-06  0.8159E-03  0.4305E-02  0.2335E+03
   -0.722495   12.71929  0.0000E+00  0.2572E-04  0.2179E-06  0.8559E-03  0.3688E-02  0.1191E+02
   -0.764996   12.72265  0.0000E+00  0.2499E-04  0.1882E-06  0.9057E-03  0.3151E-02  0.2799E+01
   -0.807498   12.72598  0.0000E+00  0.2432E-04  0.1646E-06  0.9573E-03  0.2705E-02  0.2223E+01
   -0.849999   12.72927  0.0000E+00  0.2371E-04  0.1461E-06  0.1006E-02  0.2327E-02  0.1949E+01
   -0.892500   12.73248  0.0000E+00  0.2314E-04  0.1315E-06  0.1050E-02  0.2007E-02  0.1840E+01
   -0.935002   12.73566  0.0000E+00  0.2259E-04  0.1205E-06  0.1084E-02  0.1737E-02  0.1839E+01
   -0.977503   12.73877  0.0000E+00  0.2205E-04  0.1123E-06  0.1109E-02  0.1505E-02  0.1797E+01
   -1.020004   12.74186  0.0000E+00  0.2152E-04  0.1065E-06  0.1121E-02  0.1308E-02  0.1811E+01
   -1.062505   12.74490  0.0000E+00  0.2099E-04  0.1030E-06  0.1122E-02  0.1137E-02  0.1778E+01
   -1.105006   12.74794  0.0000E+00  0.2046E-04  0.1014E-06  0.1107E-02  0.9902E-03  0.1777E+01
   -1.147507   12.75098  0.0000E+00  0.1996E-04  0.1018E-06  0.1082E-02  0.8598E-03  0.1824E+01
   -1.190008   12.75400  0.0000E+00  0.1948E-04  0.1042E-06  0.1043E-02  0.7418E-03  0.1980E+01
   -1.232509   12.75701  0.0000E+00  0.1903E-04  0.1092E-06  0.1001E-02  0.6367E-03  0.2502E+01
   -1.275009   12.76032  0.0000E+00  0.1857E-04  0.1180E-06  0.9491E-03  0.5496E-03 -0.1505E+01
   -1.317509   12.76416  0.0000E+00  0.1805E-04  0.1331E-06  0.8994E-03  0.4768E-03 -0.2844E+02
   -1.360009   12.76914  0.0000E+00  0.1741E-04  0.1598E-06  0.8365E-03  0.4145E-03  0.3492E+04
   -1.402509   12.77592  0.0000E+00  0.1657E-04  0.2057E-06  0.7369E-03  0.3584E-03 -0.2328E+03
   -1.445008   12.78491  0.0000E+00  0.1556E-04  0.2916E-06  0.6534E-03  0.3055E-03  0.2843E+04
   -1.487507   12.79841  0.0000E+00  0.1465E-04  0.4103E-06  0.5841E-03  0.2418E-03  0.8455E+05
   -1.530006   12.80757  0.0000E+00  0.1364E-04  0.7498E-06  0.4627E-03  0.1836E-03 -0.1432E+06
   -1.572505   12.87454  0.0000E+00  0.1283E-04  0.1319E-05  0.5008E-03  0.1206E-03  0.6041E+09
   -1.615003   12.81606  0.0000E+00  0.1107E-04  0.3905E-05  0.2654E-03  0.9890E-04 -0.3540E+11
   -1.657501   13.14393  0.0000E+00  0.8702E-05  0.7757E-05  0.2860E-03  0.6136E-04 -0.1142E+06
   -1.699998   13.05221  0.0000E+00  0.0000E+00  0.0000E+00  0.0000E+00  0.1252E-03  0.0000E+00
