 1 - depth, m
 2 - temperature, C
 3 - salinity, kg/kg
 4 - turbulent kinetic energy, m**2/s**2
 5 - dissipation rate, m**2/s**3
 6 - kinematic heat conductance, m**2/s
 7 - modulus of horizontal velocity, m/s
 8 - Richardson number, n/d
   -0.000000    9.13799  0.0000E+00  0.1521E-02  0.1478E-01  0.1634E-03  0.5858E+00  0.4765E-02
   -0.042497    9.40153  0.0000E+00  0.7757E-03  0.8954E-02  0.2541E-03  0.1311E+00 -0.4731E-01
   -0.084995    9.54652  0.0000E+00  0.4877E-03  0.2135E-02  0.3493E-03  0.7179E-01 -0.2974E+00
   -0.127493    9.59655  0.0000E+00  0.3644E-03  0.1178E-02  0.3055E-03  0.5332E-01  0.7021E+00
   -0.169992    9.62541  0.0000E+00  0.2878E-03  0.7298E-03  0.3034E-03  0.4346E-01  0.3174E+02
   -0.212491    9.65064  0.0000E+00  0.2291E-03  0.4654E-03  0.3233E-03  0.3604E-01  0.9377E+01
   -0.254990    9.66845  0.0000E+00  0.1868E-03  0.3023E-03  0.3547E-03  0.3044E-01  0.1301E+02
   -0.297489    9.68181  0.0000E+00  0.1540E-03  0.1943E-03  0.3769E-03  0.2686E-01  0.6596E+01
   -0.339989    9.69422  0.0000E+00  0.1297E-03  0.1225E-03  0.4121E-03  0.2415E-01  0.1221E+03
   -0.382489    9.70378  0.0000E+00  0.1109E-03  0.7501E-04  0.4475E-03  0.2147E-01  0.1612E+02
   -0.424989    9.71394  0.0000E+00  0.9687E-04  0.4527E-04  0.4711E-03  0.1952E-01  0.1371E+02
   -0.467490    9.72290  0.0000E+00  0.8629E-04  0.2796E-04  0.5129E-03  0.1733E-01  0.2155E+02
   -0.509990    9.73188  0.0000E+00  0.7802E-04  0.1741E-04  0.5684E-03  0.1533E-01  0.5527E+03
   -0.552491    9.73878  0.0000E+00  0.7135E-04  0.1049E-04  0.6212E-03  0.1362E-01  0.2316E+02
   -0.594992    9.74657  0.0000E+00  0.6579E-04  0.6374E-05  0.6694E-03  0.1200E-01  0.4376E+03
   -0.637493    9.75429  0.0000E+00  0.6094E-04  0.4048E-05  0.7508E-03  0.1051E-01  0.3620E+02
   -0.679994    9.76001  0.0000E+00  0.5693E-04  0.2640E-05  0.8219E-03  0.9414E-02  0.5674E+02
   -0.722496    9.76477  0.0000E+00  0.5347E-04  0.1830E-05  0.9103E-03  0.8467E-02  0.2546E+04
   -0.764997    9.76927  0.0000E+00  0.5042E-04  0.1310E-05  0.9915E-03  0.7668E-02  0.7131E+01
   -0.807498    9.77385  0.0000E+00  0.4768E-04  0.9650E-06  0.1057E-02  0.6998E-02 -0.3492E+01
   -0.850000    9.77784  0.0000E+00  0.4525E-04  0.7624E-06  0.1112E-02  0.6395E-02  0.2005E+02
   -0.892501    9.78210  0.0000E+00  0.4303E-04  0.6301E-06  0.1152E-02  0.5857E-02  0.3117E+02
   -0.935003    9.78550  0.0000E+00  0.4100E-04  0.5346E-06  0.1170E-02  0.5374E-02  0.1257E+03
   -0.977504    9.78962  0.0000E+00  0.3910E-04  0.4601E-06  0.1184E-02  0.4907E-02  0.1200E+02
   -1.020005    9.79301  0.0000E+00  0.3735E-04  0.4035E-06  0.1184E-02  0.4488E-02  0.8759E+01
   -1.062507    9.79674  0.0000E+00  0.3568E-04  0.3586E-06  0.1179E-02  0.4080E-02  0.4216E+01
   -1.105008    9.80031  0.0000E+00  0.3409E-04  0.3225E-06  0.1162E-02  0.3696E-02  0.2683E+02
   -1.147509    9.80395  0.0000E+00  0.3261E-04  0.2943E-06  0.1141E-02  0.3320E-02  0.1356E+02
   -1.190009    9.80753  0.0000E+00  0.3122E-04  0.2734E-06  0.1100E-02  0.2949E-02  0.5628E+01
   -1.232510    9.81114  0.0000E+00  0.2984E-04  0.2581E-06  0.1064E-02  0.2586E-02  0.6108E+01
   -1.275010    9.81499  0.0000E+00  0.2842E-04  0.2487E-06  0.1003E-02  0.2255E-02 -0.1517E+03
   -1.317511    9.81955  0.0000E+00  0.2696E-04  0.2467E-06  0.9518E-03  0.1955E-02  0.7878E+01
   -1.360011    9.82476  0.0000E+00  0.2542E-04  0.2574E-06  0.8620E-03  0.1690E-02  0.6642E+04
   -1.402510    9.83247  0.0000E+00  0.2372E-04  0.2900E-06  0.8052E-03  0.1463E-02  0.5809E+03
   -1.445010    9.84072  0.0000E+00  0.2196E-04  0.3611E-06  0.7273E-03  0.1255E-02  0.1192E+04
   -1.487509    9.85483  0.0000E+00  0.2026E-04  0.5021E-06  0.6412E-03  0.1039E-02  0.8320E+04
   -1.530008    9.86644  0.0000E+00  0.1849E-04  0.8597E-06  0.5063E-03  0.7978E-03 -0.6416E+05
   -1.572507    9.93112  0.0000E+00  0.1685E-04  0.1677E-05  0.5104E-03  0.5533E-03  0.3466E+10
   -1.615005    9.88331  0.0000E+00  0.1421E-04  0.5574E-05  0.2694E-03  0.4421E-03 -0.1159E+10
   -1.657502   10.22337  0.0000E+00  0.1069E-04  0.1066E-04  0.2753E-03  0.2989E-03  0.1037E+06
   -1.700000   10.14283  0.0000E+00  0.0000E+00  0.0000E+00  0.0000E+00  0.5194E-03  0.0000E+00
