 1 - depth, m
 2 - temperature, C
 3 - salinity, kg/kg
 4 - turbulent kinetic energy, m**2/s**2
 5 - dissipation rate, m**2/s**3
 6 - kinematic heat conductance, m**2/s
 7 - modulus of horizontal velocity, m/s
 8 - Richardson number, n/d
   -0.000000    4.23816  0.0000E+00  0.2097E-02  0.3577E-01  0.1559E-03  0.7881E+00  0.9361E-03
   -0.042497    4.62902  0.0000E+00  0.1082E-02  0.2481E-01  0.2841E-03  0.1727E+00 -0.2108E-01
   -0.084995    4.92984  0.0000E+00  0.6689E-03  0.6777E-02  0.4069E-03  0.9066E-01 -0.1114E-01
   -0.127493    5.00343  0.0000E+00  0.4821E-03  0.3099E-02  0.3803E-03  0.6702E-01  0.4373E-02
   -0.169991    5.03542  0.0000E+00  0.3734E-03  0.1960E-02  0.3462E-03  0.5227E-01 -0.3323E+00
   -0.212490    5.06482  0.0000E+00  0.2905E-03  0.1262E-02  0.3356E-03  0.4140E-01 -0.3967E-01
   -0.254989    5.10988  0.0000E+00  0.2320E-03  0.8975E-03  0.3436E-03  0.3347E-01 -0.4902E-01
   -0.297488    5.14385  0.0000E+00  0.1911E-03  0.6609E-03  0.3586E-03  0.2905E-01  0.1472E+01
   -0.339988    5.16537  0.0000E+00  0.1603E-03  0.4863E-03  0.3624E-03  0.2618E-01  0.1460E+02
   -0.382488    5.18675  0.0000E+00  0.1368E-03  0.3567E-03  0.3791E-03  0.2322E-01  0.1748E+02
   -0.424988    5.20223  0.0000E+00  0.1189E-03  0.2608E-03  0.3849E-03  0.2124E-01  0.3304E+02
   -0.467488    5.21597  0.0000E+00  0.1049E-03  0.1901E-03  0.3960E-03  0.1897E-01  0.1430E+02
   -0.509988    5.23282  0.0000E+00  0.9361E-04  0.1383E-03  0.4166E-03  0.1684E-01  0.3215E+03
   -0.552489    5.24438  0.0000E+00  0.8435E-04  0.1002E-03  0.4318E-03  0.1501E-01  0.8779E+02
   -0.594990    5.25697  0.0000E+00  0.7645E-04  0.7240E-04  0.4551E-03  0.1319E-01  0.5155E+02
   -0.637491    5.26826  0.0000E+00  0.6969E-04  0.5193E-04  0.4818E-03  0.1162E-01  0.4408E+02
   -0.679992    5.27795  0.0000E+00  0.6387E-04  0.3686E-04  0.5122E-03  0.1041E-01  0.2685E+03
   -0.722493    5.28814  0.0000E+00  0.5879E-04  0.2586E-04  0.5520E-03  0.9366E-02 -0.6660E+02
   -0.764994    5.29688  0.0000E+00  0.5433E-04  0.1786E-04  0.5945E-03  0.8508E-02  0.1009E+03
   -0.807495    5.30701  0.0000E+00  0.5034E-04  0.1214E-04  0.6391E-03  0.7826E-02  0.1021E+04
   -0.849997    5.31426  0.0000E+00  0.4682E-04  0.8179E-05  0.6863E-03  0.7220E-02 -0.2067E+03
   -0.892498    5.32406  0.0000E+00  0.4367E-04  0.5445E-05  0.7264E-03  0.6666E-02  0.6139E+03
   -0.934999    5.33027  0.0000E+00  0.4084E-04  0.3565E-05  0.7602E-03  0.6185E-02 -0.4226E+04
   -0.977500    5.34007  0.0000E+00  0.3831E-04  0.2371E-05  0.7946E-03  0.5704E-02  0.6036E+03
   -1.020001    5.34533  0.0000E+00  0.3604E-04  0.1558E-05  0.8177E-03  0.5285E-02  0.4579E+02
   -1.062502    5.35442  0.0000E+00  0.3398E-04  0.1063E-05  0.8379E-03  0.4861E-02  0.2571E+03
   -1.105003    5.36035  0.0000E+00  0.3211E-04  0.8252E-06  0.8454E-03  0.4476E-02  0.1573E+03
   -1.147504    5.36701  0.0000E+00  0.3043E-04  0.6460E-06  0.8451E-03  0.4093E-02  0.5177E+02
   -1.190005    5.37431  0.0000E+00  0.2895E-04  0.4894E-06  0.8436E-03  0.3688E-02  0.2944E+03
   -1.232505    5.38011  0.0000E+00  0.2758E-04  0.3941E-06  0.8297E-03  0.3312E-02  0.5987E+02
   -1.275006    5.38749  0.0000E+00  0.2625E-04  0.3339E-06  0.8013E-03  0.2983E-02  0.2164E+03
   -1.317506    5.39402  0.0000E+00  0.2487E-04  0.3033E-06  0.7880E-03  0.2667E-02  0.7064E+03
   -1.360005    5.40207  0.0000E+00  0.2341E-04  0.2960E-06  0.7377E-03  0.2364E-02  0.1125E+04
   -1.402505    5.41127  0.0000E+00  0.2181E-04  0.3160E-06  0.6830E-03  0.2097E-02  0.1006E+04
   -1.445004    5.42185  0.0000E+00  0.2021E-04  0.3701E-06  0.6136E-03  0.1843E-02  0.1675E+04
   -1.487503    5.43499  0.0000E+00  0.1859E-04  0.4778E-06  0.5298E-03  0.1561E-02  0.3573E+04
   -1.530002    5.45040  0.0000E+00  0.1687E-04  0.7136E-06  0.4344E-03  0.1196E-02  0.6497E+04
   -1.572500    5.47984  0.0000E+00  0.1523E-04  0.1265E-05  0.4405E-03  0.8571E-03 -0.8515E+05
   -1.614998    5.49332  0.0000E+00  0.1271E-04  0.3455E-05  0.2250E-03  0.7067E-03 -0.7804E+08
   -1.657496    5.72060  0.0000E+00  0.9087E-05  0.7455E-05  0.1687E-03  0.5132E-03 -0.3368E+08
   -1.699993    5.81140  0.0000E+00  0.0000E+00  0.0000E+00  0.0000E+00  0.9687E-03  0.0000E+00
