 1 - depth, m
 2 - temperature, C
 3 - salinity, kg/kg
 4 - turbulent kinetic energy, m**2/s**2
 5 - dissipation rate, m**2/s**3
 6 - kinematic heat conductance, m**2/s
 7 - modulus of horizontal velocity, m/s
 8 - Richardson number, n/d
   -0.000000    5.33259  0.0000E+00  0.1585E-03  0.6254E-03  0.6764E-04  0.1143E+00 -0.3468E-02
   -0.042497    5.60666  0.0000E+00  0.8654E-04  0.3525E-03  0.8921E-04  0.3122E-01  0.8128E-01
   -0.084995    5.65879  0.0000E+00  0.6111E-04  0.2305E-03  0.8514E-04  0.2089E-01 -0.4155E-01
   -0.127493    5.70539  0.0000E+00  0.4497E-04  0.1451E-03  0.8968E-04  0.1580E-01  0.5562E+00
   -0.169991    5.74524  0.0000E+00  0.3384E-04  0.8716E-04  0.9878E-04  0.1221E-01  0.4019E+02
   -0.212490    5.78124  0.0000E+00  0.2579E-04  0.4936E-04  0.1139E-03  0.9439E-02  0.3190E+02
   -0.254989    5.81420  0.0000E+00  0.2008E-04  0.2618E-04  0.1387E-03  0.7350E-02  0.7439E+02
   -0.297489    5.84358  0.0000E+00  0.1622E-04  0.1297E-04  0.1833E-03  0.5838E-02  0.1258E+02
   -0.339988    5.86804  0.0000E+00  0.1371E-04  0.6049E-05  0.2557E-03  0.4749E-02  0.1760E+02
   -0.382488    5.88641  0.0000E+00  0.1210E-04  0.2626E-05  0.3307E-03  0.3941E-02  0.7650E+02
   -0.424988    5.90053  0.0000E+00  0.1109E-04  0.1046E-05  0.3942E-03  0.3343E-02  0.1297E+02
   -0.467489    5.91164  0.0000E+00  0.1048E-04  0.3769E-06  0.4550E-03  0.2832E-02  0.8006E+02
   -0.509989    5.92130  0.0000E+00  0.1016E-04  0.1410E-06  0.5107E-03  0.2384E-02  0.3442E+01
   -0.552490    5.92956  0.0000E+00  0.1002E-04  0.7365E-07  0.5591E-03  0.1996E-02  0.3560E+01
   -0.594991    5.93642  0.0000E+00  0.9991E-05  0.5275E-07  0.6068E-03  0.1662E-02  0.4458E+01
   -0.637492    5.94281  0.0000E+00  0.1003E-04  0.4458E-07  0.6661E-03  0.1372E-02  0.2276E+02
   -0.679993    5.94862  0.0000E+00  0.1012E-04  0.3986E-07  0.7325E-03  0.1133E-02  0.1725E+01
   -0.722494    5.95416  0.0000E+00  0.1024E-04  0.3682E-07  0.8103E-03  0.9352E-03  0.1572E+01
   -0.764995    5.95936  0.0000E+00  0.1036E-04  0.3466E-07  0.8983E-03  0.7789E-03  0.1448E+01
   -0.807496    5.96435  0.0000E+00  0.1048E-04  0.3314E-07  0.9821E-03  0.6589E-03  0.1430E+01
   -0.849998    5.96909  0.0000E+00  0.1058E-04  0.3214E-07  0.1050E-02  0.5650E-03  0.1390E+01
   -0.892499    5.97365  0.0000E+00  0.1066E-04  0.3152E-07  0.1095E-02  0.4906E-03  0.1352E+01
   -0.935000    5.97816  0.0000E+00  0.1072E-04  0.3119E-07  0.1120E-02  0.4313E-03  0.1345E+01
   -0.977501    5.98262  0.0000E+00  0.1076E-04  0.3110E-07  0.1129E-02  0.3827E-03  0.1312E+01
   -1.020003    5.98709  0.0000E+00  0.1078E-04  0.3121E-07  0.1128E-02  0.3426E-03  0.1313E+01
   -1.062504    5.99157  0.0000E+00  0.1079E-04  0.3150E-07  0.1117E-02  0.3086E-03  0.1301E+01
   -1.105005    5.99608  0.0000E+00  0.1078E-04  0.3196E-07  0.1101E-02  0.2792E-03  0.1319E+01
   -1.147506    6.00061  0.0000E+00  0.1077E-04  0.3259E-07  0.1078E-02  0.2530E-03  0.1364E+01
   -1.190006    6.00509  0.0000E+00  0.1074E-04  0.3344E-07  0.1050E-02  0.2289E-03  0.1468E+01
   -1.232507    6.00949  0.0000E+00  0.1071E-04  0.3462E-07  0.1013E-02  0.2066E-03  0.1693E+01
   -1.275007    6.01414  0.0000E+00  0.1067E-04  0.3626E-07  0.9684E-03  0.1864E-03  0.2529E+01
   -1.317507    6.01922  0.0000E+00  0.1061E-04  0.3863E-07  0.9155E-03  0.1679E-03  0.3816E+01
   -1.360007    6.02497  0.0000E+00  0.1052E-04  0.4224E-07  0.8458E-03  0.1503E-03  0.1015E+03
   -1.402507    6.03181  0.0000E+00  0.1038E-04  0.4802E-07  0.7754E-03  0.1338E-03  0.3879E+00
   -1.445006    6.04062  0.0000E+00  0.1018E-04  0.5709E-07  0.6855E-03  0.1173E-03  0.3473E+03
   -1.487505    6.05165  0.0000E+00  0.9940E-05  0.7099E-07  0.6296E-03  0.9928E-04  0.1930E+05
   -1.530004    6.06344  0.0000E+00  0.9640E-05  0.1038E-06  0.4928E-03  0.8045E-04 -0.2663E+05
   -1.572502    6.09661  0.0000E+00  0.9253E-05  0.1726E-06  0.4983E-03  0.6104E-04  0.1639E+09
   -1.615000    6.09380  0.0000E+00  0.8115E-05  0.4633E-06  0.2108E-03  0.4952E-04 -0.2909E+10
   -1.657498    6.35467  0.0000E+00  0.5862E-05  0.1146E-05  0.1246E-03  0.3243E-04 -0.1251E+07
   -1.699995    6.40430  0.0000E+00  0.0000E+00  0.0000E+00  0.0000E+00  0.4307E-04  0.0000E+00
