 1 - depth, m
 2 - temperature, C
 3 - salinity, kg/kg
 4 - turbulent kinetic energy, m**2/s**2
 5 - dissipation rate, m**2/s**3
 6 - kinematic heat conductance, m**2/s
 7 - modulus of horizontal velocity, m/s
 8 - Richardson number, n/d
   -0.000000    8.92468  0.0000E+00  0.1072E-03  0.9618E-04  0.5214E-04  0.7121E-01 -0.6303E-01
   -0.042498    9.09186  0.0000E+00  0.5556E-04  0.2564E-04  0.9132E-04  0.1980E-01  0.4684E+02
   -0.084997    9.13874  0.0000E+00  0.3922E-04  0.1188E-04  0.1464E-03  0.1265E-01  0.1366E+02
   -0.127495    9.16873  0.0000E+00  0.3010E-04  0.6008E-05  0.1910E-03  0.9557E-02  0.1682E+02
   -0.169995    9.19048  0.0000E+00  0.2404E-04  0.3142E-05  0.2643E-03  0.7486E-02  0.7004E+01
   -0.212494    9.20766  0.0000E+00  0.1993E-04  0.1635E-05  0.3561E-03  0.5932E-02  0.2774E+02
   -0.254994    9.22097  0.0000E+00  0.1722E-04  0.8464E-06  0.4446E-03  0.4803E-02  0.5821E+02
   -0.297494    9.23160  0.0000E+00  0.1563E-04  0.4503E-06  0.5314E-03  0.3980E-02  0.5757E+01
   -0.339995    9.24009  0.0000E+00  0.1481E-04  0.2575E-06  0.6082E-03  0.3353E-02  0.6217E+01
   -0.382495    9.24726  0.0000E+00  0.1447E-04  0.1664E-06  0.6860E-03  0.2825E-02  0.6200E+01
   -0.424996    9.25331  0.0000E+00  0.1443E-04  0.1186E-06  0.7540E-03  0.2404E-02  0.4351E+01
   -0.467498    9.25861  0.0000E+00  0.1456E-04  0.9192E-07  0.8219E-03  0.2043E-02  0.3162E+01
   -0.509999    9.26317  0.0000E+00  0.1478E-04  0.7696E-07  0.8905E-03  0.1736E-02  0.2462E+01
   -0.552500    9.26720  0.0000E+00  0.1505E-04  0.6811E-07  0.9583E-03  0.1471E-02  0.1983E+01
   -0.595002    9.27084  0.0000E+00  0.1533E-04  0.6274E-07  0.1028E-02  0.1238E-02  0.1831E+01
   -0.637504    9.27417  0.0000E+00  0.1561E-04  0.5935E-07  0.1104E-02  0.1038E-02  0.1716E+01
   -0.680006    9.27729  0.0000E+00  0.1588E-04  0.5731E-07  0.1183E-02  0.8727E-03  0.1529E+01
   -0.722508    9.28024  0.0000E+00  0.1611E-04  0.5619E-07  0.1264E-02  0.7380E-03  0.1445E+01
   -0.765010    9.28309  0.0000E+00  0.1630E-04  0.5574E-07  0.1345E-02  0.6317E-03  0.1386E+01
   -0.807512    9.28588  0.0000E+00  0.1645E-04  0.5580E-07  0.1406E-02  0.5504E-03  0.1364E+01
   -0.850014    9.28864  0.0000E+00  0.1654E-04  0.5626E-07  0.1433E-02  0.4867E-03  0.1360E+01
   -0.892516    9.29140  0.0000E+00  0.1659E-04  0.5703E-07  0.1433E-02  0.4363E-03  0.1360E+01
   -0.935018    9.29428  0.0000E+00  0.1660E-04  0.5808E-07  0.1415E-02  0.3957E-03  0.1423E+01
   -0.977520    9.29719  0.0000E+00  0.1657E-04  0.5940E-07  0.1384E-02  0.3620E-03  0.1497E+01
   -1.020022    9.30024  0.0000E+00  0.1651E-04  0.6103E-07  0.1347E-02  0.3335E-03  0.1664E+01
   -1.062524    9.30336  0.0000E+00  0.1641E-04  0.6305E-07  0.1300E-02  0.3085E-03  0.1879E+01
   -1.105026    9.30662  0.0000E+00  0.1627E-04  0.6561E-07  0.1250E-02  0.2858E-03  0.2218E+01
   -1.147528    9.30998  0.0000E+00  0.1610E-04  0.6888E-07  0.1194E-02  0.2644E-03  0.2889E+01
   -1.190029    9.31346  0.0000E+00  0.1590E-04  0.7315E-07  0.1135E-02  0.2431E-03  0.2822E+01
   -1.232530    9.31702  0.0000E+00  0.1566E-04  0.7936E-07  0.1073E-02  0.2219E-03  0.4113E+03
   -1.275032    9.32119  0.0000E+00  0.1535E-04  0.8871E-07  0.9951E-03  0.2009E-03  0.2120E+03
   -1.317533    9.32641  0.0000E+00  0.1494E-04  0.1032E-06  0.9318E-03  0.1800E-03  0.3242E+04
   -1.360033    9.33334  0.0000E+00  0.1439E-04  0.1289E-06  0.8488E-03  0.1589E-03  0.1938E+05
   -1.402534    9.34364  0.0000E+00  0.1367E-04  0.1693E-06  0.7339E-03  0.1382E-03  0.5545E+04
   -1.445034    9.35493  0.0000E+00  0.1277E-04  0.2456E-06  0.6301E-03  0.1181E-03  0.1616E+06
   -1.487534    9.37296  0.0000E+00  0.1199E-04  0.3502E-06  0.5673E-03  0.9222E-04  0.2749E+05
   -1.530033    9.38659  0.0000E+00  0.1113E-04  0.6480E-06  0.4477E-03  0.6887E-04 -0.5252E+06
   -1.572533    9.49327  0.0000E+00  0.1046E-04  0.1134E-05  0.4870E-03  0.4411E-04  0.1887E+12
   -1.615031    9.37741  0.0000E+00  0.9057E-05  0.3158E-05  0.2487E-03  0.3683E-04 -0.1046E+11
   -1.657530    9.86016  0.0000E+00  0.7122E-05  0.6356E-05  0.2889E-03  0.2244E-04 -0.7607E+06
   -1.700028    9.69624  0.0000E+00  0.0000E+00  0.0000E+00  0.0000E+00  0.4699E-04  0.0000E+00
