 1 - depth, m
 2 - temperature, C
 3 - salinity, kg/kg
 4 - turbulent kinetic energy, m**2/s**2
 5 - dissipation rate, m**2/s**3
 6 - kinematic heat conductance, m**2/s
 7 - modulus of horizontal velocity, m/s
 8 - Richardson number, n/d
   -0.000000   10.93298  0.0000E+00  0.3913E-03  0.6901E-03  0.9987E-04  0.2370E+00 -0.1548E+00
   -0.042497   11.14386  0.0000E+00  0.1972E-03  0.2381E-03  0.1603E-03  0.5539E-01 -0.7178E-01
   -0.084995   11.21367  0.0000E+00  0.1307E-03  0.8669E-04  0.1499E-03  0.3294E-01 -0.1322E+01
   -0.127493   11.25990  0.0000E+00  0.9697E-04  0.4323E-04  0.1608E-03  0.2513E-01  0.8393E+02
   -0.169992   11.29080  0.0000E+00  0.7431E-04  0.2270E-04  0.1801E-03  0.1996E-01  0.8071E+02
   -0.212491   11.31590  0.0000E+00  0.5782E-04  0.1182E-04  0.2232E-03  0.1597E-01  0.4063E+02
   -0.254990   11.33627  0.0000E+00  0.4614E-04  0.6350E-05  0.2755E-03  0.1302E-01  0.5724E+02
   -0.297489   11.35238  0.0000E+00  0.3795E-04  0.3467E-05  0.3285E-03  0.1094E-01  0.5300E+02
   -0.339989   11.36629  0.0000E+00  0.3237E-04  0.1924E-05  0.3799E-03  0.9349E-02  0.4596E+02
   -0.382489   11.37797  0.0000E+00  0.2852E-04  0.1132E-05  0.4478E-03  0.8009E-02  0.5709E+02
   -0.424989   11.38721  0.0000E+00  0.2593E-04  0.6969E-06  0.5022E-03  0.6966E-02  0.5759E+02
   -0.467490   11.39512  0.0000E+00  0.2421E-04  0.4727E-06  0.5504E-03  0.6031E-02  0.1487E+03
   -0.509990   11.40144  0.0000E+00  0.2307E-04  0.3419E-06  0.6056E-03  0.5220E-02  0.6829E+02
   -0.552491   11.40699  0.0000E+00  0.2230E-04  0.2616E-06  0.6561E-03  0.4498E-02  0.2689E+02
   -0.594992   11.41163  0.0000E+00  0.2177E-04  0.2114E-06  0.7087E-03  0.3845E-02  0.3184E+03
   -0.637493   11.41593  0.0000E+00  0.2139E-04  0.1774E-06  0.7646E-03  0.3259E-02  0.8278E+01
   -0.679994   11.41990  0.0000E+00  0.2112E-04  0.1530E-06  0.8218E-03  0.2754E-02  0.3423E+01
   -0.722496   11.42371  0.0000E+00  0.2091E-04  0.1348E-06  0.8858E-03  0.2317E-02  0.2329E+01
   -0.764997   11.42737  0.0000E+00  0.2074E-04  0.1209E-06  0.9528E-03  0.1954E-02  0.2015E+01
   -0.807498   11.43096  0.0000E+00  0.2058E-04  0.1101E-06  0.1016E-02  0.1662E-02  0.1865E+01
   -0.850000   11.43447  0.0000E+00  0.2042E-04  0.1021E-06  0.1074E-02  0.1422E-02  0.1849E+01
   -0.892501   11.43788  0.0000E+00  0.2024E-04  0.9628E-07  0.1127E-02  0.1225E-02  0.1861E+01
   -0.935002   11.44122  0.0000E+00  0.2003E-04  0.9225E-07  0.1167E-02  0.1064E-02  0.1951E+01
   -0.977504   11.44447  0.0000E+00  0.1980E-04  0.8976E-07  0.1193E-02  0.9284E-03  0.2014E+01
   -1.020005   11.44768  0.0000E+00  0.1954E-04  0.8857E-07  0.1203E-02  0.8161E-03  0.2148E+01
   -1.062506   11.45087  0.0000E+00  0.1925E-04  0.8856E-07  0.1194E-02  0.7204E-03  0.2256E+01
   -1.105007   11.45407  0.0000E+00  0.1895E-04  0.8970E-07  0.1168E-02  0.6389E-03  0.2407E+01
   -1.147508   11.45733  0.0000E+00  0.1864E-04  0.9204E-07  0.1132E-02  0.5669E-03  0.2643E+01
   -1.190009   11.46060  0.0000E+00  0.1833E-04  0.9592E-07  0.1084E-02  0.5017E-03  0.3146E+01
   -1.232510   11.46393  0.0000E+00  0.1801E-04  0.1023E-06  0.1026E-02  0.4423E-03  0.5071E+01
   -1.275010   11.46769  0.0000E+00  0.1764E-04  0.1127E-06  0.9708E-03  0.3903E-03  0.8607E+01
   -1.317510   11.47234  0.0000E+00  0.1718E-04  0.1294E-06  0.9119E-03  0.3449E-03 -0.3963E+03
   -1.360010   11.47833  0.0000E+00  0.1658E-04  0.1579E-06  0.8236E-03  0.3028E-03  0.1031E+04
   -1.402510   11.48671  0.0000E+00  0.1580E-04  0.2058E-06  0.7454E-03  0.2630E-03  0.1438E+05
   -1.445010   11.49718  0.0000E+00  0.1487E-04  0.2877E-06  0.6657E-03  0.2237E-03  0.6725E+04
   -1.487509   11.51124  0.0000E+00  0.1404E-04  0.4054E-06  0.5837E-03  0.1787E-03  0.6775E+05
   -1.530008   11.52437  0.0000E+00  0.1311E-04  0.7428E-06  0.4741E-03  0.1350E-03 -0.6827E+05
   -1.572506   11.59950  0.0000E+00  0.1238E-04  0.1298E-05  0.4959E-03  0.8893E-04  0.4590E+10
   -1.615004   11.53040  0.0000E+00  0.1083E-04  0.3946E-05  0.2703E-03  0.7273E-04 -0.9147E+10
   -1.657502   11.89116  0.0000E+00  0.8474E-05  0.7743E-05  0.2777E-03  0.4601E-04 -0.1248E+07
   -1.699999   11.80834  0.0000E+00  0.0000E+00  0.0000E+00  0.0000E+00  0.9202E-04  0.0000E+00
