 1 - depth, m
 2 - temperature, C
 3 - salinity, kg/kg
 4 - turbulent kinetic energy, m**2/s**2
 5 - dissipation rate, m**2/s**3
 6 - kinematic heat conductance, m**2/s
 7 - modulus of horizontal velocity, m/s
 8 - Richardson number, n/d
   -0.000000   -0.00165  0.0000E+00  0.3793E-03  0.4211E-03  0.9569E-04  0.2474E+00  0.1947E-01
   -0.042507    0.07968  0.0000E+00  0.2097E-03  0.1397E-03  0.1804E-03  0.6147E-01  0.2672E-01
   -0.085015    0.12456  0.0000E+00  0.1451E-03  0.5700E-04  0.1494E-03  0.4037E-01  0.1135E+00
   -0.127523    0.16633  0.0000E+00  0.1072E-03  0.2786E-04  0.1301E-03  0.3216E-01  0.1867E+00
   -0.170031    0.20782  0.0000E+00  0.7984E-04  0.1390E-04  0.1159E-03  0.2609E-01  0.2136E+00
   -0.212540    0.25181  0.0000E+00  0.5876E-04  0.6825E-05  0.1018E-03  0.2106E-01  0.8353E+00
   -0.255049    0.30701  0.0000E+00  0.4325E-04  0.3325E-05  0.8743E-04  0.1700E-01  0.3705E+02
   -0.297559    0.38318  0.0000E+00  0.3199E-04  0.1775E-05  0.7243E-04  0.1416E-01  0.1121E+03
   -0.340068    0.50126  0.0000E+00  0.2364E-04  0.1018E-05  0.5689E-04  0.1207E-01  0.5925E+03
   -0.382578    0.75187  0.0000E+00  0.1728E-04  0.6279E-06  0.4745E-04  0.1010E-01  0.1972E+03
   -0.425088    1.10300  0.0000E+00  0.1272E-04  0.4005E-06  0.6440E-04  0.8611E-02  0.5051E+03
   -0.467599    1.46060  0.0000E+00  0.9397E-05  0.2554E-06  0.7525E-04  0.6903E-02  0.8649E+02
   -0.510109    1.84937  0.0000E+00  0.6924E-05  0.1636E-06  0.1127E-03  0.5243E-02  0.1777E+03
   -0.552620    2.21733  0.0000E+00  0.5118E-05  0.1042E-06  0.1435E-03  0.3765E-02  0.7759E+03
   -0.595131    2.65191  0.0000E+00  0.3874E-05  0.6351E-07  0.1759E-03  0.2388E-02  0.2836E+04
   -0.637642    3.14337  0.0000E+00  0.3082E-05  0.3633E-07  0.2327E-03  0.1341E-02  0.2947E+05
   -0.680153    3.60000  0.0000E+00  0.2672E-05  0.2005E-07  0.3063E-03  0.7036E-03  0.3509E+05
   -0.722664    4.02167  0.0000E+00  0.2603E-05  0.1162E-07  0.3677E-03  0.3034E-03  0.2733E+07
   -0.765175    4.21790  0.0000E+00  0.2609E-05  0.8344E-08  0.4252E-03  0.1701E-03  0.2385E+07
   -0.807687    4.26616  0.0000E+00  0.2647E-05  0.6736E-08  0.4534E-03  0.1192E-03  0.2798E+06
   -0.850198    4.29241  0.0000E+00  0.2705E-05  0.5945E-08  0.4788E-03  0.8834E-04  0.4579E+06
   -0.892709    4.30983  0.0000E+00  0.2775E-05  0.5574E-08  0.5012E-03  0.6828E-04  0.4302E+06
   -0.935221    4.32374  0.0000E+00  0.2850E-05  0.5420E-08  0.5203E-03  0.5507E-04  0.4911E+06
   -0.977732    4.33603  0.0000E+00  0.2925E-05  0.5376E-08  0.5360E-03  0.4590E-04  0.5638E+06
   -1.020243    4.34756  0.0000E+00  0.2997E-05  0.5397E-08  0.5492E-03  0.3927E-04  0.6353E+06
   -1.062754    4.35844  0.0000E+00  0.3066E-05  0.5461E-08  0.5593E-03  0.3395E-04  0.6391E+06
   -1.105265    4.36883  0.0000E+00  0.3129E-05  0.5560E-08  0.5663E-03  0.2953E-04  0.6808E+06
   -1.147776    4.37882  0.0000E+00  0.3187E-05  0.5687E-08  0.5702E-03  0.2568E-04  0.7377E+06
   -1.190287    4.38826  0.0000E+00  0.3241E-05  0.5846E-08  0.5699E-03  0.2214E-04  0.8044E+06
   -1.232797    4.39730  0.0000E+00  0.3293E-05  0.6051E-08  0.5650E-03  0.1892E-04  0.9357E+06
   -1.275308    4.40659  0.0000E+00  0.3346E-05  0.6314E-08  0.5556E-03  0.1611E-04  0.1266E+07
   -1.317818    4.41633  0.0000E+00  0.3398E-05  0.6653E-08  0.5410E-03  0.1367E-04  0.1839E+07
   -1.360328    4.42677  0.0000E+00  0.3451E-05  0.7098E-08  0.5198E-03  0.1154E-04  0.2666E+07
   -1.402837    4.43834  0.0000E+00  0.3502E-05  0.7698E-08  0.4928E-03  0.9734E-05  0.4234E+07
   -1.445347    4.45135  0.0000E+00  0.3547E-05  0.8441E-08  0.4618E-03  0.8123E-05  0.6511E+07
   -1.487856    4.46464  0.0000E+00  0.3586E-05  0.9407E-08  0.4250E-03  0.6603E-05  0.9272E+07
   -1.530364    4.47758  0.0000E+00  0.3631E-05  0.1098E-07  0.3664E-03  0.5160E-05  0.1591E+08
   -1.572873    4.49265  0.0000E+00  0.3686E-05  0.1453E-07  0.2964E-03  0.3892E-05  0.4748E+08
   -1.615381    4.52063  0.0000E+00  0.3648E-05  0.2759E-07  0.1648E-03  0.2937E-05  0.1230E+10
   -1.657889    4.60879  0.0000E+00  0.2766E-05  0.9325E-07  0.3110E-04  0.2047E-05 -0.9423E+11
   -1.700396    5.00402  0.0000E+00  0.0000E+00  0.0000E+00  0.0000E+00  0.2084E-05  0.0000E+00
