 1 - depth, m
 2 - temperature, C
 3 - salinity, kg/kg
 4 - turbulent kinetic energy, m**2/s**2
 5 - dissipation rate, m**2/s**3
 6 - kinematic heat conductance, m**2/s
 7 - modulus of horizontal velocity, m/s
 8 - Richardson number, n/d
   -0.000000   19.55617  0.0000E+00  0.1152E-03  0.5758E-02  0.5955E-04  0.7637E-01 -0.3600E+00
   -0.042497   19.65218  0.0000E+00  0.6860E-04  0.4723E-02  0.7844E-04  0.2221E-01 -0.6056E-01
   -0.084995   19.67639  0.0000E+00  0.4967E-04  0.4082E-02  0.9955E-04  0.1430E-01  0.1636E+01
   -0.127493   19.69206  0.0000E+00  0.3982E-04  0.3120E-02  0.1586E-03  0.1067E-01  0.6855E+02
   -0.169991   19.70276  0.0000E+00  0.3129E-04  0.1849E-02  0.2291E-03  0.8292E-02  0.1399E+03
   -0.212490   19.71089  0.0000E+00  0.2378E-04  0.7033E-03  0.3062E-03  0.6567E-02  0.7363E+02
   -0.254989   19.71745  0.0000E+00  0.1919E-04  0.1999E-03  0.3860E-03  0.5302E-02  0.1169E+03
   -0.297489   19.72228  0.0000E+00  0.1692E-04  0.4161E-04  0.4692E-03  0.4400E-02  0.1088E+03
   -0.339988   19.72613  0.0000E+00  0.1606E-04  0.5780E-05  0.5385E-03  0.3724E-02  0.1406E+02
   -0.382488   19.72908  0.0000E+00  0.1591E-04  0.7526E-06  0.6110E-03  0.3182E-02  0.5610E+02
   -0.424988   19.73158  0.0000E+00  0.1608E-04  0.1849E-06  0.6673E-03  0.2742E-02  0.6731E+01
   -0.467489   19.73374  0.0000E+00  0.1629E-04  0.1048E-06  0.8350E-03  0.2341E-02  0.2001E+01
   -0.509989   19.73565  0.0000E+00  0.1650E-04  0.8965E-07  0.9828E-03  0.2034E-02  0.9171E+01
   -0.552490   19.73719  0.0000E+00  0.1678E-04  0.8174E-07  0.8605E-03  0.1808E-02  0.7881E+01
   -0.594991   19.73889  0.0000E+00  0.1716E-04  0.7558E-07  0.8916E-03  0.1549E-02  0.2253E+01
   -0.637492   19.74050  0.0000E+00  0.1755E-04  0.7135E-07  0.9826E-03  0.1290E-02  0.1744E+01
   -0.679993   19.74202  0.0000E+00  0.1790E-04  0.6876E-07  0.1076E-02  0.1079E-02  0.1636E+01
   -0.722494   19.74343  0.0000E+00  0.1821E-04  0.6737E-07  0.1184E-02  0.9064E-03  0.1528E+01
   -0.764996   19.74476  0.0000E+00  0.1845E-04  0.6688E-07  0.1303E-02  0.7709E-03  0.1439E+01
   -0.807497   19.74603  0.0000E+00  0.1863E-04  0.6707E-07  0.1404E-02  0.6678E-03  0.1396E+01
   -0.849998   19.74724  0.0000E+00  0.1874E-04  0.6776E-07  0.1468E-02  0.5877E-03  0.1358E+01
   -0.892499   19.74844  0.0000E+00  0.1879E-04  0.6883E-07  0.1491E-02  0.5246E-03  0.1311E+01
   -0.935001   19.74965  0.0000E+00  0.1879E-04  0.7021E-07  0.1482E-02  0.4742E-03  0.1294E+01
   -0.977502   19.75089  0.0000E+00  0.1875E-04  0.7189E-07  0.1451E-02  0.4327E-03  0.1271E+01
   -1.020003   19.75219  0.0000E+00  0.1867E-04  0.7390E-07  0.1409E-02  0.3980E-03  0.1308E+01
   -1.062504   19.75352  0.0000E+00  0.1855E-04  0.7637E-07  0.1360E-02  0.3680E-03  0.1375E+01
   -1.105005   19.75492  0.0000E+00  0.1839E-04  0.7945E-07  0.1305E-02  0.3409E-03  0.1517E+01
   -1.147506   19.75639  0.0000E+00  0.1820E-04  0.8333E-07  0.1252E-02  0.3156E-03  0.1829E+01
   -1.190007   19.75791  0.0000E+00  0.1798E-04  0.8838E-07  0.1190E-02  0.2909E-03  0.2888E+01
   -1.232507   19.75948  0.0000E+00  0.1771E-04  0.9562E-07  0.1138E-02  0.2664E-03  0.3464E+01
   -1.275008   19.76129  0.0000E+00  0.1736E-04  0.1065E-06  0.1049E-02  0.2425E-03  0.3892E+02
   -1.317508   19.76360  0.0000E+00  0.1690E-04  0.1228E-06  0.9952E-03  0.2182E-03 -0.6398E+02
   -1.360008   19.76652  0.0000E+00  0.1628E-04  0.1507E-06  0.9085E-03  0.1938E-03 -0.9216E+03
   -1.402508   19.77086  0.0000E+00  0.1545E-04  0.1956E-06  0.7910E-03  0.1692E-03  0.3354E+05
   -1.445007   19.77558  0.0000E+00  0.1445E-04  0.2775E-06  0.6896E-03  0.1459E-03  0.3595E+05
   -1.487506   19.78333  0.0000E+00  0.1358E-04  0.3927E-06  0.6039E-03  0.1150E-03  0.1450E+06
   -1.530005   19.78984  0.0000E+00  0.1260E-04  0.7248E-06  0.5051E-03  0.8665E-04 -0.8274E+05
   -1.572503   19.82893  0.0000E+00  0.1184E-04  0.1260E-05  0.5213E-03  0.5692E-04  0.1187E+11
   -1.615001   19.79013  0.0000E+00  0.1024E-04  0.3775E-05  0.2875E-03  0.4736E-04 -0.4650E+10
   -1.657499   19.97113  0.0000E+00  0.8002E-05  0.7499E-05  0.2979E-03  0.2962E-04 -0.5659E+06
   -1.699996   19.93471  0.0000E+00  0.0000E+00  0.0000E+00  0.0000E+00  0.6065E-04  0.0000E+00
