 1 - depth, m
 2 - temperature, C
 3 - salinity, kg/kg
 4 - turbulent kinetic energy, m**2/s**2
 5 - dissipation rate, m**2/s**3
 6 - kinematic heat conductance, m**2/s
 7 - modulus of horizontal velocity, m/s
 8 - Richardson number, n/d
   -0.000000    9.09975  0.0000E+00  0.5727E-03  0.1156E-02  0.1007E-03  0.2925E+00  0.7191E-02
   -0.042497    9.39405  0.0000E+00  0.2889E-03  0.3910E-03  0.2081E-03  0.6479E-01 -0.3901E-01
   -0.084995    9.47631  0.0000E+00  0.1965E-03  0.1557E-03  0.1999E-03  0.3826E-01 -0.1490E+00
   -0.127493    9.52406  0.0000E+00  0.1460E-03  0.7847E-04  0.1999E-03  0.2958E-01  0.4849E+01
   -0.169991    9.55699  0.0000E+00  0.1126E-03  0.4207E-04  0.2096E-03  0.2383E-01  0.1277E+02
   -0.212490    9.58396  0.0000E+00  0.8806E-04  0.2352E-04  0.2348E-03  0.1930E-01  0.6359E+02
   -0.254989    9.60655  0.0000E+00  0.6985E-04  0.1292E-04  0.2746E-03  0.1603E-01  0.1157E+02
   -0.297488    9.62462  0.0000E+00  0.5665E-04  0.6854E-05  0.3129E-03  0.1370E-01  0.1029E+03
   -0.339988    9.64162  0.0000E+00  0.4732E-04  0.3766E-05  0.3613E-03  0.1183E-01  0.1407E+02
   -0.382488    9.65659  0.0000E+00  0.4062E-04  0.2186E-05  0.4195E-03  0.1020E-01  0.1324E+03
   -0.424988    9.66799  0.0000E+00  0.3589E-04  0.1363E-05  0.4606E-03  0.8919E-02  0.1569E+03
   -0.467488    9.67752  0.0000E+00  0.3251E-04  0.9208E-06  0.5167E-03  0.7744E-02  0.4188E+02
   -0.509988    9.68582  0.0000E+00  0.3002E-04  0.6520E-06  0.5702E-03  0.6721E-02  0.4682E+03
   -0.552489    9.69285  0.0000E+00  0.2815E-04  0.4851E-06  0.6225E-03  0.5834E-02  0.8273E+02
   -0.594990    9.69936  0.0000E+00  0.2676E-04  0.3801E-06  0.6892E-03  0.5033E-02  0.3173E+02
   -0.637491    9.70474  0.0000E+00  0.2565E-04  0.3087E-06  0.7491E-03  0.4335E-02  0.2052E+02
   -0.679992    9.70960  0.0000E+00  0.2474E-04  0.2578E-06  0.8126E-03  0.3731E-02  0.1457E+02
   -0.722493    9.71410  0.0000E+00  0.2397E-04  0.2196E-06  0.8785E-03  0.3213E-02  0.7055E+01
   -0.764994    9.71835  0.0000E+00  0.2329E-04  0.1897E-06  0.9352E-03  0.2777E-02  0.4309E+01
   -0.807495    9.72254  0.0000E+00  0.2266E-04  0.1655E-06  0.1001E-02  0.2410E-02  0.2412E+01
   -0.849997    9.72659  0.0000E+00  0.2209E-04  0.1464E-06  0.1056E-02  0.2101E-02  0.4445E+01
   -0.892498    9.73053  0.0000E+00  0.2154E-04  0.1311E-06  0.1103E-02  0.1839E-02  0.3011E+01
   -0.934999    9.73440  0.0000E+00  0.2102E-04  0.1190E-06  0.1134E-02  0.1616E-02  0.1881E+01
   -0.977500    9.73819  0.0000E+00  0.2052E-04  0.1097E-06  0.1151E-02  0.1421E-02  0.1295E+01
   -1.020001    9.74195  0.0000E+00  0.2002E-04  0.1026E-06  0.1154E-02  0.1253E-02  0.1923E+01
   -1.062502    9.74569  0.0000E+00  0.1953E-04  0.9750E-07  0.1143E-02  0.1103E-02  0.2022E+01
   -1.105003    9.74944  0.0000E+00  0.1904E-04  0.9423E-07  0.1120E-02  0.9700E-03  0.2238E+01
   -1.147504    9.75323  0.0000E+00  0.1856E-04  0.9283E-07  0.1089E-02  0.8475E-03  0.2506E+01
   -1.190005    9.75701  0.0000E+00  0.1811E-04  0.9339E-07  0.1045E-02  0.7324E-03  0.2816E+01
   -1.232505    9.76078  0.0000E+00  0.1767E-04  0.9632E-07  0.1001E-02  0.6262E-03  0.4521E+01
   -1.275005    9.76492  0.0000E+00  0.1722E-04  0.1024E-06  0.9407E-03  0.5361E-03  0.5210E+02
   -1.317505    9.76965  0.0000E+00  0.1673E-04  0.1133E-06  0.8901E-03  0.4610E-03  0.5902E+01
   -1.360005    9.77577  0.0000E+00  0.1615E-04  0.1329E-06  0.8120E-03  0.3975E-03  0.8495E+03
   -1.402505    9.78380  0.0000E+00  0.1539E-04  0.1675E-06  0.7446E-03  0.3421E-03  0.2028E+04
   -1.445004    9.79385  0.0000E+00  0.1448E-04  0.2270E-06  0.6421E-03  0.2911E-03  0.1359E+05
   -1.487503    9.81009  0.0000E+00  0.1363E-04  0.3238E-06  0.5879E-03  0.2275E-03  0.1724E+05
   -1.530002    9.82024  0.0000E+00  0.1273E-04  0.5724E-06  0.4629E-03  0.1726E-03 -0.9302E+05
   -1.572500    9.90067  0.0000E+00  0.1197E-04  0.1043E-05  0.4883E-03  0.1123E-03  0.6278E+11
   -1.614998    9.83051  0.0000E+00  0.1036E-04  0.2969E-05  0.2537E-03  0.9235E-04 -0.4835E+10
   -1.657496   10.20959  0.0000E+00  0.8002E-05  0.6102E-05  0.2482E-03  0.5734E-04  0.2106E+07
   -1.699993   10.12505  0.0000E+00  0.0000E+00  0.0000E+00  0.0000E+00  0.1145E-03  0.0000E+00
