 1 - depth, m
 2 - temperature, C
 3 - salinity, kg/kg
 4 - turbulent kinetic energy, m**2/s**2
 5 - dissipation rate, m**2/s**3
 6 - kinematic heat conductance, m**2/s
 7 - modulus of horizontal velocity, m/s
 8 - Richardson number, n/d
   -0.000000    9.73089  0.0000E+00  0.3165E-02  0.5115E-01  0.1969E-03  0.9279E+00  0.8877E-02
   -0.042497   10.01900  0.0000E+00  0.1470E-02  0.3170E-01  0.3536E-03  0.1951E+00  0.4861E-02
   -0.084995   10.17773  0.0000E+00  0.9193E-03  0.8244E-02  0.4995E-03  0.1018E+00  0.6725E+00
   -0.127493   10.23804  0.0000E+00  0.6710E-03  0.3565E-02  0.4791E-03  0.7670E-01 -0.8168E-01
   -0.169991   10.26960  0.0000E+00  0.5185E-03  0.2001E-02  0.4160E-03  0.6076E-01  0.6544E+00
   -0.212490   10.29240  0.0000E+00  0.4049E-03  0.1198E-02  0.3899E-03  0.4878E-01  0.2816E+01
   -0.254989   10.30764  0.0000E+00  0.3237E-03  0.7758E-03  0.4020E-03  0.4020E-01  0.1736E+03
   -0.297488   10.32843  0.0000E+00  0.2613E-03  0.5149E-03  0.4205E-03  0.3473E-01  0.1225E+02
   -0.339988   10.33930  0.0000E+00  0.2143E-03  0.3387E-03  0.4390E-03  0.3120E-01  0.8528E+02
   -0.382488   10.34910  0.0000E+00  0.1793E-03  0.2205E-03  0.4575E-03  0.2745E-01  0.6631E+02
   -0.424988   10.35620  0.0000E+00  0.1527E-03  0.1410E-03  0.4591E-03  0.2487E-01 -0.6011E+01
   -0.467488   10.36465  0.0000E+00  0.1321E-03  0.8855E-04  0.4725E-03  0.2199E-01  0.3222E+03
   -0.509988   10.37296  0.0000E+00  0.1159E-03  0.5472E-04  0.5188E-03  0.1921E-01  0.1036E+04
   -0.552489   10.38048  0.0000E+00  0.1033E-03  0.3346E-04  0.5494E-03  0.1692E-01  0.8028E+03
   -0.594990   10.38977  0.0000E+00  0.9270E-04  0.2045E-04  0.6072E-03  0.1453E-01  0.1640E+03
   -0.637491   10.39822  0.0000E+00  0.8394E-04  0.1283E-04  0.6678E-03  0.1263E-01  0.3037E+03
   -0.679992   10.40190  0.0000E+00  0.7658E-04  0.8075E-05  0.7212E-03  0.1129E-01 -0.8143E+02
   -0.722493   10.40852  0.0000E+00  0.7027E-04  0.5338E-05  0.8017E-03  0.1011E-01  0.2387E+04
   -0.764994   10.41237  0.0000E+00  0.6492E-04  0.3633E-05  0.8677E-03  0.9147E-02  0.1872E+04
   -0.807495   10.41760  0.0000E+00  0.6027E-04  0.2530E-05  0.9215E-03  0.8371E-02  0.3464E+04
   -0.849997   10.42202  0.0000E+00  0.5622E-04  0.1794E-05  0.9824E-03  0.7686E-02  0.2163E+04
   -0.892498   10.42617  0.0000E+00  0.5266E-04  0.1353E-05  0.1024E-02  0.7054E-02  0.4011E+03
   -0.934999   10.43070  0.0000E+00  0.4951E-04  0.1062E-05  0.1057E-02  0.6503E-02  0.4241E+03
   -0.977500   10.43479  0.0000E+00  0.4670E-04  0.8668E-06  0.1061E-02  0.5976E-02  0.4337E+03
   -1.020001   10.43876  0.0000E+00  0.4412E-04  0.7274E-06  0.1077E-02  0.5471E-02  0.4960E+03
   -1.062502   10.44267  0.0000E+00  0.4178E-04  0.6235E-06  0.1079E-02  0.4999E-02  0.5184E+03
   -1.105003   10.44627  0.0000E+00  0.3960E-04  0.5431E-06  0.1070E-02  0.4548E-02  0.1792E+03
   -1.147504   10.45006  0.0000E+00  0.3764E-04  0.4818E-06  0.1065E-02  0.4097E-02  0.2098E+03
   -1.190005   10.45352  0.0000E+00  0.3591E-04  0.4377E-06  0.1040E-02  0.3663E-02  0.6916E+04
   -1.232505   10.45702  0.0000E+00  0.3423E-04  0.4039E-06  0.1011E-02  0.3243E-02  0.1750E+03
   -1.275005   10.46066  0.0000E+00  0.3254E-04  0.3799E-06  0.9663E-03  0.2850E-02  0.8106E+03
   -1.317505   10.46466  0.0000E+00  0.3084E-04  0.3673E-06  0.9097E-03  0.2497E-02  0.4506E+03
   -1.360005   10.46920  0.0000E+00  0.2905E-04  0.3694E-06  0.8409E-03  0.2176E-02  0.4492E+03
   -1.402505   10.47487  0.0000E+00  0.2710E-04  0.4012E-06  0.7748E-03  0.1900E-02 -0.1207E+04
   -1.445004   10.48221  0.0000E+00  0.2514E-04  0.4815E-06  0.6963E-03  0.1650E-02  0.1521E+04
   -1.487503   10.49268  0.0000E+00  0.2324E-04  0.6466E-06  0.6308E-03  0.1383E-02  0.4986E+04
   -1.530002   10.50341  0.0000E+00  0.2121E-04  0.1053E-05  0.5001E-03  0.1066E-02 -0.5082E+05
   -1.572500   10.54258  0.0000E+00  0.1937E-04  0.2032E-05  0.4992E-03  0.7517E-03  0.6840E+09
   -1.614998   10.52940  0.0000E+00  0.1631E-04  0.6540E-05  0.2594E-03  0.6056E-03 -0.4701E+10
   -1.657496   10.79391  0.0000E+00  0.1202E-04  0.1291E-04  0.2392E-03  0.4120E-03 -0.2631E+08
   -1.699993   10.76103  0.0000E+00  0.0000E+00  0.0000E+00  0.0000E+00  0.7471E-03  0.0000E+00
