 1 - depth, m
 2 - temperature, C
 3 - salinity, kg/kg
 4 - turbulent kinetic energy, m**2/s**2
 5 - dissipation rate, m**2/s**3
 6 - kinematic heat conductance, m**2/s
 7 - modulus of horizontal velocity, m/s
 8 - Richardson number, n/d
   -0.000000   15.30364  0.0000E+00  0.1608E-02  0.9906E-02  0.1595E-03  0.5438E+00  0.3173E-02
   -0.042497   15.50776  0.0000E+00  0.7579E-03  0.3956E-02  0.2714E-03  0.1169E+00 -0.8083E-01
   -0.084995   15.58369  0.0000E+00  0.4870E-03  0.1693E-02  0.3462E-03  0.6694E-01 -0.7998E-02
   -0.127493   15.63078  0.0000E+00  0.3665E-03  0.1046E-02  0.3147E-03  0.5182E-01  0.2518E+01
   -0.169991   15.65285  0.0000E+00  0.2783E-03  0.5396E-03  0.3079E-03  0.4233E-01  0.1305E+02
   -0.212490   15.67047  0.0000E+00  0.2159E-03  0.3065E-03  0.3132E-03  0.3479E-01  0.2039E+02
   -0.254989   15.68506  0.0000E+00  0.1687E-03  0.1817E-03  0.3391E-03  0.2891E-01  0.2783E+01
   -0.297488   15.69810  0.0000E+00  0.1356E-03  0.1096E-03  0.3834E-03  0.2481E-01  0.2182E+02
   -0.339988   15.70858  0.0000E+00  0.1121E-03  0.6704E-04  0.4110E-03  0.2197E-01  0.1875E+02
   -0.382488   15.71817  0.0000E+00  0.9426E-04  0.4385E-04  0.4490E-03  0.1929E-01  0.2887E+02
   -0.424988   15.72581  0.0000E+00  0.8104E-04  0.2938E-04  0.4820E-03  0.1742E-01  0.2077E+02
   -0.467488   15.73205  0.0000E+00  0.7129E-04  0.2012E-04  0.5319E-03  0.1534E-01  0.3754E+02
   -0.509989   15.73855  0.0000E+00  0.6393E-04  0.1398E-04  0.5888E-03  0.1339E-01  0.2829E+03
   -0.552489   15.74388  0.0000E+00  0.5822E-04  0.9670E-05  0.6493E-03  0.1174E-01  0.3111E+04
   -0.594990   15.74893  0.0000E+00  0.5374E-04  0.6742E-05  0.7324E-03  0.1019E-01  0.1965E+03
   -0.637491   15.75352  0.0000E+00  0.5000E-04  0.4562E-05  0.7995E-03  0.8870E-02  0.5426E+04
   -0.679992   15.75667  0.0000E+00  0.4686E-04  0.3061E-05  0.8715E-03  0.7811E-02  0.9660E+02
   -0.722493   15.76019  0.0000E+00  0.4416E-04  0.2055E-05  0.9319E-03  0.6885E-02  0.2479E+03
   -0.764994   15.76299  0.0000E+00  0.4179E-04  0.1344E-05  0.9795E-03  0.6108E-02 -0.6479E+03
   -0.807495   15.76604  0.0000E+00  0.3969E-04  0.9064E-06  0.1027E-02  0.5460E-02 -0.4858E+03
   -0.849997   15.76866  0.0000E+00  0.3780E-04  0.6179E-06  0.1082E-02  0.4888E-02  0.6048E+04
   -0.892498   15.77129  0.0000E+00  0.3609E-04  0.4916E-06  0.1104E-02  0.4387E-02  0.1445E+05
   -0.934999   15.77396  0.0000E+00  0.3450E-04  0.4002E-06  0.1120E-02  0.3945E-02  0.2073E+03
   -0.977500   15.77655  0.0000E+00  0.3300E-04  0.3331E-06  0.1144E-02  0.3529E-02 -0.1231E+03
   -1.020002   15.77910  0.0000E+00  0.3158E-04  0.2856E-06  0.1149E-02  0.3164E-02  0.4892E+02
   -1.062503   15.78167  0.0000E+00  0.3022E-04  0.2482E-06  0.1146E-02  0.2819E-02  0.4444E+02
   -1.105004   15.78417  0.0000E+00  0.2891E-04  0.2216E-06  0.1134E-02  0.2497E-02  0.1343E+04
   -1.147504   15.78669  0.0000E+00  0.2767E-04  0.2026E-06  0.1101E-02  0.2197E-02  0.2744E+02
   -1.190005   15.78924  0.0000E+00  0.2647E-04  0.1902E-06  0.1051E-02  0.1905E-02  0.1652E+02
   -1.232505   15.79182  0.0000E+00  0.2538E-04  0.1842E-06  0.1064E-02  0.1611E-02  0.2173E+02
   -1.275006   15.79453  0.0000E+00  0.2437E-04  0.1848E-06  0.9804E-03  0.1393E-02  0.5300E+02
   -1.317506   15.79770  0.0000E+00  0.2332E-04  0.1926E-06  0.9060E-03  0.1213E-02  0.2078E+06
   -1.360006   15.80148  0.0000E+00  0.2208E-04  0.2144E-06  0.8165E-03  0.1021E-02  0.2082E+05
   -1.402505   15.80698  0.0000E+00  0.2070E-04  0.2594E-06  0.7651E-03  0.8697E-03  0.1385E+04
   -1.445005   15.81351  0.0000E+00  0.1918E-04  0.3442E-06  0.6769E-03  0.7348E-03  0.2221E+04
   -1.487504   15.82300  0.0000E+00  0.1774E-04  0.5010E-06  0.6035E-03  0.5911E-03  0.1017E+05
   -1.530002   15.83195  0.0000E+00  0.1625E-04  0.9273E-06  0.4839E-03  0.4355E-03 -0.4515E+04
   -1.572501   15.88000  0.0000E+00  0.1502E-04  0.1797E-05  0.4978E-03  0.2780E-03  0.5560E+10
   -1.614999   15.84164  0.0000E+00  0.1284E-04  0.5586E-05  0.2741E-03  0.2211E-03 -0.1871E+11
   -1.657496   16.08258  0.0000E+00  0.9938E-05  0.1058E-04  0.2911E-03  0.1395E-03  0.2813E+06
   -1.699993   16.01299  0.0000E+00  0.0000E+00  0.0000E+00  0.0000E+00  0.2777E-03  0.0000E+00
