 1 - depth, m
 2 - temperature, C
 3 - salinity, kg/kg
 4 - turbulent kinetic energy, m**2/s**2
 5 - dissipation rate, m**2/s**3
 6 - kinematic heat conductance, m**2/s
 7 - modulus of horizontal velocity, m/s
 8 - Richardson number, n/d
   -0.000000   16.14804  0.0000E+00  0.8906E-03  0.4893E-02  0.1399E-03  0.4270E+00  0.4584E-02
   -0.042497   16.29255  0.0000E+00  0.4416E-03  0.2234E-02  0.1879E-03  0.9736E-01 -0.5166E-01
   -0.084995   16.39367  0.0000E+00  0.2844E-03  0.8766E-03  0.2134E-03  0.5250E-01  0.2626E-01
   -0.127493   16.43255  0.0000E+00  0.2064E-03  0.4903E-03  0.2128E-03  0.3948E-01 -0.8379E+00
   -0.169992   16.45396  0.0000E+00  0.1575E-03  0.2980E-03  0.2107E-03  0.3139E-01  0.8171E+01
   -0.212490   16.46821  0.0000E+00  0.1215E-03  0.1802E-03  0.2413E-03  0.2519E-01  0.1698E+02
   -0.254989   16.48395  0.0000E+00  0.9579E-04  0.1130E-03  0.2821E-03  0.2055E-01  0.6547E+02
   -0.297489   16.49558  0.0000E+00  0.7745E-04  0.6881E-04  0.3317E-03  0.1755E-01  0.1076E+03
   -0.339989   16.50413  0.0000E+00  0.6418E-04  0.3978E-04  0.3635E-03  0.1538E-01  0.3644E+02
   -0.382489   16.51256  0.0000E+00  0.5461E-04  0.2197E-04  0.4138E-03  0.1330E-01  0.2399E+02
   -0.424989   16.51882  0.0000E+00  0.4779E-04  0.1196E-04  0.4514E-03  0.1180E-01  0.2013E+03
   -0.467489   16.52532  0.0000E+00  0.4293E-04  0.6934E-05  0.5114E-03  0.1028E-01  0.6270E+03
   -0.509990   16.53001  0.0000E+00  0.3921E-04  0.3899E-05  0.5739E-03  0.8960E-02  0.1091E+03
   -0.552490   16.53492  0.0000E+00  0.3639E-04  0.2364E-05  0.6338E-03  0.7800E-02  0.5640E+03
   -0.594991   16.53849  0.0000E+00  0.3419E-04  0.1517E-05  0.6943E-03  0.6764E-02  0.3635E+03
   -0.637492   16.54231  0.0000E+00  0.3237E-04  0.9751E-06  0.7505E-03  0.5844E-02  0.8005E+02
   -0.679993   16.54491  0.0000E+00  0.3088E-04  0.6806E-06  0.8243E-03  0.5078E-02  0.9092E+02
   -0.722495   16.54804  0.0000E+00  0.2958E-04  0.5121E-06  0.8967E-03  0.4409E-02  0.6000E+02
   -0.764996   16.55041  0.0000E+00  0.2841E-04  0.3986E-06  0.9559E-03  0.3854E-02  0.9906E+03
   -0.807497   16.55295  0.0000E+00  0.2733E-04  0.3156E-06  0.9830E-03  0.3399E-02  0.5102E+02
   -0.849999   16.55549  0.0000E+00  0.2638E-04  0.2536E-06  0.1078E-02  0.2969E-02  0.2226E+03
   -0.892500   16.55779  0.0000E+00  0.2553E-04  0.2121E-06  0.1146E-02  0.2642E-02 -0.2864E+03
   -0.935001   16.56004  0.0000E+00  0.2478E-04  0.1841E-06  0.1069E-02  0.2364E-02  0.4310E+02
   -0.977503   16.56238  0.0000E+00  0.2405E-04  0.1636E-06  0.1156E-02  0.2073E-02  0.3712E+04
   -1.020004   16.56459  0.0000E+00  0.2337E-04  0.1486E-06  0.1104E-02  0.1861E-02  0.3411E+02
   -1.062505   16.56688  0.0000E+00  0.2271E-04  0.1370E-06  0.1183E-02  0.1627E-02  0.1058E+03
   -1.105006   16.56903  0.0000E+00  0.2207E-04  0.1287E-06  0.1119E-02  0.1445E-02  0.7299E+02
   -1.147507   16.57126  0.0000E+00  0.2150E-04  0.1238E-06  0.1109E-02  0.1277E-02  0.6178E+02
   -1.190008   16.57345  0.0000E+00  0.2093E-04  0.1220E-06  0.1069E-02  0.1098E-02  0.7354E+02
   -1.232508   16.57563  0.0000E+00  0.2041E-04  0.1233E-06  0.9867E-03  0.9625E-03  0.5496E+02
   -1.275009   16.57807  0.0000E+00  0.1980E-04  0.1281E-06  0.9249E-03  0.8179E-03  0.4563E+02
   -1.317509   16.58087  0.0000E+00  0.1913E-04  0.1386E-06  0.8855E-03  0.6872E-03  0.7482E+02
   -1.360009   16.58418  0.0000E+00  0.1839E-04  0.1604E-06  0.8124E-03  0.5829E-03 -0.3654E+04
   -1.402508   16.58892  0.0000E+00  0.1747E-04  0.2024E-06  0.7565E-03  0.4959E-03  0.2605E+04
   -1.445008   16.59470  0.0000E+00  0.1641E-04  0.2785E-06  0.6561E-03  0.4185E-03  0.3601E+05
   -1.487507   16.60372  0.0000E+00  0.1542E-04  0.4023E-06  0.5912E-03  0.3299E-03  0.5360E+05
   -1.530006   16.61020  0.0000E+00  0.1442E-04  0.7417E-06  0.4837E-03  0.2465E-03  0.3404E+07
   -1.572504   16.65391  0.0000E+00  0.1360E-04  0.1372E-05  0.5001E-03  0.1589E-03  0.2681E+10
   -1.615002   16.61819  0.0000E+00  0.1181E-04  0.4199E-05  0.2665E-03  0.1298E-03 -0.1235E+11
   -1.657500   16.83201  0.0000E+00  0.9132E-05  0.8043E-05  0.2623E-03  0.8158E-04  0.1112E+08
   -1.699997   16.79086  0.0000E+00  0.0000E+00  0.0000E+00  0.0000E+00  0.1633E-03  0.0000E+00
