 1 - depth, m
 2 - temperature, C
 3 - salinity, kg/kg
 4 - turbulent kinetic energy, m**2/s**2
 5 - dissipation rate, m**2/s**3
 6 - kinematic heat conductance, m**2/s
 7 - modulus of horizontal velocity, m/s
 8 - Richardson number, n/d
   -0.000000   15.09053  0.0000E+00  0.2878E-02  0.6657E-01  0.1909E-03  0.9731E+00  0.4651E-03
   -0.042497   15.42402  0.0000E+00  0.1469E-02  0.4665E-01  0.3605E-03  0.2108E+00 -0.2542E+00
   -0.084995   15.74879  0.0000E+00  0.8598E-03  0.1206E-01  0.4522E-03  0.1056E+00  0.1186E+00
   -0.127493   15.82860  0.0000E+00  0.6082E-03  0.6712E-02  0.4485E-03  0.7463E-01 -0.3564E-01
   -0.169991   15.86279  0.0000E+00  0.4696E-03  0.4195E-02  0.4087E-03  0.5739E-01  0.1235E+01
   -0.212490   15.89509  0.0000E+00  0.3668E-03  0.2521E-02  0.4442E-03  0.4428E-01  0.2764E+01
   -0.254989   15.91671  0.0000E+00  0.2964E-03  0.1762E-02  0.4881E-03  0.3557E-01  0.1072E+02
   -0.297488   15.93005  0.0000E+00  0.2433E-03  0.1203E-02  0.5138E-03  0.3089E-01  0.4281E+02
   -0.339988   15.94264  0.0000E+00  0.2040E-03  0.8009E-03  0.5378E-03  0.2782E-01  0.7775E+03
   -0.382488   15.95050  0.0000E+00  0.1723E-03  0.5056E-03  0.5644E-03  0.2478E-01  0.8635E+02
   -0.424988   15.95887  0.0000E+00  0.1483E-03  0.2976E-03  0.5787E-03  0.2280E-01  0.2811E+03
   -0.467488   15.96648  0.0000E+00  0.1296E-03  0.1912E-03  0.6174E-03  0.2031E-01  0.1434E+04
   -0.509988   15.97061  0.0000E+00  0.1152E-03  0.1241E-03  0.6629E-03  0.1801E-01  0.4446E+03
   -0.552489   15.97643  0.0000E+00  0.1039E-03  0.7752E-04  0.7201E-03  0.1599E-01  0.4130E+03
   -0.594990   15.98410  0.0000E+00  0.9494E-04  0.4744E-04  0.8002E-03  0.1411E-01  0.1593E+03
   -0.637491   15.99024  0.0000E+00  0.8744E-04  0.2757E-04  0.8708E-03  0.1251E-01  0.1345E+04
   -0.679992   15.99301  0.0000E+00  0.8102E-04  0.1589E-04  0.9426E-03  0.1131E-01  0.5797E+03
   -0.722493   15.99768  0.0000E+00  0.7555E-04  0.9074E-05  0.1003E-02  0.1023E-01  0.7739E+04
   -0.764994   16.00033  0.0000E+00  0.7078E-04  0.5293E-05  0.1055E-02  0.9342E-02 -0.1891E+05
   -0.807495   16.00524  0.0000E+00  0.6642E-04  0.3280E-05  0.1114E-02  0.8557E-02  0.1473E+05
   -0.849997   16.00803  0.0000E+00  0.6254E-04  0.2150E-05  0.1169E-02  0.7867E-02  0.2228E+05
   -0.892498   16.01163  0.0000E+00  0.5900E-04  0.1550E-05  0.1205E-02  0.7239E-02  0.1381E+06
   -0.934999   16.01456  0.0000E+00  0.5593E-04  0.1244E-05  0.1268E-02  0.6678E-02  0.5795E+06
   -0.977500   16.01701  0.0000E+00  0.5314E-04  0.1025E-05  0.1276E-02  0.6185E-02 -0.1130E+07
   -1.020001   16.02162  0.0000E+00  0.5039E-04  0.8275E-06  0.1263E-02  0.5624E-02  0.5813E+04
   -1.062502   16.02418  0.0000E+00  0.4786E-04  0.6967E-06  0.1276E-02  0.5132E-02  0.2744E+02
   -1.105003   16.02705  0.0000E+00  0.4565E-04  0.6095E-06  0.1285E-02  0.4701E-02  0.2281E+06
   -1.147504   16.02939  0.0000E+00  0.4361E-04  0.5439E-06  0.1250E-02  0.4293E-02  0.2375E+04
   -1.190005   16.03227  0.0000E+00  0.4171E-04  0.4981E-06  0.1216E-02  0.3845E-02  0.1316E+04
   -1.232505   16.03467  0.0000E+00  0.3986E-04  0.4659E-06  0.1149E-02  0.3426E-02  0.2632E+04
   -1.275005   16.03764  0.0000E+00  0.3792E-04  0.4488E-06  0.1095E-02  0.3029E-02  0.1529E+04
   -1.317505   16.04065  0.0000E+00  0.3587E-04  0.4513E-06  0.1015E-02  0.2645E-02  0.2423E+04
   -1.360005   16.04404  0.0000E+00  0.3376E-04  0.4877E-06  0.9352E-03  0.2311E-02  0.2425E+04
   -1.402505   16.04867  0.0000E+00  0.3148E-04  0.5866E-06  0.8624E-03  0.2022E-02  0.1044E+05
   -1.445004   16.05419  0.0000E+00  0.2917E-04  0.7798E-06  0.7748E-03  0.1763E-02  0.1130E+05
   -1.487503   16.06221  0.0000E+00  0.2694E-04  0.1094E-05  0.6866E-03  0.1482E-02 -0.3893E+05
   -1.530002   16.07061  0.0000E+00  0.2452E-04  0.1705E-05  0.5623E-03  0.1157E-02  0.3578E+06
   -1.572500   16.10364  0.0000E+00  0.2211E-04  0.4096E-05  0.5714E-03  0.8181E-03  0.2109E+10
   -1.614998   16.08854  0.0000E+00  0.1858E-04  0.1011E-04  0.2913E-03  0.6504E-03 -0.2922E+10
   -1.657496   16.27741  0.0000E+00  0.1388E-04  0.1830E-04  0.2773E-03  0.4531E-03  0.3900E+08
   -1.699993   16.25470  0.0000E+00  0.0000E+00  0.0000E+00  0.0000E+00  0.7850E-03  0.0000E+00
