 1 - depth, m
 2 - temperature, C
 3 - salinity, kg/kg
 4 - turbulent kinetic energy, m**2/s**2
 5 - dissipation rate, m**2/s**3
 6 - kinematic heat conductance, m**2/s
 7 - modulus of horizontal velocity, m/s
 8 - Richardson number, n/d
   -0.000000   -0.00059  0.0000E+00  0.2825E-03  0.2309E-03  0.8219E-04  0.2004E+00  0.7289E-01
   -0.042501    0.08318  0.0000E+00  0.1585E-03  0.7558E-04  0.1432E-03  0.5374E-01  0.3258E-01
   -0.085003    0.13539  0.0000E+00  0.1097E-03  0.2903E-04  0.1230E-03  0.3666E-01  0.1317E+00
   -0.127505    0.18631  0.0000E+00  0.7970E-04  0.1286E-04  0.1067E-03  0.2908E-01  0.4624E+01
   -0.170007    0.23920  0.0000E+00  0.5759E-04  0.5889E-05  0.9224E-04  0.2332E-01  0.2664E+00
   -0.212510    0.29891  0.0000E+00  0.4070E-04  0.2767E-05  0.7702E-04  0.1850E-01  0.6700E+00
   -0.255013    0.37540  0.0000E+00  0.2814E-04  0.1426E-05  0.6059E-04  0.1462E-01  0.4045E+02
   -0.297516    0.48307  0.0000E+00  0.1890E-04  0.7708E-06  0.4324E-04  0.1186E-01  0.2364E+03
   -0.340020    0.64789  0.0000E+00  0.1223E-04  0.4271E-06  0.2724E-04  0.9754E-02  0.3445E+03
   -0.382524    0.94531  0.0000E+00  0.7437E-05  0.2293E-06  0.1477E-04  0.7617E-02  0.1568E+05
   -0.425028    1.55236  0.0000E+00  0.4588E-05  0.1218E-06  0.1901E-04  0.5797E-02  0.6788E+04
   -0.467532    2.39889  0.0000E+00  0.3102E-05  0.6198E-07  0.6749E-04  0.3664E-02  0.3997E+04
   -0.510037    3.26733  0.0000E+00  0.2484E-05  0.2980E-07  0.1563E-03  0.1908E-02  0.1564E+05
   -0.552541    3.87324  0.0000E+00  0.2282E-05  0.1507E-07  0.2537E-03  0.8753E-03  0.2268E+04
   -0.595046    4.11089  0.0000E+00  0.2231E-05  0.8996E-08  0.3120E-03  0.4267E-03  0.1528E+06
   -0.637551    4.19532  0.0000E+00  0.2252E-05  0.6541E-08  0.3536E-03  0.2458E-03  0.1463E+06
   -0.680056    4.22667  0.0000E+00  0.2306E-05  0.5524E-08  0.3892E-03  0.1668E-03  0.1305E+05
   -0.722561    4.24518  0.0000E+00  0.2377E-05  0.5079E-08  0.4198E-03  0.1239E-03  0.7148E+04
   -0.765066    4.25944  0.0000E+00  0.2459E-05  0.4876E-08  0.4460E-03  0.9832E-04  0.3962E+04
   -0.807572    4.27227  0.0000E+00  0.2546E-05  0.4782E-08  0.4704E-03  0.8195E-04  0.4418E+04
   -0.850077    4.28443  0.0000E+00  0.2633E-05  0.4752E-08  0.4929E-03  0.6984E-04  0.5122E+04
   -0.892582    4.29607  0.0000E+00  0.2719E-05  0.4764E-08  0.5140E-03  0.6031E-04  0.6151E+04
   -0.935087    4.30734  0.0000E+00  0.2802E-05  0.4806E-08  0.5324E-03  0.5262E-04  0.7038E+04
   -0.977593    4.31818  0.0000E+00  0.2881E-05  0.4874E-08  0.5483E-03  0.4614E-04  0.8428E+04
   -1.020098    4.32870  0.0000E+00  0.2955E-05  0.4963E-08  0.5610E-03  0.4068E-04  0.9116E+04
   -1.062603    4.33887  0.0000E+00  0.3023E-05  0.5072E-08  0.5704E-03  0.3590E-04  0.1057E+05
   -1.105108    4.34876  0.0000E+00  0.3086E-05  0.5201E-08  0.5766E-03  0.3169E-04  0.1145E+05
   -1.147612    4.35831  0.0000E+00  0.3144E-05  0.5350E-08  0.5796E-03  0.2786E-04  0.1315E+05
   -1.190117    4.36742  0.0000E+00  0.3196E-05  0.5523E-08  0.5780E-03  0.2427E-04  0.1443E+05
   -1.232622    4.37619  0.0000E+00  0.3247E-05  0.5736E-08  0.5753E-03  0.2094E-04  0.3265E+05
   -1.275126    4.38523  0.0000E+00  0.3298E-05  0.6003E-08  0.5594E-03  0.1798E-04  0.1112E+06
   -1.317630    4.39481  0.0000E+00  0.3348E-05  0.6334E-08  0.5979E-03  0.1535E-04  0.8462E+05
   -1.360134    4.40418  0.0000E+00  0.3400E-05  0.6780E-08  0.5015E-03  0.1322E-04  0.7506E+06
   -1.402637    4.41596  0.0000E+00  0.3449E-05  0.7351E-08  0.4986E-03  0.1124E-04  0.1444E+06
   -1.445141    4.42884  0.0000E+00  0.3492E-05  0.8073E-08  0.4635E-03  0.9420E-05  0.6944E+06
   -1.487644    4.44199  0.0000E+00  0.3530E-05  0.9002E-08  0.4282E-03  0.7696E-05  0.1685E+06
   -1.530146    4.45476  0.0000E+00  0.3573E-05  0.1051E-07  0.3700E-03  0.6047E-05  0.2736E+06
   -1.572649    4.46955  0.0000E+00  0.3625E-05  0.1391E-07  0.2975E-03  0.4576E-05  0.7763E+06
   -1.615151    4.49697  0.0000E+00  0.3588E-05  0.2642E-07  0.1659E-03  0.3473E-05  0.2948E+10
   -1.657652    4.58366  0.0000E+00  0.2727E-05  0.9039E-07  0.3057E-04  0.2429E-05 -0.2974E+10
   -1.700154    4.98509  0.0000E+00  0.0000E+00  0.0000E+00  0.0000E+00  0.2467E-05  0.0000E+00
