 1 - depth, m
 2 - temperature, C
 3 - salinity, kg/kg
 4 - turbulent kinetic energy, m**2/s**2
 5 - dissipation rate, m**2/s**3
 6 - kinematic heat conductance, m**2/s
 7 - modulus of horizontal velocity, m/s
 8 - Richardson number, n/d
   -0.000000   14.26515  0.0000E+00  0.9951E-03  0.5155E-02  0.1276E-03  0.4538E+00 -0.1774E-02
   -0.042497   14.57790  0.0000E+00  0.5094E-03  0.2514E-02  0.2323E-03  0.1031E+00 -0.3087E-01
   -0.084995   14.72429  0.0000E+00  0.3331E-03  0.7800E-03  0.2597E-03  0.5705E-01 -0.1136E-01
   -0.127493   14.77551  0.0000E+00  0.2501E-03  0.4170E-03  0.2655E-03  0.4353E-01  0.4617E+01
   -0.169991   14.80094  0.0000E+00  0.1963E-03  0.2481E-03  0.2660E-03  0.3548E-01  0.3626E+02
   -0.212489   14.82164  0.0000E+00  0.1546E-03  0.1471E-03  0.2867E-03  0.2904E-01  0.1321E+03
   -0.254988   14.83874  0.0000E+00  0.1240E-03  0.8858E-04  0.3584E-03  0.2449E-01  0.5709E+01
   -0.297488   14.85096  0.0000E+00  0.1017E-03  0.5152E-04  0.3925E-03  0.2151E-01  0.2865E+02
   -0.339987   14.86130  0.0000E+00  0.8537E-04  0.2776E-04  0.4348E-03  0.1915E-01  0.4537E+02
   -0.382487   14.87182  0.0000E+00  0.7338E-04  0.1511E-04  0.4948E-03  0.1682E-01  0.5335E+02
   -0.424987   14.87892  0.0000E+00  0.6465E-04  0.8183E-05  0.5449E-03  0.1508E-01  0.1444E+04
   -0.467487   14.88742  0.0000E+00  0.5830E-04  0.4614E-05  0.6156E-03  0.1331E-01  0.4166E+03
   -0.509987   14.89332  0.0000E+00  0.5356E-04  0.2830E-05  0.6905E-03  0.1176E-01  0.3201E+03
   -0.552488   14.89958  0.0000E+00  0.4990E-04  0.1785E-05  0.7506E-03  0.1039E-01  0.1017E+04
   -0.594989   14.90417  0.0000E+00  0.4701E-04  0.1232E-05  0.8199E-03  0.9129E-02  0.1150E+03
   -0.637489   14.90899  0.0000E+00  0.4459E-04  0.9097E-06  0.8889E-03  0.8000E-02  0.7220E+02
   -0.679990   14.91253  0.0000E+00  0.4252E-04  0.7114E-06  0.9528E-03  0.7056E-02  0.9918E+02
   -0.722491   14.91620  0.0000E+00  0.4068E-04  0.5748E-06  0.1005E-02  0.6229E-02  0.2332E+02
   -0.764993   14.91993  0.0000E+00  0.3897E-04  0.4812E-06  0.1061E-02  0.5484E-02 -0.1653E+02
   -0.807494   14.92320  0.0000E+00  0.3738E-04  0.4124E-06  0.1112E-02  0.4860E-02 -0.4574E+02
   -0.849995   14.92637  0.0000E+00  0.3587E-04  0.3571E-06  0.1155E-02  0.4323E-02  0.2591E+02
   -0.892496   14.92999  0.0000E+00  0.3443E-04  0.3104E-06  0.1256E-02  0.3789E-02  0.3726E+02
   -0.934997   14.93321  0.0000E+00  0.3318E-04  0.2731E-06  0.1299E-02  0.3393E-02  0.2892E+02
   -0.977498   14.93593  0.0000E+00  0.3206E-04  0.2460E-06  0.1316E-02  0.3063E-02  0.7851E+01
   -1.019999   14.93881  0.0000E+00  0.3098E-04  0.2247E-06  0.1298E-02  0.2779E-02  0.1894E+03
   -1.062500   14.94165  0.0000E+00  0.2991E-04  0.2071E-06  0.1323E-02  0.2487E-02  0.9066E+01
   -1.105001   14.94449  0.0000E+00  0.2899E-04  0.1947E-06  0.1347E-02  0.2234E-02  0.1601E+02
   -1.147502   14.94728  0.0000E+00  0.2812E-04  0.1866E-06  0.1192E-02  0.2040E-02  0.1554E+02
   -1.190002   14.95036  0.0000E+00  0.2706E-04  0.1811E-06  0.1092E-02  0.1777E-02  0.7849E+01
   -1.232503   14.95345  0.0000E+00  0.2596E-04  0.1801E-06  0.1059E-02  0.1505E-02  0.3764E+01
   -1.275003   14.95686  0.0000E+00  0.2491E-04  0.1851E-06  0.9984E-03  0.1284E-02  0.3954E+02
   -1.317503   14.96076  0.0000E+00  0.2382E-04  0.1989E-06  0.9347E-03  0.1097E-02  0.8135E+03
   -1.360003   14.96538  0.0000E+00  0.2260E-04  0.2297E-06  0.8543E-03  0.9336E-03  0.3682E+03
   -1.402502   14.97206  0.0000E+00  0.2112E-04  0.2940E-06  0.7918E-03  0.7942E-03  0.1405E+04
   -1.445001   14.97998  0.0000E+00  0.1946E-04  0.4223E-06  0.6959E-03  0.6671E-03  0.7352E+05
   -1.487500   14.99340  0.0000E+00  0.1798E-04  0.6305E-06  0.6288E-03  0.5229E-03  0.4731E+05
   -1.529999   15.00298  0.0000E+00  0.1643E-04  0.1208E-05  0.4827E-03  0.3859E-03 -0.8360E+04
   -1.572497   15.07007  0.0000E+00  0.1523E-04  0.2312E-05  0.5331E-03  0.2401E-03  0.2275E+10
   -1.614995   15.00724  0.0000E+00  0.1303E-04  0.7264E-05  0.2937E-03  0.1947E-03 -0.6189E+10
   -1.657493   15.30059  0.0000E+00  0.1023E-04  0.1301E-04  0.3385E-03  0.1213E-03 -0.3120E+06
   -1.699990   15.21089  0.0000E+00  0.0000E+00  0.0000E+00  0.0000E+00  0.2558E-03  0.0000E+00
