 1 - depth, m
 2 - temperature, C
 3 - salinity, kg/kg
 4 - turbulent kinetic energy, m**2/s**2
 5 - dissipation rate, m**2/s**3
 6 - kinematic heat conductance, m**2/s
 7 - modulus of horizontal velocity, m/s
 8 - Richardson number, n/d
   -0.000000   12.08589  0.0000E+00  0.5811E-03  0.1458E-02  0.9714E-04  0.2966E+00  0.6279E-01
   -0.042497   12.31362  0.0000E+00  0.2932E-03  0.5118E-03  0.1974E-03  0.6943E-01  0.3765E-01
   -0.084995   12.39700  0.0000E+00  0.1927E-03  0.1757E-03  0.1892E-03  0.3965E-01  0.3220E+01
   -0.127493   12.44318  0.0000E+00  0.1431E-03  0.8106E-04  0.2006E-03  0.3029E-01  0.3353E+01
   -0.169991   12.47116  0.0000E+00  0.1116E-03  0.4284E-04  0.2197E-03  0.2441E-01 -0.1513E+02
   -0.212490   12.49539  0.0000E+00  0.8831E-04  0.2277E-04  0.2711E-03  0.1993E-01  0.3136E+03
   -0.254989   12.51272  0.0000E+00  0.7151E-04  0.1219E-04  0.3210E-03  0.1660E-01  0.2780E+03
   -0.297488   12.52837  0.0000E+00  0.5945E-04  0.6813E-05  0.3775E-03  0.1425E-01  0.1228E+02
   -0.339988   12.54118  0.0000E+00  0.5078E-04  0.3898E-05  0.4305E-03  0.1244E-01  0.2346E+02
   -0.382487   12.55140  0.0000E+00  0.4459E-04  0.2336E-05  0.4890E-03  0.1087E-01  0.3458E+02
   -0.424988   12.55995  0.0000E+00  0.4020E-04  0.1549E-05  0.5326E-03  0.9622E-02  0.8093E+02
   -0.467488   12.56704  0.0000E+00  0.3695E-04  0.1064E-05  0.5851E-03  0.8461E-02  0.4917E+02
   -0.509988   12.57368  0.0000E+00  0.3459E-04  0.7709E-06  0.6553E-03  0.7430E-02  0.4519E+03
   -0.552489   12.57878  0.0000E+00  0.3283E-04  0.5892E-06  0.7011E-03  0.6525E-02  0.5014E+02
   -0.594990   12.58382  0.0000E+00  0.3145E-04  0.4675E-06  0.7629E-03  0.5678E-02  0.2183E+03
   -0.637491   12.58798  0.0000E+00  0.3032E-04  0.3842E-06  0.8231E-03  0.4924E-02  0.2636E+03
   -0.679992   12.59199  0.0000E+00  0.2936E-04  0.3239E-06  0.9002E-03  0.4262E-02  0.1382E+02
   -0.722493   12.59553  0.0000E+00  0.2855E-04  0.2793E-06  0.9614E-03  0.3704E-02  0.1226E+02
   -0.764994   12.59898  0.0000E+00  0.2781E-04  0.2436E-06  0.1001E-02  0.3229E-02  0.1280E+02
   -0.807495   12.60238  0.0000E+00  0.2706E-04  0.2134E-06  0.1062E-02  0.2809E-02  0.5045E+01
   -0.849996   12.60569  0.0000E+00  0.2635E-04  0.1895E-06  0.1115E-02  0.2457E-02  0.3264E+01
   -0.892498   12.60891  0.0000E+00  0.2565E-04  0.1699E-06  0.1163E-02  0.2151E-02  0.3456E+01
   -0.934999   12.61209  0.0000E+00  0.2493E-04  0.1536E-06  0.1194E-02  0.1891E-02  0.3322E+01
   -0.977500   12.61521  0.0000E+00  0.2428E-04  0.1420E-06  0.1269E-02  0.1651E-02  0.4153E+01
   -1.020001   12.61819  0.0000E+00  0.2371E-04  0.1345E-06  0.1276E-02  0.1482E-02  0.4350E+01
   -1.062502   12.62116  0.0000E+00  0.2310E-04  0.1286E-06  0.1203E-02  0.1336E-02  0.3270E+01
   -1.105003   12.62427  0.0000E+00  0.2247E-04  0.1246E-06  0.1231E-02  0.1159E-02  0.4048E+01
   -1.147504   12.62732  0.0000E+00  0.2193E-04  0.1238E-06  0.1182E-02  0.1039E-02  0.4809E+01
   -1.190004   12.63040  0.0000E+00  0.2138E-04  0.1253E-06  0.1082E-02  0.9295E-03  0.4309E+01
   -1.232505   12.63363  0.0000E+00  0.2074E-04  0.1296E-06  0.1028E-02  0.7905E-03  0.5831E+01
   -1.275005   12.63719  0.0000E+00  0.2008E-04  0.1394E-06  0.9602E-03  0.6776E-03  0.9202E+01
   -1.317505   12.64170  0.0000E+00  0.1935E-04  0.1570E-06  0.9262E-03  0.5784E-03 -0.1319E+03
   -1.360005   12.64722  0.0000E+00  0.1850E-04  0.1895E-06  0.8436E-03  0.4971E-03 -0.6948E+04
   -1.402505   12.65530  0.0000E+00  0.1744E-04  0.2483E-06  0.7619E-03  0.4271E-03  0.1708E+05
   -1.445004   12.66493  0.0000E+00  0.1621E-04  0.3535E-06  0.6720E-03  0.3590E-03  0.6858E+05
   -1.487503   12.67988  0.0000E+00  0.1516E-04  0.5228E-06  0.5848E-03  0.2801E-03  0.7550E+05
   -1.530002   12.69185  0.0000E+00  0.1408E-04  0.9924E-06  0.4816E-03  0.2076E-03  0.3360E+05
   -1.572500   12.76765  0.0000E+00  0.1322E-04  0.1765E-05  0.5250E-03  0.1338E-03  0.2195E+10
   -1.614998   12.69088  0.0000E+00  0.1151E-04  0.5270E-05  0.2872E-03  0.1097E-03 -0.5333E+10
   -1.657495   13.04092  0.0000E+00  0.9022E-05  0.1000E-04  0.3053E-03  0.6942E-04  0.3684E+06
   -1.699993   12.95143  0.0000E+00  0.0000E+00  0.0000E+00  0.0000E+00  0.1433E-03  0.0000E+00
