 1 - depth, m
 2 - temperature, C
 3 - salinity, kg/kg
 4 - turbulent kinetic energy, m**2/s**2
 5 - dissipation rate, m**2/s**3
 6 - kinematic heat conductance, m**2/s
 7 - modulus of horizontal velocity, m/s
 8 - Richardson number, n/d
   -0.000000    7.20800  0.0000E+00  0.6714E-02  0.2363E+00  0.2955E-03  0.1798E+01  0.4036E-02
   -0.042498    7.51313  0.0000E+00  0.3494E-02  0.1609E+00  0.5769E-03  0.3898E+00  0.5950E-02
   -0.084996    7.73683  0.0000E+00  0.2070E-02  0.4793E-01  0.7517E-03  0.1913E+00  0.1009E+01
   -0.127494    7.80169  0.0000E+00  0.1532E-02  0.3160E-01  0.8433E-03  0.1354E+00  0.1866E+00
   -0.169993    7.83363  0.0000E+00  0.1237E-02  0.2381E-01  0.8012E-03  0.1068E+00 -0.5808E+00
   -0.212492    7.85329  0.0000E+00  0.1017E-02  0.1803E-01  0.7745E-03  0.8694E-01  0.2350E+01
   -0.254992    7.87248  0.0000E+00  0.8678E-03  0.1465E-01  0.7924E-03  0.7339E-01 -0.2449E+00
   -0.297492    7.88461  0.0000E+00  0.7380E-03  0.1198E-01  0.7816E-03  0.6594E-01  0.2969E+01
   -0.339992    7.89368  0.0000E+00  0.6415E-03  0.9837E-02  0.7659E-03  0.6128E-01 -0.4721E-01
   -0.382492    7.90169  0.0000E+00  0.5574E-03  0.8031E-02  0.7740E-03  0.5642E-01 -0.2137E+01
   -0.424993    7.90854  0.0000E+00  0.4891E-03  0.6510E-02  0.7733E-03  0.5392E-01  0.8367E+02
   -0.467494    7.91433  0.0000E+00  0.4394E-03  0.5225E-02  0.7540E-03  0.4937E-01  0.5333E+01
   -0.509995    7.92152  0.0000E+00  0.3941E-03  0.4109E-02  0.7603E-03  0.4402E-01  0.3268E+02
   -0.552496    7.92892  0.0000E+00  0.3578E-03  0.3187E-02  0.7669E-03  0.3995E-01  0.2233E+01
   -0.594997    7.93818  0.0000E+00  0.3267E-03  0.2420E-02  0.7944E-03  0.3581E-01  0.1909E+02
   -0.637499    7.95151  0.0000E+00  0.2997E-03  0.1798E-02  0.8345E-03  0.3211E-01  0.2620E+02
   -0.680000    7.95861  0.0000E+00  0.2764E-03  0.1310E-02  0.8634E-03  0.2962E-01  0.9115E+02
   -0.722502    7.96271  0.0000E+00  0.2549E-03  0.9385E-03  0.9010E-03  0.2735E-01  0.1899E+02
   -0.765003    7.97042  0.0000E+00  0.2364E-03  0.6583E-03  0.9495E-03  0.2548E-01  0.1668E+03
   -0.807505    7.97391  0.0000E+00  0.2193E-03  0.4475E-03  0.1001E-02  0.2423E-01  0.5031E+03
   -0.850007    7.98172  0.0000E+00  0.2044E-03  0.3008E-03  0.1044E-02  0.2305E-01  0.5297E+03
   -0.892509    7.98518  0.0000E+00  0.1909E-03  0.1984E-03  0.1082E-02  0.2193E-01  0.6192E+05
   -0.935010    7.99339  0.0000E+00  0.1786E-03  0.1371E-03  0.1113E-02  0.2099E-01  0.5000E+03
   -0.977512    7.99614  0.0000E+00  0.1683E-03  0.9534E-04  0.1146E-02  0.1993E-01  0.8057E+03
   -1.020014    8.00527  0.0000E+00  0.1585E-03  0.6853E-04  0.1210E-02  0.1903E-01  0.1761E+04
   -1.062515    8.00731  0.0000E+00  0.1495E-03  0.5007E-04  0.1190E-02  0.1806E-01  0.1470E+04
   -1.105017    8.01601  0.0000E+00  0.1408E-03  0.3619E-04  0.1189E-02  0.1714E-01  0.1068E+04
   -1.147518    8.01895  0.0000E+00  0.1332E-03  0.2679E-04  0.1172E-02  0.1621E-01  0.3228E+05
   -1.190019    8.02666  0.0000E+00  0.1263E-03  0.2030E-04  0.1153E-02  0.1497E-01  0.5783E+03
   -1.232520    8.03050  0.0000E+00  0.1197E-03  0.1579E-04  0.1144E-02  0.1371E-01  0.1892E+04
   -1.275021    8.03718  0.0000E+00  0.1134E-03  0.1257E-04  0.1107E-02  0.1267E-01  0.6985E+04
   -1.317522    8.04238  0.0000E+00  0.1070E-03  0.1029E-04  0.1061E-02  0.1167E-01  0.9128E+04
   -1.360022    8.05041  0.0000E+00  0.1003E-03  0.8753E-05  0.1001E-02  0.1058E-01  0.3069E+06
   -1.402522    8.05863  0.0000E+00  0.9366E-04  0.7961E-05  0.9420E-03  0.9790E-02 -0.4167E+05
   -1.445022    8.06751  0.0000E+00  0.8738E-04  0.7959E-05  0.8197E-03  0.9052E-02  0.1327E+08
   -1.487521    8.07975  0.0000E+00  0.8085E-04  0.8818E-05  0.7030E-03  0.7940E-02  0.3567E+05
   -1.530021    8.09515  0.0000E+00  0.7353E-04  0.1130E-04  0.6167E-03  0.6212E-02  0.1005E+08
   -1.572520    8.12262  0.0000E+00  0.6608E-04  0.1768E-04  0.6307E-03  0.4764E-02 -0.1480E+09
   -1.615018    8.15492  0.0000E+00  0.5541E-04  0.4168E-04  0.3862E-03  0.4093E-02 -0.2854E+08
   -1.657516    8.34136  0.0000E+00  0.4061E-04  0.8661E-04  0.2793E-03  0.3190E-02 -0.1408E+09
   -1.700014    8.45897  0.0000E+00  0.0000E+00  0.0000E+00  0.0000E+00  0.5372E-02  0.0000E+00
