 1 - depth, m
 2 - temperature, C
 3 - salinity, kg/kg
 4 - turbulent kinetic energy, m**2/s**2
 5 - dissipation rate, m**2/s**3
 6 - kinematic heat conductance, m**2/s
 7 - modulus of horizontal velocity, m/s
 8 - Richardson number, n/d
   -0.000000   11.35177  0.0000E+00  0.8059E-03  0.4083E-02  0.1093E-03  0.3746E+00  0.1962E-01
   -0.042497   11.62753  0.0000E+00  0.4034E-03  0.1735E-02  0.2078E-03  0.8172E-01  0.1114E-01
   -0.084995   11.75631  0.0000E+00  0.2664E-03  0.6640E-03  0.2253E-03  0.4678E-01 -0.1945E-01
   -0.127493   11.81000  0.0000E+00  0.1954E-03  0.3603E-03  0.2281E-03  0.3575E-01  0.4508E+01
   -0.169991   11.83881  0.0000E+00  0.1489E-03  0.2201E-03  0.2311E-03  0.2877E-01  0.1703E+01
   -0.212490   11.86060  0.0000E+00  0.1150E-03  0.1413E-03  0.2620E-03  0.2331E-01  0.1232E+02
   -0.254989   11.88176  0.0000E+00  0.9098E-04  0.9191E-04  0.3104E-03  0.1920E-01  0.2458E+02
   -0.297488   11.89942  0.0000E+00  0.7346E-04  0.5862E-04  0.3655E-03  0.1646E-01  0.7885E+02
   -0.339988   11.91370  0.0000E+00  0.6087E-04  0.3608E-04  0.4038E-03  0.1439E-01  0.2831E+02
   -0.382487   11.92590  0.0000E+00  0.5182E-04  0.2084E-04  0.4533E-03  0.1243E-01  0.3218E+02
   -0.424987   11.93618  0.0000E+00  0.4544E-04  0.1148E-04  0.4930E-03  0.1095E-01  0.3923E+02
   -0.467488   11.94499  0.0000E+00  0.4088E-04  0.6079E-05  0.5478E-03  0.9524E-02  0.7967E+04
   -0.509988   11.95340  0.0000E+00  0.3754E-04  0.3518E-05  0.6127E-03  0.8282E-02  0.1339E+03
   -0.552489   11.95935  0.0000E+00  0.3504E-04  0.2053E-05  0.6680E-03  0.7235E-02  0.5852E+02
   -0.594990   11.96520  0.0000E+00  0.3311E-04  0.1248E-05  0.7294E-03  0.6282E-02  0.7550E+03
   -0.637491   11.97000  0.0000E+00  0.3157E-04  0.8061E-06  0.7936E-03  0.5453E-02  0.8922E+02
   -0.679992   11.97456  0.0000E+00  0.3029E-04  0.5312E-06  0.8485E-03  0.4739E-02  0.3725E+03
   -0.722493   11.97855  0.0000E+00  0.2917E-04  0.3837E-06  0.9088E-03  0.4105E-02  0.1437E+03
   -0.764994   11.98258  0.0000E+00  0.2819E-04  0.2997E-06  0.9594E-03  0.3576E-02  0.1634E+02
   -0.807495   11.98631  0.0000E+00  0.2727E-04  0.2463E-06  0.1003E-02  0.3130E-02  0.6283E+01
   -0.849996   11.99011  0.0000E+00  0.2642E-04  0.2104E-06  0.1046E-02  0.2742E-02  0.3622E+02
   -0.892497   11.99367  0.0000E+00  0.2562E-04  0.1842E-06  0.1082E-02  0.2410E-02  0.1817E+02
   -0.934999   11.99730  0.0000E+00  0.2487E-04  0.1645E-06  0.1108E-02  0.2124E-02  0.6826E+01
   -0.977500   12.00079  0.0000E+00  0.2415E-04  0.1495E-06  0.1122E-02  0.1871E-02  0.7960E+01
   -1.020001   12.00430  0.0000E+00  0.2345E-04  0.1381E-06  0.1126E-02  0.1650E-02  0.6220E+01
   -1.062502   12.00775  0.0000E+00  0.2276E-04  0.1298E-06  0.1116E-02  0.1452E-02  0.8786E+01
   -1.105003   12.01124  0.0000E+00  0.2207E-04  0.1243E-06  0.1093E-02  0.1274E-02  0.7363E+01
   -1.147504   12.01477  0.0000E+00  0.2140E-04  0.1217E-06  0.1062E-02  0.1109E-02  0.7887E+01
   -1.190004   12.01834  0.0000E+00  0.2077E-04  0.1220E-06  0.1015E-02  0.9539E-03  0.9307E+01
   -1.232505   12.02197  0.0000E+00  0.2015E-04  0.1256E-06  0.9693E-03  0.8103E-03  0.1223E+02
   -1.275005   12.02596  0.0000E+00  0.1951E-04  0.1343E-06  0.9190E-03  0.6883E-03 -0.9528E+02
   -1.317505   12.03073  0.0000E+00  0.1882E-04  0.1515E-06  0.8760E-03  0.5856E-03  0.5886E+04
   -1.360005   12.03677  0.0000E+00  0.1800E-04  0.1855E-06  0.8004E-03  0.4991E-03  0.1176E+04
   -1.402504   12.04584  0.0000E+00  0.1699E-04  0.2432E-06  0.7285E-03  0.4252E-03 -0.8987E+04
   -1.445004   12.05544  0.0000E+00  0.1581E-04  0.3438E-06  0.6369E-03  0.3592E-03  0.3022E+05
   -1.487503   12.07319  0.0000E+00  0.1478E-04  0.5015E-06  0.5787E-03  0.2773E-03  0.1997E+05
   -1.530001   12.08251  0.0000E+00  0.1370E-04  0.9168E-06  0.4653E-03  0.2067E-03 -0.1030E+06
   -1.572500   12.17192  0.0000E+00  0.1284E-04  0.1721E-05  0.4953E-03  0.1293E-03  0.4515E+10
   -1.614998   12.08910  0.0000E+00  0.1114E-04  0.5225E-05  0.2780E-03  0.1071E-03 -0.2659E+10
   -1.657495   12.46722  0.0000E+00  0.8775E-05  0.9965E-05  0.2985E-03  0.6512E-04 -0.6991E+07
   -1.699992   12.37323  0.0000E+00  0.0000E+00  0.0000E+00  0.0000E+00  0.1450E-03  0.0000E+00
