 1 - depth, m
 2 - temperature, C
 3 - salinity, kg/kg
 4 - turbulent kinetic energy, m**2/s**2
 5 - dissipation rate, m**2/s**3
 6 - kinematic heat conductance, m**2/s
 7 - modulus of horizontal velocity, m/s
 8 - Richardson number, n/d
   -0.000000   19.17806  0.0000E+00  0.8791E-04  0.3653E-04  0.6261E-04  0.7444E-01 -0.1631E-01
   -0.042497   19.29766  0.0000E+00  0.4926E-04  0.1096E-04  0.7503E-04  0.2246E-01  0.9189E-01
   -0.084995   19.33101  0.0000E+00  0.3568E-04  0.4412E-05  0.1005E-03  0.1460E-01  0.4954E+01
   -0.127494   19.34974  0.0000E+00  0.2809E-04  0.2112E-05  0.1415E-03  0.1090E-01  0.1511E+02
   -0.169992   19.36266  0.0000E+00  0.2330E-04  0.1058E-05  0.2251E-03  0.8455E-02  0.1361E+04
   -0.212491   19.37180  0.0000E+00  0.2023E-04  0.5965E-06  0.3158E-03  0.6758E-02  0.1949E+03
   -0.254990   19.37839  0.0000E+00  0.1833E-04  0.3653E-06  0.4049E-03  0.5552E-02  0.6947E+02
   -0.297490   19.38321  0.0000E+00  0.1725E-04  0.2478E-06  0.4791E-03  0.4682E-02  0.1717E+02
   -0.339990   19.38683  0.0000E+00  0.1675E-04  0.1837E-06  0.5404E-03  0.4014E-02  0.1250E+02
   -0.382490   19.38991  0.0000E+00  0.1660E-04  0.1446E-06  0.6039E-03  0.3457E-02  0.5297E+01
   -0.424990   19.39250  0.0000E+00  0.1667E-04  0.1198E-06  0.6614E-03  0.2996E-02  0.2414E+01
   -0.467491   19.39483  0.0000E+00  0.1689E-04  0.1029E-06  0.7072E-03  0.2583E-02  0.1136E+02
   -0.509991   19.39696  0.0000E+00  0.1715E-04  0.9126E-07  0.7901E-03  0.2194E-02  0.3251E+01
   -0.552492   19.39884  0.0000E+00  0.1745E-04  0.8290E-07  0.8579E-03  0.1874E-02  0.2479E+01
   -0.594993   19.40056  0.0000E+00  0.1767E-04  0.7754E-07  0.1069E-02  0.1570E-02  0.1593E+01
   -0.637495   19.40203  0.0000E+00  0.1787E-04  0.7358E-07  0.1188E-02  0.1357E-02  0.1744E+01
   -0.679996   19.40337  0.0000E+00  0.1807E-04  0.7075E-07  0.9948E-03  0.1186E-02  0.1607E+01
   -0.722497   19.40488  0.0000E+00  0.1833E-04  0.6875E-07  0.1135E-02  0.9849E-03  0.1562E+01
   -0.764999   19.40626  0.0000E+00  0.1853E-04  0.6773E-07  0.1239E-02  0.8321E-03  0.1464E+01
   -0.807500   19.40758  0.0000E+00  0.1867E-04  0.6746E-07  0.1344E-02  0.7142E-03  0.1422E+01
   -0.850002   19.40885  0.0000E+00  0.1874E-04  0.6778E-07  0.1417E-02  0.6218E-03  0.1381E+01
   -0.892503   19.41007  0.0000E+00  0.1876E-04  0.6854E-07  0.1433E-02  0.5481E-03  0.1306E+01
   -0.935005   19.41131  0.0000E+00  0.1874E-04  0.6932E-07  0.1642E-02  0.4880E-03  0.1694E+01
   -0.977506   19.41240  0.0000E+00  0.1869E-04  0.7032E-07  0.1418E-02  0.4633E-03  0.4993E+01
   -1.020007   19.41370  0.0000E+00  0.1860E-04  0.7179E-07  0.1455E-02  0.4373E-03  0.1306E+01
   -1.062509   19.41496  0.0000E+00  0.1845E-04  0.7412E-07  0.1380E-02  0.4010E-03  0.1262E+01
   -1.105010   19.41628  0.0000E+00  0.1827E-04  0.7696E-07  0.1326E-02  0.3695E-03  0.1314E+01
   -1.147511   19.41766  0.0000E+00  0.1807E-04  0.8062E-07  0.1267E-02  0.3406E-03  0.1549E+01
   -1.190012   19.41908  0.0000E+00  0.1784E-04  0.8537E-07  0.1209E-02  0.3127E-03  0.1650E+01
   -1.232513   19.42051  0.0000E+00  0.1757E-04  0.9234E-07  0.1142E-02  0.2859E-03  0.2108E+01
   -1.275013   19.42220  0.0000E+00  0.1724E-04  0.1026E-06  0.1066E-02  0.2595E-03  0.3793E+03
   -1.317513   19.42413  0.0000E+00  0.1683E-04  0.1183E-06  0.9948E-03  0.2343E-03  0.3614E+03
   -1.360014   19.42689  0.0000E+00  0.1628E-04  0.1445E-06  0.9108E-03  0.2081E-03  0.6523E+04
   -1.402513   19.43024  0.0000E+00  0.1555E-04  0.1857E-06  0.8439E-03  0.1835E-03  0.4681E+03
   -1.445013   19.43508  0.0000E+00  0.1466E-04  0.2600E-06  0.6950E-03  0.1583E-03  0.8410E+04
   -1.487512   19.44147  0.0000E+00  0.1382E-04  0.3663E-06  0.6224E-03  0.1273E-03  0.9229E+05
   -1.530011   19.44863  0.0000E+00  0.1286E-04  0.6734E-06  0.5054E-03  0.9601E-04  0.2288E+05
   -1.572510   19.48119  0.0000E+00  0.1213E-04  0.1153E-05  0.5402E-03  0.6410E-04  0.1805E+11
   -1.615008   19.45278  0.0000E+00  0.1057E-04  0.3770E-05  0.2642E-03  0.5277E-04 -0.3094E+11
   -1.657506   19.64223  0.0000E+00  0.8398E-05  0.7151E-05  0.2934E-03  0.3312E-04 -0.1644E+06
   -1.700003   19.60610  0.0000E+00  0.0000E+00  0.0000E+00  0.0000E+00  0.6586E-04  0.0000E+00
