 1 - depth, m
 2 - temperature, C
 3 - salinity, kg/kg
 4 - turbulent kinetic energy, m**2/s**2
 5 - dissipation rate, m**2/s**3
 6 - kinematic heat conductance, m**2/s
 7 - modulus of horizontal velocity, m/s
 8 - Richardson number, n/d
   -0.000000   11.98760  0.0000E+00  0.2052E-03  0.1363E-03  0.7294E-04  0.1371E+00  0.3849E-02
   -0.042497   12.20367  0.0000E+00  0.1087E-03  0.3666E-04  0.1229E-03  0.3236E-01 -0.3194E+00
   -0.084995   12.25528  0.0000E+00  0.7662E-04  0.1617E-04  0.1388E-03  0.2079E-01 -0.1542E+00
   -0.127493   12.28601  0.0000E+00  0.5844E-04  0.8411E-05  0.1596E-03  0.1623E-01  0.1368E+02
   -0.169991   12.30773  0.0000E+00  0.4565E-04  0.4498E-05  0.1958E-03  0.1304E-01  0.2872E+03
   -0.212490   12.32476  0.0000E+00  0.3640E-04  0.2452E-05  0.2411E-03  0.1057E-01  0.4850E+02
   -0.254989   12.33903  0.0000E+00  0.2984E-04  0.1359E-05  0.2985E-03  0.8681E-02  0.1508E+03
   -0.297488   12.35107  0.0000E+00  0.2539E-04  0.7902E-06  0.3606E-03  0.7274E-02  0.3056E+02
   -0.339988   12.36079  0.0000E+00  0.2248E-04  0.4914E-06  0.4249E-03  0.6193E-02  0.3474E+02
   -0.382488   12.36870  0.0000E+00  0.2068E-04  0.3319E-06  0.4900E-03  0.5314E-02  0.5533E+02
   -0.424988   12.37502  0.0000E+00  0.1963E-04  0.2432E-06  0.5474E-03  0.4606E-02  0.5314E+02
   -0.467488   12.38035  0.0000E+00  0.1908E-04  0.1899E-06  0.6039E-03  0.3985E-02  0.8318E+01
   -0.509989   12.38485  0.0000E+00  0.1885E-04  0.1565E-06  0.6569E-03  0.3430E-02  0.2885E+01
   -0.552490   12.38887  0.0000E+00  0.1882E-04  0.1338E-06  0.7056E-03  0.2931E-02  0.2394E+01
   -0.594990   12.39260  0.0000E+00  0.1889E-04  0.1176E-06  0.7590E-03  0.2474E-02  0.2237E+01
   -0.637491   12.39607  0.0000E+00  0.1903E-04  0.1057E-06  0.8230E-03  0.2067E-02  0.1987E+01
   -0.679992   12.39939  0.0000E+00  0.1921E-04  0.9695E-07  0.8951E-03  0.1721E-02  0.1821E+01
   -0.722494   12.40253  0.0000E+00  0.1940E-04  0.9079E-07  0.9766E-03  0.1432E-02  0.1659E+01
   -0.764995   12.40555  0.0000E+00  0.1956E-04  0.8662E-07  0.1068E-02  0.1200E-02  0.1527E+01
   -0.807496   12.40845  0.0000E+00  0.1969E-04  0.8400E-07  0.1160E-02  0.1021E-02  0.1467E+01
   -0.849997   12.41126  0.0000E+00  0.1975E-04  0.8265E-07  0.1244E-02  0.8802E-03  0.1420E+01
   -0.892499   12.41394  0.0000E+00  0.1977E-04  0.8228E-07  0.1308E-02  0.7688E-03  0.1372E+01
   -0.935000   12.41657  0.0000E+00  0.1973E-04  0.8270E-07  0.1341E-02  0.6804E-03  0.1357E+01
   -0.977501   12.41918  0.0000E+00  0.1964E-04  0.8379E-07  0.1339E-02  0.6084E-03  0.1332E+01
   -1.020002   12.42184  0.0000E+00  0.1951E-04  0.8550E-07  0.1313E-02  0.5493E-03  0.1353E+01
   -1.062503   12.42458  0.0000E+00  0.1934E-04  0.8789E-07  0.1272E-02  0.4993E-03  0.1403E+01
   -1.105004   12.42743  0.0000E+00  0.1914E-04  0.9111E-07  0.1221E-02  0.4559E-03  0.1495E+01
   -1.147505   12.43042  0.0000E+00  0.1890E-04  0.9542E-07  0.1171E-02  0.4167E-03  0.1730E+01
   -1.190006   12.43352  0.0000E+00  0.1863E-04  0.1013E-06  0.1110E-02  0.3795E-03  0.2345E+01
   -1.232506   12.43673  0.0000E+00  0.1831E-04  0.1102E-06  0.1051E-02  0.3439E-03 -0.2606E+03
   -1.275007   12.44048  0.0000E+00  0.1791E-04  0.1241E-06  0.9772E-03  0.3102E-03 -0.1176E+03
   -1.317507   12.44538  0.0000E+00  0.1739E-04  0.1454E-06  0.9337E-03  0.2767E-03 -0.1362E+03
   -1.360007   12.45166  0.0000E+00  0.1671E-04  0.1810E-06  0.8376E-03  0.2445E-03 -0.8528E+02
   -1.402506   12.46119  0.0000E+00  0.1583E-04  0.2383E-06  0.7468E-03  0.2122E-03  0.1315E+04
   -1.445006   12.47054  0.0000E+00  0.1478E-04  0.3330E-06  0.6584E-03  0.1823E-03  0.3811E+05
   -1.487505   12.48735  0.0000E+00  0.1387E-04  0.4834E-06  0.5752E-03  0.1430E-03  0.2358E+06
   -1.530003   12.50008  0.0000E+00  0.1288E-04  0.9670E-06  0.4715E-03  0.1064E-03 -0.1551E+06
   -1.572502   12.59134  0.0000E+00  0.1214E-04  0.1664E-05  0.5024E-03  0.6861E-04  0.1872E+12
   -1.615000   12.49939  0.0000E+00  0.1060E-04  0.5051E-05  0.2652E-03  0.5683E-04 -0.1607E+10
   -1.657497   12.89041  0.0000E+00  0.8437E-05  0.9512E-05  0.3213E-03  0.3504E-04 -0.2100E+06
   -1.699995   12.77879  0.0000E+00  0.0000E+00  0.0000E+00  0.0000E+00  0.7473E-04  0.0000E+00
