 1 - depth, m
 2 - temperature, C
 3 - salinity, kg/kg
 4 - turbulent kinetic energy, m**2/s**2
 5 - dissipation rate, m**2/s**3
 6 - kinematic heat conductance, m**2/s
 7 - modulus of horizontal velocity, m/s
 8 - Richardson number, n/d
   -0.000000   -0.00055  0.0000E+00  0.5489E-03  0.1465E-02  0.1174E-03  0.3365E+00  0.3472E-01
   -0.042507    0.09848  0.0000E+00  0.3084E-03  0.6394E-03  0.1839E-03  0.8570E-01  0.3507E-01
   -0.085014    0.16324  0.0000E+00  0.2082E-03  0.2724E-03  0.1778E-03  0.5247E-01  0.2037E+00
   -0.127522    0.22074  0.0000E+00  0.1550E-03  0.1491E-03  0.1564E-03  0.4136E-01  0.2132E+00
   -0.170030    0.28126  0.0000E+00  0.1184E-03  0.8163E-04  0.1400E-03  0.3382E-01  0.2238E+00
   -0.212539    0.35822  0.0000E+00  0.9061E-04  0.4000E-04  0.1282E-03  0.2737E-01  0.8401E+00
   -0.255047    0.50076  0.0000E+00  0.6961E-04  0.1933E-04  0.1182E-03  0.2212E-01  0.1411E+02
   -0.297556    0.89995  0.0000E+00  0.5438E-04  0.8349E-05  0.1238E-03  0.1847E-01  0.3218E+03
   -0.340066    1.03667  0.0000E+00  0.4346E-04  0.3720E-05  0.1281E-03  0.1602E-01  0.2475E+03
   -0.382575    1.14941  0.0000E+00  0.3523E-04  0.1894E-05  0.1269E-03  0.1386E-01  0.1286E+03
   -0.425085    1.27893  0.0000E+00  0.2905E-04  0.1174E-05  0.1248E-03  0.1224E-01  0.1969E+03
   -0.467595    1.46112  0.0000E+00  0.2419E-04  0.7879E-06  0.1248E-03  0.1038E-01  0.1985E+02
   -0.510105    1.72882  0.0000E+00  0.2033E-04  0.5660E-06  0.1343E-03  0.8496E-02  0.1321E+02
   -0.552616    1.92912  0.0000E+00  0.1710E-04  0.4201E-06  0.1445E-03  0.6914E-02  0.3545E+02
   -0.595126    2.03939  0.0000E+00  0.1422E-04  0.3142E-06  0.1508E-03  0.5534E-02  0.3281E+03
   -0.637637    2.15583  0.0000E+00  0.1161E-04  0.2326E-06  0.1574E-03  0.4330E-02  0.5965E+04
   -0.680148    2.29636  0.0000E+00  0.9330E-05  0.1708E-06  0.1715E-03  0.3382E-02  0.2084E+06
   -0.722658    2.44909  0.0000E+00  0.7345E-05  0.1218E-06  0.1805E-03  0.2566E-02  0.4672E+07
   -0.765169    2.64255  0.0000E+00  0.5670E-05  0.8449E-07  0.2023E-03  0.1920E-02  0.1324E+11
   -0.807680    2.88109  0.0000E+00  0.4364E-05  0.5618E-07  0.2277E-03  0.1408E-02  0.2000E+11
   -0.850191    3.26173  0.0000E+00  0.3550E-05  0.3532E-07  0.2608E-03  0.9204E-03  0.1313E+13
   -0.892702    3.70294  0.0000E+00  0.3126E-05  0.2224E-07  0.3161E-03  0.5699E-03  0.3384E+09
   -0.935213    4.02713  0.0000E+00  0.2953E-05  0.1539E-07  0.3626E-03  0.3681E-03  0.3052E+09
   -0.977724    4.17211  0.0000E+00  0.2873E-05  0.1151E-07  0.3954E-03  0.2578E-03  0.2786E+09
   -1.020235    4.24328  0.0000E+00  0.2846E-05  0.9241E-08  0.4184E-03  0.1915E-03  0.1646E+10
   -1.062746    4.28087  0.0000E+00  0.2852E-05  0.7949E-08  0.4352E-03  0.1452E-03  0.1130E+09
   -1.105256    4.30430  0.0000E+00  0.2877E-05  0.7225E-08  0.4482E-03  0.1135E-03  0.8480E+08
   -1.147767    4.32191  0.0000E+00  0.2911E-05  0.6849E-08  0.4582E-03  0.8917E-04  0.1165E+09
   -1.190277    4.33651  0.0000E+00  0.2950E-05  0.6690E-08  0.4632E-03  0.6922E-04  0.7868E+08
   -1.232788    4.34949  0.0000E+00  0.2994E-05  0.6673E-08  0.4637E-03  0.5327E-04  0.7744E+08
   -1.275298    4.36223  0.0000E+00  0.3041E-05  0.6772E-08  0.4600E-03  0.4156E-04  0.1745E+09
   -1.317807    4.37512  0.0000E+00  0.3092E-05  0.6984E-08  0.4513E-03  0.3292E-04  0.1826E+09
   -1.360317    4.38875  0.0000E+00  0.3146E-05  0.7329E-08  0.4358E-03  0.2618E-04  0.1727E+09
   -1.402826    4.40371  0.0000E+00  0.3200E-05  0.7845E-08  0.4186E-03  0.2105E-04  0.5491E+09
   -1.445335    4.42008  0.0000E+00  0.3248E-05  0.8531E-08  0.3928E-03  0.1685E-04  0.1599E+10
   -1.487844    4.43677  0.0000E+00  0.3295E-05  0.9468E-08  0.3645E-03  0.1313E-04  0.4709E+09
   -1.530352    4.45326  0.0000E+00  0.3350E-05  0.1105E-07  0.3178E-03  0.9717E-05  0.1081E+10
   -1.572861    4.47314  0.0000E+00  0.3422E-05  0.1466E-07  0.2560E-03  0.6840E-05  0.2383E+10
   -1.615368    4.51130  0.0000E+00  0.3412E-05  0.2751E-07  0.1478E-03  0.4981E-05  0.4422E+11
   -1.657876    4.61257  0.0000E+00  0.2637E-05  0.8932E-07  0.2901E-04  0.3275E-05 -0.2343E+14
   -1.700383    5.03983  0.0000E+00  0.0000E+00  0.0000E+00  0.0000E+00  0.3565E-05  0.0000E+00
