 1 - depth, m
 2 - temperature, C
 3 - salinity, kg/kg
 4 - turbulent kinetic energy, m**2/s**2
 5 - dissipation rate, m**2/s**3
 6 - kinematic heat conductance, m**2/s
 7 - modulus of horizontal velocity, m/s
 8 - Richardson number, n/d
   -0.000000    6.00008  0.0000E+00  0.2044E-02  0.1232E-01  0.1620E-03  0.6492E+00  0.8274E-03
   -0.042497    6.53823  0.0000E+00  0.9756E-03  0.4629E-02  0.3514E-03  0.1313E+00  0.8083E-01
   -0.084995    6.71919  0.0000E+00  0.6537E-03  0.2024E-02  0.4597E-03  0.7690E-01 -0.4136E+00
   -0.127493    6.80761  0.0000E+00  0.4884E-03  0.1164E-02  0.4199E-03  0.5962E-01 -0.3765E-01
   -0.169991    6.86278  0.0000E+00  0.3726E-03  0.6624E-03  0.3550E-03  0.4890E-01  0.2835E+00
   -0.212490    6.90006  0.0000E+00  0.2934E-03  0.4409E-03  0.3420E-03  0.4051E-01  0.1418E+02
   -0.254989    6.93189  0.0000E+00  0.2289E-03  0.2786E-03  0.3419E-03  0.3404E-01 -0.5969E+01
   -0.297488    6.96928  0.0000E+00  0.1839E-03  0.1814E-03  0.3585E-03  0.2898E-01  0.2842E+01
   -0.339987    6.99649  0.0000E+00  0.1516E-03  0.1161E-03  0.3764E-03  0.2560E-01  0.3078E+01
   -0.382487    7.01769  0.0000E+00  0.1267E-03  0.7130E-04  0.3983E-03  0.2244E-01  0.2127E+03
   -0.424987    7.03552  0.0000E+00  0.1078E-03  0.4202E-04  0.4110E-03  0.2029E-01  0.1735E+02
   -0.467487    7.05291  0.0000E+00  0.9321E-04  0.2368E-04  0.4418E-03  0.1774E-01  0.5611E+02
   -0.509988    7.06959  0.0000E+00  0.8194E-04  0.1308E-04  0.4773E-03  0.1533E-01  0.5741E+02
   -0.552488    7.08532  0.0000E+00  0.7323E-04  0.7602E-05  0.5180E-03  0.1334E-01  0.2981E+03
   -0.594989    7.09842  0.0000E+00  0.6626E-04  0.4598E-05  0.5789E-03  0.1157E-01  0.1063E+03
   -0.637490    7.11143  0.0000E+00  0.6040E-04  0.2997E-05  0.6549E-03  0.1010E-01  0.9495E+02
   -0.679991    7.11921  0.0000E+00  0.5547E-04  0.2069E-05  0.7121E-03  0.8972E-02  0.2300E+02
   -0.722492    7.12909  0.0000E+00  0.5128E-04  0.1484E-05  0.7830E-03  0.7987E-02  0.6812E+02
   -0.764993    7.13548  0.0000E+00  0.4758E-04  0.1126E-05  0.8473E-03  0.7169E-02  0.1032E+02
   -0.807494    7.14371  0.0000E+00  0.4426E-04  0.8821E-06  0.8943E-03  0.6488E-02  0.4791E+02
   -0.849996    7.14970  0.0000E+00  0.4130E-04  0.7126E-06  0.9336E-03  0.5888E-02  0.1209E+03
   -0.892497    7.15695  0.0000E+00  0.3867E-04  0.5897E-06  0.9769E-03  0.5346E-02  0.3568E+03
   -0.934998    7.16290  0.0000E+00  0.3637E-04  0.4977E-06  0.1002E-02  0.4876E-02  0.5195E+02
   -0.977499    7.16909  0.0000E+00  0.3431E-04  0.4253E-06  0.1036E-02  0.4434E-02  0.2598E+02
   -1.020000    7.17483  0.0000E+00  0.3247E-04  0.3677E-06  0.1063E-02  0.4036E-02  0.1759E+02
   -1.062501    7.18037  0.0000E+00  0.3079E-04  0.3208E-06  0.1047E-02  0.3678E-02  0.2204E+03
   -1.105002    7.18591  0.0000E+00  0.2923E-04  0.2824E-06  0.1036E-02  0.3328E-02  0.3692E+02
   -1.147503    7.19142  0.0000E+00  0.2779E-04  0.2518E-06  0.1015E-02  0.2976E-02  0.2296E+02
   -1.190003    7.19680  0.0000E+00  0.2646E-04  0.2280E-06  0.9637E-03  0.2630E-02  0.8768E+01
   -1.232504    7.20263  0.0000E+00  0.2514E-04  0.2091E-06  0.9557E-03  0.2253E-02  0.1085E+02
   -1.275004    7.20826  0.0000E+00  0.2389E-04  0.1959E-06  0.9342E-03  0.1940E-02  0.1443E+02
   -1.317504    7.21424  0.0000E+00  0.2269E-04  0.1883E-06  0.8715E-03  0.1677E-02  0.1746E+03
   -1.360004    7.22103  0.0000E+00  0.2145E-04  0.1878E-06  0.8071E-03  0.1446E-02  0.2697E+03
   -1.402503    7.22910  0.0000E+00  0.2006E-04  0.2010E-06  0.7386E-03  0.1239E-02  0.3136E+02
   -1.445003    7.23983  0.0000E+00  0.1867E-04  0.2385E-06  0.6712E-03  0.1053E-02  0.1639E+04
   -1.487501    7.25407  0.0000E+00  0.1727E-04  0.3185E-06  0.5993E-03  0.8674E-03  0.3854E+04
   -1.530000    7.27022  0.0000E+00  0.1573E-04  0.5316E-06  0.4755E-03  0.6609E-03  0.2701E+05
   -1.572498    7.32515  0.0000E+00  0.1427E-04  0.1044E-05  0.4784E-03  0.4470E-03  0.1438E+09
   -1.614996    7.30160  0.0000E+00  0.1186E-04  0.3430E-05  0.2344E-03  0.3534E-03 -0.2181E+09
   -1.657494    7.64135  0.0000E+00  0.8826E-05  0.6742E-05  0.2187E-03  0.2258E-03 -0.1361E+08
   -1.699991    7.60514  0.0000E+00  0.0000E+00  0.0000E+00  0.0000E+00  0.4007E-03  0.0000E+00
