 1 - depth, m
 2 - temperature, C
 3 - salinity, kg/kg
 4 - turbulent kinetic energy, m**2/s**2
 5 - dissipation rate, m**2/s**3
 6 - kinematic heat conductance, m**2/s
 7 - modulus of horizontal velocity, m/s
 8 - Richardson number, n/d
   -0.000000   13.21761  0.0000E+00  0.6792E-03  0.2230E-02  0.1377E-03  0.3354E+00  0.8996E-02
   -0.042497   13.58855  0.0000E+00  0.3287E-03  0.8066E-03  0.2148E-03  0.7649E-01 -0.3308E-01
   -0.084995   13.71254  0.0000E+00  0.2154E-03  0.3526E-03  0.1920E-03  0.4322E-01  0.4793E+00
   -0.127492   13.77776  0.0000E+00  0.1583E-03  0.1842E-03  0.2024E-03  0.3291E-01  0.1138E+02
   -0.169991   13.81666  0.0000E+00  0.1196E-03  0.9530E-04  0.2236E-03  0.2634E-01  0.3202E+02
   -0.212489   13.84653  0.0000E+00  0.9233E-04  0.5098E-04  0.2690E-03  0.2113E-01  0.9008E+01
   -0.254988   13.87211  0.0000E+00  0.7229E-04  0.2694E-04  0.3297E-03  0.1726E-01  0.8326E+02
   -0.297487   13.89174  0.0000E+00  0.5826E-04  0.1397E-04  0.3834E-03  0.1460E-01  0.6454E+02
   -0.339987   13.90831  0.0000E+00  0.4877E-04  0.7766E-05  0.4449E-03  0.1255E-01  0.1007E+03
   -0.382487   13.92101  0.0000E+00  0.4216E-04  0.4517E-05  0.5056E-03  0.1075E-01  0.7142E+02
   -0.424986   13.93112  0.0000E+00  0.3762E-04  0.2644E-05  0.5567E-03  0.9405E-02  0.6873E+02
   -0.467487   13.93983  0.0000E+00  0.3458E-04  0.1563E-05  0.6050E-03  0.8126E-02  0.7983E+02
   -0.509987   13.94781  0.0000E+00  0.3243E-04  0.9698E-06  0.6684E-03  0.6984E-02  0.8726E+02
   -0.552488   13.95389  0.0000E+00  0.3094E-04  0.6461E-06  0.7313E-03  0.6033E-02  0.2685E+03
   -0.594988   13.95959  0.0000E+00  0.2989E-04  0.4652E-06  0.8012E-03  0.5180E-02  0.2290E+02
   -0.637489   13.96426  0.0000E+00  0.2911E-04  0.3584E-06  0.8654E-03  0.4458E-02  0.8241E+02
   -0.679990   13.96866  0.0000E+00  0.2848E-04  0.2926E-06  0.8935E-03  0.3827E-02  0.1271E+02
   -0.722491   13.97275  0.0000E+00  0.2793E-04  0.2476E-06  0.9640E-03  0.3260E-02  0.2218E+03
   -0.764992   13.97658  0.0000E+00  0.2742E-04  0.2141E-06  0.1021E-02  0.2789E-02  0.9106E+01
   -0.807493   13.98025  0.0000E+00  0.2693E-04  0.1887E-06  0.1077E-02  0.2395E-02  0.7479E+02
   -0.849994   13.98378  0.0000E+00  0.2647E-04  0.1696E-06  0.1148E-02  0.2062E-02  0.4556E+01
   -0.892495   13.98716  0.0000E+00  0.2602E-04  0.1547E-06  0.1191E-02  0.1792E-02  0.3042E+01
   -0.934996   13.99045  0.0000E+00  0.2556E-04  0.1438E-06  0.1184E-02  0.1566E-02  0.3107E+01
   -0.977497   13.99372  0.0000E+00  0.2506E-04  0.1357E-06  0.1205E-02  0.1364E-02  0.3190E+01
   -1.019998   13.99697  0.0000E+00  0.2454E-04  0.1304E-06  0.1212E-02  0.1193E-02  0.3387E+01
   -1.062499   14.00018  0.0000E+00  0.2401E-04  0.1275E-06  0.1210E-02  0.1045E-02  0.3470E+01
   -1.105000   14.00341  0.0000E+00  0.2346E-04  0.1268E-06  0.1192E-02  0.9172E-03  0.2773E+01
   -1.147501   14.00666  0.0000E+00  0.2293E-04  0.1285E-06  0.1164E-02  0.8032E-03  0.3750E+01
   -1.190001   14.00993  0.0000E+00  0.2241E-04  0.1327E-06  0.1121E-02  0.6992E-03  0.5980E+01
   -1.232502   14.01325  0.0000E+00  0.2190E-04  0.1404E-06  0.1082E-02  0.6051E-03  0.5482E+01
   -1.275002   14.01689  0.0000E+00  0.2135E-04  0.1544E-06  0.1022E-02  0.5257E-03 -0.2177E+02
   -1.317502   14.02135  0.0000E+00  0.2072E-04  0.1769E-06  0.9915E-03  0.4574E-03  0.1311E+03
   -1.360002   14.02666  0.0000E+00  0.1995E-04  0.2177E-06  0.8959E-03  0.3992E-03 -0.3169E+03
   -1.402501   14.03462  0.0000E+00  0.1897E-04  0.2873E-06  0.8225E-03  0.3454E-03 -0.4380E+04
   -1.445000   14.04356  0.0000E+00  0.1786E-04  0.4030E-06  0.7298E-03  0.2953E-03  0.1621E+05
   -1.487499   14.05739  0.0000E+00  0.1686E-04  0.5878E-06  0.6314E-03  0.2369E-03  0.3323E+05
   -1.529998   14.07044  0.0000E+00  0.1575E-04  0.1103E-05  0.5534E-03  0.1790E-03  0.6519E+06
   -1.572496   14.12815  0.0000E+00  0.1485E-04  0.1883E-05  0.5657E-03  0.1218E-03  0.8619E+10
   -1.614994   14.08320  0.0000E+00  0.1293E-04  0.6513E-05  0.2994E-03  0.9871E-04 -0.7299E+10
   -1.657491   14.37175  0.0000E+00  0.1014E-04  0.1155E-04  0.3144E-03  0.6272E-04 -0.3491E+06
   -1.699988   14.30212  0.0000E+00  0.0000E+00  0.0000E+00  0.0000E+00  0.1298E-03  0.0000E+00
