 1 - depth, m
 2 - temperature, C
 3 - salinity, kg/kg
 4 - turbulent kinetic energy, m**2/s**2
 5 - dissipation rate, m**2/s**3
 6 - kinematic heat conductance, m**2/s
 7 - modulus of horizontal velocity, m/s
 8 - Richardson number, n/d
   -0.000000    7.47251  0.0000E+00  0.2329E-03  0.2080E-03  0.5866E-04  0.1321E+00 -0.9366E-01
   -0.042497    7.75136  0.0000E+00  0.1202E-03  0.5387E-04  0.1664E-03  0.2940E-01  0.1451E+02
   -0.084995    7.82712  0.0000E+00  0.8642E-04  0.2563E-04  0.1942E-03  0.1839E-01  0.2385E+01
   -0.127493    7.86789  0.0000E+00  0.6674E-04  0.1432E-04  0.2269E-03  0.1456E-01  0.4350E+02
   -0.169991    7.89598  0.0000E+00  0.5302E-04  0.8512E-05  0.2794E-03  0.1197E-01  0.6525E+02
   -0.212490    7.91883  0.0000E+00  0.4283E-04  0.5121E-05  0.3342E-03  0.9936E-02  0.1656E+02
   -0.254988    7.93755  0.0000E+00  0.3501E-04  0.2959E-05  0.3929E-03  0.8361E-02  0.1143E+03
   -0.297488    7.95366  0.0000E+00  0.2932E-04  0.1693E-05  0.4520E-03  0.7156E-02  0.1075E+04
   -0.339987    7.96812  0.0000E+00  0.2528E-04  0.9628E-06  0.5123E-03  0.6166E-02  0.1395E+02
   -0.382487    7.98052  0.0000E+00  0.2250E-04  0.5890E-06  0.5736E-03  0.5296E-02  0.4459E+02
   -0.424987    7.99135  0.0000E+00  0.2062E-04  0.3829E-06  0.6329E-03  0.4584E-02  0.5117E+02
   -0.467487    8.00045  0.0000E+00  0.1938E-04  0.2735E-06  0.6929E-03  0.3950E-02  0.1757E+02
   -0.509988    8.00822  0.0000E+00  0.1856E-04  0.2072E-06  0.7520E-03  0.3401E-02  0.8612E+02
   -0.552488    8.01487  0.0000E+00  0.1801E-04  0.1633E-06  0.8087E-03  0.2920E-02  0.4236E+02
   -0.594989    8.02072  0.0000E+00  0.1765E-04  0.1348E-06  0.8654E-03  0.2487E-02  0.7628E+02
   -0.637490    8.02605  0.0000E+00  0.1741E-04  0.1151E-06  0.9252E-03  0.2102E-02  0.4303E+01
   -0.679991    8.03098  0.0000E+00  0.1724E-04  0.1009E-06  0.9843E-03  0.1772E-02  0.1422E+02
   -0.722492    8.03566  0.0000E+00  0.1711E-04  0.9025E-07  0.1041E-02  0.1491E-02  0.1721E+01
   -0.764993    8.04019  0.0000E+00  0.1701E-04  0.8215E-07  0.1093E-02  0.1257E-02  0.1614E+01
   -0.807494    8.04464  0.0000E+00  0.1692E-04  0.7590E-07  0.1136E-02  0.1070E-02  0.1614E+01
   -0.849995    8.04905  0.0000E+00  0.1683E-04  0.7123E-07  0.1176E-02  0.9150E-03  0.1664E+01
   -0.892496    8.05334  0.0000E+00  0.1671E-04  0.6756E-07  0.1184E-02  0.7873E-03  0.1750E+01
   -0.934998    8.05774  0.0000E+00  0.1663E-04  0.6607E-07  0.1395E-02  0.6717E-03  0.3705E+01
   -0.977499    8.06137  0.0000E+00  0.1657E-04  0.6573E-07  0.1280E-02  0.6292E-03  0.9792E+01
   -1.020000    8.06536  0.0000E+00  0.1648E-04  0.6568E-07  0.1213E-02  0.5947E-03  0.2216E+01
   -1.062501    8.06963  0.0000E+00  0.1630E-04  0.6587E-07  0.1206E-02  0.5243E-03  0.2354E+01
   -1.105002    8.07390  0.0000E+00  0.1610E-04  0.6687E-07  0.1174E-02  0.4669E-03  0.2609E+01
   -1.147502    8.07825  0.0000E+00  0.1589E-04  0.6871E-07  0.1133E-02  0.4155E-03  0.3023E+01
   -1.190003    8.08267  0.0000E+00  0.1568E-04  0.7152E-07  0.1083E-02  0.3688E-03  0.3696E+01
   -1.232503    8.08716  0.0000E+00  0.1544E-04  0.7591E-07  0.1024E-02  0.3261E-03  0.2247E+01
   -1.275004    8.09224  0.0000E+00  0.1517E-04  0.8268E-07  0.9571E-03  0.2889E-03  0.1491E+02
   -1.317504    8.09813  0.0000E+00  0.1483E-04  0.9339E-07  0.8966E-03  0.2560E-03 -0.6147E+01
   -1.360003    8.10576  0.0000E+00  0.1436E-04  0.1118E-06  0.8220E-03  0.2255E-03  0.1417E+04
   -1.402503    8.11644  0.0000E+00  0.1372E-04  0.1410E-06  0.7376E-03  0.1966E-03  0.3116E+05
   -1.445002    8.12866  0.0000E+00  0.1292E-04  0.1941E-06  0.6346E-03  0.1688E-03  0.7032E+04
   -1.487501    8.14932  0.0000E+00  0.1217E-04  0.2693E-06  0.5719E-03  0.1340E-03  0.2984E+06
   -1.530000    8.16272  0.0000E+00  0.1131E-04  0.4920E-06  0.4442E-03  0.1014E-03 -0.3259E+06
   -1.572498    8.26966  0.0000E+00  0.1059E-04  0.8762E-06  0.4705E-03  0.6596E-04  0.1197E+13
   -1.614996    8.17545  0.0000E+00  0.9141E-05  0.2419E-05  0.2470E-03  0.5398E-04 -0.6497E+10
   -1.657493    8.63266  0.0000E+00  0.7071E-05  0.5113E-05  0.2490E-03  0.3337E-04 -0.4020E+07
   -1.699991    8.53488  0.0000E+00  0.0000E+00  0.0000E+00  0.0000E+00  0.6545E-04  0.0000E+00
