 1 - depth, m
 2 - temperature, C
 3 - salinity, kg/kg
 4 - turbulent kinetic energy, m**2/s**2
 5 - dissipation rate, m**2/s**3
 6 - kinematic heat conductance, m**2/s
 7 - modulus of horizontal velocity, m/s
 8 - Richardson number, n/d
   -0.000000   13.66684  0.0000E+00  0.1328E-02  0.6934E-02  0.1401E-03  0.4585E+00 -0.5614E-02
   -0.042498   13.98157  0.0000E+00  0.6414E-03  0.2934E-02  0.2970E-03  0.9611E-01  0.1188E+01
   -0.084996   14.08569  0.0000E+00  0.4300E-03  0.1015E-02  0.3540E-03  0.5600E-01  0.4735E+01
   -0.127494   14.12687  0.0000E+00  0.3236E-03  0.5161E-03  0.3399E-03  0.4375E-01  0.1125E+02
   -0.169993   14.15351  0.0000E+00  0.2534E-03  0.3180E-03  0.3191E-03  0.3558E-01  0.1071E+02
   -0.212492   14.17384  0.0000E+00  0.2006E-03  0.2002E-03  0.3374E-03  0.2928E-01  0.6582E+01
   -0.254991   14.19085  0.0000E+00  0.1612E-03  0.1314E-03  0.3684E-03  0.2472E-01  0.3063E+02
   -0.297491   14.20470  0.0000E+00  0.1318E-03  0.8758E-04  0.4063E-03  0.2148E-01  0.7637E+02
   -0.339991   14.21619  0.0000E+00  0.1096E-03  0.5723E-04  0.4418E-03  0.1910E-01  0.2886E+02
   -0.382491   14.22635  0.0000E+00  0.9283E-04  0.3662E-04  0.4887E-03  0.1681E-01  0.4492E+02
   -0.424992   14.23500  0.0000E+00  0.8024E-04  0.2319E-04  0.5282E-03  0.1513E-01  0.1537E+03
   -0.467493   14.24286  0.0000E+00  0.7085E-04  0.1476E-04  0.5779E-03  0.1337E-01  0.7730E+02
   -0.509994   14.24896  0.0000E+00  0.6354E-04  0.9059E-05  0.6317E-03  0.1179E-01  0.1443E+06
   -0.552495   14.25547  0.0000E+00  0.5773E-04  0.5771E-05  0.6868E-03  0.1037E-01  0.1683E+03
   -0.594996   14.26036  0.0000E+00  0.5325E-04  0.3773E-05  0.7566E-03  0.9096E-02  0.2474E+03
   -0.637497   14.26541  0.0000E+00  0.4948E-04  0.2409E-05  0.8095E-03  0.7973E-02  0.1915E+03
   -0.679999   14.26928  0.0000E+00  0.4634E-04  0.1594E-05  0.8738E-03  0.7013E-02  0.7629E+03
   -0.722500   14.27332  0.0000E+00  0.4367E-04  0.1096E-05  0.9372E-03  0.6182E-02  0.2405E+04
   -0.765002   14.27666  0.0000E+00  0.4129E-04  0.8009E-06  0.9960E-03  0.5475E-02  0.2054E+03
   -0.807503   14.28042  0.0000E+00  0.3920E-04  0.6210E-06  0.1057E-02  0.4875E-02  0.4025E+02
   -0.850005   14.28352  0.0000E+00  0.3732E-04  0.5034E-06  0.1112E-02  0.4364E-02 -0.3357E+02
   -0.892507   14.28689  0.0000E+00  0.3559E-04  0.4204E-06  0.1151E-02  0.3912E-02  0.1835E+02
   -0.935008   14.28990  0.0000E+00  0.3399E-04  0.3583E-06  0.1174E-02  0.3513E-02  0.7368E+01
   -0.977510   14.29301  0.0000E+00  0.3247E-04  0.3096E-06  0.1210E-02  0.3143E-02  0.1478E+02
   -1.020012   14.29596  0.0000E+00  0.3113E-04  0.2732E-06  0.1280E-02  0.2809E-02  0.3287E+02
   -1.062513   14.29872  0.0000E+00  0.3000E-04  0.2472E-06  0.1270E-02  0.2553E-02  0.8333E+01
   -1.105014   14.30149  0.0000E+00  0.2890E-04  0.2268E-06  0.1201E-02  0.2327E-02  0.1636E+02
   -1.147516   14.30439  0.0000E+00  0.2772E-04  0.2102E-06  0.1136E-02  0.2067E-02  0.1698E+02
   -1.190017   14.30738  0.0000E+00  0.2661E-04  0.1996E-06  0.1097E-02  0.1794E-02  0.8468E+01
   -1.232518   14.31041  0.0000E+00  0.2553E-04  0.1947E-06  0.1046E-02  0.1547E-02  0.9534E+01
   -1.275018   14.31370  0.0000E+00  0.2443E-04  0.1966E-06  0.9707E-03  0.1334E-02  0.7523E+02
   -1.317519   14.31763  0.0000E+00  0.2325E-04  0.2080E-06  0.9144E-03  0.1131E-02 -0.1005E+03
   -1.360019   14.32243  0.0000E+00  0.2199E-04  0.2363E-06  0.8271E-03  0.9619E-03 -0.4954E+03
   -1.402519   14.32926  0.0000E+00  0.2052E-04  0.3040E-06  0.7732E-03  0.8207E-03  0.8805E+03
   -1.445019   14.33767  0.0000E+00  0.1889E-04  0.4277E-06  0.6781E-03  0.6924E-03  0.3818E+04
   -1.487518   14.35072  0.0000E+00  0.1740E-04  0.6439E-06  0.6066E-03  0.5460E-03  0.5336E+05
   -1.530017   14.36157  0.0000E+00  0.1589E-04  0.1201E-05  0.4859E-03  0.3964E-03 -0.8572E+06
   -1.572516   14.42844  0.0000E+00  0.1468E-04  0.2276E-05  0.5220E-03  0.2429E-03  0.3480E+11
   -1.615015   14.36266  0.0000E+00  0.1274E-04  0.7061E-05  0.2770E-03  0.1931E-03 -0.4519E+10
   -1.657513   14.67406  0.0000E+00  0.9952E-05  0.1281E-04  0.3157E-03  0.1198E-03  0.1321E+08
   -1.700010   14.58979  0.0000E+00  0.0000E+00  0.0000E+00  0.0000E+00  0.2615E-03  0.0000E+00
