 1 - depth, m
 2 - temperature, C
 3 - salinity, kg/kg
 4 - turbulent kinetic energy, m**2/s**2
 5 - dissipation rate, m**2/s**3
 6 - kinematic heat conductance, m**2/s
 7 - modulus of horizontal velocity, m/s
 8 - Richardson number, n/d
   -0.000000    4.78260  0.0000E+00  0.6671E-02  0.2544E+00  0.2432E-03  0.1758E+01  0.2780E-02
   -0.042497    5.08337  0.0000E+00  0.3661E-02  0.1832E+00  0.7542E-03  0.3588E+00 -0.1724E+00
   -0.084995    5.23242  0.0000E+00  0.2327E-02  0.3600E-01  0.1024E-02  0.1808E+00 -0.3673E-01
   -0.127493    5.27889  0.0000E+00  0.1857E-02  0.2636E-01  0.1019E-02  0.1317E+00 -0.1402E+00
   -0.169992    5.31034  0.0000E+00  0.1562E-02  0.2003E-01  0.9753E-03  0.1077E+00  0.3194E+01
   -0.212490    5.33421  0.0000E+00  0.1329E-02  0.1372E-01  0.1011E-02  0.8976E-01 -0.1984E+01
   -0.254989    5.35355  0.0000E+00  0.1161E-02  0.1151E-01  0.9846E-03  0.7893E-01  0.4920E+00
   -0.297489    5.36632  0.0000E+00  0.1015E-02  0.9153E-02  0.9342E-03  0.7236E-01  0.4554E+03
   -0.339988    5.37607  0.0000E+00  0.8931E-03  0.7253E-02  0.9253E-03  0.6765E-01  0.3380E+02
   -0.382488    5.38459  0.0000E+00  0.7902E-03  0.6036E-02  0.9039E-03  0.6268E-01  0.3850E+01
   -0.424989    5.39269  0.0000E+00  0.7079E-03  0.5002E-02  0.8651E-03  0.6014E-01  0.1564E+02
   -0.467489    5.40416  0.0000E+00  0.6308E-03  0.4128E-02  0.8904E-03  0.5336E-01  0.2055E+02
   -0.509990    5.41247  0.0000E+00  0.5631E-03  0.3396E-02  0.8784E-03  0.4937E-01  0.1350E+02
   -0.552490    5.42284  0.0000E+00  0.5054E-03  0.2781E-02  0.8693E-03  0.4492E-01  0.8203E+02
   -0.594991    5.43383  0.0000E+00  0.4581E-03  0.2252E-02  0.8901E-03  0.4033E-01  0.8770E+01
   -0.637492    5.44189  0.0000E+00  0.4181E-03  0.1816E-02  0.9114E-03  0.3664E-01  0.1639E+02
   -0.679993    5.44966  0.0000E+00  0.3822E-03  0.1462E-02  0.9236E-03  0.3382E-01  0.1311E+02
   -0.722494    5.45742  0.0000E+00  0.3517E-03  0.1171E-02  0.9438E-03  0.3140E-01 -0.1005E+03
   -0.764996    5.46397  0.0000E+00  0.3238E-03  0.9351E-03  0.9696E-03  0.2949E-01 -0.2355E+03
   -0.807497    5.47224  0.0000E+00  0.2992E-03  0.7161E-03  0.9782E-03  0.2818E-01  0.2664E+03
   -0.849998    5.47942  0.0000E+00  0.2760E-03  0.4608E-03  0.9965E-03  0.2682E-01  0.1464E+04
   -0.892500    5.48772  0.0000E+00  0.2534E-03  0.1728E-03  0.1015E-02  0.2561E-01 -0.8583E+02
   -0.935001    5.49502  0.0000E+00  0.2364E-03  0.1116E-03  0.1012E-02  0.2464E-01  0.4345E+03
   -0.977502    5.50336  0.0000E+00  0.2219E-03  0.8678E-04  0.1023E-02  0.2350E-01  0.1825E+04
   -1.020004    5.51083  0.0000E+00  0.2090E-03  0.6933E-04  0.1014E-02  0.2263E-01  0.2592E+01
   -1.062505    5.51873  0.0000E+00  0.1975E-03  0.5672E-04  0.1014E-02  0.2162E-01  0.5372E+03
   -1.105006    5.52671  0.0000E+00  0.1872E-03  0.4738E-04  0.1002E-02  0.2083E-01  0.3731E+03
   -1.147507    5.53400  0.0000E+00  0.1780E-03  0.4053E-04  0.9803E-03  0.1993E-01  0.5643E+02
   -1.190007    5.54288  0.0000E+00  0.1696E-03  0.3558E-04  0.9612E-03  0.1856E-01  0.4321E+02
   -1.232508    5.54969  0.0000E+00  0.1612E-03  0.3194E-04  0.9521E-03  0.1704E-01  0.1109E+03
   -1.275008    5.55921  0.0000E+00  0.1533E-03  0.2933E-04  0.9272E-03  0.1589E-01  0.9725E+02
   -1.317508    5.56645  0.0000E+00  0.1455E-03  0.2763E-04  0.8894E-03  0.1482E-01  0.2071E+03
   -1.360008    5.57706  0.0000E+00  0.1378E-03  0.2685E-04  0.8545E-03  0.1377E-01 -0.1108E+06
   -1.402508    5.58821  0.0000E+00  0.1301E-03  0.2708E-04  0.7879E-03  0.1299E-01 -0.1561E+07
   -1.445007    5.60038  0.0000E+00  0.1224E-03  0.2858E-04  0.6998E-03  0.1224E-01  0.3449E+05
   -1.487506    5.61642  0.0000E+00  0.1134E-03  0.3192E-04  0.6052E-03  0.1072E-01  0.2233E+05
   -1.530005    5.63794  0.0000E+00  0.1023E-03  0.3677E-04  0.5295E-03  0.8318E-02  0.6014E+07
   -1.572504    5.67137  0.0000E+00  0.9265E-04  0.4802E-04  0.5311E-03  0.6532E-02 -0.8323E+07
   -1.615002    5.71111  0.0000E+00  0.7809E-04  0.8814E-04  0.3601E-03  0.5777E-02 -0.2265E+08
   -1.657500    5.89329  0.0000E+00  0.5677E-04  0.1818E-03  0.2429E-03  0.4648E-02 -0.2150E+09
   -1.699997    6.07230  0.0000E+00  0.0000E+00  0.0000E+00  0.0000E+00  0.6915E-02  0.0000E+00
