 1 - depth, m
 2 - temperature, C
 3 - salinity, kg/kg
 4 - turbulent kinetic energy, m**2/s**2
 5 - dissipation rate, m**2/s**3
 6 - kinematic heat conductance, m**2/s
 7 - modulus of horizontal velocity, m/s
 8 - Richardson number, n/d
   -0.000000    5.92781  0.0000E+00  0.1694E-03  0.1356E-03  0.6785E-04  0.1174E+00  0.7175E-02
   -0.042497    6.22323  0.0000E+00  0.8906E-04  0.3500E-04  0.9392E-04  0.3161E-01 -0.2471E-01
   -0.084995    6.29060  0.0000E+00  0.6177E-04  0.1627E-04  0.9577E-04  0.2063E-01  0.7903E-01
   -0.127493    6.34349  0.0000E+00  0.4597E-04  0.8706E-05  0.1044E-03  0.1558E-01  0.8145E+01
   -0.169991    6.38474  0.0000E+00  0.3503E-04  0.4401E-05  0.1191E-03  0.1208E-01  0.1275E+02
   -0.212490    6.42085  0.0000E+00  0.2734E-04  0.2349E-05  0.1491E-03  0.9421E-02  0.8717E+01
   -0.254989    6.45159  0.0000E+00  0.2193E-04  0.1263E-05  0.1964E-03  0.7470E-02  0.4077E+02
   -0.297488    6.47734  0.0000E+00  0.1827E-04  0.7092E-06  0.2689E-03  0.6088E-02  0.2716E+03
   -0.339988    6.49739  0.0000E+00  0.1588E-04  0.4111E-06  0.3338E-03  0.5080E-02  0.2177E+03
   -0.382487    6.51332  0.0000E+00  0.1435E-04  0.2551E-06  0.3939E-03  0.4280E-02  0.1447E+03
   -0.424987    6.52618  0.0000E+00  0.1341E-04  0.1714E-06  0.4542E-03  0.3650E-02  0.3771E+02
   -0.467488    6.53703  0.0000E+00  0.1284E-04  0.1236E-06  0.5108E-03  0.3110E-02  0.2503E+02
   -0.509988    6.54583  0.0000E+00  0.1253E-04  0.9630E-07  0.5617E-03  0.2644E-02  0.8820E+01
   -0.552489    6.55364  0.0000E+00  0.1238E-04  0.7905E-07  0.6122E-03  0.2235E-02  0.8792E+01
   -0.594990    6.56049  0.0000E+00  0.1234E-04  0.6746E-07  0.6663E-03  0.1873E-02  0.9406E+01
   -0.637491    6.56668  0.0000E+00  0.1236E-04  0.5936E-07  0.7300E-03  0.1558E-02  0.4401E+01
   -0.679992    6.57243  0.0000E+00  0.1242E-04  0.5358E-07  0.8013E-03  0.1294E-02  0.2501E+01
   -0.722493    6.57777  0.0000E+00  0.1250E-04  0.4945E-07  0.8849E-03  0.1076E-02  0.2087E+01
   -0.764994    6.58282  0.0000E+00  0.1259E-04  0.4646E-07  0.9782E-03  0.9020E-03  0.1494E+01
   -0.807495    6.58762  0.0000E+00  0.1267E-04  0.4431E-07  0.1062E-02  0.7669E-03  0.1446E+01
   -0.849996    6.59225  0.0000E+00  0.1272E-04  0.4285E-07  0.1127E-02  0.6601E-03  0.1412E+01
   -0.892497    6.59671  0.0000E+00  0.1276E-04  0.4191E-07  0.1166E-02  0.5746E-03  0.1369E+01
   -0.934999    6.60113  0.0000E+00  0.1277E-04  0.4139E-07  0.1183E-02  0.5060E-03  0.1356E+01
   -0.977500    6.60550  0.0000E+00  0.1276E-04  0.4122E-07  0.1185E-02  0.4494E-03  0.1322E+01
   -1.020001    6.60990  0.0000E+00  0.1274E-04  0.4134E-07  0.1177E-02  0.4025E-03  0.1329E+01
   -1.062502    6.61431  0.0000E+00  0.1269E-04  0.4174E-07  0.1160E-02  0.3625E-03  0.1333E+01
   -1.105003    6.61876  0.0000E+00  0.1263E-04  0.4242E-07  0.1136E-02  0.3278E-03  0.1377E+01
   -1.147504    6.62324  0.0000E+00  0.1255E-04  0.4341E-07  0.1105E-02  0.2966E-03  0.1463E+01
   -1.190004    6.62770  0.0000E+00  0.1247E-04  0.4479E-07  0.1066E-02  0.2676E-03  0.1638E+01
   -1.232505    6.63212  0.0000E+00  0.1237E-04  0.4678E-07  0.1020E-02  0.2406E-03  0.1979E+01
   -1.275005    6.63687  0.0000E+00  0.1225E-04  0.4967E-07  0.9622E-03  0.2161E-03  0.3094E+01
   -1.317505    6.64219  0.0000E+00  0.1210E-04  0.5408E-07  0.9057E-03  0.1938E-03  0.5161E+01
   -1.360005    6.64840  0.0000E+00  0.1189E-04  0.6136E-07  0.8230E-03  0.1729E-03 -0.9782E+01
   -1.402504    6.65692  0.0000E+00  0.1157E-04  0.7298E-07  0.7547E-03  0.1526E-03  0.3864E+03
   -1.445004    6.66706  0.0000E+00  0.1115E-04  0.9208E-07  0.6569E-03  0.1332E-03  0.7706E+04
   -1.487503    6.68235  0.0000E+00  0.1071E-04  0.1219E-06  0.6013E-03  0.1096E-03  0.9397E+04
   -1.530001    6.69493  0.0000E+00  0.1017E-04  0.1978E-06  0.4700E-03  0.8703E-04 -0.1113E+05
   -1.572500    6.75938  0.0000E+00  0.9618E-05  0.3502E-06  0.4757E-03  0.6206E-04  0.2164E+09
   -1.614998    6.71803  0.0000E+00  0.8346E-05  0.9393E-06  0.2171E-03  0.5015E-04 -0.3251E+11
   -1.657495    7.07942  0.0000E+00  0.6205E-05  0.2179E-05  0.1662E-03  0.3251E-04 -0.3042E+06
   -1.699992    7.05436  0.0000E+00  0.0000E+00  0.0000E+00  0.0000E+00  0.4901E-04  0.0000E+00
