 1 - depth, m
 2 - temperature, C
 3 - salinity, kg/kg
 4 - turbulent kinetic energy, m**2/s**2
 5 - dissipation rate, m**2/s**3
 6 - kinematic heat conductance, m**2/s
 7 - modulus of horizontal velocity, m/s
 8 - Richardson number, n/d
   -0.000000    9.55892  0.0000E+00  0.1839E-02  0.1946E-01  0.1302E-03  0.6199E+00  0.1120E-02
   -0.042497    9.87647  0.0000E+00  0.8733E-03  0.1079E-01  0.2846E-03  0.1317E+00 -0.2634E-01
   -0.084995   10.05655  0.0000E+00  0.5587E-03  0.2964E-02  0.3761E-03  0.7169E-01  0.1550E+01
   -0.127493   10.11596  0.0000E+00  0.4090E-03  0.1482E-02  0.3387E-03  0.5501E-01  0.2786E+00
   -0.169991   10.15033  0.0000E+00  0.3130E-03  0.9334E-03  0.3082E-03  0.4454E-01  0.2416E+00
   -0.212490   10.17258  0.0000E+00  0.2420E-03  0.5977E-03  0.3027E-03  0.3638E-01  0.5310E+01
   -0.254989   10.19598  0.0000E+00  0.1912E-03  0.3953E-03  0.3330E-03  0.3043E-01  0.1309E+00
   -0.297488   10.21375  0.0000E+00  0.1544E-03  0.2593E-03  0.3574E-03  0.2647E-01  0.3572E+03
   -0.339987   10.22790  0.0000E+00  0.1274E-03  0.1639E-03  0.3828E-03  0.2355E-01  0.1030E+03
   -0.382487   10.24038  0.0000E+00  0.1067E-03  0.9918E-04  0.4150E-03  0.2073E-01  0.3161E+03
   -0.424987   10.25133  0.0000E+00  0.9097E-04  0.5812E-04  0.4328E-03  0.1873E-01  0.1548E+03
   -0.467487   10.26277  0.0000E+00  0.7893E-04  0.3376E-04  0.4743E-03  0.1642E-01  0.3557E+03
   -0.509988   10.27281  0.0000E+00  0.6970E-04  0.1926E-04  0.5169E-03  0.1430E-01  0.8248E+02
   -0.552489   10.28194  0.0000E+00  0.6253E-04  0.1092E-04  0.5711E-03  0.1245E-01  0.2271E+03
   -0.594989   10.29023  0.0000E+00  0.5683E-04  0.6620E-05  0.6218E-03  0.1080E-01  0.1975E+03
   -0.637490   10.29881  0.0000E+00  0.5217E-04  0.4177E-05  0.7015E-03  0.9355E-02  0.1565E+03
   -0.679991   10.30511  0.0000E+00  0.4833E-04  0.2752E-05  0.7632E-03  0.8248E-02  0.1949E+03
   -0.722492   10.31007  0.0000E+00  0.4504E-04  0.1853E-05  0.8199E-03  0.7286E-02  0.2458E+03
   -0.764993   10.31640  0.0000E+00  0.4209E-04  0.1172E-05  0.8736E-03  0.6449E-02  0.8284E+03
   -0.807495   10.32057  0.0000E+00  0.3953E-04  0.8043E-06  0.9247E-03  0.5762E-02  0.2603E+05
   -0.849996   10.32648  0.0000E+00  0.3731E-04  0.6017E-06  0.9625E-03  0.5154E-02  0.2152E+03
   -0.892497   10.33049  0.0000E+00  0.3529E-04  0.4767E-06  0.9937E-03  0.4620E-02  0.9432E+02
   -0.934998   10.33580  0.0000E+00  0.3342E-04  0.3935E-06  0.1012E-02  0.4137E-02  0.1127E+03
   -0.977499   10.33999  0.0000E+00  0.3174E-04  0.3335E-06  0.1097E-02  0.3684E-02  0.8605E+02
   -1.020000   10.34438  0.0000E+00  0.3033E-04  0.2911E-06  0.1173E-02  0.3324E-02  0.1896E+03
   -1.062501   10.34809  0.0000E+00  0.2909E-04  0.2589E-06  0.1165E-02  0.3034E-02  0.6446E+02
   -1.105002   10.35186  0.0000E+00  0.2792E-04  0.2331E-06  0.1108E-02  0.2761E-02  0.5440E+02
   -1.147503   10.35570  0.0000E+00  0.2672E-04  0.2123E-06  0.1011E-02  0.2475E-02  0.4042E+02
   -1.190004   10.35971  0.0000E+00  0.2551E-04  0.1966E-06  0.9804E-03  0.2140E-02  0.4206E+02
   -1.232504   10.36365  0.0000E+00  0.2436E-04  0.1863E-06  0.9414E-03  0.1831E-02  0.4873E+02
   -1.275004   10.36788  0.0000E+00  0.2321E-04  0.1811E-06  0.8942E-03  0.1557E-02  0.6975E+02
   -1.317504   10.37253  0.0000E+00  0.2208E-04  0.1829E-06  0.8437E-03  0.1322E-02  0.1271E+03
   -1.360004   10.37805  0.0000E+00  0.2089E-04  0.1966E-06  0.7847E-03  0.1123E-02  0.1912E+03
   -1.402504   10.38534  0.0000E+00  0.1952E-04  0.2338E-06  0.7298E-03  0.9578E-03  0.5459E+04
   -1.445003   10.39527  0.0000E+00  0.1802E-04  0.3173E-06  0.6371E-03  0.8094E-03  0.4286E+04
   -1.487502   10.41022  0.0000E+00  0.1662E-04  0.4615E-06  0.5813E-03  0.6461E-03  0.2050E+05
   -1.530000   10.42202  0.0000E+00  0.1519E-04  0.8504E-06  0.4515E-03  0.4748E-03  0.3373E+06
   -1.572499   10.49197  0.0000E+00  0.1405E-04  0.1681E-05  0.4688E-03  0.3018E-03  0.1081E+09
   -1.614997   10.43383  0.0000E+00  0.1204E-04  0.4921E-05  0.2504E-03  0.2421E-03 -0.1720E+10
   -1.657494   10.78553  0.0000E+00  0.9235E-05  0.9269E-05  0.2664E-03  0.1517E-03 -0.4873E+06
   -1.699991   10.69744  0.0000E+00  0.0000E+00  0.0000E+00  0.0000E+00  0.3021E-03  0.0000E+00
