 1 - depth, m
 2 - temperature, C
 3 - salinity, kg/kg
 4 - turbulent kinetic energy, m**2/s**2
 5 - dissipation rate, m**2/s**3
 6 - kinematic heat conductance, m**2/s
 7 - modulus of horizontal velocity, m/s
 8 - Richardson number, n/d
   -0.000000   14.97014  0.0000E+00  0.3583E-03  0.6480E-03  0.5943E-04  0.1721E+00 -0.7373E-02
   -0.042497   15.10160  0.0000E+00  0.1735E-03  0.1763E-03  0.1528E-03  0.3945E-01  0.2482E+02
   -0.084995   15.14196  0.0000E+00  0.1203E-03  0.8363E-04  0.1857E-03  0.2429E-01  0.1173E+02
   -0.127493   15.16359  0.0000E+00  0.9137E-04  0.4867E-04  0.2165E-03  0.1913E-01  0.3513E+01
   -0.169991   15.17858  0.0000E+00  0.7089E-04  0.2692E-04  0.2622E-03  0.1561E-01  0.5832E+01
   -0.212490   15.19047  0.0000E+00  0.5624E-04  0.1567E-04  0.3236E-03  0.1284E-01  0.8580E+02
   -0.254989   15.20025  0.0000E+00  0.4526E-04  0.8787E-05  0.3870E-03  0.1074E-01  0.3190E+03
   -0.297489   15.20844  0.0000E+00  0.3720E-04  0.4688E-05  0.4473E-03  0.9212E-02  0.7071E+03
   -0.339988   15.21571  0.0000E+00  0.3166E-04  0.2502E-05  0.5128E-03  0.7950E-02  0.4249E+02
   -0.382488   15.22200  0.0000E+00  0.2791E-04  0.1446E-05  0.5812E-03  0.6790E-02  0.6629E+02
   -0.424988   15.22762  0.0000E+00  0.2544E-04  0.8636E-06  0.6358E-03  0.5869E-02  0.1279E+03
   -0.467489   15.23257  0.0000E+00  0.2384E-04  0.5510E-06  0.6961E-03  0.5029E-02  0.6148E+04
   -0.509989   15.23677  0.0000E+00  0.2280E-04  0.3751E-06  0.7620E-03  0.4314E-02  0.2313E+02
   -0.552490   15.24039  0.0000E+00  0.2214E-04  0.2698E-06  0.8259E-03  0.3695E-02  0.1616E+02
   -0.594991   15.24346  0.0000E+00  0.2174E-04  0.2114E-06  0.8866E-03  0.3150E-02  0.2435E+02
   -0.637492   15.24633  0.0000E+00  0.2149E-04  0.1750E-06  0.9540E-03  0.2668E-02  0.5087E+01
   -0.679993   15.24889  0.0000E+00  0.2133E-04  0.1506E-06  0.1019E-02  0.2260E-02  0.8812E+01
   -0.722494   15.25135  0.0000E+00  0.2121E-04  0.1331E-06  0.1088E-02  0.1912E-02  0.2453E+01
   -0.764995   15.25367  0.0000E+00  0.2111E-04  0.1202E-06  0.1154E-02  0.1625E-02  0.1680E+01
   -0.807496   15.25594  0.0000E+00  0.2101E-04  0.1106E-06  0.1208E-02  0.1395E-02  0.1543E+01
   -0.849998   15.25818  0.0000E+00  0.2090E-04  0.1035E-06  0.1246E-02  0.1206E-02  0.1492E+01
   -0.892499   15.26039  0.0000E+00  0.2077E-04  0.9838E-07  0.1274E-02  0.1051E-02  0.1638E+01
   -0.935000   15.26258  0.0000E+00  0.2061E-04  0.9502E-07  0.1291E-02  0.9220E-03  0.1539E+01
   -0.977502   15.26478  0.0000E+00  0.2043E-04  0.9316E-07  0.1299E-02  0.8123E-03  0.1533E+01
   -1.020003   15.26698  0.0000E+00  0.2022E-04  0.9263E-07  0.1286E-02  0.7217E-03  0.7707E+02
   -1.062504   15.26920  0.0000E+00  0.1999E-04  0.9334E-07  0.1259E-02  0.6433E-03  0.1698E+01
   -1.105005   15.27152  0.0000E+00  0.1972E-04  0.9533E-07  0.1220E-02  0.5732E-03  0.2218E+01
   -1.147506   15.27389  0.0000E+00  0.1943E-04  0.9877E-07  0.1185E-02  0.5104E-03  0.2226E+01
   -1.190006   15.27634  0.0000E+00  0.1914E-04  0.1040E-06  0.1137E-02  0.4536E-03  0.2779E+02
   -1.232507   15.27884  0.0000E+00  0.1881E-04  0.1121E-06  0.1057E-02  0.4013E-03  0.1717E+02
   -1.275007   15.28181  0.0000E+00  0.1842E-04  0.1249E-06  0.1009E-02  0.3547E-03  0.2654E+03
   -1.317507   15.28534  0.0000E+00  0.1795E-04  0.1448E-06  0.9357E-03  0.3133E-03  0.4937E+03
   -1.360007   15.29003  0.0000E+00  0.1733E-04  0.1773E-06  0.8652E-03  0.2758E-03 -0.4902E+05
   -1.402507   15.29647  0.0000E+00  0.1650E-04  0.2321E-06  0.7625E-03  0.2408E-03 -0.4773E+04
   -1.445006   15.30433  0.0000E+00  0.1549E-04  0.3309E-06  0.6740E-03  0.2069E-03  0.1169E+06
   -1.487505   15.31630  0.0000E+00  0.1459E-04  0.4742E-06  0.5845E-03  0.1637E-03  0.5851E+05
   -1.530004   15.32735  0.0000E+00  0.1359E-04  0.8906E-06  0.4989E-03  0.1232E-03 -0.1209E+06
   -1.572503   15.38551  0.0000E+00  0.1284E-04  0.1525E-05  0.5208E-03  0.8184E-04  0.1838E+12
   -1.615001   15.33603  0.0000E+00  0.1117E-04  0.4810E-05  0.2752E-03  0.6655E-04 -0.8100E+10
   -1.657498   15.62465  0.0000E+00  0.8868E-05  0.9117E-05  0.3151E-03  0.4193E-04 -0.1422E+06
   -1.699996   15.54094  0.0000E+00  0.0000E+00  0.0000E+00  0.0000E+00  0.8550E-04  0.0000E+00
