 1 - depth, m
 2 - temperature, C
 3 - salinity, kg/kg
 4 - turbulent kinetic energy, m**2/s**2
 5 - dissipation rate, m**2/s**3
 6 - kinematic heat conductance, m**2/s
 7 - modulus of horizontal velocity, m/s
 8 - Richardson number, n/d
   -0.000000   15.73471  0.0000E+00  0.1602E-02  0.9634E-02  0.1449E-03  0.5251E+00  0.2261E-01
   -0.042498   15.98825  0.0000E+00  0.7818E-03  0.3915E-02  0.3485E-03  0.1060E+00  0.7325E-03
   -0.084996   16.06248  0.0000E+00  0.5161E-03  0.1476E-02  0.3829E-03  0.6029E-01  0.1142E+01
   -0.127494   16.10661  0.0000E+00  0.3877E-03  0.9008E-03  0.3696E-03  0.4706E-01  0.7610E+00
   -0.169993   16.12856  0.0000E+00  0.3084E-03  0.6429E-03  0.3490E-03  0.3939E-01  0.1552E+02
   -0.212492   16.14450  0.0000E+00  0.2461E-03  0.4496E-03  0.3624E-03  0.3320E-01  0.3908E+00
   -0.254992   16.15657  0.0000E+00  0.1975E-03  0.3097E-03  0.3839E-03  0.2847E-01  0.1363E+01
   -0.297491   16.16706  0.0000E+00  0.1604E-03  0.2161E-03  0.4144E-03  0.2507E-01  0.3033E+02
   -0.339991   16.17665  0.0000E+00  0.1324E-03  0.1482E-03  0.4427E-03  0.2256E-01  0.6120E+01
   -0.382492   16.18459  0.0000E+00  0.1112E-03  0.9573E-04  0.4793E-03  0.1986E-01  0.1324E+03
   -0.424992   16.19099  0.0000E+00  0.9514E-04  0.6100E-04  0.5152E-03  0.1797E-01  0.7559E+02
   -0.467493   16.19772  0.0000E+00  0.8289E-04  0.3801E-04  0.5572E-03  0.1580E-01  0.5066E+02
   -0.509994   16.20454  0.0000E+00  0.7363E-04  0.2247E-04  0.6152E-03  0.1377E-01  0.3929E+02
   -0.552495   16.20974  0.0000E+00  0.6631E-04  0.1318E-04  0.6751E-03  0.1205E-01  0.6341E+02
   -0.594996   16.21436  0.0000E+00  0.6056E-04  0.8001E-05  0.7389E-03  0.1048E-01  0.1858E+03
   -0.637498   16.21901  0.0000E+00  0.5568E-04  0.5020E-05  0.8069E-03  0.9123E-02  0.8298E+03
   -0.679999   16.22221  0.0000E+00  0.5187E-04  0.3150E-05  0.8648E-03  0.8044E-02  0.1043E+03
   -0.722501   16.22591  0.0000E+00  0.4856E-04  0.1980E-05  0.9290E-03  0.7082E-02  0.3467E+02
   -0.765002   16.22874  0.0000E+00  0.4565E-04  0.1326E-05  0.9895E-03  0.6281E-02  0.2686E+02
   -0.807504   16.23205  0.0000E+00  0.4303E-04  0.9460E-06  0.1047E-02  0.5607E-02  0.4455E+02
   -0.850006   16.23459  0.0000E+00  0.4073E-04  0.6892E-06  0.1204E-02  0.5027E-02  0.3309E+02
   -0.892507   16.23731  0.0000E+00  0.3878E-04  0.5332E-06  0.1272E-02  0.4559E-02 -0.2693E+03
   -0.935009   16.23981  0.0000E+00  0.3699E-04  0.4461E-06  0.1180E-02  0.4179E-02  0.9159E+02
   -0.977511   16.24238  0.0000E+00  0.3525E-04  0.3828E-06  0.1178E-02  0.3779E-02  0.5404E+02
   -1.020012   16.24488  0.0000E+00  0.3367E-04  0.3340E-06  0.1234E-02  0.3392E-02  0.4746E+02
   -1.062514   16.24741  0.0000E+00  0.3230E-04  0.2959E-06  0.1215E-02  0.3077E-02  0.6998E+01
   -1.105015   16.24981  0.0000E+00  0.3096E-04  0.2658E-06  0.1201E-02  0.2775E-02  0.7364E+01
   -1.147516   16.25230  0.0000E+00  0.2974E-04  0.2445E-06  0.1150E-02  0.2502E-02  0.9858E+01
   -1.190017   16.25476  0.0000E+00  0.2854E-04  0.2289E-06  0.1092E-02  0.2210E-02  0.7121E+01
   -1.232518   16.25730  0.0000E+00  0.2733E-04  0.2190E-06  0.1056E-02  0.1905E-02  0.4321E+02
   -1.275019   16.26000  0.0000E+00  0.2616E-04  0.2165E-06  0.9776E-03  0.1662E-02  0.7892E+01
   -1.317519   16.26308  0.0000E+00  0.2487E-04  0.2228E-06  0.9057E-03  0.1423E-02  0.3572E+04
   -1.360020   16.26673  0.0000E+00  0.2345E-04  0.2455E-06  0.8316E-03  0.1208E-02  0.4194E+02
   -1.402520   16.27170  0.0000E+00  0.2183E-04  0.2993E-06  0.7609E-03  0.1031E-02  0.1933E+03
   -1.445020   16.27878  0.0000E+00  0.2009E-04  0.4054E-06  0.6806E-03  0.8675E-03  0.5173E+04
   -1.487519   16.28798  0.0000E+00  0.1849E-04  0.6007E-06  0.6100E-03  0.6957E-03  0.3156E+05
   -1.530018   16.29760  0.0000E+00  0.1683E-04  0.1123E-05  0.4883E-03  0.5101E-03 -0.9457E+04
   -1.572517   16.34409  0.0000E+00  0.1552E-04  0.2111E-05  0.5149E-03  0.3290E-03  0.6394E+09
   -1.615015   16.30582  0.0000E+00  0.1333E-04  0.6795E-05  0.2840E-03  0.2662E-03 -0.1181E+10
   -1.657513   16.54495  0.0000E+00  0.1031E-04  0.1268E-04  0.3000E-03  0.1704E-03 -0.2447E+08
   -1.700011   16.48648  0.0000E+00  0.0000E+00  0.0000E+00  0.0000E+00  0.3384E-03  0.0000E+00
