 1 - depth, m
 2 - temperature, C
 3 - salinity, kg/kg
 4 - turbulent kinetic energy, m**2/s**2
 5 - dissipation rate, m**2/s**3
 6 - kinematic heat conductance, m**2/s
 7 - modulus of horizontal velocity, m/s
 8 - Richardson number, n/d
   -0.000000    7.95283  0.0000E+00  0.1110E-02  0.8119E-02  0.1190E-03  0.3920E+00  0.9063E-01
   -0.042497    8.23016  0.0000E+00  0.5327E-03  0.4805E-02  0.2935E-03  0.8381E-01 -0.2177E-01
   -0.084995    8.30824  0.0000E+00  0.3592E-03  0.1107E-02  0.2918E-03  0.4955E-01  0.2317E-02
   -0.127493    8.34841  0.0000E+00  0.2708E-03  0.4624E-03  0.2665E-03  0.3915E-01  0.1575E+00
   -0.169992    8.37215  0.0000E+00  0.2095E-03  0.2242E-03  0.2571E-03  0.3214E-01  0.1339E+01
   -0.212490    8.39697  0.0000E+00  0.1639E-03  0.1234E-03  0.2654E-03  0.2645E-01  0.2801E+01
   -0.254990    8.41856  0.0000E+00  0.1304E-03  0.7885E-04  0.2927E-03  0.2218E-01  0.1492E+01
   -0.297489    8.43604  0.0000E+00  0.1055E-03  0.5251E-04  0.3144E-03  0.1924E-01  0.1383E+02
   -0.339989    8.45202  0.0000E+00  0.8718E-04  0.3632E-04  0.3410E-03  0.1701E-01  0.2852E+02
   -0.382489    8.46753  0.0000E+00  0.7367E-04  0.2529E-04  0.3817E-03  0.1487E-01  0.1385E+03
   -0.424989    8.47935  0.0000E+00  0.6358E-04  0.1739E-04  0.4152E-03  0.1332E-01  0.6987E+02
   -0.467489    8.49006  0.0000E+00  0.5588E-04  0.1172E-04  0.4582E-03  0.1170E-01  0.7695E+02
   -0.509990    8.49944  0.0000E+00  0.4992E-04  0.7788E-05  0.5014E-03  0.1020E-01  0.6165E+02
   -0.552491    8.50729  0.0000E+00  0.4526E-04  0.5132E-05  0.5456E-03  0.8887E-02  0.2831E+03
   -0.594992    8.51473  0.0000E+00  0.4153E-04  0.3289E-05  0.5972E-03  0.7687E-02  0.2135E+03
   -0.637493    8.52139  0.0000E+00  0.3845E-04  0.2088E-05  0.6591E-03  0.6642E-02  0.2308E+03
   -0.679994    8.52708  0.0000E+00  0.3589E-04  0.1346E-05  0.7213E-03  0.5818E-02  0.4485E+02
   -0.722495    8.53242  0.0000E+00  0.3373E-04  0.8748E-06  0.7845E-03  0.5104E-02  0.1781E+03
   -0.764996    8.53735  0.0000E+00  0.3193E-04  0.6376E-06  0.8504E-03  0.4510E-02  0.6348E+01
   -0.807498    8.54216  0.0000E+00  0.3036E-04  0.4893E-06  0.9260E-03  0.4031E-02  0.1108E+02
   -0.849999    8.54671  0.0000E+00  0.2898E-04  0.3872E-06  0.9824E-03  0.3617E-02  0.1710E+02
   -0.892500    8.55104  0.0000E+00  0.2773E-04  0.3222E-06  0.1034E-02  0.3250E-02  0.5978E+01
   -0.935002    8.55536  0.0000E+00  0.2659E-04  0.2745E-06  0.1069E-02  0.2932E-02  0.1148E+02
   -0.977503    8.55943  0.0000E+00  0.2554E-04  0.2384E-06  0.1089E-02  0.2642E-02  0.5724E+01
   -1.020004    8.56359  0.0000E+00  0.2456E-04  0.2106E-06  0.1099E-02  0.2383E-02  0.6088E+03
   -1.062505    8.56758  0.0000E+00  0.2363E-04  0.1889E-06  0.1082E-02  0.2144E-02  0.6537E+01
   -1.105006    8.57167  0.0000E+00  0.2279E-04  0.1720E-06  0.1151E-02  0.1919E-02  0.1142E+04
   -1.147507    8.57546  0.0000E+00  0.2204E-04  0.1596E-06  0.1088E-02  0.1729E-02  0.1686E+02
   -1.190008    8.57934  0.0000E+00  0.2134E-04  0.1511E-06  0.1020E-02  0.1548E-02  0.1567E+02
   -1.232509    8.58331  0.0000E+00  0.2060E-04  0.1457E-06  0.9845E-03  0.1352E-02  0.8795E+01
   -1.275009    8.58755  0.0000E+00  0.1987E-04  0.1438E-06  0.9381E-03  0.1177E-02  0.1146E+02
   -1.317509    8.59230  0.0000E+00  0.1911E-04  0.1469E-06  0.8788E-03  0.1023E-02  0.1510E+03
   -1.360009    8.59793  0.0000E+00  0.1827E-04  0.1581E-06  0.8106E-03  0.8861E-03  0.5795E+03
   -1.402509    8.60565  0.0000E+00  0.1728E-04  0.1847E-06  0.7463E-03  0.7660E-03 -0.2090E+05
   -1.445008    8.61529  0.0000E+00  0.1620E-04  0.2397E-06  0.6620E-03  0.6569E-03  0.3640E+05
   -1.487507    8.63035  0.0000E+00  0.1514E-04  0.3369E-06  0.5958E-03  0.5375E-03  0.8489E+04
   -1.530006    8.64225  0.0000E+00  0.1402E-04  0.5904E-06  0.4616E-03  0.4069E-03 -0.3064E+05
   -1.572505    8.71075  0.0000E+00  0.1302E-04  0.1069E-05  0.4839E-03  0.2786E-03  0.5543E+10
   -1.615003    8.66088  0.0000E+00  0.1115E-04  0.3067E-05  0.2343E-03  0.2277E-03 -0.2856E+10
   -1.657501    9.01736  0.0000E+00  0.8414E-05  0.6400E-05  0.2223E-03  0.1517E-03 -0.2210E+06
   -1.699998    8.94875  0.0000E+00  0.0000E+00  0.0000E+00  0.0000E+00  0.2697E-03  0.0000E+00
