 1 - depth, m
 2 - temperature, C
 3 - salinity, kg/kg
 4 - turbulent kinetic energy, m**2/s**2
 5 - dissipation rate, m**2/s**3
 6 - kinematic heat conductance, m**2/s
 7 - modulus of horizontal velocity, m/s
 8 - Richardson number, n/d
   -0.000000    4.26053  0.0000E+00  0.1679E-02  0.1484E-01  0.1654E-03  0.6633E+00  0.1324E-02
   -0.042497    4.63561  0.0000E+00  0.9366E-03  0.9140E-02  0.3407E-03  0.1520E+00 -0.1494E-02
   -0.084995    4.85436  0.0000E+00  0.6164E-03  0.2153E-02  0.4011E-03  0.8492E-01 -0.4790E-01
   -0.127493    4.91532  0.0000E+00  0.4628E-03  0.9439E-03  0.3849E-03  0.6446E-01 -0.2722E+00
   -0.169992    4.94828  0.0000E+00  0.3680E-03  0.5199E-03  0.3714E-03  0.5227E-01 -0.2220E-01
   -0.212491    4.97414  0.0000E+00  0.2977E-03  0.3049E-03  0.3715E-03  0.4353E-01  0.6782E-01
   -0.254990    5.00113  0.0000E+00  0.2451E-03  0.1741E-03  0.3830E-03  0.3687E-01  0.1342E+01
   -0.297489    5.02288  0.0000E+00  0.2073E-03  0.1070E-03  0.3981E-03  0.3269E-01  0.8561E+00
   -0.339989    5.03963  0.0000E+00  0.1786E-03  0.6469E-04  0.4092E-03  0.2953E-01 -0.5227E+00
   -0.382489    5.05695  0.0000E+00  0.1566E-03  0.3852E-04  0.4257E-03  0.2663E-01  0.6294E+02
   -0.424989    5.07086  0.0000E+00  0.1392E-03  0.2304E-04  0.4367E-03  0.2454E-01  0.4725E+01
   -0.467490    5.08409  0.0000E+00  0.1253E-03  0.1410E-04  0.4509E-03  0.2224E-01  0.1538E+02
   -0.509990    5.09765  0.0000E+00  0.1139E-03  0.8953E-05  0.4710E-03  0.2005E-01  0.3685E+03
   -0.552491    5.11030  0.0000E+00  0.1044E-03  0.5997E-05  0.4915E-03  0.1811E-01  0.1261E+02
   -0.594992    5.12199  0.0000E+00  0.9625E-04  0.4246E-05  0.5197E-03  0.1626E-01  0.1352E+02
   -0.637493    5.13245  0.0000E+00  0.8903E-04  0.3162E-05  0.5522E-03  0.1464E-01  0.2228E+02
   -0.679994    5.14223  0.0000E+00  0.8262E-04  0.2468E-05  0.5876E-03  0.1330E-01  0.9357E+03
   -0.722496    5.15151  0.0000E+00  0.7685E-04  0.1994E-05  0.6324E-03  0.1212E-01  0.4185E+02
   -0.764997    5.16033  0.0000E+00  0.7165E-04  0.1654E-05  0.6745E-03  0.1112E-01  0.1473E+03
   -0.807498    5.16870  0.0000E+00  0.6689E-04  0.1396E-05  0.7091E-03  0.1027E-01  0.8977E+02
   -0.850000    5.17698  0.0000E+00  0.6260E-04  0.1196E-05  0.7447E-03  0.9517E-02 -0.4111E+02
   -0.892501    5.18467  0.0000E+00  0.5868E-04  0.1035E-05  0.7738E-03  0.8834E-02 -0.7381E+03
   -0.935002    5.19244  0.0000E+00  0.5513E-04  0.9032E-06  0.8006E-03  0.8218E-02  0.1072E+03
   -0.977504    5.19974  0.0000E+00  0.5192E-04  0.7950E-06  0.8197E-03  0.7641E-02 -0.6062E+03
   -1.020005    5.20703  0.0000E+00  0.4897E-04  0.7046E-06  0.8328E-03  0.7105E-02  0.2334E+03
   -1.062506    5.21400  0.0000E+00  0.4625E-04  0.6288E-06  0.8375E-03  0.6589E-02  0.2274E+03
   -1.105007    5.22090  0.0000E+00  0.4375E-04  0.5664E-06  0.8433E-03  0.6094E-02  0.5606E+02
   -1.147508    5.22757  0.0000E+00  0.4148E-04  0.5167E-06  0.8173E-03  0.5612E-02  0.4617E+02
   -1.190009    5.23423  0.0000E+00  0.3947E-04  0.4793E-06  0.8758E-03  0.5118E-02  0.1970E+02
   -1.232510    5.24032  0.0000E+00  0.3761E-04  0.4520E-06  0.8293E-03  0.4673E-02  0.7437E+02
   -1.275010    5.24686  0.0000E+00  0.3578E-04  0.4352E-06  0.7882E-03  0.4268E-02  0.1888E+02
   -1.317510    5.25392  0.0000E+00  0.3384E-04  0.4312E-06  0.7655E-03  0.3847E-02  0.6543E+02
   -1.360010    5.26155  0.0000E+00  0.3183E-04  0.4467E-06  0.7241E-03  0.3459E-02  0.4321E+02
   -1.402510    5.27035  0.0000E+00  0.2965E-04  0.4963E-06  0.6665E-03  0.3110E-02  0.6522E+02
   -1.445010    5.28138  0.0000E+00  0.2744E-04  0.5955E-06  0.5975E-03  0.2776E-02  0.3868E+03
   -1.487509    5.29437  0.0000E+00  0.2516E-04  0.7752E-06  0.5202E-03  0.2386E-02  0.3360E+03
   -1.530008    5.31005  0.0000E+00  0.2269E-04  0.1153E-05  0.4376E-03  0.1878E-02  0.1328E+04
   -1.572506    5.34415  0.0000E+00  0.2033E-04  0.2034E-05  0.4364E-03  0.1393E-02 -0.4429E+05
   -1.615004    5.35253  0.0000E+00  0.1670E-04  0.5335E-05  0.2471E-03  0.1170E-02 -0.8068E+08
   -1.657502    5.59873  0.0000E+00  0.1189E-04  0.1084E-04  0.2100E-03  0.8700E-03 -0.2945E+07
   -1.699999    5.66290  0.0000E+00  0.0000E+00  0.0000E+00  0.0000E+00  0.1491E-02  0.0000E+00
