 1 - depth, m
 2 - temperature, C
 3 - salinity, kg/kg
 4 - turbulent kinetic energy, m**2/s**2
 5 - dissipation rate, m**2/s**3
 6 - kinematic heat conductance, m**2/s
 7 - modulus of horizontal velocity, m/s
 8 - Richardson number, n/d
   -0.000000    6.26896  0.0000E+00  0.2173E-02  0.2776E-01  0.2130E-03  0.7685E+00  0.1125E-02
   -0.042497    6.75387  0.0000E+00  0.1088E-02  0.1709E-01  0.3409E-03  0.1662E+00 -0.5758E-01
   -0.084995    7.00914  0.0000E+00  0.6897E-03  0.5786E-02  0.4384E-03  0.8883E-01  0.5087E-02
   -0.127494    7.09807  0.0000E+00  0.5008E-03  0.2909E-02  0.3909E-03  0.6603E-01  0.2083E+01
   -0.169992    7.14724  0.0000E+00  0.3862E-03  0.1843E-02  0.3494E-03  0.5242E-01  0.8982E-01
   -0.212491    7.18201  0.0000E+00  0.3011E-03  0.1175E-02  0.3519E-03  0.4245E-01  0.9074E+01
   -0.254990    7.21759  0.0000E+00  0.2411E-03  0.7912E-03  0.3568E-03  0.3487E-01 -0.1179E+01
   -0.297490    7.24270  0.0000E+00  0.1972E-03  0.5228E-03  0.3756E-03  0.3024E-01  0.3327E+02
   -0.339990    7.26237  0.0000E+00  0.1638E-03  0.3331E-03  0.3872E-03  0.2716E-01  0.4982E+02
   -0.382490    7.28164  0.0000E+00  0.1386E-03  0.2034E-03  0.4057E-03  0.2398E-01  0.3973E+03
   -0.424990    7.29839  0.0000E+00  0.1192E-03  0.1185E-03  0.4143E-03  0.2176E-01  0.7020E+01
   -0.467491    7.31289  0.0000E+00  0.1044E-03  0.6590E-04  0.4429E-03  0.1930E-01  0.2548E+03
   -0.509991    7.32795  0.0000E+00  0.9286E-04  0.3691E-04  0.4805E-03  0.1701E-01  0.6326E+03
   -0.552492    7.33903  0.0000E+00  0.8369E-04  0.2090E-04  0.5139E-03  0.1507E-01  0.4203E+04
   -0.594993    7.35216  0.0000E+00  0.7616E-04  0.1208E-04  0.5727E-03  0.1325E-01  0.1755E+05
   -0.637494    7.36153  0.0000E+00  0.6983E-04  0.7176E-05  0.6326E-03  0.1171E-01  0.2948E+03
   -0.679996    7.37057  0.0000E+00  0.6441E-04  0.4507E-05  0.6907E-03  0.1049E-01  0.7137E+03
   -0.722497    7.37823  0.0000E+00  0.5966E-04  0.2963E-05  0.7640E-03  0.9435E-02  0.1205E+04
   -0.764998    7.38631  0.0000E+00  0.5550E-04  0.2095E-05  0.8344E-03  0.8542E-02  0.1394E+04
   -0.807500    7.39230  0.0000E+00  0.5178E-04  0.1558E-05  0.8929E-03  0.7813E-02 -0.1121E+05
   -0.850001    7.39977  0.0000E+00  0.4844E-04  0.1176E-05  0.9408E-03  0.7144E-02  0.2643E+05
   -0.892503    7.40568  0.0000E+00  0.4543E-04  0.8859E-06  0.9878E-03  0.6535E-02 -0.2041E+04
   -0.935004    7.41208  0.0000E+00  0.4277E-04  0.7018E-06  0.1020E-02  0.5998E-02  0.8194E+03
   -0.977506    7.41791  0.0000E+00  0.4034E-04  0.5774E-06  0.1031E-02  0.5492E-02  0.2061E+04
   -1.020007    7.42356  0.0000E+00  0.3811E-04  0.4884E-06  0.1046E-02  0.5017E-02  0.8610E+02
   -1.062508    7.42916  0.0000E+00  0.3606E-04  0.4213E-06  0.1049E-02  0.4568E-02  0.6094E+02
   -1.105009    7.43455  0.0000E+00  0.3417E-04  0.3689E-06  0.1049E-02  0.4141E-02  0.9012E+02
   -1.147510    7.43985  0.0000E+00  0.3248E-04  0.3289E-06  0.1042E-02  0.3725E-02 -0.1134E+03
   -1.190011    7.44497  0.0000E+00  0.3095E-04  0.2990E-06  0.1020E-02  0.3320E-02  0.5400E+02
   -1.232512    7.44998  0.0000E+00  0.2946E-04  0.2762E-06  0.9913E-03  0.2924E-02  0.7484E+02
   -1.275012    7.45520  0.0000E+00  0.2795E-04  0.2601E-06  0.9536E-03  0.2553E-02  0.9556E+02
   -1.317513    7.46083  0.0000E+00  0.2643E-04  0.2520E-06  0.9028E-03  0.2218E-02  0.1247E+03
   -1.360013    7.46729  0.0000E+00  0.2485E-04  0.2557E-06  0.8428E-03  0.1919E-02  0.1830E+03
   -1.402513    7.47493  0.0000E+00  0.2314E-04  0.2812E-06  0.7721E-03  0.1661E-02  0.1371E+04
   -1.445012    7.48555  0.0000E+00  0.2143E-04  0.3417E-06  0.6952E-03  0.1425E-02  0.2528E+04
   -1.487511    7.49880  0.0000E+00  0.1976E-04  0.4636E-06  0.6160E-03  0.1180E-02  0.8005E+04
   -1.530010    7.51525  0.0000E+00  0.1798E-04  0.7751E-06  0.4941E-03  0.9045E-03 -0.1025E+05
   -1.572509    7.56281  0.0000E+00  0.1630E-04  0.1524E-05  0.4849E-03  0.6306E-03  0.3573E+07
   -1.615007    7.54662  0.0000E+00  0.1364E-04  0.4800E-05  0.2603E-03  0.5023E-03 -0.1546E+09
   -1.657505    7.85279  0.0000E+00  0.9996E-05  0.9372E-05  0.2298E-03  0.3371E-03 -0.3187E+09
   -1.700002    7.83630  0.0000E+00  0.0000E+00  0.0000E+00  0.0000E+00  0.5977E-03  0.0000E+00
