 1 - depth, m
 2 - temperature, C
 3 - salinity, kg/kg
 4 - turbulent kinetic energy, m**2/s**2
 5 - dissipation rate, m**2/s**3
 6 - kinematic heat conductance, m**2/s
 7 - modulus of horizontal velocity, m/s
 8 - Richardson number, n/d
   -0.000000    6.70246  0.0000E+00  0.7180E-03  0.3236E-02  0.7888E-04  0.3090E+00 -0.8569E-02
   -0.042497    7.06486  0.0000E+00  0.3550E-03  0.1138E-02  0.1813E-03  0.6862E-01 -0.3516E-01
   -0.084995    7.21228  0.0000E+00  0.2328E-03  0.4386E-03  0.2346E-03  0.3936E-01  0.2772E+01
   -0.127493    7.28324  0.0000E+00  0.1685E-03  0.2228E-03  0.2208E-03  0.3053E-01  0.8757E+01
   -0.169991    7.32399  0.0000E+00  0.1280E-03  0.1357E-03  0.2356E-03  0.2457E-01  0.6053E+01
   -0.212490    7.36005  0.0000E+00  0.9833E-04  0.8425E-04  0.2655E-03  0.1985E-01  0.1093E+02
   -0.254989    7.39620  0.0000E+00  0.7725E-04  0.5277E-04  0.3143E-03  0.1615E-01  0.5443E+01
   -0.297488    7.42432  0.0000E+00  0.6231E-04  0.3215E-04  0.3646E-03  0.1369E-01  0.5532E+01
   -0.339987    7.44889  0.0000E+00  0.5144E-04  0.1882E-04  0.4053E-03  0.1191E-01  0.7194E+01
   -0.382487    7.46733  0.0000E+00  0.4324E-04  0.1026E-04  0.4492E-03  0.1025E-01  0.1196E+03
   -0.424987    7.48544  0.0000E+00  0.3734E-04  0.5548E-05  0.4898E-03  0.9001E-02  0.4039E+02
   -0.467488    7.49968  0.0000E+00  0.3324E-04  0.2987E-05  0.5337E-03  0.7724E-02  0.6421E+03
   -0.509988    7.51526  0.0000E+00  0.3021E-04  0.1682E-05  0.5874E-03  0.6577E-02  0.3835E+02
   -0.552489    7.52589  0.0000E+00  0.2792E-04  0.1014E-05  0.6478E-03  0.5627E-02  0.1271E+03
   -0.594989    7.53671  0.0000E+00  0.2617E-04  0.6429E-06  0.7105E-03  0.4818E-02  0.9623E+02
   -0.637490    7.54663  0.0000E+00  0.2477E-04  0.4413E-06  0.7845E-03  0.4122E-02  0.1109E+02
   -0.679991    7.55437  0.0000E+00  0.2359E-04  0.3265E-06  0.8564E-03  0.3569E-02 -0.1971E+03
   -0.722492    7.56069  0.0000E+00  0.2260E-04  0.2572E-06  0.9278E-03  0.3096E-02  0.1989E+02
   -0.764994    7.56694  0.0000E+00  0.2176E-04  0.2122E-06  0.9967E-03  0.2707E-02  0.4882E+02
   -0.807495    7.57250  0.0000E+00  0.2099E-04  0.1794E-06  0.1035E-02  0.2388E-02  0.1663E+02
   -0.849996    7.57811  0.0000E+00  0.2030E-04  0.1546E-06  0.1074E-02  0.2107E-02  0.3606E+01
   -0.892497    7.58329  0.0000E+00  0.1967E-04  0.1353E-06  0.1099E-02  0.1866E-02  0.4912E+01
   -0.934998    7.58839  0.0000E+00  0.1909E-04  0.1201E-06  0.1113E-02  0.1659E-02  0.3493E+01
   -0.977499    7.59332  0.0000E+00  0.1854E-04  0.1080E-06  0.1118E-02  0.1474E-02  0.3515E+01
   -1.020001    7.59820  0.0000E+00  0.1803E-04  0.9851E-07  0.1116E-02  0.1311E-02  0.3660E+01
   -1.062502    7.60299  0.0000E+00  0.1753E-04  0.9115E-07  0.1104E-02  0.1162E-02  0.3702E+01
   -1.105002    7.60775  0.0000E+00  0.1706E-04  0.8563E-07  0.1082E-02  0.1028E-02  0.3502E+01
   -1.147503    7.61251  0.0000E+00  0.1660E-04  0.8194E-07  0.1055E-02  0.9012E-03  0.4138E+01
   -1.190004    7.61718  0.0000E+00  0.1618E-04  0.8004E-07  0.1018E-02  0.7797E-03  0.4302E+01
   -1.232504    7.62180  0.0000E+00  0.1575E-04  0.7997E-07  0.9785E-03  0.6651E-03  0.1462E+02
   -1.275004    7.62674  0.0000E+00  0.1532E-04  0.8214E-07  0.9269E-03  0.5652E-03 -0.3005E+02
   -1.317505    7.63235  0.0000E+00  0.1487E-04  0.8724E-07  0.8780E-03  0.4796E-03  0.4855E+01
   -1.360004    7.63870  0.0000E+00  0.1436E-04  0.9797E-07  0.8076E-03  0.4080E-03  0.4917E+04
   -1.402504    7.64744  0.0000E+00  0.1374E-04  0.1181E-06  0.7370E-03  0.3476E-03 -0.2463E+04
   -1.445003    7.65804  0.0000E+00  0.1301E-04  0.1558E-06  0.6404E-03  0.2940E-03  0.2272E+05
   -1.487502    7.67454  0.0000E+00  0.1229E-04  0.2156E-06  0.5878E-03  0.2351E-03  0.1338E+05
   -1.530001    7.68638  0.0000E+00  0.1151E-04  0.3813E-06  0.4618E-03  0.1776E-03 -0.4791E+05
   -1.572499    7.75814  0.0000E+00  0.1081E-04  0.6799E-06  0.4793E-03  0.1178E-03  0.5336E+10
   -1.614997    7.70843  0.0000E+00  0.9294E-05  0.1956E-05  0.2319E-03  0.9554E-04 -0.5786E+10
   -1.657495    8.07700  0.0000E+00  0.7047E-05  0.4120E-05  0.2100E-03  0.5944E-04  0.8429E+06
   -1.699992    8.03460  0.0000E+00  0.0000E+00  0.0000E+00  0.0000E+00  0.1088E-03  0.0000E+00
