 1 - depth, m
 2 - temperature, C
 3 - salinity, kg/kg
 4 - turbulent kinetic energy, m**2/s**2
 5 - dissipation rate, m**2/s**3
 6 - kinematic heat conductance, m**2/s
 7 - modulus of horizontal velocity, m/s
 8 - Richardson number, n/d
   -0.000000    1.36482  0.0000E+00  0.2458E-02  0.3721E-01  0.1690E-03  0.8662E+00  0.2874E-02
   -0.042494    1.70773  0.0000E+00  0.1324E-02  0.2354E-01  0.4773E-03  0.1918E+00  0.9476E-02
   -0.084988    1.87128  0.0000E+00  0.8753E-03  0.7079E-02  0.5433E-03  0.1007E+00  0.1413E+00
   -0.127483    1.93756  0.0000E+00  0.6677E-03  0.4374E-02  0.5218E-03  0.7554E-01  0.4908E-01
   -0.169978    1.97989  0.0000E+00  0.5380E-03  0.3158E-02  0.4915E-03  0.6174E-01  0.1253E+00
   -0.212474    2.01840  0.0000E+00  0.4443E-03  0.2340E-02  0.4872E-03  0.5137E-01  0.1716E+00
   -0.254970    2.05676  0.0000E+00  0.3698E-03  0.1750E-02  0.4676E-03  0.4367E-01  0.1144E+02
   -0.297466    2.08690  0.0000E+00  0.3144E-03  0.1301E-02  0.4582E-03  0.3948E-01  0.1118E+02
   -0.339962    2.11251  0.0000E+00  0.2705E-03  0.9605E-03  0.4516E-03  0.3650E-01  0.5523E+02
   -0.382459    2.13530  0.0000E+00  0.2326E-03  0.7019E-03  0.4467E-03  0.3329E-01  0.2400E+02
   -0.424955    2.15866  0.0000E+00  0.2039E-03  0.5108E-03  0.4406E-03  0.3080E-01  0.7366E+02
   -0.467452    2.17954  0.0000E+00  0.1806E-03  0.3692E-03  0.4342E-03  0.2804E-01  0.1583E+02
   -0.509950    2.20082  0.0000E+00  0.1620E-03  0.2645E-03  0.4292E-03  0.2535E-01  0.1363E+02
   -0.552447    2.22182  0.0000E+00  0.1463E-03  0.1856E-03  0.4226E-03  0.2290E-01  0.2649E+02
   -0.594945    2.24712  0.0000E+00  0.1319E-03  0.1279E-03  0.4169E-03  0.2022E-01  0.1617E+02
   -0.637442    2.26983  0.0000E+00  0.1193E-03  0.8695E-04  0.4149E-03  0.1800E-01  0.1708E+03
   -0.679940    2.29223  0.0000E+00  0.1083E-03  0.5787E-04  0.4083E-03  0.1624E-01  0.4171E+04
   -0.722438    2.31763  0.0000E+00  0.9841E-04  0.3750E-04  0.4043E-03  0.1466E-01  0.1636E+06
   -0.764936    2.34656  0.0000E+00  0.8954E-04  0.2376E-04  0.3994E-03  0.1333E-01  0.1687E+10
   -0.807434    2.38042  0.0000E+00  0.8154E-04  0.1483E-04  0.3913E-03  0.1226E-01  0.4972E+08
   -0.849932    2.42635  0.0000E+00  0.7438E-04  0.9413E-05  0.3809E-03  0.1129E-01  0.5615E+09
   -0.892430    2.50063  0.0000E+00  0.6799E-04  0.6076E-05  0.3726E-03  0.1038E-01  0.6884E+09
   -0.934928    2.65180  0.0000E+00  0.6244E-04  0.4074E-05  0.3699E-03  0.9560E-02  0.1913E+10
   -0.977426    2.85328  0.0000E+00  0.5753E-04  0.2836E-05  0.3804E-03  0.8751E-02  0.9805E+12
   -1.019924    3.10221  0.0000E+00  0.5324E-04  0.2051E-05  0.3953E-03  0.8023E-02  0.1921E+11
   -1.062422    3.37195  0.0000E+00  0.4957E-04  0.1546E-05  0.4091E-03  0.7280E-02  0.7330E+10
   -1.104919    3.63904  0.0000E+00  0.4642E-04  0.1213E-05  0.4280E-03  0.6661E-02  0.5024E+11
   -1.147417    3.86870  0.0000E+00  0.4382E-04  0.9935E-06  0.4388E-03  0.6040E-02  0.9570E+11
   -1.189914    4.00963  0.0000E+00  0.4160E-04  0.8500E-06  0.4447E-03  0.5472E-02  0.1460E+11
   -1.232412    4.10060  0.0000E+00  0.3954E-04  0.7535E-06  0.4493E-03  0.4954E-02  0.2151E+11
   -1.274909    4.15518  0.0000E+00  0.3759E-04  0.6907E-06  0.4475E-03  0.4525E-02  0.1656E+12
   -1.317406    4.19476  0.0000E+00  0.3569E-04  0.6566E-06  0.4430E-03  0.4143E-02  0.5475E+11
   -1.359902    4.23428  0.0000E+00  0.3374E-04  0.6521E-06  0.4314E-03  0.3792E-02  0.2252E+13
   -1.402399    4.27167  0.0000E+00  0.3165E-04  0.6873E-06  0.4127E-03  0.3474E-02  0.2130E+14
   -1.444895    4.30639  0.0000E+00  0.2962E-04  0.7764E-06  0.3831E-03  0.3160E-02 -0.3197E+13
   -1.487390    4.34207  0.0000E+00  0.2762E-04  0.9454E-06  0.3496E-03  0.2795E-02 -0.4925E+13
   -1.529886    4.37950  0.0000E+00  0.2529E-04  0.1278E-05  0.3062E-03  0.2292E-02 -0.8374E+13
   -1.572381    4.42178  0.0000E+00  0.2276E-04  0.2092E-05  0.2744E-03  0.1785E-02 -0.2434E+14
   -1.614876    4.48931  0.0000E+00  0.1877E-04  0.5008E-05  0.1802E-03  0.1510E-02 -0.5499E+14
   -1.657370    4.63014  0.0000E+00  0.1343E-04  0.1150E-04  0.1136E-03  0.1195E-02 -0.4142E+15
   -1.699864    4.99188  0.0000E+00  0.0000E+00  0.0000E+00  0.0000E+00  0.1841E-02  0.0000E+00
