 1 - depth, m
 2 - temperature, C
 3 - salinity, kg/kg
 4 - turbulent kinetic energy, m**2/s**2
 5 - dissipation rate, m**2/s**3
 6 - kinematic heat conductance, m**2/s
 7 - modulus of horizontal velocity, m/s
 8 - Richardson number, n/d
   -0.000000    9.93826  0.0000E+00  0.5594E-03  0.1294E-02  0.1163E-03  0.2820E+00  0.8886E-01
   -0.042497   10.16321  0.0000E+00  0.2739E-03  0.3987E-03  0.2265E-03  0.6325E-01 -0.3938E-01
   -0.084995   10.22779  0.0000E+00  0.1825E-03  0.1663E-03  0.1894E-03  0.3737E-01  0.6767E+00
   -0.127493   10.27288  0.0000E+00  0.1344E-03  0.8825E-04  0.1791E-03  0.2880E-01  0.1462E+01
   -0.169991   10.30266  0.0000E+00  0.1011E-03  0.4497E-04  0.1874E-03  0.2315E-01  0.7327E+01
   -0.212490   10.32865  0.0000E+00  0.7727E-04  0.2396E-04  0.2201E-03  0.1864E-01  0.2902E+02
   -0.254989   10.35060  0.0000E+00  0.5999E-04  0.1234E-04  0.2629E-03  0.1521E-01 -0.7256E+04
   -0.297489   10.36812  0.0000E+00  0.4790E-04  0.6396E-05  0.2934E-03  0.1278E-01  0.2146E+03
   -0.339988   10.38424  0.0000E+00  0.3945E-04  0.3379E-05  0.3418E-03  0.1086E-01  0.4228E+03
   -0.382488   10.39848  0.0000E+00  0.3364E-04  0.1866E-05  0.3954E-03  0.9159E-02  0.3027E+03
   -0.424988   10.40882  0.0000E+00  0.2974E-04  0.1141E-05  0.4472E-03  0.7910E-02  0.5129E+02
   -0.467489   10.41835  0.0000E+00  0.2701E-04  0.7325E-06  0.4998E-03  0.6782E-02  0.9744E+02
   -0.509989   10.42619  0.0000E+00  0.2510E-04  0.4963E-06  0.5539E-03  0.5821E-02  0.7278E+02
   -0.552490   10.43297  0.0000E+00  0.2378E-04  0.3619E-06  0.6060E-03  0.5000E-02  0.7247E+02
   -0.594991   10.43874  0.0000E+00  0.2283E-04  0.2800E-06  0.6610E-03  0.4276E-02  0.4010E+02
   -0.637492   10.44370  0.0000E+00  0.2209E-04  0.2275E-06  0.7214E-03  0.3642E-02  0.1415E+02
   -0.679993   10.44821  0.0000E+00  0.2152E-04  0.1912E-06  0.7817E-03  0.3100E-02  0.8706E+01
   -0.722494   10.45232  0.0000E+00  0.2104E-04  0.1644E-06  0.8426E-03  0.2632E-02  0.2577E+01
   -0.764996   10.45627  0.0000E+00  0.2063E-04  0.1436E-06  0.9037E-03  0.2240E-02  0.2315E+01
   -0.807497   10.46013  0.0000E+00  0.2026E-04  0.1271E-06  0.9588E-03  0.1920E-02  0.2110E+01
   -0.849998   10.46394  0.0000E+00  0.1992E-04  0.1144E-06  0.1007E-02  0.1654E-02  0.2043E+01
   -0.892500   10.46767  0.0000E+00  0.1961E-04  0.1045E-06  0.1051E-02  0.1432E-02  0.2105E+01
   -0.935001   10.47136  0.0000E+00  0.1930E-04  0.9712E-07  0.1084E-02  0.1246E-02  0.2158E+01
   -0.977502   10.47497  0.0000E+00  0.1899E-04  0.9177E-07  0.1108E-02  0.1088E-02  0.2248E+01
   -1.020003   10.47855  0.0000E+00  0.1867E-04  0.8817E-07  0.1121E-02  0.9535E-03  0.2403E+01
   -1.062504   10.48208  0.0000E+00  0.1835E-04  0.8609E-07  0.1121E-02  0.8372E-03  0.2469E+01
   -1.105005   10.48562  0.0000E+00  0.1802E-04  0.8543E-07  0.1106E-02  0.7367E-03  0.2536E+01
   -1.147506   10.48917  0.0000E+00  0.1770E-04  0.8621E-07  0.1080E-02  0.6469E-03  0.2682E+01
   -1.190007   10.49273  0.0000E+00  0.1739E-04  0.8856E-07  0.1039E-02  0.5650E-03  0.2996E+01
   -1.232508   10.49630  0.0000E+00  0.1708E-04  0.9307E-07  0.9939E-03  0.4906E-03  0.3875E+01
   -1.275008   10.50026  0.0000E+00  0.1675E-04  0.1010E-06  0.9403E-03  0.4275E-03  0.5187E+01
   -1.317508   10.50499  0.0000E+00  0.1635E-04  0.1138E-06  0.8842E-03  0.3734E-03  0.4951E+02
   -1.360008   10.51090  0.0000E+00  0.1584E-04  0.1358E-06  0.8083E-03  0.3263E-03  0.1146E+03
   -1.402508   10.52012  0.0000E+00  0.1514E-04  0.1719E-06  0.7290E-03  0.2809E-03  0.6721E+04
   -1.445007   10.52870  0.0000E+00  0.1429E-04  0.2402E-06  0.6424E-03  0.2417E-03  0.1728E+04
   -1.487506   10.54740  0.0000E+00  0.1352E-04  0.3410E-06  0.5752E-03  0.1865E-03  0.3102E+05
   -1.530005   10.55506  0.0000E+00  0.1271E-04  0.6189E-06  0.4506E-03  0.1427E-03 -0.5375E+05
   -1.572503   10.64380  0.0000E+00  0.1203E-04  0.1115E-05  0.4840E-03  0.9343E-04  0.3558E+10
   -1.615001   10.56303  0.0000E+00  0.1053E-04  0.3132E-05  0.2443E-03  0.7745E-04 -0.1314E+10
   -1.657499   10.94212  0.0000E+00  0.8124E-05  0.6428E-05  0.2553E-03  0.4838E-04  0.1930E+06
   -1.699996   10.85179  0.0000E+00  0.0000E+00  0.0000E+00  0.0000E+00  0.9595E-04  0.0000E+00
