 1 - depth, m
 2 - temperature, C
 3 - salinity, kg/kg
 4 - turbulent kinetic energy, m**2/s**2
 5 - dissipation rate, m**2/s**3
 6 - kinematic heat conductance, m**2/s
 7 - modulus of horizontal velocity, m/s
 8 - Richardson number, n/d
   -0.000000   15.69236  0.0000E+00  0.4571E-04  0.9794E-05  0.3095E-04  0.4040E-01 -0.2450E-01
   -0.042498   15.80072  0.0000E+00  0.2910E-04  0.2685E-05  0.7163E-04  0.1411E-01 -0.1346E+00
   -0.084996   15.83137  0.0000E+00  0.2324E-04  0.1211E-05  0.1543E-03  0.9366E-02  0.6068E+02
   -0.127494   15.84774  0.0000E+00  0.2026E-04  0.6634E-06  0.2669E-03  0.7090E-02  0.2118E+03
   -0.169993   15.85780  0.0000E+00  0.1866E-04  0.4110E-06  0.3710E-03  0.5700E-02  0.7970E+02
   -0.212492   15.86479  0.0000E+00  0.1788E-04  0.2785E-06  0.4699E-03  0.4703E-02  0.1433E+02
   -0.254992   15.87003  0.0000E+00  0.1765E-04  0.2040E-06  0.5562E-03  0.3954E-02  0.4687E+01
   -0.297491   15.87430  0.0000E+00  0.1777E-04  0.1592E-06  0.6408E-03  0.3379E-02  0.3342E+01
   -0.339991   15.87794  0.0000E+00  0.1811E-04  0.1313E-06  0.7246E-03  0.2921E-02  0.2629E+01
   -0.382492   15.88112  0.0000E+00  0.1856E-04  0.1130E-06  0.8103E-03  0.2537E-02  0.2161E+01
   -0.424992   15.88395  0.0000E+00  0.1908E-04  0.1006E-06  0.8897E-03  0.2212E-02  0.1853E+01
   -0.467493   15.88650  0.0000E+00  0.1960E-04  0.9197E-07  0.9672E-03  0.1921E-02  0.1829E+01
   -0.509994   15.88883  0.0000E+00  0.2010E-04  0.8586E-07  0.1049E-02  0.1657E-02  0.1779E+01
   -0.552495   15.89097  0.0000E+00  0.2056E-04  0.8164E-07  0.1133E-02  0.1420E-02  0.1723E+01
   -0.594996   15.89296  0.0000E+00  0.2096E-04  0.7893E-07  0.1219E-02  0.1209E-02  0.1641E+01
   -0.637498   15.89480  0.0000E+00  0.2131E-04  0.7742E-07  0.1316E-02  0.1025E-02  0.1532E+01
   -0.679999   15.89654  0.0000E+00  0.2160E-04  0.7690E-07  0.1426E-02  0.8727E-03  0.1461E+01
   -0.722501   15.89819  0.0000E+00  0.2182E-04  0.7718E-07  0.1544E-02  0.7485E-03  0.1395E+01
   -0.765002   15.89977  0.0000E+00  0.2197E-04  0.7810E-07  0.1646E-02  0.6505E-03  0.1343E+01
   -0.807504   15.90132  0.0000E+00  0.2206E-04  0.7949E-07  0.1706E-02  0.5752E-03  0.1311E+01
   -0.850006   15.90287  0.0000E+00  0.2208E-04  0.8124E-07  0.1722E-02  0.5161E-03  0.1286E+01
   -0.892507   15.90444  0.0000E+00  0.2205E-04  0.8334E-07  0.1702E-02  0.4689E-03  0.1253E+01
   -0.935009   15.90608  0.0000E+00  0.2197E-04  0.8577E-07  0.1667E-02  0.4306E-03  0.1273E+01
   -0.977511   15.90778  0.0000E+00  0.2184E-04  0.8872E-07  0.1617E-02  0.3986E-03  0.1373E+01
   -1.020012   15.90960  0.0000E+00  0.2166E-04  0.9230E-07  0.1559E-02  0.3708E-03  0.1239E+01
   -1.062514   15.91150  0.0000E+00  0.2144E-04  0.9679E-07  0.1499E-02  0.3460E-03 -0.7964E+01
   -1.105015   15.91356  0.0000E+00  0.2116E-04  0.1026E-06  0.1430E-02  0.3228E-03  0.1697E+01
   -1.147516   15.91567  0.0000E+00  0.2083E-04  0.1104E-06  0.1376E-02  0.3007E-03  0.8108E+01
   -1.190018   15.91810  0.0000E+00  0.2046E-04  0.1211E-06  0.1277E-02  0.2777E-03  0.3755E+02
   -1.232518   15.92041  0.0000E+00  0.2003E-04  0.1370E-06  0.1228E-02  0.2545E-03  0.6815E+03
   -1.275019   15.92371  0.0000E+00  0.1949E-04  0.1608E-06  0.1157E-02  0.2306E-03  0.2528E+03
   -1.317520   15.92700  0.0000E+00  0.1884E-04  0.1997E-06  0.1042E-02  0.2076E-03  0.9866E+03
   -1.360020   15.93312  0.0000E+00  0.1802E-04  0.2568E-06  0.9647E-03  0.1825E-03  0.5708E+04
   -1.402520   15.93727  0.0000E+00  0.1701E-04  0.3748E-06  0.8460E-03  0.1604E-03 -0.3189E+04
   -1.445020   15.94992  0.0000E+00  0.1583E-04  0.5248E-06  0.7600E-03  0.1358E-03  0.5055E+06
   -1.487519   15.95582  0.0000E+00  0.1484E-04  0.7630E-06  0.6398E-03  0.1101E-03  0.1724E+05
   -1.530018   15.98060  0.0000E+00  0.1370E-04  0.1472E-05  0.5771E-03  0.7930E-04  0.1828E+07
   -1.572517   16.02347  0.0000E+00  0.1289E-04  0.2282E-05  0.5869E-03  0.5234E-04  0.6487E+12
   -1.615016   15.97271  0.0000E+00  0.1125E-04  0.7705E-05  0.3098E-03  0.4329E-04 -0.8684E+10
   -1.657514   16.26988  0.0000E+00  0.9031E-05  0.1320E-04  0.3964E-03  0.2673E-04 -0.1131E+06
   -1.700011   16.16591  0.0000E+00  0.0000E+00  0.0000E+00  0.0000E+00  0.6144E-04  0.0000E+00
