 1 - depth, m
 2 - temperature, C
 3 - salinity, kg/kg
 4 - turbulent kinetic energy, m**2/s**2
 5 - dissipation rate, m**2/s**3
 6 - kinematic heat conductance, m**2/s
 7 - modulus of horizontal velocity, m/s
 8 - Richardson number, n/d
   -0.000000    7.93067  0.0000E+00  0.4537E-02  0.1595E+00  0.2798E-03  0.1349E+01  0.2100E-02
   -0.042498    8.21596  0.0000E+00  0.2242E-02  0.1128E+00  0.4089E-03  0.3075E+00 -0.3621E-01
   -0.084996    8.45682  0.0000E+00  0.1294E-02  0.3651E-01  0.5722E-03  0.1466E+00 -0.7301E-01
   -0.127494    8.54299  0.0000E+00  0.9553E-03  0.2583E-01  0.5788E-03  0.1014E+00  0.6520E+00
   -0.169993    8.57969  0.0000E+00  0.7560E-03  0.1843E-01  0.5503E-03  0.7812E-01  0.2659E+00
   -0.212492    8.61103  0.0000E+00  0.6095E-03  0.1366E-01  0.5369E-03  0.6227E-01  0.1476E+01
   -0.254992    8.64320  0.0000E+00  0.5146E-03  0.1068E-01  0.5799E-03  0.5183E-01  0.5574E+01
   -0.297491    8.65800  0.0000E+00  0.4329E-03  0.8356E-02  0.5868E-03  0.4667E-01  0.3929E+01
   -0.339992    8.66749  0.0000E+00  0.3717E-03  0.6551E-02  0.5901E-03  0.4288E-01  0.2807E+02
   -0.382492    8.67749  0.0000E+00  0.3243E-03  0.5128E-02  0.6046E-03  0.3903E-01  0.1257E+03
   -0.424992    8.68431  0.0000E+00  0.2862E-03  0.4022E-02  0.6136E-03  0.3668E-01 -0.3752E+02
   -0.467493    8.69164  0.0000E+00  0.2554E-03  0.3159E-02  0.6161E-03  0.3358E-01  0.1562E+03
   -0.509994    8.69908  0.0000E+00  0.2296E-03  0.2494E-02  0.6442E-03  0.3030E-01  0.5002E+02
   -0.552495    8.70596  0.0000E+00  0.2090E-03  0.1987E-02  0.6549E-03  0.2752E-01  0.2243E+04
   -0.594997    8.71445  0.0000E+00  0.1905E-03  0.1591E-02  0.7132E-03  0.2433E-01  0.9943E+02
   -0.637498    8.72174  0.0000E+00  0.1739E-03  0.1274E-02  0.7584E-03  0.2160E-01  0.1379E+03
   -0.679999    8.72656  0.0000E+00  0.1595E-03  0.1018E-02  0.7982E-03  0.1977E-01  0.2441E+03
   -0.722501    8.73284  0.0000E+00  0.1468E-03  0.8081E-03  0.8610E-03  0.1811E-01  0.8171E+04
   -0.765003    8.73727  0.0000E+00  0.1357E-03  0.6408E-03  0.9315E-03  0.1679E-01  0.2311E+03
   -0.807504    8.74488  0.0000E+00  0.1263E-03  0.5015E-03  0.9982E-03  0.1579E-01 -0.8607E+03
   -0.850006    8.74814  0.0000E+00  0.1180E-03  0.3851E-03  0.1051E-02  0.1486E-01  0.3936E+03
   -0.892508    8.75334  0.0000E+00  0.1101E-03  0.2905E-03  0.1100E-02  0.1398E-01  0.3918E+02
   -0.935010    8.75994  0.0000E+00  0.1027E-03  0.2107E-03  0.1145E-02  0.1318E-01  0.2066E+03
   -0.977511    8.76341  0.0000E+00  0.9609E-04  0.1482E-03  0.1177E-02  0.1232E-01 -0.5361E+02
   -1.020013    8.76935  0.0000E+00  0.9013E-04  0.1030E-03  0.1188E-02  0.1157E-01  0.3417E+03
   -1.062514    8.77430  0.0000E+00  0.8481E-04  0.6771E-04  0.1209E-02  0.1080E-01  0.1921E+04
   -1.105016    8.77901  0.0000E+00  0.8030E-04  0.4605E-04  0.1186E-02  0.1011E-01  0.8570E+02
   -1.147517    8.78385  0.0000E+00  0.7618E-04  0.3050E-04  0.1164E-02  0.9397E-02  0.3541E+03
   -1.190018    8.78814  0.0000E+00  0.7248E-04  0.2100E-04  0.1140E-02  0.8611E-02  0.3347E+03
   -1.232519    8.79254  0.0000E+00  0.6893E-04  0.1439E-04  0.1106E-02  0.7845E-02  0.9332E+02
   -1.275020    8.79867  0.0000E+00  0.6543E-04  0.1023E-04  0.1081E-02  0.7162E-02  0.3208E+04
   -1.317520    8.80220  0.0000E+00  0.6190E-04  0.8149E-05  0.1045E-02  0.6524E-02  0.1211E+05
   -1.360021    8.80860  0.0000E+00  0.5834E-04  0.6179E-05  0.9663E-03  0.5925E-02  0.1118E+05
   -1.402521    8.81601  0.0000E+00  0.5451E-04  0.4158E-05  0.9025E-03  0.5396E-02  0.3579E+04
   -1.445020    8.82418  0.0000E+00  0.5070E-04  0.3227E-05  0.8021E-03  0.4880E-02  0.4014E+06
   -1.487520    8.83613  0.0000E+00  0.4662E-04  0.3203E-05  0.6900E-03  0.4212E-02  0.9489E+04
   -1.530019    8.84931  0.0000E+00  0.4259E-04  0.4278E-05  0.5859E-03  0.3330E-02 -0.2205E+06
   -1.572518    8.88405  0.0000E+00  0.3868E-04  0.7028E-05  0.5627E-03  0.2563E-02  0.9134E+08
   -1.615016    8.89245  0.0000E+00  0.3198E-04  0.1459E-04  0.3300E-03  0.2188E-02 -0.6379E+11
   -1.657515    9.12473  0.0000E+00  0.2291E-04  0.3029E-04  0.2732E-03  0.1629E-02 -0.5800E+08
   -1.700012    9.14606  0.0000E+00  0.0000E+00  0.0000E+00  0.0000E+00  0.2681E-02  0.0000E+00
