 1 - depth, m
 2 - temperature, C
 3 - salinity, kg/kg
 4 - turbulent kinetic energy, m**2/s**2
 5 - dissipation rate, m**2/s**3
 6 - kinematic heat conductance, m**2/s
 7 - modulus of horizontal velocity, m/s
 8 - Richardson number, n/d
   -0.000000   10.71498  0.0000E+00  0.3649E-02  0.7564E-01  0.2939E-03  0.1047E+01 -0.7573E-03
   -0.042497   11.12088  0.0000E+00  0.1738E-02  0.4656E-01  0.3740E-03  0.2276E+00 -0.3533E+00
   -0.084995   11.30231  0.0000E+00  0.1044E-02  0.1151E-01  0.5354E-03  0.1198E+00 -0.6161E+00
   -0.127493   11.37816  0.0000E+00  0.7509E-03  0.5728E-02  0.4906E-03  0.8850E-01  0.1481E-01
   -0.169991   11.41366  0.0000E+00  0.5694E-03  0.3755E-02  0.4441E-03  0.6915E-01  0.2985E+00
   -0.212490   11.44571  0.0000E+00  0.4441E-03  0.2735E-02  0.4576E-03  0.5483E-01  0.9728E+01
   -0.254989   11.47176  0.0000E+00  0.3581E-03  0.2117E-02  0.4727E-03  0.4448E-01 -0.6759E+00
   -0.297488   11.48986  0.0000E+00  0.2949E-03  0.1663E-02  0.4846E-03  0.3854E-01  0.1722E+02
   -0.339987   11.50361  0.0000E+00  0.2492E-03  0.1321E-02  0.5038E-03  0.3479E-01  0.2528E+02
   -0.382487   11.51729  0.0000E+00  0.2138E-03  0.1042E-02  0.5303E-03  0.3095E-01  0.1048E+02
   -0.424987   11.52656  0.0000E+00  0.1852E-03  0.8109E-03  0.5509E-03  0.2837E-01  0.2736E+02
   -0.467487   11.53679  0.0000E+00  0.1626E-03  0.6243E-03  0.5725E-03  0.2535E-01  0.2284E+02
   -0.509988   11.54685  0.0000E+00  0.1444E-03  0.4731E-03  0.6073E-03  0.2244E-01  0.4315E+02
   -0.552488   11.55442  0.0000E+00  0.1296E-03  0.3506E-03  0.6661E-03  0.1998E-01  0.1169E+03
   -0.594989   11.56444  0.0000E+00  0.1174E-03  0.2571E-03  0.7254E-03  0.1754E-01  0.2850E+03
   -0.637490   11.57115  0.0000E+00  0.1067E-03  0.1843E-03  0.8146E-03  0.1542E-01  0.3119E+03
   -0.679991   11.57747  0.0000E+00  0.9794E-04  0.1291E-03  0.8843E-03  0.1390E-01  0.2462E+03
   -0.722492   11.58168  0.0000E+00  0.9023E-04  0.8814E-04  0.9485E-03  0.1258E-01  0.2760E+03
   -0.764993   11.58745  0.0000E+00  0.8353E-04  0.5938E-04  0.1019E-02  0.1146E-01  0.1567E+03
   -0.807494   11.59119  0.0000E+00  0.7775E-04  0.3765E-04  0.1095E-02  0.1057E-01 -0.1447E+03
   -0.849995   11.59662  0.0000E+00  0.7265E-04  0.2554E-04  0.1151E-02  0.9763E-02 -0.8575E+03
   -0.892497   11.59976  0.0000E+00  0.6793E-04  0.1706E-04  0.1188E-02  0.9010E-02 -0.6588E+02
   -0.934998   11.60507  0.0000E+00  0.6379E-04  0.1045E-04  0.1230E-02  0.8316E-02  0.5100E+04
   -0.977499   11.60783  0.0000E+00  0.6009E-04  0.6577E-05  0.1260E-02  0.7677E-02  0.6517E+02
   -1.020000   11.61217  0.0000E+00  0.5680E-04  0.4050E-05  0.1280E-02  0.7090E-02  0.6340E+02
   -1.062501   11.61585  0.0000E+00  0.5392E-04  0.2505E-05  0.1279E-02  0.6541E-02  0.4905E+02
   -1.105002   11.61921  0.0000E+00  0.5118E-04  0.1484E-05  0.1238E-02  0.6029E-02  0.1214E+04
   -1.147503   11.62313  0.0000E+00  0.4861E-04  0.1053E-05  0.1247E-02  0.5465E-02  0.1271E+03
   -1.190003   11.62654  0.0000E+00  0.4638E-04  0.8581E-06  0.1214E-02  0.4921E-02  0.1144E+02
   -1.232504   11.62983  0.0000E+00  0.4418E-04  0.7127E-06  0.1146E-02  0.4398E-02  0.3472E+02
   -1.275004   11.63391  0.0000E+00  0.4185E-04  0.6007E-06  0.1083E-02  0.3892E-02  0.5216E+02
   -1.317504   11.63788  0.0000E+00  0.3951E-04  0.5521E-06  0.1032E-02  0.3429E-02  0.6537E+02
   -1.360004   11.64306  0.0000E+00  0.3704E-04  0.5572E-06  0.9345E-03  0.3022E-02  0.1158E+04
   -1.402503   11.64918  0.0000E+00  0.3435E-04  0.6261E-06  0.8751E-03  0.2660E-02 -0.4068E+04
   -1.445002   11.65758  0.0000E+00  0.3171E-04  0.7882E-06  0.7726E-03  0.2328E-02 -0.8966E+03
   -1.487501   11.66890  0.0000E+00  0.2912E-04  0.1114E-05  0.6936E-03  0.1958E-02  0.4878E+05
   -1.530000   11.68098  0.0000E+00  0.2646E-04  0.1901E-05  0.5520E-03  0.1489E-02 -0.1389E+06
   -1.572498   11.72659  0.0000E+00  0.2392E-04  0.3736E-05  0.5662E-03  0.1062E-02  0.9425E+09
   -1.614996   11.70555  0.0000E+00  0.1990E-04  0.1159E-04  0.2895E-03  0.8491E-03 -0.6398E+10
   -1.657494   11.97853  0.0000E+00  0.1479E-04  0.2048E-04  0.3004E-03  0.5936E-03 -0.1054E+07
   -1.699991   11.92740  0.0000E+00  0.0000E+00  0.0000E+00  0.0000E+00  0.1018E-02  0.0000E+00
