 1 - depth, m
 2 - temperature, C
 3 - salinity, kg/kg
 4 - turbulent kinetic energy, m**2/s**2
 5 - dissipation rate, m**2/s**3
 6 - kinematic heat conductance, m**2/s
 7 - modulus of horizontal velocity, m/s
 8 - Richardson number, n/d
   -0.000000    9.45208  0.0000E+00  0.3804E-04  0.1432E-04  0.3112E-04  0.3449E-01 -0.2311E-01
   -0.042497    9.57298  0.0000E+00  0.2387E-04  0.3754E-05  0.6007E-04  0.1267E-01 -0.1381E+00
   -0.084995    9.61635  0.0000E+00  0.1878E-04  0.1376E-05  0.1058E-03  0.8215E-02  0.5908E+00
   -0.127493    9.64109  0.0000E+00  0.1605E-04  0.6110E-06  0.2312E-03  0.6014E-02  0.5161E+02
   -0.169991    9.65477  0.0000E+00  0.1455E-04  0.3235E-06  0.3370E-03  0.4751E-02  0.1922E+02
   -0.212490    9.66401  0.0000E+00  0.1383E-04  0.2009E-06  0.4244E-03  0.3873E-02  0.1135E+02
   -0.254989    9.67128  0.0000E+00  0.1356E-04  0.1395E-06  0.5083E-03  0.3203E-02  0.9570E+02
   -0.297488    9.67732  0.0000E+00  0.1363E-04  0.1063E-06  0.5884E-03  0.2701E-02  0.3232E+01
   -0.339988    9.68240  0.0000E+00  0.1389E-04  0.8726E-07  0.6657E-03  0.2314E-02  0.1345E+02
   -0.382488    9.68683  0.0000E+00  0.1427E-04  0.7533E-07  0.7475E-03  0.1997E-02  0.2046E+01
   -0.424988    9.69071  0.0000E+00  0.1469E-04  0.6758E-07  0.8208E-03  0.1735E-02  0.1743E+01
   -0.467488    9.69421  0.0000E+00  0.1514E-04  0.6231E-07  0.8930E-03  0.1503E-02  0.1711E+01
   -0.509989    9.69742  0.0000E+00  0.1557E-04  0.5868E-07  0.9686E-03  0.1295E-02  0.1663E+01
   -0.552489    9.70039  0.0000E+00  0.1599E-04  0.5625E-07  0.1047E-02  0.1110E-02  0.1614E+01
   -0.594990    9.70314  0.0000E+00  0.1637E-04  0.5479E-07  0.1132E-02  0.9462E-03  0.1546E+01
   -0.637491    9.70572  0.0000E+00  0.1671E-04  0.5410E-07  0.1231E-02  0.8045E-03  0.1458E+01
   -0.679992    9.70815  0.0000E+00  0.1702E-04  0.5402E-07  0.1349E-02  0.6874E-03  0.1408E+01
   -0.722493    9.71044  0.0000E+00  0.1727E-04  0.5445E-07  0.1479E-02  0.5922E-03  0.1362E+01
   -0.764995    9.71263  0.0000E+00  0.1748E-04  0.5524E-07  0.1585E-02  0.5172E-03  0.1326E+01
   -0.807496    9.71479  0.0000E+00  0.1763E-04  0.5631E-07  0.1624E-02  0.4594E-03  0.1300E+01
   -0.849997    9.71701  0.0000E+00  0.1774E-04  0.5757E-07  0.1614E-02  0.4138E-03  0.1271E+01
   -0.892498    9.71932  0.0000E+00  0.1780E-04  0.5901E-07  0.1588E-02  0.3773E-03  0.1231E+01
   -0.935000    9.72176  0.0000E+00  0.1781E-04  0.6059E-07  0.1555E-02  0.3476E-03  0.1232E+01
   -0.977501    9.72429  0.0000E+00  0.1779E-04  0.6237E-07  0.1516E-02  0.3226E-03  0.1250E+01
   -1.020002    9.72694  0.0000E+00  0.1774E-04  0.6443E-07  0.1469E-02  0.3010E-03  0.1359E+01
   -1.062503    9.72970  0.0000E+00  0.1764E-04  0.6690E-07  0.1421E-02  0.2814E-03  0.1539E+01
   -1.105004    9.73258  0.0000E+00  0.1751E-04  0.6995E-07  0.1360E-02  0.2631E-03  0.2480E+01
   -1.147505    9.73562  0.0000E+00  0.1734E-04  0.7373E-07  0.1305E-02  0.2452E-03  0.3114E+01
   -1.190006    9.73875  0.0000E+00  0.1714E-04  0.7861E-07  0.1236E-02  0.2272E-03  0.1282E+02
   -1.232506    9.74202  0.0000E+00  0.1689E-04  0.8547E-07  0.1173E-02  0.2088E-03 -0.3507E+01
   -1.275006    9.74576  0.0000E+00  0.1657E-04  0.9605E-07  0.1086E-02  0.1905E-03 -0.5794E+02
   -1.317507    9.75061  0.0000E+00  0.1616E-04  0.1116E-06  0.1042E-02  0.1715E-03  0.1563E+04
   -1.360006    9.75653  0.0000E+00  0.1560E-04  0.1378E-06  0.9056E-03  0.1531E-03 -0.1672E+04
   -1.402506    9.76571  0.0000E+00  0.1487E-04  0.1836E-06  0.8103E-03  0.1337E-03  0.1688E+05
   -1.445005    9.77608  0.0000E+00  0.1398E-04  0.2568E-06  0.7042E-03  0.1158E-03  0.6793E+05
   -1.487504    9.79267  0.0000E+00  0.1316E-04  0.3640E-06  0.6263E-03  0.9161E-04  0.3456E+06
   -1.530003    9.80580  0.0000E+00  0.1224E-04  0.6915E-06  0.5031E-03  0.6968E-04 -0.1370E+06
   -1.572502    9.89361  0.0000E+00  0.1153E-04  0.1243E-05  0.5322E-03  0.4578E-04  0.4338E+11
   -1.615000    9.81261  0.0000E+00  0.1000E-04  0.3497E-05  0.2851E-03  0.3785E-04 -0.5568E+10
   -1.657497   10.21776  0.0000E+00  0.7818E-05  0.6920E-05  0.2876E-03  0.2377E-04 -0.2891E+06
   -1.699994   10.12402  0.0000E+00  0.0000E+00  0.0000E+00  0.0000E+00  0.4734E-04  0.0000E+00
