 1 - depth, m
 2 - temperature, C
 3 - salinity, kg/kg
 4 - turbulent kinetic energy, m**2/s**2
 5 - dissipation rate, m**2/s**3
 6 - kinematic heat conductance, m**2/s
 7 - modulus of horizontal velocity, m/s
 8 - Richardson number, n/d
   -0.000000   12.35570  0.0000E+00  0.3864E-04  0.7929E-05  0.3229E-04  0.3667E-01 -0.1032E+00
   -0.042497   12.46805  0.0000E+00  0.2432E-04  0.2099E-05  0.9731E-04  0.1303E-01  0.2633E+03
   -0.084995   12.49830  0.0000E+00  0.1924E-04  0.8802E-06  0.1566E-03  0.8653E-02  0.4587E+01
   -0.127493   12.51696  0.0000E+00  0.1667E-04  0.4508E-06  0.2289E-03  0.6392E-02  0.3527E+02
   -0.169991   12.53028  0.0000E+00  0.1541E-04  0.2699E-06  0.3402E-03  0.4934E-02  0.1348E+03
   -0.212490   12.53954  0.0000E+00  0.1491E-04  0.1840E-06  0.4661E-03  0.3967E-02  0.2819E+02
   -0.254989   12.54570  0.0000E+00  0.1489E-04  0.1395E-06  0.5741E-03  0.3308E-02  0.1195E+02
   -0.297489   12.55029  0.0000E+00  0.1517E-04  0.1140E-06  0.6706E-03  0.2821E-02  0.3043E+01
   -0.339988   12.55422  0.0000E+00  0.1560E-04  0.9795E-07  0.7622E-03  0.2436E-02  0.1816E+01
   -0.382488   12.55767  0.0000E+00  0.1612E-04  0.8710E-07  0.8515E-03  0.2115E-02  0.1726E+01
   -0.424988   12.56081  0.0000E+00  0.1666E-04  0.7948E-07  0.9323E-03  0.1844E-02  0.1746E+01
   -0.467489   12.56367  0.0000E+00  0.1721E-04  0.7404E-07  0.1012E-02  0.1601E-02  0.1734E+01
   -0.509989   12.56629  0.0000E+00  0.1774E-04  0.7019E-07  0.1094E-02  0.1382E-02  0.1693E+01
   -0.552490   12.56870  0.0000E+00  0.1823E-04  0.6760E-07  0.1176E-02  0.1185E-02  0.1644E+01
   -0.594991   12.57093  0.0000E+00  0.1868E-04  0.6605E-07  0.1257E-02  0.1010E-02  0.1574E+01
   -0.637492   12.57301  0.0000E+00  0.1908E-04  0.6534E-07  0.1338E-02  0.8583E-03  0.1480E+01
   -0.679993   12.57500  0.0000E+00  0.1942E-04  0.6535E-07  0.1419E-02  0.7327E-03  0.1421E+01
   -0.722494   12.57692  0.0000E+00  0.1971E-04  0.6593E-07  0.1503E-02  0.6308E-03  0.1366E+01
   -0.764995   12.57879  0.0000E+00  0.1993E-04  0.6697E-07  0.1590E-02  0.5507E-03  0.1328E+01
   -0.807496   12.58063  0.0000E+00  0.2009E-04  0.6833E-07  0.1662E-02  0.4890E-03  0.1318E+01
   -0.849998   12.58248  0.0000E+00  0.2018E-04  0.6993E-07  0.1694E-02  0.4406E-03  0.1325E+01
   -0.892499   12.58434  0.0000E+00  0.2023E-04  0.7176E-07  0.1679E-02  0.4018E-03  0.1340E+01
   -0.935000   12.58631  0.0000E+00  0.2023E-04  0.7381E-07  0.1642E-02  0.3701E-03  0.1413E+01
   -0.977502   12.58835  0.0000E+00  0.2018E-04  0.7613E-07  0.1592E-02  0.3433E-03  0.1502E+01
   -1.020003   12.59051  0.0000E+00  0.2010E-04  0.7882E-07  0.1542E-02  0.3201E-03  0.1676E+01
   -1.062504   12.59276  0.0000E+00  0.1998E-04  0.8205E-07  0.1483E-02  0.2993E-03  0.1909E+01
   -1.105005   12.59512  0.0000E+00  0.1980E-04  0.8604E-07  0.1423E-02  0.2799E-03  0.2415E+01
   -1.147506   12.59759  0.0000E+00  0.1959E-04  0.9106E-07  0.1355E-02  0.2612E-03  0.3086E+01
   -1.190006   12.60020  0.0000E+00  0.1934E-04  0.9753E-07  0.1301E-02  0.2422E-03  0.5763E+01
   -1.232507   12.60287  0.0000E+00  0.1902E-04  0.1075E-06  0.1211E-02  0.2231E-03 -0.2054E+03
   -1.275007   12.60619  0.0000E+00  0.1864E-04  0.1210E-06  0.1157E-02  0.2034E-03  0.6793E+02
   -1.317507   12.60984  0.0000E+00  0.1814E-04  0.1440E-06  0.1042E-02  0.1843E-03  0.4312E+04
   -1.360007   12.61574  0.0000E+00  0.1748E-04  0.1777E-06  0.9784E-03  0.1633E-03  0.2394E+05
   -1.402507   12.62160  0.0000E+00  0.1661E-04  0.2398E-06  0.8440E-03  0.1443E-03 -0.6667E+04
   -1.445006   12.63310  0.0000E+00  0.1557E-04  0.3397E-06  0.7676E-03  0.1231E-03  0.1040E+07
   -1.487505   12.64347  0.0000E+00  0.1464E-04  0.4834E-06  0.6307E-03  0.9956E-04  0.8142E+05
   -1.530004   12.66185  0.0000E+00  0.1360E-04  0.9572E-06  0.5808E-03  0.7374E-04 -0.6426E+06
   -1.572503   12.71902  0.0000E+00  0.1283E-04  0.1566E-05  0.5706E-03  0.4900E-04  0.1356E+13
   -1.615001   12.66270  0.0000E+00  0.1116E-04  0.5095E-05  0.3085E-03  0.4021E-04 -0.5973E+11
   -1.657498   13.00067  0.0000E+00  0.8846E-05  0.9413E-05  0.3299E-03  0.2523E-04  0.1234E+06
   -1.699996   12.91180  0.0000E+00  0.0000E+00  0.0000E+00  0.0000E+00  0.5292E-04  0.0000E+00
