 1 - depth, m
 2 - temperature, C
 3 - salinity, kg/kg
 4 - turbulent kinetic energy, m**2/s**2
 5 - dissipation rate, m**2/s**3
 6 - kinematic heat conductance, m**2/s
 7 - modulus of horizontal velocity, m/s
 8 - Richardson number, n/d
   -0.000000    5.59280  0.0000E+00  0.7050E-03  0.1844E-02  0.8953E-04  0.3257E+00 -0.1230E-01
   -0.042497    5.93728  0.0000E+00  0.3402E-03  0.6036E-03  0.2206E-03  0.7240E-01 -0.3551E-01
   -0.084995    6.01186  0.0000E+00  0.2295E-03  0.2637E-03  0.1971E-03  0.4308E-01 -0.7065E-01
   -0.127493    6.06905  0.0000E+00  0.1670E-03  0.1311E-03  0.1771E-03  0.3368E-01 -0.4828E+00
   -0.169991    6.11185  0.0000E+00  0.1250E-03  0.6702E-04  0.1657E-03  0.2722E-01  0.1450E+02
   -0.212490    6.14898  0.0000E+00  0.9386E-04  0.3566E-04  0.1707E-03  0.2186E-01  0.1506E+01
   -0.254989    6.18524  0.0000E+00  0.7157E-04  0.1915E-04  0.1916E-03  0.1779E-01  0.1053E+02
   -0.297488    6.21698  0.0000E+00  0.5573E-04  0.1046E-04  0.2080E-03  0.1482E-01  0.1005E+04
   -0.339988    6.24390  0.0000E+00  0.4480E-04  0.5864E-05  0.2330E-03  0.1260E-01  0.1821E+02
   -0.382488    6.26553  0.0000E+00  0.3705E-04  0.3324E-05  0.2643E-03  0.1069E-01  0.2306E+03
   -0.424988    6.28434  0.0000E+00  0.3154E-04  0.1906E-05  0.2981E-03  0.9237E-02  0.4866E+02
   -0.467488    6.30067  0.0000E+00  0.2754E-04  0.1136E-05  0.3396E-03  0.7879E-02  0.1887E+02
   -0.509989    6.31546  0.0000E+00  0.2454E-04  0.7165E-06  0.3872E-03  0.6696E-02  0.1902E+02
   -0.552489    6.32901  0.0000E+00  0.2228E-04  0.4800E-06  0.4427E-03  0.5685E-02  0.2965E+03
   -0.594990    6.33993  0.0000E+00  0.2053E-04  0.3414E-06  0.4972E-03  0.4812E-02  0.5996E+02
   -0.637491    6.34931  0.0000E+00  0.1912E-04  0.2565E-06  0.5626E-03  0.4065E-02  0.1689E+02
   -0.679992    6.35761  0.0000E+00  0.1798E-04  0.2004E-06  0.6262E-03  0.3450E-02  0.1881E+02
   -0.722493    6.36495  0.0000E+00  0.1705E-04  0.1612E-06  0.6819E-03  0.2932E-02  0.1750E+02
   -0.764994    6.37176  0.0000E+00  0.1628E-04  0.1330E-06  0.7369E-03  0.2503E-02  0.8578E+01
   -0.807496    6.37822  0.0000E+00  0.1564E-04  0.1120E-06  0.7845E-03  0.2154E-02  0.3235E+01
   -0.849997    6.38439  0.0000E+00  0.1509E-04  0.9611E-07  0.8266E-03  0.1863E-02  0.2990E+01
   -0.892498    6.39037  0.0000E+00  0.1461E-04  0.8379E-07  0.8659E-03  0.1615E-02  0.2221E+01
   -0.934999    6.39619  0.0000E+00  0.1420E-04  0.7428E-07  0.8977E-03  0.1407E-02  0.2456E+01
   -0.977500    6.40183  0.0000E+00  0.1384E-04  0.6687E-07  0.9254E-03  0.1226E-02  0.2335E+01
   -1.020002    6.40734  0.0000E+00  0.1351E-04  0.6111E-07  0.9444E-03  0.1071E-02  0.2450E+01
   -1.062503    6.41273  0.0000E+00  0.1320E-04  0.5673E-07  0.9558E-03  0.9338E-03  0.2491E+01
   -1.105004    6.41802  0.0000E+00  0.1292E-04  0.5353E-07  0.9574E-03  0.8130E-03  0.2563E+01
   -1.147504    6.42323  0.0000E+00  0.1266E-04  0.5146E-07  0.9498E-03  0.7031E-03  0.2649E+01
   -1.190005    6.42829  0.0000E+00  0.1242E-04  0.5043E-07  0.9330E-03  0.6009E-03  0.2803E+01
   -1.232506    6.43323  0.0000E+00  0.1221E-04  0.5037E-07  0.9093E-03  0.5076E-03  0.3072E+01
   -1.275006    6.43842  0.0000E+00  0.1201E-04  0.5133E-07  0.8732E-03  0.4298E-03  0.3873E+01
   -1.317506    6.44403  0.0000E+00  0.1181E-04  0.5357E-07  0.8286E-03  0.3665E-03  0.5396E+01
   -1.360006    6.45035  0.0000E+00  0.1160E-04  0.5775E-07  0.7693E-03  0.3149E-03  0.7845E+01
   -1.402505    6.45787  0.0000E+00  0.1134E-04  0.6552E-07  0.7123E-03  0.2727E-03  0.1565E+02
   -1.445005    6.46756  0.0000E+00  0.1101E-04  0.7858E-07  0.6375E-03  0.2338E-03  0.1609E+05
   -1.487504    6.48015  0.0000E+00  0.1064E-04  0.1001E-06  0.5830E-03  0.1908E-03 -0.9603E+02
   -1.530002    6.49200  0.0000E+00  0.1021E-04  0.1575E-06  0.4478E-03  0.1494E-03  0.5989E+05
   -1.572501    6.53791  0.0000E+00  0.9726E-05  0.2763E-06  0.4626E-03  0.1033E-03 -0.1001E+07
   -1.614999    6.51989  0.0000E+00  0.8527E-05  0.7648E-06  0.2037E-03  0.8342E-04 -0.1336E+10
   -1.657496    6.81149  0.0000E+00  0.6209E-05  0.1769E-05  0.1407E-03  0.5256E-04 -0.3159E+07
   -1.699994    6.83456  0.0000E+00  0.0000E+00  0.0000E+00  0.0000E+00  0.8394E-04  0.0000E+00
