 1 - depth, m
 2 - temperature, C
 3 - salinity, kg/kg
 4 - turbulent kinetic energy, m**2/s**2
 5 - dissipation rate, m**2/s**3
 6 - kinematic heat conductance, m**2/s
 7 - modulus of horizontal velocity, m/s
 8 - Richardson number, n/d
   -0.000000   16.22360  0.0000E+00  0.1048E-02  0.1344E-01  0.9456E-04  0.3656E+00  0.2933E-01
   -0.042498   16.42655  0.0000E+00  0.5109E-03  0.8791E-02  0.3026E-03  0.7440E-01 -0.6181E-01
   -0.084996   16.47036  0.0000E+00  0.3642E-03  0.6721E-02  0.3097E-03  0.4608E-01  0.5676E-01
   -0.127494   16.49336  0.0000E+00  0.2852E-03  0.5085E-02  0.3019E-03  0.3770E-01  0.5507E+00
   -0.169993   16.51050  0.0000E+00  0.2255E-03  0.3775E-02  0.2882E-03  0.3170E-01  0.6576E+01
   -0.212492   16.52457  0.0000E+00  0.1803E-03  0.2744E-02  0.3011E-03  0.2658E-01  0.3733E+01
   -0.254992   16.53667  0.0000E+00  0.1441E-03  0.1939E-02  0.3270E-03  0.2276E-01  0.3449E+01
   -0.297492   16.54729  0.0000E+00  0.1165E-03  0.1319E-02  0.3586E-03  0.1993E-01  0.7917E+01
   -0.339992   16.55683  0.0000E+00  0.9521E-04  0.8637E-03  0.3966E-03  0.1766E-01  0.4002E+02
   -0.382492   16.56537  0.0000E+00  0.7907E-04  0.5427E-03  0.4363E-03  0.1547E-01  0.8215E+02
   -0.424993   16.57282  0.0000E+00  0.6679E-04  0.3275E-03  0.4699E-03  0.1377E-01  0.7893E+02
   -0.467493   16.57958  0.0000E+00  0.5755E-04  0.1908E-03  0.5211E-03  0.1201E-01  0.1976E+03
   -0.509994   16.58562  0.0000E+00  0.5063E-04  0.1075E-03  0.5781E-03  0.1041E-01  0.1020E+03
   -0.552496   16.59056  0.0000E+00  0.4534E-04  0.5874E-04  0.6277E-03  0.9037E-02  0.8390E+02
   -0.594997   16.59497  0.0000E+00  0.4135E-04  0.3153E-04  0.6757E-03  0.7777E-02  0.1296E+03
   -0.637498   16.59880  0.0000E+00  0.3821E-04  0.1679E-04  0.7279E-03  0.6669E-02  0.3556E+02
   -0.680000   16.60232  0.0000E+00  0.3570E-04  0.8968E-05  0.7842E-03  0.5740E-02  0.1408E+03
   -0.722501   16.60548  0.0000E+00  0.3371E-04  0.4884E-05  0.8452E-03  0.4943E-02  0.4544E+02
   -0.765003   16.60860  0.0000E+00  0.3203E-04  0.2691E-05  0.8921E-03  0.4275E-02  0.3219E+02
   -0.807505   16.61127  0.0000E+00  0.3055E-04  0.1489E-05  0.9532E-03  0.3720E-02 -0.7133E+02
   -0.850006   16.61420  0.0000E+00  0.2926E-04  0.8817E-06  0.9969E-03  0.3249E-02  0.2049E+02
   -0.892508   16.61662  0.0000E+00  0.2804E-04  0.5396E-06  0.1017E-02  0.2844E-02 -0.2425E+02
   -0.935010   16.61945  0.0000E+00  0.2698E-04  0.3783E-06  0.1196E-02  0.2472E-02  0.5824E+01
   -0.977512   16.62152  0.0000E+00  0.2610E-04  0.2748E-06  0.1251E-02  0.2206E-02  0.2384E+01
   -1.020013   16.62392  0.0000E+00  0.2541E-04  0.2224E-06  0.1275E-02  0.1997E-02  0.2683E+01
   -1.062515   16.62598  0.0000E+00  0.2471E-04  0.1966E-06  0.1208E-02  0.1820E-02  0.4618E+01
   -1.105016   16.62816  0.0000E+00  0.2395E-04  0.1743E-06  0.1088E-02  0.1646E-02  0.4406E+01
   -1.147517   16.63073  0.0000E+00  0.2308E-04  0.1535E-06  0.1061E-02  0.1425E-02  0.1885E+01
   -1.190019   16.63306  0.0000E+00  0.2228E-04  0.1435E-06  0.1021E-02  0.1224E-02  0.1923E+01
   -1.232520   16.63558  0.0000E+00  0.2150E-04  0.1419E-06  0.9783E-03  0.1034E-02 -0.6348E+01
   -1.275020   16.63822  0.0000E+00  0.2074E-04  0.1465E-06  0.9266E-03  0.8761E-03  0.4204E+01
   -1.317521   16.64127  0.0000E+00  0.1995E-04  0.1600E-06  0.8773E-03  0.7436E-03  0.9718E+03
   -1.360021   16.64525  0.0000E+00  0.1906E-04  0.1873E-06  0.8121E-03  0.6327E-03  0.1742E+06
   -1.402521   16.65021  0.0000E+00  0.1797E-04  0.2403E-06  0.7546E-03  0.5407E-03  0.1454E+05
   -1.445021   16.65741  0.0000E+00  0.1672E-04  0.3324E-06  0.6576E-03  0.4554E-03  0.7340E+04
   -1.487521   16.66728  0.0000E+00  0.1561E-04  0.4808E-06  0.5858E-03  0.3593E-03  0.1272E+05
   -1.530020   16.67432  0.0000E+00  0.1442E-04  0.8827E-06  0.4720E-03  0.2665E-03 -0.1651E+05
   -1.572519   16.72772  0.0000E+00  0.1351E-04  0.1629E-05  0.5056E-03  0.1702E-03  0.3474E+10
   -1.615017   16.68140  0.0000E+00  0.1162E-04  0.4902E-05  0.2790E-03  0.1410E-03 -0.4531E+10
   -1.657515   16.92798  0.0000E+00  0.9087E-05  0.9479E-05  0.2958E-03  0.8716E-04  0.8367E+04
   -1.700013   16.85289  0.0000E+00  0.0000E+00  0.0000E+00  0.0000E+00  0.1818E-03  0.0000E+00
