 1 - depth, m
 2 - temperature, C
 3 - salinity, kg/kg
 4 - turbulent kinetic energy, m**2/s**2
 5 - dissipation rate, m**2/s**3
 6 - kinematic heat conductance, m**2/s
 7 - modulus of horizontal velocity, m/s
 8 - Richardson number, n/d
   -0.000000   17.74515  0.0000E+00  0.3883E-04  0.1364E-04  0.3016E-04  0.3363E-01 -0.1133E+00
   -0.042497   17.81570  0.0000E+00  0.2339E-04  0.3345E-05  0.1040E-03  0.1119E-01  0.1115E+03
   -0.084995   17.83362  0.0000E+00  0.1823E-04  0.1313E-05  0.1679E-03  0.7294E-02  0.3568E+01
   -0.127493   17.84414  0.0000E+00  0.1565E-04  0.6565E-06  0.2502E-03  0.5383E-02  0.2526E+02
   -0.169991   17.85114  0.0000E+00  0.1427E-04  0.3602E-06  0.3563E-03  0.4199E-02  0.5691E+02
   -0.212490   17.85616  0.0000E+00  0.1361E-04  0.2169E-06  0.4551E-03  0.3384E-02  0.1706E+02
   -0.254989   17.86002  0.0000E+00  0.1344E-04  0.1470E-06  0.5595E-03  0.2783E-02  0.1122E+03
   -0.297489   17.86299  0.0000E+00  0.1357E-04  0.1095E-06  0.6544E-03  0.2350E-02  0.1583E+03
   -0.339988   17.86549  0.0000E+00  0.1389E-04  0.8895E-07  0.7472E-03  0.2017E-02  0.5259E+01
   -0.382488   17.86758  0.0000E+00  0.1430E-04  0.7684E-07  0.8380E-03  0.1746E-02  0.4244E+01
   -0.424988   17.86942  0.0000E+00  0.1476E-04  0.6914E-07  0.9192E-03  0.1522E-02  0.1954E+01
   -0.467489   17.87106  0.0000E+00  0.1523E-04  0.6412E-07  0.9962E-03  0.1325E-02  0.1608E+01
   -0.509989   17.87257  0.0000E+00  0.1570E-04  0.6075E-07  0.1073E-02  0.1147E-02  0.1568E+01
   -0.552490   17.87397  0.0000E+00  0.1614E-04  0.5857E-07  0.1151E-02  0.9884E-03  0.1531E+01
   -0.594991   17.87527  0.0000E+00  0.1655E-04  0.5732E-07  0.1229E-02  0.8475E-03  0.1474E+01
   -0.637492   17.87650  0.0000E+00  0.1693E-04  0.5679E-07  0.1312E-02  0.7251E-03  0.1404E+01
   -0.679993   17.87767  0.0000E+00  0.1726E-04  0.5687E-07  0.1396E-02  0.6236E-03  0.1359E+01
   -0.722494   17.87879  0.0000E+00  0.1755E-04  0.5741E-07  0.1478E-02  0.5407E-03  0.1330E+01
   -0.764995   17.87990  0.0000E+00  0.1779E-04  0.5833E-07  0.1548E-02  0.4754E-03  0.1312E+01
   -0.807497   17.88100  0.0000E+00  0.1798E-04  0.5952E-07  0.1589E-02  0.4246E-03  0.1342E+01
   -0.849998   17.88213  0.0000E+00  0.1812E-04  0.6092E-07  0.1592E-02  0.3846E-03  0.1384E+01
   -0.892499   17.88330  0.0000E+00  0.1821E-04  0.6252E-07  0.1574E-02  0.3520E-03  0.1456E+01
   -0.935001   17.88453  0.0000E+00  0.1826E-04  0.6431E-07  0.1542E-02  0.3253E-03  0.1580E+01
   -0.977502   17.88581  0.0000E+00  0.1827E-04  0.6636E-07  0.1503E-02  0.3023E-03  0.1750E+01
   -1.020003   17.88715  0.0000E+00  0.1824E-04  0.6874E-07  0.1458E-02  0.2823E-03  0.2004E+01
   -1.062504   17.88856  0.0000E+00  0.1818E-04  0.7157E-07  0.1407E-02  0.2640E-03  0.2331E+01
   -1.105005   17.89003  0.0000E+00  0.1807E-04  0.7504E-07  0.1350E-02  0.2468E-03  0.2763E+01
   -1.147506   17.89158  0.0000E+00  0.1792E-04  0.7935E-07  0.1290E-02  0.2300E-03  0.3941E+01
   -1.190007   17.89319  0.0000E+00  0.1773E-04  0.8484E-07  0.1226E-02  0.2131E-03  0.1826E+02
   -1.232507   17.89488  0.0000E+00  0.1749E-04  0.9252E-07  0.1163E-02  0.1958E-03 -0.1405E+02
   -1.275008   17.89685  0.0000E+00  0.1718E-04  0.1040E-06  0.1079E-02  0.1785E-03  0.3034E+02
   -1.317508   17.89933  0.0000E+00  0.1677E-04  0.1213E-06  0.1006E-02  0.1608E-03  0.6852E+04
   -1.360008   17.90264  0.0000E+00  0.1620E-04  0.1501E-06  0.9341E-03  0.1428E-03  0.3085E+05
   -1.402507   17.90715  0.0000E+00  0.1545E-04  0.1959E-06  0.7961E-03  0.1253E-03  0.3403E+04
   -1.445007   17.91283  0.0000E+00  0.1453E-04  0.2810E-06  0.7131E-03  0.1079E-03  0.4401E+05
   -1.487506   17.92165  0.0000E+00  0.1371E-04  0.3977E-06  0.6224E-03  0.8545E-04  0.7898E+05
   -1.530005   17.92857  0.0000E+00  0.1282E-04  0.7978E-06  0.4948E-03  0.6481E-04 -0.4365E+06
   -1.572503   17.97610  0.0000E+00  0.1215E-04  0.1352E-05  0.5425E-03  0.4275E-04  0.1669E+12
   -1.615001   17.92971  0.0000E+00  0.1060E-04  0.3895E-05  0.3005E-03  0.3554E-04 -0.2741E+11
   -1.657499   18.14774  0.0000E+00  0.8301E-05  0.7696E-05  0.2984E-03  0.2238E-04 -0.3272E+06
   -1.699996   18.10881  0.0000E+00  0.0000E+00  0.0000E+00  0.0000E+00  0.4443E-04  0.0000E+00
