 1 - depth, m
 2 - temperature, C
 3 - salinity, kg/kg
 4 - turbulent kinetic energy, m**2/s**2
 5 - dissipation rate, m**2/s**3
 6 - kinematic heat conductance, m**2/s
 7 - modulus of horizontal velocity, m/s
 8 - Richardson number, n/d
   -0.000000    3.50590  0.0000E+00  0.8039E-02  0.3951E+00  0.3766E-03  0.1987E+01  0.1834E-04
   -0.042497    3.66965  0.0000E+00  0.3894E-02  0.2909E+00  0.7124E-03  0.4162E+00  0.3742E-02
   -0.084995    3.78836  0.0000E+00  0.2447E-02  0.1337E+00  0.1025E-02  0.2006E+00  0.8796E+00
   -0.127493    3.82486  0.0000E+00  0.1838E-02  0.9759E-01  0.1032E-02  0.1410E+00 -0.1455E+00
   -0.169991    3.84535  0.0000E+00  0.1486E-02  0.5579E-01  0.1004E-02  0.1114E+00  0.1085E-01
   -0.212490    3.85687  0.0000E+00  0.1248E-02  0.3969E-01  0.9264E-03  0.9116E-01  0.5857E-01
   -0.254989    3.86847  0.0000E+00  0.1060E-02  0.3348E-01  0.8672E-03  0.7606E-01  0.1159E+00
   -0.297489    3.87647  0.0000E+00  0.9126E-03  0.2373E-01  0.8346E-03  0.6778E-01 -0.8860E+01
   -0.339988    3.88413  0.0000E+00  0.7893E-03  0.1867E-01  0.8193E-03  0.6306E-01  0.2096E+00
   -0.382488    3.88969  0.0000E+00  0.6879E-03  0.1520E-01  0.7817E-03  0.5851E-01  0.2284E+00
   -0.424988    3.89576  0.0000E+00  0.6028E-03  0.1229E-01  0.7602E-03  0.5659E-01  0.4366E+01
   -0.467488    3.90128  0.0000E+00  0.5309E-03  0.9884E-02  0.7336E-03  0.5214E-01  0.1677E+00
   -0.509989    3.90693  0.0000E+00  0.4731E-03  0.7907E-02  0.7132E-03  0.4691E-01  0.7927E+00
   -0.552490    3.91351  0.0000E+00  0.4248E-03  0.6305E-02  0.6891E-03  0.4253E-01  0.1470E+02
   -0.594991    3.92081  0.0000E+00  0.3805E-03  0.5032E-02  0.6839E-03  0.3706E-01  0.1128E+03
   -0.637492    3.92814  0.0000E+00  0.3444E-03  0.4017E-02  0.6852E-03  0.3245E-01  0.3919E+02
   -0.679993    3.93653  0.0000E+00  0.3130E-03  0.3212E-02  0.6807E-03  0.2955E-01  0.4534E+03
   -0.722494    3.94515  0.0000E+00  0.2852E-03  0.2564E-02  0.6794E-03  0.2689E-01  0.2178E+05
   -0.764995    3.95543  0.0000E+00  0.2601E-03  0.2033E-02  0.6875E-03  0.2484E-01  0.8354E+08
   -0.807496    3.96680  0.0000E+00  0.2379E-03  0.1603E-02  0.6829E-03  0.2361E-01  0.1079E+08
   -0.849998    3.97907  0.0000E+00  0.2178E-03  0.1261E-02  0.6730E-03  0.2238E-01  0.1676E+09
   -0.892499    3.99365  0.0000E+00  0.1992E-03  0.9857E-03  0.6669E-03  0.2111E-01  0.8654E+07
   -0.935000    4.00891  0.0000E+00  0.1827E-03  0.7579E-03  0.6606E-03  0.2018E-01  0.1483E+08
   -0.977501    4.02388  0.0000E+00  0.1679E-03  0.5795E-03  0.6570E-03  0.1887E-01  0.1059E+07
   -1.020002    4.04432  0.0000E+00  0.1550E-03  0.4463E-03  0.6561E-03  0.1799E-01  0.1084E+07
   -1.062504    4.06423  0.0000E+00  0.1436E-03  0.3415E-03  0.6409E-03  0.1685E-01  0.1463E+06
   -1.105005    4.09856  0.0000E+00  0.1334E-03  0.2596E-03  0.6316E-03  0.1606E-01  0.3212E+06
   -1.147505    4.12890  0.0000E+00  0.1243E-03  0.1976E-03  0.6048E-03  0.1514E-01  0.2123E+05
   -1.190006    4.17122  0.0000E+00  0.1163E-03  0.1502E-03  0.5942E-03  0.1356E-01  0.1477E+06
   -1.232507    4.20776  0.0000E+00  0.1090E-03  0.1159E-03  0.5930E-03  0.1194E-01  0.1459E+08
   -1.275007    4.24851  0.0000E+00  0.1024E-03  0.9036E-04  0.5800E-03  0.1089E-01  0.3218E+10
   -1.317507    4.28610  0.0000E+00  0.9606E-04  0.6727E-04  0.5569E-03  0.9961E-02  0.2934E+12
   -1.360007    4.34191  0.0000E+00  0.8999E-04  0.4708E-04  0.5376E-03  0.9121E-02  0.7282E+13
   -1.402507    4.39985  0.0000E+00  0.8407E-04  0.3364E-04  0.5048E-03  0.8431E-02  0.7203E+14
   -1.445006    4.46261  0.0000E+00  0.7859E-04  0.2529E-04  0.4598E-03  0.7787E-02  0.7858E+14
   -1.487505    4.52344  0.0000E+00  0.7320E-04  0.2072E-04  0.4078E-03  0.6880E-02  0.1284E+14
   -1.530004    4.59906  0.0000E+00  0.6713E-04  0.1841E-04  0.3681E-03  0.5572E-02 -0.2051E+14
   -1.572502    4.69655  0.0000E+00  0.6091E-04  0.1738E-04  0.3499E-03  0.4392E-02 -0.7075E+14
   -1.615000    4.82744  0.0000E+00  0.5099E-04  0.4003E-04  0.2184E-03  0.3827E-02 -0.1296E+15
   -1.657498    5.01728  0.0000E+00  0.3539E-04  0.8162E-04  0.1621E-03  0.2995E-02 -0.5852E+15
   -1.699995    5.37044  0.0000E+00  0.0000E+00  0.0000E+00  0.0000E+00  0.4567E-02  0.0000E+00
