 1 - depth, m
 2 - temperature, C
 3 - salinity, kg/kg
 4 - turbulent kinetic energy, m**2/s**2
 5 - dissipation rate, m**2/s**3
 6 - kinematic heat conductance, m**2/s
 7 - modulus of horizontal velocity, m/s
 8 - Richardson number, n/d
   -0.000000   10.51347  0.0000E+00  0.3831E-02  0.1445E+01  0.2067E-03  0.7654E+00  0.1222E-01
   -0.042497   10.93676  0.0000E+00  0.2345E-02  0.9916E+00  0.4619E-03  0.1532E+00 -0.1170E+00
   -0.084995   11.06528  0.0000E+00  0.1491E-02  0.6794E+00  0.5212E-03  0.8768E-01  0.4880E+03
   -0.127493   11.14701  0.0000E+00  0.1039E-02  0.2779E+00  0.4910E-03  0.6932E-01 -0.2626E+00
   -0.169991   11.19474  0.0000E+00  0.7367E-03  0.1071E+00  0.4276E-03  0.5741E-01  0.6553E+00
   -0.212489   11.22518  0.0000E+00  0.5370E-03  0.3980E-01  0.4178E-03  0.4776E-01  0.9719E+01
   -0.254988   11.25251  0.0000E+00  0.3963E-03  0.1422E-01  0.4142E-03  0.4032E-01  0.1765E+01
   -0.297487   11.27000  0.0000E+00  0.3002E-03  0.4913E-02  0.4319E-03  0.3522E-01  0.4275E+01
   -0.339987   11.28577  0.0000E+00  0.2313E-03  0.1707E-02  0.4590E-03  0.3164E-01  0.2056E+02
   -0.382487   11.30240  0.0000E+00  0.1826E-03  0.6771E-03  0.4872E-03  0.2797E-01  0.1656E+02
   -0.424987   11.31466  0.0000E+00  0.1501E-03  0.3187E-03  0.5088E-03  0.2557E-01  0.6531E+02
   -0.467487   11.32673  0.0000E+00  0.1271E-03  0.1642E-03  0.5435E-03  0.2240E-01  0.1272E+03
   -0.509987   11.33978  0.0000E+00  0.1105E-03  0.8999E-04  0.6033E-03  0.1940E-01  0.5382E+02
   -0.552488   11.35031  0.0000E+00  0.9819E-04  0.4973E-04  0.6631E-03  0.1693E-01  0.6034E+03
   -0.594989   11.36134  0.0000E+00  0.8849E-04  0.2769E-04  0.7268E-03  0.1466E-01  0.1914E+03
   -0.637489   11.37038  0.0000E+00  0.8070E-04  0.1575E-04  0.8106E-03  0.1272E-01  0.7485E+02
   -0.679990   11.37708  0.0000E+00  0.7425E-04  0.9147E-05  0.8763E-03  0.1130E-01  0.1316E+03
   -0.722491   11.38351  0.0000E+00  0.6875E-04  0.5526E-05  0.9435E-03  0.1006E-01  0.1579E+03
   -0.764992   11.38817  0.0000E+00  0.6401E-04  0.3442E-05  0.1010E-02  0.9075E-02 -0.8786E+02
   -0.807494   11.39337  0.0000E+00  0.5979E-04  0.2263E-05  0.1084E-02  0.8259E-02 -0.1564E+03
   -0.849995   11.39803  0.0000E+00  0.5610E-04  0.1597E-05  0.1141E-02  0.7543E-02  0.1389E+03
   -0.892496   11.40217  0.0000E+00  0.5275E-04  0.1176E-05  0.1146E-02  0.6908E-02  0.4892E+02
   -0.934997   11.40709  0.0000E+00  0.4974E-04  0.8878E-06  0.1191E-02  0.6291E-02  0.7912E+02
   -0.977498   11.41099  0.0000E+00  0.4704E-04  0.7094E-06  0.1191E-02  0.5733E-02  0.3078E+02
   -1.019999   11.41545  0.0000E+00  0.4447E-04  0.5857E-06  0.1193E-02  0.5207E-02  0.2440E+02
   -1.062500   11.41940  0.0000E+00  0.4210E-04  0.4982E-06  0.1195E-02  0.4699E-02  0.3302E+02
   -1.105001   11.42372  0.0000E+00  0.4005E-04  0.4357E-06  0.1245E-02  0.4214E-02  0.2653E+03
   -1.147501   11.42738  0.0000E+00  0.3825E-04  0.3908E-06  0.1207E-02  0.3808E-02  0.2660E+02
   -1.190002   11.43128  0.0000E+00  0.3657E-04  0.3578E-06  0.1164E-02  0.3385E-02  0.9954E+01
   -1.232502   11.43534  0.0000E+00  0.3486E-04  0.3335E-06  0.1122E-02  0.2949E-02  0.2962E+02
   -1.275003   11.43938  0.0000E+00  0.3315E-04  0.3185E-06  0.1010E-02  0.2591E-02  0.5611E+04
   -1.317503   11.44406  0.0000E+00  0.3129E-04  0.3140E-06  0.9553E-03  0.2216E-02  0.1818E+04
   -1.360002   11.44941  0.0000E+00  0.2941E-04  0.3279E-06  0.8849E-03  0.1906E-02 -0.1374E+04
   -1.402502   11.45624  0.0000E+00  0.2737E-04  0.3768E-06  0.8266E-03  0.1645E-02  0.2083E+03
   -1.445001   11.46524  0.0000E+00  0.2526E-04  0.4923E-06  0.7327E-03  0.1407E-02  0.3839E+03
   -1.487500   11.47830  0.0000E+00  0.2321E-04  0.7259E-06  0.6565E-03  0.1150E-02  0.2266E+05
   -1.529999   11.49116  0.0000E+00  0.2106E-04  0.1363E-05  0.5320E-03  0.8640E-03 -0.9457E+04
   -1.572497   11.54762  0.0000E+00  0.1918E-04  0.2679E-05  0.5324E-03  0.5786E-03 -0.2463E+07
   -1.614995   11.51504  0.0000E+00  0.1617E-04  0.8615E-05  0.2964E-03  0.4582E-03 -0.6430E+10
   -1.657492   11.81073  0.0000E+00  0.1221E-04  0.1572E-04  0.2937E-03  0.3000E-03  0.8059E+06
   -1.699989   11.75865  0.0000E+00  0.0000E+00  0.0000E+00  0.0000E+00  0.5522E-03  0.0000E+00
