 1 - depth, m
 2 - temperature, C
 3 - salinity, kg/kg
 4 - turbulent kinetic energy, m**2/s**2
 5 - dissipation rate, m**2/s**3
 6 - kinematic heat conductance, m**2/s
 7 - modulus of horizontal velocity, m/s
 8 - Richardson number, n/d
   -0.000000   -0.00059  0.0000E+00  0.9002E-03  0.2654E-02  0.1402E-03  0.4705E+00  0.4272E-02
   -0.042491    0.08053  0.0000E+00  0.5259E-03  0.1257E-02  0.2486E-03  0.1188E+00  0.6303E-01
   -0.084982    0.13686  0.0000E+00  0.3687E-03  0.5668E-03  0.2849E-03  0.7160E-01  0.1368E+00
   -0.127473    0.16980  0.0000E+00  0.2898E-03  0.3658E-03  0.2733E-03  0.5761E-01  0.2091E+00
   -0.169965    0.19713  0.0000E+00  0.2352E-03  0.2077E-03  0.2662E-03  0.4864E-01  0.1200E+00
   -0.212457    0.22208  0.0000E+00  0.1928E-03  0.1328E-03  0.2629E-03  0.4147E-01  0.1350E+00
   -0.254949    0.24841  0.0000E+00  0.1598E-03  0.7987E-04  0.2613E-03  0.3587E-01  0.3880E+01
   -0.297442    0.27600  0.0000E+00  0.1344E-03  0.4603E-04  0.2599E-03  0.3196E-01  0.1532E+02
   -0.339935    0.30243  0.0000E+00  0.1147E-03  0.2747E-04  0.2556E-03  0.2898E-01  0.5455E+02
   -0.382428    0.32821  0.0000E+00  0.9893E-04  0.1601E-04  0.2541E-03  0.2617E-01  0.3079E+02
   -0.424921    0.35467  0.0000E+00  0.8669E-04  0.9460E-05  0.2485E-03  0.2388E-01  0.9692E+01
   -0.467415    0.38081  0.0000E+00  0.7670E-04  0.5546E-05  0.2421E-03  0.2145E-01  0.8763E+00
   -0.509909    0.40717  0.0000E+00  0.6828E-04  0.3247E-05  0.2330E-03  0.1908E-01  0.9595E+00
   -0.552403    0.43432  0.0000E+00  0.6088E-04  0.2046E-05  0.2206E-03  0.1686E-01  0.1073E+01
   -0.594897    0.46259  0.0000E+00  0.5401E-04  0.1440E-05  0.2065E-03  0.1472E-01  0.3594E+01
   -0.637392    0.49330  0.0000E+00  0.4742E-04  0.1097E-05  0.1915E-03  0.1272E-01  0.5433E+02
   -0.679886    0.52849  0.0000E+00  0.4118E-04  0.8671E-06  0.1714E-03  0.1102E-01  0.1050E+04
   -0.722380    0.57290  0.0000E+00  0.3520E-04  0.6890E-06  0.1498E-03  0.9472E-02  0.4757E+05
   -0.764875    0.63679  0.0000E+00  0.2958E-04  0.5455E-06  0.1269E-03  0.8134E-02  0.5171E+09
   -0.807370    0.74509  0.0000E+00  0.2445E-04  0.4285E-06  0.1015E-03  0.7033E-02  0.3891E+11
   -0.849864    0.94316  0.0000E+00  0.1987E-04  0.3317E-06  0.7921E-04  0.5999E-02  0.1750E+10
   -0.892359    1.28911  0.0000E+00  0.1591E-04  0.2527E-06  0.7844E-04  0.5009E-02  0.3246E+09
   -0.934853    1.76224  0.0000E+00  0.1267E-04  0.1905E-06  0.8900E-04  0.4121E-02  0.8183E+09
   -0.977348    2.28220  0.0000E+00  0.1005E-04  0.1417E-06  0.1124E-03  0.3272E-02  0.8019E+10
   -1.019843    2.73826  0.0000E+00  0.8087E-05  0.1051E-06  0.1314E-03  0.2591E-02  0.5225E+09
   -1.062337    3.07346  0.0000E+00  0.6637E-05  0.7918E-07  0.1537E-03  0.2053E-02  0.1517E+09
   -1.104831    3.28666  0.0000E+00  0.5518E-05  0.5981E-07  0.1703E-03  0.1657E-02  0.1147E+10
   -1.147325    3.52033  0.0000E+00  0.4727E-05  0.4603E-07  0.1910E-03  0.1250E-02  0.1257E+09
   -1.189819    3.67637  0.0000E+00  0.4137E-05  0.3589E-07  0.2097E-03  0.8830E-03  0.9914E+08
   -1.232313    3.78838  0.0000E+00  0.3676E-05  0.2773E-07  0.2227E-03  0.5868E-03  0.2504E+09
   -1.274807    3.89372  0.0000E+00  0.3383E-05  0.2220E-07  0.2324E-03  0.4048E-03  0.1722E+09
   -1.317300    4.00420  0.0000E+00  0.3168E-05  0.1814E-07  0.2421E-03  0.2844E-03  0.1855E+09
   -1.359794    4.10486  0.0000E+00  0.2997E-05  0.1503E-07  0.2470E-03  0.1976E-03  0.8925E+10
   -1.402287    4.21222  0.0000E+00  0.2860E-05  0.1261E-07  0.2467E-03  0.1325E-03  0.5569E+12
   -1.444779    4.30675  0.0000E+00  0.2822E-05  0.1164E-07  0.2427E-03  0.8236E-04  0.9211E+12
   -1.487272    4.36154  0.0000E+00  0.2847E-05  0.1180E-07  0.2319E-03  0.5009E-04  0.1209E+13
   -1.529764    4.40301  0.0000E+00  0.2920E-05  0.1319E-07  0.2092E-03  0.3109E-04  0.1465E+13
   -1.572256    4.44662  0.0000E+00  0.3043E-05  0.1702E-07  0.1732E-03  0.1887E-04 -0.1723E+13
   -1.614747    4.51980  0.0000E+00  0.3103E-05  0.2977E-07  0.1109E-03  0.1251E-04 -0.9756E+13
   -1.657238    4.65816  0.0000E+00  0.2490E-05  0.8603E-07  0.2517E-04  0.7796E-05 -0.7366E+14
   -1.699728    5.15080  0.0000E+00  0.0000E+00  0.0000E+00  0.0000E+00  0.8589E-05  0.0000E+00
