 1 - depth, m
 2 - temperature, C
 3 - salinity, kg/kg
 4 - turbulent kinetic energy, m**2/s**2
 5 - dissipation rate, m**2/s**3
 6 - kinematic heat conductance, m**2/s
 7 - modulus of horizontal velocity, m/s
 8 - Richardson number, n/d
   -0.000000    8.30566  0.0000E+00  0.3613E-04  0.6568E-05  0.3426E-04  0.3663E-01 -0.4627E-01
   -0.042497    8.45267  0.0000E+00  0.2258E-04  0.1793E-05  0.5275E-04  0.1399E-01 -0.7572E-01
   -0.084995    8.50224  0.0000E+00  0.1742E-04  0.7374E-06  0.8168E-04  0.9081E-02 -0.1465E+00
   -0.127493    8.53436  0.0000E+00  0.1466E-04  0.3719E-06  0.1585E-03  0.6474E-02  0.3063E+02
   -0.169991    8.55510  0.0000E+00  0.1321E-04  0.2207E-06  0.2836E-03  0.4907E-02  0.6017E+03
   -0.212490    8.56800  0.0000E+00  0.1252E-04  0.1490E-06  0.3771E-03  0.3932E-02  0.4148E+02
   -0.254989    8.57741  0.0000E+00  0.1230E-04  0.1110E-06  0.4649E-03  0.3234E-02  0.1519E+03
   -0.297489    8.58452  0.0000E+00  0.1238E-04  0.8920E-07  0.5438E-03  0.2729E-02  0.5997E+01
   -0.339988    8.59039  0.0000E+00  0.1264E-04  0.7584E-07  0.6160E-03  0.2342E-02  0.1845E+01
   -0.382488    8.59548  0.0000E+00  0.1299E-04  0.6687E-07  0.6889E-03  0.2022E-02  0.1730E+01
   -0.424988    8.60006  0.0000E+00  0.1338E-04  0.6053E-07  0.7544E-03  0.1755E-02  0.1755E+01
   -0.467489    8.60423  0.0000E+00  0.1379E-04  0.5597E-07  0.8193E-03  0.1517E-02  0.1744E+01
   -0.509989    8.60805  0.0000E+00  0.1420E-04  0.5271E-07  0.8885E-03  0.1303E-02  0.1702E+01
   -0.552490    8.61157  0.0000E+00  0.1459E-04  0.5047E-07  0.9618E-03  0.1113E-02  0.1654E+01
   -0.594991    8.61482  0.0000E+00  0.1495E-04  0.4907E-07  0.1041E-02  0.9454E-03  0.1583E+01
   -0.637492    8.61784  0.0000E+00  0.1528E-04  0.4833E-07  0.1136E-02  0.8006E-03  0.1489E+01
   -0.679993    8.62068  0.0000E+00  0.1557E-04  0.4816E-07  0.1247E-02  0.6812E-03  0.1433E+01
   -0.722494    8.62336  0.0000E+00  0.1581E-04  0.4843E-07  0.1374E-02  0.5846E-03  0.1384E+01
   -0.764995    8.62589  0.0000E+00  0.1601E-04  0.4905E-07  0.1488E-02  0.5089E-03  0.1344E+01
   -0.807497    8.62837  0.0000E+00  0.1615E-04  0.4990E-07  0.1541E-02  0.4507E-03  0.1319E+01
   -0.849998    8.63088  0.0000E+00  0.1625E-04  0.5093E-07  0.1538E-02  0.4051E-03  0.1287E+01
   -0.892499    8.63349  0.0000E+00  0.1630E-04  0.5210E-07  0.1512E-02  0.3686E-03  0.1245E+01
   -0.935000    8.63625  0.0000E+00  0.1631E-04  0.5340E-07  0.1479E-02  0.3390E-03  0.1243E+01
   -0.977502    8.63912  0.0000E+00  0.1629E-04  0.5486E-07  0.1441E-02  0.3141E-03  0.1255E+01
   -1.020003    8.64211  0.0000E+00  0.1624E-04  0.5655E-07  0.1400E-02  0.2927E-03  0.1353E+01
   -1.062504    8.64522  0.0000E+00  0.1615E-04  0.5857E-07  0.1353E-02  0.2734E-03  0.1505E+01
   -1.105005    8.64844  0.0000E+00  0.1603E-04  0.6107E-07  0.1300E-02  0.2553E-03  0.1775E+01
   -1.147506    8.65182  0.0000E+00  0.1587E-04  0.6418E-07  0.1244E-02  0.2377E-03  0.2082E+01
   -1.190007    8.65530  0.0000E+00  0.1569E-04  0.6820E-07  0.1183E-02  0.2200E-03  0.2485E+01
   -1.232507    8.65890  0.0000E+00  0.1547E-04  0.7396E-07  0.1115E-02  0.2019E-03  0.3851E+04
   -1.275007    8.66311  0.0000E+00  0.1518E-04  0.8251E-07  0.1037E-02  0.1837E-03  0.3461E+01
   -1.317508    8.66839  0.0000E+00  0.1480E-04  0.9559E-07  0.9662E-03  0.1653E-03  0.6952E+03
   -1.360007    8.67523  0.0000E+00  0.1430E-04  0.1188E-06  0.8758E-03  0.1467E-03 -0.2482E+03
   -1.402507    8.68519  0.0000E+00  0.1364E-04  0.1543E-06  0.7829E-03  0.1285E-03  0.5281E+04
   -1.445006    8.69542  0.0000E+00  0.1283E-04  0.2102E-06  0.6672E-03  0.1111E-03  0.2110E+05
   -1.487506    8.71338  0.0000E+00  0.1206E-04  0.3024E-06  0.5954E-03  0.8818E-04  0.3160E+05
   -1.530004    8.72743  0.0000E+00  0.1121E-04  0.5749E-06  0.4640E-03  0.6659E-04 -0.3402E+06
   -1.572503    8.82706  0.0000E+00  0.1051E-04  0.1004E-05  0.5042E-03  0.4344E-04  0.4930E+12
   -1.615001    8.72661  0.0000E+00  0.9111E-05  0.2760E-05  0.2586E-03  0.3605E-04 -0.1621E+11
   -1.657498    9.18363  0.0000E+00  0.7104E-05  0.5627E-05  0.2732E-03  0.2248E-04 -0.2180E+06
   -1.699996    9.05455  0.0000E+00  0.0000E+00  0.0000E+00  0.0000E+00  0.4463E-04  0.0000E+00
