 1 - depth, m
 2 - temperature, C
 3 - salinity, kg/kg
 4 - turbulent kinetic energy, m**2/s**2
 5 - dissipation rate, m**2/s**3
 6 - kinematic heat conductance, m**2/s
 7 - modulus of horizontal velocity, m/s
 8 - Richardson number, n/d
   -0.000000    3.16622  0.0000E+00  0.3870E-02  0.8507E-01  0.1783E-03  0.1096E+01  0.1404E-02
   -0.042525    3.62719  0.0000E+00  0.1816E-02  0.5336E-01  0.4040E-03  0.2363E+00  0.1304E-01
   -0.085050    3.91626  0.0000E+00  0.1145E-02  0.1902E-01  0.6116E-03  0.1183E+00  0.2712E-02
   -0.127575    4.00719  0.0000E+00  0.8484E-03  0.1203E-01  0.5828E-03  0.8957E-01  0.1375E-01
   -0.170101    4.04115  0.0000E+00  0.6663E-03  0.8645E-02  0.5157E-03  0.7173E-01 -0.2860E+00
   -0.212627    4.07987  0.0000E+00  0.5338E-03  0.6540E-02  0.4867E-03  0.5806E-01  0.5707E-01
   -0.255153    4.12486  0.0000E+00  0.4301E-03  0.5059E-02  0.4615E-03  0.4773E-01  0.2933E+00
   -0.297680    4.15837  0.0000E+00  0.3548E-03  0.3889E-02  0.4534E-03  0.4166E-01  0.2943E+02
   -0.340207    4.18504  0.0000E+00  0.2979E-03  0.2972E-02  0.4412E-03  0.3792E-01  0.3756E+03
   -0.382734    4.20483  0.0000E+00  0.2527E-03  0.2233E-02  0.4407E-03  0.3416E-01  0.2951E+02
   -0.425261    4.22068  0.0000E+00  0.2181E-03  0.1648E-02  0.4431E-03  0.3187E-01  0.2854E+03
   -0.467789    4.23632  0.0000E+00  0.1901E-03  0.1196E-02  0.4375E-03  0.2864E-01 -0.1141E+02
   -0.510317    4.25142  0.0000E+00  0.1671E-03  0.8512E-03  0.4409E-03  0.2549E-01  0.3420E+01
   -0.552845    4.26597  0.0000E+00  0.1483E-03  0.5970E-03  0.4421E-03  0.2272E-01  0.8609E+01
   -0.595373    4.28084  0.0000E+00  0.1328E-03  0.4167E-03  0.4470E-03  0.1991E-01  0.3100E+02
   -0.637901    4.29690  0.0000E+00  0.1196E-03  0.2889E-03  0.4589E-03  0.1742E-01  0.4839E+03
   -0.680429    4.31312  0.0000E+00  0.1085E-03  0.1993E-03  0.4683E-03  0.1559E-01  0.9904E+03
   -0.722958    4.32916  0.0000E+00  0.9875E-04  0.1368E-03  0.4818E-03  0.1403E-01  0.1780E+05
   -0.765486    4.34563  0.0000E+00  0.9029E-04  0.9311E-04  0.4984E-03  0.1278E-01  0.6979E+07
   -0.808015    4.36150  0.0000E+00  0.8281E-04  0.6262E-04  0.5099E-03  0.1183E-01  0.1386E+07
   -0.850544    4.37723  0.0000E+00  0.7624E-04  0.4187E-04  0.5227E-03  0.1097E-01  0.2791E+06
   -0.893072    4.39329  0.0000E+00  0.7041E-04  0.2767E-04  0.5379E-03  0.1019E-01  0.3199E+06
   -0.935601    4.40939  0.0000E+00  0.6525E-04  0.1815E-04  0.5494E-03  0.9526E-02  0.7512E+06
   -0.978129    4.42473  0.0000E+00  0.6065E-04  0.1191E-04  0.5636E-03  0.8852E-02  0.1535E+06
   -1.020658    4.44156  0.0000E+00  0.5654E-04  0.7866E-05  0.5736E-03  0.8262E-02  0.1004E+06
   -1.063186    4.45636  0.0000E+00  0.5285E-04  0.5190E-05  0.5788E-03  0.7670E-02  0.1233E+05
   -1.105714    4.47192  0.0000E+00  0.4955E-04  0.3384E-05  0.5798E-03  0.7139E-02  0.4249E+06
   -1.148243    4.48663  0.0000E+00  0.4662E-04  0.2225E-05  0.5765E-03  0.6597E-02  0.8736E+04
   -1.190771    4.50228  0.0000E+00  0.4402E-04  0.1535E-05  0.5722E-03  0.5992E-02  0.2688E+05
   -1.233298    4.51893  0.0000E+00  0.4161E-04  0.1121E-05  0.5718E-03  0.5397E-02  0.3074E+06
   -1.275826    4.53353  0.0000E+00  0.3929E-04  0.8568E-06  0.5690E-03  0.4881E-02  0.1673E+07
   -1.318353    4.55015  0.0000E+00  0.3703E-04  0.7223E-06  0.5493E-03  0.4409E-02  0.5619E+07
   -1.360881    4.56690  0.0000E+00  0.3475E-04  0.6448E-06  0.5312E-03  0.3977E-02  0.1418E+08
   -1.403408    4.58548  0.0000E+00  0.3234E-04  0.6279E-06  0.5009E-03  0.3591E-02  0.1918E+09
   -1.445934    4.60426  0.0000E+00  0.2997E-04  0.6866E-06  0.4461E-03  0.3217E-02  0.1435E+09
   -1.488461    4.62505  0.0000E+00  0.2765E-04  0.8439E-06  0.4030E-03  0.2787E-02  0.2289E+09
   -1.530987    4.64611  0.0000E+00  0.2512E-04  0.1198E-05  0.3445E-03  0.2228E-02  0.1664E+09
   -1.573512    4.67796  0.0000E+00  0.2250E-04  0.2063E-05  0.3374E-03  0.1698E-02 -0.5281E+09
   -1.616038    4.72243  0.0000E+00  0.1830E-04  0.5190E-05  0.2062E-03  0.1424E-02  0.6401E+11
   -1.658563    4.89610  0.0000E+00  0.1294E-04  0.1165E-04  0.1555E-03  0.1087E-02 -0.3332E+13
   -1.701087    5.11353  0.0000E+00  0.0000E+00  0.0000E+00  0.0000E+00  0.1804E-02  0.0000E+00
