 1 - depth, m
 2 - temperature, C
 3 - salinity, kg/kg
 4 - turbulent kinetic energy, m**2/s**2
 5 - dissipation rate, m**2/s**3
 6 - kinematic heat conductance, m**2/s
 7 - modulus of horizontal velocity, m/s
 8 - Richardson number, n/d
   -0.000000   11.25926  0.0000E+00  0.1816E-03  0.2409E-03  0.4806E-04  0.9774E-01 -0.1122E+00
   -0.042497   11.47037  0.0000E+00  0.8998E-04  0.6323E-04  0.1444E-03  0.2385E-01  0.1422E+01
   -0.084995   11.52640  0.0000E+00  0.6415E-04  0.2914E-04  0.1989E-03  0.1481E-01  0.1703E+02
   -0.127493   11.55445  0.0000E+00  0.5038E-04  0.1676E-04  0.2602E-03  0.1159E-01  0.1440E+02
   -0.169991   11.57257  0.0000E+00  0.4096E-04  0.9882E-05  0.3351E-03  0.9434E-02  0.9707E+01
   -0.212489   11.58631  0.0000E+00  0.3407E-04  0.5708E-05  0.4131E-03  0.7761E-02  0.1855E+02
   -0.254988   11.59753  0.0000E+00  0.2898E-04  0.3275E-05  0.4996E-03  0.6488E-02  0.1157E+03
   -0.297487   11.60616  0.0000E+00  0.2543E-04  0.1785E-05  0.5851E-03  0.5553E-02  0.2841E+02
   -0.339987   11.61384  0.0000E+00  0.2316E-04  0.1077E-05  0.6608E-03  0.4801E-02  0.1777E+02
   -0.382487   11.62006  0.0000E+00  0.2166E-04  0.6735E-06  0.7387E-03  0.4143E-02  0.8755E+01
   -0.424987   11.62593  0.0000E+00  0.2073E-04  0.4299E-06  0.8115E-03  0.3595E-02  0.6456E+01
   -0.467487   11.63050  0.0000E+00  0.2019E-04  0.2992E-06  0.8789E-03  0.3114E-02  0.3858E+02
   -0.509987   11.63501  0.0000E+00  0.1990E-04  0.2147E-06  0.9460E-03  0.2685E-02  0.1245E+02
   -0.552488   11.63859  0.0000E+00  0.1978E-04  0.1674E-06  0.1013E-02  0.2308E-02  0.4614E+01
   -0.594988   11.64221  0.0000E+00  0.1975E-04  0.1383E-06  0.1080E-02  0.1966E-02  0.4411E+01
   -0.637489   11.64532  0.0000E+00  0.1978E-04  0.1195E-06  0.1148E-02  0.1665E-02  0.2377E+01
   -0.679990   11.64835  0.0000E+00  0.1984E-04  0.1072E-06  0.1216E-02  0.1410E-02  0.2243E+01
   -0.722491   11.65113  0.0000E+00  0.1990E-04  0.9861E-07  0.1279E-02  0.1197E-02  0.1759E+01
   -0.764992   11.65384  0.0000E+00  0.1994E-04  0.9253E-07  0.1340E-02  0.1022E-02  0.1561E+01
   -0.807493   11.65652  0.0000E+00  0.1996E-04  0.8819E-07  0.1386E-02  0.8839E-03  0.1533E+01
   -0.849995   11.65918  0.0000E+00  0.1994E-04  0.8524E-07  0.1415E-02  0.7717E-03  0.1591E+01
   -0.892496   11.66182  0.0000E+00  0.1989E-04  0.8348E-07  0.1427E-02  0.6802E-03  0.1675E+01
   -0.934997   11.66451  0.0000E+00  0.1981E-04  0.8272E-07  0.1424E-02  0.6049E-03  0.1798E+01
   -0.977498   11.66720  0.0000E+00  0.1969E-04  0.8286E-07  0.1403E-02  0.5415E-03  0.1964E+01
   -1.019999   11.66998  0.0000E+00  0.1953E-04  0.8385E-07  0.1376E-02  0.4878E-03  0.2281E+01
   -1.062500   11.67280  0.0000E+00  0.1934E-04  0.8579E-07  0.1332E-02  0.4413E-03  0.2639E+01
   -1.105001   11.67576  0.0000E+00  0.1912E-04  0.8874E-07  0.1295E-02  0.4001E-03  0.2704E+01
   -1.147501   11.67880  0.0000E+00  0.1886E-04  0.9303E-07  0.1224E-02  0.3629E-03  0.3342E+03
   -1.190002   11.68208  0.0000E+00  0.1858E-04  0.9906E-07  0.1170E-02  0.3270E-03  0.1354E+03
   -1.232502   11.68533  0.0000E+00  0.1825E-04  0.1084E-06  0.1109E-02  0.2933E-03 -0.8185E+01
   -1.275003   11.68942  0.0000E+00  0.1785E-04  0.1229E-06  0.1023E-02  0.2616E-03  0.1705E+03
   -1.317503   11.69403  0.0000E+00  0.1735E-04  0.1452E-06  0.9692E-03  0.2321E-03 -0.3151E+03
   -1.360002   11.70121  0.0000E+00  0.1669E-04  0.1825E-06  0.8725E-03  0.2035E-03  0.1638E+04
   -1.402502   11.70872  0.0000E+00  0.1585E-04  0.2434E-06  0.7732E-03  0.1770E-03  0.6393E+04
   -1.445001   11.72085  0.0000E+00  0.1482E-04  0.3422E-06  0.6791E-03  0.1511E-03  0.2069E+06
   -1.487500   11.73525  0.0000E+00  0.1392E-04  0.4982E-06  0.5948E-03  0.1183E-03 -0.7945E+04
   -1.529998   11.75151  0.0000E+00  0.1291E-04  0.9372E-06  0.4969E-03  0.8775E-04 -0.6389E+06
   -1.572497   11.83183  0.0000E+00  0.1215E-04  0.1582E-05  0.5246E-03  0.5649E-04  0.1262E+13
   -1.614995   11.75263  0.0000E+00  0.1061E-04  0.4642E-05  0.2889E-03  0.4722E-04 -0.3424E+10
   -1.657492   12.13974  0.0000E+00  0.8410E-05  0.9078E-05  0.3136E-03  0.2904E-04 -0.2446E+06
   -1.699989   12.04828  0.0000E+00  0.0000E+00  0.0000E+00  0.0000E+00  0.6373E-04  0.0000E+00
