 1 - depth, m
 2 - temperature, C
 3 - salinity, kg/kg
 4 - turbulent kinetic energy, m**2/s**2
 5 - dissipation rate, m**2/s**3
 6 - kinematic heat conductance, m**2/s
 7 - modulus of horizontal velocity, m/s
 8 - Richardson number, n/d
   -0.000000    5.81684  0.0000E+00  0.4282E-03  0.7549E-02  0.8464E-04  0.1946E+00 -0.8482E-01
   -0.042497    6.22812  0.0000E+00  0.2335E-03  0.5020E-02  0.2070E-03  0.4292E-01 -0.1244E+00
   -0.084995    6.29364  0.0000E+00  0.1710E-03  0.3619E-02  0.1896E-03  0.2848E-01 -0.9013E-01
   -0.127493    6.34001  0.0000E+00  0.1308E-03  0.2412E-02  0.1729E-03  0.2293E-01  0.7158E-01
   -0.169991    6.37615  0.0000E+00  0.9878E-04  0.1465E-02  0.1702E-03  0.1889E-01  0.9756E+01
   -0.212490    6.40925  0.0000E+00  0.7513E-04  0.8718E-03  0.1806E-03  0.1550E-01  0.2460E+02
   -0.254989    6.43854  0.0000E+00  0.5848E-04  0.5155E-03  0.2019E-03  0.1288E-01  0.2109E+02
   -0.297488    6.46470  0.0000E+00  0.4600E-04  0.2924E-03  0.2268E-03  0.1095E-01  0.1658E+02
   -0.339988    6.48789  0.0000E+00  0.3691E-04  0.1593E-03  0.2595E-03  0.9377E-02  0.2097E+03
   -0.382488    6.50935  0.0000E+00  0.3024E-04  0.8104E-04  0.3016E-03  0.7988E-02  0.5530E+02
   -0.424988    6.52743  0.0000E+00  0.2546E-04  0.3712E-04  0.3530E-03  0.6867E-02  0.2726E+03
   -0.467488    6.54310  0.0000E+00  0.2205E-04  0.1495E-04  0.4005E-03  0.5880E-02  0.6014E+02
   -0.509989    6.55626  0.0000E+00  0.1961E-04  0.4932E-05  0.4473E-03  0.5020E-02  0.3921E+02
   -0.552489    6.56725  0.0000E+00  0.1793E-04  0.1306E-05  0.4916E-03  0.4267E-02  0.2146E+02
   -0.594990    6.57733  0.0000E+00  0.1678E-04  0.3837E-06  0.5394E-03  0.3591E-02  0.2426E+02
   -0.637491    6.58556  0.0000E+00  0.1597E-04  0.1768E-06  0.5956E-03  0.3009E-02  0.1820E+02
   -0.679992    6.59301  0.0000E+00  0.1537E-04  0.1234E-06  0.6490E-03  0.2524E-02  0.1058E+02
   -0.722493    6.59968  0.0000E+00  0.1492E-04  0.1008E-06  0.7066E-03  0.2112E-02  0.1881E+01
   -0.764994    6.60612  0.0000E+00  0.1458E-04  0.8696E-07  0.7677E-03  0.1773E-02  0.6782E+01
   -0.807496    6.61223  0.0000E+00  0.1430E-04  0.7641E-07  0.8278E-03  0.1504E-02  0.1589E+01
   -0.849997    6.61821  0.0000E+00  0.1407E-04  0.6837E-07  0.8866E-03  0.1283E-02  0.1458E+01
   -0.892498    6.62391  0.0000E+00  0.1388E-04  0.6221E-07  0.9431E-03  0.1101E-02  0.3046E+01
   -0.934999    6.62945  0.0000E+00  0.1370E-04  0.5760E-07  0.9902E-03  0.9528E-03  0.1563E+01
   -0.977501    6.63474  0.0000E+00  0.1354E-04  0.5423E-07  0.1026E-02  0.8276E-03  0.1436E+01
   -1.020002    6.63991  0.0000E+00  0.1338E-04  0.5184E-07  0.1048E-02  0.7230E-03  0.1424E+01
   -1.062503    6.64494  0.0000E+00  0.1322E-04  0.5028E-07  0.1054E-02  0.6334E-03  0.1392E+01
   -1.105004    6.64992  0.0000E+00  0.1306E-04  0.4945E-07  0.1048E-02  0.5564E-03  0.1380E+01
   -1.147504    6.65484  0.0000E+00  0.1291E-04  0.4931E-07  0.1031E-02  0.4882E-03  0.1379E+01
   -1.190005    6.65968  0.0000E+00  0.1276E-04  0.4984E-07  0.1001E-02  0.4265E-03  0.1408E+01
   -1.232506    6.66444  0.0000E+00  0.1262E-04  0.5110E-07  0.9613E-03  0.3712E-03  0.1507E+01
   -1.275006    6.66953  0.0000E+00  0.1248E-04  0.5325E-07  0.9130E-03  0.3248E-03  0.1912E+01
   -1.317506    6.67511  0.0000E+00  0.1233E-04  0.5667E-07  0.8648E-03  0.2859E-03  0.3089E+01
   -1.360006    6.68146  0.0000E+00  0.1214E-04  0.6231E-07  0.8004E-03  0.2525E-03 -0.1122E+03
   -1.402505    6.68942  0.0000E+00  0.1186E-04  0.7179E-07  0.7375E-03  0.2222E-03  0.1644E+04
   -1.445005    6.69932  0.0000E+00  0.1150E-04  0.8778E-07  0.6560E-03  0.1932E-03  0.2152E+04
   -1.487504    6.71298  0.0000E+00  0.1109E-04  0.1127E-06  0.5945E-03  0.1599E-03  0.2905E+04
   -1.530002    6.72621  0.0000E+00  0.1061E-04  0.1796E-06  0.4669E-03  0.1264E-03 -0.8819E+03
   -1.572501    6.77802  0.0000E+00  0.1009E-04  0.3110E-06  0.4775E-03  0.9085E-04  0.1023E+08
   -1.614999    6.75240  0.0000E+00  0.8786E-05  0.8343E-06  0.2104E-03  0.7336E-04 -0.3583E+11
   -1.657496    7.06824  0.0000E+00  0.6449E-05  0.1939E-05  0.1546E-03  0.4722E-04 -0.2688E+06
   -1.699994    7.05743  0.0000E+00  0.0000E+00  0.0000E+00  0.0000E+00  0.7067E-04  0.0000E+00
