 1 - depth, m
 2 - temperature, C
 3 - salinity, kg/kg
 4 - turbulent kinetic energy, m**2/s**2
 5 - dissipation rate, m**2/s**3
 6 - kinematic heat conductance, m**2/s
 7 - modulus of horizontal velocity, m/s
 8 - Richardson number, n/d
   -0.000000   -0.00097  0.0000E+00  0.8073E-03  0.1993E-02  0.1290E-03  0.4379E+00  0.3415E+00
   -0.042498    0.07514  0.0000E+00  0.4836E-03  0.9378E-03  0.2470E-03  0.1167E+00  0.6883E-01
   -0.084996    0.12047  0.0000E+00  0.3427E-03  0.3436E-03  0.2743E-03  0.7090E-01  0.7285E+00
   -0.127495    0.14917  0.0000E+00  0.2693E-03  0.1840E-03  0.2631E-03  0.5627E-01  0.4095E+00
   -0.169994    0.17258  0.0000E+00  0.2199E-03  0.1157E-03  0.2643E-03  0.4705E-01  0.1436E+00
   -0.212493    0.19486  0.0000E+00  0.1821E-03  0.7606E-04  0.2656E-03  0.3996E-01  0.1423E+00
   -0.254993    0.21775  0.0000E+00  0.1531E-03  0.4235E-04  0.2713E-03  0.3460E-01  0.7169E+01
   -0.297493    0.23947  0.0000E+00  0.1311E-03  0.2714E-04  0.2739E-03  0.3094E-01  0.1034E+02
   -0.339994    0.26149  0.0000E+00  0.1135E-03  0.9915E-05  0.2738E-03  0.2805E-01  0.1157E+03
   -0.382494    0.28334  0.0000E+00  0.9986E-04  0.5247E-05  0.2763E-03  0.2533E-01  0.5590E+02
   -0.424995    0.30426  0.0000E+00  0.8907E-04  0.3614E-05  0.2730E-03  0.2315E-01  0.2981E+02
   -0.467496    0.32499  0.0000E+00  0.8014E-04  0.2666E-05  0.2694E-03  0.2093E-01  0.2043E+01
   -0.509997    0.34562  0.0000E+00  0.7245E-04  0.2080E-05  0.2629E-03  0.1880E-01  0.3449E+01
   -0.552498    0.36737  0.0000E+00  0.6565E-04  0.1679E-05  0.2536E-03  0.1678E-01  0.6607E+01
   -0.595000    0.39148  0.0000E+00  0.5934E-04  0.1382E-05  0.2432E-03  0.1481E-01  0.3088E+02
   -0.637502    0.42056  0.0000E+00  0.5328E-04  0.1146E-05  0.2319E-03  0.1297E-01  0.1387E+04
   -0.680003    0.46224  0.0000E+00  0.4755E-04  0.9521E-06  0.2171E-03  0.1137E-01  0.1275E+06
   -0.722505    0.53932  0.0000E+00  0.4216E-04  0.7905E-06  0.2015E-03  0.9935E-02  0.4716E+07
   -0.765007    0.69852  0.0000E+00  0.3719E-04  0.6554E-06  0.1978E-03  0.8702E-02  0.2548E+10
   -0.807509    0.92937  0.0000E+00  0.3263E-04  0.5426E-06  0.1977E-03  0.7708E-02  0.1219E+10
   -0.850011    1.19022  0.0000E+00  0.2854E-04  0.4477E-06  0.1947E-03  0.6805E-02  0.6002E+08
   -0.892513    1.44172  0.0000E+00  0.2495E-04  0.3699E-06  0.2007E-03  0.6052E-02  0.2276E+11
   -0.935015    1.58261  0.0000E+00  0.2178E-04  0.3065E-06  0.1986E-03  0.5433E-02  0.5044E+09
   -0.977517    1.70136  0.0000E+00  0.1892E-04  0.2535E-06  0.2008E-03  0.4883E-02  0.2991E+10
   -1.020019    1.84041  0.0000E+00  0.1636E-04  0.2096E-06  0.1992E-03  0.4383E-02  0.8693E+09
   -1.062520    1.95930  0.0000E+00  0.1408E-04  0.1731E-06  0.1973E-03  0.3904E-02  0.1050E+10
   -1.105022    2.08013  0.0000E+00  0.1206E-04  0.1433E-06  0.1950E-03  0.3476E-02  0.1511E+10
   -1.147524    2.21558  0.0000E+00  0.1031E-04  0.1190E-06  0.1923E-03  0.3006E-02  0.2565E+09
   -1.190025    2.38493  0.0000E+00  0.8720E-05  0.9756E-07  0.1914E-03  0.2365E-02  0.7936E+10
   -1.232526    2.61561  0.0000E+00  0.7213E-05  0.7716E-07  0.1892E-03  0.1685E-02  0.1761E+12
   -1.275027    2.89706  0.0000E+00  0.5860E-05  0.5736E-07  0.1939E-03  0.1125E-02  0.1131E+12
   -1.317528    3.28505  0.0000E+00  0.4934E-05  0.4221E-07  0.2073E-03  0.6792E-03  0.3781E+14
   -1.360028    3.68560  0.0000E+00  0.4358E-05  0.3272E-07  0.2216E-03  0.4428E-03  0.1273E+15
   -1.402529    3.93515  0.0000E+00  0.3952E-05  0.2619E-07  0.2305E-03  0.3137E-03  0.1936E+15
   -1.445029    4.11837  0.0000E+00  0.3683E-05  0.2214E-07  0.2242E-03  0.2190E-03 -0.1549E+14
   -1.487529    4.26335  0.0000E+00  0.3544E-05  0.2030E-07  0.2244E-03  0.1357E-03 -0.2444E+14
   -1.530028    4.37438  0.0000E+00  0.3529E-05  0.2107E-07  0.1972E-03  0.7515E-04 -0.3748E+14
   -1.572527    4.46878  0.0000E+00  0.3608E-05  0.2594E-07  0.1697E-03  0.4124E-04 -0.9211E+14
   -1.615026    4.57915  0.0000E+00  0.3578E-05  0.4447E-07  0.1107E-03  0.2555E-04 -0.1910E+15
   -1.657524    4.73685  0.0000E+00  0.2792E-05  0.1214E-06  0.2754E-04  0.1567E-04 -0.1141E+16
   -1.700022    5.22158  0.0000E+00  0.0000E+00  0.0000E+00  0.0000E+00  0.1798E-04  0.0000E+00
