 1 - depth, m
 2 - temperature, C
 3 - salinity, kg/kg
 4 - turbulent kinetic energy, m**2/s**2
 5 - dissipation rate, m**2/s**3
 6 - kinematic heat conductance, m**2/s
 7 - modulus of horizontal velocity, m/s
 8 - Richardson number, n/d
   -0.000000   11.36515  0.0000E+00  0.9969E-03  0.4791E-02  0.1192E-03  0.4335E+00  0.5160E-01
   -0.042497   11.63982  0.0000E+00  0.4969E-03  0.2025E-02  0.2822E-03  0.9375E-01 -0.5414E+00
   -0.084995   11.71662  0.0000E+00  0.3271E-03  0.7903E-03  0.2540E-03  0.5410E-01 -0.2767E+00
   -0.127493   11.76395  0.0000E+00  0.2428E-03  0.3879E-03  0.2634E-03  0.4272E-01  0.3521E+00
   -0.169991   11.79393  0.0000E+00  0.1865E-03  0.1900E-03  0.2451E-03  0.3477E-01  0.5908E+01
   -0.212489   11.82498  0.0000E+00  0.1460E-03  0.1018E-03  0.2717E-03  0.2847E-01  0.2975E+04
   -0.254988   11.84724  0.0000E+00  0.1167E-03  0.5471E-04  0.3148E-03  0.2389E-01  0.7945E+01
   -0.297488   11.86364  0.0000E+00  0.9469E-04  0.2637E-04  0.3553E-03  0.2076E-01  0.2318E+02
   -0.339987   11.87732  0.0000E+00  0.7897E-04  0.1469E-04  0.3939E-03  0.1829E-01  0.2196E+03
   -0.382487   11.89020  0.0000E+00  0.6746E-04  0.8565E-05  0.4419E-03  0.1592E-01  0.1722E+03
   -0.424987   11.90088  0.0000E+00  0.5906E-04  0.5031E-05  0.4827E-03  0.1418E-01  0.7729E+02
   -0.467487   11.91087  0.0000E+00  0.5280E-04  0.3032E-05  0.5382E-03  0.1242E-01  0.1848E+03
   -0.509987   11.91993  0.0000E+00  0.4810E-04  0.1901E-05  0.6063E-03  0.1085E-01  0.8324E+02
   -0.552488   11.92699  0.0000E+00  0.4456E-04  0.1297E-05  0.6733E-03  0.9516E-02  0.1806E+03
   -0.594989   11.93293  0.0000E+00  0.4173E-04  0.9337E-06  0.7393E-03  0.8320E-02  0.4281E+03
   -0.637490   11.93811  0.0000E+00  0.3940E-04  0.7131E-06  0.8159E-03  0.7252E-02  0.2842E+04
   -0.679990   11.94269  0.0000E+00  0.3744E-04  0.5701E-06  0.8709E-03  0.6367E-02  0.8867E+02
   -0.722492   11.94695  0.0000E+00  0.3573E-04  0.4689E-06  0.9249E-03  0.5582E-02  0.2218E+02
   -0.764993   11.95094  0.0000E+00  0.3419E-04  0.3946E-06  0.9929E-03  0.4913E-02  0.2649E+02
   -0.807494   11.95475  0.0000E+00  0.3279E-04  0.3369E-06  0.1017E-02  0.4358E-02  0.9986E+01
   -0.849995   11.95852  0.0000E+00  0.3147E-04  0.2907E-06  0.1057E-02  0.3852E-02  0.7952E+02
   -0.892496   11.96216  0.0000E+00  0.3022E-04  0.2528E-06  0.1086E-02  0.3409E-02  0.1303E+02
   -0.934997   11.96585  0.0000E+00  0.2905E-04  0.2223E-06  0.1109E-02  0.3016E-02  0.7893E+02
   -0.977498   11.96936  0.0000E+00  0.2794E-04  0.1977E-06  0.1123E-02  0.2663E-02  0.6588E+01
   -1.019999   11.97298  0.0000E+00  0.2686E-04  0.1779E-06  0.1125E-02  0.2347E-02  0.4092E+01
   -1.062500   11.97645  0.0000E+00  0.2580E-04  0.1622E-06  0.1121E-02  0.2055E-02  0.7813E+01
   -1.105001   11.98003  0.0000E+00  0.2472E-04  0.1499E-06  0.1078E-02  0.1791E-02  0.4242E+01
   -1.147502   11.98364  0.0000E+00  0.2392E-04  0.1431E-06  0.1286E-02  0.1523E-02  0.8917E+01
   -1.190002   11.98673  0.0000E+00  0.2330E-04  0.1408E-06  0.1141E-02  0.1365E-02  0.1091E+02
   -1.232503   11.99004  0.0000E+00  0.2263E-04  0.1413E-06  0.1002E-02  0.1225E-02  0.6735E+01
   -1.275003   11.99382  0.0000E+00  0.2171E-04  0.1457E-06  0.9489E-03  0.1017E-02  0.7180E+01
   -1.317503   11.99812  0.0000E+00  0.2084E-04  0.1572E-06  0.8984E-03  0.8581E-03  0.1498E+01
   -1.360003   12.00341  0.0000E+00  0.1987E-04  0.1816E-06  0.8287E-03  0.7261E-03  0.2098E+03
   -1.402502   12.01044  0.0000E+00  0.1872E-04  0.2317E-06  0.7786E-03  0.6179E-03  0.1662E+03
   -1.445001   12.02032  0.0000E+00  0.1737E-04  0.3287E-06  0.6770E-03  0.5203E-03  0.1477E+04
   -1.487500   12.03461  0.0000E+00  0.1612E-04  0.4807E-06  0.6170E-03  0.4080E-03  0.2681E+05
   -1.529999   12.04527  0.0000E+00  0.1483E-04  0.9131E-06  0.4762E-03  0.2975E-03 -0.1788E+05
   -1.572497   12.12143  0.0000E+00  0.1385E-04  0.1713E-05  0.5172E-03  0.1821E-03  0.1469E+12
   -1.614995   12.05200  0.0000E+00  0.1201E-04  0.5230E-05  0.2762E-03  0.1498E-03 -0.1098E+10
   -1.657493   12.39647  0.0000E+00  0.9402E-05  0.9897E-05  0.2943E-03  0.9152E-04  0.5846E+06
   -1.699990   12.30447  0.0000E+00  0.0000E+00  0.0000E+00  0.0000E+00  0.2015E-03  0.0000E+00
