 1 - depth, m
 2 - temperature, C
 3 - salinity, kg/kg
 4 - turbulent kinetic energy, m**2/s**2
 5 - dissipation rate, m**2/s**3
 6 - kinematic heat conductance, m**2/s
 7 - modulus of horizontal velocity, m/s
 8 - Richardson number, n/d
   -0.000000   16.11898  0.0000E+00  0.5063E-03  0.1145E-02  0.1051E-03  0.2706E+00 -0.2020E-02
   -0.042497   16.33195  0.0000E+00  0.2444E-03  0.3928E-03  0.1908E-03  0.6055E-01 -0.9944E-01
   -0.084995   16.41798  0.0000E+00  0.1646E-03  0.1859E-03  0.1816E-03  0.3452E-01  0.2303E+01
   -0.127493   16.45774  0.0000E+00  0.1238E-03  0.1093E-03  0.1904E-03  0.2665E-01  0.6296E+02
   -0.169991   16.48162  0.0000E+00  0.9527E-04  0.6314E-04  0.2137E-03  0.2165E-01  0.3833E+01
   -0.212490   16.49902  0.0000E+00  0.7436E-04  0.3707E-04  0.2597E-03  0.1760E-01  0.3538E+02
   -0.254989   16.51516  0.0000E+00  0.5870E-04  0.2120E-04  0.3096E-03  0.1448E-01  0.7669E+02
   -0.297488   16.52701  0.0000E+00  0.4755E-04  0.1180E-04  0.3636E-03  0.1233E-01  0.6439E+02
   -0.339987   16.53754  0.0000E+00  0.3978E-04  0.6478E-05  0.4075E-03  0.1064E-01  0.4028E+03
   -0.382487   16.54597  0.0000E+00  0.3439E-04  0.3355E-05  0.4643E-03  0.9101E-02  0.4173E+02
   -0.424987   16.55386  0.0000E+00  0.3074E-04  0.1984E-05  0.5137E-03  0.7882E-02  0.1329E+03
   -0.467487   16.55941  0.0000E+00  0.2830E-04  0.1211E-05  0.5642E-03  0.6776E-02  0.1058E+03
   -0.509988   16.56505  0.0000E+00  0.2667E-04  0.7686E-06  0.6187E-03  0.5807E-02  0.6875E+02
   -0.552488   16.56925  0.0000E+00  0.2559E-04  0.5192E-06  0.6604E-03  0.4974E-02  0.6425E+02
   -0.594989   16.57341  0.0000E+00  0.2487E-04  0.3578E-06  0.7224E-03  0.4218E-02  0.2937E+02
   -0.637490   16.57679  0.0000E+00  0.2436E-04  0.2683E-06  0.7831E-03  0.3561E-02  0.2876E+02
   -0.679991   16.58019  0.0000E+00  0.2398E-04  0.2131E-06  0.8474E-03  0.2998E-02  0.4848E+02
   -0.722492   16.58299  0.0000E+00  0.2368E-04  0.1784E-06  0.9151E-03  0.2519E-02  0.4381E+02
   -0.764993   16.58590  0.0000E+00  0.2341E-04  0.1554E-06  0.9856E-03  0.2128E-02  0.3337E+01
   -0.807494   16.58849  0.0000E+00  0.2317E-04  0.1389E-06  0.1057E-02  0.1813E-02  0.3753E+01
   -0.849996   16.59110  0.0000E+00  0.2295E-04  0.1283E-06  0.1230E-02  0.1559E-02  0.5091E+03
   -0.892497   16.59341  0.0000E+00  0.2273E-04  0.1207E-06  0.1242E-02  0.1385E-02  0.9841E+01
   -0.934998   16.59575  0.0000E+00  0.2248E-04  0.1148E-06  0.1160E-02  0.1230E-02  0.5539E+01
   -0.977499   16.59823  0.0000E+00  0.2217E-04  0.1106E-06  0.1195E-02  0.1071E-02  0.2913E+01
   -1.020000   16.60065  0.0000E+00  0.2183E-04  0.1083E-06  0.1205E-02  0.9410E-03  0.2863E+01
   -1.062501   16.60305  0.0000E+00  0.2147E-04  0.1078E-06  0.1200E-02  0.8290E-03  0.2814E+01
   -1.105002   16.60546  0.0000E+00  0.2109E-04  0.1090E-06  0.1180E-02  0.7327E-03  0.3007E+01
   -1.147503   16.60793  0.0000E+00  0.2069E-04  0.1121E-06  0.1146E-02  0.6474E-03 -0.9732E+02
   -1.190003   16.61044  0.0000E+00  0.2030E-04  0.1174E-06  0.1099E-02  0.5697E-03  0.1481E+02
   -1.232504   16.61304  0.0000E+00  0.1989E-04  0.1266E-06  0.1048E-02  0.4992E-03  0.1016E+02
   -1.275004   16.61601  0.0000E+00  0.1943E-04  0.1417E-06  0.9919E-03  0.4383E-03  0.4605E+04
   -1.317504   16.61951  0.0000E+00  0.1888E-04  0.1666E-06  0.9354E-03  0.3854E-03  0.1197E+02
   -1.360004   16.62455  0.0000E+00  0.1818E-04  0.2060E-06  0.8741E-03  0.3363E-03  0.1314E+04
   -1.402504   16.63019  0.0000E+00  0.1728E-04  0.2741E-06  0.7775E-03  0.2933E-03  0.1489E+05
   -1.445003   16.63846  0.0000E+00  0.1620E-04  0.3884E-06  0.6795E-03  0.2499E-03  0.3191E+05
   -1.487502   16.64849  0.0000E+00  0.1528E-04  0.5622E-06  0.6024E-03  0.1984E-03  0.1168E+05
   -1.530000   16.66119  0.0000E+00  0.1427E-04  0.1125E-05  0.5070E-03  0.1489E-03 -0.4283E+05
   -1.572499   16.71313  0.0000E+00  0.1348E-04  0.1852E-05  0.5488E-03  0.9904E-04  0.2813E+11
   -1.614997   16.65957  0.0000E+00  0.1169E-04  0.5418E-05  0.3050E-03  0.8195E-04 -0.2219E+10
   -1.657494   16.91604  0.0000E+00  0.9143E-05  0.1024E-04  0.3168E-03  0.5144E-04  0.2457E+05
   -1.699991   16.85801  0.0000E+00  0.0000E+00  0.0000E+00  0.0000E+00  0.1074E-03  0.0000E+00
