 1 - depth, m
 2 - temperature, C
 3 - salinity, kg/kg
 4 - turbulent kinetic energy, m**2/s**2
 5 - dissipation rate, m**2/s**3
 6 - kinematic heat conductance, m**2/s
 7 - modulus of horizontal velocity, m/s
 8 - Richardson number, n/d
   -0.000000   -0.00033  0.0000E+00  0.1027E-03  0.4463E-04  0.4741E-04  0.9336E-01  0.1543E+00
   -0.042497    0.51516  0.0000E+00  0.5679E-04  0.1321E-04  0.6286E-04  0.3078E-01  0.1864E+01
   -0.084995    0.90634  0.0000E+00  0.3794E-04  0.5205E-05  0.9160E-04  0.2112E-01  0.2227E+01
   -0.127493    1.14169  0.0000E+00  0.2511E-04  0.2193E-05  0.8851E-04  0.1567E-01  0.1262E+03
   -0.169992    1.36128  0.0000E+00  0.1615E-04  0.9621E-06  0.9532E-04  0.1162E-01  0.1206E+02
   -0.212491    1.62465  0.0000E+00  0.9831E-05  0.4272E-06  0.1027E-03  0.8248E-02  0.2099E+02
   -0.254990    1.94191  0.0000E+00  0.5586E-05  0.1849E-06  0.1124E-03  0.5538E-02  0.8953E+01
   -0.297489    2.38004  0.0000E+00  0.3209E-05  0.7411E-07  0.1324E-03  0.3531E-02  0.9409E+03
   -0.339989    3.15174  0.0000E+00  0.2370E-05  0.2824E-07  0.1870E-03  0.1863E-02  0.1051E+03
   -0.382489    3.92135  0.0000E+00  0.2282E-05  0.1168E-07  0.2622E-03  0.6860E-03  0.2202E+03
   -0.424989    4.21971  0.0000E+00  0.2341E-05  0.7255E-08  0.3362E-03  0.3143E-03  0.1865E+03
   -0.467490    4.26572  0.0000E+00  0.2418E-05  0.5863E-08  0.3819E-03  0.2124E-03  0.1727E+03
   -0.509991    4.28498  0.0000E+00  0.2502E-05  0.5291E-08  0.4196E-03  0.1633E-03  0.3584E+02
   -0.552491    4.29788  0.0000E+00  0.2588E-05  0.5030E-08  0.4538E-03  0.1335E-03  0.3096E+02
   -0.594992    4.30840  0.0000E+00  0.2674E-05  0.4904E-08  0.4846E-03  0.1121E-03  0.2901E+02
   -0.637494    4.31778  0.0000E+00  0.2762E-05  0.4847E-08  0.5144E-03  0.9545E-04  0.3372E+02
   -0.679995    4.32656  0.0000E+00  0.2850E-05  0.4834E-08  0.5419E-03  0.8215E-04  0.4180E+02
   -0.722496    4.33503  0.0000E+00  0.2939E-05  0.4852E-08  0.5681E-03  0.7124E-04  0.5387E+02
   -0.764997    4.34339  0.0000E+00  0.3028E-05  0.4896E-08  0.5923E-03  0.6231E-04  0.7112E+02
   -0.807499    4.35180  0.0000E+00  0.3117E-05  0.4960E-08  0.6150E-03  0.5499E-04  0.9631E+02
   -0.850000    4.36017  0.0000E+00  0.3204E-05  0.5042E-08  0.6349E-03  0.4887E-04  0.1256E+03
   -0.892502    4.36847  0.0000E+00  0.3287E-05  0.5139E-08  0.6530E-03  0.4364E-04  0.1585E+03
   -0.935003    4.37675  0.0000E+00  0.3366E-05  0.5250E-08  0.6676E-03  0.3915E-04  0.5843E+02
   -0.977504    4.38489  0.0000E+00  0.3440E-05  0.5374E-08  0.6796E-03  0.3519E-04 -0.2763E+04
   -1.020006    4.39298  0.0000E+00  0.3509E-05  0.5512E-08  0.6881E-03  0.3169E-04  0.2318E+03
   -1.062507    4.40090  0.0000E+00  0.3572E-05  0.5665E-08  0.6932E-03  0.2852E-04 -0.4842E+04
   -1.105008    4.40874  0.0000E+00  0.3629E-05  0.5835E-08  0.6944E-03  0.2563E-04  0.3778E+03
   -1.147509    4.41639  0.0000E+00  0.3679E-05  0.6018E-08  0.7211E-03  0.2293E-04  0.1760E+04
   -1.190010    4.42356  0.0000E+00  0.3726E-05  0.6227E-08  0.6880E-03  0.2047E-04  0.2336E+04
   -1.232510    4.43061  0.0000E+00  0.3770E-05  0.6470E-08  0.6765E-03  0.1812E-04  0.5826E+03
   -1.275011    4.43810  0.0000E+00  0.3813E-05  0.6781E-08  0.6608E-03  0.1588E-04  0.2107E+03
   -1.317511    4.44603  0.0000E+00  0.3856E-05  0.7166E-08  0.6393E-03  0.1384E-04  0.1077E+04
   -1.360011    4.45456  0.0000E+00  0.3898E-05  0.7658E-08  0.6101E-03  0.1201E-04  0.1542E+04
   -1.402511    4.46410  0.0000E+00  0.3937E-05  0.8338E-08  0.5739E-03  0.1038E-04  0.2481E+04
   -1.445011    4.47508  0.0000E+00  0.3968E-05  0.9172E-08  0.5329E-03  0.8864E-05  0.3824E+04
   -1.487510    4.48639  0.0000E+00  0.3994E-05  0.1024E-07  0.4881E-03  0.7391E-05  0.5473E+04
   -1.530009    4.49729  0.0000E+00  0.4023E-05  0.1199E-07  0.4137E-03  0.5953E-05  0.9007E+04
   -1.572507    4.50995  0.0000E+00  0.4053E-05  0.1596E-07  0.3431E-03  0.4628E-05  0.2592E+06
   -1.615005    4.53095  0.0000E+00  0.3964E-05  0.3150E-07  0.1810E-03  0.3617E-05 -0.1905E+08
   -1.657503    4.61674  0.0000E+00  0.2944E-05  0.1075E-06  0.3539E-04  0.2540E-05 -0.7399E+08
   -1.700000    4.97106  0.0000E+00  0.0000E+00  0.0000E+00  0.0000E+00  0.2621E-05  0.0000E+00
