 1 - depth, m
 2 - temperature, C
 3 - salinity, kg/kg
 4 - turbulent kinetic energy, m**2/s**2
 5 - dissipation rate, m**2/s**3
 6 - kinematic heat conductance, m**2/s
 7 - modulus of horizontal velocity, m/s
 8 - Richardson number, n/d
   -0.000000   15.18466  0.0000E+00  0.2170E-02  0.3754E-01  0.2177E-03  0.6847E+00  0.3985E-02
   -0.042497   15.45568  0.0000E+00  0.1014E-02  0.2231E-01  0.3286E-03  0.1455E+00  0.2387E+00
   -0.084995   15.57579  0.0000E+00  0.6430E-03  0.1018E-01  0.4258E-03  0.7676E-01  0.2794E+00
   -0.127493   15.63007  0.0000E+00  0.4747E-03  0.6945E-02  0.3759E-03  0.5834E-01  0.1592E+02
   -0.169991   15.65824  0.0000E+00  0.3683E-03  0.5168E-02  0.3490E-03  0.4675E-01  0.1194E+01
   -0.212490   15.67912  0.0000E+00  0.2876E-03  0.3878E-02  0.3592E-03  0.3767E-01  0.2169E+03
   -0.254989   15.69571  0.0000E+00  0.2260E-03  0.2981E-02  0.3877E-03  0.3109E-01 -0.3975E+01
   -0.297488   15.71168  0.0000E+00  0.1813E-03  0.2229E-02  0.4142E-03  0.2675E-01  0.7328E+02
   -0.339988   15.72248  0.0000E+00  0.1497E-03  0.1684E-02  0.4434E-03  0.2382E-01  0.8363E+02
   -0.382487   15.73166  0.0000E+00  0.1254E-03  0.1243E-02  0.4758E-03  0.2096E-01  0.3602E+02
   -0.424987   15.73802  0.0000E+00  0.1070E-03  0.8817E-03  0.5001E-03  0.1924E-01  0.1304E+02
   -0.467488   15.74591  0.0000E+00  0.9343E-04  0.6194E-03  0.5284E-03  0.1690E-01  0.1156E+03
   -0.509988   15.75302  0.0000E+00  0.8264E-04  0.4205E-03  0.5860E-03  0.1460E-01  0.8022E+02
   -0.552489   15.76002  0.0000E+00  0.7407E-04  0.3044E-03  0.6390E-03  0.1269E-01  0.6479E+02
   -0.594989   15.76632  0.0000E+00  0.6692E-04  0.2187E-03  0.7187E-03  0.1082E-01  0.1574E+03
   -0.637490   15.77249  0.0000E+00  0.6114E-04  0.1405E-03  0.7733E-03  0.9276E-02  0.1139E+03
   -0.679991   15.77584  0.0000E+00  0.5635E-04  0.9869E-04  0.8358E-03  0.8168E-02  0.3576E+03
   -0.722492   15.78043  0.0000E+00  0.5219E-04  0.6782E-04  0.8985E-03  0.7157E-02  0.4306E+02
   -0.764994   15.78386  0.0000E+00  0.4859E-04  0.4549E-04  0.9722E-03  0.6352E-02  0.2001E+03
   -0.807495   15.78777  0.0000E+00  0.4550E-04  0.3503E-04  0.1023E-02  0.5739E-02  0.3343E+03
   -0.849996   15.78998  0.0000E+00  0.4276E-04  0.2709E-04  0.1062E-02  0.5193E-02  0.3957E+03
   -0.892497   15.79261  0.0000E+00  0.4023E-04  0.1812E-04  0.1085E-02  0.4690E-02  0.2673E+04
   -0.934998   15.79706  0.0000E+00  0.3794E-04  0.1151E-04  0.1111E-02  0.4230E-02  0.6014E+02
   -0.977500   15.79909  0.0000E+00  0.3587E-04  0.7223E-05  0.1136E-02  0.3795E-02  0.4484E+02
   -1.020001   15.80313  0.0000E+00  0.3407E-04  0.4302E-05  0.1171E-02  0.3407E-02  0.1154E+04
   -1.062502   15.80454  0.0000E+00  0.3257E-04  0.2516E-05  0.1180E-02  0.3080E-02  0.2171E+03
   -1.105003   15.80815  0.0000E+00  0.3118E-04  0.1536E-05  0.1141E-02  0.2788E-02  0.3988E+02
   -1.147503   15.81088  0.0000E+00  0.2982E-04  0.9714E-06  0.1105E-02  0.2475E-02 -0.1853E+03
   -1.190004   15.81286  0.0000E+00  0.2862E-04  0.5770E-06  0.1090E-02  0.2161E-02  0.2369E+02
   -1.232504   15.81669  0.0000E+00  0.2748E-04  0.4190E-06  0.1039E-02  0.1865E-02  0.2034E+03
   -1.275005   15.81899  0.0000E+00  0.2633E-04  0.3602E-06  0.9676E-03  0.1616E-02  0.6623E+02
   -1.317505   15.82254  0.0000E+00  0.2514E-04  0.3219E-06  0.9190E-03  0.1381E-02  0.2044E+03
   -1.360005   15.82670  0.0000E+00  0.2390E-04  0.2947E-06  0.8520E-03  0.1183E-02 -0.5082E+04
   -1.402504   15.83175  0.0000E+00  0.2247E-04  0.3142E-06  0.7800E-03  0.1021E-02 -0.4213E+04
   -1.445003   15.83873  0.0000E+00  0.2090E-04  0.3995E-06  0.6987E-03  0.8701E-03  0.1048E+05
   -1.487502   15.84833  0.0000E+00  0.1942E-04  0.5737E-06  0.6244E-03  0.7061E-03  0.8591E+04
   -1.530001   15.85734  0.0000E+00  0.1793E-04  0.1068E-05  0.5073E-03  0.5199E-03  0.4887E+07
   -1.572499   15.90015  0.0000E+00  0.1667E-04  0.1982E-05  0.5264E-03  0.3468E-03  0.4374E+09
   -1.614997   15.87008  0.0000E+00  0.1434E-04  0.5894E-05  0.2827E-03  0.2797E-03 -0.1318E+10
   -1.657495   16.08809  0.0000E+00  0.1097E-04  0.1097E-04  0.2712E-03  0.1905E-03 -0.1063E+07
   -1.699992   16.05624  0.0000E+00  0.0000E+00  0.0000E+00  0.0000E+00  0.3630E-03  0.0000E+00
