 1 - depth, m
 2 - temperature, C
 3 - salinity, kg/kg
 4 - turbulent kinetic energy, m**2/s**2
 5 - dissipation rate, m**2/s**3
 6 - kinematic heat conductance, m**2/s
 7 - modulus of horizontal velocity, m/s
 8 - Richardson number, n/d
   -0.000000    9.48761  0.0000E+00  0.4085E-04  0.1355E-04  0.3574E-04  0.3684E-01  0.5861E+01
   -0.042497    9.64464  0.0000E+00  0.2427E-04  0.3564E-05  0.9259E-04  0.1138E-01  0.2879E+03
   -0.084995    9.68349  0.0000E+00  0.1891E-04  0.1567E-05  0.1515E-03  0.7475E-02  0.1650E+02
   -0.127493    9.70716  0.0000E+00  0.1609E-04  0.8299E-06  0.2277E-03  0.5527E-02  0.2638E+02
   -0.169991    9.72351  0.0000E+00  0.1451E-04  0.4658E-06  0.3261E-03  0.4278E-02  0.2816E+02
   -0.212490    9.73510  0.0000E+00  0.1369E-04  0.2750E-06  0.4225E-03  0.3420E-02  0.1755E+02
   -0.254989    9.74359  0.0000E+00  0.1337E-04  0.1758E-06  0.5197E-03  0.2811E-02  0.5835E+01
   -0.297488    9.75017  0.0000E+00  0.1338E-04  0.1224E-06  0.6096E-03  0.2372E-02  0.1527E+02
   -0.339988    9.75561  0.0000E+00  0.1361E-04  0.9531E-07  0.6979E-03  0.2033E-02  0.2523E+01
   -0.382488    9.76026  0.0000E+00  0.1394E-04  0.8014E-07  0.7829E-03  0.1757E-02  0.3542E+01
   -0.424988    9.76436  0.0000E+00  0.1433E-04  0.7058E-07  0.8583E-03  0.1528E-02  0.1905E+01
   -0.467488    9.76804  0.0000E+00  0.1474E-04  0.6437E-07  0.9306E-03  0.1325E-02  0.1895E+01
   -0.509988    9.77140  0.0000E+00  0.1515E-04  0.6023E-07  0.1004E-02  0.1144E-02  0.1921E+01
   -0.552489    9.77446  0.0000E+00  0.1554E-04  0.5751E-07  0.1078E-02  0.9835E-03  0.1803E+01
   -0.594990    9.77729  0.0000E+00  0.1591E-04  0.5584E-07  0.1153E-02  0.8414E-03  0.1773E+01
   -0.637491    9.77994  0.0000E+00  0.1625E-04  0.5494E-07  0.1237E-02  0.7181E-03  0.1740E+01
   -0.679992    9.78246  0.0000E+00  0.1655E-04  0.5465E-07  0.1326E-02  0.6158E-03  0.1773E+01
   -0.722493    9.78487  0.0000E+00  0.1680E-04  0.5486E-07  0.1421E-02  0.5323E-03  0.1842E+01
   -0.764994    9.78722  0.0000E+00  0.1702E-04  0.5545E-07  0.1506E-02  0.4663E-03  0.1963E+01
   -0.807495    9.78955  0.0000E+00  0.1718E-04  0.5633E-07  0.1547E-02  0.4151E-03  0.2159E+01
   -0.849997    9.79194  0.0000E+00  0.1730E-04  0.5741E-07  0.1545E-02  0.3746E-03  0.2401E+01
   -0.892498    9.79441  0.0000E+00  0.1737E-04  0.5870E-07  0.1524E-02  0.3419E-03  0.2676E+01
   -0.934999    9.79701  0.0000E+00  0.1740E-04  0.6016E-07  0.1495E-02  0.3151E-03  0.3090E+01
   -0.977500    9.79968  0.0000E+00  0.1739E-04  0.6185E-07  0.1460E-02  0.2923E-03  0.3547E+01
   -1.020001    9.80249  0.0000E+00  0.1735E-04  0.6383E-07  0.1419E-02  0.2725E-03  0.4145E+01
   -1.062502    9.80538  0.0000E+00  0.1726E-04  0.6623E-07  0.1373E-02  0.2546E-03  0.3929E+01
   -1.105003    9.80841  0.0000E+00  0.1714E-04  0.6920E-07  0.1317E-02  0.2377E-03  0.5440E+01
   -1.147504    9.81155  0.0000E+00  0.1698E-04  0.7292E-07  0.1263E-02  0.2213E-03  0.7057E+01
   -1.190005    9.81482  0.0000E+00  0.1678E-04  0.7778E-07  0.1197E-02  0.2047E-03  0.5169E+02
   -1.232505    9.81811  0.0000E+00  0.1654E-04  0.8471E-07  0.1133E-02  0.1878E-03  0.8824E+03
   -1.275006    9.82209  0.0000E+00  0.1623E-04  0.9509E-07  0.1051E-02  0.1709E-03 -0.8509E+03
   -1.317506    9.82681  0.0000E+00  0.1583E-04  0.1110E-06  0.9894E-03  0.1538E-03 -0.4928E+03
   -1.360005    9.83320  0.0000E+00  0.1528E-04  0.1390E-06  0.8894E-03  0.1366E-03  0.7749E+04
   -1.402505    9.84238  0.0000E+00  0.1456E-04  0.1869E-06  0.7940E-03  0.1192E-03  0.7673E+03
   -1.445004    9.85308  0.0000E+00  0.1368E-04  0.2685E-06  0.6834E-03  0.1028E-03  0.6662E+05
   -1.487503    9.86934  0.0000E+00  0.1290E-04  0.3821E-06  0.6059E-03  0.8134E-04  0.3044E+06
   -1.530002    9.88436  0.0000E+00  0.1204E-04  0.7066E-06  0.4865E-03  0.6131E-04 -0.5020E+06
   -1.572500    9.97111  0.0000E+00  0.1135E-04  0.1202E-05  0.5334E-03  0.4051E-04  0.1571E+12
   -1.614998    9.88223  0.0000E+00  0.9884E-05  0.3293E-05  0.2659E-03  0.3346E-04 -0.1216E+11
   -1.657496   10.30449  0.0000E+00  0.7742E-05  0.6659E-05  0.2812E-03  0.2098E-04 -0.8872E+07
   -1.699993   10.19707  0.0000E+00  0.0000E+00  0.0000E+00  0.0000E+00  0.4188E-04  0.0000E+00
