 1 - depth, m
 2 - temperature, C
 3 - salinity, kg/kg
 4 - turbulent kinetic energy, m**2/s**2
 5 - dissipation rate, m**2/s**3
 6 - kinematic heat conductance, m**2/s
 7 - modulus of horizontal velocity, m/s
 8 - Richardson number, n/d
   -0.000000   16.40801  0.0000E+00  0.1858E-04  0.2672E-05  0.2871E-04  0.1797E-01 -0.1307E+00
   -0.042498   16.47216  0.0000E+00  0.1436E-04  0.7697E-06  0.1360E-03  0.6929E-02  0.1971E+03
   -0.084996   16.48644  0.0000E+00  0.1314E-04  0.3665E-06  0.2344E-03  0.4756E-02  0.4548E+02
   -0.127495   16.49458  0.0000E+00  0.1279E-04  0.2144E-06  0.3262E-03  0.3678E-02  0.4050E+03
   -0.169994   16.50022  0.0000E+00  0.1294E-04  0.1453E-06  0.4487E-03  0.2965E-02  0.5860E+02
   -0.212493   16.50427  0.0000E+00  0.1337E-04  0.1107E-06  0.5786E-03  0.2454E-02  0.1296E+02
   -0.254993   16.50736  0.0000E+00  0.1396E-04  0.9160E-07  0.7064E-03  0.2069E-02  0.5656E+01
   -0.297493   16.50987  0.0000E+00  0.1462E-04  0.8007E-07  0.8276E-03  0.1777E-02  0.1706E+01
   -0.339993   16.51202  0.0000E+00  0.1528E-04  0.7277E-07  0.9413E-03  0.1546E-02  0.1629E+01
   -0.382493   16.51393  0.0000E+00  0.1593E-04  0.6789E-07  0.1051E-02  0.1352E-02  0.1565E+01
   -0.424994   16.51567  0.0000E+00  0.1654E-04  0.6458E-07  0.1149E-02  0.1188E-02  0.1563E+01
   -0.467495   16.51726  0.0000E+00  0.1711E-04  0.6236E-07  0.1242E-02  0.1042E-02  0.1537E+01
   -0.509996   16.51872  0.0000E+00  0.1763E-04  0.6100E-07  0.1335E-02  0.9113E-03  0.1495E+01
   -0.552497   16.52009  0.0000E+00  0.1809E-04  0.6033E-07  0.1427E-02  0.7943E-03  0.1454E+01
   -0.594999   16.52137  0.0000E+00  0.1850E-04  0.6025E-07  0.1514E-02  0.6904E-03  0.1406E+01
   -0.637500   16.52257  0.0000E+00  0.1887E-04  0.6068E-07  0.1594E-02  0.6001E-03  0.1348E+01
   -0.680002   16.52375  0.0000E+00  0.1919E-04  0.6152E-07  0.1659E-02  0.5245E-03  0.1315E+01
   -0.722504   16.52490  0.0000E+00  0.1945E-04  0.6271E-07  0.1703E-02  0.4624E-03  0.1283E+01
   -0.765006   16.52607  0.0000E+00  0.1966E-04  0.6417E-07  0.1733E-02  0.4124E-03  0.1258E+01
   -0.807507   16.52727  0.0000E+00  0.1983E-04  0.6582E-07  0.1731E-02  0.3729E-03  0.1235E+01
   -0.850009   16.52853  0.0000E+00  0.1991E-04  0.6727E-07  0.1922E-02  0.3412E-03  0.2228E+01
   -0.892511   16.52969  0.0000E+00  0.1996E-04  0.6894E-07  0.1605E-02  0.3256E-03  0.7656E+01
   -0.935013   16.53117  0.0000E+00  0.1998E-04  0.7087E-07  0.1668E-02  0.3085E-03  0.1520E+01
   -0.977515   16.53260  0.0000E+00  0.1996E-04  0.7337E-07  0.1628E-02  0.2885E-03  0.1605E+01
   -1.020017   16.53410  0.0000E+00  0.1990E-04  0.7624E-07  0.1571E-02  0.2710E-03  0.1868E+01
   -1.062518   16.53567  0.0000E+00  0.1979E-04  0.7967E-07  0.1511E-02  0.2546E-03  0.2203E+01
   -1.105020   16.53732  0.0000E+00  0.1964E-04  0.8387E-07  0.1444E-02  0.2390E-03  0.3345E+01
   -1.147521   16.53908  0.0000E+00  0.1944E-04  0.8908E-07  0.1378E-02  0.2236E-03 -0.2911E+02
   -1.190023   16.54091  0.0000E+00  0.1920E-04  0.9575E-07  0.1309E-02  0.2078E-03  0.4578E+01
   -1.232524   16.54282  0.0000E+00  0.1890E-04  0.1051E-06  0.1229E-02  0.1916E-03  0.7573E+04
   -1.275025   16.54510  0.0000E+00  0.1852E-04  0.1188E-06  0.1171E-02  0.1751E-03  0.1332E+03
   -1.317525   16.54785  0.0000E+00  0.1802E-04  0.1395E-06  0.1050E-02  0.1582E-03  0.3607E+05
   -1.360026   16.55170  0.0000E+00  0.1736E-04  0.1720E-06  0.9764E-03  0.1407E-03  0.1494E+05
   -1.402526   16.55674  0.0000E+00  0.1649E-04  0.2270E-06  0.8477E-03  0.1236E-03  0.2013E+05
   -1.445026   16.56383  0.0000E+00  0.1543E-04  0.3162E-06  0.7428E-03  0.1066E-03  0.9348E+05
   -1.487526   16.57283  0.0000E+00  0.1449E-04  0.4539E-06  0.6493E-03  0.8459E-04  0.1269E+06
   -1.530025   16.58288  0.0000E+00  0.1345E-04  0.9500E-06  0.5470E-03  0.6348E-04 -0.2595E+06
   -1.572524   16.63186  0.0000E+00  0.1270E-04  0.1579E-05  0.5634E-03  0.4152E-04  0.9009E+11
   -1.615023   16.58890  0.0000E+00  0.1108E-04  0.5216E-05  0.3108E-03  0.3438E-04 -0.2745E+11
   -1.657521   16.83794  0.0000E+00  0.8779E-05  0.9514E-05  0.3386E-03  0.2156E-04 -0.3757E+06
   -1.700019   16.76377  0.0000E+00  0.0000E+00  0.0000E+00  0.0000E+00  0.4586E-04  0.0000E+00
