 1 - depth, m
 2 - temperature, C
 3 - salinity, kg/kg
 4 - turbulent kinetic energy, m**2/s**2
 5 - dissipation rate, m**2/s**3
 6 - kinematic heat conductance, m**2/s
 7 - modulus of horizontal velocity, m/s
 8 - Richardson number, n/d
   -0.000000    4.32017  0.0000E+00  0.1089E-03  0.4654E-04  0.5476E-04  0.8925E-01  0.4104E-01
   -0.042497    4.61080  0.0000E+00  0.6033E-04  0.1310E-04  0.7269E-04  0.2680E-01 -0.6889E-01
   -0.084995    4.68102  0.0000E+00  0.4220E-04  0.5315E-05  0.7498E-04  0.1802E-01 -0.3373E-01
   -0.127493    4.73887  0.0000E+00  0.3117E-04  0.2534E-05  0.7990E-04  0.1354E-01  0.4093E+01
   -0.169991    4.78948  0.0000E+00  0.2360E-04  0.1293E-05  0.8778E-04  0.1038E-01  0.9823E+01
   -0.212490    4.83551  0.0000E+00  0.1820E-04  0.6901E-06  0.1021E-03  0.7970E-02  0.3401E+01
   -0.254989    4.87740  0.0000E+00  0.1436E-04  0.3858E-06  0.1286E-03  0.6174E-02  0.5613E+02
   -0.297489    4.91454  0.0000E+00  0.1175E-04  0.2293E-06  0.1619E-03  0.4883E-02  0.1232E+03
   -0.339988    4.94617  0.0000E+00  0.1004E-04  0.1461E-06  0.2093E-03  0.3937E-02  0.6524E+02
   -0.382488    4.97203  0.0000E+00  0.8923E-05  0.9905E-07  0.2719E-03  0.3216E-02  0.1993E+03
   -0.424988    4.99210  0.0000E+00  0.8220E-05  0.7156E-07  0.3383E-03  0.2681E-02  0.5387E+02
   -0.467489    5.00754  0.0000E+00  0.7786E-05  0.5483E-07  0.3984E-03  0.2250E-02  0.4819E+03
   -0.509989    5.01995  0.0000E+00  0.7525E-05  0.4410E-07  0.4533E-03  0.1889E-02  0.4909E+02
   -0.552490    5.03022  0.0000E+00  0.7380E-05  0.3689E-07  0.5062E-03  0.1581E-02  0.2474E+02
   -0.594991    5.03904  0.0000E+00  0.7315E-05  0.3191E-07  0.5542E-03  0.1312E-02  0.3545E+02
   -0.637492    5.04693  0.0000E+00  0.7305E-05  0.2832E-07  0.6071E-03  0.1080E-02  0.1869E+01
   -0.679993    5.05420  0.0000E+00  0.7333E-05  0.2569E-07  0.6607E-03  0.8898E-03  0.2647E+01
   -0.722494    5.06102  0.0000E+00  0.7387E-05  0.2375E-07  0.7177E-03  0.7334E-03  0.1417E+01
   -0.764995    5.06757  0.0000E+00  0.7453E-05  0.2231E-07  0.7765E-03  0.6100E-03  0.1320E+01
   -0.807496    5.07396  0.0000E+00  0.7522E-05  0.2126E-07  0.8311E-03  0.5156E-03  0.1289E+01
   -0.849998    5.08017  0.0000E+00  0.7587E-05  0.2052E-07  0.8771E-03  0.4420E-03  0.1260E+01
   -0.892499    5.08623  0.0000E+00  0.7645E-05  0.2002E-07  0.9136E-03  0.3836E-03  0.1244E+01
   -0.935000    5.09222  0.0000E+00  0.7692E-05  0.1970E-07  0.9389E-03  0.3373E-03  0.1264E+01
   -0.977502    5.09810  0.0000E+00  0.7729E-05  0.1953E-07  0.9530E-03  0.2992E-03  0.1293E+01
   -1.020003    5.10395  0.0000E+00  0.7756E-05  0.1949E-07  0.9597E-03  0.2676E-03  0.1357E+01
   -1.062504    5.10974  0.0000E+00  0.7775E-05  0.1956E-07  0.9597E-03  0.2405E-03  0.1415E+01
   -1.105005    5.11548  0.0000E+00  0.7786E-05  0.1973E-07  0.9548E-03  0.2171E-03  0.1493E+01
   -1.147506    5.12117  0.0000E+00  0.7790E-05  0.2000E-07  0.9451E-03  0.1958E-03  0.1594E+01
   -1.190006    5.12668  0.0000E+00  0.7791E-05  0.2038E-07  0.9294E-03  0.1762E-03  0.1700E+01
   -1.232507    5.13203  0.0000E+00  0.7790E-05  0.2093E-07  0.9069E-03  0.1580E-03  0.1924E+01
   -1.275007    5.13759  0.0000E+00  0.7784E-05  0.2169E-07  0.8775E-03  0.1417E-03  0.2491E+01
   -1.317507    5.14351  0.0000E+00  0.7772E-05  0.2277E-07  0.8415E-03  0.1268E-03  0.3507E+01
   -1.360007    5.14993  0.0000E+00  0.7749E-05  0.2434E-07  0.7909E-03  0.1130E-03  0.5286E+01
   -1.402507    5.15721  0.0000E+00  0.7705E-05  0.2674E-07  0.7359E-03  0.1002E-03  0.8544E+01
   -1.445006    5.16586  0.0000E+00  0.7635E-05  0.3029E-07  0.6636E-03  0.8780E-04  0.1917E+02
   -1.487505    5.17575  0.0000E+00  0.7548E-05  0.3559E-07  0.6120E-03  0.7463E-04  0.2407E+03
   -1.530004    5.18492  0.0000E+00  0.7438E-05  0.4748E-07  0.4804E-03  0.6168E-04 -0.2453E+04
   -1.572503    5.20328  0.0000E+00  0.7282E-05  0.7328E-07  0.4874E-03  0.4806E-04  0.1134E+09
   -1.615001    5.20846  0.0000E+00  0.6654E-05  0.1766E-06  0.1997E-03  0.3971E-04 -0.5251E+09
   -1.657498    5.37580  0.0000E+00  0.4679E-05  0.4769E-06  0.8283E-04  0.2572E-04 -0.1311E+07
   -1.699996    5.51366  0.0000E+00  0.0000E+00  0.0000E+00  0.0000E+00  0.3053E-04  0.0000E+00
