 1 - depth, m
 2 - temperature, C
 3 - salinity, kg/kg
 4 - turbulent kinetic energy, m**2/s**2
 5 - dissipation rate, m**2/s**3
 6 - kinematic heat conductance, m**2/s
 7 - modulus of horizontal velocity, m/s
 8 - Richardson number, n/d
   -0.000000    5.41607  0.0000E+00  0.2899E-03  0.2094E-03  0.6817E-04  0.1651E+00  0.5839E-03
   -0.042497    5.73955  0.0000E+00  0.1531E-03  0.6464E-04  0.1586E-03  0.3813E-01 -0.2730E-01
   -0.084995    5.79421  0.0000E+00  0.1091E-03  0.3137E-04  0.1419E-03  0.2537E-01 -0.6617E-01
   -0.127493    5.83900  0.0000E+00  0.8185E-04  0.1622E-04  0.1351E-03  0.1997E-01 -0.9580E-02
   -0.169991    5.87548  0.0000E+00  0.6229E-04  0.8691E-05  0.1374E-03  0.1613E-01  0.4080E+01
   -0.212490    5.90704  0.0000E+00  0.4792E-04  0.4742E-05  0.1479E-03  0.1304E-01  0.2843E+02
   -0.254989    5.93573  0.0000E+00  0.3730E-04  0.2606E-05  0.1658E-03  0.1064E-01  0.2250E+01
   -0.297488    5.96191  0.0000E+00  0.2966E-04  0.1468E-05  0.1929E-03  0.8839E-02  0.1830E+03
   -0.339988    5.98543  0.0000E+00  0.2440E-04  0.8726E-06  0.2322E-03  0.7397E-02  0.3860E+02
   -0.382488    6.00560  0.0000E+00  0.2070E-04  0.5534E-06  0.2805E-03  0.6195E-02  0.2540E+02
   -0.424988    6.02254  0.0000E+00  0.1815E-04  0.3744E-06  0.3307E-03  0.5261E-02  0.5485E+02
   -0.467488    6.03656  0.0000E+00  0.1636E-04  0.2673E-06  0.3912E-03  0.4475E-02  0.7600E+02
   -0.509989    6.04815  0.0000E+00  0.1508E-04  0.1993E-06  0.4479E-03  0.3811E-02  0.3677E+02
   -0.552489    6.05782  0.0000E+00  0.1415E-04  0.1539E-06  0.4981E-03  0.3240E-02  0.7928E+01
   -0.594990    6.06609  0.0000E+00  0.1347E-04  0.1228E-06  0.5478E-03  0.2737E-02  0.6085E+01
   -0.637491    6.07341  0.0000E+00  0.1297E-04  0.1005E-06  0.6043E-03  0.2299E-02  0.9495E+01
   -0.679992    6.08006  0.0000E+00  0.1260E-04  0.8413E-07  0.6654E-03  0.1928E-02  0.1643E+02
   -0.722493    6.08620  0.0000E+00  0.1233E-04  0.7196E-07  0.7359E-03  0.1615E-02  0.4550E+01
   -0.764995    6.09198  0.0000E+00  0.1213E-04  0.6276E-07  0.8113E-03  0.1359E-02  0.2113E+01
   -0.807496    6.09751  0.0000E+00  0.1197E-04  0.5571E-07  0.8802E-03  0.1155E-02  0.1435E+01
   -0.849997    6.10282  0.0000E+00  0.1185E-04  0.5038E-07  0.9371E-03  0.9891E-03  0.1401E+01
   -0.892498    6.10795  0.0000E+00  0.1175E-04  0.4631E-07  0.9821E-03  0.8531E-03  0.1312E+01
   -0.935000    6.11301  0.0000E+00  0.1167E-04  0.4326E-07  0.1015E-02  0.7414E-03  0.1305E+01
   -0.977501    6.11795  0.0000E+00  0.1158E-04  0.4103E-07  0.1037E-02  0.6471E-03  0.1266E+01
   -1.020002    6.12284  0.0000E+00  0.1151E-04  0.3946E-07  0.1050E-02  0.5680E-03  0.1262E+01
   -1.062503    6.12767  0.0000E+00  0.1143E-04  0.3844E-07  0.1052E-02  0.4999E-03  0.1233E+01
   -1.105004    6.13246  0.0000E+00  0.1135E-04  0.3790E-07  0.1045E-02  0.4411E-03  0.1232E+01
   -1.147505    6.13723  0.0000E+00  0.1127E-04  0.3781E-07  0.1031E-02  0.3887E-03  0.1240E+01
   -1.190005    6.14190  0.0000E+00  0.1120E-04  0.3815E-07  0.1009E-02  0.3409E-03  0.1287E+01
   -1.232506    6.14646  0.0000E+00  0.1113E-04  0.3897E-07  0.9766E-03  0.2977E-03  0.1392E+01
   -1.275006    6.15128  0.0000E+00  0.1106E-04  0.4034E-07  0.9360E-03  0.2609E-03  0.1764E+01
   -1.317506    6.15650  0.0000E+00  0.1099E-04  0.4243E-07  0.8870E-03  0.2299E-03  0.6325E+01
   -1.360006    6.16232  0.0000E+00  0.1089E-04  0.4563E-07  0.8229E-03  0.2030E-03  0.4534E+01
   -1.402506    6.16910  0.0000E+00  0.1075E-04  0.5079E-07  0.7616E-03  0.1794E-03  0.5072E+01
   -1.445005    6.17772  0.0000E+00  0.1056E-04  0.5880E-07  0.6738E-03  0.1568E-03  0.1124E+03
   -1.487504    6.18814  0.0000E+00  0.1033E-04  0.7160E-07  0.6233E-03  0.1324E-03  0.1190E+04
   -1.530003    6.19977  0.0000E+00  0.1003E-04  0.1020E-06  0.4854E-03  0.1074E-03  0.1872E+05
   -1.572501    6.22830  0.0000E+00  0.9627E-05  0.1641E-06  0.4982E-03  0.8056E-04  0.7368E+08
   -1.614999    6.22680  0.0000E+00  0.8442E-05  0.4237E-06  0.2099E-03  0.6504E-04 -0.4431E+10
   -1.657497    6.47995  0.0000E+00  0.6077E-05  0.1101E-05  0.1190E-03  0.4236E-04 -0.3438E+06
   -1.699994    6.53189  0.0000E+00  0.0000E+00  0.0000E+00  0.0000E+00  0.5639E-04  0.0000E+00
