 1 - depth, m
 2 - temperature, C
 3 - salinity, kg/kg
 4 - turbulent kinetic energy, m**2/s**2
 5 - dissipation rate, m**2/s**3
 6 - kinematic heat conductance, m**2/s
 7 - modulus of horizontal velocity, m/s
 8 - Richardson number, n/d
   -0.000000    9.28659  0.0000E+00  0.1899E-02  0.4853E-01  0.1312E-03  0.5755E+00 -0.2942E-02
   -0.042497    9.56827  0.0000E+00  0.1014E-02  0.1991E-01  0.2734E-03  0.1219E+00 -0.1353E+00
   -0.084995    9.74855  0.0000E+00  0.6967E-03  0.7116E-02  0.3273E-03  0.6715E-01  0.2508E+00
   -0.127493    9.81758  0.0000E+00  0.4957E-03  0.3360E-02  0.3229E-03  0.5014E-01  0.9446E+00
   -0.169991    9.85780  0.0000E+00  0.3556E-03  0.1741E-02  0.3060E-03  0.3997E-01  0.1239E+02
   -0.212490    9.88389  0.0000E+00  0.2573E-03  0.9253E-03  0.3264E-03  0.3143E-01  0.6251E+01
   -0.254989    9.91462  0.0000E+00  0.1909E-03  0.5604E-03  0.3551E-03  0.2453E-01  0.7395E+02
   -0.297489    9.93222  0.0000E+00  0.1434E-03  0.3496E-03  0.4046E-03  0.2101E-01  0.2116E+02
   -0.339988    9.94809  0.0000E+00  0.1157E-03  0.2290E-03  0.4325E-03  0.1873E-01  0.1378E+02
   -0.382488    9.96140  0.0000E+00  0.9640E-04  0.1474E-03  0.4655E-03  0.1655E-01  0.1559E+03
   -0.424988    9.97049  0.0000E+00  0.8200E-04  0.9209E-04  0.4905E-03  0.1505E-01  0.1712E+03
   -0.467489    9.98025  0.0000E+00  0.7127E-04  0.5478E-04  0.5366E-03  0.1324E-01  0.1086E+03
   -0.509989    9.98870  0.0000E+00  0.6298E-04  0.3212E-04  0.5744E-03  0.1154E-01  0.7446E+02
   -0.552490    9.99591  0.0000E+00  0.5652E-04  0.1871E-04  0.6279E-03  0.1008E-01  0.9560E+02
   -0.594991   10.00452  0.0000E+00  0.5151E-04  0.1068E-04  0.6905E-03  0.8724E-02  0.5742E+03
   -0.637492   10.00933  0.0000E+00  0.4750E-04  0.6055E-05  0.7489E-03  0.7582E-02  0.6473E+02
   -0.679993   10.01600  0.0000E+00  0.4430E-04  0.3727E-05  0.8116E-03  0.6691E-02  0.9861E+03
   -0.722494   10.01982  0.0000E+00  0.4164E-04  0.2393E-05  0.8831E-03  0.5934E-02  0.9450E+02
   -0.764995   10.02570  0.0000E+00  0.3933E-04  0.1494E-05  0.9664E-03  0.5320E-02  0.5610E+04
   -0.807497   10.02903  0.0000E+00  0.3730E-04  0.9667E-06  0.1021E-02  0.4830E-02  0.3139E+04
   -0.849998   10.03435  0.0000E+00  0.3551E-04  0.6981E-06  0.1068E-02  0.4376E-02  0.1186E+04
   -0.892499   10.03810  0.0000E+00  0.3397E-04  0.5569E-06  0.1114E-02  0.3987E-02 -0.3031E+02
   -0.935001   10.04216  0.0000E+00  0.3259E-04  0.4550E-06  0.1134E-02  0.3653E-02  0.1665E+03
   -0.977502   10.04630  0.0000E+00  0.3129E-04  0.3706E-06  0.1147E-02  0.3329E-02  0.8034E+03
   -1.020003   10.05008  0.0000E+00  0.3009E-04  0.3160E-06  0.1152E-02  0.3037E-02  0.1998E+02
   -1.062504   10.05405  0.0000E+00  0.2895E-04  0.2780E-06  0.1147E-02  0.2756E-02  0.1842E+02
   -1.105005   10.05778  0.0000E+00  0.2790E-04  0.2502E-06  0.1143E-02  0.2491E-02  0.3879E+02
   -1.147506   10.06158  0.0000E+00  0.2694E-04  0.2305E-06  0.1115E-02  0.2246E-02  0.2011E+02
   -1.190007   10.06525  0.0000E+00  0.2603E-04  0.2165E-06  0.1077E-02  0.2006E-02  0.2009E+02
   -1.232507   10.06897  0.0000E+00  0.2510E-04  0.2073E-06  0.1032E-02  0.1759E-02  0.2369E+02
   -1.275008   10.07299  0.0000E+00  0.2415E-04  0.2031E-06  0.9781E-03  0.1540E-02  0.4831E+02
   -1.317508   10.07756  0.0000E+00  0.2315E-04  0.2053E-06  0.9134E-03  0.1341E-02  0.6892E+02
   -1.360008   10.08298  0.0000E+00  0.2205E-04  0.2181E-06  0.8417E-03  0.1164E-02  0.2179E+03
   -1.402507   10.09008  0.0000E+00  0.2077E-04  0.2527E-06  0.7798E-03  0.1011E-02  0.1313E+04
   -1.445007   10.09915  0.0000E+00  0.1939E-04  0.3287E-06  0.6858E-03  0.8687E-03  0.3926E+04
   -1.487506   10.11266  0.0000E+00  0.1806E-04  0.4607E-06  0.6162E-03  0.7160E-03  0.5499E+05
   -1.530005   10.12348  0.0000E+00  0.1668E-04  0.8301E-06  0.4832E-03  0.5464E-03  0.1978E+05
   -1.572503   10.18619  0.0000E+00  0.1544E-04  0.1621E-05  0.5083E-03  0.3770E-03  0.1581E+10
   -1.615001   10.14579  0.0000E+00  0.1326E-04  0.4826E-05  0.2684E-03  0.3052E-03 -0.3092E+11
   -1.657499   10.45614  0.0000E+00  0.9986E-05  0.9334E-05  0.2416E-03  0.2002E-03 -0.1461E+09
   -1.699996   10.41713  0.0000E+00  0.0000E+00  0.0000E+00  0.0000E+00  0.3677E-03  0.0000E+00
