 1 - depth, m
 2 - temperature, C
 3 - salinity, kg/kg
 4 - turbulent kinetic energy, m**2/s**2
 5 - dissipation rate, m**2/s**3
 6 - kinematic heat conductance, m**2/s
 7 - modulus of horizontal velocity, m/s
 8 - Richardson number, n/d
   -0.000000   18.60628  0.0000E+00  0.1915E-03  0.3033E-03  0.5198E-04  0.1200E+00 -0.1165E+00
   -0.042497   18.73657  0.0000E+00  0.9981E-04  0.1052E-03  0.1311E-03  0.2880E-01  0.2659E+01
   -0.084995   18.77155  0.0000E+00  0.7044E-04  0.6007E-04  0.1670E-03  0.1763E-01  0.4686E+01
   -0.127493   18.79207  0.0000E+00  0.5533E-04  0.3613E-04  0.2221E-03  0.1373E-01  0.5391E+02
   -0.169992   18.80496  0.0000E+00  0.4484E-04  0.1871E-04  0.2993E-03  0.1113E-01  0.1696E+03
   -0.212491   18.81487  0.0000E+00  0.3757E-04  0.1129E-04  0.3840E-03  0.9136E-02  0.1455E+02
   -0.254990   18.82270  0.0000E+00  0.3204E-04  0.5735E-05  0.4633E-03  0.7639E-02  0.1453E+02
   -0.297489   18.82926  0.0000E+00  0.2840E-04  0.3397E-05  0.5458E-03  0.6533E-02  0.1043E+03
   -0.339989   18.83403  0.0000E+00  0.2595E-04  0.1977E-05  0.6263E-03  0.5717E-02  0.2437E+02
   -0.382489   18.83822  0.0000E+00  0.2431E-04  0.1205E-05  0.6980E-03  0.4997E-02  0.2105E+02
   -0.424989   18.84156  0.0000E+00  0.2322E-04  0.7451E-06  0.7617E-03  0.4413E-02  0.1046E+02
   -0.467490   18.84491  0.0000E+00  0.2256E-04  0.4614E-06  0.8307E-03  0.3829E-02  0.8958E+01
   -0.509990   18.84750  0.0000E+00  0.2221E-04  0.3206E-06  0.8944E-03  0.3309E-02  0.2471E+02
   -0.552491   18.85007  0.0000E+00  0.2203E-04  0.2342E-06  0.9614E-03  0.2832E-02  0.3829E+02
   -0.594992   18.85218  0.0000E+00  0.2193E-04  0.1796E-06  0.1030E-02  0.2403E-02  0.6885E+01
   -0.637493   18.85426  0.0000E+00  0.2190E-04  0.1477E-06  0.1107E-02  0.2020E-02  0.9795E+01
   -0.679994   18.85612  0.0000E+00  0.2189E-04  0.1269E-06  0.1186E-02  0.1705E-02  0.4281E+01
   -0.722495   18.85790  0.0000E+00  0.2189E-04  0.1138E-06  0.1275E-02  0.1435E-02  0.2133E+01
   -0.764997   18.85959  0.0000E+00  0.2187E-04  0.1055E-06  0.1470E-02  0.1222E-02  0.2333E+01
   -0.807498   18.86111  0.0000E+00  0.2182E-04  0.9980E-07  0.1495E-02  0.1085E-02  0.2760E+01
   -0.850000   18.86264  0.0000E+00  0.2173E-04  0.9551E-07  0.1435E-02  0.9612E-03  0.1465E+01
   -0.892501   18.86424  0.0000E+00  0.2161E-04  0.9275E-07  0.1464E-02  0.8404E-03  0.1963E+01
   -0.935002   18.86583  0.0000E+00  0.2146E-04  0.9124E-07  0.1466E-02  0.7430E-03  0.1811E+01
   -0.977504   18.86742  0.0000E+00  0.2127E-04  0.9078E-07  0.1452E-02  0.6608E-03  0.1433E+01
   -1.020005   18.86903  0.0000E+00  0.2105E-04  0.9130E-07  0.1426E-02  0.5919E-03 -0.2896E+01
   -1.062506   18.87066  0.0000E+00  0.2080E-04  0.9281E-07  0.1385E-02  0.5324E-03  0.1722E+01
   -1.105007   18.87234  0.0000E+00  0.2051E-04  0.9539E-07  0.1339E-02  0.4805E-03  0.1905E+01
   -1.147508   18.87407  0.0000E+00  0.2021E-04  0.9925E-07  0.1283E-02  0.4338E-03  0.2271E+01
   -1.190009   18.87586  0.0000E+00  0.1988E-04  0.1048E-06  0.1224E-02  0.3900E-03  0.3236E+01
   -1.232510   18.87771  0.0000E+00  0.1951E-04  0.1133E-06  0.1163E-02  0.3489E-03  0.3392E+01
   -1.275010   18.87987  0.0000E+00  0.1907E-04  0.1267E-06  0.1087E-02  0.3116E-03  0.1724E+03
   -1.317510   18.88244  0.0000E+00  0.1852E-04  0.1471E-06  0.1029E-02  0.2772E-03  0.5967E+03
   -1.360010   18.88596  0.0000E+00  0.1780E-04  0.1822E-06  0.9496E-03  0.2441E-03 -0.3970E+04
   -1.402510   18.89025  0.0000E+00  0.1685E-04  0.2421E-06  0.8254E-03  0.2136E-03  0.4252E+04
   -1.445009   18.89744  0.0000E+00  0.1569E-04  0.3452E-06  0.7246E-03  0.1802E-03  0.1110E+07
   -1.487509   18.90415  0.0000E+00  0.1474E-04  0.4894E-06  0.6334E-03  0.1455E-03  0.4332E+05
   -1.530007   18.91492  0.0000E+00  0.1367E-04  0.9800E-06  0.5332E-03  0.1077E-03 -0.2222E+06
   -1.572506   18.95465  0.0000E+00  0.1289E-04  0.1632E-05  0.5725E-03  0.7147E-04  0.1218E+11
   -1.615004   18.91678  0.0000E+00  0.1112E-04  0.5044E-05  0.3149E-03  0.5953E-04 -0.8745E+10
   -1.657502   19.11798  0.0000E+00  0.8737E-05  0.9482E-05  0.3299E-03  0.3751E-04 -0.5010E+06
   -1.699999   19.06567  0.0000E+00  0.0000E+00  0.0000E+00  0.0000E+00  0.7979E-04  0.0000E+00
