 1 - depth, m
 2 - temperature, C
 3 - salinity, kg/kg
 4 - turbulent kinetic energy, m**2/s**2
 5 - dissipation rate, m**2/s**3
 6 - kinematic heat conductance, m**2/s
 7 - modulus of horizontal velocity, m/s
 8 - Richardson number, n/d
   -0.000000   16.97369  0.0000E+00  0.6597E-03  0.1989E-02  0.9321E-04  0.3103E+00  0.1607E-01
   -0.042497   17.22854  0.0000E+00  0.3241E-03  0.6049E-03  0.2264E-03  0.6803E-01 -0.7987E-01
   -0.084995   17.30159  0.0000E+00  0.2182E-03  0.2593E-03  0.2201E-03  0.3973E-01  0.2716E-02
   -0.127493   17.34322  0.0000E+00  0.1620E-03  0.1419E-03  0.2264E-03  0.3118E-01  0.1272E+02
   -0.169991   17.36803  0.0000E+00  0.1245E-03  0.8454E-04  0.2410E-03  0.2535E-01  0.3400E+01
   -0.212490   17.38609  0.0000E+00  0.9712E-04  0.5225E-04  0.2763E-03  0.2083E-01  0.3344E+02
   -0.254989   17.40165  0.0000E+00  0.7671E-04  0.3108E-04  0.3317E-03  0.1742E-01  0.9198E+01
   -0.297488   17.41351  0.0000E+00  0.6216E-04  0.1785E-04  0.3803E-03  0.1495E-01  0.2198E+03
   -0.339988   17.42360  0.0000E+00  0.5192E-04  0.1034E-04  0.4291E-03  0.1301E-01  0.3195E+02
   -0.382487   17.43213  0.0000E+00  0.4478E-04  0.5757E-05  0.4779E-03  0.1123E-01  0.5006E+02
   -0.424987   17.43977  0.0000E+00  0.3976E-04  0.3360E-05  0.5247E-03  0.9828E-02  0.7780E+02
   -0.467488   17.44573  0.0000E+00  0.3616E-04  0.2014E-05  0.5719E-03  0.8526E-02  0.3491E+02
   -0.509988   17.45148  0.0000E+00  0.3359E-04  0.1215E-05  0.6256E-03  0.7376E-02  0.5792E+02
   -0.552489   17.45617  0.0000E+00  0.3177E-04  0.7884E-06  0.6843E-03  0.6378E-02  0.3113E+02
   -0.594990   17.46019  0.0000E+00  0.3040E-04  0.5340E-06  0.7336E-03  0.5484E-02  0.1621E+02
   -0.637490   17.46376  0.0000E+00  0.2931E-04  0.3930E-06  0.7930E-03  0.4688E-02  0.1934E+02
   -0.679992   17.46699  0.0000E+00  0.2842E-04  0.3087E-06  0.8463E-03  0.4004E-02  0.1811E+02
   -0.722493   17.46994  0.0000E+00  0.2764E-04  0.2544E-06  0.9068E-03  0.3408E-02  0.1972E+03
   -0.764994   17.47285  0.0000E+00  0.2696E-04  0.2168E-06  0.9607E-03  0.2907E-02  0.1217E+02
   -0.807495   17.47559  0.0000E+00  0.2633E-04  0.1886E-06  0.1018E-02  0.2494E-02  0.6132E+01
   -0.849996   17.47831  0.0000E+00  0.2574E-04  0.1672E-06  0.1070E-02  0.2145E-02  0.1221E+03
   -0.892497   17.48085  0.0000E+00  0.2516E-04  0.1506E-06  0.1116E-02  0.1852E-02  0.3121E+02
   -0.934999   17.48336  0.0000E+00  0.2460E-04  0.1382E-06  0.1190E-02  0.1603E-02  0.1935E+02
   -0.977500   17.48572  0.0000E+00  0.2414E-04  0.1308E-06  0.1334E-02  0.1398E-02  0.2185E+03
   -1.020001   17.48784  0.0000E+00  0.2373E-04  0.1264E-06  0.1281E-02  0.1273E-02  0.1122E+02
   -1.062502   17.49005  0.0000E+00  0.2324E-04  0.1233E-06  0.1178E-02  0.1149E-02  0.6169E+01
   -1.105003   17.49243  0.0000E+00  0.2263E-04  0.1214E-06  0.1157E-02  0.1002E-02  0.6428E+01
   -1.147504   17.49484  0.0000E+00  0.2204E-04  0.1220E-06  0.1126E-02  0.8754E-03  0.7130E+01
   -1.190004   17.49726  0.0000E+00  0.2149E-04  0.1253E-06  0.1078E-02  0.7591E-03  0.8695E+01
   -1.232505   17.49974  0.0000E+00  0.2094E-04  0.1319E-06  0.1033E-02  0.6540E-03  0.1174E+02
   -1.275005   17.50246  0.0000E+00  0.2036E-04  0.1435E-06  0.9797E-03  0.5660E-03  0.6866E+02
   -1.317505   17.50574  0.0000E+00  0.1972E-04  0.1632E-06  0.9250E-03  0.4922E-03  0.9647E+02
   -1.360005   17.50976  0.0000E+00  0.1892E-04  0.1986E-06  0.8574E-03  0.4282E-03  0.1702E+04
   -1.402504   17.51592  0.0000E+00  0.1787E-04  0.2608E-06  0.7892E-03  0.3694E-03 -0.4027E+05
   -1.445004   17.52267  0.0000E+00  0.1664E-04  0.3647E-06  0.6782E-03  0.3144E-03  0.8243E+04
   -1.487503   17.53396  0.0000E+00  0.1558E-04  0.5258E-06  0.6081E-03  0.2465E-03  0.1276E+06
   -1.530001   17.54186  0.0000E+00  0.1440E-04  0.9885E-06  0.5022E-03  0.1857E-03 -0.3191E+06
   -1.572500   17.59616  0.0000E+00  0.1351E-04  0.1748E-05  0.5149E-03  0.1209E-03  0.8901E+10
   -1.614998   17.54911  0.0000E+00  0.1170E-04  0.5671E-05  0.3004E-03  0.9879E-04 -0.3704E+10
   -1.657495   17.78454  0.0000E+00  0.9207E-05  0.1058E-04  0.3150E-03  0.6225E-04  0.1457E+06
   -1.699992   17.72468  0.0000E+00  0.0000E+00  0.0000E+00  0.0000E+00  0.1334E-03  0.0000E+00
