 1 - depth, m
 2 - temperature, C
 3 - salinity, kg/kg
 4 - turbulent kinetic energy, m**2/s**2
 5 - dissipation rate, m**2/s**3
 6 - kinematic heat conductance, m**2/s
 7 - modulus of horizontal velocity, m/s
 8 - Richardson number, n/d
   -0.000000   10.78147  0.0000E+00  0.1912E-03  0.1303E-03  0.6798E-04  0.1383E+00  0.1247E+00
   -0.042497   11.04303  0.0000E+00  0.1007E-03  0.3281E-04  0.1047E-03  0.3490E-01 -0.1053E+01
   -0.084995   11.11138  0.0000E+00  0.7000E-04  0.1288E-04  0.1265E-03  0.2207E-01  0.8247E+01
   -0.127493   11.15476  0.0000E+00  0.5316E-04  0.6383E-05  0.1512E-03  0.1688E-01  0.1109E+02
   -0.169991   11.18357  0.0000E+00  0.4179E-04  0.3314E-05  0.1990E-03  0.1340E-01  0.3880E+02
   -0.212490   11.20555  0.0000E+00  0.3389E-04  0.1796E-05  0.2529E-03  0.1079E-01  0.7583E+02
   -0.254989   11.22388  0.0000E+00  0.2846E-04  0.1036E-05  0.3184E-03  0.8832E-02  0.4124E+02
   -0.297488   11.23878  0.0000E+00  0.2487E-04  0.6449E-06  0.3929E-03  0.7400E-02  0.1532E+04
   -0.339988   11.25041  0.0000E+00  0.2264E-04  0.4344E-06  0.4629E-03  0.6324E-02  0.1184E+03
   -0.382487   11.25964  0.0000E+00  0.2130E-04  0.3111E-06  0.5294E-03  0.5452E-02  0.1164E+03
   -0.424987   11.26710  0.0000E+00  0.2057E-04  0.2367E-06  0.5864E-03  0.4739E-02  0.2041E+02
   -0.467488   11.27338  0.0000E+00  0.2022E-04  0.1900E-06  0.6396E-03  0.4109E-02  0.1069E+02
   -0.509988   11.27880  0.0000E+00  0.2011E-04  0.1589E-06  0.6921E-03  0.3542E-02  0.3720E+01
   -0.552489   11.28368  0.0000E+00  0.2014E-04  0.1370E-06  0.7440E-03  0.3028E-02  0.2839E+01
   -0.594989   11.28818  0.0000E+00  0.2025E-04  0.1212E-06  0.8038E-03  0.2558E-02  0.2588E+01
   -0.637490   11.29233  0.0000E+00  0.2041E-04  0.1094E-06  0.8732E-03  0.2138E-02  0.2106E+01
   -0.679991   11.29624  0.0000E+00  0.2058E-04  0.1007E-06  0.9483E-03  0.1781E-02  0.1910E+01
   -0.722492   11.29993  0.0000E+00  0.2075E-04  0.9449E-07  0.1033E-02  0.1482E-02  0.1725E+01
   -0.764994   11.30345  0.0000E+00  0.2087E-04  0.9019E-07  0.1127E-02  0.1241E-02  0.1579E+01
   -0.807495   11.30684  0.0000E+00  0.2095E-04  0.8740E-07  0.1223E-02  0.1054E-02  0.1511E+01
   -0.849996   11.31009  0.0000E+00  0.2095E-04  0.8587E-07  0.1311E-02  0.9077E-03  0.1460E+01
   -0.892497   11.31318  0.0000E+00  0.2090E-04  0.8531E-07  0.1379E-02  0.7915E-03  0.1403E+01
   -0.934998   11.31620  0.0000E+00  0.2079E-04  0.8555E-07  0.1415E-02  0.6992E-03  0.1377E+01
   -0.977500   11.31914  0.0000E+00  0.2063E-04  0.8646E-07  0.1416E-02  0.6241E-03  0.1328E+01
   -1.020001   11.32212  0.0000E+00  0.2043E-04  0.8798E-07  0.1389E-02  0.5627E-03  0.1323E+01
   -1.062502   11.32515  0.0000E+00  0.2020E-04  0.9014E-07  0.1345E-02  0.5111E-03  0.1325E+01
   -1.105003   11.32827  0.0000E+00  0.1993E-04  0.9310E-07  0.1296E-02  0.4665E-03  0.1390E+01
   -1.147503   11.33149  0.0000E+00  0.1964E-04  0.9713E-07  0.1240E-02  0.4265E-03  0.1553E+01
   -1.190004   11.33480  0.0000E+00  0.1933E-04  0.1027E-06  0.1180E-02  0.3886E-03  0.1952E+01
   -1.232504   11.33816  0.0000E+00  0.1897E-04  0.1113E-06  0.1115E-02  0.3527E-03  0.6713E+01
   -1.275005   11.34217  0.0000E+00  0.1853E-04  0.1246E-06  0.1047E-02  0.3181E-03  0.1532E+02
   -1.317505   11.34699  0.0000E+00  0.1796E-04  0.1455E-06  0.9898E-03  0.2849E-03  0.1914E+02
   -1.360005   11.35393  0.0000E+00  0.1722E-04  0.1795E-06  0.9071E-03  0.2509E-03  0.4263E+04
   -1.402504   11.36272  0.0000E+00  0.1628E-04  0.2355E-06  0.8160E-03  0.2193E-03  0.1194E+05
   -1.445003   11.37348  0.0000E+00  0.1516E-04  0.3296E-06  0.7005E-03  0.1878E-03  0.1949E+05
   -1.487502   11.38931  0.0000E+00  0.1422E-04  0.4713E-06  0.6242E-03  0.1476E-03  0.9062E+05
   -1.530001   11.40096  0.0000E+00  0.1320E-04  0.9678E-06  0.4991E-03  0.1108E-03 -0.3238E+06
   -1.572499   11.49262  0.0000E+00  0.1245E-04  0.1658E-05  0.5435E-03  0.7194E-04  0.3621E+11
   -1.614997   11.40244  0.0000E+00  0.1087E-04  0.5025E-05  0.3243E-03  0.5974E-04 -0.1520E+13
   -1.657495   11.78143  0.0000E+00  0.8534E-05  0.9590E-05  0.3189E-03  0.3754E-04 -0.1064E+06
   -1.699992   11.70124  0.0000E+00  0.0000E+00  0.0000E+00  0.0000E+00  0.8019E-04  0.0000E+00
