 1 - depth, m
 2 - temperature, C
 3 - salinity, kg/kg
 4 - turbulent kinetic energy, m**2/s**2
 5 - dissipation rate, m**2/s**3
 6 - kinematic heat conductance, m**2/s
 7 - modulus of horizontal velocity, m/s
 8 - Richardson number, n/d
   -0.000000   12.57679  0.0000E+00  0.8333E-04  0.2853E-04  0.5862E-04  0.7160E-01  0.4024E-01
   -0.042497   12.74950  0.0000E+00  0.4618E-04  0.7311E-05  0.6842E-04  0.2172E-01 -0.6751E-01
   -0.084995   12.79348  0.0000E+00  0.3322E-04  0.3004E-05  0.9912E-04  0.1403E-01  0.4718E+00
   -0.127493   12.82124  0.0000E+00  0.2631E-04  0.1454E-05  0.1610E-03  0.1046E-01  0.4739E+02
   -0.169991   12.84079  0.0000E+00  0.2212E-04  0.7760E-06  0.2522E-03  0.8124E-02  0.4639E+02
   -0.212490   12.85509  0.0000E+00  0.1957E-04  0.4553E-06  0.3382E-03  0.6488E-02  0.8807E+02
   -0.254989   12.86587  0.0000E+00  0.1814E-04  0.2956E-06  0.4241E-03  0.5307E-02  0.3840E+02
   -0.297488   12.87382  0.0000E+00  0.1748E-04  0.2109E-06  0.5026E-03  0.4461E-02  0.4090E+02
   -0.339988   12.88000  0.0000E+00  0.1734E-04  0.1639E-06  0.5759E-03  0.3821E-02  0.9326E+01
   -0.382488   12.88498  0.0000E+00  0.1750E-04  0.1354E-06  0.6466E-03  0.3302E-02  0.2155E+01
   -0.424988   12.88933  0.0000E+00  0.1782E-04  0.1165E-06  0.7082E-03  0.2870E-02  0.2029E+01
   -0.467488   12.89324  0.0000E+00  0.1823E-04  0.1034E-06  0.7708E-03  0.2482E-02  0.2016E+01
   -0.509989   12.89680  0.0000E+00  0.1867E-04  0.9387E-07  0.8391E-03  0.2131E-02  0.1972E+01
   -0.552489   12.90006  0.0000E+00  0.1912E-04  0.8700E-07  0.9119E-03  0.1814E-02  0.1919E+01
   -0.594990   12.90304  0.0000E+00  0.1955E-04  0.8220E-07  0.9896E-03  0.1531E-02  0.1820E+01
   -0.637491   12.90578  0.0000E+00  0.1994E-04  0.7902E-07  0.1076E-02  0.1283E-02  0.1677E+01
   -0.679992   12.90836  0.0000E+00  0.2028E-04  0.7716E-07  0.1172E-02  0.1077E-02  0.1579E+01
   -0.722493   12.91079  0.0000E+00  0.2055E-04  0.7638E-07  0.1281E-02  0.9091E-03  0.1488E+01
   -0.764995   12.91311  0.0000E+00  0.2075E-04  0.7646E-07  0.1402E-02  0.7777E-03  0.1415E+01
   -0.807496   12.91532  0.0000E+00  0.2088E-04  0.7717E-07  0.1508E-02  0.6775E-03  0.1376E+01
   -0.849997   12.91747  0.0000E+00  0.2093E-04  0.7834E-07  0.1571E-02  0.5997E-03  0.1338E+01
   -0.892498   12.91958  0.0000E+00  0.2092E-04  0.7990E-07  0.1583E-02  0.5383E-03  0.1285E+01
   -0.935000   12.92174  0.0000E+00  0.2085E-04  0.8178E-07  0.1560E-02  0.4891E-03  0.1264E+01
   -0.977501   12.92397  0.0000E+00  0.2074E-04  0.8402E-07  0.1513E-02  0.4486E-03  0.1244E+01
   -1.020002   12.92630  0.0000E+00  0.2058E-04  0.8670E-07  0.1464E-02  0.4144E-03  0.1354E+01
   -1.062503   12.92872  0.0000E+00  0.2038E-04  0.9005E-07  0.1402E-02  0.3846E-03  0.6553E+00
   -1.105004   12.93128  0.0000E+00  0.2013E-04  0.9431E-07  0.1364E-02  0.3573E-03  0.1479E+01
   -1.147505   12.93390  0.0000E+00  0.1984E-04  0.1000E-06  0.1270E-02  0.3321E-03  0.6398E+02
   -1.190006   12.93677  0.0000E+00  0.1951E-04  0.1076E-06  0.1224E-02  0.3061E-03  0.8018E+01
   -1.232506   12.93959  0.0000E+00  0.1911E-04  0.1190E-06  0.1158E-02  0.2805E-03  0.1581E+03
   -1.275006   12.94335  0.0000E+00  0.1861E-04  0.1359E-06  0.1115E-02  0.2539E-03  0.1796E+05
   -1.317507   12.94731  0.0000E+00  0.1799E-04  0.1631E-06  0.9760E-03  0.2289E-03  0.4897E+04
   -1.360006   12.95402  0.0000E+00  0.1721E-04  0.2061E-06  0.9145E-03  0.2005E-03  0.1125E+05
   -1.402506   12.96103  0.0000E+00  0.1623E-04  0.2832E-06  0.7906E-03  0.1757E-03 -0.1149E+05
   -1.445005   12.97339  0.0000E+00  0.1509E-04  0.4036E-06  0.7299E-03  0.1488E-03  0.1413E+08
   -1.487504   12.98474  0.0000E+00  0.1413E-04  0.5809E-06  0.6049E-03  0.1191E-03  0.6979E+05
   -1.530003   13.00188  0.0000E+00  0.1306E-04  0.1124E-05  0.5385E-03  0.8688E-04 -0.1713E+06
   -1.572501   13.07176  0.0000E+00  0.1231E-04  0.1860E-05  0.5408E-03  0.5646E-04  0.3947E+11
   -1.615000   12.99963  0.0000E+00  0.1075E-04  0.5826E-05  0.3029E-03  0.4672E-04 -0.1483E+11
   -1.657497   13.35941  0.0000E+00  0.8591E-05  0.1064E-04  0.3545E-03  0.2897E-04 -0.2446E+06
   -1.699994   13.25262  0.0000E+00  0.0000E+00  0.0000E+00  0.0000E+00  0.6533E-04  0.0000E+00
