 1 - depth, m
 2 - temperature, C
 3 - salinity, kg/kg
 4 - turbulent kinetic energy, m**2/s**2
 5 - dissipation rate, m**2/s**3
 6 - kinematic heat conductance, m**2/s
 7 - modulus of horizontal velocity, m/s
 8 - Richardson number, n/d
   -0.000000    9.66239  0.0000E+00  0.2057E-03  0.1012E-03  0.6344E-04  0.1314E+00  0.1233E+00
   -0.042497    9.87473  0.0000E+00  0.1080E-03  0.2723E-04  0.1315E-03  0.3042E-01 -0.1011E+00
   -0.084995    9.92170  0.0000E+00  0.7780E-04  0.1284E-04  0.1376E-03  0.1998E-01  0.2540E+01
   -0.127493    9.95002  0.0000E+00  0.5982E-04  0.7034E-05  0.1481E-03  0.1575E-01  0.1270E+01
   -0.169991    9.97130  0.0000E+00  0.4701E-04  0.4020E-05  0.1730E-03  0.1275E-01  0.2513E+02
   -0.212490    9.98925  0.0000E+00  0.3763E-04  0.2343E-05  0.2180E-03  0.1040E-01  0.1414E+03
   -0.254989   10.00443  0.0000E+00  0.3079E-04  0.1403E-05  0.2695E-03  0.8622E-02  0.3186E+02
   -0.297488   10.01749  0.0000E+00  0.2582E-04  0.8509E-06  0.3284E-03  0.7283E-02  0.5745E+02
   -0.339988   10.02845  0.0000E+00  0.2245E-04  0.5475E-06  0.3891E-03  0.6228E-02  0.1281E+02
   -0.382488   10.03751  0.0000E+00  0.2019E-04  0.3740E-06  0.4483E-03  0.5348E-02  0.4465E+02
   -0.424988   10.04518  0.0000E+00  0.1871E-04  0.2677E-06  0.5026E-03  0.4624E-02  0.2038E+03
   -0.467488   10.05159  0.0000E+00  0.1781E-04  0.2020E-06  0.5502E-03  0.3989E-02  0.1784E+03
   -0.509989   10.05722  0.0000E+00  0.1727E-04  0.1593E-06  0.6019E-03  0.3424E-02  0.2114E+02
   -0.552489   10.06208  0.0000E+00  0.1700E-04  0.1312E-06  0.6561E-03  0.2921E-02  0.1004E+02
   -0.594990   10.06639  0.0000E+00  0.1690E-04  0.1123E-06  0.7109E-03  0.2468E-02  0.2306E+01
   -0.637491   10.07035  0.0000E+00  0.1691E-04  0.9880E-07  0.7709E-03  0.2065E-02  0.2002E+01
   -0.679992   10.07411  0.0000E+00  0.1697E-04  0.8893E-07  0.8378E-03  0.1722E-02  0.1820E+01
   -0.722493   10.07771  0.0000E+00  0.1706E-04  0.8176E-07  0.9185E-03  0.1433E-02  0.1654E+01
   -0.764995   10.08117  0.0000E+00  0.1716E-04  0.7664E-07  0.1013E-02  0.1201E-02  0.1520E+01
   -0.807496   10.08452  0.0000E+00  0.1725E-04  0.7310E-07  0.1106E-02  0.1021E-02  0.1463E+01
   -0.849997   10.08774  0.0000E+00  0.1729E-04  0.7086E-07  0.1184E-02  0.8784E-03  0.1415E+01
   -0.892498   10.09085  0.0000E+00  0.1731E-04  0.6961E-07  0.1238E-02  0.7643E-03  0.1361E+01
   -0.935000   10.09393  0.0000E+00  0.1728E-04  0.6916E-07  0.1264E-02  0.6731E-03  0.1331E+01
   -0.977501   10.09697  0.0000E+00  0.1721E-04  0.6938E-07  0.1263E-02  0.5983E-03  0.1285E+01
   -1.020002   10.10006  0.0000E+00  0.1712E-04  0.7017E-07  0.1243E-02  0.5369E-03  0.1274E+01
   -1.062503   10.10321  0.0000E+00  0.1699E-04  0.7155E-07  0.1211E-02  0.4849E-03  0.1279E+01
   -1.105004   10.10645  0.0000E+00  0.1683E-04  0.7358E-07  0.1168E-02  0.4402E-03  0.1326E+01
   -1.147505   10.10981  0.0000E+00  0.1664E-04  0.7640E-07  0.1124E-02  0.4000E-03  0.1479E+01
   -1.190006   10.11322  0.0000E+00  0.1643E-04  0.8032E-07  0.1067E-02  0.3625E-03  0.2767E+01
   -1.232506   10.11673  0.0000E+00  0.1620E-04  0.8608E-07  0.1016E-02  0.3269E-03  0.2445E+01
   -1.275006   10.12066  0.0000E+00  0.1590E-04  0.9510E-07  0.9437E-03  0.2941E-03 -0.3280E+01
   -1.317507   10.12574  0.0000E+00  0.1551E-04  0.1088E-06  0.8947E-03  0.2620E-03  0.1151E+03
   -1.360006   10.13190  0.0000E+00  0.1499E-04  0.1314E-06  0.8118E-03  0.2318E-03 -0.5709E+03
   -1.402506   10.14183  0.0000E+00  0.1429E-04  0.1690E-06  0.7286E-03  0.2012E-03  0.1888E+04
   -1.445005   10.15082  0.0000E+00  0.1344E-04  0.2320E-06  0.6280E-03  0.1742E-03  0.1678E+05
   -1.487504   10.16857  0.0000E+00  0.1266E-04  0.3335E-06  0.5617E-03  0.1363E-03  0.1058E+06
   -1.530003   10.17879  0.0000E+00  0.1180E-04  0.6503E-06  0.4366E-03  0.1033E-03 -0.8855E+05
   -1.572502   10.27562  0.0000E+00  0.1110E-04  0.1142E-05  0.4786E-03  0.6677E-04  0.1355E+11
   -1.615000   10.17939  0.0000E+00  0.9598E-05  0.2989E-05  0.2523E-03  0.5518E-04 -0.4616E+10
   -1.657497   10.59899  0.0000E+00  0.7547E-05  0.6292E-05  0.2687E-03  0.3395E-04 -0.5672E+06
   -1.699994   10.50345  0.0000E+00  0.0000E+00  0.0000E+00  0.0000E+00  0.6733E-04  0.0000E+00
