 1 - depth, m
 2 - temperature, C
 3 - salinity, kg/kg
 4 - turbulent kinetic energy, m**2/s**2
 5 - dissipation rate, m**2/s**3
 6 - kinematic heat conductance, m**2/s
 7 - modulus of horizontal velocity, m/s
 8 - Richardson number, n/d
   -0.000000    8.35650  0.0000E+00  0.7566E-04  0.3222E-04  0.4342E-04  0.5856E-01 -0.8213E-02
   -0.042497    8.53531  0.0000E+00  0.4336E-04  0.9307E-05  0.6834E-04  0.1911E-01 -0.5929E-01
   -0.084995    8.58860  0.0000E+00  0.3185E-04  0.4375E-05  0.8890E-04  0.1255E-01 -0.4980E-01
   -0.127493    8.62496  0.0000E+00  0.2523E-04  0.2314E-05  0.1325E-03  0.9283E-02  0.2876E+02
   -0.169991    8.65024  0.0000E+00  0.2102E-04  0.1246E-05  0.2703E-03  0.7188E-02  0.9161E+03
   -0.212490    8.66613  0.0000E+00  0.1826E-04  0.6848E-06  0.3446E-03  0.5821E-02  0.3965E+02
   -0.254989    8.67883  0.0000E+00  0.1649E-04  0.3927E-06  0.4205E-03  0.4776E-02  0.1494E+02
   -0.297488    8.68935  0.0000E+00  0.1548E-04  0.2462E-06  0.4902E-03  0.3996E-02  0.4174E+02
   -0.339988    8.69814  0.0000E+00  0.1501E-04  0.1708E-06  0.5537E-03  0.3393E-02  0.3253E+01
   -0.382487    8.70566  0.0000E+00  0.1485E-04  0.1273E-06  0.6216E-03  0.2897E-02  0.4559E+01
   -0.424988    8.71207  0.0000E+00  0.1491E-04  0.1016E-06  0.6836E-03  0.2495E-02  0.1929E+02
   -0.467488    8.71761  0.0000E+00  0.1510E-04  0.8565E-07  0.7446E-03  0.2147E-02  0.1392E+02
   -0.509988    8.72253  0.0000E+00  0.1535E-04  0.7503E-07  0.8105E-03  0.1838E-02  0.6491E+02
   -0.552489    8.72690  0.0000E+00  0.1564E-04  0.6808E-07  0.8787E-03  0.1564E-02  0.1900E+01
   -0.594990    8.73087  0.0000E+00  0.1592E-04  0.6342E-07  0.9511E-03  0.1321E-02  0.1782E+01
   -0.637491    8.73454  0.0000E+00  0.1620E-04  0.6026E-07  0.1035E-02  0.1109E-02  0.1636E+01
   -0.679992    8.73799  0.0000E+00  0.1645E-04  0.5825E-07  0.1132E-02  0.9326E-03  0.1542E+01
   -0.722493    8.74124  0.0000E+00  0.1666E-04  0.5712E-07  0.1250E-02  0.7885E-03  0.1458E+01
   -0.764994    8.74431  0.0000E+00  0.1683E-04  0.5666E-07  0.1376E-02  0.6749E-03  0.1393E+01
   -0.807495    8.74724  0.0000E+00  0.1695E-04  0.5671E-07  0.1464E-02  0.5875E-03  0.1361E+01
   -0.849996    8.75012  0.0000E+00  0.1703E-04  0.5715E-07  0.1490E-02  0.5191E-03  0.1321E+01
   -0.892498    8.75300  0.0000E+00  0.1706E-04  0.5790E-07  0.1482E-02  0.4646E-03  0.1270E+01
   -0.934999    8.75599  0.0000E+00  0.1705E-04  0.5890E-07  0.1460E-02  0.4209E-03  0.1246E+01
   -0.977500    8.75904  0.0000E+00  0.1700E-04  0.6016E-07  0.1427E-02  0.3846E-03  0.1229E+01
   -1.020001    8.76221  0.0000E+00  0.1692E-04  0.6171E-07  0.1388E-02  0.3540E-03  0.1270E+01
   -1.062502    8.76547  0.0000E+00  0.1681E-04  0.6364E-07  0.1343E-02  0.3272E-03  0.1352E+01
   -1.105003    8.76885  0.0000E+00  0.1666E-04  0.6609E-07  0.1290E-02  0.3031E-03  0.1507E+01
   -1.147504    8.77236  0.0000E+00  0.1648E-04  0.6919E-07  0.1238E-02  0.2804E-03  0.1972E+01
   -1.190004    8.77595  0.0000E+00  0.1627E-04  0.7325E-07  0.1175E-02  0.2581E-03  0.2222E+01
   -1.232505    8.77965  0.0000E+00  0.1603E-04  0.7906E-07  0.1117E-02  0.2360E-03  0.5112E+01
   -1.275005    8.78387  0.0000E+00  0.1572E-04  0.8784E-07  0.1040E-02  0.2146E-03 -0.8256E+02
   -1.317505    8.78919  0.0000E+00  0.1531E-04  0.1014E-06  0.9842E-03  0.1929E-03  0.6180E+04
   -1.360005    8.79588  0.0000E+00  0.1476E-04  0.1252E-06  0.8644E-03  0.1716E-03  0.1548E+03
   -1.402505    8.80635  0.0000E+00  0.1404E-04  0.1624E-06  0.7854E-03  0.1494E-03  0.2544E+04
   -1.445004    8.81704  0.0000E+00  0.1318E-04  0.2231E-06  0.6694E-03  0.1293E-03  0.1304E+05
   -1.487503    8.83624  0.0000E+00  0.1239E-04  0.3185E-06  0.5994E-03  0.1020E-03  0.3490E+06
   -1.530002    8.85100  0.0000E+00  0.1153E-04  0.5868E-06  0.4733E-03  0.7730E-04 -0.1981E+06
   -1.572500    8.94149  0.0000E+00  0.1082E-04  0.1017E-05  0.5190E-03  0.5111E-04  0.6388E+11
   -1.614998    8.85397  0.0000E+00  0.9324E-05  0.2868E-05  0.2649E-03  0.4236E-04 -0.8305E+10
   -1.657495    9.30183  0.0000E+00  0.7288E-05  0.5890E-05  0.2776E-03  0.2626E-04 -0.3309E+06
   -1.699993    9.16875  0.0000E+00  0.0000E+00  0.0000E+00  0.0000E+00  0.5199E-04  0.0000E+00
