 1 - depth, m
 2 - temperature, C
 3 - salinity, kg/kg
 4 - turbulent kinetic energy, m**2/s**2
 5 - dissipation rate, m**2/s**3
 6 - kinematic heat conductance, m**2/s
 7 - modulus of horizontal velocity, m/s
 8 - Richardson number, n/d
   -0.000000    6.12332  0.0000E+00  0.2893E-02  0.3177E-01  0.2467E-03  0.8487E+00 -0.7978E-03
   -0.042497    6.75847  0.0000E+00  0.1403E-02  0.1650E-01  0.4119E-03  0.1787E+00 -0.2972E-01
   -0.084995    7.02002  0.0000E+00  0.9038E-03  0.5742E-02  0.5473E-03  0.9890E-01 -0.5355E-01
   -0.127493    7.11259  0.0000E+00  0.6759E-03  0.3140E-02  0.5370E-03  0.7627E-01  0.2677E+00
   -0.169991    7.16582  0.0000E+00  0.5298E-03  0.1981E-02  0.4657E-03  0.6103E-01  0.2743E+00
   -0.212489    7.20340  0.0000E+00  0.4233E-03  0.1215E-02  0.4448E-03  0.4983E-01  0.1655E+01
   -0.254988    7.24649  0.0000E+00  0.3422E-03  0.7326E-03  0.4598E-03  0.4167E-01  0.1258E+00
   -0.297488    7.27093  0.0000E+00  0.2826E-03  0.5384E-03  0.4619E-03  0.3666E-01 -0.5155E+01
   -0.339987    7.28933  0.0000E+00  0.2352E-03  0.3010E-03  0.4671E-03  0.3325E-01  0.1333E+03
   -0.382487    7.30639  0.0000E+00  0.1987E-03  0.1847E-03  0.4807E-03  0.2950E-01  0.7676E+01
   -0.424987    7.31886  0.0000E+00  0.1715E-03  0.1276E-03  0.4881E-03  0.2712E-01  0.5405E+02
   -0.467487    7.33252  0.0000E+00  0.1500E-03  0.8639E-04  0.5185E-03  0.2439E-01  0.9361E+03
   -0.509987    7.34320  0.0000E+00  0.1327E-03  0.5758E-04  0.5493E-03  0.2177E-01 -0.3462E+02
   -0.552488    7.35455  0.0000E+00  0.1189E-03  0.3794E-04  0.5671E-03  0.1944E-01  0.2167E+03
   -0.594989    7.36535  0.0000E+00  0.1074E-03  0.2468E-04  0.6109E-03  0.1722E-01  0.6887E+03
   -0.637490    7.37585  0.0000E+00  0.9770E-04  0.1598E-04  0.6646E-03  0.1527E-01  0.2029E+04
   -0.679990    7.38388  0.0000E+00  0.8958E-04  0.1031E-04  0.7216E-03  0.1376E-01  0.1793E+04
   -0.722491    7.39239  0.0000E+00  0.8254E-04  0.6641E-05  0.7899E-03  0.1245E-01  0.1417E+03
   -0.764993    7.39961  0.0000E+00  0.7638E-04  0.4295E-05  0.8660E-03  0.1134E-01  0.6376E+00
   -0.807494    7.40740  0.0000E+00  0.7093E-04  0.2862E-05  0.9275E-03  0.1043E-01  0.6982E+03
   -0.849995    7.41372  0.0000E+00  0.6613E-04  0.2079E-05  0.9787E-03  0.9609E-02  0.8119E+02
   -0.892496    7.42048  0.0000E+00  0.6182E-04  0.1562E-05  0.1038E-02  0.8860E-02  0.2018E+03
   -0.934997    7.42641  0.0000E+00  0.5798E-04  0.1211E-05  0.1069E-02  0.8184E-02  0.1344E+03
   -0.977498    7.43251  0.0000E+00  0.5454E-04  0.9854E-06  0.1094E-02  0.7541E-02  0.5391E+02
   -1.019999    7.43824  0.0000E+00  0.5143E-04  0.8250E-06  0.1110E-02  0.6957E-02  0.8586E+02
   -1.062500    7.44328  0.0000E+00  0.4858E-04  0.7066E-06  0.1122E-02  0.6399E-02  0.5961E+02
   -1.105001    7.44902  0.0000E+00  0.4590E-04  0.6144E-06  0.1114E-02  0.5857E-02  0.1971E+03
   -1.147502    7.45394  0.0000E+00  0.4349E-04  0.5465E-06  0.1094E-02  0.5323E-02  0.6053E+02
   -1.190002    7.45945  0.0000E+00  0.4130E-04  0.4980E-06  0.1058E-02  0.4781E-02  0.7877E+02
   -1.232503    7.46455  0.0000E+00  0.3917E-04  0.4635E-06  0.1037E-02  0.4252E-02  0.7539E+02
   -1.275003    7.46997  0.0000E+00  0.3702E-04  0.4412E-06  0.1003E-02  0.3764E-02  0.1223E+03
   -1.317503    7.47585  0.0000E+00  0.3483E-04  0.4350E-06  0.9420E-03  0.3316E-02  0.8769E+03
   -1.360003    7.48246  0.0000E+00  0.3256E-04  0.4528E-06  0.8757E-03  0.2913E-02  0.1400E+04
   -1.402502    7.49019  0.0000E+00  0.3012E-04  0.5150E-06  0.8054E-03  0.2563E-02  0.1915E+03
   -1.445001    7.50061  0.0000E+00  0.2771E-04  0.6377E-06  0.7171E-03  0.2240E-02  0.1485E+05
   -1.487500    7.51414  0.0000E+00  0.2533E-04  0.8661E-06  0.6474E-03  0.1885E-02 -0.9444E+02
   -1.529999    7.53072  0.0000E+00  0.2278E-04  0.1451E-05  0.5109E-03  0.1426E-02 -0.2297E+05
   -1.572497    7.58140  0.0000E+00  0.2045E-04  0.2875E-05  0.5194E-03  0.1005E-02  0.4191E+10
   -1.614995    7.56690  0.0000E+00  0.1698E-04  0.8155E-05  0.2847E-03  0.8163E-03 -0.2763E+09
   -1.657493    7.88125  0.0000E+00  0.1242E-04  0.1552E-04  0.2511E-03  0.5882E-03 -0.1502E+08
   -1.699990    7.86475  0.0000E+00  0.0000E+00  0.0000E+00  0.0000E+00  0.1075E-02  0.0000E+00
