 1 - depth, m
 2 - temperature, C
 3 - salinity, kg/kg
 4 - turbulent kinetic energy, m**2/s**2
 5 - dissipation rate, m**2/s**3
 6 - kinematic heat conductance, m**2/s
 7 - modulus of horizontal velocity, m/s
 8 - Richardson number, n/d
   -0.000000    7.34809  0.0000E+00  0.4393E-02  0.1007E+00  0.2945E-03  0.1211E+01  0.6768E-03
   -0.042497    7.77449  0.0000E+00  0.2115E-02  0.6749E-01  0.5378E-03  0.2473E+00 -0.1495E+00
   -0.084995    7.99772  0.0000E+00  0.1307E-02  0.2281E-01  0.7000E-03  0.1250E+00  0.1765E+00
   -0.127493    8.08538  0.0000E+00  0.9859E-03  0.1296E-01  0.6381E-03  0.9215E-01  0.1670E+00
   -0.169991    8.11847  0.0000E+00  0.7820E-03  0.9413E-02  0.5863E-03  0.7383E-01 -0.1765E+00
   -0.212490    8.14981  0.0000E+00  0.6340E-03  0.7246E-02  0.5606E-03  0.6050E-01 -0.3313E+00
   -0.254989    8.18434  0.0000E+00  0.5272E-03  0.5624E-02  0.5754E-03  0.5059E-01 -0.5848E+01
   -0.297488    8.20401  0.0000E+00  0.4428E-03  0.4295E-02  0.5767E-03  0.4506E-01  0.4535E+02
   -0.339988    8.21633  0.0000E+00  0.3747E-03  0.3308E-02  0.5774E-03  0.4193E-01  0.4064E+02
   -0.382487    8.22824  0.0000E+00  0.3160E-03  0.2382E-02  0.5608E-03  0.3793E-01  0.2098E+03
   -0.424987    8.23856  0.0000E+00  0.2719E-03  0.1758E-02  0.5634E-03  0.3525E-01  0.6120E+02
   -0.467488    8.24869  0.0000E+00  0.2370E-03  0.1288E-02  0.5825E-03  0.3183E-01  0.2570E+02
   -0.509988    8.25839  0.0000E+00  0.2092E-03  0.9432E-03  0.6027E-03  0.2835E-01  0.7387E+03
   -0.552489    8.26781  0.0000E+00  0.1868E-03  0.6911E-03  0.6130E-03  0.2533E-01  0.2643E+03
   -0.594990    8.28136  0.0000E+00  0.1676E-03  0.5106E-03  0.6625E-03  0.2225E-01  0.6237E+03
   -0.637491    8.29224  0.0000E+00  0.1515E-03  0.3840E-03  0.7197E-03  0.1962E-01  0.5336E+02
   -0.679992    8.29772  0.0000E+00  0.1375E-03  0.2904E-03  0.7661E-03  0.1778E-01  0.9766E+02
   -0.722493    8.30639  0.0000E+00  0.1257E-03  0.2215E-03  0.8397E-03  0.1614E-01 -0.4370E+02
   -0.764994    8.31177  0.0000E+00  0.1153E-03  0.1704E-03  0.9042E-03  0.1481E-01 -0.3354E+03
   -0.807495    8.31913  0.0000E+00  0.1060E-03  0.1278E-03  0.9629E-03  0.1379E-01 -0.9294E+03
   -0.849996    8.32521  0.0000E+00  0.9784E-04  0.9340E-04  0.1005E-02  0.1284E-01  0.1076E+04
   -0.892497    8.33205  0.0000E+00  0.9056E-04  0.6718E-04  0.1049E-02  0.1194E-01  0.3008E+04
   -0.934999    8.33708  0.0000E+00  0.8414E-04  0.4726E-04  0.1086E-02  0.1117E-01  0.1239E+04
   -0.977500    8.34461  0.0000E+00  0.7851E-04  0.3454E-04  0.1109E-02  0.1037E-01  0.4059E+02
   -1.020001    8.35010  0.0000E+00  0.7353E-04  0.2496E-04  0.1116E-02  0.9675E-02  0.6448E+01
   -1.062502    8.35506  0.0000E+00  0.6893E-04  0.1717E-04  0.1122E-02  0.8962E-02 -0.4150E+03
   -1.105003    8.36120  0.0000E+00  0.6482E-04  0.1137E-04  0.1132E-02  0.8289E-02  0.7116E+02
   -1.147504    8.36643  0.0000E+00  0.6133E-04  0.7570E-05  0.1130E-02  0.7646E-02  0.2068E+03
   -1.190004    8.37108  0.0000E+00  0.5825E-04  0.5049E-05  0.1099E-02  0.6987E-02  0.1108E+04
   -1.232505    8.37683  0.0000E+00  0.5521E-04  0.3730E-05  0.1074E-02  0.6281E-02  0.1804E+04
   -1.275005    8.38122  0.0000E+00  0.5222E-04  0.2872E-05  0.1031E-02  0.5645E-02  0.1844E+03
   -1.317505    8.38779  0.0000E+00  0.4923E-04  0.2082E-05  0.9744E-03  0.5079E-02  0.3529E+06
   -1.360005    8.39313  0.0000E+00  0.4610E-04  0.1610E-05  0.9142E-03  0.4548E-02 -0.8615E+04
   -1.402504    8.40193  0.0000E+00  0.4272E-04  0.1366E-05  0.8389E-03  0.4074E-02 -0.1473E+07
   -1.445004    8.41060  0.0000E+00  0.3945E-04  0.1368E-05  0.7596E-03  0.3627E-02  0.2900E+05
   -1.487503    8.42356  0.0000E+00  0.3624E-04  0.1705E-05  0.6497E-03  0.3106E-02  0.1857E+08
   -1.530001    8.43855  0.0000E+00  0.3293E-04  0.2494E-05  0.5425E-03  0.2419E-02 -0.3384E+05
   -1.572500    8.47854  0.0000E+00  0.2966E-04  0.4587E-05  0.5256E-03  0.1796E-02  0.4036E+10
   -1.614998    8.47939  0.0000E+00  0.2485E-04  0.1340E-04  0.3119E-03  0.1498E-02 -0.8448E+12
   -1.657495    8.74346  0.0000E+00  0.1800E-04  0.2545E-04  0.2536E-03  0.1146E-02 -0.4409E+09
   -1.699992    8.75357  0.0000E+00  0.0000E+00  0.0000E+00  0.0000E+00  0.1959E-02  0.0000E+00
