 1 - depth, m
 2 - temperature, C
 3 - salinity, kg/kg
 4 - turbulent kinetic energy, m**2/s**2
 5 - dissipation rate, m**2/s**3
 6 - kinematic heat conductance, m**2/s
 7 - modulus of horizontal velocity, m/s
 8 - Richardson number, n/d
   -0.000000    6.19276  0.0000E+00  0.5300E-04  0.1723E-04  0.3524E-04  0.5050E-01 -0.3105E-01
   -0.042497    6.38487  0.0000E+00  0.3102E-04  0.4591E-05  0.5356E-04  0.1823E-01 -0.1067E+00
   -0.084995    6.45156  0.0000E+00  0.2246E-04  0.1707E-05  0.8143E-04  0.1193E-01  0.5053E+03
   -0.127493    6.49869  0.0000E+00  0.1755E-04  0.7843E-06  0.1289E-03  0.8570E-02  0.2623E+02
   -0.169991    6.53387  0.0000E+00  0.1448E-04  0.4015E-06  0.1854E-03  0.6378E-02  0.4757E+02
   -0.212490    6.56099  0.0000E+00  0.1255E-04  0.2250E-06  0.2606E-03  0.4855E-02  0.2200E+02
   -0.254989    6.58174  0.0000E+00  0.1142E-04  0.1403E-06  0.3526E-03  0.3813E-02  0.6882E+02
   -0.297488    6.59706  0.0000E+00  0.1087E-04  0.9853E-07  0.4446E-03  0.3113E-02  0.1063E+04
   -0.339988    6.60816  0.0000E+00  0.1067E-04  0.7604E-07  0.5194E-03  0.2621E-02  0.8812E+01
   -0.382488    6.61689  0.0000E+00  0.1066E-04  0.6253E-07  0.5880E-03  0.2234E-02  0.8170E+01
   -0.424988    6.62413  0.0000E+00  0.1078E-04  0.5392E-07  0.6465E-03  0.1924E-02  0.2008E+01
   -0.467488    6.63043  0.0000E+00  0.1096E-04  0.4804E-07  0.7022E-03  0.1654E-02  0.1840E+01
   -0.509988    6.63609  0.0000E+00  0.1118E-04  0.4382E-07  0.7600E-03  0.1413E-02  0.1809E+01
   -0.552489    6.64129  0.0000E+00  0.1141E-04  0.4076E-07  0.8211E-03  0.1199E-02  0.1775E+01
   -0.594990    6.64608  0.0000E+00  0.1164E-04  0.3860E-07  0.8896E-03  0.1009E-02  0.1699E+01
   -0.637491    6.65050  0.0000E+00  0.1187E-04  0.3711E-07  0.9712E-03  0.8444E-03  0.1580E+01
   -0.679992    6.65466  0.0000E+00  0.1208E-04  0.3618E-07  0.1062E-02  0.7082E-03  0.1506E+01
   -0.722493    6.65855  0.0000E+00  0.1227E-04  0.3569E-07  0.1159E-02  0.5977E-03  0.1433E+01
   -0.764994    6.66224  0.0000E+00  0.1243E-04  0.3555E-07  0.1252E-02  0.5112E-03  0.1379E+01
   -0.807495    6.66581  0.0000E+00  0.1256E-04  0.3566E-07  0.1310E-02  0.4453E-03  0.1348E+01
   -0.849997    6.66934  0.0000E+00  0.1265E-04  0.3596E-07  0.1329E-02  0.3940E-03  0.1317E+01
   -0.892498    6.67290  0.0000E+00  0.1271E-04  0.3641E-07  0.1325E-02  0.3533E-03  0.1268E+01
   -0.934999    6.67660  0.0000E+00  0.1273E-04  0.3698E-07  0.1309E-02  0.3207E-03  0.1260E+01
   -0.977500    6.68037  0.0000E+00  0.1274E-04  0.3767E-07  0.1285E-02  0.2937E-03  0.1243E+01
   -1.020001    6.68426  0.0000E+00  0.1272E-04  0.3849E-07  0.1258E-02  0.2709E-03  0.1306E+01
   -1.062502    6.68823  0.0000E+00  0.1267E-04  0.3948E-07  0.1225E-02  0.2509E-03  0.1386E+01
   -1.105003    6.69229  0.0000E+00  0.1261E-04  0.4070E-07  0.1185E-02  0.2327E-03  0.1554E+01
   -1.147504    6.69645  0.0000E+00  0.1252E-04  0.4221E-07  0.1142E-02  0.2154E-03  0.1777E+01
   -1.190005    6.70064  0.0000E+00  0.1242E-04  0.4413E-07  0.1088E-02  0.1982E-03  0.2158E+01
   -1.232505    6.70484  0.0000E+00  0.1230E-04  0.4678E-07  0.1033E-02  0.1812E-03  0.2854E+01
   -1.275005    6.70942  0.0000E+00  0.1215E-04  0.5063E-07  0.9585E-03  0.1648E-03  0.4706E+01
   -1.317505    6.71473  0.0000E+00  0.1194E-04  0.5642E-07  0.8923E-03  0.1485E-03 -0.1956E+03
   -1.360005    6.72119  0.0000E+00  0.1165E-04  0.6579E-07  0.8019E-03  0.1327E-03  0.4903E+02
   -1.402505    6.73027  0.0000E+00  0.1122E-04  0.8104E-07  0.7226E-03  0.1166E-03 -0.2201E+04
   -1.445004    6.74098  0.0000E+00  0.1066E-04  0.1079E-06  0.6198E-03  0.1012E-03  0.1473E+05
   -1.487503    6.76014  0.0000E+00  0.1006E-04  0.1477E-06  0.5516E-03  0.8092E-04  0.1879E+05
   -1.530002    6.77369  0.0000E+00  0.9365E-05  0.2571E-06  0.4158E-03  0.6208E-04 -0.5183E+06
   -1.572500    6.86294  0.0000E+00  0.8685E-05  0.4626E-06  0.4375E-03  0.4094E-04  0.1353E+10
   -1.614998    6.79515  0.0000E+00  0.7384E-05  0.1272E-05  0.1960E-03  0.3309E-04 -0.9525E+12
   -1.657496    7.25255  0.0000E+00  0.5660E-05  0.2829E-05  0.2022E-03  0.2001E-04 -0.2178E+07
   -1.699993    7.14624  0.0000E+00  0.0000E+00  0.0000E+00  0.0000E+00  0.3615E-04  0.0000E+00
