 1 - depth, m
 2 - temperature, C
 3 - salinity, kg/kg
 4 - turbulent kinetic energy, m**2/s**2
 5 - dissipation rate, m**2/s**3
 6 - kinematic heat conductance, m**2/s
 7 - modulus of horizontal velocity, m/s
 8 - Richardson number, n/d
   -0.000000   20.33760  0.0000E+00  0.8028E-04  0.3339E-04  0.3898E-04  0.6562E-01 -0.7429E-02
   -0.042497   20.42938  0.0000E+00  0.4524E-04  0.8416E-05  0.7052E-04  0.2049E-01 -0.7972E-01
   -0.084995   20.45495  0.0000E+00  0.3301E-04  0.3465E-05  0.9941E-04  0.1331E-01  0.2041E+01
   -0.127493   20.47080  0.0000E+00  0.2639E-04  0.1735E-05  0.1669E-03  0.9906E-02  0.1157E+03
   -0.169991   20.48124  0.0000E+00  0.2226E-04  0.9311E-06  0.2729E-03  0.7737E-02  0.2844E+03
   -0.212490   20.48840  0.0000E+00  0.1964E-04  0.5335E-06  0.3568E-03  0.6251E-02  0.5440E+02
   -0.254989   20.49377  0.0000E+00  0.1809E-04  0.3373E-06  0.4389E-03  0.5154E-02  0.2499E+02
   -0.297489   20.49788  0.0000E+00  0.1727E-04  0.2309E-06  0.5118E-03  0.4348E-02  0.2349E+03
   -0.339988   20.50123  0.0000E+00  0.1697E-04  0.1718E-06  0.5805E-03  0.3725E-02  0.6132E+01
   -0.382488   20.50400  0.0000E+00  0.1698E-04  0.1366E-06  0.6515E-03  0.3215E-02  0.1824E+02
   -0.424988   20.50640  0.0000E+00  0.1720E-04  0.1144E-06  0.7156E-03  0.2793E-02  0.2232E+01
   -0.467489   20.50849  0.0000E+00  0.1753E-04  0.9984E-07  0.7776E-03  0.2418E-02  0.2216E+01
   -0.509989   20.51040  0.0000E+00  0.1791E-04  0.8970E-07  0.8444E-03  0.2078E-02  0.1996E+01
   -0.552490   20.51216  0.0000E+00  0.1830E-04  0.8244E-07  0.9145E-03  0.1772E-02  0.1946E+01
   -0.594991   20.51379  0.0000E+00  0.1867E-04  0.7733E-07  0.9896E-03  0.1496E-02  0.1846E+01
   -0.637492   20.51530  0.0000E+00  0.1901E-04  0.7381E-07  0.1075E-02  0.1254E-02  0.1692E+01
   -0.679993   20.51672  0.0000E+00  0.1931E-04  0.7159E-07  0.1171E-02  0.1053E-02  0.1583E+01
   -0.722494   20.51806  0.0000E+00  0.1955E-04  0.7044E-07  0.1285E-02  0.8885E-03  0.1479E+01
   -0.764996   20.51931  0.0000E+00  0.1974E-04  0.7012E-07  0.1419E-02  0.7592E-03  0.1397E+01
   -0.807497   20.52049  0.0000E+00  0.1986E-04  0.7045E-07  0.1535E-02  0.6603E-03  0.1352E+01
   -0.849998   20.52163  0.0000E+00  0.1992E-04  0.7127E-07  0.1593E-02  0.5831E-03  0.1308E+01
   -0.892500   20.52274  0.0000E+00  0.1993E-04  0.7250E-07  0.1598E-02  0.5220E-03  0.1249E+01
   -0.935001   20.52388  0.0000E+00  0.1990E-04  0.7406E-07  0.1573E-02  0.4729E-03  0.1215E+01
   -0.977502   20.52505  0.0000E+00  0.1983E-04  0.7595E-07  0.1534E-02  0.4325E-03  0.1176E+01
   -1.020003   20.52627  0.0000E+00  0.1972E-04  0.7820E-07  0.1480E-02  0.3984E-03  0.1189E+01
   -1.062504   20.52755  0.0000E+00  0.1958E-04  0.8083E-07  0.1494E-02  0.3688E-03  0.1433E+01
   -1.105005   20.52882  0.0000E+00  0.1940E-04  0.8420E-07  0.1347E-02  0.3455E-03  0.4027E+01
   -1.147506   20.53030  0.0000E+00  0.1919E-04  0.8841E-07  0.1319E-02  0.3211E-03  0.1998E+02
   -1.190007   20.53177  0.0000E+00  0.1894E-04  0.9402E-07  0.1256E-02  0.2965E-03 -0.1469E+01
   -1.232508   20.53333  0.0000E+00  0.1863E-04  0.1024E-06  0.1194E-02  0.2717E-03  0.4166E+01
   -1.275008   20.53511  0.0000E+00  0.1824E-04  0.1145E-06  0.1132E-02  0.2475E-03  0.2390E+03
   -1.317508   20.53735  0.0000E+00  0.1772E-04  0.1332E-06  0.1048E-02  0.2229E-03 -0.2370E+03
   -1.360008   20.54032  0.0000E+00  0.1703E-04  0.1635E-06  0.9654E-03  0.1981E-03 -0.4339E+04
   -1.402508   20.54442  0.0000E+00  0.1615E-04  0.2161E-06  0.8541E-03  0.1730E-03  0.6323E+04
   -1.445007   20.54964  0.0000E+00  0.1510E-04  0.3043E-06  0.7476E-03  0.1489E-03  0.9558E+06
   -1.487506   20.55635  0.0000E+00  0.1421E-04  0.4340E-06  0.6655E-03  0.1182E-03  0.6866E+05
   -1.530005   20.56374  0.0000E+00  0.1319E-04  0.8391E-06  0.5450E-03  0.8956E-04  0.3065E+04
   -1.572503   20.60084  0.0000E+00  0.1239E-04  0.1417E-05  0.5726E-03  0.5908E-04  0.1412E+11
   -1.615001   20.56406  0.0000E+00  0.1070E-04  0.4211E-05  0.3343E-03  0.4948E-04 -0.5591E+10
   -1.657499   20.72917  0.0000E+00  0.8308E-05  0.8305E-05  0.3136E-03  0.3142E-04 -0.1722E+07
   -1.699996   20.70011  0.0000E+00  0.0000E+00  0.0000E+00  0.0000E+00  0.6461E-04  0.0000E+00
