 1 - depth, m
 2 - temperature, C
 3 - salinity, kg/kg
 4 - turbulent kinetic energy, m**2/s**2
 5 - dissipation rate, m**2/s**3
 6 - kinematic heat conductance, m**2/s
 7 - modulus of horizontal velocity, m/s
 8 - Richardson number, n/d
   -0.000000   -0.00077  0.0000E+00  0.1631E-02  0.6960E-02  0.2056E-03  0.6929E+00  0.6273E-02
   -0.042489    0.06593  0.0000E+00  0.1084E-02  0.3383E-02  0.4053E-03  0.1950E+00  0.3177E-01
   -0.084979    0.10893  0.0000E+00  0.7971E-03  0.1456E-02  0.5117E-03  0.1165E+00  0.1169E+00
   -0.127468    0.13074  0.0000E+00  0.6456E-03  0.8949E-03  0.5242E-03  0.9241E-01 -0.1204E+00
   -0.169959    0.14818  0.0000E+00  0.5426E-03  0.5704E-03  0.5355E-03  0.7870E-01  0.1313E+00
   -0.212449    0.16233  0.0000E+00  0.4672E-03  0.3691E-03  0.5491E-03  0.6873E-01  0.7839E-01
   -0.254940    0.17513  0.0000E+00  0.4100E-03  0.2534E-03  0.5745E-03  0.6143E-01  0.3357E+01
   -0.297431    0.18685  0.0000E+00  0.3656E-03  0.1692E-03  0.5987E-03  0.5661E-01  0.8420E+01
   -0.339923    0.19732  0.0000E+00  0.3309E-03  0.1150E-03  0.6176E-03  0.5286E-01  0.2356E+02
   -0.382414    0.20704  0.0000E+00  0.3018E-03  0.7946E-04  0.6440E-03  0.4921E-01  0.3658E+02
   -0.424906    0.21605  0.0000E+00  0.2783E-03  0.5502E-04  0.6582E-03  0.4626E-01  0.1819E+01
   -0.467399    0.22477  0.0000E+00  0.2585E-03  0.3800E-04  0.6739E-03  0.4311E-01  0.9745E+00
   -0.509891    0.23324  0.0000E+00  0.2419E-03  0.2628E-04  0.6871E-03  0.4002E-01  0.1642E+01
   -0.552383    0.24175  0.0000E+00  0.2269E-03  0.1815E-04  0.6926E-03  0.3716E-01  0.2300E+01
   -0.594876    0.25063  0.0000E+00  0.2134E-03  0.1273E-04  0.7013E-03  0.3437E-01  0.1463E+02
   -0.637369    0.26017  0.0000E+00  0.2009E-03  0.9181E-05  0.7121E-03  0.3178E-01  0.3689E+03
   -0.679862    0.27025  0.0000E+00  0.1894E-03  0.6903E-05  0.7169E-03  0.2954E-01  0.8136E+04
   -0.722355    0.28086  0.0000E+00  0.1784E-03  0.5446E-05  0.7223E-03  0.2754E-01  0.3165E+06
   -0.764848    0.29264  0.0000E+00  0.1681E-03  0.4498E-05  0.7278E-03  0.2577E-01  0.1461E+10
   -0.807341    0.30562  0.0000E+00  0.1584E-03  0.3839E-05  0.7236E-03  0.2424E-01  0.9119E+08
   -0.849834    0.31905  0.0000E+00  0.1494E-03  0.3353E-05  0.7126E-03  0.2285E-01  0.6946E+08
   -0.892327    0.33331  0.0000E+00  0.1409E-03  0.2968E-05  0.7028E-03  0.2156E-01  0.6405E+07
   -0.934820    0.34882  0.0000E+00  0.1331E-03  0.2652E-05  0.6883E-03  0.2037E-01  0.2881E+08
   -0.977313    0.36607  0.0000E+00  0.1258E-03  0.2388E-05  0.6737E-03  0.1922E-01  0.1069E+07
   -1.019806    0.38523  0.0000E+00  0.1191E-03  0.2163E-05  0.6548E-03  0.1814E-01  0.1746E+07
   -1.062299    0.40614  0.0000E+00  0.1129E-03  0.1973E-05  0.6355E-03  0.1707E-01  0.1555E+06
   -1.104792    0.42928  0.0000E+00  0.1071E-03  0.1811E-05  0.6124E-03  0.1604E-01  0.3968E+07
   -1.147285    0.45318  0.0000E+00  0.1018E-03  0.1677E-05  0.5864E-03  0.1498E-01  0.4626E+05
   -1.189777    0.47789  0.0000E+00  0.9681E-04  0.1568E-05  0.5605E-03  0.1386E-01  0.3382E+06
   -1.232269    0.50737  0.0000E+00  0.9198E-04  0.1478E-05  0.5376E-03  0.1272E-01  0.2706E+08
   -1.274762    0.54210  0.0000E+00  0.8726E-04  0.1410E-05  0.5119E-03  0.1168E-01  0.3629E+10
   -1.317253    0.58448  0.0000E+00  0.8261E-04  0.1365E-05  0.4808E-03  0.1071E-01  0.1151E+13
   -1.359745    0.68522  0.0000E+00  0.7784E-04  0.1351E-05  0.4487E-03  0.9792E-02  0.1825E+15
   -1.402237    0.83613  0.0000E+00  0.7278E-04  0.1385E-05  0.4056E-03  0.8944E-02  0.5511E+15
   -1.444728    1.06237  0.0000E+00  0.6799E-04  0.1486E-05  0.3726E-03  0.8036E-02  0.6425E+15
   -1.487219    1.36719  0.0000E+00  0.6373E-04  0.1713E-05  0.3370E-03  0.7144E-02  0.1361E+16
   -1.529709    1.73304  0.0000E+00  0.5904E-04  0.2140E-05  0.3143E-03  0.6028E-02  0.9825E+15
   -1.572199    2.15392  0.0000E+00  0.5351E-04  0.3120E-05  0.3071E-03  0.5002E-02 -0.1690E+15
   -1.614689    2.59793  0.0000E+00  0.4340E-04  0.7037E-05  0.1657E-03  0.4219E-02 -0.4485E+15
   -1.657179    2.95088  0.0000E+00  0.2752E-04  0.1801E-04  0.7258E-04  0.3415E-02 -0.1780E+16
   -1.699668    3.47380  0.0000E+00  0.0000E+00  0.0000E+00  0.0000E+00  0.4325E-02  0.0000E+00
