 1 - depth, m
 2 - temperature, C
 3 - salinity, kg/kg
 4 - turbulent kinetic energy, m**2/s**2
 5 - dissipation rate, m**2/s**3
 6 - kinematic heat conductance, m**2/s
 7 - modulus of horizontal velocity, m/s
 8 - Richardson number, n/d
   -0.000000   12.27358  0.0000E+00  0.2853E-02  0.4437E-01  0.2628E-03  0.8748E+00  0.2392E-02
   -0.042497   12.69706  0.0000E+00  0.1420E-02  0.2547E-01  0.3524E-03  0.1846E+00  0.4077E-01
   -0.084994   12.89961  0.0000E+00  0.8893E-03  0.9491E-02  0.4825E-03  0.1004E+00  0.3327E-01
   -0.127492   12.98478  0.0000E+00  0.6550E-03  0.6278E-02  0.4756E-03  0.7654E-01  0.6570E+00
   -0.169990   13.02948  0.0000E+00  0.5094E-03  0.4157E-02  0.4347E-03  0.6192E-01  0.2541E+01
   -0.212489   13.06351  0.0000E+00  0.4044E-03  0.2887E-02  0.4203E-03  0.5024E-01  0.1997E+01
   -0.254988   13.08655  0.0000E+00  0.3228E-03  0.1857E-02  0.4479E-03  0.4150E-01 -0.3264E+01
   -0.297487   13.10400  0.0000E+00  0.2667E-03  0.1330E-02  0.4853E-03  0.3614E-01  0.3198E+02
   -0.339986   13.11680  0.0000E+00  0.2216E-03  0.8793E-03  0.4926E-03  0.3273E-01  0.1446E+02
   -0.382486   13.12997  0.0000E+00  0.1866E-03  0.5508E-03  0.5367E-03  0.2892E-01  0.1556E+02
   -0.424986   13.13898  0.0000E+00  0.1603E-03  0.3462E-03  0.5620E-03  0.2653E-01  0.1584E+04
   -0.467486   13.14960  0.0000E+00  0.1403E-03  0.2095E-03  0.5996E-03  0.2345E-01  0.7773E+02
   -0.509986   13.15817  0.0000E+00  0.1245E-03  0.1198E-03  0.6682E-03  0.2075E-01  0.1114E+03
   -0.552487   13.16632  0.0000E+00  0.1122E-03  0.7066E-04  0.7157E-03  0.1839E-01  0.2951E+04
   -0.594987   13.17509  0.0000E+00  0.1025E-03  0.4175E-04  0.8036E-03  0.1608E-01  0.4151E+03
   -0.637488   13.18100  0.0000E+00  0.9442E-04  0.2560E-04  0.8849E-03  0.1427E-01 -0.6528E+02
   -0.679989   13.18627  0.0000E+00  0.8752E-04  0.1550E-04  0.9509E-03  0.1285E-01  0.1345E+04
   -0.722490   13.19068  0.0000E+00  0.8151E-04  0.9586E-05  0.1015E-02  0.1159E-01  0.1605E+03
   -0.764991   13.19557  0.0000E+00  0.7619E-04  0.6036E-05  0.1085E-02  0.1053E-01  0.2750E+03
   -0.807492   13.19842  0.0000E+00  0.7147E-04  0.3883E-05  0.1145E-02  0.9677E-02 -0.4751E+03
   -0.849993   13.20308  0.0000E+00  0.6721E-04  0.2711E-05  0.1176E-02  0.8881E-02 -0.3373E+04
   -0.892494   13.20658  0.0000E+00  0.6341E-04  0.2127E-05  0.1227E-02  0.8163E-02 -0.6821E+03
   -0.934995   13.21035  0.0000E+00  0.5995E-04  0.1714E-05  0.1247E-02  0.7506E-02  0.4350E+04
   -0.977496   13.21399  0.0000E+00  0.5678E-04  0.1265E-05  0.1287E-02  0.6862E-02  0.2060E+04
   -1.019997   13.21768  0.0000E+00  0.5390E-04  0.9898E-06  0.1296E-02  0.6311E-02  0.1772E+04
   -1.062498   13.22124  0.0000E+00  0.5111E-04  0.7890E-06  0.1293E-02  0.5768E-02  0.2921E+04
   -1.104999   13.22448  0.0000E+00  0.4845E-04  0.6578E-06  0.1266E-02  0.5259E-02  0.3592E+03
   -1.147499   13.22853  0.0000E+00  0.4610E-04  0.5895E-06  0.1315E-02  0.4737E-02  0.2188E+03
   -1.190000   13.23196  0.0000E+00  0.4409E-04  0.5422E-06  0.1259E-02  0.4284E-02  0.2106E+03
   -1.232500   13.23544  0.0000E+00  0.4207E-04  0.5035E-06  0.1153E-02  0.3862E-02  0.2107E+03
   -1.275000   13.23911  0.0000E+00  0.3975E-04  0.4833E-06  0.1078E-02  0.3372E-02  0.6501E+03
   -1.317500   13.24331  0.0000E+00  0.3737E-04  0.4838E-06  0.9953E-03  0.2939E-02  0.6387E+03
   -1.360000   13.24836  0.0000E+00  0.3488E-04  0.5193E-06  0.9176E-03  0.2547E-02  0.1055E+04
   -1.402499   13.25457  0.0000E+00  0.3219E-04  0.6188E-06  0.8494E-03  0.2213E-02  0.2680E+04
   -1.444998   13.26333  0.0000E+00  0.2953E-04  0.8117E-06  0.7579E-03  0.1912E-02  0.1156E+06
   -1.487497   13.27562  0.0000E+00  0.2694E-04  0.1168E-05  0.6697E-03  0.1570E-02  0.6479E+05
   -1.529996   13.28867  0.0000E+00  0.2429E-04  0.2131E-05  0.5420E-03  0.1167E-02 -0.3325E+07
   -1.572494   13.34592  0.0000E+00  0.2200E-04  0.4482E-05  0.5472E-03  0.7979E-03  0.5979E+11
   -1.614992   13.30539  0.0000E+00  0.1825E-04  0.1663E-04  0.3062E-03  0.6350E-03 -0.4948E+11
   -1.657489   13.59282  0.0000E+00  0.1388E-04  0.2613E-04  0.3316E-03  0.4311E-03  0.7574E+08
   -1.699986   13.54172  0.0000E+00  0.0000E+00  0.0000E+00  0.0000E+00  0.8105E-03  0.0000E+00
