 1 - depth, m
 2 - temperature, C
 3 - salinity, kg/kg
 4 - turbulent kinetic energy, m**2/s**2
 5 - dissipation rate, m**2/s**3
 6 - kinematic heat conductance, m**2/s
 7 - modulus of horizontal velocity, m/s
 8 - Richardson number, n/d
   -0.000000    8.78352  0.0000E+00  0.4083E-02  0.9856E-01  0.2340E-03  0.1094E+01  0.2919E-02
   -0.042497    9.11758  0.0000E+00  0.1918E-02  0.5790E-01  0.4048E-03  0.2391E+00  0.7918E-01
   -0.084995    9.25475  0.0000E+00  0.1136E-02  0.1469E-01  0.5571E-03  0.1177E+00  0.5475E+00
   -0.127493    9.30486  0.0000E+00  0.8452E-03  0.9434E-02  0.5632E-03  0.8459E-01  0.3033E+00
   -0.169991    9.33149  0.0000E+00  0.6747E-03  0.6747E-02  0.5183E-03  0.6733E-01  0.2486E+02
   -0.212490    9.35201  0.0000E+00  0.5499E-03  0.4965E-02  0.5282E-03  0.5431E-01  0.1087E+01
   -0.254989    9.36638  0.0000E+00  0.4517E-03  0.3713E-02  0.5179E-03  0.4598E-01  0.2735E+01
   -0.297489    9.37953  0.0000E+00  0.3786E-03  0.2762E-02  0.5309E-03  0.4123E-01  0.1584E+03
   -0.339988    9.38991  0.0000E+00  0.3195E-03  0.2055E-02  0.5398E-03  0.3785E-01  0.7720E+02
   -0.382488    9.39971  0.0000E+00  0.2762E-03  0.1525E-02  0.5607E-03  0.3425E-01 -0.4577E+01
   -0.424988    9.40882  0.0000E+00  0.2421E-03  0.1127E-02  0.5799E-03  0.3169E-01  0.8665E+02
   -0.467489    9.41706  0.0000E+00  0.2143E-03  0.8296E-03  0.5970E-03  0.2881E-01  0.2746E+02
   -0.509989    9.42446  0.0000E+00  0.1909E-03  0.6025E-03  0.6207E-03  0.2589E-01  0.5969E+03
   -0.552490    9.43291  0.0000E+00  0.1718E-03  0.4317E-03  0.6604E-03  0.2317E-01  0.2954E+03
   -0.594991    9.44052  0.0000E+00  0.1561E-03  0.3127E-03  0.6981E-03  0.2057E-01  0.4483E+02
   -0.637492    9.44582  0.0000E+00  0.1425E-03  0.2269E-03  0.7434E-03  0.1824E-01  0.3720E+02
   -0.679993    9.45184  0.0000E+00  0.1309E-03  0.1605E-03  0.7970E-03  0.1660E-01  0.2436E+02
   -0.722494    9.45634  0.0000E+00  0.1208E-03  0.1109E-03  0.8569E-03  0.1515E-01  0.1741E+03
   -0.764995    9.46148  0.0000E+00  0.1119E-03  0.7594E-04  0.9262E-03  0.1397E-01  0.3418E+05
   -0.807496    9.46641  0.0000E+00  0.1040E-03  0.5029E-04  0.9993E-03  0.1309E-01  0.1090E+03
   -0.849998    9.47114  0.0000E+00  0.9708E-04  0.3240E-04  0.1058E-02  0.1228E-01 -0.1585E+03
   -0.892499    9.47602  0.0000E+00  0.9092E-04  0.2133E-04  0.1105E-02  0.1152E-01 -0.5801E+01
   -0.935000    9.48028  0.0000E+00  0.8547E-04  0.1374E-04  0.1141E-02  0.1086E-01  0.1235E+03
   -0.977501    9.48510  0.0000E+00  0.8063E-04  0.8924E-05  0.1164E-02  0.1017E-01 -0.6443E+03
   -1.020003    9.48930  0.0000E+00  0.7626E-04  0.6022E-05  0.1173E-02  0.9592E-02  0.3089E+03
   -1.062504    9.49332  0.0000E+00  0.7229E-04  0.4014E-05  0.1181E-02  0.8980E-02  0.3528E+02
   -1.105005    9.49828  0.0000E+00  0.6865E-04  0.2861E-05  0.1170E-02  0.8418E-02  0.5301E+02
   -1.147505    9.50225  0.0000E+00  0.6541E-04  0.2167E-05  0.1192E-02  0.7842E-02  0.3744E+02
   -1.190006    9.50659  0.0000E+00  0.6248E-04  0.1750E-05  0.1144E-02  0.7207E-02  0.1238E+03
   -1.232507    9.51073  0.0000E+00  0.5950E-04  0.1506E-05  0.1148E-02  0.6546E-02  0.4714E+02
   -1.275007    9.51511  0.0000E+00  0.5657E-04  0.1379E-05  0.1060E-02  0.5981E-02  0.9577E+03
   -1.317507    9.52001  0.0000E+00  0.5362E-04  0.1350E-05  0.1008E-02  0.5455E-02  0.4483E+01
   -1.360007    9.52579  0.0000E+00  0.5057E-04  0.1434E-05  0.9173E-03  0.4939E-02  0.3573E+04
   -1.402507    9.53286  0.0000E+00  0.4743E-04  0.1676E-05  0.8668E-03  0.4525E-02  0.5510E+04
   -1.445006    9.54178  0.0000E+00  0.4432E-04  0.2093E-05  0.7744E-03  0.4146E-02  0.3775E+03
   -1.487505    9.55502  0.0000E+00  0.4083E-04  0.2861E-05  0.6762E-03  0.3513E-02  0.8478E+05
   -1.530004    9.57039  0.0000E+00  0.3733E-04  0.4494E-05  0.5856E-03  0.2658E-02 -0.1682E+05
   -1.572502    9.61253  0.0000E+00  0.3412E-04  0.7767E-05  0.5761E-03  0.2010E-02  0.2376E+11
   -1.615000    9.60243  0.0000E+00  0.2873E-04  0.1995E-04  0.3073E-03  0.1725E-02 -0.2084E+10
   -1.657498    9.86333  0.0000E+00  0.2113E-04  0.4070E-04  0.2744E-03  0.1308E-02  0.1478E+06
   -1.699995    9.86622  0.0000E+00  0.0000E+00  0.0000E+00  0.0000E+00  0.2219E-02  0.0000E+00
