 1 - depth, m
 2 - temperature, C
 3 - salinity, kg/kg
 4 - turbulent kinetic energy, m**2/s**2
 5 - dissipation rate, m**2/s**3
 6 - kinematic heat conductance, m**2/s
 7 - modulus of horizontal velocity, m/s
 8 - Richardson number, n/d
   -0.000000    5.07063  0.0000E+00  0.5554E-02  0.1724E+00  0.2339E-03  0.1444E+01  0.6410E-03
   -0.042497    5.34050  0.0000E+00  0.2943E-02  0.1277E+00  0.7694E-03  0.2838E+00 -0.2271E-02
   -0.084995    5.45440  0.0000E+00  0.1901E-02  0.5993E-01  0.9271E-03  0.1518E+00  0.1450E+01
   -0.127493    5.49838  0.0000E+00  0.1484E-02  0.4476E-01  0.8995E-03  0.1152E+00 -0.4028E+00
   -0.169991    5.51745  0.0000E+00  0.1205E-02  0.3231E-01  0.8122E-03  0.9452E-01  0.2489E+00
   -0.212490    5.53386  0.0000E+00  0.9857E-03  0.2336E-01  0.7910E-03  0.7823E-01 -0.1287E+01
   -0.254989    5.54696  0.0000E+00  0.8335E-03  0.1917E-01  0.7738E-03  0.6699E-01  0.1713E+00
   -0.297488    5.55678  0.0000E+00  0.7038E-03  0.1428E-01  0.7573E-03  0.6055E-01  0.3752E+00
   -0.339988    5.56462  0.0000E+00  0.5942E-03  0.1095E-01  0.7227E-03  0.5605E-01 -0.4056E+00
   -0.382488    5.57241  0.0000E+00  0.5101E-03  0.8537E-02  0.7136E-03  0.5036E-01  0.8607E+00
   -0.424988    5.58021  0.0000E+00  0.4421E-03  0.6492E-02  0.7017E-03  0.4692E-01  0.2680E+01
   -0.467488    5.58829  0.0000E+00  0.3881E-03  0.4951E-02  0.6952E-03  0.4271E-01  0.1357E+01
   -0.509989    5.59644  0.0000E+00  0.3442E-03  0.3763E-02  0.7005E-03  0.3852E-01  0.1888E+01
   -0.552489    5.60362  0.0000E+00  0.3076E-03  0.2849E-02  0.6965E-03  0.3501E-01  0.7195E+02
   -0.594990    5.61176  0.0000E+00  0.2763E-03  0.2152E-02  0.7055E-03  0.3136E-01  0.2792E+02
   -0.637491    5.62050  0.0000E+00  0.2491E-03  0.1614E-02  0.7270E-03  0.2809E-01  0.1462E+03
   -0.679992    5.62656  0.0000E+00  0.2256E-03  0.1198E-02  0.7339E-03  0.2570E-01  0.5894E+02
   -0.722493    5.63373  0.0000E+00  0.2053E-03  0.8810E-03  0.7527E-03  0.2354E-01  0.2260E+02
   -0.764995    5.64028  0.0000E+00  0.1873E-03  0.6400E-03  0.7722E-03  0.2182E-01 -0.1645E+02
   -0.807496    5.64835  0.0000E+00  0.1717E-03  0.4584E-03  0.7886E-03  0.2051E-01  0.9030E+02
   -0.849997    5.65523  0.0000E+00  0.1580E-03  0.3264E-03  0.8026E-03  0.1932E-01 -0.6659E+03
   -0.892498    5.66296  0.0000E+00  0.1459E-03  0.2310E-03  0.8200E-03  0.1821E-01 -0.1683E+03
   -0.935000    5.67016  0.0000E+00  0.1354E-03  0.1635E-03  0.8403E-03  0.1725E-01 -0.6202E+02
   -0.977501    5.67756  0.0000E+00  0.1262E-03  0.1161E-03  0.8546E-03  0.1626E-01  0.1878E+03
   -1.020002    5.68472  0.0000E+00  0.1179E-03  0.8277E-04  0.8685E-03  0.1538E-01  0.1337E+03
   -1.062503    5.69191  0.0000E+00  0.1107E-03  0.5942E-04  0.8853E-03  0.1450E-01  0.4450E+02
   -1.105004    5.69883  0.0000E+00  0.1042E-03  0.4290E-04  0.8838E-03  0.1370E-01  0.2391E+02
   -1.147505    5.70574  0.0000E+00  0.9849E-04  0.3147E-04  0.8707E-03  0.1286E-01  0.2679E+03
   -1.190006    5.71249  0.0000E+00  0.9349E-04  0.2365E-04  0.8603E-03  0.1189E-01  0.1804E+04
   -1.232506    5.71907  0.0000E+00  0.8875E-04  0.1811E-04  0.8568E-03  0.1090E-01  0.7759E+03
   -1.275006    5.72595  0.0000E+00  0.8407E-04  0.1408E-04  0.8532E-03  0.1004E-01  0.1642E+05
   -1.317506    5.73339  0.0000E+00  0.7941E-04  0.1114E-04  0.8344E-03  0.9232E-02  0.3302E+03
   -1.360006    5.74139  0.0000E+00  0.7460E-04  0.8979E-05  0.7987E-03  0.8468E-02 -0.2001E+04
   -1.402506    5.75097  0.0000E+00  0.6946E-04  0.7409E-05  0.7415E-03  0.7782E-02  0.6113E+04
   -1.445005    5.76193  0.0000E+00  0.6455E-04  0.6523E-05  0.6565E-03  0.7136E-02  0.2255E+04
   -1.487504    5.77434  0.0000E+00  0.5950E-04  0.6375E-05  0.5810E-03  0.6263E-02  0.3289E+05
   -1.530003    5.79122  0.0000E+00  0.5387E-04  0.7319E-05  0.5189E-03  0.4901E-02  0.3844E+05
   -1.572501    5.81516  0.0000E+00  0.4844E-04  0.1033E-04  0.5222E-03  0.3757E-02 -0.2167E+07
   -1.614999    5.85490  0.0000E+00  0.3992E-04  0.2914E-04  0.3473E-03  0.3236E-02  0.1198E+08
   -1.657497    6.02273  0.0000E+00  0.2837E-04  0.5000E-04  0.2787E-03  0.2531E-02 -0.3192E+08
   -1.699994    6.15944  0.0000E+00  0.0000E+00  0.0000E+00  0.0000E+00  0.4236E-02  0.0000E+00
