 1 - depth, m
 2 - temperature, C
 3 - salinity, kg/kg
 4 - turbulent kinetic energy, m**2/s**2
 5 - dissipation rate, m**2/s**3
 6 - kinematic heat conductance, m**2/s
 7 - modulus of horizontal velocity, m/s
 8 - Richardson number, n/d
   -0.000000    6.10903  0.0000E+00  0.1299E-03  0.8114E-04  0.5786E-04  0.9937E-01 -0.1038E-01
   -0.042497    6.34500  0.0000E+00  0.6990E-04  0.2364E-04  0.7943E-04  0.2780E-01 -0.4314E-01
   -0.084995    6.40088  0.0000E+00  0.4832E-04  0.9669E-05  0.8395E-04  0.1808E-01 -0.3608E-02
   -0.127493    6.44605  0.0000E+00  0.3569E-04  0.4499E-05  0.9717E-04  0.1351E-01  0.1452E+03
   -0.169991    6.48131  0.0000E+00  0.2734E-04  0.2242E-05  0.1234E-03  0.1040E-01  0.8711E+02
   -0.212490    6.51086  0.0000E+00  0.2152E-04  0.1140E-05  0.1808E-03  0.8072E-02  0.2436E+02
   -0.254989    6.53490  0.0000E+00  0.1758E-04  0.6074E-06  0.2327E-03  0.6395E-02  0.4662E+02
   -0.297488    6.55481  0.0000E+00  0.1499E-04  0.3441E-06  0.2889E-03  0.5192E-02  0.9793E+01
   -0.339988    6.57160  0.0000E+00  0.1339E-04  0.2181E-06  0.3538E-03  0.4291E-02  0.1375E+03
   -0.382488    6.58525  0.0000E+00  0.1242E-04  0.1504E-06  0.4313E-03  0.3585E-02  0.1555E+03
   -0.424988    6.59593  0.0000E+00  0.1188E-04  0.1113E-06  0.5002E-03  0.3050E-02  0.6341E+01
   -0.467488    6.60434  0.0000E+00  0.1159E-04  0.8731E-07  0.5547E-03  0.2607E-02  0.1104E+02
   -0.509989    6.61152  0.0000E+00  0.1147E-04  0.7159E-07  0.6085E-03  0.2220E-02  0.6445E+01
   -0.552490    6.61774  0.0000E+00  0.1145E-04  0.6118E-07  0.6620E-03  0.1881E-02  0.3659E+01
   -0.594991    6.62335  0.0000E+00  0.1151E-04  0.5400E-07  0.7195E-03  0.1579E-02  0.4107E+01
   -0.637492    6.62848  0.0000E+00  0.1162E-04  0.4882E-07  0.7876E-03  0.1315E-02  0.3083E+01
   -0.679993    6.63330  0.0000E+00  0.1175E-04  0.4508E-07  0.8639E-03  0.1094E-02  0.1670E+01
   -0.722494    6.63786  0.0000E+00  0.1189E-04  0.4239E-07  0.9513E-03  0.9104E-03  0.1543E+01
   -0.764995    6.64221  0.0000E+00  0.1202E-04  0.4050E-07  0.1041E-02  0.7639E-03  0.1441E+01
   -0.807496    6.64640  0.0000E+00  0.1214E-04  0.3923E-07  0.1109E-02  0.6510E-03  0.1398E+01
   -0.849998    6.65049  0.0000E+00  0.1224E-04  0.3845E-07  0.1158E-02  0.5621E-03  0.1360E+01
   -0.892499    6.65448  0.0000E+00  0.1231E-04  0.3806E-07  0.1192E-02  0.4915E-03  0.1318E+01
   -0.935000    6.65846  0.0000E+00  0.1236E-04  0.3797E-07  0.1209E-02  0.4351E-03  0.1308E+01
   -0.977501    6.66242  0.0000E+00  0.1238E-04  0.3814E-07  0.1210E-02  0.3887E-03  0.1289E+01
   -1.020002    6.66643  0.0000E+00  0.1238E-04  0.3854E-07  0.1199E-02  0.3502E-03  0.1315E+01
   -1.062504    6.67048  0.0000E+00  0.1237E-04  0.3916E-07  0.1178E-02  0.3174E-03  0.1348E+01
   -1.105005    6.67461  0.0000E+00  0.1233E-04  0.4003E-07  0.1150E-02  0.2889E-03  0.1425E+01
   -1.147505    6.67881  0.0000E+00  0.1228E-04  0.4116E-07  0.1117E-02  0.2631E-03  0.1560E+01
   -1.190006    6.68302  0.0000E+00  0.1221E-04  0.4263E-07  0.1076E-02  0.2390E-03  0.1794E+01
   -1.232507    6.68722  0.0000E+00  0.1214E-04  0.4467E-07  0.1029E-02  0.2162E-03  0.2261E+01
   -1.275007    6.69176  0.0000E+00  0.1204E-04  0.4759E-07  0.9707E-03  0.1954E-03  0.4332E+01
   -1.317507    6.69687  0.0000E+00  0.1191E-04  0.5195E-07  0.9116E-03  0.1758E-03  0.5080E+02
   -1.360007    6.70303  0.0000E+00  0.1172E-04  0.5881E-07  0.8290E-03  0.1571E-03  0.3244E+03
   -1.402507    6.71101  0.0000E+00  0.1143E-04  0.6995E-07  0.7589E-03  0.1390E-03  0.1474E+04
   -1.445006    6.72068  0.0000E+00  0.1105E-04  0.8967E-07  0.6637E-03  0.1214E-03  0.1758E+04
   -1.487505    6.73570  0.0000E+00  0.1063E-04  0.1189E-06  0.5997E-03  0.9989E-04  0.5896E+06
   -1.530004    6.74754  0.0000E+00  0.1013E-04  0.1962E-06  0.4606E-03  0.7933E-04 -0.9012E+05
   -1.572502    6.81389  0.0000E+00  0.9593E-05  0.3470E-06  0.4735E-03  0.5623E-04  0.1180E+10
   -1.615000    6.77107  0.0000E+00  0.8350E-05  0.9052E-06  0.2107E-03  0.4546E-04 -0.9209E+10
   -1.657498    7.13056  0.0000E+00  0.6205E-05  0.2095E-05  0.1637E-03  0.2934E-04  0.9409E+04
   -1.699995    7.11258  0.0000E+00  0.0000E+00  0.0000E+00  0.0000E+00  0.4409E-04  0.0000E+00
