 1 - depth, m
 2 - temperature, C
 3 - salinity, kg/kg
 4 - turbulent kinetic energy, m**2/s**2
 5 - dissipation rate, m**2/s**3
 6 - kinematic heat conductance, m**2/s
 7 - modulus of horizontal velocity, m/s
 8 - Richardson number, n/d
   -0.000000    7.52643  0.0000E+00  0.9503E-03  0.3435E-02  0.9600E-04  0.3912E+00  0.1740E-02
   -0.042497    7.84662  0.0000E+00  0.4536E-03  0.1180E-02  0.2549E-03  0.8402E-01 -0.1754E-01
   -0.084995    7.94557  0.0000E+00  0.3018E-03  0.5179E-03  0.2395E-03  0.4945E-01 -0.6927E-01
   -0.127493    7.99310  0.0000E+00  0.2238E-03  0.2925E-03  0.2194E-03  0.3880E-01  0.3545E+00
   -0.169991    8.02158  0.0000E+00  0.1684E-03  0.1600E-03  0.2083E-03  0.3191E-01  0.6445E-01
   -0.212490    8.04625  0.0000E+00  0.1287E-03  0.9613E-04  0.2071E-03  0.2607E-01  0.5443E+02
   -0.254989    8.07265  0.0000E+00  0.9883E-04  0.5672E-04  0.2281E-03  0.2146E-01  0.1731E+02
   -0.297488    8.09463  0.0000E+00  0.7763E-04  0.3338E-04  0.2614E-03  0.1821E-01  0.4177E+01
   -0.339987    8.11316  0.0000E+00  0.6312E-04  0.1961E-04  0.2801E-03  0.1573E-01  0.1322E+02
   -0.382487    8.13011  0.0000E+00  0.5252E-04  0.1088E-04  0.3232E-03  0.1345E-01  0.1028E+03
   -0.424987    8.14340  0.0000E+00  0.4487E-04  0.6044E-05  0.3501E-03  0.1174E-01  0.2095E+02
   -0.467487    8.15582  0.0000E+00  0.3928E-04  0.3345E-05  0.3964E-03  0.1008E-01  0.1861E+03
   -0.509988    8.16708  0.0000E+00  0.3508E-04  0.1883E-05  0.4565E-03  0.8658E-02  0.1835E+03
   -0.552489    8.17655  0.0000E+00  0.3191E-04  0.1171E-05  0.5127E-03  0.7460E-02  0.1234E+03
   -0.594989    8.18454  0.0000E+00  0.2941E-04  0.7659E-06  0.5718E-03  0.6416E-02  0.2165E+03
   -0.637490    8.19135  0.0000E+00  0.2740E-04  0.5276E-06  0.6391E-03  0.5515E-02  0.6205E+02
   -0.679991    8.19759  0.0000E+00  0.2573E-04  0.3899E-06  0.6995E-03  0.4761E-02  0.2204E+03
   -0.722492    8.20299  0.0000E+00  0.2432E-04  0.3032E-06  0.7604E-03  0.4107E-02  0.6375E+01
   -0.764993    8.20834  0.0000E+00  0.2311E-04  0.2452E-06  0.8160E-03  0.3551E-02  0.1886E+02
   -0.807495    8.21327  0.0000E+00  0.2205E-04  0.2032E-06  0.8679E-03  0.3096E-02  0.7647E+02
   -0.849996    8.21814  0.0000E+00  0.2112E-04  0.1717E-06  0.8993E-03  0.2706E-02  0.5136E+01
   -0.892497    8.22285  0.0000E+00  0.2027E-04  0.1468E-06  0.9388E-03  0.2361E-02  0.5311E+01
   -0.934998    8.22752  0.0000E+00  0.1948E-04  0.1271E-06  0.9539E-03  0.2066E-02  0.2184E+02
   -0.977499    8.23210  0.0000E+00  0.1885E-04  0.1131E-06  0.1065E-02  0.1795E-02  0.6338E+01
   -1.020000    8.23628  0.0000E+00  0.1833E-04  0.1029E-06  0.1073E-02  0.1612E-02  0.3416E+01
   -1.062501    8.24038  0.0000E+00  0.1781E-04  0.9481E-07  0.9904E-03  0.1449E-02  0.4327E+01
   -1.105002    8.24479  0.0000E+00  0.1722E-04  0.8790E-07  0.9918E-03  0.1258E-02  0.2216E+01
   -1.147503    8.24912  0.0000E+00  0.1669E-04  0.8341E-07  0.9746E-03  0.1087E-02  0.2281E+01
   -1.190004    8.25337  0.0000E+00  0.1621E-04  0.8106E-07  0.9494E-03  0.9266E-03  0.2390E+01
   -1.232504    8.25757  0.0000E+00  0.1575E-04  0.8071E-07  0.9170E-03  0.7782E-03  0.2626E+01
   -1.275004    8.26204  0.0000E+00  0.1532E-04  0.8249E-07  0.8741E-03  0.6543E-03  0.3443E+01
   -1.317504    8.26698  0.0000E+00  0.1491E-04  0.8714E-07  0.8360E-03  0.5534E-03  0.5683E+01
   -1.360004    8.27263  0.0000E+00  0.1445E-04  0.9741E-07  0.7590E-03  0.4729E-03  0.1069E+02
   -1.402504    8.28038  0.0000E+00  0.1386E-04  0.1171E-06  0.7067E-03  0.4040E-03  0.7487E+03
   -1.445003    8.29030  0.0000E+00  0.1314E-04  0.1529E-06  0.6116E-03  0.3428E-03  0.5381E+03
   -1.487502    8.30541  0.0000E+00  0.1243E-04  0.2126E-06  0.5703E-03  0.2699E-03  0.1525E+04
   -1.530000    8.31755  0.0000E+00  0.1166E-04  0.3724E-06  0.4321E-03  0.2040E-03  0.6754E+04
   -1.572499    8.38526  0.0000E+00  0.1096E-04  0.6824E-06  0.4491E-03  0.1302E-03  0.3143E+08
   -1.614997    8.33753  0.0000E+00  0.9545E-05  0.1911E-05  0.2188E-03  0.1062E-03 -0.1960E+09
   -1.657494    8.69638  0.0000E+00  0.7242E-05  0.4092E-05  0.2004E-03  0.6553E-04 -0.1910E+07
   -1.699991    8.63623  0.0000E+00  0.0000E+00  0.0000E+00  0.0000E+00  0.1249E-03  0.0000E+00
