 1 - depth, m
 2 - temperature, C
 3 - salinity, kg/kg
 4 - turbulent kinetic energy, m**2/s**2
 5 - dissipation rate, m**2/s**3
 6 - kinematic heat conductance, m**2/s
 7 - modulus of horizontal velocity, m/s
 8 - Richardson number, n/d
   -0.000000   16.54566  0.0000E+00  0.2339E-03  0.1906E-03  0.5574E-04  0.1329E+00 -0.8314E-02
   -0.042497   16.70593  0.0000E+00  0.1197E-03  0.5240E-04  0.1333E-03  0.3135E-01 -0.1977E+00
   -0.084995   16.74372  0.0000E+00  0.8545E-04  0.2533E-04  0.1504E-03  0.2009E-01  0.1105E+01
   -0.127493   16.76630  0.0000E+00  0.6657E-04  0.1420E-04  0.2012E-03  0.1580E-01  0.5721E+03
   -0.169992   16.78162  0.0000E+00  0.5339E-04  0.8288E-05  0.2673E-03  0.1293E-01  0.2047E+03
   -0.212491   16.79329  0.0000E+00  0.4372E-04  0.4877E-05  0.3318E-03  0.1072E-01  0.2549E+02
   -0.254990   16.80252  0.0000E+00  0.3648E-04  0.2845E-05  0.3947E-03  0.9031E-02  0.1859E+03
   -0.297490   16.81024  0.0000E+00  0.3140E-04  0.1683E-05  0.4560E-03  0.7758E-02  0.2404E+02
   -0.339989   16.81684  0.0000E+00  0.2792E-04  0.1030E-05  0.5130E-03  0.6725E-02  0.9160E+01
   -0.382489   16.82249  0.0000E+00  0.2556E-04  0.6579E-06  0.5733E-03  0.5812E-02  0.6973E+02
   -0.424990   16.82739  0.0000E+00  0.2404E-04  0.4406E-06  0.6308E-03  0.5051E-02  0.4368E+03
   -0.467490   16.83158  0.0000E+00  0.2314E-04  0.3190E-06  0.6919E-03  0.4367E-02  0.2944E+02
   -0.509991   16.83520  0.0000E+00  0.2262E-04  0.2444E-06  0.7519E-03  0.3762E-02  0.1534E+02
   -0.552492   16.83836  0.0000E+00  0.2233E-04  0.1953E-06  0.8144E-03  0.3220E-02  0.1402E+02
   -0.594993   16.84120  0.0000E+00  0.2220E-04  0.1637E-06  0.8800E-03  0.2732E-02  0.5277E+01
   -0.637494   16.84377  0.0000E+00  0.2215E-04  0.1421E-06  0.9537E-03  0.2301E-02  0.3196E+01
   -0.679995   16.84616  0.0000E+00  0.2214E-04  0.1268E-06  0.1032E-02  0.1935E-02  0.5635E+01
   -0.722496   16.84841  0.0000E+00  0.2214E-04  0.1159E-06  0.1124E-02  0.1626E-02  0.1705E+01
   -0.764998   16.85055  0.0000E+00  0.2213E-04  0.1080E-06  0.1227E-02  0.1376E-02  0.1543E+01
   -0.807499   16.85261  0.0000E+00  0.2208E-04  0.1023E-06  0.1315E-02  0.1178E-02  0.1472E+01
   -0.850001   16.85461  0.0000E+00  0.2200E-04  0.9848E-07  0.1369E-02  0.1020E-02  0.1414E+01
   -0.892502   16.85656  0.0000E+00  0.2188E-04  0.9611E-07  0.1399E-02  0.8913E-03  0.1356E+01
   -0.935004   16.85850  0.0000E+00  0.2171E-04  0.9496E-07  0.1411E-02  0.7871E-03  0.1327E+01
   -0.977505   16.86042  0.0000E+00  0.2151E-04  0.9486E-07  0.1405E-02  0.7002E-03  0.1295E+01
   -1.020006   16.86236  0.0000E+00  0.2127E-04  0.9573E-07  0.1385E-02  0.6280E-03  0.1313E+01
   -1.062507   16.86433  0.0000E+00  0.2099E-04  0.9764E-07  0.1347E-02  0.5661E-03  0.1558E+01
   -1.105009   16.86636  0.0000E+00  0.2069E-04  0.1007E-06  0.1300E-02  0.5124E-03  0.1306E+01
   -1.147510   16.86846  0.0000E+00  0.2035E-04  0.1051E-06  0.1251E-02  0.4640E-03  0.1688E+01
   -1.190010   16.87063  0.0000E+00  0.1999E-04  0.1116E-06  0.1184E-02  0.4188E-03  0.3026E+01
   -1.232511   16.87287  0.0000E+00  0.1958E-04  0.1214E-06  0.1124E-02  0.3760E-03 -0.1642E+03
   -1.275012   16.87556  0.0000E+00  0.1909E-04  0.1368E-06  0.1053E-02  0.3366E-03 -0.1199E+04
   -1.317512   16.87878  0.0000E+00  0.1848E-04  0.1628E-06  0.9819E-03  0.2992E-03  0.2020E+04
   -1.360012   16.88342  0.0000E+00  0.1770E-04  0.2029E-06  0.9026E-03  0.2629E-03  0.1212E+05
   -1.402512   16.88884  0.0000E+00  0.1673E-04  0.2707E-06  0.7894E-03  0.2291E-03  0.1526E+04
   -1.445011   16.89721  0.0000E+00  0.1558E-04  0.3835E-06  0.7025E-03  0.1959E-03  0.2490E+05
   -1.487510   16.90663  0.0000E+00  0.1462E-04  0.5574E-06  0.6091E-03  0.1545E-03  0.7865E+05
   -1.530009   16.91939  0.0000E+00  0.1354E-04  0.1067E-05  0.5273E-03  0.1148E-03 -0.1131E+05
   -1.572508   16.96895  0.0000E+00  0.1274E-04  0.1799E-05  0.5388E-03  0.7510E-04  0.7139E+08
   -1.615006   16.91928  0.0000E+00  0.1108E-04  0.5818E-05  0.3179E-03  0.6194E-04 -0.4943E+10
   -1.657504   17.17398  0.0000E+00  0.8768E-05  0.1068E-04  0.3360E-03  0.3882E-04 -0.1448E+06
   -1.700001   17.11111  0.0000E+00  0.0000E+00  0.0000E+00  0.0000E+00  0.8345E-04  0.0000E+00
