 1 - depth, m
 2 - temperature, C
 3 - salinity, kg/kg
 4 - turbulent kinetic energy, m**2/s**2
 5 - dissipation rate, m**2/s**3
 6 - kinematic heat conductance, m**2/s
 7 - modulus of horizontal velocity, m/s
 8 - Richardson number, n/d
   -0.000000   10.96239  0.0000E+00  0.1085E-02  0.4969E-02  0.1347E-03  0.4336E+00  0.2027E-01
   -0.042497   11.28855  0.0000E+00  0.5428E-03  0.1980E-02  0.2827E-03  0.9033E-01 -0.1373E+00
   -0.084995   11.39442  0.0000E+00  0.3616E-03  0.7891E-03  0.3173E-03  0.5203E-01  0.5190E+00
   -0.127493   11.45684  0.0000E+00  0.2714E-03  0.4747E-03  0.2970E-03  0.4035E-01  0.4021E+01
   -0.169991   11.48871  0.0000E+00  0.2136E-03  0.3212E-03  0.2894E-03  0.3343E-01  0.2011E+01
   -0.212490   11.51443  0.0000E+00  0.1683E-03  0.2143E-03  0.3114E-03  0.2771E-01 -0.1882E+02
   -0.254989   11.53530  0.0000E+00  0.1341E-03  0.1422E-03  0.3437E-03  0.2322E-01  0.3432E+01
   -0.297488   11.55202  0.0000E+00  0.1081E-03  0.9196E-04  0.3754E-03  0.2010E-01  0.1651E+02
   -0.339988   11.56640  0.0000E+00  0.8861E-04  0.5764E-04  0.4035E-03  0.1775E-01  0.1061E+03
   -0.382488   11.58083  0.0000E+00  0.7411E-04  0.3593E-04  0.4461E-03  0.1537E-01  0.9815E+02
   -0.424988   11.59162  0.0000E+00  0.6367E-04  0.2230E-04  0.4771E-03  0.1364E-01  0.3854E+02
   -0.467488   11.60174  0.0000E+00  0.5624E-04  0.1430E-04  0.5257E-03  0.1183E-01  0.1503E+03
   -0.509988   11.61174  0.0000E+00  0.5063E-04  0.9315E-05  0.5904E-03  0.1023E-01  0.5863E+02
   -0.552489   11.61891  0.0000E+00  0.4642E-04  0.6012E-05  0.6473E-03  0.8916E-02  0.1338E+03
   -0.594990   11.62775  0.0000E+00  0.4307E-04  0.3963E-05  0.7119E-03  0.7672E-02  0.1406E+03
   -0.637491   11.63254  0.0000E+00  0.4037E-04  0.2678E-05  0.7709E-03  0.6671E-02  0.4104E+02
   -0.679992   11.63764  0.0000E+00  0.3813E-04  0.1763E-05  0.8354E-03  0.5841E-02  0.1885E+03
   -0.722493   11.64181  0.0000E+00  0.3622E-04  0.1206E-05  0.8836E-03  0.5123E-02  0.5304E+03
   -0.764994   11.64615  0.0000E+00  0.3454E-04  0.8380E-06  0.9453E-03  0.4513E-02  0.5862E+02
   -0.807495   11.65040  0.0000E+00  0.3301E-04  0.5797E-06  0.9945E-03  0.4003E-02  0.3397E+02
   -0.849997   11.65414  0.0000E+00  0.3163E-04  0.4238E-06  0.1054E-02  0.3562E-02  0.2164E+02
   -0.892498   11.65827  0.0000E+00  0.3037E-04  0.3300E-06  0.1089E-02  0.3184E-02  0.1479E+03
   -0.934999   11.66165  0.0000E+00  0.2919E-04  0.2716E-06  0.1111E-02  0.2855E-02  0.7949E+01
   -0.977500   11.66557  0.0000E+00  0.2807E-04  0.2335E-06  0.1130E-02  0.2549E-02  0.8373E+01
   -1.020001   11.66893  0.0000E+00  0.2701E-04  0.2060E-06  0.1135E-02  0.2279E-02  0.4034E+01
   -1.062502   11.67258  0.0000E+00  0.2600E-04  0.1860E-06  0.1127E-02  0.2030E-02  0.1618E+02
   -1.105003   11.67603  0.0000E+00  0.2501E-04  0.1706E-06  0.1108E-02  0.1803E-02  0.9301E+01
   -1.147504   11.67958  0.0000E+00  0.2407E-04  0.1601E-06  0.1076E-02  0.1586E-02  0.4788E+01
   -1.190005   11.68308  0.0000E+00  0.2319E-04  0.1537E-06  0.1033E-02  0.1377E-02  0.1006E+02
   -1.232505   11.68658  0.0000E+00  0.2232E-04  0.1515E-06  0.9827E-03  0.1177E-02  0.2071E+02
   -1.275006   11.69041  0.0000E+00  0.2145E-04  0.1547E-06  0.9502E-03  0.1000E-02  0.5333E+01
   -1.317506   11.69483  0.0000E+00  0.2058E-04  0.1650E-06  0.8867E-03  0.8534E-03  0.2357E+04
   -1.360005   11.70030  0.0000E+00  0.1963E-04  0.1871E-06  0.8153E-03  0.7325E-03 -0.9621E+02
   -1.402505   11.70791  0.0000E+00  0.1848E-04  0.2319E-06  0.7473E-03  0.6270E-03  0.1524E+04
   -1.445004   11.71687  0.0000E+00  0.1716E-04  0.3216E-06  0.6439E-03  0.5319E-03  0.4517E+04
   -1.487503   11.73188  0.0000E+00  0.1592E-04  0.4684E-06  0.5901E-03  0.4213E-03  0.2923E+06
   -1.530002   11.74269  0.0000E+00  0.1467E-04  0.8912E-06  0.4676E-03  0.3102E-03 -0.7071E+05
   -1.572500   11.81863  0.0000E+00  0.1367E-04  0.1676E-05  0.4966E-03  0.2006E-03  0.1054E+11
   -1.614998   11.74849  0.0000E+00  0.1175E-04  0.5175E-05  0.2664E-03  0.1637E-03 -0.7856E+11
   -1.657496   12.10143  0.0000E+00  0.9109E-05  0.9623E-05  0.2913E-03  0.1032E-03  0.5001E+07
   -1.699993   12.00360  0.0000E+00  0.0000E+00  0.0000E+00  0.0000E+00  0.2015E-03  0.0000E+00
