 1 - depth, m
 2 - temperature, C
 3 - salinity, kg/kg
 4 - turbulent kinetic energy, m**2/s**2
 5 - dissipation rate, m**2/s**3
 6 - kinematic heat conductance, m**2/s
 7 - modulus of horizontal velocity, m/s
 8 - Richardson number, n/d
   -0.000000    4.36659  0.0000E+00  0.3474E-02  0.1069E+00  0.2071E-03  0.1071E+01  0.1267E-03
   -0.042497    4.84120  0.0000E+00  0.1737E-02  0.7489E-01  0.3951E-03  0.2316E+00  0.7563E-02
   -0.084995    5.18279  0.0000E+00  0.1063E-02  0.2380E-01  0.5711E-03  0.1164E+00 -0.2263E+00
   -0.127493    5.31366  0.0000E+00  0.7609E-03  0.1509E-01  0.5167E-03  0.8297E-01  0.1214E+00
   -0.169991    5.37290  0.0000E+00  0.5971E-03  0.1128E-01  0.4709E-03  0.6305E-01 -0.5439E-01
   -0.212490    5.41525  0.0000E+00  0.4790E-03  0.8670E-02  0.4568E-03  0.4988E-01 -0.1086E-01
   -0.254989    5.45714  0.0000E+00  0.3931E-03  0.6655E-02  0.4621E-03  0.4084E-01 -0.4791E+00
   -0.297488    5.48860  0.0000E+00  0.3258E-03  0.5038E-02  0.4725E-03  0.3606E-01  0.1922E+02
   -0.339987    5.51146  0.0000E+00  0.2754E-03  0.3878E-02  0.4708E-03  0.3285E-01  0.8739E+01
   -0.382487    5.53128  0.0000E+00  0.2378E-03  0.2956E-02  0.4845E-03  0.2964E-01 -0.3235E+01
   -0.424987    5.54674  0.0000E+00  0.2058E-03  0.2207E-02  0.4862E-03  0.2751E-01  0.2533E+03
   -0.467487    5.56178  0.0000E+00  0.1812E-03  0.1601E-02  0.4920E-03  0.2484E-01  0.6633E+03
   -0.509988    5.57534  0.0000E+00  0.1594E-03  0.1122E-02  0.5135E-03  0.2211E-01  0.3486E+03
   -0.552488    5.59079  0.0000E+00  0.1420E-03  0.7570E-03  0.5320E-03  0.1984E-01  0.1345E+03
   -0.594989    5.60379  0.0000E+00  0.1280E-03  0.4968E-03  0.5648E-03  0.1754E-01  0.2753E+03
   -0.637490    5.61851  0.0000E+00  0.1160E-03  0.3218E-03  0.5983E-03  0.1550E-01  0.1130E+03
   -0.679991    5.62724  0.0000E+00  0.1059E-03  0.2090E-03  0.6234E-03  0.1401E-01  0.3364E+04
   -0.722492    5.63981  0.0000E+00  0.9717E-04  0.1373E-03  0.6594E-03  0.1269E-01  0.1253E+03
   -0.764993    5.64861  0.0000E+00  0.8948E-04  0.9104E-04  0.6957E-03  0.1161E-01  0.1096E+04
   -0.807494    5.66050  0.0000E+00  0.8266E-04  0.6183E-04  0.7289E-03  0.1081E-01  0.6768E+03
   -0.849996    5.66865  0.0000E+00  0.7665E-04  0.4216E-04  0.7612E-03  0.1008E-01  0.2425E+04
   -0.892497    5.68034  0.0000E+00  0.7127E-04  0.2870E-04  0.7956E-03  0.9399E-02  0.8697E+03
   -0.934998    5.68700  0.0000E+00  0.6643E-04  0.1929E-04  0.8151E-03  0.8839E-02  0.2182E+04
   -0.977499    5.69904  0.0000E+00  0.6208E-04  0.1309E-04  0.8371E-03  0.8222E-02 -0.6911E+04
   -1.020000    5.70540  0.0000E+00  0.5817E-04  0.8900E-05  0.8480E-03  0.7717E-02  0.3032E+04
   -1.062501    5.71612  0.0000E+00  0.5464E-04  0.6114E-05  0.8587E-03  0.7170E-02  0.1323E+04
   -1.105002    5.72345  0.0000E+00  0.5145E-04  0.4253E-05  0.8566E-03  0.6706E-02  0.6943E+03
   -1.147503    5.73153  0.0000E+00  0.4863E-04  0.3047E-05  0.8446E-03  0.6221E-02  0.2052E+03
   -1.190003    5.74058  0.0000E+00  0.4612E-04  0.2309E-05  0.8356E-03  0.5650E-02  0.1158E+04
   -1.232504    5.74700  0.0000E+00  0.4374E-04  0.1778E-05  0.8148E-03  0.5088E-02  0.1234E+03
   -1.275004    5.75677  0.0000E+00  0.4144E-04  0.1398E-05  0.7973E-03  0.4608E-02  0.7976E+04
   -1.317504    5.76401  0.0000E+00  0.3916E-04  0.1156E-05  0.7658E-03  0.4177E-02  0.1141E+05
   -1.360004    5.77467  0.0000E+00  0.3683E-04  0.1025E-05  0.7260E-03  0.3780E-02  0.8827E+04
   -1.402503    5.78444  0.0000E+00  0.3436E-04  0.1005E-05  0.6766E-03  0.3438E-02  0.1577E+07
   -1.445002    5.79760  0.0000E+00  0.3194E-04  0.1109E-05  0.5940E-03  0.3110E-02  0.1395E+05
   -1.487501    5.81214  0.0000E+00  0.2946E-04  0.1371E-05  0.5418E-03  0.2693E-02 -0.4630E+05
   -1.530000    5.82923  0.0000E+00  0.2662E-04  0.2022E-05  0.4441E-03  0.2026E-02  0.1006E+07
   -1.572498    5.86340  0.0000E+00  0.2409E-04  0.3499E-05  0.4538E-03  0.1497E-02 -0.1179E+06
   -1.614996    5.88084  0.0000E+00  0.2006E-04  0.8684E-05  0.2548E-03  0.1278E-02 -0.5378E+08
   -1.657494    6.10271  0.0000E+00  0.1423E-04  0.1835E-04  0.1963E-03  0.9684E-03 -0.3112E+09
   -1.699991    6.20260  0.0000E+00  0.0000E+00  0.0000E+00  0.0000E+00  0.1743E-02  0.0000E+00
