 1 - depth, m
 2 - temperature, C
 3 - salinity, kg/kg
 4 - turbulent kinetic energy, m**2/s**2
 5 - dissipation rate, m**2/s**3
 6 - kinematic heat conductance, m**2/s
 7 - modulus of horizontal velocity, m/s
 8 - Richardson number, n/d
   -0.000000   18.48787  0.0000E+00  0.2778E-02  0.4967E-01  0.2260E-03  0.8868E+00 -0.2242E-03
   -0.042497   18.80609  0.0000E+00  0.1372E-02  0.3459E-01  0.4192E-03  0.1846E+00 -0.4548E-01
   -0.084995   19.01355  0.0000E+00  0.8746E-03  0.9729E-02  0.5480E-03  0.9768E-01  0.5509E+00
   -0.127493   19.08482  0.0000E+00  0.6648E-03  0.5675E-02  0.5102E-03  0.7290E-01  0.2876E+01
   -0.169991   19.12113  0.0000E+00  0.5240E-03  0.3438E-02  0.4815E-03  0.5845E-01  0.2621E+01
   -0.212490   19.14541  0.0000E+00  0.4204E-03  0.2307E-02  0.4956E-03  0.4767E-01  0.1523E+03
   -0.254989   19.16330  0.0000E+00  0.3419E-03  0.1542E-02  0.5308E-03  0.4035E-01  0.2150E+03
   -0.297488   19.17647  0.0000E+00  0.2825E-03  0.1055E-02  0.5613E-03  0.3591E-01  0.2129E+02
   -0.339988   19.18633  0.0000E+00  0.2347E-03  0.7096E-03  0.5883E-03  0.3284E-01  0.3905E+02
   -0.382488   19.19448  0.0000E+00  0.1987E-03  0.4656E-03  0.6245E-03  0.2937E-01  0.7652E+02
   -0.424988   19.20369  0.0000E+00  0.1715E-03  0.3085E-03  0.6373E-03  0.2697E-01  0.7249E+02
   -0.467488   19.20932  0.0000E+00  0.1508E-03  0.2012E-03  0.6824E-03  0.2412E-01 -0.1048E+03
   -0.509988   19.21743  0.0000E+00  0.1345E-03  0.1277E-03  0.7123E-03  0.2133E-01  0.5510E+02
   -0.552489   19.22707  0.0000E+00  0.1215E-03  0.7994E-04  0.7719E-03  0.1891E-01  0.2418E+03
   -0.594990   19.23544  0.0000E+00  0.1110E-03  0.4924E-04  0.8556E-03  0.1672E-01  0.2592E+03
   -0.637491   19.24019  0.0000E+00  0.1021E-03  0.3113E-04  0.9428E-03  0.1488E-01  0.1607E+03
   -0.679992   19.24417  0.0000E+00  0.9439E-04  0.1918E-04  0.1018E-02  0.1345E-01  0.1620E+03
   -0.722493   19.24765  0.0000E+00  0.8765E-04  0.1185E-04  0.1073E-02  0.1217E-01  0.8712E+03
   -0.764994   19.25086  0.0000E+00  0.8164E-04  0.7450E-05  0.1159E-02  0.1107E-01  0.1915E+04
   -0.807495   19.25353  0.0000E+00  0.7618E-04  0.4612E-05  0.1213E-02  0.1017E-01  0.4484E+04
   -0.849997   19.25680  0.0000E+00  0.7141E-04  0.2978E-05  0.1274E-02  0.9348E-02  0.6507E+03
   -0.892498   19.25881  0.0000E+00  0.6712E-04  0.2016E-05  0.1304E-02  0.8613E-02  0.2000E+04
   -0.934999   19.26172  0.0000E+00  0.6322E-04  0.1462E-05  0.1326E-02  0.7934E-02  0.1642E+04
   -0.977500   19.26394  0.0000E+00  0.5970E-04  0.1127E-05  0.1351E-02  0.7277E-02  0.8412E+02
   -1.020001   19.26644  0.0000E+00  0.5657E-04  0.9124E-06  0.1354E-02  0.6707E-02  0.2159E+05
   -1.062502   19.26892  0.0000E+00  0.5362E-04  0.7753E-06  0.1356E-02  0.6124E-02  0.3976E+03
   -1.105003   19.27111  0.0000E+00  0.5083E-04  0.6678E-06  0.1349E-02  0.5571E-02  0.1740E+03
   -1.147504   19.27324  0.0000E+00  0.4832E-04  0.5888E-06  0.1288E-02  0.5069E-02  0.8329E+02
   -1.190005   19.27574  0.0000E+00  0.4593E-04  0.5315E-06  0.1276E-02  0.4503E-02  0.2321E+02
   -1.232505   19.27791  0.0000E+00  0.4361E-04  0.4910E-06  0.1216E-02  0.3983E-02  0.3694E+02
   -1.275006   19.28039  0.0000E+00  0.4122E-04  0.4650E-06  0.1126E-02  0.3505E-02  0.2956E+03
   -1.317506   19.28291  0.0000E+00  0.3869E-04  0.4578E-06  0.1043E-02  0.3036E-02  0.8146E+03
   -1.360006   19.28619  0.0000E+00  0.3610E-04  0.4774E-06  0.9613E-03  0.2633E-02  0.8322E+03
   -1.402505   19.28956  0.0000E+00  0.3327E-04  0.5472E-06  0.8840E-03  0.2283E-02 -0.8949E+05
   -1.445004   19.29501  0.0000E+00  0.3044E-04  0.6971E-06  0.7791E-03  0.1970E-02  0.4483E+05
   -1.487503   19.30090  0.0000E+00  0.2768E-04  0.9858E-06  0.7036E-03  0.1632E-02  0.1335E+06
   -1.530002   19.31006  0.0000E+00  0.2482E-04  0.1688E-05  0.5510E-03  0.1240E-02  0.1935E+06
   -1.572501   19.33726  0.0000E+00  0.2220E-04  0.3086E-05  0.5651E-03  0.8541E-03  0.1317E+11
   -1.614999   19.31942  0.0000E+00  0.1836E-04  0.1011E-04  0.3117E-03  0.6811E-03 -0.2774E+09
   -1.657496   19.47777  0.0000E+00  0.1380E-04  0.1866E-04  0.3351E-03  0.4619E-03 -0.2758E+09
   -1.699993   19.44293  0.0000E+00  0.0000E+00  0.0000E+00  0.0000E+00  0.8240E-03  0.0000E+00
