 1 - depth, m
 2 - temperature, C
 3 - salinity, kg/kg
 4 - turbulent kinetic energy, m**2/s**2
 5 - dissipation rate, m**2/s**3
 6 - kinematic heat conductance, m**2/s
 7 - modulus of horizontal velocity, m/s
 8 - Richardson number, n/d
   -0.000000    5.76916  0.0000E+00  0.1270E-02  0.8534E-02  0.1266E-03  0.5442E+00  0.2073E-02
   -0.042497    6.03361  0.0000E+00  0.6559E-03  0.4776E-02  0.2846E-03  0.1211E+00  0.3216E-02
   -0.084995    6.20034  0.0000E+00  0.4332E-03  0.1471E-02  0.3287E-03  0.6675E-01  0.3456E+00
   -0.127493    6.25905  0.0000E+00  0.3233E-03  0.6556E-03  0.3039E-03  0.5128E-01 -0.2354E-01
   -0.169991    6.28433  0.0000E+00  0.2535E-03  0.3529E-03  0.2828E-03  0.4164E-01  0.2627E+00
   -0.212490    6.31381  0.0000E+00  0.1988E-03  0.1836E-03  0.2949E-03  0.3407E-01  0.8687E+00
   -0.254989    6.34681  0.0000E+00  0.1607E-03  0.1119E-03  0.3168E-03  0.2855E-01 -0.9496E+00
   -0.297488    6.36844  0.0000E+00  0.1329E-03  0.7029E-04  0.3390E-03  0.2510E-01 -0.2492E+04
   -0.339987    6.38376  0.0000E+00  0.1123E-03  0.4385E-04  0.3480E-03  0.2257E-01 -0.2049E+03
   -0.382487    6.39964  0.0000E+00  0.9651E-04  0.2694E-04  0.3752E-03  0.2011E-01  0.8825E+02
   -0.424987    6.41247  0.0000E+00  0.8439E-04  0.1641E-04  0.3893E-03  0.1824E-01  0.3721E+02
   -0.467488    6.42498  0.0000E+00  0.7497E-04  0.9994E-05  0.4096E-03  0.1626E-01  0.9556E+02
   -0.509988    6.43596  0.0000E+00  0.6743E-04  0.6092E-05  0.4338E-03  0.1443E-01  0.2618E+03
   -0.552489    6.44789  0.0000E+00  0.6130E-04  0.3848E-05  0.4653E-03  0.1280E-01  0.9843E+02
   -0.594989    6.45836  0.0000E+00  0.5617E-04  0.2571E-05  0.5127E-03  0.1129E-01  0.2683E+02
   -0.637490    6.46770  0.0000E+00  0.5171E-04  0.1781E-05  0.5611E-03  0.9965E-02  0.2962E+02
   -0.679991    6.47566  0.0000E+00  0.4783E-04  0.1275E-05  0.6238E-03  0.8883E-02  0.8893E+02
   -0.722492    6.48340  0.0000E+00  0.4443E-04  0.9477E-06  0.6928E-03  0.7942E-02  0.9662E+03
   -0.764993    6.49084  0.0000E+00  0.4141E-04  0.7340E-06  0.7674E-03  0.7147E-02  0.9309E+03
   -0.807495    6.49696  0.0000E+00  0.3868E-04  0.5849E-06  0.8309E-03  0.6479E-02  0.6509E+02
   -0.849996    6.50369  0.0000E+00  0.3626E-04  0.4833E-06  0.8896E-03  0.5885E-02  0.4544E+03
   -0.892497    6.50930  0.0000E+00  0.3408E-04  0.4071E-06  0.9410E-03  0.5353E-02  0.4312E+02
   -0.934998    6.51519  0.0000E+00  0.3211E-04  0.3480E-06  0.9762E-03  0.4880E-02  0.2932E+02
   -0.977499    6.52043  0.0000E+00  0.3033E-04  0.3010E-06  0.9811E-03  0.4434E-02  0.3499E+02
   -1.020000    6.52580  0.0000E+00  0.2872E-04  0.2631E-06  0.1014E-02  0.4031E-02  0.2189E+02
   -1.062501    6.53087  0.0000E+00  0.2724E-04  0.2319E-06  0.1009E-02  0.3651E-02  0.1894E+02
   -1.105002    6.53586  0.0000E+00  0.2583E-04  0.2058E-06  0.1002E-02  0.3281E-02  0.2248E+02
   -1.147503    6.54081  0.0000E+00  0.2456E-04  0.1853E-06  0.9872E-03  0.2924E-02  0.2159E+02
   -1.190004    6.54563  0.0000E+00  0.2340E-04  0.1695E-06  0.9658E-03  0.2571E-02  0.2249E+02
   -1.232504    6.55037  0.0000E+00  0.2227E-04  0.1572E-06  0.9402E-03  0.2227E-02  0.2288E+02
   -1.275004    6.55531  0.0000E+00  0.2116E-04  0.1483E-06  0.9060E-03  0.1917E-02  0.2922E+02
   -1.317504    6.56066  0.0000E+00  0.2005E-04  0.1433E-06  0.8593E-03  0.1640E-02  0.4388E+02
   -1.360004    6.56657  0.0000E+00  0.1892E-04  0.1435E-06  0.8026E-03  0.1398E-02  0.5710E+02
   -1.402504    6.57353  0.0000E+00  0.1772E-04  0.1538E-06  0.7415E-03  0.1195E-02  0.8603E+02
   -1.445003    6.58270  0.0000E+00  0.1651E-04  0.1831E-06  0.6596E-03  0.1015E-02  0.1326E+03
   -1.487502    6.59518  0.0000E+00  0.1528E-04  0.2451E-06  0.5975E-03  0.8281E-03  0.8486E+04
   -1.530001    6.60806  0.0000E+00  0.1394E-04  0.4030E-06  0.4673E-03  0.6273E-03  0.2548E+03
   -1.572499    6.65348  0.0000E+00  0.1272E-04  0.7515E-06  0.4674E-03  0.4256E-03  0.1521E+08
   -1.614997    6.63434  0.0000E+00  0.1055E-04  0.2278E-05  0.2229E-03  0.3410E-03 -0.1197E+10
   -1.657494    6.94266  0.0000E+00  0.7759E-05  0.4624E-05  0.2017E-03  0.2182E-03 -0.4082E+06
   -1.699992    6.91163  0.0000E+00  0.0000E+00  0.0000E+00  0.0000E+00  0.4038E-03  0.0000E+00
