 1 - depth, m
 2 - temperature, C
 3 - salinity, kg/kg
 4 - turbulent kinetic energy, m**2/s**2
 5 - dissipation rate, m**2/s**3
 6 - kinematic heat conductance, m**2/s
 7 - modulus of horizontal velocity, m/s
 8 - Richardson number, n/d
   -0.000000   14.04059  0.0000E+00  0.1898E-02  0.2077E-01  0.1811E-03  0.7586E+00 -0.6405E+01
   -0.042497   14.36188  0.0000E+00  0.9862E-03  0.1298E-01  0.2829E-03  0.1774E+00 -0.1576E+00
   -0.084995   14.56276  0.0000E+00  0.6185E-03  0.3762E-02  0.3707E-03  0.9295E-01 -0.7365E+00
   -0.127492   14.61671  0.0000E+00  0.4644E-03  0.2087E-02  0.3642E-03  0.6916E-01 -0.1085E+00
   -0.169991   14.64377  0.0000E+00  0.3703E-03  0.1342E-02  0.3496E-03  0.5596E-01 -0.5944E+00
   -0.212489   14.66592  0.0000E+00  0.2990E-03  0.8766E-03  0.3785E-03  0.4624E-01  0.3080E+02
   -0.254988   14.68230  0.0000E+00  0.2474E-03  0.5834E-03  0.4225E-03  0.3930E-01 -0.5600E+02
   -0.297487   14.69709  0.0000E+00  0.2087E-03  0.3829E-03  0.4561E-03  0.3494E-01  0.5026E+02
   -0.339987   14.70527  0.0000E+00  0.1779E-03  0.2398E-03  0.4919E-03  0.3191E-01  0.3560E+02
   -0.382486   14.71505  0.0000E+00  0.1544E-03  0.1491E-03  0.5376E-03  0.2873E-01  0.3513E+02
   -0.424986   14.72099  0.0000E+00  0.1367E-03  0.9310E-04  0.5730E-03  0.2639E-01  0.7804E+01
   -0.467486   14.72861  0.0000E+00  0.1227E-03  0.5663E-04  0.6307E-03  0.2375E-01  0.3301E+03
   -0.509987   14.73501  0.0000E+00  0.1116E-03  0.3437E-04  0.6753E-03  0.2127E-01  0.1433E+04
   -0.552487   14.74272  0.0000E+00  0.1030E-03  0.2078E-04  0.7687E-03  0.1909E-01  0.7379E+02
   -0.594988   14.74914  0.0000E+00  0.9596E-04  0.1315E-04  0.8671E-03  0.1707E-01  0.1825E+03
   -0.637489   14.75374  0.0000E+00  0.8986E-04  0.8594E-05  0.9677E-03  0.1532E-01  0.1099E+03
   -0.679989   14.75839  0.0000E+00  0.8456E-04  0.5582E-05  0.1064E-02  0.1389E-01  0.3734E+03
   -0.722490   14.76168  0.0000E+00  0.7980E-04  0.3767E-05  0.1136E-02  0.1263E-01  0.4700E+02
   -0.764991   14.76589  0.0000E+00  0.7545E-04  0.2619E-05  0.1224E-02  0.1150E-01  0.1063E+03
   -0.807493   14.76883  0.0000E+00  0.7153E-04  0.1927E-05  0.1297E-02  0.1058E-01  0.1447E+04
   -0.849994   14.77256  0.0000E+00  0.6797E-04  0.1532E-05  0.1345E-02  0.9743E-02  0.2534E+03
   -0.892495   14.77502  0.0000E+00  0.6462E-04  0.1231E-05  0.1360E-02  0.8982E-02 -0.3572E+01
   -0.934996   14.77904  0.0000E+00  0.6134E-04  0.9667E-06  0.1379E-02  0.8242E-02  0.9024E+02
   -0.977497   14.78167  0.0000E+00  0.5824E-04  0.7979E-06  0.1375E-02  0.7539E-02  0.6149E+02
   -1.019998   14.78632  0.0000E+00  0.5542E-04  0.6849E-06  0.1470E-02  0.6811E-02  0.7416E+02
   -1.062499   14.78936  0.0000E+00  0.5299E-04  0.6064E-06  0.1470E-02  0.6270E-02  0.1157E+02
   -1.104999   14.79213  0.0000E+00  0.5072E-04  0.5460E-06  0.1425E-02  0.5765E-02  0.2198E+02
   -1.147500   14.79527  0.0000E+00  0.4845E-04  0.4996E-06  0.1345E-02  0.5228E-02  0.1678E+02
   -1.190001   14.79827  0.0000E+00  0.4620E-04  0.4629E-06  0.1287E-02  0.4656E-02  0.1646E+02
   -1.232501   14.80250  0.0000E+00  0.4388E-04  0.4358E-06  0.1251E-02  0.4035E-02  0.1407E+03
   -1.275001   14.80570  0.0000E+00  0.4166E-04  0.4221E-06  0.1209E-02  0.3552E-02  0.3329E+02
   -1.317501   14.80931  0.0000E+00  0.3945E-04  0.4239E-06  0.1127E-02  0.3132E-02  0.8765E+02
   -1.360001   14.81337  0.0000E+00  0.3706E-04  0.4493E-06  0.1002E-02  0.2753E-02  0.1151E+03
   -1.402500   14.81927  0.0000E+00  0.3421E-04  0.5284E-06  0.9011E-03  0.2397E-02  0.6568E+04
   -1.444999   14.82619  0.0000E+00  0.3122E-04  0.7023E-06  0.8123E-03  0.2052E-02  0.7575E+05
   -1.487498   14.83793  0.0000E+00  0.2842E-04  0.1027E-05  0.7243E-03  0.1685E-02 -0.2025E+04
   -1.529997   14.84733  0.0000E+00  0.2565E-04  0.1850E-05  0.5789E-03  0.1267E-02 -0.9989E+05
   -1.572495   14.90188  0.0000E+00  0.2320E-04  0.3756E-05  0.5945E-03  0.8709E-03  0.8738E+10
   -1.614993   14.86060  0.0000E+00  0.1939E-04  0.1184E-04  0.3366E-03  0.6946E-03 -0.9453E+09
   -1.657490   15.11578  0.0000E+00  0.1455E-04  0.2102E-04  0.3411E-03  0.4659E-03 -0.4030E+06
   -1.699987   15.06728  0.0000E+00  0.0000E+00  0.0000E+00  0.0000E+00  0.8180E-03  0.0000E+00
