 1 - depth, m
 2 - temperature, C
 3 - salinity, kg/kg
 4 - turbulent kinetic energy, m**2/s**2
 5 - dissipation rate, m**2/s**3
 6 - kinematic heat conductance, m**2/s
 7 - modulus of horizontal velocity, m/s
 8 - Richardson number, n/d
   -0.000000   -0.00062  0.0000E+00  0.8159E-03  0.3117E-02  0.1643E-03  0.4694E+00  0.1509E-02
   -0.042493    0.07338  0.0000E+00  0.4496E-03  0.1535E-02  0.2187E-03  0.1116E+00 -0.4773E+00
   -0.084987    0.12282  0.0000E+00  0.3100E-03  0.6434E-03  0.2546E-03  0.6343E-01  0.4418E-01
   -0.127481    0.15677  0.0000E+00  0.2378E-03  0.3756E-03  0.2218E-03  0.4933E-01  0.1206E+00
   -0.169975    0.18427  0.0000E+00  0.1870E-03  0.2145E-03  0.2072E-03  0.4057E-01  0.8165E-01
   -0.212470    0.21132  0.0000E+00  0.1481E-03  0.1280E-03  0.1929E-03  0.3343E-01  0.1528E+00
   -0.254965    0.24170  0.0000E+00  0.1179E-03  0.7560E-04  0.1839E-03  0.2794E-01  0.2951E+02
   -0.297460    0.27422  0.0000E+00  0.9549E-04  0.4317E-04  0.1754E-03  0.2441E-01  0.4271E+02
   -0.339956    0.30739  0.0000E+00  0.7849E-04  0.2373E-04  0.1677E-03  0.2175E-01  0.1309E+03
   -0.382452    0.33975  0.0000E+00  0.6531E-04  0.1124E-04  0.1621E-03  0.1923E-01  0.6523E+02
   -0.424948    0.37330  0.0000E+00  0.5520E-04  0.4663E-05  0.1554E-03  0.1734E-01  0.4905E+02
   -0.467444    0.40777  0.0000E+00  0.4747E-04  0.2288E-05  0.1484E-03  0.1519E-01  0.4053E+01
   -0.509941    0.44008  0.0000E+00  0.4121E-04  0.1442E-05  0.1398E-03  0.1316E-01  0.1566E+02
   -0.552438    0.47416  0.0000E+00  0.3594E-04  0.1032E-05  0.1290E-03  0.1130E-01  0.4107E+02
   -0.594934    0.51095  0.0000E+00  0.3116E-04  0.7854E-06  0.1172E-03  0.9520E-02  0.4280E+03
   -0.637431    0.55462  0.0000E+00  0.2671E-04  0.6129E-06  0.1052E-03  0.7900E-02  0.3954E+05
   -0.679928    0.62152  0.0000E+00  0.2271E-04  0.4823E-06  0.9153E-04  0.6576E-02  0.2911E+07
   -0.722426    0.78805  0.0000E+00  0.1909E-04  0.3781E-06  0.9456E-04  0.5408E-02  0.5707E+09
   -0.764923    1.05789  0.0000E+00  0.1579E-04  0.2936E-06  0.1253E-03  0.4453E-02  0.1145E+09
   -0.807420    1.37795  0.0000E+00  0.1295E-04  0.2246E-06  0.1356E-03  0.3662E-02  0.1773E+11
   -0.849917    1.83499  0.0000E+00  0.1065E-04  0.1701E-06  0.1654E-03  0.2949E-02  0.2081E+10
   -0.892415    2.27583  0.0000E+00  0.8840E-05  0.1284E-06  0.1987E-03  0.2356E-02  0.1090E+10
   -0.934912    2.65190  0.0000E+00  0.7420E-05  0.9695E-07  0.2334E-03  0.1932E-02  0.1898E+09
   -0.977409    2.99675  0.0000E+00  0.6344E-05  0.7324E-07  0.2610E-03  0.1537E-02  0.8675E+10
   -1.019906    3.25280  0.0000E+00  0.5507E-05  0.5589E-07  0.2875E-03  0.1278E-02  0.3156E+11
   -1.062403    3.42748  0.0000E+00  0.4861E-05  0.4279E-07  0.3039E-03  0.1043E-02  0.1653E+12
   -1.104900    3.58279  0.0000E+00  0.4376E-05  0.3370E-07  0.3216E-03  0.8752E-03  0.9748E+10
   -1.147397    3.70004  0.0000E+00  0.3993E-05  0.2666E-07  0.3321E-03  0.7067E-03  0.8932E+09
   -1.189894    3.79892  0.0000E+00  0.3718E-05  0.2168E-07  0.3420E-03  0.5150E-03  0.8504E+09
   -1.232390    3.93287  0.0000E+00  0.3510E-05  0.1775E-07  0.3472E-03  0.3250E-03  0.2108E+10
   -1.274887    4.05927  0.0000E+00  0.3425E-05  0.1552E-07  0.3500E-03  0.2054E-03  0.2074E+11
   -1.317383    4.12155  0.0000E+00  0.3382E-05  0.1419E-07  0.3488E-03  0.1529E-03  0.7261E+13
   -1.359879    4.18635  0.0000E+00  0.3353E-05  0.1330E-07  0.3425E-03  0.1167E-03  0.4551E+14
   -1.402374    4.25005  0.0000E+00  0.3330E-05  0.1275E-07  0.3315E-03  0.9128E-04  0.1375E+13
   -1.444870    4.30298  0.0000E+00  0.3310E-05  0.1259E-07  0.3167E-03  0.7041E-04 -0.7142E+13
   -1.487365    4.35447  0.0000E+00  0.3296E-05  0.1293E-07  0.2957E-03  0.4969E-04 -0.7552E+13
   -1.529859    4.41082  0.0000E+00  0.3299E-05  0.1428E-07  0.2634E-03  0.2641E-04 -0.9878E+13
   -1.572354    4.48313  0.0000E+00  0.3394E-05  0.1912E-07  0.2147E-03  0.1136E-04 -0.2393E+14
   -1.614848    4.56828  0.0000E+00  0.3406E-05  0.3600E-07  0.1289E-03  0.7508E-05 -0.6467E+14
   -1.657342    4.70511  0.0000E+00  0.2671E-05  0.1055E-06  0.2904E-04  0.4537E-05 -0.4365E+15
   -1.699835    5.14903  0.0000E+00  0.0000E+00  0.0000E+00  0.0000E+00  0.6383E-05  0.0000E+00
