 1 - depth, m
 2 - temperature, C
 3 - salinity, kg/kg
 4 - turbulent kinetic energy, m**2/s**2
 5 - dissipation rate, m**2/s**3
 6 - kinematic heat conductance, m**2/s
 7 - modulus of horizontal velocity, m/s
 8 - Richardson number, n/d
   -0.000000   17.07179  0.0000E+00  0.2217E-02  0.2362E-01  0.1787E-03  0.7274E+00  0.1213E-03
   -0.042497   17.28787  0.0000E+00  0.1069E-02  0.1329E-01  0.3463E-03  0.1547E+00  0.2029E+00
   -0.084995   17.41076  0.0000E+00  0.6823E-03  0.4536E-02  0.4141E-03  0.8530E-01 -0.2316E+00
   -0.127493   17.45462  0.0000E+00  0.5072E-03  0.2258E-02  0.4046E-03  0.6482E-01  0.2006E+01
   -0.169991   17.47858  0.0000E+00  0.3934E-03  0.1125E-02  0.3574E-03  0.5249E-01  0.1551E+01
   -0.212490   17.49515  0.0000E+00  0.3102E-03  0.6883E-03  0.3586E-03  0.4263E-01  0.3312E+01
   -0.254989   17.51141  0.0000E+00  0.2472E-03  0.3874E-03  0.3858E-03  0.3536E-01  0.3025E+01
   -0.297488   17.52251  0.0000E+00  0.2027E-03  0.2437E-03  0.4169E-03  0.3077E-01  0.8356E+02
   -0.339987   17.53264  0.0000E+00  0.1699E-03  0.1604E-03  0.4425E-03  0.2769E-01  0.2816E+02
   -0.382487   17.53927  0.0000E+00  0.1439E-03  0.1013E-03  0.4769E-03  0.2478E-01  0.1007E+03
   -0.424987   17.54568  0.0000E+00  0.1237E-03  0.6196E-04  0.5049E-03  0.2276E-01  0.1193E+03
   -0.467488   17.55093  0.0000E+00  0.1079E-03  0.3705E-04  0.5228E-03  0.2024E-01  0.9230E+02
   -0.509988   17.55665  0.0000E+00  0.9546E-04  0.2086E-04  0.5831E-03  0.1776E-01  0.1964E+03
   -0.552489   17.56279  0.0000E+00  0.8592E-04  0.1209E-04  0.6489E-03  0.1557E-01  0.2192E+03
   -0.594989   17.56803  0.0000E+00  0.7838E-04  0.7392E-05  0.7290E-03  0.1360E-01  0.1562E+03
   -0.637490   17.57212  0.0000E+00  0.7194E-04  0.4764E-05  0.8036E-03  0.1197E-01  0.2804E+05
   -0.679991   17.57526  0.0000E+00  0.6636E-04  0.3159E-05  0.8689E-03  0.1069E-01  0.2715E+03
   -0.722492   17.57829  0.0000E+00  0.6166E-04  0.2169E-05  0.9428E-03  0.9557E-02  0.6301E+02
   -0.764994   17.58097  0.0000E+00  0.5770E-04  0.1596E-05  0.1007E-02  0.8639E-02  0.1053E+05
   -0.807495   17.58365  0.0000E+00  0.5413E-04  0.1223E-05  0.1042E-02  0.7880E-02  0.1879E+03
   -0.849996   17.58625  0.0000E+00  0.5085E-04  0.9666E-06  0.1064E-02  0.7165E-02  0.3115E+03
   -0.892497   17.58898  0.0000E+00  0.4788E-04  0.7887E-06  0.1106E-02  0.6493E-02  0.1223E+03
   -0.934998   17.59125  0.0000E+00  0.4524E-04  0.6579E-06  0.1139E-02  0.5920E-02  0.3514E+03
   -0.977499   17.59377  0.0000E+00  0.4285E-04  0.5584E-06  0.1131E-02  0.5387E-02  0.1084E+04
   -1.020001   17.59604  0.0000E+00  0.4060E-04  0.4784E-06  0.1139E-02  0.4885E-02  0.1067E+03
   -1.062502   17.59856  0.0000E+00  0.3850E-04  0.4142E-06  0.1139E-02  0.4402E-02  0.1976E+02
   -1.105002   17.60083  0.0000E+00  0.3654E-04  0.3629E-06  0.1129E-02  0.3952E-02  0.5685E+02
   -1.147503   17.60312  0.0000E+00  0.3472E-04  0.3238E-06  0.1107E-02  0.3515E-02  0.5726E+02
   -1.190004   17.60535  0.0000E+00  0.3307E-04  0.2954E-06  0.1082E-02  0.3080E-02  0.6586E+02
   -1.232504   17.60758  0.0000E+00  0.3148E-04  0.2750E-06  0.1032E-02  0.2670E-02  0.8020E+02
   -1.275005   17.60998  0.0000E+00  0.2987E-04  0.2620E-06  0.9686E-03  0.2304E-02  0.5948E+03
   -1.317505   17.61265  0.0000E+00  0.2824E-04  0.2575E-06  0.9169E-03  0.1961E-02  0.4263E+05
   -1.360004   17.61574  0.0000E+00  0.2659E-04  0.2654E-06  0.8435E-03  0.1679E-02  0.5383E+03
   -1.402504   17.61966  0.0000E+00  0.2478E-04  0.2986E-06  0.7841E-03  0.1444E-02 -0.2359E+04
   -1.445003   17.62499  0.0000E+00  0.2283E-04  0.3823E-06  0.6913E-03  0.1227E-02  0.1619E+05
   -1.487502   17.63300  0.0000E+00  0.2096E-04  0.5379E-06  0.6276E-03  0.9980E-03  0.3670E+05
   -1.530001   17.63944  0.0000E+00  0.1904E-04  0.9838E-06  0.4943E-03  0.7573E-03  0.2058E+06
   -1.572499   17.67939  0.0000E+00  0.1734E-04  0.2043E-05  0.5162E-03  0.5021E-03 -0.1425E+10
   -1.614997   17.64688  0.0000E+00  0.1457E-04  0.6717E-05  0.2709E-03  0.4006E-03 -0.5766E+12
   -1.657495   17.84560  0.0000E+00  0.1106E-04  0.1226E-04  0.2972E-03  0.2606E-03 -0.7798E+06
   -1.699992   17.79597  0.0000E+00  0.0000E+00  0.0000E+00  0.0000E+00  0.4692E-03  0.0000E+00
