 1 - depth, m
 2 - temperature, C
 3 - salinity, kg/kg
 4 - turbulent kinetic energy, m**2/s**2
 5 - dissipation rate, m**2/s**3
 6 - kinematic heat conductance, m**2/s
 7 - modulus of horizontal velocity, m/s
 8 - Richardson number, n/d
   -0.000000   12.16185  0.0000E+00  0.3759E-03  0.6034E-03  0.8676E-04  0.2156E+00 -0.3638E-01
   -0.042497   12.47444  0.0000E+00  0.1871E-03  0.1880E-03  0.1460E-03  0.5052E-01 -0.5215E-01
   -0.084995   12.56941  0.0000E+00  0.1270E-03  0.8398E-04  0.1653E-03  0.3004E-01  0.1917E+01
   -0.127493   12.62410  0.0000E+00  0.9533E-04  0.4277E-04  0.1921E-03  0.2318E-01  0.4299E+01
   -0.169991   12.65823  0.0000E+00  0.7411E-04  0.2387E-04  0.2234E-03  0.1864E-01  0.1277E+03
   -0.212490   12.68523  0.0000E+00  0.5902E-04  0.1347E-04  0.2800E-03  0.1512E-01  0.7106E+02
   -0.254988   12.70558  0.0000E+00  0.4798E-04  0.7323E-05  0.3370E-03  0.1255E-01  0.3162E+02
   -0.297488   12.72090  0.0000E+00  0.4012E-04  0.4169E-05  0.3979E-03  0.1071E-01  0.5176E+02
   -0.339987   12.73386  0.0000E+00  0.3477E-04  0.2494E-05  0.4559E-03  0.9269E-02  0.3142E+02
   -0.382487   12.74638  0.0000E+00  0.3116E-04  0.1471E-05  0.5231E-03  0.7969E-02  0.2995E+02
   -0.424987   12.75523  0.0000E+00  0.2877E-04  0.8936E-06  0.5731E-03  0.6949E-02  0.8885E+02
   -0.467487   12.76355  0.0000E+00  0.2726E-04  0.5847E-06  0.6207E-03  0.6026E-02  0.5405E+02
   -0.509988   12.77059  0.0000E+00  0.2632E-04  0.4102E-06  0.6759E-03  0.5199E-02  0.2289E+02
   -0.552488   12.77668  0.0000E+00  0.2574E-04  0.3090E-06  0.7394E-03  0.4476E-02  0.2616E+02
   -0.594989   12.78183  0.0000E+00  0.2539E-04  0.2487E-06  0.7929E-03  0.3826E-02  0.7501E+01
   -0.637490   12.78655  0.0000E+00  0.2516E-04  0.2087E-06  0.8562E-03  0.3237E-02  0.6582E+01
   -0.679991   12.79087  0.0000E+00  0.2500E-04  0.1805E-06  0.9232E-03  0.2731E-02  0.1468E+02
   -0.722492   12.79489  0.0000E+00  0.2487E-04  0.1600E-06  0.9939E-03  0.2296E-02  0.2314E+01
   -0.764993   12.79868  0.0000E+00  0.2474E-04  0.1447E-06  0.1069E-02  0.1934E-02  0.1924E+01
   -0.807494   12.80233  0.0000E+00  0.2459E-04  0.1333E-06  0.1133E-02  0.1644E-02  0.1883E+01
   -0.849995   12.80586  0.0000E+00  0.2441E-04  0.1253E-06  0.1322E-02  0.1402E-02 -0.1233E+01
   -0.892496   12.80904  0.0000E+00  0.2421E-04  0.1197E-06  0.1353E-02  0.1230E-02  0.4191E+01
   -0.934998   12.81217  0.0000E+00  0.2398E-04  0.1160E-06  0.1388E-02  0.1091E-02  0.1777E+01
   -0.977499   12.81529  0.0000E+00  0.2371E-04  0.1140E-06  0.1374E-02  0.9668E-03 -0.2124E+02
   -1.020000   12.81840  0.0000E+00  0.2341E-04  0.1135E-06  0.1337E-02  0.8666E-03  0.2042E+01
   -1.062501   12.82160  0.0000E+00  0.2305E-04  0.1146E-06  0.1315E-02  0.7691E-03  0.1977E+01
   -1.105002   12.82484  0.0000E+00  0.2266E-04  0.1172E-06  0.1286E-02  0.6843E-03  0.2451E+01
   -1.147502   12.82819  0.0000E+00  0.2228E-04  0.1213E-06  0.1254E-02  0.6102E-03  0.3509E+01
   -1.190003   12.83160  0.0000E+00  0.2189E-04  0.1277E-06  0.1190E-02  0.5467E-03  0.7925E+01
   -1.232503   12.83514  0.0000E+00  0.2146E-04  0.1379E-06  0.1119E-02  0.4874E-03  0.2839E+03
   -1.275003   12.83921  0.0000E+00  0.2094E-04  0.1546E-06  0.1068E-02  0.4308E-03 -0.7248E+03
   -1.317504   12.84422  0.0000E+00  0.2031E-04  0.1837E-06  0.9935E-03  0.3808E-03  0.5634E+02
   -1.360003   12.85087  0.0000E+00  0.1951E-04  0.2260E-06  0.9291E-03  0.3337E-03  0.1639E+05
   -1.402503   12.85897  0.0000E+00  0.1848E-04  0.3013E-06  0.8187E-03  0.2911E-03  0.1885E+05
   -1.445002   12.87211  0.0000E+00  0.1731E-04  0.4202E-06  0.7287E-03  0.2468E-03  0.1509E+05
   -1.487501   12.88550  0.0000E+00  0.1629E-04  0.6151E-06  0.6443E-03  0.1988E-03  0.3072E+05
   -1.530000   12.90449  0.0000E+00  0.1513E-04  0.1176E-05  0.5517E-03  0.1482E-03 -0.6386E+05
   -1.572498   12.97262  0.0000E+00  0.1426E-04  0.1960E-05  0.5764E-03  0.9987E-04  0.9310E+10
   -1.614996   12.91505  0.0000E+00  0.1236E-04  0.6532E-05  0.3069E-03  0.8214E-04 -0.4683E+11
   -1.657493   13.26984  0.0000E+00  0.9808E-05  0.1174E-04  0.3424E-03  0.5187E-04  0.3395E+06
   -1.699990   13.16071  0.0000E+00  0.0000E+00  0.0000E+00  0.0000E+00  0.1097E-03  0.0000E+00
