 1 - depth, m
 2 - temperature, C
 3 - salinity, kg/kg
 4 - turbulent kinetic energy, m**2/s**2
 5 - dissipation rate, m**2/s**3
 6 - kinematic heat conductance, m**2/s
 7 - modulus of horizontal velocity, m/s
 8 - Richardson number, n/d
   -0.000000   -0.00010  0.0000E+00  0.2885E-03  0.2577E-03  0.9640E-04  0.2027E+00  0.8920E-02
   -0.042497    0.08368  0.0000E+00  0.1590E-03  0.8338E-04  0.1371E-03  0.5390E-01  0.3843E-01
   -0.084995    0.13713  0.0000E+00  0.1081E-03  0.3072E-04  0.1146E-03  0.3620E-01  0.1310E+00
   -0.127493    0.19070  0.0000E+00  0.7760E-04  0.1314E-04  0.9820E-04  0.2846E-01  0.1839E+00
   -0.169992    0.24644  0.0000E+00  0.5556E-04  0.5933E-05  0.8445E-04  0.2275E-01  0.3639E+00
   -0.212490    0.30843  0.0000E+00  0.3899E-04  0.2734E-05  0.6951E-04  0.1802E-01  0.1302E+01
   -0.254990    0.38803  0.0000E+00  0.2678E-04  0.1432E-05  0.5385E-04  0.1414E-01  0.2154E+03
   -0.297489    0.51134  0.0000E+00  0.1783E-04  0.7930E-06  0.3764E-04  0.1132E-01  0.1944E+03
   -0.339989    0.72206  0.0000E+00  0.1145E-04  0.4398E-06  0.2351E-04  0.9144E-02  0.1423E+03
   -0.382489    1.13991  0.0000E+00  0.7149E-05  0.2358E-06  0.1398E-04  0.6850E-02  0.3334E+04
   -0.424989    2.06419  0.0000E+00  0.4848E-05  0.1267E-06  0.4947E-04  0.4904E-02  0.5317E+04
   -0.467489    2.77634  0.0000E+00  0.3473E-05  0.6802E-07  0.1388E-03  0.3230E-02  0.3338E+04
   -0.509990    3.29665  0.0000E+00  0.2773E-05  0.3593E-07  0.2086E-03  0.1934E-02  0.8128E+03
   -0.552490    3.75594  0.0000E+00  0.2449E-05  0.1991E-07  0.2785E-03  0.1038E-02  0.5146E+04
   -0.594991    4.00317  0.0000E+00  0.2340E-05  0.1170E-07  0.3284E-03  0.5350E-03  0.1012E+06
   -0.637492    4.15943  0.0000E+00  0.2333E-05  0.7880E-08  0.3737E-03  0.2798E-03  0.1033E+05
   -0.679994    4.21744  0.0000E+00  0.2375E-05  0.6226E-08  0.4082E-03  0.1787E-03  0.1418E+05
   -0.722495    4.24431  0.0000E+00  0.2435E-05  0.5417E-08  0.4379E-03  0.1303E-03  0.1147E+05
   -0.764996    4.26185  0.0000E+00  0.2507E-05  0.5007E-08  0.4650E-03  0.1008E-03  0.1338E+05
   -0.807497    4.27566  0.0000E+00  0.2587E-05  0.4808E-08  0.4894E-03  0.8171E-04  0.1716E+05
   -0.849999    4.28803  0.0000E+00  0.2671E-05  0.4733E-08  0.5119E-03  0.6819E-04  0.1871E+05
   -0.892500    4.29951  0.0000E+00  0.2754E-05  0.4728E-08  0.5325E-03  0.5808E-04  0.2165E+05
   -0.935001    4.31046  0.0000E+00  0.2834E-05  0.4763E-08  0.5505E-03  0.5019E-04  0.2503E+05
   -0.977503    4.32095  0.0000E+00  0.2911E-05  0.4828E-08  0.5654E-03  0.4389E-04  0.2926E+05
   -1.020004    4.33116  0.0000E+00  0.2983E-05  0.4915E-08  0.5775E-03  0.3867E-04  0.3436E+05
   -1.062505    4.34104  0.0000E+00  0.3050E-05  0.5022E-08  0.5861E-03  0.3411E-04  0.3863E+05
   -1.105006    4.35065  0.0000E+00  0.3112E-05  0.5151E-08  0.5917E-03  0.3011E-04  0.4419E+05
   -1.147507    4.35994  0.0000E+00  0.3168E-05  0.5299E-08  0.5940E-03  0.2647E-04  0.4850E+05
   -1.190008    4.36882  0.0000E+00  0.3219E-05  0.5470E-08  0.5921E-03  0.2306E-04  0.5250E+05
   -1.232508    4.37736  0.0000E+00  0.3269E-05  0.5681E-08  0.5851E-03  0.1990E-04  0.6036E+05
   -1.275009    4.38619  0.0000E+00  0.3319E-05  0.5946E-08  0.5733E-03  0.1710E-04  0.7856E+05
   -1.317509    4.39548  0.0000E+00  0.3369E-05  0.6281E-08  0.5567E-03  0.1461E-04  0.9423E+05
   -1.360009    4.40547  0.0000E+00  0.3419E-05  0.6717E-08  0.5375E-03  0.1242E-04  0.1388E+06
   -1.402509    4.41645  0.0000E+00  0.3468E-05  0.7304E-08  0.5043E-03  0.1055E-04  0.1923E+06
   -1.445008    4.42903  0.0000E+00  0.3509E-05  0.8023E-08  0.4768E-03  0.8851E-05  0.3256E+06
   -1.487507    4.44171  0.0000E+00  0.3547E-05  0.8958E-08  0.4326E-03  0.7247E-05  0.5134E+06
   -1.530006    4.45430  0.0000E+00  0.3589E-05  0.1047E-07  0.3743E-03  0.5690E-05  0.8529E+06
   -1.572504    4.46878  0.0000E+00  0.3640E-05  0.1386E-07  0.3022E-03  0.4304E-05  0.2304E+07
   -1.615002    4.49547  0.0000E+00  0.3601E-05  0.2640E-07  0.1676E-03  0.3259E-05 -0.3902E+09
   -1.657500    4.58164  0.0000E+00  0.2733E-05  0.9070E-07  0.3076E-04  0.2295E-05 -0.2502E+12
   -1.699998    4.98007  0.0000E+00  0.0000E+00  0.0000E+00  0.0000E+00  0.2322E-05  0.0000E+00
