 1 - depth, m
 2 - temperature, C
 3 - salinity, kg/kg
 4 - turbulent kinetic energy, m**2/s**2
 5 - dissipation rate, m**2/s**3
 6 - kinematic heat conductance, m**2/s
 7 - modulus of horizontal velocity, m/s
 8 - Richardson number, n/d
   -0.000000    9.13239  0.0000E+00  0.2634E-03  0.2653E-03  0.5403E-04  0.1445E+00 -0.1997E+00
   -0.042497    9.30088  0.0000E+00  0.1370E-03  0.7321E-04  0.1657E-03  0.3253E-01  0.4266E+02
   -0.084995    9.33717  0.0000E+00  0.9749E-04  0.3580E-04  0.1894E-03  0.2094E-01  0.1061E+03
   -0.127493    9.36277  0.0000E+00  0.7548E-04  0.1933E-04  0.2173E-03  0.1658E-01  0.1395E+02
   -0.169992    9.38065  0.0000E+00  0.5939E-04  0.1060E-04  0.2625E-03  0.1360E-01  0.1810E+02
   -0.212490    9.39479  0.0000E+00  0.4748E-04  0.5973E-05  0.3174E-03  0.1124E-01  0.2352E+02
   -0.254990    9.40679  0.0000E+00  0.3864E-04  0.3333E-05  0.3763E-03  0.9423E-02  0.2921E+02
   -0.297489    9.41767  0.0000E+00  0.3219E-04  0.1883E-05  0.4380E-03  0.8058E-02  0.7057E+01
   -0.339989    9.42749  0.0000E+00  0.2768E-04  0.1102E-05  0.5036E-03  0.6938E-02  0.7825E+01
   -0.382489    9.43622  0.0000E+00  0.2448E-04  0.6812E-06  0.5725E-03  0.5954E-02  0.2256E+03
   -0.424989    9.44382  0.0000E+00  0.2232E-04  0.4586E-06  0.6351E-03  0.5161E-02  0.2649E+03
   -0.467489    9.45048  0.0000E+00  0.2083E-04  0.3279E-06  0.7002E-03  0.4459E-02  0.4440E+02
   -0.509990    9.45626  0.0000E+00  0.1981E-04  0.2461E-06  0.7663E-03  0.3846E-02  0.1696E+02
   -0.552491    9.46124  0.0000E+00  0.1910E-04  0.1934E-06  0.8282E-03  0.3309E-02  0.2784E+02
   -0.594991    9.46565  0.0000E+00  0.1862E-04  0.1581E-06  0.8938E-03  0.2828E-02  0.1067E+02
   -0.637492    9.46954  0.0000E+00  0.1828E-04  0.1335E-06  0.9588E-03  0.2404E-02  0.1907E+02
   -0.679994    9.47316  0.0000E+00  0.1804E-04  0.1157E-06  0.1021E-02  0.2042E-02  0.3441E+01
   -0.722495    9.47655  0.0000E+00  0.1785E-04  0.1023E-06  0.1080E-02  0.1732E-02  0.6443E+01
   -0.764996    9.47986  0.0000E+00  0.1771E-04  0.9217E-07  0.1135E-02  0.1474E-02  0.2040E+01
   -0.807497    9.48314  0.0000E+00  0.1758E-04  0.8435E-07  0.1180E-02  0.1266E-02  0.1516E+01
   -0.849999    9.48641  0.0000E+00  0.1747E-04  0.7853E-07  0.1213E-02  0.1095E-02  0.1435E+01
   -0.892500    9.48964  0.0000E+00  0.1736E-04  0.7426E-07  0.1237E-02  0.9525E-03  0.1422E+01
   -0.935002    9.49289  0.0000E+00  0.1724E-04  0.7132E-07  0.1251E-02  0.8345E-03  0.1476E+01
   -0.977503    9.49611  0.0000E+00  0.1711E-04  0.6950E-07  0.1256E-02  0.7342E-03  0.1528E+01
   -1.020004    9.49935  0.0000E+00  0.1697E-04  0.6866E-07  0.1250E-02  0.6492E-03  0.1668E+01
   -1.062505    9.50261  0.0000E+00  0.1681E-04  0.6873E-07  0.1231E-02  0.5755E-03  0.1810E+01
   -1.105006    9.50592  0.0000E+00  0.1663E-04  0.6969E-07  0.1197E-02  0.5113E-03  0.2051E+01
   -1.147507    9.50933  0.0000E+00  0.1643E-04  0.7160E-07  0.1157E-02  0.4536E-03  0.2439E+01
   -1.190008    9.51278  0.0000E+00  0.1623E-04  0.7462E-07  0.1104E-02  0.4003E-03  0.3807E+01
   -1.232508    9.51633  0.0000E+00  0.1601E-04  0.7926E-07  0.1050E-02  0.3514E-03  0.1473E+03
   -1.275009    9.52027  0.0000E+00  0.1575E-04  0.8645E-07  0.9837E-03  0.3093E-03  0.2116E+02
   -1.317509    9.52513  0.0000E+00  0.1543E-04  0.9740E-07  0.9214E-03  0.2723E-03  0.1919E+05
   -1.360009    9.53085  0.0000E+00  0.1502E-04  0.1156E-06  0.8528E-03  0.2399E-03 -0.3706E+03
   -1.402509    9.53982  0.0000E+00  0.1445E-04  0.1455E-06  0.7581E-03  0.2093E-03  0.2970E+05
   -1.445008    9.54807  0.0000E+00  0.1375E-04  0.1950E-06  0.6423E-03  0.1817E-03  0.7014E+04
   -1.487507    9.56496  0.0000E+00  0.1304E-04  0.2727E-06  0.5902E-03  0.1456E-03  0.1638E+06
   -1.530006    9.57619  0.0000E+00  0.1224E-04  0.4924E-06  0.4640E-03  0.1119E-03 -0.1002E+07
   -1.572505    9.65624  0.0000E+00  0.1152E-04  0.8684E-06  0.4928E-03  0.7499E-04  0.1399E+12
   -1.615003    9.59173  0.0000E+00  0.9969E-05  0.2445E-05  0.2378E-03  0.6096E-04 -0.5914E+10
   -1.657500    9.97395  0.0000E+00  0.7721E-05  0.5089E-05  0.2412E-03  0.3820E-04 -0.8140E+05
   -1.699998    9.90113  0.0000E+00  0.0000E+00  0.0000E+00  0.0000E+00  0.6863E-04  0.0000E+00
