 1 - depth, m
 2 - temperature, C
 3 - salinity, kg/kg
 4 - turbulent kinetic energy, m**2/s**2
 5 - dissipation rate, m**2/s**3
 6 - kinematic heat conductance, m**2/s
 7 - modulus of horizontal velocity, m/s
 8 - Richardson number, n/d
   -0.000000   -0.00071  0.0000E+00  0.1030E-02  0.2230E-02  0.1589E-03  0.5008E+00  0.3131E-01
   -0.042494    0.08976  0.0000E+00  0.6291E-03  0.8815E-03  0.3003E-03  0.1296E+00  0.1310E-01
   -0.084989    0.13524  0.0000E+00  0.4488E-03  0.3710E-03  0.3278E-03  0.8093E-01  0.2515E+00
   -0.127484    0.16923  0.0000E+00  0.3566E-03  0.1938E-03  0.3224E-03  0.6612E-01  0.2564E+00
   -0.169979    0.19771  0.0000E+00  0.2935E-03  0.1189E-03  0.3175E-03  0.5639E-01  0.1715E+00
   -0.212475    0.22296  0.0000E+00  0.2452E-03  0.7617E-04  0.3200E-03  0.4865E-01  0.2045E+00
   -0.254971    0.24804  0.0000E+00  0.2068E-03  0.4740E-04  0.3280E-03  0.4268E-01  0.5518E+01
   -0.297467    0.27243  0.0000E+00  0.1776E-03  0.2880E-04  0.3322E-03  0.3842E-01  0.1545E+02
   -0.339964    0.29712  0.0000E+00  0.1544E-03  0.1677E-04  0.3342E-03  0.3498E-01  0.1267E+02
   -0.382461    0.32266  0.0000E+00  0.1355E-03  0.9209E-05  0.3386E-03  0.3173E-01  0.2938E+02
   -0.424958    0.35101  0.0000E+00  0.1209E-03  0.5713E-05  0.3393E-03  0.2898E-01  0.7799E+01
   -0.467455    0.37994  0.0000E+00  0.1091E-03  0.4165E-05  0.3354E-03  0.2628E-01  0.9884E+00
   -0.509953    0.41048  0.0000E+00  0.9897E-04  0.3180E-05  0.3326E-03  0.2360E-01  0.2399E+01
   -0.552450    0.44395  0.0000E+00  0.9020E-04  0.2560E-05  0.3247E-03  0.2123E-01  0.1561E+02
   -0.594948    0.48628  0.0000E+00  0.8221E-04  0.2117E-05  0.3147E-03  0.1888E-01  0.5302E+03
   -0.637446    0.56565  0.0000E+00  0.7457E-04  0.1759E-05  0.3065E-03  0.1671E-01  0.9231E+04
   -0.679944    0.72265  0.0000E+00  0.6736E-04  0.1470E-05  0.3149E-03  0.1483E-01  0.2508E+05
   -0.722442    0.81122  0.0000E+00  0.6044E-04  0.1229E-05  0.3121E-03  0.1318E-01  0.2612E+06
   -0.764941    0.85629  0.0000E+00  0.5390E-04  0.1028E-05  0.2975E-03  0.1176E-01  0.3021E+08
   -0.807439    0.91829  0.0000E+00  0.4783E-04  0.8584E-06  0.2782E-03  0.1057E-01  0.1034E+11
   -0.849937    1.04627  0.0000E+00  0.4235E-04  0.7170E-06  0.2603E-03  0.9462E-02  0.3509E+10
   -0.892435    1.22566  0.0000E+00  0.3739E-04  0.5988E-06  0.2517E-03  0.8476E-02  0.3179E+10
   -0.934934    1.38974  0.0000E+00  0.3294E-04  0.5007E-06  0.2450E-03  0.7621E-02  0.3632E+10
   -0.977432    1.54281  0.0000E+00  0.2895E-04  0.4185E-06  0.2352E-03  0.6814E-02  0.6700E+09
   -1.019930    1.67600  0.0000E+00  0.2539E-04  0.3498E-06  0.2237E-03  0.6107E-02  0.4799E+09
   -1.062428    1.80622  0.0000E+00  0.2226E-04  0.2924E-06  0.2156E-03  0.5402E-02  0.9632E+09
   -1.104926    1.93933  0.0000E+00  0.1961E-04  0.2467E-06  0.2074E-03  0.4787E-02  0.3003E+10
   -1.147424    2.06513  0.0000E+00  0.1734E-04  0.2104E-06  0.2017E-03  0.4177E-02  0.2156E+09
   -1.189921    2.16616  0.0000E+00  0.1529E-04  0.1796E-06  0.1947E-03  0.3461E-02  0.3085E+09
   -1.232419    2.30141  0.0000E+00  0.1330E-04  0.1500E-06  0.1911E-03  0.2663E-02  0.3709E+09
   -1.274916    2.52468  0.0000E+00  0.1161E-04  0.1253E-06  0.1917E-03  0.2057E-02  0.5064E+09
   -1.317413    2.79207  0.0000E+00  0.1020E-04  0.1052E-06  0.1946E-03  0.1579E-02  0.1329E+12
   -1.359910    3.04780  0.0000E+00  0.8922E-05  0.8782E-07  0.1967E-03  0.1206E-02  0.1811E+13
   -1.402407    3.32135  0.0000E+00  0.7801E-05  0.7279E-07  0.2083E-03  0.9027E-03  0.2084E+13
   -1.444903    3.62511  0.0000E+00  0.7106E-05  0.6381E-07  0.1972E-03  0.6824E-03 -0.5900E+13
   -1.487399    3.82480  0.0000E+00  0.6727E-05  0.5986E-07  0.2048E-03  0.5170E-03 -0.5715E+13
   -1.529895    3.99225  0.0000E+00  0.6506E-05  0.6027E-07  0.1893E-03  0.3978E-03 -0.7608E+13
   -1.572390    4.14361  0.0000E+00  0.6295E-05  0.6843E-07  0.1539E-03  0.3057E-03 -0.6288E+14
   -1.614885    4.31373  0.0000E+00  0.5648E-05  0.1068E-06  0.1053E-03  0.2345E-03 -0.1250E+15
   -1.657380    4.51118  0.0000E+00  0.3891E-05  0.2920E-06  0.2643E-04  0.1792E-03 -0.9153E+15
   -1.699874    5.03584  0.0000E+00  0.0000E+00  0.0000E+00  0.0000E+00  0.1901E-03  0.0000E+00
