 1 - depth, m
 2 - temperature, C
 3 - salinity, kg/kg
 4 - turbulent kinetic energy, m**2/s**2
 5 - dissipation rate, m**2/s**3
 6 - kinematic heat conductance, m**2/s
 7 - modulus of horizontal velocity, m/s
 8 - Richardson number, n/d
   -0.000000    9.52858  0.0000E+00  0.2079E-03  0.3892E-03  0.7491E-04  0.1369E+00  0.7007E-01
   -0.042497    9.73290  0.0000E+00  0.1089E-03  0.2636E-03  0.1137E-03  0.3414E-01  0.1297E-01
   -0.084995    9.77177  0.0000E+00  0.7756E-04  0.2201E-03  0.1167E-03  0.2226E-01 -0.1710E+01
   -0.127493    9.80143  0.0000E+00  0.5850E-04  0.1517E-03  0.1284E-03  0.1725E-01  0.4188E+01
   -0.169991    9.82475  0.0000E+00  0.4454E-04  0.7041E-04  0.1487E-03  0.1374E-01  0.3355E+03
   -0.212490    9.84436  0.0000E+00  0.3434E-04  0.2174E-04  0.1844E-03  0.1098E-01  0.4952E+02
   -0.254989    9.86188  0.0000E+00  0.2745E-04  0.6125E-05  0.2368E-03  0.8889E-02  0.1587E+02
   -0.297488    9.87683  0.0000E+00  0.2290E-04  0.1860E-05  0.3011E-03  0.7356E-02  0.4076E+02
   -0.339988    9.88946  0.0000E+00  0.2007E-04  0.8670E-06  0.3765E-03  0.6187E-02  0.4117E+03
   -0.382488    9.89909  0.0000E+00  0.1829E-04  0.4769E-06  0.4390E-03  0.5262E-02  0.5489E+02
   -0.424988    9.90720  0.0000E+00  0.1721E-04  0.2780E-06  0.4962E-03  0.4519E-02  0.3788E+02
   -0.467488    9.91356  0.0000E+00  0.1663E-04  0.1889E-06  0.5495E-03  0.3883E-02  0.4145E+02
   -0.509989    9.91923  0.0000E+00  0.1637E-04  0.1423E-06  0.6005E-03  0.3323E-02  0.4920E+01
   -0.552489    9.92402  0.0000E+00  0.1630E-04  0.1162E-06  0.6486E-03  0.2826E-02  0.2968E+01
   -0.594990    9.92854  0.0000E+00  0.1636E-04  0.9988E-07  0.7004E-03  0.2376E-02  0.2460E+01
   -0.637491    9.93260  0.0000E+00  0.1649E-04  0.8877E-07  0.7619E-03  0.1978E-02  0.2093E+01
   -0.679992    9.93652  0.0000E+00  0.1666E-04  0.8094E-07  0.8306E-03  0.1640E-02  0.1885E+01
   -0.722493    9.94023  0.0000E+00  0.1684E-04  0.7543E-07  0.9101E-03  0.1357E-02  0.1711E+01
   -0.764995    9.94379  0.0000E+00  0.1701E-04  0.7166E-07  0.9992E-03  0.1130E-02  0.1568E+01
   -0.807496    9.94723  0.0000E+00  0.1715E-04  0.6923E-07  0.1088E-02  0.9542E-03  0.1508E+01
   -0.849997    9.95054  0.0000E+00  0.1724E-04  0.6787E-07  0.1168E-02  0.8144E-03  0.1464E+01
   -0.892498    9.95373  0.0000E+00  0.1728E-04  0.6729E-07  0.1210E-02  0.7025E-03  0.1397E+01
   -0.935000    9.95692  0.0000E+00  0.1728E-04  0.6738E-07  0.1402E-02  0.6094E-03  0.1873E+01
   -0.977501    9.95971  0.0000E+00  0.1725E-04  0.6785E-07  0.1303E-02  0.5745E-03  0.4579E+01
   -1.020002    9.96280  0.0000E+00  0.1718E-04  0.6880E-07  0.1278E-02  0.5420E-03  0.1401E+01
   -1.062503    9.96595  0.0000E+00  0.1706E-04  0.7058E-07  0.1228E-02  0.4880E-03  0.1372E+01
   -1.105004    9.96924  0.0000E+00  0.1690E-04  0.7288E-07  0.1182E-02  0.4429E-03  0.1425E+01
   -1.147505    9.97268  0.0000E+00  0.1673E-04  0.7592E-07  0.1133E-02  0.4027E-03  0.1563E+01
   -1.190006    9.97619  0.0000E+00  0.1653E-04  0.7998E-07  0.1077E-02  0.3652E-03  0.1855E+01
   -1.232506    9.97980  0.0000E+00  0.1630E-04  0.8597E-07  0.1017E-02  0.3298E-03  0.2631E+01
   -1.275006    9.98391  0.0000E+00  0.1601E-04  0.9502E-07  0.9500E-03  0.2969E-03  0.2581E+02
   -1.317506    9.98898  0.0000E+00  0.1563E-04  0.1089E-06  0.8882E-03  0.2653E-03  0.1012E+02
   -1.360006    9.99562  0.0000E+00  0.1511E-04  0.1323E-06  0.8090E-03  0.2343E-03  0.3314E+03
   -1.402506   10.00516  0.0000E+00  0.1441E-04  0.1695E-06  0.7265E-03  0.2041E-03 -0.4215E+03
   -1.445005   10.01573  0.0000E+00  0.1355E-04  0.2445E-06  0.6303E-03  0.1754E-03  0.1173E+06
   -1.487504   10.03475  0.0000E+00  0.1275E-04  0.3441E-06  0.5597E-03  0.1374E-03  0.6816E+05
   -1.530003   10.04646  0.0000E+00  0.1185E-04  0.6239E-06  0.4469E-03  0.1036E-03 -0.1203E+06
   -1.572501   10.14043  0.0000E+00  0.1115E-04  0.1115E-05  0.4745E-03  0.6705E-04  0.5607E+11
   -1.614999   10.05120  0.0000E+00  0.9686E-05  0.3176E-05  0.2350E-03  0.5514E-04 -0.2187E+12
   -1.657497   10.48109  0.0000E+00  0.7640E-05  0.6385E-05  0.2722E-03  0.3413E-04 -0.3154E+05
   -1.699994   10.36041  0.0000E+00  0.0000E+00  0.0000E+00  0.0000E+00  0.6790E-04  0.0000E+00
