 1 - depth, m
 2 - temperature, C
 3 - salinity, kg/kg
 4 - turbulent kinetic energy, m**2/s**2
 5 - dissipation rate, m**2/s**3
 6 - kinematic heat conductance, m**2/s
 7 - modulus of horizontal velocity, m/s
 8 - Richardson number, n/d
   -0.000000    1.09184  0.0000E+00  0.1156E-02  0.9304E-02  0.1472E-03  0.5111E+00  0.5276E-02
   -0.042505    1.30940  0.0000E+00  0.6284E-03  0.5882E-02  0.2726E-03  0.1227E+00  0.9127E-02
   -0.085011    1.40117  0.0000E+00  0.4233E-03  0.1868E-02  0.3043E-03  0.7298E-01  0.3287E+00
   -0.127517    1.45410  0.0000E+00  0.3201E-03  0.8304E-03  0.2790E-03  0.5701E-01  0.2124E+00
   -0.170023    1.51650  0.0000E+00  0.2532E-03  0.3991E-03  0.2638E-03  0.4659E-01  0.6742E-01
   -0.212530    1.55327  0.0000E+00  0.2009E-03  0.2270E-03  0.2544E-03  0.3876E-01  0.1131E+00
   -0.255037    1.59346  0.0000E+00  0.1635E-03  0.1339E-03  0.2524E-03  0.3263E-01  0.2665E+02
   -0.297544    1.63254  0.0000E+00  0.1349E-03  0.7826E-04  0.2467E-03  0.2856E-01  0.5910E+02
   -0.340052    1.67030  0.0000E+00  0.1128E-03  0.4441E-04  0.2432E-03  0.2551E-01  0.1861E+03
   -0.382560    1.70631  0.0000E+00  0.9540E-04  0.2412E-04  0.2390E-03  0.2255E-01  0.7475E+02
   -0.425068    1.73996  0.0000E+00  0.8190E-04  0.1295E-04  0.2354E-03  0.2038E-01  0.1767E+02
   -0.467576    1.77307  0.0000E+00  0.7169E-04  0.7263E-05  0.2309E-03  0.1818E-01  0.5005E+01
   -0.510085    1.80491  0.0000E+00  0.6335E-04  0.4292E-05  0.2263E-03  0.1602E-01  0.6161E+01
   -0.552593    1.83815  0.0000E+00  0.5628E-04  0.2723E-05  0.2194E-03  0.1406E-01  0.1355E+02
   -0.595102    1.87411  0.0000E+00  0.5013E-04  0.1868E-05  0.2129E-03  0.1217E-01  0.1609E+03
   -0.637611    1.91538  0.0000E+00  0.4447E-04  0.1360E-05  0.2079E-03  0.1043E-01  0.7812E+04
   -0.680120    1.96704  0.0000E+00  0.3938E-04  0.1036E-05  0.2013E-03  0.8983E-02  0.7943E+06
   -0.722629    2.05701  0.0000E+00  0.3481E-04  0.8111E-06  0.1960E-03  0.7687E-02  0.3811E+08
   -0.765139    2.23226  0.0000E+00  0.3074E-04  0.6466E-06  0.2147E-03  0.6601E-02  0.1755E+10
   -0.807648    2.49883  0.0000E+00  0.2726E-04  0.5221E-06  0.2295E-03  0.5709E-02  0.2230E+13
   -0.850157    2.82541  0.0000E+00  0.2432E-04  0.4275E-06  0.2571E-03  0.4957E-02  0.1944E+14
   -0.892666    3.02996  0.0000E+00  0.2177E-04  0.3523E-06  0.2729E-03  0.4328E-02  0.5080E+14
   -0.935176    3.34955  0.0000E+00  0.1967E-04  0.2923E-06  0.2968E-03  0.3726E-02  0.2243E+15
   -0.977685    3.70989  0.0000E+00  0.1808E-04  0.2462E-06  0.3292E-03  0.3167E-02  0.2004E+15
   -1.020194    3.93659  0.0000E+00  0.1684E-04  0.2112E-06  0.3591E-03  0.2795E-02  0.3007E+14
   -1.062703    4.04836  0.0000E+00  0.1578E-04  0.1836E-06  0.3804E-03  0.2506E-02 -0.8250E+12
   -1.105212    4.11316  0.0000E+00  0.1487E-04  0.1614E-06  0.3939E-03  0.2265E-02 -0.1517E+13
   -1.147721    4.16442  0.0000E+00  0.1408E-04  0.1438E-06  0.4031E-03  0.2037E-02 -0.1189E+13
   -1.190229    4.20802  0.0000E+00  0.1340E-04  0.1302E-06  0.4119E-03  0.1811E-02 -0.1199E+13
   -1.232738    4.24824  0.0000E+00  0.1277E-04  0.1193E-06  0.4161E-03  0.1598E-02 -0.1365E+13
   -1.275246    4.28361  0.0000E+00  0.1218E-04  0.1109E-06  0.4180E-03  0.1413E-02 -0.1521E+13
   -1.317754    4.31653  0.0000E+00  0.1163E-04  0.1051E-06  0.4132E-03  0.1249E-02 -0.1695E+13
   -1.360262    4.34809  0.0000E+00  0.1107E-04  0.1023E-06  0.4040E-03  0.1104E-02 -0.1901E+13
   -1.402770    4.37534  0.0000E+00  0.1047E-04  0.1040E-06  0.3842E-03  0.9776E-03 -0.1906E+13
   -1.445277    4.39944  0.0000E+00  0.9877E-05  0.1126E-06  0.3609E-03  0.8581E-03 -0.1864E+13
   -1.487784    4.42092  0.0000E+00  0.9281E-05  0.1327E-06  0.3346E-03  0.7303E-03 -0.1956E+13
   -1.530291    4.44166  0.0000E+00  0.8622E-05  0.1795E-06  0.2900E-03  0.5813E-03 -0.3335E+13
   -1.572797    4.46798  0.0000E+00  0.7925E-05  0.2985E-06  0.2530E-03  0.4318E-03 -0.1049E+14
   -1.615303    4.51477  0.0000E+00  0.6764E-05  0.7779E-06  0.1550E-03  0.3478E-03 -0.2425E+14
   -1.657809    4.64837  0.0000E+00  0.4905E-05  0.1889E-05  0.6723E-04  0.2572E-03 -0.3449E+15
   -1.700314    5.01076  0.0000E+00  0.0000E+00  0.0000E+00  0.0000E+00  0.4141E-03  0.0000E+00
