 1 - depth, m
 2 - temperature, C
 3 - salinity, kg/kg
 4 - turbulent kinetic energy, m**2/s**2
 5 - dissipation rate, m**2/s**3
 6 - kinematic heat conductance, m**2/s
 7 - modulus of horizontal velocity, m/s
 8 - Richardson number, n/d
   -0.000000   16.49292  0.0000E+00  0.4456E-03  0.1715E-02  0.1194E-03  0.2344E+00  0.1120E+00
   -0.042497   16.75665  0.0000E+00  0.2182E-03  0.7093E-03  0.1755E-03  0.5290E-01  0.1287E+02
   -0.084995   16.90425  0.0000E+00  0.1497E-03  0.3157E-03  0.2173E-03  0.2930E-01  0.2333E+01
   -0.127493   16.94771  0.0000E+00  0.1145E-03  0.1822E-03  0.2488E-03  0.2272E-01  0.3724E+02
   -0.169991   16.97276  0.0000E+00  0.8850E-04  0.9664E-04  0.2893E-03  0.1844E-01  0.1407E+02
   -0.212490   16.99310  0.0000E+00  0.6986E-04  0.5111E-04  0.3613E-03  0.1482E-01  0.1375E+03
   -0.254989   17.00762  0.0000E+00  0.5676E-04  0.2651E-04  0.4502E-03  0.1219E-01  0.3537E+03
   -0.297488   17.01860  0.0000E+00  0.4703E-04  0.1249E-04  0.5105E-03  0.1044E-01  0.1024E+03
   -0.339988   17.02899  0.0000E+00  0.4053E-04  0.6539E-05  0.5778E-03  0.9058E-02  0.6000E+02
   -0.382488   17.03889  0.0000E+00  0.3606E-04  0.3490E-05  0.6516E-03  0.7788E-02  0.5165E+02
   -0.424988   17.04729  0.0000E+00  0.3305E-04  0.1939E-05  0.7102E-03  0.6793E-02  0.5184E+02
   -0.467488   17.05273  0.0000E+00  0.3110E-04  0.1167E-05  0.7699E-03  0.5895E-02  0.1599E+03
   -0.509989   17.05893  0.0000E+00  0.2977E-04  0.7185E-06  0.8366E-03  0.5088E-02  0.6509E+02
   -0.552489   17.06214  0.0000E+00  0.2887E-04  0.4933E-06  0.9028E-03  0.4418E-02  0.1585E+03
   -0.594990   17.06673  0.0000E+00  0.2823E-04  0.3662E-06  0.9638E-03  0.3797E-02  0.4695E+02
   -0.637491   17.06974  0.0000E+00  0.2776E-04  0.2925E-06  0.1044E-02  0.3256E-02  0.1234E+05
   -0.679992   17.07330  0.0000E+00  0.2737E-04  0.2459E-06  0.1101E-02  0.2796E-02  0.2121E+04
   -0.722493   17.07609  0.0000E+00  0.2699E-04  0.2124E-06  0.1181E-02  0.2381E-02  0.2177E+03
   -0.764995   17.07905  0.0000E+00  0.2663E-04  0.1876E-06  0.1275E-02  0.2039E-02  0.1742E+05
   -0.807496   17.08163  0.0000E+00  0.2632E-04  0.1706E-06  0.1343E-02  0.1782E-02  0.1437E+03
   -0.849997   17.08412  0.0000E+00  0.2603E-04  0.1580E-06  0.1388E-02  0.1587E-02  0.3797E+02
   -0.892498   17.08655  0.0000E+00  0.2568E-04  0.1476E-06  0.1343E-02  0.1424E-02  0.1004E+04
   -0.935000   17.08908  0.0000E+00  0.2534E-04  0.1402E-06  0.1439E-02  0.1246E-02  0.5093E+02
   -0.977501   17.09146  0.0000E+00  0.2505E-04  0.1361E-06  0.1445E-02  0.1135E-02  0.3524E+02
   -1.020002   17.09371  0.0000E+00  0.2471E-04  0.1335E-06  0.1308E-02  0.1049E-02 -0.2448E+01
   -1.062503   17.09623  0.0000E+00  0.2418E-04  0.1312E-06  0.1277E-02  0.9202E-03  0.1558E+02
   -1.105004   17.09878  0.0000E+00  0.2364E-04  0.1313E-06  0.1242E-02  0.8131E-03  0.2043E+02
   -1.147505   17.10141  0.0000E+00  0.2310E-04  0.1340E-06  0.1194E-02  0.7153E-03  0.1848E+03
   -1.190006   17.10413  0.0000E+00  0.2255E-04  0.1395E-06  0.1152E-02  0.6243E-03  0.2060E+02
   -1.232506   17.10689  0.0000E+00  0.2197E-04  0.1496E-06  0.1091E-02  0.5411E-03  0.1314E+02
   -1.275006   17.11015  0.0000E+00  0.2134E-04  0.1666E-06  0.1026E-02  0.4694E-03  0.2143E+03
   -1.317506   17.11390  0.0000E+00  0.2061E-04  0.1958E-06  0.9806E-03  0.4080E-03  0.4919E+03
   -1.360006   17.11914  0.0000E+00  0.1970E-04  0.2466E-06  0.9007E-03  0.3532E-03  0.1658E+04
   -1.402506   17.12562  0.0000E+00  0.1856E-04  0.3307E-06  0.7990E-03  0.3045E-03  0.3485E+04
   -1.445005   17.13490  0.0000E+00  0.1724E-04  0.4740E-06  0.7089E-03  0.2565E-03  0.3420E+06
   -1.487504   17.14620  0.0000E+00  0.1612E-04  0.6830E-06  0.6324E-03  0.2019E-03  0.3624E+05
   -1.530003   17.15932  0.0000E+00  0.1486E-04  0.1374E-05  0.5287E-03  0.1492E-03 -0.2270E+06
   -1.572501   17.21826  0.0000E+00  0.1395E-04  0.2332E-05  0.5511E-03  0.9637E-04  0.1447E+12
   -1.614999   17.16533  0.0000E+00  0.1217E-04  0.8478E-05  0.3219E-03  0.7930E-04 -0.7442E+10
   -1.657497   17.42891  0.0000E+00  0.9631E-05  0.1450E-04  0.3605E-03  0.4944E-04 -0.7323E+07
   -1.699994   17.34965  0.0000E+00  0.0000E+00  0.0000E+00  0.0000E+00  0.1142E-03  0.0000E+00
