 1 - depth, m
 2 - temperature, C
 3 - salinity, kg/kg
 4 - turbulent kinetic energy, m**2/s**2
 5 - dissipation rate, m**2/s**3
 6 - kinematic heat conductance, m**2/s
 7 - modulus of horizontal velocity, m/s
 8 - Richardson number, n/d
   -0.000000    8.34748  0.0000E+00  0.6702E-03  0.1573E-02  0.1319E-03  0.3127E+00  0.8996E-02
   -0.042497    8.59634  0.0000E+00  0.3371E-03  0.5255E-03  0.2473E-03  0.6860E-01  0.1387E-01
   -0.084995    8.64901  0.0000E+00  0.2263E-03  0.2394E-03  0.2114E-03  0.4131E-01 -0.4588E-01
   -0.127494    8.68616  0.0000E+00  0.1677E-03  0.1300E-03  0.1998E-03  0.3231E-01  0.5223E+00
   -0.169992    8.71139  0.0000E+00  0.1279E-03  0.6383E-04  0.1982E-03  0.2637E-01  0.2616E+02
   -0.212491    8.73459  0.0000E+00  0.9917E-04  0.3409E-04  0.2154E-03  0.2153E-01  0.7877E+01
   -0.254991    8.75564  0.0000E+00  0.7826E-04  0.1821E-04  0.2432E-03  0.1786E-01  0.2023E+02
   -0.297490    8.77289  0.0000E+00  0.6344E-04  0.1017E-04  0.2767E-03  0.1523E-01 -0.2153E+03
   -0.339990    8.78846  0.0000E+00  0.5266E-04  0.5775E-05  0.3063E-03  0.1323E-01  0.2880E+02
   -0.382490    8.80196  0.0000E+00  0.4473E-04  0.3266E-05  0.3524E-03  0.1142E-01  0.2942E+02
   -0.424991    8.81317  0.0000E+00  0.3896E-04  0.1896E-05  0.3866E-03  0.9984E-02  0.1132E+03
   -0.467491    8.82388  0.0000E+00  0.3473E-04  0.1197E-05  0.4422E-03  0.8638E-02  0.6127E+02
   -0.509992    8.83305  0.0000E+00  0.3149E-04  0.8087E-06  0.5033E-03  0.7475E-02  0.3232E+03
   -0.552493    8.84030  0.0000E+00  0.2904E-04  0.5799E-06  0.5614E-03  0.6495E-02  0.4152E+02
   -0.594994    8.84716  0.0000E+00  0.2712E-04  0.4401E-06  0.6199E-03  0.5612E-02  0.1261E+03
   -0.637495    8.85268  0.0000E+00  0.2556E-04  0.3472E-06  0.6827E-03  0.4841E-02  0.2652E+02
   -0.679996    8.85756  0.0000E+00  0.2427E-04  0.2822E-06  0.7339E-03  0.4179E-02  0.2309E+02
   -0.722498    8.86225  0.0000E+00  0.2317E-04  0.2339E-06  0.7927E-03  0.3599E-02  0.1486E+02
   -0.764999    8.86666  0.0000E+00  0.2224E-04  0.1974E-06  0.8498E-03  0.3107E-02  0.8344E+01
   -0.807501    8.87099  0.0000E+00  0.2141E-04  0.1686E-06  0.9012E-03  0.2699E-02  0.4094E+01
   -0.850002    8.87520  0.0000E+00  0.2068E-04  0.1460E-06  0.9466E-03  0.2351E-02  0.4697E+01
   -0.892504    8.87931  0.0000E+00  0.2002E-04  0.1282E-06  0.9868E-03  0.2054E-02  0.3744E+01
   -0.935005    8.88338  0.0000E+00  0.1943E-04  0.1142E-06  0.1016E-02  0.1800E-02  0.4017E+01
   -0.977507    8.88739  0.0000E+00  0.1887E-04  0.1032E-06  0.1039E-02  0.1576E-02  0.3243E+01
   -1.020008    8.89135  0.0000E+00  0.1835E-04  0.9483E-07  0.1052E-02  0.1383E-02  0.3236E+01
   -1.062510    8.89528  0.0000E+00  0.1786E-04  0.8860E-07  0.1053E-02  0.1210E-02  0.3122E+01
   -1.105011    8.89918  0.0000E+00  0.1738E-04  0.8427E-07  0.1043E-02  0.1057E-02  0.3074E+01
   -1.147512    8.90308  0.0000E+00  0.1693E-04  0.8181E-07  0.1021E-02  0.9175E-03  0.3105E+01
   -1.190013    8.90694  0.0000E+00  0.1651E-04  0.8117E-07  0.9891E-03  0.7866E-03  0.3307E+01
   -1.232514    8.91076  0.0000E+00  0.1612E-04  0.8254E-07  0.9501E-03  0.6667E-03  0.3654E+01
   -1.275014    8.91493  0.0000E+00  0.1573E-04  0.8622E-07  0.9016E-03  0.5659E-03  0.7209E+01
   -1.317515    8.91961  0.0000E+00  0.1534E-04  0.9335E-07  0.8508E-03  0.4833E-03 -0.3139E+02
   -1.360015    8.92527  0.0000E+00  0.1489E-04  0.1072E-06  0.7820E-03  0.4147E-03  0.3159E+03
   -1.402515    8.93329  0.0000E+00  0.1430E-04  0.1311E-06  0.7142E-03  0.3556E-03  0.2213E+03
   -1.445014    8.94268  0.0000E+00  0.1357E-04  0.1720E-06  0.6215E-03  0.3038E-03  0.1161E+04
   -1.487513    8.95788  0.0000E+00  0.1286E-04  0.2394E-06  0.5710E-03  0.2400E-03  0.2783E+03
   -1.530012    8.97010  0.0000E+00  0.1209E-04  0.4203E-06  0.4436E-03  0.1827E-03 -0.1136E+05
   -1.572511    9.03838  0.0000E+00  0.1142E-04  0.7451E-06  0.4748E-03  0.1205E-03  0.1784E+10
   -1.615009    8.98374  0.0000E+00  0.9928E-05  0.2064E-05  0.2252E-03  0.9890E-04 -0.2440E+11
   -1.657507    9.34511  0.0000E+00  0.7570E-05  0.4447E-05  0.2173E-03  0.6192E-04 -0.8196E+06
   -1.700005    9.27298  0.0000E+00  0.0000E+00  0.0000E+00  0.0000E+00  0.1137E-03  0.0000E+00
