 1 - depth, m
 2 - temperature, C
 3 - salinity, kg/kg
 4 - turbulent kinetic energy, m**2/s**2
 5 - dissipation rate, m**2/s**3
 6 - kinematic heat conductance, m**2/s
 7 - modulus of horizontal velocity, m/s
 8 - Richardson number, n/d
   -0.000000    3.40208  0.0000E+00  0.4491E-03  0.6138E-03  0.1003E-03  0.2450E+00  0.9363E-02
   -0.042497    3.68296  0.0000E+00  0.2298E-03  0.1968E-03  0.1995E-03  0.5667E-01  0.1298E-01
   -0.084995    3.74184  0.0000E+00  0.1581E-03  0.8622E-04  0.1622E-03  0.3611E-01  0.5256E-02
   -0.127493    3.78783  0.0000E+00  0.1172E-03  0.4125E-04  0.1444E-03  0.2856E-01  0.3888E-01
   -0.169991    3.82645  0.0000E+00  0.8758E-04  0.1971E-04  0.1337E-03  0.2317E-01  0.1550E-02
   -0.212490    3.86320  0.0000E+00  0.6531E-04  0.9213E-05  0.1280E-03  0.1871E-01  0.1186E+00
   -0.254989    3.90303  0.0000E+00  0.4937E-04  0.4467E-05  0.1259E-03  0.1509E-01  0.6789E-01
   -0.297489    3.94740  0.0000E+00  0.3841E-04  0.2388E-05  0.1260E-03  0.1238E-01  0.3921E+00
   -0.339988    3.99044  0.0000E+00  0.3075E-04  0.1402E-05  0.1285E-03  0.1036E-01  0.2154E+02
   -0.382488    4.03035  0.0000E+00  0.2514E-04  0.8772E-06  0.1355E-03  0.8728E-02  0.4349E+01
   -0.424988    4.06441  0.0000E+00  0.2103E-04  0.5803E-06  0.1423E-03  0.7449E-02  0.4769E+01
   -0.467489    4.09555  0.0000E+00  0.1790E-04  0.4008E-06  0.1520E-03  0.6290E-02  0.1598E+02
   -0.509989    4.12463  0.0000E+00  0.1543E-04  0.2856E-06  0.1649E-03  0.5267E-02  0.3494E+02
   -0.552490    4.15178  0.0000E+00  0.1344E-04  0.2086E-06  0.1806E-03  0.4375E-02  0.3528E+01
   -0.594991    4.17712  0.0000E+00  0.1179E-04  0.1554E-06  0.2023E-03  0.3586E-02  0.4258E+02
   -0.637492    4.20062  0.0000E+00  0.1039E-04  0.1172E-06  0.2295E-03  0.2911E-02  0.1523E+02
   -0.679993    4.22269  0.0000E+00  0.9208E-05  0.8944E-07  0.2596E-03  0.2364E-02  0.6097E+02
   -0.722494    4.24355  0.0000E+00  0.8224E-05  0.6902E-07  0.2909E-03  0.1918E-02  0.2800E+02
   -0.764995    4.26359  0.0000E+00  0.7408E-05  0.5384E-07  0.3203E-03  0.1567E-02  0.3652E+02
   -0.807496    4.28308  0.0000E+00  0.6734E-05  0.4245E-07  0.3471E-03  0.1297E-02  0.5045E+02
   -0.849998    4.30185  0.0000E+00  0.6193E-05  0.3403E-07  0.3759E-03  0.1081E-02  0.1405E+03
   -0.892499    4.31958  0.0000E+00  0.5756E-05  0.2772E-07  0.4019E-03  0.9066E-03  0.5109E+02
   -0.935000    4.33631  0.0000E+00  0.5410E-05  0.2305E-07  0.4302E-03  0.7658E-03  0.4500E+02
   -0.977501    4.35162  0.0000E+00  0.5139E-05  0.1959E-07  0.4583E-03  0.6486E-03  0.7320E+02
   -1.020003    4.36565  0.0000E+00  0.4928E-05  0.1704E-07  0.4873E-03  0.5528E-03  0.1338E+03
   -1.062504    4.37839  0.0000E+00  0.4766E-05  0.1518E-07  0.5100E-03  0.4719E-03  0.1024E+03
   -1.105005    4.39013  0.0000E+00  0.4640E-05  0.1382E-07  0.5287E-03  0.4034E-03  0.6150E+02
   -1.147505    4.40100  0.0000E+00  0.4544E-05  0.1285E-07  0.5405E-03  0.3430E-03  0.8959E+02
   -1.190006    4.41104  0.0000E+00  0.4474E-05  0.1221E-07  0.5468E-03  0.2881E-03  0.2279E+03
   -1.232507    4.42045  0.0000E+00  0.4423E-05  0.1181E-07  0.5480E-03  0.2391E-03  0.1062E+03
   -1.275007    4.42996  0.0000E+00  0.4388E-05  0.1161E-07  0.5427E-03  0.1986E-03  0.1645E+03
   -1.317507    4.43987  0.0000E+00  0.4364E-05  0.1161E-07  0.5312E-03  0.1656E-03  0.2699E+03
   -1.360007    4.45049  0.0000E+00  0.4349E-05  0.1181E-07  0.5132E-03  0.1386E-03  0.4588E+03
   -1.402507    4.46224  0.0000E+00  0.4336E-05  0.1225E-07  0.4897E-03  0.1167E-03  0.8852E+03
   -1.445006    4.47541  0.0000E+00  0.4327E-05  0.1296E-07  0.4615E-03  0.9789E-04  0.1648E+04
   -1.487505    4.48887  0.0000E+00  0.4322E-05  0.1405E-07  0.4280E-03  0.8025E-04  0.2707E+04
   -1.530004    4.50195  0.0000E+00  0.4323E-05  0.1610E-07  0.3674E-03  0.6349E-04  0.5154E+04
   -1.572502    4.51777  0.0000E+00  0.4322E-05  0.2104E-07  0.3123E-03  0.4784E-04 -0.7099E+04
   -1.615000    4.54464  0.0000E+00  0.4159E-05  0.4052E-07  0.1665E-03  0.3740E-04  0.3987E+06
   -1.657498    4.64671  0.0000E+00  0.3042E-05  0.1272E-06  0.3838E-04  0.2486E-04 -0.9397E+08
   -1.699995    4.98994  0.0000E+00  0.0000E+00  0.0000E+00  0.0000E+00  0.2728E-04  0.0000E+00
