 1 - depth, m
 2 - temperature, C
 3 - salinity, kg/kg
 4 - turbulent kinetic energy, m**2/s**2
 5 - dissipation rate, m**2/s**3
 6 - kinematic heat conductance, m**2/s
 7 - modulus of horizontal velocity, m/s
 8 - Richardson number, n/d
   -0.000000    0.05476  0.0000E+00  0.2490E-03  0.1715E-02  0.9704E-04  0.1637E+00  0.2988E-01
   -0.042527    0.15885  0.0000E+00  0.1380E-03  0.1175E-02  0.1270E-03  0.4455E-01  0.6182E-01
   -0.085054    0.22100  0.0000E+00  0.9785E-04  0.9330E-03  0.1050E-03  0.3086E-01  0.6183E+00
   -0.127581    0.28393  0.0000E+00  0.7172E-04  0.7343E-03  0.8413E-04  0.2425E-01  0.3529E+00
   -0.170109    0.34990  0.0000E+00  0.5128E-04  0.5388E-03  0.6661E-04  0.1925E-01  0.4929E+00
   -0.212638    0.42747  0.0000E+00  0.3471E-04  0.3246E-03  0.4988E-04  0.1504E-01  0.8100E+00
   -0.255166    0.53577  0.0000E+00  0.2095E-04  0.1132E-03  0.3337E-04  0.1151E-01  0.3357E+02
   -0.297695    0.72796  0.0000E+00  0.1106E-04  0.1184E-04  0.1879E-04  0.8746E-02  0.1460E+03
   -0.340224    1.21733  0.0000E+00  0.6184E-05  0.5973E-06  0.1003E-04  0.6287E-02  0.1782E+03
   -0.382754    2.29428  0.0000E+00  0.3843E-05  0.1356E-06  0.5825E-04  0.3750E-02  0.2078E+04
   -0.425283    3.20134  0.0000E+00  0.2973E-05  0.6477E-07  0.1260E-03  0.2188E-02  0.3096E+03
   -0.467813    3.66072  0.0000E+00  0.2605E-05  0.3288E-07  0.2119E-03  0.1286E-02  0.3801E+03
   -0.510343    3.91319  0.0000E+00  0.2515E-05  0.1860E-07  0.2732E-03  0.7399E-03  0.2803E+03
   -0.552873    4.08202  0.0000E+00  0.2510E-05  0.1183E-07  0.3270E-03  0.4470E-03  0.8719E+03
   -0.595404    4.15238  0.0000E+00  0.2541E-05  0.8567E-08  0.3721E-03  0.3065E-03  0.1302E+03
   -0.637934    4.19397  0.0000E+00  0.2595E-05  0.6865E-08  0.4103E-03  0.2180E-03  0.1951E+03
   -0.680465    4.22579  0.0000E+00  0.2663E-05  0.5958E-08  0.4461E-03  0.1627E-03  0.1695E+03
   -0.722996    4.25372  0.0000E+00  0.2742E-05  0.5481E-08  0.4773E-03  0.1235E-03  0.6965E+03
   -0.765526    4.28138  0.0000E+00  0.2836E-05  0.5271E-08  0.5058E-03  0.9352E-04  0.7891E+03
   -0.808057    4.30603  0.0000E+00  0.2937E-05  0.5213E-08  0.5344E-03  0.7555E-04  0.1259E+06
   -0.850588    4.32846  0.0000E+00  0.3038E-05  0.5243E-08  0.5602E-03  0.6181E-04  0.3281E+04
   -0.893119    4.34807  0.0000E+00  0.3132E-05  0.5304E-08  0.5839E-03  0.5293E-04  0.1964E+04
   -0.935649    4.36193  0.0000E+00  0.3217E-05  0.5387E-08  0.6039E-03  0.4649E-04  0.9530E+05
   -0.978180    4.37130  0.0000E+00  0.3297E-05  0.5489E-08  0.6190E-03  0.4138E-04  0.5518E+04
   -1.020711    4.38053  0.0000E+00  0.3372E-05  0.5607E-08  0.6310E-03  0.3693E-04  0.1471E+04
   -1.063241    4.38950  0.0000E+00  0.3441E-05  0.5743E-08  0.6396E-03  0.3299E-04  0.1255E+04
   -1.105772    4.39832  0.0000E+00  0.3504E-05  0.5897E-08  0.6448E-03  0.2944E-04  0.1394E+04
   -1.148302    4.40689  0.0000E+00  0.3561E-05  0.6070E-08  0.6465E-03  0.2618E-04  0.1331E+04
   -1.190833    4.41514  0.0000E+00  0.3613E-05  0.6266E-08  0.6439E-03  0.2309E-04  0.1462E+04
   -1.233363    4.42310  0.0000E+00  0.3662E-05  0.6503E-08  0.6363E-03  0.2019E-04  0.1594E+04
   -1.275892    4.43134  0.0000E+00  0.3712E-05  0.6797E-08  0.6236E-03  0.1757E-04  0.2235E+04
   -1.318422    4.44002  0.0000E+00  0.3760E-05  0.7169E-08  0.6054E-03  0.1522E-04  0.3041E+04
   -1.360951    4.44935  0.0000E+00  0.3808E-05  0.7650E-08  0.5799E-03  0.1311E-04  0.4604E+04
   -1.403481    4.45971  0.0000E+00  0.3854E-05  0.8297E-08  0.5479E-03  0.1126E-04  0.7198E+04
   -1.446010    4.47147  0.0000E+00  0.3892E-05  0.9097E-08  0.5118E-03  0.9556E-05  0.1166E+05
   -1.488538    4.48357  0.0000E+00  0.3925E-05  0.1013E-07  0.4696E-03  0.7919E-05  0.1585E+05
   -1.531066    4.49528  0.0000E+00  0.3961E-05  0.1182E-07  0.4025E-03  0.6330E-05  0.2711E+05
   -1.573594    4.50863  0.0000E+00  0.4001E-05  0.1563E-07  0.3283E-03  0.4909E-05  0.7742E+05
   -1.616122    4.53187  0.0000E+00  0.3930E-05  0.3003E-07  0.1784E-03  0.3782E-05  0.3396E+11
   -1.658649    4.61551  0.0000E+00  0.2935E-05  0.1027E-06  0.3375E-04  0.2677E-05 -0.4037E+09
   -1.701176    4.98584  0.0000E+00  0.0000E+00  0.0000E+00  0.0000E+00  0.2732E-05  0.0000E+00
