 1 - depth, m
 2 - temperature, C
 3 - salinity, kg/kg
 4 - turbulent kinetic energy, m**2/s**2
 5 - dissipation rate, m**2/s**3
 6 - kinematic heat conductance, m**2/s
 7 - modulus of horizontal velocity, m/s
 8 - Richardson number, n/d
   -0.000000    7.43063  0.0000E+00  0.3534E-02  0.5801E-01  0.2712E-03  0.9763E+00  0.2082E-02
   -0.042497    7.83899  0.0000E+00  0.1687E-02  0.3297E-01  0.4172E-03  0.2033E+00 -0.1416E+01
   -0.084995    8.02512  0.0000E+00  0.1088E-02  0.1530E-01  0.6020E-03  0.1077E+00 -0.8391E-01
   -0.127493    8.09663  0.0000E+00  0.8135E-03  0.1036E-01  0.5543E-03  0.8304E-01 -0.7338E-01
   -0.169991    8.13696  0.0000E+00  0.6262E-03  0.6825E-02  0.5065E-03  0.6792E-01  0.3809E-01
   -0.212490    8.16427  0.0000E+00  0.4973E-03  0.4945E-02  0.4639E-03  0.5549E-01  0.2379E+02
   -0.254989    8.18671  0.0000E+00  0.3963E-03  0.3691E-02  0.4489E-03  0.4617E-01  0.6058E+01
   -0.297488    8.20568  0.0000E+00  0.3227E-03  0.2726E-02  0.4520E-03  0.3999E-01 -0.3752E+01
   -0.339987    8.21924  0.0000E+00  0.2673E-03  0.2011E-02  0.4570E-03  0.3620E-01  0.1927E+01
   -0.382487    8.23195  0.0000E+00  0.2241E-03  0.1466E-02  0.4665E-03  0.3208E-01  0.3691E+02
   -0.424987    8.24237  0.0000E+00  0.1914E-03  0.1036E-02  0.4754E-03  0.2975E-01  0.2605E+02
   -0.467488    8.25307  0.0000E+00  0.1656E-03  0.7104E-03  0.4894E-03  0.2649E-01  0.3044E+03
   -0.509988    8.26498  0.0000E+00  0.1448E-03  0.4674E-03  0.5219E-03  0.2329E-01  0.5223E+02
   -0.552489    8.27385  0.0000E+00  0.1279E-03  0.2957E-03  0.5451E-03  0.2053E-01  0.3394E+02
   -0.594989    8.28546  0.0000E+00  0.1141E-03  0.1846E-03  0.5789E-03  0.1777E-01  0.3673E+02
   -0.637490    8.29724  0.0000E+00  0.1028E-03  0.1128E-03  0.6581E-03  0.1540E-01  0.8532E+02
   -0.679991    8.30414  0.0000E+00  0.9342E-04  0.6963E-04  0.7111E-03  0.1379E-01  0.2478E+02
   -0.722492    8.31159  0.0000E+00  0.8554E-04  0.4309E-04  0.7752E-03  0.1239E-01 -0.6683E+02
   -0.764994    8.31773  0.0000E+00  0.7882E-04  0.2631E-04  0.8531E-03  0.1128E-01 -0.1029E+04
   -0.807495    8.32453  0.0000E+00  0.7300E-04  0.1645E-04  0.9191E-03  0.1041E-01  0.3206E+03
   -0.849996    8.32942  0.0000E+00  0.6788E-04  0.9976E-05  0.9628E-03  0.9625E-02  0.9974E+02
   -0.892497    8.33607  0.0000E+00  0.6331E-04  0.6257E-05  0.1011E-02  0.8886E-02  0.1831E+02
   -0.934998    8.34118  0.0000E+00  0.5933E-04  0.4018E-05  0.1054E-02  0.8245E-02  0.4919E+02
   -0.977499    8.34692  0.0000E+00  0.5579E-04  0.2503E-05  0.1081E-02  0.7618E-02 -0.8775E+02
   -1.020001    8.35193  0.0000E+00  0.5258E-04  0.1632E-05  0.1099E-02  0.7040E-02  0.5132E+02
   -1.062502    8.35743  0.0000E+00  0.4969E-04  0.1133E-05  0.1118E-02  0.6465E-02 -0.3446E+02
   -1.105002    8.36191  0.0000E+00  0.4706E-04  0.8495E-06  0.1113E-02  0.5939E-02  0.1668E+03
   -1.147503    8.36759  0.0000E+00  0.4471E-04  0.6913E-06  0.1095E-02  0.5400E-02  0.2566E+02
   -1.190004    8.37181  0.0000E+00  0.4256E-04  0.6002E-06  0.1093E-02  0.4855E-02  0.2335E+02
   -1.232504    8.37677  0.0000E+00  0.4054E-04  0.5471E-06  0.1089E-02  0.4332E-02  0.5046E+02
   -1.275005    8.38110  0.0000E+00  0.3853E-04  0.5203E-06  0.1025E-02  0.3877E-02  0.1217E+03
   -1.317505    8.38656  0.0000E+00  0.3641E-04  0.5199E-06  0.9615E-03  0.3442E-02  0.1861E+02
   -1.360004    8.39227  0.0000E+00  0.3417E-04  0.5572E-06  0.8946E-03  0.3035E-02  0.1850E+03
   -1.402504    8.39936  0.0000E+00  0.3173E-04  0.6684E-06  0.8241E-03  0.2680E-02  0.3797E+02
   -1.445003    8.40852  0.0000E+00  0.2933E-04  0.8879E-06  0.7256E-03  0.2354E-02  0.2068E+05
   -1.487502    8.42050  0.0000E+00  0.2697E-04  0.1263E-05  0.6560E-03  0.1987E-02  0.4723E+04
   -1.530001    8.43521  0.0000E+00  0.2459E-04  0.2057E-05  0.5266E-03  0.1506E-02 -0.1144E+06
   -1.572499    8.47518  0.0000E+00  0.2233E-04  0.3973E-05  0.5235E-03  0.1098E-02  0.1943E+10
   -1.614997    8.46918  0.0000E+00  0.1871E-04  0.9426E-05  0.2787E-03  0.9077E-03 -0.6039E+10
   -1.657495    8.74091  0.0000E+00  0.1357E-04  0.1718E-04  0.2373E-03  0.6611E-03 -0.5105E+06
   -1.699992    8.74208  0.0000E+00  0.0000E+00  0.0000E+00  0.0000E+00  0.1169E-02  0.0000E+00
