 1 - depth, m
 2 - temperature, C
 3 - salinity, kg/kg
 4 - turbulent kinetic energy, m**2/s**2
 5 - dissipation rate, m**2/s**3
 6 - kinematic heat conductance, m**2/s
 7 - modulus of horizontal velocity, m/s
 8 - Richardson number, n/d
   -0.000000   13.58127  0.0000E+00  0.5806E-03  0.1241E-02  0.9986E-04  0.2859E+00  0.3822E-01
   -0.042497   13.80011  0.0000E+00  0.2848E-03  0.3763E-03  0.2132E-03  0.6343E-01 -0.2308E+00
   -0.084995   13.87345  0.0000E+00  0.1945E-03  0.1622E-03  0.2079E-03  0.3754E-01 -0.6913E-01
   -0.127493   13.91295  0.0000E+00  0.1454E-03  0.8857E-04  0.2089E-03  0.2919E-01  0.1335E+01
   -0.169991   13.93906  0.0000E+00  0.1117E-03  0.4866E-04  0.2223E-03  0.2358E-01  0.4558E+02
   -0.212490   13.95771  0.0000E+00  0.8695E-04  0.2750E-04  0.2524E-03  0.1922E-01  0.1171E+03
   -0.254989   13.97280  0.0000E+00  0.6835E-04  0.1515E-04  0.2956E-03  0.1595E-01  0.1633E+02
   -0.297489   13.98561  0.0000E+00  0.5485E-04  0.8095E-05  0.3363E-03  0.1362E-01  0.1812E+05
   -0.339988   13.99759  0.0000E+00  0.4538E-04  0.4325E-05  0.3846E-03  0.1172E-01  0.2635E+02
   -0.382488   14.00777  0.0000E+00  0.3890E-04  0.2490E-05  0.4474E-03  0.9991E-02  0.5822E+02
   -0.424988   14.01636  0.0000E+00  0.3447E-04  0.1485E-05  0.4863E-03  0.8675E-02  0.1315E+03
   -0.467489   14.02340  0.0000E+00  0.3132E-04  0.9332E-06  0.5368E-03  0.7467E-02  0.6290E+02
   -0.509989   14.02946  0.0000E+00  0.2914E-04  0.6319E-06  0.5975E-03  0.6434E-02  0.4197E+02
   -0.552490   14.03453  0.0000E+00  0.2762E-04  0.4550E-06  0.6476E-03  0.5557E-02  0.9936E+02
   -0.594991   14.03904  0.0000E+00  0.2654E-04  0.3488E-06  0.6986E-03  0.4775E-02  0.2285E+02
   -0.637492   14.04303  0.0000E+00  0.2573E-04  0.2827E-06  0.7611E-03  0.4075E-02  0.5734E+02
   -0.679993   14.04663  0.0000E+00  0.2507E-04  0.2372E-06  0.8220E-03  0.3480E-02  0.1721E+02
   -0.722494   14.04986  0.0000E+00  0.2452E-04  0.2033E-06  0.8755E-03  0.2963E-02  0.4222E+01
   -0.764995   14.05306  0.0000E+00  0.2404E-04  0.1771E-06  0.9405E-03  0.2524E-02  0.2741E+01
   -0.807496   14.05613  0.0000E+00  0.2360E-04  0.1565E-06  0.9986E-03  0.2167E-02  0.4697E+02
   -0.849998   14.05916  0.0000E+00  0.2319E-04  0.1406E-06  0.1053E-02  0.1867E-02  0.2815E+01
   -0.892499   14.06209  0.0000E+00  0.2279E-04  0.1284E-06  0.1096E-02  0.1615E-02  0.2953E+01
   -0.935000   14.06498  0.0000E+00  0.2238E-04  0.1192E-06  0.1133E-02  0.1402E-02  0.3440E+01
   -0.977501   14.06781  0.0000E+00  0.2195E-04  0.1123E-06  0.1140E-02  0.1219E-02  0.3870E+01
   -1.020003   14.07067  0.0000E+00  0.2158E-04  0.1082E-06  0.1265E-02  0.1058E-02  0.5416E+01
   -1.062504   14.07328  0.0000E+00  0.2125E-04  0.1064E-06  0.1252E-02  0.9474E-03  0.1827E+02
   -1.105005   14.07589  0.0000E+00  0.2090E-04  0.1061E-06  0.1162E-02  0.8622E-03  0.1394E+02
   -1.147505   14.07870  0.0000E+00  0.2048E-04  0.1073E-06  0.1127E-02  0.7597E-03  0.5140E+01
   -1.190006   14.08150  0.0000E+00  0.2005E-04  0.1108E-06  0.1085E-02  0.6610E-03  0.5519E+01
   -1.232507   14.08441  0.0000E+00  0.1963E-04  0.1172E-06  0.1041E-02  0.5715E-03  0.1872E+03
   -1.275007   14.08749  0.0000E+00  0.1918E-04  0.1285E-06  0.9942E-03  0.4967E-03  0.1543E+02
   -1.317507   14.09147  0.0000E+00  0.1867E-04  0.1464E-06  0.9314E-03  0.4327E-03  0.6272E+03
   -1.360007   14.09596  0.0000E+00  0.1804E-04  0.1764E-06  0.8463E-03  0.3778E-03  0.8108E+03
   -1.402507   14.10277  0.0000E+00  0.1722E-04  0.2367E-06  0.7704E-03  0.3273E-03  0.2053E+05
   -1.445006   14.11110  0.0000E+00  0.1625E-04  0.3232E-06  0.6872E-03  0.2801E-03  0.3798E+05
   -1.487505   14.12258  0.0000E+00  0.1537E-04  0.4600E-06  0.6323E-03  0.2240E-03  0.3398E+05
   -1.530004   14.13369  0.0000E+00  0.1440E-04  0.8596E-06  0.4956E-03  0.1703E-03  0.2454E+04
   -1.572502   14.19167  0.0000E+00  0.1361E-04  0.1468E-05  0.5382E-03  0.1148E-03  0.1357E+12
   -1.615000   14.13900  0.0000E+00  0.1183E-04  0.4331E-05  0.2822E-03  0.9409E-04 -0.5101E+10
   -1.657498   14.42608  0.0000E+00  0.9240E-05  0.8508E-05  0.2852E-03  0.5956E-04 -0.3050E+06
   -1.699995   14.37267  0.0000E+00  0.0000E+00  0.0000E+00  0.0000E+00  0.1172E-03  0.0000E+00
