 1 - depth, m
 2 - temperature, C
 3 - salinity, kg/kg
 4 - turbulent kinetic energy, m**2/s**2
 5 - dissipation rate, m**2/s**3
 6 - kinematic heat conductance, m**2/s
 7 - modulus of horizontal velocity, m/s
 8 - Richardson number, n/d
   -0.000000   -0.00115  0.0000E+00  0.7034E-03  0.2228E-02  0.1356E-03  0.4018E+00  0.5056E-01
   -0.042496    0.08104  0.0000E+00  0.3924E-03  0.1140E-02  0.2146E-03  0.9996E-01  0.1214E+00
   -0.084993    0.13090  0.0000E+00  0.2678E-03  0.4778E-03  0.2156E-03  0.6064E-01  0.5879E+00
   -0.127490    0.16638  0.0000E+00  0.2025E-03  0.2370E-03  0.1950E-03  0.4848E-01  0.1063E+00
   -0.169987    0.19667  0.0000E+00  0.1572E-03  0.1081E-03  0.1841E-03  0.4010E-01  0.6597E-01
   -0.212485    0.22726  0.0000E+00  0.1221E-03  0.5069E-04  0.1746E-03  0.3309E-01  0.2984E+00
   -0.254983    0.26678  0.0000E+00  0.9591E-04  0.2067E-04  0.1679E-03  0.2746E-01  0.1048E+02
   -0.297482    0.31135  0.0000E+00  0.7696E-04  0.9151E-05  0.1601E-03  0.2369E-01  0.4707E+02
   -0.339980    0.35414  0.0000E+00  0.6297E-04  0.4571E-05  0.1512E-03  0.2093E-01  0.9004E+02
   -0.382479    0.39740  0.0000E+00  0.5227E-04  0.2681E-05  0.1428E-03  0.1847E-01  0.8359E+02
   -0.424978    0.44074  0.0000E+00  0.4407E-04  0.1670E-05  0.1320E-03  0.1661E-01  0.1695E+05
   -0.467478    0.48718  0.0000E+00  0.3750E-04  0.1164E-05  0.1202E-03  0.1460E-01  0.5254E+02
   -0.509977    0.53705  0.0000E+00  0.3190E-04  0.8620E-06  0.1076E-03  0.1263E-01  0.9367E+02
   -0.552477    0.59246  0.0000E+00  0.2700E-04  0.6533E-06  0.9335E-04  0.1076E-01  0.2127E+03
   -0.594977    0.65772  0.0000E+00  0.2245E-04  0.4948E-06  0.7864E-04  0.8904E-02  0.3098E+04
   -0.637477    0.74669  0.0000E+00  0.1814E-04  0.3696E-06  0.6402E-04  0.7149E-02  0.2267E+06
   -0.679977    0.91091  0.0000E+00  0.1432E-04  0.2716E-06  0.4934E-04  0.5640E-02  0.3133E+07
   -0.722477    1.25528  0.0000E+00  0.1110E-04  0.1933E-06  0.5128E-04  0.4254E-02  0.9475E+08
   -0.764977    1.70557  0.0000E+00  0.8488E-05  0.1339E-06  0.9052E-04  0.3184E-02  0.4191E+10
   -0.807477    2.15848  0.0000E+00  0.6446E-05  0.9068E-07  0.1376E-03  0.2416E-02  0.6373E+11
   -0.849978    2.60430  0.0000E+00  0.4847E-05  0.5888E-07  0.1873E-03  0.1774E-02  0.4302E+11
   -0.892478    3.12838  0.0000E+00  0.3790E-05  0.3558E-07  0.2324E-03  0.1150E-02  0.5619E+11
   -0.934978    3.67773  0.0000E+00  0.3259E-05  0.2218E-07  0.2898E-03  0.7099E-03  0.1410E+12
   -0.977479    3.98094  0.0000E+00  0.2980E-05  0.1494E-07  0.3364E-03  0.4472E-03  0.8191E+11
   -1.019979    4.16810  0.0000E+00  0.2838E-05  0.1059E-07  0.3698E-03  0.2819E-03  0.1126E+12
   -1.062479    4.26440  0.0000E+00  0.2807E-05  0.8565E-08  0.3916E-03  0.1847E-03  0.1248E+12
   -1.104979    4.30807  0.0000E+00  0.2819E-05  0.7595E-08  0.4081E-03  0.1332E-03  0.4641E+11
   -1.147479    4.33234  0.0000E+00  0.2850E-05  0.7125E-08  0.4179E-03  0.9902E-04  0.2524E+11
   -1.189978    4.34981  0.0000E+00  0.2889E-05  0.6934E-08  0.4233E-03  0.7432E-04  0.2759E+11
   -1.232478    4.36458  0.0000E+00  0.2936E-05  0.6915E-08  0.4247E-03  0.5643E-04  0.3579E+11
   -1.274977    4.37870  0.0000E+00  0.2988E-05  0.7028E-08  0.4223E-03  0.4363E-04  0.3474E+11
   -1.317476    4.39287  0.0000E+00  0.3044E-05  0.7266E-08  0.4154E-03  0.3420E-04  0.4136E+11
   -1.359975    4.40770  0.0000E+00  0.3103E-05  0.7646E-08  0.4032E-03  0.2726E-04  0.5361E+11
   -1.402474    4.42383  0.0000E+00  0.3164E-05  0.8209E-08  0.3871E-03  0.2187E-04  0.8691E+11
   -1.444972    4.44151  0.0000E+00  0.3218E-05  0.8949E-08  0.3664E-03  0.1748E-04  0.1092E+12
   -1.487470    4.45930  0.0000E+00  0.3269E-05  0.9962E-08  0.3415E-03  0.1352E-04  0.1196E+12
   -1.529968    4.47695  0.0000E+00  0.3330E-05  0.1167E-07  0.2984E-03  0.9935E-05  0.2692E+12
   -1.572465    4.49839  0.0000E+00  0.3412E-05  0.1554E-07  0.2428E-03  0.6973E-05  0.1294E+13
   -1.614963    4.54072  0.0000E+00  0.3410E-05  0.2919E-07  0.1413E-03  0.5000E-05  0.1677E+13
   -1.657459    4.64732  0.0000E+00  0.2646E-05  0.9228E-07  0.2909E-04  0.3293E-05 -0.1087E+15
   -1.699955    5.08082  0.0000E+00  0.0000E+00  0.0000E+00  0.0000E+00  0.3429E-05  0.0000E+00
