 1 - depth, m
 2 - temperature, C
 3 - salinity, kg/kg
 4 - turbulent kinetic energy, m**2/s**2
 5 - dissipation rate, m**2/s**3
 6 - kinematic heat conductance, m**2/s
 7 - modulus of horizontal velocity, m/s
 8 - Richardson number, n/d
   -0.000000    5.65753  0.0000E+00  0.4594E-02  0.1469E+00  0.2815E-03  0.1273E+01 -0.8927E-02
   -0.042497    6.08558  0.0000E+00  0.2195E-02  0.1039E+00  0.4683E-03  0.2584E+00 -0.4125E-01
   -0.084995    6.44858  0.0000E+00  0.1395E-02  0.4083E-01  0.7081E-03  0.1338E+00  0.6958E-01
   -0.127493    6.56287  0.0000E+00  0.1050E-02  0.2599E-01  0.6287E-03  0.1019E+00 -0.5959E+00
   -0.169991    6.60977  0.0000E+00  0.8201E-03  0.1760E-01  0.6035E-03  0.8094E-01 -0.2678E+02
   -0.212489    6.64975  0.0000E+00  0.6550E-03  0.1089E-01  0.5606E-03  0.6472E-01  0.4442E+01
   -0.254988    6.68704  0.0000E+00  0.5348E-03  0.8079E-02  0.5579E-03  0.5353E-01  0.6033E+01
   -0.297488    6.70998  0.0000E+00  0.4417E-03  0.5441E-02  0.5502E-03  0.4664E-01  0.4837E+01
   -0.339987    6.72711  0.0000E+00  0.3694E-03  0.3420E-02  0.5410E-03  0.4280E-01  0.2905E+03
   -0.382487    6.74158  0.0000E+00  0.3116E-03  0.2326E-02  0.5382E-03  0.3805E-01 -0.6471E+01
   -0.424987    6.75520  0.0000E+00  0.2680E-03  0.1700E-02  0.5310E-03  0.3562E-01  0.1168E+02
   -0.467487    6.77090  0.0000E+00  0.2332E-03  0.1240E-02  0.5405E-03  0.3170E-01  0.8079E+02
   -0.509987    6.78739  0.0000E+00  0.2055E-03  0.9049E-03  0.5674E-03  0.2795E-01  0.1060E+03
   -0.552488    6.79953  0.0000E+00  0.1830E-03  0.6609E-03  0.5880E-03  0.2487E-01  0.2368E+04
   -0.594989    6.81807  0.0000E+00  0.1637E-03  0.4885E-03  0.6215E-03  0.2165E-01  0.2035E+03
   -0.637490    6.83262  0.0000E+00  0.1476E-03  0.3644E-03  0.6572E-03  0.1872E-01  0.1370E+02
   -0.679990    6.84427  0.0000E+00  0.1339E-03  0.2709E-03  0.6920E-03  0.1682E-01  0.4418E+03
   -0.722492    6.85370  0.0000E+00  0.1220E-03  0.1999E-03  0.7443E-03  0.1523E-01  0.1001E+03
   -0.764993    6.86115  0.0000E+00  0.1114E-03  0.1420E-03  0.8148E-03  0.1397E-01  0.2892E+03
   -0.807494    6.87123  0.0000E+00  0.1020E-03  0.9642E-04  0.8766E-03  0.1306E-01  0.6534E+02
   -0.849995    6.87700  0.0000E+00  0.9388E-04  0.6518E-04  0.9159E-03  0.1219E-01  0.6702E+03
   -0.892496    6.88642  0.0000E+00  0.8673E-04  0.4234E-04  0.9778E-03  0.1137E-01  0.2422E+02
   -0.934997    6.89216  0.0000E+00  0.8057E-04  0.2803E-04  0.1023E-02  0.1069E-01 -0.3087E+03
   -0.977498    6.90210  0.0000E+00  0.7511E-04  0.1804E-04  0.1059E-02  0.9926E-02  0.7938E+03
   -1.019999    6.90637  0.0000E+00  0.7035E-04  0.1169E-04  0.1080E-02  0.9289E-02  0.1237E+03
   -1.062500    6.91418  0.0000E+00  0.6605E-04  0.7668E-05  0.1093E-02  0.8618E-02  0.4230E+04
   -1.105001    6.92042  0.0000E+00  0.6219E-04  0.4954E-05  0.1106E-02  0.8005E-02  0.6165E+02
   -1.147502    6.92572  0.0000E+00  0.5891E-04  0.3225E-05  0.1054E-02  0.7411E-02  0.6929E+02
   -1.190002    6.93367  0.0000E+00  0.5597E-04  0.2218E-05  0.1061E-02  0.6734E-02  0.1061E+03
   -1.232503    6.93926  0.0000E+00  0.5312E-04  0.1605E-05  0.1057E-02  0.6052E-02  0.1588E+03
   -1.275003    6.94655  0.0000E+00  0.5038E-04  0.1239E-05  0.1015E-02  0.5471E-02  0.3003E+05
   -1.317503    6.95285  0.0000E+00  0.4757E-04  0.1028E-05  0.9672E-03  0.4936E-02  0.1224E+04
   -1.360003    6.96114  0.0000E+00  0.4465E-04  0.9224E-06  0.9173E-03  0.4432E-02  0.4716E+03
   -1.402502    6.96945  0.0000E+00  0.4151E-04  0.9213E-06  0.8401E-03  0.3989E-02 -0.1259E+04
   -1.445001    6.98095  0.0000E+00  0.3850E-04  0.1052E-05  0.7508E-03  0.3563E-02  0.1499E+03
   -1.487500    6.99356  0.0000E+00  0.3559E-04  0.1335E-05  0.6566E-03  0.3086E-02  0.3628E+04
   -1.529999    7.01071  0.0000E+00  0.3247E-04  0.2007E-05  0.5474E-03  0.2439E-02  0.1258E+05
   -1.572497    7.04356  0.0000E+00  0.2935E-04  0.3571E-05  0.5370E-03  0.1842E-02  0.7416E+05
   -1.614995    7.06136  0.0000E+00  0.2436E-04  0.9208E-05  0.3017E-03  0.1559E-02 -0.7810E+08
   -1.657493    7.29098  0.0000E+00  0.1742E-04  0.2001E-04  0.2261E-03  0.1143E-02 -0.6940E+07
   -1.699990    7.37479  0.0000E+00  0.0000E+00  0.0000E+00  0.0000E+00  0.1955E-02  0.0000E+00
