 1 - depth, m
 2 - temperature, C
 3 - salinity, kg/kg
 4 - turbulent kinetic energy, m**2/s**2
 5 - dissipation rate, m**2/s**3
 6 - kinematic heat conductance, m**2/s
 7 - modulus of horizontal velocity, m/s
 8 - Richardson number, n/d
   -0.000000    3.81329  0.0000E+00  0.3298E-03  0.5128E-03  0.7951E-04  0.1747E+00  0.1381E-02
   -0.042497    4.06220  0.0000E+00  0.1680E-03  0.1556E-03  0.1519E-03  0.4343E-01  0.1164E-03
   -0.084995    4.11802  0.0000E+00  0.1159E-03  0.6715E-04  0.1250E-03  0.2796E-01 -0.5534E-03
   -0.127493    4.16352  0.0000E+00  0.8497E-04  0.3215E-04  0.1164E-03  0.2170E-01 -0.4787E-02
   -0.169992    4.20355  0.0000E+00  0.6361E-04  0.1634E-04  0.1107E-03  0.1737E-01 -0.1008E-01
   -0.212491    4.24382  0.0000E+00  0.4788E-04  0.8030E-05  0.1086E-03  0.1389E-01  0.6550E-01
   -0.254990    4.28781  0.0000E+00  0.3645E-04  0.4131E-05  0.1108E-03  0.1114E-01  0.3325E+01
   -0.297490    4.33708  0.0000E+00  0.2841E-04  0.2269E-05  0.1193E-03  0.9130E-02  0.3531E+01
   -0.339989    4.38554  0.0000E+00  0.2275E-04  0.1295E-05  0.1441E-03  0.7596E-02  0.4000E+02
   -0.382490    4.42436  0.0000E+00  0.1869E-04  0.7687E-06  0.1691E-03  0.6344E-02  0.1504E+02
   -0.424990    4.45557  0.0000E+00  0.1582E-04  0.4847E-06  0.1947E-03  0.5361E-02  0.1186E+03
   -0.467490    4.48146  0.0000E+00  0.1371E-04  0.3248E-06  0.2243E-03  0.4496E-02  0.6865E+02
   -0.509991    4.50317  0.0000E+00  0.1209E-04  0.2282E-06  0.2575E-03  0.3749E-02  0.4883E+02
   -0.552492    4.52185  0.0000E+00  0.1083E-04  0.1661E-06  0.2940E-03  0.3114E-02  0.2458E+02
   -0.594993    4.53811  0.0000E+00  0.9825E-05  0.1245E-06  0.3339E-03  0.2567E-02  0.2067E+02
   -0.637494    4.55245  0.0000E+00  0.8995E-05  0.9498E-07  0.3787E-03  0.2107E-02  0.5762E+02
   -0.679995    4.56541  0.0000E+00  0.8324E-05  0.7394E-07  0.4254E-03  0.1737E-02  0.4560E+02
   -0.722497    4.57698  0.0000E+00  0.7779E-05  0.5865E-07  0.4745E-03  0.1438E-02  0.1126E+02
   -0.764998    4.58758  0.0000E+00  0.7339E-05  0.4739E-07  0.5214E-03  0.1204E-02  0.7834E+02
   -0.807499    4.59744  0.0000E+00  0.6982E-05  0.3893E-07  0.5627E-03  0.1023E-02  0.1145E+02
   -0.850001    4.60681  0.0000E+00  0.6695E-05  0.3260E-07  0.5969E-03  0.8762E-03  0.4061E+02
   -0.892502    4.61580  0.0000E+00  0.6464E-05  0.2782E-07  0.6261E-03  0.7556E-03  0.8953E+01
   -0.935004    4.62455  0.0000E+00  0.6280E-05  0.2424E-07  0.6497E-03  0.6560E-03  0.9307E+01
   -0.977505    4.63300  0.0000E+00  0.6133E-05  0.2153E-07  0.6707E-03  0.5708E-03  0.6581E+01
   -1.020007    4.64121  0.0000E+00  0.6014E-05  0.1949E-07  0.6856E-03  0.4985E-03  0.7683E+01
   -1.062508    4.64915  0.0000E+00  0.5918E-05  0.1796E-07  0.6966E-03  0.4352E-03  0.6182E+01
   -1.105009    4.65686  0.0000E+00  0.5841E-05  0.1683E-07  0.7042E-03  0.3797E-03  0.8210E+01
   -1.147510    4.66433  0.0000E+00  0.5780E-05  0.1604E-07  0.7074E-03  0.3291E-03  0.5215E+01
   -1.190011    4.67148  0.0000E+00  0.5734E-05  0.1554E-07  0.7049E-03  0.2819E-03  0.5837E+01
   -1.232512    4.67837  0.0000E+00  0.5698E-05  0.1528E-07  0.6975E-03  0.2382E-03  0.6881E+01
   -1.275012    4.68549  0.0000E+00  0.5671E-05  0.1523E-07  0.6846E-03  0.2009E-03  0.9527E+01
   -1.317512    4.69299  0.0000E+00  0.5650E-05  0.1542E-07  0.6653E-03  0.1696E-03  0.1375E+02
   -1.360012    4.70107  0.0000E+00  0.5635E-05  0.1588E-07  0.6373E-03  0.1436E-03  0.2046E+02
   -1.402512    4.71004  0.0000E+00  0.5619E-05  0.1669E-07  0.6018E-03  0.1223E-03  0.3385E+02
   -1.445012    4.72030  0.0000E+00  0.5602E-05  0.1786E-07  0.5600E-03  0.1040E-03  0.5477E+02
   -1.487511    4.73088  0.0000E+00  0.5587E-05  0.1961E-07  0.5165E-03  0.8683E-04  0.7872E+02
   -1.530010    4.74099  0.0000E+00  0.5572E-05  0.2279E-07  0.4293E-03  0.7029E-04  0.1406E+03
   -1.572508    4.75291  0.0000E+00  0.5541E-05  0.3036E-07  0.3930E-03  0.5443E-04  0.4211E+03
   -1.615007    4.76977  0.0000E+00  0.5237E-05  0.6351E-07  0.1841E-03  0.4378E-04  0.9802E+03
   -1.657504    4.87846  0.0000E+00  0.3714E-05  0.1923E-06  0.5183E-04  0.2887E-04 -0.1193E+07
   -1.700002    5.12917  0.0000E+00  0.0000E+00  0.0000E+00  0.0000E+00  0.3252E-04  0.0000E+00
