 1 - depth, m
 2 - temperature, C
 3 - salinity, kg/kg
 4 - turbulent kinetic energy, m**2/s**2
 5 - dissipation rate, m**2/s**3
 6 - kinematic heat conductance, m**2/s
 7 - modulus of horizontal velocity, m/s
 8 - Richardson number, n/d
   -0.000000   11.23418  0.0000E+00  0.3649E-04  0.9452E-05  0.3362E-04  0.3564E-01 -0.2623E-01
   -0.042498   11.36546  0.0000E+00  0.2303E-04  0.3171E-05  0.6331E-04  0.1270E-01 -0.1447E+00
   -0.084995   11.40403  0.0000E+00  0.1838E-04  0.1336E-05  0.1439E-03  0.8252E-02  0.5394E+02
   -0.127494   11.42569  0.0000E+00  0.1618E-04  0.6401E-06  0.2508E-03  0.6110E-02  0.3661E+02
   -0.169992   11.43926  0.0000E+00  0.1515E-04  0.3429E-06  0.3496E-03  0.4807E-02  0.7180E+02
   -0.212491   11.44891  0.0000E+00  0.1478E-04  0.2139E-06  0.4572E-03  0.3892E-02  0.1389E+02
   -0.254991   11.45560  0.0000E+00  0.1484E-04  0.1490E-06  0.5457E-03  0.3244E-02  0.9843E+01
   -0.297490   11.46108  0.0000E+00  0.1517E-04  0.1164E-06  0.6334E-03  0.2756E-02  0.5807E+01
   -0.339990   11.46563  0.0000E+00  0.1564E-04  0.9757E-07  0.7187E-03  0.2375E-02  0.1927E+01
   -0.382490   11.46969  0.0000E+00  0.1617E-04  0.8571E-07  0.8054E-03  0.2057E-02  0.1874E+01
   -0.424991   11.47326  0.0000E+00  0.1673E-04  0.7783E-07  0.8834E-03  0.1791E-02  0.1750E+01
   -0.467491   11.47652  0.0000E+00  0.1728E-04  0.7241E-07  0.9602E-03  0.1553E-02  0.2012E+02
   -0.509992   11.47948  0.0000E+00  0.1780E-04  0.6872E-07  0.1041E-02  0.1341E-02  0.1675E+01
   -0.552493   11.48220  0.0000E+00  0.1827E-04  0.6629E-07  0.1125E-02  0.1151E-02  0.1621E+01
   -0.594994   11.48472  0.0000E+00  0.1870E-04  0.6489E-07  0.1215E-02  0.9839E-03  0.1549E+01
   -0.637495   11.48705  0.0000E+00  0.1907E-04  0.6431E-07  0.1317E-02  0.8389E-03  0.1462E+01
   -0.679997   11.48925  0.0000E+00  0.1939E-04  0.6442E-07  0.1436E-02  0.7190E-03  0.1408E+01
   -0.722498   11.49133  0.0000E+00  0.1965E-04  0.6507E-07  0.1560E-02  0.6215E-03  0.1362E+01
   -0.764999   11.49332  0.0000E+00  0.1985E-04  0.6615E-07  0.1658E-02  0.5447E-03  0.1323E+01
   -0.807501   11.49528  0.0000E+00  0.1998E-04  0.6752E-07  0.1704E-02  0.4853E-03  0.1299E+01
   -0.850003   11.49728  0.0000E+00  0.2006E-04  0.6911E-07  0.1707E-02  0.4386E-03  0.1271E+01
   -0.892504   11.49934  0.0000E+00  0.2009E-04  0.7090E-07  0.1680E-02  0.4010E-03  0.1238E+01
   -0.935006   11.50151  0.0000E+00  0.2007E-04  0.7288E-07  0.1639E-02  0.3704E-03  0.1246E+01
   -0.977507   11.50376  0.0000E+00  0.2001E-04  0.7514E-07  0.1593E-02  0.3444E-03  0.1279E+01
   -1.020008   11.50613  0.0000E+00  0.1991E-04  0.7778E-07  0.1538E-02  0.3219E-03  0.1391E+01
   -1.062510   11.50860  0.0000E+00  0.1976E-04  0.8097E-07  0.1485E-02  0.3014E-03  0.1561E+01
   -1.105011   11.51118  0.0000E+00  0.1957E-04  0.8500E-07  0.1419E-02  0.2823E-03  0.2032E+01
   -1.147512   11.51393  0.0000E+00  0.1933E-04  0.9005E-07  0.1359E-02  0.2635E-03  0.2932E+01
   -1.190013   11.51675  0.0000E+00  0.1905E-04  0.9670E-07  0.1290E-02  0.2445E-03  0.4652E+01
   -1.232514   11.51977  0.0000E+00  0.1871E-04  0.1065E-06  0.1217E-02  0.2248E-03  0.8961E+01
   -1.275014   11.52329  0.0000E+00  0.1829E-04  0.1204E-06  0.1153E-02  0.2050E-03  0.2561E+05
   -1.317515   11.52772  0.0000E+00  0.1775E-04  0.1418E-06  0.1061E-02  0.1848E-03  0.6153E+03
   -1.360015   11.53382  0.0000E+00  0.1706E-04  0.1773E-06  0.9968E-03  0.1638E-03  0.5143E+04
   -1.402515   11.54147  0.0000E+00  0.1618E-04  0.2362E-06  0.8498E-03  0.1439E-03  0.4622E+03
   -1.445014   11.55316  0.0000E+00  0.1515E-04  0.3335E-06  0.7537E-03  0.1232E-03  0.6029E+05
   -1.487514   11.56543  0.0000E+00  0.1427E-04  0.4775E-06  0.6462E-03  0.9873E-04  0.9598E+05
   -1.530013   11.58314  0.0000E+00  0.1330E-04  0.9261E-06  0.5567E-03  0.7356E-04 -0.1754E+06
   -1.572511   11.65101  0.0000E+00  0.1260E-04  0.1543E-05  0.5694E-03  0.4934E-04  0.1143E+12
   -1.615010   11.58502  0.0000E+00  0.1093E-04  0.4757E-05  0.3258E-03  0.4084E-04 -0.8227E+10
   -1.657508   11.94963  0.0000E+00  0.8617E-05  0.8950E-05  0.3321E-03  0.2581E-04 -0.3814E+06
   -1.700005   11.85979  0.0000E+00  0.0000E+00  0.0000E+00  0.0000E+00  0.5345E-04  0.0000E+00
