 1 - depth, m
 2 - temperature, C
 3 - salinity, kg/kg
 4 - turbulent kinetic energy, m**2/s**2
 5 - dissipation rate, m**2/s**3
 6 - kinematic heat conductance, m**2/s
 7 - modulus of horizontal velocity, m/s
 8 - Richardson number, n/d
   -0.000000   10.51036  0.0000E+00  0.3125E-02  0.4612E-01  0.2039E-03  0.9088E+00  0.6248E-02
   -0.042497   10.99796  0.0000E+00  0.1553E-02  0.2734E-01  0.4670E-03  0.1832E+00 -0.6617E+01
   -0.084995   11.26361  0.0000E+00  0.1005E-02  0.1084E-01  0.6224E-03  0.9939E-01 -0.3487E+00
   -0.127493   11.35501  0.0000E+00  0.7663E-03  0.7211E-02  0.5797E-03  0.7660E-01 -0.4504E+00
   -0.169991   11.39366  0.0000E+00  0.6064E-03  0.5192E-02  0.5185E-03  0.6364E-01  0.4058E+01
   -0.212489   11.42459  0.0000E+00  0.4895E-03  0.3873E-02  0.5285E-03  0.5292E-01  0.1611E+01
   -0.254988   11.44973  0.0000E+00  0.3956E-03  0.2892E-02  0.5392E-03  0.4518E-01  0.1134E+02
   -0.297488   11.46773  0.0000E+00  0.3277E-03  0.2162E-02  0.5508E-03  0.3983E-01 -0.8157E+01
   -0.339987   11.47835  0.0000E+00  0.2735E-03  0.1579E-02  0.5685E-03  0.3659E-01  0.1966E+02
   -0.382487   11.49169  0.0000E+00  0.2319E-03  0.1155E-02  0.5802E-03  0.3299E-01 -0.9728E+02
   -0.424987   11.50177  0.0000E+00  0.1997E-03  0.8274E-03  0.5905E-03  0.3047E-01 -0.1375E+03
   -0.467487   11.51458  0.0000E+00  0.1746E-03  0.5782E-03  0.6200E-03  0.2738E-01  0.2978E+02
   -0.509987   11.52608  0.0000E+00  0.1546E-03  0.4075E-03  0.6752E-03  0.2431E-01  0.8063E+03
   -0.552488   11.53354  0.0000E+00  0.1386E-03  0.2750E-03  0.7322E-03  0.2169E-01  0.1397E+03
   -0.594989   11.54573  0.0000E+00  0.1255E-03  0.1797E-03  0.7865E-03  0.1911E-01  0.3801E+03
   -0.637489   11.55432  0.0000E+00  0.1142E-03  0.1180E-03  0.8727E-03  0.1677E-01  0.1874E+03
   -0.679990   11.56284  0.0000E+00  0.1048E-03  0.7413E-04  0.9578E-03  0.1510E-01  0.2998E+03
   -0.722491   11.56744  0.0000E+00  0.9677E-04  0.4509E-04  0.1038E-02  0.1362E-01  0.1465E+04
   -0.764993   11.57447  0.0000E+00  0.8979E-04  0.2868E-04  0.1121E-02  0.1237E-01  0.3696E+04
   -0.807494   11.57917  0.0000E+00  0.8342E-04  0.1811E-04  0.1160E-02  0.1136E-01 -0.8827E+03
   -0.849995   11.58257  0.0000E+00  0.7769E-04  0.9388E-05  0.1213E-02  0.1044E-01 -0.9664E+04
   -0.892496   11.59005  0.0000E+00  0.7267E-04  0.5823E-05  0.1234E-02  0.9601E-02 -0.1908E+05
   -0.934997   11.59378  0.0000E+00  0.6823E-04  0.3878E-05  0.1304E-02  0.8836E-02  0.1724E+04
   -0.977498   11.59804  0.0000E+00  0.6434E-04  0.2691E-05  0.1360E-02  0.8158E-02  0.3624E+03
   -1.019999   11.60307  0.0000E+00  0.6091E-04  0.1866E-05  0.1305E-02  0.7556E-02 -0.8080E+04
   -1.062500   11.60690  0.0000E+00  0.5765E-04  0.1376E-05  0.1292E-02  0.6936E-02 -0.2864E+03
   -1.105001   11.61157  0.0000E+00  0.5454E-04  0.1023E-05  0.1273E-02  0.6328E-02  0.5944E+02
   -1.147502   11.61705  0.0000E+00  0.5175E-04  0.7868E-06  0.1325E-02  0.5706E-02  0.7402E+02
   -1.190002   11.62119  0.0000E+00  0.4935E-04  0.6717E-06  0.1277E-02  0.5146E-02  0.2149E+02
   -1.232503   11.62559  0.0000E+00  0.4693E-04  0.6043E-06  0.1177E-02  0.4585E-02  0.8415E+02
   -1.275003   11.63001  0.0000E+00  0.4429E-04  0.5615E-06  0.1097E-02  0.4033E-02  0.7117E+02
   -1.317503   11.63525  0.0000E+00  0.4154E-04  0.5423E-06  0.1018E-02  0.3519E-02  0.3221E+04
   -1.360003   11.64104  0.0000E+00  0.3869E-04  0.5646E-06  0.9488E-03  0.3068E-02 -0.1010E+05
   -1.402502   11.64818  0.0000E+00  0.3558E-04  0.6574E-06  0.8613E-03  0.2669E-02  0.4236E+03
   -1.445001   11.65792  0.0000E+00  0.3255E-04  0.8691E-06  0.7818E-03  0.2309E-02  0.8203E+05
   -1.487500   11.67122  0.0000E+00  0.2969E-04  0.1258E-05  0.6997E-03  0.1924E-02  0.4319E+04
   -1.529999   11.68620  0.0000E+00  0.2680E-04  0.2169E-05  0.5648E-03  0.1454E-02  0.5055E+06
   -1.572497   11.74206  0.0000E+00  0.2417E-04  0.4339E-05  0.5751E-03  0.1022E-02  0.1061E+12
   -1.614995   11.70892  0.0000E+00  0.2011E-04  0.1333E-04  0.3190E-03  0.8307E-03 -0.1061E+11
   -1.657492   12.01332  0.0000E+00  0.1497E-04  0.2314E-04  0.3136E-03  0.5600E-03 -0.2882E+07
   -1.699990   11.97062  0.0000E+00  0.0000E+00  0.0000E+00  0.0000E+00  0.1032E-02  0.0000E+00
