 1 - depth, m
 2 - temperature, C
 3 - salinity, kg/kg
 4 - turbulent kinetic energy, m**2/s**2
 5 - dissipation rate, m**2/s**3
 6 - kinematic heat conductance, m**2/s
 7 - modulus of horizontal velocity, m/s
 8 - Richardson number, n/d
   -0.000000   13.37738  0.0000E+00  0.3457E-03  0.3235E-03  0.6401E-04  0.1939E+00  0.2372E-01
   -0.042497   13.60808  0.0000E+00  0.1733E-03  0.8443E-04  0.1677E-03  0.4370E-01 -0.9134E-01
   -0.084995   13.66212  0.0000E+00  0.1217E-03  0.3918E-04  0.1715E-03  0.2736E-01  0.5673E-01
   -0.127493   13.69189  0.0000E+00  0.9277E-04  0.2181E-04  0.1880E-03  0.2174E-01  0.4262E+01
   -0.169991   13.71336  0.0000E+00  0.7270E-04  0.1257E-04  0.2122E-03  0.1779E-01  0.1513E+02
   -0.212490   13.73108  0.0000E+00  0.5765E-04  0.7179E-05  0.2568E-03  0.1467E-01  0.8392E+02
   -0.254989   13.74556  0.0000E+00  0.4637E-04  0.4027E-05  0.3034E-03  0.1227E-01  0.1057E+02
   -0.297488   13.75794  0.0000E+00  0.3823E-04  0.2273E-05  0.3545E-03  0.1045E-01 -0.6610E+02
   -0.339988   13.76872  0.0000E+00  0.3267E-04  0.1358E-05  0.4099E-03  0.8966E-02  0.4079E+02
   -0.382488   13.77781  0.0000E+00  0.2884E-04  0.8602E-06  0.4658E-03  0.7683E-02  0.4307E+02
   -0.424988   13.78541  0.0000E+00  0.2626E-04  0.5764E-06  0.5091E-03  0.6650E-02  0.7080E+02
   -0.467488   13.79199  0.0000E+00  0.2458E-04  0.4068E-06  0.5612E-03  0.5735E-02  0.6622E+02
   -0.509989   13.79743  0.0000E+00  0.2353E-04  0.3041E-06  0.6160E-03  0.4943E-02  0.2030E+02
   -0.552489   13.80219  0.0000E+00  0.2288E-04  0.2401E-06  0.6710E-03  0.4241E-02  0.9221E+01
   -0.594990   13.80625  0.0000E+00  0.2248E-04  0.1984E-06  0.7189E-03  0.3607E-02  0.3411E+01
   -0.637491   13.80996  0.0000E+00  0.2223E-04  0.1693E-06  0.7783E-03  0.3036E-02  0.2558E+01
   -0.679992   13.81339  0.0000E+00  0.2208E-04  0.1479E-06  0.8402E-03  0.2546E-02  0.2168E+01
   -0.722493   13.81664  0.0000E+00  0.2198E-04  0.1321E-06  0.9085E-03  0.2127E-02  0.1884E+01
   -0.764994   13.81977  0.0000E+00  0.2191E-04  0.1201E-06  0.9864E-03  0.1784E-02  0.1670E+01
   -0.807496   13.82282  0.0000E+00  0.2184E-04  0.1111E-06  0.1062E-02  0.1512E-02  0.1576E+01
   -0.849997   13.82576  0.0000E+00  0.2175E-04  0.1048E-06  0.1132E-02  0.1293E-02  0.1508E+01
   -0.892498   13.82861  0.0000E+00  0.2163E-04  0.1005E-06  0.1197E-02  0.1115E-02  0.1445E+01
   -0.934999   13.83137  0.0000E+00  0.2147E-04  0.9781E-07  0.1249E-02  0.9718E-03  0.1419E+01
   -0.977500   13.83404  0.0000E+00  0.2127E-04  0.9655E-07  0.1284E-02  0.8530E-03  0.1376E+01
   -1.020002   13.83667  0.0000E+00  0.2103E-04  0.9647E-07  0.1298E-02  0.7554E-03  0.1366E+01
   -1.062503   13.83927  0.0000E+00  0.2077E-04  0.9749E-07  0.1285E-02  0.6730E-03  0.1356E+01
   -1.105004   13.84190  0.0000E+00  0.2048E-04  0.9960E-07  0.1252E-02  0.6030E-03  0.6625E+01
   -1.147504   13.84459  0.0000E+00  0.2017E-04  0.1030E-06  0.1209E-02  0.5413E-03  0.1395E+01
   -1.190005   13.84734  0.0000E+00  0.1985E-04  0.1080E-06  0.1151E-02  0.4851E-03  0.6227E+01
   -1.232506   13.85012  0.0000E+00  0.1951E-04  0.1161E-06  0.1098E-02  0.4332E-03 -0.6410E+01
   -1.275006   13.85338  0.0000E+00  0.1910E-04  0.1291E-06  0.1021E-02  0.3871E-03  0.7646E+04
   -1.317506   13.85723  0.0000E+00  0.1860E-04  0.1497E-06  0.9492E-03  0.3443E-03  0.1351E+03
   -1.360006   13.86274  0.0000E+00  0.1796E-04  0.1825E-06  0.8945E-03  0.3029E-03  0.1087E+05
   -1.402505   13.86916  0.0000E+00  0.1713E-04  0.2396E-06  0.7949E-03  0.2652E-03  0.1005E+04
   -1.445005   13.87827  0.0000E+00  0.1612E-04  0.3348E-06  0.7020E-03  0.2276E-03  0.2204E+05
   -1.487504   13.88992  0.0000E+00  0.1521E-04  0.4790E-06  0.6178E-03  0.1820E-03  0.1971E+05
   -1.530002   13.90282  0.0000E+00  0.1421E-04  0.9284E-06  0.5119E-03  0.1373E-03 -0.1002E+06
   -1.572501   13.96515  0.0000E+00  0.1343E-04  0.1570E-05  0.5469E-03  0.9194E-04  0.2707E+11
   -1.614999   13.90438  0.0000E+00  0.1172E-04  0.4674E-05  0.2886E-03  0.7608E-04 -0.2280E+10
   -1.657496   14.21307  0.0000E+00  0.9189E-05  0.9038E-05  0.3012E-03  0.4823E-04 -0.1736E+06
   -1.699994   14.14207  0.0000E+00  0.0000E+00  0.0000E+00  0.0000E+00  0.9569E-04  0.0000E+00
