 1 - depth, m
 2 - temperature, C
 3 - salinity, kg/kg
 4 - turbulent kinetic energy, m**2/s**2
 5 - dissipation rate, m**2/s**3
 6 - kinematic heat conductance, m**2/s
 7 - modulus of horizontal velocity, m/s
 8 - Richardson number, n/d
   -0.000000   -0.00088  0.0000E+00  0.6452E-03  0.1993E-02  0.1550E-03  0.3819E+00  0.1652E-01
   -0.042498    0.09401  0.0000E+00  0.3545E-03  0.8871E-03  0.2162E-03  0.9379E-01  0.7015E-01
   -0.084996    0.15921  0.0000E+00  0.2393E-03  0.4017E-03  0.2049E-03  0.5562E-01  0.2704E+00
   -0.127495    0.20311  0.0000E+00  0.1795E-03  0.2330E-03  0.1815E-03  0.4400E-01  0.9102E-01
   -0.169995    0.24320  0.0000E+00  0.1380E-03  0.1298E-03  0.1664E-03  0.3625E-01  0.1333E+00
   -0.212494    0.28492  0.0000E+00  0.1059E-03  0.6684E-04  0.1534E-03  0.2961E-01  0.3628E+00
   -0.254994    0.33395  0.0000E+00  0.8167E-04  0.2942E-04  0.1425E-03  0.2432E-01  0.3167E+02
   -0.297494    0.39232  0.0000E+00  0.6407E-04  0.1158E-04  0.1310E-03  0.2075E-01  0.7455E+02
   -0.339994    0.45158  0.0000E+00  0.5098E-04  0.4399E-05  0.1184E-03  0.1828E-01  0.1558E+03
   -0.382495    0.51317  0.0000E+00  0.4092E-04  0.1902E-05  0.1066E-03  0.1602E-01  0.2140E+03
   -0.424996    0.57887  0.0000E+00  0.3339E-04  0.1194E-05  0.9270E-04  0.1438E-01  0.1215E+05
   -0.467497    0.65118  0.0000E+00  0.2730E-04  0.8353E-06  0.7893E-04  0.1255E-01  0.3595E+03
   -0.509999    0.72937  0.0000E+00  0.2219E-04  0.6034E-06  0.6532E-04  0.1066E-01  0.2587E+04
   -0.552500    0.82211  0.0000E+00  0.1781E-04  0.4405E-06  0.5185E-04  0.8826E-02  0.1842E+05
   -0.595002    0.94489  0.0000E+00  0.1395E-04  0.3188E-06  0.3869E-04  0.6943E-02  0.5894E+05
   -0.637503    1.15765  0.0000E+00  0.1049E-04  0.2236E-06  0.4404E-04  0.5154E-02  0.3102E+06
   -0.680005    1.52823  0.0000E+00  0.7673E-05  0.1511E-06  0.7294E-04  0.3667E-02  0.1172E+08
   -0.722507    2.13656  0.0000E+00  0.5605E-05  0.9455E-07  0.1146E-03  0.2329E-02  0.1289E+11
   -0.765009    2.97876  0.0000E+00  0.4403E-05  0.5687E-07  0.2065E-03  0.1334E-02  0.3173E+10
   -0.807511    3.64683  0.0000E+00  0.3792E-05  0.3680E-07  0.2982E-03  0.8087E-03  0.6717E+10
   -0.850013    3.93772  0.0000E+00  0.3420E-05  0.2511E-07  0.3531E-03  0.5428E-03  0.2946E+11
   -0.892515    4.08460  0.0000E+00  0.3191E-05  0.1740E-07  0.3893E-03  0.3760E-03  0.2959E+11
   -0.935018    4.17260  0.0000E+00  0.3067E-05  0.1279E-07  0.4188E-03  0.2777E-03  0.1304E+11
   -0.977520    4.23674  0.0000E+00  0.3035E-05  0.1012E-07  0.4387E-03  0.2006E-03  0.1586E+12
   -1.020022    4.29667  0.0000E+00  0.3042E-05  0.8609E-08  0.4584E-03  0.1462E-03  0.4586E+11
   -1.062523    4.32418  0.0000E+00  0.3074E-05  0.7801E-08  0.4723E-03  0.1098E-03  0.1028E+10
   -1.105025    4.34261  0.0000E+00  0.3117E-05  0.7381E-08  0.4826E-03  0.8640E-04  0.8758E+09
   -1.147527    4.35818  0.0000E+00  0.3164E-05  0.7200E-08  0.4905E-03  0.6873E-04  0.8508E+09
   -1.190028    4.37167  0.0000E+00  0.3213E-05  0.7166E-08  0.4925E-03  0.5450E-04  0.8017E+09
   -1.232530    4.38413  0.0000E+00  0.3264E-05  0.7243E-08  0.4926E-03  0.4299E-04  0.8369E+09
   -1.275031    4.39654  0.0000E+00  0.3317E-05  0.7421E-08  0.4832E-03  0.3430E-04  0.2721E+10
   -1.317532    4.40926  0.0000E+00  0.3372E-05  0.7708E-08  0.4790E-03  0.2762E-04 -0.1277E+11
   -1.360032    4.42268  0.0000E+00  0.3429E-05  0.8131E-08  0.4620E-03  0.2239E-04  0.2532E+11
   -1.402533    4.43723  0.0000E+00  0.3486E-05  0.8729E-08  0.4753E-03  0.1827E-04  0.3804E+10
   -1.445033    4.45232  0.0000E+00  0.3539E-05  0.9522E-08  0.3987E-03  0.1495E-04  0.1522E+12
   -1.487533    4.46911  0.0000E+00  0.3584E-05  0.1054E-07  0.3812E-03  0.1187E-04  0.8805E+10
   -1.530032    4.48540  0.0000E+00  0.3637E-05  0.1226E-07  0.3324E-03  0.8991E-05  0.2337E+11
   -1.572531    4.50472  0.0000E+00  0.3703E-05  0.1615E-07  0.2738E-03  0.6537E-05  0.3458E+11
   -1.615030    4.54044  0.0000E+00  0.3671E-05  0.3043E-07  0.1534E-03  0.4835E-05 -0.5501E+12
   -1.657529    4.64132  0.0000E+00  0.2805E-05  0.9868E-07  0.3121E-04  0.3219E-05 -0.3092E+14
   -1.700027    5.05875  0.0000E+00  0.0000E+00  0.0000E+00  0.0000E+00  0.3355E-05  0.0000E+00
