 1 - depth, m
 2 - temperature, C
 3 - salinity, kg/kg
 4 - turbulent kinetic energy, m**2/s**2
 5 - dissipation rate, m**2/s**3
 6 - kinematic heat conductance, m**2/s
 7 - modulus of horizontal velocity, m/s
 8 - Richardson number, n/d
   -0.000000    5.96242  0.0000E+00  0.4334E-03  0.4522E-02  0.6374E-04  0.1845E+00 -0.3511E-01
   -0.042497    6.29200  0.0000E+00  0.2260E-03  0.1526E-02  0.1703E-03  0.4123E-01  0.1318E+01
   -0.084995    6.35438  0.0000E+00  0.1611E-03  0.5671E-03  0.1725E-03  0.2578E-01  0.7435E+00
   -0.127493    6.39911  0.0000E+00  0.1186E-03  0.2104E-03  0.1837E-03  0.2012E-01  0.1222E+02
   -0.169992    6.43490  0.0000E+00  0.8879E-04  0.8445E-04  0.2056E-03  0.1628E-01  0.6693E+01
   -0.212491    6.46310  0.0000E+00  0.6615E-04  0.3512E-04  0.2414E-03  0.1317E-01  0.6209E+02
   -0.254990    6.48879  0.0000E+00  0.4945E-04  0.1525E-04  0.2852E-03  0.1074E-01  0.1650E+02
   -0.297489    6.51196  0.0000E+00  0.3797E-04  0.6824E-05  0.3328E-03  0.8972E-02  0.8907E+02
   -0.339989    6.53104  0.0000E+00  0.3016E-04  0.2993E-05  0.3794E-03  0.7600E-02  0.7483E+01
   -0.382489    6.54782  0.0000E+00  0.2506E-04  0.1427E-05  0.4322E-03  0.6392E-02  0.1752E+03
   -0.424989    6.56280  0.0000E+00  0.2176E-04  0.7594E-06  0.4841E-03  0.5479E-02  0.5937E+02
   -0.467490    6.57601  0.0000E+00  0.1962E-04  0.4741E-06  0.5454E-03  0.4663E-02  0.3551E+02
   -0.509990    6.58644  0.0000E+00  0.1814E-04  0.3286E-06  0.6014E-03  0.3970E-02  0.6152E+02
   -0.552491    6.59554  0.0000E+00  0.1706E-04  0.2408E-06  0.6590E-03  0.3380E-02  0.1712E+03
   -0.594992    6.60312  0.0000E+00  0.1626E-04  0.1864E-06  0.7161E-03  0.2870E-02  0.1764E+02
   -0.637493    6.60996  0.0000E+00  0.1566E-04  0.1502E-06  0.7768E-03  0.2436E-02  0.1382E+02
   -0.679994    6.61598  0.0000E+00  0.1519E-04  0.1246E-06  0.8364E-03  0.2071E-02  0.1250E+02
   -0.722496    6.62162  0.0000E+00  0.1481E-04  0.1056E-06  0.8997E-03  0.1761E-02  0.4404E+02
   -0.764997    6.62685  0.0000E+00  0.1451E-04  0.9128E-07  0.9585E-03  0.1506E-02  0.2915E+01
   -0.807498    6.63190  0.0000E+00  0.1425E-04  0.7999E-07  0.1004E-02  0.1300E-02  0.2884E+01
   -0.850000    6.63683  0.0000E+00  0.1403E-04  0.7134E-07  0.1038E-02  0.1128E-02  0.2173E+01
   -0.892501    6.64165  0.0000E+00  0.1383E-04  0.6462E-07  0.1065E-02  0.9850E-03  0.2181E+01
   -0.935002    6.64645  0.0000E+00  0.1365E-04  0.5940E-07  0.1082E-02  0.8646E-03  0.2322E+01
   -0.977504    6.65117  0.0000E+00  0.1348E-04  0.5544E-07  0.1093E-02  0.7605E-03  0.2448E+01
   -1.020005    6.65588  0.0000E+00  0.1331E-04  0.5251E-07  0.1094E-02  0.6716E-03  0.2632E+01
   -1.062506    6.66053  0.0000E+00  0.1315E-04  0.5047E-07  0.1087E-02  0.5930E-03  0.2850E+01
   -1.105007    6.66520  0.0000E+00  0.1298E-04  0.4922E-07  0.1071E-02  0.5237E-03  0.3054E+01
   -1.147508    6.66988  0.0000E+00  0.1282E-04  0.4874E-07  0.1048E-02  0.4603E-03  0.3433E+01
   -1.190009    6.67451  0.0000E+00  0.1266E-04  0.4902E-07  0.1015E-02  0.4010E-03  0.3923E+01
   -1.232510    6.67909  0.0000E+00  0.1251E-04  0.5017E-07  0.9769E-03  0.3462E-03  0.5440E+01
   -1.275010    6.68401  0.0000E+00  0.1235E-04  0.5237E-07  0.9233E-03  0.2994E-03  0.1705E+02
   -1.317510    6.68947  0.0000E+00  0.1217E-04  0.5603E-07  0.8696E-03  0.2599E-03  0.9947E+02
   -1.360010    6.69581  0.0000E+00  0.1195E-04  0.6218E-07  0.7964E-03  0.2267E-03 -0.4967E+04
   -1.402510    6.70387  0.0000E+00  0.1165E-04  0.7266E-07  0.7301E-03  0.1979E-03  0.1094E+03
   -1.445009    6.71363  0.0000E+00  0.1124E-04  0.9231E-07  0.6379E-03  0.1710E-03  0.2240E+05
   -1.487509    6.72898  0.0000E+00  0.1080E-04  0.1212E-06  0.5818E-03  0.1399E-03  0.1399E+05
   -1.530007    6.74096  0.0000E+00  0.1027E-04  0.1982E-06  0.4525E-03  0.1097E-03 -0.1913E+06
   -1.572506    6.80327  0.0000E+00  0.9719E-05  0.3494E-06  0.4667E-03  0.7665E-04  0.3211E+10
   -1.615004    6.76693  0.0000E+00  0.8446E-05  0.9748E-06  0.2066E-03  0.6190E-04 -0.4376E+11
   -1.657502    7.11216  0.0000E+00  0.6264E-05  0.2200E-05  0.1641E-03  0.3933E-04 -0.6646E+06
   -1.699999    7.09713  0.0000E+00  0.0000E+00  0.0000E+00  0.0000E+00  0.6233E-04  0.0000E+00
