 1 - depth, m
 2 - temperature, C
 3 - salinity, kg/kg
 4 - turbulent kinetic energy, m**2/s**2
 5 - dissipation rate, m**2/s**3
 6 - kinematic heat conductance, m**2/s
 7 - modulus of horizontal velocity, m/s
 8 - Richardson number, n/d
   -0.000000    0.00077  0.0000E+00  0.5642E-03  0.1100E-02  0.1156E-03  0.3428E+00  0.2552E+00
   -0.042495    0.07639  0.0000E+00  0.3304E-03  0.4982E-03  0.2118E-03  0.8928E-01  0.4086E-01
   -0.084990    0.11654  0.0000E+00  0.2332E-03  0.1935E-03  0.2057E-03  0.5665E-01  0.4876E+00
   -0.127485    0.14673  0.0000E+00  0.1793E-03  0.8769E-04  0.1974E-03  0.4568E-01  0.9870E-01
   -0.169981    0.17400  0.0000E+00  0.1418E-03  0.4514E-04  0.1920E-03  0.3809E-01  0.9349E-01
   -0.212477    0.20115  0.0000E+00  0.1126E-03  0.2349E-04  0.1860E-03  0.3186E-01  0.4976E+00
   -0.254974    0.23067  0.0000E+00  0.9044E-04  0.1339E-04  0.1807E-03  0.2695E-01  0.1021E+02
   -0.297471    0.25947  0.0000E+00  0.7353E-04  0.7703E-05  0.1730E-03  0.2367E-01  0.2449E+02
   -0.339968    0.28901  0.0000E+00  0.6032E-04  0.4215E-05  0.1629E-03  0.2116E-01  0.1085E+03
   -0.382465    0.32054  0.0000E+00  0.4989E-04  0.2350E-05  0.1538E-03  0.1870E-01  0.5030E+02
   -0.424963    0.35500  0.0000E+00  0.4198E-04  0.1433E-05  0.1416E-03  0.1670E-01  0.4715E+01
   -0.467460    0.39071  0.0000E+00  0.3560E-04  0.9716E-06  0.1286E-03  0.1463E-01  0.1617E+01
   -0.509958    0.42774  0.0000E+00  0.3022E-04  0.7153E-06  0.1147E-03  0.1262E-01  0.3463E+01
   -0.552456    0.46758  0.0000E+00  0.2551E-04  0.5410E-06  0.9888E-04  0.1075E-01  0.9986E+01
   -0.594955    0.51285  0.0000E+00  0.2113E-04  0.4100E-06  0.8239E-04  0.8918E-02  0.9692E+02
   -0.637453    0.56872  0.0000E+00  0.1696E-04  0.3069E-06  0.6546E-04  0.7204E-02  0.3094E+04
   -0.679952    0.65364  0.0000E+00  0.1318E-04  0.2263E-06  0.4720E-04  0.5738E-02  0.9411E+05
   -0.722450    0.83435  0.0000E+00  0.9820E-05  0.1599E-06  0.3093E-04  0.4349E-02  0.7126E+07
   -0.764949    1.33467  0.0000E+00  0.7123E-05  0.1065E-06  0.4199E-04  0.3066E-02  0.8514E+09
   -0.807448    2.03174  0.0000E+00  0.5187E-05  0.6777E-07  0.9892E-04  0.2106E-02  0.3884E+11
   -0.849946    2.82546  0.0000E+00  0.3973E-05  0.4167E-07  0.1625E-03  0.1310E-02  0.4377E+11
   -0.892445    3.44782  0.0000E+00  0.3300E-05  0.2574E-07  0.2310E-03  0.7873E-03 -0.2829E+12
   -0.934944    3.89195  0.0000E+00  0.2992E-05  0.1664E-07  0.2881E-03  0.4671E-03  0.3125E+12
   -0.977442    4.14044  0.0000E+00  0.2900E-05  0.1203E-07  0.3310E-03  0.2769E-03 -0.2754E+12
   -1.019941    4.27088  0.0000E+00  0.2878E-05  0.9732E-08  0.3649E-03  0.1925E-03  0.4958E+12
   -1.062439    4.33261  0.0000E+00  0.2890E-05  0.8504E-08  0.3853E-03  0.1366E-03  0.1179E+13
   -1.104938    4.36213  0.0000E+00  0.2924E-05  0.7867E-08  0.4008E-03  0.1024E-03  0.4351E+12
   -1.147436    4.38014  0.0000E+00  0.2966E-05  0.7557E-08  0.4121E-03  0.7995E-04  0.1019E+12
   -1.189934    4.39485  0.0000E+00  0.3013E-05  0.7443E-08  0.4198E-03  0.6250E-04  0.1188E+12
   -1.232432    4.40800  0.0000E+00  0.3065E-05  0.7465E-08  0.4234E-03  0.4904E-04  0.2431E+12
   -1.274930    4.42094  0.0000E+00  0.3121E-05  0.7600E-08  0.4220E-03  0.3913E-04  0.2223E+12
   -1.317428    4.43429  0.0000E+00  0.3180E-05  0.7853E-08  0.4163E-03  0.3158E-04  0.1907E+12
   -1.359925    4.44838  0.0000E+00  0.3241E-05  0.8243E-08  0.4157E-03  0.2560E-04  0.3411E+12
   -1.402422    4.46354  0.0000E+00  0.3304E-05  0.8826E-08  0.3879E-03  0.2090E-04  0.2877E+12
   -1.444919    4.48049  0.0000E+00  0.3358E-05  0.9571E-08  0.3835E-03  0.1691E-04  0.2886E+12
   -1.487415    4.49717  0.0000E+00  0.3411E-05  0.1061E-07  0.3403E-03  0.1330E-04  0.4962E+12
   -1.529911    4.51429  0.0000E+00  0.3473E-05  0.1232E-07  0.3018E-03  0.9959E-05  0.7073E+12
   -1.572407    4.53487  0.0000E+00  0.3555E-05  0.1623E-07  0.2466E-03  0.7128E-05  0.1520E+12
   -1.614903    4.57475  0.0000E+00  0.3547E-05  0.3003E-07  0.1438E-03  0.5196E-05 -0.1424E+13
   -1.657398    4.67819  0.0000E+00  0.2732E-05  0.9488E-07  0.2958E-04  0.3483E-05 -0.8626E+14
   -1.699893    5.10009  0.0000E+00  0.0000E+00  0.0000E+00  0.0000E+00  0.3617E-05  0.0000E+00
