 1 - depth, m
 2 - temperature, C
 3 - salinity, kg/kg
 4 - turbulent kinetic energy, m**2/s**2
 5 - dissipation rate, m**2/s**3
 6 - kinematic heat conductance, m**2/s
 7 - modulus of horizontal velocity, m/s
 8 - Richardson number, n/d
   -0.000000   15.70188  0.0000E+00  0.1016E-02  0.2885E-02  0.1426E-03  0.3940E+00  0.3290E-01
   -0.042497   16.00702  0.0000E+00  0.4799E-03  0.9321E-03  0.2434E-03  0.8277E-01 -0.6082E-01
   -0.084995   16.08769  0.0000E+00  0.3312E-03  0.4575E-03  0.2955E-03  0.4900E-01  0.5985E+00
   -0.127493   16.12970  0.0000E+00  0.2498E-03  0.2607E-03  0.2843E-03  0.3928E-01  0.3414E+02
   -0.169991   16.15658  0.0000E+00  0.1916E-03  0.1448E-03  0.2832E-03  0.3246E-01  0.4473E+01
   -0.212490   16.17841  0.0000E+00  0.1497E-03  0.8745E-04  0.3037E-03  0.2678E-01  0.3242E+02
   -0.254989   16.19690  0.0000E+00  0.1169E-03  0.5091E-04  0.3410E-03  0.2255E-01  0.1387E+02
   -0.297488   16.21279  0.0000E+00  0.9323E-04  0.2956E-04  0.3766E-03  0.1950E-01  0.1209E+02
   -0.339988   16.22672  0.0000E+00  0.7631E-04  0.1705E-04  0.4269E-03  0.1711E-01  0.1383E+03
   -0.382487   16.23775  0.0000E+00  0.6399E-04  0.9934E-05  0.4757E-03  0.1479E-01  0.2951E+02
   -0.424987   16.24612  0.0000E+00  0.5540E-04  0.5720E-05  0.5106E-03  0.1303E-01  0.6832E+02
   -0.467488   16.25561  0.0000E+00  0.4929E-04  0.3520E-05  0.5714E-03  0.1121E-01  0.9064E+02
   -0.509988   16.26204  0.0000E+00  0.4481E-04  0.2219E-05  0.6252E-03  0.9675E-02  0.3647E+04
   -0.552489   16.26845  0.0000E+00  0.4152E-04  0.1413E-05  0.6825E-03  0.8343E-02  0.4146E+03
   -0.594990   16.27325  0.0000E+00  0.3903E-04  0.9642E-06  0.7432E-03  0.7169E-02  0.7738E+02
   -0.637491   16.27794  0.0000E+00  0.3706E-04  0.6868E-06  0.7986E-03  0.6157E-02  0.1043E+03
   -0.679992   16.28171  0.0000E+00  0.3541E-04  0.5255E-06  0.8605E-03  0.5300E-02  0.1949E+02
   -0.722493   16.28545  0.0000E+00  0.3399E-04  0.4243E-06  0.9331E-03  0.4565E-02  0.2198E+02
   -0.764994   16.28865  0.0000E+00  0.3273E-04  0.3544E-06  0.1009E-02  0.3952E-02  0.6502E+01
   -0.807495   16.29183  0.0000E+00  0.3162E-04  0.3030E-06  0.1079E-02  0.3455E-02  0.1319E+01
   -0.849996   16.29480  0.0000E+00  0.3062E-04  0.2640E-06  0.1132E-02  0.3049E-02  0.7258E+01
   -0.892497   16.29772  0.0000E+00  0.2968E-04  0.2327E-06  0.1157E-02  0.2699E-02  0.3393E+01
   -0.934999   16.30060  0.0000E+00  0.2870E-04  0.2060E-06  0.1146E-02  0.2386E-02  0.4562E+01
   -0.977500   16.30348  0.0000E+00  0.2783E-04  0.1864E-06  0.1323E-02  0.2062E-02  0.3892E+01
   -1.020001   16.30595  0.0000E+00  0.2711E-04  0.1730E-06  0.1314E-02  0.1868E-02  0.4915E+01
   -1.062502   16.30844  0.0000E+00  0.2642E-04  0.1631E-06  0.1285E-02  0.1698E-02  0.3556E+01
   -1.105003   16.31098  0.0000E+00  0.2574E-04  0.1563E-06  0.1295E-02  0.1522E-02  0.4625E+01
   -1.147504   16.31342  0.0000E+00  0.2505E-04  0.1523E-06  0.1151E-02  0.1383E-02 -0.9368E+01
   -1.190004   16.31609  0.0000E+00  0.2422E-04  0.1507E-06  0.1091E-02  0.1189E-02  0.3903E+01
   -1.232505   16.31881  0.0000E+00  0.2340E-04  0.1536E-06  0.1044E-02  0.1008E-02  0.5479E+01
   -1.275005   16.32177  0.0000E+00  0.2260E-04  0.1622E-06  0.9904E-03  0.8554E-03  0.6425E+01
   -1.317505   16.32522  0.0000E+00  0.2176E-04  0.1800E-06  0.9461E-03  0.7277E-03  0.2145E+02
   -1.360005   16.32939  0.0000E+00  0.2080E-04  0.2153E-06  0.8746E-03  0.6224E-03  0.9359E+03
   -1.402504   16.33546  0.0000E+00  0.1962E-04  0.2820E-06  0.8140E-03  0.5316E-03  0.2488E+04
   -1.445004   16.34240  0.0000E+00  0.1830E-04  0.3927E-06  0.7143E-03  0.4518E-03  0.9090E+05
   -1.487503   16.35359  0.0000E+00  0.1714E-04  0.5905E-06  0.6469E-03  0.3571E-03  0.3046E+05
   -1.530001   16.36185  0.0000E+00  0.1593E-04  0.1099E-05  0.5255E-03  0.2650E-03 -0.1005E+06
   -1.572500   16.41545  0.0000E+00  0.1495E-04  0.2016E-05  0.5576E-03  0.1738E-03  0.1573E+10
   -1.614998   16.37062  0.0000E+00  0.1288E-04  0.6327E-05  0.3027E-03  0.1428E-03 -0.1781E+10
   -1.657495   16.61131  0.0000E+00  0.1004E-04  0.1157E-04  0.3097E-03  0.8987E-04 -0.9799E+05
   -1.699992   16.55700  0.0000E+00  0.0000E+00  0.0000E+00  0.0000E+00  0.1874E-03  0.0000E+00
