 1 - depth, m
 2 - temperature, C
 3 - salinity, kg/kg
 4 - turbulent kinetic energy, m**2/s**2
 5 - dissipation rate, m**2/s**3
 6 - kinematic heat conductance, m**2/s
 7 - modulus of horizontal velocity, m/s
 8 - Richardson number, n/d
   -0.000000    0.58502  0.0000E+00  0.1338E-02  0.9270E-02  0.1462E-03  0.5821E+00  0.6009E-02
   -0.042502    0.80091  0.0000E+00  0.7113E-03  0.5374E-02  0.2992E-03  0.1361E+00 -0.4741E-02
   -0.085004    0.89381  0.0000E+00  0.4704E-03  0.1309E-02  0.3190E-03  0.7882E-01  0.7133E+01
   -0.127507    0.94516  0.0000E+00  0.3618E-03  0.5907E-03  0.2989E-03  0.6208E-01  0.1024E+00
   -0.170010    0.98314  0.0000E+00  0.2889E-03  0.2985E-03  0.2838E-03  0.5140E-01  0.6121E-01
   -0.212513    1.01971  0.0000E+00  0.2320E-03  0.1484E-03  0.2754E-03  0.4305E-01  0.1220E+00
   -0.255017    1.05465  0.0000E+00  0.1869E-03  0.7492E-04  0.2708E-03  0.3664E-01  0.2920E+03
   -0.297521    1.08793  0.0000E+00  0.1542E-03  0.4046E-04  0.2668E-03  0.3232E-01  0.2260E+02
   -0.340025    1.11999  0.0000E+00  0.1297E-03  0.2164E-04  0.2621E-03  0.2911E-01  0.2396E+03
   -0.382530    1.15235  0.0000E+00  0.1103E-03  0.1161E-04  0.2595E-03  0.2601E-01  0.6887E+02
   -0.425035    1.18289  0.0000E+00  0.9549E-04  0.6684E-05  0.2552E-03  0.2348E-01  0.5316E+01
   -0.467540    1.21292  0.0000E+00  0.8357E-04  0.4279E-05  0.2502E-03  0.2088E-01  0.1080E+01
   -0.510045    1.24216  0.0000E+00  0.7399E-04  0.3037E-05  0.2436E-03  0.1846E-01  0.1995E+01
   -0.552550    1.27117  0.0000E+00  0.6628E-04  0.2303E-05  0.2330E-03  0.1626E-01  0.1873E+01
   -0.595056    1.30102  0.0000E+00  0.5901E-04  0.1781E-05  0.2220E-03  0.1415E-01  0.9555E+01
   -0.637561    1.33308  0.0000E+00  0.5206E-04  0.1405E-05  0.2114E-03  0.1221E-01  0.1699E+03
   -0.680067    1.36827  0.0000E+00  0.4601E-04  0.1137E-05  0.1961E-03  0.1061E-01  0.3201E+04
   -0.722573    1.40897  0.0000E+00  0.4017E-04  0.9059E-06  0.1801E-03  0.9192E-02  0.1012E+06
   -0.765079    1.45770  0.0000E+00  0.3473E-04  0.7276E-06  0.1629E-03  0.7986E-02  0.2658E+08
   -0.807585    1.52055  0.0000E+00  0.2982E-04  0.5815E-06  0.1432E-03  0.7010E-02 -0.1919E+08
   -0.850091    1.61313  0.0000E+00  0.2535E-04  0.4655E-06  0.1253E-03  0.6124E-02  0.6047E+08
   -0.892597    1.75599  0.0000E+00  0.2139E-04  0.3695E-06  0.1108E-03  0.5300E-02  0.2406E+09
   -0.935103    1.99918  0.0000E+00  0.1810E-04  0.2944E-06  0.1050E-03  0.4537E-02  0.5663E+10
   -0.977609    2.32104  0.0000E+00  0.1538E-04  0.2351E-06  0.1165E-03  0.3809E-02  0.5605E+08
   -1.020114    2.68787  0.0000E+00  0.1325E-04  0.1890E-06  0.1313E-03  0.3190E-02  0.1535E+09
   -1.062620    2.95947  0.0000E+00  0.1152E-04  0.1529E-06  0.1514E-03  0.2676E-02  0.1539E+09
   -1.105126    3.18596  0.0000E+00  0.1012E-04  0.1249E-06  0.1688E-03  0.2281E-02  0.1621E+09
   -1.147631    3.36890  0.0000E+00  0.9002E-05  0.1030E-06  0.1837E-03  0.1892E-02  0.5864E+09
   -1.190137    3.51963  0.0000E+00  0.8137E-05  0.8605E-07  0.1974E-03  0.1483E-02  0.1370E+09
   -1.232642    3.68238  0.0000E+00  0.7416E-05  0.7265E-07  0.2126E-03  0.1136E-02  0.1321E+09
   -1.275147    3.82174  0.0000E+00  0.6863E-05  0.6254E-07  0.2227E-03  0.8837E-03  0.1827E+09
   -1.317652    3.93010  0.0000E+00  0.6427E-05  0.5497E-07  0.2300E-03  0.7089E-03  0.3895E+09
   -1.360156    4.03443  0.0000E+00  0.6078E-05  0.4948E-07  0.2340E-03  0.5788E-03  0.2112E+12
   -1.402660    4.10342  0.0000E+00  0.5772E-05  0.4555E-07  0.2339E-03  0.4828E-03  0.7972E+11
   -1.445164    4.15853  0.0000E+00  0.5521E-05  0.4356E-07  0.2291E-03  0.4013E-03  0.5512E+11
   -1.487668    4.21101  0.0000E+00  0.5336E-05  0.4411E-07  0.2194E-03  0.3250E-03  0.3457E+12
   -1.530172    4.26427  0.0000E+00  0.5197E-05  0.4890E-07  0.2039E-03  0.2544E-03 -0.2964E+13
   -1.572675    4.32243  0.0000E+00  0.5067E-05  0.6523E-07  0.1664E-03  0.1939E-03 -0.1426E+14
   -1.615177    4.41292  0.0000E+00  0.4657E-05  0.1305E-06  0.1109E-03  0.1532E-03 -0.2477E+14
   -1.657680    4.57148  0.0000E+00  0.3412E-05  0.3551E-06  0.3068E-04  0.1169E-03 -0.2560E+15
   -1.700182    5.05605  0.0000E+00  0.0000E+00  0.0000E+00  0.0000E+00  0.1425E-03  0.0000E+00
