 1 - depth, m
 2 - temperature, C
 3 - salinity, kg/kg
 4 - turbulent kinetic energy, m**2/s**2
 5 - dissipation rate, m**2/s**3
 6 - kinematic heat conductance, m**2/s
 7 - modulus of horizontal velocity, m/s
 8 - Richardson number, n/d
   -0.000000    3.53468  0.0000E+00  0.2401E-02  0.7194E+00  0.1837E-03  0.6353E+00  0.1057E-02
   -0.042497    3.96213  0.0000E+00  0.1489E-02  0.5652E+00  0.3496E-03  0.1371E+00 -0.1417E-01
   -0.084995    4.20777  0.0000E+00  0.9450E-03  0.4669E+00  0.3576E-03  0.7351E-01 -0.1836E-01
   -0.127493    4.30210  0.0000E+00  0.7401E-03  0.3410E+00  0.3277E-03  0.5722E-01  0.8646E-01
   -0.169991    4.35222  0.0000E+00  0.5944E-03  0.2426E+00  0.3030E-03  0.4711E-01  0.3069E+00
   -0.212490    4.39279  0.0000E+00  0.4747E-03  0.1691E+00  0.2939E-03  0.3880E-01  0.1193E+01
   -0.254989    4.43256  0.0000E+00  0.3757E-03  0.1136E+00  0.2902E-03  0.3225E-01  0.9286E+01
   -0.297488    4.46456  0.0000E+00  0.2962E-03  0.7177E-01  0.2912E-03  0.2810E-01  0.2135E+01
   -0.339988    4.49396  0.0000E+00  0.2303E-03  0.4169E-01  0.2977E-03  0.2521E-01  0.4259E+01
   -0.382488    4.52362  0.0000E+00  0.1771E-03  0.2143E-01  0.3069E-03  0.2247E-01  0.8099E+01
   -0.424988    4.55011  0.0000E+00  0.1356E-03  0.9348E-02  0.3186E-03  0.2056E-01  0.6060E+02
   -0.467488    4.57477  0.0000E+00  0.1058E-03  0.3337E-02  0.3363E-03  0.1823E-01  0.9165E+02
   -0.509989    4.59675  0.0000E+00  0.8568E-04  0.9491E-03  0.3583E-03  0.1598E-01  0.1429E+03
   -0.552490    4.61617  0.0000E+00  0.7264E-04  0.2141E-03  0.3772E-03  0.1401E-01  0.7331E+02
   -0.594990    4.63544  0.0000E+00  0.6397E-04  0.4135E-04  0.4004E-03  0.1214E-01  0.2243E+02
   -0.637491    4.65221  0.0000E+00  0.5765E-04  0.8914E-05  0.4279E-03  0.1053E-01  0.1477E+04
   -0.679992    4.66814  0.0000E+00  0.5259E-04  0.3200E-05  0.4534E-03  0.9315E-02  0.1589E+02
   -0.722494    4.68322  0.0000E+00  0.4827E-04  0.1793E-05  0.4809E-03  0.8282E-02  0.4301E+02
   -0.764995    4.69745  0.0000E+00  0.4449E-04  0.1212E-05  0.5165E-03  0.7433E-02 -0.1916E+03
   -0.807496    4.71222  0.0000E+00  0.4116E-04  0.9026E-06  0.5508E-03  0.6754E-02  0.2307E+05
   -0.849997    4.72487  0.0000E+00  0.3822E-04  0.7126E-06  0.5779E-03  0.6161E-02  0.1234E+05
   -0.892499    4.73880  0.0000E+00  0.3557E-04  0.5846E-06  0.6006E-03  0.5634E-02  0.2228E+04
   -0.935000    4.75111  0.0000E+00  0.3319E-04  0.4919E-06  0.6194E-03  0.5171E-02  0.2036E+04
   -0.977501    4.76360  0.0000E+00  0.3106E-04  0.4208E-06  0.6348E-03  0.4739E-02 -0.1115E+04
   -1.020002    4.77569  0.0000E+00  0.2914E-04  0.3639E-06  0.6470E-03  0.4349E-02  0.5013E+03
   -1.062503    4.78731  0.0000E+00  0.2741E-04  0.3181E-06  0.6548E-03  0.3978E-02  0.2211E+04
   -1.105004    4.79857  0.0000E+00  0.2584E-04  0.2807E-06  0.6538E-03  0.3634E-02  0.4470E+04
   -1.147505    4.80952  0.0000E+00  0.2443E-04  0.2507E-06  0.6504E-03  0.3299E-02  0.4236E+03
   -1.190006    4.82008  0.0000E+00  0.2318E-04  0.2274E-06  0.6423E-03  0.2968E-02  0.8250E+03
   -1.232506    4.83041  0.0000E+00  0.2202E-04  0.2092E-06  0.6353E-03  0.2647E-02  0.1418E+04
   -1.275007    4.84091  0.0000E+00  0.2090E-04  0.1955E-06  0.6224E-03  0.2354E-02  0.5258E+03
   -1.317507    4.85186  0.0000E+00  0.1982E-04  0.1867E-06  0.6011E-03  0.2088E-02  0.4706E+04
   -1.360007    4.86358  0.0000E+00  0.1873E-04  0.1841E-06  0.5715E-03  0.1849E-02  0.2444E+04
   -1.402506    4.87664  0.0000E+00  0.1755E-04  0.1912E-06  0.5318E-03  0.1638E-02  0.6647E+05
   -1.445006    4.89204  0.0000E+00  0.1637E-04  0.2144E-06  0.4764E-03  0.1437E-02  0.8356E+04
   -1.487505    4.90934  0.0000E+00  0.1518E-04  0.2628E-06  0.4323E-03  0.1219E-02  0.3143E+04
   -1.530003    4.92764  0.0000E+00  0.1389E-04  0.3759E-06  0.3609E-03  0.9609E-03  0.1097E+05
   -1.572502    4.96405  0.0000E+00  0.1255E-04  0.6563E-06  0.3488E-03  0.7093E-03  0.3366E+08
   -1.615000    4.98434  0.0000E+00  0.1027E-04  0.1758E-05  0.1906E-03  0.5764E-03 -0.1135E+08
   -1.657497    5.20859  0.0000E+00  0.7382E-05  0.3959E-05  0.1362E-03  0.4166E-03 -0.1603E+09
   -1.699995    5.36996  0.0000E+00  0.0000E+00  0.0000E+00  0.0000E+00  0.6911E-03  0.0000E+00
