 1 - depth, m
 2 - temperature, C
 3 - salinity, kg/kg
 4 - turbulent kinetic energy, m**2/s**2
 5 - dissipation rate, m**2/s**3
 6 - kinematic heat conductance, m**2/s
 7 - modulus of horizontal velocity, m/s
 8 - Richardson number, n/d
   -0.000000   17.79024  0.0000E+00  0.1673E-02  0.1924E-01  0.1317E-03  0.5609E+00  0.5720E-01
   -0.042497   18.07046  0.0000E+00  0.8133E-03  0.1114E-01  0.2867E-03  0.1160E+00 -0.5564E-01
   -0.084995   18.18902  0.0000E+00  0.5262E-03  0.4218E-02  0.3484E-03  0.6523E-01  0.1428E+01
   -0.127493   18.24476  0.0000E+00  0.4017E-03  0.2798E-02  0.3353E-03  0.4989E-01  0.1194E+02
   -0.169991   18.27171  0.0000E+00  0.3108E-03  0.1721E-02  0.3280E-03  0.4090E-01  0.1806E+01
   -0.212490   18.29222  0.0000E+00  0.2418E-03  0.1031E-02  0.3435E-03  0.3339E-01  0.4806E+02
   -0.254989   18.30886  0.0000E+00  0.1883E-03  0.6711E-03  0.3865E-03  0.2781E-01  0.2478E+03
   -0.297488   18.32238  0.0000E+00  0.1519E-03  0.4387E-03  0.4313E-03  0.2413E-01 -0.1791E+02
   -0.339988   18.33220  0.0000E+00  0.1249E-03  0.2746E-03  0.4763E-03  0.2145E-01  0.6230E+02
   -0.382487   18.34104  0.0000E+00  0.1038E-03  0.1631E-03  0.5225E-03  0.1862E-01  0.5200E+02
   -0.424987   18.34824  0.0000E+00  0.8917E-04  0.1042E-03  0.5539E-03  0.1667E-01  0.5771E+01
   -0.467488   18.35536  0.0000E+00  0.7835E-04  0.6450E-04  0.5945E-03  0.1456E-01  0.4991E+03
   -0.509988   18.36161  0.0000E+00  0.7037E-04  0.4157E-04  0.6463E-03  0.1262E-01  0.1093E+03
   -0.552489   18.36753  0.0000E+00  0.6418E-04  0.2602E-04  0.7113E-03  0.1106E-01  0.1652E+03
   -0.594990   18.37378  0.0000E+00  0.5890E-04  0.1558E-04  0.7789E-03  0.9530E-02  0.1012E+03
   -0.637490   18.37776  0.0000E+00  0.5478E-04  0.9540E-05  0.8441E-03  0.8328E-02  0.1046E+03
   -0.679991   18.38105  0.0000E+00  0.5137E-04  0.5698E-05  0.9132E-03  0.7388E-02  0.3441E+02
   -0.722493   18.38430  0.0000E+00  0.4838E-04  0.3643E-05  0.9844E-03  0.6569E-02  0.1390E+04
   -0.764994   18.38684  0.0000E+00  0.4574E-04  0.2343E-05  0.1065E-02  0.5884E-02  0.6570E+03
   -0.807495   18.38986  0.0000E+00  0.4335E-04  0.1497E-05  0.1138E-02  0.5301E-02  0.8801E+05
   -0.849996   18.39212  0.0000E+00  0.4118E-04  0.9952E-06  0.1177E-02  0.4798E-02  0.8350E+05
   -0.892497   18.39469  0.0000E+00  0.3921E-04  0.7017E-06  0.1210E-02  0.4336E-02  0.1367E+03
   -0.934998   18.39696  0.0000E+00  0.3743E-04  0.5304E-06  0.1230E-02  0.3931E-02  0.6736E+02
   -0.977500   18.39942  0.0000E+00  0.3576E-04  0.4277E-06  0.1243E-02  0.3555E-02  0.5240E+03
   -1.020001   18.40157  0.0000E+00  0.3425E-04  0.3618E-06  0.1251E-02  0.3215E-02  0.3102E+02
   -1.062502   18.40398  0.0000E+00  0.3289E-04  0.3174E-06  0.1259E-02  0.2908E-02  0.2448E+02
   -1.105003   18.40604  0.0000E+00  0.3158E-04  0.2845E-06  0.1209E-02  0.2648E-02  0.1088E+03
   -1.147503   18.40857  0.0000E+00  0.3025E-04  0.2593E-06  0.1173E-02  0.2347E-02  0.2094E+02
   -1.190004   18.41069  0.0000E+00  0.2903E-04  0.2422E-06  0.1125E-02  0.2073E-02  0.1873E+02
   -1.232504   18.41286  0.0000E+00  0.2781E-04  0.2317E-06  0.1065E-02  0.1807E-02  0.3288E+02
   -1.275005   18.41520  0.0000E+00  0.2658E-04  0.2281E-06  0.1009E-02  0.1566E-02  0.5073E+03
   -1.317505   18.41787  0.0000E+00  0.2530E-04  0.2331E-06  0.9435E-03  0.1355E-02  0.1391E+03
   -1.360005   18.42102  0.0000E+00  0.2393E-04  0.2538E-06  0.8754E-03  0.1168E-02  0.7624E+03
   -1.402504   18.42536  0.0000E+00  0.2234E-04  0.3047E-06  0.7950E-03  0.1008E-02  0.4862E+04
   -1.445003   18.43071  0.0000E+00  0.2061E-04  0.4111E-06  0.6952E-03  0.8613E-03  0.2925E+04
   -1.487502   18.43909  0.0000E+00  0.1897E-04  0.5930E-06  0.6294E-03  0.6975E-03  0.1082E+06
   -1.530001   18.44564  0.0000E+00  0.1726E-04  0.1071E-05  0.4972E-03  0.5180E-03 -0.1759E+05
   -1.572499   18.48482  0.0000E+00  0.1582E-04  0.2134E-05  0.5224E-03  0.3381E-03  0.1432E+10
   -1.614997   18.45540  0.0000E+00  0.1353E-04  0.7405E-05  0.2931E-03  0.2700E-03 -0.2042E+10
   -1.657495   18.64240  0.0000E+00  0.1027E-04  0.1342E-04  0.2918E-03  0.1718E-03  0.6507E+07
   -1.699992   18.59897  0.0000E+00  0.0000E+00  0.0000E+00  0.0000E+00  0.3465E-03  0.0000E+00
