 1 - depth, m
 2 - temperature, C
 3 - salinity, kg/kg
 4 - turbulent kinetic energy, m**2/s**2
 5 - dissipation rate, m**2/s**3
 6 - kinematic heat conductance, m**2/s
 7 - modulus of horizontal velocity, m/s
 8 - Richardson number, n/d
   -0.000000    6.93407  0.0000E+00  0.8979E-02  0.1516E+00  0.2927E-03  0.2194E+01 -0.2366E-03
   -0.042497    7.24351  0.0000E+00  0.5042E-02  0.8642E-01  0.1307E-02  0.4235E+00 -0.6918E-02
   -0.084995    7.37065  0.0000E+00  0.3331E-02  0.2957E-01  0.1440E-02  0.2244E+00 -0.8030E-01
   -0.127493    7.42865  0.0000E+00  0.2662E-02  0.1790E-01  0.1536E-02  0.1690E+00  0.1239E-01
   -0.169991    7.45455  0.0000E+00  0.2231E-02  0.1278E-01  0.1436E-02  0.1397E+00 -0.2420E+00
   -0.212490    7.48006  0.0000E+00  0.1882E-02  0.9242E-02  0.1434E-02  0.1144E+00  0.1530E+01
   -0.254989    7.49600  0.0000E+00  0.1621E-02  0.7353E-02  0.1400E-02  0.9946E-01  0.1261E+01
   -0.297489    7.50504  0.0000E+00  0.1407E-02  0.5692E-02  0.1348E-02  0.9185E-01  0.2078E+01
   -0.339988    7.51401  0.0000E+00  0.1234E-02  0.4572E-02  0.1312E-02  0.8646E-01  0.1428E+01
   -0.382488    7.52120  0.0000E+00  0.1091E-02  0.3805E-02  0.1247E-02  0.8072E-01  0.6230E+01
   -0.424988    7.52903  0.0000E+00  0.9644E-03  0.3122E-02  0.1237E-02  0.7577E-01  0.4265E+01
   -0.467489    7.53576  0.0000E+00  0.8526E-03  0.2514E-02  0.1226E-02  0.6994E-01  0.1026E+02
   -0.509989    7.54199  0.0000E+00  0.7631E-03  0.1986E-02  0.1210E-02  0.6478E-01  0.1841E+02
   -0.552490    7.54868  0.0000E+00  0.6886E-03  0.1544E-02  0.1195E-02  0.5927E-01  0.2854E+03
   -0.594991    7.55569  0.0000E+00  0.6266E-03  0.1178E-02  0.1204E-02  0.5428E-01 -0.1247E+01
   -0.637492    7.56471  0.0000E+00  0.5729E-03  0.8802E-03  0.1223E-02  0.5006E-01  0.1709E+01
   -0.679993    7.56946  0.0000E+00  0.5255E-03  0.6478E-03  0.1240E-02  0.4673E-01 -0.1628E+03
   -0.722494    7.57562  0.0000E+00  0.4826E-03  0.4676E-03  0.1271E-02  0.4366E-01  0.2734E+02
   -0.764995    7.58128  0.0000E+00  0.4457E-03  0.3296E-03  0.1293E-02  0.4089E-01  0.6521E+01
   -0.807497    7.58694  0.0000E+00  0.4137E-03  0.2318E-03  0.1322E-02  0.3913E-01  0.2235E+02
   -0.849998    7.59135  0.0000E+00  0.3856E-03  0.1615E-03  0.1333E-02  0.3754E-01  0.6197E+03
   -0.892499    7.59737  0.0000E+00  0.3601E-03  0.1110E-03  0.1360E-02  0.3599E-01  0.3959E+03
   -0.935001    7.60148  0.0000E+00  0.3379E-03  0.7670E-04  0.1391E-02  0.3466E-01  0.3218E+02
   -0.977502    7.60751  0.0000E+00  0.3182E-03  0.5348E-04  0.1408E-02  0.3325E-01  0.1535E+02
   -1.020003    7.61159  0.0000E+00  0.3003E-03  0.3808E-04  0.1420E-02  0.3200E-01  0.3353E+02
   -1.062504    7.61742  0.0000E+00  0.2843E-03  0.2784E-04  0.1416E-02  0.3066E-01  0.5270E+03
   -1.105005    7.62152  0.0000E+00  0.2692E-03  0.2089E-04  0.1390E-02  0.2938E-01  0.1262E+03
   -1.147506    7.62711  0.0000E+00  0.2560E-03  0.1623E-04  0.1368E-02  0.2806E-01  0.6755E+03
   -1.190007    7.63177  0.0000E+00  0.2440E-03  0.1308E-04  0.1331E-02  0.2649E-01  0.4939E+02
   -1.232507    7.63790  0.0000E+00  0.2322E-03  0.1104E-04  0.1306E-02  0.2476E-01  0.1261E+02
   -1.275008    7.64271  0.0000E+00  0.2217E-03  0.9889E-05  0.1264E-02  0.2326E-01  0.1917E+04
   -1.317508    7.64835  0.0000E+00  0.2100E-03  0.9283E-05  0.1218E-02  0.2184E-01  0.5912E+03
   -1.360008    7.65468  0.0000E+00  0.1982E-03  0.9304E-05  0.1162E-02  0.2027E-01 -0.4661E+04
   -1.402507    7.66182  0.0000E+00  0.1861E-03  0.1009E-04  0.1093E-02  0.1900E-01  0.2666E+03
   -1.445007    7.67031  0.0000E+00  0.1745E-03  0.1178E-04  0.9585E-03  0.1783E-01  0.1939E+04
   -1.487506    7.68155  0.0000E+00  0.1609E-03  0.1532E-04  0.8321E-03  0.1584E-01  0.1047E+04
   -1.530005    7.70037  0.0000E+00  0.1461E-03  0.2149E-04  0.7459E-03  0.1265E-01  0.5931E+04
   -1.572503    7.72181  0.0000E+00  0.1322E-03  0.4709E-04  0.8060E-03  0.1004E-01 -0.4205E+07
   -1.615001    7.75613  0.0000E+00  0.1093E-03  0.1824E-03  0.5026E-03  0.8710E-02 -0.2945E+07
   -1.657499    7.91119  0.0000E+00  0.7793E-04  0.3214E-03  0.3938E-03  0.6715E-02 -0.4849E+08
   -1.699996    8.03119  0.0000E+00  0.0000E+00  0.0000E+00  0.0000E+00  0.9804E-02  0.0000E+00
