 1 - depth, m
 2 - temperature, C
 3 - salinity, kg/kg
 4 - turbulent kinetic energy, m**2/s**2
 5 - dissipation rate, m**2/s**3
 6 - kinematic heat conductance, m**2/s
 7 - modulus of horizontal velocity, m/s
 8 - Richardson number, n/d
   -0.000000   -0.00055  0.0000E+00  0.4786E-03  0.1038E-02  0.1053E-03  0.2970E+00  0.1516E-01
   -0.042521    0.06609  0.0000E+00  0.2660E-03  0.4377E-03  0.1948E-03  0.7578E-01  0.2452E-01
   -0.085043    0.10528  0.0000E+00  0.1823E-03  0.2084E-03  0.1651E-03  0.4821E-01  0.8399E-01
   -0.127565    0.14048  0.0000E+00  0.1371E-03  0.1248E-03  0.1528E-03  0.3837E-01  0.6677E-01
   -0.170087    0.17470  0.0000E+00  0.1051E-03  0.6150E-04  0.1430E-03  0.3148E-01  0.2084E+00
   -0.212610    0.21086  0.0000E+00  0.8045E-04  0.2989E-04  0.1346E-03  0.2565E-01  0.2232E+00
   -0.255133    0.25182  0.0000E+00  0.6209E-04  0.1276E-04  0.1255E-03  0.2106E-01  0.2004E+02
   -0.297656    0.29769  0.0000E+00  0.4875E-04  0.5391E-05  0.1138E-03  0.1793E-01  0.9494E+02
   -0.340180    0.35326  0.0000E+00  0.3864E-04  0.2829E-05  0.1020E-03  0.1567E-01  0.1195E+03
   -0.382704    0.41942  0.0000E+00  0.3088E-04  0.1630E-05  0.9109E-04  0.1362E-01  0.1265E+03
   -0.425228    0.51133  0.0000E+00  0.2490E-04  0.9768E-06  0.7877E-04  0.1208E-01  0.6294E+02
   -0.467752    0.65764  0.0000E+00  0.2018E-04  0.6110E-06  0.6893E-04  0.1022E-01  0.5312E+02
   -0.510277    0.91937  0.0000E+00  0.1662E-04  0.4125E-06  0.6159E-04  0.8245E-02  0.3623E+03
   -0.552802    1.36707  0.0000E+00  0.1391E-04  0.2946E-06  0.7580E-04  0.6378E-02  0.2911E+04
   -0.595326    1.87895  0.0000E+00  0.1185E-04  0.2170E-06  0.1182E-03  0.4744E-02  0.3359E+05
   -0.637851    2.27835  0.0000E+00  0.1003E-04  0.1627E-06  0.1824E-03  0.3561E-02  0.6110E+05
   -0.680376    2.52092  0.0000E+00  0.8487E-05  0.1224E-06  0.2262E-03  0.2728E-02  0.7396E+05
   -0.722902    2.90000  0.0000E+00  0.7302E-05  0.9229E-07  0.2676E-03  0.1993E-02  0.8937E+06
   -0.765427    3.14084  0.0000E+00  0.6372E-05  0.7069E-07  0.3079E-03  0.1550E-02  0.2055E+07
   -0.807952    3.27080  0.0000E+00  0.5580E-05  0.5447E-07  0.3429E-03  0.1286E-02  0.4175E+07
   -0.850477    3.40399  0.0000E+00  0.4915E-05  0.4172E-07  0.3694E-03  0.1063E-02  0.7721E+07
   -0.893003    3.52007  0.0000E+00  0.4384E-05  0.3192E-07  0.3906E-03  0.8724E-03  0.2053E+08
   -0.935528    3.68946  0.0000E+00  0.3943E-05  0.2418E-07  0.4171E-03  0.6990E-03  0.1886E+09
   -0.978053    3.85871  0.0000E+00  0.3609E-05  0.1847E-07  0.4386E-03  0.5192E-03  0.8430E+08
   -1.020578    4.04331  0.0000E+00  0.3344E-05  0.1349E-07  0.4560E-03  0.3605E-03  0.9079E+07
   -1.063103    4.25076  0.0000E+00  0.3234E-05  0.9932E-08  0.4754E-03  0.1625E-03  0.2678E+07
   -1.105628    4.33438  0.0000E+00  0.3232E-05  0.8654E-08  0.4906E-03  0.1139E-03  0.1445E+07
   -1.148153    4.36607  0.0000E+00  0.3253E-05  0.8020E-08  0.4985E-03  0.8644E-04  0.5762E+07
   -1.190678    4.38580  0.0000E+00  0.3283E-05  0.7709E-08  0.5020E-03  0.6449E-04  0.1836E+08
   -1.233202    4.40133  0.0000E+00  0.3320E-05  0.7601E-08  0.5008E-03  0.4796E-04  0.2094E+07
   -1.275727    4.41533  0.0000E+00  0.3362E-05  0.7649E-08  0.5027E-03  0.3678E-04  0.3555E+07
   -1.318251    4.42874  0.0000E+00  0.3408E-05  0.7847E-08  0.4803E-03  0.2877E-04  0.5896E+07
   -1.360774    4.44225  0.0000E+00  0.3457E-05  0.8193E-08  0.4773E-03  0.2271E-04  0.7637E+07
   -1.403298    4.45649  0.0000E+00  0.3507E-05  0.8746E-08  0.4399E-03  0.1819E-04  0.7706E+08
   -1.445821    4.47217  0.0000E+00  0.3551E-05  0.9484E-08  0.4187E-03  0.1456E-04  0.1589E+08
   -1.488344    4.48788  0.0000E+00  0.3593E-05  0.1051E-07  0.3894E-03  0.1130E-04  0.2120E+08
   -1.530867    4.50323  0.0000E+00  0.3643E-05  0.1224E-07  0.3371E-03  0.8367E-05  0.3395E+08
   -1.573390    4.52157  0.0000E+00  0.3709E-05  0.1618E-07  0.2767E-03  0.5958E-05  0.1019E+09
   -1.615912    4.55603  0.0000E+00  0.3673E-05  0.3067E-07  0.1552E-03  0.4356E-05 -0.2438E+12
   -1.658433    4.65465  0.0000E+00  0.2798E-05  0.9947E-07  0.3129E-04  0.2902E-05 -0.2921E+13
   -1.700955    5.06031  0.0000E+00  0.0000E+00  0.0000E+00  0.0000E+00  0.3067E-05  0.0000E+00
