 1 - depth, m
 2 - temperature, C
 3 - salinity, kg/kg
 4 - turbulent kinetic energy, m**2/s**2
 5 - dissipation rate, m**2/s**3
 6 - kinematic heat conductance, m**2/s
 7 - modulus of horizontal velocity, m/s
 8 - Richardson number, n/d
   -0.000000   -0.00121  0.0000E+00  0.6227E-03  0.1407E-02  0.1174E-03  0.3758E+00  0.3413E-02
   -0.042500    0.08485  0.0000E+00  0.3521E-03  0.5883E-03  0.2101E-03  0.9200E-01 -0.7718E-01
   -0.085001    0.13070  0.0000E+00  0.2402E-03  0.2346E-03  0.2087E-03  0.5649E-01  0.4871E-01
   -0.127502    0.16963  0.0000E+00  0.1827E-03  0.1226E-03  0.1897E-03  0.4517E-01  0.7055E-01
   -0.170003    0.20508  0.0000E+00  0.1419E-03  0.6340E-04  0.1781E-03  0.3732E-01  0.6313E-01
   -0.212505    0.24150  0.0000E+00  0.1108E-03  0.3477E-04  0.1674E-03  0.3074E-01  0.1894E+00
   -0.255007    0.28041  0.0000E+00  0.8640E-04  0.1795E-04  0.1582E-03  0.2554E-01  0.2131E+02
   -0.297509    0.32255  0.0000E+00  0.6859E-04  0.8789E-05  0.1474E-03  0.2204E-01  0.4870E+02
   -0.340012    0.36808  0.0000E+00  0.5538E-04  0.4267E-05  0.1357E-03  0.1945E-01  0.2512E+03
   -0.382514    0.41578  0.0000E+00  0.4521E-04  0.2359E-05  0.1237E-03  0.1706E-01  0.9230E+02
   -0.425018    0.46636  0.0000E+00  0.3732E-04  0.1428E-05  0.1105E-03  0.1527E-01  0.3883E+02
   -0.467521    0.51731  0.0000E+00  0.3091E-04  0.9682E-06  0.9709E-04  0.1340E-01  0.6852E+01
   -0.510024    0.57021  0.0000E+00  0.2547E-04  0.6838E-06  0.8248E-04  0.1152E-01  0.2973E+02
   -0.552528    0.63223  0.0000E+00  0.2075E-04  0.4944E-06  0.6722E-04  0.9679E-02  0.1721E+03
   -0.595032    0.70747  0.0000E+00  0.1647E-04  0.3601E-06  0.5237E-04  0.7791E-02  0.3552E+04
   -0.637536    0.81152  0.0000E+00  0.1252E-04  0.2570E-06  0.3762E-04  0.5990E-02  0.2917E+06
   -0.680040    1.00575  0.0000E+00  0.9149E-05  0.1781E-06  0.2399E-04  0.4462E-02  0.3357E+07
   -0.722544    1.40741  0.0000E+00  0.6465E-05  0.1159E-06  0.3285E-04  0.3066E-02  0.1354E+09
   -0.765048    2.11877  0.0000E+00  0.4716E-05  0.6968E-07  0.7283E-04  0.1905E-02  0.6659E+10
   -0.807552    2.99296  0.0000E+00  0.3753E-05  0.4137E-07  0.1784E-03  0.1152E-02  0.1408E+10
   -0.850056    3.58700  0.0000E+00  0.3203E-05  0.2509E-07  0.2707E-03  0.7116E-03  0.1060E+11
   -0.892561    3.97321  0.0000E+00  0.2962E-05  0.1597E-07  0.3242E-03  0.4054E-03  0.9879E+10
   -0.935065    4.19933  0.0000E+00  0.2883E-05  0.1159E-07  0.3713E-03  0.2530E-03  0.4923E+10
   -0.977569    4.27398  0.0000E+00  0.2873E-05  0.9426E-08  0.3984E-03  0.1763E-03  0.4299E+10
   -1.020073    4.30676  0.0000E+00  0.2895E-05  0.8260E-08  0.4202E-03  0.1315E-03  0.3977E+10
   -1.062577    4.32804  0.0000E+00  0.2933E-05  0.7626E-08  0.4364E-03  0.1010E-03  0.2403E+10
   -1.105081    4.34525  0.0000E+00  0.2979E-05  0.7285E-08  0.4493E-03  0.7997E-04  0.2187E+10
   -1.147585    4.36015  0.0000E+00  0.3029E-05  0.7125E-08  0.4571E-03  0.6425E-04  0.2500E+10
   -1.190088    4.37361  0.0000E+00  0.3079E-05  0.7096E-08  0.4599E-03  0.5175E-04  0.2127E+10
   -1.232592    4.38615  0.0000E+00  0.3132E-05  0.7170E-08  0.4595E-03  0.4193E-04  0.2368E+10
   -1.275095    4.39879  0.0000E+00  0.3188E-05  0.7342E-08  0.4557E-03  0.3412E-04  0.3542E+10
   -1.317598    4.41180  0.0000E+00  0.3247E-05  0.7622E-08  0.4471E-03  0.2785E-04  0.3516E+10
   -1.360101    4.42559  0.0000E+00  0.3308E-05  0.8035E-08  0.4339E-03  0.2273E-04  0.5335E+10
   -1.402604    4.44060  0.0000E+00  0.3368E-05  0.8621E-08  0.4430E-03  0.1861E-04  0.9761E+10
   -1.445106    4.45636  0.0000E+00  0.3423E-05  0.9391E-08  0.3893E-03  0.1522E-04  0.2998E+11
   -1.487608    4.47319  0.0000E+00  0.3472E-05  0.1039E-07  0.3623E-03  0.1209E-04  0.2230E+12
   -1.530110    4.48996  0.0000E+00  0.3529E-05  0.1208E-07  0.3188E-03  0.9115E-05  0.3468E+11
   -1.572611    4.50976  0.0000E+00  0.3602E-05  0.1589E-07  0.2598E-03  0.6595E-05  0.4808E+11
   -1.615112    4.54715  0.0000E+00  0.3583E-05  0.2964E-07  0.1489E-03  0.4856E-05  0.3831E+12
   -1.657613    4.64874  0.0000E+00  0.2754E-05  0.9540E-07  0.3004E-04  0.3229E-05 -0.3786E+14
   -1.700113    5.07375  0.0000E+00  0.0000E+00  0.0000E+00  0.0000E+00  0.3369E-05  0.0000E+00
