 1 - depth, m
 2 - temperature, C
 3 - salinity, kg/kg
 4 - turbulent kinetic energy, m**2/s**2
 5 - dissipation rate, m**2/s**3
 6 - kinematic heat conductance, m**2/s
 7 - modulus of horizontal velocity, m/s
 8 - Richardson number, n/d
   -0.000000    4.36329  0.0000E+00  0.4958E-02  0.1482E+00  0.2465E-03  0.1369E+01  0.9479E-03
   -0.042498    4.89794  0.0000E+00  0.2421E-02  0.1013E+00  0.5490E-03  0.2844E+00  0.9611E-01
   -0.084996    5.28111  0.0000E+00  0.1561E-02  0.3720E-01  0.8499E-03  0.1388E+00 -0.5731E-01
   -0.127494    5.40060  0.0000E+00  0.1189E-02  0.2344E-01  0.7750E-03  0.1022E+00 -0.1084E+00
   -0.169993    5.44574  0.0000E+00  0.9398E-03  0.1555E-01  0.6892E-03  0.8195E-01 -0.2466E+01
   -0.212493    5.48514  0.0000E+00  0.7566E-03  0.1055E-01  0.6775E-03  0.6595E-01 -0.4671E-01
   -0.254992    5.51819  0.0000E+00  0.6265E-03  0.7920E-02  0.6366E-03  0.5399E-01  0.1953E+02
   -0.297492    5.53670  0.0000E+00  0.5213E-03  0.5911E-02  0.6262E-03  0.4735E-01  0.1523E+02
   -0.339992    5.55539  0.0000E+00  0.4424E-03  0.4419E-02  0.6156E-03  0.4336E-01  0.1744E+02
   -0.382493    5.57322  0.0000E+00  0.3812E-03  0.3342E-02  0.6178E-03  0.3949E-01  0.1370E+02
   -0.424993    5.58668  0.0000E+00  0.3285E-03  0.2483E-02  0.6100E-03  0.3748E-01  0.1020E+02
   -0.467494    5.59926  0.0000E+00  0.2858E-03  0.1818E-02  0.5968E-03  0.3431E-01  0.4128E+02
   -0.509995    5.61292  0.0000E+00  0.2524E-03  0.1311E-02  0.6142E-03  0.3081E-01  0.1003E+04
   -0.552496    5.62401  0.0000E+00  0.2248E-03  0.9295E-03  0.6240E-03  0.2776E-01  0.5520E+02
   -0.594998    5.63794  0.0000E+00  0.2010E-03  0.6515E-03  0.6341E-03  0.2426E-01  0.2561E+03
   -0.637499    5.65038  0.0000E+00  0.1808E-03  0.4505E-03  0.6638E-03  0.2124E-01  0.3082E+02
   -0.680001    5.66111  0.0000E+00  0.1638E-03  0.3085E-03  0.6829E-03  0.1931E-01 -0.8867E+01
   -0.722502    5.67085  0.0000E+00  0.1493E-03  0.2098E-03  0.7152E-03  0.1761E-01  0.1728E+03
   -0.765004    5.68179  0.0000E+00  0.1367E-03  0.1417E-03  0.7443E-03  0.1624E-01 -0.2143E+03
   -0.807506    5.69090  0.0000E+00  0.1256E-03  0.9488E-04  0.7832E-03  0.1525E-01 -0.5361E+05
   -0.850007    5.70147  0.0000E+00  0.1161E-03  0.6372E-04  0.8124E-03  0.1433E-01  0.4739E+02
   -0.892509    5.70958  0.0000E+00  0.1075E-03  0.4280E-04  0.8316E-03  0.1346E-01  0.2565E+04
   -0.935011    5.71970  0.0000E+00  0.9998E-04  0.2908E-04  0.8545E-03  0.1273E-01  0.1722E+04
   -0.977513    5.72749  0.0000E+00  0.9332E-04  0.1981E-04  0.8666E-03  0.1196E-01  0.1331E+04
   -1.020014    5.73787  0.0000E+00  0.8728E-04  0.1357E-04  0.8869E-03  0.1126E-01  0.2613E+03
   -1.062516    5.74399  0.0000E+00  0.8194E-04  0.9201E-05  0.8893E-03  0.1057E-01  0.1204E+03
   -1.105017    5.75497  0.0000E+00  0.7717E-04  0.6412E-05  0.8937E-03  0.9965E-02  0.8753E+02
   -1.147519    5.75986  0.0000E+00  0.7296E-04  0.4559E-05  0.8850E-03  0.9341E-02  0.8778E+02
   -1.190020    5.77105  0.0000E+00  0.6921E-04  0.3368E-05  0.8766E-03  0.8567E-02  0.7977E+02
   -1.232521    5.77614  0.0000E+00  0.6564E-04  0.2593E-05  0.8539E-03  0.7804E-02  0.2199E+03
   -1.275022    5.78644  0.0000E+00  0.6216E-04  0.2108E-05  0.8429E-03  0.7159E-02  0.3676E+03
   -1.317522    5.79329  0.0000E+00  0.5872E-04  0.1835E-05  0.8081E-03  0.6565E-02  0.1797E+04
   -1.360023    5.80320  0.0000E+00  0.5519E-04  0.1725E-05  0.7674E-03  0.6010E-02  0.2190E+06
   -1.402523    5.81382  0.0000E+00  0.5145E-04  0.1771E-05  0.7184E-03  0.5516E-02  0.4422E+06
   -1.445023    5.82618  0.0000E+00  0.4779E-04  0.2001E-05  0.6347E-03  0.5045E-02  0.1061E+05
   -1.487522    5.84029  0.0000E+00  0.4378E-04  0.2565E-05  0.5690E-03  0.4385E-02  0.3294E+04
   -1.530022    5.85963  0.0000E+00  0.3963E-04  0.3818E-05  0.4961E-03  0.3315E-02  0.1130E+06
   -1.572521    5.88726  0.0000E+00  0.3575E-04  0.6327E-05  0.4979E-03  0.2527E-02 -0.1375E+07
   -1.615019    5.91780  0.0000E+00  0.2986E-04  0.1752E-04  0.2854E-03  0.2176E-02  0.8186E+07
   -1.657517    6.11472  0.0000E+00  0.2145E-04  0.3553E-04  0.2185E-03  0.1661E-02 -0.1290E+09
   -1.700015    6.24345  0.0000E+00  0.0000E+00  0.0000E+00  0.0000E+00  0.2739E-02  0.0000E+00
