 1 - depth, m
 2 - temperature, C
 3 - salinity, kg/kg
 4 - turbulent kinetic energy, m**2/s**2
 5 - dissipation rate, m**2/s**3
 6 - kinematic heat conductance, m**2/s
 7 - modulus of horizontal velocity, m/s
 8 - Richardson number, n/d
   -0.000000    8.46079  0.0000E+00  0.1185E-02  0.8708E-02  0.1027E-03  0.4070E+00  0.4088E-01
   -0.042498    8.67932  0.0000E+00  0.5775E-03  0.4191E-02  0.2957E-03  0.8630E-01 -0.8508E-01
   -0.084996    8.76406  0.0000E+00  0.3920E-03  0.1600E-02  0.3287E-03  0.5122E-01 -0.6010E+00
   -0.127494    8.80060  0.0000E+00  0.2974E-03  0.8708E-03  0.2926E-03  0.4042E-01  0.5529E+00
   -0.169993    8.82280  0.0000E+00  0.2312E-03  0.5643E-03  0.2864E-03  0.3326E-01  0.2371E+01
   -0.212492    8.84207  0.0000E+00  0.1808E-03  0.3759E-03  0.2937E-03  0.2757E-01  0.3392E+02
   -0.254991    8.86307  0.0000E+00  0.1439E-03  0.2670E-03  0.3179E-03  0.2311E-01  0.3144E+02
   -0.297491    8.87628  0.0000E+00  0.1161E-03  0.1903E-03  0.3480E-03  0.2026E-01  0.2107E+02
   -0.339991    8.88868  0.0000E+00  0.9612E-04  0.1357E-03  0.3683E-03  0.1805E-01  0.5198E+02
   -0.382491    8.90100  0.0000E+00  0.8081E-04  0.9661E-04  0.4026E-03  0.1577E-01  0.9653E+02
   -0.424991    8.91173  0.0000E+00  0.6935E-04  0.7012E-04  0.4294E-03  0.1415E-01  0.1040E+03
   -0.467492    8.92169  0.0000E+00  0.6075E-04  0.5073E-04  0.4673E-03  0.1236E-01  0.4599E+03
   -0.509993    8.93133  0.0000E+00  0.5419E-04  0.3710E-04  0.5166E-03  0.1073E-01  0.1381E+03
   -0.552494    8.93930  0.0000E+00  0.4900E-04  0.2606E-04  0.5674E-03  0.9373E-02  0.8065E+02
   -0.594995    8.94586  0.0000E+00  0.4470E-04  0.1743E-04  0.6312E-03  0.8137E-02  0.1432E+04
   -0.637496    8.95322  0.0000E+00  0.4109E-04  0.1150E-04  0.6980E-03  0.7013E-02  0.1073E+04
   -0.679998    8.95768  0.0000E+00  0.3812E-04  0.7176E-05  0.7691E-03  0.6161E-02  0.2770E+02
   -0.722499    8.96343  0.0000E+00  0.3560E-04  0.4598E-05  0.8410E-03  0.5407E-02  0.6585E+02
   -0.765001    8.96727  0.0000E+00  0.3341E-04  0.2701E-05  0.9117E-03  0.4784E-02  0.7887E+03
   -0.807503    8.97242  0.0000E+00  0.3151E-04  0.1880E-05  0.9715E-03  0.4270E-02  0.5496E+02
   -0.850004    8.97633  0.0000E+00  0.2988E-04  0.1487E-05  0.1012E-02  0.3825E-02 -0.9626E+02
   -0.892506    8.98045  0.0000E+00  0.2841E-04  0.1117E-05  0.1037E-02  0.3430E-02 -0.3455E+01
   -0.935007    8.98495  0.0000E+00  0.2704E-04  0.6578E-06  0.1066E-02  0.3073E-02  0.5097E+03
   -0.977509    8.98852  0.0000E+00  0.2579E-04  0.4199E-06  0.1066E-02  0.2756E-02  0.3153E+02
   -1.020010    8.99295  0.0000E+00  0.2473E-04  0.2890E-06  0.1174E-02  0.2458E-02  0.9781E+02
   -1.062512    8.99623  0.0000E+00  0.2386E-04  0.2222E-06  0.1122E-02  0.2239E-02  0.5288E+02
   -1.105013    9.00037  0.0000E+00  0.2301E-04  0.1851E-06  0.1066E-02  0.2041E-02  0.1619E+02
   -1.147514    9.00400  0.0000E+00  0.2211E-04  0.1621E-06  0.1046E-02  0.1798E-02  0.1731E+02
   -1.190015    9.00804  0.0000E+00  0.2130E-04  0.1492E-06  0.1010E-02  0.1568E-02  0.1854E+02
   -1.232516    9.01174  0.0000E+00  0.2052E-04  0.1420E-06  0.9821E-03  0.1347E-02  0.1930E+02
   -1.275017    9.01584  0.0000E+00  0.1975E-04  0.1397E-06  0.9293E-03  0.1157E-02  0.3742E+02
   -1.317517    9.02046  0.0000E+00  0.1898E-04  0.1431E-06  0.8782E-03  0.9910E-03  0.3138E+02
   -1.360018    9.02572  0.0000E+00  0.1815E-04  0.1556E-06  0.8063E-03  0.8470E-03  0.1032E+04
   -1.402517    9.03313  0.0000E+00  0.1720E-04  0.1835E-06  0.7520E-03  0.7257E-03  0.2554E+03
   -1.445017    9.04126  0.0000E+00  0.1616E-04  0.2406E-06  0.6634E-03  0.6177E-03  0.1362E+04
   -1.487517    9.05551  0.0000E+00  0.1514E-04  0.3377E-06  0.6015E-03  0.4972E-03  0.3354E+04
   -1.530016    9.06674  0.0000E+00  0.1404E-04  0.5869E-06  0.4677E-03  0.3642E-03  0.9484E+05
   -1.572514    9.12543  0.0000E+00  0.1310E-04  0.1140E-05  0.4779E-03  0.2422E-03  0.4698E+10
   -1.615013    9.08591  0.0000E+00  0.1126E-04  0.3476E-05  0.2348E-03  0.1976E-03 -0.4834E+10
   -1.657511    9.41974  0.0000E+00  0.8526E-05  0.6724E-05  0.2290E-03  0.1255E-03 -0.1327E+08
   -1.700008    9.34703  0.0000E+00  0.0000E+00  0.0000E+00  0.0000E+00  0.2429E-03  0.0000E+00
