 1 - depth, m
 2 - temperature, C
 3 - salinity, kg/kg
 4 - turbulent kinetic energy, m**2/s**2
 5 - dissipation rate, m**2/s**3
 6 - kinematic heat conductance, m**2/s
 7 - modulus of horizontal velocity, m/s
 8 - Richardson number, n/d
   -0.000000   12.36742  0.0000E+00  0.1431E-02  0.1257E-01  0.1743E-03  0.5695E+00  0.8579E-02
   -0.042497   12.87926  0.0000E+00  0.7034E-03  0.7042E-02  0.2425E-03  0.1249E+00  0.1015E+00
   -0.084995   13.20206  0.0000E+00  0.4464E-03  0.2427E-02  0.3115E-03  0.6729E-01  0.3520E+00
   -0.127492   13.30409  0.0000E+00  0.3256E-03  0.1228E-02  0.3001E-03  0.5128E-01  0.1750E+02
   -0.169991   13.35672  0.0000E+00  0.2468E-03  0.6712E-03  0.2796E-03  0.4083E-01  0.1260E+01
   -0.212489   13.39388  0.0000E+00  0.1896E-03  0.3899E-03  0.3081E-03  0.3273E-01  0.3383E+01
   -0.254988   13.42361  0.0000E+00  0.1499E-03  0.2209E-03  0.3607E-03  0.2661E-01  0.1647E+02
   -0.297487   13.45214  0.0000E+00  0.1213E-03  0.1331E-03  0.4270E-03  0.2297E-01  0.2161E+02
   -0.339987   13.46713  0.0000E+00  0.1006E-03  0.7790E-04  0.4782E-03  0.2041E-01  0.1185E+03
   -0.382486   13.48354  0.0000E+00  0.8524E-04  0.4367E-04  0.5278E-03  0.1777E-01  0.2615E+03
   -0.424986   13.49517  0.0000E+00  0.7401E-04  0.2488E-04  0.5707E-03  0.1597E-01  0.1643E+03
   -0.467486   13.50831  0.0000E+00  0.6581E-04  0.1434E-04  0.6160E-03  0.1398E-01  0.3355E+03
   -0.509987   13.51872  0.0000E+00  0.5939E-04  0.8198E-05  0.6989E-03  0.1212E-01  0.1629E+03
   -0.552487   13.53014  0.0000E+00  0.5477E-04  0.4976E-05  0.7631E-03  0.1055E-01  0.8899E+03
   -0.594988   13.53709  0.0000E+00  0.5122E-04  0.3125E-05  0.8187E-03  0.9210E-02  0.3474E+03
   -0.637489   13.54419  0.0000E+00  0.4817E-04  0.2069E-05  0.8834E-03  0.8033E-02  0.1394E+03
   -0.679989   13.55129  0.0000E+00  0.4547E-04  0.1306E-05  0.9500E-03  0.6971E-02  0.5831E+02
   -0.722490   13.55662  0.0000E+00  0.4331E-04  0.9072E-06  0.1016E-02  0.6151E-02  0.6377E+05
   -0.764991   13.56181  0.0000E+00  0.4144E-04  0.6860E-06  0.1075E-02  0.5468E-02  0.1057E+04
   -0.807493   13.56582  0.0000E+00  0.3965E-04  0.5466E-06  0.1112E-02  0.4874E-02  0.1426E+04
   -0.849994   13.57069  0.0000E+00  0.3803E-04  0.4492E-06  0.1141E-02  0.4348E-02  0.6011E+03
   -0.892495   13.57502  0.0000E+00  0.3651E-04  0.3800E-06  0.1171E-02  0.3885E-02  0.1163E+04
   -0.934996   13.57928  0.0000E+00  0.3510E-04  0.3304E-06  0.1197E-02  0.3473E-02  0.3281E+03
   -0.977497   13.58349  0.0000E+00  0.3375E-04  0.2901E-06  0.1214E-02  0.3097E-02  0.5426E+02
   -1.019998   13.58753  0.0000E+00  0.3253E-04  0.2604E-06  0.1230E-02  0.2779E-02  0.4012E+03
   -1.062499   13.59153  0.0000E+00  0.3129E-04  0.2369E-06  0.1207E-02  0.2477E-02  0.9053E+02
   -1.104999   13.59528  0.0000E+00  0.3010E-04  0.2192E-06  0.1181E-02  0.2205E-02  0.4228E+03
   -1.147500   13.59927  0.0000E+00  0.2889E-04  0.2066E-06  0.1134E-02  0.1933E-02  0.9201E+02
   -1.190001   13.60316  0.0000E+00  0.2777E-04  0.2000E-06  0.1094E-02  0.1675E-02  0.1602E+03
   -1.232501   13.60731  0.0000E+00  0.2666E-04  0.1995E-06  0.1027E-02  0.1428E-02  0.3834E+03
   -1.275001   13.61172  0.0000E+00  0.2555E-04  0.2058E-06  0.9853E-03  0.1221E-02  0.1594E+03
   -1.317501   13.61685  0.0000E+00  0.2437E-04  0.2238E-06  0.9070E-03  0.1033E-02  0.3368E+03
   -1.360001   13.62320  0.0000E+00  0.2308E-04  0.2626E-06  0.8593E-03  0.8791E-03  0.1185E+04
   -1.402500   13.63157  0.0000E+00  0.2154E-04  0.3447E-06  0.7845E-03  0.7460E-03  0.1588E+05
   -1.444999   13.64262  0.0000E+00  0.1990E-04  0.4997E-06  0.6966E-03  0.6259E-03  0.7446E+05
   -1.487498   13.65822  0.0000E+00  0.1842E-04  0.7917E-06  0.6326E-03  0.4930E-03  0.1211E+06
   -1.529997   13.67017  0.0000E+00  0.1693E-04  0.1527E-05  0.5004E-03  0.3561E-03 -0.4856E+06
   -1.572495   13.75222  0.0000E+00  0.1576E-04  0.2757E-05  0.5349E-03  0.2226E-03  0.4327E+12
   -1.614993   13.67633  0.0000E+00  0.1359E-04  0.8737E-05  0.3113E-03  0.1816E-03 -0.2101E+12
   -1.657490   14.01480  0.0000E+00  0.1061E-04  0.1548E-04  0.3396E-03  0.1130E-03  0.6521E+07
   -1.699987   13.93291  0.0000E+00  0.0000E+00  0.0000E+00  0.0000E+00  0.2457E-03  0.0000E+00
