 1 - depth, m
 2 - temperature, C
 3 - salinity, kg/kg
 4 - turbulent kinetic energy, m**2/s**2
 5 - dissipation rate, m**2/s**3
 6 - kinematic heat conductance, m**2/s
 7 - modulus of horizontal velocity, m/s
 8 - Richardson number, n/d
   -0.000000    8.75769  0.0000E+00  0.2960E-02  0.7550E-01  0.2631E-03  0.1018E+01 -0.4204E-03
   -0.042497    9.02425  0.0000E+00  0.1479E-02  0.5277E-01  0.3147E-03  0.2312E+00  0.2220E-01
   -0.084995    9.30062  0.0000E+00  0.8605E-03  0.1600E-01  0.4412E-03  0.1115E+00 -0.5854E-01
   -0.127493    9.36639  0.0000E+00  0.6238E-03  0.9990E-02  0.4048E-03  0.7884E-01  0.2291E+00
   -0.169991    9.38784  0.0000E+00  0.4867E-03  0.7117E-02  0.3812E-03  0.6118E-01  0.2110E+00
   -0.212490    9.41415  0.0000E+00  0.3777E-03  0.5200E-02  0.3759E-03  0.4835E-01 -0.8701E+01
   -0.254989    9.44762  0.0000E+00  0.3083E-03  0.4011E-02  0.4297E-03  0.3941E-01  0.1217E+03
   -0.297488    9.46024  0.0000E+00  0.2579E-03  0.3140E-02  0.4425E-03  0.3473E-01 -0.6646E+02
   -0.339988    9.47025  0.0000E+00  0.2179E-03  0.2426E-02  0.4552E-03  0.3153E-01  0.9247E+02
   -0.382487    9.48138  0.0000E+00  0.1851E-03  0.1861E-02  0.4800E-03  0.2823E-01  0.8079E+02
   -0.424988    9.48815  0.0000E+00  0.1603E-03  0.1419E-02  0.4885E-03  0.2632E-01 -0.3462E+02
   -0.467488    9.49709  0.0000E+00  0.1413E-03  0.1065E-02  0.4989E-03  0.2360E-01  0.3993E+04
   -0.509988    9.50634  0.0000E+00  0.1256E-03  0.7871E-03  0.5357E-03  0.2085E-01  0.2067E+03
   -0.552489    9.51516  0.0000E+00  0.1127E-03  0.5794E-03  0.5749E-03  0.1859E-01  0.2362E+03
   -0.594990    9.52309  0.0000E+00  0.1024E-03  0.4293E-03  0.6429E-03  0.1629E-01  0.2019E+03
   -0.637491    9.53184  0.0000E+00  0.9344E-04  0.3113E-03  0.7200E-03  0.1428E-01  0.9266E+02
   -0.679992    9.53810  0.0000E+00  0.8602E-04  0.2199E-03  0.7903E-03  0.1293E-01  0.1090E+03
   -0.722493    9.54366  0.0000E+00  0.7964E-04  0.1535E-03  0.8615E-03  0.1173E-01  0.8718E+05
   -0.764994    9.54880  0.0000E+00  0.7416E-04  0.1037E-03  0.9379E-03  0.1075E-01 -0.1816E+03
   -0.807495    9.55386  0.0000E+00  0.6935E-04  0.7219E-04  0.9982E-03  0.9962E-02 -0.4226E+03
   -0.849996    9.55772  0.0000E+00  0.6511E-04  0.5023E-04  0.1051E-02  0.9253E-02  0.4705E+06
   -0.892498    9.56259  0.0000E+00  0.6135E-04  0.3358E-04  0.1087E-02  0.8603E-02  0.1082E+03
   -0.934999    9.56677  0.0000E+00  0.5795E-04  0.2273E-04  0.1128E-02  0.8019E-02  0.7367E+03
   -0.977500    9.57051  0.0000E+00  0.5487E-04  0.1456E-04  0.1167E-02  0.7446E-02  0.5099E+03
   -1.020001    9.57491  0.0000E+00  0.5206E-04  0.9033E-05  0.1174E-02  0.6914E-02  0.1350E+04
   -1.062502    9.57859  0.0000E+00  0.4948E-04  0.5364E-05  0.1177E-02  0.6390E-02  0.1310E+03
   -1.105003    9.58277  0.0000E+00  0.4709E-04  0.3271E-05  0.1168E-02  0.5891E-02  0.1124E+02
   -1.147504    9.58641  0.0000E+00  0.4487E-04  0.2052E-05  0.1158E-02  0.5368E-02  0.1028E+03
   -1.190004    9.59059  0.0000E+00  0.4282E-04  0.1292E-05  0.1126E-02  0.4838E-02  0.6777E+02
   -1.232505    9.59396  0.0000E+00  0.4080E-04  0.8660E-06  0.1090E-02  0.4318E-02  0.9135E+02
   -1.275005    9.59844  0.0000E+00  0.3875E-04  0.6558E-06  0.1039E-02  0.3843E-02  0.1058E+03
   -1.317505    9.60239  0.0000E+00  0.3664E-04  0.5461E-06  0.9852E-03  0.3405E-02  0.1921E+03
   -1.360005    9.60785  0.0000E+00  0.3439E-04  0.5381E-06  0.9077E-03  0.3004E-02 -0.5796E+03
   -1.402505    9.61354  0.0000E+00  0.3196E-04  0.5819E-06  0.8427E-03  0.2651E-02  0.3569E+04
   -1.445004    9.62174  0.0000E+00  0.2954E-04  0.7106E-06  0.7311E-03  0.2331E-02  0.1786E+04
   -1.487503    9.63221  0.0000E+00  0.2707E-04  0.9817E-06  0.6706E-03  0.1948E-02  0.5961E+05
   -1.530002    9.64479  0.0000E+00  0.2453E-04  0.1616E-05  0.5271E-03  0.1477E-02  0.5723E+06
   -1.572500    9.68296  0.0000E+00  0.2226E-04  0.3026E-05  0.5437E-03  0.1056E-02  0.2926E+08
   -1.614998    9.67223  0.0000E+00  0.1852E-04  0.9085E-05  0.2836E-03  0.8607E-03 -0.4564E+10
   -1.657495    9.92790  0.0000E+00  0.1356E-04  0.1786E-04  0.2566E-03  0.5991E-03 -0.1201E+09
   -1.699993    9.91853  0.0000E+00  0.0000E+00  0.0000E+00  0.0000E+00  0.1088E-02  0.0000E+00
