 1 - depth, m
 2 - temperature, C
 3 - salinity, kg/kg
 4 - turbulent kinetic energy, m**2/s**2
 5 - dissipation rate, m**2/s**3
 6 - kinematic heat conductance, m**2/s
 7 - modulus of horizontal velocity, m/s
 8 - Richardson number, n/d
   -0.000000   17.33280  0.0000E+00  0.7486E-03  0.5047E-02  0.1405E-03  0.3282E+00  0.3090E-01
   -0.042497   17.57919  0.0000E+00  0.3689E-03  0.1821E-02  0.2054E-03  0.7112E-01 -0.6582E-01
   -0.084995   17.67297  0.0000E+00  0.2485E-03  0.7175E-03  0.2136E-03  0.4072E-01  0.1345E+02
   -0.127493   17.71592  0.0000E+00  0.1831E-03  0.3172E-03  0.2170E-03  0.3162E-01  0.1366E+01
   -0.169991   17.74074  0.0000E+00  0.1365E-03  0.1516E-03  0.2345E-03  0.2534E-01  0.5556E+01
   -0.212489   17.76122  0.0000E+00  0.1032E-03  0.7739E-04  0.2806E-03  0.2031E-01  0.2129E+02
   -0.254988   17.77958  0.0000E+00  0.7880E-04  0.3964E-04  0.3351E-03  0.1656E-01  0.1973E+02
   -0.297488   17.79419  0.0000E+00  0.6190E-04  0.2042E-04  0.3931E-03  0.1403E-01  0.4391E+02
   -0.339987   17.80616  0.0000E+00  0.5077E-04  0.1062E-04  0.4357E-03  0.1214E-01  0.6862E+02
   -0.382487   17.81503  0.0000E+00  0.4309E-04  0.5474E-05  0.4875E-03  0.1037E-01  0.1149E+03
   -0.424987   17.82270  0.0000E+00  0.3784E-04  0.2926E-05  0.5331E-03  0.9012E-02  0.1282E+03
   -0.467487   17.82931  0.0000E+00  0.3423E-04  0.1632E-05  0.5822E-03  0.7705E-02  0.2805E+03
   -0.509987   17.83546  0.0000E+00  0.3184E-04  0.1016E-05  0.6455E-03  0.6561E-02  0.1851E+04
   -0.552488   17.84001  0.0000E+00  0.3017E-04  0.6791E-06  0.7034E-03  0.5631E-02  0.1278E+03
   -0.594989   17.84403  0.0000E+00  0.2894E-04  0.4887E-06  0.7491E-03  0.4831E-02  0.4204E+03
   -0.637490   17.84759  0.0000E+00  0.2798E-04  0.3717E-06  0.8151E-03  0.4125E-02  0.1386E+03
   -0.679991   17.85082  0.0000E+00  0.2723E-04  0.3010E-06  0.8815E-03  0.3541E-02  0.1218E+03
   -0.722492   17.85377  0.0000E+00  0.2660E-04  0.2533E-06  0.9301E-03  0.3042E-02  0.1355E+02
   -0.764993   17.85662  0.0000E+00  0.2602E-04  0.2183E-06  0.9917E-03  0.2613E-02 -0.1062E+01
   -0.807494   17.85925  0.0000E+00  0.2545E-04  0.1907E-06  0.1042E-02  0.2263E-02 -0.6381E+01
   -0.849995   17.86197  0.0000E+00  0.2491E-04  0.1696E-06  0.1111E-02  0.1959E-02 -0.1682E+02
   -0.892496   17.86435  0.0000E+00  0.2443E-04  0.1545E-06  0.1204E-02  0.1708E-02 -0.8740E+01
   -0.934997   17.86665  0.0000E+00  0.2399E-04  0.1434E-06  0.1224E-02  0.1526E-02  0.8379E+03
   -0.977498   17.86888  0.0000E+00  0.2352E-04  0.1347E-06  0.1182E-02  0.1364E-02  0.2610E+02
   -1.019999   17.87118  0.0000E+00  0.2298E-04  0.1278E-06  0.1170E-02  0.1201E-02  0.1122E+04
   -1.062500   17.87351  0.0000E+00  0.2242E-04  0.1232E-06  0.1156E-02  0.1058E-02 -0.1566E+05
   -1.105001   17.87583  0.0000E+00  0.2186E-04  0.1211E-06  0.1123E-02  0.9327E-03  0.1561E+03
   -1.147502   17.87821  0.0000E+00  0.2131E-04  0.1214E-06  0.1092E-02  0.8187E-03  0.8249E+01
   -1.190003   17.88059  0.0000E+00  0.2077E-04  0.1243E-06  0.1044E-02  0.7136E-03  0.2851E+02
   -1.232503   17.88304  0.0000E+00  0.2023E-04  0.1308E-06  0.1000E-02  0.6161E-03  0.3005E+02
   -1.275003   17.88572  0.0000E+00  0.1965E-04  0.1427E-06  0.9454E-03  0.5343E-03  0.1370E+03
   -1.317503   17.88902  0.0000E+00  0.1898E-04  0.1652E-06  0.8952E-03  0.4641E-03  0.7862E+05
   -1.360003   17.89322  0.0000E+00  0.1816E-04  0.2034E-06  0.8216E-03  0.4004E-03  0.2518E+05
   -1.402502   17.89936  0.0000E+00  0.1710E-04  0.2737E-06  0.7496E-03  0.3435E-03 -0.6586E+04
   -1.445002   17.90668  0.0000E+00  0.1589E-04  0.3970E-06  0.6475E-03  0.2882E-03  0.2155E+05
   -1.487501   17.91712  0.0000E+00  0.1487E-04  0.5753E-06  0.5823E-03  0.2257E-03  0.3195E+07
   -1.529999   17.92715  0.0000E+00  0.1376E-04  0.1068E-05  0.4767E-03  0.1649E-03  0.3980E+06
   -1.572497   17.97990  0.0000E+00  0.1294E-04  0.1891E-05  0.5056E-03  0.1059E-03  0.1329E+11
   -1.614995   17.93029  0.0000E+00  0.1123E-04  0.6171E-05  0.2816E-03  0.8826E-04 -0.8385E+10
   -1.657493   18.16952  0.0000E+00  0.8873E-05  0.1120E-04  0.3227E-03  0.5465E-04 -0.2173E+06
   -1.699990   18.10283  0.0000E+00  0.0000E+00  0.0000E+00  0.0000E+00  0.1233E-03  0.0000E+00
