 1 - depth, m
 2 - temperature, C
 3 - salinity, kg/kg
 4 - turbulent kinetic energy, m**2/s**2
 5 - dissipation rate, m**2/s**3
 6 - kinematic heat conductance, m**2/s
 7 - modulus of horizontal velocity, m/s
 8 - Richardson number, n/d
   -0.000000    7.03755  0.0000E+00  0.3690E-05  0.1539E-06  0.2988E-04  0.2396E-02  0.4650E+05
   -0.042497    7.14111  0.0000E+00  0.5315E-05  0.6745E-07  0.1346E-03  0.9583E-03  0.2539E+03
   -0.084995    7.17226  0.0000E+00  0.6196E-05  0.4910E-07  0.2790E-03  0.6588E-03  0.1343E+03
   -0.127493    7.18260  0.0000E+00  0.6844E-05  0.4234E-07  0.3406E-03  0.5487E-03  0.7004E+02
   -0.169991    7.19123  0.0000E+00  0.7427E-05  0.3830E-07  0.4453E-03  0.4598E-03  0.5697E+02
   -0.212490    7.19799  0.0000E+00  0.7959E-05  0.3572E-07  0.5384E-03  0.3918E-03  0.5103E+02
   -0.254989    7.20372  0.0000E+00  0.8448E-05  0.3397E-07  0.6344E-03  0.3382E-03  0.4950E+02
   -0.297488    7.20876  0.0000E+00  0.8899E-05  0.3274E-07  0.7270E-03  0.2964E-03  0.4931E+02
   -0.339988    7.21328  0.0000E+00  0.9305E-05  0.3188E-07  0.8139E-03  0.2628E-03  0.5078E+02
   -0.382488    7.21737  0.0000E+00  0.9673E-05  0.3129E-07  0.8945E-03  0.2348E-03  0.5010E+02
   -0.424988    7.22114  0.0000E+00  0.1000E-04  0.3089E-07  0.9682E-03  0.2111E-03  0.5103E+02
   -0.467488    7.22462  0.0000E+00  0.1030E-04  0.3066E-07  0.1035E-02  0.1902E-03  0.5024E+02
   -0.509989    7.22786  0.0000E+00  0.1058E-04  0.3057E-07  0.1095E-02  0.1714E-03  0.5118E+02
   -0.552490    7.23092  0.0000E+00  0.1083E-04  0.3060E-07  0.1148E-02  0.1547E-03  0.5223E+02
   -0.594990    7.23385  0.0000E+00  0.1106E-04  0.3075E-07  0.1193E-02  0.1397E-03  0.5600E+02
   -0.637491    7.23667  0.0000E+00  0.1127E-04  0.3100E-07  0.1230E-02  0.1265E-03  0.6006E+02
   -0.679992    7.23949  0.0000E+00  0.1147E-04  0.3135E-07  0.1259E-02  0.1151E-03  0.7025E+02
   -0.722494    7.24234  0.0000E+00  0.1166E-04  0.3180E-07  0.1279E-02  0.1053E-03  0.8206E+02
   -0.764995    7.24529  0.0000E+00  0.1184E-04  0.3235E-07  0.1293E-02  0.9705E-04  0.1013E+03
   -0.807496    7.24837  0.0000E+00  0.1200E-04  0.3298E-07  0.1301E-02  0.9012E-04  0.1239E+03
   -0.849997    7.25159  0.0000E+00  0.1214E-04  0.3370E-07  0.1303E-02  0.8405E-04  0.1545E+03
   -0.892499    7.25490  0.0000E+00  0.1227E-04  0.3452E-07  0.1298E-02  0.7871E-04  0.1836E+03
   -0.935000    7.25836  0.0000E+00  0.1237E-04  0.3544E-07  0.1287E-02  0.7379E-04  0.2277E+03
   -0.977501    7.26189  0.0000E+00  0.1244E-04  0.3650E-07  0.1268E-02  0.6922E-04  0.2665E+03
   -1.020002    7.26555  0.0000E+00  0.1249E-04  0.3771E-07  0.1241E-02  0.6486E-04  0.3251E+03
   -1.062503    7.26929  0.0000E+00  0.1251E-04  0.3912E-07  0.1207E-02  0.6069E-04  0.3771E+03
   -1.105004    7.27316  0.0000E+00  0.1249E-04  0.4080E-07  0.1165E-02  0.5660E-04  0.4490E+03
   -1.147505    7.27715  0.0000E+00  0.1245E-04  0.4281E-07  0.1121E-02  0.5256E-04  0.5313E+03
   -1.190006    7.28121  0.0000E+00  0.1239E-04  0.4529E-07  0.1065E-02  0.4842E-04  0.6652E+03
   -1.232506    7.28534  0.0000E+00  0.1229E-04  0.4864E-07  0.1011E-02  0.4426E-04  0.9122E+03
   -1.275007    7.28990  0.0000E+00  0.1216E-04  0.5352E-07  0.9352E-03  0.4017E-04  0.1523E+04
   -1.317507    7.29550  0.0000E+00  0.1196E-04  0.6081E-07  0.8732E-03  0.3604E-04  0.2780E+04
   -1.360007    7.30241  0.0000E+00  0.1167E-04  0.7334E-07  0.7789E-03  0.3199E-04  0.6510E+06
   -1.402506    7.31354  0.0000E+00  0.1123E-04  0.9264E-07  0.7080E-03  0.2779E-04  0.2617E+06
   -1.445006    7.32401  0.0000E+00  0.1065E-04  0.1342E-06  0.6003E-03  0.2411E-04  0.3562E+07
   -1.487505    7.34672  0.0000E+00  0.1010E-04  0.1865E-06  0.5457E-03  0.1873E-04  0.6877E+07
   -1.530003    7.35389  0.0000E+00  0.9492E-05  0.3205E-06  0.4101E-03  0.1449E-04 -0.2671E+08
   -1.572502    7.46731  0.0000E+00  0.8934E-05  0.5963E-06  0.4427E-03  0.9356E-05  0.1380E+13
   -1.615000    7.36639  0.0000E+00  0.7781E-05  0.1581E-05  0.2055E-03  0.7671E-05 -0.1218E+13
   -1.657498    7.83679  0.0000E+00  0.5956E-05  0.3436E-05  0.2086E-03  0.4717E-05 -0.9867E+08
   -1.699995    7.75546  0.0000E+00  0.0000E+00  0.0000E+00  0.0000E+00  0.8717E-05  0.0000E+00
