 1 - depth, m
 2 - temperature, C
 3 - salinity, kg/kg
 4 - turbulent kinetic energy, m**2/s**2
 5 - dissipation rate, m**2/s**3
 6 - kinematic heat conductance, m**2/s
 7 - modulus of horizontal velocity, m/s
 8 - Richardson number, n/d
   -0.000000    8.83886  0.0000E+00  0.1158E-01  0.5032E+00  0.3505E-03  0.2761E+01  0.4703E-03
   -0.042498    9.12647  0.0000E+00  0.6706E-02  0.3419E+00  0.1480E-02  0.5914E+00 -0.1877E+00
   -0.084997    9.23117  0.0000E+00  0.4495E-02  0.1637E+00  0.1599E-02  0.2875E+00  0.2674E-01
   -0.127496    9.27486  0.0000E+00  0.3560E-02  0.1284E+00  0.1611E-02  0.2085E+00  0.3600E-02
   -0.169995    9.30451  0.0000E+00  0.2953E-02  0.9125E-01  0.1584E-02  0.1659E+00 -0.3310E-01
   -0.212495    9.32465  0.0000E+00  0.2517E-02  0.7237E-01  0.1539E-02  0.1383E+00  0.1436E+01
   -0.254995    9.34382  0.0000E+00  0.2163E-02  0.5957E-01  0.1558E-02  0.1202E+00  0.5363E+00
   -0.297495    9.35245  0.0000E+00  0.1885E-02  0.4828E-01  0.1508E-02  0.1115E+00  0.5763E+01
   -0.339996    9.36099  0.0000E+00  0.1662E-02  0.4019E-01  0.1479E-02  0.1047E+00  0.2921E+02
   -0.382497    9.36831  0.0000E+00  0.1470E-02  0.3347E-01  0.1461E-02  0.9675E-01  0.2559E+01
   -0.424998    9.37268  0.0000E+00  0.1313E-02  0.2774E-01  0.1392E-02  0.9319E-01  0.1965E+02
   -0.467499    9.38056  0.0000E+00  0.1174E-02  0.2263E-01  0.1400E-02  0.8680E-01  0.6575E+01
   -0.510001    9.38558  0.0000E+00  0.1058E-02  0.1826E-01  0.1395E-02  0.8103E-01  0.3933E+02
   -0.552503    9.39103  0.0000E+00  0.9582E-03  0.1486E-01  0.1363E-02  0.7488E-01  0.3828E+02
   -0.595004    9.39617  0.0000E+00  0.8715E-03  0.1146E-01  0.1342E-02  0.6834E-01  0.2101E+03
   -0.637506    9.40392  0.0000E+00  0.7935E-03  0.8628E-02  0.1374E-02  0.6251E-01  0.7852E+02
   -0.680008    9.40824  0.0000E+00  0.7298E-03  0.6813E-02  0.1374E-02  0.5886E-01  0.2973E+02
   -0.722511    9.41280  0.0000E+00  0.6754E-03  0.5373E-02  0.1375E-02  0.5522E-01  0.2116E+04
   -0.765013    9.41792  0.0000E+00  0.6250E-03  0.4216E-02  0.1445E-02  0.5126E-01  0.2311E+00
   -0.807515    9.42223  0.0000E+00  0.5816E-03  0.3282E-02  0.1467E-02  0.4946E-01  0.5992E+02
   -0.850017    9.42611  0.0000E+00  0.5428E-03  0.2544E-02  0.1481E-02  0.4772E-01  0.1128E+02
   -0.892520    9.43027  0.0000E+00  0.5081E-03  0.1950E-02  0.1497E-02  0.4602E-01 -0.1625E+03
   -0.935022    9.43498  0.0000E+00  0.4764E-03  0.1479E-02  0.1491E-02  0.4445E-01  0.1652E+02
   -0.977524    9.43925  0.0000E+00  0.4472E-03  0.1112E-02  0.1522E-02  0.4252E-01 -0.2496E+03
   -1.020026    9.44351  0.0000E+00  0.4213E-03  0.8300E-03  0.1527E-02  0.4115E-01 -0.5196E+04
   -1.062528    9.44735  0.0000E+00  0.3985E-03  0.6150E-03  0.1524E-02  0.3960E-01  0.8600E+01
   -1.105030    9.45156  0.0000E+00  0.3772E-03  0.4445E-03  0.1489E-02  0.3812E-01  0.3276E+03
   -1.147532    9.45580  0.0000E+00  0.3586E-03  0.3213E-03  0.1460E-02  0.3660E-01  0.4127E+02
   -1.190034    9.45982  0.0000E+00  0.3424E-03  0.2330E-03  0.1410E-02  0.3446E-01  0.6956E+02
   -1.232535    9.46506  0.0000E+00  0.3255E-03  0.1707E-03  0.1412E-02  0.3185E-01  0.9872E+02
   -1.275037    9.46884  0.0000E+00  0.3092E-03  0.1272E-03  0.1367E-02  0.2994E-01  0.8928E+02
   -1.317538    9.47382  0.0000E+00  0.2934E-03  0.9643E-04  0.1322E-02  0.2812E-01  0.2918E+06
   -1.360039    9.47964  0.0000E+00  0.2773E-03  0.7482E-04  0.1274E-02  0.2608E-01  0.1244E+06
   -1.402539    9.48616  0.0000E+00  0.2614E-03  0.5957E-04  0.1186E-02  0.2468E-01 -0.1029E+05
   -1.445040    9.49355  0.0000E+00  0.2467E-03  0.5199E-04  0.1054E-02  0.2345E-01  0.7507E+03
   -1.487540    9.50316  0.0000E+00  0.2299E-03  0.5325E-04  0.9058E-03  0.2083E-01  0.5082E+04
   -1.530039    9.52262  0.0000E+00  0.2107E-03  0.6700E-04  0.8202E-03  0.1648E-01 -0.7445E+06
   -1.572539    9.54527  0.0000E+00  0.1909E-03  0.1152E-03  0.8545E-03  0.1313E-01 -0.2042E+08
   -1.615038    9.58444  0.0000E+00  0.1630E-03  0.2268E-03  0.5105E-03  0.1160E-01 -0.5807E+08
   -1.657536    9.75229  0.0000E+00  0.1215E-03  0.5047E-03  0.4041E-03  0.8954E-02 -0.2712E+08
   -1.700035    9.87970  0.0000E+00  0.0000E+00  0.0000E+00  0.0000E+00  0.1254E-01  0.0000E+00
