 1 - depth, m
 2 - temperature, C
 3 - salinity, kg/kg
 4 - turbulent kinetic energy, m**2/s**2
 5 - dissipation rate, m**2/s**3
 6 - kinematic heat conductance, m**2/s
 7 - modulus of horizontal velocity, m/s
 8 - Richardson number, n/d
   -0.000000   19.48429  0.0000E+00  0.1328E-04  0.9307E-06  0.2379E-04  0.1437E-01 -0.1603E+00
   -0.042497   19.53613  0.0000E+00  0.1147E-04  0.3063E-06  0.1036E-03  0.6459E-02  0.2232E+02
   -0.084995   19.55112  0.0000E+00  0.1096E-04  0.1666E-06  0.1968E-03  0.4198E-02  0.2904E+02
   -0.127493   19.55817  0.0000E+00  0.1103E-04  0.1192E-06  0.3429E-03  0.3168E-02  0.6135E+03
   -0.169991   19.56152  0.0000E+00  0.1140E-04  0.9684E-07  0.4276E-03  0.2656E-02  0.1958E+01
   -0.212490   19.56422  0.0000E+00  0.1192E-04  0.8204E-07  0.5377E-03  0.2217E-02  0.1882E+01
   -0.254989   19.56639  0.0000E+00  0.1251E-04  0.7215E-07  0.6429E-03  0.1875E-02  0.1699E+01
   -0.297488   19.56824  0.0000E+00  0.1314E-04  0.6527E-07  0.7447E-03  0.1608E-02  0.1607E+01
   -0.339988   19.56988  0.0000E+00  0.1376E-04  0.6048E-07  0.8423E-03  0.1396E-02  0.1582E+01
   -0.382488   19.57133  0.0000E+00  0.1435E-04  0.5710E-07  0.9386E-03  0.1218E-02  0.1526E+01
   -0.424988   19.57265  0.0000E+00  0.1491E-04  0.5475E-07  0.1027E-02  0.1068E-02  0.1525E+01
   -0.467488   19.57387  0.0000E+00  0.1542E-04  0.5319E-07  0.1110E-02  0.9360E-03  0.1499E+01
   -0.509989   19.57499  0.0000E+00  0.1589E-04  0.5226E-07  0.1193E-02  0.8178E-03  0.1462E+01
   -0.552490   19.57604  0.0000E+00  0.1630E-04  0.5186E-07  0.1274E-02  0.7133E-03  0.1422E+01
   -0.594990   19.57704  0.0000E+00  0.1667E-04  0.5192E-07  0.1355E-02  0.6212E-03  0.1380E+01
   -0.637491   19.57798  0.0000E+00  0.1698E-04  0.5237E-07  0.1441E-02  0.5419E-03  0.1324E+01
   -0.679992   19.57888  0.0000E+00  0.1726E-04  0.5314E-07  0.1533E-02  0.4760E-03  0.1300E+01
   -0.722494   19.57976  0.0000E+00  0.1748E-04  0.5418E-07  0.1616E-02  0.4222E-03  0.1279E+01
   -0.764995   19.58063  0.0000E+00  0.1766E-04  0.5542E-07  0.1659E-02  0.3792E-03  0.1284E+01
   -0.807496   19.58152  0.0000E+00  0.1780E-04  0.5683E-07  0.1652E-02  0.3454E-03  0.1320E+01
   -0.849997   19.58246  0.0000E+00  0.1790E-04  0.5837E-07  0.1625E-02  0.3181E-03  0.1402E+01
   -0.892499   19.58346  0.0000E+00  0.1797E-04  0.6007E-07  0.1592E-02  0.2955E-03  0.1496E+01
   -0.935000   19.58452  0.0000E+00  0.1800E-04  0.6195E-07  0.1555E-02  0.2763E-03  0.1697E+01
   -0.977501   19.58562  0.0000E+00  0.1800E-04  0.6409E-07  0.1513E-02  0.2594E-03  0.1923E+01
   -1.020002   19.58679  0.0000E+00  0.1796E-04  0.6659E-07  0.1465E-02  0.2441E-03  0.2303E+01
   -1.062503   19.58802  0.0000E+00  0.1788E-04  0.6960E-07  0.1410E-02  0.2296E-03  0.2732E+01
   -1.105004   19.58931  0.0000E+00  0.1776E-04  0.7329E-07  0.1348E-02  0.2155E-03  0.3340E+01
   -1.147505   19.59069  0.0000E+00  0.1760E-04  0.7786E-07  0.1286E-02  0.2014E-03  0.4236E+01
   -1.190006   19.59215  0.0000E+00  0.1739E-04  0.8369E-07  0.1217E-02  0.1869E-03  0.1111E+02
   -1.232506   19.59370  0.0000E+00  0.1713E-04  0.9190E-07  0.1161E-02  0.1718E-03 -0.7746E+00
   -1.275007   19.59554  0.0000E+00  0.1678E-04  0.1040E-06  0.1068E-02  0.1564E-03  0.1443E+03
   -1.317507   19.59787  0.0000E+00  0.1632E-04  0.1233E-06  0.1001E-02  0.1405E-03 -0.8169E+03
   -1.360007   19.60104  0.0000E+00  0.1570E-04  0.1530E-06  0.9010E-03  0.1243E-03  0.9097E+04
   -1.402506   19.60521  0.0000E+00  0.1489E-04  0.2028E-06  0.7943E-03  0.1087E-03  0.3780E+04
   -1.445006   19.61095  0.0000E+00  0.1389E-04  0.2913E-06  0.6818E-03  0.9300E-04  0.1497E+06
   -1.487505   19.61868  0.0000E+00  0.1301E-04  0.4146E-06  0.6042E-03  0.7281E-04  0.5947E+07
   -1.530003   19.62623  0.0000E+00  0.1202E-04  0.7854E-06  0.4852E-03  0.5404E-04 -0.5751E+06
   -1.572502   19.66976  0.0000E+00  0.1132E-04  0.1612E-05  0.5135E-03  0.3460E-04  0.6230E+11
   -1.615000   19.62670  0.0000E+00  0.9882E-05  0.4520E-05  0.2935E-03  0.2876E-04 -0.1507E+11
   -1.657497   19.82559  0.0000E+00  0.7827E-05  0.8388E-05  0.3279E-03  0.1791E-04 -0.3214E+05
   -1.699995   19.77919  0.0000E+00  0.0000E+00  0.0000E+00  0.0000E+00  0.3891E-04  0.0000E+00
