 1 - depth, m
 2 - temperature, C
 3 - salinity, kg/kg
 4 - turbulent kinetic energy, m**2/s**2
 5 - dissipation rate, m**2/s**3
 6 - kinematic heat conductance, m**2/s
 7 - modulus of horizontal velocity, m/s
 8 - Richardson number, n/d
   -0.000000    6.42512  0.0000E+00  0.3765E-03  0.8303E-03  0.8182E-04  0.2282E+00  0.2157E-01
   -0.042497    6.65772  0.0000E+00  0.1962E-03  0.3436E-03  0.1638E-03  0.5397E-01 -0.9837E-01
   -0.084995    6.74309  0.0000E+00  0.1294E-03  0.1076E-03  0.1375E-03  0.3207E-01 -0.1572E+00
   -0.127493    6.79916  0.0000E+00  0.9380E-04  0.5104E-04  0.1373E-03  0.2446E-01  0.1104E+01
   -0.169991    6.84325  0.0000E+00  0.7092E-04  0.2690E-04  0.1461E-03  0.1933E-01  0.1340E+02
   -0.212490    6.87673  0.0000E+00  0.5443E-04  0.1385E-04  0.1679E-03  0.1532E-01  0.3847E+02
   -0.254989    6.90839  0.0000E+00  0.4273E-04  0.7008E-05  0.2021E-03  0.1236E-01  0.2299E+02
   -0.297488    6.93324  0.0000E+00  0.3450E-04  0.3523E-05  0.2381E-03  0.1028E-01  0.4520E+02
   -0.339987    6.95304  0.0000E+00  0.2884E-04  0.1767E-05  0.2842E-03  0.8680E-02  0.2168E+02
   -0.382487    6.97149  0.0000E+00  0.2492E-04  0.9615E-06  0.3374E-03  0.7353E-02  0.4970E+05
   -0.424987    6.98636  0.0000E+00  0.2220E-04  0.5909E-06  0.3863E-03  0.6323E-02  0.9017E+02
   -0.467488    6.99813  0.0000E+00  0.2029E-04  0.3915E-06  0.4352E-03  0.5439E-02  0.1908E+02
   -0.509988    7.00949  0.0000E+00  0.1893E-04  0.2832E-06  0.4929E-03  0.4664E-02  0.1127E+03
   -0.552489    7.01758  0.0000E+00  0.1793E-04  0.2170E-06  0.5485E-03  0.4005E-02  0.2111E+02
   -0.594989    7.02562  0.0000E+00  0.1719E-04  0.1736E-06  0.6090E-03  0.3411E-02  0.6963E+02
   -0.637490    7.03192  0.0000E+00  0.1660E-04  0.1432E-06  0.6690E-03  0.2893E-02  0.9196E+01
   -0.679991    7.03798  0.0000E+00  0.1614E-04  0.1209E-06  0.7295E-03  0.2446E-02  0.5468E+02
   -0.722492    7.04340  0.0000E+00  0.1575E-04  0.1034E-06  0.7762E-03  0.2064E-02  0.4016E+01
   -0.764993    7.04883  0.0000E+00  0.1541E-04  0.9103E-07  0.9453E-03  0.1724E-02  0.1082E+02
   -0.807495    7.05350  0.0000E+00  0.1514E-04  0.8204E-07  0.1042E-02  0.1535E-02  0.3291E+01
   -0.849996    7.05795  0.0000E+00  0.1491E-04  0.7466E-07  0.9078E-03  0.1383E-02  0.2237E+01
   -0.892497    7.06310  0.0000E+00  0.1469E-04  0.6784E-07  0.9958E-03  0.1187E-02  0.2376E+01
   -0.934998    7.06797  0.0000E+00  0.1448E-04  0.6268E-07  0.1030E-02  0.1031E-02  0.2419E+01
   -0.977499    7.07269  0.0000E+00  0.1428E-04  0.5880E-07  0.1056E-02  0.8971E-03  0.2498E+01
   -1.020000    7.07738  0.0000E+00  0.1409E-04  0.5600E-07  0.1067E-02  0.7836E-03  0.2664E+01
   -1.062501    7.08197  0.0000E+00  0.1389E-04  0.5411E-07  0.1066E-02  0.6857E-03  0.2768E+01
   -1.105002    7.08656  0.0000E+00  0.1370E-04  0.5304E-07  0.1054E-02  0.6005E-03  0.2910E+01
   -1.147503    7.09111  0.0000E+00  0.1352E-04  0.5275E-07  0.1034E-02  0.5246E-03  0.3097E+01
   -1.190004    7.09562  0.0000E+00  0.1334E-04  0.5325E-07  0.1003E-02  0.4549E-03  0.3416E+01
   -1.232504    7.10003  0.0000E+00  0.1317E-04  0.5462E-07  0.9661E-03  0.3924E-03  0.4000E+01
   -1.275004    7.10476  0.0000E+00  0.1300E-04  0.5707E-07  0.9203E-03  0.3395E-03  0.5565E+01
   -1.317504    7.10995  0.0000E+00  0.1282E-04  0.6110E-07  0.8715E-03  0.2956E-03  0.2084E+02
   -1.360004    7.11595  0.0000E+00  0.1259E-04  0.6783E-07  0.7987E-03  0.2583E-03 -0.7648E+01
   -1.402504    7.12365  0.0000E+00  0.1227E-04  0.7912E-07  0.7404E-03  0.2257E-03  0.5601E+03
   -1.445003    7.13333  0.0000E+00  0.1184E-04  0.9862E-07  0.6436E-03  0.1952E-03  0.8617E+03
   -1.487502    7.14751  0.0000E+00  0.1138E-04  0.1286E-06  0.5846E-03  0.1596E-03  0.2687E+04
   -1.530001    7.15956  0.0000E+00  0.1085E-04  0.2077E-06  0.4539E-03  0.1253E-03 -0.9097E+04
   -1.572499    7.21809  0.0000E+00  0.1029E-04  0.3630E-06  0.4780E-03  0.8778E-04  0.4389E+09
   -1.614997    7.18343  0.0000E+00  0.8932E-05  0.9604E-06  0.2108E-03  0.7110E-04 -0.1917E+11
   -1.657494    7.52549  0.0000E+00  0.6631E-05  0.2241E-05  0.1672E-03  0.4526E-04 -0.1971E+07
   -1.699992    7.48972  0.0000E+00  0.0000E+00  0.0000E+00  0.0000E+00  0.7157E-04  0.0000E+00
