 1 - depth, m
 2 - temperature, C
 3 - salinity, kg/kg
 4 - turbulent kinetic energy, m**2/s**2
 5 - dissipation rate, m**2/s**3
 6 - kinematic heat conductance, m**2/s
 7 - modulus of horizontal velocity, m/s
 8 - Richardson number, n/d
   -0.000000    8.49444  0.0000E+00  0.4563E-03  0.4606E-03  0.5828E-04  0.2207E+00  0.2304E-01
   -0.042497    8.78900  0.0000E+00  0.2180E-03  0.1261E-03  0.2053E-03  0.4686E-01 -0.4503E+00
   -0.084995    8.85819  0.0000E+00  0.1536E-03  0.5947E-04  0.1875E-03  0.2938E-01 -0.6801E-01
   -0.127493    8.89942  0.0000E+00  0.1166E-03  0.3215E-04  0.1867E-03  0.2358E-01  0.5120E+02
   -0.169991    8.93088  0.0000E+00  0.9019E-04  0.1814E-04  0.1955E-03  0.1937E-01  0.2059E+03
   -0.212490    8.95740  0.0000E+00  0.7024E-04  0.1018E-04  0.2228E-03  0.1593E-01  0.7356E+02
   -0.254989    8.97945  0.0000E+00  0.5506E-04  0.5621E-05  0.2613E-03  0.1329E-01  0.3861E+01
   -0.297488    8.99858  0.0000E+00  0.4400E-04  0.3117E-05  0.3014E-03  0.1135E-01  0.8043E+02
   -0.339988    9.01518  0.0000E+00  0.3611E-04  0.1777E-05  0.3427E-03  0.9764E-02  0.2424E+03
   -0.382488    9.02991  0.0000E+00  0.3064E-04  0.1087E-05  0.3915E-03  0.8334E-02  0.4941E+02
   -0.424988    9.04256  0.0000E+00  0.2693E-04  0.7168E-06  0.4273E-03  0.7174E-02  0.7566E+02
   -0.467488    9.05366  0.0000E+00  0.2434E-04  0.4936E-06  0.4692E-03  0.6141E-02  0.2010E+02
   -0.509989    9.06331  0.0000E+00  0.2254E-04  0.3570E-06  0.5164E-03  0.5243E-02  0.3508E+02
   -0.552489    9.07155  0.0000E+00  0.2131E-04  0.2715E-06  0.5699E-03  0.4467E-02  0.2970E+02
   -0.594990    9.07838  0.0000E+00  0.2047E-04  0.2166E-06  0.6251E-03  0.3788E-02  0.5113E+02
   -0.637491    9.08430  0.0000E+00  0.1986E-04  0.1789E-06  0.6842E-03  0.3194E-02  0.5136E+01
   -0.679992    9.08968  0.0000E+00  0.1942E-04  0.1519E-06  0.7429E-03  0.2689E-02  0.2847E+01
   -0.722493    9.09468  0.0000E+00  0.1909E-04  0.1318E-06  0.8070E-03  0.2259E-02  0.1971E+01
   -0.764995    9.09945  0.0000E+00  0.1883E-04  0.1163E-06  0.8800E-03  0.1904E-02  0.1665E+01
   -0.807496    9.10408  0.0000E+00  0.1860E-04  0.1044E-06  0.9499E-03  0.1622E-02  0.1547E+01
   -0.849997    9.10854  0.0000E+00  0.1839E-04  0.9542E-07  0.1014E-02  0.1392E-02  0.1473E+01
   -0.892498    9.11286  0.0000E+00  0.1818E-04  0.8871E-07  0.1069E-02  0.1203E-02  0.1407E+01
   -0.935000    9.11708  0.0000E+00  0.1796E-04  0.8389E-07  0.1108E-02  0.1048E-02  0.1388E+01
   -0.977501    9.12119  0.0000E+00  0.1774E-04  0.8064E-07  0.1132E-02  0.9173E-03  0.1343E+01
   -1.020002    9.12527  0.0000E+00  0.1749E-04  0.7869E-07  0.1138E-02  0.8080E-03  0.1337E+01
   -1.062503    9.12934  0.0000E+00  0.1724E-04  0.7790E-07  0.1124E-02  0.7144E-03  0.1322E+01
   -1.105004    9.13345  0.0000E+00  0.1697E-04  0.7819E-07  0.1095E-02  0.6338E-03  0.1339E+01
   -1.147505    9.13766  0.0000E+00  0.1670E-04  0.7959E-07  0.1059E-02  0.5622E-03  0.1403E+01
   -1.190005    9.14191  0.0000E+00  0.1643E-04  0.8227E-07  0.1009E-02  0.4968E-03  0.1572E+01
   -1.232506    9.14625  0.0000E+00  0.1615E-04  0.8682E-07  0.9608E-03  0.4370E-03  0.8619E+01
   -1.275006    9.15101  0.0000E+00  0.1583E-04  0.9442E-07  0.8950E-03  0.3853E-03 -0.3160E+00
   -1.317506    9.15690  0.0000E+00  0.1544E-04  0.1065E-06  0.8471E-03  0.3390E-03 -0.2925E+03
   -1.360006    9.16405  0.0000E+00  0.1491E-04  0.1278E-06  0.7706E-03  0.2974E-03  0.9244E+02
   -1.402506    9.17562  0.0000E+00  0.1420E-04  0.1615E-06  0.6950E-03  0.2568E-03  0.1071E+06
   -1.445005    9.18580  0.0000E+00  0.1332E-04  0.2264E-06  0.5925E-03  0.2214E-03  0.2957E+04
   -1.487504    9.20954  0.0000E+00  0.1249E-04  0.3225E-06  0.5482E-03  0.1693E-03  0.3249E+05
   -1.530003    9.21976  0.0000E+00  0.1160E-04  0.5841E-06  0.4218E-03  0.1280E-03 -0.8908E+05
   -1.572501    9.33390  0.0000E+00  0.1088E-04  0.1065E-05  0.4557E-03  0.8104E-04  0.3020E+11
   -1.614999    9.22899  0.0000E+00  0.9484E-05  0.2984E-05  0.2345E-03  0.6695E-04 -0.9850E+10
   -1.657497    9.69597  0.0000E+00  0.7401E-05  0.6122E-05  0.2615E-03  0.4147E-04  0.3734E+06
   -1.699994    9.55497  0.0000E+00  0.0000E+00  0.0000E+00  0.0000E+00  0.8341E-04  0.0000E+00
