 1 - depth, m
 2 - temperature, C
 3 - salinity, kg/kg
 4 - turbulent kinetic energy, m**2/s**2
 5 - dissipation rate, m**2/s**3
 6 - kinematic heat conductance, m**2/s
 7 - modulus of horizontal velocity, m/s
 8 - Richardson number, n/d
   -0.000000    2.93886  0.0000E+00  0.2057E-02  0.3372E-01  0.1543E-03  0.7711E+00  0.3778E-01
   -0.042495    3.28564  0.0000E+00  0.1099E-02  0.2265E-01  0.3460E-03  0.1768E+00  0.9460E-02
   -0.084991    3.58129  0.0000E+00  0.7089E-03  0.5778E-02  0.4465E-03  0.9615E-01  0.2952E+01
   -0.127487    3.68338  0.0000E+00  0.5317E-03  0.2954E-02  0.4314E-03  0.7177E-01  0.2821E-01
   -0.169983    3.73605  0.0000E+00  0.4260E-03  0.2055E-02  0.4066E-03  0.5754E-01  0.8367E-01
   -0.212480    3.78730  0.0000E+00  0.3471E-03  0.1483E-02  0.4046E-03  0.4748E-01  0.7745E+01
   -0.254977    3.83620  0.0000E+00  0.2899E-03  0.1111E-02  0.4230E-03  0.4073E-01  0.6569E+01
   -0.297474    3.86518  0.0000E+00  0.2460E-03  0.8364E-03  0.4270E-03  0.3649E-01  0.1346E+02
   -0.339972    3.89118  0.0000E+00  0.2124E-03  0.6270E-03  0.4301E-03  0.3351E-01  0.9867E+02
   -0.382470    3.91489  0.0000E+00  0.1853E-03  0.4607E-03  0.4411E-03  0.3055E-01  0.2763E+02
   -0.424968    3.93121  0.0000E+00  0.1638E-03  0.3388E-03  0.4458E-03  0.2829E-01  0.4663E+02
   -0.467466    3.95085  0.0000E+00  0.1465E-03  0.2568E-03  0.4540E-03  0.2579E-01  0.3497E+03
   -0.509965    3.96952  0.0000E+00  0.1323E-03  0.1983E-03  0.4687E-03  0.2337E-01  0.2672E+02
   -0.552464    3.98759  0.0000E+00  0.1202E-03  0.1554E-03  0.4799E-03  0.2116E-01  0.4110E+02
   -0.594962    4.00632  0.0000E+00  0.1096E-03  0.1226E-03  0.5047E-03  0.1892E-01  0.1505E+03
   -0.637461    4.02311  0.0000E+00  0.1000E-03  0.9577E-04  0.5210E-03  0.1688E-01  0.1018E+03
   -0.679960    4.03961  0.0000E+00  0.9136E-04  0.7304E-04  0.5416E-03  0.1524E-01  0.2137E+04
   -0.722460    4.05728  0.0000E+00  0.8346E-04  0.5418E-04  0.5674E-03  0.1375E-01  0.9305E+05
   -0.764959    4.07531  0.0000E+00  0.7621E-04  0.3882E-04  0.5929E-03  0.1249E-01  0.7551E+10
   -0.807458    4.09603  0.0000E+00  0.6958E-04  0.2687E-04  0.6010E-03  0.1148E-01  0.5590E+07
   -0.849957    4.11780  0.0000E+00  0.6356E-04  0.1815E-04  0.6157E-03  0.1056E-01  0.1880E+07
   -0.892457    4.14451  0.0000E+00  0.5804E-04  0.1195E-04  0.6262E-03  0.9702E-02  0.2630E+06
   -0.934956    4.17449  0.0000E+00  0.5306E-04  0.7715E-05  0.6323E-03  0.8947E-02  0.1561E+07
   -0.977455    4.21638  0.0000E+00  0.4854E-04  0.4852E-05  0.6371E-03  0.8174E-02  0.1107E+06
   -1.019954    4.27544  0.0000E+00  0.4447E-04  0.2994E-05  0.6364E-03  0.7479E-02  0.1018E+07
   -1.062453    4.38437  0.0000E+00  0.4079E-04  0.1858E-05  0.6375E-03  0.6698E-02  0.1909E+07
   -1.104952    4.54032  0.0000E+00  0.3762E-04  0.1201E-05  0.6332E-03  0.6012E-02  0.2778E+08
   -1.147451    4.75335  0.0000E+00  0.3499E-04  0.8387E-06  0.6263E-03  0.5295E-02  0.6647E+06
   -1.189950    4.99861  0.0000E+00  0.3287E-04  0.6427E-06  0.6252E-03  0.4521E-02  0.4222E+06
   -1.232448    5.20438  0.0000E+00  0.3102E-04  0.5317E-06  0.6257E-03  0.3887E-02  0.5986E+06
   -1.274947    5.35911  0.0000E+00  0.2930E-04  0.4679E-06  0.6142E-03  0.3417E-02  0.2477E+08
   -1.317445    5.45934  0.0000E+00  0.2761E-04  0.4371E-06  0.6020E-03  0.3023E-02  0.5670E+09
   -1.359943    5.52069  0.0000E+00  0.2593E-04  0.4357E-06  0.5862E-03  0.2692E-02  0.9750E+10
   -1.402440    5.56311  0.0000E+00  0.2414E-04  0.4720E-06  0.5391E-03  0.2413E-02  0.1478E+11
   -1.444938    5.59713  0.0000E+00  0.2236E-04  0.5593E-06  0.4940E-03  0.2151E-02  0.1648E+11
   -1.487435    5.62724  0.0000E+00  0.2052E-04  0.7337E-06  0.4360E-03  0.1836E-02  0.1379E+11
   -1.529931    5.65619  0.0000E+00  0.1855E-04  0.1127E-05  0.3591E-03  0.1380E-02  0.1724E+11
   -1.572428    5.70083  0.0000E+00  0.1683E-04  0.1973E-05  0.3678E-03  0.1004E-02  0.6710E+11
   -1.614924    5.74047  0.0000E+00  0.1411E-04  0.4997E-05  0.2105E-03  0.8401E-03  0.1190E+13
   -1.657419    5.95792  0.0000E+00  0.1026E-04  0.1063E-04  0.1547E-03  0.6469E-03 -0.4214E+14
   -1.699915    6.18681  0.0000E+00  0.0000E+00  0.0000E+00  0.0000E+00  0.1096E-02  0.0000E+00
