 1 - depth, m
 2 - temperature, C
 3 - salinity, kg/kg
 4 - turbulent kinetic energy, m**2/s**2
 5 - dissipation rate, m**2/s**3
 6 - kinematic heat conductance, m**2/s
 7 - modulus of horizontal velocity, m/s
 8 - Richardson number, n/d
   -0.000000   13.53519  0.0000E+00  0.2453E-03  0.2026E-03  0.8382E-04  0.1588E+00  0.4801E+00
   -0.042497   13.80660  0.0000E+00  0.1238E-03  0.5143E-04  0.1303E-03  0.3689E-01 -0.1464E+00
   -0.084995   13.88076  0.0000E+00  0.8644E-04  0.2179E-04  0.1598E-03  0.2264E-01  0.1934E+02
   -0.127493   13.91979  0.0000E+00  0.6627E-04  0.1144E-04  0.1910E-03  0.1762E-01  0.3658E+02
   -0.169991   13.94570  0.0000E+00  0.5228E-04  0.6200E-05  0.2388E-03  0.1422E-01  0.2885E+02
   -0.212490   13.96464  0.0000E+00  0.4217E-04  0.3376E-05  0.2913E-03  0.1164E-01  0.4814E+02
   -0.254989   13.97981  0.0000E+00  0.3497E-04  0.1868E-05  0.3525E-03  0.9672E-02  0.5976E+02
   -0.297488   13.99219  0.0000E+00  0.3008E-04  0.1089E-05  0.4126E-03  0.8199E-02  0.3659E+03
   -0.339987   14.00222  0.0000E+00  0.2689E-04  0.7009E-06  0.4716E-03  0.7039E-02  0.9946E+02
   -0.382487   14.01032  0.0000E+00  0.2483E-04  0.4760E-06  0.5347E-03  0.6074E-02  0.1703E+02
   -0.424987   14.01713  0.0000E+00  0.2362E-04  0.3424E-06  0.5859E-03  0.5280E-02  0.1928E+02
   -0.467488   14.02286  0.0000E+00  0.2297E-04  0.2626E-06  0.6414E-03  0.4577E-02  0.2550E+02
   -0.509988   14.02787  0.0000E+00  0.2267E-04  0.2119E-06  0.6955E-03  0.3946E-02  0.4452E+01
   -0.552489   14.03222  0.0000E+00  0.2258E-04  0.1786E-06  0.7519E-03  0.3378E-02  0.3518E+01
   -0.594989   14.03618  0.0000E+00  0.2261E-04  0.1554E-06  0.8114E-03  0.2859E-02  0.2432E+01
   -0.637490   14.03981  0.0000E+00  0.2270E-04  0.1384E-06  0.8812E-03  0.2395E-02  0.2109E+01
   -0.679991   14.04321  0.0000E+00  0.2283E-04  0.1258E-06  0.9557E-03  0.1999E-02  0.1900E+01
   -0.722492   14.04641  0.0000E+00  0.2296E-04  0.1167E-06  0.1036E-02  0.1666E-02  0.1710E+01
   -0.764993   14.04947  0.0000E+00  0.2307E-04  0.1102E-06  0.1122E-02  0.1398E-02  0.1561E+01
   -0.807495   14.05240  0.0000E+00  0.2312E-04  0.1059E-06  0.1208E-02  0.1189E-02  0.1492E+01
   -0.849996   14.05522  0.0000E+00  0.2312E-04  0.1033E-06  0.1289E-02  0.1024E-02  0.1440E+01
   -0.892497   14.05792  0.0000E+00  0.2305E-04  0.1021E-06  0.1361E-02  0.8930E-03  0.1391E+01
   -0.934998   14.06054  0.0000E+00  0.2293E-04  0.1020E-06  0.1410E-02  0.7883E-03  0.1272E+01
   -0.977499   14.06309  0.0000E+00  0.2275E-04  0.1029E-06  0.1426E-02  0.7025E-03  0.1348E+01
   -1.020000   14.06565  0.0000E+00  0.2254E-04  0.1047E-06  0.1412E-02  0.6320E-03  0.1370E+01
   -1.062501   14.06825  0.0000E+00  0.2228E-04  0.1073E-06  0.1377E-02  0.5724E-03  0.1413E+01
   -1.105002   14.07094  0.0000E+00  0.2199E-04  0.1111E-06  0.1324E-02  0.5210E-03  0.1756E+01
   -1.147503   14.07376  0.0000E+00  0.2166E-04  0.1164E-06  0.1273E-02  0.4748E-03  0.1556E+01
   -1.190004   14.07671  0.0000E+00  0.2131E-04  0.1239E-06  0.1212E-02  0.4317E-03  0.1147E+04
   -1.232504   14.07977  0.0000E+00  0.2091E-04  0.1353E-06  0.1142E-02  0.3907E-03  0.2059E+02
   -1.275004   14.08345  0.0000E+00  0.2042E-04  0.1537E-06  0.1084E-02  0.3520E-03  0.1606E+03
   -1.317504   14.08786  0.0000E+00  0.1980E-04  0.1831E-06  0.1004E-02  0.3150E-03  0.7688E+02
   -1.360004   14.09416  0.0000E+00  0.1901E-04  0.2280E-06  0.9476E-03  0.2777E-03  0.4182E+03
   -1.402504   14.10138  0.0000E+00  0.1803E-04  0.3103E-06  0.8356E-03  0.2435E-03 -0.1502E+05
   -1.445003   14.11273  0.0000E+00  0.1690E-04  0.4339E-06  0.7451E-03  0.2077E-03  0.3650E+05
   -1.487502   14.12396  0.0000E+00  0.1593E-04  0.6175E-06  0.6271E-03  0.1687E-03  0.8983E+05
   -1.530001   14.14278  0.0000E+00  0.1478E-04  0.1227E-05  0.5532E-03  0.1247E-03  0.1505E+04
   -1.572499   14.20375  0.0000E+00  0.1394E-04  0.2004E-05  0.5752E-03  0.8372E-04  0.4866E+11
   -1.614997   14.14041  0.0000E+00  0.1205E-04  0.6610E-05  0.3129E-03  0.6897E-04 -0.1189E+11
   -1.657494   14.46762  0.0000E+00  0.9575E-05  0.1185E-04  0.3547E-03  0.4317E-04 -0.1011E+07
   -1.699992   14.38047  0.0000E+00  0.0000E+00  0.0000E+00  0.0000E+00  0.9180E-04  0.0000E+00
