 1 - depth, m
 2 - temperature, C
 3 - salinity, kg/kg
 4 - turbulent kinetic energy, m**2/s**2
 5 - dissipation rate, m**2/s**3
 6 - kinematic heat conductance, m**2/s
 7 - modulus of horizontal velocity, m/s
 8 - Richardson number, n/d
   -0.000000    8.98482  0.0000E+00  0.9414E-03  0.1535E+00  0.1015E-03  0.3160E+00  0.3361E-01
   -0.042498    9.26210  0.0000E+00  0.5189E-03  0.1165E+00  0.2788E-03  0.6406E-01 -0.2005E+00
   -0.084996    9.32284  0.0000E+00  0.3908E-03  0.1068E+00  0.3272E-03  0.3932E-01 -0.1119E+00
   -0.127494    9.36182  0.0000E+00  0.3067E-03  0.1019E+00  0.3039E-03  0.3182E-01  0.4851E+00
   -0.169993    9.38624  0.0000E+00  0.2498E-03  0.9718E-01  0.3020E-03  0.2658E-01  0.8738E+01
   -0.212492    9.40678  0.0000E+00  0.2141E-03  0.9255E-01  0.3211E-03  0.2231E-01  0.3635E+02
   -0.254991    9.42373  0.0000E+00  0.1848E-03  0.8798E-01  0.3403E-03  0.1890E-01  0.1557E+01
   -0.297491    9.43929  0.0000E+00  0.1624E-03  0.8338E-01  0.3676E-03  0.1641E-01  0.1069E+03
   -0.339991    9.45443  0.0000E+00  0.1458E-03  0.7879E-01  0.3970E-03  0.1440E-01  0.1086E+02
   -0.382491    9.46802  0.0000E+00  0.1325E-03  0.7414E-01  0.4412E-03  0.1250E-01  0.4842E+03
   -0.424992    9.47852  0.0000E+00  0.1218E-03  0.6936E-01  0.4759E-03  0.1112E-01  0.7591E+02
   -0.467492    9.48737  0.0000E+00  0.1128E-03  0.6440E-01  0.5177E-03  0.9691E-02  0.9858E+02
   -0.509993    9.49637  0.0000E+00  0.1049E-03  0.5894E-01  0.5750E-03  0.8396E-02  0.3271E+02
   -0.552494    9.50298  0.0000E+00  0.9750E-04  0.5307E-01  0.6300E-03  0.7315E-02  0.1346E+03
   -0.594995    9.51050  0.0000E+00  0.9050E-04  0.4716E-01  0.6897E-03  0.6293E-02  0.9188E+02
   -0.637497    9.51552  0.0000E+00  0.8340E-04  0.4093E-01  0.7511E-03  0.5435E-02  0.6097E+02
   -0.679998    9.52078  0.0000E+00  0.7595E-04  0.3431E-01  0.8133E-03  0.4734E-02  0.7601E+02
   -0.722500    9.52496  0.0000E+00  0.6771E-04  0.2718E-01  0.8787E-03  0.4121E-02  0.9219E+01
   -0.765001    9.52975  0.0000E+00  0.5858E-04  0.1979E-01  0.9474E-03  0.3603E-02  0.1131E+02
   -0.807503    9.53370  0.0000E+00  0.4854E-04  0.1249E-01  0.1012E-02  0.3184E-02 -0.1398E+02
   -0.850004    9.53843  0.0000E+00  0.3912E-04  0.6681E-02  0.1056E-02  0.2813E-02  0.2802E+01
   -0.892506    9.54208  0.0000E+00  0.3129E-04  0.2826E-02  0.1084E-02  0.2483E-02  0.1690E+01
   -0.935008    9.54686  0.0000E+00  0.2657E-04  0.1095E-02  0.1105E-02  0.2194E-02  0.3170E+01
   -0.977509    9.55025  0.0000E+00  0.2362E-04  0.3413E-03  0.1105E-02  0.1939E-02  0.2364E+01
   -1.020011    9.55495  0.0000E+00  0.2234E-04  0.1708E-03  0.1160E-02  0.1706E-02  0.3771E+01
   -1.062512    9.55799  0.0000E+00  0.2143E-04  0.9020E-04  0.1150E-02  0.1539E-02  0.6513E+01
   -1.105013    9.56234  0.0000E+00  0.2065E-04  0.4840E-04  0.1071E-02  0.1389E-02  0.1036E+02
   -1.147515    9.56571  0.0000E+00  0.1986E-04  0.2685E-04  0.1041E-02  0.1214E-02  0.1805E+01
   -1.190016    9.57001  0.0000E+00  0.1918E-04  0.1598E-04  0.9990E-03  0.1049E-02  0.1168E+02
   -1.232517    9.57354  0.0000E+00  0.1853E-04  0.9536E-05  0.9556E-03  0.8949E-03  0.4042E+02
   -1.275017    9.57803  0.0000E+00  0.1792E-04  0.5592E-05  0.9251E-03  0.7581E-03  0.9210E+04
   -1.317518    9.58251  0.0000E+00  0.1731E-04  0.3173E-05  0.8551E-03  0.6527E-03  0.5389E+04
   -1.360018    9.58875  0.0000E+00  0.1663E-04  0.1898E-05  0.7761E-03  0.5642E-03  0.1499E+05
   -1.402518    9.59692  0.0000E+00  0.1576E-04  0.1040E-05  0.7098E-03  0.4818E-03  0.4991E+04
   -1.445018    9.60727  0.0000E+00  0.1476E-04  0.3309E-06  0.6257E-03  0.4075E-03  0.1421E+05
   -1.487517    9.62337  0.0000E+00  0.1380E-04  0.3209E-06  0.5581E-03  0.3236E-03  0.8497E+04
   -1.530016    9.63605  0.0000E+00  0.1276E-04  0.5575E-06  0.4518E-03  0.2420E-03 -0.1370E+06
   -1.572515    9.71493  0.0000E+00  0.1187E-04  0.1047E-05  0.4606E-03  0.1542E-03  0.4530E+09
   -1.615013    9.65016  0.0000E+00  0.1019E-04  0.3206E-05  0.2242E-03  0.1240E-03 -0.3364E+11
   -1.657511   10.04716  0.0000E+00  0.7926E-05  0.6363E-05  0.2535E-03  0.7631E-04  0.3984E+08
   -1.700009    9.93518  0.0000E+00  0.0000E+00  0.0000E+00  0.0000E+00  0.1521E-03  0.0000E+00
