 1 - depth, m
 2 - temperature, C
 3 - salinity, kg/kg
 4 - turbulent kinetic energy, m**2/s**2
 5 - dissipation rate, m**2/s**3
 6 - kinematic heat conductance, m**2/s
 7 - modulus of horizontal velocity, m/s
 8 - Richardson number, n/d
   -0.000000   16.12757  0.0000E+00  0.2967E-03  0.5219E-03  0.5700E-04  0.1488E+00  0.3370E-01
   -0.042497   16.22916  0.0000E+00  0.1405E-03  0.1511E-03  0.1346E-03  0.3476E-01 -0.7459E-01
   -0.084995   16.26690  0.0000E+00  0.9727E-04  0.6597E-04  0.1729E-03  0.2053E-01  0.1174E+03
   -0.127493   16.28712  0.0000E+00  0.7508E-04  0.3936E-04  0.2103E-03  0.1587E-01  0.2866E+01
   -0.169991   16.30064  0.0000E+00  0.5964E-04  0.2287E-04  0.2673E-03  0.1290E-01  0.1354E+03
   -0.212490   16.31045  0.0000E+00  0.4809E-04  0.1309E-04  0.3388E-03  0.1057E-01  0.5758E+02
   -0.254989   16.31861  0.0000E+00  0.3946E-04  0.6877E-05  0.4078E-03  0.8819E-02  0.6509E+02
   -0.297489   16.32514  0.0000E+00  0.3308E-04  0.3905E-05  0.4728E-03  0.7577E-02  0.9344E+01
   -0.339988   16.33083  0.0000E+00  0.2852E-04  0.2155E-05  0.5377E-03  0.6580E-02  0.1281E+02
   -0.382488   16.33575  0.0000E+00  0.2546E-04  0.1234E-05  0.6054E-03  0.5666E-02  0.1115E+04
   -0.424989   16.34000  0.0000E+00  0.2347E-04  0.7358E-06  0.6652E-03  0.4922E-02  0.2008E+02
   -0.467489   16.34396  0.0000E+00  0.2220E-04  0.4766E-06  0.7246E-03  0.4226E-02  0.7823E+02
   -0.509989   16.34731  0.0000E+00  0.2140E-04  0.3288E-06  0.7879E-03  0.3617E-02  0.8945E+01
   -0.552490   16.35034  0.0000E+00  0.2094E-04  0.2417E-06  0.8572E-03  0.3084E-02  0.4741E+02
   -0.594991   16.35294  0.0000E+00  0.2069E-04  0.1911E-06  0.9289E-03  0.2623E-02  0.1200E+02
   -0.637492   16.35533  0.0000E+00  0.2055E-04  0.1587E-06  0.1009E-02  0.2222E-02  0.2741E+02
   -0.679993   16.35747  0.0000E+00  0.2050E-04  0.1375E-06  0.1089E-02  0.1886E-02  0.2196E+01
   -0.722494   16.35950  0.0000E+00  0.2048E-04  0.1225E-06  0.1168E-02  0.1602E-02  0.1897E+01
   -0.764996   16.36143  0.0000E+00  0.2047E-04  0.1115E-06  0.1246E-02  0.1369E-02  0.2002E+01
   -0.807497   16.36331  0.0000E+00  0.2044E-04  0.1035E-06  0.1309E-02  0.1184E-02  0.1483E+01
   -0.849998   16.36516  0.0000E+00  0.2040E-04  0.9758E-07  0.1348E-02  0.1033E-02  0.1469E+01
   -0.892500   16.36699  0.0000E+00  0.2032E-04  0.9347E-07  0.1368E-02  0.9084E-03  0.1522E+01
   -0.935001   16.36883  0.0000E+00  0.2022E-04  0.9078E-07  0.1374E-02  0.8055E-03  0.1673E+01
   -0.977502   16.37066  0.0000E+00  0.2009E-04  0.8931E-07  0.1366E-02  0.7179E-03  0.1508E+01
   -1.020003   16.37254  0.0000E+00  0.1992E-04  0.8895E-07  0.1346E-02  0.6432E-03  0.1572E+01
   -1.062504   16.37445  0.0000E+00  0.1973E-04  0.8969E-07  0.1312E-02  0.5780E-03  0.1688E+01
   -1.105006   16.37642  0.0000E+00  0.1950E-04  0.9159E-07  0.1269E-02  0.5201E-03  0.1832E+01
   -1.147506   16.37846  0.0000E+00  0.1925E-04  0.9480E-07  0.1220E-02  0.4672E-03  0.1613E+01
   -1.190007   16.38058  0.0000E+00  0.1898E-04  0.9964E-07  0.1166E-02  0.4170E-03  0.3749E+01
   -1.232508   16.38274  0.0000E+00  0.1867E-04  0.1072E-06  0.1101E-02  0.3700E-03 -0.1699E+01
   -1.275008   16.38525  0.0000E+00  0.1830E-04  0.1188E-06  0.1059E-02  0.3276E-03 -0.3899E+02
   -1.317508   16.38825  0.0000E+00  0.1784E-04  0.1370E-06  0.9527E-03  0.2898E-03  0.1922E+04
   -1.360008   16.39228  0.0000E+00  0.1723E-04  0.1671E-06  0.8986E-03  0.2537E-03  0.3586E+03
   -1.402508   16.39797  0.0000E+00  0.1641E-04  0.2185E-06  0.7894E-03  0.2213E-03  0.8378E+03
   -1.445007   16.40495  0.0000E+00  0.1541E-04  0.3110E-06  0.6902E-03  0.1894E-03  0.1439E+05
   -1.487506   16.41476  0.0000E+00  0.1452E-04  0.4360E-06  0.6083E-03  0.1505E-03  0.1267E+06
   -1.530005   16.42268  0.0000E+00  0.1355E-04  0.8551E-06  0.5018E-03  0.1146E-03 -0.1553E+06
   -1.572504   16.47902  0.0000E+00  0.1283E-04  0.1475E-05  0.5229E-03  0.7569E-04  0.2698E+11
   -1.615002   16.42815  0.0000E+00  0.1120E-04  0.4104E-05  0.3049E-03  0.6218E-04 -0.3098E+10
   -1.657499   16.67596  0.0000E+00  0.8745E-05  0.8167E-05  0.2991E-03  0.3950E-04 -0.2410E+06
   -1.699997   16.62166  0.0000E+00  0.0000E+00  0.0000E+00  0.0000E+00  0.7917E-04  0.0000E+00
