 1 - depth, m
 2 - temperature, C
 3 - salinity, kg/kg
 4 - turbulent kinetic energy, m**2/s**2
 5 - dissipation rate, m**2/s**3
 6 - kinematic heat conductance, m**2/s
 7 - modulus of horizontal velocity, m/s
 8 - Richardson number, n/d
   -0.000000    7.11159  0.0000E+00  0.4942E-03  0.1102E-02  0.9026E-04  0.2242E+00  0.2066E+00
   -0.042497    7.51039  0.0000E+00  0.2463E-03  0.3257E-03  0.2159E-03  0.4855E-01 -0.7681E+00
   -0.084995    7.58678  0.0000E+00  0.1720E-03  0.1683E-03  0.1934E-03  0.2990E-01 -0.3642E+00
   -0.127493    7.63784  0.0000E+00  0.1302E-03  0.1069E-03  0.1818E-03  0.2396E-01  0.7684E+01
   -0.169991    7.67614  0.0000E+00  0.9875E-04  0.5862E-04  0.1942E-03  0.1968E-01  0.8995E+02
   -0.212489    7.70742  0.0000E+00  0.7604E-04  0.3362E-04  0.2144E-03  0.1611E-01  0.7083E+02
   -0.254988    7.73490  0.0000E+00  0.5940E-04  0.2048E-04  0.2466E-03  0.1338E-01  0.4633E+02
   -0.297488    7.75682  0.0000E+00  0.4674E-04  0.1052E-04  0.2822E-03  0.1141E-01  0.9622E+02
   -0.339987    7.77844  0.0000E+00  0.3829E-04  0.6054E-05  0.3258E-03  0.9714E-02  0.2674E+02
   -0.382487    7.79798  0.0000E+00  0.3251E-04  0.3569E-05  0.3765E-03  0.8231E-02  0.7184E+02
   -0.424987    7.81290  0.0000E+00  0.2843E-04  0.2065E-05  0.4192E-03  0.7127E-02  0.1402E+03
   -0.467487    7.82562  0.0000E+00  0.2553E-04  0.1200E-05  0.4764E-03  0.6114E-02  0.4252E+02
   -0.509988    7.83636  0.0000E+00  0.2351E-04  0.7227E-06  0.5275E-03  0.5235E-02  0.1496E+03
   -0.552488    7.84578  0.0000E+00  0.2206E-04  0.4586E-06  0.5823E-03  0.4469E-02  0.2242E+02
   -0.594989    7.85386  0.0000E+00  0.2100E-04  0.3320E-06  0.6341E-03  0.3796E-02  0.1288E+02
   -0.637490    7.86064  0.0000E+00  0.2022E-04  0.2537E-06  0.6920E-03  0.3221E-02  0.8897E+01
   -0.679991    7.86689  0.0000E+00  0.1960E-04  0.1997E-06  0.7533E-03  0.2739E-02  0.4492E+01
   -0.722492    7.87252  0.0000E+00  0.1910E-04  0.1640E-06  0.8241E-03  0.2329E-02  0.5092E+01
   -0.764993    7.87798  0.0000E+00  0.1869E-04  0.1388E-06  0.9012E-03  0.1990E-02  0.3013E+01
   -0.807494    7.88307  0.0000E+00  0.1833E-04  0.1204E-06  0.9697E-03  0.1718E-02  0.3896E+01
   -0.849995    7.88807  0.0000E+00  0.1801E-04  0.1067E-06  0.1032E-02  0.1492E-02  0.1854E+01
   -0.892496    7.89281  0.0000E+00  0.1771E-04  0.9637E-07  0.1082E-02  0.1304E-02  0.1875E+01
   -0.934997    7.89749  0.0000E+00  0.1742E-04  0.8850E-07  0.1117E-02  0.1146E-02  0.1527E+01
   -0.977499    7.90201  0.0000E+00  0.1714E-04  0.8258E-07  0.1137E-02  0.1011E-02  0.2798E+01
   -1.020000    7.90651  0.0000E+00  0.1685E-04  0.7826E-07  0.1141E-02  0.8947E-03  0.2531E+01
   -1.062501    7.91097  0.0000E+00  0.1657E-04  0.7525E-07  0.1131E-02  0.7927E-03  0.1489E+01
   -1.105001    7.91545  0.0000E+00  0.1627E-04  0.7344E-07  0.1107E-02  0.7026E-03  0.1530E+01
   -1.147502    7.91998  0.0000E+00  0.1599E-04  0.7281E-07  0.1075E-02  0.6204E-03  0.1616E+01
   -1.190003    7.92451  0.0000E+00  0.1571E-04  0.7339E-07  0.1033E-02  0.5434E-03  0.1794E+01
   -1.232503    7.92906  0.0000E+00  0.1543E-04  0.7541E-07  0.9879E-03  0.4721E-03  0.2146E+01
   -1.275003    7.93395  0.0000E+00  0.1514E-04  0.7948E-07  0.9303E-03  0.4106E-03  0.4028E+01
   -1.317503    7.93967  0.0000E+00  0.1480E-04  0.8654E-07  0.8778E-03  0.3576E-03  0.3505E+02
   -1.360003    7.94635  0.0000E+00  0.1439E-04  0.9900E-07  0.8000E-03  0.3118E-03 -0.1853E+03
   -1.402503    7.95625  0.0000E+00  0.1383E-04  0.1209E-06  0.7320E-03  0.2703E-03  0.3998E+04
   -1.445002    7.96675  0.0000E+00  0.1313E-04  0.1600E-06  0.6494E-03  0.2317E-03  0.5536E+04
   -1.487501    7.98531  0.0000E+00  0.1243E-04  0.2210E-06  0.5759E-03  0.1846E-03  0.4451E+05
   -1.529999    7.99825  0.0000E+00  0.1164E-04  0.3827E-06  0.4450E-03  0.1405E-03 -0.4336E+05
   -1.572498    8.08113  0.0000E+00  0.1092E-04  0.7016E-06  0.4710E-03  0.9159E-04  0.3430E+10
   -1.614996    8.01650  0.0000E+00  0.9445E-05  0.1987E-05  0.2189E-03  0.7501E-04 -0.1807E+10
   -1.657493    8.41989  0.0000E+00  0.7205E-05  0.4209E-05  0.2137E-03  0.4674E-04 -0.4780E+06
   -1.699990    8.34725  0.0000E+00  0.0000E+00  0.0000E+00  0.0000E+00  0.8588E-04  0.0000E+00
