 1 - depth, m
 2 - temperature, C
 3 - salinity, kg/kg
 4 - turbulent kinetic energy, m**2/s**2
 5 - dissipation rate, m**2/s**3
 6 - kinematic heat conductance, m**2/s
 7 - modulus of horizontal velocity, m/s
 8 - Richardson number, n/d
   -0.000000    9.13213  0.0000E+00  0.2914E-03  0.2991E-03  0.7356E-04  0.1566E+00  0.2034E-01
   -0.042497    9.38479  0.0000E+00  0.1487E-03  0.8496E-04  0.1948E-03  0.3393E-01  0.5780E+01
   -0.084995    9.43317  0.0000E+00  0.1065E-03  0.3992E-04  0.2059E-03  0.2153E-01  0.4407E+01
   -0.127493    9.46358  0.0000E+00  0.8239E-04  0.2084E-04  0.2388E-03  0.1722E-01  0.3643E+03
   -0.169991    9.48660  0.0000E+00  0.6521E-04  0.1149E-04  0.2811E-03  0.1414E-01  0.8841E+02
   -0.212490    9.50599  0.0000E+00  0.5248E-04  0.6571E-05  0.3398E-03  0.1167E-01  0.2116E+02
   -0.254989    9.52132  0.0000E+00  0.4290E-04  0.3745E-05  0.4034E-03  0.9800E-02  0.5977E+02
   -0.297488    9.53446  0.0000E+00  0.3580E-04  0.2123E-05  0.4644E-03  0.8421E-02  0.1223E+02
   -0.339988    9.54614  0.0000E+00  0.3082E-04  0.1266E-05  0.5264E-03  0.7289E-02  0.1795E+02
   -0.382488    9.55620  0.0000E+00  0.2734E-04  0.7961E-06  0.5906E-03  0.6292E-02  0.5599E+02
   -0.424988    9.56494  0.0000E+00  0.2490E-04  0.5379E-06  0.6498E-03  0.5479E-02  0.1856E+03
   -0.467488    9.57230  0.0000E+00  0.2323E-04  0.3877E-06  0.7079E-03  0.4754E-02  0.1507E+02
   -0.509989    9.57868  0.0000E+00  0.2208E-04  0.2923E-06  0.7667E-03  0.4119E-02  0.7954E+02
   -0.552490    9.58419  0.0000E+00  0.2127E-04  0.2297E-06  0.8265E-03  0.3558E-02  0.1826E+02
   -0.594990    9.58905  0.0000E+00  0.2071E-04  0.1880E-06  0.8831E-03  0.3055E-02  0.1151E+02
   -0.637491    9.59335  0.0000E+00  0.2028E-04  0.1586E-06  0.9424E-03  0.2605E-02  0.4643E+01
   -0.679992    9.59738  0.0000E+00  0.1995E-04  0.1370E-06  0.1002E-02  0.2215E-02  0.3278E+01
   -0.722494    9.60122  0.0000E+00  0.1969E-04  0.1209E-06  0.1061E-02  0.1879E-02  0.2096E+01
   -0.764995    9.60493  0.0000E+00  0.1946E-04  0.1084E-06  0.1118E-02  0.1599E-02  0.1618E+01
   -0.807496    9.60862  0.0000E+00  0.1926E-04  0.9864E-07  0.1165E-02  0.1373E-02  0.1563E+01
   -0.849997    9.61226  0.0000E+00  0.1907E-04  0.9130E-07  0.1201E-02  0.1186E-02  0.1576E+01
   -0.892499    9.61586  0.0000E+00  0.1888E-04  0.8582E-07  0.1228E-02  0.1030E-02  0.1587E+01
   -0.935000    9.61945  0.0000E+00  0.1867E-04  0.8198E-07  0.1243E-02  0.9009E-03  0.1688E+01
   -0.977501    9.62301  0.0000E+00  0.1846E-04  0.7949E-07  0.1245E-02  0.7912E-03  0.1762E+01
   -1.020002    9.62658  0.0000E+00  0.1823E-04  0.7819E-07  0.1237E-02  0.6984E-03  0.1949E+01
   -1.062503    9.63016  0.0000E+00  0.1798E-04  0.7801E-07  0.1217E-02  0.6182E-03  0.2121E+01
   -1.105004    9.63379  0.0000E+00  0.1771E-04  0.7894E-07  0.1186E-02  0.5486E-03  0.2445E+01
   -1.147505    9.63750  0.0000E+00  0.1743E-04  0.8104E-07  0.1147E-02  0.4863E-03  0.2829E+01
   -1.190006    9.64125  0.0000E+00  0.1714E-04  0.8452E-07  0.1099E-02  0.4293E-03  0.3381E+01
   -1.232506    9.64508  0.0000E+00  0.1683E-04  0.9011E-07  0.1041E-02  0.3770E-03  0.5562E+00
   -1.275007    9.64938  0.0000E+00  0.1648E-04  0.9915E-07  0.9791E-03  0.3317E-03 -0.1814E+01
   -1.317507    9.65480  0.0000E+00  0.1606E-04  0.1134E-06  0.9137E-03  0.2917E-03  0.1602E+03
   -1.360006    9.66163  0.0000E+00  0.1550E-04  0.1376E-06  0.8385E-03  0.2564E-03  0.1643E+06
   -1.402506    9.67198  0.0000E+00  0.1477E-04  0.1787E-06  0.7372E-03  0.2230E-03  0.4040E+04
   -1.445005    9.68237  0.0000E+00  0.1389E-04  0.2522E-06  0.6445E-03  0.1922E-03  0.4054E+06
   -1.487504    9.70193  0.0000E+00  0.1310E-04  0.3572E-06  0.5873E-03  0.1516E-03  0.1413E+06
   -1.530003    9.71261  0.0000E+00  0.1221E-04  0.6418E-06  0.4592E-03  0.1169E-03 -0.3614E+06
   -1.572502    9.80875  0.0000E+00  0.1149E-04  0.1138E-05  0.4885E-03  0.7778E-04  0.1279E+11
   -1.615000    9.71992  0.0000E+00  0.9989E-05  0.3258E-05  0.2599E-03  0.6380E-04 -0.5611E+10
   -1.657497   10.13760  0.0000E+00  0.7762E-05  0.6591E-05  0.2725E-03  0.4027E-04  0.1044E+06
   -1.699995   10.03166  0.0000E+00  0.0000E+00  0.0000E+00  0.0000E+00  0.7645E-04  0.0000E+00
