 1 - depth, m
 2 - temperature, C
 3 - salinity, kg/kg
 4 - turbulent kinetic energy, m**2/s**2
 5 - dissipation rate, m**2/s**3
 6 - kinematic heat conductance, m**2/s
 7 - modulus of horizontal velocity, m/s
 8 - Richardson number, n/d
   -0.000000    5.27531  0.0000E+00  0.1092E-02  0.4254E-02  0.9798E-04  0.3868E+00 -0.2518E-02
   -0.042498    5.60581  0.0000E+00  0.5308E-03  0.1709E-02  0.3177E-03  0.7917E-01 -0.3005E+00
   -0.084995    5.69183  0.0000E+00  0.3711E-03  0.8310E-03  0.3036E-03  0.4808E-01 -0.2442E+01
   -0.127494    5.74128  0.0000E+00  0.2832E-03  0.5410E-03  0.2815E-03  0.3933E-01 -0.5596E-01
   -0.169993    5.77971  0.0000E+00  0.2218E-03  0.3782E-03  0.2613E-03  0.3320E-01  0.4009E+00
   -0.212492    5.80765  0.0000E+00  0.1739E-03  0.2680E-03  0.2449E-03  0.2798E-01  0.3315E+02
   -0.254991    5.83269  0.0000E+00  0.1373E-03  0.1873E-03  0.2459E-03  0.2388E-01  0.1136E+01
   -0.297491    5.85641  0.0000E+00  0.1097E-03  0.1279E-03  0.2508E-03  0.2070E-01  0.2935E+02
   -0.339990    5.87852  0.0000E+00  0.8928E-04  0.8456E-04  0.2590E-03  0.1833E-01  0.9281E+01
   -0.382491    5.89983  0.0000E+00  0.7398E-04  0.5352E-04  0.2726E-03  0.1594E-01  0.2360E+02
   -0.424991    5.91876  0.0000E+00  0.6233E-04  0.3230E-04  0.2887E-03  0.1408E-01  0.2448E+02
   -0.467492    5.93675  0.0000E+00  0.5347E-04  0.1875E-04  0.3145E-03  0.1215E-01  0.5813E+02
   -0.509993    5.95452  0.0000E+00  0.4666E-04  0.1060E-04  0.3493E-03  0.1039E-01  0.2402E+03
   -0.552494    5.96849  0.0000E+00  0.4133E-04  0.5940E-05  0.3849E-03  0.8924E-02  0.8587E+02
   -0.594995    5.98189  0.0000E+00  0.3697E-04  0.3372E-05  0.4285E-03  0.7603E-02  0.2400E+02
   -0.637496    5.99281  0.0000E+00  0.3338E-04  0.1998E-05  0.4801E-03  0.6494E-02  0.5850E+02
   -0.679997    6.00306  0.0000E+00  0.3044E-04  0.1254E-05  0.5305E-03  0.5607E-02  0.3028E+02
   -0.722499    6.01214  0.0000E+00  0.2799E-04  0.8314E-06  0.5953E-03  0.4860E-02  0.1865E+02
   -0.765000    6.02041  0.0000E+00  0.2590E-04  0.6089E-06  0.6510E-03  0.4250E-02  0.9326E+03
   -0.807502    6.02834  0.0000E+00  0.2407E-04  0.4563E-06  0.7060E-03  0.3753E-02  0.5693E+02
   -0.850003    6.03614  0.0000E+00  0.2250E-04  0.3438E-06  0.7541E-03  0.3327E-02 -0.2790E+02
   -0.892505    6.04267  0.0000E+00  0.2114E-04  0.2695E-06  0.7983E-03  0.2962E-02  0.5055E+02
   -0.935007    6.04984  0.0000E+00  0.1996E-04  0.2194E-06  0.8327E-03  0.2646E-02  0.4825E+02
   -0.977508    6.05574  0.0000E+00  0.1893E-04  0.1836E-06  0.8611E-03  0.2363E-02  0.5728E+01
   -1.020010    6.06226  0.0000E+00  0.1801E-04  0.1566E-06  0.8781E-03  0.2112E-02  0.7088E+01
   -1.062511    6.06804  0.0000E+00  0.1718E-04  0.1355E-06  0.8917E-03  0.1882E-02  0.2399E+03
   -1.105012    6.07401  0.0000E+00  0.1644E-04  0.1193E-06  0.8953E-03  0.1672E-02  0.4532E+01
   -1.147513    6.07970  0.0000E+00  0.1577E-04  0.1066E-06  0.8892E-03  0.1473E-02  0.4118E+01
   -1.190014    6.08525  0.0000E+00  0.1518E-04  0.9727E-07  0.8776E-03  0.1281E-02  0.1164E+02
   -1.232515    6.09060  0.0000E+00  0.1465E-04  0.9058E-07  0.8602E-03  0.1100E-02  0.2562E+01
   -1.275016    6.09613  0.0000E+00  0.1413E-04  0.8600E-07  0.8347E-03  0.9414E-03  0.4745E+01
   -1.317516    6.10206  0.0000E+00  0.1365E-04  0.8397E-07  0.7969E-03  0.8049E-03  0.4126E+01
   -1.360016    6.10861  0.0000E+00  0.1317E-04  0.8516E-07  0.7491E-03  0.6895E-03  0.5089E+01
   -1.402516    6.11625  0.0000E+00  0.1264E-04  0.9212E-07  0.6928E-03  0.5936E-03 -0.5195E+02
   -1.445016    6.12627  0.0000E+00  0.1207E-04  0.1095E-06  0.6251E-03  0.5065E-03  0.2780E+02
   -1.487515    6.13844  0.0000E+00  0.1149E-04  0.1391E-06  0.5668E-03  0.4157E-03  0.6295E+03
   -1.530014    6.15288  0.0000E+00  0.1086E-04  0.2138E-06  0.4495E-03  0.3175E-03  0.3735E+05
   -1.572513    6.18793  0.0000E+00  0.1023E-04  0.3972E-06  0.4514E-03  0.2232E-03  0.2163E+07
   -1.615011    6.18052  0.0000E+00  0.8846E-05  0.1259E-05  0.2060E-03  0.1801E-03 -0.5366E+09
   -1.657509    6.45637  0.0000E+00  0.6381E-05  0.2540E-05  0.1417E-03  0.1175E-03 -0.3543E+06
   -1.700007    6.47972  0.0000E+00  0.0000E+00  0.0000E+00  0.0000E+00  0.1945E-03  0.0000E+00
