 1 - depth, m
 2 - temperature, C
 3 - salinity, kg/kg
 4 - turbulent kinetic energy, m**2/s**2
 5 - dissipation rate, m**2/s**3
 6 - kinematic heat conductance, m**2/s
 7 - modulus of horizontal velocity, m/s
 8 - Richardson number, n/d
   -0.000000   -0.00026  0.0000E+00  0.2347E-03  0.2555E-03  0.7829E-04  0.1841E+00  0.4533E-01
   -0.042498    0.08836  0.0000E+00  0.1288E-03  0.8629E-04  0.1048E-03  0.5163E-01  0.1289E+00
   -0.084996    0.15216  0.0000E+00  0.8515E-04  0.3176E-04  0.8617E-04  0.3447E-01  0.1879E+00
   -0.127495    0.22017  0.0000E+00  0.5918E-04  0.1296E-04  0.7239E-04  0.2675E-01  0.2639E+00
   -0.169994    0.29717  0.0000E+00  0.4039E-04  0.5236E-05  0.6009E-04  0.2090E-01  0.7345E+00
   -0.212493    0.39472  0.0000E+00  0.2667E-04  0.2091E-05  0.4701E-04  0.1585E-01  0.1729E+01
   -0.254992    0.55951  0.0000E+00  0.1715E-04  0.9240E-06  0.3391E-04  0.1174E-01  0.2998E+02
   -0.297492    0.95285  0.0000E+00  0.1094E-04  0.4447E-06  0.2610E-04  0.8692E-02  0.2420E+03
   -0.339992    1.65876  0.0000E+00  0.7127E-05  0.2293E-06  0.4950E-04  0.6374E-02  0.4006E+03
   -0.382493    2.05950  0.0000E+00  0.4640E-05  0.1178E-06  0.8879E-04  0.4665E-02  0.2254E+04
   -0.424994    2.62508  0.0000E+00  0.3358E-05  0.6193E-07  0.1485E-03  0.3312E-02  0.2215E+04
   -0.467494    3.23736  0.0000E+00  0.2749E-05  0.3273E-07  0.2298E-03  0.1988E-02  0.1299E+04
   -0.509995    3.74418  0.0000E+00  0.2522E-05  0.1769E-07  0.2969E-03  0.1057E-02  0.1281E+04
   -0.552497    4.04139  0.0000E+00  0.2480E-05  0.1030E-07  0.3588E-03  0.5460E-03  0.1349E+05
   -0.594998    4.19086  0.0000E+00  0.2491E-05  0.7155E-08  0.4180E-03  0.3025E-03 -0.3083E+05
   -0.637500    4.24474  0.0000E+00  0.2532E-05  0.5795E-08  0.4557E-03  0.1886E-03  0.4263E+04
   -0.680001    4.26619  0.0000E+00  0.2594E-05  0.5212E-08  0.4848E-03  0.1348E-03  0.3839E+04
   -0.722503    4.28047  0.0000E+00  0.2668E-05  0.4966E-08  0.5111E-03  0.1043E-03  0.1160E+05
   -0.765005    4.29213  0.0000E+00  0.2748E-05  0.4867E-08  0.5352E-03  0.8484E-04  0.2588E+04
   -0.807507    4.30291  0.0000E+00  0.2832E-05  0.4839E-08  0.5575E-03  0.7184E-04  0.3242E+04
   -0.850008    4.31329  0.0000E+00  0.2916E-05  0.4853E-08  0.5777E-03  0.6207E-04  0.4023E+04
   -0.892510    4.32340  0.0000E+00  0.2998E-05  0.4897E-08  0.5960E-03  0.5419E-04  0.4939E+04
   -0.935012    4.33329  0.0000E+00  0.3076E-05  0.4965E-08  0.6118E-03  0.4771E-04  0.6017E+04
   -0.977514    4.34289  0.0000E+00  0.3150E-05  0.5054E-08  0.6247E-03  0.4217E-04  0.7058E+04
   -1.020015    4.35228  0.0000E+00  0.3220E-05  0.5160E-08  0.6345E-03  0.3744E-04  0.8299E+04
   -1.062517    4.36143  0.0000E+00  0.3284E-05  0.5284E-08  0.6391E-03  0.3325E-04  0.9426E+04
   -1.105019    4.37036  0.0000E+00  0.3343E-05  0.5427E-08  0.6411E-03  0.2953E-04  0.1081E+05
   -1.147520    4.37905  0.0000E+00  0.3396E-05  0.5589E-08  0.6406E-03  0.2611E-04  0.1225E+05
   -1.190021    4.38736  0.0000E+00  0.3444E-05  0.5774E-08  0.6364E-03  0.2289E-04  0.7833E+04
   -1.232522    4.39538  0.0000E+00  0.3491E-05  0.5999E-08  0.6259E-03  0.1988E-04  0.1669E+05
   -1.275023    4.40366  0.0000E+00  0.3538E-05  0.6279E-08  0.6196E-03  0.1719E-04  0.4703E+05
   -1.317524    4.41238  0.0000E+00  0.3584E-05  0.6637E-08  0.5885E-03  0.1478E-04 -0.8475E+06
   -1.360024    4.42181  0.0000E+00  0.3630E-05  0.7098E-08  0.5737E-03  0.1265E-04  0.1086E+07
   -1.402524    4.43225  0.0000E+00  0.3674E-05  0.7725E-08  0.5308E-03  0.1079E-04  0.7509E+06
   -1.445024    4.44419  0.0000E+00  0.3712E-05  0.8495E-08  0.4978E-03  0.9107E-05  0.1076E+06
   -1.487524    4.45643  0.0000E+00  0.3745E-05  0.9495E-08  0.4583E-03  0.7486E-05  0.1408E+06
   -1.530023    4.46829  0.0000E+00  0.3781E-05  0.1112E-07  0.3914E-03  0.5929E-05  0.2538E+06
   -1.572522    4.48195  0.0000E+00  0.3823E-05  0.1479E-07  0.3215E-03  0.4524E-05  0.6684E+06
   -1.615021    4.50640  0.0000E+00  0.3761E-05  0.2874E-07  0.1735E-03  0.3465E-05 -0.5696E+09
   -1.657519    4.59249  0.0000E+00  0.2826E-05  0.9842E-07  0.3290E-04  0.2436E-05 -0.4291E+10
   -1.700017    4.97297  0.0000E+00  0.0000E+00  0.0000E+00  0.0000E+00  0.2480E-05  0.0000E+00
