 1 - depth, m
 2 - temperature, C
 3 - salinity, kg/kg
 4 - turbulent kinetic energy, m**2/s**2
 5 - dissipation rate, m**2/s**3
 6 - kinematic heat conductance, m**2/s
 7 - modulus of horizontal velocity, m/s
 8 - Richardson number, n/d
   -0.000000    6.28968  0.0000E+00  0.5563E-03  0.1038E-02  0.9089E-04  0.2807E+00  0.1571E+00
   -0.042497    6.54292  0.0000E+00  0.2883E-03  0.3656E-03  0.2227E-03  0.6199E-01 -0.2620E-01
   -0.084995    6.61238  0.0000E+00  0.2004E-03  0.1655E-03  0.1996E-03  0.3770E-01 -0.2591E-01
   -0.127493    6.65302  0.0000E+00  0.1503E-03  0.9446E-04  0.1862E-03  0.2971E-01 -0.6983E-01
   -0.169992    6.68410  0.0000E+00  0.1163E-03  0.5825E-04  0.1829E-03  0.2450E-01  0.8157E-01
   -0.212490    6.70904  0.0000E+00  0.9072E-04  0.3617E-04  0.1903E-03  0.2026E-01  0.2400E+01
   -0.254989    6.73272  0.0000E+00  0.7183E-04  0.2253E-04  0.2102E-03  0.1699E-01  0.3232E+02
   -0.297489    6.75363  0.0000E+00  0.5784E-04  0.1376E-04  0.2307E-03  0.1461E-01  0.2029E+02
   -0.339989    6.77263  0.0000E+00  0.4758E-04  0.8167E-05  0.2526E-03  0.1270E-01  0.4128E+02
   -0.382489    6.78954  0.0000E+00  0.4010E-04  0.4690E-05  0.2789E-03  0.1095E-01  0.2633E+02
   -0.424989    6.80505  0.0000E+00  0.3467E-04  0.2648E-05  0.3151E-03  0.9556E-02  0.2803E+02
   -0.467489    6.81818  0.0000E+00  0.3065E-04  0.1518E-05  0.3606E-03  0.8260E-02  0.3958E+02
   -0.509990    6.83051  0.0000E+00  0.2759E-04  0.9205E-06  0.4073E-03  0.7116E-02  0.1692E+03
   -0.552490    6.84032  0.0000E+00  0.2522E-04  0.6036E-06  0.4578E-03  0.6130E-02  0.5497E+02
   -0.594991    6.84967  0.0000E+00  0.2334E-04  0.4227E-06  0.5154E-03  0.5249E-02  0.1580E+03
   -0.637492    6.85723  0.0000E+00  0.2182E-04  0.3203E-06  0.5810E-03  0.4489E-02  0.1845E+02
   -0.679994    6.86419  0.0000E+00  0.2057E-04  0.2520E-06  0.6441E-03  0.3853E-02  0.4690E+02
   -0.722495    6.87038  0.0000E+00  0.1953E-04  0.2032E-06  0.7083E-03  0.3305E-02  0.1975E+02
   -0.764996    6.87617  0.0000E+00  0.1866E-04  0.1681E-06  0.7691E-03  0.2850E-02  0.2799E+02
   -0.807497    6.88173  0.0000E+00  0.1787E-04  0.1410E-06  0.8231E-03  0.2476E-02  0.1338E+03
   -0.849999    6.88708  0.0000E+00  0.1722E-04  0.1209E-06  0.8770E-03  0.2155E-02  0.4833E+02
   -0.892500    6.89229  0.0000E+00  0.1668E-04  0.1056E-06  0.9305E-03  0.1893E-02  0.1108E+02
   -0.935001    6.89735  0.0000E+00  0.1618E-04  0.9356E-07  0.9539E-03  0.1672E-02  0.1295E+03
   -0.977503    6.90228  0.0000E+00  0.1571E-04  0.8364E-07  0.9835E-03  0.1466E-02  0.4126E+01
   -1.020004    6.90712  0.0000E+00  0.1529E-04  0.7596E-07  0.9984E-03  0.1289E-02  0.1256E+03
   -1.062505    6.91187  0.0000E+00  0.1489E-04  0.7003E-07  0.1004E-02  0.1131E-02  0.3053E+01
   -1.105006    6.91658  0.0000E+00  0.1452E-04  0.6558E-07  0.9991E-03  0.9900E-03  0.2925E+01
   -1.147507    6.92124  0.0000E+00  0.1419E-04  0.6255E-07  0.9862E-03  0.8603E-03  0.2908E+01
   -1.190008    6.92581  0.0000E+00  0.1388E-04  0.6083E-07  0.9632E-03  0.7383E-03  0.3018E+01
   -1.232508    6.93028  0.0000E+00  0.1359E-04  0.6031E-07  0.9321E-03  0.6255E-03  0.3299E+01
   -1.275009    6.93502  0.0000E+00  0.1332E-04  0.6105E-07  0.8946E-03  0.5296E-03  0.4257E+01
   -1.317509    6.94015  0.0000E+00  0.1305E-04  0.6337E-07  0.8474E-03  0.4500E-03 -0.3754E+01
   -1.360009    6.94598  0.0000E+00  0.1276E-04  0.6803E-07  0.7872E-03  0.3844E-03  0.8792E+01
   -1.402508    6.95288  0.0000E+00  0.1241E-04  0.7712E-07  0.7223E-03  0.3309E-03 -0.4335E+02
   -1.445008    6.96247  0.0000E+00  0.1199E-04  0.9351E-07  0.6426E-03  0.2817E-03  0.9426E+03
   -1.487507    6.97426  0.0000E+00  0.1153E-04  0.1195E-06  0.5868E-03  0.2313E-03  0.3296E+04
   -1.530006    6.98674  0.0000E+00  0.1099E-04  0.1861E-06  0.4655E-03  0.1788E-03  0.5467E+04
   -1.572504    7.03089  0.0000E+00  0.1043E-04  0.3264E-06  0.4699E-03  0.1246E-03  0.1037E+08
   -1.615002    7.01377  0.0000E+00  0.9059E-05  0.9327E-06  0.2069E-03  0.9994E-04 -0.1567E+10
   -1.657500    7.30814  0.0000E+00  0.6654E-05  0.2111E-05  0.1539E-03  0.6370E-04 -0.4853E+07
   -1.699997    7.30554  0.0000E+00  0.0000E+00  0.0000E+00  0.0000E+00  0.1026E-03  0.0000E+00
