 1 - depth, m
 2 - temperature, C
 3 - salinity, kg/kg
 4 - turbulent kinetic energy, m**2/s**2
 5 - dissipation rate, m**2/s**3
 6 - kinematic heat conductance, m**2/s
 7 - modulus of horizontal velocity, m/s
 8 - Richardson number, n/d
   -0.000000    6.06832  0.0000E+00  0.6308E-05  0.2330E-06  0.1979E-04  0.7646E-02 -0.1227E+00
   -0.042497    6.20988  0.0000E+00  0.6249E-05  0.8811E-07  0.9510E-04  0.3283E-02  0.2102E+02
   -0.084995    6.24650  0.0000E+00  0.6382E-05  0.5663E-07  0.2267E-03  0.2094E-02  0.3461E+03
   -0.127493    6.26074  0.0000E+00  0.6629E-05  0.4533E-07  0.3119E-03  0.1648E-02  0.1458E+01
   -0.169991    6.27030  0.0000E+00  0.6970E-05  0.3891E-07  0.3902E-03  0.1378E-02  0.1434E+01
   -0.212490    6.27816  0.0000E+00  0.7359E-05  0.3450E-07  0.4854E-03  0.1152E-02  0.1463E+01
   -0.254989    6.28467  0.0000E+00  0.7761E-05  0.3147E-07  0.5865E-03  0.9776E-03  0.1422E+01
   -0.297489    6.29024  0.0000E+00  0.8158E-05  0.2932E-07  0.6909E-03  0.8423E-03  0.1405E+01
   -0.339988    6.29510  0.0000E+00  0.8532E-05  0.2779E-07  0.7921E-03  0.7352E-03  0.1410E+01
   -0.382488    6.29940  0.0000E+00  0.8881E-05  0.2670E-07  0.8868E-03  0.6465E-03  0.1383E+01
   -0.424988    6.30329  0.0000E+00  0.9202E-05  0.2593E-07  0.9732E-03  0.5722E-03  0.1383E+01
   -0.467489    6.30683  0.0000E+00  0.9497E-05  0.2541E-07  0.1053E-02  0.5068E-03  0.1364E+01
   -0.509989    6.31009  0.0000E+00  0.9768E-05  0.2510E-07  0.1129E-02  0.4487E-03  0.1332E+01
   -0.552490    6.31313  0.0000E+00  0.1001E-04  0.2496E-07  0.1199E-02  0.3971E-03  0.1307E+01
   -0.594991    6.31600  0.0000E+00  0.1024E-04  0.2497E-07  0.1260E-02  0.3517E-03  0.1277E+01
   -0.637492    6.31874  0.0000E+00  0.1044E-04  0.2511E-07  0.1312E-02  0.3121E-03  0.1246E+01
   -0.679993    6.32145  0.0000E+00  0.1062E-04  0.2536E-07  0.1349E-02  0.2788E-03  0.1233E+01
   -0.722494    6.32419  0.0000E+00  0.1079E-04  0.2569E-07  0.1369E-02  0.2511E-03  0.1226E+01
   -0.764995    6.32701  0.0000E+00  0.1093E-04  0.2610E-07  0.1378E-02  0.2287E-03  0.1244E+01
   -0.807497    6.33000  0.0000E+00  0.1105E-04  0.2655E-07  0.1380E-02  0.2105E-03  0.1334E+01
   -0.849998    6.33314  0.0000E+00  0.1115E-04  0.2705E-07  0.1376E-02  0.1954E-03  0.1474E+01
   -0.892499    6.33639  0.0000E+00  0.1123E-04  0.2762E-07  0.1367E-02  0.1824E-03  0.1686E+01
   -0.935001    6.33979  0.0000E+00  0.1129E-04  0.2825E-07  0.1353E-02  0.1709E-03  0.1999E+01
   -0.977502    6.34328  0.0000E+00  0.1134E-04  0.2897E-07  0.1332E-02  0.1602E-03  0.2351E+01
   -1.020003    6.34688  0.0000E+00  0.1136E-04  0.2981E-07  0.1304E-02  0.1502E-03  0.2809E+01
   -1.062504    6.35057  0.0000E+00  0.1137E-04  0.3078E-07  0.1270E-02  0.1405E-03  0.3291E+01
   -1.105005    6.35437  0.0000E+00  0.1136E-04  0.3194E-07  0.1229E-02  0.1311E-03  0.3853E+01
   -1.147506    6.35829  0.0000E+00  0.1133E-04  0.3332E-07  0.1185E-02  0.1219E-03  0.4569E+01
   -1.190007    6.36224  0.0000E+00  0.1128E-04  0.3499E-07  0.1130E-02  0.1125E-03  0.5597E+01
   -1.232507    6.36622  0.0000E+00  0.1122E-04  0.3720E-07  0.1075E-02  0.1031E-03  0.7371E+01
   -1.275008    6.37055  0.0000E+00  0.1113E-04  0.4031E-07  0.9998E-03  0.9395E-04  0.1311E+02
   -1.317508    6.37563  0.0000E+00  0.1100E-04  0.4487E-07  0.9327E-03  0.8484E-04  0.2948E+02
   -1.360008    6.38167  0.0000E+00  0.1080E-04  0.5217E-07  0.8338E-03  0.7604E-04  0.3721E+03
   -1.402507    6.39098  0.0000E+00  0.1050E-04  0.6371E-07  0.7570E-03  0.6699E-04  0.3541E+04
   -1.445007    6.40057  0.0000E+00  0.1011E-04  0.8178E-07  0.6471E-03  0.5861E-04  0.9677E+04
   -1.487506    6.41773  0.0000E+00  0.9690E-05  0.1107E-06  0.5923E-03  0.4771E-04  0.2376E+06
   -1.530005    6.42867  0.0000E+00  0.9192E-05  0.1827E-06  0.4514E-03  0.3772E-04  0.1324E+09
   -1.572503    6.51000  0.0000E+00  0.8652E-05  0.3307E-06  0.4665E-03  0.2644E-04  0.1690E+11
   -1.615001    6.44881  0.0000E+00  0.7477E-05  0.8868E-06  0.2034E-03  0.2141E-04 -0.6723E+11
   -1.657499    6.86253  0.0000E+00  0.5600E-05  0.2031E-05  0.1707E-03  0.1356E-04 -0.1269E+07
   -1.699996    6.80227  0.0000E+00  0.0000E+00  0.0000E+00  0.0000E+00  0.2139E-04  0.0000E+00
