 1 - depth, m
 2 - temperature, C
 3 - salinity, kg/kg
 4 - turbulent kinetic energy, m**2/s**2
 5 - dissipation rate, m**2/s**3
 6 - kinematic heat conductance, m**2/s
 7 - modulus of horizontal velocity, m/s
 8 - Richardson number, n/d
   -0.000000    8.51342  0.0000E+00  0.4153E-02  0.1280E+00  0.2469E-03  0.1303E+01  0.3949E-03
   -0.042498    8.77575  0.0000E+00  0.2203E-02  0.9170E-01  0.4614E-03  0.2908E+00 -0.7486E+00
   -0.084995    9.00017  0.0000E+00  0.1351E-02  0.3138E-01  0.6653E-03  0.1448E+00 -0.7853E-01
   -0.127494    9.06163  0.0000E+00  0.1013E-02  0.2048E-01  0.6170E-03  0.1056E+00  0.4508E-01
   -0.169992    9.08654  0.0000E+00  0.7969E-03  0.1486E-01  0.5654E-03  0.8379E-01  0.5933E+00
   -0.212491    9.10702  0.0000E+00  0.6514E-03  0.1137E-01  0.5970E-03  0.6764E-01  0.4089E+00
   -0.254991    9.12761  0.0000E+00  0.5409E-03  0.8945E-02  0.5977E-03  0.5648E-01  0.9615E-03
   -0.297490    9.14142  0.0000E+00  0.4577E-03  0.7058E-02  0.6027E-03  0.5031E-01 -0.1919E+00
   -0.339990    9.15097  0.0000E+00  0.3948E-03  0.5561E-02  0.6109E-03  0.4632E-01  0.7882E+01
   -0.382490    9.16038  0.0000E+00  0.3450E-03  0.4381E-02  0.6304E-03  0.4204E-01  0.3950E+01
   -0.424991    9.16791  0.0000E+00  0.3079E-03  0.3433E-02  0.6365E-03  0.3942E-01  0.2130E+04
   -0.467491    9.17552  0.0000E+00  0.2776E-03  0.2676E-02  0.6535E-03  0.3615E-01  0.2026E+01
   -0.509992    9.18301  0.0000E+00  0.2509E-03  0.2071E-02  0.6725E-03  0.3277E-01  0.2811E+02
   -0.552493    9.19081  0.0000E+00  0.2288E-03  0.1579E-02  0.6846E-03  0.2989E-01  0.3059E+02
   -0.594994    9.19846  0.0000E+00  0.2095E-03  0.1201E-02  0.7386E-03  0.2692E-01  0.1899E+02
   -0.637495    9.20589  0.0000E+00  0.1920E-03  0.9114E-03  0.8013E-03  0.2432E-01  0.6977E+03
   -0.679997    9.21008  0.0000E+00  0.1771E-03  0.6854E-03  0.8543E-03  0.2244E-01  0.7037E+03
   -0.722498    9.21599  0.0000E+00  0.1644E-03  0.5102E-03  0.9118E-03  0.2074E-01  0.9150E+03
   -0.765000    9.21934  0.0000E+00  0.1528E-03  0.3752E-03  0.9899E-03  0.1933E-01 -0.4408E+04
   -0.807501    9.22537  0.0000E+00  0.1422E-03  0.2653E-03  0.1038E-02  0.1823E-01 -0.2207E+04
   -0.850003    9.23007  0.0000E+00  0.1324E-03  0.1868E-03  0.1096E-02  0.1718E-01 -0.1314E+04
   -0.892504    9.23383  0.0000E+00  0.1235E-03  0.1258E-03  0.1154E-02  0.1619E-01  0.3797E+01
   -0.935006    9.23889  0.0000E+00  0.1160E-03  0.8639E-04  0.1221E-02  0.1532E-01  0.4351E+03
   -0.977507    9.24436  0.0000E+00  0.1093E-03  0.6688E-04  0.1263E-02  0.1440E-01  0.2741E+04
   -1.020009    9.24556  0.0000E+00  0.1032E-03  0.4926E-04  0.1252E-02  0.1359E-01 -0.7607E+02
   -1.062510    9.25330  0.0000E+00  0.9762E-04  0.3304E-04  0.1267E-02  0.1273E-01  0.5022E+03
   -1.105011    9.25524  0.0000E+00  0.9272E-04  0.2481E-04  0.1278E-02  0.1199E-01  0.7510E+02
   -1.147512    9.25916  0.0000E+00  0.8830E-04  0.1769E-04  0.1254E-02  0.1124E-01  0.1120E+04
   -1.190013    9.26460  0.0000E+00  0.8421E-04  0.1051E-04  0.1220E-02  0.1037E-01  0.8763E+02
   -1.232514    9.26757  0.0000E+00  0.8028E-04  0.6718E-05  0.1203E-02  0.9518E-02  0.2362E+03
   -1.275015    9.27261  0.0000E+00  0.7633E-04  0.4553E-05  0.1156E-02  0.8754E-02  0.7129E+03
   -1.317515    9.27773  0.0000E+00  0.7231E-04  0.3221E-05  0.1106E-02  0.8035E-02  0.1306E+03
   -1.360015    9.28173  0.0000E+00  0.6803E-04  0.2455E-05  0.1024E-02  0.7351E-02  0.6725E+04
   -1.402515    9.28948  0.0000E+00  0.6343E-04  0.2278E-05  0.9410E-03  0.6718E-02  0.3507E+05
   -1.445015    9.29750  0.0000E+00  0.5887E-04  0.2490E-05  0.7978E-03  0.6112E-02  0.2688E+05
   -1.487514    9.30917  0.0000E+00  0.5418E-04  0.3049E-05  0.7040E-03  0.5306E-02  0.4355E+05
   -1.530013    9.32407  0.0000E+00  0.4909E-04  0.4439E-05  0.6167E-03  0.4136E-02  0.4098E+03
   -1.572512    9.35247  0.0000E+00  0.4410E-04  0.7620E-05  0.6045E-03  0.3165E-02 -0.2052E+09
   -1.615010    9.36288  0.0000E+00  0.3651E-04  0.2046E-04  0.3463E-03  0.2706E-02 -0.3149E+09
   -1.657508    9.58129  0.0000E+00  0.2604E-04  0.4389E-04  0.2897E-03  0.2018E-02 -0.6344E+07
   -1.700006    9.63630  0.0000E+00  0.0000E+00  0.0000E+00  0.0000E+00  0.3394E-02  0.0000E+00
