 1 - depth, m
 2 - temperature, C
 3 - salinity, kg/kg
 4 - turbulent kinetic energy, m**2/s**2
 5 - dissipation rate, m**2/s**3
 6 - kinematic heat conductance, m**2/s
 7 - modulus of horizontal velocity, m/s
 8 - Richardson number, n/d
   -0.000000   -0.00082  0.0000E+00  0.4343E-03  0.8430E-03  0.8609E-04  0.2779E+00  0.1960E-01
   -0.042497    0.07660  0.0000E+00  0.2314E-03  0.3362E-03  0.1824E-03  0.6975E-01  0.6947E-01
   -0.084994    0.12502  0.0000E+00  0.1550E-03  0.1602E-03  0.1411E-03  0.4354E-01  0.7849E+01
   -0.127491    0.16972  0.0000E+00  0.1128E-03  0.7076E-04  0.1208E-03  0.3412E-01  0.5262E+00
   -0.169989    0.21325  0.0000E+00  0.8181E-04  0.2702E-04  0.1058E-03  0.2728E-01  0.2526E+00
   -0.212487    0.26169  0.0000E+00  0.5883E-04  0.9536E-05  0.9245E-04  0.2157E-01  0.8044E+00
   -0.254985    0.32128  0.0000E+00  0.4256E-04  0.3836E-05  0.7936E-04  0.1704E-01  0.4902E+02
   -0.297484    0.40210  0.0000E+00  0.3142E-04  0.2083E-05  0.6592E-04  0.1396E-01  0.3772E+03
   -0.339983    0.54578  0.0000E+00  0.2331E-04  0.1179E-05  0.5289E-04  0.1183E-01  0.4196E+03
   -0.382482    0.80210  0.0000E+00  0.1716E-04  0.6713E-06  0.6234E-04  0.9915E-02  0.2872E+03
   -0.424981    1.15641  0.0000E+00  0.1280E-04  0.4178E-06  0.7412E-04  0.8509E-02  0.5199E+04
   -0.467481    1.44777  0.0000E+00  0.9539E-05  0.2687E-06  0.8752E-04  0.6948E-02  0.2614E+04
   -0.509981    1.72819  0.0000E+00  0.6958E-05  0.1725E-06  0.1135E-03  0.5388E-02  0.1512E+04
   -0.552481    2.07593  0.0000E+00  0.5084E-05  0.1095E-06  0.1376E-03  0.3892E-02  0.7364E+04
   -0.594981    2.50930  0.0000E+00  0.3838E-05  0.6623E-07  0.1657E-03  0.2440E-02  0.2610E+06
   -0.637481    3.02019  0.0000E+00  0.3190E-05  0.3730E-07  0.2222E-03  0.1305E-02  0.3649E+07
   -0.679982    3.63236  0.0000E+00  0.2937E-05  0.2121E-07  0.3296E-03  0.6609E-03  0.4799E+07
   -0.722482    4.04911  0.0000E+00  0.2855E-05  0.1319E-07  0.4150E-03  0.3332E-03  0.7929E+07
   -0.764983    4.21862  0.0000E+00  0.2831E-05  0.9388E-08  0.4685E-03  0.2007E-03  0.2096E+08
   -0.807484    4.27532  0.0000E+00  0.2849E-05  0.7455E-08  0.4989E-03  0.1364E-03  0.2473E+08
   -0.849984    4.30191  0.0000E+00  0.2894E-05  0.6479E-08  0.5218E-03  0.9797E-04  0.1069E+09
   -0.892485    4.31979  0.0000E+00  0.2954E-05  0.6002E-08  0.5420E-03  0.7395E-04  0.2668E+10
   -0.934985    4.33408  0.0000E+00  0.3022E-05  0.5791E-08  0.5599E-03  0.5859E-04  0.3518E+08
   -0.977486    4.34649  0.0000E+00  0.3091E-05  0.5719E-08  0.5741E-03  0.4812E-04  0.1882E+08
   -1.019986    4.35796  0.0000E+00  0.3159E-05  0.5723E-08  0.5853E-03  0.4066E-04  0.2142E+08
   -1.062487    4.36880  0.0000E+00  0.3224E-05  0.5776E-08  0.5930E-03  0.3487E-04  0.2407E+08
   -1.104987    4.37924  0.0000E+00  0.3285E-05  0.5868E-08  0.5976E-03  0.3026E-04  0.2699E+08
   -1.147487    4.38924  0.0000E+00  0.3340E-05  0.5995E-08  0.5981E-03  0.2625E-04  0.2962E+08
   -1.189987    4.39873  0.0000E+00  0.3392E-05  0.6157E-08  0.5945E-03  0.2256E-04  0.3245E+08
   -1.232487    4.40781  0.0000E+00  0.3442E-05  0.6370E-08  0.5864E-03  0.1921E-04  0.3790E+08
   -1.274987    4.41714  0.0000E+00  0.3493E-05  0.6647E-08  0.5744E-03  0.1629E-04  0.5003E+08
   -1.317486    4.42692  0.0000E+00  0.3544E-05  0.7006E-08  0.5572E-03  0.1376E-04  0.6871E+08
   -1.359986    4.43741  0.0000E+00  0.3595E-05  0.7477E-08  0.5491E-03  0.1158E-04  0.9452E+08
   -1.402484    4.44879  0.0000E+00  0.3645E-05  0.8125E-08  0.4961E-03  0.9764E-05  0.1563E+09
   -1.444983    4.46203  0.0000E+00  0.3687E-05  0.8915E-08  0.4871E-03  0.8115E-05  0.2346E+09
   -1.487482    4.47512  0.0000E+00  0.3725E-05  0.9963E-08  0.4251E-03  0.6607E-05  0.3199E+09
   -1.529980    4.48845  0.0000E+00  0.3767E-05  0.1166E-07  0.3701E-03  0.5135E-05  0.5344E+09
   -1.572477    4.50381  0.0000E+00  0.3818E-05  0.1549E-07  0.3066E-03  0.3849E-05  0.1546E+10
   -1.614975    4.53165  0.0000E+00  0.3762E-05  0.2995E-07  0.1663E-03  0.2905E-05  0.6507E+11
   -1.657472    4.62322  0.0000E+00  0.2839E-05  0.1004E-06  0.3283E-04  0.2007E-05 -0.3451E+13
   -1.699968    5.01180  0.0000E+00  0.0000E+00  0.0000E+00  0.0000E+00  0.2057E-05  0.0000E+00
