 1 - depth, m
 2 - temperature, C
 3 - salinity, kg/kg
 4 - turbulent kinetic energy, m**2/s**2
 5 - dissipation rate, m**2/s**3
 6 - kinematic heat conductance, m**2/s
 7 - modulus of horizontal velocity, m/s
 8 - Richardson number, n/d
   -0.000000    9.62285  0.0000E+00  0.4582E-03  0.1334E-02  0.9178E-04  0.2474E+00  0.8625E-01
   -0.042498    9.87513  0.0000E+00  0.2277E-03  0.4738E-03  0.1693E-03  0.5587E-01 -0.2130E+00
   -0.084996    9.96235  0.0000E+00  0.1533E-03  0.2133E-03  0.1667E-03  0.3303E-01 -0.2454E+01
   -0.127494   10.00897  0.0000E+00  0.1104E-03  0.1035E-03  0.1705E-03  0.2534E-01  0.1610E+02
   -0.169993   10.03838  0.0000E+00  0.8346E-04  0.5728E-04  0.1799E-03  0.2032E-01  0.4691E+02
   -0.212492   10.06349  0.0000E+00  0.6370E-04  0.3229E-04  0.2148E-03  0.1624E-01  0.6147E+03
   -0.254991   10.08860  0.0000E+00  0.4961E-04  0.1806E-04  0.2590E-03  0.1311E-01  0.2803E+02
   -0.297491   10.10676  0.0000E+00  0.3986E-04  0.1013E-04  0.3066E-03  0.1097E-01  0.8067E+02
   -0.339991   10.12225  0.0000E+00  0.3306E-04  0.5580E-05  0.3505E-03  0.9350E-02  0.6373E+02
   -0.382491   10.13548  0.0000E+00  0.2836E-04  0.2834E-05  0.4098E-03  0.7908E-02  0.6016E+02
   -0.424992   10.14660  0.0000E+00  0.2527E-04  0.1531E-05  0.4591E-03  0.6815E-02  0.3929E+02
   -0.467492   10.15563  0.0000E+00  0.2324E-04  0.8925E-06  0.5124E-03  0.5830E-02  0.3189E+03
   -0.509993   10.16386  0.0000E+00  0.2187E-04  0.5180E-06  0.5674E-03  0.4975E-02  0.4131E+02
   -0.552494   10.16973  0.0000E+00  0.2098E-04  0.3337E-06  0.6209E-03  0.4260E-02  0.5106E+02
   -0.594995   10.17558  0.0000E+00  0.2038E-04  0.2382E-06  0.6711E-03  0.3622E-02  0.1237E+03
   -0.637497   10.18024  0.0000E+00  0.1997E-04  0.1851E-06  0.7316E-03  0.3065E-02  0.1133E+02
   -0.679998   10.18501  0.0000E+00  0.1969E-04  0.1535E-06  0.7930E-03  0.2590E-02  0.2843E+03
   -0.722500   10.18922  0.0000E+00  0.1949E-04  0.1326E-06  0.8595E-03  0.2186E-02  0.8928E+01
   -0.765001   10.19332  0.0000E+00  0.1932E-04  0.1176E-06  0.9273E-03  0.1851E-02  0.1086E+02
   -0.807503   10.19728  0.0000E+00  0.1916E-04  0.1062E-06  0.9919E-03  0.1581E-02  0.1477E+01
   -0.850004   10.20112  0.0000E+00  0.1901E-04  0.9779E-07  0.1048E-02  0.1360E-02  0.1266E+02
   -0.892506   10.20483  0.0000E+00  0.1884E-04  0.9155E-07  0.1100E-02  0.1177E-02  0.1076E+02
   -0.935008   10.20847  0.0000E+00  0.1866E-04  0.8708E-07  0.1137E-02  0.1027E-02  0.1346E+02
   -0.977509   10.21202  0.0000E+00  0.1846E-04  0.8408E-07  0.1159E-02  0.8989E-03  0.1392E+02
   -1.020011   10.21555  0.0000E+00  0.1824E-04  0.8231E-07  0.1165E-02  0.7919E-03  0.1490E+02
   -1.062512   10.21907  0.0000E+00  0.1800E-04  0.8167E-07  0.1156E-02  0.6997E-03  0.1265E+02
   -1.105013   10.22260  0.0000E+00  0.1774E-04  0.8208E-07  0.1130E-02  0.6202E-03  0.1093E+02
   -1.147515   10.22620  0.0000E+00  0.1748E-04  0.8362E-07  0.1097E-02  0.5492E-03  0.1067E+02
   -1.190016   10.22981  0.0000E+00  0.1721E-04  0.8647E-07  0.1051E-02  0.4841E-03  0.1172E+02
   -1.232517   10.23347  0.0000E+00  0.1693E-04  0.9131E-07  0.1001E-02  0.4247E-03  0.1589E+02
   -1.275017   10.23750  0.0000E+00  0.1662E-04  0.9926E-07  0.9390E-03  0.3733E-03  0.1934E+02
   -1.317518   10.24243  0.0000E+00  0.1623E-04  0.1119E-06  0.8950E-03  0.3283E-03  0.5829E+02
   -1.360018   10.24849  0.0000E+00  0.1572E-04  0.1337E-06  0.8035E-03  0.2878E-03  0.1343E+05
   -1.402518   10.25779  0.0000E+00  0.1504E-04  0.1692E-06  0.7295E-03  0.2495E-03  0.1044E+05
   -1.445018   10.26694  0.0000E+00  0.1420E-04  0.2296E-06  0.6346E-03  0.2146E-03  0.7032E+04
   -1.487517   10.28472  0.0000E+00  0.1342E-04  0.3228E-06  0.5790E-03  0.1683E-03  0.1162E+05
   -1.530016   10.29426  0.0000E+00  0.1256E-04  0.5734E-06  0.4494E-03  0.1282E-03 -0.7313E+05
   -1.572515   10.37832  0.0000E+00  0.1186E-04  0.1035E-05  0.4901E-03  0.8380E-04  0.1895E+11
   -1.615013   10.30593  0.0000E+00  0.1033E-04  0.2856E-05  0.2527E-03  0.6890E-04 -0.6694E+10
   -1.657511   10.68969  0.0000E+00  0.8026E-05  0.6003E-05  0.2516E-03  0.4294E-04  0.4452E+07
   -1.700009   10.60160  0.0000E+00  0.0000E+00  0.0000E+00  0.0000E+00  0.8482E-04  0.0000E+00
