 1 - depth, m
 2 - temperature, C
 3 - salinity, kg/kg
 4 - turbulent kinetic energy, m**2/s**2
 5 - dissipation rate, m**2/s**3
 6 - kinematic heat conductance, m**2/s
 7 - modulus of horizontal velocity, m/s
 8 - Richardson number, n/d
   -0.000000   18.86491  0.0000E+00  0.1649E-04  0.1430E-05  0.2514E-04  0.1733E-01 -0.9044E-01
   -0.042498   18.91078  0.0000E+00  0.1329E-04  0.4462E-06  0.9142E-04  0.7941E-02  0.4220E+03
   -0.084995   18.92577  0.0000E+00  0.1209E-04  0.2241E-06  0.1790E-03  0.5194E-02  0.5490E+03
   -0.127494   18.93372  0.0000E+00  0.1175E-04  0.1458E-06  0.3091E-03  0.3856E-02  0.1870E+02
   -0.169992   18.93791  0.0000E+00  0.1190E-04  0.1113E-06  0.4266E-03  0.3133E-02  0.3433E+02
   -0.212491   18.94066  0.0000E+00  0.1229E-04  0.9159E-07  0.5337E-03  0.2620E-02  0.2262E+01
   -0.254991   18.94288  0.0000E+00  0.1281E-04  0.7873E-07  0.6381E-03  0.2210E-02  0.1830E+01
   -0.297490   18.94480  0.0000E+00  0.1340E-04  0.6999E-07  0.7378E-03  0.1892E-02  0.1708E+01
   -0.339990   18.94651  0.0000E+00  0.1400E-04  0.6393E-07  0.8344E-03  0.1638E-02  0.1678E+01
   -0.382490   18.94805  0.0000E+00  0.1459E-04  0.5966E-07  0.9311E-03  0.1425E-02  0.1614E+01
   -0.424991   18.94945  0.0000E+00  0.1516E-04  0.5666E-07  0.1019E-02  0.1245E-02  0.1609E+01
   -0.467491   18.95073  0.0000E+00  0.1568E-04  0.5461E-07  0.1105E-02  0.1086E-02  0.1579E+01
   -0.509992   18.95192  0.0000E+00  0.1616E-04  0.5331E-07  0.1191E-02  0.9436E-03  0.1530E+01
   -0.552493   18.95302  0.0000E+00  0.1659E-04  0.5265E-07  0.1276E-02  0.8176E-03  0.1483E+01
   -0.594994   18.95405  0.0000E+00  0.1698E-04  0.5253E-07  0.1360E-02  0.7067E-03  0.1427E+01
   -0.637495   18.95502  0.0000E+00  0.1731E-04  0.5288E-07  0.1448E-02  0.6111E-03  0.1365E+01
   -0.679997   18.95595  0.0000E+00  0.1760E-04  0.5360E-07  0.1542E-02  0.5319E-03  0.1328E+01
   -0.722498   18.95686  0.0000E+00  0.1784E-04  0.5463E-07  0.1629E-02  0.4675E-03  0.1300E+01
   -0.765000   18.95775  0.0000E+00  0.1803E-04  0.5588E-07  0.1684E-02  0.4164E-03  0.1275E+01
   -0.807501   18.95866  0.0000E+00  0.1817E-04  0.5732E-07  0.1694E-02  0.3765E-03  0.1271E+01
   -0.850003   18.95962  0.0000E+00  0.1826E-04  0.5886E-07  0.1674E-02  0.3448E-03  0.1282E+01
   -0.892504   18.96062  0.0000E+00  0.1832E-04  0.6056E-07  0.1640E-02  0.3188E-03  0.1316E+01
   -0.935006   18.96169  0.0000E+00  0.1834E-04  0.6240E-07  0.1602E-02  0.2972E-03  0.1420E+01
   -0.977507   18.96281  0.0000E+00  0.1832E-04  0.6449E-07  0.1557E-02  0.2784E-03  0.1573E+01
   -1.020009   18.96399  0.0000E+00  0.1827E-04  0.6691E-07  0.1509E-02  0.2615E-03  0.1845E+01
   -1.062510   18.96522  0.0000E+00  0.1818E-04  0.6982E-07  0.1451E-02  0.2458E-03  0.2784E+01
   -1.105011   18.96653  0.0000E+00  0.1804E-04  0.7340E-07  0.1403E-02  0.2307E-03  0.2606E+01
   -1.147512   18.96789  0.0000E+00  0.1787E-04  0.7784E-07  0.1316E-02  0.2158E-03  0.1875E+02
   -1.190013   18.96935  0.0000E+00  0.1766E-04  0.8347E-07  0.1254E-02  0.2002E-03  0.9001E+01
   -1.232514   18.97085  0.0000E+00  0.1739E-04  0.9142E-07  0.1192E-02  0.1843E-03  0.1843E+03
   -1.275015   18.97266  0.0000E+00  0.1705E-04  0.1033E-06  0.1097E-02  0.1681E-03 -0.1454E+04
   -1.317515   18.97486  0.0000E+00  0.1660E-04  0.1213E-06  0.1042E-02  0.1515E-03 -0.1158E+03
   -1.360015   18.97789  0.0000E+00  0.1600E-04  0.1521E-06  0.9154E-03  0.1347E-03 -0.5485E+06
   -1.402515   18.98195  0.0000E+00  0.1521E-04  0.2016E-06  0.8378E-03  0.1178E-03 -0.2176E+04
   -1.445015   18.98744  0.0000E+00  0.1424E-04  0.2907E-06  0.7191E-03  0.1014E-03  0.1938E+05
   -1.487514   18.99492  0.0000E+00  0.1336E-04  0.4121E-06  0.6144E-03  0.7998E-04  0.1030E+06
   -1.530013   19.00184  0.0000E+00  0.1239E-04  0.7893E-06  0.5097E-03  0.5971E-04 -0.3248E+06
   -1.572512   19.04269  0.0000E+00  0.1166E-04  0.1338E-05  0.5403E-03  0.3879E-04  0.1020E+13
   -1.615010   19.00443  0.0000E+00  0.1017E-04  0.4110E-05  0.3003E-03  0.3216E-04 -0.8236E+10
   -1.657508   19.19664  0.0000E+00  0.7982E-05  0.7963E-05  0.3023E-03  0.2007E-04 -0.4366E+06
   -1.700005   19.15371  0.0000E+00  0.0000E+00  0.0000E+00  0.0000E+00  0.4263E-04  0.0000E+00
