 1 - depth, m
 2 - temperature, C
 3 - salinity, kg/kg
 4 - turbulent kinetic energy, m**2/s**2
 5 - dissipation rate, m**2/s**3
 6 - kinematic heat conductance, m**2/s
 7 - modulus of horizontal velocity, m/s
 8 - Richardson number, n/d
   -0.000000    7.63650  0.0000E+00  0.1581E-02  0.1792E-01  0.1559E-03  0.5317E+00  0.9807E-02
   -0.042497    8.01510  0.0000E+00  0.7562E-03  0.1024E-01  0.2721E-03  0.1122E+00 -0.2661E+00
   -0.084995    8.17872  0.0000E+00  0.4918E-03  0.3706E-02  0.3419E-03  0.6238E-01 -0.2057E+00
   -0.127493    8.23416  0.0000E+00  0.3657E-03  0.2020E-02  0.3132E-03  0.4843E-01 -0.7968E+00
   -0.169991    8.26138  0.0000E+00  0.2802E-03  0.9511E-03  0.3024E-03  0.3937E-01  0.2435E+01
   -0.212490    8.28672  0.0000E+00  0.2198E-03  0.5959E-03  0.3042E-03  0.3214E-01  0.3926E+03
   -0.254989    8.31112  0.0000E+00  0.1733E-03  0.3873E-03  0.3263E-03  0.2667E-01  0.2181E+02
   -0.297488    8.33258  0.0000E+00  0.1400E-03  0.2443E-03  0.3502E-03  0.2309E-01  0.3540E+02
   -0.339988    8.35080  0.0000E+00  0.1154E-03  0.1447E-03  0.3718E-03  0.2051E-01  0.3483E+02
   -0.382487    8.36572  0.0000E+00  0.9647E-04  0.8511E-04  0.4113E-03  0.1800E-01  0.6227E+01
   -0.424987    8.38076  0.0000E+00  0.8178E-04  0.4792E-04  0.4333E-03  0.1624E-01  0.2258E+02
   -0.467488    8.39239  0.0000E+00  0.7044E-04  0.2481E-04  0.4702E-03  0.1425E-01  0.2846E+03
   -0.509988    8.40597  0.0000E+00  0.6221E-04  0.1460E-04  0.5189E-03  0.1237E-01  0.2657E+03
   -0.552489    8.41420  0.0000E+00  0.5592E-04  0.8810E-05  0.5619E-03  0.1078E-01 -0.1323E+05
   -0.594990    8.42613  0.0000E+00  0.5095E-04  0.5036E-05  0.6345E-03  0.9301E-02  0.3377E+02
   -0.637490    8.43213  0.0000E+00  0.4693E-04  0.3103E-05  0.6953E-03  0.8123E-02  0.1924E+03
   -0.679991    8.44016  0.0000E+00  0.4355E-04  0.1917E-05  0.7653E-03  0.7168E-02  0.2456E+03
   -0.722493    8.44595  0.0000E+00  0.4069E-04  0.1253E-05  0.8265E-03  0.6349E-02  0.1722E+03
   -0.764994    8.45170  0.0000E+00  0.3823E-04  0.8652E-06  0.8946E-03  0.5665E-02  0.1450E+03
   -0.807495    8.45755  0.0000E+00  0.3607E-04  0.6465E-06  0.9548E-03  0.5106E-02  0.5238E+02
   -0.849996    8.46257  0.0000E+00  0.3415E-04  0.5109E-06  0.1005E-02  0.4607E-02  0.3495E+03
   -0.892497    8.46794  0.0000E+00  0.3246E-04  0.4228E-06  0.1047E-02  0.4178E-02  0.5017E+03
   -0.934998    8.47246  0.0000E+00  0.3093E-04  0.3599E-06  0.1055E-02  0.3804E-02  0.3686E+02
   -0.977500    8.47739  0.0000E+00  0.2947E-04  0.3108E-06  0.1059E-02  0.3441E-02  0.2923E+02
   -1.020001    8.48201  0.0000E+00  0.2813E-04  0.2724E-06  0.1069E-02  0.3105E-02  0.6024E+02
   -1.062502    8.48656  0.0000E+00  0.2694E-04  0.2434E-06  0.1070E-02  0.2811E-02  0.4072E+02
   -1.105003    8.49096  0.0000E+00  0.2579E-04  0.2197E-06  0.1045E-02  0.2543E-02  0.2113E+02
   -1.147503    8.49539  0.0000E+00  0.2468E-04  0.2006E-06  0.1025E-02  0.2262E-02  0.4034E+02
   -1.190004    8.49972  0.0000E+00  0.2367E-04  0.1870E-06  0.9922E-03  0.1994E-02  0.2236E+02
   -1.232504    8.50401  0.0000E+00  0.2268E-04  0.1780E-06  0.9618E-03  0.1733E-02  0.8805E+01
   -1.275005    8.50852  0.0000E+00  0.2170E-04  0.1741E-06  0.9058E-03  0.1502E-02  0.6803E+02
   -1.317505    8.51376  0.0000E+00  0.2070E-04  0.1769E-06  0.8706E-03  0.1296E-02  0.2388E+01
   -1.360005    8.51958  0.0000E+00  0.1966E-04  0.1914E-06  0.8071E-03  0.1121E-02  0.4827E+04
   -1.402504    8.52782  0.0000E+00  0.1848E-04  0.2243E-06  0.7191E-03  0.9769E-03  0.2201E+04
   -1.445003    8.53729  0.0000E+00  0.1719E-04  0.2903E-06  0.6339E-03  0.8377E-03  0.1250E+05
   -1.487502    8.55256  0.0000E+00  0.1591E-04  0.4133E-06  0.5755E-03  0.6823E-03  0.1677E+04
   -1.530001    8.56487  0.0000E+00  0.1455E-04  0.7296E-06  0.4421E-03  0.5090E-03 -0.2264E+05
   -1.572499    8.63493  0.0000E+00  0.1334E-04  0.1463E-05  0.4551E-03  0.3405E-03  0.1444E+10
   -1.614997    8.58499  0.0000E+00  0.1130E-04  0.4748E-05  0.2409E-03  0.2702E-03 -0.1584E+10
   -1.657495    8.94445  0.0000E+00  0.8576E-05  0.8593E-05  0.2352E-03  0.1783E-03 -0.7870E+06
   -1.699992    8.89321  0.0000E+00  0.0000E+00  0.0000E+00  0.0000E+00  0.3499E-03  0.0000E+00
