 1 - depth, m
 2 - temperature, C
 3 - salinity, kg/kg
 4 - turbulent kinetic energy, m**2/s**2
 5 - dissipation rate, m**2/s**3
 6 - kinematic heat conductance, m**2/s
 7 - modulus of horizontal velocity, m/s
 8 - Richardson number, n/d
   -0.000000   20.16390  0.0000E+00  0.2431E-04  0.3102E-05  0.2976E-04  0.2507E-01 -0.5132E-01
   -0.042497   20.22172  0.0000E+00  0.1715E-04  0.8870E-06  0.6195E-04  0.1040E-01 -0.1550E+00
   -0.084995   20.24089  0.0000E+00  0.1462E-04  0.4073E-06  0.1486E-03  0.6754E-02  0.4902E+02
   -0.127493   20.25068  0.0000E+00  0.1358E-04  0.2373E-06  0.2859E-03  0.5005E-02  0.5641E+02
   -0.169991   20.25595  0.0000E+00  0.1328E-04  0.1634E-06  0.3865E-03  0.4036E-02  0.2805E+02
   -0.212490   20.25953  0.0000E+00  0.1338E-04  0.1245E-06  0.4843E-03  0.3334E-02  0.5891E+01
   -0.254989   20.26228  0.0000E+00  0.1372E-04  0.1016E-06  0.5733E-03  0.2794E-02  0.6705E+01
   -0.297488   20.26454  0.0000E+00  0.1420E-04  0.8718E-07  0.6581E-03  0.2384E-02  0.1834E+01
   -0.339988   20.26652  0.0000E+00  0.1474E-04  0.7745E-07  0.7414E-03  0.2058E-02  0.1817E+01
   -0.382488   20.26829  0.0000E+00  0.1530E-04  0.7060E-07  0.8277E-03  0.1785E-02  0.1701E+01
   -0.424988   20.26988  0.0000E+00  0.1585E-04  0.6570E-07  0.9060E-03  0.1555E-02  0.1703E+01
   -0.467488   20.27134  0.0000E+00  0.1637E-04  0.6219E-07  0.9835E-03  0.1351E-02  0.1676E+01
   -0.509989   20.27267  0.0000E+00  0.1685E-04  0.5975E-07  0.1065E-02  0.1168E-02  0.1628E+01
   -0.552490   20.27390  0.0000E+00  0.1728E-04  0.5819E-07  0.1149E-02  0.1006E-02  0.1578E+01
   -0.594990   20.27504  0.0000E+00  0.1766E-04  0.5737E-07  0.1239E-02  0.8621E-03  0.1514E+01
   -0.637491   20.27610  0.0000E+00  0.1798E-04  0.5717E-07  0.1344E-02  0.7385E-03  0.1434E+01
   -0.679992   20.27710  0.0000E+00  0.1825E-04  0.5748E-07  0.1464E-02  0.6364E-03  0.1384E+01
   -0.722494   20.27804  0.0000E+00  0.1847E-04  0.5821E-07  0.1576E-02  0.5536E-03  0.1338E+01
   -0.764995   20.27895  0.0000E+00  0.1862E-04  0.5926E-07  0.1655E-02  0.4882E-03  0.1296E+01
   -0.807496   20.27985  0.0000E+00  0.1873E-04  0.6054E-07  0.1686E-02  0.4376E-03  0.1268E+01
   -0.849997   20.28077  0.0000E+00  0.1879E-04  0.6199E-07  0.1674E-02  0.3975E-03  0.1238E+01
   -0.892499   20.28173  0.0000E+00  0.1881E-04  0.6359E-07  0.1641E-02  0.3652E-03  0.1204E+01
   -0.935000   20.28274  0.0000E+00  0.1879E-04  0.6537E-07  0.1600E-02  0.3387E-03  0.1223E+01
   -0.977501   20.28380  0.0000E+00  0.1873E-04  0.6739E-07  0.1553E-02  0.3161E-03  0.1278E+01
   -1.020002   20.28491  0.0000E+00  0.1863E-04  0.6975E-07  0.1503E-02  0.2962E-03  0.1426E+01
   -1.062503   20.28607  0.0000E+00  0.1850E-04  0.7264E-07  0.1446E-02  0.2779E-03  0.1644E+01
   -1.105004   20.28730  0.0000E+00  0.1833E-04  0.7625E-07  0.1380E-02  0.2604E-03  0.1954E+01
   -1.147505   20.28860  0.0000E+00  0.1811E-04  0.8078E-07  0.1316E-02  0.2433E-03 -0.4393E+01
   -1.190006   20.28998  0.0000E+00  0.1785E-04  0.8659E-07  0.1251E-02  0.2256E-03  0.1220E+01
   -1.232506   20.29140  0.0000E+00  0.1754E-04  0.9505E-07  0.1179E-02  0.2076E-03  0.9872E+02
   -1.275007   20.29315  0.0000E+00  0.1715E-04  0.1074E-06  0.1102E-02  0.1891E-03  0.5870E+02
   -1.317507   20.29520  0.0000E+00  0.1664E-04  0.1270E-06  0.1019E-02  0.1706E-03  0.7217E+04
   -1.360006   20.29836  0.0000E+00  0.1596E-04  0.1579E-06  0.9475E-03  0.1508E-03 -0.9120E+03
   -1.402506   20.30189  0.0000E+00  0.1506E-04  0.2110E-06  0.8025E-03  0.1322E-03  0.2251E+04
   -1.445005   20.30776  0.0000E+00  0.1399E-04  0.3017E-06  0.7088E-03  0.1125E-03  0.6684E+06
   -1.487504   20.31388  0.0000E+00  0.1309E-04  0.4245E-06  0.6153E-03  0.8911E-04  0.1261E+06
   -1.530003   20.32156  0.0000E+00  0.1209E-04  0.8490E-06  0.5013E-03  0.6669E-04 -0.1342E+05
   -1.572502   20.36036  0.0000E+00  0.1135E-04  0.1425E-05  0.5443E-03  0.4318E-04  0.2237E+12
   -1.615000   20.32105  0.0000E+00  0.9756E-05  0.4222E-05  0.3079E-03  0.3612E-04 -0.7134E+10
   -1.657497   20.49522  0.0000E+00  0.7664E-05  0.8176E-05  0.3206E-03  0.2239E-04 -0.5909E+06
   -1.699995   20.45581  0.0000E+00  0.0000E+00  0.0000E+00  0.0000E+00  0.4854E-04  0.0000E+00
