 1 - depth, m
 2 - temperature, C
 3 - salinity, kg/kg
 4 - turbulent kinetic energy, m**2/s**2
 5 - dissipation rate, m**2/s**3
 6 - kinematic heat conductance, m**2/s
 7 - modulus of horizontal velocity, m/s
 8 - Richardson number, n/d
   -0.000000    8.65123  0.0000E+00  0.1297E-02  0.7841E-02  0.1692E-03  0.5349E+00  0.1282E-02
   -0.042497    8.93589  0.0000E+00  0.6721E-03  0.4316E-02  0.3157E-03  0.1183E+00  0.2717E+00
   -0.084995    9.04609  0.0000E+00  0.4482E-03  0.1316E-02  0.3573E-03  0.6804E-01  0.1135E+00
   -0.127493    9.09984  0.0000E+00  0.3375E-03  0.6312E-03  0.3344E-03  0.5140E-01  0.6935E-01
   -0.169991    9.12659  0.0000E+00  0.2669E-03  0.3824E-03  0.3202E-03  0.4175E-01  0.1591E+01
   -0.212490    9.14637  0.0000E+00  0.2130E-03  0.2199E-03  0.3253E-03  0.3458E-01  0.5758E+00
   -0.254989    9.16816  0.0000E+00  0.1734E-03  0.1262E-03  0.3625E-03  0.2925E-01  0.9654E+01
   -0.297488    9.18356  0.0000E+00  0.1438E-03  0.7583E-04  0.3744E-03  0.2579E-01  0.1004E+03
   -0.339988    9.19479  0.0000E+00  0.1212E-03  0.4513E-04  0.3916E-03  0.2329E-01  0.1507E+02
   -0.382487    9.20712  0.0000E+00  0.1037E-03  0.2566E-04  0.4158E-03  0.2077E-01  0.8085E+02
   -0.424988    9.21687  0.0000E+00  0.9028E-04  0.1432E-04  0.4430E-03  0.1882E-01  0.2714E+02
   -0.467488    9.22811  0.0000E+00  0.8000E-04  0.8251E-05  0.4807E-03  0.1673E-01  0.4452E+02
   -0.509988    9.23635  0.0000E+00  0.7189E-04  0.4977E-05  0.5152E-03  0.1482E-01  0.1914E+03
   -0.552489    9.24486  0.0000E+00  0.6537E-04  0.3130E-05  0.5671E-03  0.1314E-01  0.1056E+03
   -0.594990    9.25258  0.0000E+00  0.6001E-04  0.2108E-05  0.6414E-03  0.1158E-01  0.1964E+03
   -0.637491    9.25937  0.0000E+00  0.5551E-04  0.1533E-05  0.7256E-03  0.1027E-01  0.3206E+04
   -0.679992    9.26498  0.0000E+00  0.5170E-04  0.1173E-05  0.8094E-03  0.9170E-02  0.4090E+03
   -0.722493    9.27008  0.0000E+00  0.4834E-04  0.9244E-06  0.8806E-03  0.8205E-02  0.2048E+03
   -0.764994    9.27482  0.0000E+00  0.4531E-04  0.7478E-06  0.9319E-03  0.7364E-02 -0.1899E+04
   -0.807495    9.27943  0.0000E+00  0.4258E-04  0.6190E-06  0.9821E-03  0.6641E-02 -0.9180E+03
   -0.849996    9.28382  0.0000E+00  0.4014E-04  0.5220E-06  0.1018E-02  0.6009E-02  0.1122E+05
   -0.892498    9.28802  0.0000E+00  0.3790E-04  0.4444E-06  0.1043E-02  0.5437E-02 -0.4931E+03
   -0.934999    9.29224  0.0000E+00  0.3583E-04  0.3814E-06  0.1062E-02  0.4914E-02  0.8990E+04
   -0.977500    9.29628  0.0000E+00  0.3393E-04  0.3305E-06  0.1077E-02  0.4431E-02  0.4147E+03
   -1.020001    9.30028  0.0000E+00  0.3217E-04  0.2891E-06  0.1079E-02  0.3990E-02  0.2461E+03
   -1.062502    9.30419  0.0000E+00  0.3051E-04  0.2550E-06  0.1071E-02  0.3576E-02  0.2320E+03
   -1.105003    9.30809  0.0000E+00  0.2894E-04  0.2271E-06  0.1056E-02  0.3188E-02  0.1033E+03
   -1.147504    9.31198  0.0000E+00  0.2748E-04  0.2055E-06  0.1030E-02  0.2813E-02  0.3315E+02
   -1.190004    9.31585  0.0000E+00  0.2612E-04  0.1895E-06  0.9920E-03  0.2443E-02  0.2983E+02
   -1.232505    9.31967  0.0000E+00  0.2479E-04  0.1781E-06  0.9522E-03  0.2086E-02 -0.3152E+02
   -1.275005    9.32378  0.0000E+00  0.2346E-04  0.1716E-06  0.8960E-03  0.1768E-02  0.6842E+04
   -1.317505    9.32838  0.0000E+00  0.2215E-04  0.1710E-06  0.8439E-03  0.1491E-02 -0.7296E+02
   -1.360005    9.33362  0.0000E+00  0.2082E-04  0.1804E-06  0.7786E-03  0.1257E-02  0.9270E+05
   -1.402505    9.34074  0.0000E+00  0.1936E-04  0.2086E-06  0.7216E-03  0.1065E-02  0.1156E+03
   -1.445004    9.34968  0.0000E+00  0.1780E-04  0.2710E-06  0.6409E-03  0.8974E-03 -0.3450E+04
   -1.487503    9.36425  0.0000E+00  0.1623E-04  0.3936E-06  0.5699E-03  0.7151E-03  0.1265E+05
   -1.530002    9.37715  0.0000E+00  0.1459E-04  0.7226E-06  0.4400E-03  0.5217E-03 -0.7435E+05
   -1.572500    9.44907  0.0000E+00  0.1325E-04  0.1489E-05  0.4498E-03  0.3212E-03  0.6201E+09
   -1.614998    9.38963  0.0000E+00  0.1122E-04  0.4978E-05  0.2388E-03  0.2556E-03 -0.1339E+11
   -1.657496    9.77835  0.0000E+00  0.8642E-05  0.9092E-05  0.2698E-03  0.1574E-03 -0.1179E+07
   -1.699993    9.65364  0.0000E+00  0.0000E+00  0.0000E+00  0.0000E+00  0.3212E-03  0.0000E+00
