 1 - depth, m
 2 - temperature, C
 3 - salinity, kg/kg
 4 - turbulent kinetic energy, m**2/s**2
 5 - dissipation rate, m**2/s**3
 6 - kinematic heat conductance, m**2/s
 7 - modulus of horizontal velocity, m/s
 8 - Richardson number, n/d
   -0.000000   12.51187  0.0000E+00  0.1547E-03  0.2772E-03  0.5100E-04  0.1011E+00 -0.2256E-02
   -0.042497   12.69796  0.0000E+00  0.8056E-04  0.1047E-03  0.9152E-04  0.2818E-01 -0.1079E+00
   -0.084995   12.75494  0.0000E+00  0.5672E-04  0.4829E-04  0.1114E-03  0.1715E-01  0.2676E+00
   -0.127493   12.78641  0.0000E+00  0.4394E-04  0.2650E-04  0.1511E-03  0.1274E-01  0.4394E+02
   -0.169991   12.80662  0.0000E+00  0.3529E-04  0.1429E-04  0.2521E-03  0.1003E-01  0.1489E+03
   -0.212489   12.82051  0.0000E+00  0.2961E-04  0.7578E-05  0.3635E-03  0.8135E-02  0.1005E+03
   -0.254988   12.83075  0.0000E+00  0.2564E-04  0.3727E-05  0.4336E-03  0.6782E-02  0.8795E+01
   -0.297488   12.83915  0.0000E+00  0.2299E-04  0.1711E-05  0.5044E-03  0.5757E-02  0.2290E+02
   -0.339987   12.84607  0.0000E+00  0.2148E-04  0.9199E-06  0.5686E-03  0.4952E-02  0.6493E+01
   -0.382487   12.85229  0.0000E+00  0.2064E-04  0.5153E-06  0.6322E-03  0.4257E-02  0.1334E+02
   -0.424987   12.85752  0.0000E+00  0.2027E-04  0.3299E-06  0.6903E-03  0.3682E-02  0.5984E+01
   -0.467487   12.86219  0.0000E+00  0.2018E-04  0.2302E-06  0.7512E-03  0.3171E-02  0.5836E+02
   -0.509987   12.86638  0.0000E+00  0.2027E-04  0.1670E-06  0.8214E-03  0.2716E-02  0.3958E+02
   -0.552488   12.86993  0.0000E+00  0.2046E-04  0.1341E-06  0.8941E-03  0.2316E-02  0.4161E+01
   -0.594989   12.87334  0.0000E+00  0.2069E-04  0.1146E-06  0.9690E-03  0.1957E-02  0.3409E+01
   -0.637489   12.87628  0.0000E+00  0.2092E-04  0.1028E-06  0.1050E-02  0.1644E-02  0.1942E+01
   -0.679990   12.87914  0.0000E+00  0.2113E-04  0.9542E-07  0.1139E-02  0.1381E-02  0.1815E+01
   -0.722491   12.88176  0.0000E+00  0.2131E-04  0.9071E-07  0.1240E-02  0.1164E-02  0.1669E+01
   -0.764992   12.88432  0.0000E+00  0.2143E-04  0.8780E-07  0.1361E-02  0.9898E-03  0.1741E+01
   -0.807494   12.88673  0.0000E+00  0.2151E-04  0.8618E-07  0.1473E-02  0.8553E-03  0.1617E+01
   -0.849995   12.88907  0.0000E+00  0.2152E-04  0.8556E-07  0.1541E-02  0.7485E-03  0.1570E+01
   -0.892496   12.89135  0.0000E+00  0.2148E-04  0.8573E-07  0.1555E-02  0.6630E-03  0.1543E+01
   -0.934997   12.89369  0.0000E+00  0.2139E-04  0.8656E-07  0.1540E-02  0.5938E-03  0.1523E+01
   -0.977498   12.89603  0.0000E+00  0.2125E-04  0.8803E-07  0.1507E-02  0.5364E-03  0.1455E+01
   -1.019999   12.89848  0.0000E+00  0.2107E-04  0.9015E-07  0.1470E-02  0.4882E-03  0.1823E+01
   -1.062500   12.90095  0.0000E+00  0.2085E-04  0.9312E-07  0.1421E-02  0.4467E-03  0.1509E+01
   -1.105001   12.90358  0.0000E+00  0.2060E-04  0.9722E-07  0.1366E-02  0.4098E-03  0.2143E+01
   -1.147502   12.90622  0.0000E+00  0.2030E-04  0.1029E-06  0.1304E-02  0.3764E-03  0.2199E+01
   -1.190002   12.90916  0.0000E+00  0.1998E-04  0.1106E-06  0.1244E-02  0.3435E-03  0.6726E+02
   -1.232502   12.91193  0.0000E+00  0.1961E-04  0.1223E-06  0.1171E-02  0.3125E-03 -0.3995E+02
   -1.275003   12.91568  0.0000E+00  0.1915E-04  0.1397E-06  0.1126E-02  0.2816E-03  0.6518E+04
   -1.317503   12.91946  0.0000E+00  0.1858E-04  0.1684E-06  0.1019E-02  0.2534E-03  0.9027E+03
   -1.360002   12.92626  0.0000E+00  0.1784E-04  0.2125E-06  0.9597E-03  0.2226E-03  0.3723E+05
   -1.402502   12.93222  0.0000E+00  0.1691E-04  0.2863E-06  0.8188E-03  0.1958E-03 -0.3754E+04
   -1.445001   12.94453  0.0000E+00  0.1580E-04  0.4029E-06  0.7385E-03  0.1666E-03  0.6395E+05
   -1.487500   12.95574  0.0000E+00  0.1485E-04  0.5724E-06  0.6324E-03  0.1328E-03 -0.1386E+04
   -1.529999   12.97152  0.0000E+00  0.1378E-04  0.1101E-05  0.5425E-03  0.9890E-04  0.3911E+09
   -1.572497   13.04092  0.0000E+00  0.1299E-04  0.1808E-05  0.5742E-03  0.6444E-04  0.1716E+11
   -1.614995   12.97293  0.0000E+00  0.1131E-04  0.5526E-05  0.3149E-03  0.5317E-04 -0.6662E+10
   -1.657492   13.32048  0.0000E+00  0.8987E-05  0.1031E-04  0.3428E-03  0.3340E-04 -0.2987E+06
   -1.699989   13.22660  0.0000E+00  0.0000E+00  0.0000E+00  0.0000E+00  0.7257E-04  0.0000E+00
