 1 - depth, m
 2 - temperature, C
 3 - salinity, kg/kg
 4 - turbulent kinetic energy, m**2/s**2
 5 - dissipation rate, m**2/s**3
 6 - kinematic heat conductance, m**2/s
 7 - modulus of horizontal velocity, m/s
 8 - Richardson number, n/d
   -0.000000    0.00047  0.0000E+00  0.1789E-02  0.6421E-02  0.1804E-03  0.7188E+00  0.7628E-02
   -0.042493    0.06918  0.0000E+00  0.1275E-02  0.3162E-02  0.5079E-03  0.2091E+00  0.2038E+00
   -0.084987    0.10699  0.0000E+00  0.9656E-03  0.1281E-02  0.6190E-03  0.1289E+00 -0.1345E+00
   -0.127481    0.12579  0.0000E+00  0.7997E-03  0.7715E-03  0.6469E-03  0.1048E+00  0.1204E+00
   -0.169975    0.14210  0.0000E+00  0.6855E-03  0.5221E-03  0.6754E-03  0.9031E-01 -0.1427E+00
   -0.212470    0.15586  0.0000E+00  0.6002E-03  0.3651E-03  0.7106E-03  0.8011E-01  0.7174E-01
   -0.254965    0.16790  0.0000E+00  0.5345E-03  0.2583E-03  0.7436E-03  0.7268E-01  0.6945E+00
   -0.297460    0.17774  0.0000E+00  0.4807E-03  0.1813E-03  0.7696E-03  0.6755E-01  0.1634E+02
   -0.339955    0.18641  0.0000E+00  0.4375E-03  0.1264E-03  0.7955E-03  0.6357E-01  0.4146E+01
   -0.382451    0.19469  0.0000E+00  0.4016E-03  0.8757E-04  0.8275E-03  0.5961E-01  0.1079E+02
   -0.424947    0.20237  0.0000E+00  0.3720E-03  0.6022E-04  0.8558E-03  0.5641E-01  0.2731E+01
   -0.467444    0.20965  0.0000E+00  0.3469E-03  0.4163E-04  0.8706E-03  0.5296E-01  0.2505E+00
   -0.509940    0.21716  0.0000E+00  0.3255E-03  0.2935E-04  0.8898E-03  0.4943E-01  0.7429E+00
   -0.552437    0.22415  0.0000E+00  0.3069E-03  0.2116E-04  0.9033E-03  0.4628E-01  0.1122E+01
   -0.594933    0.23111  0.0000E+00  0.2898E-03  0.1559E-04  0.9135E-03  0.4319E-01  0.5757E+01
   -0.637430    0.23840  0.0000E+00  0.2739E-03  0.1198E-04  0.9305E-03  0.4028E-01  0.9944E+02
   -0.679927    0.24632  0.0000E+00  0.2591E-03  0.9601E-05  0.9436E-03  0.3776E-01  0.1408E+04
   -0.722424    0.25492  0.0000E+00  0.2452E-03  0.8013E-05  0.9566E-03  0.3548E-01  0.3818E+05
   -0.764921    0.26405  0.0000E+00  0.2322E-03  0.6862E-05  0.9668E-03  0.3346E-01  0.6030E+08
   -0.807419    0.27392  0.0000E+00  0.2200E-03  0.5973E-05  0.9687E-03  0.3172E-01  0.1820E+08
   -0.849916    0.28425  0.0000E+00  0.2086E-03  0.5274E-05  0.9656E-03  0.3011E-01  0.2726E+07
   -0.892413    0.29509  0.0000E+00  0.1980E-03  0.4707E-05  0.9606E-03  0.2860E-01  0.7832E+06
   -0.934910    0.30659  0.0000E+00  0.1879E-03  0.4245E-05  0.9486E-03  0.2720E-01  0.6754E+07
   -0.977407    0.31904  0.0000E+00  0.1786E-03  0.3870E-05  0.9360E-03  0.2582E-01  0.1235E+06
   -1.019905    0.33240  0.0000E+00  0.1700E-03  0.3581E-05  0.9228E-03  0.2451E-01  0.2810E+06
   -1.062402    0.34640  0.0000E+00  0.1620E-03  0.3376E-05  0.9015E-03  0.2321E-01  0.3313E+05
   -1.104898    0.36141  0.0000E+00  0.1547E-03  0.3261E-05  0.8759E-03  0.2197E-01  0.1647E+06
   -1.147395    0.37665  0.0000E+00  0.1480E-03  0.3241E-05  0.8457E-03  0.2072E-01  0.5666E+04
   -1.189892    0.39245  0.0000E+00  0.1417E-03  0.3328E-05  0.8098E-03  0.1937E-01  0.4138E+05
   -1.232388    0.41122  0.0000E+00  0.1354E-03  0.3553E-05  0.7895E-03  0.1779E-01  0.2866E+07
   -1.274884    0.43177  0.0000E+00  0.1294E-03  0.3970E-05  0.7555E-03  0.1653E-01  0.1143E+09
   -1.317381    0.45411  0.0000E+00  0.1233E-03  0.4648E-05  0.7144E-03  0.1534E-01  0.1113E+12
   -1.359876    0.49289  0.0000E+00  0.1170E-03  0.5696E-05  0.6676E-03  0.1419E-01  0.4729E+14
   -1.402372    0.56373  0.0000E+00  0.1103E-03  0.7307E-05  0.6058E-03  0.1311E-01  0.1697E+15
   -1.444867    0.67095  0.0000E+00  0.1039E-03  0.9501E-05  0.5456E-03  0.1205E-01  0.1735E+15
   -1.487362    0.81642  0.0000E+00  0.9755E-04  0.1246E-04  0.4776E-03  0.1087E-01  0.7902E+15
   -1.529857    1.02571  0.0000E+00  0.8993E-04  0.1731E-04  0.4261E-03  0.9271E-02  0.5148E+15
   -1.572351    1.39084  0.0000E+00  0.8111E-04  0.2587E-04  0.4229E-03  0.7695E-02 -0.7443E+14
   -1.614845    1.92397  0.0000E+00  0.6652E-04  0.5095E-04  0.2393E-03  0.6519E-02 -0.2750E+15
   -1.657339    2.32536  0.0000E+00  0.4282E-04  0.1025E-03  0.9860E-04  0.5227E-02 -0.1015E+16
   -1.699832    2.84256  0.0000E+00  0.0000E+00  0.0000E+00  0.0000E+00  0.6784E-02  0.0000E+00
