 1 - depth, m
 2 - temperature, C
 3 - salinity, kg/kg
 4 - turbulent kinetic energy, m**2/s**2
 5 - dissipation rate, m**2/s**3
 6 - kinematic heat conductance, m**2/s
 7 - modulus of horizontal velocity, m/s
 8 - Richardson number, n/d
   -0.000000    5.32691  0.0000E+00  0.4609E-02  0.1633E+00  0.3096E-03  0.1296E+01  0.2469E-02
   -0.042497    5.81306  0.0000E+00  0.2219E-02  0.1227E+00  0.5147E-03  0.2717E+00 -0.3434E-01
   -0.084995    6.26974  0.0000E+00  0.1384E-02  0.3375E-01  0.7644E-03  0.1335E+00  0.8582E-01
   -0.127493    6.36940  0.0000E+00  0.1040E-02  0.2063E-01  0.6761E-03  0.9576E-01  0.9209E+00
   -0.169991    6.42012  0.0000E+00  0.8385E-03  0.1332E-01  0.6162E-03  0.7522E-01  0.3614E+02
   -0.212490    6.46743  0.0000E+00  0.7040E-03  0.9648E-02  0.5946E-03  0.6031E-01 -0.8035E+01
   -0.254989    6.51041  0.0000E+00  0.5890E-03  0.7417E-02  0.6388E-03  0.5074E-01  0.9651E+00
   -0.297488    6.53520  0.0000E+00  0.4850E-03  0.5599E-02  0.6365E-03  0.4553E-01 -0.1512E+01
   -0.339987    6.55345  0.0000E+00  0.4169E-03  0.4179E-02  0.6110E-03  0.4221E-01  0.3279E+03
   -0.382487    6.56861  0.0000E+00  0.3583E-03  0.3113E-02  0.6124E-03  0.3843E-01  0.6977E+04
   -0.424987    6.58198  0.0000E+00  0.3055E-03  0.2304E-02  0.6015E-03  0.3645E-01  0.6145E+03
   -0.467488    6.59301  0.0000E+00  0.2657E-03  0.1708E-02  0.5971E-03  0.3329E-01  0.1379E+03
   -0.509988    6.60898  0.0000E+00  0.2331E-03  0.1268E-02  0.6261E-03  0.2952E-01  0.3448E+02
   -0.552489    6.61935  0.0000E+00  0.2068E-03  0.9411E-03  0.6382E-03  0.2670E-01  0.5974E+02
   -0.594989    6.63308  0.0000E+00  0.1840E-03  0.7049E-03  0.6517E-03  0.2370E-01  0.9507E+02
   -0.637490    6.65165  0.0000E+00  0.1638E-03  0.5294E-03  0.6837E-03  0.2055E-01  0.1489E+03
   -0.679991    6.66293  0.0000E+00  0.1479E-03  0.3988E-03  0.7136E-03  0.1863E-01  0.9818E+01
   -0.722492    6.66991  0.0000E+00  0.1345E-03  0.2990E-03  0.7548E-03  0.1698E-01 -0.2299E+03
   -0.764994    6.68004  0.0000E+00  0.1228E-03  0.2210E-03  0.8064E-03  0.1565E-01  0.1585E+04
   -0.807495    6.68748  0.0000E+00  0.1128E-03  0.1589E-03  0.8677E-03  0.1466E-01  0.6323E+01
   -0.849996    6.69659  0.0000E+00  0.1041E-03  0.1122E-03  0.9079E-03  0.1373E-01  0.4102E+03
   -0.892497    6.70155  0.0000E+00  0.9629E-04  0.7743E-04  0.9559E-03  0.1287E-01  0.3049E+03
   -0.934998    6.71156  0.0000E+00  0.8949E-04  0.5102E-04  0.1002E-02  0.1211E-01  0.8338E+03
   -0.977499    6.71639  0.0000E+00  0.8354E-04  0.3541E-04  0.1042E-02  0.1130E-01  0.2495E+01
   -1.020001    6.72596  0.0000E+00  0.7824E-04  0.2395E-04  0.1076E-02  0.1059E-01  0.2848E+03
   -1.062502    6.73318  0.0000E+00  0.7354E-04  0.1639E-04  0.1067E-02  0.9866E-02  0.1156E+03
   -1.105002    6.73748  0.0000E+00  0.6939E-04  0.1108E-04  0.1056E-02  0.9238E-02  0.6192E+03
   -1.147503    6.74776  0.0000E+00  0.6574E-04  0.7730E-05  0.1068E-02  0.8571E-02  0.2209E+03
   -1.190004    6.75177  0.0000E+00  0.6250E-04  0.5614E-05  0.1065E-02  0.7845E-02  0.2160E+03
   -1.232504    6.76163  0.0000E+00  0.5942E-04  0.3638E-05  0.1045E-02  0.7111E-02  0.2380E+04
   -1.275005    6.76659  0.0000E+00  0.5634E-04  0.2385E-05  0.1022E-02  0.6470E-02 -0.5640E+03
   -1.317505    6.77496  0.0000E+00  0.5317E-04  0.1661E-05  0.9768E-03  0.5856E-02  0.4549E+05
   -1.360004    6.78284  0.0000E+00  0.4987E-04  0.1256E-05  0.9281E-03  0.5288E-02  0.6584E+07
   -1.402504    6.79299  0.0000E+00  0.4631E-04  0.1240E-05  0.8318E-03  0.4786E-02 -0.6615E+04
   -1.445003    6.80374  0.0000E+00  0.4280E-04  0.1403E-05  0.7233E-03  0.4312E-02  0.2534E+06
   -1.487502    6.81868  0.0000E+00  0.3925E-04  0.1833E-05  0.6329E-03  0.3723E-02  0.7567E+07
   -1.530001    6.83766  0.0000E+00  0.3559E-04  0.2765E-05  0.5428E-03  0.2900E-02 -0.4490E+05
   -1.572499    6.87459  0.0000E+00  0.3206E-04  0.5153E-05  0.5408E-03  0.2177E-02  0.2152E+07
   -1.614997    6.88878  0.0000E+00  0.2657E-04  0.1460E-04  0.3110E-03  0.1819E-02 -0.6393E+08
   -1.657495    7.13515  0.0000E+00  0.1909E-04  0.2945E-04  0.2496E-03  0.1361E-02 -0.3414E+10
   -1.699992    7.20592  0.0000E+00  0.0000E+00  0.0000E+00  0.0000E+00  0.2354E-02  0.0000E+00
