 1 - depth, m
 2 - temperature, C
 3 - salinity, kg/kg
 4 - turbulent kinetic energy, m**2/s**2
 5 - dissipation rate, m**2/s**3
 6 - kinematic heat conductance, m**2/s
 7 - modulus of horizontal velocity, m/s
 8 - Richardson number, n/d
   -0.000000    9.78792  0.0000E+00  0.3796E-03  0.5807E-03  0.7094E-04  0.2171E+00  0.2091E+01
   -0.042497   10.01617  0.0000E+00  0.1960E-03  0.1830E-03  0.1695E-03  0.4912E-01 -0.6916E-01
   -0.084995   10.07515  0.0000E+00  0.1337E-03  0.7329E-04  0.1598E-03  0.3030E-01 -0.5409E-01
   -0.127493   10.11343  0.0000E+00  0.9970E-04  0.3761E-04  0.1677E-03  0.2376E-01  0.6345E+01
   -0.169991   10.14059  0.0000E+00  0.7660E-04  0.2075E-04  0.1807E-03  0.1929E-01  0.2696E+02
   -0.212490   10.16377  0.0000E+00  0.5959E-04  0.1111E-04  0.2133E-03  0.1563E-01  0.1624E+02
   -0.254989   10.18377  0.0000E+00  0.4731E-04  0.5862E-05  0.2633E-03  0.1286E-01  0.1270E+03
   -0.297489   10.20005  0.0000E+00  0.3861E-04  0.3143E-05  0.3083E-03  0.1087E-01  0.2844E+03
   -0.339988   10.21398  0.0000E+00  0.3253E-04  0.1755E-05  0.3541E-03  0.9311E-02  0.1917E+02
   -0.382488   10.22666  0.0000E+00  0.2827E-04  0.1039E-05  0.4133E-03  0.7938E-02  0.3302E+02
   -0.424988   10.23694  0.0000E+00  0.2539E-04  0.6683E-06  0.4657E-03  0.6861E-02  0.5746E+02
   -0.467488   10.24509  0.0000E+00  0.2344E-04  0.4563E-06  0.5229E-03  0.5915E-02  0.9382E+02
   -0.509989   10.25263  0.0000E+00  0.2212E-04  0.3279E-06  0.5802E-03  0.5087E-02  0.2062E+03
   -0.552490   10.25850  0.0000E+00  0.2123E-04  0.2513E-06  0.6275E-03  0.4367E-02  0.1128E+03
   -0.594991   10.26390  0.0000E+00  0.2063E-04  0.2027E-06  0.6806E-03  0.3721E-02  0.6234E+02
   -0.637492   10.26856  0.0000E+00  0.2019E-04  0.1695E-06  0.7378E-03  0.3150E-02  0.8788E+01
   -0.679993   10.27288  0.0000E+00  0.1987E-04  0.1457E-06  0.7983E-03  0.2662E-02  0.3431E+01
   -0.722494   10.27690  0.0000E+00  0.1962E-04  0.1279E-06  0.8619E-03  0.2244E-02  0.2786E+01
   -0.764995   10.28077  0.0000E+00  0.1941E-04  0.1142E-06  0.9310E-03  0.1898E-02  0.1958E+01
   -0.807496   10.28456  0.0000E+00  0.1922E-04  0.1035E-06  0.9969E-03  0.1619E-02  0.1793E+01
   -0.849998   10.28827  0.0000E+00  0.1904E-04  0.9550E-07  0.1057E-02  0.1390E-02  0.1590E+01
   -0.892499   10.29187  0.0000E+00  0.1885E-04  0.8949E-07  0.1106E-02  0.1200E-02  0.1522E+01
   -0.935000   10.29543  0.0000E+00  0.1864E-04  0.8522E-07  0.1140E-02  0.1044E-02  0.1519E+01
   -0.977501   10.29890  0.0000E+00  0.1842E-04  0.8241E-07  0.1160E-02  0.9128E-03  0.1503E+01
   -1.020002   10.30237  0.0000E+00  0.1817E-04  0.8085E-07  0.1162E-02  0.8027E-03  0.1536E+01
   -1.062504   10.30583  0.0000E+00  0.1791E-04  0.8043E-07  0.1149E-02  0.7084E-03  0.1561E+01
   -1.105005   10.30932  0.0000E+00  0.1763E-04  0.8111E-07  0.1121E-02  0.6273E-03  0.1635E+01
   -1.147505   10.31287  0.0000E+00  0.1734E-04  0.8297E-07  0.1088E-02  0.5555E-03  0.1771E+01
   -1.190006   10.31644  0.0000E+00  0.1705E-04  0.8622E-07  0.1040E-02  0.4900E-03  0.2166E+01
   -1.232507   10.32006  0.0000E+00  0.1675E-04  0.9162E-07  0.9906E-03  0.4305E-03 -0.4022E+00
   -1.275007   10.32415  0.0000E+00  0.1640E-04  0.1004E-06  0.9280E-03  0.3790E-03  0.4061E+02
   -1.317507   10.32910  0.0000E+00  0.1598E-04  0.1145E-06  0.8715E-03  0.3335E-03  0.2617E+02
   -1.360007   10.33552  0.0000E+00  0.1543E-04  0.1392E-06  0.7946E-03  0.2919E-03 -0.6599E+03
   -1.402507   10.34522  0.0000E+00  0.1470E-04  0.1787E-06  0.7317E-03  0.2523E-03  0.4917E+04
   -1.445006   10.35462  0.0000E+00  0.1382E-04  0.2505E-06  0.6138E-03  0.2172E-03  0.2142E+05
   -1.487505   10.37387  0.0000E+00  0.1303E-04  0.3558E-06  0.5638E-03  0.1684E-03  0.2047E+05
   -1.530004   10.38082  0.0000E+00  0.1217E-04  0.6460E-06  0.4372E-03  0.1288E-03 -0.1287E+06
   -1.572502   10.47915  0.0000E+00  0.1146E-04  0.1177E-05  0.4707E-03  0.8242E-04  0.5854E+10
   -1.615000   10.38724  0.0000E+00  0.1000E-04  0.3303E-05  0.2526E-03  0.6789E-04 -0.5097E+10
   -1.657498   10.78329  0.0000E+00  0.7785E-05  0.6768E-05  0.2623E-03  0.4211E-04 -0.3409E+06
   -1.699995   10.69682  0.0000E+00  0.0000E+00  0.0000E+00  0.0000E+00  0.8487E-04  0.0000E+00
