 1 - depth, m
 2 - temperature, C
 3 - salinity, kg/kg
 4 - turbulent kinetic energy, m**2/s**2
 5 - dissipation rate, m**2/s**3
 6 - kinematic heat conductance, m**2/s
 7 - modulus of horizontal velocity, m/s
 8 - Richardson number, n/d
   -0.000000    6.50798  0.0000E+00  0.1804E-02  0.9586E-02  0.1453E-03  0.5696E+00  0.3223E-02
   -0.042497    6.94112  0.0000E+00  0.8392E-03  0.3691E-02  0.3508E-03  0.1191E+00 -0.6528E-01
   -0.084995    7.04627  0.0000E+00  0.5662E-03  0.1754E-02  0.3971E-03  0.6841E-01 -0.1342E+00
   -0.127493    7.11084  0.0000E+00  0.4283E-03  0.1016E-02  0.3464E-03  0.5389E-01 -0.1133E+00
   -0.169991    7.14688  0.0000E+00  0.3256E-03  0.5711E-03  0.3082E-03  0.4501E-01  0.2264E+01
   -0.212490    7.17727  0.0000E+00  0.2551E-03  0.3677E-03  0.2952E-03  0.3743E-01  0.1745E+00
   -0.254989    7.20741  0.0000E+00  0.1996E-03  0.2447E-03  0.3027E-03  0.3137E-01  0.3355E+01
   -0.297488    7.23394  0.0000E+00  0.1576E-03  0.1600E-03  0.3181E-03  0.2728E-01 -0.8958E+00
   -0.339988    7.25653  0.0000E+00  0.1275E-03  0.1006E-03  0.3270E-03  0.2408E-01  0.1390E+03
   -0.382487    7.27703  0.0000E+00  0.1054E-03  0.6026E-04  0.3548E-03  0.2086E-01  0.1642E+03
   -0.424987    7.29541  0.0000E+00  0.8910E-04  0.3493E-04  0.3701E-03  0.1854E-01  0.9199E+01
   -0.467488    7.31086  0.0000E+00  0.7685E-04  0.1953E-04  0.3905E-03  0.1611E-01  0.3490E+02
   -0.509988    7.32990  0.0000E+00  0.6741E-04  0.1150E-04  0.4233E-03  0.1387E-01  0.1938E+03
   -0.552489    7.34243  0.0000E+00  0.6002E-04  0.7032E-05  0.4634E-03  0.1205E-01  0.8014E+02
   -0.594989    7.35517  0.0000E+00  0.5425E-04  0.4309E-05  0.5241E-03  0.1040E-01  0.3346E+02
   -0.637490    7.36540  0.0000E+00  0.4937E-04  0.2835E-05  0.5914E-03  0.9022E-02  0.2146E+03
   -0.679991    7.37475  0.0000E+00  0.4520E-04  0.1931E-05  0.6619E-03  0.7909E-02  0.3345E+02
   -0.722492    7.38306  0.0000E+00  0.4162E-04  0.1321E-05  0.7246E-03  0.6952E-02  0.5911E+02
   -0.764994    7.39018  0.0000E+00  0.3856E-04  0.9532E-06  0.7975E-03  0.6153E-02  0.9447E+02
   -0.807495    7.39757  0.0000E+00  0.3592E-04  0.7138E-06  0.8428E-03  0.5506E-02  0.2195E+02
   -0.849996    7.40361  0.0000E+00  0.3360E-04  0.5587E-06  0.8737E-03  0.4941E-02  0.1422E+02
   -0.892497    7.41027  0.0000E+00  0.3153E-04  0.4514E-06  0.9061E-03  0.4432E-02  0.1643E+02
   -0.934998    7.41604  0.0000E+00  0.2967E-04  0.3732E-06  0.9269E-03  0.3985E-02  0.8592E+01
   -0.977500    7.42218  0.0000E+00  0.2803E-04  0.3150E-06  0.9487E-03  0.3576E-02  0.1006E+02
   -1.020001    7.42779  0.0000E+00  0.2655E-04  0.2694E-06  0.9573E-03  0.3211E-02  0.7154E+01
   -1.062502    7.43337  0.0000E+00  0.2518E-04  0.2328E-06  0.9641E-03  0.2871E-02  0.6612E+01
   -1.105002    7.43870  0.0000E+00  0.2392E-04  0.2040E-06  0.9607E-03  0.2558E-02  0.4022E+01
   -1.147503    7.44395  0.0000E+00  0.2278E-04  0.1813E-06  0.9489E-03  0.2257E-02  0.4824E+01
   -1.190004    7.44903  0.0000E+00  0.2174E-04  0.1646E-06  0.9266E-03  0.1962E-02  0.4784E+01
   -1.232504    7.45402  0.0000E+00  0.2075E-04  0.1523E-06  0.8981E-03  0.1681E-02  0.7803E+01
   -1.275005    7.45926  0.0000E+00  0.1978E-04  0.1439E-06  0.8619E-03  0.1431E-02  0.4235E+01
   -1.317505    7.46492  0.0000E+00  0.1885E-04  0.1401E-06  0.8168E-03  0.1215E-02  0.6607E+01
   -1.360004    7.47126  0.0000E+00  0.1792E-04  0.1420E-06  0.7590E-03  0.1033E-02  0.7493E+01
   -1.402504    7.47888  0.0000E+00  0.1691E-04  0.1544E-06  0.7042E-03  0.8833E-03 -0.1617E+02
   -1.445003    7.48896  0.0000E+00  0.1585E-04  0.1859E-06  0.6294E-03  0.7514E-03  0.1511E+03
   -1.487502    7.50268  0.0000E+00  0.1474E-04  0.2518E-06  0.5651E-03  0.6108E-03  0.3730E+03
   -1.530001    7.51796  0.0000E+00  0.1355E-04  0.4287E-06  0.4451E-03  0.4587E-03 -0.1859E+06
   -1.572499    7.57178  0.0000E+00  0.1248E-04  0.8154E-06  0.4593E-03  0.3039E-03  0.2315E+07
   -1.614997    7.54497  0.0000E+00  0.1052E-04  0.2474E-05  0.2207E-03  0.2436E-03 -0.1745E+10
   -1.657495    7.88751  0.0000E+00  0.7873E-05  0.5117E-05  0.2039E-03  0.1571E-03 -0.5012E+06
   -1.699992    7.84579  0.0000E+00  0.0000E+00  0.0000E+00  0.0000E+00  0.2887E-03  0.0000E+00
