 1 - depth, m
 2 - temperature, C
 3 - salinity, kg/kg
 4 - turbulent kinetic energy, m**2/s**2
 5 - dissipation rate, m**2/s**3
 6 - kinematic heat conductance, m**2/s
 7 - modulus of horizontal velocity, m/s
 8 - Richardson number, n/d
   -0.000000   13.85582  0.0000E+00  0.6981E-03  0.1305E-02  0.8273E-04  0.2795E+00  0.1554E+00
   -0.042497   14.11413  0.0000E+00  0.3278E-03  0.4232E-03  0.2428E-03  0.5888E-01  0.6032E-01
   -0.084995   14.17864  0.0000E+00  0.2286E-03  0.1930E-03  0.2304E-03  0.3590E-01  0.2344E+01
   -0.127493   14.21612  0.0000E+00  0.1740E-03  0.1120E-03  0.2426E-03  0.2861E-01  0.5448E+02
   -0.169991   14.24084  0.0000E+00  0.1345E-03  0.6715E-04  0.2533E-03  0.2369E-01  0.1496E+02
   -0.212490   14.26043  0.0000E+00  0.1050E-03  0.4112E-04  0.2859E-03  0.1969E-01  0.3869E+02
   -0.254989   14.27632  0.0000E+00  0.8238E-04  0.2444E-04  0.3326E-03  0.1668E-01  0.6008E+02
   -0.297489   14.28893  0.0000E+00  0.6577E-04  0.1412E-04  0.3740E-03  0.1454E-01  0.1490E+02
   -0.339988   14.30027  0.0000E+00  0.5383E-04  0.7842E-05  0.4168E-03  0.1277E-01  0.1696E+02
   -0.382488   14.31036  0.0000E+00  0.4544E-04  0.4354E-05  0.4679E-03  0.1101E-01  0.3967E+02
   -0.424988   14.31917  0.0000E+00  0.3964E-04  0.2483E-05  0.5124E-03  0.9582E-02  0.4337E+03
   -0.467489   14.32704  0.0000E+00  0.3555E-04  0.1506E-05  0.5634E-03  0.8234E-02  0.7876E+02
   -0.509989   14.33341  0.0000E+00  0.3267E-04  0.9701E-06  0.6100E-03  0.7075E-02  0.3650E+02
   -0.552490   14.33921  0.0000E+00  0.3063E-04  0.6534E-06  0.6677E-03  0.6064E-02  0.3383E+02
   -0.594991   14.34404  0.0000E+00  0.2917E-04  0.4696E-06  0.7266E-03  0.5166E-02  0.2319E+03
   -0.637492   14.34842  0.0000E+00  0.2808E-04  0.3608E-06  0.7957E-03  0.4387E-02  0.2239E+02
   -0.679993   14.35217  0.0000E+00  0.2724E-04  0.2917E-06  0.8516E-03  0.3741E-02  0.1171E+02
   -0.722494   14.35578  0.0000E+00  0.2656E-04  0.2446E-06  0.9230E-03  0.3180E-02  0.5485E+01
   -0.764995   14.35910  0.0000E+00  0.2597E-04  0.2102E-06  0.9972E-03  0.2716E-02  0.4196E+01
   -0.807497   14.36232  0.0000E+00  0.2543E-04  0.1840E-06  0.1069E-02  0.2340E-02  0.3930E+01
   -0.849998   14.36539  0.0000E+00  0.2493E-04  0.1640E-06  0.1125E-02  0.2028E-02  0.2356E+01
   -0.892499   14.36835  0.0000E+00  0.2444E-04  0.1486E-06  0.1171E-02  0.1766E-02  0.1851E+01
   -0.935001   14.37126  0.0000E+00  0.2395E-04  0.1370E-06  0.1200E-02  0.1548E-02  0.1869E+01
   -0.977502   14.37409  0.0000E+00  0.2346E-04  0.1283E-06  0.1216E-02  0.1359E-02  0.1865E+01
   -1.020003   14.37691  0.0000E+00  0.2295E-04  0.1222E-06  0.1216E-02  0.1198E-02  0.1909E+01
   -1.062504   14.37970  0.0000E+00  0.2243E-04  0.1184E-06  0.1203E-02  0.1057E-02  0.1885E+01
   -1.105005   14.38251  0.0000E+00  0.2190E-04  0.1168E-06  0.1173E-02  0.9330E-03  0.1903E+01
   -1.147506   14.38537  0.0000E+00  0.2137E-04  0.1173E-06  0.1135E-02  0.8205E-03  0.2000E+01
   -1.190007   14.38825  0.0000E+00  0.2086E-04  0.1202E-06  0.1087E-02  0.7163E-03  0.2314E+01
   -1.232507   14.39116  0.0000E+00  0.2035E-04  0.1265E-06  0.1038E-02  0.6204E-03  0.3309E+01
   -1.275008   14.39440  0.0000E+00  0.1980E-04  0.1376E-06  0.9747E-03  0.5387E-03  0.5715E+01
   -1.317508   14.39831  0.0000E+00  0.1917E-04  0.1568E-06  0.9509E-03  0.4681E-03  0.1016E+04
   -1.360008   14.40332  0.0000E+00  0.1838E-04  0.1923E-06  0.8431E-03  0.4078E-03  0.8593E+04
   -1.402507   14.41100  0.0000E+00  0.1734E-04  0.2575E-06  0.7694E-03  0.3509E-03  0.2687E+05
   -1.445007   14.41981  0.0000E+00  0.1614E-04  0.3723E-06  0.6673E-03  0.2968E-03  0.1537E+05
   -1.487506   14.43304  0.0000E+00  0.1513E-04  0.5415E-06  0.5980E-03  0.2319E-03  0.3719E+04
   -1.530004   14.44451  0.0000E+00  0.1406E-04  0.1051E-05  0.4993E-03  0.1719E-03 -0.8678E+05
   -1.572503   14.50954  0.0000E+00  0.1326E-04  0.1838E-05  0.5302E-03  0.1119E-03  0.6004E+11
   -1.615001   14.44413  0.0000E+00  0.1155E-04  0.5574E-05  0.2959E-03  0.9341E-04 -0.1056E+11
   -1.657499   14.75140  0.0000E+00  0.9086E-05  0.1055E-04  0.3183E-03  0.5758E-04 -0.3613E+06
   -1.699996   14.68003  0.0000E+00  0.0000E+00  0.0000E+00  0.0000E+00  0.1260E-03  0.0000E+00
