 1 - depth, m
 2 - temperature, C
 3 - salinity, kg/kg
 4 - turbulent kinetic energy, m**2/s**2
 5 - dissipation rate, m**2/s**3
 6 - kinematic heat conductance, m**2/s
 7 - modulus of horizontal velocity, m/s
 8 - Richardson number, n/d
   -0.000000   16.29052  0.0000E+00  0.1640E-03  0.1502E-03  0.6455E-04  0.1211E+00  0.1832E+01
   -0.042497   16.47610  0.0000E+00  0.8632E-04  0.5413E-04  0.9772E-04  0.3147E-01 -0.8965E-01
   -0.084995   16.53039  0.0000E+00  0.6015E-04  0.2902E-04  0.1255E-03  0.1930E-01  0.5494E+01
   -0.127494   16.56020  0.0000E+00  0.4572E-04  0.1395E-04  0.1698E-03  0.1463E-01  0.6930E+02
   -0.169992   16.57896  0.0000E+00  0.3614E-04  0.5705E-05  0.2209E-03  0.1157E-01  0.2158E+03
   -0.212491   16.59380  0.0000E+00  0.2979E-04  0.2431E-05  0.2963E-03  0.9272E-02  0.7641E+02
   -0.254990   16.60510  0.0000E+00  0.2565E-04  0.1182E-05  0.3745E-03  0.7602E-02  0.7491E+02
   -0.297490   16.61389  0.0000E+00  0.2310E-04  0.6774E-06  0.4517E-03  0.6395E-02  0.7120E+02
   -0.339990   16.62041  0.0000E+00  0.2166E-04  0.4313E-06  0.5189E-03  0.5484E-02  0.4673E+02
   -0.382490   16.62580  0.0000E+00  0.2093E-04  0.2964E-06  0.5846E-03  0.4728E-02  0.1333E+02
   -0.424990   16.63020  0.0000E+00  0.2066E-04  0.2206E-06  0.6428E-03  0.4108E-02  0.2012E+02
   -0.467491   16.63408  0.0000E+00  0.2070E-04  0.1764E-06  0.6970E-03  0.3555E-02  0.6133E+01
   -0.509992   16.63755  0.0000E+00  0.2090E-04  0.1488E-06  0.7566E-03  0.3056E-02  0.2473E+01
   -0.552492   16.64070  0.0000E+00  0.2120E-04  0.1304E-06  0.8231E-03  0.2605E-02  0.2343E+01
   -0.594994   16.64355  0.0000E+00  0.2152E-04  0.1176E-06  0.8945E-03  0.2197E-02  0.2137E+01
   -0.637495   16.64616  0.0000E+00  0.2185E-04  0.1085E-06  0.9745E-03  0.1834E-02  0.1918E+01
   -0.679996   16.64860  0.0000E+00  0.2216E-04  0.1019E-06  0.1059E-02  0.1526E-02  0.1768E+01
   -0.722497   16.65089  0.0000E+00  0.2242E-04  0.9750E-07  0.1149E-02  0.1270E-02  0.1628E+01
   -0.764999   16.65308  0.0000E+00  0.2263E-04  0.9471E-07  0.1245E-02  0.1063E-02  0.1523E+01
   -0.807500   16.65519  0.0000E+00  0.2276E-04  0.9308E-07  0.1322E-02  0.9020E-03  0.1448E+01
   -0.850002   16.65725  0.0000E+00  0.2279E-04  0.9275E-07  0.1748E-02  0.7667E-03  0.1402E+01
   -0.892503   16.65883  0.0000E+00  0.2278E-04  0.9299E-07  0.1692E-02  0.7232E-03  0.2781E+01
   -0.935005   16.66052  0.0000E+00  0.2273E-04  0.9379E-07  0.1509E-02  0.6898E-03  0.1347E+01
   -0.977506   16.66242  0.0000E+00  0.2259E-04  0.9564E-07  0.1511E-02  0.6152E-03  0.1305E+01
   -1.020008   16.66435  0.0000E+00  0.2240E-04  0.9801E-07  0.1486E-02  0.5568E-03  0.1293E+01
   -1.062509   16.66631  0.0000E+00  0.2218E-04  0.1011E-06  0.1445E-02  0.5069E-03  0.1332E+01
   -1.105010   16.66834  0.0000E+00  0.2192E-04  0.1050E-06  0.1406E-02  0.4636E-03  0.2256E+01
   -1.147511   16.67046  0.0000E+00  0.2162E-04  0.1102E-06  0.1328E-02  0.4267E-03  0.7737E+01
   -1.190012   16.67265  0.0000E+00  0.2130E-04  0.1173E-06  0.1271E-02  0.3915E-03  0.1604E+01
   -1.232513   16.67499  0.0000E+00  0.2091E-04  0.1280E-06  0.1200E-02  0.3553E-03  0.6346E+00
   -1.275013   16.67755  0.0000E+00  0.2044E-04  0.1444E-06  0.1136E-02  0.3221E-03  0.1423E+01
   -1.317514   16.68103  0.0000E+00  0.1985E-04  0.1704E-06  0.1045E-02  0.2888E-03  0.2017E+04
   -1.360014   16.68520  0.0000E+00  0.1909E-04  0.2093E-06  0.9763E-03  0.2568E-03  0.1265E+04
   -1.402514   16.69116  0.0000E+00  0.1812E-04  0.2779E-06  0.8654E-03  0.2252E-03  0.7437E+03
   -1.445013   16.69868  0.0000E+00  0.1700E-04  0.3765E-06  0.7810E-03  0.1942E-03  0.5826E+05
   -1.487512   16.70784  0.0000E+00  0.1601E-04  0.5410E-06  0.6600E-03  0.1574E-03  0.5062E+06
   -1.530011   16.72063  0.0000E+00  0.1487E-04  0.1024E-05  0.5691E-03  0.1184E-03 -0.1732E+05
   -1.572510   16.76600  0.0000E+00  0.1400E-04  0.1705E-05  0.5955E-03  0.8017E-04  0.3653E+10
   -1.615008   16.72495  0.0000E+00  0.1203E-04  0.5399E-05  0.3185E-03  0.6602E-04 -0.4899E+10
   -1.657506   16.97295  0.0000E+00  0.9538E-05  0.1016E-04  0.3302E-03  0.4190E-04 -0.1179E+06
   -1.700004   16.90600  0.0000E+00  0.0000E+00  0.0000E+00  0.0000E+00  0.8478E-04  0.0000E+00
