 1 - depth, m
 2 - temperature, C
 3 - salinity, kg/kg
 4 - turbulent kinetic energy, m**2/s**2
 5 - dissipation rate, m**2/s**3
 6 - kinematic heat conductance, m**2/s
 7 - modulus of horizontal velocity, m/s
 8 - Richardson number, n/d
   -0.000000    5.61802  0.0000E+00  0.1391E-02  0.2618E-01  0.1345E-03  0.4443E+00  0.1303E-01
   -0.042497    5.91111  0.0000E+00  0.6997E-03  0.1535E-01  0.2354E-03  0.9704E-01 -0.4812E-01
   -0.084995    6.00764  0.0000E+00  0.4357E-03  0.6757E-02  0.2749E-03  0.5346E-01 -0.4897E-02
   -0.127493    6.04869  0.0000E+00  0.3126E-03  0.4911E-02  0.2541E-03  0.4162E-01  0.1124E+00
   -0.169991    6.08298  0.0000E+00  0.2364E-03  0.3927E-02  0.2416E-03  0.3415E-01  0.4719E+00
   -0.212490    6.11200  0.0000E+00  0.1839E-03  0.3210E-02  0.2428E-03  0.2817E-01  0.4359E+02
   -0.254989    6.13655  0.0000E+00  0.1481E-03  0.2634E-02  0.2539E-03  0.2362E-01 -0.1617E+01
   -0.297489    6.16078  0.0000E+00  0.1217E-03  0.2140E-02  0.2708E-03  0.2047E-01  0.1781E+03
   -0.339988    6.18011  0.0000E+00  0.1019E-03  0.1725E-02  0.2884E-03  0.1830E-01  0.9793E+02
   -0.382488    6.19735  0.0000E+00  0.8620E-04  0.1378E-02  0.3129E-03  0.1616E-01  0.2251E+02
   -0.424988    6.21297  0.0000E+00  0.7440E-04  0.1094E-02  0.3398E-03  0.1464E-01  0.2909E+02
   -0.467489    6.22657  0.0000E+00  0.6512E-04  0.8645E-03  0.3718E-03  0.1296E-01  0.3152E+02
   -0.509989    6.23880  0.0000E+00  0.5771E-04  0.6798E-03  0.4122E-03  0.1137E-01  0.1238E+03
   -0.552490    6.25075  0.0000E+00  0.5166E-04  0.5318E-03  0.4442E-03  0.9955E-02  0.8139E+02
   -0.594991    6.26030  0.0000E+00  0.4667E-04  0.4126E-03  0.4899E-03  0.8567E-02  0.4201E+02
   -0.637492    6.26908  0.0000E+00  0.4251E-04  0.3153E-03  0.5395E-03  0.7345E-02  0.1860E+02
   -0.679993    6.27788  0.0000E+00  0.3903E-04  0.2403E-03  0.5925E-03  0.6416E-02  0.6286E+01
   -0.722494    6.28463  0.0000E+00  0.3604E-04  0.1803E-03  0.6537E-03  0.5621E-02  0.3187E+02
   -0.764995    6.29200  0.0000E+00  0.3345E-04  0.1317E-03  0.7135E-03  0.4985E-02  0.1484E+03
   -0.807497    6.29854  0.0000E+00  0.3119E-04  0.9312E-04  0.7583E-03  0.4500E-02 -0.2238E+03
   -0.849998    6.30517  0.0000E+00  0.2922E-04  0.6367E-04  0.8085E-03  0.4070E-02  0.6489E+01
   -0.892499    6.31160  0.0000E+00  0.2748E-04  0.4167E-04  0.8561E-03  0.3685E-02 -0.4320E+04
   -0.935000    6.31735  0.0000E+00  0.2598E-04  0.2626E-04  0.9000E-03  0.3370E-02 -0.3426E+02
   -0.977502    6.32357  0.0000E+00  0.2466E-04  0.1596E-04  0.9308E-03  0.3064E-02 -0.4034E+01
   -1.020003    6.32872  0.0000E+00  0.2348E-04  0.9400E-05  0.9514E-03  0.2800E-02  0.1284E+03
   -1.062504    6.33464  0.0000E+00  0.2244E-04  0.5370E-05  0.9654E-03  0.2545E-02 -0.1348E+01
   -1.105005    6.33963  0.0000E+00  0.2150E-04  0.2916E-05  0.9700E-03  0.2323E-02  0.6497E+03
   -1.147506    6.34501  0.0000E+00  0.2067E-04  0.1600E-05  0.9682E-03  0.2103E-02 -0.6029E+01
   -1.190006    6.35002  0.0000E+00  0.1993E-04  0.9063E-06  0.9528E-03  0.1881E-02  0.5466E+02
   -1.232507    6.35475  0.0000E+00  0.1924E-04  0.5711E-06  0.9334E-03  0.1665E-02  0.8298E+02
   -1.275007    6.36003  0.0000E+00  0.1858E-04  0.3902E-06  0.9103E-03  0.1481E-02  0.2567E+04
   -1.317507    6.36520  0.0000E+00  0.1791E-04  0.2881E-06  0.8640E-03  0.1320E-02  0.3658E+04
   -1.360007    6.37149  0.0000E+00  0.1721E-04  0.2401E-06  0.8026E-03  0.1174E-02  0.3378E+04
   -1.402507    6.37849  0.0000E+00  0.1642E-04  0.2286E-06  0.7440E-03  0.1045E-02  0.6034E+05
   -1.445006    6.38745  0.0000E+00  0.1560E-04  0.2494E-06  0.6615E-03  0.9240E-03  0.6437E+04
   -1.487505    6.39816  0.0000E+00  0.1472E-04  0.3127E-06  0.5949E-03  0.7809E-03  0.9665E+04
   -1.530004    6.41178  0.0000E+00  0.1379E-04  0.4692E-06  0.4880E-03  0.5650E-03  0.1853E+05
   -1.572503    6.43879  0.0000E+00  0.1291E-04  0.8499E-06  0.4941E-03  0.4094E-03  0.1735E+07
   -1.615001    6.44493  0.0000E+00  0.1106E-04  0.2095E-05  0.2238E-03  0.3362E-03 -0.3893E+10
   -1.657498    6.67476  0.0000E+00  0.8012E-05  0.4305E-05  0.1430E-03  0.2414E-03 -0.6067E+09
   -1.699996    6.72349  0.0000E+00  0.0000E+00  0.0000E+00  0.0000E+00  0.4430E-03  0.0000E+00
