 1 - depth, m
 2 - temperature, C
 3 - salinity, kg/kg
 4 - turbulent kinetic energy, m**2/s**2
 5 - dissipation rate, m**2/s**3
 6 - kinematic heat conductance, m**2/s
 7 - modulus of horizontal velocity, m/s
 8 - Richardson number, n/d
   -0.000000    1.12384  0.0000E+00  0.3076E-02  0.6474E-01  0.2564E-03  0.9445E+00  0.1908E-02
   -0.042497    1.25436  0.0000E+00  0.1623E-02  0.4254E-01  0.4687E-03  0.2005E+00  0.4016E-01
   -0.084995    1.32447  0.0000E+00  0.1058E-02  0.1572E-01  0.5695E-03  0.1126E+00 -0.1554E-02
   -0.127493    1.35620  0.0000E+00  0.7999E-03  0.9886E-02  0.5281E-03  0.8742E-01 -0.2291E-01
   -0.169992    1.37939  0.0000E+00  0.6321E-03  0.6499E-02  0.4991E-03  0.7146E-01 -0.1644E-01
   -0.212491    1.40031  0.0000E+00  0.5027E-03  0.2937E-02  0.4740E-03  0.5898E-01  0.1267E+00
   -0.254990    1.41820  0.0000E+00  0.4129E-03  0.2116E-02  0.4560E-03  0.4978E-01  0.4352E+01
   -0.297489    1.43565  0.0000E+00  0.3398E-03  0.1445E-02  0.4473E-03  0.4407E-01  0.9885E+01
   -0.339989    1.45188  0.0000E+00  0.2862E-03  0.8745E-03  0.4381E-03  0.3980E-01  0.2976E+02
   -0.382489    1.46754  0.0000E+00  0.2451E-03  0.5608E-03  0.4345E-03  0.3574E-01  0.3374E+02
   -0.424989    1.48352  0.0000E+00  0.2151E-03  0.3743E-03  0.4319E-03  0.3282E-01  0.1784E+02
   -0.467489    1.50066  0.0000E+00  0.1908E-03  0.2422E-03  0.4244E-03  0.2974E-01  0.1445E+01
   -0.509990    1.51632  0.0000E+00  0.1698E-03  0.1525E-03  0.4227E-03  0.2668E-01  0.2078E+01
   -0.552491    1.53030  0.0000E+00  0.1533E-03  0.9438E-04  0.4149E-03  0.2412E-01  0.7315E+01
   -0.594992    1.54468  0.0000E+00  0.1387E-03  0.5838E-04  0.4058E-03  0.2157E-01  0.1077E+03
   -0.637493    1.56060  0.0000E+00  0.1256E-03  0.3649E-04  0.4050E-03  0.1917E-01  0.3462E+04
   -0.679994    1.57690  0.0000E+00  0.1142E-03  0.2339E-04  0.3948E-03  0.1732E-01  0.1316E+06
   -0.722495    1.59531  0.0000E+00  0.1036E-03  0.1548E-04  0.3859E-03  0.1569E-01  0.7411E+07
   -0.764997    1.61717  0.0000E+00  0.9405E-04  0.1058E-04  0.3747E-03  0.1431E-01  0.2167E+10
   -0.807498    1.64443  0.0000E+00  0.8519E-04  0.7408E-05  0.3583E-03  0.1320E-01  0.9946E+12
   -0.849999    1.68114  0.0000E+00  0.7710E-04  0.5327E-05  0.3417E-03  0.1216E-01  0.2049E+12
   -0.892501    1.73377  0.0000E+00  0.6980E-04  0.3911E-05  0.3297E-03  0.1121E-01  0.3175E+11
   -0.935002    1.80810  0.0000E+00  0.6323E-04  0.2937E-05  0.3095E-03  0.1037E-01  0.9404E+11
   -0.977503    1.91115  0.0000E+00  0.5739E-04  0.2257E-05  0.3113E-03  0.9514E-02  0.1750E+11
   -1.020005    2.03133  0.0000E+00  0.5220E-04  0.1767E-05  0.2879E-03  0.8746E-02  0.7953E+11
   -1.062506    2.18858  0.0000E+00  0.4755E-04  0.1385E-05  0.2804E-03  0.7952E-02  0.5571E+11
   -1.105007    2.36825  0.0000E+00  0.4353E-04  0.1069E-05  0.2842E-03  0.7259E-02  0.2970E+11
   -1.147508    2.61475  0.0000E+00  0.4010E-04  0.8300E-06  0.2803E-03  0.6448E-02  0.2470E+11
   -1.190008    2.90203  0.0000E+00  0.3726E-04  0.6876E-06  0.2866E-03  0.5574E-02  0.2312E+11
   -1.232509    3.18919  0.0000E+00  0.3477E-04  0.6030E-06  0.2977E-03  0.4765E-02  0.2459E+11
   -1.275010    3.37865  0.0000E+00  0.3263E-04  0.5518E-06  0.2985E-03  0.4214E-02  0.3171E+11
   -1.317510    3.51757  0.0000E+00  0.3057E-04  0.5181E-06  0.3035E-03  0.3641E-02  0.7091E+11
   -1.360010    3.64719  0.0000E+00  0.2869E-04  0.5046E-06  0.3039E-03  0.3268E-02  0.1015E+13
   -1.402509    3.74585  0.0000E+00  0.2678E-04  0.5159E-06  0.2936E-03  0.2957E-02  0.4940E+14
   -1.445009    3.82272  0.0000E+00  0.2500E-04  0.5639E-06  0.2798E-03  0.2657E-02  0.8334E+13
   -1.487508    3.89989  0.0000E+00  0.2336E-04  0.6674E-06  0.2610E-03  0.2331E-02 -0.1040E+13
   -1.530007    3.98098  0.0000E+00  0.2165E-04  0.8848E-06  0.2380E-03  0.1936E-02 -0.1961E+14
   -1.572505    4.06515  0.0000E+00  0.1972E-04  0.1442E-05  0.2046E-03  0.1547E-02 -0.6998E+14
   -1.615003    4.18324  0.0000E+00  0.1636E-04  0.3424E-05  0.1346E-03  0.1302E-02 -0.1389E+15
   -1.657501    4.35631  0.0000E+00  0.1126E-04  0.8300E-05  0.5829E-04  0.1022E-02 -0.8214E+15
   -1.699999    4.81644  0.0000E+00  0.0000E+00  0.0000E+00  0.0000E+00  0.1500E-02  0.0000E+00
