 1 - depth, m
 2 - temperature, C
 3 - salinity, kg/kg
 4 - turbulent kinetic energy, m**2/s**2
 5 - dissipation rate, m**2/s**3
 6 - kinematic heat conductance, m**2/s
 7 - modulus of horizontal velocity, m/s
 8 - Richardson number, n/d
   -0.000000   -0.00085  0.0000E+00  0.7080E-03  0.2049E-02  0.1229E-03  0.4083E+00  0.3274E-01
   -0.042493    0.09072  0.0000E+00  0.3961E-03  0.9054E-03  0.2365E-03  0.1003E+00  0.1065E+00
   -0.084986    0.15086  0.0000E+00  0.2685E-03  0.3371E-03  0.2277E-03  0.5900E-01  0.5425E-01
   -0.127479    0.19570  0.0000E+00  0.2019E-03  0.1580E-03  0.2039E-03  0.4652E-01  0.4684E+00
   -0.169973    0.23751  0.0000E+00  0.1569E-03  0.8027E-04  0.1827E-03  0.3811E-01  0.1568E+00
   -0.212467    0.28056  0.0000E+00  0.1230E-03  0.4025E-04  0.1718E-03  0.3124E-01  0.3924E+00
   -0.254962    0.33094  0.0000E+00  0.9714E-04  0.2078E-04  0.1599E-03  0.2574E-01  0.2367E+02
   -0.297457    0.38899  0.0000E+00  0.7774E-04  0.1088E-04  0.1473E-03  0.2220E-01  0.5662E+02
   -0.339952    0.45411  0.0000E+00  0.6302E-04  0.6070E-05  0.1350E-03  0.1971E-01  0.8441E+03
   -0.382447    0.52858  0.0000E+00  0.5153E-04  0.3453E-05  0.1240E-03  0.1730E-01  0.3604E+03
   -0.424943    0.62507  0.0000E+00  0.4265E-04  0.2035E-05  0.1148E-03  0.1545E-01  0.2392E+03
   -0.467439    0.74871  0.0000E+00  0.3588E-04  0.1315E-05  0.1048E-03  0.1337E-01  0.6239E+02
   -0.509934    0.92032  0.0000E+00  0.3050E-04  0.9353E-06  0.9990E-04  0.1133E-01  0.1329E+03
   -0.552431    1.10915  0.0000E+00  0.2603E-04  0.7100E-06  0.1094E-03  0.9457E-02  0.5725E+03
   -0.594927    1.26070  0.0000E+00  0.2195E-04  0.5453E-06  0.1073E-03  0.7673E-02  0.9703E+04
   -0.637423    1.46882  0.0000E+00  0.1819E-04  0.4117E-06  0.1099E-03  0.6087E-02  0.2666E+05
   -0.679920    1.73711  0.0000E+00  0.1492E-04  0.3128E-06  0.1477E-03  0.4868E-02  0.5841E+06
   -0.722417    1.86999  0.0000E+00  0.1188E-04  0.2326E-06  0.1530E-03  0.3883E-02  0.8506E+08
   -0.764913    1.98449  0.0000E+00  0.9165E-05  0.1681E-06  0.1522E-03  0.3064E-02  0.1892E+11
   -0.807410    2.18591  0.0000E+00  0.6916E-05  0.1165E-06  0.1526E-03  0.2385E-02  0.3807E+12
   -0.849907    2.52259  0.0000E+00  0.5228E-05  0.7740E-07  0.1796E-03  0.1768E-02  0.4160E+10
   -0.892403    2.99029  0.0000E+00  0.4109E-05  0.4957E-07  0.2242E-03  0.1216E-02  0.2160E+13
   -0.934900    3.47339  0.0000E+00  0.3452E-05  0.3159E-07  0.2786E-03  0.8269E-03  0.3784E+12
   -0.977397    3.82969  0.0000E+00  0.3119E-05  0.2063E-07  0.3250E-03  0.5228E-03  0.9154E+12
   -1.019893    4.05967  0.0000E+00  0.2971E-05  0.1467E-07  0.3623E-03  0.3640E-03  0.5871E+12
   -1.062390    4.18877  0.0000E+00  0.2897E-05  0.1123E-07  0.3895E-03  0.2600E-03  0.5874E+12
   -1.104886    4.26209  0.0000E+00  0.2873E-05  0.9279E-08  0.4059E-03  0.1929E-03  0.1436E+12
   -1.147383    4.30141  0.0000E+00  0.2879E-05  0.8181E-08  0.4169E-03  0.1430E-03  0.6253E+12
   -1.189879    4.32590  0.0000E+00  0.2901E-05  0.7587E-08  0.4229E-03  0.1034E-03  0.2478E+12
   -1.232375    4.34434  0.0000E+00  0.2935E-05  0.7303E-08  0.4263E-03  0.7467E-04 -0.1267E+12
   -1.274871    4.36070  0.0000E+00  0.2979E-05  0.7247E-08  0.4232E-03  0.5536E-04  0.2417E+12
   -1.317366    4.37638  0.0000E+00  0.3029E-05  0.7379E-08  0.4168E-03  0.4191E-04 -0.2577E+12
   -1.359862    4.39225  0.0000E+00  0.3085E-05  0.7687E-08  0.4051E-03  0.3218E-04 -0.1188E+12
   -1.402357    4.40918  0.0000E+00  0.3142E-05  0.8194E-08  0.3883E-03  0.2510E-04  0.6018E+10
   -1.444851    4.42739  0.0000E+00  0.3194E-05  0.8894E-08  0.3704E-03  0.1956E-04 -0.3687E+12
   -1.487346    4.44557  0.0000E+00  0.3244E-05  0.9872E-08  0.3411E-03  0.1479E-04 -0.8806E+12
   -1.529840    4.46370  0.0000E+00  0.3305E-05  0.1154E-07  0.3056E-03  0.1062E-04 -0.1560E+13
   -1.572334    4.48539  0.0000E+00  0.3388E-05  0.1538E-07  0.2382E-03  0.7351E-05 -0.1000E+14
   -1.614828    4.52902  0.0000E+00  0.3389E-05  0.2886E-07  0.1406E-03  0.5260E-05 -0.3364E+14
   -1.657321    4.63766  0.0000E+00  0.2635E-05  0.9146E-07  0.2889E-04  0.3437E-05 -0.1798E+15
   -1.699813    5.07305  0.0000E+00  0.0000E+00  0.0000E+00  0.0000E+00  0.3648E-05  0.0000E+00
