 1 - depth, m
 2 - temperature, C
 3 - salinity, kg/kg
 4 - turbulent kinetic energy, m**2/s**2
 5 - dissipation rate, m**2/s**3
 6 - kinematic heat conductance, m**2/s
 7 - modulus of horizontal velocity, m/s
 8 - Richardson number, n/d
   -0.000000   -0.00068  0.0000E+00  0.1365E-02  0.4524E-02  0.1802E-03  0.6288E+00  0.3815E-02
   -0.042495    0.07189  0.0000E+00  0.8570E-03  0.2061E-02  0.3486E-03  0.1677E+00 -0.5674E+00
   -0.084989    0.11728  0.0000E+00  0.6275E-03  0.9096E-03  0.4372E-03  0.1006E+00  0.1552E+00
   -0.127485    0.14045  0.0000E+00  0.5069E-03  0.5484E-03  0.4470E-03  0.8027E-01  0.4593E+00
   -0.169980    0.15876  0.0000E+00  0.4258E-03  0.3747E-03  0.4452E-03  0.6851E-01  0.1844E+00
   -0.212476    0.17452  0.0000E+00  0.3641E-03  0.2454E-03  0.4558E-03  0.5976E-01  0.7191E-01
   -0.254973    0.18923  0.0000E+00  0.3160E-03  0.1667E-03  0.4718E-03  0.5321E-01  0.1489E+01
   -0.297469    0.20230  0.0000E+00  0.2777E-03  0.1144E-03  0.4835E-03  0.4869E-01  0.5346E+01
   -0.339966    0.21456  0.0000E+00  0.2478E-03  0.7619E-04  0.4940E-03  0.4501E-01  0.1828E+02
   -0.382463    0.22696  0.0000E+00  0.2224E-03  0.4996E-04  0.5092E-03  0.4115E-01  0.2025E+02
   -0.424961    0.23836  0.0000E+00  0.2023E-03  0.3316E-04  0.5159E-03  0.3835E-01  0.1349E+05
   -0.467458    0.24940  0.0000E+00  0.1854E-03  0.2192E-04  0.5225E-03  0.3537E-01  0.1384E+01
   -0.509956    0.26046  0.0000E+00  0.1711E-03  0.1492E-04  0.5260E-03  0.3250E-01  0.1395E+01
   -0.552454    0.27155  0.0000E+00  0.1586E-03  0.1043E-04  0.5264E-03  0.2980E-01  0.1372E+01
   -0.594952    0.28274  0.0000E+00  0.1472E-03  0.7464E-05  0.5237E-03  0.2717E-01  0.6120E+01
   -0.637451    0.29441  0.0000E+00  0.1364E-03  0.5470E-05  0.5242E-03  0.2472E-01  0.1081E+03
   -0.679949    0.30678  0.0000E+00  0.1264E-03  0.4142E-05  0.5195E-03  0.2262E-01  0.1525E+04
   -0.722447    0.32032  0.0000E+00  0.1169E-03  0.3255E-05  0.5133E-03  0.2072E-01  0.3909E+05
   -0.764946    0.33554  0.0000E+00  0.1081E-03  0.2644E-05  0.5044E-03  0.1907E-01  0.7484E+09
   -0.807444    0.35299  0.0000E+00  0.9979E-04  0.2202E-05  0.4865E-03  0.1768E-01  0.3989E+07
   -0.849943    0.37306  0.0000E+00  0.9205E-04  0.1870E-05  0.4669E-03  0.1640E-01  0.1777E+07
   -0.892441    0.39728  0.0000E+00  0.8485E-04  0.1608E-05  0.4451E-03  0.1523E-01  0.8531E+06
   -0.934940    0.42749  0.0000E+00  0.7820E-04  0.1397E-05  0.4201E-03  0.1416E-01  0.5705E+08
   -0.977439    0.47059  0.0000E+00  0.7204E-04  0.1222E-05  0.3964E-03  0.1311E-01  0.1079E+10
   -1.019937    0.54353  0.0000E+00  0.6639E-04  0.1075E-05  0.3726E-03  0.1211E-01  0.5122E+06
   -1.062435    0.64906  0.0000E+00  0.6125E-04  0.9507E-06  0.3554E-03  0.1112E-01  0.8045E+06
   -1.104934    0.74308  0.0000E+00  0.5659E-04  0.8465E-06  0.3365E-03  0.1019E-01  0.4660E+07
   -1.147432    0.84323  0.0000E+00  0.5243E-04  0.7594E-06  0.3140E-03  0.9195E-02  0.3803E+06
   -1.189930    0.92484  0.0000E+00  0.4861E-04  0.6855E-06  0.2947E-03  0.8148E-02  0.6853E+07
   -1.232427    1.00143  0.0000E+00  0.4490E-04  0.6198E-06  0.2778E-03  0.7094E-02  0.7025E+09
   -1.274925    1.11171  0.0000E+00  0.4143E-04  0.5635E-06  0.2632E-03  0.6172E-02  0.4585E+11
   -1.317422    1.27038  0.0000E+00  0.3819E-04  0.5168E-06  0.2470E-03  0.5377E-02  0.4652E+14
   -1.359920    1.44978  0.0000E+00  0.3501E-04  0.4782E-06  0.2308E-03  0.4680E-02  0.2715E+15
   -1.402416    1.66714  0.0000E+00  0.3187E-04  0.4495E-06  0.2098E-03  0.4067E-02  0.4933E+15
   -1.444913    1.93215  0.0000E+00  0.2906E-04  0.4363E-06  0.2002E-03  0.3460E-02  0.5404E+15
   -1.487409    2.24279  0.0000E+00  0.2684E-04  0.4475E-06  0.1944E-03  0.2896E-02  0.6818E+15
   -1.529905    2.58621  0.0000E+00  0.2492E-04  0.5102E-06  0.1883E-03  0.2400E-02  0.1759E+15
   -1.572401    2.98122  0.0000E+00  0.2281E-04  0.7245E-06  0.1801E-03  0.1967E-02 -0.1631E+15
   -1.614896    3.42056  0.0000E+00  0.1867E-04  0.1535E-05  0.1111E-03  0.1625E-02 -0.3527E+15
   -1.657391    3.77105  0.0000E+00  0.1167E-04  0.4089E-05  0.3566E-04  0.1270E-02 -0.1503E+16
   -1.699886    4.37386  0.0000E+00  0.0000E+00  0.0000E+00  0.0000E+00  0.1494E-02  0.0000E+00
