 1 - depth, m
 2 - temperature, C
 3 - salinity, kg/kg
 4 - turbulent kinetic energy, m**2/s**2
 5 - dissipation rate, m**2/s**3
 6 - kinematic heat conductance, m**2/s
 7 - modulus of horizontal velocity, m/s
 8 - Richardson number, n/d
   -0.000000   -0.00048  0.0000E+00  0.1476E-02  0.5646E-02  0.1413E-03  0.6584E+00  0.2864E-02
   -0.042494    0.07376  0.0000E+00  0.9694E-03  0.2746E-02  0.4273E-03  0.1722E+00 -0.1929E+00
   -0.084989    0.11923  0.0000E+00  0.7187E-03  0.1262E-02  0.5112E-03  0.1049E+00  0.1438E+00
   -0.127484    0.14223  0.0000E+00  0.5831E-03  0.7594E-03  0.5215E-03  0.8391E-01  0.1937E+00
   -0.169980    0.16049  0.0000E+00  0.4930E-03  0.5287E-03  0.5284E-03  0.7203E-01  0.1206E+00
   -0.212476    0.17482  0.0000E+00  0.4248E-03  0.3783E-03  0.5322E-03  0.6325E-01  0.3306E+00
   -0.254972    0.18783  0.0000E+00  0.3706E-03  0.2744E-03  0.5517E-03  0.5637E-01  0.9743E+00
   -0.297468    0.19917  0.0000E+00  0.3280E-03  0.1980E-03  0.5682E-03  0.5174E-01  0.6476E+00
   -0.339965    0.20976  0.0000E+00  0.2939E-03  0.1412E-03  0.5818E-03  0.4808E-01  0.3763E+01
   -0.382462    0.22010  0.0000E+00  0.2660E-03  0.9891E-04  0.5989E-03  0.4455E-01  0.2874E+01
   -0.424959    0.22992  0.0000E+00  0.2437E-03  0.6750E-04  0.6102E-03  0.4170E-01  0.1694E+01
   -0.467457    0.23930  0.0000E+00  0.2248E-03  0.4439E-04  0.6174E-03  0.3873E-01  0.3185E+00
   -0.509955    0.24834  0.0000E+00  0.2083E-03  0.2788E-04  0.6238E-03  0.3585E-01  0.6536E+00
   -0.552452    0.25735  0.0000E+00  0.1936E-03  0.1682E-04  0.6281E-03  0.3314E-01  0.2851E+00
   -0.594950    0.26641  0.0000E+00  0.1806E-03  0.1025E-04  0.6284E-03  0.3047E-01  0.1108E+01
   -0.637448    0.27589  0.0000E+00  0.1685E-03  0.6729E-05  0.6329E-03  0.2798E-01  0.1262E+02
   -0.679947    0.28579  0.0000E+00  0.1571E-03  0.4918E-05  0.6328E-03  0.2585E-01  0.1448E+03
   -0.722445    0.29643  0.0000E+00  0.1466E-03  0.3919E-05  0.6317E-03  0.2389E-01  0.3034E+04
   -0.764943    0.30787  0.0000E+00  0.1366E-03  0.3276E-05  0.6287E-03  0.2219E-01  0.2671E+06
   -0.807442    0.32032  0.0000E+00  0.1274E-03  0.2808E-05  0.6182E-03  0.2074E-01  0.7683E+08
   -0.849940    0.33384  0.0000E+00  0.1188E-03  0.2442E-05  0.6046E-03  0.1940E-01  0.2763E+08
   -0.892439    0.34861  0.0000E+00  0.1108E-03  0.2139E-05  0.5864E-03  0.1818E-01  0.8156E+06
   -0.934937    0.36443  0.0000E+00  0.1034E-03  0.1885E-05  0.5686E-03  0.1703E-01  0.2241E+07
   -0.977435    0.38176  0.0000E+00  0.9660E-04  0.1670E-05  0.5491E-03  0.1593E-01  0.1885E+06
   -1.019934    0.40050  0.0000E+00  0.9032E-04  0.1487E-05  0.5254E-03  0.1490E-01  0.3641E+06
   -1.062432    0.42060  0.0000E+00  0.8451E-04  0.1330E-05  0.5038E-03  0.1387E-01  0.2846E+05
   -1.104930    0.44216  0.0000E+00  0.7919E-04  0.1197E-05  0.4793E-03  0.1289E-01  0.4924E+06
   -1.147428    0.46485  0.0000E+00  0.7434E-04  0.1086E-05  0.4524E-03  0.1188E-01  0.9186E+04
   -1.189926    0.48970  0.0000E+00  0.6985E-04  0.9932E-06  0.4265E-03  0.1081E-01  0.7321E+05
   -1.232423    0.51984  0.0000E+00  0.6549E-04  0.9128E-06  0.4037E-03  0.9700E-02  0.4951E+07
   -1.274921    0.55569  0.0000E+00  0.6129E-04  0.8446E-06  0.3778E-03  0.8703E-02  0.2457E+09
   -1.317418    0.60638  0.0000E+00  0.5717E-04  0.7877E-06  0.3481E-03  0.7786E-02  0.1855E+12
   -1.359915    0.70900  0.0000E+00  0.5308E-04  0.7432E-06  0.3168E-03  0.6937E-02  0.4478E+14
   -1.402412    0.84067  0.0000E+00  0.4888E-04  0.7144E-06  0.2798E-03  0.6185E-02  0.1496E+15
   -1.444908    0.99232  0.0000E+00  0.4493E-04  0.7098E-06  0.2510E-03  0.5433E-02  0.2548E+15
   -1.487405    1.21528  0.0000E+00  0.4135E-04  0.7444E-06  0.2325E-03  0.4628E-02  0.4624E+15
   -1.529900    1.62605  0.0000E+00  0.3821E-04  0.8586E-06  0.2229E-03  0.3797E-02  0.1894E+15
   -1.572396    2.23341  0.0000E+00  0.3478E-04  0.1163E-05  0.2180E-03  0.3113E-02 -0.1723E+15
   -1.614891    2.92270  0.0000E+00  0.2834E-04  0.2281E-05  0.1272E-03  0.2605E-02 -0.4692E+15
   -1.657386    3.35013  0.0000E+00  0.1738E-04  0.6445E-05  0.3545E-04  0.2055E-02 -0.1827E+16
   -1.699880    3.97533  0.0000E+00  0.0000E+00  0.0000E+00  0.0000E+00  0.2435E-02  0.0000E+00
