 1 - depth, m
 2 - temperature, C
 3 - salinity, kg/kg
 4 - turbulent kinetic energy, m**2/s**2
 5 - dissipation rate, m**2/s**3
 6 - kinematic heat conductance, m**2/s
 7 - modulus of horizontal velocity, m/s
 8 - Richardson number, n/d
   -0.000000    7.91247  0.0000E+00  0.7636E-02  0.3155E+00  0.2949E-03  0.1995E+01  0.2536E-03
   -0.042497    8.20483  0.0000E+00  0.4141E-02  0.2320E+00  0.7568E-03  0.4344E+00  0.2000E+00
   -0.084995    8.35990  0.0000E+00  0.2635E-02  0.8292E-01  0.1050E-02  0.2114E+00  0.1177E+00
   -0.127494    8.40909  0.0000E+00  0.2055E-02  0.3919E-01  0.1110E-02  0.1532E+00 -0.2681E+00
   -0.169992    8.43316  0.0000E+00  0.1702E-02  0.2873E-01  0.1122E-02  0.1235E+00  0.4974E+00
   -0.212491    8.45636  0.0000E+00  0.1432E-02  0.2243E-01  0.1070E-02  0.1006E+00  0.6851E+01
   -0.254990    8.47169  0.0000E+00  0.1233E-02  0.1756E-01  0.1071E-02  0.8736E-01  0.7390E+01
   -0.297490    8.48288  0.0000E+00  0.1082E-02  0.1379E-01  0.1052E-02  0.7996E-01  0.3305E+00
   -0.339990    8.49294  0.0000E+00  0.9534E-03  0.1039E-01  0.1013E-02  0.7495E-01  0.9865E+01
   -0.382490    8.50114  0.0000E+00  0.8450E-03  0.8005E-02  0.9902E-03  0.6871E-01  0.5904E+01
   -0.424990    8.50790  0.0000E+00  0.7529E-03  0.6317E-02  0.9921E-03  0.6546E-01  0.7296E+01
   -0.467491    8.51560  0.0000E+00  0.6743E-03  0.5055E-02  0.9571E-03  0.6083E-01  0.8793E+02
   -0.509991    8.52260  0.0000E+00  0.6093E-03  0.4105E-02  0.9596E-03  0.5576E-01  0.3397E+02
   -0.552492    8.53090  0.0000E+00  0.5489E-03  0.3361E-02  0.9686E-03  0.5108E-01  0.9779E+02
   -0.594993    8.53820  0.0000E+00  0.5038E-03  0.2776E-02  0.9814E-03  0.4653E-01  0.4255E+01
   -0.637494    8.54515  0.0000E+00  0.4631E-03  0.2302E-02  0.1030E-02  0.4214E-01  0.3889E+01
   -0.679996    8.54919  0.0000E+00  0.4285E-03  0.1911E-02  0.1044E-02  0.3924E-01  0.2916E+02
   -0.722497    8.55508  0.0000E+00  0.3967E-03  0.1584E-02  0.1080E-02  0.3629E-01  0.2770E+00
   -0.764998    8.55998  0.0000E+00  0.3690E-03  0.1306E-02  0.1113E-02  0.3420E-01  0.2157E+04
   -0.807500    8.56508  0.0000E+00  0.3431E-03  0.1069E-02  0.1156E-02  0.3267E-01 -0.3491E+04
   -0.850001    8.57062  0.0000E+00  0.3205E-03  0.8700E-03  0.1182E-02  0.3127E-01  0.2457E+04
   -0.892503    8.57407  0.0000E+00  0.2999E-03  0.7023E-03  0.1206E-02  0.2997E-01  0.1374E+05
   -0.935004    8.57991  0.0000E+00  0.2811E-03  0.5632E-03  0.1214E-02  0.2892E-01 -0.3071E+04
   -0.977506    8.58534  0.0000E+00  0.2640E-03  0.4489E-03  0.1238E-02  0.2764E-01  0.7668E+03
   -1.020007    8.58812  0.0000E+00  0.2486E-03  0.3566E-03  0.1242E-02  0.2665E-01 -0.3896E+03
   -1.062508    8.59488  0.0000E+00  0.2345E-03  0.2811E-03  0.1257E-02  0.2541E-01  0.2195E+03
   -1.105009    8.59804  0.0000E+00  0.2216E-03  0.2207E-03  0.1276E-02  0.2448E-01  0.2774E+03
   -1.147510    8.60319  0.0000E+00  0.2102E-03  0.1738E-03  0.1245E-02  0.2341E-01  0.1758E+03
   -1.190011    8.60791  0.0000E+00  0.2000E-03  0.1385E-03  0.1216E-02  0.2176E-01  0.3636E+03
   -1.232512    8.61351  0.0000E+00  0.1901E-03  0.1124E-03  0.1189E-02  0.2001E-01  0.4644E+03
   -1.275013    8.61803  0.0000E+00  0.1803E-03  0.9119E-04  0.1150E-02  0.1869E-01  0.4094E+05
   -1.317513    8.62357  0.0000E+00  0.1708E-03  0.7401E-04  0.1138E-02  0.1742E-01  0.4554E+05
   -1.360013    8.62959  0.0000E+00  0.1611E-03  0.6058E-04  0.1081E-02  0.1620E-01 -0.4083E+06
   -1.402513    8.63698  0.0000E+00  0.1512E-03  0.5007E-04  0.1008E-02  0.1516E-01  0.2000E+06
   -1.445012    8.64574  0.0000E+00  0.1418E-03  0.4328E-04  0.9121E-03  0.1417E-01  0.2063E+05
   -1.487512    8.65705  0.0000E+00  0.1310E-03  0.3998E-04  0.7523E-03  0.1243E-01  0.2810E+06
   -1.530011    8.67643  0.0000E+00  0.1198E-03  0.4139E-04  0.7058E-03  0.9620E-02  0.3749E+06
   -1.572509    8.70337  0.0000E+00  0.1086E-03  0.5052E-04  0.7480E-03  0.7574E-02 -0.2910E+09
   -1.615007    8.73986  0.0000E+00  0.9140E-04  0.8425E-04  0.4392E-03  0.6619E-02 -0.8706E+08
   -1.657505    8.91250  0.0000E+00  0.6534E-04  0.1568E-03  0.3369E-03  0.5261E-02 -0.6064E+11
   -1.700003    9.03000  0.0000E+00  0.0000E+00  0.0000E+00  0.0000E+00  0.7711E-02  0.0000E+00
