 1 - depth, m
 2 - temperature, C
 3 - salinity, kg/kg
 4 - turbulent kinetic energy, m**2/s**2
 5 - dissipation rate, m**2/s**3
 6 - kinematic heat conductance, m**2/s
 7 - modulus of horizontal velocity, m/s
 8 - Richardson number, n/d
   -0.000000    8.93697  0.0000E+00  0.3634E-03  0.3288E-02  0.6266E-04  0.1692E+00  0.2904E-01
   -0.042497    9.20174  0.0000E+00  0.1972E-03  0.1719E-02  0.1622E-03  0.3763E-01 -0.1741E+00
   -0.084995    9.26446  0.0000E+00  0.1437E-03  0.1122E-02  0.1655E-03  0.2367E-01  0.3972E+00
   -0.127493    9.30278  0.0000E+00  0.1106E-03  0.8197E-03  0.1751E-03  0.1873E-01  0.1032E+02
   -0.169991    9.33117  0.0000E+00  0.8845E-04  0.6025E-03  0.2160E-03  0.1516E-01  0.1027E+03
   -0.212490    9.35352  0.0000E+00  0.7124E-04  0.4428E-03  0.2711E-03  0.1237E-01  0.1713E+02
   -0.254989    9.37179  0.0000E+00  0.5766E-04  0.3193E-03  0.3224E-03  0.1027E-01  0.9426E+02
   -0.297488    9.38668  0.0000E+00  0.4696E-04  0.2168E-03  0.3813E-03  0.8728E-02  0.2996E+02
   -0.339988    9.39959  0.0000E+00  0.3841E-04  0.1300E-03  0.4344E-03  0.7528E-02  0.1387E+02
   -0.382488    9.41010  0.0000E+00  0.3173E-04  0.6630E-04  0.4844E-03  0.6468E-02  0.6067E+02
   -0.424988    9.41943  0.0000E+00  0.2706E-04  0.3093E-04  0.5336E-03  0.5628E-02  0.2762E+02
   -0.467488    9.42796  0.0000E+00  0.2380E-04  0.1254E-04  0.5815E-03  0.4841E-02  0.8085E+02
   -0.509988    9.43586  0.0000E+00  0.2161E-04  0.3930E-05  0.6355E-03  0.4131E-02  0.1767E+02
   -0.552489    9.44272  0.0000E+00  0.2032E-04  0.1020E-05  0.6985E-03  0.3508E-02  0.3238E+02
   -0.594990    9.44860  0.0000E+00  0.1964E-04  0.3058E-06  0.7573E-03  0.2954E-02  0.5249E+01
   -0.637491    9.45360  0.0000E+00  0.1925E-04  0.1679E-06  0.8250E-03  0.2480E-02  0.3545E+01
   -0.679992    9.45803  0.0000E+00  0.1901E-04  0.1325E-06  0.8959E-03  0.2088E-02  0.2139E+01
   -0.722493    9.46217  0.0000E+00  0.1885E-04  0.1147E-06  0.9784E-03  0.1759E-02  0.1763E+01
   -0.764994    9.46614  0.0000E+00  0.1872E-04  0.1027E-06  0.1070E-02  0.1489E-02  0.1566E+01
   -0.807495    9.46994  0.0000E+00  0.1861E-04  0.9388E-07  0.1145E-02  0.1275E-02  0.2091E+01
   -0.849996    9.47365  0.0000E+00  0.1849E-04  0.8743E-07  0.1196E-02  0.1101E-02  0.1430E+01
   -0.892498    9.47725  0.0000E+00  0.1836E-04  0.8276E-07  0.1227E-02  0.9588E-03  0.1376E+01
   -0.934999    9.48084  0.0000E+00  0.1821E-04  0.7959E-07  0.1242E-02  0.8416E-03  0.1363E+01
   -0.977500    9.48439  0.0000E+00  0.1804E-04  0.7764E-07  0.1245E-02  0.7429E-03  0.1334E+01
   -1.020001    9.48797  0.0000E+00  0.1786E-04  0.7673E-07  0.1235E-02  0.6599E-03  0.1360E+01
   -1.062502    9.49157  0.0000E+00  0.1765E-04  0.7679E-07  0.1214E-02  0.5884E-03  0.1391E+01
   -1.105003    9.49523  0.0000E+00  0.1742E-04  0.7780E-07  0.1177E-02  0.5263E-03  0.1478E+01
   -1.147504    9.49899  0.0000E+00  0.1718E-04  0.7984E-07  0.1138E-02  0.4706E-03  0.1630E+01
   -1.190004    9.50280  0.0000E+00  0.1694E-04  0.8316E-07  0.1083E-02  0.4192E-03  0.2082E+01
   -1.232505    9.50673  0.0000E+00  0.1667E-04  0.8836E-07  0.1031E-02  0.3718E-03  0.3121E+01
   -1.275005    9.51108  0.0000E+00  0.1636E-04  0.9662E-07  0.9605E-03  0.3301E-03  0.3597E+02
   -1.317505    9.51643  0.0000E+00  0.1597E-04  0.1097E-06  0.9087E-03  0.2921E-03  0.2916E+02
   -1.360005    9.52298  0.0000E+00  0.1544E-04  0.1322E-06  0.8157E-03  0.2574E-03 -0.1537E+04
   -1.402505    9.53322  0.0000E+00  0.1472E-04  0.1688E-06  0.7394E-03  0.2236E-03  0.2354E+04
   -1.445004    9.54326  0.0000E+00  0.1382E-04  0.2456E-06  0.6350E-03  0.1920E-03  0.2916E+05
   -1.487503    9.56405  0.0000E+00  0.1301E-04  0.3426E-06  0.5755E-03  0.1495E-03  0.8600E+05
   -1.530002    9.57491  0.0000E+00  0.1212E-04  0.5973E-06  0.4550E-03  0.1138E-03 -0.1705E+06
   -1.572500    9.67292  0.0000E+00  0.1138E-04  0.1073E-05  0.4857E-03  0.7392E-04  0.6124E+10
   -1.614998    9.58064  0.0000E+00  0.9839E-05  0.2954E-05  0.2513E-03  0.6088E-04 -0.2142E+10
   -1.657496   10.01929  0.0000E+00  0.7685E-05  0.6163E-05  0.2637E-03  0.3782E-04 -0.2498E+06
   -1.699993    9.89668  0.0000E+00  0.0000E+00  0.0000E+00  0.0000E+00  0.7538E-04  0.0000E+00
