 1 - depth, m
 2 - temperature, C
 3 - salinity, kg/kg
 4 - turbulent kinetic energy, m**2/s**2
 5 - dissipation rate, m**2/s**3
 6 - kinematic heat conductance, m**2/s
 7 - modulus of horizontal velocity, m/s
 8 - Richardson number, n/d
   -0.000000   16.62141  0.0000E+00  0.7555E-04  0.3294E-04  0.4173E-04  0.6082E-01 -0.1541E-01
   -0.042497   16.73900  0.0000E+00  0.4299E-04  0.8629E-05  0.7218E-04  0.1853E-01  0.1367E+00
   -0.084995   16.77205  0.0000E+00  0.3202E-04  0.3844E-05  0.1158E-03  0.1201E-01  0.1658E+01
   -0.127493   16.79114  0.0000E+00  0.2611E-04  0.1954E-05  0.2274E-03  0.9006E-02  0.1381E+03
   -0.169991   16.80277  0.0000E+00  0.2243E-04  0.1042E-05  0.3143E-03  0.7170E-02  0.2735E+02
   -0.212490   16.81110  0.0000E+00  0.2017E-04  0.6002E-06  0.4027E-03  0.5828E-02  0.2360E+02
   -0.254989   16.81735  0.0000E+00  0.1887E-04  0.3710E-06  0.4813E-03  0.4844E-02  0.4862E+01
   -0.297488   16.82239  0.0000E+00  0.1826E-04  0.2513E-06  0.5588E-03  0.4105E-02  0.2794E+02
   -0.339988   16.82652  0.0000E+00  0.1811E-04  0.1864E-06  0.6355E-03  0.3529E-02  0.1028E+02
   -0.382488   16.82999  0.0000E+00  0.1825E-04  0.1469E-06  0.7124E-03  0.3052E-02  0.2695E+01
   -0.424988   16.83304  0.0000E+00  0.1857E-04  0.1227E-06  0.7848E-03  0.2654E-02  0.6809E+01
   -0.467488   16.83572  0.0000E+00  0.1898E-04  0.1071E-06  0.8566E-03  0.2301E-02  0.2425E+01
   -0.509988   16.83814  0.0000E+00  0.1942E-04  0.9660E-07  0.9317E-03  0.1983E-02  0.2033E+01
   -0.552489   16.84035  0.0000E+00  0.1986E-04  0.8942E-07  0.1009E-02  0.1697E-02  0.3026E+01
   -0.594990   16.84238  0.0000E+00  0.2027E-04  0.8460E-07  0.1089E-02  0.1440E-02  0.1807E+01
   -0.637491   16.84428  0.0000E+00  0.2065E-04  0.8146E-07  0.1179E-02  0.1216E-02  0.1646E+01
   -0.679992   16.84608  0.0000E+00  0.2097E-04  0.7966E-07  0.1282E-02  0.1028E-02  0.1535E+01
   -0.722493   16.84778  0.0000E+00  0.2123E-04  0.7894E-07  0.1401E-02  0.8735E-03  0.1444E+01
   -0.764994   16.84939  0.0000E+00  0.2142E-04  0.7907E-07  0.1522E-02  0.7514E-03  0.1374E+01
   -0.807495   16.85095  0.0000E+00  0.2155E-04  0.7985E-07  0.1608E-02  0.6576E-03  0.1336E+01
   -0.849996   16.85248  0.0000E+00  0.2162E-04  0.8113E-07  0.1644E-02  0.5838E-03  0.1304E+01
   -0.892498   16.85400  0.0000E+00  0.2163E-04  0.8284E-07  0.1641E-02  0.5252E-03  0.1264E+01
   -0.934999   16.85558  0.0000E+00  0.2159E-04  0.8492E-07  0.1617E-02  0.4779E-03  0.1263E+01
   -0.977500   16.85721  0.0000E+00  0.2150E-04  0.8743E-07  0.1578E-02  0.4388E-03  0.1275E+01
   -1.020001   16.85891  0.0000E+00  0.2137E-04  0.9048E-07  0.1528E-02  0.4056E-03  0.1384E+01
   -1.062502   16.86069  0.0000E+00  0.2119E-04  0.9432E-07  0.1474E-02  0.3764E-03  0.1953E+01
   -1.105003   16.86258  0.0000E+00  0.2096E-04  0.9923E-07  0.1412E-02  0.3497E-03  0.2095E+01
   -1.147504   16.86458  0.0000E+00  0.2069E-04  0.1057E-06  0.1356E-02  0.3245E-03  0.3583E+01
   -1.190005   16.86675  0.0000E+00  0.2038E-04  0.1143E-06  0.1284E-02  0.2991E-03  0.8892E+01
   -1.232505   16.86903  0.0000E+00  0.1999E-04  0.1269E-06  0.1219E-02  0.2735E-03  0.1831E+03
   -1.275005   16.87188  0.0000E+00  0.1952E-04  0.1457E-06  0.1135E-02  0.2478E-03 -0.1408E+03
   -1.317505   16.87512  0.0000E+00  0.1893E-04  0.1749E-06  0.1079E-02  0.2226E-03  0.1136E+04
   -1.360005   16.88023  0.0000E+00  0.1818E-04  0.2209E-06  0.9778E-03  0.1963E-03 -0.1497E+05
   -1.402505   16.88513  0.0000E+00  0.1723E-04  0.3018E-06  0.8718E-03  0.1726E-03  0.9649E+05
   -1.445004   16.89536  0.0000E+00  0.1614E-04  0.4253E-06  0.7705E-03  0.1466E-03  0.2337E+06
   -1.487503   16.90225  0.0000E+00  0.1522E-04  0.6076E-06  0.6562E-03  0.1187E-03  0.1302E+07
   -1.530002   16.91770  0.0000E+00  0.1418E-04  0.1247E-05  0.5718E-03  0.8781E-04 -0.8033E+05
   -1.572500   16.96899  0.0000E+00  0.1343E-04  0.2011E-05  0.6005E-03  0.5857E-04  0.3302E+13
   -1.614998   16.91603  0.0000E+00  0.1168E-04  0.6275E-05  0.3263E-03  0.4874E-04 -0.5445E+11
   -1.657496   17.17281  0.0000E+00  0.9222E-05  0.1128E-04  0.3680E-03  0.3077E-04 -0.1366E+05
   -1.699993   17.10731  0.0000E+00  0.0000E+00  0.0000E+00  0.0000E+00  0.6599E-04  0.0000E+00
