 1 - depth, m
 2 - temperature, C
 3 - salinity, kg/kg
 4 - turbulent kinetic energy, m**2/s**2
 5 - dissipation rate, m**2/s**3
 6 - kinematic heat conductance, m**2/s
 7 - modulus of horizontal velocity, m/s
 8 - Richardson number, n/d
   -0.000000   14.25683  0.0000E+00  0.4956E-03  0.9721E-01  0.2562E-03  0.2661E+00  0.1618E-01
   -0.042497   14.57853  0.0000E+00  0.2619E-03  0.9192E-01  0.1580E-03  0.6075E-01 -0.2134E+00
   -0.084994   14.69104  0.0000E+00  0.1792E-03  0.8882E-01  0.2171E-03  0.3512E-01  0.1939E+02
   -0.127492   14.75326  0.0000E+00  0.1376E-03  0.8706E-01  0.2323E-03  0.2701E-01  0.5260E+01
   -0.169990   14.78882  0.0000E+00  0.1116E-03  0.8370E-01  0.2571E-03  0.2182E-01  0.3194E+03
   -0.212489   14.81410  0.0000E+00  0.9178E-04  0.7781E-01  0.3154E-03  0.1794E-01  0.1067E+03
   -0.254988   14.83124  0.0000E+00  0.7640E-04  0.6896E-01  0.3668E-03  0.1508E-01  0.4250E+02
   -0.297487   14.84558  0.0000E+00  0.6398E-04  0.5515E-01  0.4212E-03  0.1301E-01  0.6658E+02
   -0.339986   14.85721  0.0000E+00  0.5357E-04  0.3784E-01  0.4802E-03  0.1139E-01  0.2612E+02
   -0.382486   14.86775  0.0000E+00  0.4591E-04  0.2444E-01  0.5440E-03  0.9900E-02  0.1060E+03
   -0.424986   14.87515  0.0000E+00  0.4013E-04  0.1392E-01  0.5978E-03  0.8735E-02  0.8039E+02
   -0.467486   14.88358  0.0000E+00  0.3601E-04  0.6965E-02  0.6640E-03  0.7582E-02  0.1148E+03
   -0.509986   14.88890  0.0000E+00  0.3311E-04  0.2629E-02  0.7152E-03  0.6589E-02  0.6603E+02
   -0.552487   14.89505  0.0000E+00  0.3168E-04  0.1464E-02  0.7757E-03  0.5669E-02  0.5502E+02
   -0.594988   14.89898  0.0000E+00  0.3073E-04  0.8722E-03  0.8444E-03  0.4862E-02  0.2216E+03
   -0.637488   14.90390  0.0000E+00  0.3003E-04  0.5001E-03  0.9372E-03  0.4143E-02  0.1563E+02
   -0.679989   14.90717  0.0000E+00  0.2950E-04  0.3129E-03  0.9920E-03  0.3548E-02  0.2082E+02
   -0.722490   14.91123  0.0000E+00  0.2904E-04  0.1797E-03  0.1032E-02  0.3021E-02  0.2046E+03
   -0.764991   14.91431  0.0000E+00  0.2859E-04  0.1038E-03  0.1094E-02  0.2558E-02 -0.1302E+05
   -0.807492   14.91801  0.0000E+00  0.2814E-04  0.6279E-04  0.1166E-02  0.2176E-02  0.2954E+03
   -0.849993   14.92089  0.0000E+00  0.2764E-04  0.3713E-04  0.1235E-02  0.1866E-02 -0.8748E+03
   -0.892494   14.92435  0.0000E+00  0.2723E-04  0.2372E-04  0.1432E-02  0.1589E-02  0.1607E+05
   -0.934995   14.92659  0.0000E+00  0.2688E-04  0.1477E-04  0.1468E-02  0.1437E-02 -0.1688E+03
   -0.977496   14.92958  0.0000E+00  0.2649E-04  0.9936E-05  0.1483E-02  0.1311E-02  0.4002E+04
   -1.019997   14.93187  0.0000E+00  0.2613E-04  0.6567E-05  0.1505E-02  0.1184E-02 -0.2396E+06
   -1.062498   14.93473  0.0000E+00  0.2575E-04  0.4482E-05  0.1328E-02  0.1104E-02  0.1491E+03
   -1.104999   14.93736  0.0000E+00  0.2514E-04  0.3038E-05  0.1256E-02  0.9814E-03 -0.5980E+02
   -1.147500   14.94063  0.0000E+00  0.2450E-04  0.2072E-05  0.1222E-02  0.8583E-03  0.4056E+05
   -1.190000   14.94357  0.0000E+00  0.2387E-04  0.1443E-05  0.1168E-02  0.7484E-03  0.4981E+02
   -1.232500   14.94706  0.0000E+00  0.2325E-04  0.1026E-05  0.1114E-02  0.6478E-03  0.7669E+03
   -1.275000   14.95056  0.0000E+00  0.2258E-04  0.7519E-06  0.1059E-02  0.5630E-03 -0.3369E+04
   -1.317500   14.95508  0.0000E+00  0.2182E-04  0.5952E-06  0.1008E-02  0.4902E-03 -0.1884E+05
   -1.360000   14.96066  0.0000E+00  0.2090E-04  0.5094E-06  0.9484E-03  0.4260E-03  0.7409E+08
   -1.402499   14.96837  0.0000E+00  0.1972E-04  0.5074E-06  0.8495E-03  0.3690E-03  0.3576E+05
   -1.444999   14.97884  0.0000E+00  0.1841E-04  0.5877E-06  0.7470E-03  0.3120E-03  0.5592E+05
   -1.487497   14.99062  0.0000E+00  0.1727E-04  0.7849E-06  0.6436E-03  0.2516E-03  0.3421E+05
   -1.529996   15.00772  0.0000E+00  0.1600E-04  0.1429E-05  0.5584E-03  0.1862E-03 -0.2656E+07
   -1.572494   15.06841  0.0000E+00  0.1502E-04  0.2313E-05  0.5890E-03  0.1250E-03  0.1081E+12
   -1.614992   15.01329  0.0000E+00  0.1288E-04  0.7581E-05  0.3343E-03  0.1025E-03 -0.3993E+10
   -1.657489   15.31995  0.0000E+00  0.1025E-04  0.1351E-04  0.3542E-03  0.6477E-04 -0.8367E+07
   -1.699986   15.23445  0.0000E+00  0.0000E+00  0.0000E+00  0.0000E+00  0.1400E-03  0.0000E+00
