 1 - depth, m
 2 - temperature, C
 3 - salinity, kg/kg
 4 - turbulent kinetic energy, m**2/s**2
 5 - dissipation rate, m**2/s**3
 6 - kinematic heat conductance, m**2/s
 7 - modulus of horizontal velocity, m/s
 8 - Richardson number, n/d
   -0.000000    0.00000  0.0000E+00  0.4096E-13  0.8590E-16  0.1000E-09  0.0000E+00  0.9989E+16
   -0.037497    0.15299  0.0000E+00  0.4096E-13  0.8590E-16  0.1000E-09  0.0000E+00  0.9542E+16
   -0.074995    0.30546  0.0000E+00  0.4096E-13  0.8590E-16  0.1000E-09  0.0000E+00  0.9094E+16
   -0.112493    0.45729  0.0000E+00  0.4096E-13  0.8590E-16  0.1000E-09  0.0000E+00  0.8646E+16
   -0.149991    0.60837  0.0000E+00  0.4096E-13  0.8590E-16  0.1000E-09  0.0000E+00  0.8200E+16
   -0.187490    0.75857  0.0000E+00  0.4096E-13  0.8590E-16  0.1000E-09  0.0000E+00  0.7757E+16
   -0.224989    0.90777  0.0000E+00  0.4096E-13  0.8590E-16  0.1000E-09  0.0000E+00  0.7318E+16
   -0.262488    1.05587  0.0000E+00  0.4096E-13  0.8590E-16  0.1000E-09  0.0000E+00  0.6881E+16
   -0.299987    1.20267  0.0000E+00  0.4096E-13  0.8590E-16  0.1000E-09  0.0000E+00  0.6450E+16
   -0.337487    1.34804  0.0000E+00  0.4096E-13  0.8590E-16  0.1000E-09  0.0000E+00  0.6026E+16
   -0.374987    1.49185  0.0000E+00  0.4096E-13  0.8590E-16  0.1000E-09  0.0000E+00  0.5621E+16
   -0.412487    1.63426  0.0000E+00  0.4096E-13  0.8590E-16  0.1000E-09  0.0000E+00  0.5230E+16
   -0.449987    1.77534  0.0000E+00  0.4096E-13  0.8590E-16  0.1000E-09  0.0000E+00  0.4848E+16
   -0.487487    1.91497  0.0000E+00  0.4096E-13  0.8590E-16  0.1000E-09  0.0000E+00  0.4473E+16
   -0.524988    2.05307  0.0000E+00  0.8595E-13  0.8590E-16  0.1000E-09  0.0000E+00  0.4105E+16
   -0.562488    2.18943  0.0000E+00  0.2930E-12  0.9411E-16  0.1000E-09  0.0000E+00  0.3748E+16
   -0.599989    2.32397  0.0000E+00  0.6813E-12  0.1529E-15  0.1000E-09  0.0000E+00  0.3401E+16
   -0.637489    2.45657  0.0000E+00  0.1365E-11  0.2732E-15  0.1000E-09  0.0000E+00  0.3066E+16
   -0.674990    2.58712  0.0000E+00  0.2579E-11  0.4922E-15  0.1000E-09  0.0000E+00  0.2743E+16
   -0.712491    2.71552  0.0000E+00  0.4746E-11  0.8811E-15  0.1000E-09  0.0000E+00  0.2432E+16
   -0.749992    2.84164  0.0000E+00  0.8623E-11  0.1566E-14  0.1000E-09  0.0000E+00  0.2145E+16
   -0.787493    2.96597  0.0000E+00  0.1554E-10  0.2767E-14  0.1000E-09  0.0000E+00  0.1871E+16
   -0.824994    3.08861  0.0000E+00  0.2784E-10  0.4862E-14  0.1000E-09  0.0000E+00  0.1607E+16
   -0.862494    3.20950  0.0000E+00  0.4962E-10  0.8501E-14  0.1000E-09  0.0000E+00  0.1353E+16
   -0.899995    3.32854  0.0000E+00  0.8798E-10  0.1479E-13  0.1000E-09  0.0000E+00  0.1110E+16
   -0.937496    3.44566  0.0000E+00  0.1553E-09  0.2563E-13  0.1000E-09  0.0000E+00  0.8777E+15
   -0.974996    3.56075  0.0000E+00  0.2728E-09  0.4420E-13  0.1870E-09  0.0000E+00  0.6565E+15
   -1.012497    3.67363  0.0000E+00  0.4778E-09  0.7603E-13  0.4734E-09  0.0000E+00  0.4462E+15
   -1.049997    3.78374  0.0000E+00  0.8355E-09  0.1306E-12  0.1454E-08  0.0000E+00  0.2498E+15
   -1.087497    3.89028  0.0000E+00  0.1451E-08  0.2230E-12  0.8640E-08  0.0000E+00  0.7228E+14
   -1.124997    3.98875  0.0000E+00  0.2034E-08  0.3129E-12  0.3476E-05  0.0000E+00 -0.2776E+12
   -1.162497    3.99319  0.0000E+00  0.2403E-08  0.3857E-12  0.4932E-05  0.0000E+00 -0.3742E+12
   -1.199997    3.99610  0.0000E+00  0.2713E-08  0.4632E-12  0.5605E-05  0.0000E+00 -0.4404E+12
   -1.237496    3.99866  0.0000E+00  0.2970E-08  0.5495E-12  0.5804E-05  0.0000E+00 -0.5240E+12
   -1.274995    4.00113  0.0000E+00  0.3173E-08  0.6520E-12  0.5598E-05  0.0000E+00 -0.6477E+12
   -1.312494    4.00370  0.0000E+00  0.3310E-08  0.7833E-12  0.5001E-05  0.0000E+00 -0.8530E+12
   -1.349993    4.00659  0.0000E+00  0.3356E-08  0.9680E-12  0.4032E-05  0.0000E+00 -0.1248E+13
   -1.387491    4.01020  0.0000E+00  0.3254E-08  0.1269E-11  0.2737E-05  0.0000E+00 -0.2211E+13
   -1.424989    4.01552  0.0000E+00  0.2883E-08  0.1890E-11  0.1304E-05  0.0000E+00 -0.5881E+13
   -1.462487    4.02636  0.0000E+00  0.2057E-08  0.3799E-11  0.2604E-06  0.0000E+00 -0.3825E+14
   -1.499984    4.06688  0.0000E+00  0.0000E+00  0.0000E+00  0.0000E+00  0.0000E+00  0.0000E+00
