 1 - depth, m
 2 - temperature, C
 3 - salinity, kg/kg
 4 - turbulent kinetic energy, m**2/s**2
 5 - dissipation rate, m**2/s**3
 6 - kinematic heat conductance, m**2/s
 7 - modulus of horizontal velocity, m/s
 8 - Richardson number, n/d
   -0.000000    0.00000  0.0000E+00  0.4096E-13  0.8590E-16  0.1000E-09  0.0000E+00  0.1015E+17
   -0.037500    0.15547  0.0000E+00  0.4096E-13  0.8590E-16  0.1000E-09  0.0000E+00  0.9583E+16
   -0.075001    0.30872  0.0000E+00  0.4096E-13  0.8590E-16  0.1000E-09  0.0000E+00  0.9035E+16
   -0.112502    0.45969  0.0000E+00  0.4096E-13  0.8590E-16  0.1000E-09  0.0000E+00  0.8503E+16
   -0.150004    0.60832  0.0000E+00  0.4096E-13  0.8590E-16  0.1000E-09  0.0000E+00  0.7987E+16
   -0.187505    0.75452  0.0000E+00  0.4096E-13  0.8590E-16  0.1000E-09  0.0000E+00  0.7485E+16
   -0.225007    0.89816  0.0000E+00  0.4096E-13  0.8590E-16  0.1000E-09  0.0000E+00  0.6997E+16
   -0.262510    1.03912  0.0000E+00  0.4096E-13  0.8590E-16  0.1000E-09  0.0000E+00  0.6512E+16
   -0.300012    1.17696  0.0000E+00  0.4096E-13  0.8590E-16  0.1000E-09  0.0000E+00  0.6040E+16
   -0.337515    1.31147  0.0000E+00  0.4096E-13  0.8590E-16  0.1000E-09  0.0000E+00  0.5586E+16
   -0.375018    1.44249  0.0000E+00  0.4096E-13  0.8590E-16  0.1000E-09  0.0000E+00  0.5193E+16
   -0.412521    1.57095  0.0000E+00  0.4096E-13  0.8590E-16  0.1000E-09  0.0000E+00  0.4839E+16
   -0.450024    1.69741  0.0000E+00  0.4096E-13  0.8590E-16  0.1000E-09  0.0000E+00  0.4497E+16
   -0.487527    1.82180  0.0000E+00  0.4096E-13  0.8590E-16  0.1000E-09  0.0000E+00  0.4165E+16
   -0.525031    1.94400  0.0000E+00  0.4096E-13  0.8590E-16  0.1000E-09  0.0000E+00  0.3839E+16
   -0.562535    2.06376  0.0000E+00  0.4096E-13  0.8590E-16  0.1000E-09  0.0000E+00  0.3527E+16
   -0.600038    2.18099  0.0000E+00  0.4096E-13  0.8590E-16  0.1000E-09  0.0000E+00  0.3228E+16
   -0.637542    2.29563  0.0000E+00  0.4096E-13  0.8590E-16  0.1000E-09  0.0000E+00  0.2944E+16
   -0.675046    2.40764  0.0000E+00  0.4096E-13  0.8590E-16  0.1000E-09  0.0000E+00  0.2674E+16
   -0.712550    2.51696  0.0000E+00  0.4096E-13  0.8590E-16  0.1000E-09  0.0000E+00  0.2418E+16
   -0.750054    2.62355  0.0000E+00  0.4987E-13  0.8590E-16  0.1000E-09  0.0000E+00  0.2210E+16
   -0.787558    2.72902  0.0000E+00  0.2100E-12  0.9992E-16  0.1000E-09  0.0000E+00  0.2020E+16
   -0.825062    2.83400  0.0000E+00  0.5665E-12  0.2010E-15  0.1000E-09  0.0000E+00  0.1835E+16
   -0.862566    2.93862  0.0000E+00  0.1320E-11  0.4329E-15  0.1000E-09  0.0000E+00  0.1654E+16
   -0.900070    3.04300  0.0000E+00  0.2928E-11  0.9270E-15  0.1000E-09  0.0000E+00  0.1477E+16
   -0.937573    3.14728  0.0000E+00  0.6371E-11  0.1964E-14  0.1000E-09  0.0000E+00  0.1302E+16
   -0.975077    3.25162  0.0000E+00  0.1371E-10  0.4125E-14  0.1000E-09  0.0000E+00  0.1130E+16
   -1.012581    3.35618  0.0000E+00  0.2930E-10  0.8614E-14  0.1000E-09  0.0000E+00  0.9572E+15
   -1.050084    3.46099  0.0000E+00  0.6238E-10  0.1791E-13  0.1000E-09  0.0000E+00  0.7847E+15
   -1.087587    3.56617  0.0000E+00  0.1320E-09  0.3704E-13  0.1678E-09  0.0000E+00  0.6114E+15
   -1.125090    3.67182  0.0000E+00  0.2773E-09  0.7612E-13  0.4786E-09  0.0000E+00  0.4405E+15
   -1.162593    3.77920  0.0000E+00  0.5787E-09  0.1554E-12  0.1648E-08  0.0000E+00  0.2611E+15
   -1.200096    3.88809  0.0000E+00  0.1194E-08  0.3141E-12  0.1152E-07  0.0000E+00  0.7542E+14
   -1.237599    3.99243  0.0000E+00  0.2035E-08  0.5348E-12  0.2368E-05  0.0000E+00 -0.9498E+12
   -1.275101    3.99913  0.0000E+00  0.2590E-08  0.7375E-12  0.3166E-05  0.0000E+00 -0.1217E+13
   -1.312603    4.00422  0.0000E+00  0.3038E-08  0.9808E-12  0.3346E-05  0.0000E+00 -0.1583E+13
   -1.350104    4.00919  0.0000E+00  0.3364E-08  0.1304E-11  0.3046E-05  0.0000E+00 -0.2269E+13
   -1.387606    4.01484  0.0000E+00  0.3517E-08  0.1804E-11  0.2315E-05  0.0000E+00 -0.3888E+13
   -1.425107    4.02251  0.0000E+00  0.3368E-08  0.2782E-11  0.1271E-05  0.0000E+00 -0.9631E+13
   -1.462608    4.03671  0.0000E+00  0.2682E-08  0.5664E-11  0.3246E-06  0.0000E+00 -0.5437E+14
   -1.500108    4.08372  0.0000E+00  0.0000E+00  0.0000E+00  0.0000E+00  0.0000E+00  0.0000E+00
