 1 - depth, m
 2 - temperature, C
 3 - salinity, kg/kg
 4 - turbulent kinetic energy, m**2/s**2
 5 - dissipation rate, m**2/s**3
 6 - kinematic heat conductance, m**2/s
 7 - modulus of horizontal velocity, m/s
 8 - Richardson number, n/d
   -0.000000   18.45477  0.0000E+00  0.2424E-04  0.2452E-05  0.2380E-04  0.3187E-01 -0.1921E-01
   -0.037494   18.49317  0.0000E+00  0.1952E-04  0.8335E-06  0.5020E-04  0.1878E-01 -0.5459E-01
   -0.074989   18.50745  0.0000E+00  0.1725E-04  0.4423E-06  0.7774E-04  0.1440E-01 -0.9383E-01
   -0.112483   18.51650  0.0000E+00  0.1580E-04  0.2808E-06  0.1093E-03  0.1175E-01 -0.1381E+00
   -0.149978   18.52282  0.0000E+00  0.1482E-04  0.1983E-06  0.1664E-03  0.9971E-02  0.1146E+02
   -0.187474   18.52699  0.0000E+00  0.1421E-04  0.1538E-06  0.3941E-03  0.8712E-02  0.8484E+03
   -0.224969   18.52874  0.0000E+00  0.1390E-04  0.1269E-06  0.4204E-03  0.7877E-02  0.1086E+02
   -0.262465   18.53029  0.0000E+00  0.1367E-04  0.1066E-06  0.4522E-03  0.7067E-02  0.1007E+02
   -0.299962   18.53170  0.0000E+00  0.1352E-04  0.9124E-07  0.4772E-03  0.6353E-02  0.7940E+01
   -0.337458   18.53301  0.0000E+00  0.1341E-04  0.7927E-07  0.5058E-03  0.5710E-02  0.6940E+01
   -0.374955   18.53423  0.0000E+00  0.1332E-04  0.6969E-07  0.5354E-03  0.5126E-02  0.6279E+01
   -0.412451   18.53537  0.0000E+00  0.1324E-04  0.6186E-07  0.5679E-03  0.4591E-02  0.5800E+01
   -0.449948   18.53642  0.0000E+00  0.1316E-04  0.5531E-07  0.6040E-03  0.4096E-02  0.5435E+01
   -0.487445   18.53741  0.0000E+00  0.1307E-04  0.4974E-07  0.6455E-03  0.3635E-02  0.5114E+01
   -0.524943   18.53832  0.0000E+00  0.1294E-04  0.4488E-07  0.6931E-03  0.3206E-02  0.4600E+01
   -0.562440   18.53916  0.0000E+00  0.1278E-04  0.4062E-07  0.7422E-03  0.2806E-02  0.4331E+01
   -0.599937   18.53994  0.0000E+00  0.1257E-04  0.3667E-07  0.8770E-03  0.2445E-02  0.3801E+01
   -0.637435   18.54059  0.0000E+00  0.1241E-04  0.3465E-07  0.1246E-02  0.2073E-02  0.2067E+01
   -0.674933   18.54105  0.0000E+00  0.1232E-04  0.3359E-07  0.1382E-02  0.1953E-02  0.2049E+01
   -0.712430   18.54146  0.0000E+00  0.1218E-04  0.3243E-07  0.8502E-03  0.1856E-02  0.2170E+01
   -0.749928   18.54213  0.0000E+00  0.1190E-04  0.3062E-07  0.8480E-03  0.1591E-02  0.2350E+01
   -0.787425   18.54280  0.0000E+00  0.1160E-04  0.2927E-07  0.8427E-03  0.1380E-02  0.2133E+01
   -0.824923   18.54347  0.0000E+00  0.1127E-04  0.2826E-07  0.8331E-03  0.1190E-02  0.1987E+01
   -0.862421   18.54415  0.0000E+00  0.1092E-04  0.2759E-07  0.8229E-03  0.1024E-02  0.1847E+01
   -0.899918   18.54484  0.0000E+00  0.1056E-04  0.2722E-07  0.8157E-03  0.8796E-03  0.1719E+01
   -0.937416   18.54553  0.0000E+00  0.1019E-04  0.2715E-07  0.8181E-03  0.7531E-03  0.1609E+01
   -0.974913   18.54623  0.0000E+00  0.9821E-05  0.2735E-07  0.7826E-03  0.6432E-03  0.1444E+01
   -1.012410   18.54695  0.0000E+00  0.9610E-05  0.2760E-07  0.1113E-02  0.5434E-03  0.1154E+01
   -1.049907   18.54747  0.0000E+00  0.9452E-05  0.2793E-07  0.8765E-03  0.5109E-03  0.2417E+01
   -1.087404   18.54813  0.0000E+00  0.9234E-05  0.2854E-07  0.9095E-03  0.4803E-03  0.1184E+01
   -1.124901   18.54876  0.0000E+00  0.8906E-05  0.2972E-07  0.7596E-03  0.4229E-03  0.1061E+01
   -1.162398   18.54953  0.0000E+00  0.8610E-05  0.3107E-07  0.6910E-03  0.3778E-03  0.9971E+00
   -1.199894   18.55038  0.0000E+00  0.8317E-05  0.3280E-07  0.6232E-03  0.3403E-03  0.1058E+01
   -1.237390   18.55133  0.0000E+00  0.8006E-05  0.3516E-07  0.5795E-03  0.3077E-03  0.1612E+01
   -1.274886   18.55238  0.0000E+00  0.7634E-05  0.3898E-07  0.4950E-03  0.2775E-03  0.4409E+01
   -1.312382   18.55375  0.0000E+00  0.7162E-05  0.4523E-07  0.4392E-03  0.2455E-03  0.1215E+04
   -1.349877   18.55533  0.0000E+00  0.6519E-05  0.5778E-07  0.3195E-03  0.2163E-03  0.9911E+02
   -1.387372   18.55882  0.0000E+00  0.5661E-05  0.8120E-07  0.2699E-03  0.1772E-03  0.1955E+05
   -1.424867   18.56086  0.0000E+00  0.4486E-05  0.1461E-06  0.1246E-03  0.1509E-03  0.3277E+05
   -1.462361   18.57644  0.0000E+00  0.2819E-05  0.3482E-06  0.6125E-04  0.1091E-03 -0.4111E+05
   -1.499856   18.58805  0.0000E+00  0.0000E+00  0.0000E+00  0.0000E+00  0.1364E-03  0.0000E+00
