 1 - depth, m
 2 - temperature, C
 3 - salinity, kg/kg
 4 - turbulent kinetic energy, m**2/s**2
 5 - dissipation rate, m**2/s**3
 6 - kinematic heat conductance, m**2/s
 7 - modulus of horizontal velocity, m/s
 8 - Richardson number, n/d
   -0.000000    0.00000  0.0000E+00  0.4096E-13  0.8590E-16  0.1000E-09  0.0000E+00  0.9889E+16
   -0.037499    0.15142  0.0000E+00  0.4096E-13  0.8590E-16  0.1000E-09  0.0000E+00  0.9373E+16
   -0.074998    0.30106  0.0000E+00  0.4096E-13  0.8590E-16  0.1000E-09  0.0000E+00  0.8872E+16
   -0.112497    0.44891  0.0000E+00  0.4096E-13  0.8590E-16  0.1000E-09  0.0000E+00  0.8387E+16
   -0.149996    0.59497  0.0000E+00  0.4096E-13  0.8590E-16  0.1000E-09  0.0000E+00  0.7916E+16
   -0.187496    0.73921  0.0000E+00  0.4096E-13  0.8590E-16  0.1000E-09  0.0000E+00  0.7460E+16
   -0.224997    0.88163  0.0000E+00  0.4096E-13  0.8590E-16  0.1000E-09  0.0000E+00  0.7019E+16
   -0.262497    1.02220  0.0000E+00  0.4096E-13  0.8590E-16  0.1000E-09  0.0000E+00  0.6585E+16
   -0.299998    1.16077  0.0000E+00  0.4096E-13  0.8590E-16  0.1000E-09  0.0000E+00  0.6165E+16
   -0.337499    1.29728  0.0000E+00  0.4096E-13  0.8590E-16  0.1000E-09  0.0000E+00  0.5759E+16
   -0.375000    1.43168  0.0000E+00  0.4096E-13  0.8590E-16  0.1000E-09  0.0000E+00  0.5391E+16
   -0.412501    1.56455  0.0000E+00  0.4096E-13  0.8590E-16  0.1000E-09  0.0000E+00  0.5047E+16
   -0.450003    1.69623  0.0000E+00  0.4096E-13  0.8590E-16  0.1000E-09  0.0000E+00  0.4713E+16
   -0.487504    1.82669  0.0000E+00  0.4096E-13  0.8590E-16  0.1000E-09  0.0000E+00  0.4386E+16
   -0.525006    1.95591  0.0000E+00  0.4096E-13  0.8590E-16  0.1000E-09  0.0000E+00  0.4065E+16
   -0.562508    2.08377  0.0000E+00  0.4096E-13  0.8590E-16  0.1000E-09  0.0000E+00  0.3752E+16
   -0.600010    2.21022  0.0000E+00  0.4096E-13  0.8590E-16  0.1000E-09  0.0000E+00  0.3449E+16
   -0.637512    2.33523  0.0000E+00  0.1382E-12  0.8590E-16  0.1000E-09  0.0000E+00  0.3154E+16
   -0.675014    2.45873  0.0000E+00  0.4012E-12  0.1220E-15  0.1000E-09  0.0000E+00  0.2868E+16
   -0.712516    2.58067  0.0000E+00  0.9026E-12  0.2253E-15  0.1000E-09  0.0000E+00  0.2591E+16
   -0.750018    2.70099  0.0000E+00  0.1845E-11  0.4310E-15  0.1000E-09  0.0000E+00  0.2341E+16
   -0.787521    2.82057  0.0000E+00  0.3632E-11  0.8208E-15  0.1000E-09  0.0000E+00  0.2101E+16
   -0.825023    2.93972  0.0000E+00  0.7030E-11  0.1551E-14  0.1000E-09  0.0000E+00  0.1865E+16
   -0.862525    3.05841  0.0000E+00  0.1348E-10  0.2909E-14  0.1000E-09  0.0000E+00  0.1631E+16
   -0.900027    3.17662  0.0000E+00  0.2565E-10  0.5425E-14  0.1000E-09  0.0000E+00  0.1401E+16
   -0.937529    3.29432  0.0000E+00  0.4854E-10  0.1006E-13  0.1000E-09  0.0000E+00  0.1174E+16
   -0.975031    3.41145  0.0000E+00  0.9132E-10  0.1854E-13  0.1000E-09  0.0000E+00  0.9508E+15
   -1.012533    3.52798  0.0000E+00  0.1712E-09  0.3408E-13  0.1292E-09  0.0000E+00  0.7314E+15
   -1.050034    3.64386  0.0000E+00  0.3203E-09  0.6251E-13  0.3359E-09  0.0000E+00  0.5157E+15
   -1.087536    3.75886  0.0000E+00  0.5967E-09  0.1142E-12  0.1038E-08  0.0000E+00  0.3046E+15
   -1.125037    3.87252  0.0000E+00  0.1104E-08  0.2075E-12  0.5635E-08  0.0000E+00  0.1014E+15
   -1.162538    3.98242  0.0000E+00  0.1761E-08  0.3296E-12  0.1459E-05  0.0000E+00 -0.1835E+12
   -1.200039    3.99254  0.0000E+00  0.2291E-08  0.4588E-12  0.3609E-05  0.0000E+00 -0.5699E+12
   -1.237540    3.99687  0.0000E+00  0.2715E-08  0.5917E-12  0.4333E-05  0.0000E+00 -0.7123E+12
   -1.275040    4.00053  0.0000E+00  0.3071E-08  0.7458E-12  0.4524E-05  0.0000E+00 -0.8971E+12
   -1.312540    4.00411  0.0000E+00  0.3352E-08  0.9387E-12  0.4272E-05  0.0000E+00 -0.1192E+13
   -1.350040    4.00797  0.0000E+00  0.3530E-08  0.1204E-11  0.3612E-05  0.0000E+00 -0.1748E+13
   -1.387540    4.01262  0.0000E+00  0.3548E-08  0.1625E-11  0.2582E-05  0.0000E+00 -0.3076E+13
   -1.425039    4.01925  0.0000E+00  0.3276E-08  0.2474E-11  0.1325E-05  0.0000E+00 -0.7942E+13
   -1.462538    4.03213  0.0000E+00  0.2492E-08  0.5030E-11  0.3054E-06  0.0000E+00 -0.4827E+14
   -1.500037    4.07723  0.0000E+00  0.0000E+00  0.0000E+00  0.0000E+00  0.0000E+00  0.0000E+00
