 1 - depth, m
 2 - temperature, C
 3 - salinity, kg/kg
 4 - turbulent kinetic energy, m**2/s**2
 5 - dissipation rate, m**2/s**3
 6 - kinematic heat conductance, m**2/s
 7 - modulus of horizontal velocity, m/s
 8 - Richardson number, n/d
   -0.000000    0.00000  0.0000E+00  0.4096E-13  0.8590E-16  0.1000E-09  0.0000E+00  0.8119E+16
   -0.037495    0.12385  0.0000E+00  0.4096E-13  0.8590E-16  0.1000E-09  0.0000E+00  0.7869E+16
   -0.074990    0.24807  0.0000E+00  0.4096E-13  0.8590E-16  0.1000E-09  0.0000E+00  0.7611E+16
   -0.112485    0.37254  0.0000E+00  0.4096E-13  0.8590E-16  0.1000E-09  0.0000E+00  0.7346E+16
   -0.149981    0.49715  0.0000E+00  0.4096E-13  0.8590E-16  0.1000E-09  0.0000E+00  0.7075E+16
   -0.187476    0.62179  0.0000E+00  0.4096E-13  0.8590E-16  0.1000E-09  0.0000E+00  0.6799E+16
   -0.224973    0.74634  0.0000E+00  0.4096E-13  0.8590E-16  0.1000E-09  0.0000E+00  0.6519E+16
   -0.262469    0.87071  0.0000E+00  0.4096E-13  0.8590E-16  0.1000E-09  0.0000E+00  0.6234E+16
   -0.299966    0.99473  0.0000E+00  0.4096E-13  0.8590E-16  0.1000E-09  0.0000E+00  0.5947E+16
   -0.337463    1.11829  0.0000E+00  0.4096E-13  0.8590E-16  0.1000E-09  0.0000E+00  0.5659E+16
   -0.374960    1.24130  0.0000E+00  0.4096E-13  0.8590E-16  0.1000E-09  0.0000E+00  0.5377E+16
   -0.412457    1.36376  0.0000E+00  0.4096E-13  0.8590E-16  0.1000E-09  0.0000E+00  0.5098E+16
   -0.449955    1.48566  0.0000E+00  0.4096E-13  0.8590E-16  0.1000E-09  0.0000E+00  0.4820E+16
   -0.487452    1.60691  0.0000E+00  0.4096E-13  0.8590E-16  0.1000E-09  0.0000E+00  0.4545E+16
   -0.524950    1.72742  0.0000E+00  0.4096E-13  0.8590E-16  0.1000E-09  0.0000E+00  0.4268E+16
   -0.562448    1.84702  0.0000E+00  0.4096E-13  0.8590E-16  0.1000E-09  0.0000E+00  0.3995E+16
   -0.599946    1.96561  0.0000E+00  0.4096E-13  0.8590E-16  0.1000E-09  0.0000E+00  0.3726E+16
   -0.637444    2.08309  0.0000E+00  0.4096E-13  0.8590E-16  0.1000E-09  0.0000E+00  0.3462E+16
   -0.674942    2.19939  0.0000E+00  0.4096E-13  0.8590E-16  0.1000E-09  0.0000E+00  0.3203E+16
   -0.712440    2.31438  0.0000E+00  0.4096E-13  0.8590E-16  0.1000E-09  0.0000E+00  0.2949E+16
   -0.749939    2.42797  0.0000E+00  0.4096E-13  0.8590E-16  0.1000E-09  0.0000E+00  0.2709E+16
   -0.787437    2.54035  0.0000E+00  0.4096E-13  0.8590E-16  0.1000E-09  0.0000E+00  0.2476E+16
   -0.824935    2.65153  0.0000E+00  0.4096E-13  0.8590E-16  0.1000E-09  0.0000E+00  0.2248E+16
   -0.862433    2.76141  0.0000E+00  0.4096E-13  0.8590E-16  0.1000E-09  0.0000E+00  0.2027E+16
   -0.899931    2.86989  0.0000E+00  0.4096E-13  0.8590E-16  0.1000E-09  0.0000E+00  0.1811E+16
   -0.937429    2.97686  0.0000E+00  0.4096E-13  0.8590E-16  0.1000E-09  0.0000E+00  0.1603E+16
   -0.974927    3.08218  0.0000E+00  0.1249E-12  0.8960E-16  0.1000E-09  0.0000E+00  0.1401E+16
   -1.012425    3.18574  0.0000E+00  0.3835E-12  0.2095E-15  0.1000E-09  0.0000E+00  0.1204E+16
   -1.049922    3.28700  0.0000E+00  0.1056E-11  0.5407E-15  0.1000E-09  0.0000E+00  0.1015E+16
   -1.087420    3.38566  0.0000E+00  0.2800E-11  0.1387E-14  0.1000E-09  0.0000E+00  0.8365E+15
   -1.124917    3.48142  0.0000E+00  0.7301E-11  0.3516E-14  0.1000E-09  0.0000E+00  0.6846E+15
   -1.162414    3.57626  0.0000E+00  0.1882E-10  0.8824E-14  0.1000E-09  0.0000E+00  0.5387E+15
   -1.199911    3.67047  0.0000E+00  0.4804E-10  0.2194E-13  0.1520E-09  0.0000E+00  0.3958E+15
   -1.237408    3.76396  0.0000E+00  0.1214E-09  0.5410E-13  0.5761E-09  0.0000E+00  0.2559E+15
   -1.274905    3.85648  0.0000E+00  0.3071E-09  0.1337E-12  0.2983E-08  0.0000E+00  0.1200E+15
   -1.312401    3.94677  0.0000E+00  0.7585E-09  0.3247E-12  0.7073E-07  0.0000E+00  0.8724E+13
   -1.349897    4.00778  0.0000E+00  0.1581E-08  0.7125E-12  0.1432E-05  0.0000E+00 -0.3281E+13
   -1.387392    4.01597  0.0000E+00  0.1963E-08  0.1057E-11  0.1373E-05  0.0000E+00 -0.4524E+13
   -1.424888    4.02449  0.0000E+00  0.1994E-08  0.1562E-11  0.8573E-06  0.0000E+00 -0.9037E+13
   -1.462383    4.03741  0.0000E+00  0.1547E-08  0.2826E-11  0.2117E-06  0.0000E+00 -0.3989E+14
   -1.499877    4.07411  0.0000E+00  0.0000E+00  0.0000E+00  0.0000E+00  0.0000E+00  0.0000E+00
