 1 - depth, m
 2 - temperature, C
 3 - salinity, kg/kg
 4 - turbulent kinetic energy, m**2/s**2
 5 - dissipation rate, m**2/s**3
 6 - kinematic heat conductance, m**2/s
 7 - modulus of horizontal velocity, m/s
 8 - Richardson number, n/d
   -0.000000    0.25692  0.0000E+00  0.7437E-03  0.4317E-02  0.1049E-03  0.3990E+00  0.2723E-01
   -0.037495    0.30352  0.0000E+00  0.4340E-03  0.2599E-02  0.2156E-03  0.1389E+00 -0.6159E-01
   -0.074991    0.32383  0.0000E+00  0.3001E-03  0.1054E-02  0.2832E-03  0.8574E-01 -0.1336E-01
   -0.112487    0.33369  0.0000E+00  0.2401E-03  0.7141E-03  0.3080E-03  0.6627E-01  0.1030E-01
   -0.149983    0.33885  0.0000E+00  0.2033E-03  0.3511E-03  0.3183E-03  0.5634E-01  0.1119E+00
   -0.187480    0.34258  0.0000E+00  0.1770E-03  0.2573E-03  0.3314E-03  0.4922E-01  0.2611E-01
   -0.224977    0.34550  0.0000E+00  0.1557E-03  0.1457E-03  0.3349E-03  0.4437E-01  0.7439E-02
   -0.262474    0.34842  0.0000E+00  0.1386E-03  0.1115E-03  0.3516E-03  0.3997E-01  0.8640E-01
   -0.299972    0.35066  0.0000E+00  0.1242E-03  0.4132E-04  0.3645E-03  0.3662E-01  0.1320E-01
   -0.337469    0.35261  0.0000E+00  0.1136E-03  0.2509E-04  0.3754E-03  0.3374E-01  0.2118E-01
   -0.374967    0.35441  0.0000E+00  0.1046E-03  0.1642E-04  0.3875E-03  0.3118E-01  0.1825E-01
   -0.412465    0.35617  0.0000E+00  0.9736E-04  0.1064E-04  0.3999E-03  0.2886E-01  0.2025E-01
   -0.449963    0.35784  0.0000E+00  0.9145E-04  0.6927E-05  0.3942E-03  0.2676E-01  0.1746E-01
   -0.487462    0.36017  0.0000E+00  0.8441E-04  0.4543E-05  0.4171E-03  0.2379E-01 -0.5027E-01
   -0.524960    0.36169  0.0000E+00  0.7891E-04  0.3320E-05  0.4264E-03  0.2204E-01  0.4049E-01
   -0.562459    0.36312  0.0000E+00  0.7401E-04  0.2546E-05  0.4343E-03  0.2048E-01  0.4356E-01
   -0.599958    0.36448  0.0000E+00  0.6961E-04  0.2007E-05  0.4409E-03  0.1907E-01  0.8105E-01
   -0.637456    0.36578  0.0000E+00  0.6559E-04  0.1607E-05  0.4467E-03  0.1778E-01  0.7203E-01
   -0.674955    0.36704  0.0000E+00  0.6191E-04  0.1303E-05  0.4514E-03  0.1659E-01  0.9649E-01
   -0.712454    0.36826  0.0000E+00  0.5854E-04  0.1071E-05  0.4547E-03  0.1548E-01  0.1305E+00
   -0.749953    0.36945  0.0000E+00  0.5542E-04  0.8924E-06  0.4567E-03  0.1446E-01  0.1828E+00
   -0.787452    0.37062  0.0000E+00  0.5251E-04  0.7555E-06  0.4568E-03  0.1350E-01  0.2682E+00
   -0.824951    0.37178  0.0000E+00  0.4978E-04  0.6500E-06  0.4558E-03  0.1259E-01  0.4192E+00
   -0.862450    0.37293  0.0000E+00  0.4724E-04  0.5690E-06  0.4534E-03  0.1173E-01  0.6993E+00
   -0.899948    0.37409  0.0000E+00  0.4484E-04  0.5049E-06  0.4482E-03  0.1092E-01  0.1192E+01
   -0.937447    0.37526  0.0000E+00  0.4255E-04  0.4527E-06  0.4406E-03  0.1015E-01  0.1942E+01
   -0.974946    0.37646  0.0000E+00  0.4035E-04  0.4092E-06  0.4318E-03  0.9411E-02  0.2907E+01
   -1.012444    0.37771  0.0000E+00  0.3821E-04  0.3725E-06  0.4230E-03  0.8701E-02  0.6984E+01
   -1.049943    0.37899  0.0000E+00  0.3613E-04  0.3409E-06  0.4120E-03  0.8033E-02  0.1947E+02
   -1.087441    0.38030  0.0000E+00  0.3409E-04  0.3138E-06  0.3992E-03  0.7405E-02  0.5555E+02
   -1.124939    0.38166  0.0000E+00  0.3211E-04  0.2909E-06  0.3821E-03  0.6816E-02  0.1756E+03
   -1.162437    0.38310  0.0000E+00  0.3014E-04  0.2717E-06  0.3616E-03  0.6254E-02  0.6027E+03
   -1.199934    0.38466  0.0000E+00  0.2819E-04  0.2564E-06  0.3380E-03  0.5715E-02  0.2427E+04
   -1.237432    0.38641  0.0000E+00  0.2622E-04  0.2456E-06  0.3094E-03  0.5195E-02  0.1756E+05
   -1.274929    0.38855  0.0000E+00  0.2416E-04  0.2403E-06  0.2794E-03  0.4684E-02  0.3067E+06
   -1.312426    0.39083  0.0000E+00  0.2198E-04  0.2438E-06  0.2441E-03  0.4204E-02  0.9802E+07
   -1.349923    0.39349  0.0000E+00  0.1957E-04  0.2626E-06  0.2006E-03  0.3753E-02  0.6724E+09
   -1.387419    0.39685  0.0000E+00  0.1675E-04  0.3147E-06  0.1492E-03  0.3318E-02  0.5549E+10
   -1.424915    0.40174  0.0000E+00  0.1315E-04  0.4613E-06  0.8860E-04  0.2879E-02  0.1032E+08
   -1.462411    0.41228  0.0000E+00  0.7116E-05  0.1110E-05  0.1669E-04  0.2411E-02  0.8296E+05
   -1.499906    0.47263  0.0000E+00  0.0000E+00  0.0000E+00  0.0000E+00  0.2530E-02  0.0000E+00
