 1 - depth, m
 2 - temperature, C
 3 - salinity, kg/kg
 4 - turbulent kinetic energy, m**2/s**2
 5 - dissipation rate, m**2/s**3
 6 - kinematic heat conductance, m**2/s
 7 - modulus of horizontal velocity, m/s
 8 - Richardson number, n/d
   -0.000000    0.00000  0.0000E+00  0.4096E-13  0.8590E-16  0.1000E-09  0.0000E+00  0.1214E+17
   -0.037495    0.18675  0.0000E+00  0.4096E-13  0.8590E-16  0.1000E-09  0.0000E+00  0.1134E+17
   -0.074989    0.37056  0.0000E+00  0.4096E-13  0.8590E-16  0.1000E-09  0.0000E+00  0.1058E+17
   -0.112485    0.55152  0.0000E+00  0.4096E-13  0.8590E-16  0.1000E-09  0.0000E+00  0.9860E+16
   -0.149980    0.72968  0.0000E+00  0.4096E-13  0.8590E-16  0.1000E-09  0.0000E+00  0.9169E+16
   -0.187476    0.90512  0.0000E+00  0.4830E-13  0.8590E-16  0.1000E-09  0.0000E+00  0.8507E+16
   -0.224972    1.07785  0.0000E+00  0.2160E-12  0.8590E-16  0.1000E-09  0.0000E+00  0.7873E+16
   -0.262468    1.24789  0.0000E+00  0.5493E-12  0.1170E-15  0.1000E-09  0.0000E+00  0.7255E+16
   -0.299965    1.41503  0.0000E+00  0.1111E-11  0.1931E-15  0.1000E-09  0.0000E+00  0.6663E+16
   -0.337462    1.57919  0.0000E+00  0.2049E-11  0.3302E-15  0.1000E-09  0.0000E+00  0.6098E+16
   -0.374959    1.74035  0.0000E+00  0.3633E-11  0.5641E-15  0.1000E-09  0.0000E+00  0.5595E+16
   -0.412456    1.89958  0.0000E+00  0.6318E-11  0.9582E-15  0.1000E-09  0.0000E+00  0.5131E+16
   -0.449954    2.05755  0.0000E+00  0.1088E-10  0.1618E-14  0.1000E-09  0.0000E+00  0.4679E+16
   -0.487451    2.21427  0.0000E+00  0.1860E-10  0.2719E-14  0.1000E-09  0.0000E+00  0.4239E+16
   -0.524949    2.36973  0.0000E+00  0.3169E-10  0.4553E-14  0.1000E-09  0.0000E+00  0.3809E+16
   -0.562447    2.52382  0.0000E+00  0.5379E-10  0.7600E-14  0.1000E-09  0.0000E+00  0.3390E+16
   -0.599945    2.67653  0.0000E+00  0.9095E-10  0.1264E-13  0.1000E-09  0.0000E+00  0.2984E+16
   -0.637443    2.82786  0.0000E+00  0.1532E-09  0.2095E-13  0.1000E-09  0.0000E+00  0.2589E+16
   -0.674941    2.97778  0.0000E+00  0.2572E-09  0.3459E-13  0.1000E-09  0.0000E+00  0.2206E+16
   -0.712439    3.12628  0.0000E+00  0.4302E-09  0.5694E-13  0.1000E-09  0.0000E+00  0.1834E+16
   -0.749937    3.27332  0.0000E+00  0.7170E-09  0.9341E-13  0.1743E-09  0.0000E+00  0.1488E+16
   -0.787435    3.42033  0.0000E+00  0.1191E-08  0.1527E-12  0.3702E-09  0.0000E+00  0.1146E+16
   -0.824933    3.56771  0.0000E+00  0.1971E-08  0.2488E-12  0.8626E-09  0.0000E+00  0.8012E+15
   -0.862431    3.71519  0.0000E+00  0.3249E-08  0.4039E-12  0.2463E-08  0.0000E+00  0.4555E+15
   -0.899929    3.86165  0.0000E+00  0.5307E-08  0.6502E-12  0.1495E-07  0.0000E+00  0.1210E+15
   -0.937427    3.99693  0.0000E+00  0.6000E-08  0.7388E-12  0.1662E-04  0.0000E+00 -0.2209E+12
   -0.974925    3.99819  0.0000E+00  0.6345E-08  0.7916E-12  0.1791E-04  0.0000E+00 -0.2308E+12
   -1.012422    3.99938  0.0000E+00  0.6652E-08  0.8480E-12  0.1896E-04  0.0000E+00 -0.2414E+12
   -1.049920    4.00051  0.0000E+00  0.6926E-08  0.9089E-12  0.1960E-04  0.0000E+00 -0.2562E+12
   -1.087417    4.00163  0.0000E+00  0.7166E-08  0.9753E-12  0.1980E-04  0.0000E+00 -0.2764E+12
   -1.124915    4.00274  0.0000E+00  0.7371E-08  0.1049E-11  0.1947E-04  0.0000E+00 -0.3029E+12
   -1.162412    4.00388  0.0000E+00  0.7540E-08  0.1134E-11  0.1870E-04  0.0000E+00 -0.3389E+12
   -1.199908    4.00507  0.0000E+00  0.7667E-08  0.1234E-11  0.1743E-04  0.0000E+00 -0.3904E+12
   -1.237405    4.00636  0.0000E+00  0.7744E-08  0.1355E-11  0.1582E-04  0.0000E+00 -0.4627E+12
   -1.274901    4.00778  0.0000E+00  0.7755E-08  0.1511E-11  0.1392E-04  0.0000E+00 -0.5701E+12
   -1.312398    4.00942  0.0000E+00  0.7678E-08  0.1725E-11  0.1160E-04  0.0000E+00 -0.7474E+12
   -1.349893    4.01140  0.0000E+00  0.7462E-08  0.2046E-11  0.8842E-05  0.0000E+00 -0.1088E+13
   -1.387389    4.01403  0.0000E+00  0.7009E-08  0.2608E-11  0.5717E-05  0.0000E+00 -0.1920E+13
   -1.424884    4.01815  0.0000E+00  0.6060E-08  0.3879E-11  0.2560E-05  0.0000E+00 -0.5237E+13
   -1.462379    4.02733  0.0000E+00  0.4063E-08  0.8473E-11  0.4267E-06  0.0000E+00 -0.4531E+14
   -1.499874    4.07275  0.0000E+00  0.0000E+00  0.0000E+00  0.0000E+00  0.0000E+00  0.0000E+00
