 1 - depth, m
 2 - temperature, C
 3 - salinity, kg/kg
 4 - turbulent kinetic energy, m**2/s**2
 5 - dissipation rate, m**2/s**3
 6 - kinematic heat conductance, m**2/s
 7 - modulus of horizontal velocity, m/s
 8 - Richardson number, n/d
   -0.000000    0.00000  0.0000E+00  0.4096E-13  0.8589E-16  0.1000E-09  0.0000E+00  0.7672E+16
   -0.037493    0.11692  0.0000E+00  0.4096E-13  0.8589E-16  0.1000E-09  0.0000E+00  0.7461E+16
   -0.074987    0.23436  0.0000E+00  0.4096E-13  0.8589E-16  0.1000E-09  0.0000E+00  0.7243E+16
   -0.112481    0.35223  0.0000E+00  0.4096E-13  0.8589E-16  0.1000E-09  0.0000E+00  0.7017E+16
   -0.149975    0.47044  0.0000E+00  0.4096E-13  0.8589E-16  0.1000E-09  0.0000E+00  0.6786E+16
   -0.187470    0.58891  0.0000E+00  0.4096E-13  0.8589E-16  0.1000E-09  0.0000E+00  0.6550E+16
   -0.224965    0.70755  0.0000E+00  0.4096E-13  0.8589E-16  0.1000E-09  0.0000E+00  0.6309E+16
   -0.262460    0.82628  0.0000E+00  0.4096E-13  0.8589E-16  0.1000E-09  0.0000E+00  0.6062E+16
   -0.299956    0.94495  0.0000E+00  0.4096E-13  0.8589E-16  0.1000E-09  0.0000E+00  0.5810E+16
   -0.337451    1.06346  0.0000E+00  0.4096E-13  0.8589E-16  0.1000E-09  0.0000E+00  0.5557E+16
   -0.374947    1.18172  0.0000E+00  0.4096E-13  0.8589E-16  0.1000E-09  0.0000E+00  0.5305E+16
   -0.412443    1.29971  0.0000E+00  0.4096E-13  0.8589E-16  0.1000E-09  0.0000E+00  0.5054E+16
   -0.449939    1.41737  0.0000E+00  0.4096E-13  0.8589E-16  0.1000E-09  0.0000E+00  0.4802E+16
   -0.487436    1.53464  0.0000E+00  0.4096E-13  0.8589E-16  0.1000E-09  0.0000E+00  0.4550E+16
   -0.524932    1.65140  0.0000E+00  0.4096E-13  0.8589E-16  0.1000E-09  0.0000E+00  0.4295E+16
   -0.562429    1.76748  0.0000E+00  0.4096E-13  0.8589E-16  0.1000E-09  0.0000E+00  0.4041E+16
   -0.599926    1.88277  0.0000E+00  0.4096E-13  0.8589E-16  0.1000E-09  0.0000E+00  0.3790E+16
   -0.637422    1.99719  0.0000E+00  0.4096E-13  0.8589E-16  0.1000E-09  0.0000E+00  0.3542E+16
   -0.674919    2.11063  0.0000E+00  0.4096E-13  0.8589E-16  0.1000E-09  0.0000E+00  0.3297E+16
   -0.712416    2.22300  0.0000E+00  0.4096E-13  0.8589E-16  0.1000E-09  0.0000E+00  0.3057E+16
   -0.749913    2.33418  0.0000E+00  0.4096E-13  0.8589E-16  0.1000E-09  0.0000E+00  0.2827E+16
   -0.787410    2.44434  0.0000E+00  0.4096E-13  0.8589E-16  0.1000E-09  0.0000E+00  0.2604E+16
   -0.824907    2.55349  0.0000E+00  0.4096E-13  0.8589E-16  0.1000E-09  0.0000E+00  0.2385E+16
   -0.862404    2.66152  0.0000E+00  0.4096E-13  0.8589E-16  0.1000E-09  0.0000E+00  0.2171E+16
   -0.899900    2.76835  0.0000E+00  0.4096E-13  0.8589E-16  0.1000E-09  0.0000E+00  0.1962E+16
   -0.937397    2.87385  0.0000E+00  0.4096E-13  0.8589E-16  0.1000E-09  0.0000E+00  0.1758E+16
   -0.974894    2.97793  0.0000E+00  0.4096E-13  0.8589E-16  0.1000E-09  0.0000E+00  0.1561E+16
   -1.012390    3.08046  0.0000E+00  0.4096E-13  0.8589E-16  0.1000E-09  0.0000E+00  0.1365E+16
   -1.049887    3.18092  0.0000E+00  0.4097E-13  0.8589E-16  0.1000E-09  0.0000E+00  0.1176E+16
   -1.087383    3.27903  0.0000E+00  0.1768E-12  0.1473E-15  0.1000E-09  0.0000E+00  0.9970E+15
   -1.124879    3.37453  0.0000E+00  0.6018E-12  0.4357E-15  0.1000E-09  0.0000E+00  0.8450E+15
   -1.162375    3.46925  0.0000E+00  0.1886E-11  0.1310E-14  0.1000E-09  0.0000E+00  0.6988E+15
   -1.199870    3.56346  0.0000E+00  0.5763E-11  0.3886E-14  0.1000E-09  0.0000E+00  0.5551E+15
   -1.237366    3.65714  0.0000E+00  0.1736E-10  0.1139E-13  0.1000E-09  0.0000E+00  0.4140E+15
   -1.274861    3.75024  0.0000E+00  0.5226E-10  0.3341E-13  0.3251E-09  0.0000E+00  0.2754E+15
   -1.312356    3.84253  0.0000E+00  0.1564E-09  0.9778E-13  0.1817E-08  0.0000E+00  0.1400E+15
   -1.349851    3.93310  0.0000E+00  0.4596E-09  0.2835E-12  0.2904E-07  0.0000E+00  0.1841E+14
   -1.387345    4.00841  0.0000E+00  0.1194E-08  0.7825E-12  0.7166E-06  0.0000E+00 -0.6827E+13
   -1.424839    4.02320  0.0000E+00  0.1493E-08  0.1319E-11  0.6054E-06  0.0000E+00 -0.1188E+14
   -1.462333    4.03997  0.0000E+00  0.1291E-08  0.2371E-11  0.1869E-06  0.0000E+00 -0.4256E+14
   -1.499826    4.07752  0.0000E+00  0.0000E+00  0.0000E+00  0.0000E+00  0.0000E+00  0.0000E+00
