 1 - depth, m
 2 - temperature, C
 3 - salinity, kg/kg
 4 - turbulent kinetic energy, m**2/s**2
 5 - dissipation rate, m**2/s**3
 6 - kinematic heat conductance, m**2/s
 7 - modulus of horizontal velocity, m/s
 8 - Richardson number, n/d
   -0.000000    0.00000  0.0000E+00  0.4096E-13  0.8590E-16  0.1000E-09  0.0000E+00  0.1167E+17
   -0.037493    0.17938  0.0000E+00  0.4096E-13  0.8590E-16  0.1000E-09  0.0000E+00  0.1098E+17
   -0.074986    0.35678  0.0000E+00  0.4096E-13  0.8590E-16  0.1000E-09  0.0000E+00  0.1031E+17
   -0.112479    0.53221  0.0000E+00  0.4096E-13  0.8590E-16  0.1000E-09  0.0000E+00  0.9665E+16
   -0.149973    0.70566  0.0000E+00  0.4096E-13  0.8590E-16  0.1000E-09  0.0000E+00  0.9037E+16
   -0.187466    0.87709  0.0000E+00  0.4096E-13  0.8590E-16  0.1000E-09  0.0000E+00  0.8430E+16
   -0.224961    1.04650  0.0000E+00  0.4096E-13  0.8590E-16  0.1000E-09  0.0000E+00  0.7841E+16
   -0.262455    1.21384  0.0000E+00  0.1911E-12  0.8590E-16  0.1000E-09  0.0000E+00  0.7267E+16
   -0.299950    1.37896  0.0000E+00  0.5062E-12  0.1157E-15  0.1000E-09  0.0000E+00  0.6711E+16
   -0.337445    1.54179  0.0000E+00  0.1046E-11  0.1931E-15  0.1000E-09  0.0000E+00  0.6174E+16
   -0.374940    1.70226  0.0000E+00  0.1960E-11  0.3347E-15  0.1000E-09  0.0000E+00  0.5676E+16
   -0.412435    1.86089  0.0000E+00  0.3525E-11  0.5798E-15  0.1000E-09  0.0000E+00  0.5205E+16
   -0.449931    2.01798  0.0000E+00  0.6215E-11  0.9978E-15  0.1000E-09  0.0000E+00  0.4747E+16
   -0.487426    2.17349  0.0000E+00  0.1085E-10  0.1706E-14  0.1000E-09  0.0000E+00  0.4301E+16
   -0.524922    2.32733  0.0000E+00  0.1881E-10  0.2905E-14  0.1000E-09  0.0000E+00  0.3868E+16
   -0.562418    2.47940  0.0000E+00  0.3247E-10  0.4926E-14  0.1000E-09  0.0000E+00  0.3447E+16
   -0.599914    2.62963  0.0000E+00  0.5581E-10  0.8316E-14  0.1000E-09  0.0000E+00  0.3041E+16
   -0.637410    2.77794  0.0000E+00  0.9550E-10  0.1398E-13  0.1000E-09  0.0000E+00  0.2649E+16
   -0.674906    2.92424  0.0000E+00  0.1627E-09  0.2342E-13  0.1000E-09  0.0000E+00  0.2272E+16
   -0.712402    3.06843  0.0000E+00  0.2762E-09  0.3907E-13  0.1000E-09  0.0000E+00  0.1909E+16
   -0.749899    3.21043  0.0000E+00  0.4668E-09  0.6492E-13  0.1147E-09  0.0000E+00  0.1571E+16
   -0.787395    3.35099  0.0000E+00  0.7860E-09  0.1075E-12  0.2395E-09  0.0000E+00  0.1245E+16
   -0.824891    3.49027  0.0000E+00  0.1318E-08  0.1772E-12  0.5299E-09  0.0000E+00  0.9281E+15
   -0.862387    3.62802  0.0000E+00  0.2201E-08  0.2911E-12  0.1302E-08  0.0000E+00  0.6204E+15
   -0.899883    3.76376  0.0000E+00  0.3657E-08  0.4759E-12  0.4070E-08  0.0000E+00  0.3243E+15
   -0.937379    3.89559  0.0000E+00  0.5972E-08  0.7660E-12  0.3407E-07  0.0000E+00  0.6213E+14
   -0.974875    4.00376  0.0000E+00  0.6658E-08  0.8580E-12  0.2083E-04  0.0000E+00 -0.2509E+12
   -1.012371    4.00466  0.0000E+00  0.6968E-08  0.9077E-12  0.2187E-04  0.0000E+00 -0.2518E+12
   -1.049866    4.00551  0.0000E+00  0.7223E-08  0.9580E-12  0.2241E-04  0.0000E+00 -0.2570E+12
   -1.087362    4.00635  0.0000E+00  0.7436E-08  0.1011E-11  0.2246E-04  0.0000E+00 -0.2676E+12
   -1.124857    4.00719  0.0000E+00  0.7612E-08  0.1071E-11  0.2221E-04  0.0000E+00 -0.2825E+12
   -1.162352    4.00803  0.0000E+00  0.7749E-08  0.1140E-11  0.2100E-04  0.0000E+00 -0.3118E+12
   -1.199847    4.00893  0.0000E+00  0.7840E-08  0.1222E-11  0.1906E-04  0.0000E+00 -0.3592E+12
   -1.237342    4.00992  0.0000E+00  0.7875E-08  0.1321E-11  0.1699E-04  0.0000E+00 -0.4230E+12
   -1.274837    4.01104  0.0000E+00  0.7842E-08  0.1450E-11  0.1482E-04  0.0000E+00 -0.5123E+12
   -1.312331    4.01233  0.0000E+00  0.7714E-08  0.1627E-11  0.1232E-04  0.0000E+00 -0.6562E+12
   -1.349825    4.01389  0.0000E+00  0.7444E-08  0.1896E-11  0.9365E-05  0.0000E+00 -0.9299E+12
   -1.387318    4.01597  0.0000E+00  0.6931E-08  0.2368E-11  0.6021E-05  0.0000E+00 -0.1595E+13
   -1.424812    4.01922  0.0000E+00  0.5911E-08  0.3451E-11  0.2641E-05  0.0000E+00 -0.4230E+13
   -1.462305    4.02660  0.0000E+00  0.3780E-08  0.7483E-11  0.3920E-06  0.0000E+00 -0.3759E+14
   -1.499797    4.06647  0.0000E+00  0.0000E+00  0.0000E+00  0.0000E+00  0.0000E+00  0.0000E+00
