 1 - depth, m
 2 - temperature, C
 3 - salinity, kg/kg
 4 - turbulent kinetic energy, m**2/s**2
 5 - dissipation rate, m**2/s**3
 6 - kinematic heat conductance, m**2/s
 7 - modulus of horizontal velocity, m/s
 8 - Richardson number, n/d
   -0.000000    0.00000  0.0000E+00  0.4096E-13  0.8590E-16  0.1000E-09  0.0000E+00  0.1005E+17
   -0.037495    0.15394  0.0000E+00  0.4096E-13  0.8590E-16  0.1000E-09  0.0000E+00  0.9596E+16
   -0.074991    0.30734  0.0000E+00  0.4096E-13  0.8590E-16  0.1000E-09  0.0000E+00  0.9141E+16
   -0.112487    0.46006  0.0000E+00  0.4096E-13  0.8590E-16  0.1000E-09  0.0000E+00  0.8687E+16
   -0.149984    0.61199  0.0000E+00  0.4096E-13  0.8590E-16  0.1000E-09  0.0000E+00  0.8234E+16
   -0.187481    0.76301  0.0000E+00  0.4096E-13  0.8590E-16  0.1000E-09  0.0000E+00  0.7785E+16
   -0.224978    0.91299  0.0000E+00  0.4096E-13  0.8590E-16  0.1000E-09  0.0000E+00  0.7340E+16
   -0.262475    1.06182  0.0000E+00  0.4096E-13  0.8590E-16  0.1000E-09  0.0000E+00  0.6897E+16
   -0.299972    1.20930  0.0000E+00  0.4096E-13  0.8590E-16  0.1000E-09  0.0000E+00  0.6460E+16
   -0.337470    1.35529  0.0000E+00  0.4096E-13  0.8590E-16  0.1000E-09  0.0000E+00  0.6032E+16
   -0.374968    1.49969  0.0000E+00  0.4096E-13  0.8590E-16  0.1000E-09  0.0000E+00  0.5623E+16
   -0.412466    1.64264  0.0000E+00  0.4096E-13  0.8590E-16  0.1000E-09  0.0000E+00  0.5228E+16
   -0.449965    1.78421  0.0000E+00  0.4096E-13  0.8590E-16  0.1000E-09  0.0000E+00  0.4842E+16
   -0.487463    1.92430  0.0000E+00  0.4096E-13  0.8590E-16  0.1000E-09  0.0000E+00  0.4464E+16
   -0.524962    2.06281  0.0000E+00  0.1578E-12  0.8590E-16  0.1000E-09  0.0000E+00  0.4094E+16
   -0.562460    2.19956  0.0000E+00  0.4400E-12  0.1172E-15  0.1000E-09  0.0000E+00  0.3734E+16
   -0.599959    2.33444  0.0000E+00  0.9504E-12  0.2048E-15  0.1000E-09  0.0000E+00  0.3385E+16
   -0.637458    2.46734  0.0000E+00  0.1860E-11  0.3724E-15  0.1000E-09  0.0000E+00  0.3048E+16
   -0.674957    2.59815  0.0000E+00  0.3497E-11  0.6756E-15  0.1000E-09  0.0000E+00  0.2724E+16
   -0.712456    2.72675  0.0000E+00  0.6454E-11  0.1217E-14  0.1000E-09  0.0000E+00  0.2412E+16
   -0.749955    2.85304  0.0000E+00  0.1179E-10  0.2177E-14  0.1000E-09  0.0000E+00  0.2124E+16
   -0.787454    2.97749  0.0000E+00  0.2139E-10  0.3871E-14  0.1000E-09  0.0000E+00  0.1849E+16
   -0.824953    3.10022  0.0000E+00  0.3859E-10  0.6850E-14  0.1000E-09  0.0000E+00  0.1585E+16
   -0.862452    3.22115  0.0000E+00  0.6924E-10  0.1206E-13  0.1000E-09  0.0000E+00  0.1331E+16
   -0.899951    3.34020  0.0000E+00  0.1236E-09  0.2113E-13  0.1000E-09  0.0000E+00  0.1088E+16
   -0.937449    3.45730  0.0000E+00  0.2197E-09  0.3686E-13  0.1195E-09  0.0000E+00  0.8561E+15
   -0.974948    3.57236  0.0000E+00  0.3886E-09  0.6400E-13  0.2796E-09  0.0000E+00  0.6355E+15
   -1.012447    3.68517  0.0000E+00  0.6853E-09  0.1108E-12  0.7223E-09  0.0000E+00  0.4258E+15
   -1.049945    3.79517  0.0000E+00  0.1206E-08  0.1915E-12  0.2310E-08  0.0000E+00  0.2301E+15
   -1.087444    3.90132  0.0000E+00  0.2101E-08  0.3281E-12  0.1627E-07  0.0000E+00  0.5600E+14
   -1.124942    3.99551  0.0000E+00  0.2767E-08  0.4340E-12  0.6272E-05  0.0000E+00 -0.3710E+12
   -1.162440    3.99782  0.0000E+00  0.3112E-08  0.5035E-12  0.7048E-05  0.0000E+00 -0.4024E+12
   -1.199937    3.99988  0.0000E+00  0.3395E-08  0.5776E-12  0.7380E-05  0.0000E+00 -0.4474E+12
   -1.237435    4.00185  0.0000E+00  0.3618E-08  0.6602E-12  0.7313E-05  0.0000E+00 -0.5143E+12
   -1.274932    4.00384  0.0000E+00  0.3779E-08  0.7591E-12  0.6861E-05  0.0000E+00 -0.6199E+12
   -1.312429    4.00597  0.0000E+00  0.3867E-08  0.8873E-12  0.6009E-05  0.0000E+00 -0.7998E+12
   -1.349926    4.00842  0.0000E+00  0.3855E-08  0.1071E-11  0.4766E-05  0.0000E+00 -0.1150E+13
   -1.387422    4.01153  0.0000E+00  0.3682E-08  0.1376E-11  0.3180E-05  0.0000E+00 -0.2012E+13
   -1.424919    4.01619  0.0000E+00  0.3209E-08  0.2026E-11  0.1472E-05  0.0000E+00 -0.5364E+13
   -1.462414    4.02603  0.0000E+00  0.2222E-08  0.4107E-11  0.2732E-06  0.0000E+00 -0.3714E+14
   -1.499910    4.06583  0.0000E+00  0.0000E+00  0.0000E+00  0.0000E+00  0.0000E+00  0.0000E+00
