 1 - depth, m
 2 - temperature, C
 3 - salinity, kg/kg
 4 - turbulent kinetic energy, m**2/s**2
 5 - dissipation rate, m**2/s**3
 6 - kinematic heat conductance, m**2/s
 7 - modulus of horizontal velocity, m/s
 8 - Richardson number, n/d
   -0.000000    0.00000  0.0000E+00  0.4096E-13  0.8590E-16  0.1000E-09  0.0000E+00  0.9105E+16
   -0.037495    0.13918  0.0000E+00  0.4096E-13  0.8590E-16  0.1000E-09  0.0000E+00  0.8668E+16
   -0.074990    0.27685  0.0000E+00  0.4096E-13  0.8590E-16  0.1000E-09  0.0000E+00  0.8238E+16
   -0.112485    0.41294  0.0000E+00  0.4096E-13  0.8590E-16  0.1000E-09  0.0000E+00  0.7817E+16
   -0.149981    0.54735  0.0000E+00  0.4096E-13  0.8590E-16  0.1000E-09  0.0000E+00  0.7405E+16
   -0.187477    0.68003  0.0000E+00  0.4096E-13  0.8590E-16  0.1000E-09  0.0000E+00  0.7003E+16
   -0.224973    0.81089  0.0000E+00  0.4096E-13  0.8590E-16  0.1000E-09  0.0000E+00  0.6612E+16
   -0.262469    0.93988  0.0000E+00  0.4096E-13  0.8590E-16  0.1000E-09  0.0000E+00  0.6228E+16
   -0.299966    1.06687  0.0000E+00  0.4096E-13  0.8590E-16  0.1000E-09  0.0000E+00  0.5855E+16
   -0.337463    1.19178  0.0000E+00  0.4096E-13  0.8590E-16  0.1000E-09  0.0000E+00  0.5494E+16
   -0.374960    1.31456  0.0000E+00  0.4096E-13  0.8590E-16  0.1000E-09  0.0000E+00  0.5166E+16
   -0.412457    1.43563  0.0000E+00  0.4096E-13  0.8590E-16  0.1000E-09  0.0000E+00  0.4859E+16
   -0.449955    1.55525  0.0000E+00  0.4096E-13  0.8590E-16  0.1000E-09  0.0000E+00  0.4561E+16
   -0.487453    1.67340  0.0000E+00  0.4096E-13  0.8590E-16  0.1000E-09  0.0000E+00  0.4271E+16
   -0.524950    1.79003  0.0000E+00  0.4096E-13  0.8590E-16  0.1000E-09  0.0000E+00  0.3989E+16
   -0.562448    1.90507  0.0000E+00  0.4096E-13  0.8590E-16  0.1000E-09  0.0000E+00  0.3715E+16
   -0.599946    2.01848  0.0000E+00  0.4096E-13  0.8590E-16  0.1000E-09  0.0000E+00  0.3451E+16
   -0.637444    2.13021  0.0000E+00  0.4096E-13  0.8590E-16  0.1000E-09  0.0000E+00  0.3194E+16
   -0.674943    2.24021  0.0000E+00  0.4096E-13  0.8590E-16  0.1000E-09  0.0000E+00  0.2947E+16
   -0.712441    2.34842  0.0000E+00  0.4096E-13  0.8590E-16  0.1000E-09  0.0000E+00  0.2708E+16
   -0.749939    2.45478  0.0000E+00  0.4096E-13  0.8590E-16  0.1000E-09  0.0000E+00  0.2494E+16
   -0.787437    2.55992  0.0000E+00  0.4096E-13  0.8590E-16  0.1000E-09  0.0000E+00  0.2292E+16
   -0.824935    2.66405  0.0000E+00  0.4096E-13  0.8590E-16  0.1000E-09  0.0000E+00  0.2094E+16
   -0.862433    2.76714  0.0000E+00  0.4096E-13  0.8590E-16  0.1000E-09  0.0000E+00  0.1902E+16
   -0.899931    2.86916  0.0000E+00  0.4096E-13  0.8590E-16  0.1000E-09  0.0000E+00  0.1715E+16
   -0.937429    2.97006  0.0000E+00  0.4096E-13  0.8590E-16  0.1000E-09  0.0000E+00  0.1533E+16
   -0.974927    3.06980  0.0000E+00  0.4619E-13  0.8590E-16  0.1000E-09  0.0000E+00  0.1357E+16
   -1.012425    3.16834  0.0000E+00  0.2126E-12  0.1478E-15  0.1000E-09  0.0000E+00  0.1187E+16
   -1.049923    3.26562  0.0000E+00  0.6694E-12  0.3989E-15  0.1000E-09  0.0000E+00  0.1022E+16
   -1.087420    3.36158  0.0000E+00  0.1913E-11  0.1090E-14  0.1000E-09  0.0000E+00  0.8631E+15
   -1.124918    3.45613  0.0000E+00  0.5312E-11  0.2934E-14  0.1000E-09  0.0000E+00  0.7192E+15
   -1.162415    3.55045  0.0000E+00  0.1454E-10  0.7806E-14  0.1000E-09  0.0000E+00  0.5779E+15
   -1.199912    3.64477  0.0000E+00  0.3932E-10  0.2055E-13  0.1285E-09  0.0000E+00  0.4372E+15
   -1.237409    3.73914  0.0000E+00  0.1052E-09  0.5355E-13  0.4905E-09  0.0000E+00  0.2966E+15
   -1.274905    3.83353  0.0000E+00  0.2814E-09  0.1398E-12  0.2391E-08  0.0000E+00  0.1562E+15
   -1.312401    3.92774  0.0000E+00  0.7399E-09  0.3608E-12  0.3402E-07  0.0000E+00  0.2381E+14
   -1.349897    4.00618  0.0000E+00  0.1681E-08  0.8410E-12  0.1269E-05  0.0000E+00 -0.3907E+13
   -1.387393    4.01621  0.0000E+00  0.2189E-08  0.1324E-11  0.1308E-05  0.0000E+00 -0.5592E+13
   -1.424888    4.02641  0.0000E+00  0.2346E-08  0.2087E-11  0.8757E-06  0.0000E+00 -0.1157E+14
   -1.462383    4.04186  0.0000E+00  0.1988E-08  0.4028E-11  0.2592E-06  0.0000E+00 -0.5150E+14
   -1.499878    4.08464  0.0000E+00  0.0000E+00  0.0000E+00  0.0000E+00  0.0000E+00  0.0000E+00
