 1 - depth, m
 2 - temperature, C
 3 - salinity, kg/kg
 4 - turbulent kinetic energy, m**2/s**2
 5 - dissipation rate, m**2/s**3
 6 - kinematic heat conductance, m**2/s
 7 - modulus of horizontal velocity, m/s
 8 - Richardson number, n/d
   -0.000000    0.00000  0.0000E+00  0.4096E-13  0.8590E-16  0.1000E-09  0.0000E+00  0.1158E+17
   -0.037499    0.17795  0.0000E+00  0.4096E-13  0.8590E-16  0.1000E-09  0.0000E+00  0.1083E+17
   -0.074998    0.35279  0.0000E+00  0.4096E-13  0.8590E-16  0.1000E-09  0.0000E+00  0.1007E+17
   -0.112498    0.52377  0.0000E+00  0.4096E-13  0.8590E-16  0.1000E-09  0.0000E+00  0.9307E+16
   -0.149998    0.69017  0.0000E+00  0.4096E-13  0.8590E-16  0.1000E-09  0.0000E+00  0.8555E+16
   -0.187498    0.85136  0.0000E+00  0.4096E-13  0.8590E-16  0.1000E-09  0.0000E+00  0.7823E+16
   -0.224999    1.00681  0.0000E+00  0.4096E-13  0.8590E-16  0.1000E-09  0.0000E+00  0.7121E+16
   -0.262499    1.15611  0.0000E+00  0.4096E-13  0.8590E-16  0.1000E-09  0.0000E+00  0.6439E+16
   -0.300000    1.29859  0.0000E+00  0.4096E-13  0.8590E-16  0.1000E-09  0.0000E+00  0.5798E+16
   -0.337502    1.43402  0.0000E+00  0.4096E-13  0.8590E-16  0.1000E-09  0.0000E+00  0.5207E+16
   -0.375003    1.56235  0.0000E+00  0.4096E-13  0.8590E-16  0.1000E-09  0.0000E+00  0.4759E+16
   -0.412505    1.68617  0.0000E+00  0.4096E-13  0.8590E-16  0.1000E-09  0.0000E+00  0.4404E+16
   -0.450007    1.80727  0.0000E+00  0.4096E-13  0.8590E-16  0.1000E-09  0.0000E+00  0.4078E+16
   -0.487508    1.92598  0.0000E+00  0.4096E-13  0.8590E-16  0.1000E-09  0.0000E+00  0.3778E+16
   -0.525011    2.04264  0.0000E+00  0.4096E-13  0.8590E-16  0.1000E-09  0.0000E+00  0.3497E+16
   -0.562513    2.15748  0.0000E+00  0.4096E-13  0.8590E-16  0.1000E-09  0.0000E+00  0.3234E+16
   -0.600015    2.27071  0.0000E+00  0.4096E-13  0.8590E-16  0.1000E-09  0.0000E+00  0.2983E+16
   -0.637517    2.38243  0.0000E+00  0.4096E-13  0.8590E-16  0.1000E-09  0.0000E+00  0.2740E+16
   -0.675020    2.49260  0.0000E+00  0.4096E-13  0.8590E-16  0.1000E-09  0.0000E+00  0.2502E+16
   -0.712522    2.60105  0.0000E+00  0.4096E-13  0.8590E-16  0.1000E-09  0.0000E+00  0.2268E+16
   -0.750025    2.70746  0.0000E+00  0.4096E-13  0.8590E-16  0.1000E-09  0.0000E+00  0.2073E+16
   -0.787527    2.81334  0.0000E+00  0.4096E-13  0.8590E-16  0.1000E-09  0.0000E+00  0.1886E+16
   -0.825030    2.91889  0.0000E+00  0.6505E-13  0.8590E-16  0.1000E-09  0.0000E+00  0.1692E+16
   -0.862532    3.02361  0.0000E+00  0.2516E-12  0.1174E-15  0.1000E-09  0.0000E+00  0.1495E+16
   -0.900035    3.12689  0.0000E+00  0.6660E-12  0.2489E-15  0.1000E-09  0.0000E+00  0.1299E+16
   -0.937537    3.22814  0.0000E+00  0.1565E-11  0.5495E-15  0.1000E-09  0.0000E+00  0.1108E+16
   -0.975039    3.32679  0.0000E+00  0.3535E-11  0.1202E-14  0.1000E-09  0.0000E+00  0.9245E+15
   -1.012541    3.42235  0.0000E+00  0.7870E-11  0.2608E-14  0.1000E-09  0.0000E+00  0.7570E+15
   -1.050043    3.51495  0.0000E+00  0.1740E-10  0.5626E-14  0.1000E-09  0.0000E+00  0.6024E+15
   -1.087545    3.60450  0.0000E+00  0.3818E-10  0.1206E-13  0.1000E-09  0.0000E+00  0.4612E+15
   -1.125047    3.69097  0.0000E+00  0.8318E-10  0.2568E-13  0.2143E-09  0.0000E+00  0.3328E+15
   -1.162548    3.77433  0.0000E+00  0.1799E-09  0.5431E-13  0.6951E-09  0.0000E+00  0.2173E+15
   -1.200049    3.85476  0.0000E+00  0.3861E-09  0.1141E-12  0.2814E-08  0.0000E+00  0.1130E+15
   -1.237550    3.93207  0.0000E+00  0.8131E-09  0.2359E-12  0.2935E-07  0.0000E+00  0.2260E+14
   -1.275051    3.99695  0.0000E+00  0.1483E-08  0.4327E-12  0.1759E-05  0.0000E+00 -0.1271E+13
   -1.312552    4.00297  0.0000E+00  0.1918E-08  0.6192E-12  0.2117E-05  0.0000E+00 -0.1583E+13
   -1.350052    4.00823  0.0000E+00  0.2239E-08  0.8572E-12  0.2055E-05  0.0000E+00 -0.2211E+13
   -1.387552    4.01393  0.0000E+00  0.2417E-08  0.1214E-11  0.1631E-05  0.0000E+00 -0.3738E+13
   -1.425052    4.02153  0.0000E+00  0.2365E-08  0.1892E-11  0.9334E-06  0.0000E+00 -0.9092E+13
   -1.462551    4.03532  0.0000E+00  0.1926E-08  0.3772E-11  0.2539E-06  0.0000E+00 -0.4718E+14
   -1.500050    4.07813  0.0000E+00  0.0000E+00  0.0000E+00  0.0000E+00  0.0000E+00  0.0000E+00
