 1 - depth, m
 2 - temperature, C
 3 - salinity, kg/kg
 4 - turbulent kinetic energy, m**2/s**2
 5 - dissipation rate, m**2/s**3
 6 - kinematic heat conductance, m**2/s
 7 - modulus of horizontal velocity, m/s
 8 - Richardson number, n/d
   -0.000000    0.00000  0.0000E+00  0.4096E-13  0.8589E-16  0.1000E-09  0.0000E+00  0.1632E+17
   -0.037499    0.25337  0.0000E+00  0.4096E-13  0.8589E-16  0.1000E-09  0.0000E+00  0.1317E+17
   -0.074998    0.47204  0.0000E+00  0.4096E-13  0.8589E-16  0.1000E-09  0.0000E+00  0.1074E+17
   -0.112497    0.66182  0.0000E+00  0.4096E-13  0.8589E-16  0.1000E-09  0.0000E+00  0.8902E+16
   -0.149997    0.82826  0.0000E+00  0.4096E-13  0.8589E-16  0.1000E-09  0.0000E+00  0.7520E+16
   -0.187497    0.97642  0.0000E+00  0.4096E-13  0.8589E-16  0.1000E-09  0.0000E+00  0.6491E+16
   -0.224998    1.11079  0.0000E+00  0.4607E-13  0.8589E-16  0.1000E-09  0.0000E+00  0.5732E+16
   -0.262498    1.23515  0.0000E+00  0.8096E-13  0.9362E-16  0.1000E-09  0.0000E+00  0.5101E+16
   -0.299999    1.35098  0.0000E+00  0.2010E-12  0.1316E-15  0.1000E-09  0.0000E+00  0.4609E+16
   -0.337500    1.46038  0.0000E+00  0.5173E-12  0.2466E-15  0.1000E-09  0.0000E+00  0.4228E+16
   -0.375002    1.56524  0.0000E+00  0.1294E-11  0.5445E-15  0.1000E-09  0.0000E+00  0.3960E+16
   -0.412503    1.66793  0.0000E+00  0.3174E-11  0.1263E-14  0.1000E-09  0.0000E+00  0.3766E+16
   -0.450005    1.77017  0.0000E+00  0.7638E-11  0.2944E-14  0.1000E-09  0.0000E+00  0.3608E+16
   -0.487507    1.87291  0.0000E+00  0.1813E-10  0.6803E-14  0.1000E-09  0.0000E+00  0.3463E+16
   -0.525009    1.97664  0.0000E+00  0.4257E-10  0.1558E-13  0.1000E-09  0.0000E+00  0.3280E+16
   -0.562511    2.08031  0.0000E+00  0.9898E-10  0.3532E-13  0.1000E-09  0.0000E+00  0.3130E+16
   -0.600013    2.18503  0.0000E+00  0.2279E-09  0.7935E-13  0.1174E-09  0.0000E+00  0.3022E+16
   -0.637515    2.29264  0.0000E+00  0.5195E-09  0.1766E-12  0.1820E-09  0.0000E+00  0.2978E+16
   -0.675017    2.40639  0.0000E+00  0.1173E-08  0.3892E-12  0.3385E-09  0.0000E+00  0.3022E+16
   -0.712520    2.53199  0.0000E+00  0.2623E-08  0.8502E-12  0.6688E-09  0.0000E+00  0.3175E+16
   -0.750022    2.67940  0.0000E+00  0.5809E-08  0.1840E-11  0.1308E-08  0.0000E+00  0.3518E+16
   -0.787524    2.87109  0.0000E+00  0.1273E-07  0.3942E-11  0.2852E-08  0.0000E+00  0.3699E+16
   -0.825027    3.13298  0.0000E+00  0.2727E-07  0.8279E-11  0.1464E-07  0.0000E+00  0.3135E+16
   -0.862529    3.47135  0.0000E+00  0.4257E-07  0.1302E-10  0.1852E-04  0.0000E+00  0.2088E+16
   -0.900031    3.75925  0.0000E+00  0.5546E-07  0.1721E-10  0.3996E-04  0.0000E+00  0.1047E+16
   -0.937533    3.96256  0.0000E+00  0.6397E-07  0.2011E-10  0.5818E-04  0.0000E+00  0.2174E+15
   -0.975035    4.05895  0.0000E+00  0.6577E-07  0.2088E-10  0.7290E-04  0.0000E+00 -0.1564E+13
   -1.012537    4.06032  0.0000E+00  0.6698E-07  0.2157E-10  0.7258E-04  0.0000E+00 -0.1645E+13
   -1.050039    4.06174  0.0000E+00  0.6800E-07  0.2233E-10  0.7223E-04  0.0000E+00 -0.1729E+13
   -1.087541    4.06320  0.0000E+00  0.6882E-07  0.2318E-10  0.7133E-04  0.0000E+00 -0.1834E+13
   -1.125042    4.06472  0.0000E+00  0.6940E-07  0.2413E-10  0.6986E-04  0.0000E+00 -0.1916E+13
   -1.162544    4.06627  0.0000E+00  0.6974E-07  0.2522E-10  0.6780E-04  0.0000E+00 -0.2015E+13
   -1.200045    4.06787  0.0000E+00  0.6982E-07  0.2648E-10  0.6511E-04  0.0000E+00 -0.2143E+13
   -1.237546    4.06953  0.0000E+00  0.6960E-07  0.2799E-10  0.6169E-04  0.0000E+00 -0.2313E+13
   -1.275046    4.07129  0.0000E+00  0.6903E-07  0.2989E-10  0.5739E-04  0.0000E+00 -0.2547E+13
   -1.312547    4.07319  0.0000E+00  0.6803E-07  0.3240E-10  0.5208E-04  0.0000E+00 -0.2885E+13
   -1.350047    4.07529  0.0000E+00  0.6642E-07  0.3599E-10  0.4549E-04  0.0000E+00 -0.3400E+13
   -1.387546    4.07770  0.0000E+00  0.6347E-07  0.4262E-10  0.2968E-04  0.0000E+00 -0.5417E+13
   -1.425046    4.08143  0.0000E+00  0.5710E-07  0.5925E-10  0.1363E-04  0.0000E+00 -0.1262E+14
   -1.462545    4.08959  0.0000E+00  0.3789E-07  0.1391E-09  0.1938E-05  0.0000E+00 -0.1117E+15
   -1.500044    4.14433  0.0000E+00  0.0000E+00  0.0000E+00  0.0000E+00  0.0000E+00  0.0000E+00
