 1 - depth, m
 2 - temperature, C
 3 - salinity, kg/kg
 4 - turbulent kinetic energy, m**2/s**2
 5 - dissipation rate, m**2/s**3
 6 - kinematic heat conductance, m**2/s
 7 - modulus of horizontal velocity, m/s
 8 - Richardson number, n/d
   -0.000000    0.00000  0.0000E+00  0.4095E-13  0.8589E-16  0.1000E-09  0.0000E+00  0.6434E+16
   -0.037494    0.09779  0.0000E+00  0.4095E-13  0.8589E-16  0.1000E-09  0.0000E+00  0.6425E+16
   -0.074988    0.19814  0.0000E+00  0.4095E-13  0.8589E-16  0.1000E-09  0.0000E+00  0.6397E+16
   -0.112483    0.30094  0.0000E+00  0.4095E-13  0.8589E-16  0.1000E-09  0.0000E+00  0.6345E+16
   -0.149978    0.40601  0.0000E+00  0.4095E-13  0.8589E-16  0.1000E-09  0.0000E+00  0.6266E+16
   -0.187473    0.51309  0.0000E+00  0.4095E-13  0.8589E-16  0.1000E-09  0.0000E+00  0.6162E+16
   -0.224968    0.62191  0.0000E+00  0.4095E-13  0.8589E-16  0.1000E-09  0.0000E+00  0.6033E+16
   -0.262464    0.73219  0.0000E+00  0.4095E-13  0.8589E-16  0.1000E-09  0.0000E+00  0.5876E+16
   -0.299960    0.84352  0.0000E+00  0.4095E-13  0.8589E-16  0.1000E-09  0.0000E+00  0.5699E+16
   -0.337456    0.95564  0.0000E+00  0.4095E-13  0.8589E-16  0.1000E-09  0.0000E+00  0.5509E+16
   -0.374953    1.06832  0.0000E+00  0.4095E-13  0.8589E-16  0.1000E-09  0.0000E+00  0.5305E+16
   -0.412449    1.18130  0.0000E+00  0.4095E-13  0.8589E-16  0.1000E-09  0.0000E+00  0.5090E+16
   -0.449946    1.29438  0.0000E+00  0.4095E-13  0.8589E-16  0.1000E-09  0.0000E+00  0.4870E+16
   -0.487443    1.40744  0.0000E+00  0.4095E-13  0.8589E-16  0.1000E-09  0.0000E+00  0.4646E+16
   -0.524940    1.52033  0.0000E+00  0.4095E-13  0.8589E-16  0.1000E-09  0.0000E+00  0.4412E+16
   -0.562437    1.63275  0.0000E+00  0.4095E-13  0.8589E-16  0.1000E-09  0.0000E+00  0.4177E+16
   -0.599935    1.74459  0.0000E+00  0.4095E-13  0.8589E-16  0.1000E-09  0.0000E+00  0.3944E+16
   -0.637432    1.85578  0.0000E+00  0.4095E-13  0.8589E-16  0.1000E-09  0.0000E+00  0.3711E+16
   -0.674929    1.96620  0.0000E+00  0.4095E-13  0.8589E-16  0.1000E-09  0.0000E+00  0.3481E+16
   -0.712427    2.07576  0.0000E+00  0.4095E-13  0.8589E-16  0.1000E-09  0.0000E+00  0.3253E+16
   -0.749924    2.18436  0.0000E+00  0.4095E-13  0.8589E-16  0.1000E-09  0.0000E+00  0.3038E+16
   -0.787422    2.29223  0.0000E+00  0.4095E-13  0.8589E-16  0.1000E-09  0.0000E+00  0.2828E+16
   -0.824919    2.39943  0.0000E+00  0.4095E-13  0.8589E-16  0.1000E-09  0.0000E+00  0.2621E+16
   -0.862417    2.50587  0.0000E+00  0.4095E-13  0.8589E-16  0.1000E-09  0.0000E+00  0.2417E+16
   -0.899914    2.61149  0.0000E+00  0.4095E-13  0.8589E-16  0.1000E-09  0.0000E+00  0.2216E+16
   -0.937411    2.71623  0.0000E+00  0.4095E-13  0.8589E-16  0.1000E-09  0.0000E+00  0.2019E+16
   -0.974908    2.82001  0.0000E+00  0.4095E-13  0.8589E-16  0.1000E-09  0.0000E+00  0.1827E+16
   -1.012405    2.92276  0.0000E+00  0.4095E-13  0.8589E-16  0.1000E-09  0.0000E+00  0.1628E+16
   -1.049902    3.02372  0.0000E+00  0.4095E-13  0.8589E-16  0.1000E-09  0.0000E+00  0.1434E+16
   -1.087399    3.12250  0.0000E+00  0.4095E-13  0.8589E-16  0.1000E-09  0.0000E+00  0.1246E+16
   -1.124896    3.21879  0.0000E+00  0.4095E-13  0.8589E-16  0.1000E-09  0.0000E+00  0.1094E+16
   -1.162392    3.31478  0.0000E+00  0.4095E-13  0.8589E-16  0.1000E-09  0.0000E+00  0.9477E+15
   -1.199888    3.41085  0.0000E+00  0.1031E-12  0.1328E-15  0.1000E-09  0.0000E+00  0.8018E+15
   -1.237384    3.50710  0.0000E+00  0.4230E-12  0.4983E-15  0.1000E-09  0.0000E+00  0.6557E+15
   -1.274880    3.60355  0.0000E+00  0.1740E-11  0.1995E-14  0.1000E-09  0.0000E+00  0.5068E+15
   -1.312376    3.69968  0.0000E+00  0.7091E-11  0.7978E-14  0.1000E-09  0.0000E+00  0.3596E+15
   -1.349871    3.79546  0.0000E+00  0.2865E-10  0.3186E-13  0.3614E-09  0.0000E+00  0.2142E+15
   -1.387366    3.89070  0.0000E+00  0.1147E-09  0.1280E-12  0.3500E-08  0.0000E+00  0.7163E+14
   -1.424860    3.98343  0.0000E+00  0.4398E-09  0.5232E-12  0.1097E-06  0.0000E+00 -0.1929E+14
   -1.462355    4.03604  0.0000E+00  0.7816E-09  0.1488E-11  0.1339E-06  0.0000E+00 -0.5234E+14
   -1.499848    4.08202  0.0000E+00  0.0000E+00  0.0000E+00  0.0000E+00  0.0000E+00  0.0000E+00
