 1 - depth, m
 2 - temperature, C
 3 - salinity, kg/kg
 4 - turbulent kinetic energy, m**2/s**2
 5 - dissipation rate, m**2/s**3
 6 - kinematic heat conductance, m**2/s
 7 - modulus of horizontal velocity, m/s
 8 - Richardson number, n/d
   -0.000000    0.00000  0.0000E+00  0.4096E-13  0.8590E-16  0.1000E-09  0.0000E+00  0.1173E+17
   -0.037501    0.18027  0.0000E+00  0.4096E-13  0.8590E-16  0.1000E-09  0.0000E+00  0.1104E+17
   -0.075002    0.35869  0.0000E+00  0.4096E-13  0.8590E-16  0.1000E-09  0.0000E+00  0.1037E+17
   -0.112504    0.53526  0.0000E+00  0.4096E-13  0.8590E-16  0.1000E-09  0.0000E+00  0.9722E+16
   -0.150006    0.70993  0.0000E+00  0.4096E-13  0.8590E-16  0.1000E-09  0.0000E+00  0.9092E+16
   -0.187509    0.88269  0.0000E+00  0.4096E-13  0.8590E-16  0.1000E-09  0.0000E+00  0.8481E+16
   -0.225011    1.05351  0.0000E+00  0.1001E-12  0.8590E-16  0.1000E-09  0.0000E+00  0.7889E+16
   -0.262514    1.22234  0.0000E+00  0.3115E-12  0.9415E-16  0.1000E-09  0.0000E+00  0.7309E+16
   -0.300017    1.38901  0.0000E+00  0.7064E-12  0.1390E-15  0.1000E-09  0.0000E+00  0.6747E+16
   -0.337521    1.55345  0.0000E+00  0.1373E-11  0.2345E-15  0.1000E-09  0.0000E+00  0.6204E+16
   -0.375024    1.71559  0.0000E+00  0.2499E-11  0.4031E-15  0.1000E-09  0.0000E+00  0.5702E+16
   -0.412528    1.87601  0.0000E+00  0.4410E-11  0.6905E-15  0.1000E-09  0.0000E+00  0.5227E+16
   -0.450032    2.03506  0.0000E+00  0.7664E-11  0.1175E-14  0.1000E-09  0.0000E+00  0.4764E+16
   -0.487536    2.19269  0.0000E+00  0.1320E-10  0.1986E-14  0.1000E-09  0.0000E+00  0.4313E+16
   -0.525041    2.34883  0.0000E+00  0.2260E-10  0.3342E-14  0.1000E-09  0.0000E+00  0.3872E+16
   -0.562545    2.50334  0.0000E+00  0.3852E-10  0.5601E-14  0.1000E-09  0.0000E+00  0.3443E+16
   -0.600049    2.65613  0.0000E+00  0.6536E-10  0.9347E-14  0.1000E-09  0.0000E+00  0.3027E+16
   -0.637554    2.80708  0.0000E+00  0.1104E-09  0.1553E-13  0.1000E-09  0.0000E+00  0.2624E+16
   -0.675058    2.95605  0.0000E+00  0.1857E-09  0.2570E-13  0.1000E-09  0.0000E+00  0.2235E+16
   -0.712563    3.10292  0.0000E+00  0.3110E-09  0.4235E-13  0.1000E-09  0.0000E+00  0.1863E+16
   -0.750068    3.24767  0.0000E+00  0.5188E-09  0.6951E-13  0.1341E-09  0.0000E+00  0.1517E+16
   -0.787572    3.39136  0.0000E+00  0.8620E-09  0.1137E-12  0.2672E-09  0.0000E+00  0.1184E+16
   -0.825077    3.53465  0.0000E+00  0.1427E-08  0.1851E-12  0.5987E-09  0.0000E+00  0.8580E+15
   -0.862581    3.67801  0.0000E+00  0.2351E-08  0.3003E-12  0.1548E-08  0.0000E+00  0.5321E+15
   -0.900086    3.82136  0.0000E+00  0.3849E-08  0.4842E-12  0.6492E-08  0.0000E+00  0.2048E+15
   -0.937590    3.96042  0.0000E+00  0.5303E-08  0.6700E-12  0.4199E-05  0.0000E+00  0.9271E+13
   -0.975095    3.99808  0.0000E+00  0.5845E-08  0.7450E-12  0.1624E-04  0.0000E+00 -0.2230E+12
   -1.012599    3.99946  0.0000E+00  0.6163E-08  0.7975E-12  0.1737E-04  0.0000E+00 -0.2370E+12
   -1.050103    4.00071  0.0000E+00  0.6438E-08  0.8518E-12  0.1805E-04  0.0000E+00 -0.2524E+12
   -1.087607    4.00190  0.0000E+00  0.6676E-08  0.9099E-12  0.1838E-04  0.0000E+00 -0.2706E+12
   -1.125111    4.00305  0.0000E+00  0.6880E-08  0.9741E-12  0.1834E-04  0.0000E+00 -0.2935E+12
   -1.162614    4.00421  0.0000E+00  0.7048E-08  0.1047E-11  0.1796E-04  0.0000E+00 -0.3230E+12
   -1.200118    4.00539  0.0000E+00  0.7175E-08  0.1133E-11  0.1703E-04  0.0000E+00 -0.3656E+12
   -1.237621    4.00663  0.0000E+00  0.7250E-08  0.1238E-11  0.1538E-04  0.0000E+00 -0.4328E+12
   -1.275124    4.00800  0.0000E+00  0.7259E-08  0.1372E-11  0.1345E-04  0.0000E+00 -0.5328E+12
   -1.312627    4.00956  0.0000E+00  0.7180E-08  0.1556E-11  0.1120E-04  0.0000E+00 -0.6945E+12
   -1.350129    4.01144  0.0000E+00  0.6965E-08  0.1831E-11  0.8536E-05  0.0000E+00 -0.1003E+13
   -1.387631    4.01391  0.0000E+00  0.6520E-08  0.2312E-11  0.5512E-05  0.0000E+00 -0.1754E+13
   -1.425133    4.01776  0.0000E+00  0.5600E-08  0.3399E-11  0.2449E-05  0.0000E+00 -0.4737E+13
   -1.462634    4.02629  0.0000E+00  0.3666E-08  0.7350E-11  0.3872E-06  0.0000E+00 -0.4022E+14
   -1.500135    4.06840  0.0000E+00  0.0000E+00  0.0000E+00  0.0000E+00  0.0000E+00  0.0000E+00
