 1 - depth, m
 2 - temperature, C
 3 - salinity, kg/kg
 4 - turbulent kinetic energy, m**2/s**2
 5 - dissipation rate, m**2/s**3
 6 - kinematic heat conductance, m**2/s
 7 - modulus of horizontal velocity, m/s
 8 - Richardson number, n/d
   -0.000000    0.00000  0.0000E+00  0.4096E-13  0.8590E-16  0.1000E-09  0.0000E+00  0.1194E+17
   -0.037494    0.18364  0.0000E+00  0.4096E-13  0.8590E-16  0.1000E-09  0.0000E+00  0.1122E+17
   -0.074988    0.36521  0.0000E+00  0.4096E-13  0.8590E-16  0.1000E-09  0.0000E+00  0.1051E+17
   -0.112483    0.54463  0.0000E+00  0.4096E-13  0.8590E-16  0.1000E-09  0.0000E+00  0.9828E+16
   -0.149978    0.72179  0.0000E+00  0.4096E-13  0.8590E-16  0.1000E-09  0.0000E+00  0.9160E+16
   -0.187473    0.89658  0.0000E+00  0.4096E-13  0.8590E-16  0.1000E-09  0.0000E+00  0.8513E+16
   -0.224968    1.06891  0.0000E+00  0.9748E-13  0.8590E-16  0.1000E-09  0.0000E+00  0.7885E+16
   -0.262464    1.23865  0.0000E+00  0.2794E-12  0.9563E-16  0.1000E-09  0.0000E+00  0.7268E+16
   -0.299960    1.40545  0.0000E+00  0.6493E-12  0.1352E-15  0.1000E-09  0.0000E+00  0.6671E+16
   -0.337456    1.56913  0.0000E+00  0.1288E-11  0.2282E-15  0.1000E-09  0.0000E+00  0.6100E+16
   -0.374952    1.72960  0.0000E+00  0.2381E-11  0.3965E-15  0.1000E-09  0.0000E+00  0.5593E+16
   -0.412449    1.88794  0.0000E+00  0.4264E-11  0.6879E-15  0.1000E-09  0.0000E+00  0.5128E+16
   -0.449946    2.04482  0.0000E+00  0.7517E-11  0.1187E-14  0.1000E-09  0.0000E+00  0.4675E+16
   -0.487443    2.20024  0.0000E+00  0.1314E-10  0.2035E-14  0.1000E-09  0.0000E+00  0.4236E+16
   -0.524940    2.35420  0.0000E+00  0.2284E-10  0.3477E-14  0.1000E-09  0.0000E+00  0.3807E+16
   -0.562437    2.50656  0.0000E+00  0.3954E-10  0.5918E-14  0.1000E-09  0.0000E+00  0.3392E+16
   -0.599934    2.65732  0.0000E+00  0.6817E-10  0.1003E-13  0.1000E-09  0.0000E+00  0.2990E+16
   -0.637432    2.80649  0.0000E+00  0.1170E-09  0.1694E-13  0.1000E-09  0.0000E+00  0.2602E+16
   -0.674929    2.95405  0.0000E+00  0.2001E-09  0.2849E-13  0.1000E-09  0.0000E+00  0.2226E+16
   -0.712426    3.09995  0.0000E+00  0.3408E-09  0.4773E-13  0.1004E-09  0.0000E+00  0.1863E+16
   -0.749924    3.24414  0.0000E+00  0.5781E-09  0.7967E-13  0.1465E-09  0.0000E+00  0.1530E+16
   -0.787421    3.38833  0.0000E+00  0.9767E-09  0.1324E-12  0.3059E-09  0.0000E+00  0.1202E+16
   -0.824919    3.53316  0.0000E+00  0.1643E-08  0.2193E-12  0.6961E-09  0.0000E+00  0.8723E+15
   -0.862416    3.67878  0.0000E+00  0.2752E-08  0.3617E-12  0.1849E-08  0.0000E+00  0.5379E+15
   -0.899913    3.82535  0.0000E+00  0.4576E-08  0.5923E-12  0.8534E-08  0.0000E+00  0.1965E+15
   -0.937411    3.96918  0.0000E+00  0.5955E-08  0.7777E-12  0.8127E-05  0.0000E+00  0.8067E+13
   -0.974908    3.99875  0.0000E+00  0.6487E-08  0.8572E-12  0.1727E-04  0.0000E+00 -0.2500E+12
   -1.012405    4.00010  0.0000E+00  0.6835E-08  0.9194E-12  0.1842E-04  0.0000E+00 -0.2635E+12
   -1.049902    4.00137  0.0000E+00  0.7140E-08  0.9848E-12  0.1913E-04  0.0000E+00 -0.2803E+12
   -1.087398    4.00258  0.0000E+00  0.7407E-08  0.1055E-11  0.1947E-04  0.0000E+00 -0.3016E+12
   -1.124895    4.00378  0.0000E+00  0.7635E-08  0.1133E-11  0.1935E-04  0.0000E+00 -0.3277E+12
   -1.162391    4.00499  0.0000E+00  0.7824E-08  0.1222E-11  0.1883E-04  0.0000E+00 -0.3622E+12
   -1.199888    4.00624  0.0000E+00  0.7967E-08  0.1325E-11  0.1782E-04  0.0000E+00 -0.4109E+12
   -1.237384    4.00755  0.0000E+00  0.8056E-08  0.1451E-11  0.1622E-04  0.0000E+00 -0.4843E+12
   -1.274879    4.00900  0.0000E+00  0.8076E-08  0.1613E-11  0.1423E-04  0.0000E+00 -0.5958E+12
   -1.312375    4.01065  0.0000E+00  0.8000E-08  0.1835E-11  0.1187E-04  0.0000E+00 -0.7778E+12
   -1.349870    4.01264  0.0000E+00  0.7780E-08  0.2168E-11  0.9069E-05  0.0000E+00 -0.1124E+13
   -1.387365    4.01527  0.0000E+00  0.7310E-08  0.2748E-11  0.5888E-05  0.0000E+00 -0.1966E+13
   -1.424859    4.01935  0.0000E+00  0.6326E-08  0.4061E-11  0.2652E-05  0.0000E+00 -0.5290E+13
   -1.462354    4.02839  0.0000E+00  0.4221E-08  0.8860E-11  0.4367E-06  0.0000E+00 -0.4545E+14
   -1.499847    4.07338  0.0000E+00  0.0000E+00  0.0000E+00  0.0000E+00  0.0000E+00  0.0000E+00
