 1 - depth, m
 2 - temperature, C
 3 - salinity, kg/kg
 4 - turbulent kinetic energy, m**2/s**2
 5 - dissipation rate, m**2/s**3
 6 - kinematic heat conductance, m**2/s
 7 - modulus of horizontal velocity, m/s
 8 - Richardson number, n/d
   -0.000000    0.00000  0.0000E+00  0.4096E-13  0.8590E-16  0.1000E-09  0.0000E+00  0.7287E+16
   -0.037494    0.11097  0.0000E+00  0.4096E-13  0.8590E-16  0.1000E-09  0.0000E+00  0.7069E+16
   -0.074988    0.22195  0.0000E+00  0.4096E-13  0.8590E-16  0.1000E-09  0.0000E+00  0.6848E+16
   -0.112483    0.33288  0.0000E+00  0.4096E-13  0.8590E-16  0.1000E-09  0.0000E+00  0.6625E+16
   -0.149978    0.44372  0.0000E+00  0.4096E-13  0.8590E-16  0.1000E-09  0.0000E+00  0.6399E+16
   -0.187473    0.55438  0.0000E+00  0.4096E-13  0.8590E-16  0.1000E-09  0.0000E+00  0.6171E+16
   -0.224968    0.66480  0.0000E+00  0.4096E-13  0.8590E-16  0.1000E-09  0.0000E+00  0.5941E+16
   -0.262464    0.77491  0.0000E+00  0.4096E-13  0.8590E-16  0.1000E-09  0.0000E+00  0.5707E+16
   -0.299960    0.88457  0.0000E+00  0.4096E-13  0.8590E-16  0.1000E-09  0.0000E+00  0.5472E+16
   -0.337456    0.99367  0.0000E+00  0.4096E-13  0.8590E-16  0.1000E-09  0.0000E+00  0.5236E+16
   -0.374953    1.10213  0.0000E+00  0.4096E-13  0.8590E-16  0.1000E-09  0.0000E+00  0.5009E+16
   -0.412449    1.21007  0.0000E+00  0.4096E-13  0.8590E-16  0.1000E-09  0.0000E+00  0.4788E+16
   -0.449946    1.31750  0.0000E+00  0.4096E-13  0.8590E-16  0.1000E-09  0.0000E+00  0.4567E+16
   -0.487443    1.42436  0.0000E+00  0.4096E-13  0.8590E-16  0.1000E-09  0.0000E+00  0.4346E+16
   -0.524940    1.53056  0.0000E+00  0.4096E-13  0.8590E-16  0.1000E-09  0.0000E+00  0.4124E+16
   -0.562437    1.63596  0.0000E+00  0.4096E-13  0.8590E-16  0.1000E-09  0.0000E+00  0.3904E+16
   -0.599935    1.74048  0.0000E+00  0.4096E-13  0.8590E-16  0.1000E-09  0.0000E+00  0.3687E+16
   -0.637432    1.84404  0.0000E+00  0.4096E-13  0.8590E-16  0.1000E-09  0.0000E+00  0.3473E+16
   -0.674929    1.94655  0.0000E+00  0.4096E-13  0.8590E-16  0.1000E-09  0.0000E+00  0.3261E+16
   -0.712427    2.04793  0.0000E+00  0.4096E-13  0.8590E-16  0.1000E-09  0.0000E+00  0.3054E+16
   -0.749924    2.14811  0.0000E+00  0.4096E-13  0.8590E-16  0.1000E-09  0.0000E+00  0.2865E+16
   -0.787422    2.24747  0.0000E+00  0.4096E-13  0.8590E-16  0.1000E-09  0.0000E+00  0.2683E+16
   -0.824919    2.34614  0.0000E+00  0.4096E-13  0.8590E-16  0.1000E-09  0.0000E+00  0.2504E+16
   -0.862417    2.44407  0.0000E+00  0.4096E-13  0.8590E-16  0.1000E-09  0.0000E+00  0.2328E+16
   -0.899914    2.54121  0.0000E+00  0.4096E-13  0.8590E-16  0.1000E-09  0.0000E+00  0.2155E+16
   -0.937411    2.63752  0.0000E+00  0.4096E-13  0.8590E-16  0.1000E-09  0.0000E+00  0.1986E+16
   -0.974908    2.73295  0.0000E+00  0.4096E-13  0.8590E-16  0.1000E-09  0.0000E+00  0.1820E+16
   -1.012405    2.82745  0.0000E+00  0.4096E-13  0.8590E-16  0.1000E-09  0.0000E+00  0.1656E+16
   -1.049902    2.92086  0.0000E+00  0.4096E-13  0.8590E-16  0.1000E-09  0.0000E+00  0.1497E+16
   -1.087399    3.01308  0.0000E+00  0.4096E-13  0.8590E-16  0.1000E-09  0.0000E+00  0.1341E+16
   -1.124896    3.10400  0.0000E+00  0.4096E-13  0.8590E-16  0.1000E-09  0.0000E+00  0.1206E+16
   -1.162392    3.19475  0.0000E+00  0.4096E-13  0.8590E-16  0.1000E-09  0.0000E+00  0.1074E+16
   -1.199888    3.28554  0.0000E+00  0.4096E-13  0.8590E-16  0.1000E-09  0.0000E+00  0.9425E+15
   -1.237384    3.37640  0.0000E+00  0.4096E-13  0.8590E-16  0.1000E-09  0.0000E+00  0.8123E+15
   -1.274880    3.46746  0.0000E+00  0.4096E-13  0.8590E-16  0.1000E-09  0.0000E+00  0.6845E+15
   -1.312376    3.55915  0.0000E+00  0.4482E-13  0.8590E-16  0.1000E-09  0.0000E+00  0.5556E+15
   -1.349871    3.65172  0.0000E+00  0.1138E-12  0.1196E-15  0.1000E-09  0.0000E+00  0.4246E+15
   -1.387366    3.74552  0.0000E+00  0.3664E-12  0.2846E-15  0.1000E-09  0.0000E+00  0.2898E+15
   -1.424860    3.84108  0.0000E+00  0.1176E-11  0.8336E-15  0.1000E-09  0.0000E+00  0.1481E+15
   -1.462355    3.93930  0.0000E+00  0.3761E-11  0.2598E-14  0.2525E-08  0.0000E+00 -0.5275E+13
   -1.499849    4.04007  0.0000E+00  0.0000E+00  0.0000E+00  0.0000E+00  0.0000E+00  0.0000E+00
