 1 - depth, m
 2 - temperature, C
 3 - salinity, kg/kg
 4 - turbulent kinetic energy, m**2/s**2
 5 - dissipation rate, m**2/s**3
 6 - kinematic heat conductance, m**2/s
 7 - modulus of horizontal velocity, m/s
 8 - Richardson number, n/d
   -0.000000    0.00000  0.0000E+00  0.4096E-13  0.8590E-16  0.1000E-09  0.0000E+00  0.7634E+16
   -0.037499    0.11634  0.0000E+00  0.4096E-13  0.8590E-16  0.1000E-09  0.0000E+00  0.7404E+16
   -0.074998    0.23284  0.0000E+00  0.4096E-13  0.8590E-16  0.1000E-09  0.0000E+00  0.7176E+16
   -0.112498    0.34955  0.0000E+00  0.4096E-13  0.8590E-16  0.1000E-09  0.0000E+00  0.6949E+16
   -0.149997    0.46649  0.0000E+00  0.4096E-13  0.8590E-16  0.1000E-09  0.0000E+00  0.6721E+16
   -0.187497    0.58366  0.0000E+00  0.4096E-13  0.8590E-16  0.1000E-09  0.0000E+00  0.6491E+16
   -0.224998    0.70101  0.0000E+00  0.4096E-13  0.8590E-16  0.1000E-09  0.0000E+00  0.6257E+16
   -0.262499    0.81848  0.0000E+00  0.4096E-13  0.8590E-16  0.1000E-09  0.0000E+00  0.6017E+16
   -0.299999    0.93594  0.0000E+00  0.4096E-13  0.8590E-16  0.1000E-09  0.0000E+00  0.5773E+16
   -0.337501    1.05330  0.0000E+00  0.4096E-13  0.8590E-16  0.1000E-09  0.0000E+00  0.5527E+16
   -0.375002    1.17047  0.0000E+00  0.4096E-13  0.8590E-16  0.1000E-09  0.0000E+00  0.5282E+16
   -0.412503    1.28742  0.0000E+00  0.4096E-13  0.8590E-16  0.1000E-09  0.0000E+00  0.5036E+16
   -0.450005    1.40410  0.0000E+00  0.4096E-13  0.8590E-16  0.1000E-09  0.0000E+00  0.4790E+16
   -0.487507    1.52042  0.0000E+00  0.4096E-13  0.8590E-16  0.1000E-09  0.0000E+00  0.4543E+16
   -0.525009    1.63628  0.0000E+00  0.4096E-13  0.8590E-16  0.1000E-09  0.0000E+00  0.4293E+16
   -0.562511    1.75151  0.0000E+00  0.4096E-13  0.8590E-16  0.1000E-09  0.0000E+00  0.4045E+16
   -0.600013    1.86601  0.0000E+00  0.4096E-13  0.8590E-16  0.1000E-09  0.0000E+00  0.3798E+16
   -0.637516    1.97968  0.0000E+00  0.4096E-13  0.8590E-16  0.1000E-09  0.0000E+00  0.3554E+16
   -0.675018    2.09243  0.0000E+00  0.4096E-13  0.8590E-16  0.1000E-09  0.0000E+00  0.3313E+16
   -0.712520    2.20416  0.0000E+00  0.4096E-13  0.8590E-16  0.1000E-09  0.0000E+00  0.3076E+16
   -0.750023    2.31476  0.0000E+00  0.4096E-13  0.8590E-16  0.1000E-09  0.0000E+00  0.2849E+16
   -0.787525    2.42439  0.0000E+00  0.4096E-13  0.8590E-16  0.1000E-09  0.0000E+00  0.2629E+16
   -0.825027    2.53305  0.0000E+00  0.4096E-13  0.8590E-16  0.1000E-09  0.0000E+00  0.2412E+16
   -0.862530    2.64065  0.0000E+00  0.4096E-13  0.8590E-16  0.1000E-09  0.0000E+00  0.2200E+16
   -0.900032    2.74709  0.0000E+00  0.4096E-13  0.8590E-16  0.1000E-09  0.0000E+00  0.1992E+16
   -0.937534    2.85227  0.0000E+00  0.4096E-13  0.8590E-16  0.1000E-09  0.0000E+00  0.1790E+16
   -0.975036    2.95608  0.0000E+00  0.4096E-13  0.8590E-16  0.1000E-09  0.0000E+00  0.1594E+16
   -1.012538    3.05840  0.0000E+00  0.4096E-13  0.8590E-16  0.1000E-09  0.0000E+00  0.1399E+16
   -1.050040    3.15875  0.0000E+00  0.4096E-13  0.8590E-16  0.1000E-09  0.0000E+00  0.1211E+16
   -1.087542    3.25687  0.0000E+00  0.9777E-13  0.9356E-16  0.1000E-09  0.0000E+00  0.1032E+16
   -1.125043    3.35252  0.0000E+00  0.3368E-12  0.2633E-15  0.1000E-09  0.0000E+00  0.8801E+15
   -1.162545    3.44745  0.0000E+00  0.1093E-11  0.8140E-15  0.1000E-09  0.0000E+00  0.7332E+15
   -1.200046    3.54191  0.0000E+00  0.3455E-11  0.2494E-14  0.1000E-09  0.0000E+00  0.5886E+15
   -1.237547    3.63587  0.0000E+00  0.1075E-10  0.7550E-14  0.1000E-09  0.0000E+00  0.4465E+15
   -1.275047    3.72926  0.0000E+00  0.3344E-10  0.2288E-13  0.1995E-09  0.0000E+00  0.3068E+15
   -1.312548    3.82189  0.0000E+00  0.1034E-09  0.6914E-13  0.1060E-08  0.0000E+00  0.1701E+15
   -1.350048    3.91312  0.0000E+00  0.3154E-09  0.2078E-12  0.1126E-07  0.0000E+00  0.4105E+14
   -1.387548    3.99724  0.0000E+00  0.8899E-09  0.6025E-12  0.4663E-06  0.0000E+00 -0.6941E+13
   -1.425047    4.01807  0.0000E+00  0.1247E-08  0.1138E-11  0.4942E-06  0.0000E+00 -0.1273E+14
   -1.462546    4.03765  0.0000E+00  0.1152E-08  0.2104E-11  0.1731E-06  0.0000E+00 -0.4307E+14
   -1.500045    4.07653  0.0000E+00  0.0000E+00  0.0000E+00  0.0000E+00  0.0000E+00  0.0000E+00
