 1 - depth, m
 2 - temperature, C
 3 - salinity, kg/kg
 4 - turbulent kinetic energy, m**2/s**2
 5 - dissipation rate, m**2/s**3
 6 - kinematic heat conductance, m**2/s
 7 - modulus of horizontal velocity, m/s
 8 - Richardson number, n/d
   -0.000000    0.00000  0.0000E+00  0.4096E-13  0.8590E-16  0.1000E-09  0.0000E+00  0.8400E+16
   -0.037499    0.12821  0.0000E+00  0.4096E-13  0.8590E-16  0.1000E-09  0.0000E+00  0.8109E+16
   -0.074999    0.25645  0.0000E+00  0.4096E-13  0.8590E-16  0.1000E-09  0.0000E+00  0.7814E+16
   -0.112499    0.38462  0.0000E+00  0.4096E-13  0.8590E-16  0.1000E-09  0.0000E+00  0.7516E+16
   -0.150000    0.51265  0.0000E+00  0.4096E-13  0.8590E-16  0.1000E-09  0.0000E+00  0.7216E+16
   -0.187501    0.64046  0.0000E+00  0.4096E-13  0.8590E-16  0.1000E-09  0.0000E+00  0.6915E+16
   -0.225002    0.76796  0.0000E+00  0.4096E-13  0.8590E-16  0.1000E-09  0.0000E+00  0.6613E+16
   -0.262503    0.89508  0.0000E+00  0.4096E-13  0.8590E-16  0.1000E-09  0.0000E+00  0.6307E+16
   -0.300004    1.02167  0.0000E+00  0.4096E-13  0.8590E-16  0.1000E-09  0.0000E+00  0.6001E+16
   -0.337506    1.14764  0.0000E+00  0.4096E-13  0.8590E-16  0.1000E-09  0.0000E+00  0.5697E+16
   -0.375008    1.27290  0.0000E+00  0.4096E-13  0.8590E-16  0.1000E-09  0.0000E+00  0.5401E+16
   -0.412510    1.39749  0.0000E+00  0.4096E-13  0.8590E-16  0.1000E-09  0.0000E+00  0.5109E+16
   -0.450013    1.52142  0.0000E+00  0.4096E-13  0.8590E-16  0.1000E-09  0.0000E+00  0.4821E+16
   -0.487515    1.64460  0.0000E+00  0.4096E-13  0.8590E-16  0.1000E-09  0.0000E+00  0.4534E+16
   -0.525018    1.76696  0.0000E+00  0.4096E-13  0.8590E-16  0.1000E-09  0.0000E+00  0.4249E+16
   -0.562520    1.88831  0.0000E+00  0.4096E-13  0.8590E-16  0.1000E-09  0.0000E+00  0.3967E+16
   -0.600023    2.00859  0.0000E+00  0.4096E-13  0.8590E-16  0.1000E-09  0.0000E+00  0.3690E+16
   -0.637526    2.12768  0.0000E+00  0.4096E-13  0.8590E-16  0.1000E-09  0.0000E+00  0.3418E+16
   -0.675029    2.24549  0.0000E+00  0.4096E-13  0.8590E-16  0.1000E-09  0.0000E+00  0.3152E+16
   -0.712532    2.36191  0.0000E+00  0.4096E-13  0.8590E-16  0.1000E-09  0.0000E+00  0.2893E+16
   -0.750035    2.47684  0.0000E+00  0.4096E-13  0.8590E-16  0.1000E-09  0.0000E+00  0.2647E+16
   -0.787538    2.59048  0.0000E+00  0.4096E-13  0.8590E-16  0.1000E-09  0.0000E+00  0.2409E+16
   -0.825041    2.70283  0.0000E+00  0.4096E-13  0.8590E-16  0.1000E-09  0.0000E+00  0.2177E+16
   -0.862544    2.81379  0.0000E+00  0.4096E-13  0.8590E-16  0.1000E-09  0.0000E+00  0.1951E+16
   -0.900047    2.92326  0.0000E+00  0.9514E-13  0.8590E-16  0.1000E-09  0.0000E+00  0.1733E+16
   -0.937549    3.03113  0.0000E+00  0.3143E-12  0.1539E-15  0.1000E-09  0.0000E+00  0.1522E+16
   -0.975052    3.13728  0.0000E+00  0.8330E-12  0.3589E-15  0.1000E-09  0.0000E+00  0.1319E+16
   -1.012555    3.24159  0.0000E+00  0.2057E-11  0.8476E-15  0.1000E-09  0.0000E+00  0.1121E+16
   -1.050057    3.34358  0.0000E+00  0.4963E-11  0.1986E-14  0.1000E-09  0.0000E+00  0.9321E+15
   -1.087560    3.44297  0.0000E+00  0.1183E-10  0.4608E-14  0.1000E-09  0.0000E+00  0.7546E+15
   -1.125062    3.53951  0.0000E+00  0.2791E-10  0.1060E-13  0.1000E-09  0.0000E+00  0.6020E+15
   -1.162564    3.63523  0.0000E+00  0.6529E-10  0.2418E-13  0.1466E-09  0.0000E+00  0.4547E+15
   -1.200065    3.73040  0.0000E+00  0.1514E-09  0.5474E-13  0.4859E-09  0.0000E+00  0.3098E+15
   -1.237567    3.82484  0.0000E+00  0.3482E-09  0.1229E-12  0.2001E-08  0.0000E+00  0.1678E+15
   -1.275068    3.91779  0.0000E+00  0.7954E-09  0.2750E-12  0.2015E-07  0.0000E+00  0.3537E+14
   -1.312569    3.99994  0.0000E+00  0.1566E-08  0.5432E-12  0.1735E-05  0.0000E+00 -0.1892E+13
   -1.350070    4.00700  0.0000E+00  0.1989E-08  0.7762E-12  0.1935E-05  0.0000E+00 -0.2382E+13
   -1.387570    4.01338  0.0000E+00  0.2201E-08  0.1072E-11  0.1627E-05  0.0000E+00 -0.3621E+13
   -1.425070    4.02088  0.0000E+00  0.2123E-08  0.1572E-11  0.9325E-06  0.0000E+00 -0.7933E+13
   -1.462570    4.03331  0.0000E+00  0.1609E-08  0.2918E-11  0.2178E-06  0.0000E+00 -0.3870E+14
   -1.500070    4.07089  0.0000E+00  0.0000E+00  0.0000E+00  0.0000E+00  0.0000E+00  0.0000E+00
