 1 - depth, m
 2 - temperature, C
 3 - salinity, kg/kg
 4 - turbulent kinetic energy, m**2/s**2
 5 - dissipation rate, m**2/s**3
 6 - kinematic heat conductance, m**2/s
 7 - modulus of horizontal velocity, m/s
 8 - Richardson number, n/d
   -0.000000    0.00000  0.0000E+00  0.4096E-13  0.8590E-16  0.1000E-09  0.0000E+00  0.8446E+16
   -0.037498    0.12892  0.0000E+00  0.4096E-13  0.8590E-16  0.1000E-09  0.0000E+00  0.8150E+16
   -0.074997    0.25785  0.0000E+00  0.4096E-13  0.8590E-16  0.1000E-09  0.0000E+00  0.7851E+16
   -0.112496    0.38669  0.0000E+00  0.4096E-13  0.8590E-16  0.1000E-09  0.0000E+00  0.7548E+16
   -0.149995    0.51535  0.0000E+00  0.4096E-13  0.8590E-16  0.1000E-09  0.0000E+00  0.7243E+16
   -0.187495    0.64374  0.0000E+00  0.4096E-13  0.8590E-16  0.1000E-09  0.0000E+00  0.6937E+16
   -0.224995    0.77179  0.0000E+00  0.4096E-13  0.8590E-16  0.1000E-09  0.0000E+00  0.6630E+16
   -0.262495    0.89942  0.0000E+00  0.4096E-13  0.8590E-16  0.1000E-09  0.0000E+00  0.6320E+16
   -0.299996    1.02648  0.0000E+00  0.4096E-13  0.8590E-16  0.1000E-09  0.0000E+00  0.6011E+16
   -0.337496    1.15289  0.0000E+00  0.4096E-13  0.8590E-16  0.1000E-09  0.0000E+00  0.5704E+16
   -0.374997    1.27856  0.0000E+00  0.4096E-13  0.8590E-16  0.1000E-09  0.0000E+00  0.5405E+16
   -0.412498    1.40354  0.0000E+00  0.4096E-13  0.8590E-16  0.1000E-09  0.0000E+00  0.5112E+16
   -0.450000    1.52785  0.0000E+00  0.4096E-13  0.8590E-16  0.1000E-09  0.0000E+00  0.4821E+16
   -0.487501    1.65140  0.0000E+00  0.4096E-13  0.8590E-16  0.1000E-09  0.0000E+00  0.4533E+16
   -0.525003    1.77412  0.0000E+00  0.4096E-13  0.8590E-16  0.1000E-09  0.0000E+00  0.4246E+16
   -0.562504    1.89583  0.0000E+00  0.4096E-13  0.8590E-16  0.1000E-09  0.0000E+00  0.3963E+16
   -0.600006    2.01645  0.0000E+00  0.4096E-13  0.8590E-16  0.1000E-09  0.0000E+00  0.3685E+16
   -0.637508    2.13588  0.0000E+00  0.4096E-13  0.8590E-16  0.1000E-09  0.0000E+00  0.3412E+16
   -0.675010    2.25403  0.0000E+00  0.4096E-13  0.8590E-16  0.1000E-09  0.0000E+00  0.3145E+16
   -0.712512    2.37078  0.0000E+00  0.4096E-13  0.8590E-16  0.1000E-09  0.0000E+00  0.2883E+16
   -0.750013    2.48603  0.0000E+00  0.4096E-13  0.8590E-16  0.1000E-09  0.0000E+00  0.2636E+16
   -0.787515    2.59997  0.0000E+00  0.4096E-13  0.8590E-16  0.1000E-09  0.0000E+00  0.2397E+16
   -0.825017    2.71261  0.0000E+00  0.4096E-13  0.8590E-16  0.1000E-09  0.0000E+00  0.2164E+16
   -0.862519    2.82383  0.0000E+00  0.4096E-13  0.8590E-16  0.1000E-09  0.0000E+00  0.1937E+16
   -0.900021    2.93353  0.0000E+00  0.1318E-12  0.8632E-16  0.1000E-09  0.0000E+00  0.1718E+16
   -0.937523    3.04160  0.0000E+00  0.3899E-12  0.1794E-15  0.1000E-09  0.0000E+00  0.1506E+16
   -0.975024    3.14791  0.0000E+00  0.9976E-12  0.4224E-15  0.1000E-09  0.0000E+00  0.1302E+16
   -1.012526    3.25234  0.0000E+00  0.2436E-11  0.9942E-15  0.1000E-09  0.0000E+00  0.1104E+16
   -1.050027    3.35439  0.0000E+00  0.5850E-11  0.2322E-14  0.1000E-09  0.0000E+00  0.9148E+15
   -1.087528    3.45377  0.0000E+00  0.1390E-10  0.5372E-14  0.1000E-09  0.0000E+00  0.7374E+15
   -1.125030    3.55022  0.0000E+00  0.3270E-10  0.1232E-13  0.1000E-09  0.0000E+00  0.5850E+15
   -1.162530    3.64581  0.0000E+00  0.7630E-10  0.2804E-13  0.1765E-09  0.0000E+00  0.4380E+15
   -1.200031    3.74079  0.0000E+00  0.1765E-09  0.6333E-13  0.5927E-09  0.0000E+00  0.2936E+15
   -1.237532    3.83494  0.0000E+00  0.4048E-09  0.1419E-12  0.2537E-08  0.0000E+00  0.1525E+15
   -1.275032    3.92730  0.0000E+00  0.9179E-09  0.3154E-12  0.3183E-07  0.0000E+00  0.2497E+14
   -1.312532    4.00369  0.0000E+00  0.1758E-08  0.6095E-12  0.2044E-05  0.0000E+00 -0.1929E+13
   -1.350031    4.00973  0.0000E+00  0.2181E-08  0.8457E-12  0.2161E-05  0.0000E+00 -0.2367E+13
   -1.387531    4.01548  0.0000E+00  0.2372E-08  0.1143E-11  0.1774E-05  0.0000E+00 -0.3547E+13
   -1.425030    4.02242  0.0000E+00  0.2257E-08  0.1653E-11  0.9960E-06  0.0000E+00 -0.7737E+13
   -1.462529    4.03419  0.0000E+00  0.1682E-08  0.3063E-11  0.2244E-06  0.0000E+00 -0.3856E+14
   -1.500027    4.07128  0.0000E+00  0.0000E+00  0.0000E+00  0.0000E+00  0.0000E+00  0.0000E+00
