 1 - depth, m
 2 - temperature, C
 3 - salinity, kg/kg
 4 - turbulent kinetic energy, m**2/s**2
 5 - dissipation rate, m**2/s**3
 6 - kinematic heat conductance, m**2/s
 7 - modulus of horizontal velocity, m/s
 8 - Richardson number, n/d
   -0.000000   11.26265  0.0000E+00  0.5352E-03  0.1623E-02  0.9227E-04  0.2798E+00  0.2396E-01
   -0.037497   11.32279  0.0000E+00  0.2837E-03  0.6759E-03  0.1612E-03  0.9218E-01 -0.5627E-01
   -0.074994   11.34610  0.0000E+00  0.1914E-03  0.2154E-03  0.2261E-03  0.5777E-01 -0.8328E-01
   -0.112492   11.35521  0.0000E+00  0.1511E-03  0.1252E-03  0.2400E-03  0.4596E-01 -0.1049E-01
   -0.149990   11.35964  0.0000E+00  0.1259E-03  0.8152E-04  0.2448E-03  0.3907E-01 -0.1233E-01
   -0.187488   11.36265  0.0000E+00  0.1076E-03  0.5560E-04  0.2524E-03  0.3407E-01 -0.1552E-01
   -0.224986   11.36503  0.0000E+00  0.9381E-04  0.3814E-04  0.2584E-03  0.3029E-01 -0.2592E-01
   -0.262485   11.36728  0.0000E+00  0.8255E-04  0.2618E-04  0.2694E-03  0.2690E-01 -0.4384E-01
   -0.299984   11.36918  0.0000E+00  0.7378E-04  0.1802E-04  0.2789E-03  0.2426E-01  0.1827E-01
   -0.337484   11.37088  0.0000E+00  0.6668E-04  0.1237E-04  0.2894E-03  0.2202E-01 -0.1965E-01
   -0.374983   11.37242  0.0000E+00  0.6080E-04  0.8456E-05  0.3008E-03  0.2007E-01  0.6198E-02
   -0.412483   11.37386  0.0000E+00  0.5592E-04  0.5776E-05  0.3148E-03  0.1835E-01  0.5967E+00
   -0.449982   11.37522  0.0000E+00  0.5159E-04  0.3949E-05  0.3226E-03  0.1672E-01  0.7877E+00
   -0.487482   11.37650  0.0000E+00  0.4797E-04  0.2724E-05  0.3301E-03  0.1533E-01  0.7715E+01
   -0.524982   11.37786  0.0000E+00  0.4451E-04  0.1894E-05  0.3506E-03  0.1382E-01  0.3363E+01
   -0.562483   11.37898  0.0000E+00  0.4156E-04  0.1341E-05  0.3732E-03  0.1272E-01  0.4631E+01
   -0.599983   11.38002  0.0000E+00  0.3894E-04  0.9759E-06  0.4100E-03  0.1172E-01  0.8097E+02
   -0.637483   11.38096  0.0000E+00  0.3659E-04  0.7349E-06  0.4376E-03  0.1082E-01  0.1926E+02
   -0.674984   11.38183  0.0000E+00  0.3447E-04  0.5747E-06  0.4622E-03  0.1000E-01  0.2655E+02
   -0.712484   11.38264  0.0000E+00  0.3253E-04  0.4650E-06  0.4872E-03  0.9251E-02  0.1346E+04
   -0.749985   11.38340  0.0000E+00  0.3075E-04  0.3865E-06  0.5143E-03  0.8554E-02  0.1382E+02
   -0.787485   11.38410  0.0000E+00  0.2910E-04  0.3286E-06  0.5362E-03  0.7910E-02  0.6811E+01
   -0.824986   11.38478  0.0000E+00  0.2757E-04  0.2845E-06  0.5528E-03  0.7310E-02  0.1368E+02
   -0.862486   11.38540  0.0000E+00  0.2614E-04  0.2493E-06  0.5679E-03  0.6751E-02  0.2249E+02
   -0.899986   11.38603  0.0000E+00  0.2478E-04  0.2206E-06  0.5825E-03  0.6224E-02  0.4849E+02
   -0.937487   11.38662  0.0000E+00  0.2350E-04  0.1967E-06  0.5918E-03  0.5726E-02  0.8237E+01
   -0.974987   11.38721  0.0000E+00  0.2227E-04  0.1766E-06  0.5988E-03  0.5250E-02  0.6998E+01
   -1.012487   11.38778  0.0000E+00  0.2108E-04  0.1596E-06  0.6074E-03  0.4796E-02  0.1076E+02
   -1.049987   11.38834  0.0000E+00  0.1993E-04  0.1451E-06  0.6153E-03  0.4372E-02  0.2083E+02
   -1.087487   11.38889  0.0000E+00  0.1880E-04  0.1327E-06  0.6184E-03  0.3976E-02  0.9867E+01
   -1.124986   11.38944  0.0000E+00  0.1768E-04  0.1222E-06  0.6099E-03  0.3604E-02  0.1421E+02
   -1.162486   11.38999  0.0000E+00  0.1658E-04  0.1135E-06  0.5915E-03  0.3255E-02  0.8297E+01
   -1.199985   11.39056  0.0000E+00  0.1549E-04  0.1069E-06  0.5594E-03  0.2925E-02  0.6810E+01
   -1.237484   11.39116  0.0000E+00  0.1440E-04  0.1025E-06  0.5114E-03  0.2612E-02  0.1336E+02
   -1.274983   11.39182  0.0000E+00  0.1329E-04  0.1011E-06  0.4539E-03  0.2316E-02  0.1687E+02
   -1.312481   11.39257  0.0000E+00  0.1211E-04  0.1044E-06  0.3929E-03  0.2047E-02  0.4002E+04
   -1.349980   11.39346  0.0000E+00  0.1080E-04  0.1165E-06  0.3151E-03  0.1799E-02  0.2667E+03
   -1.387478   11.39465  0.0000E+00  0.9250E-05  0.1472E-06  0.2401E-03  0.1558E-02  0.6514E+02
   -1.424975   11.39616  0.0000E+00  0.7241E-05  0.2332E-06  0.1349E-03  0.1318E-02  0.5653E+03
   -1.462472   11.39998  0.0000E+00  0.4163E-05  0.5154E-06  0.3703E-04  0.1057E-02 -0.7208E+05
   -1.499969   11.41406  0.0000E+00  0.0000E+00  0.0000E+00  0.0000E+00  0.1199E-02  0.0000E+00
