 1 - depth, m
 2 - temperature, C
 3 - salinity, kg/kg
 4 - turbulent kinetic energy, m**2/s**2
 5 - dissipation rate, m**2/s**3
 6 - kinematic heat conductance, m**2/s
 7 - modulus of horizontal velocity, m/s
 8 - Richardson number, n/d
   -0.000000    0.00000  0.0000E+00  0.4096E-13  0.8590E-16  0.1000E-09  0.0000E+00  0.1359E+17
   -0.037500    0.20982  0.0000E+00  0.4096E-13  0.8590E-16  0.1000E-09  0.0000E+00  0.1262E+17
   -0.075000    0.41631  0.0000E+00  0.4096E-13  0.8590E-16  0.1000E-09  0.0000E+00  0.1166E+17
   -0.112501    0.61918  0.0000E+00  0.4096E-13  0.8590E-16  0.1000E-09  0.0000E+00  0.1074E+17
   -0.150002    0.81811  0.0000E+00  0.4096E-13  0.8590E-16  0.1000E-09  0.0000E+00  0.9841E+16
   -0.187503    1.01273  0.0000E+00  0.4096E-13  0.8590E-16  0.1000E-09  0.0000E+00  0.8974E+16
   -0.225005    1.20267  0.0000E+00  0.4096E-13  0.8590E-16  0.1000E-09  0.0000E+00  0.8140E+16
   -0.262506    1.38754  0.0000E+00  0.1277E-12  0.8590E-16  0.1000E-09  0.0000E+00  0.7330E+16
   -0.300008    1.56663  0.0000E+00  0.3788E-12  0.9772E-16  0.1000E-09  0.0000E+00  0.6559E+16
   -0.337511    1.73946  0.0000E+00  0.8194E-12  0.1551E-15  0.1000E-09  0.0000E+00  0.5832E+16
   -0.375013    1.90562  0.0000E+00  0.1561E-11  0.2653E-15  0.1000E-09  0.0000E+00  0.5218E+16
   -0.412516    2.06690  0.0000E+00  0.2819E-11  0.4572E-15  0.1000E-09  0.0000E+00  0.4675E+16
   -0.450019    2.22434  0.0000E+00  0.4967E-11  0.7839E-15  0.1000E-09  0.0000E+00  0.4159E+16
   -0.487522    2.37769  0.0000E+00  0.8641E-11  0.1336E-14  0.1000E-09  0.0000E+00  0.3671E+16
   -0.525025    2.52675  0.0000E+00  0.1493E-10  0.2266E-14  0.1000E-09  0.0000E+00  0.3211E+16
   -0.562528    2.67128  0.0000E+00  0.2568E-10  0.3827E-14  0.1000E-09  0.0000E+00  0.2783E+16
   -0.600031    2.81114  0.0000E+00  0.4396E-10  0.6440E-14  0.1000E-09  0.0000E+00  0.2385E+16
   -0.637535    2.94621  0.0000E+00  0.7495E-10  0.1079E-13  0.1000E-09  0.0000E+00  0.2020E+16
   -0.675038    3.07643  0.0000E+00  0.1273E-09  0.1802E-13  0.1000E-09  0.0000E+00  0.1686E+16
   -0.712542    3.20178  0.0000E+00  0.2153E-09  0.2998E-13  0.1000E-09  0.0000E+00  0.1384E+16
   -0.750045    3.32235  0.0000E+00  0.3628E-09  0.4969E-13  0.1219E-09  0.0000E+00  0.1131E+16
   -0.787549    3.44058  0.0000E+00  0.6091E-09  0.8205E-13  0.2531E-09  0.0000E+00  0.8996E+15
   -0.825052    3.55752  0.0000E+00  0.1019E-08  0.1350E-12  0.5529E-09  0.0000E+00  0.6777E+15
   -0.862555    3.67349  0.0000E+00  0.1697E-08  0.2213E-12  0.1328E-08  0.0000E+00  0.4623E+15
   -0.900059    3.78863  0.0000E+00  0.2814E-08  0.3612E-12  0.3989E-08  0.0000E+00  0.2511E+15
   -0.937562    3.90203  0.0000E+00  0.4595E-08  0.5816E-12  0.2951E-07  0.0000E+00  0.5435E+14
   -0.975065    3.99931  0.0000E+00  0.5280E-08  0.6719E-12  0.1458E-04  0.0000E+00 -0.2421E+12
   -1.012569    4.00045  0.0000E+00  0.5619E-08  0.7258E-12  0.1553E-04  0.0000E+00 -0.2533E+12
   -1.050071    4.00155  0.0000E+00  0.5921E-08  0.7837E-12  0.1621E-04  0.0000E+00 -0.2683E+12
   -1.087574    4.00263  0.0000E+00  0.6184E-08  0.8466E-12  0.1660E-04  0.0000E+00 -0.2889E+12
   -1.125077    4.00372  0.0000E+00  0.6409E-08  0.9160E-12  0.1643E-04  0.0000E+00 -0.3144E+12
   -1.162579    4.00484  0.0000E+00  0.6595E-08  0.9945E-12  0.1590E-04  0.0000E+00 -0.3488E+12
   -1.200082    4.00601  0.0000E+00  0.6737E-08  0.1086E-11  0.1502E-04  0.0000E+00 -0.3964E+12
   -1.237584    4.00725  0.0000E+00  0.6829E-08  0.1196E-11  0.1380E-04  0.0000E+00 -0.4647E+12
   -1.275086    4.00862  0.0000E+00  0.6860E-08  0.1338E-11  0.1223E-04  0.0000E+00 -0.5708E+12
   -1.312587    4.01020  0.0000E+00  0.6809E-08  0.1534E-11  0.1023E-04  0.0000E+00 -0.7503E+12
   -1.350088    4.01213  0.0000E+00  0.6634E-08  0.1830E-11  0.7823E-05  0.0000E+00 -0.1100E+13
   -1.387589    4.01472  0.0000E+00  0.6243E-08  0.2346E-11  0.5070E-05  0.0000E+00 -0.1966E+13
   -1.425090    4.01884  0.0000E+00  0.5409E-08  0.3513E-11  0.2283E-05  0.0000E+00 -0.5446E+13
   -1.462590    4.02818  0.0000E+00  0.3692E-08  0.7624E-11  0.4003E-06  0.0000E+00 -0.4560E+14
   -1.500090    4.07338  0.0000E+00  0.0000E+00  0.0000E+00  0.0000E+00  0.0000E+00  0.0000E+00
