 1 - depth, m
 2 - temperature, C
 3 - salinity, kg/kg
 4 - turbulent kinetic energy, m**2/s**2
 5 - dissipation rate, m**2/s**3
 6 - kinematic heat conductance, m**2/s
 7 - modulus of horizontal velocity, m/s
 8 - Richardson number, n/d
   -0.000000   15.36286  0.0000E+00  0.6481E-04  0.2044E-04  0.4269E-04  0.6632E-01 -0.3475E-01
   -0.037494   15.39661  0.0000E+00  0.4006E-04  0.6297E-05  0.5971E-04  0.2899E-01 -0.4695E-01
   -0.074988   15.40416  0.0000E+00  0.3148E-04  0.2771E-05  0.7589E-04  0.2231E-01 -0.2798E-01
   -0.112483   15.40907  0.0000E+00  0.2643E-04  0.1505E-05  0.9128E-04  0.1853E-01 -0.3343E-01
   -0.149978   15.41285  0.0000E+00  0.2293E-04  0.8762E-06  0.1069E-03  0.1575E-01 -0.4442E-01
   -0.187473   15.41597  0.0000E+00  0.2033E-04  0.5390E-06  0.1225E-03  0.1356E-01 -0.5668E-01
   -0.224968   15.41864  0.0000E+00  0.1829E-04  0.3515E-06  0.1382E-03  0.1176E-01 -0.7004E-01
   -0.262464   15.42098  0.0000E+00  0.1662E-04  0.2440E-06  0.1581E-03  0.1026E-01 -0.4872E-01
   -0.299960   15.42300  0.0000E+00  0.1526E-04  0.1798E-06  0.2158E-03  0.9012E-02  0.4474E+02
   -0.337456   15.42465  0.0000E+00  0.1413E-04  0.1389E-06  0.2461E-03  0.7984E-02  0.3869E+02
   -0.374953   15.42608  0.0000E+00  0.1318E-04  0.1113E-06  0.2911E-03  0.7104E-02  0.3565E+02
   -0.412449   15.42730  0.0000E+00  0.1239E-04  0.9142E-07  0.3398E-03  0.6353E-02  0.3655E+02
   -0.449946   15.42834  0.0000E+00  0.1172E-04  0.7669E-07  0.4095E-03  0.5699E-02  0.5958E+03
   -0.487443   15.42918  0.0000E+00  0.1115E-04  0.6548E-07  0.4864E-03  0.5127E-02  0.5453E+02
   -0.524940   15.42986  0.0000E+00  0.1064E-04  0.5657E-07  0.5114E-03  0.4615E-02  0.1835E+02
   -0.562437   15.43047  0.0000E+00  0.1019E-04  0.4927E-07  0.5283E-03  0.4146E-02  0.8101E+01
   -0.599934   15.43104  0.0000E+00  0.9774E-05  0.4324E-07  0.5386E-03  0.3718E-02  0.2176E+02
   -0.637432   15.43159  0.0000E+00  0.9395E-05  0.3819E-07  0.5474E-03  0.3326E-02  0.4067E+01
   -0.674929   15.43214  0.0000E+00  0.9043E-05  0.3393E-07  0.5546E-03  0.2967E-02  0.3489E+01
   -0.712426   15.43267  0.0000E+00  0.8715E-05  0.3032E-07  0.5619E-03  0.2637E-02  0.3227E+01
   -0.749924   15.43320  0.0000E+00  0.8405E-05  0.2726E-07  0.5689E-03  0.2335E-02  0.2973E+01
   -0.787421   15.43373  0.0000E+00  0.8110E-05  0.2466E-07  0.5757E-03  0.2058E-02  0.2762E+01
   -0.824919   15.43425  0.0000E+00  0.7825E-05  0.2247E-07  0.5818E-03  0.1805E-02  0.2580E+01
   -0.862416   15.43478  0.0000E+00  0.7549E-05  0.2062E-07  0.5871E-03  0.1574E-02  0.2418E+01
   -0.899913   15.43530  0.0000E+00  0.7278E-05  0.1910E-07  0.5912E-03  0.1364E-02  0.2273E+01
   -0.937411   15.43582  0.0000E+00  0.7010E-05  0.1786E-07  0.5942E-03  0.1173E-02  0.2141E+01
   -0.974908   15.43635  0.0000E+00  0.6743E-05  0.1689E-07  0.5963E-03  0.1001E-02  0.2022E+01
   -1.012405   15.43688  0.0000E+00  0.6479E-05  0.1616E-07  0.6063E-03  0.8466E-03  0.1810E+01
   -1.049902   15.43741  0.0000E+00  0.6221E-05  0.1569E-07  0.6237E-03  0.7135E-03  0.1620E+01
   -1.087399   15.43792  0.0000E+00  0.5972E-05  0.1544E-07  0.6360E-03  0.6014E-03  0.1458E+01
   -1.124895   15.43844  0.0000E+00  0.5737E-05  0.1540E-07  0.6234E-03  0.5082E-03  0.1310E+01
   -1.162392   15.43897  0.0000E+00  0.5518E-05  0.1557E-07  0.5784E-03  0.4317E-03  0.1169E+01
   -1.199888   15.43954  0.0000E+00  0.5318E-05  0.1593E-07  0.5231E-03  0.3694E-03  0.1039E+01
   -1.237384   15.44019  0.0000E+00  0.5133E-05  0.1646E-07  0.4758E-03  0.3191E-03  0.9825E+00
   -1.274879   15.44091  0.0000E+00  0.4951E-05  0.1724E-07  0.4324E-03  0.2787E-03  0.1203E+01
   -1.312375   15.44171  0.0000E+00  0.4743E-05  0.1847E-07  0.3832E-03  0.2449E-03  0.2108E+01
   -1.349870   15.44262  0.0000E+00  0.4486E-05  0.2057E-07  0.3040E-03  0.2137E-03  0.4793E+01
   -1.387365   15.44380  0.0000E+00  0.4152E-05  0.2442E-07  0.2650E-03  0.1833E-03  0.1260E+02
   -1.424860   15.44516  0.0000E+00  0.3588E-05  0.3580E-07  0.1305E-03  0.1582E-03  0.1590E+04
   -1.462354   15.45045  0.0000E+00  0.2146E-05  0.8821E-07  0.3001E-04  0.1231E-03 -0.5508E+04
   -1.499848   15.46424  0.0000E+00  0.0000E+00  0.0000E+00  0.0000E+00  0.1298E-03  0.0000E+00
