 1 - depth, m
 2 - temperature, C
 3 - salinity, kg/kg
 4 - turbulent kinetic energy, m**2/s**2
 5 - dissipation rate, m**2/s**3
 6 - kinematic heat conductance, m**2/s
 7 - modulus of horizontal velocity, m/s
 8 - Richardson number, n/d
   -0.000000    0.00000  0.0000E+00  0.4096E-13  0.8590E-16  0.1000E-09  0.0000E+00  0.8891E+16
   -0.037495    0.13585  0.0000E+00  0.4096E-13  0.8590E-16  0.1000E-09  0.0000E+00  0.8564E+16
   -0.074991    0.27171  0.0000E+00  0.4096E-13  0.8590E-16  0.1000E-09  0.0000E+00  0.8233E+16
   -0.112487    0.40751  0.0000E+00  0.4096E-13  0.8590E-16  0.1000E-09  0.0000E+00  0.7900E+16
   -0.149984    0.54316  0.0000E+00  0.4096E-13  0.8590E-16  0.1000E-09  0.0000E+00  0.7566E+16
   -0.187480    0.67860  0.0000E+00  0.4096E-13  0.8590E-16  0.1000E-09  0.0000E+00  0.7230E+16
   -0.224977    0.81373  0.0000E+00  0.4096E-13  0.8590E-16  0.1000E-09  0.0000E+00  0.6894E+16
   -0.262475    0.94849  0.0000E+00  0.4096E-13  0.8590E-16  0.1000E-09  0.0000E+00  0.6553E+16
   -0.299972    1.08269  0.0000E+00  0.4096E-13  0.8590E-16  0.1000E-09  0.0000E+00  0.6213E+16
   -0.337470    1.21623  0.0000E+00  0.4096E-13  0.8590E-16  0.1000E-09  0.0000E+00  0.5875E+16
   -0.374968    1.34902  0.0000E+00  0.4096E-13  0.8590E-16  0.1000E-09  0.0000E+00  0.5545E+16
   -0.412466    1.48109  0.0000E+00  0.4096E-13  0.8590E-16  0.1000E-09  0.0000E+00  0.5221E+16
   -0.449964    1.61243  0.0000E+00  0.4096E-13  0.8590E-16  0.1000E-09  0.0000E+00  0.4899E+16
   -0.487463    1.74296  0.0000E+00  0.4096E-13  0.8590E-16  0.1000E-09  0.0000E+00  0.4580E+16
   -0.524961    1.87253  0.0000E+00  0.4096E-13  0.8590E-16  0.1000E-09  0.0000E+00  0.4261E+16
   -0.562460    2.00096  0.0000E+00  0.4096E-13  0.8590E-16  0.1000E-09  0.0000E+00  0.3948E+16
   -0.599959    2.12812  0.0000E+00  0.4096E-13  0.8590E-16  0.1000E-09  0.0000E+00  0.3640E+16
   -0.637458    2.25388  0.0000E+00  0.4096E-13  0.8590E-16  0.1000E-09  0.0000E+00  0.3339E+16
   -0.674956    2.37811  0.0000E+00  0.4096E-13  0.8590E-16  0.1000E-09  0.0000E+00  0.3045E+16
   -0.712455    2.50068  0.0000E+00  0.4386E-13  0.8590E-16  0.1000E-09  0.0000E+00  0.2758E+16
   -0.749954    2.62146  0.0000E+00  0.2066E-12  0.9306E-16  0.1000E-09  0.0000E+00  0.2489E+16
   -0.787453    2.74069  0.0000E+00  0.5507E-12  0.1773E-15  0.1000E-09  0.0000E+00  0.2230E+16
   -0.824952    2.85839  0.0000E+00  0.1242E-11  0.3652E-15  0.1000E-09  0.0000E+00  0.1978E+16
   -0.862451    2.97445  0.0000E+00  0.2647E-11  0.7494E-15  0.1000E-09  0.0000E+00  0.1735E+16
   -0.899950    3.08873  0.0000E+00  0.5521E-11  0.1522E-14  0.1000E-09  0.0000E+00  0.1501E+16
   -0.937449    3.20111  0.0000E+00  0.1138E-10  0.3064E-14  0.1000E-09  0.0000E+00  0.1277E+16
   -0.974947    3.31146  0.0000E+00  0.2327E-10  0.6123E-14  0.1000E-09  0.0000E+00  0.1062E+16
   -1.012446    3.41963  0.0000E+00  0.4732E-10  0.1218E-13  0.1000E-09  0.0000E+00  0.8560E+15
   -1.049944    3.52510  0.0000E+00  0.9589E-10  0.2414E-13  0.1027E-09  0.0000E+00  0.6622E+15
   -1.087443    3.62753  0.0000E+00  0.1933E-09  0.4760E-13  0.2735E-09  0.0000E+00  0.4820E+15
   -1.124941    3.72654  0.0000E+00  0.3872E-09  0.9336E-13  0.7969E-09  0.0000E+00  0.3241E+15
   -1.162439    3.82432  0.0000E+00  0.7706E-09  0.1820E-12  0.2926E-08  0.0000E+00  0.1716E+15
   -1.199937    3.92022  0.0000E+00  0.1506E-08  0.3491E-12  0.2898E-07  0.0000E+00  0.3256E+14
   -1.237434    4.00111  0.0000E+00  0.2317E-08  0.5397E-12  0.3959E-05  0.0000E+00 -0.8649E+12
   -1.274931    4.00447  0.0000E+00  0.2720E-08  0.6705E-12  0.4295E-05  0.0000E+00 -0.9612E+12
   -1.312428    4.00759  0.0000E+00  0.2998E-08  0.8170E-12  0.4155E-05  0.0000E+00 -0.1159E+13
   -1.349925    4.01082  0.0000E+00  0.3142E-08  0.1004E-11  0.3561E-05  0.0000E+00 -0.1564E+13
   -1.387421    4.01460  0.0000E+00  0.3108E-08  0.1290E-11  0.2546E-05  0.0000E+00 -0.2554E+13
   -1.424917    4.01988  0.0000E+00  0.2779E-08  0.1859E-11  0.1264E-05  0.0000E+00 -0.6218E+13
   -1.462413    4.03014  0.0000E+00  0.1968E-08  0.3600E-11  0.2502E-06  0.0000E+00 -0.3726E+14
   -1.499909    4.06805  0.0000E+00  0.0000E+00  0.0000E+00  0.0000E+00  0.0000E+00  0.0000E+00
