 1 - depth, m
 2 - temperature, C
 3 - salinity, kg/kg
 4 - turbulent kinetic energy, m**2/s**2
 5 - dissipation rate, m**2/s**3
 6 - kinematic heat conductance, m**2/s
 7 - modulus of horizontal velocity, m/s
 8 - Richardson number, n/d
   -0.000000   17.22446  0.0000E+00  0.5319E-04  0.1559E-04  0.3585E-04  0.5481E-01 -0.6482E-01
   -0.037494   17.25783  0.0000E+00  0.3434E-04  0.3977E-05  0.5620E-04  0.2580E-01 -0.2337E-01
   -0.074989   17.26672  0.0000E+00  0.2758E-04  0.1794E-05  0.7709E-04  0.1971E-01 -0.3536E-01
   -0.112484   17.27233  0.0000E+00  0.2363E-04  0.9972E-06  0.9568E-04  0.1628E-01 -0.5010E-01
   -0.149979   17.27655  0.0000E+00  0.2084E-04  0.6130E-06  0.1147E-03  0.1380E-01 -0.6787E-01
   -0.187474   17.27992  0.0000E+00  0.1874E-04  0.4053E-06  0.1348E-03  0.1187E-01 -0.8602E-01
   -0.224970   17.28272  0.0000E+00  0.1709E-04  0.2845E-06  0.1621E-03  0.1033E-01  0.8655E-02
   -0.262466   17.28504  0.0000E+00  0.1577E-04  0.2099E-06  0.2206E-03  0.9073E-02  0.1070E+03
   -0.299962   17.28692  0.0000E+00  0.1472E-04  0.1617E-06  0.2779E-03  0.8057E-02  0.5405E+01
   -0.337459   17.28844  0.0000E+00  0.1389E-04  0.1294E-06  0.4145E-03  0.7213E-02  0.8320E+02
   -0.374956   17.28953  0.0000E+00  0.1325E-04  0.1068E-06  0.4680E-03  0.6519E-02  0.1224E+03
   -0.412452   17.29040  0.0000E+00  0.1271E-04  0.9008E-07  0.5054E-03  0.5894E-02  0.4618E+02
   -0.449949   17.29116  0.0000E+00  0.1227E-04  0.7727E-07  0.5246E-03  0.5327E-02  0.5669E+02
   -0.487447   17.29185  0.0000E+00  0.1188E-04  0.6711E-07  0.5425E-03  0.4804E-02  0.3986E+02
   -0.524944   17.29251  0.0000E+00  0.1154E-04  0.5885E-07  0.5589E-03  0.4322E-02  0.1299E+02
   -0.562441   17.29315  0.0000E+00  0.1123E-04  0.5201E-07  0.5746E-03  0.3880E-02  0.5653E+01
   -0.599939   17.29378  0.0000E+00  0.1094E-04  0.4629E-07  0.5905E-03  0.3474E-02  0.5311E+01
   -0.637437   17.29440  0.0000E+00  0.1068E-04  0.4148E-07  0.6073E-03  0.3101E-02  0.4112E+01
   -0.674934   17.29501  0.0000E+00  0.1043E-04  0.3743E-07  0.6248E-03  0.2758E-02  0.3786E+01
   -0.712432   17.29561  0.0000E+00  0.1019E-04  0.3401E-07  0.6423E-03  0.2443E-02  0.3183E+01
   -0.749930   17.29621  0.0000E+00  0.9962E-05  0.3115E-07  0.6591E-03  0.2155E-02  0.2884E+01
   -0.787428   17.29679  0.0000E+00  0.9732E-05  0.2877E-07  0.6743E-03  0.1892E-02  0.2646E+01
   -0.824925   17.29738  0.0000E+00  0.9500E-05  0.2682E-07  0.6875E-03  0.1652E-02  0.2437E+01
   -0.862423   17.29797  0.0000E+00  0.9264E-05  0.2525E-07  0.6988E-03  0.1436E-02  0.2256E+01
   -0.899921   17.29856  0.0000E+00  0.9021E-05  0.2404E-07  0.7089E-03  0.1242E-02  0.2098E+01
   -0.937418   17.29916  0.0000E+00  0.8770E-05  0.2315E-07  0.7188E-03  0.1069E-02  0.1959E+01
   -0.974916   17.29976  0.0000E+00  0.8512E-05  0.2256E-07  0.7309E-03  0.9149E-03  0.1839E+01
   -1.012413   17.30037  0.0000E+00  0.8248E-05  0.2225E-07  0.7548E-03  0.7784E-03  0.1665E+01
   -1.049910   17.30098  0.0000E+00  0.7984E-05  0.2219E-07  0.7512E-03  0.6624E-03  0.1505E+01
   -1.087407   17.30160  0.0000E+00  0.7725E-05  0.2238E-07  0.7270E-03  0.5658E-03  0.1362E+01
   -1.124904   17.30225  0.0000E+00  0.7475E-05  0.2280E-07  0.6897E-03  0.4859E-03  0.1233E+01
   -1.162401   17.30294  0.0000E+00  0.7237E-05  0.2343E-07  0.6440E-03  0.4205E-03  0.1115E+01
   -1.199897   17.30371  0.0000E+00  0.7012E-05  0.2429E-07  0.5941E-03  0.3671E-03  0.1080E+01
   -1.237394   17.30455  0.0000E+00  0.6792E-05  0.2544E-07  0.5418E-03  0.3233E-03  0.1266E+01
   -1.274890   17.30550  0.0000E+00  0.6556E-05  0.2710E-07  0.4807E-03  0.2858E-03  0.1835E+01
   -1.312385   17.30660  0.0000E+00  0.6277E-05  0.2964E-07  0.4225E-03  0.2529E-03  0.3469E+01
   -1.349881   17.30788  0.0000E+00  0.5915E-05  0.3403E-07  0.3197E-03  0.2228E-03  0.8427E+01
   -1.387376   17.30969  0.0000E+00  0.5432E-05  0.4198E-07  0.2918E-03  0.1907E-03  0.8854E+02
   -1.424871   17.31163  0.0000E+00  0.4600E-05  0.6563E-07  0.1248E-03  0.1662E-03  0.5904E+03
   -1.462365   17.32090  0.0000E+00  0.2786E-05  0.1607E-06  0.4166E-04  0.1260E-03 -0.3538E+04
   -1.499860   17.33666  0.0000E+00  0.0000E+00  0.0000E+00  0.0000E+00  0.1375E-03  0.0000E+00
