 1 - depth, m
 2 - temperature, C
 3 - salinity, kg/kg
 4 - turbulent kinetic energy, m**2/s**2
 5 - dissipation rate, m**2/s**3
 6 - kinematic heat conductance, m**2/s
 7 - modulus of horizontal velocity, m/s
 8 - Richardson number, n/d
   -0.000000    0.00000  0.0000E+00  0.4096E-13  0.8590E-16  0.1000E-09  0.0000E+00  0.8545E+16
   -0.037500    0.13046  0.0000E+00  0.4096E-13  0.8590E-16  0.1000E-09  0.0000E+00  0.8230E+16
   -0.075000    0.26072  0.0000E+00  0.4096E-13  0.8590E-16  0.1000E-09  0.0000E+00  0.7914E+16
   -0.112500    0.39072  0.0000E+00  0.4096E-13  0.8590E-16  0.1000E-09  0.0000E+00  0.7598E+16
   -0.150001    0.52041  0.0000E+00  0.4096E-13  0.8590E-16  0.1000E-09  0.0000E+00  0.7283E+16
   -0.187502    0.64974  0.0000E+00  0.4096E-13  0.8590E-16  0.1000E-09  0.0000E+00  0.6968E+16
   -0.225003    0.77864  0.0000E+00  0.4096E-13  0.8590E-16  0.1000E-09  0.0000E+00  0.6655E+16
   -0.262505    0.90707  0.0000E+00  0.4096E-13  0.8590E-16  0.1000E-09  0.0000E+00  0.6341E+16
   -0.300007    1.03490  0.0000E+00  0.4096E-13  0.8590E-16  0.1000E-09  0.0000E+00  0.6027E+16
   -0.337509    1.16205  0.0000E+00  0.4096E-13  0.8590E-16  0.1000E-09  0.0000E+00  0.5717E+16
   -0.375011    1.28845  0.0000E+00  0.4096E-13  0.8590E-16  0.1000E-09  0.0000E+00  0.5415E+16
   -0.412514    1.41416  0.0000E+00  0.4096E-13  0.8590E-16  0.1000E-09  0.0000E+00  0.5119E+16
   -0.450016    1.53919  0.0000E+00  0.4096E-13  0.8590E-16  0.1000E-09  0.0000E+00  0.4825E+16
   -0.487519    1.66348  0.0000E+00  0.4096E-13  0.8590E-16  0.1000E-09  0.0000E+00  0.4534E+16
   -0.525022    1.78692  0.0000E+00  0.4096E-13  0.8590E-16  0.1000E-09  0.0000E+00  0.4244E+16
   -0.562525    1.90936  0.0000E+00  0.4096E-13  0.8590E-16  0.1000E-09  0.0000E+00  0.3959E+16
   -0.600028    2.03071  0.0000E+00  0.4096E-13  0.8590E-16  0.1000E-09  0.0000E+00  0.3678E+16
   -0.637531    2.15087  0.0000E+00  0.4096E-13  0.8590E-16  0.1000E-09  0.0000E+00  0.3402E+16
   -0.675035    2.26974  0.0000E+00  0.4096E-13  0.8590E-16  0.1000E-09  0.0000E+00  0.3133E+16
   -0.712538    2.38721  0.0000E+00  0.4096E-13  0.8590E-16  0.1000E-09  0.0000E+00  0.2869E+16
   -0.750041    2.50317  0.0000E+00  0.4096E-13  0.8590E-16  0.1000E-09  0.0000E+00  0.2619E+16
   -0.787545    2.61781  0.0000E+00  0.4096E-13  0.8590E-16  0.1000E-09  0.0000E+00  0.2378E+16
   -0.825048    2.73113  0.0000E+00  0.4096E-13  0.8590E-16  0.1000E-09  0.0000E+00  0.2142E+16
   -0.862551    2.84302  0.0000E+00  0.4096E-13  0.8590E-16  0.1000E-09  0.0000E+00  0.1914E+16
   -0.900054    2.95335  0.0000E+00  0.1709E-12  0.9867E-16  0.1000E-09  0.0000E+00  0.1692E+16
   -0.937557    3.06201  0.0000E+00  0.4928E-12  0.2159E-15  0.1000E-09  0.0000E+00  0.1478E+16
   -0.975060    3.16886  0.0000E+00  0.1236E-11  0.5052E-15  0.1000E-09  0.0000E+00  0.1272E+16
   -1.012563    3.27374  0.0000E+00  0.2974E-11  0.1175E-14  0.1000E-09  0.0000E+00  0.1072E+16
   -1.050066    3.37615  0.0000E+00  0.7050E-11  0.2710E-14  0.1000E-09  0.0000E+00  0.8822E+15
   -1.087569    3.47577  0.0000E+00  0.1654E-10  0.6198E-14  0.1000E-09  0.0000E+00  0.7042E+15
   -1.125071    3.57231  0.0000E+00  0.3847E-10  0.1406E-13  0.1000E-09  0.0000E+00  0.5512E+15
   -1.162574    3.66782  0.0000E+00  0.8874E-10  0.3165E-13  0.2158E-09  0.0000E+00  0.4039E+15
   -1.200076    3.76251  0.0000E+00  0.2030E-09  0.7070E-13  0.7459E-09  0.0000E+00  0.2602E+15
   -1.237577    3.85609  0.0000E+00  0.4603E-09  0.1567E-12  0.3517E-08  0.0000E+00  0.1210E+15
   -1.275079    3.94710  0.0000E+00  0.1019E-08  0.3409E-12  0.8178E-07  0.0000E+00  0.9126E+13
   -1.312580    4.00581  0.0000E+00  0.1866E-08  0.6427E-12  0.2234E-05  0.0000E+00 -0.1922E+13
   -1.350081    4.01132  0.0000E+00  0.2287E-08  0.8824E-12  0.2292E-05  0.0000E+00 -0.2351E+13
   -1.387582    4.01674  0.0000E+00  0.2468E-08  0.1184E-11  0.1856E-05  0.0000E+00 -0.3514E+13
   -1.425083    4.02338  0.0000E+00  0.2335E-08  0.1704E-11  0.1031E-05  0.0000E+00 -0.7668E+13
   -1.462583    4.03483  0.0000E+00  0.1729E-08  0.3159E-11  0.2287E-06  0.0000E+00 -0.3867E+14
   -1.500082    4.07172  0.0000E+00  0.0000E+00  0.0000E+00  0.0000E+00  0.0000E+00  0.0000E+00
