 1 - depth, m
 2 - temperature, C
 3 - salinity, kg/kg
 4 - turbulent kinetic energy, m**2/s**2
 5 - dissipation rate, m**2/s**3
 6 - kinematic heat conductance, m**2/s
 7 - modulus of horizontal velocity, m/s
 8 - Richardson number, n/d
   -0.000000    0.00000  0.0000E+00  0.5250E-12  0.1776E-15  0.1000E-09  0.0000E+00  0.1756E+17
   -0.037499    0.27348  0.0000E+00  0.8115E-12  0.1866E-15  0.1000E-09  0.0000E+00  0.1566E+17
   -0.074998    0.53679  0.0000E+00  0.1429E-11  0.2488E-15  0.1000E-09  0.0000E+00  0.1369E+17
   -0.112498    0.78576  0.0000E+00  0.2491E-11  0.3750E-15  0.1000E-09  0.0000E+00  0.1179E+17
   -0.149998    1.01786  0.0000E+00  0.4215E-11  0.5929E-15  0.1000E-09  0.0000E+00  0.1006E+17
   -0.187499    1.23221  0.0000E+00  0.6972E-11  0.9433E-15  0.1000E-09  0.0000E+00  0.8564E+16
   -0.224999    1.42938  0.0000E+00  0.1134E-10  0.1492E-14  0.1000E-09  0.0000E+00  0.7308E+16
   -0.262500    1.61112  0.0000E+00  0.1824E-10  0.2340E-14  0.1000E-09  0.0000E+00  0.6278E+16
   -0.300001    1.77967  0.0000E+00  0.2901E-10  0.3634E-14  0.1000E-09  0.0000E+00  0.5470E+16
   -0.337503    1.93828  0.0000E+00  0.4570E-10  0.5585E-14  0.1000E-09  0.0000E+00  0.4859E+16
   -0.375004    2.09073  0.0000E+00  0.7124E-10  0.8491E-14  0.1000E-09  0.0000E+00  0.4534E+16
   -0.412506    2.24542  0.0000E+00  0.1099E-09  0.1276E-13  0.1000E-09  0.0000E+00  0.4358E+16
   -0.450008    2.40877  0.0000E+00  0.1676E-09  0.1894E-13  0.1000E-09  0.0000E+00  0.4178E+16
   -0.487510    2.58356  0.0000E+00  0.2528E-09  0.2777E-13  0.1001E-09  0.0000E+00  0.3927E+16
   -0.525012    2.77101  0.0000E+00  0.3769E-09  0.4019E-13  0.1030E-09  0.0000E+00  0.3549E+16
   -0.562514    2.97033  0.0000E+00  0.5552E-09  0.5741E-13  0.1111E-09  0.0000E+00  0.2999E+16
   -0.600017    3.17711  0.0000E+00  0.8075E-09  0.8088E-13  0.1337E-09  0.0000E+00  0.2293E+16
   -0.637519    3.38329  0.0000E+00  0.1159E-08  0.1123E-12  0.2114E-09  0.0000E+00  0.1519E+16
   -0.675022    3.57711  0.0000E+00  0.1639E-08  0.1537E-12  0.6536E-09  0.0000E+00  0.8196E+15
   -0.712525    3.74374  0.0000E+00  0.2173E-08  0.1983E-12  0.3094E-06  0.0000E+00  0.3598E+15
   -0.750027    3.85857  0.0000E+00  0.2692E-08  0.2425E-12  0.1760E-05  0.0000E+00  0.1403E+15
   -0.787530    3.93321  0.0000E+00  0.3226E-08  0.2900E-12  0.3414E-05  0.0000E+00  0.3871E+14
   -0.825032    3.97734  0.0000E+00  0.3651E-08  0.3308E-12  0.6389E-05  0.0000E+00  0.3877E+13
   -0.862535    3.98976  0.0000E+00  0.3942E-08  0.3632E-12  0.9167E-05  0.0000E+00 -0.8445E+11
   -0.900037    3.99110  0.0000E+00  0.4189E-08  0.3958E-12  0.1052E-04  0.0000E+00 -0.1008E+12
   -0.937540    3.99231  0.0000E+00  0.4427E-08  0.4320E-12  0.1162E-04  0.0000E+00 -0.1160E+12
   -0.975042    3.99344  0.0000E+00  0.4658E-08  0.4721E-12  0.1250E-04  0.0000E+00 -0.1321E+12
   -1.012544    3.99454  0.0000E+00  0.4879E-08  0.5166E-12  0.1331E-04  0.0000E+00 -0.1512E+12
   -1.050046    3.99564  0.0000E+00  0.5088E-08  0.5660E-12  0.1398E-04  0.0000E+00 -0.1739E+12
   -1.087548    3.99676  0.0000E+00  0.5280E-08  0.6209E-12  0.1449E-04  0.0000E+00 -0.2015E+12
   -1.125050    3.99792  0.0000E+00  0.5450E-08  0.6824E-12  0.1424E-04  0.0000E+00 -0.2309E+12
   -1.162552    3.99913  0.0000E+00  0.5596E-08  0.7533E-12  0.1365E-04  0.0000E+00 -0.2682E+12
   -1.200053    4.00040  0.0000E+00  0.5713E-08  0.8373E-12  0.1277E-04  0.0000E+00 -0.3185E+12
   -1.237554    4.00177  0.0000E+00  0.5794E-08  0.9401E-12  0.1164E-04  0.0000E+00 -0.3901E+12
   -1.275055    4.00331  0.0000E+00  0.5831E-08  0.1074E-11  0.1023E-04  0.0000E+00 -0.5019E+12
   -1.312556    4.00509  0.0000E+00  0.5805E-08  0.1261E-11  0.8496E-05  0.0000E+00 -0.6938E+12
   -1.350056    4.00731  0.0000E+00  0.5678E-08  0.1546E-11  0.6446E-05  0.0000E+00 -0.1076E+13
   -1.387556    4.01035  0.0000E+00  0.5373E-08  0.2048E-11  0.4159E-05  0.0000E+00 -0.2053E+13
   -1.425056    4.01528  0.0000E+00  0.4705E-08  0.3173E-11  0.1899E-05  0.0000E+00 -0.6058E+13
   -1.462555    4.02642  0.0000E+00  0.3355E-08  0.6972E-11  0.3759E-06  0.0000E+00 -0.4826E+14
   -1.500054    4.07448  0.0000E+00  0.0000E+00  0.0000E+00  0.0000E+00  0.0000E+00  0.0000E+00
