 1 - depth, m
 2 - temperature, C
 3 - salinity, kg/kg
 4 - turbulent kinetic energy, m**2/s**2
 5 - dissipation rate, m**2/s**3
 6 - kinematic heat conductance, m**2/s
 7 - modulus of horizontal velocity, m/s
 8 - Richardson number, n/d
   -0.000000    0.00000  0.0000E+00  0.4096E-13  0.8590E-16  0.1000E-09  0.0000E+00  0.1172E+17
   -0.037497    0.18015  0.0000E+00  0.4096E-13  0.8590E-16  0.1000E-09  0.0000E+00  0.1107E+17
   -0.074995    0.35910  0.0000E+00  0.4096E-13  0.8590E-16  0.1000E-09  0.0000E+00  0.1043E+17
   -0.112493    0.53669  0.0000E+00  0.4096E-13  0.8590E-16  0.1000E-09  0.0000E+00  0.9792E+16
   -0.149991    0.71273  0.0000E+00  0.4096E-13  0.8590E-16  0.1000E-09  0.0000E+00  0.9165E+16
   -0.187489    0.88708  0.0000E+00  0.7313E-13  0.8590E-16  0.1000E-09  0.0000E+00  0.8550E+16
   -0.224988    1.05958  0.0000E+00  0.2688E-12  0.8590E-16  0.1000E-09  0.0000E+00  0.7948E+16
   -0.262487    1.23012  0.0000E+00  0.6300E-12  0.1320E-15  0.1000E-09  0.0000E+00  0.7352E+16
   -0.299986    1.39833  0.0000E+00  0.1248E-11  0.2279E-15  0.1000E-09  0.0000E+00  0.6772E+16
   -0.337486    1.56407  0.0000E+00  0.2308E-11  0.3990E-15  0.1000E-09  0.0000E+00  0.6212E+16
   -0.374985    1.72721  0.0000E+00  0.4144E-11  0.6952E-15  0.1000E-09  0.0000E+00  0.5705E+16
   -0.412485    1.88864  0.0000E+00  0.7331E-11  0.1203E-14  0.1000E-09  0.0000E+00  0.5231E+16
   -0.449985    2.04889  0.0000E+00  0.1286E-10  0.2070E-14  0.1000E-09  0.0000E+00  0.4769E+16
   -0.487486    2.20796  0.0000E+00  0.2242E-10  0.3544E-14  0.1000E-09  0.0000E+00  0.4318E+16
   -0.524986    2.36580  0.0000E+00  0.3893E-10  0.6043E-14  0.1000E-09  0.0000E+00  0.3875E+16
   -0.562486    2.52229  0.0000E+00  0.6732E-10  0.1027E-13  0.1000E-09  0.0000E+00  0.3445E+16
   -0.599987    2.67743  0.0000E+00  0.1159E-09  0.1737E-13  0.1000E-09  0.0000E+00  0.3026E+16
   -0.637487    2.83120  0.0000E+00  0.1988E-09  0.2928E-13  0.1000E-09  0.0000E+00  0.2620E+16
   -0.674988    2.98359  0.0000E+00  0.3395E-09  0.4916E-13  0.1000E-09  0.0000E+00  0.2226E+16
   -0.712489    3.13459  0.0000E+00  0.5776E-09  0.8220E-13  0.1238E-09  0.0000E+00  0.1843E+16
   -0.749990    3.28418  0.0000E+00  0.9786E-09  0.1369E-12  0.2561E-09  0.0000E+00  0.1484E+16
   -0.787490    3.43368  0.0000E+00  0.1651E-08  0.2273E-12  0.5583E-09  0.0000E+00  0.1130E+16
   -0.824991    3.58349  0.0000E+00  0.2775E-08  0.3756E-12  0.1348E-08  0.0000E+00  0.7732E+15
   -0.862492    3.73319  0.0000E+00  0.4639E-08  0.6178E-12  0.4120E-08  0.0000E+00  0.4159E+15
   -0.899992    3.88081  0.0000E+00  0.7627E-08  0.1001E-11  0.3271E-07  0.0000E+00  0.8457E+14
   -0.937493    4.00480  0.0000E+00  0.8353E-08  0.1101E-11  0.2509E-04  0.0000E+00 -0.2530E+12
   -0.974993    4.00566  0.0000E+00  0.8676E-08  0.1154E-11  0.2635E-04  0.0000E+00 -0.2536E+12
   -1.012494    4.00648  0.0000E+00  0.8936E-08  0.1206E-11  0.2661E-04  0.0000E+00 -0.2633E+12
   -1.049994    4.00729  0.0000E+00  0.9153E-08  0.1260E-11  0.2671E-04  0.0000E+00 -0.2748E+12
   -1.087494    4.00811  0.0000E+00  0.9334E-08  0.1318E-11  0.2656E-04  0.0000E+00 -0.2893E+12
   -1.124994    4.00894  0.0000E+00  0.9480E-08  0.1383E-11  0.2614E-04  0.0000E+00 -0.3064E+12
   -1.162493    4.00979  0.0000E+00  0.9590E-08  0.1458E-11  0.2540E-04  0.0000E+00 -0.3283E+12
   -1.199993    4.01067  0.0000E+00  0.9662E-08  0.1553E-11  0.2432E-04  0.0000E+00 -0.3571E+12
   -1.237492    4.01159  0.0000E+00  0.9679E-08  0.1676E-11  0.2113E-04  0.0000E+00 -0.4294E+12
   -1.274991    4.01265  0.0000E+00  0.9620E-08  0.1839E-11  0.1776E-04  0.0000E+00 -0.5381E+12
   -1.312490    4.01392  0.0000E+00  0.9453E-08  0.2066E-11  0.1449E-04  0.0000E+00 -0.7004E+12
   -1.349988    4.01550  0.0000E+00  0.9124E-08  0.2412E-11  0.1096E-04  0.0000E+00 -0.9963E+12
   -1.387487    4.01760  0.0000E+00  0.8514E-08  0.3018E-11  0.7055E-05  0.0000E+00 -0.1705E+13
   -1.424984    4.02091  0.0000E+00  0.7309E-08  0.4413E-11  0.3125E-05  0.0000E+00 -0.4483E+13
   -1.462482    4.02837  0.0000E+00  0.4691E-08  0.9762E-11  0.4621E-06  0.0000E+00 -0.4144E+14
   -1.499979    4.07036  0.0000E+00  0.0000E+00  0.0000E+00  0.0000E+00  0.0000E+00  0.0000E+00
