 1 - depth, m
 2 - temperature, C
 3 - salinity, kg/kg
 4 - turbulent kinetic energy, m**2/s**2
 5 - dissipation rate, m**2/s**3
 6 - kinematic heat conductance, m**2/s
 7 - modulus of horizontal velocity, m/s
 8 - Richardson number, n/d
   -0.000000    0.09584  0.0000E+00  0.6274E-03  0.1662E-02  0.9636E-04  0.3597E+00  0.6271E-03
   -0.037498    0.13061  0.0000E+00  0.3700E-03  0.6172E-03  0.2083E-03  0.1245E+00  0.4238E-01
   -0.074996    0.14366  0.0000E+00  0.2601E-03  0.1788E-03  0.2758E-03  0.7676E-01  0.4395E+00
   -0.112495    0.14922  0.0000E+00  0.2115E-03  0.1056E-03  0.3008E-03  0.6036E-01  0.2768E-01
   -0.149994    0.15228  0.0000E+00  0.1808E-03  0.6752E-04  0.3092E-03  0.5165E-01  0.9168E-02
   -0.187493    0.15448  0.0000E+00  0.1579E-03  0.4416E-04  0.3254E-03  0.4553E-01  0.2858E+00
   -0.224993    0.15620  0.0000E+00  0.1404E-03  0.2902E-04  0.3349E-03  0.4110E-01  0.4588E-02
   -0.262493    0.15771  0.0000E+00  0.1262E-03  0.1913E-04  0.3493E-03  0.3729E-01  0.6322E-02
   -0.299993    0.15905  0.0000E+00  0.1147E-03  0.1270E-04  0.3621E-03  0.3416E-01  0.7343E-02
   -0.337493    0.16029  0.0000E+00  0.1051E-03  0.8565E-05  0.3765E-03  0.3145E-01  0.8120E-02
   -0.374994    0.16146  0.0000E+00  0.9718E-04  0.5920E-05  0.3895E-03  0.2906E-01  0.1110E-01
   -0.412494    0.16255  0.0000E+00  0.9036E-04  0.4221E-05  0.4017E-03  0.2692E-01  0.3119E-02
   -0.449995    0.16360  0.0000E+00  0.8447E-04  0.3117E-05  0.4135E-03  0.2498E-01 -0.2998E-01
   -0.487496    0.16461  0.0000E+00  0.7927E-04  0.2385E-05  0.4234E-03  0.2319E-01  0.1468E-01
   -0.524998    0.16559  0.0000E+00  0.7460E-04  0.1884E-05  0.4354E-03  0.2150E-01  0.1910E-01
   -0.562499    0.16651  0.0000E+00  0.7043E-04  0.1532E-05  0.4448E-03  0.2002E-01  0.2475E-01
   -0.600000    0.16740  0.0000E+00  0.6662E-04  0.1275E-05  0.4544E-03  0.1867E-01  0.2778E-01
   -0.637502    0.16825  0.0000E+00  0.6312E-04  0.1082E-05  0.4612E-03  0.1743E-01  0.3832E-01
   -0.675003    0.16908  0.0000E+00  0.5988E-04  0.9311E-06  0.4674E-03  0.1628E-01  0.4628E-01
   -0.712505    0.16990  0.0000E+00  0.5687E-04  0.8116E-06  0.4720E-03  0.1521E-01  0.5653E-01
   -0.750006    0.17069  0.0000E+00  0.5407E-04  0.7147E-06  0.4750E-03  0.1422E-01  0.6883E-01
   -0.787508    0.17148  0.0000E+00  0.5142E-04  0.6344E-06  0.4763E-03  0.1328E-01  0.8424E-01
   -0.825009    0.17226  0.0000E+00  0.4892E-04  0.5670E-06  0.4761E-03  0.1241E-01  0.1038E+00
   -0.862511    0.17303  0.0000E+00  0.4653E-04  0.5097E-06  0.4737E-03  0.1157E-01  0.1292E+00
   -0.900012    0.17381  0.0000E+00  0.4426E-04  0.4605E-06  0.4695E-03  0.1078E-01  0.1628E+00
   -0.937514    0.17460  0.0000E+00  0.4207E-04  0.4181E-06  0.4627E-03  0.1003E-01  0.2079E+00
   -0.975015    0.17540  0.0000E+00  0.3995E-04  0.3810E-06  0.4535E-03  0.9309E-02  0.2694E+00
   -1.012516    0.17622  0.0000E+00  0.3788E-04  0.3486E-06  0.4452E-03  0.8613E-02  0.4228E+00
   -1.050017    0.17707  0.0000E+00  0.3586E-04  0.3202E-06  0.4348E-03  0.7957E-02  0.7557E+00
   -1.087518    0.17794  0.0000E+00  0.3388E-04  0.2955E-06  0.4211E-03  0.7340E-02  0.1590E+01
   -1.125019    0.17884  0.0000E+00  0.3194E-04  0.2743E-06  0.4044E-03  0.6756E-02  0.4262E+01
   -1.162519    0.17979  0.0000E+00  0.3002E-04  0.2565E-06  0.3837E-03  0.6200E-02  0.1628E+02
   -1.200020    0.18081  0.0000E+00  0.2811E-04  0.2422E-06  0.3589E-03  0.5667E-02  0.9814E+02
   -1.237520    0.18193  0.0000E+00  0.2619E-04  0.2320E-06  0.3302E-03  0.5150E-02  0.1076E+04
   -1.275020    0.18322  0.0000E+00  0.2419E-04  0.2268E-06  0.2995E-03  0.4646E-02  0.2002E+05
   -1.312519    0.18463  0.0000E+00  0.2206E-04  0.2296E-06  0.2618E-03  0.4173E-02  0.5703E+06
   -1.350019    0.18627  0.0000E+00  0.1971E-04  0.2468E-06  0.2162E-03  0.3726E-02  0.2849E+08
   -1.387518    0.18831  0.0000E+00  0.1697E-04  0.2949E-06  0.1618E-03  0.3295E-02  0.1439E+10
   -1.425016    0.19118  0.0000E+00  0.1347E-04  0.4291E-06  0.9691E-04  0.2868E-02  0.1087E+08
   -1.462515    0.19676  0.0000E+00  0.7299E-05  0.1049E-05  0.1776E-04  0.2418E-02  0.2755E+05
   -1.500013    0.23284  0.0000E+00  0.0000E+00  0.0000E+00  0.0000E+00  0.2539E-02  0.0000E+00
