 1 - depth, m
 2 - temperature, C
 3 - salinity, kg/kg
 4 - turbulent kinetic energy, m**2/s**2
 5 - dissipation rate, m**2/s**3
 6 - kinematic heat conductance, m**2/s
 7 - modulus of horizontal velocity, m/s
 8 - Richardson number, n/d
   -0.000000    0.00000  0.0000E+00  0.4096E-13  0.8590E-16  0.1000E-09  0.0000E+00  0.1012E+17
   -0.037497    0.15504  0.0000E+00  0.4096E-13  0.8590E-16  0.1000E-09  0.0000E+00  0.9563E+16
   -0.074994    0.30795  0.0000E+00  0.4096E-13  0.8590E-16  0.1000E-09  0.0000E+00  0.9018E+16
   -0.112492    0.45860  0.0000E+00  0.4096E-13  0.8590E-16  0.1000E-09  0.0000E+00  0.8488E+16
   -0.149990    0.60690  0.0000E+00  0.4096E-13  0.8590E-16  0.1000E-09  0.0000E+00  0.7972E+16
   -0.187488    0.75276  0.0000E+00  0.4096E-13  0.8590E-16  0.1000E-09  0.0000E+00  0.7473E+16
   -0.224987    0.89608  0.0000E+00  0.4096E-13  0.8590E-16  0.1000E-09  0.0000E+00  0.6990E+16
   -0.262486    1.03677  0.0000E+00  0.4096E-13  0.8590E-16  0.1000E-09  0.0000E+00  0.6510E+16
   -0.299985    1.17446  0.0000E+00  0.4096E-13  0.8590E-16  0.1000E-09  0.0000E+00  0.6046E+16
   -0.337484    1.30898  0.0000E+00  0.4096E-13  0.8590E-16  0.1000E-09  0.0000E+00  0.5601E+16
   -0.374984    1.44024  0.0000E+00  0.4096E-13  0.8590E-16  0.1000E-09  0.0000E+00  0.5218E+16
   -0.412483    1.56920  0.0000E+00  0.4096E-13  0.8590E-16  0.1000E-09  0.0000E+00  0.4873E+16
   -0.449983    1.69645  0.0000E+00  0.4096E-13  0.8590E-16  0.1000E-09  0.0000E+00  0.4539E+16
   -0.487483    1.82198  0.0000E+00  0.4096E-13  0.8590E-16  0.1000E-09  0.0000E+00  0.4215E+16
   -0.524984    1.94572  0.0000E+00  0.4096E-13  0.8590E-16  0.1000E-09  0.0000E+00  0.3896E+16
   -0.562484    2.06743  0.0000E+00  0.4096E-13  0.8590E-16  0.1000E-09  0.0000E+00  0.3590E+16
   -0.599984    2.18708  0.0000E+00  0.4096E-13  0.8590E-16  0.1000E-09  0.0000E+00  0.3296E+16
   -0.637485    2.30466  0.0000E+00  0.4096E-13  0.8590E-16  0.1000E-09  0.0000E+00  0.3015E+16
   -0.674985    2.42013  0.0000E+00  0.1485E-12  0.8590E-16  0.1000E-09  0.0000E+00  0.2746E+16
   -0.712486    2.53349  0.0000E+00  0.4233E-12  0.1450E-15  0.1000E-09  0.0000E+00  0.2490E+16
   -0.749986    2.64472  0.0000E+00  0.9829E-12  0.2945E-15  0.1000E-09  0.0000E+00  0.2279E+16
   -0.787487    2.75553  0.0000E+00  0.2122E-11  0.6060E-15  0.1000E-09  0.0000E+00  0.2083E+16
   -0.824987    2.86659  0.0000E+00  0.4454E-11  0.1236E-14  0.1000E-09  0.0000E+00  0.1889E+16
   -0.862488    2.97804  0.0000E+00  0.9224E-11  0.2499E-14  0.1000E-09  0.0000E+00  0.1696E+16
   -0.899988    3.09003  0.0000E+00  0.1893E-10  0.5015E-14  0.1000E-09  0.0000E+00  0.1502E+16
   -0.937489    3.20270  0.0000E+00  0.3857E-10  0.9992E-14  0.1000E-09  0.0000E+00  0.1307E+16
   -0.974989    3.31621  0.0000E+00  0.7805E-10  0.1978E-13  0.1000E-09  0.0000E+00  0.1110E+16
   -1.012489    3.43073  0.0000E+00  0.1572E-09  0.3899E-13  0.1190E-09  0.0000E+00  0.9086E+15
   -1.049989    3.54634  0.0000E+00  0.3156E-09  0.7662E-13  0.3026E-09  0.0000E+00  0.7020E+15
   -1.087489    3.66307  0.0000E+00  0.6305E-09  0.1499E-12  0.8485E-09  0.0000E+00  0.4896E+15
   -1.124989    3.78080  0.0000E+00  0.1251E-08  0.2913E-12  0.2972E-08  0.0000E+00  0.2718E+15
   -1.162488    3.89909  0.0000E+00  0.2439E-08  0.5575E-12  0.2691E-07  0.0000E+00  0.5766E+14
   -1.199988    4.00280  0.0000E+00  0.3507E-08  0.8063E-12  0.5836E-05  0.0000E+00 -0.8266E+12
   -1.237487    4.00576  0.0000E+00  0.4022E-08  0.9672E-12  0.6323E-05  0.0000E+00 -0.9027E+12
   -1.274986    4.00854  0.0000E+00  0.4416E-08  0.1148E-11  0.6322E-05  0.0000E+00 -0.1047E+13
   -1.312484    4.01137  0.0000E+00  0.4692E-08  0.1371E-11  0.5834E-05  0.0000E+00 -0.1310E+13
   -1.349982    4.01452  0.0000E+00  0.4826E-08  0.1680E-11  0.4860E-05  0.0000E+00 -0.1827E+13
   -1.387480    4.01839  0.0000E+00  0.4750E-08  0.2181E-11  0.3428E-05  0.0000E+00 -0.3083E+13
   -1.424978    4.02404  0.0000E+00  0.4296E-08  0.3228E-11  0.1713E-05  0.0000E+00 -0.7774E+13
   -1.462476    4.03547  0.0000E+00  0.3150E-08  0.6614E-11  0.3615E-06  0.0000E+00 -0.5091E+14
   -1.499973    4.08077  0.0000E+00  0.0000E+00  0.0000E+00  0.0000E+00  0.0000E+00  0.0000E+00
