 1 - depth, m
 2 - temperature, C
 3 - salinity, kg/kg
 4 - turbulent kinetic energy, m**2/s**2
 5 - dissipation rate, m**2/s**3
 6 - kinematic heat conductance, m**2/s
 7 - modulus of horizontal velocity, m/s
 8 - Richardson number, n/d
   -0.000000    0.00000  0.0000E+00  0.4096E-13  0.8590E-16  0.1000E-09  0.0000E+00  0.9031E+16
   -0.037498    0.13802  0.0000E+00  0.4096E-13  0.8590E-16  0.1000E-09  0.0000E+00  0.8604E+16
   -0.074997    0.27462  0.0000E+00  0.4096E-13  0.8590E-16  0.1000E-09  0.0000E+00  0.8185E+16
   -0.112496    0.40972  0.0000E+00  0.4096E-13  0.8590E-16  0.1000E-09  0.0000E+00  0.7775E+16
   -0.149995    0.54327  0.0000E+00  0.4096E-13  0.8590E-16  0.1000E-09  0.0000E+00  0.7373E+16
   -0.187495    0.67518  0.0000E+00  0.4096E-13  0.8590E-16  0.1000E-09  0.0000E+00  0.6980E+16
   -0.224995    0.80540  0.0000E+00  0.4096E-13  0.8590E-16  0.1000E-09  0.0000E+00  0.6597E+16
   -0.262495    0.93386  0.0000E+00  0.4096E-13  0.8590E-16  0.1000E-09  0.0000E+00  0.6220E+16
   -0.299995    1.06041  0.0000E+00  0.4096E-13  0.8590E-16  0.1000E-09  0.0000E+00  0.5853E+16
   -0.337496    1.18497  0.0000E+00  0.4096E-13  0.8590E-16  0.1000E-09  0.0000E+00  0.5497E+16
   -0.374997    1.30749  0.0000E+00  0.4096E-13  0.8590E-16  0.1000E-09  0.0000E+00  0.5171E+16
   -0.412498    1.42835  0.0000E+00  0.4096E-13  0.8590E-16  0.1000E-09  0.0000E+00  0.4867E+16
   -0.449999    1.54780  0.0000E+00  0.4096E-13  0.8590E-16  0.1000E-09  0.0000E+00  0.4570E+16
   -0.487500    1.66579  0.0000E+00  0.4096E-13  0.8590E-16  0.1000E-09  0.0000E+00  0.4281E+16
   -0.525002    1.78228  0.0000E+00  0.4096E-13  0.8590E-16  0.1000E-09  0.0000E+00  0.4000E+16
   -0.562503    1.89719  0.0000E+00  0.4096E-13  0.8590E-16  0.1000E-09  0.0000E+00  0.3726E+16
   -0.600005    2.01047  0.0000E+00  0.4096E-13  0.8590E-16  0.1000E-09  0.0000E+00  0.3461E+16
   -0.637507    2.12207  0.0000E+00  0.4096E-13  0.8590E-16  0.1000E-09  0.0000E+00  0.3205E+16
   -0.675008    2.23193  0.0000E+00  0.4096E-13  0.8590E-16  0.1000E-09  0.0000E+00  0.2958E+16
   -0.712510    2.34000  0.0000E+00  0.4096E-13  0.8590E-16  0.1000E-09  0.0000E+00  0.2719E+16
   -0.750012    2.44620  0.0000E+00  0.4096E-13  0.8590E-16  0.1000E-09  0.0000E+00  0.2505E+16
   -0.787514    2.55117  0.0000E+00  0.4096E-13  0.8590E-16  0.1000E-09  0.0000E+00  0.2302E+16
   -0.825016    2.65511  0.0000E+00  0.4096E-13  0.8590E-16  0.1000E-09  0.0000E+00  0.2105E+16
   -0.862518    2.75798  0.0000E+00  0.4096E-13  0.8590E-16  0.1000E-09  0.0000E+00  0.1913E+16
   -0.900019    2.85977  0.0000E+00  0.4096E-13  0.8590E-16  0.1000E-09  0.0000E+00  0.1726E+16
   -0.937521    2.96042  0.0000E+00  0.4096E-13  0.8590E-16  0.1000E-09  0.0000E+00  0.1545E+16
   -0.975022    3.05990  0.0000E+00  0.4096E-13  0.8590E-16  0.1000E-09  0.0000E+00  0.1369E+16
   -1.012524    3.15817  0.0000E+00  0.1597E-12  0.1186E-15  0.1000E-09  0.0000E+00  0.1199E+16
   -1.050025    3.25516  0.0000E+00  0.5111E-12  0.3135E-15  0.1000E-09  0.0000E+00  0.1035E+16
   -1.087526    3.35081  0.0000E+00  0.1480E-11  0.8637E-15  0.1000E-09  0.0000E+00  0.8766E+15
   -1.125027    3.44504  0.0000E+00  0.4156E-11  0.2350E-14  0.1000E-09  0.0000E+00  0.7335E+15
   -1.162528    3.53904  0.0000E+00  0.1149E-10  0.6315E-14  0.1000E-09  0.0000E+00  0.5932E+15
   -1.200029    3.63304  0.0000E+00  0.3140E-10  0.1679E-13  0.1025E-09  0.0000E+00  0.4535E+15
   -1.237529    3.72712  0.0000E+00  0.8486E-10  0.4419E-13  0.3826E-09  0.0000E+00  0.3139E+15
   -1.275029    3.82128  0.0000E+00  0.2293E-09  0.1165E-12  0.1789E-08  0.0000E+00  0.1744E+15
   -1.312529    3.91556  0.0000E+00  0.6121E-09  0.3048E-12  0.1946E-07  0.0000E+00  0.3760E+14
   -1.350029    4.00078  0.0000E+00  0.1449E-08  0.7309E-12  0.1026E-05  0.0000E+00 -0.3864E+13
   -1.387528    4.01283  0.0000E+00  0.1969E-08  0.1207E-11  0.1151E-05  0.0000E+00 -0.5723E+13
   -1.425027    4.02418  0.0000E+00  0.2169E-08  0.1954E-11  0.8028E-06  0.0000E+00 -0.1190E+14
   -1.462526    4.04066  0.0000E+00  0.1883E-08  0.3798E-11  0.2495E-06  0.0000E+00 -0.5153E+14
   -1.500024    4.08398  0.0000E+00  0.0000E+00  0.0000E+00  0.0000E+00  0.0000E+00  0.0000E+00
