 1 - depth, m
 2 - temperature, C
 3 - salinity, kg/kg
 4 - turbulent kinetic energy, m**2/s**2
 5 - dissipation rate, m**2/s**3
 6 - kinematic heat conductance, m**2/s
 7 - modulus of horizontal velocity, m/s
 8 - Richardson number, n/d
   -0.000000    0.00000  0.0000E+00  0.4096E-13  0.8590E-16  0.1000E-09  0.0000E+00  0.1152E+17
   -0.037494    0.17700  0.0000E+00  0.4096E-13  0.8590E-16  0.1000E-09  0.0000E+00  0.1089E+17
   -0.074988    0.35282  0.0000E+00  0.4096E-13  0.8590E-16  0.1000E-09  0.0000E+00  0.1027E+17
   -0.112483    0.52734  0.0000E+00  0.4096E-13  0.8590E-16  0.1000E-09  0.0000E+00  0.9663E+16
   -0.149978    0.70049  0.0000E+00  0.4096E-13  0.8590E-16  0.1000E-09  0.0000E+00  0.9066E+16
   -0.187473    0.87218  0.0000E+00  0.8662E-13  0.8590E-16  0.1000E-09  0.0000E+00  0.8481E+16
   -0.224968    1.04235  0.0000E+00  0.2959E-12  0.8696E-16  0.1000E-09  0.0000E+00  0.7909E+16
   -0.262464    1.21091  0.0000E+00  0.6731E-12  0.1344E-15  0.1000E-09  0.0000E+00  0.7343E+16
   -0.299960    1.37763  0.0000E+00  0.1311E-11  0.2302E-15  0.1000E-09  0.0000E+00  0.6791E+16
   -0.337456    1.54238  0.0000E+00  0.2397E-11  0.3990E-15  0.1000E-09  0.0000E+00  0.6255E+16
   -0.374953    1.70509  0.0000E+00  0.4259E-11  0.6883E-15  0.1000E-09  0.0000E+00  0.5764E+16
   -0.412449    1.86648  0.0000E+00  0.7459E-11  0.1179E-14  0.1000E-09  0.0000E+00  0.5300E+16
   -0.449946    2.02702  0.0000E+00  0.1295E-10  0.2010E-14  0.1000E-09  0.0000E+00  0.4844E+16
   -0.487443    2.18666  0.0000E+00  0.2237E-10  0.3407E-14  0.1000E-09  0.0000E+00  0.4396E+16
   -0.524940    2.34535  0.0000E+00  0.3845E-10  0.5754E-14  0.1000E-09  0.0000E+00  0.3954E+16
   -0.562437    2.50296  0.0000E+00  0.6585E-10  0.9683E-14  0.1000E-09  0.0000E+00  0.3522E+16
   -0.599935    2.65943  0.0000E+00  0.1123E-09  0.1623E-13  0.1000E-09  0.0000E+00  0.3100E+16
   -0.637432    2.81470  0.0000E+00  0.1908E-09  0.2710E-13  0.1000E-09  0.0000E+00  0.2687E+16
   -0.674929    2.96871  0.0000E+00  0.3228E-09  0.4508E-13  0.1000E-09  0.0000E+00  0.2285E+16
   -0.712427    3.12140  0.0000E+00  0.5441E-09  0.7469E-13  0.1095E-09  0.0000E+00  0.1894E+16
   -0.749924    3.27268  0.0000E+00  0.9133E-09  0.1233E-12  0.2245E-09  0.0000E+00  0.1524E+16
   -0.787422    3.42361  0.0000E+00  0.1527E-08  0.2028E-12  0.4850E-09  0.0000E+00  0.1160E+16
   -0.824919    3.57445  0.0000E+00  0.2543E-08  0.3322E-12  0.1156E-08  0.0000E+00  0.7972E+15
   -0.862417    3.72477  0.0000E+00  0.4215E-08  0.5417E-12  0.3444E-08  0.0000E+00  0.4364E+15
   -0.899914    3.87292  0.0000E+00  0.6893E-08  0.8729E-12  0.2445E-07  0.0000E+00  0.9878E+14
   -0.937411    4.00241  0.0000E+00  0.7595E-08  0.9660E-12  0.2329E-04  0.0000E+00 -0.2365E+12
   -0.974908    4.00332  0.0000E+00  0.7912E-08  0.1016E-11  0.2461E-04  0.0000E+00 -0.2372E+12
   -1.012405    4.00419  0.0000E+00  0.8171E-08  0.1066E-11  0.2532E-04  0.0000E+00 -0.2431E+12
   -1.049902    4.00504  0.0000E+00  0.8388E-08  0.1117E-11  0.2540E-04  0.0000E+00 -0.2547E+12
   -1.087399    4.00589  0.0000E+00  0.8568E-08  0.1173E-11  0.2526E-04  0.0000E+00 -0.2689E+12
   -1.124896    4.00675  0.0000E+00  0.8717E-08  0.1236E-11  0.2484E-04  0.0000E+00 -0.2862E+12
   -1.162392    4.00762  0.0000E+00  0.8834E-08  0.1311E-11  0.2411E-04  0.0000E+00 -0.3082E+12
   -1.199888    4.00852  0.0000E+00  0.8910E-08  0.1403E-11  0.2216E-04  0.0000E+00 -0.3510E+12
   -1.237384    4.00951  0.0000E+00  0.8932E-08  0.1519E-11  0.1930E-04  0.0000E+00 -0.4235E+12
   -1.274880    4.01065  0.0000E+00  0.8882E-08  0.1670E-11  0.1648E-04  0.0000E+00 -0.5249E+12
   -1.312376    4.01199  0.0000E+00  0.8732E-08  0.1881E-11  0.1357E-04  0.0000E+00 -0.6808E+12
   -1.349871    4.01363  0.0000E+00  0.8429E-08  0.2200E-11  0.1027E-04  0.0000E+00 -0.9723E+12
   -1.387366    4.01581  0.0000E+00  0.7863E-08  0.2761E-11  0.6601E-05  0.0000E+00 -0.1677E+13
   -1.424860    4.01924  0.0000E+00  0.6740E-08  0.4050E-11  0.2913E-05  0.0000E+00 -0.4464E+13
   -1.462355    4.02699  0.0000E+00  0.4346E-08  0.8922E-11  0.4379E-06  0.0000E+00 -0.4088E+14
   -1.499848    4.06924  0.0000E+00  0.0000E+00  0.0000E+00  0.0000E+00  0.0000E+00  0.0000E+00
