 1 - depth, m
 2 - temperature, C
 3 - salinity, kg/kg
 4 - turbulent kinetic energy, m**2/s**2
 5 - dissipation rate, m**2/s**3
 6 - kinematic heat conductance, m**2/s
 7 - modulus of horizontal velocity, m/s
 8 - Richardson number, n/d
   -0.000000    0.00000  0.0000E+00  0.4096E-13  0.8589E-16  0.1000E-09  0.0000E+00  0.9233E+16
   -0.037495    0.14118  0.0000E+00  0.4096E-13  0.8589E-16  0.1000E-09  0.0000E+00  0.8933E+16
   -0.074991    0.28323  0.0000E+00  0.4096E-13  0.8589E-16  0.1000E-09  0.0000E+00  0.8604E+16
   -0.112486    0.42576  0.0000E+00  0.4096E-13  0.8589E-16  0.1000E-09  0.0000E+00  0.8254E+16
   -0.149982    0.56843  0.0000E+00  0.4096E-13  0.8589E-16  0.1000E-09  0.0000E+00  0.7890E+16
   -0.187479    0.71095  0.0000E+00  0.4096E-13  0.8589E-16  0.1000E-09  0.0000E+00  0.7516E+16
   -0.224976    0.85309  0.0000E+00  0.4096E-13  0.8589E-16  0.1000E-09  0.0000E+00  0.7138E+16
   -0.262472    0.99466  0.0000E+00  0.4096E-13  0.8589E-16  0.1000E-09  0.0000E+00  0.6753E+16
   -0.299970    1.13542  0.0000E+00  0.4096E-13  0.8589E-16  0.1000E-09  0.0000E+00  0.6369E+16
   -0.337467    1.27518  0.0000E+00  0.4096E-13  0.8589E-16  0.1000E-09  0.0000E+00  0.5988E+16
   -0.374965    1.41382  0.0000E+00  0.4096E-13  0.8589E-16  0.1000E-09  0.0000E+00  0.5619E+16
   -0.412463    1.55141  0.0000E+00  0.4096E-13  0.8589E-16  0.1000E-09  0.0000E+00  0.5259E+16
   -0.449960    1.68796  0.0000E+00  0.4096E-13  0.8589E-16  0.1000E-09  0.0000E+00  0.4905E+16
   -0.487459    1.82338  0.0000E+00  0.4096E-13  0.8589E-16  0.1000E-09  0.0000E+00  0.4555E+16
   -0.524957    1.95753  0.0000E+00  0.4096E-13  0.8589E-16  0.1000E-09  0.0000E+00  0.4210E+16
   -0.562455    2.09023  0.0000E+00  0.4096E-13  0.8589E-16  0.1000E-09  0.0000E+00  0.3872E+16
   -0.599954    2.22134  0.0000E+00  0.4096E-13  0.8589E-16  0.1000E-09  0.0000E+00  0.3542E+16
   -0.637452    2.35077  0.0000E+00  0.6887E-13  0.8589E-16  0.1000E-09  0.0000E+00  0.3222E+16
   -0.674951    2.47838  0.0000E+00  0.2612E-12  0.9944E-16  0.1000E-09  0.0000E+00  0.2911E+16
   -0.712449    2.60404  0.0000E+00  0.6481E-12  0.1822E-15  0.1000E-09  0.0000E+00  0.2611E+16
   -0.749948    2.72761  0.0000E+00  0.1393E-11  0.3583E-15  0.1000E-09  0.0000E+00  0.2330E+16
   -0.787447    2.84943  0.0000E+00  0.2843E-11  0.7036E-15  0.1000E-09  0.0000E+00  0.2061E+16
   -0.824945    2.96953  0.0000E+00  0.5679E-11  0.1369E-14  0.1000E-09  0.0000E+00  0.1801E+16
   -0.862444    3.08776  0.0000E+00  0.1121E-10  0.2644E-14  0.1000E-09  0.0000E+00  0.1551E+16
   -0.899943    3.20398  0.0000E+00  0.2197E-10  0.5071E-14  0.1000E-09  0.0000E+00  0.1310E+16
   -0.937441    3.31800  0.0000E+00  0.4277E-10  0.9664E-14  0.1000E-09  0.0000E+00  0.1081E+16
   -0.974939    3.42963  0.0000E+00  0.8275E-10  0.1831E-13  0.1000E-09  0.0000E+00  0.8645E+15
   -1.012438    3.53866  0.0000E+00  0.1594E-09  0.3456E-13  0.1456E-09  0.0000E+00  0.6582E+15
   -1.049936    3.64442  0.0000E+00  0.3065E-09  0.6510E-13  0.3863E-09  0.0000E+00  0.4671E+15
   -1.087434    3.74645  0.0000E+00  0.5863E-09  0.1221E-12  0.1153E-08  0.0000E+00  0.2934E+15
   -1.124932    3.84421  0.0000E+00  0.1114E-08  0.2276E-12  0.4473E-08  0.0000E+00  0.1408E+15
   -1.162429    3.93883  0.0000E+00  0.2049E-08  0.4122E-12  0.7252E-07  0.0000E+00  0.1558E+14
   -1.199927    4.00333  0.0000E+00  0.2866E-08  0.5815E-12  0.5772E-05  0.0000E+00 -0.6636E+12
   -1.237424    4.00566  0.0000E+00  0.3258E-08  0.6884E-12  0.6101E-05  0.0000E+00 -0.7120E+12
   -1.274921    4.00788  0.0000E+00  0.3540E-08  0.8034E-12  0.5996E-05  0.0000E+00 -0.8108E+12
   -1.312417    4.01016  0.0000E+00  0.3717E-08  0.9414E-12  0.5453E-05  0.0000E+00 -0.9940E+12
   -1.349914    4.01268  0.0000E+00  0.3768E-08  0.1128E-11  0.4470E-05  0.0000E+00 -0.1359E+13
   -1.387410    4.01579  0.0000E+00  0.3638E-08  0.1428E-11  0.3077E-05  0.0000E+00 -0.2254E+13
   -1.424906    4.02032  0.0000E+00  0.3189E-08  0.2054E-11  0.1463E-05  0.0000E+00 -0.5649E+13
   -1.462401    4.02965  0.0000E+00  0.2199E-08  0.4059E-11  0.2700E-06  0.0000E+00 -0.3691E+14
   -1.499896    4.06752  0.0000E+00  0.0000E+00  0.0000E+00  0.0000E+00  0.0000E+00  0.0000E+00
