 1 - depth, m
 2 - temperature, C
 3 - salinity, kg/kg
 4 - turbulent kinetic energy, m**2/s**2
 5 - dissipation rate, m**2/s**3
 6 - kinematic heat conductance, m**2/s
 7 - modulus of horizontal velocity, m/s
 8 - Richardson number, n/d
   -0.000000    0.00000  0.0000E+00  0.4096E-13  0.8590E-16  0.1000E-09  0.0000E+00  0.1093E+17
   -0.037499    0.16770  0.0000E+00  0.4096E-13  0.8590E-16  0.1000E-09  0.0000E+00  0.1038E+17
   -0.074998    0.33453  0.0000E+00  0.4096E-13  0.8590E-16  0.1000E-09  0.0000E+00  0.9826E+16
   -0.112498    0.50035  0.0000E+00  0.4096E-13  0.8590E-16  0.1000E-09  0.0000E+00  0.9281E+16
   -0.149998    0.66503  0.0000E+00  0.4096E-13  0.8590E-16  0.1000E-09  0.0000E+00  0.8741E+16
   -0.187499    0.82843  0.0000E+00  0.4096E-13  0.8590E-16  0.1000E-09  0.0000E+00  0.8208E+16
   -0.224999    0.99043  0.0000E+00  0.4096E-13  0.8590E-16  0.1000E-09  0.0000E+00  0.7684E+16
   -0.262500    1.15091  0.0000E+00  0.4096E-13  0.8590E-16  0.1000E-09  0.0000E+00  0.7165E+16
   -0.300001    1.30963  0.0000E+00  0.4096E-13  0.8590E-16  0.1000E-09  0.0000E+00  0.6657E+16
   -0.337503    1.46646  0.0000E+00  0.4096E-13  0.8590E-16  0.1000E-09  0.0000E+00  0.6161E+16
   -0.375004    1.62126  0.0000E+00  0.1290E-12  0.8590E-16  0.1000E-09  0.0000E+00  0.5693E+16
   -0.412506    1.77432  0.0000E+00  0.3823E-12  0.1029E-15  0.1000E-09  0.0000E+00  0.5245E+16
   -0.450008    1.92575  0.0000E+00  0.8362E-12  0.1702E-15  0.1000E-09  0.0000E+00  0.4808E+16
   -0.487510    2.07547  0.0000E+00  0.1624E-11  0.3006E-15  0.1000E-09  0.0000E+00  0.4382E+16
   -0.525013    2.22335  0.0000E+00  0.3004E-11  0.5336E-15  0.1000E-09  0.0000E+00  0.3967E+16
   -0.562515    2.36921  0.0000E+00  0.5440E-11  0.9426E-15  0.1000E-09  0.0000E+00  0.3566E+16
   -0.600017    2.51293  0.0000E+00  0.9746E-11  0.1656E-14  0.1000E-09  0.0000E+00  0.3179E+16
   -0.637520    2.65439  0.0000E+00  0.1735E-10  0.2894E-14  0.1000E-09  0.0000E+00  0.2806E+16
   -0.675022    2.79345  0.0000E+00  0.3072E-10  0.5036E-14  0.1000E-09  0.0000E+00  0.2449E+16
   -0.712525    2.92999  0.0000E+00  0.5415E-10  0.8727E-14  0.1000E-09  0.0000E+00  0.2107E+16
   -0.750028    3.06382  0.0000E+00  0.9508E-10  0.1506E-13  0.1000E-09  0.0000E+00  0.1792E+16
   -0.787530    3.19553  0.0000E+00  0.1663E-09  0.2590E-13  0.1000E-09  0.0000E+00  0.1491E+16
   -0.825033    3.32515  0.0000E+00  0.2896E-09  0.4435E-13  0.1058E-09  0.0000E+00  0.1202E+16
   -0.862535    3.45234  0.0000E+00  0.5024E-09  0.7566E-13  0.2267E-09  0.0000E+00  0.9253E+15
   -0.900038    3.57660  0.0000E+00  0.8680E-09  0.1286E-12  0.5357E-09  0.0000E+00  0.6648E+15
   -0.937540    3.69741  0.0000E+00  0.1493E-08  0.2175E-12  0.1421E-08  0.0000E+00  0.4236E+15
   -0.975043    3.81425  0.0000E+00  0.2554E-08  0.3661E-12  0.4971E-08  0.0000E+00  0.2036E+15
   -1.012545    3.92571  0.0000E+00  0.4252E-08  0.6016E-12  0.6268E-07  0.0000E+00  0.2618E+14
   -1.050047    4.00452  0.0000E+00  0.4988E-08  0.7102E-12  0.1426E-04  0.0000E+00 -0.3239E+12
   -1.087549    4.00562  0.0000E+00  0.5333E-08  0.7720E-12  0.1459E-04  0.0000E+00 -0.3335E+12
   -1.125051    4.00670  0.0000E+00  0.5620E-08  0.8363E-12  0.1471E-04  0.0000E+00 -0.3504E+12
   -1.162552    4.00777  0.0000E+00  0.5849E-08  0.9056E-12  0.1449E-04  0.0000E+00 -0.3768E+12
   -1.200054    4.00886  0.0000E+00  0.6023E-08  0.9831E-12  0.1391E-04  0.0000E+00 -0.4156E+12
   -1.237555    4.01001  0.0000E+00  0.6136E-08  0.1073E-11  0.1295E-04  0.0000E+00 -0.4731E+12
   -1.275056    4.01125  0.0000E+00  0.6180E-08  0.1186E-11  0.1160E-04  0.0000E+00 -0.5630E+12
   -1.312557    4.01265  0.0000E+00  0.6136E-08  0.1339E-11  0.9806E-05  0.0000E+00 -0.7154E+12
   -1.350057    4.01433  0.0000E+00  0.5965E-08  0.1565E-11  0.7555E-05  0.0000E+00 -0.1009E+13
   -1.387557    4.01655  0.0000E+00  0.5582E-08  0.1958E-11  0.4912E-05  0.0000E+00 -0.1727E+13
   -1.425057    4.02000  0.0000E+00  0.4772E-08  0.2842E-11  0.2179E-05  0.0000E+00 -0.4562E+13
   -1.462556    4.02775  0.0000E+00  0.3111E-08  0.5982E-11  0.3426E-06  0.0000E+00 -0.3702E+14
   -1.500055    4.06661  0.0000E+00  0.0000E+00  0.0000E+00  0.0000E+00  0.0000E+00  0.0000E+00
