 1 - depth, m
 2 - temperature, C
 3 - salinity, kg/kg
 4 - turbulent kinetic energy, m**2/s**2
 5 - dissipation rate, m**2/s**3
 6 - kinematic heat conductance, m**2/s
 7 - modulus of horizontal velocity, m/s
 8 - Richardson number, n/d
   -0.000000   12.69172  0.0000E+00  0.1914E-03  0.2480E-03  0.5707E-04  0.1376E+00 -0.1768E-01
   -0.037493   12.73121  0.0000E+00  0.1073E-03  0.6921E-04  0.9832E-04  0.5011E-01 -0.7734E-01
   -0.074987   12.74319  0.0000E+00  0.7571E-04  0.2567E-04  0.1286E-03  0.3382E-01  0.8965E+01
   -0.112480   12.74918  0.0000E+00  0.6109E-04  0.1449E-04  0.1444E-03  0.2731E-01  0.2576E+01
   -0.149975   12.75281  0.0000E+00  0.5130E-04  0.8842E-05  0.1600E-03  0.2318E-01  0.8037E+01
   -0.187469   12.75533  0.0000E+00  0.4420E-04  0.5582E-05  0.1780E-03  0.2017E-01  0.1732E+01
   -0.224964   12.75729  0.0000E+00  0.3878E-04  0.3539E-05  0.1947E-03  0.1776E-01  0.7144E+00
   -0.262459   12.75902  0.0000E+00  0.3448E-04  0.2265E-05  0.2139E-03  0.1571E-01  0.6879E+01
   -0.299954   12.76047  0.0000E+00  0.3107E-04  0.1501E-05  0.2336E-03  0.1400E-01  0.8362E+01
   -0.337449   12.76176  0.0000E+00  0.2830E-04  0.1017E-05  0.2542E-03  0.1256E-01  0.8032E+01
   -0.374945   12.76295  0.0000E+00  0.2599E-04  0.7062E-06  0.2750E-03  0.1131E-01  0.2120E+01
   -0.412441   12.76406  0.0000E+00  0.2403E-04  0.5064E-06  0.2974E-03  0.1022E-01  0.4938E+01
   -0.449937   12.76511  0.0000E+00  0.2235E-04  0.3765E-06  0.3197E-03  0.9246E-02  0.1951E+01
   -0.487433   12.76609  0.0000E+00  0.2086E-04  0.2895E-06  0.3428E-03  0.8377E-02  0.2042E+03
   -0.524929   12.76703  0.0000E+00  0.1952E-04  0.2290E-06  0.3699E-03  0.7588E-02  0.1278E+02
   -0.562426   12.76790  0.0000E+00  0.1836E-04  0.1868E-06  0.4019E-03  0.6908E-02  0.5557E+01
   -0.599922   12.76871  0.0000E+00  0.1732E-04  0.1558E-06  0.4392E-03  0.6304E-02  0.9172E+01
   -0.637419   12.76947  0.0000E+00  0.1640E-04  0.1323E-06  0.4765E-03  0.5764E-02  0.3621E+02
   -0.674916   12.77017  0.0000E+00  0.1556E-04  0.1140E-06  0.5222E-03  0.5275E-02  0.8013E+02
   -0.712412   12.77082  0.0000E+00  0.1482E-04  0.9951E-07  0.5776E-03  0.4831E-02  0.2074E+02
   -0.749909   12.77141  0.0000E+00  0.1413E-04  0.8766E-07  0.6225E-03  0.4423E-02  0.2349E+02
   -0.787406   12.77196  0.0000E+00  0.1350E-04  0.7778E-07  0.6650E-03  0.4042E-02  0.6266E+02
   -0.824902   12.77247  0.0000E+00  0.1291E-04  0.6947E-07  0.6926E-03  0.3684E-02  0.1354E+02
   -0.862399   12.77298  0.0000E+00  0.1235E-04  0.6239E-07  0.7001E-03  0.3345E-02  0.4755E+01
   -0.899896   12.77349  0.0000E+00  0.1182E-04  0.5629E-07  0.6991E-03  0.3023E-02  0.5938E+03
   -0.937392   12.77402  0.0000E+00  0.1129E-04  0.5103E-07  0.6922E-03  0.2717E-02  0.5334E+01
   -0.974888   12.77457  0.0000E+00  0.1077E-04  0.4648E-07  0.6801E-03  0.2426E-02  0.6101E+01
   -1.012385   12.77514  0.0000E+00  0.1025E-04  0.4253E-07  0.6674E-03  0.2148E-02  0.2801E+01
   -1.049881   12.77574  0.0000E+00  0.9722E-05  0.3912E-07  0.6504E-03  0.1890E-02  0.2577E+01
   -1.087377   12.77638  0.0000E+00  0.9186E-05  0.3624E-07  0.6286E-03  0.1652E-02  0.2461E+01
   -1.124873   12.77706  0.0000E+00  0.8643E-05  0.3392E-07  0.6019E-03  0.1435E-02  0.2087E+01
   -1.162368   12.77779  0.0000E+00  0.8096E-05  0.3218E-07  0.5696E-03  0.1236E-02  0.2072E+01
   -1.199864   12.77858  0.0000E+00  0.7549E-05  0.3112E-07  0.5309E-03  0.1055E-02  0.2193E+01
   -1.237359   12.77946  0.0000E+00  0.7013E-05  0.3086E-07  0.4828E-03  0.8922E-03  0.2633E+01
   -1.274854   12.78046  0.0000E+00  0.6489E-05  0.3175E-07  0.4258E-03  0.7483E-03  0.3998E+01
   -1.312349   12.78166  0.0000E+00  0.5953E-05  0.3498E-07  0.3685E-03  0.6301E-03  0.1445E+02
   -1.349843   12.78323  0.0000E+00  0.5324E-05  0.4304E-07  0.2868E-03  0.5295E-03  0.6625E+02
   -1.387337   12.78578  0.0000E+00  0.4582E-05  0.5915E-07  0.2384E-03  0.4268E-03  0.1562E+03
   -1.424831   12.78813  0.0000E+00  0.3645E-05  0.1146E-06  0.1172E-03  0.3474E-03  0.2246E+04
   -1.462325   12.80002  0.0000E+00  0.2244E-05  0.2551E-06  0.4608E-04  0.2454E-03 -0.7498E+05
   -1.499818   12.81643  0.0000E+00  0.0000E+00  0.0000E+00  0.0000E+00  0.3203E-03  0.0000E+00
