 1 - depth, m
 2 - temperature, C
 3 - salinity, kg/kg
 4 - turbulent kinetic energy, m**2/s**2
 5 - dissipation rate, m**2/s**3
 6 - kinematic heat conductance, m**2/s
 7 - modulus of horizontal velocity, m/s
 8 - Richardson number, n/d
   -0.000000    0.00000  0.0000E+00  0.4096E-13  0.8590E-16  0.1000E-09  0.0000E+00  0.8568E+16
   -0.037495    0.13082  0.0000E+00  0.4096E-13  0.8590E-16  0.1000E-09  0.0000E+00  0.8249E+16
   -0.074990    0.26141  0.0000E+00  0.4096E-13  0.8590E-16  0.1000E-09  0.0000E+00  0.7930E+16
   -0.112486    0.39171  0.0000E+00  0.4096E-13  0.8590E-16  0.1000E-09  0.0000E+00  0.7613E+16
   -0.149982    0.52169  0.0000E+00  0.4096E-13  0.8590E-16  0.1000E-09  0.0000E+00  0.7296E+16
   -0.187478    0.65132  0.0000E+00  0.4096E-13  0.8590E-16  0.1000E-09  0.0000E+00  0.6981E+16
   -0.224975    0.78053  0.0000E+00  0.4096E-13  0.8590E-16  0.1000E-09  0.0000E+00  0.6668E+16
   -0.262472    0.90929  0.0000E+00  0.4096E-13  0.8590E-16  0.1000E-09  0.0000E+00  0.6352E+16
   -0.299969    1.03747  0.0000E+00  0.4096E-13  0.8590E-16  0.1000E-09  0.0000E+00  0.6039E+16
   -0.337466    1.16498  0.0000E+00  0.4096E-13  0.8590E-16  0.1000E-09  0.0000E+00  0.5727E+16
   -0.374963    1.29176  0.0000E+00  0.4096E-13  0.8590E-16  0.1000E-09  0.0000E+00  0.5424E+16
   -0.412461    1.41786  0.0000E+00  0.4096E-13  0.8590E-16  0.1000E-09  0.0000E+00  0.5126E+16
   -0.449959    1.54329  0.0000E+00  0.4096E-13  0.8590E-16  0.1000E-09  0.0000E+00  0.4832E+16
   -0.487457    1.66798  0.0000E+00  0.4096E-13  0.8590E-16  0.1000E-09  0.0000E+00  0.4539E+16
   -0.524955    1.79182  0.0000E+00  0.4096E-13  0.8590E-16  0.1000E-09  0.0000E+00  0.4248E+16
   -0.562453    1.91466  0.0000E+00  0.4096E-13  0.8590E-16  0.1000E-09  0.0000E+00  0.3961E+16
   -0.599952    2.03641  0.0000E+00  0.4096E-13  0.8590E-16  0.1000E-09  0.0000E+00  0.3678E+16
   -0.637450    2.15695  0.0000E+00  0.4096E-13  0.8590E-16  0.1000E-09  0.0000E+00  0.3401E+16
   -0.674949    2.27620  0.0000E+00  0.4096E-13  0.8590E-16  0.1000E-09  0.0000E+00  0.3130E+16
   -0.712447    2.39405  0.0000E+00  0.4096E-13  0.8590E-16  0.1000E-09  0.0000E+00  0.2865E+16
   -0.749946    2.51038  0.0000E+00  0.4096E-13  0.8590E-16  0.1000E-09  0.0000E+00  0.2614E+16
   -0.787444    2.62539  0.0000E+00  0.4096E-13  0.8590E-16  0.1000E-09  0.0000E+00  0.2371E+16
   -0.824943    2.73909  0.0000E+00  0.4096E-13  0.8590E-16  0.1000E-09  0.0000E+00  0.2135E+16
   -0.862441    2.85136  0.0000E+00  0.4288E-13  0.8590E-16  0.1000E-09  0.0000E+00  0.1905E+16
   -0.899939    2.96209  0.0000E+00  0.1985E-12  0.1074E-15  0.1000E-09  0.0000E+00  0.1682E+16
   -0.937438    3.07116  0.0000E+00  0.5629E-12  0.2353E-15  0.1000E-09  0.0000E+00  0.1467E+16
   -0.974936    3.17842  0.0000E+00  0.1387E-11  0.5425E-15  0.1000E-09  0.0000E+00  0.1261E+16
   -1.012434    3.28371  0.0000E+00  0.3278E-11  0.1241E-14  0.1000E-09  0.0000E+00  0.1060E+16
   -1.049932    3.38652  0.0000E+00  0.7641E-11  0.2817E-14  0.1000E-09  0.0000E+00  0.8686E+15
   -1.087430    3.48650  0.0000E+00  0.1764E-10  0.6340E-14  0.1000E-09  0.0000E+00  0.6897E+15
   -1.124928    3.58334  0.0000E+00  0.4037E-10  0.1416E-13  0.1000E-09  0.0000E+00  0.5356E+15
   -1.162425    3.67908  0.0000E+00  0.9168E-10  0.3141E-13  0.2234E-09  0.0000E+00  0.3875E+15
   -1.199922    3.77390  0.0000E+00  0.2066E-09  0.6918E-13  0.7804E-09  0.0000E+00  0.2433E+15
   -1.237420    3.86743  0.0000E+00  0.4616E-09  0.1512E-12  0.3919E-08  0.0000E+00  0.1045E+15
   -1.274916    3.95799  0.0000E+00  0.9971E-09  0.3216E-12  0.1444E-06  0.0000E+00  0.3946E+13
   -1.312413    4.00385  0.0000E+00  0.1772E-08  0.6016E-12  0.2113E-05  0.0000E+00 -0.1855E+13
   -1.349909    4.00965  0.0000E+00  0.2183E-08  0.8386E-12  0.2183E-05  0.0000E+00 -0.2321E+13
   -1.387405    4.01531  0.0000E+00  0.2372E-08  0.1140E-11  0.1776E-05  0.0000E+00 -0.3524E+13
   -1.424901    4.02225  0.0000E+00  0.2258E-08  0.1658E-11  0.9947E-06  0.0000E+00 -0.7765E+13
   -1.462396    4.03409  0.0000E+00  0.1690E-08  0.3084E-11  0.2255E-06  0.0000E+00 -0.3888E+14
   -1.499891    4.07146  0.0000E+00  0.0000E+00  0.0000E+00  0.0000E+00  0.0000E+00  0.0000E+00
