 1 - depth, m
 2 - temperature, C
 3 - salinity, kg/kg
 4 - turbulent kinetic energy, m**2/s**2
 5 - dissipation rate, m**2/s**3
 6 - kinematic heat conductance, m**2/s
 7 - modulus of horizontal velocity, m/s
 8 - Richardson number, n/d
   -0.000000    0.00000  0.0000E+00  0.4096E-13  0.8590E-16  0.1000E-09  0.0000E+00  0.9841E+16
   -0.037499    0.15067  0.0000E+00  0.4096E-13  0.8590E-16  0.1000E-09  0.0000E+00  0.9358E+16
   -0.074999    0.30005  0.0000E+00  0.4096E-13  0.8590E-16  0.1000E-09  0.0000E+00  0.8884E+16
   -0.112499    0.44805  0.0000E+00  0.4096E-13  0.8590E-16  0.1000E-09  0.0000E+00  0.8417E+16
   -0.149999    0.59462  0.0000E+00  0.4096E-13  0.8590E-16  0.1000E-09  0.0000E+00  0.7960E+16
   -0.187500    0.73965  0.0000E+00  0.4096E-13  0.8590E-16  0.1000E-09  0.0000E+00  0.7511E+16
   -0.225001    0.88309  0.0000E+00  0.4096E-13  0.8590E-16  0.1000E-09  0.0000E+00  0.7073E+16
   -0.262502    1.02485  0.0000E+00  0.4096E-13  0.8590E-16  0.1000E-09  0.0000E+00  0.6635E+16
   -0.300003    1.16463  0.0000E+00  0.4096E-13  0.8590E-16  0.1000E-09  0.0000E+00  0.6207E+16
   -0.337505    1.30230  0.0000E+00  0.4096E-13  0.8590E-16  0.1000E-09  0.0000E+00  0.5792E+16
   -0.375007    1.43779  0.0000E+00  0.4096E-13  0.8590E-16  0.1000E-09  0.0000E+00  0.5422E+16
   -0.412509    1.57180  0.0000E+00  0.4096E-13  0.8590E-16  0.1000E-09  0.0000E+00  0.5080E+16
   -0.450011    1.70478  0.0000E+00  0.4096E-13  0.8590E-16  0.1000E-09  0.0000E+00  0.4745E+16
   -0.487513    1.83673  0.0000E+00  0.4096E-13  0.8590E-16  0.1000E-09  0.0000E+00  0.4418E+16
   -0.525016    1.96758  0.0000E+00  0.4267E-13  0.8590E-16  0.1000E-09  0.0000E+00  0.4093E+16
   -0.562518    2.09717  0.0000E+00  0.1953E-12  0.8590E-16  0.1000E-09  0.0000E+00  0.3777E+16
   -0.600021    2.22547  0.0000E+00  0.5156E-12  0.1371E-15  0.1000E-09  0.0000E+00  0.3469E+16
   -0.637523    2.35245  0.0000E+00  0.1106E-11  0.2546E-15  0.1000E-09  0.0000E+00  0.3171E+16
   -0.675026    2.47811  0.0000E+00  0.2198E-11  0.4797E-15  0.1000E-09  0.0000E+00  0.2882E+16
   -0.712529    2.60241  0.0000E+00  0.4237E-11  0.8976E-15  0.1000E-09  0.0000E+00  0.2601E+16
   -0.750032    2.72535  0.0000E+00  0.8047E-11  0.1667E-14  0.1000E-09  0.0000E+00  0.2357E+16
   -0.787535    2.84843  0.0000E+00  0.1515E-10  0.3074E-14  0.1000E-09  0.0000E+00  0.2123E+16
   -0.825038    2.97222  0.0000E+00  0.2835E-10  0.5637E-14  0.1000E-09  0.0000E+00  0.1886E+16
   -0.862540    3.09683  0.0000E+00  0.5275E-10  0.1028E-13  0.1000E-09  0.0000E+00  0.1647E+16
   -0.900043    3.22233  0.0000E+00  0.9761E-10  0.1866E-13  0.1000E-09  0.0000E+00  0.1404E+16
   -0.937546    3.34881  0.0000E+00  0.1797E-09  0.3369E-13  0.1000E-09  0.0000E+00  0.1157E+16
   -0.975048    3.47635  0.0000E+00  0.3292E-09  0.6055E-13  0.1858E-09  0.0000E+00  0.9041E+15
   -1.012551    3.60493  0.0000E+00  0.6010E-09  0.1085E-12  0.4658E-09  0.0000E+00  0.6460E+15
   -1.050053    3.73454  0.0000E+00  0.1095E-08  0.1940E-12  0.1409E-08  0.0000E+00  0.3818E+15
   -1.087555    3.86467  0.0000E+00  0.1983E-08  0.3450E-12  0.8225E-08  0.0000E+00  0.1159E+15
   -1.125057    3.99021  0.0000E+00  0.2775E-08  0.4846E-12  0.4363E-05  0.0000E+00 -0.3921E+12
   -1.162559    3.99441  0.0000E+00  0.3252E-08  0.5923E-12  0.5848E-05  0.0000E+00 -0.4815E+12
   -1.200061    3.99759  0.0000E+00  0.3662E-08  0.7100E-12  0.6599E-05  0.0000E+00 -0.5650E+12
   -1.237562    4.00043  0.0000E+00  0.4009E-08  0.8430E-12  0.6826E-05  0.0000E+00 -0.6732E+12
   -1.275063    4.00320  0.0000E+00  0.4290E-08  0.1003E-11  0.6600E-05  0.0000E+00 -0.8342E+12
   -1.312564    4.00610  0.0000E+00  0.4493E-08  0.1210E-11  0.5927E-05  0.0000E+00 -0.1100E+13
   -1.350065    4.00938  0.0000E+00  0.4583E-08  0.1504E-11  0.4822E-05  0.0000E+00 -0.1609E+13
   -1.387565    4.01347  0.0000E+00  0.4491E-08  0.1985E-11  0.3328E-05  0.0000E+00 -0.2838E+13
   -1.425065    4.01948  0.0000E+00  0.4055E-08  0.2995E-11  0.1636E-05  0.0000E+00 -0.7473E+13
   -1.462565    4.03164  0.0000E+00  0.2992E-08  0.6208E-11  0.3489E-06  0.0000E+00 -0.4991E+14
   -1.500064    4.07814  0.0000E+00  0.0000E+00  0.0000E+00  0.0000E+00  0.0000E+00  0.0000E+00
