 1 - depth, m
 2 - temperature, C
 3 - salinity, kg/kg
 4 - turbulent kinetic energy, m**2/s**2
 5 - dissipation rate, m**2/s**3
 6 - kinematic heat conductance, m**2/s
 7 - modulus of horizontal velocity, m/s
 8 - Richardson number, n/d
   -0.000000    0.00000  0.0000E+00  0.4096E-13  0.8590E-16  0.1000E-09  0.0000E+00  0.7513E+16
   -0.037495    0.11446  0.0000E+00  0.4096E-13  0.8590E-16  0.1000E-09  0.0000E+00  0.7286E+16
   -0.074991    0.22901  0.0000E+00  0.4096E-13  0.8590E-16  0.1000E-09  0.0000E+00  0.7054E+16
   -0.112487    0.34359  0.0000E+00  0.4096E-13  0.8590E-16  0.1000E-09  0.0000E+00  0.6820E+16
   -0.149983    0.45811  0.0000E+00  0.4096E-13  0.8590E-16  0.1000E-09  0.0000E+00  0.6583E+16
   -0.187480    0.57252  0.0000E+00  0.4096E-13  0.8590E-16  0.1000E-09  0.0000E+00  0.6343E+16
   -0.224976    0.68674  0.0000E+00  0.4096E-13  0.8590E-16  0.1000E-09  0.0000E+00  0.6102E+16
   -0.262474    0.80071  0.0000E+00  0.4096E-13  0.8590E-16  0.1000E-09  0.0000E+00  0.5857E+16
   -0.299971    0.91429  0.0000E+00  0.4096E-13  0.8590E-16  0.1000E-09  0.0000E+00  0.5610E+16
   -0.337468    1.02738  0.0000E+00  0.4096E-13  0.8590E-16  0.1000E-09  0.0000E+00  0.5364E+16
   -0.374966    1.13993  0.0000E+00  0.4096E-13  0.8590E-16  0.1000E-09  0.0000E+00  0.5124E+16
   -0.412464    1.25199  0.0000E+00  0.4096E-13  0.8590E-16  0.1000E-09  0.0000E+00  0.4890E+16
   -0.449962    1.36359  0.0000E+00  0.4096E-13  0.8590E-16  0.1000E-09  0.0000E+00  0.4656E+16
   -0.487461    1.47467  0.0000E+00  0.4096E-13  0.8590E-16  0.1000E-09  0.0000E+00  0.4423E+16
   -0.524959    1.58514  0.0000E+00  0.4096E-13  0.8590E-16  0.1000E-09  0.0000E+00  0.4188E+16
   -0.562458    1.69487  0.0000E+00  0.4096E-13  0.8590E-16  0.1000E-09  0.0000E+00  0.3956E+16
   -0.599956    1.80378  0.0000E+00  0.4096E-13  0.8590E-16  0.1000E-09  0.0000E+00  0.3727E+16
   -0.637455    1.91180  0.0000E+00  0.4096E-13  0.8590E-16  0.1000E-09  0.0000E+00  0.3500E+16
   -0.674954    2.01884  0.0000E+00  0.4096E-13  0.8590E-16  0.1000E-09  0.0000E+00  0.3277E+16
   -0.712452    2.12481  0.0000E+00  0.4096E-13  0.8590E-16  0.1000E-09  0.0000E+00  0.3058E+16
   -0.749951    2.22963  0.0000E+00  0.4096E-13  0.8590E-16  0.1000E-09  0.0000E+00  0.2853E+16
   -0.787450    2.33357  0.0000E+00  0.4096E-13  0.8590E-16  0.1000E-09  0.0000E+00  0.2654E+16
   -0.824949    2.43671  0.0000E+00  0.4096E-13  0.8590E-16  0.1000E-09  0.0000E+00  0.2458E+16
   -0.862448    2.53897  0.0000E+00  0.4096E-13  0.8590E-16  0.1000E-09  0.0000E+00  0.2266E+16
   -0.899946    2.64027  0.0000E+00  0.4096E-13  0.8590E-16  0.1000E-09  0.0000E+00  0.2078E+16
   -0.937445    2.74055  0.0000E+00  0.4096E-13  0.8590E-16  0.1000E-09  0.0000E+00  0.1894E+16
   -0.974943    2.83973  0.0000E+00  0.4096E-13  0.8590E-16  0.1000E-09  0.0000E+00  0.1715E+16
   -1.012442    2.93772  0.0000E+00  0.4096E-13  0.8590E-16  0.1000E-09  0.0000E+00  0.1537E+16
   -1.049940    3.03425  0.0000E+00  0.4096E-13  0.8590E-16  0.1000E-09  0.0000E+00  0.1364E+16
   -1.087438    3.12914  0.0000E+00  0.4096E-13  0.8590E-16  0.1000E-09  0.0000E+00  0.1197E+16
   -1.124936    3.22221  0.0000E+00  0.4096E-13  0.8590E-16  0.1000E-09  0.0000E+00  0.1052E+16
   -1.162434    3.31469  0.0000E+00  0.4096E-13  0.8590E-16  0.1000E-09  0.0000E+00  0.9112E+15
   -1.199931    3.40675  0.0000E+00  0.4096E-13  0.8590E-16  0.1000E-09  0.0000E+00  0.7726E+15
   -1.237429    3.49838  0.0000E+00  0.1298E-12  0.1758E-15  0.1000E-09  0.0000E+00  0.6364E+15
   -1.274926    3.58958  0.0000E+00  0.5647E-12  0.7201E-15  0.1000E-09  0.0000E+00  0.5028E+15
   -1.312423    3.68045  0.0000E+00  0.2435E-11  0.3053E-14  0.1000E-09  0.0000E+00  0.3711E+15
   -1.349919    3.77098  0.0000E+00  0.1041E-10  0.1296E-13  0.1290E-09  0.0000E+00  0.2412E+15
   -1.387416    3.86120  0.0000E+00  0.4428E-10  0.5557E-13  0.1025E-08  0.0000E+00  0.1128E+15
   -1.424911    3.95059  0.0000E+00  0.1851E-09  0.2444E-12  0.1907E-07  0.0000E+00 -0.4737E+13
   -1.462407    4.02972  0.0000E+00  0.6090E-09  0.1150E-11  0.1126E-06  0.0000E+00 -0.5361E+14
   -1.499902    4.07978  0.0000E+00  0.0000E+00  0.0000E+00  0.0000E+00  0.0000E+00  0.0000E+00
