 1 - depth, m
 2 - temperature, C
 3 - salinity, kg/kg
 4 - turbulent kinetic energy, m**2/s**2
 5 - dissipation rate, m**2/s**3
 6 - kinematic heat conductance, m**2/s
 7 - modulus of horizontal velocity, m/s
 8 - Richardson number, n/d
   -0.000000    0.36332  0.0000E+00  0.1468E-02  0.1037E-01  0.1304E-03  0.6203E+00  0.2466E-01
   -0.037498    0.38881  0.0000E+00  0.8010E-03  0.4856E-02  0.2639E-03  0.2081E+00  0.4941E-01
   -0.074997    0.39855  0.0000E+00  0.5321E-03  0.1983E-02  0.4153E-03  0.1198E+00 -0.3317E-01
   -0.112496    0.40260  0.0000E+00  0.4286E-03  0.1358E-02  0.4558E-03  0.9113E-01  0.4262E-01
   -0.149995    0.40449  0.0000E+00  0.3535E-03  0.8374E-03  0.4548E-03  0.7578E-01  0.3585E-01
   -0.187495    0.40560  0.0000E+00  0.3048E-03  0.5699E-03  0.4742E-03  0.6609E-01 -0.6389E-03
   -0.224995    0.40646  0.0000E+00  0.2676E-03  0.3881E-03  0.4676E-03  0.5942E-01 -0.1273E-02
   -0.262495    0.40725  0.0000E+00  0.2350E-03  0.2623E-03  0.4913E-03  0.5348E-01  0.5905E-02
   -0.299996    0.40785  0.0000E+00  0.2099E-03  0.1768E-03  0.4867E-03  0.4918E-01 -0.2821E-02
   -0.337496    0.40841  0.0000E+00  0.1899E-03  0.1193E-03  0.4930E-03  0.4560E-01  0.7748E-02
   -0.374997    0.40894  0.0000E+00  0.1733E-03  0.8163E-04  0.4995E-03  0.4213E-01 -0.1686E-02
   -0.412498    0.40945  0.0000E+00  0.1592E-03  0.5422E-04  0.4973E-03  0.3902E-01 -0.2167E-02
   -0.450000    0.41027  0.0000E+00  0.1457E-03  0.3604E-04  0.5211E-03  0.3522E-01  0.7204E-02
   -0.487501    0.41076  0.0000E+00  0.1346E-03  0.2502E-04  0.5247E-03  0.3282E-01  0.2943E-01
   -0.525003    0.41124  0.0000E+00  0.1250E-03  0.1753E-04  0.5325E-03  0.3033E-01  0.4565E-02
   -0.562504    0.41168  0.0000E+00  0.1168E-03  0.1243E-04  0.5411E-03  0.2840E-01  0.3353E-02
   -0.600006    0.41210  0.0000E+00  0.1096E-03  0.8927E-05  0.5534E-03  0.2667E-01 -0.1949E+00
   -0.637508    0.41252  0.0000E+00  0.1032E-03  0.6518E-05  0.5579E-03  0.2506E-01  0.3775E-02
   -0.675010    0.41293  0.0000E+00  0.9744E-04  0.4842E-05  0.5638E-03  0.2357E-01 -0.7463E-01
   -0.712511    0.41335  0.0000E+00  0.9225E-04  0.3682E-05  0.5679E-03  0.2214E-01 -0.4370E-01
   -0.750013    0.41379  0.0000E+00  0.8745E-04  0.2872E-05  0.5712E-03  0.2081E-01  0.1498E-01
   -0.787515    0.41425  0.0000E+00  0.8313E-04  0.2250E-05  0.5684E-03  0.1956E-01  0.3272E-01
   -0.825017    0.41481  0.0000E+00  0.7899E-04  0.1804E-05  0.5723E-03  0.1818E-01  0.3452E-01
   -0.862519    0.41530  0.0000E+00  0.7523E-04  0.1506E-05  0.5702E-03  0.1705E-01  0.4266E-01
   -0.900021    0.41577  0.0000E+00  0.7170E-04  0.1284E-05  0.5637E-03  0.1600E-01  0.5158E-01
   -0.937523    0.41623  0.0000E+00  0.6831E-04  0.1115E-05  0.5576E-03  0.1499E-01  0.6270E-01
   -0.975024    0.41671  0.0000E+00  0.6507E-04  0.9846E-06  0.5471E-03  0.1402E-01  0.8287E-01
   -1.012526    0.41722  0.0000E+00  0.6190E-04  0.8821E-06  0.5326E-03  0.1308E-01  0.1401E+00
   -1.050027    0.41774  0.0000E+00  0.5874E-04  0.7995E-06  0.5232E-03  0.1218E-01  0.3738E+00
   -1.087528    0.41828  0.0000E+00  0.5567E-04  0.7344E-06  0.5066E-03  0.1136E-01  0.1204E+01
   -1.125029    0.41887  0.0000E+00  0.5264E-04  0.6836E-06  0.4847E-03  0.1058E-01  0.2863E+01
   -1.162530    0.41949  0.0000E+00  0.4959E-04  0.6457E-06  0.4579E-03  0.9835E-02  0.6780E+01
   -1.200031    0.42016  0.0000E+00  0.4649E-04  0.6213E-06  0.4271E-03  0.9106E-02  0.1632E+02
   -1.237531    0.42091  0.0000E+00  0.4333E-04  0.6134E-06  0.3899E-03  0.8393E-02  0.6490E+02
   -1.275032    0.42179  0.0000E+00  0.3995E-04  0.6270E-06  0.3514E-03  0.7677E-02  0.5798E+03
   -1.312532    0.42277  0.0000E+00  0.3626E-04  0.6754E-06  0.3056E-03  0.6994E-02  0.8620E+04
   -1.350031    0.42393  0.0000E+00  0.3215E-04  0.7863E-06  0.2489E-03  0.6328E-02  0.3009E+06
   -1.387531    0.42541  0.0000E+00  0.2729E-04  0.1027E-05  0.1846E-03  0.5633E-02  0.1018E+07
   -1.425030    0.42753  0.0000E+00  0.2112E-04  0.1616E-05  0.1078E-03  0.4871E-02  0.1661E+06
   -1.462528    0.43169  0.0000E+00  0.1216E-04  0.3900E-05  0.2382E-04  0.4056E-02  0.1067E+04
   -1.500027    0.46279  0.0000E+00  0.0000E+00  0.0000E+00  0.0000E+00  0.4488E-02  0.0000E+00
