 1 - depth, m
 2 - temperature, C
 3 - salinity, kg/kg
 4 - turbulent kinetic energy, m**2/s**2
 5 - dissipation rate, m**2/s**3
 6 - kinematic heat conductance, m**2/s
 7 - modulus of horizontal velocity, m/s
 8 - Richardson number, n/d
   -0.000000    0.00000  0.0000E+00  0.4096E-13  0.8590E-16  0.1000E-09  0.0000E+00  0.9588E+16
   -0.037498    0.14672  0.0000E+00  0.4096E-13  0.8590E-16  0.1000E-09  0.0000E+00  0.9145E+16
   -0.074996    0.29246  0.0000E+00  0.4096E-13  0.8590E-16  0.1000E-09  0.0000E+00  0.8704E+16
   -0.112495    0.43708  0.0000E+00  0.4096E-13  0.8590E-16  0.1000E-09  0.0000E+00  0.8266E+16
   -0.149994    0.58045  0.0000E+00  0.4096E-13  0.8590E-16  0.1000E-09  0.0000E+00  0.7833E+16
   -0.187493    0.72247  0.0000E+00  0.4096E-13  0.8590E-16  0.1000E-09  0.0000E+00  0.7405E+16
   -0.224993    0.86301  0.0000E+00  0.4096E-13  0.8590E-16  0.1000E-09  0.0000E+00  0.6985E+16
   -0.262493    1.00197  0.0000E+00  0.4096E-13  0.8590E-16  0.1000E-09  0.0000E+00  0.6570E+16
   -0.299993    1.13917  0.0000E+00  0.4096E-13  0.8590E-16  0.1000E-09  0.0000E+00  0.6163E+16
   -0.337493    1.27450  0.0000E+00  0.4096E-13  0.8590E-16  0.1000E-09  0.0000E+00  0.5767E+16
   -0.374994    1.40785  0.0000E+00  0.4096E-13  0.8590E-16  0.1000E-09  0.0000E+00  0.5399E+16
   -0.412495    1.53958  0.0000E+00  0.4096E-13  0.8590E-16  0.1000E-09  0.0000E+00  0.5052E+16
   -0.449995    1.66989  0.0000E+00  0.4096E-13  0.8590E-16  0.1000E-09  0.0000E+00  0.4712E+16
   -0.487497    1.79871  0.0000E+00  0.4096E-13  0.8590E-16  0.1000E-09  0.0000E+00  0.4382E+16
   -0.524998    1.92598  0.0000E+00  0.4096E-13  0.8590E-16  0.1000E-09  0.0000E+00  0.4058E+16
   -0.562499    2.05159  0.0000E+00  0.4096E-13  0.8590E-16  0.1000E-09  0.0000E+00  0.3745E+16
   -0.600000    2.17545  0.0000E+00  0.4096E-13  0.8590E-16  0.1000E-09  0.0000E+00  0.3441E+16
   -0.637502    2.29751  0.0000E+00  0.4096E-13  0.8590E-16  0.1000E-09  0.0000E+00  0.3147E+16
   -0.675003    2.41767  0.0000E+00  0.4096E-13  0.8590E-16  0.1000E-09  0.0000E+00  0.2863E+16
   -0.712505    2.53586  0.0000E+00  0.4097E-13  0.8590E-16  0.1000E-09  0.0000E+00  0.2590E+16
   -0.750006    2.65199  0.0000E+00  0.1924E-12  0.9086E-16  0.1000E-09  0.0000E+00  0.2341E+16
   -0.787508    2.76663  0.0000E+00  0.5207E-12  0.1748E-15  0.1000E-09  0.0000E+00  0.2103E+16
   -0.825010    2.87996  0.0000E+00  0.1191E-11  0.3653E-15  0.1000E-09  0.0000E+00  0.1873E+16
   -0.862511    2.99192  0.0000E+00  0.2575E-11  0.7604E-15  0.1000E-09  0.0000E+00  0.1651E+16
   -0.900013    3.10246  0.0000E+00  0.5448E-11  0.1567E-14  0.1000E-09  0.0000E+00  0.1435E+16
   -0.937514    3.21150  0.0000E+00  0.1139E-10  0.3199E-14  0.1000E-09  0.0000E+00  0.1228E+16
   -0.975015    3.31899  0.0000E+00  0.2362E-10  0.6481E-14  0.1000E-09  0.0000E+00  0.1029E+16
   -1.012516    3.42487  0.0000E+00  0.4872E-10  0.1307E-13  0.1000E-09  0.0000E+00  0.8373E+15
   -1.050017    3.52895  0.0000E+00  0.1001E-09  0.2625E-13  0.1111E-09  0.0000E+00  0.6543E+15
   -1.087518    3.63109  0.0000E+00  0.2045E-09  0.5246E-13  0.3023E-09  0.0000E+00  0.4803E+15
   -1.125019    3.73104  0.0000E+00  0.4152E-09  0.1042E-12  0.9009E-09  0.0000E+00  0.3198E+15
   -1.162520    3.82988  0.0000E+00  0.8368E-09  0.2057E-12  0.3455E-08  0.0000E+00  0.1640E+15
   -1.200020    3.92655  0.0000E+00  0.1648E-08  0.3979E-12  0.4091E-07  0.0000E+00  0.2582E+14
   -1.237520    4.00307  0.0000E+00  0.2534E-08  0.6158E-12  0.4138E-05  0.0000E+00 -0.9411E+12
   -1.275020    4.00634  0.0000E+00  0.2974E-08  0.7659E-12  0.4449E-05  0.0000E+00 -0.1045E+13
   -1.312520    4.00943  0.0000E+00  0.3281E-08  0.9366E-12  0.4290E-05  0.0000E+00 -0.1265E+13
   -1.350019    4.01269  0.0000E+00  0.3449E-08  0.1159E-11  0.3680E-05  0.0000E+00 -0.1719E+13
   -1.387518    4.01657  0.0000E+00  0.3431E-08  0.1503E-11  0.2645E-05  0.0000E+00 -0.2834E+13
   -1.425017    4.02205  0.0000E+00  0.3103E-08  0.2197E-11  0.1335E-05  0.0000E+00 -0.6966E+13
   -1.462515    4.03286  0.0000E+00  0.2254E-08  0.4332E-11  0.2796E-06  0.0000E+00 -0.4221E+14
   -1.500013    4.07326  0.0000E+00  0.0000E+00  0.0000E+00  0.0000E+00  0.0000E+00  0.0000E+00
