 1 - depth, m
 2 - temperature, C
 3 - salinity, kg/kg
 4 - turbulent kinetic energy, m**2/s**2
 5 - dissipation rate, m**2/s**3
 6 - kinematic heat conductance, m**2/s
 7 - modulus of horizontal velocity, m/s
 8 - Richardson number, n/d
   -0.000000    0.00000  0.0000E+00  0.4096E-13  0.8590E-16  0.1000E-09  0.0000E+00  0.9638E+16
   -0.037500    0.14750  0.0000E+00  0.4096E-13  0.8590E-16  0.1000E-09  0.0000E+00  0.9233E+16
   -0.075000    0.29470  0.0000E+00  0.4096E-13  0.8590E-16  0.1000E-09  0.0000E+00  0.8825E+16
   -0.112501    0.44147  0.0000E+00  0.4096E-13  0.8590E-16  0.1000E-09  0.0000E+00  0.8415E+16
   -0.150002    0.58770  0.0000E+00  0.4096E-13  0.8590E-16  0.1000E-09  0.0000E+00  0.8006E+16
   -0.187503    0.73327  0.0000E+00  0.4096E-13  0.8590E-16  0.1000E-09  0.0000E+00  0.7597E+16
   -0.225004    0.87807  0.0000E+00  0.4096E-13  0.8590E-16  0.1000E-09  0.0000E+00  0.7191E+16
   -0.262506    1.02201  0.0000E+00  0.4096E-13  0.8590E-16  0.1000E-09  0.0000E+00  0.6785E+16
   -0.300008    1.16487  0.0000E+00  0.4096E-13  0.8590E-16  0.1000E-09  0.0000E+00  0.6382E+16
   -0.337510    1.30655  0.0000E+00  0.4096E-13  0.8590E-16  0.1000E-09  0.0000E+00  0.5985E+16
   -0.375013    1.44692  0.0000E+00  0.4096E-13  0.8590E-16  0.1000E-09  0.0000E+00  0.5603E+16
   -0.412516    1.58610  0.0000E+00  0.4096E-13  0.8590E-16  0.1000E-09  0.0000E+00  0.5233E+16
   -0.450018    1.72411  0.0000E+00  0.4096E-13  0.8590E-16  0.1000E-09  0.0000E+00  0.4868E+16
   -0.487521    1.86086  0.0000E+00  0.4096E-13  0.8590E-16  0.1000E-09  0.0000E+00  0.4510E+16
   -0.525024    1.99623  0.0000E+00  0.4096E-13  0.8590E-16  0.1000E-09  0.0000E+00  0.4157E+16
   -0.562528    2.13003  0.0000E+00  0.4096E-13  0.8590E-16  0.1000E-09  0.0000E+00  0.3813E+16
   -0.600031    2.26214  0.0000E+00  0.1609E-12  0.8590E-16  0.1000E-09  0.0000E+00  0.3478E+16
   -0.637534    2.39245  0.0000E+00  0.4465E-12  0.1249E-15  0.1000E-09  0.0000E+00  0.3153E+16
   -0.675038    2.52083  0.0000E+00  0.9752E-12  0.2271E-15  0.1000E-09  0.0000E+00  0.2838E+16
   -0.712541    2.64718  0.0000E+00  0.1947E-11  0.4252E-15  0.1000E-09  0.0000E+00  0.2535E+16
   -0.750045    2.77135  0.0000E+00  0.3748E-11  0.7922E-15  0.1000E-09  0.0000E+00  0.2253E+16
   -0.787548    2.89374  0.0000E+00  0.7097E-11  0.1465E-14  0.1000E-09  0.0000E+00  0.1984E+16
   -0.825051    3.01443  0.0000E+00  0.1331E-10  0.2689E-14  0.1000E-09  0.0000E+00  0.1724E+16
   -0.862555    3.13334  0.0000E+00  0.2479E-10  0.4908E-14  0.1000E-09  0.0000E+00  0.1475E+16
   -0.900058    3.25035  0.0000E+00  0.4591E-10  0.8909E-14  0.1000E-09  0.0000E+00  0.1236E+16
   -0.937562    3.36540  0.0000E+00  0.8455E-10  0.1609E-13  0.1000E-09  0.0000E+00  0.1008E+16
   -0.975065    3.47836  0.0000E+00  0.1549E-09  0.2890E-13  0.1048E-09  0.0000E+00  0.7911E+15
   -1.012568    3.58915  0.0000E+00  0.2828E-09  0.5174E-13  0.2459E-09  0.0000E+00  0.5841E+15
   -1.050071    3.69723  0.0000E+00  0.5152E-09  0.9250E-13  0.6576E-09  0.0000E+00  0.3904E+15
   -1.087574    3.80214  0.0000E+00  0.9348E-09  0.1647E-12  0.2159E-08  0.0000E+00  0.2117E+15
   -1.125076    3.90291  0.0000E+00  0.1679E-08  0.2906E-12  0.1493E-07  0.0000E+00  0.5402E+14
   -1.162579    3.99463  0.0000E+00  0.2347E-08  0.4077E-12  0.4702E-05  0.0000E+00 -0.4502E+12
   -1.200081    3.99761  0.0000E+00  0.2708E-08  0.4895E-12  0.5460E-05  0.0000E+00 -0.5013E+12
   -1.237583    4.00017  0.0000E+00  0.2995E-08  0.5775E-12  0.5736E-05  0.0000E+00 -0.5742E+12
   -1.275085    4.00261  0.0000E+00  0.3215E-08  0.6798E-12  0.5592E-05  0.0000E+00 -0.6893E+12
   -1.312586    4.00512  0.0000E+00  0.3360E-08  0.8087E-12  0.5039E-05  0.0000E+00 -0.8854E+12
   -1.350087    4.00792  0.0000E+00  0.3405E-08  0.9884E-12  0.4091E-05  0.0000E+00 -0.1266E+13
   -1.387588    4.01139  0.0000E+00  0.3296E-08  0.1280E-11  0.2791E-05  0.0000E+00 -0.2197E+13
   -1.425089    4.01647  0.0000E+00  0.2907E-08  0.1885E-11  0.1328E-05  0.0000E+00 -0.5740E+13
   -1.462589    4.02684  0.0000E+00  0.2050E-08  0.3761E-11  0.2585E-06  0.0000E+00 -0.3730E+14
   -1.500089    4.06636  0.0000E+00  0.0000E+00  0.0000E+00  0.0000E+00  0.0000E+00  0.0000E+00
