 1 - depth, m
 2 - temperature, C
 3 - salinity, kg/kg
 4 - turbulent kinetic energy, m**2/s**2
 5 - dissipation rate, m**2/s**3
 6 - kinematic heat conductance, m**2/s
 7 - modulus of horizontal velocity, m/s
 8 - Richardson number, n/d
   -0.000000    0.00000  0.0000E+00  0.4096E-13  0.8590E-16  0.1000E-09  0.0000E+00  0.1032E+17
   -0.037495    0.15810  0.0000E+00  0.4096E-13  0.8590E-16  0.1000E-09  0.0000E+00  0.9753E+16
   -0.074991    0.31424  0.0000E+00  0.4096E-13  0.8590E-16  0.1000E-09  0.0000E+00  0.9192E+16
   -0.112487    0.46817  0.0000E+00  0.4096E-13  0.8590E-16  0.1000E-09  0.0000E+00  0.8639E+16
   -0.149984    0.61964  0.0000E+00  0.4096E-13  0.8590E-16  0.1000E-09  0.0000E+00  0.8095E+16
   -0.187481    0.76842  0.0000E+00  0.4096E-13  0.8590E-16  0.1000E-09  0.0000E+00  0.7563E+16
   -0.224978    0.91429  0.0000E+00  0.4096E-13  0.8590E-16  0.1000E-09  0.0000E+00  0.7046E+16
   -0.262475    1.05707  0.0000E+00  0.4096E-13  0.8590E-16  0.1000E-09  0.0000E+00  0.6529E+16
   -0.299973    1.19623  0.0000E+00  0.4096E-13  0.8590E-16  0.1000E-09  0.0000E+00  0.6029E+16
   -0.337470    1.33153  0.0000E+00  0.4096E-13  0.8590E-16  0.1000E-09  0.0000E+00  0.5551E+16
   -0.374968    1.46277  0.0000E+00  0.4096E-13  0.8590E-16  0.1000E-09  0.0000E+00  0.5145E+16
   -0.412466    1.59114  0.0000E+00  0.4096E-13  0.8590E-16  0.1000E-09  0.0000E+00  0.4787E+16
   -0.449965    1.71734  0.0000E+00  0.4096E-13  0.8590E-16  0.1000E-09  0.0000E+00  0.4442E+16
   -0.487463    1.84134  0.0000E+00  0.4096E-13  0.8590E-16  0.1000E-09  0.0000E+00  0.4109E+16
   -0.524962    1.96304  0.0000E+00  0.4096E-13  0.8590E-16  0.1000E-09  0.0000E+00  0.3783E+16
   -0.562461    2.08220  0.0000E+00  0.4096E-13  0.8590E-16  0.1000E-09  0.0000E+00  0.3472E+16
   -0.599959    2.19877  0.0000E+00  0.4096E-13  0.8590E-16  0.1000E-09  0.0000E+00  0.3175E+16
   -0.637458    2.31270  0.0000E+00  0.4096E-13  0.8590E-16  0.1000E-09  0.0000E+00  0.2894E+16
   -0.674957    2.42395  0.0000E+00  0.4096E-13  0.8590E-16  0.1000E-09  0.0000E+00  0.2627E+16
   -0.712456    2.53249  0.0000E+00  0.4096E-13  0.8590E-16  0.1000E-09  0.0000E+00  0.2374E+16
   -0.749955    2.63828  0.0000E+00  0.1189E-12  0.8590E-16  0.1000E-09  0.0000E+00  0.2170E+16
   -0.787454    2.74300  0.0000E+00  0.3637E-12  0.1429E-15  0.1000E-09  0.0000E+00  0.1984E+16
   -0.824953    2.84734  0.0000E+00  0.8895E-12  0.3025E-15  0.1000E-09  0.0000E+00  0.1803E+16
   -0.862452    2.95142  0.0000E+00  0.2011E-11  0.6511E-15  0.1000E-09  0.0000E+00  0.1626E+16
   -0.899951    3.05538  0.0000E+00  0.4416E-11  0.1388E-14  0.1000E-09  0.0000E+00  0.1452E+16
   -0.937450    3.15938  0.0000E+00  0.9563E-11  0.2932E-14  0.1000E-09  0.0000E+00  0.1280E+16
   -0.974949    3.26358  0.0000E+00  0.2051E-10  0.6142E-14  0.1000E-09  0.0000E+00  0.1110E+16
   -1.012447    3.36818  0.0000E+00  0.4374E-10  0.1279E-13  0.1000E-09  0.0000E+00  0.9393E+15
   -1.049946    3.47324  0.0000E+00  0.9288E-10  0.2655E-13  0.1022E-09  0.0000E+00  0.7677E+15
   -1.087444    3.57896  0.0000E+00  0.1960E-09  0.5478E-13  0.2553E-09  0.0000E+00  0.5940E+15
   -1.124942    3.68546  0.0000E+00  0.4110E-09  0.1123E-12  0.7397E-09  0.0000E+00  0.4201E+15
   -1.162440    3.79375  0.0000E+00  0.8554E-09  0.2288E-12  0.2670E-08  0.0000E+00  0.2369E+15
   -1.199938    3.90326  0.0000E+00  0.1750E-08  0.4588E-12  0.2414E-07  0.0000E+00  0.5243E+14
   -1.237436    4.00126  0.0000E+00  0.2776E-08  0.7311E-12  0.3936E-05  0.0000E+00 -0.1073E+13
   -1.274933    4.00534  0.0000E+00  0.3310E-08  0.9291E-12  0.4390E-05  0.0000E+00 -0.1221E+13
   -1.312430    4.00909  0.0000E+00  0.3708E-08  0.1162E-11  0.4327E-05  0.0000E+00 -0.1511E+13
   -1.349927    4.01300  0.0000E+00  0.3960E-08  0.1472E-11  0.3778E-05  0.0000E+00 -0.2093E+13
   -1.387423    4.01762  0.0000E+00  0.4013E-08  0.1956E-11  0.2774E-05  0.0000E+00 -0.3506E+13
   -1.424919    4.02410  0.0000E+00  0.3726E-08  0.2932E-11  0.1454E-05  0.0000E+00 -0.8658E+13
   -1.462415    4.03666  0.0000E+00  0.2838E-08  0.5939E-11  0.3364E-06  0.0000E+00 -0.5201E+14
   -1.499911    4.08213  0.0000E+00  0.0000E+00  0.0000E+00  0.0000E+00  0.0000E+00  0.0000E+00
