 1 - depth, m
 2 - temperature, C
 3 - salinity, kg/kg
 4 - turbulent kinetic energy, m**2/s**2
 5 - dissipation rate, m**2/s**3
 6 - kinematic heat conductance, m**2/s
 7 - modulus of horizontal velocity, m/s
 8 - Richardson number, n/d
   -0.000000    0.00000  0.0000E+00  0.4096E-13  0.8590E-16  0.1000E-09  0.0000E+00  0.9656E+16
   -0.037499    0.14778  0.0000E+00  0.4096E-13  0.8590E-16  0.1000E-09  0.0000E+00  0.9187E+16
   -0.074998    0.29424  0.0000E+00  0.4096E-13  0.8590E-16  0.1000E-09  0.0000E+00  0.8726E+16
   -0.112497    0.43932  0.0000E+00  0.4096E-13  0.8590E-16  0.1000E-09  0.0000E+00  0.8275E+16
   -0.149997    0.58295  0.0000E+00  0.4096E-13  0.8590E-16  0.1000E-09  0.0000E+00  0.7833E+16
   -0.187497    0.72508  0.0000E+00  0.4096E-13  0.8590E-16  0.1000E-09  0.0000E+00  0.7400E+16
   -0.224998    0.86565  0.0000E+00  0.4096E-13  0.8590E-16  0.1000E-09  0.0000E+00  0.6978E+16
   -0.262498    1.00458  0.0000E+00  0.4096E-13  0.8590E-16  0.1000E-09  0.0000E+00  0.6557E+16
   -0.299999    1.14163  0.0000E+00  0.4096E-13  0.8590E-16  0.1000E-09  0.0000E+00  0.6145E+16
   -0.337500    1.27669  0.0000E+00  0.4096E-13  0.8590E-16  0.1000E-09  0.0000E+00  0.5747E+16
   -0.375001    1.40968  0.0000E+00  0.4096E-13  0.8590E-16  0.1000E-09  0.0000E+00  0.5388E+16
   -0.412503    1.54122  0.0000E+00  0.4096E-13  0.8590E-16  0.1000E-09  0.0000E+00  0.5054E+16
   -0.450005    1.67168  0.0000E+00  0.4096E-13  0.8590E-16  0.1000E-09  0.0000E+00  0.4727E+16
   -0.487506    1.80104  0.0000E+00  0.4096E-13  0.8590E-16  0.1000E-09  0.0000E+00  0.4408E+16
   -0.525008    1.92924  0.0000E+00  0.4096E-13  0.8590E-16  0.1000E-09  0.0000E+00  0.4091E+16
   -0.562510    2.05611  0.0000E+00  0.4096E-13  0.8590E-16  0.1000E-09  0.0000E+00  0.3783E+16
   -0.600012    2.18161  0.0000E+00  0.4096E-13  0.8590E-16  0.1000E-09  0.0000E+00  0.3483E+16
   -0.637515    2.30568  0.0000E+00  0.1361E-12  0.8590E-16  0.1000E-09  0.0000E+00  0.3192E+16
   -0.675017    2.42829  0.0000E+00  0.3973E-12  0.1234E-15  0.1000E-09  0.0000E+00  0.2909E+16
   -0.712519    2.54938  0.0000E+00  0.9001E-12  0.2304E-15  0.1000E-09  0.0000E+00  0.2636E+16
   -0.750022    2.66889  0.0000E+00  0.1855E-11  0.4450E-15  0.1000E-09  0.0000E+00  0.2396E+16
   -0.787524    2.78806  0.0000E+00  0.3685E-11  0.8554E-15  0.1000E-09  0.0000E+00  0.2166E+16
   -0.825026    2.90732  0.0000E+00  0.7197E-11  0.1631E-14  0.1000E-09  0.0000E+00  0.1937E+16
   -0.862528    3.02671  0.0000E+00  0.1392E-10  0.3087E-14  0.1000E-09  0.0000E+00  0.1709E+16
   -0.900031    3.14625  0.0000E+00  0.2674E-10  0.5807E-14  0.1000E-09  0.0000E+00  0.1481E+16
   -0.937533    3.26595  0.0000E+00  0.5106E-10  0.1086E-13  0.1000E-09  0.0000E+00  0.1253E+16
   -0.975035    3.38584  0.0000E+00  0.9691E-10  0.2020E-13  0.1000E-09  0.0000E+00  0.1025E+16
   -1.012537    3.50593  0.0000E+00  0.1833E-09  0.3744E-13  0.1302E-09  0.0000E+00  0.7970E+15
   -1.050039    3.62619  0.0000E+00  0.3458E-09  0.6925E-13  0.3379E-09  0.0000E+00  0.5680E+15
   -1.087540    3.74649  0.0000E+00  0.6498E-09  0.1276E-12  0.1043E-08  0.0000E+00  0.3388E+15
   -1.125042    3.86640  0.0000E+00  0.1213E-08  0.2337E-12  0.5712E-08  0.0000E+00  0.1127E+15
   -1.162543    3.98328  0.0000E+00  0.1922E-08  0.3694E-12  0.1690E-05  0.0000E+00 -0.2488E+12
   -1.200044    3.99270  0.0000E+00  0.2477E-08  0.5086E-12  0.3789E-05  0.0000E+00 -0.5971E+12
   -1.237545    3.99713  0.0000E+00  0.2927E-08  0.6538E-12  0.4541E-05  0.0000E+00 -0.7470E+12
   -1.275045    4.00088  0.0000E+00  0.3306E-08  0.8229E-12  0.4739E-05  0.0000E+00 -0.9415E+12
   -1.312546    4.00454  0.0000E+00  0.3606E-08  0.1035E-11  0.4476E-05  0.0000E+00 -0.1251E+13
   -1.350046    4.00849  0.0000E+00  0.3799E-08  0.1328E-11  0.3788E-05  0.0000E+00 -0.1834E+13
   -1.387546    4.01326  0.0000E+00  0.3824E-08  0.1794E-11  0.2713E-05  0.0000E+00 -0.3225E+13
   -1.425045    4.02005  0.0000E+00  0.3541E-08  0.2738E-11  0.1398E-05  0.0000E+00 -0.8317E+13
   -1.462544    4.03322  0.0000E+00  0.2710E-08  0.5608E-11  0.3258E-06  0.0000E+00 -0.5094E+14
   -1.500043    4.07964  0.0000E+00  0.0000E+00  0.0000E+00  0.0000E+00  0.0000E+00  0.0000E+00
