 1 - depth, m
 2 - temperature, C
 3 - salinity, kg/kg
 4 - turbulent kinetic energy, m**2/s**2
 5 - dissipation rate, m**2/s**3
 6 - kinematic heat conductance, m**2/s
 7 - modulus of horizontal velocity, m/s
 8 - Richardson number, n/d
   -0.000000    0.00000  0.0000E+00  0.4096E-13  0.8590E-16  0.1000E-09  0.0000E+00  0.1115E+17
   -0.037500    0.17122  0.0000E+00  0.4096E-13  0.8590E-16  0.1000E-09  0.0000E+00  0.1057E+17
   -0.074999    0.34143  0.0000E+00  0.4096E-13  0.8590E-16  0.1000E-09  0.0000E+00  0.9992E+16
   -0.112500    0.51047  0.0000E+00  0.4096E-13  0.8590E-16  0.1000E-09  0.0000E+00  0.9417E+16
   -0.150000    0.67818  0.0000E+00  0.4096E-13  0.8590E-16  0.1000E-09  0.0000E+00  0.8849E+16
   -0.187501    0.84439  0.0000E+00  0.4096E-13  0.8590E-16  0.1000E-09  0.0000E+00  0.8290E+16
   -0.225002    1.00897  0.0000E+00  0.4096E-13  0.8590E-16  0.1000E-09  0.0000E+00  0.7741E+16
   -0.262504    1.17179  0.0000E+00  0.4096E-13  0.8590E-16  0.1000E-09  0.0000E+00  0.7199E+16
   -0.300005    1.33261  0.0000E+00  0.4907E-13  0.8590E-16  0.1000E-09  0.0000E+00  0.6671E+16
   -0.337507    1.49130  0.0000E+00  0.2112E-12  0.8590E-16  0.1000E-09  0.0000E+00  0.6157E+16
   -0.375009    1.64773  0.0000E+00  0.5377E-12  0.1154E-15  0.1000E-09  0.0000E+00  0.5676E+16
   -0.412511    1.80223  0.0000E+00  0.1087E-11  0.1894E-15  0.1000E-09  0.0000E+00  0.5217E+16
   -0.450014    1.95497  0.0000E+00  0.2001E-11  0.3225E-15  0.1000E-09  0.0000E+00  0.4771E+16
   -0.487516    2.10587  0.0000E+00  0.3539E-11  0.5490E-15  0.1000E-09  0.0000E+00  0.4338E+16
   -0.525019    2.25485  0.0000E+00  0.6141E-11  0.9295E-15  0.1000E-09  0.0000E+00  0.3918E+16
   -0.562522    2.40175  0.0000E+00  0.1055E-10  0.1565E-14  0.1000E-09  0.0000E+00  0.3512E+16
   -0.600025    2.54649  0.0000E+00  0.1801E-10  0.2623E-14  0.1000E-09  0.0000E+00  0.3122E+16
   -0.637528    2.68898  0.0000E+00  0.3059E-10  0.4375E-14  0.1000E-09  0.0000E+00  0.2748E+16
   -0.675031    2.82913  0.0000E+00  0.5170E-10  0.7266E-14  0.1000E-09  0.0000E+00  0.2389E+16
   -0.712534    2.96685  0.0000E+00  0.8701E-10  0.1202E-13  0.1000E-09  0.0000E+00  0.2047E+16
   -0.750037    3.10204  0.0000E+00  0.1458E-09  0.1980E-13  0.1000E-09  0.0000E+00  0.1732E+16
   -0.787540    3.23551  0.0000E+00  0.2434E-09  0.3249E-13  0.1000E-09  0.0000E+00  0.1431E+16
   -0.825043    3.36750  0.0000E+00  0.4048E-09  0.5312E-13  0.1293E-09  0.0000E+00  0.1141E+16
   -0.862546    3.49795  0.0000E+00  0.6705E-09  0.8653E-13  0.2791E-09  0.0000E+00  0.8610E+15
   -0.900049    3.62671  0.0000E+00  0.1106E-08  0.1404E-12  0.6598E-09  0.0000E+00  0.5913E+15
   -0.937552    3.75356  0.0000E+00  0.1817E-08  0.2269E-12  0.1895E-08  0.0000E+00  0.3329E+15
   -0.975055    3.87770  0.0000E+00  0.2962E-08  0.3640E-12  0.1103E-07  0.0000E+00  0.9219E+14
   -1.012558    3.99289  0.0000E+00  0.3555E-08  0.4390E-12  0.9219E-05  0.0000E+00 -0.2156E+12
   -1.050060    3.99478  0.0000E+00  0.3868E-08  0.4873E-12  0.1048E-04  0.0000E+00 -0.2347E+12
   -1.087563    3.99641  0.0000E+00  0.4145E-08  0.5390E-12  0.1124E-04  0.0000E+00 -0.2549E+12
   -1.125065    3.99793  0.0000E+00  0.4388E-08  0.5953E-12  0.1162E-04  0.0000E+00 -0.2804E+12
   -1.162567    3.99938  0.0000E+00  0.4596E-08  0.6579E-12  0.1163E-04  0.0000E+00 -0.3137E+12
   -1.200069    4.00084  0.0000E+00  0.4764E-08  0.7292E-12  0.1128E-04  0.0000E+00 -0.3587E+12
   -1.237570    4.00234  0.0000E+00  0.4888E-08  0.8130E-12  0.1057E-04  0.0000E+00 -0.4223E+12
   -1.275072    4.00395  0.0000E+00  0.4960E-08  0.9181E-12  0.9504E-05  0.0000E+00 -0.5196E+12
   -1.312573    4.00574  0.0000E+00  0.4961E-08  0.1060E-11  0.8035E-05  0.0000E+00 -0.6835E+12
   -1.350074    4.00787  0.0000E+00  0.4857E-08  0.1270E-11  0.6176E-05  0.0000E+00 -0.1002E+13
   -1.387574    4.01066  0.0000E+00  0.4575E-08  0.1630E-11  0.4001E-05  0.0000E+00 -0.1791E+13
   -1.425075    4.01498  0.0000E+00  0.3943E-08  0.2425E-11  0.1788E-05  0.0000E+00 -0.4953E+13
   -1.462575    4.02444  0.0000E+00  0.2674E-08  0.5090E-11  0.3122E-06  0.0000E+00 -0.3843E+14
   -1.500074    4.06608  0.0000E+00  0.0000E+00  0.0000E+00  0.0000E+00  0.0000E+00  0.0000E+00
