 1 - depth, m
 2 - temperature, C
 3 - salinity, kg/kg
 4 - turbulent kinetic energy, m**2/s**2
 5 - dissipation rate, m**2/s**3
 6 - kinematic heat conductance, m**2/s
 7 - modulus of horizontal velocity, m/s
 8 - Richardson number, n/d
   -0.000000    0.00000  0.0000E+00  0.4096E-13  0.8590E-16  0.1000E-09  0.0000E+00  0.1255E+17
   -0.037498    0.19333  0.0000E+00  0.4096E-13  0.8590E-16  0.1000E-09  0.0000E+00  0.1178E+17
   -0.074997    0.38477  0.0000E+00  0.4096E-13  0.8590E-16  0.1000E-09  0.0000E+00  0.1100E+17
   -0.112496    0.57389  0.0000E+00  0.4096E-13  0.8590E-16  0.1000E-09  0.0000E+00  0.1023E+17
   -0.149996    0.76031  0.0000E+00  0.4096E-13  0.8590E-16  0.1000E-09  0.0000E+00  0.9471E+16
   -0.187496    0.94364  0.0000E+00  0.4096E-13  0.8590E-16  0.1000E-09  0.0000E+00  0.8728E+16
   -0.224996    1.12353  0.0000E+00  0.4096E-13  0.8590E-16  0.1000E-09  0.0000E+00  0.8006E+16
   -0.262496    1.29964  0.0000E+00  0.1426E-12  0.8590E-16  0.1000E-09  0.0000E+00  0.7297E+16
   -0.299997    1.47137  0.0000E+00  0.4090E-12  0.1056E-15  0.1000E-09  0.0000E+00  0.6615E+16
   -0.337497    1.63836  0.0000E+00  0.8803E-12  0.1746E-15  0.1000E-09  0.0000E+00  0.5967E+16
   -0.374998    1.80037  0.0000E+00  0.1691E-11  0.3060E-15  0.1000E-09  0.0000E+00  0.5406E+16
   -0.412500    1.95874  0.0000E+00  0.3096E-11  0.5379E-15  0.1000E-09  0.0000E+00  0.4902E+16
   -0.450001    2.11429  0.0000E+00  0.5549E-11  0.9397E-15  0.1000E-09  0.0000E+00  0.4420E+16
   -0.487502    2.26696  0.0000E+00  0.9830E-11  0.1631E-14  0.1000E-09  0.0000E+00  0.3960E+16
   -0.525004    2.41669  0.0000E+00  0.1731E-10  0.2818E-14  0.1000E-09  0.0000E+00  0.3520E+16
   -0.562506    2.56329  0.0000E+00  0.3032E-10  0.4849E-14  0.1000E-09  0.0000E+00  0.3103E+16
   -0.600008    2.70677  0.0000E+00  0.5289E-10  0.8309E-14  0.1000E-09  0.0000E+00  0.2710E+16
   -0.637510    2.84711  0.0000E+00  0.9184E-10  0.1418E-13  0.1000E-09  0.0000E+00  0.2341E+16
   -0.675012    2.98435  0.0000E+00  0.1588E-09  0.2409E-13  0.1000E-09  0.0000E+00  0.1994E+16
   -0.712514    3.11852  0.0000E+00  0.2735E-09  0.4078E-13  0.1000E-09  0.0000E+00  0.1670E+16
   -0.750016    3.24970  0.0000E+00  0.4691E-09  0.6876E-13  0.1376E-09  0.0000E+00  0.1387E+16
   -0.787518    3.38017  0.0000E+00  0.8014E-09  0.1155E-12  0.2871E-09  0.0000E+00  0.1116E+16
   -0.825020    3.51082  0.0000E+00  0.1364E-08  0.1933E-12  0.6332E-09  0.0000E+00  0.8468E+15
   -0.862522    3.64180  0.0000E+00  0.2310E-08  0.3221E-12  0.1552E-08  0.0000E+00  0.5756E+15
   -0.900024    3.77295  0.0000E+00  0.3892E-08  0.5340E-12  0.4898E-08  0.0000E+00  0.3022E+15
   -0.937525    3.90243  0.0000E+00  0.6416E-08  0.8681E-12  0.4563E-07  0.0000E+00  0.5243E+14
   -0.975027    4.00494  0.0000E+00  0.7186E-08  0.9771E-12  0.2073E-04  0.0000E+00 -0.2759E+12
   -1.012529    4.00586  0.0000E+00  0.7540E-08  0.1037E-11  0.2202E-04  0.0000E+00 -0.2768E+12
   -1.050030    4.00674  0.0000E+00  0.7835E-08  0.1099E-11  0.2275E-04  0.0000E+00 -0.2843E+12
   -1.087532    4.00761  0.0000E+00  0.8081E-08  0.1164E-11  0.2297E-04  0.0000E+00 -0.2987E+12
   -1.125033    4.00849  0.0000E+00  0.8285E-08  0.1236E-11  0.2273E-04  0.0000E+00 -0.3166E+12
   -1.162534    4.00938  0.0000E+00  0.8449E-08  0.1319E-11  0.2171E-04  0.0000E+00 -0.3474E+12
   -1.200035    4.01032  0.0000E+00  0.8565E-08  0.1419E-11  0.1968E-04  0.0000E+00 -0.4022E+12
   -1.237535    4.01137  0.0000E+00  0.8623E-08  0.1541E-11  0.1749E-04  0.0000E+00 -0.4774E+12
   -1.275035    4.01256  0.0000E+00  0.8608E-08  0.1699E-11  0.1525E-04  0.0000E+00 -0.5830E+12
   -1.312536    4.01394  0.0000E+00  0.8492E-08  0.1917E-11  0.1270E-04  0.0000E+00 -0.7521E+12
   -1.350035    4.01563  0.0000E+00  0.8226E-08  0.2248E-11  0.9697E-05  0.0000E+00 -0.1074E+13
   -1.387535    4.01788  0.0000E+00  0.7700E-08  0.2826E-11  0.6289E-05  0.0000E+00 -0.1853E+13
   -1.425034    4.02143  0.0000E+00  0.6632E-08  0.4149E-11  0.2815E-05  0.0000E+00 -0.4927E+13
   -1.462533    4.02947  0.0000E+00  0.4353E-08  0.9077E-11  0.4437E-06  0.0000E+00 -0.4367E+14
   -1.500031    4.07258  0.0000E+00  0.0000E+00  0.0000E+00  0.0000E+00  0.0000E+00  0.0000E+00
