 1 - depth, m
 2 - temperature, C
 3 - salinity, kg/kg
 4 - turbulent kinetic energy, m**2/s**2
 5 - dissipation rate, m**2/s**3
 6 - kinematic heat conductance, m**2/s
 7 - modulus of horizontal velocity, m/s
 8 - Richardson number, n/d
   -0.000000    0.00000  0.0000E+00  0.4096E-13  0.8590E-16  0.1000E-09  0.0000E+00  0.1171E+17
   -0.037495    0.18006  0.0000E+00  0.4096E-13  0.8590E-16  0.1000E-09  0.0000E+00  0.1094E+17
   -0.074990    0.35688  0.0000E+00  0.4096E-13  0.8590E-16  0.1000E-09  0.0000E+00  0.1014E+17
   -0.112486    0.52930  0.0000E+00  0.4096E-13  0.8590E-16  0.1000E-09  0.0000E+00  0.9317E+16
   -0.149982    0.69619  0.0000E+00  0.4096E-13  0.8590E-16  0.1000E-09  0.0000E+00  0.8493E+16
   -0.187479    0.85651  0.0000E+00  0.4096E-13  0.8590E-16  0.1000E-09  0.0000E+00  0.7683E+16
   -0.224975    1.00938  0.0000E+00  0.4096E-13  0.8590E-16  0.1000E-09  0.0000E+00  0.6905E+16
   -0.262472    1.15418  0.0000E+00  0.4096E-13  0.8590E-16  0.1000E-09  0.0000E+00  0.6156E+16
   -0.299969    1.29015  0.0000E+00  0.4096E-13  0.8590E-16  0.1000E-09  0.0000E+00  0.5461E+16
   -0.337467    1.41705  0.0000E+00  0.4096E-13  0.8590E-16  0.1000E-09  0.0000E+00  0.4830E+16
   -0.374964    1.53501  0.0000E+00  0.4096E-13  0.8590E-16  0.1000E-09  0.0000E+00  0.4368E+16
   -0.412462    1.64700  0.0000E+00  0.4096E-13  0.8590E-16  0.1000E-09  0.0000E+00  0.4021E+16
   -0.449960    1.75526  0.0000E+00  0.4096E-13  0.8590E-16  0.1000E-09  0.0000E+00  0.3721E+16
   -0.487458    1.86054  0.0000E+00  0.4096E-13  0.8590E-16  0.1000E-09  0.0000E+00  0.3464E+16
   -0.524957    1.96365  0.0000E+00  0.4096E-13  0.8590E-16  0.1000E-09  0.0000E+00  0.3242E+16
   -0.562455    2.06532  0.0000E+00  0.4096E-13  0.8590E-16  0.1000E-09  0.0000E+00  0.3047E+16
   -0.599953    2.16625  0.0000E+00  0.4096E-13  0.8590E-16  0.1000E-09  0.0000E+00  0.2872E+16
   -0.637452    2.26694  0.0000E+00  0.4096E-13  0.8590E-16  0.1000E-09  0.0000E+00  0.2707E+16
   -0.674950    2.36773  0.0000E+00  0.4096E-13  0.8590E-16  0.1000E-09  0.0000E+00  0.2544E+16
   -0.712449    2.46873  0.0000E+00  0.4096E-13  0.8590E-16  0.1000E-09  0.0000E+00  0.2377E+16
   -0.749948    2.56975  0.0000E+00  0.4096E-13  0.8590E-16  0.1000E-09  0.0000E+00  0.2246E+16
   -0.787446    2.67249  0.0000E+00  0.4096E-13  0.8590E-16  0.1000E-09  0.0000E+00  0.2109E+16
   -0.824945    2.77710  0.0000E+00  0.4096E-13  0.8590E-16  0.1000E-09  0.0000E+00  0.1950E+16
   -0.862443    2.88279  0.0000E+00  0.4096E-13  0.8590E-16  0.1000E-09  0.0000E+00  0.1769E+16
   -0.899942    2.98854  0.0000E+00  0.4096E-13  0.8590E-16  0.1000E-09  0.0000E+00  0.1573E+16
   -0.937440    3.09324  0.0000E+00  0.4096E-13  0.8590E-16  0.1000E-09  0.0000E+00  0.1368E+16
   -0.974939    3.19569  0.0000E+00  0.4096E-13  0.8590E-16  0.1000E-09  0.0000E+00  0.1162E+16
   -1.012437    3.29471  0.0000E+00  0.6350E-13  0.8657E-16  0.1000E-09  0.0000E+00  0.9721E+15
   -1.049935    3.39017  0.0000E+00  0.2142E-12  0.1419E-15  0.1000E-09  0.0000E+00  0.7936E+15
   -1.087433    3.48146  0.0000E+00  0.6404E-12  0.3714E-15  0.1000E-09  0.0000E+00  0.6303E+15
   -1.124931    3.56802  0.0000E+00  0.1791E-11  0.9982E-15  0.1000E-09  0.0000E+00  0.4825E+15
   -1.162428    3.64905  0.0000E+00  0.4895E-11  0.2657E-14  0.1000E-09  0.0000E+00  0.3560E+15
   -1.199926    3.72448  0.0000E+00  0.1322E-10  0.7010E-14  0.1056E-09  0.0000E+00  0.2508E+15
   -1.237423    3.79466  0.0000E+00  0.3533E-10  0.1835E-13  0.3158E-09  0.0000E+00  0.1647E+15
   -1.274920    3.86040  0.0000E+00  0.9461E-10  0.4829E-13  0.1454E-08  0.0000E+00  0.9431E+14
   -1.312417    3.92368  0.0000E+00  0.2514E-09  0.1271E-12  0.1181E-07  0.0000E+00  0.3151E+14
   -1.349913    3.98261  0.0000E+00  0.6303E-09  0.3264E-12  0.2937E-06  0.0000E+00 -0.2455E+13
   -1.387409    4.00689  0.0000E+00  0.1105E-08  0.7151E-12  0.5850E-06  0.0000E+00 -0.6264E+13
   -1.424905    4.02130  0.0000E+00  0.1409E-08  0.1326E-11  0.5008E-06  0.0000E+00 -0.1303E+14
   -1.462400    4.04005  0.0000E+00  0.1388E-08  0.2700E-11  0.2012E-06  0.0000E+00 -0.4984E+14
   -1.499895    4.08253  0.0000E+00  0.0000E+00  0.0000E+00  0.0000E+00  0.0000E+00  0.0000E+00
