 1 - depth, m
 2 - temperature, C
 3 - salinity, kg/kg
 4 - turbulent kinetic energy, m**2/s**2
 5 - dissipation rate, m**2/s**3
 6 - kinematic heat conductance, m**2/s
 7 - modulus of horizontal velocity, m/s
 8 - Richardson number, n/d
   -0.000000    0.92730  0.0000E+00  0.2798E-03  0.2804E-03  0.8494E-04  0.1839E+00 -0.6747E-02
   -0.037501    0.96558  0.0000E+00  0.1499E-03  0.7182E-04  0.1345E-03  0.6457E-01  0.1504E-01
   -0.075002    0.97263  0.0000E+00  0.1060E-03  0.2898E-04  0.1519E-03  0.4435E-01  0.1356E-01
   -0.112503    0.97746  0.0000E+00  0.8390E-04  0.1532E-04  0.1539E-03  0.3653E-01  0.5138E-02
   -0.150005    0.98077  0.0000E+00  0.6930E-04  0.8699E-05  0.1578E-03  0.3157E-01  0.4607E-01
   -0.187507    0.98333  0.0000E+00  0.5870E-04  0.5208E-05  0.1637E-03  0.2775E-01  0.6381E-02
   -0.225009    0.98551  0.0000E+00  0.5075E-04  0.3225E-05  0.1699E-03  0.2459E-01  0.1435E-01
   -0.262512    0.98748  0.0000E+00  0.4439E-04  0.2057E-05  0.1770E-03  0.2182E-01  0.7919E-02
   -0.300014    0.98929  0.0000E+00  0.3930E-04  0.1363E-05  0.1837E-03  0.1948E-01  0.9671E-02
   -0.337517    0.99098  0.0000E+00  0.3516E-04  0.9435E-06  0.1897E-03  0.1746E-01  0.1198E-01
   -0.375021    0.99259  0.0000E+00  0.3171E-04  0.6817E-06  0.1948E-03  0.1569E-01  0.1501E-01
   -0.412524    0.99413  0.0000E+00  0.2878E-04  0.5119E-06  0.1989E-03  0.1412E-01  0.1869E-01
   -0.450028    0.99561  0.0000E+00  0.2623E-04  0.3968E-06  0.2016E-03  0.1272E-01  0.2306E-01
   -0.487531    0.99706  0.0000E+00  0.2395E-04  0.3152E-06  0.2030E-03  0.1146E-01  0.2842E-01
   -0.525035    0.99848  0.0000E+00  0.2188E-04  0.2549E-06  0.2045E-03  0.1032E-01  0.3721E-01
   -0.562539    0.99987  0.0000E+00  0.2000E-04  0.2091E-06  0.2045E-03  0.9308E-02  0.4826E-01
   -0.600043    1.00125  0.0000E+00  0.1828E-04  0.1733E-06  0.2031E-03  0.8395E-02  0.6226E-01
   -0.637547    1.00263  0.0000E+00  0.1671E-04  0.1447E-06  0.2005E-03  0.7569E-02  0.8010E-01
   -0.675052    1.00402  0.0000E+00  0.1526E-04  0.1215E-06  0.1967E-03  0.6819E-02  0.1030E+00
   -0.712556    1.00544  0.0000E+00  0.1392E-04  0.1026E-06  0.1917E-03  0.6135E-02  0.1330E+00
   -0.750060    1.00689  0.0000E+00  0.1269E-04  0.8686E-07  0.1857E-03  0.5509E-02  0.1734E+00
   -0.787564    1.00838  0.0000E+00  0.1155E-04  0.7377E-07  0.1786E-03  0.4936E-02  0.2302E+00
   -0.825069    1.00993  0.0000E+00  0.1050E-04  0.6281E-07  0.1705E-03  0.4408E-02  0.3151E+00
   -0.862573    1.01156  0.0000E+00  0.9523E-05  0.5356E-07  0.1615E-03  0.3922E-02  0.4522E+00
   -0.900077    1.01328  0.0000E+00  0.8618E-05  0.4574E-07  0.1515E-03  0.3472E-02  0.6874E+00
   -0.937581    1.01512  0.0000E+00  0.7776E-05  0.3908E-07  0.1404E-03  0.3054E-02  0.1087E+01
   -0.975085    1.01712  0.0000E+00  0.6987E-05  0.3335E-07  0.1283E-03  0.2663E-02  0.1686E+01
   -1.012589    1.01935  0.0000E+00  0.6245E-05  0.2839E-07  0.1170E-03  0.2292E-02  0.3923E+01
   -1.050093    1.02181  0.0000E+00  0.5549E-05  0.2410E-07  0.1050E-03  0.1958E-02  0.1091E+02
   -1.087596    1.02456  0.0000E+00  0.4899E-05  0.2039E-07  0.9219E-04  0.1659E-02  0.2963E+02
   -1.125100    1.02770  0.0000E+00  0.4295E-05  0.1719E-07  0.7889E-04  0.1391E-02  0.1206E+03
   -1.162603    1.03143  0.0000E+00  0.3733E-05  0.1442E-07  0.6520E-04  0.1151E-02  0.5684E+03
   -1.200106    1.03608  0.0000E+00  0.3212E-05  0.1204E-07  0.5129E-04  0.9340E-03  0.3658E+04
   -1.237609    1.04246  0.0000E+00  0.2723E-05  0.9963E-08  0.3754E-04  0.7359E-03  0.7090E+05
   -1.275111    1.05344  0.0000E+00  0.2241E-05  0.8065E-08  0.2492E-04  0.5512E-03  0.1055E+08
   -1.312613    1.09009  0.0000E+00  0.1726E-05  0.6179E-08  0.1432E-04  0.3855E-03  0.3178E+10
   -1.350115    1.25711  0.0000E+00  0.1213E-05  0.4354E-08  0.6232E-05  0.2412E-03  0.6303E+12
   -1.387617    1.61544  0.0000E+00  0.7250E-06  0.2624E-08  0.1080E-05  0.1301E-03  0.8050E+14
   -1.425119    2.19426  0.0000E+00  0.2619E-06  0.1032E-08  0.8202E-07  0.4391E-04  0.2111E+15
   -1.462620    3.03336  0.0000E+00  0.5382E-07  0.5315E-09  0.8523E-07  0.5053E-05  0.1350E+14
   -1.500120    3.68549  0.0000E+00  0.0000E+00  0.0000E+00  0.0000E+00  0.5337E-05  0.0000E+00
