 1 - depth, m
 2 - temperature, C
 3 - salinity, kg/kg
 4 - turbulent kinetic energy, m**2/s**2
 5 - dissipation rate, m**2/s**3
 6 - kinematic heat conductance, m**2/s
 7 - modulus of horizontal velocity, m/s
 8 - Richardson number, n/d
   -0.000000    0.00000  0.0000E+00  0.4096E-13  0.8590E-16  0.1000E-09  0.0000E+00  0.1014E+17
   -0.037499    0.15531  0.0000E+00  0.4096E-13  0.8590E-16  0.1000E-09  0.0000E+00  0.9599E+16
   -0.074998    0.30883  0.0000E+00  0.4096E-13  0.8590E-16  0.1000E-09  0.0000E+00  0.9067E+16
   -0.112498    0.46037  0.0000E+00  0.4096E-13  0.8590E-16  0.1000E-09  0.0000E+00  0.8543E+16
   -0.149997    0.60974  0.0000E+00  0.4096E-13  0.8590E-16  0.1000E-09  0.0000E+00  0.8026E+16
   -0.187498    0.75675  0.0000E+00  0.4096E-13  0.8590E-16  0.1000E-09  0.0000E+00  0.7520E+16
   -0.224998    0.90119  0.0000E+00  0.4096E-13  0.8590E-16  0.1000E-09  0.0000E+00  0.7026E+16
   -0.262499    1.04289  0.0000E+00  0.4096E-13  0.8590E-16  0.1000E-09  0.0000E+00  0.6531E+16
   -0.300000    1.18136  0.0000E+00  0.4096E-13  0.8590E-16  0.1000E-09  0.0000E+00  0.6051E+16
   -0.337501    1.31635  0.0000E+00  0.4096E-13  0.8590E-16  0.1000E-09  0.0000E+00  0.5588E+16
   -0.375002    1.44768  0.0000E+00  0.4096E-13  0.8590E-16  0.1000E-09  0.0000E+00  0.5189E+16
   -0.412504    1.57631  0.0000E+00  0.4096E-13  0.8590E-16  0.1000E-09  0.0000E+00  0.4830E+16
   -0.450005    1.70283  0.0000E+00  0.4096E-13  0.8590E-16  0.1000E-09  0.0000E+00  0.4484E+16
   -0.487507    1.82717  0.0000E+00  0.4096E-13  0.8590E-16  0.1000E-09  0.0000E+00  0.4149E+16
   -0.525009    1.94921  0.0000E+00  0.4096E-13  0.8590E-16  0.1000E-09  0.0000E+00  0.3820E+16
   -0.562511    2.06869  0.0000E+00  0.4096E-13  0.8590E-16  0.1000E-09  0.0000E+00  0.3505E+16
   -0.600014    2.18552  0.0000E+00  0.4096E-13  0.8590E-16  0.1000E-09  0.0000E+00  0.3205E+16
   -0.637516    2.29963  0.0000E+00  0.4096E-13  0.8590E-16  0.1000E-09  0.0000E+00  0.2920E+16
   -0.675018    2.41097  0.0000E+00  0.4096E-13  0.8590E-16  0.1000E-09  0.0000E+00  0.2649E+16
   -0.712521    2.51947  0.0000E+00  0.4096E-13  0.8590E-16  0.1000E-09  0.0000E+00  0.2393E+16
   -0.750023    2.62508  0.0000E+00  0.4096E-13  0.8590E-16  0.1000E-09  0.0000E+00  0.2185E+16
   -0.787525    2.72943  0.0000E+00  0.1147E-12  0.8590E-16  0.1000E-09  0.0000E+00  0.1996E+16
   -0.825028    2.83315  0.0000E+00  0.3551E-12  0.1400E-15  0.1000E-09  0.0000E+00  0.1812E+16
   -0.862530    2.93636  0.0000E+00  0.8709E-12  0.2950E-15  0.1000E-09  0.0000E+00  0.1634E+16
   -0.900032    3.03920  0.0000E+00  0.1968E-11  0.6336E-15  0.1000E-09  0.0000E+00  0.1461E+16
   -0.937534    3.14185  0.0000E+00  0.4315E-11  0.1348E-14  0.1000E-09  0.0000E+00  0.1291E+16
   -0.975037    3.24449  0.0000E+00  0.9326E-11  0.2841E-14  0.1000E-09  0.0000E+00  0.1124E+16
   -1.012539    3.34733  0.0000E+00  0.2000E-10  0.5950E-14  0.1000E-09  0.0000E+00  0.9577E+15
   -1.050040    3.45044  0.0000E+00  0.4270E-10  0.1241E-13  0.1000E-09  0.0000E+00  0.7915E+15
   -1.087542    3.55403  0.0000E+00  0.9058E-10  0.2571E-13  0.1140E-09  0.0000E+00  0.6247E+15
   -1.125044    3.65830  0.0000E+00  0.1909E-09  0.5296E-13  0.3186E-09  0.0000E+00  0.4599E+15
   -1.162545    3.76467  0.0000E+00  0.3994E-09  0.1084E-12  0.1050E-08  0.0000E+00  0.2854E+15
   -1.200046    3.87324  0.0000E+00  0.8285E-09  0.2201E-12  0.6056E-08  0.0000E+00  0.1001E+15
   -1.237547    3.98103  0.0000E+00  0.1525E-08  0.4021E-12  0.1013E-05  0.0000E+00 -0.4248E+12
   -1.275048    3.99606  0.0000E+00  0.2183E-08  0.6360E-12  0.2533E-05  0.0000E+00 -0.1255E+13
   -1.312548    4.00229  0.0000E+00  0.2693E-08  0.8947E-12  0.2876E-05  0.0000E+00 -0.1672E+13
   -1.350048    4.00796  0.0000E+00  0.3078E-08  0.1229E-11  0.2715E-05  0.0000E+00 -0.2408E+13
   -1.387548    4.01417  0.0000E+00  0.3288E-08  0.1732E-11  0.2120E-05  0.0000E+00 -0.4112E+13
   -1.425048    4.02238  0.0000E+00  0.3201E-08  0.2696E-11  0.1196E-05  0.0000E+00 -0.1005E+14
   -1.462547    4.03716  0.0000E+00  0.2593E-08  0.5474E-11  0.3169E-06  0.0000E+00 -0.5482E+14
   -1.500046    4.08425  0.0000E+00  0.0000E+00  0.0000E+00  0.0000E+00  0.0000E+00  0.0000E+00
