 1 - depth, m
 2 - temperature, C
 3 - salinity, kg/kg
 4 - turbulent kinetic energy, m**2/s**2
 5 - dissipation rate, m**2/s**3
 6 - kinematic heat conductance, m**2/s
 7 - modulus of horizontal velocity, m/s
 8 - Richardson number, n/d
   -0.000000    0.00000  0.0000E+00  0.4096E-13  0.8591E-16  0.1000E-09  0.2163E-16  0.1090E+17
   -0.037493    0.16737  0.0000E+00  0.4096E-13  0.8591E-16  0.1000E-09  0.1211E-16  0.7092E+16
   -0.074986    0.28081  0.0000E+00  0.4096E-13  0.8591E-16  0.1000E-09  0.6686E-17  0.4547E+16
   -0.112480    0.35574  0.0000E+00  0.4096E-13  0.8591E-16  0.1000E-09  0.3637E-17  0.2924E+16
   -0.149974    0.40494  0.0000E+00  0.4096E-13  0.8591E-16  0.1000E-09  0.1949E-17  0.1956E+16
   -0.187468    0.43832  0.0000E+00  0.4096E-13  0.8591E-16  0.1000E-09  0.1024E-17  0.1441E+16
   -0.224962    0.46312  0.0000E+00  0.4096E-13  0.8591E-16  0.1000E-09  0.5196E-18  0.1230E+16
   -0.262457    0.48438  0.0000E+00  0.4096E-13  0.8591E-16  0.1000E-09  0.2384E-18  0.1047E+16
   -0.299952    0.50252  0.0000E+00  0.4096E-13  0.8591E-16  0.1000E-09  0.1060E-18  0.9642E+15
   -0.337447    0.51929  0.0000E+00  0.4096E-13  0.8591E-16  0.1000E-09  0.4633E-19  0.9725E+15
   -0.374943    0.53626  0.0000E+00  0.4096E-13  0.8591E-16  0.1000E-09  0.1992E-19  0.1123E+16
   -0.412438    0.55598  0.0000E+00  0.4096E-13  0.8591E-16  0.1000E-09  0.8416E-20  0.1367E+16
   -0.449934    0.58015  0.0000E+00  0.4096E-13  0.8591E-16  0.1000E-09  0.3477E-20  0.1649E+16
   -0.487430    0.60955  0.0000E+00  0.4096E-13  0.8591E-16  0.1000E-09  0.1367E-20  0.1928E+16
   -0.524926    0.64429  0.0000E+00  0.4096E-13  0.8591E-16  0.1000E-09  0.4812E-21  0.2053E+16
   -0.562422    0.68172  0.0000E+00  0.4096E-13  0.8591E-16  0.1000E-09  0.1660E-21  0.2230E+16
   -0.599919    0.72293  0.0000E+00  0.4096E-13  0.8591E-16  0.1000E-09  0.5605E-22  0.2461E+16
   -0.637415    0.76904  0.0000E+00  0.4096E-13  0.8591E-16  0.1000E-09  0.1852E-22  0.2738E+16
   -0.674912    0.82118  0.0000E+00  0.4096E-13  0.8591E-16  0.1000E-09  0.5985E-23  0.3052E+16
   -0.712408    0.88034  0.0000E+00  0.4096E-13  0.8591E-16  0.1000E-09  0.1890E-23  0.3383E+16
   -0.749904    0.94730  0.0000E+00  0.4096E-13  0.8591E-16  0.1000E-09  0.5832E-24  0.3955E+16
   -0.787401    1.02757  0.0000E+00  0.5583E-13  0.9010E-16  0.1000E-09  0.1756E-24  0.4560E+16
   -0.824897    1.12303  0.0000E+00  0.1176E-12  0.1322E-15  0.1000E-09  0.5160E-25  0.5087E+16
   -0.862394    1.23361  0.0000E+00  0.3427E-12  0.2882E-15  0.1000E-09  0.1477E-25  0.5523E+16
   -0.899890    1.35920  0.0000E+00  0.1071E-11  0.8142E-15  0.1000E-09  0.4119E-26  0.5862E+16
   -0.937386    1.49983  0.0000E+00  0.3379E-11  0.2450E-14  0.1000E-09  0.1117E-26  0.6110E+16
   -0.974883    1.65596  0.0000E+00  0.1056E-10  0.7434E-14  0.1000E-09  0.2909E-27  0.6280E+16
   -1.012379    1.82899  0.0000E+00  0.3264E-10  0.2240E-13  0.1000E-09  0.6048E-28  0.6152E+16
   -1.049875    2.01443  0.0000E+00  0.1000E-09  0.6696E-13  0.1000E-09  0.1167E-28  0.6004E+16
   -1.087370    2.21610  0.0000E+00  0.3031E-09  0.1981E-12  0.1357E-09  0.2154E-29  0.5895E+16
   -1.124866    2.44305  0.0000E+00  0.9083E-09  0.5801E-12  0.2924E-09  0.3797E-30  0.6130E+16
   -1.162361    2.72661  0.0000E+00  0.2691E-08  0.1681E-11  0.9566E-09  0.6372E-31  0.5848E+16
   -1.199857    3.08612  0.0000E+00  0.7809E-08  0.4786E-11  0.8243E-08  0.1013E-31  0.4427E+16
   -1.237352    3.52164  0.0000E+00  0.1506E-07  0.9641E-11  0.4924E-05  0.1430E-32  0.2361E+16
   -1.274846    3.86581  0.0000E+00  0.2267E-07  0.1554E-10  0.1073E-04  0.1467E-33  0.6365E+15
   -1.312341    4.05740  0.0000E+00  0.2860E-07  0.2124E-10  0.1475E-04  0.1352E-34  0.1528E+13
   -1.349835    4.07833  0.0000E+00  0.3159E-07  0.2630E-10  0.1418E-04  0.1057E-35 -0.1077E+14
   -1.387329    4.08569  0.0000E+00  0.3273E-07  0.3294E-10  0.1137E-04  0.3009E-36 -0.1516E+14
   -1.424823    4.09516  0.0000E+00  0.3168E-07  0.4583E-10  0.6882E-05  0.7748E-37 -0.2957E+14
   -1.462316    4.11153  0.0000E+00  0.2553E-07  0.9310E-10  0.1758E-05  0.1599E-37 -0.1587E+15
   -1.499809    4.17627  0.0000E+00  0.0000E+00  0.0000E+00  0.0000E+00  0.1953E-37  0.0000E+00
