 1 - depth, m
 2 - temperature, C
 3 - salinity, kg/kg
 4 - turbulent kinetic energy, m**2/s**2
 5 - dissipation rate, m**2/s**3
 6 - kinematic heat conductance, m**2/s
 7 - modulus of horizontal velocity, m/s
 8 - Richardson number, n/d
   -0.000000   10.36271  0.0000E+00  0.7454E-03  0.5863E-02  0.1232E-03  0.3719E+00 -0.6097E-01
   -0.037502   10.41510  0.0000E+00  0.4065E-03  0.3403E-02  0.1711E-03  0.1293E+00  0.2047E-01
   -0.075003   10.44167  0.0000E+00  0.2611E-03  0.1227E-02  0.2501E-03  0.7699E-01  0.1063E+00
   -0.112506   10.45085  0.0000E+00  0.2091E-03  0.8383E-03  0.2914E-03  0.5800E-01 -0.1535E-01
   -0.150008   10.45548  0.0000E+00  0.1733E-03  0.5933E-03  0.2801E-03  0.4790E-01 -0.3199E-01
   -0.187511   10.45860  0.0000E+00  0.1475E-03  0.4218E-03  0.2817E-03  0.4157E-01 -0.1649E-01
   -0.225014   10.46099  0.0000E+00  0.1276E-03  0.2985E-03  0.2985E-03  0.3684E-01 -0.1017E-01
   -0.262518   10.46292  0.0000E+00  0.1119E-03  0.2101E-03  0.3032E-03  0.3309E-01 -0.7780E-02
   -0.300021   10.46456  0.0000E+00  0.9964E-04  0.1469E-03  0.3153E-03  0.3006E-01 -0.8379E-02
   -0.337525   10.46603  0.0000E+00  0.8955E-04  0.1012E-03  0.3253E-03  0.2751E-01  0.2302E+00
   -0.375029   10.46737  0.0000E+00  0.8182E-04  0.7027E-04  0.3330E-03  0.2526E-01  0.4998E-02
   -0.412533   10.46874  0.0000E+00  0.7511E-04  0.4910E-04  0.3444E-03  0.2305E-01  0.4272E+00
   -0.450038   10.47012  0.0000E+00  0.6881E-04  0.3475E-04  0.3838E-03  0.2073E-01  0.1156E+01
   -0.487542   10.47112  0.0000E+00  0.6397E-04  0.2515E-04  0.3877E-03  0.1913E-01  0.4126E+01
   -0.525047   10.47305  0.0000E+00  0.5853E-04  0.1684E-04  0.4140E-03  0.1658E-01  0.9366E+02
   -0.562552   10.47389  0.0000E+00  0.5418E-04  0.1115E-04  0.4294E-03  0.1529E-01  0.5519E+01
   -0.600057   10.47469  0.0000E+00  0.5049E-04  0.8156E-05  0.4439E-03  0.1417E-01  0.1285E+02
   -0.637562   10.47552  0.0000E+00  0.4726E-04  0.6077E-05  0.4513E-03  0.1316E-01  0.2640E+01
   -0.675067   10.47626  0.0000E+00  0.4428E-04  0.4576E-05  0.4633E-03  0.1222E-01  0.1642E+02
   -0.712572   10.47701  0.0000E+00  0.4158E-04  0.3291E-05  0.4746E-03  0.1134E-01  0.8835E+01
   -0.750077   10.47789  0.0000E+00  0.3907E-04  0.2297E-05  0.4891E-03  0.1041E-01  0.4126E+01
   -0.787582   10.47865  0.0000E+00  0.3683E-04  0.1661E-05  0.4992E-03  0.9659E-02  0.5316E+01
   -0.825087   10.47931  0.0000E+00  0.3476E-04  0.1151E-05  0.5116E-03  0.8958E-02  0.2204E+03
   -0.862592   10.48008  0.0000E+00  0.3287E-04  0.7522E-06  0.5132E-03  0.8306E-02  0.9416E+01
   -0.900097   10.48164  0.0000E+00  0.3100E-04  0.5436E-06  0.5354E-03  0.7328E-02  0.6833E+01
   -0.937602   10.48239  0.0000E+00  0.2934E-04  0.4130E-06  0.5441E-03  0.6757E-02  0.2049E+02
   -0.975107   10.48298  0.0000E+00  0.2777E-04  0.3212E-06  0.5475E-03  0.6226E-02  0.4293E+01
   -1.012612   10.48369  0.0000E+00  0.2628E-04  0.2732E-06  0.5476E-03  0.5714E-02  0.5105E+01
   -1.050116   10.48425  0.0000E+00  0.2484E-04  0.2379E-06  0.5471E-03  0.5252E-02  0.8221E+01
   -1.087621   10.48492  0.0000E+00  0.2344E-04  0.2125E-06  0.5428E-03  0.4823E-02  0.2247E+03
   -1.125125   10.48547  0.0000E+00  0.2209E-04  0.1937E-06  0.5299E-03  0.4424E-02  0.2162E+03
   -1.162629   10.48612  0.0000E+00  0.2077E-04  0.1797E-06  0.5119E-03  0.4047E-02  0.1257E+02
   -1.200133   10.48671  0.0000E+00  0.1944E-04  0.1698E-06  0.4847E-03  0.3690E-02  0.1708E+03
   -1.237637   10.48740  0.0000E+00  0.1811E-04  0.1644E-06  0.4510E-03  0.3343E-02  0.1136E+03
   -1.275140   10.48809  0.0000E+00  0.1673E-04  0.1645E-06  0.4130E-03  0.3008E-02  0.1913E+03
   -1.312643   10.48886  0.0000E+00  0.1525E-04  0.1735E-06  0.3640E-03  0.2696E-02  0.7326E+04
   -1.350146   10.48973  0.0000E+00  0.1361E-04  0.1988E-06  0.3013E-03  0.2399E-02  0.3309E+04
   -1.387648   10.49079  0.0000E+00  0.1169E-04  0.2570E-06  0.2297E-03  0.2107E-02  0.6997E+04
   -1.425151   10.49220  0.0000E+00  0.9253E-05  0.4099E-06  0.1422E-03  0.1802E-02 -0.3011E+05
   -1.462653   10.49464  0.0000E+00  0.5340E-05  0.8991E-06  0.3118E-04  0.1477E-02 -0.2140E+06
   -1.500154   10.51158  0.0000E+00  0.0000E+00  0.0000E+00  0.0000E+00  0.1673E-02  0.0000E+00
