 1 - depth, m
 2 - temperature, C
 3 - salinity, kg/kg
 4 - turbulent kinetic energy, m**2/s**2
 5 - dissipation rate, m**2/s**3
 6 - kinematic heat conductance, m**2/s
 7 - modulus of horizontal velocity, m/s
 8 - Richardson number, n/d
   -0.000000    0.00000  0.0000E+00  0.4096E-13  0.8590E-16  0.1000E-09  0.0000E+00  0.9502E+16
   -0.037498    0.14537  0.0000E+00  0.4096E-13  0.8590E-16  0.1000E-09  0.0000E+00  0.8968E+16
   -0.074997    0.28817  0.0000E+00  0.4096E-13  0.8590E-16  0.1000E-09  0.0000E+00  0.8460E+16
   -0.112496    0.42847  0.0000E+00  0.4096E-13  0.8590E-16  0.1000E-09  0.0000E+00  0.7973E+16
   -0.149995    0.56629  0.0000E+00  0.4096E-13  0.8590E-16  0.1000E-09  0.0000E+00  0.7507E+16
   -0.187495    0.70166  0.0000E+00  0.4096E-13  0.8590E-16  0.1000E-09  0.0000E+00  0.7060E+16
   -0.224995    0.83455  0.0000E+00  0.4096E-13  0.8590E-16  0.1000E-09  0.0000E+00  0.6629E+16
   -0.262495    0.96496  0.0000E+00  0.4096E-13  0.8590E-16  0.1000E-09  0.0000E+00  0.6204E+16
   -0.299995    1.09260  0.0000E+00  0.4096E-13  0.8590E-16  0.1000E-09  0.0000E+00  0.5793E+16
   -0.337496    1.21736  0.0000E+00  0.4096E-13  0.8590E-16  0.1000E-09  0.0000E+00  0.5398E+16
   -0.374996    1.33916  0.0000E+00  0.4096E-13  0.8590E-16  0.1000E-09  0.0000E+00  0.5056E+16
   -0.412497    1.45880  0.0000E+00  0.4096E-13  0.8590E-16  0.1000E-09  0.0000E+00  0.4747E+16
   -0.449999    1.57676  0.0000E+00  0.4096E-13  0.8590E-16  0.1000E-09  0.0000E+00  0.4447E+16
   -0.487500    1.69300  0.0000E+00  0.4096E-13  0.8590E-16  0.1000E-09  0.0000E+00  0.4156E+16
   -0.525001    1.80744  0.0000E+00  0.4096E-13  0.8590E-16  0.1000E-09  0.0000E+00  0.3868E+16
   -0.562503    1.91987  0.0000E+00  0.4096E-13  0.8590E-16  0.1000E-09  0.0000E+00  0.3591E+16
   -0.600004    2.03023  0.0000E+00  0.4096E-13  0.8590E-16  0.1000E-09  0.0000E+00  0.3324E+16
   -0.637506    2.13845  0.0000E+00  0.4096E-13  0.8590E-16  0.1000E-09  0.0000E+00  0.3068E+16
   -0.675008    2.24449  0.0000E+00  0.4096E-13  0.8590E-16  0.1000E-09  0.0000E+00  0.2823E+16
   -0.712510    2.34828  0.0000E+00  0.4096E-13  0.8590E-16  0.1000E-09  0.0000E+00  0.2588E+16
   -0.750012    2.44977  0.0000E+00  0.4096E-13  0.8590E-16  0.1000E-09  0.0000E+00  0.2396E+16
   -0.787513    2.55027  0.0000E+00  0.4096E-13  0.8590E-16  0.1000E-09  0.0000E+00  0.2219E+16
   -0.825015    2.65025  0.0000E+00  0.4096E-13  0.8590E-16  0.1000E-09  0.0000E+00  0.2046E+16
   -0.862517    2.74975  0.0000E+00  0.4096E-13  0.8590E-16  0.1000E-09  0.0000E+00  0.1877E+16
   -0.900019    2.84880  0.0000E+00  0.4096E-13  0.8590E-16  0.1000E-09  0.0000E+00  0.1711E+16
   -0.937520    2.94747  0.0000E+00  0.4096E-13  0.8590E-16  0.1000E-09  0.0000E+00  0.1548E+16
   -0.975022    3.04579  0.0000E+00  0.1186E-12  0.9279E-16  0.1000E-09  0.0000E+00  0.1389E+16
   -1.012523    3.14383  0.0000E+00  0.3774E-12  0.2307E-15  0.1000E-09  0.0000E+00  0.1230E+16
   -1.050025    3.24149  0.0000E+00  0.1092E-11  0.6293E-15  0.1000E-09  0.0000E+00  0.1073E+16
   -1.087526    3.33881  0.0000E+00  0.3055E-11  0.1702E-14  0.1000E-09  0.0000E+00  0.9191E+15
   -1.125027    3.43584  0.0000E+00  0.8402E-11  0.4546E-14  0.1000E-09  0.0000E+00  0.7799E+15
   -1.162527    3.53439  0.0000E+00  0.2282E-10  0.1200E-13  0.1000E-09  0.0000E+00  0.6370E+15
   -1.200028    3.63500  0.0000E+00  0.6128E-10  0.3135E-13  0.1768E-09  0.0000E+00  0.4859E+15
   -1.237528    3.73797  0.0000E+00  0.1627E-09  0.8105E-13  0.6810E-09  0.0000E+00  0.3244E+15
   -1.275029    3.84354  0.0000E+00  0.4314E-09  0.2096E-12  0.3738E-08  0.0000E+00  0.1502E+15
   -1.312528    3.95119  0.0000E+00  0.1100E-08  0.5260E-12  0.1417E-06  0.0000E+00  0.5511E+13
   -1.350028    4.00987  0.0000E+00  0.2252E-08  0.1176E-11  0.1633E-05  0.0000E+00 -0.4266E+13
   -1.387527    4.01948  0.0000E+00  0.2865E-08  0.1834E-11  0.1599E-05  0.0000E+00 -0.6225E+13
   -1.425026    4.02985  0.0000E+00  0.3065E-08  0.2914E-11  0.1058E-05  0.0000E+00 -0.1313E+14
   -1.462525    4.04609  0.0000E+00  0.2641E-08  0.5800E-11  0.3211E-06  0.0000E+00 -0.6100E+14
   -1.500023    4.09294  0.0000E+00  0.0000E+00  0.0000E+00  0.0000E+00  0.0000E+00  0.0000E+00
