 1 - depth, m
 2 - temperature, C
 3 - salinity, kg/kg
 4 - turbulent kinetic energy, m**2/s**2
 5 - dissipation rate, m**2/s**3
 6 - kinematic heat conductance, m**2/s
 7 - modulus of horizontal velocity, m/s
 8 - Richardson number, n/d
   -0.000000    5.12566  0.0000E+00  0.1819E-02  0.1944E-01  0.1843E-03  0.7179E+00  0.7344E-04
   -0.037501    5.20666  0.0000E+00  0.9188E-03  0.1065E-01  0.2795E-03  0.2417E+00  0.1318E+00
   -0.075002    5.25518  0.0000E+00  0.5952E-03  0.4298E-02  0.4483E-03  0.1352E+00 -0.2483E-02
   -0.112503    5.27074  0.0000E+00  0.4688E-03  0.2942E-02  0.4798E-03  0.9886E-01 -0.1009E+01
   -0.150005    5.27650  0.0000E+00  0.3872E-03  0.2055E-02  0.5014E-03  0.8090E-01 -0.7537E-01
   -0.187507    5.28025  0.0000E+00  0.3291E-03  0.1479E-02  0.4977E-03  0.6968E-01  0.6738E-02
   -0.225009    5.28267  0.0000E+00  0.2868E-03  0.1065E-02  0.5091E-03  0.6244E-01  0.2656E-01
   -0.262512    5.28443  0.0000E+00  0.2535E-03  0.7631E-03  0.5108E-03  0.5682E-01  0.1792E-01
   -0.300015    5.28599  0.0000E+00  0.2263E-03  0.5422E-03  0.5227E-03  0.5232E-01  0.1105E-01
   -0.337518    5.28725  0.0000E+00  0.2049E-03  0.3807E-03  0.5219E-03  0.4855E-01  0.4953E-01
   -0.375021    5.28871  0.0000E+00  0.1858E-03  0.2650E-03  0.5309E-03  0.4464E-01  0.7873E-01
   -0.412525    5.28979  0.0000E+00  0.1702E-03  0.1844E-03  0.5477E-03  0.4164E-01  0.1301E-01
   -0.450028    5.29081  0.0000E+00  0.1577E-03  0.1287E-03  0.5574E-03  0.3909E-01  0.1529E-02
   -0.487532    5.29181  0.0000E+00  0.1471E-03  0.8510E-04  0.5519E-03  0.3665E-01 -0.5904E-02
   -0.525036    5.29321  0.0000E+00  0.1373E-03  0.5621E-04  0.5487E-03  0.3358E-01  0.2624E+00
   -0.562540    5.29524  0.0000E+00  0.1272E-03  0.3847E-04  0.5827E-03  0.2976E-01  0.2456E+01
   -0.600044    5.29614  0.0000E+00  0.1192E-03  0.2638E-04  0.5881E-03  0.2806E-01  0.1001E+01
   -0.637548    5.29697  0.0000E+00  0.1124E-03  0.1819E-04  0.5690E-03  0.2646E-01  0.5783E+00
   -0.675053    5.30011  0.0000E+00  0.1048E-03  0.1263E-04  0.5959E-03  0.2331E-01  0.3428E+00
   -0.712557    5.30099  0.0000E+00  0.9846E-04  0.8902E-05  0.6003E-03  0.2193E-01  0.1060E+01
   -0.750061    5.30184  0.0000E+00  0.9271E-04  0.6365E-05  0.5988E-03  0.2063E-01  0.6394E+02
   -0.787566    5.30274  0.0000E+00  0.8741E-04  0.4645E-05  0.6008E-03  0.1938E-01  0.6992E+02
   -0.825070    5.30366  0.0000E+00  0.8258E-04  0.3446E-05  0.6002E-03  0.1823E-01  0.9275E+00
   -0.862574    5.30461  0.0000E+00  0.7815E-04  0.2628E-05  0.5964E-03  0.1713E-01  0.2653E+01
   -0.900078    5.30562  0.0000E+00  0.7391E-04  0.2039E-05  0.5928E-03  0.1607E-01  0.2093E-01
   -0.937583    5.30669  0.0000E+00  0.7001E-04  0.1628E-05  0.5865E-03  0.1506E-01  0.4280E+01
   -0.975087    5.30789  0.0000E+00  0.6630E-04  0.1330E-05  0.5734E-03  0.1400E-01  0.3042E+01
   -1.012591    5.30937  0.0000E+00  0.6254E-04  0.1105E-05  0.5669E-03  0.1286E-01  0.9965E+00
   -1.050094    5.31053  0.0000E+00  0.5905E-04  0.9405E-06  0.5562E-03  0.1197E-01  0.4460E+01
   -1.087598    5.31169  0.0000E+00  0.5569E-04  0.8164E-06  0.5401E-03  0.1116E-01  0.6328E+02
   -1.125101    5.31287  0.0000E+00  0.5239E-04  0.7226E-06  0.5193E-03  0.1038E-01  0.3604E+03
   -1.162605    5.31411  0.0000E+00  0.4916E-04  0.6533E-06  0.4944E-03  0.9642E-02  0.3940E+02
   -1.200108    5.31542  0.0000E+00  0.4593E-04  0.6047E-06  0.4623E-03  0.8920E-02  0.9482E+02
   -1.237611    5.31685  0.0000E+00  0.4267E-04  0.5763E-06  0.4257E-03  0.8204E-02  0.5230E+02
   -1.275113    5.31844  0.0000E+00  0.3924E-04  0.5706E-06  0.3851E-03  0.7489E-02  0.7000E+02
   -1.312616    5.32015  0.0000E+00  0.3553E-04  0.5980E-06  0.3353E-03  0.6813E-02  0.4263E+03
   -1.350118    5.32210  0.0000E+00  0.3137E-04  0.6857E-06  0.2755E-03  0.6151E-02  0.4433E+03
   -1.387619    5.32446  0.0000E+00  0.2645E-04  0.9070E-06  0.2049E-03  0.5473E-02  0.5196E+05
   -1.425121    5.32767  0.0000E+00  0.2030E-04  0.1446E-05  0.1214E-03  0.4742E-02 -0.5514E+04
   -1.462622    5.33306  0.0000E+00  0.1185E-04  0.3368E-05  0.3609E-04  0.3915E-02 -0.2905E+06
   -1.500123    5.36398  0.0000E+00  0.0000E+00  0.0000E+00  0.0000E+00  0.4423E-02  0.0000E+00
