 1 - depth, m
 2 - temperature, C
 3 - salinity, kg/kg
 4 - turbulent kinetic energy, m**2/s**2
 5 - dissipation rate, m**2/s**3
 6 - kinematic heat conductance, m**2/s
 7 - modulus of horizontal velocity, m/s
 8 - Richardson number, n/d
   -0.000000    0.00000  0.0000E+00  0.4096E-13  0.8589E-16  0.1000E-09  0.0000E+00  0.1793E+17
   -0.037500    0.27938  0.0000E+00  0.4096E-13  0.8589E-16  0.1000E-09  0.0000E+00  0.1469E+17
   -0.075000    0.52616  0.0000E+00  0.5912E-13  0.8608E-16  0.1000E-09  0.0000E+00  0.1208E+17
   -0.112501    0.74413  0.0000E+00  0.1286E-12  0.1012E-15  0.1000E-09  0.0000E+00  0.1001E+17
   -0.150002    0.93723  0.0000E+00  0.3212E-12  0.1564E-15  0.1000E-09  0.0000E+00  0.8379E+16
   -0.187503    1.10934  0.0000E+00  0.7922E-12  0.3039E-15  0.1000E-09  0.0000E+00  0.7100E+16
   -0.225005    1.26414  0.0000E+00  0.1869E-11  0.6568E-15  0.1000E-09  0.0000E+00  0.6104E+16
   -0.262506    1.40500  0.0000E+00  0.4278E-11  0.1450E-14  0.1000E-09  0.0000E+00  0.5269E+16
   -0.300008    1.53338  0.0000E+00  0.9629E-11  0.3178E-14  0.1000E-09  0.0000E+00  0.4601E+16
   -0.337511    1.65150  0.0000E+00  0.2143E-10  0.6900E-14  0.1000E-09  0.0000E+00  0.4072E+16
   -0.375013    1.76147  0.0000E+00  0.4721E-10  0.1484E-13  0.1000E-09  0.0000E+00  0.3765E+16
   -0.412516    1.86842  0.0000E+00  0.1031E-09  0.3166E-13  0.1000E-09  0.0000E+00  0.3608E+16
   -0.450019    1.97650  0.0000E+00  0.2231E-09  0.6693E-13  0.1012E-09  0.0000E+00  0.3532E+16
   -0.487522    2.08857  0.0000E+00  0.4787E-09  0.1404E-12  0.1317E-09  0.0000E+00  0.3539E+16
   -0.525025    2.20837  0.0000E+00  0.1020E-08  0.2922E-12  0.2205E-09  0.0000E+00  0.3616E+16
   -0.562528    2.34052  0.0000E+00  0.2155E-08  0.6039E-12  0.4145E-09  0.0000E+00  0.3810E+16
   -0.600031    2.49376  0.0000E+00  0.4518E-08  0.1238E-11  0.7892E-09  0.0000E+00  0.4091E+16
   -0.637534    2.68109  0.0000E+00  0.9394E-08  0.2519E-11  0.1542E-08  0.0000E+00  0.4328E+16
   -0.675038    2.92089  0.0000E+00  0.1934E-07  0.5078E-11  0.3531E-08  0.0000E+00  0.4170E+16
   -0.712541    3.23554  0.0000E+00  0.3885E-07  0.1001E-10  0.2351E-07  0.0000E+00  0.3066E+16
   -0.750045    3.61101  0.0000E+00  0.5609E-07  0.1456E-10  0.3299E-04  0.0000E+00  0.1657E+16
   -0.787548    3.88478  0.0000E+00  0.6849E-07  0.1794E-10  0.6202E-04  0.0000E+00  0.4853E+15
   -0.825052    4.03750  0.0000E+00  0.7207E-07  0.1902E-10  0.8851E-04  0.0000E+00  0.1683E+14
   -0.862555    4.05682  0.0000E+00  0.7323E-07  0.1947E-10  0.9374E-04  0.0000E+00 -0.1128E+13
   -0.900059    4.05784  0.0000E+00  0.7416E-07  0.1993E-10  0.9352E-04  0.0000E+00 -0.1160E+13
   -0.937562    4.05888  0.0000E+00  0.7496E-07  0.2044E-10  0.9317E-04  0.0000E+00 -0.1190E+13
   -0.975065    4.05993  0.0000E+00  0.7563E-07  0.2100E-10  0.9236E-04  0.0000E+00 -0.1230E+13
   -1.012568    4.06100  0.0000E+00  0.7617E-07  0.2163E-10  0.9108E-04  0.0000E+00 -0.1284E+13
   -1.050071    4.06209  0.0000E+00  0.7656E-07  0.2233E-10  0.8928E-04  0.0000E+00 -0.1353E+13
   -1.087574    4.06323  0.0000E+00  0.7678E-07  0.2312E-10  0.8699E-04  0.0000E+00 -0.1438E+13
   -1.125077    4.06442  0.0000E+00  0.7683E-07  0.2403E-10  0.8415E-04  0.0000E+00 -0.1511E+13
   -1.162579    4.06565  0.0000E+00  0.7667E-07  0.2509E-10  0.8076E-04  0.0000E+00 -0.1597E+13
   -1.200081    4.06693  0.0000E+00  0.7628E-07  0.2633E-10  0.7674E-04  0.0000E+00 -0.1706E+13
   -1.237583    4.06827  0.0000E+00  0.7565E-07  0.2784E-10  0.7204E-04  0.0000E+00 -0.1848E+13
   -1.275085    4.06970  0.0000E+00  0.7470E-07  0.2975E-10  0.6645E-04  0.0000E+00 -0.2042E+13
   -1.312587    4.07125  0.0000E+00  0.7336E-07  0.3230E-10  0.5984E-04  0.0000E+00 -0.2319E+13
   -1.350088    4.07298  0.0000E+00  0.7144E-07  0.3594E-10  0.5227E-04  0.0000E+00 -0.2720E+13
   -1.387589    4.07496  0.0000E+00  0.6815E-07  0.4272E-10  0.3289E-04  0.0000E+00 -0.4461E+13
   -1.425090    4.07814  0.0000E+00  0.6120E-07  0.6006E-10  0.1461E-04  0.0000E+00 -0.1068E+14
   -1.462590    4.08531  0.0000E+00  0.3985E-07  0.1460E-09  0.1936E-05  0.0000E+00 -0.1007E+15
   -1.500090    4.13694  0.0000E+00  0.0000E+00  0.0000E+00  0.0000E+00  0.0000E+00  0.0000E+00
