 1 - depth, m
 2 - temperature, C
 3 - salinity, kg/kg
 4 - turbulent kinetic energy, m**2/s**2
 5 - dissipation rate, m**2/s**3
 6 - kinematic heat conductance, m**2/s
 7 - modulus of horizontal velocity, m/s
 8 - Richardson number, n/d
   -0.000000    0.00000  0.0000E+00  0.4096E-13  0.8590E-16  0.1000E-09  0.0000E+00  0.1022E+17
   -0.037500    0.15664  0.0000E+00  0.4096E-13  0.8590E-16  0.1000E-09  0.0000E+00  0.9680E+16
   -0.075001    0.31153  0.0000E+00  0.4096E-13  0.8590E-16  0.1000E-09  0.0000E+00  0.9139E+16
   -0.112502    0.46442  0.0000E+00  0.4096E-13  0.8590E-16  0.1000E-09  0.0000E+00  0.8603E+16
   -0.150003    0.61507  0.0000E+00  0.4096E-13  0.8590E-16  0.1000E-09  0.0000E+00  0.8075E+16
   -0.187505    0.76324  0.0000E+00  0.4096E-13  0.8590E-16  0.1000E-09  0.0000E+00  0.7556E+16
   -0.225007    0.90872  0.0000E+00  0.4096E-13  0.8590E-16  0.1000E-09  0.0000E+00  0.7049E+16
   -0.262509    1.05129  0.0000E+00  0.4096E-13  0.8590E-16  0.1000E-09  0.0000E+00  0.6543E+16
   -0.300012    1.19044  0.0000E+00  0.4096E-13  0.8590E-16  0.1000E-09  0.0000E+00  0.6050E+16
   -0.337514    1.32590  0.0000E+00  0.4096E-13  0.8590E-16  0.1000E-09  0.0000E+00  0.5577E+16
   -0.375017    1.45749  0.0000E+00  0.4096E-13  0.8590E-16  0.1000E-09  0.0000E+00  0.5171E+16
   -0.412520    1.58623  0.0000E+00  0.4096E-13  0.8590E-16  0.1000E-09  0.0000E+00  0.4808E+16
   -0.450024    1.71273  0.0000E+00  0.4096E-13  0.8590E-16  0.1000E-09  0.0000E+00  0.4458E+16
   -0.487527    1.83693  0.0000E+00  0.4096E-13  0.8590E-16  0.1000E-09  0.0000E+00  0.4120E+16
   -0.525030    1.95872  0.0000E+00  0.4096E-13  0.8590E-16  0.1000E-09  0.0000E+00  0.3790E+16
   -0.562534    2.07783  0.0000E+00  0.4096E-13  0.8590E-16  0.1000E-09  0.0000E+00  0.3474E+16
   -0.600038    2.19418  0.0000E+00  0.4096E-13  0.8590E-16  0.1000E-09  0.0000E+00  0.3173E+16
   -0.637542    2.30771  0.0000E+00  0.4096E-13  0.8590E-16  0.1000E-09  0.0000E+00  0.2887E+16
   -0.675045    2.41834  0.0000E+00  0.4096E-13  0.8590E-16  0.1000E-09  0.0000E+00  0.2616E+16
   -0.712549    2.52601  0.0000E+00  0.4096E-13  0.8590E-16  0.1000E-09  0.0000E+00  0.2361E+16
   -0.750053    2.63067  0.0000E+00  0.4096E-13  0.8590E-16  0.1000E-09  0.0000E+00  0.2153E+16
   -0.787557    2.73391  0.0000E+00  0.4794E-13  0.8590E-16  0.1000E-09  0.0000E+00  0.1965E+16
   -0.825061    2.83638  0.0000E+00  0.2085E-12  0.1052E-15  0.1000E-09  0.0000E+00  0.1783E+16
   -0.862565    2.93816  0.0000E+00  0.5758E-12  0.2228E-15  0.1000E-09  0.0000E+00  0.1607E+16
   -0.900069    3.03937  0.0000E+00  0.1382E-11  0.4985E-15  0.1000E-09  0.0000E+00  0.1436E+16
   -0.937572    3.14018  0.0000E+00  0.3172E-11  0.1105E-14  0.1000E-09  0.0000E+00  0.1270E+16
   -0.975076    3.24074  0.0000E+00  0.7142E-11  0.2422E-14  0.1000E-09  0.0000E+00  0.1107E+16
   -1.012579    3.34127  0.0000E+00  0.1593E-10  0.5267E-14  0.1000E-09  0.0000E+00  0.9460E+15
   -1.050083    3.44186  0.0000E+00  0.3532E-10  0.1139E-13  0.1000E-09  0.0000E+00  0.7869E+15
   -1.087586    3.54276  0.0000E+00  0.7769E-10  0.2445E-13  0.1076E-09  0.0000E+00  0.6287E+15
   -1.125089    3.64431  0.0000E+00  0.1696E-09  0.5210E-13  0.3035E-09  0.0000E+00  0.4742E+15
   -1.162592    3.74821  0.0000E+00  0.3671E-09  0.1102E-12  0.9798E-09  0.0000E+00  0.3098E+15
   -1.200095    3.85500  0.0000E+00  0.7872E-09  0.2310E-12  0.4830E-08  0.0000E+00  0.1309E+15
   -1.237597    3.96304  0.0000E+00  0.1570E-08  0.4546E-12  0.3246E-06  0.0000E+00  0.2861E+13
   -1.275099    4.00142  0.0000E+00  0.2490E-08  0.7623E-12  0.3044E-05  0.0000E+00 -0.1452E+13
   -1.312601    4.00671  0.0000E+00  0.3044E-08  0.1031E-11  0.3316E-05  0.0000E+00 -0.1771E+13
   -1.350103    4.01168  0.0000E+00  0.3424E-08  0.1365E-11  0.3074E-05  0.0000E+00 -0.2420E+13
   -1.387604    4.01720  0.0000E+00  0.3595E-08  0.1863E-11  0.2364E-05  0.0000E+00 -0.3989E+13
   -1.425105    4.02458  0.0000E+00  0.3434E-08  0.2828E-11  0.1303E-05  0.0000E+00 -0.9585E+13
   -1.462606    4.03817  0.0000E+00  0.2703E-08  0.5695E-11  0.3255E-06  0.0000E+00 -0.5375E+14
   -1.500106    4.08409  0.0000E+00  0.0000E+00  0.0000E+00  0.0000E+00  0.0000E+00  0.0000E+00
