 1 - depth, m
 2 - temperature, C
 3 - salinity, kg/kg
 4 - turbulent kinetic energy, m**2/s**2
 5 - dissipation rate, m**2/s**3
 6 - kinematic heat conductance, m**2/s
 7 - modulus of horizontal velocity, m/s
 8 - Richardson number, n/d
   -0.000000   12.87653  0.0000E+00  0.1867E-03  0.1874E-03  0.4618E-04  0.1308E+00 -0.1466E-01
   -0.037499   12.90895  0.0000E+00  0.1027E-03  0.5201E-04  0.9316E-04  0.4714E-01 -0.3737E-01
   -0.074998   12.91669  0.0000E+00  0.7320E-04  0.1849E-04  0.1247E-03  0.3244E-01  0.1297E+01
   -0.112498   12.92136  0.0000E+00  0.5927E-04  0.9783E-05  0.1410E-03  0.2663E-01  0.8261E+01
   -0.149997   12.92447  0.0000E+00  0.4990E-04  0.5647E-05  0.1563E-03  0.2287E-01  0.1093E+02
   -0.187497   12.92683  0.0000E+00  0.4296E-04  0.3406E-05  0.1742E-03  0.1996E-01  0.5734E+01
   -0.224998   12.92875  0.0000E+00  0.3761E-04  0.2093E-05  0.1932E-03  0.1763E-01  0.1440E+02
   -0.262499   12.93041  0.0000E+00  0.3342E-04  0.1353E-05  0.2153E-03  0.1562E-01  0.3054E+02
   -0.300000   12.93184  0.0000E+00  0.3012E-04  0.9199E-06  0.2372E-03  0.1393E-01  0.1117E+01
   -0.337501   12.93312  0.0000E+00  0.2744E-04  0.6557E-06  0.2571E-03  0.1249E-01  0.1087E+01
   -0.375002   12.93429  0.0000E+00  0.2521E-04  0.4876E-06  0.2773E-03  0.1124E-01  0.1006E+02
   -0.412504   12.93536  0.0000E+00  0.2333E-04  0.3757E-06  0.2972E-03  0.1014E-01  0.6893E+01
   -0.450005   12.93636  0.0000E+00  0.2169E-04  0.2979E-06  0.3169E-03  0.9169E-02  0.8875E+01
   -0.487507   12.93729  0.0000E+00  0.2024E-04  0.2416E-06  0.3371E-03  0.8298E-02  0.1028E+02
   -0.525009   12.93815  0.0000E+00  0.1894E-04  0.1995E-06  0.3586E-03  0.7517E-02  0.2012E+02
   -0.562511   12.93897  0.0000E+00  0.1776E-04  0.1671E-06  0.3791E-03  0.6825E-02  0.4749E+02
   -0.600013   12.93973  0.0000E+00  0.1670E-04  0.1418E-06  0.4023E-03  0.6208E-02  0.9635E+01
   -0.637516   12.94045  0.0000E+00  0.1574E-04  0.1215E-06  0.4324E-03  0.5656E-02  0.2585E+02
   -0.675018   12.94111  0.0000E+00  0.1487E-04  0.1052E-06  0.4672E-03  0.5160E-02  0.3609E+02
   -0.712520   12.94173  0.0000E+00  0.1408E-04  0.9172E-07  0.5070E-03  0.4710E-02  0.1629E+03
   -0.750023   12.94229  0.0000E+00  0.1335E-04  0.8057E-07  0.5514E-03  0.4299E-02  0.4506E+02
   -0.787525   12.94281  0.0000E+00  0.1268E-04  0.7123E-07  0.6008E-03  0.3920E-02  0.6014E+02
   -0.825028   12.94328  0.0000E+00  0.1206E-04  0.6332E-07  0.6334E-03  0.3569E-02  0.4454E+02
   -0.862530   12.94371  0.0000E+00  0.1147E-04  0.5656E-07  0.6603E-03  0.3240E-02  0.2367E+03
   -0.900032   12.94412  0.0000E+00  0.1092E-04  0.5074E-07  0.6746E-03  0.2929E-02  0.6430E+02
   -0.937534   12.94451  0.0000E+00  0.1038E-04  0.4571E-07  0.6793E-03  0.2636E-02  0.9122E+02
   -0.975036   12.94490  0.0000E+00  0.9860E-05  0.4134E-07  0.6732E-03  0.2357E-02  0.6976E+01
   -1.012538   12.94529  0.0000E+00  0.9348E-05  0.3753E-07  0.6632E-03  0.2092E-02  0.2491E+01
   -1.050040   12.94569  0.0000E+00  0.8841E-05  0.3421E-07  0.6499E-03  0.1847E-02  0.2317E+01
   -1.087542   12.94610  0.0000E+00  0.8337E-05  0.3136E-07  0.6314E-03  0.1621E-02  0.2027E+01
   -1.125044   12.94651  0.0000E+00  0.7838E-05  0.2897E-07  0.6092E-03  0.1414E-02  0.1690E+01
   -1.162545   12.94695  0.0000E+00  0.7344E-05  0.2705E-07  0.5817E-03  0.1224E-02  0.1665E+01
   -1.200046   12.94741  0.0000E+00  0.6857E-05  0.2565E-07  0.5474E-03  0.1050E-02  0.2458E+01
   -1.237547   12.94791  0.0000E+00  0.6380E-05  0.2484E-07  0.5054E-03  0.8922E-03  0.2775E+01
   -1.275048   12.94845  0.0000E+00  0.5914E-05  0.2483E-07  0.4562E-03  0.7501E-03  0.2901E+01
   -1.312548   12.94907  0.0000E+00  0.5455E-05  0.2608E-07  0.3953E-03  0.6319E-03  0.1559E+02
   -1.350048   12.94983  0.0000E+00  0.4968E-05  0.2953E-07  0.3188E-03  0.5337E-03  0.4247E+03
   -1.387548   12.95089  0.0000E+00  0.4423E-05  0.3610E-07  0.2548E-03  0.4450E-03  0.7610E+02
   -1.425048   12.95215  0.0000E+00  0.3702E-05  0.5620E-07  0.1535E-03  0.3712E-03  0.2641E+04
   -1.462547   12.95558  0.0000E+00  0.2196E-05  0.1304E-06  0.2646E-04  0.2876E-03 -0.1805E+05
   -1.500046   12.97085  0.0000E+00  0.0000E+00  0.0000E+00  0.0000E+00  0.3304E-03  0.0000E+00
