 1 - depth, m
 2 - temperature, C
 3 - salinity, kg/kg
 4 - turbulent kinetic energy, m**2/s**2
 5 - dissipation rate, m**2/s**3
 6 - kinematic heat conductance, m**2/s
 7 - modulus of horizontal velocity, m/s
 8 - Richardson number, n/d
   -0.000000    0.00000  0.0000E+00  0.4095E-13  0.8589E-16  0.1000E-09  0.0000E+00  0.6841E+16
   -0.037500    0.10408  0.0000E+00  0.4095E-13  0.8589E-16  0.1000E-09  0.0000E+00  0.6587E+16
   -0.075001    0.20719  0.0000E+00  0.4095E-13  0.8589E-16  0.1000E-09  0.0000E+00  0.6388E+16
   -0.112502    0.31012  0.0000E+00  0.4095E-13  0.8589E-16  0.1000E-09  0.0000E+00  0.6223E+16
   -0.150003    0.41342  0.0000E+00  0.4095E-13  0.8589E-16  0.1000E-09  0.0000E+00  0.6078E+16
   -0.187505    0.51747  0.0000E+00  0.4095E-13  0.8589E-16  0.1000E-09  0.0000E+00  0.5943E+16
   -0.225007    0.62252  0.0000E+00  0.4095E-13  0.8589E-16  0.1000E-09  0.0000E+00  0.5812E+16
   -0.262509    0.72872  0.0000E+00  0.4095E-13  0.8589E-16  0.1000E-09  0.0000E+00  0.5665E+16
   -0.300012    0.83586  0.0000E+00  0.4095E-13  0.8589E-16  0.1000E-09  0.0000E+00  0.5511E+16
   -0.337514    0.94392  0.0000E+00  0.4095E-13  0.8589E-16  0.1000E-09  0.0000E+00  0.5352E+16
   -0.375017    1.05285  0.0000E+00  0.4095E-13  0.8589E-16  0.1000E-09  0.0000E+00  0.5180E+16
   -0.412520    1.16249  0.0000E+00  0.4095E-13  0.8589E-16  0.1000E-09  0.0000E+00  0.4999E+16
   -0.450024    1.27271  0.0000E+00  0.4095E-13  0.8589E-16  0.1000E-09  0.0000E+00  0.4813E+16
   -0.487527    1.38343  0.0000E+00  0.4095E-13  0.8589E-16  0.1000E-09  0.0000E+00  0.4617E+16
   -0.525031    1.49448  0.0000E+00  0.4095E-13  0.8589E-16  0.1000E-09  0.0000E+00  0.4402E+16
   -0.562534    1.60538  0.0000E+00  0.4095E-13  0.8589E-16  0.1000E-09  0.0000E+00  0.4185E+16
   -0.600038    1.71603  0.0000E+00  0.4095E-13  0.8589E-16  0.1000E-09  0.0000E+00  0.3965E+16
   -0.637542    1.82631  0.0000E+00  0.4095E-13  0.8589E-16  0.1000E-09  0.0000E+00  0.3745E+16
   -0.675046    1.93611  0.0000E+00  0.4095E-13  0.8589E-16  0.1000E-09  0.0000E+00  0.3525E+16
   -0.712549    2.04531  0.0000E+00  0.4095E-13  0.8589E-16  0.1000E-09  0.0000E+00  0.3305E+16
   -0.750053    2.15381  0.0000E+00  0.4095E-13  0.8589E-16  0.1000E-09  0.0000E+00  0.3096E+16
   -0.787557    2.26182  0.0000E+00  0.4095E-13  0.8589E-16  0.1000E-09  0.0000E+00  0.2891E+16
   -0.825061    2.36939  0.0000E+00  0.4095E-13  0.8589E-16  0.1000E-09  0.0000E+00  0.2688E+16
   -0.862565    2.47646  0.0000E+00  0.4095E-13  0.8589E-16  0.1000E-09  0.0000E+00  0.2488E+16
   -0.900069    2.58298  0.0000E+00  0.4095E-13  0.8589E-16  0.1000E-09  0.0000E+00  0.2290E+16
   -0.937573    2.68894  0.0000E+00  0.4095E-13  0.8589E-16  0.1000E-09  0.0000E+00  0.2096E+16
   -0.975076    2.79431  0.0000E+00  0.4095E-13  0.8589E-16  0.1000E-09  0.0000E+00  0.1905E+16
   -1.012580    2.89912  0.0000E+00  0.4095E-13  0.8589E-16  0.1000E-09  0.0000E+00  0.1700E+16
   -1.050083    3.00219  0.0000E+00  0.4095E-13  0.8589E-16  0.1000E-09  0.0000E+00  0.1498E+16
   -1.087586    3.10308  0.0000E+00  0.5663E-13  0.9299E-16  0.1000E-09  0.0000E+00  0.1303E+16
   -1.125089    3.20152  0.0000E+00  0.1601E-12  0.1796E-15  0.1000E-09  0.0000E+00  0.1157E+16
   -1.162592    3.30084  0.0000E+00  0.5928E-12  0.5757E-15  0.1000E-09  0.0000E+00  0.1016E+16
   -1.200095    3.40193  0.0000E+00  0.2184E-11  0.2044E-14  0.1000E-09  0.0000E+00  0.8711E+15
   -1.237597    3.50549  0.0000E+00  0.7903E-11  0.7194E-14  0.1000E-09  0.0000E+00  0.7204E+15
   -1.275100    3.61247  0.0000E+00  0.2856E-10  0.2533E-13  0.1475E-09  0.0000E+00  0.5551E+15
   -1.312602    3.72351  0.0000E+00  0.1024E-09  0.8871E-13  0.6464E-09  0.0000E+00  0.3733E+15
   -1.350103    3.84086  0.0000E+00  0.3619E-09  0.3081E-12  0.6874E-08  0.0000E+00  0.1579E+15
   -1.387605    3.96346  0.0000E+00  0.1164E-08  0.1009E-11  0.3859E-06  0.0000E+00  0.1701E+13
   -1.425106    4.02535  0.0000E+00  0.2145E-08  0.2490E-11  0.6675E-06  0.0000E+00 -0.2097E+14
   -1.462606    4.05125  0.0000E+00  0.2234E-08  0.5081E-11  0.2831E-06  0.0000E+00 -0.6833E+14
   -1.500107    4.10011  0.0000E+00  0.0000E+00  0.0000E+00  0.0000E+00  0.0000E+00  0.0000E+00
