 1 - depth, m
 2 - temperature, C
 3 - salinity, kg/kg
 4 - turbulent kinetic energy, m**2/s**2
 5 - dissipation rate, m**2/s**3
 6 - kinematic heat conductance, m**2/s
 7 - modulus of horizontal velocity, m/s
 8 - Richardson number, n/d
   -0.000000    0.00000  0.0000E+00  0.4096E-13  0.8590E-16  0.1000E-09  0.0000E+00  0.1048E+17
   -0.037500    0.16065  0.0000E+00  0.4096E-13  0.8590E-16  0.1000E-09  0.0000E+00  0.9901E+16
   -0.075001    0.31934  0.0000E+00  0.4096E-13  0.8590E-16  0.1000E-09  0.0000E+00  0.9324E+16
   -0.112502    0.47577  0.0000E+00  0.4096E-13  0.8590E-16  0.1000E-09  0.0000E+00  0.8752E+16
   -0.150003    0.62963  0.0000E+00  0.4096E-13  0.8590E-16  0.1000E-09  0.0000E+00  0.8187E+16
   -0.187505    0.78064  0.0000E+00  0.4096E-13  0.8590E-16  0.1000E-09  0.0000E+00  0.7634E+16
   -0.225007    0.92853  0.0000E+00  0.4096E-13  0.8590E-16  0.1000E-09  0.0000E+00  0.7094E+16
   -0.262509    1.07306  0.0000E+00  0.4096E-13  0.8590E-16  0.1000E-09  0.0000E+00  0.6558E+16
   -0.300012    1.21368  0.0000E+00  0.4096E-13  0.8590E-16  0.1000E-09  0.0000E+00  0.6038E+16
   -0.337514    1.35012  0.0000E+00  0.4096E-13  0.8590E-16  0.1000E-09  0.0000E+00  0.5542E+16
   -0.375017    1.48217  0.0000E+00  0.4096E-13  0.8590E-16  0.1000E-09  0.0000E+00  0.5122E+16
   -0.412520    1.61102  0.0000E+00  0.4096E-13  0.8590E-16  0.1000E-09  0.0000E+00  0.4750E+16
   -0.450024    1.73738  0.0000E+00  0.4096E-13  0.8590E-16  0.1000E-09  0.0000E+00  0.4393E+16
   -0.487527    1.86119  0.0000E+00  0.4096E-13  0.8590E-16  0.1000E-09  0.0000E+00  0.4051E+16
   -0.525031    1.98236  0.0000E+00  0.4096E-13  0.8590E-16  0.1000E-09  0.0000E+00  0.3717E+16
   -0.562534    2.10064  0.0000E+00  0.4096E-13  0.8590E-16  0.1000E-09  0.0000E+00  0.3400E+16
   -0.600038    2.21596  0.0000E+00  0.4096E-13  0.8590E-16  0.1000E-09  0.0000E+00  0.3099E+16
   -0.637542    2.32825  0.0000E+00  0.4096E-13  0.8590E-16  0.1000E-09  0.0000E+00  0.2814E+16
   -0.675046    2.43745  0.0000E+00  0.4096E-13  0.8590E-16  0.1000E-09  0.0000E+00  0.2545E+16
   -0.712549    2.54349  0.0000E+00  0.4096E-13  0.8590E-16  0.1000E-09  0.0000E+00  0.2291E+16
   -0.750053    2.64631  0.0000E+00  0.4096E-13  0.8590E-16  0.1000E-09  0.0000E+00  0.2087E+16
   -0.787557    2.74752  0.0000E+00  0.4096E-13  0.8590E-16  0.1000E-09  0.0000E+00  0.1901E+16
   -0.825061    2.84771  0.0000E+00  0.1163E-12  0.8590E-16  0.1000E-09  0.0000E+00  0.1723E+16
   -0.862565    2.94698  0.0000E+00  0.3582E-12  0.1587E-15  0.1000E-09  0.0000E+00  0.1551E+16
   -0.900069    3.04542  0.0000E+00  0.9109E-12  0.3596E-15  0.1000E-09  0.0000E+00  0.1385E+16
   -0.937573    3.14315  0.0000E+00  0.2169E-11  0.8208E-15  0.1000E-09  0.0000E+00  0.1225E+16
   -0.975076    3.24030  0.0000E+00  0.5039E-11  0.1853E-14  0.1000E-09  0.0000E+00  0.1069E+16
   -1.012580    3.33700  0.0000E+00  0.1158E-10  0.4150E-14  0.1000E-09  0.0000E+00  0.9154E+15
   -1.050083    3.43329  0.0000E+00  0.2645E-10  0.9241E-14  0.1000E-09  0.0000E+00  0.7655E+15
   -1.087586    3.52929  0.0000E+00  0.5992E-10  0.2043E-13  0.1000E-09  0.0000E+00  0.6184E+15
   -1.125089    3.62517  0.0000E+00  0.1347E-09  0.4482E-13  0.2585E-09  0.0000E+00  0.4786E+15
   -1.162592    3.72247  0.0000E+00  0.3004E-09  0.9763E-13  0.8062E-09  0.0000E+00  0.3337E+15
   -1.200095    3.82153  0.0000E+00  0.6641E-09  0.2110E-12  0.3213E-08  0.0000E+00  0.1801E+15
   -1.237597    3.92155  0.0000E+00  0.1433E-08  0.4465E-12  0.3873E-07  0.0000E+00  0.3039E+14
   -1.275100    4.00447  0.0000E+00  0.2493E-08  0.7825E-12  0.3048E-05  0.0000E+00 -0.1548E+13
   -1.312602    4.00928  0.0000E+00  0.3047E-08  0.1042E-11  0.3322E-05  0.0000E+00 -0.1816E+13
   -1.350103    4.01388  0.0000E+00  0.3420E-08  0.1364E-11  0.3085E-05  0.0000E+00 -0.2427E+13
   -1.387605    4.01902  0.0000E+00  0.3578E-08  0.1844E-11  0.2374E-05  0.0000E+00 -0.3947E+13
   -1.425106    4.02599  0.0000E+00  0.3403E-08  0.2777E-11  0.1304E-05  0.0000E+00 -0.9409E+13
   -1.462606    4.03900  0.0000E+00  0.2660E-08  0.5562E-11  0.3213E-06  0.0000E+00 -0.5277E+14
   -1.500107    4.08388  0.0000E+00  0.0000E+00  0.0000E+00  0.0000E+00  0.0000E+00  0.0000E+00
