 1 - depth, m
 2 - temperature, C
 3 - salinity, kg/kg
 4 - turbulent kinetic energy, m**2/s**2
 5 - dissipation rate, m**2/s**3
 6 - kinematic heat conductance, m**2/s
 7 - modulus of horizontal velocity, m/s
 8 - Richardson number, n/d
   -0.000000    0.00000  0.0000E+00  0.4096E-13  0.8590E-16  0.1000E-09  0.0000E+00  0.1143E+17
   -0.037498    0.17560  0.0000E+00  0.4096E-13  0.8590E-16  0.1000E-09  0.0000E+00  0.1079E+17
   -0.074996    0.34971  0.0000E+00  0.4096E-13  0.8590E-16  0.1000E-09  0.0000E+00  0.1016E+17
   -0.112495    0.52219  0.0000E+00  0.4096E-13  0.8590E-16  0.1000E-09  0.0000E+00  0.9547E+16
   -0.149994    0.69292  0.0000E+00  0.4096E-13  0.8590E-16  0.1000E-09  0.0000E+00  0.8943E+16
   -0.187493    0.86179  0.0000E+00  0.4096E-13  0.8590E-16  0.1000E-09  0.0000E+00  0.8353E+16
   -0.224992    1.02869  0.0000E+00  0.4096E-13  0.8590E-16  0.1000E-09  0.0000E+00  0.7778E+16
   -0.262492    1.19352  0.0000E+00  0.4096E-13  0.8590E-16  0.1000E-09  0.0000E+00  0.7215E+16
   -0.299992    1.35611  0.0000E+00  0.9900E-13  0.8590E-16  0.1000E-09  0.0000E+00  0.6669E+16
   -0.337492    1.51633  0.0000E+00  0.3211E-12  0.9187E-16  0.1000E-09  0.0000E+00  0.6141E+16
   -0.374993    1.67408  0.0000E+00  0.7210E-12  0.1454E-15  0.1000E-09  0.0000E+00  0.5648E+16
   -0.412493    1.82973  0.0000E+00  0.1403E-11  0.2518E-15  0.1000E-09  0.0000E+00  0.5180E+16
   -0.449994    1.98350  0.0000E+00  0.2575E-11  0.4398E-15  0.1000E-09  0.0000E+00  0.4726E+16
   -0.487495    2.13531  0.0000E+00  0.4601E-11  0.7639E-15  0.1000E-09  0.0000E+00  0.4287E+16
   -0.524996    2.28506  0.0000E+00  0.8119E-11  0.1319E-14  0.1000E-09  0.0000E+00  0.3861E+16
   -0.562497    2.43263  0.0000E+00  0.1422E-10  0.2267E-14  0.1000E-09  0.0000E+00  0.3452E+16
   -0.599999    2.57794  0.0000E+00  0.2477E-10  0.3877E-14  0.1000E-09  0.0000E+00  0.3058E+16
   -0.637500    2.72089  0.0000E+00  0.4294E-10  0.6600E-14  0.1000E-09  0.0000E+00  0.2681E+16
   -0.675001    2.86140  0.0000E+00  0.7409E-10  0.1119E-13  0.1000E-09  0.0000E+00  0.2321E+16
   -0.712503    2.99936  0.0000E+00  0.1273E-09  0.1888E-13  0.1000E-09  0.0000E+00  0.1977E+16
   -0.750004    3.13468  0.0000E+00  0.2178E-09  0.3175E-13  0.1000E-09  0.0000E+00  0.1661E+16
   -0.787506    3.26814  0.0000E+00  0.3711E-09  0.5316E-13  0.1084E-09  0.0000E+00  0.1361E+16
   -0.825007    3.39995  0.0000E+00  0.6296E-09  0.8868E-13  0.2299E-09  0.0000E+00  0.1071E+16
   -0.862508    3.52998  0.0000E+00  0.1064E-08  0.1473E-12  0.5164E-09  0.0000E+00  0.7920E+15
   -0.900010    3.65806  0.0000E+00  0.1791E-08  0.2438E-12  0.1289E-08  0.0000E+00  0.5247E+15
   -0.937511    3.78372  0.0000E+00  0.2997E-08  0.4015E-12  0.4116E-08  0.0000E+00  0.2706E+15
   -0.975012    3.90526  0.0000E+00  0.4926E-08  0.6503E-12  0.3654E-07  0.0000E+00  0.4927E+14
   -1.012513    4.00328  0.0000E+00  0.5622E-08  0.7461E-12  0.1696E-04  0.0000E+00 -0.2752E+12
   -1.050014    4.00429  0.0000E+00  0.5946E-08  0.7997E-12  0.1753E-04  0.0000E+00 -0.2815E+12
   -1.087515    4.00526  0.0000E+00  0.6217E-08  0.8554E-12  0.1775E-04  0.0000E+00 -0.2917E+12
   -1.125016    4.00622  0.0000E+00  0.6440E-08  0.9151E-12  0.1754E-04  0.0000E+00 -0.3103E+12
   -1.162516    4.00719  0.0000E+00  0.6615E-08  0.9813E-12  0.1690E-04  0.0000E+00 -0.3386E+12
   -1.200016    4.00820  0.0000E+00  0.6739E-08  0.1057E-11  0.1591E-04  0.0000E+00 -0.3783E+12
   -1.237516    4.00928  0.0000E+00  0.6807E-08  0.1147E-11  0.1462E-04  0.0000E+00 -0.4340E+12
   -1.275016    4.01045  0.0000E+00  0.6807E-08  0.1262E-11  0.1297E-04  0.0000E+00 -0.5190E+12
   -1.312516    4.01179  0.0000E+00  0.6719E-08  0.1418E-11  0.1087E-04  0.0000E+00 -0.6614E+12
   -1.350015    4.01340  0.0000E+00  0.6499E-08  0.1653E-11  0.8305E-05  0.0000E+00 -0.9354E+12
   -1.387514    4.01552  0.0000E+00  0.6056E-08  0.2064E-11  0.5356E-05  0.0000E+00 -0.1604E+13
   -1.425012    4.01884  0.0000E+00  0.5158E-08  0.3002E-11  0.2351E-05  0.0000E+00 -0.4264E+13
   -1.462510    4.02634  0.0000E+00  0.3318E-08  0.6407E-11  0.3567E-06  0.0000E+00 -0.3633E+14
   -1.500008    4.06533  0.0000E+00  0.0000E+00  0.0000E+00  0.0000E+00  0.0000E+00  0.0000E+00
