 1 - depth, m
 2 - temperature, C
 3 - salinity, kg/kg
 4 - turbulent kinetic energy, m**2/s**2
 5 - dissipation rate, m**2/s**3
 6 - kinematic heat conductance, m**2/s
 7 - modulus of horizontal velocity, m/s
 8 - Richardson number, n/d
   -0.000000   15.90944  0.0000E+00  0.8134E-04  0.2314E-04  0.4772E-04  0.7614E-01 -0.7609E-01
   -0.037501   15.95677  0.0000E+00  0.4853E-04  0.6476E-05  0.7121E-04  0.3031E-01 -0.1999E-01
   -0.075003   15.96590  0.0000E+00  0.3737E-04  0.2967E-05  0.8340E-04  0.2325E-01 -0.2999E-01
   -0.112505   15.97196  0.0000E+00  0.3098E-04  0.1632E-05  0.9663E-04  0.1947E-01 -0.4154E-01
   -0.150007   15.97659  0.0000E+00  0.2654E-04  0.9834E-06  0.1114E-03  0.1666E-01 -0.5407E-01
   -0.187510   15.98041  0.0000E+00  0.2328E-04  0.6362E-06  0.1269E-03  0.1442E-01 -0.6797E-01
   -0.225013   15.98369  0.0000E+00  0.2076E-04  0.4360E-06  0.1430E-03  0.1257E-01 -0.8295E-01
   -0.262516   15.98654  0.0000E+00  0.1874E-04  0.3130E-06  0.1635E-03  0.1101E-01 -0.6615E-01
   -0.300020   15.98900  0.0000E+00  0.1712E-04  0.2337E-06  0.2148E-03  0.9715E-02  0.5689E+02
   -0.337523   15.99102  0.0000E+00  0.1580E-04  0.1806E-06  0.2794E-03  0.8634E-02  0.2863E+02
   -0.375027   15.99265  0.0000E+00  0.1473E-04  0.1437E-06  0.3332E-03  0.7719E-02  0.7024E+02
   -0.412531   15.99401  0.0000E+00  0.1383E-04  0.1171E-06  0.3835E-03  0.6926E-02  0.1420E+03
   -0.450036   15.99515  0.0000E+00  0.1308E-04  0.9736E-07  0.4379E-03  0.6229E-02  0.1450E+03
   -0.487540   15.99611  0.0000E+00  0.1244E-04  0.8234E-07  0.4818E-03  0.5609E-02  0.4512E+02
   -0.525044   15.99692  0.0000E+00  0.1187E-04  0.7053E-07  0.5132E-03  0.5046E-02  0.1904E+03
   -0.562549   15.99765  0.0000E+00  0.1136E-04  0.6103E-07  0.5322E-03  0.4535E-02  0.8957E+01
   -0.600054   15.99833  0.0000E+00  0.1089E-04  0.5324E-07  0.5446E-03  0.4068E-02  0.6325E+01
   -0.637559   15.99898  0.0000E+00  0.1047E-04  0.4676E-07  0.5552E-03  0.3641E-02  0.4718E+01
   -0.675064   15.99961  0.0000E+00  0.1007E-04  0.4134E-07  0.5645E-03  0.3249E-02  0.3911E+01
   -0.712568   16.00023  0.0000E+00  0.9694E-05  0.3676E-07  0.5736E-03  0.2889E-02  0.3479E+01
   -0.750073   16.00083  0.0000E+00  0.9339E-05  0.3288E-07  0.5824E-03  0.2560E-02  0.3156E+01
   -0.787578   16.00142  0.0000E+00  0.8998E-05  0.2959E-07  0.5905E-03  0.2259E-02  0.2907E+01
   -0.825083   16.00200  0.0000E+00  0.8667E-05  0.2680E-07  0.5977E-03  0.1983E-02  0.2699E+01
   -0.862588   16.00257  0.0000E+00  0.8343E-05  0.2445E-07  0.6035E-03  0.1732E-02  0.2517E+01
   -0.900093   16.00314  0.0000E+00  0.8023E-05  0.2248E-07  0.6079E-03  0.1504E-02  0.2357E+01
   -0.937597   16.00370  0.0000E+00  0.7705E-05  0.2086E-07  0.6106E-03  0.1297E-02  0.2215E+01
   -0.975102   16.00425  0.0000E+00  0.7387E-05  0.1956E-07  0.6121E-03  0.1109E-02  0.2090E+01
   -1.012607   16.00481  0.0000E+00  0.7070E-05  0.1855E-07  0.6205E-03  0.9399E-03  0.1864E+01
   -1.050111   16.00536  0.0000E+00  0.6759E-05  0.1783E-07  0.6357E-03  0.7936E-03  0.1662E+01
   -1.087615   16.00590  0.0000E+00  0.6457E-05  0.1738E-07  0.6507E-03  0.6696E-03  0.1489E+01
   -1.125119   16.00642  0.0000E+00  0.6171E-05  0.1720E-07  0.6304E-03  0.5657E-03  0.1326E+01
   -1.162623   16.00697  0.0000E+00  0.5902E-05  0.1726E-07  0.5877E-03  0.4797E-03  0.1171E+01
   -1.200127   16.00755  0.0000E+00  0.5655E-05  0.1756E-07  0.5356E-03  0.4091E-03  0.1027E+01
   -1.237630   16.00818  0.0000E+00  0.5431E-05  0.1808E-07  0.4843E-03  0.3517E-03  0.9330E+00
   -1.275134   16.00889  0.0000E+00  0.5213E-05  0.1890E-07  0.4370E-03  0.3058E-03  0.1114E+01
   -1.312636   16.00968  0.0000E+00  0.4974E-05  0.2022E-07  0.3866E-03  0.2680E-03  0.1894E+01
   -1.350139   16.01057  0.0000E+00  0.4682E-05  0.2251E-07  0.3013E-03  0.2342E-03  0.4313E+01
   -1.387642   16.01173  0.0000E+00  0.4306E-05  0.2682E-07  0.2727E-03  0.2007E-03  0.1085E+02
   -1.425144   16.01301  0.0000E+00  0.3653E-05  0.4036E-07  0.1159E-03  0.1743E-03 -0.9631E+02
   -1.462645   16.01883  0.0000E+00  0.2151E-05  0.9936E-07  0.3480E-04  0.1312E-03 -0.1189E+04
   -1.500147   16.02943  0.0000E+00  0.0000E+00  0.0000E+00  0.0000E+00  0.1411E-03  0.0000E+00
