 1 - depth, m
 2 - temperature, C
 3 - salinity, kg/kg
 4 - turbulent kinetic energy, m**2/s**2
 5 - dissipation rate, m**2/s**3
 6 - kinematic heat conductance, m**2/s
 7 - modulus of horizontal velocity, m/s
 8 - Richardson number, n/d
   -0.000000    2.69301  0.0000E+00  0.4914E-04  0.1113E-04  0.3446E-04  0.5405E-01  0.2439E-02
   -0.037500    2.72496  0.0000E+00  0.3041E-04  0.3242E-05  0.4948E-04  0.2450E-01  0.5561E-02
   -0.075001    2.73424  0.0000E+00  0.2363E-04  0.1498E-05  0.5735E-04  0.1917E-01  0.1317E-01
   -0.112501    2.74113  0.0000E+00  0.1941E-04  0.8126E-06  0.6470E-04  0.1602E-01  0.1998E-01
   -0.150002    2.74699  0.0000E+00  0.1642E-04  0.4899E-06  0.7104E-04  0.1365E-01  0.2930E-01
   -0.187504    2.75230  0.0000E+00  0.1416E-04  0.3193E-06  0.7596E-04  0.1173E-01  0.4177E-01
   -0.225006    2.75734  0.0000E+00  0.1237E-04  0.2203E-06  0.7930E-04  0.1014E-01  0.5819E-01
   -0.262507    2.76233  0.0000E+00  0.1086E-04  0.1581E-06  0.8187E-04  0.8766E-02  0.8948E-01
   -0.300010    2.76750  0.0000E+00  0.9567E-05  0.1170E-06  0.8336E-04  0.7601E-02  0.1497E+00
   -0.337512    2.77347  0.0000E+00  0.8457E-05  0.8866E-07  0.8395E-04  0.6598E-02  0.3163E+00
   -0.375015    2.78278  0.0000E+00  0.7495E-05  0.6847E-07  0.8382E-04  0.5725E-02  0.1150E+01
   -0.412518    2.79478  0.0000E+00  0.6654E-05  0.5367E-07  0.8290E-04  0.4978E-02  0.6554E+01
   -0.450021    2.80524  0.0000E+00  0.5905E-05  0.4253E-07  0.8113E-04  0.4334E-02  0.4927E+02
   -0.487524    2.81445  0.0000E+00  0.5228E-05  0.3392E-07  0.7861E-04  0.3770E-02  0.4496E+03
   -0.525027    2.82316  0.0000E+00  0.4609E-05  0.2713E-07  0.7599E-04  0.3269E-02  0.4868E+04
   -0.562530    2.83102  0.0000E+00  0.4049E-05  0.2175E-07  0.7263E-04  0.2834E-02  0.5653E+05
   -0.600034    2.83833  0.0000E+00  0.3543E-05  0.1746E-07  0.6865E-04  0.2454E-02  0.6694E+06
   -0.637537    2.84511  0.0000E+00  0.3085E-05  0.1401E-07  0.6412E-04  0.2120E-02  0.7446E+07
   -0.675041    2.85118  0.0000E+00  0.2673E-05  0.1123E-07  0.5912E-04  0.1825E-02  0.6811E+08
   -0.712545    2.85619  0.0000E+00  0.2301E-05  0.8982E-08  0.5369E-04  0.1565E-02  0.2179E+09
   -0.750048    2.85943  0.0000E+00  0.1967E-05  0.7158E-08  0.4782E-04  0.1335E-02  0.2509E+11
   -0.787552    2.86424  0.0000E+00  0.1666E-05  0.5674E-08  0.4157E-04  0.1132E-02  0.1453E+13
   -0.825056    2.87320  0.0000E+00  0.1396E-05  0.4466E-08  0.3502E-04  0.9514E-03  0.6699E+14
   -0.862559    2.89237  0.0000E+00  0.1157E-05  0.3485E-08  0.2826E-04  0.7916E-03  0.3304E+15
   -0.900063    2.94012  0.0000E+00  0.9490E-06  0.2689E-08  0.2139E-04  0.6498E-03  0.3306E+15
   -0.937566    3.03242  0.0000E+00  0.7633E-06  0.2043E-08  0.2254E-04  0.5235E-03  0.1163E+15
   -0.975070    3.12806  0.0000E+00  0.5940E-06  0.1509E-08  0.2336E-04  0.4092E-03  0.6008E+13
   -1.012573    3.23174  0.0000E+00  0.4162E-06  0.9978E-09  0.2463E-04  0.2967E-03 -0.9655E+12
   -1.050076    3.38747  0.0000E+00  0.2156E-06  0.4350E-09  0.2894E-04  0.1622E-03 -0.1020E+13
   -1.087579    3.77211  0.0000E+00  0.1309E-06  0.1756E-09  0.3464E-04  0.4038E-04 -0.1008E+13
   -1.125082    4.01583  0.0000E+00  0.1200E-06  0.1157E-09  0.4205E-04  0.8733E-05 -0.1062E+13
   -1.162584    4.08609  0.0000E+00  0.1218E-06  0.1047E-09  0.4913E-04  0.2966E-05 -0.1129E+13
   -1.200087    4.09424  0.0000E+00  0.1235E-06  0.1022E-09  0.5250E-04  0.1549E-05 -0.1222E+13
   -1.237589    4.10079  0.0000E+00  0.1249E-06  0.1036E-09  0.5359E-04  0.8417E-06 -0.1356E+13
   -1.275091    4.10669  0.0000E+00  0.1255E-06  0.1076E-09  0.5285E-04  0.4553E-06 -0.1617E+13
   -1.312593    4.11239  0.0000E+00  0.1251E-06  0.1143E-09  0.4986E-04  0.2483E-06 -0.1987E+13
   -1.350094    4.11836  0.0000E+00  0.1234E-06  0.1251E-09  0.4486E-04  0.1347E-06 -0.2510E+13
   -1.387595    4.12500  0.0000E+00  0.1194E-06  0.1445E-09  0.3576E-04  0.6974E-07 -0.3351E+13
   -1.425096    4.13359  0.0000E+00  0.1098E-06  0.1918E-09  0.1803E-04  0.3027E-07 -0.7678E+13
   -1.462596    4.15049  0.0000E+00  0.7620E-07  0.4329E-09  0.2898E-05  0.1034E-07 -0.8454E+14
   -1.500096    4.24888  0.0000E+00  0.0000E+00  0.0000E+00  0.0000E+00  0.1037E-07  0.0000E+00
