 1 - depth, m
 2 - temperature, C
 3 - salinity, kg/kg
 4 - turbulent kinetic energy, m**2/s**2
 5 - dissipation rate, m**2/s**3
 6 - kinematic heat conductance, m**2/s
 7 - modulus of horizontal velocity, m/s
 8 - Richardson number, n/d
   -0.000000    0.00000  0.0000E+00  0.4096E-13  0.8590E-16  0.1000E-09  0.0000E+00  0.1033E+17
   -0.037494    0.15836  0.0000E+00  0.4096E-13  0.8590E-16  0.1000E-09  0.0000E+00  0.9708E+16
   -0.074987    0.31379  0.0000E+00  0.4096E-13  0.8590E-16  0.1000E-09  0.0000E+00  0.9095E+16
   -0.112482    0.46603  0.0000E+00  0.4096E-13  0.8590E-16  0.1000E-09  0.0000E+00  0.8496E+16
   -0.149976    0.61483  0.0000E+00  0.4096E-13  0.8590E-16  0.1000E-09  0.0000E+00  0.7915E+16
   -0.187471    0.76000  0.0000E+00  0.4096E-13  0.8590E-16  0.1000E-09  0.0000E+00  0.7354E+16
   -0.224966    0.90133  0.0000E+00  0.4096E-13  0.8590E-16  0.1000E-09  0.0000E+00  0.6814E+16
   -0.262461    1.03866  0.0000E+00  0.4096E-13  0.8590E-16  0.1000E-09  0.0000E+00  0.6283E+16
   -0.299957    1.17152  0.0000E+00  0.4096E-13  0.8590E-16  0.1000E-09  0.0000E+00  0.5774E+16
   -0.337453    1.29969  0.0000E+00  0.4096E-13  0.8590E-16  0.1000E-09  0.0000E+00  0.5291E+16
   -0.374949    1.42302  0.0000E+00  0.4096E-13  0.8590E-16  0.1000E-09  0.0000E+00  0.4899E+16
   -0.412445    1.54300  0.0000E+00  0.4096E-13  0.8590E-16  0.1000E-09  0.0000E+00  0.4562E+16
   -0.449942    1.66053  0.0000E+00  0.4096E-13  0.8590E-16  0.1000E-09  0.0000E+00  0.4240E+16
   -0.487438    1.77557  0.0000E+00  0.4096E-13  0.8590E-16  0.1000E-09  0.0000E+00  0.3930E+16
   -0.524935    1.88806  0.0000E+00  0.4096E-13  0.8590E-16  0.1000E-09  0.0000E+00  0.3630E+16
   -0.562432    1.99782  0.0000E+00  0.4096E-13  0.8590E-16  0.1000E-09  0.0000E+00  0.3344E+16
   -0.599928    2.10477  0.0000E+00  0.4096E-13  0.8590E-16  0.1000E-09  0.0000E+00  0.3072E+16
   -0.637425    2.20885  0.0000E+00  0.4096E-13  0.8590E-16  0.1000E-09  0.0000E+00  0.2812E+16
   -0.674922    2.30998  0.0000E+00  0.4096E-13  0.8590E-16  0.1000E-09  0.0000E+00  0.2566E+16
   -0.712419    2.40805  0.0000E+00  0.4096E-13  0.8590E-16  0.1000E-09  0.0000E+00  0.2333E+16
   -0.749917    2.50297  0.0000E+00  0.4096E-13  0.8590E-16  0.1000E-09  0.0000E+00  0.2148E+16
   -0.787414    2.59628  0.0000E+00  0.4096E-13  0.8590E-16  0.1000E-09  0.0000E+00  0.1983E+16
   -0.824911    2.68849  0.0000E+00  0.4096E-13  0.8590E-16  0.1000E-09  0.0000E+00  0.1824E+16
   -0.862408    2.77961  0.0000E+00  0.4096E-13  0.8590E-16  0.1000E-09  0.0000E+00  0.1669E+16
   -0.899905    2.86966  0.0000E+00  0.4096E-13  0.8590E-16  0.1000E-09  0.0000E+00  0.1520E+16
   -0.937402    2.95863  0.0000E+00  0.4096E-13  0.8590E-16  0.1000E-09  0.0000E+00  0.1376E+16
   -0.974898    3.04656  0.0000E+00  0.4096E-13  0.8590E-16  0.1000E-09  0.0000E+00  0.1238E+16
   -1.012395    3.13347  0.0000E+00  0.4096E-13  0.8590E-16  0.1000E-09  0.0000E+00  0.1105E+16
   -1.049892    3.21946  0.0000E+00  0.4096E-13  0.8590E-16  0.1000E-09  0.0000E+00  0.9772E+15
   -1.087388    3.30460  0.0000E+00  0.1058E-12  0.1059E-15  0.1000E-09  0.0000E+00  0.8536E+15
   -1.124884    3.38895  0.0000E+00  0.3768E-12  0.3212E-15  0.1000E-09  0.0000E+00  0.7423E+15
   -1.162380    3.47357  0.0000E+00  0.1278E-11  0.1045E-14  0.1000E-09  0.0000E+00  0.6327E+15
   -1.199876    3.55885  0.0000E+00  0.4238E-11  0.3366E-14  0.1000E-09  0.0000E+00  0.5224E+15
   -1.237372    3.64509  0.0000E+00  0.1384E-10  0.1071E-13  0.1000E-09  0.0000E+00  0.4105E+15
   -1.274867    3.73280  0.0000E+00  0.4520E-10  0.3412E-13  0.3053E-09  0.0000E+00  0.2960E+15
   -1.312362    3.82322  0.0000E+00  0.1466E-09  0.1084E-12  0.1634E-08  0.0000E+00  0.1706E+15
   -1.349857    3.91660  0.0000E+00  0.4678E-09  0.3416E-12  0.1968E-07  0.0000E+00  0.3560E+14
   -1.387351    4.00412  0.0000E+00  0.1342E-08  0.1027E-11  0.6076E-06  0.0000E+00 -0.8768E+13
   -1.424846    4.02424  0.0000E+00  0.1894E-08  0.1998E-11  0.6148E-06  0.0000E+00 -0.1658E+14
   -1.462340    4.04595  0.0000E+00  0.1910E-08  0.4088E-11  0.2536E-06  0.0000E+00 -0.6077E+14
   -1.499833    4.09273  0.0000E+00  0.0000E+00  0.0000E+00  0.0000E+00  0.0000E+00  0.0000E+00
