 1 - depth, m
 2 - temperature, C
 3 - salinity, kg/kg
 4 - turbulent kinetic energy, m**2/s**2
 5 - dissipation rate, m**2/s**3
 6 - kinematic heat conductance, m**2/s
 7 - modulus of horizontal velocity, m/s
 8 - Richardson number, n/d
   -0.000000    0.00000  0.0000E+00  0.4096E-13  0.8590E-16  0.1000E-09  0.0000E+00  0.1219E+17
   -0.037500    0.18760  0.0000E+00  0.4096E-13  0.8590E-16  0.1000E-09  0.0000E+00  0.1147E+17
   -0.075001    0.37353  0.0000E+00  0.4096E-13  0.8590E-16  0.1000E-09  0.0000E+00  0.1075E+17
   -0.112502    0.55751  0.0000E+00  0.4096E-13  0.8590E-16  0.1000E-09  0.0000E+00  0.1003E+17
   -0.150003    0.73922  0.0000E+00  0.4096E-13  0.8590E-16  0.1000E-09  0.0000E+00  0.9327E+16
   -0.187505    0.91837  0.0000E+00  0.4096E-13  0.8590E-16  0.1000E-09  0.0000E+00  0.8636E+16
   -0.225006    1.09465  0.0000E+00  0.4096E-13  0.8590E-16  0.1000E-09  0.0000E+00  0.7962E+16
   -0.262509    1.26781  0.0000E+00  0.1383E-12  0.8590E-16  0.1000E-09  0.0000E+00  0.7295E+16
   -0.300011    1.43726  0.0000E+00  0.4003E-12  0.1063E-15  0.1000E-09  0.0000E+00  0.6651E+16
   -0.337513    1.60271  0.0000E+00  0.8684E-12  0.1777E-15  0.1000E-09  0.0000E+00  0.6035E+16
   -0.375016    1.76391  0.0000E+00  0.1682E-11  0.3147E-15  0.1000E-09  0.0000E+00  0.5496E+16
   -0.412519    1.92206  0.0000E+00  0.3107E-11  0.5585E-15  0.1000E-09  0.0000E+00  0.5006E+16
   -0.450022    2.07788  0.0000E+00  0.5617E-11  0.9845E-15  0.1000E-09  0.0000E+00  0.4534E+16
   -0.487526    2.23131  0.0000E+00  0.1004E-10  0.1724E-14  0.1000E-09  0.0000E+00  0.4080E+16
   -0.525029    2.38229  0.0000E+00  0.1785E-10  0.3006E-14  0.1000E-09  0.0000E+00  0.3642E+16
   -0.562533    2.53060  0.0000E+00  0.3155E-10  0.5218E-14  0.1000E-09  0.0000E+00  0.3226E+16
   -0.600036    2.67625  0.0000E+00  0.5552E-10  0.9017E-14  0.1000E-09  0.0000E+00  0.2829E+16
   -0.637540    2.81923  0.0000E+00  0.9726E-10  0.1552E-13  0.1000E-09  0.0000E+00  0.2454E+16
   -0.675044    2.95957  0.0000E+00  0.1696E-09  0.2659E-13  0.1000E-09  0.0000E+00  0.2099E+16
   -0.712547    3.09733  0.0000E+00  0.2946E-09  0.4537E-13  0.1000E-09  0.0000E+00  0.1763E+16
   -0.750051    3.23256  0.0000E+00  0.5095E-09  0.7710E-13  0.1459E-09  0.0000E+00  0.1467E+16
   -0.787555    3.36749  0.0000E+00  0.8774E-09  0.1305E-12  0.3069E-09  0.0000E+00  0.1180E+16
   -0.825059    3.50300  0.0000E+00  0.1505E-08  0.2200E-12  0.6847E-09  0.0000E+00  0.8918E+15
   -0.862563    3.63920  0.0000E+00  0.2569E-08  0.3694E-12  0.1710E-08  0.0000E+00  0.5993E+15
   -0.900066    3.77582  0.0000E+00  0.4359E-08  0.6167E-12  0.5648E-08  0.0000E+00  0.3027E+15
   -0.937570    3.91047  0.0000E+00  0.7179E-08  0.1002E-11  0.6618E-07  0.0000E+00  0.4170E+14
   -0.975073    4.00713  0.0000E+00  0.7978E-08  0.1119E-11  0.2279E-04  0.0000E+00 -0.2923E+12
   -1.012577    4.00801  0.0000E+00  0.8335E-08  0.1182E-11  0.2395E-04  0.0000E+00 -0.2937E+12
   -1.050080    4.00886  0.0000E+00  0.8624E-08  0.1244E-11  0.2438E-04  0.0000E+00 -0.3037E+12
   -1.087583    4.00970  0.0000E+00  0.8861E-08  0.1309E-11  0.2443E-04  0.0000E+00 -0.3188E+12
   -1.125086    4.01056  0.0000E+00  0.9055E-08  0.1380E-11  0.2417E-04  0.0000E+00 -0.3362E+12
   -1.162589    4.01143  0.0000E+00  0.9210E-08  0.1464E-11  0.2360E-04  0.0000E+00 -0.3588E+12
   -1.200091    4.01232  0.0000E+00  0.9320E-08  0.1567E-11  0.2198E-04  0.0000E+00 -0.4019E+12
   -1.237594    4.01329  0.0000E+00  0.9369E-08  0.1695E-11  0.1925E-04  0.0000E+00 -0.4805E+12
   -1.275096    4.01440  0.0000E+00  0.9340E-08  0.1861E-11  0.1652E-04  0.0000E+00 -0.5914E+12
   -1.312598    4.01572  0.0000E+00  0.9203E-08  0.2092E-11  0.1368E-04  0.0000E+00 -0.7617E+12
   -1.350099    4.01733  0.0000E+00  0.8905E-08  0.2441E-11  0.1044E-04  0.0000E+00 -0.1079E+13
   -1.387601    4.01947  0.0000E+00  0.8329E-08  0.3052E-11  0.6776E-05  0.0000E+00 -0.1840E+13
   -1.425102    4.02284  0.0000E+00  0.7170E-08  0.4450E-11  0.3035E-05  0.0000E+00 -0.4809E+13
   -1.462602    4.03046  0.0000E+00  0.4653E-08  0.9763E-11  0.4628E-06  0.0000E+00 -0.4317E+14
   -1.500102    4.07272  0.0000E+00  0.0000E+00  0.0000E+00  0.0000E+00  0.0000E+00  0.0000E+00
