 1 - depth, m
 2 - temperature, C
 3 - salinity, kg/kg
 4 - turbulent kinetic energy, m**2/s**2
 5 - dissipation rate, m**2/s**3
 6 - kinematic heat conductance, m**2/s
 7 - modulus of horizontal velocity, m/s
 8 - Richardson number, n/d
   -0.000000   12.52537  0.0000E+00  0.6650E-03  0.2328E-02  0.1065E-03  0.3605E+00 -0.7590E-02
   -0.037500   12.59460  0.0000E+00  0.3617E-03  0.1037E-02  0.1757E-03  0.1215E+00 -0.4786E-01
   -0.075000   12.62831  0.0000E+00  0.2360E-03  0.3503E-03  0.2535E-03  0.7286E-01 -0.5139E+00
   -0.112500   12.64018  0.0000E+00  0.1851E-03  0.2086E-03  0.2714E-03  0.5647E-01 -0.2246E-01
   -0.150000   12.64601  0.0000E+00  0.1550E-03  0.1336E-03  0.2803E-03  0.4738E-01 -0.6736E-02
   -0.187501   12.64971  0.0000E+00  0.1326E-03  0.8640E-04  0.2862E-03  0.4121E-01 -0.1090E-01
   -0.225003   12.65232  0.0000E+00  0.1156E-03  0.5452E-04  0.2991E-03  0.3655E-01 -0.3094E-02
   -0.262504   12.65451  0.0000E+00  0.1024E-03  0.3423E-04  0.3091E-03  0.3273E-01 -0.1325E-01
   -0.300006   12.65652  0.0000E+00  0.9193E-04  0.2131E-04  0.3249E-03  0.2962E-01  0.2280E-01
   -0.337508   12.65817  0.0000E+00  0.8343E-04  0.1325E-04  0.3386E-03  0.2703E-01  0.1109E+00
   -0.375010   12.65967  0.0000E+00  0.7645E-04  0.8313E-05  0.3521E-03  0.2477E-01  0.1681E+00
   -0.412512   12.66107  0.0000E+00  0.7059E-04  0.5333E-05  0.3653E-03  0.2276E-01  0.8746E+01
   -0.450015   12.66237  0.0000E+00  0.6558E-04  0.3534E-05  0.3793E-03  0.2095E-01  0.1096E+02
   -0.487517   12.66360  0.0000E+00  0.6124E-04  0.2433E-05  0.3912E-03  0.1931E-01  0.1980E+01
   -0.525020   12.66482  0.0000E+00  0.5724E-04  0.1738E-05  0.4081E-03  0.1769E-01  0.4470E+02
   -0.562523   12.66590  0.0000E+00  0.5375E-04  0.1296E-05  0.4257E-03  0.1637E-01  0.7968E+02
   -0.600026   12.66691  0.0000E+00  0.5060E-04  0.1002E-05  0.4409E-03  0.1517E-01  0.8547E+01
   -0.637529   12.66788  0.0000E+00  0.4775E-04  0.8005E-06  0.4553E-03  0.1407E-01  0.1445E+02
   -0.675032   12.66881  0.0000E+00  0.4516E-04  0.6575E-06  0.4711E-03  0.1307E-01  0.2017E+02
   -0.712535   12.66969  0.0000E+00  0.4279E-04  0.5526E-06  0.4871E-03  0.1215E-01  0.1675E+01
   -0.750038   12.67054  0.0000E+00  0.4061E-04  0.4732E-06  0.5084E-03  0.1129E-01  0.6432E+01
   -0.787542   12.67134  0.0000E+00  0.3858E-04  0.4112E-06  0.5429E-03  0.1050E-01  0.1958E+02
   -0.825045   12.67210  0.0000E+00  0.3669E-04  0.3615E-06  0.5849E-03  0.9757E-02  0.1941E+03
   -0.862548   12.67282  0.0000E+00  0.3491E-04  0.3209E-06  0.6195E-03  0.9059E-02  0.1476E+02
   -0.900051   12.67349  0.0000E+00  0.3323E-04  0.2872E-06  0.6493E-03  0.8400E-02  0.2802E+02
   -0.937554   12.67413  0.0000E+00  0.3162E-04  0.2587E-06  0.6708E-03  0.7775E-02  0.6976E+02
   -0.975057   12.67474  0.0000E+00  0.3007E-04  0.2343E-06  0.6922E-03  0.7176E-02  0.1878E+02
   -1.012560   12.67532  0.0000E+00  0.2857E-04  0.2134E-06  0.7146E-03  0.6602E-02  0.3382E+02
   -1.050062   12.67588  0.0000E+00  0.2709E-04  0.1953E-06  0.7369E-03  0.6060E-02  0.1151E+03
   -1.087565   12.67641  0.0000E+00  0.2563E-04  0.1797E-06  0.7472E-03  0.5549E-02  0.5342E+02
   -1.125067   12.67692  0.0000E+00  0.2417E-04  0.1663E-06  0.7377E-03  0.5063E-02  0.2150E+02
   -1.162569   12.67743  0.0000E+00  0.2271E-04  0.1553E-06  0.7097E-03  0.4600E-02  0.4072E+02
   -1.200071   12.67795  0.0000E+00  0.2125E-04  0.1468E-06  0.6641E-03  0.4158E-02  0.8582E+02
   -1.237573   12.67850  0.0000E+00  0.1977E-04  0.1413E-06  0.6070E-03  0.3733E-02  0.1838E+03
   -1.275074   12.67910  0.0000E+00  0.1822E-04  0.1399E-06  0.5355E-03  0.3325E-02  0.2260E+02
   -1.312576   12.67978  0.0000E+00  0.1656E-04  0.1451E-06  0.4558E-03  0.2946E-02  0.2677E+03
   -1.350076   12.68058  0.0000E+00  0.1472E-04  0.1630E-06  0.3533E-03  0.2592E-02  0.8113E+02
   -1.387577   12.68163  0.0000E+00  0.1254E-04  0.2086E-06  0.2478E-03  0.2251E-02  0.6810E+02
   -1.425077   12.68310  0.0000E+00  0.9775E-05  0.3336E-06  0.1404E-03  0.1902E-02  0.4081E+02
   -1.462577   12.68585  0.0000E+00  0.5580E-05  0.7127E-06  0.4263E-04  0.1538E-02 -0.4381E+05
   -1.500077   12.69894  0.0000E+00  0.0000E+00  0.0000E+00  0.0000E+00  0.1741E-02  0.0000E+00
