 1 - depth, m
 2 - temperature, C
 3 - salinity, kg/kg
 4 - turbulent kinetic energy, m**2/s**2
 5 - dissipation rate, m**2/s**3
 6 - kinematic heat conductance, m**2/s
 7 - modulus of horizontal velocity, m/s
 8 - Richardson number, n/d
   -0.000000    0.00000  0.0000E+00  0.4095E-13  0.8589E-16  0.1000E-09  0.0000E+00  0.7280E+16
   -0.037494    0.11086  0.0000E+00  0.4095E-13  0.8589E-16  0.1000E-09  0.0000E+00  0.7187E+16
   -0.074988    0.22372  0.0000E+00  0.4095E-13  0.8589E-16  0.1000E-09  0.0000E+00  0.7033E+16
   -0.112483    0.33777  0.0000E+00  0.4095E-13  0.8589E-16  0.1000E-09  0.0000E+00  0.6841E+16
   -0.149978    0.45246  0.0000E+00  0.4095E-13  0.8589E-16  0.1000E-09  0.0000E+00  0.6627E+16
   -0.187473    0.56745  0.0000E+00  0.4095E-13  0.8589E-16  0.1000E-09  0.0000E+00  0.6400E+16
   -0.224969    0.68253  0.0000E+00  0.4095E-13  0.8589E-16  0.1000E-09  0.0000E+00  0.6167E+16
   -0.262465    0.79757  0.0000E+00  0.4095E-13  0.8589E-16  0.1000E-09  0.0000E+00  0.5927E+16
   -0.299961    0.91242  0.0000E+00  0.4095E-13  0.8589E-16  0.1000E-09  0.0000E+00  0.5686E+16
   -0.337457    1.02699  0.0000E+00  0.4095E-13  0.8589E-16  0.1000E-09  0.0000E+00  0.5445E+16
   -0.374954    1.14126  0.0000E+00  0.4095E-13  0.8589E-16  0.1000E-09  0.0000E+00  0.5207E+16
   -0.412451    1.25522  0.0000E+00  0.4095E-13  0.8589E-16  0.1000E-09  0.0000E+00  0.4972E+16
   -0.449948    1.36889  0.0000E+00  0.4095E-13  0.8589E-16  0.1000E-09  0.0000E+00  0.4738E+16
   -0.487445    1.48223  0.0000E+00  0.4095E-13  0.8589E-16  0.1000E-09  0.0000E+00  0.4505E+16
   -0.524942    1.59517  0.0000E+00  0.4095E-13  0.8589E-16  0.1000E-09  0.0000E+00  0.4268E+16
   -0.562439    1.70754  0.0000E+00  0.4095E-13  0.8589E-16  0.1000E-09  0.0000E+00  0.4033E+16
   -0.599936    1.81929  0.0000E+00  0.4095E-13  0.8589E-16  0.1000E-09  0.0000E+00  0.3800E+16
   -0.637434    1.93034  0.0000E+00  0.4095E-13  0.8589E-16  0.1000E-09  0.0000E+00  0.3569E+16
   -0.674931    2.04061  0.0000E+00  0.4095E-13  0.8589E-16  0.1000E-09  0.0000E+00  0.3340E+16
   -0.712429    2.15000  0.0000E+00  0.4095E-13  0.8589E-16  0.1000E-09  0.0000E+00  0.3114E+16
   -0.749927    2.25841  0.0000E+00  0.4095E-13  0.8589E-16  0.1000E-09  0.0000E+00  0.2898E+16
   -0.787424    2.36599  0.0000E+00  0.4095E-13  0.8589E-16  0.1000E-09  0.0000E+00  0.2687E+16
   -0.824922    2.47275  0.0000E+00  0.4095E-13  0.8589E-16  0.1000E-09  0.0000E+00  0.2479E+16
   -0.862419    2.57859  0.0000E+00  0.4095E-13  0.8589E-16  0.1000E-09  0.0000E+00  0.2274E+16
   -0.899917    2.68341  0.0000E+00  0.4095E-13  0.8589E-16  0.1000E-09  0.0000E+00  0.2074E+16
   -0.937414    2.78713  0.0000E+00  0.4095E-13  0.8589E-16  0.1000E-09  0.0000E+00  0.1878E+16
   -0.974911    2.88966  0.0000E+00  0.4095E-13  0.8589E-16  0.1000E-09  0.0000E+00  0.1687E+16
   -1.012409    2.99090  0.0000E+00  0.4095E-13  0.8589E-16  0.1000E-09  0.0000E+00  0.1495E+16
   -1.049906    3.09033  0.0000E+00  0.4095E-13  0.8589E-16  0.1000E-09  0.0000E+00  0.1309E+16
   -1.087402    3.18765  0.0000E+00  0.4095E-13  0.8589E-16  0.1000E-09  0.0000E+00  0.1130E+16
   -1.124899    3.28257  0.0000E+00  0.4095E-13  0.8589E-16  0.1000E-09  0.0000E+00  0.9793E+15
   -1.162396    3.37679  0.0000E+00  0.9385E-13  0.1088E-15  0.1000E-09  0.0000E+00  0.8337E+15
   -1.199892    3.47053  0.0000E+00  0.3577E-12  0.3649E-15  0.1000E-09  0.0000E+00  0.6905E+15
   -1.237388    3.56378  0.0000E+00  0.1335E-11  0.1316E-14  0.1000E-09  0.0000E+00  0.5497E+15
   -1.274884    3.65651  0.0000E+00  0.4956E-11  0.4770E-14  0.1000E-09  0.0000E+00  0.4107E+15
   -1.312380    3.74847  0.0000E+00  0.1826E-10  0.1723E-13  0.1618E-09  0.0000E+00  0.2753E+15
   -1.349875    3.83954  0.0000E+00  0.6673E-10  0.6217E-13  0.1058E-08  0.0000E+00  0.1434E+15
   -1.387370    3.92913  0.0000E+00  0.2402E-09  0.2251E-12  0.1531E-07  0.0000E+00  0.2158E+14
   -1.424865    4.00951  0.0000E+00  0.7770E-09  0.8278E-12  0.2731E-06  0.0000E+00 -0.1766E+14
   -1.462359    4.03923  0.0000E+00  0.9159E-09  0.1696E-11  0.1478E-06  0.0000E+00 -0.4709E+14
   -1.499853    4.08022  0.0000E+00  0.0000E+00  0.0000E+00  0.0000E+00  0.0000E+00  0.0000E+00
