 1 - depth, m
 2 - temperature, C
 3 - salinity, kg/kg
 4 - turbulent kinetic energy, m**2/s**2
 5 - dissipation rate, m**2/s**3
 6 - kinematic heat conductance, m**2/s
 7 - modulus of horizontal velocity, m/s
 8 - Richardson number, n/d
   -0.000000   16.91897  0.0000E+00  0.5808E-04  0.3063E-04  0.3004E-04  0.5778E-01  0.1486E-01
   -0.037499   16.95410  0.0000E+00  0.3693E-04  0.9295E-05  0.6145E-04  0.2551E-01 -0.4584E-01
   -0.074999   16.96408  0.0000E+00  0.2826E-04  0.3423E-05  0.7853E-04  0.1881E-01 -0.5195E-01
   -0.112499   16.97049  0.0000E+00  0.2369E-04  0.1780E-05  0.9685E-04  0.1540E-01 -0.6884E-01
   -0.149999   16.97520  0.0000E+00  0.2059E-04  0.1017E-05  0.1171E-03  0.1301E-01 -0.9090E-01
   -0.187500   16.97892  0.0000E+00  0.1828E-04  0.6083E-06  0.1502E-03  0.1118E-01  0.2730E+00
   -0.225001   16.98185  0.0000E+00  0.1655E-04  0.3860E-06  0.2157E-03  0.9728E-02  0.4498E+03
   -0.262502   16.98412  0.0000E+00  0.1524E-04  0.2615E-06  0.3056E-03  0.8560E-02  0.8878E+03
   -0.300004   16.98588  0.0000E+00  0.1424E-04  0.1888E-06  0.3485E-03  0.7615E-02  0.1377E+02
   -0.337505   16.98738  0.0000E+00  0.1347E-04  0.1440E-06  0.3941E-03  0.6808E-02  0.1210E+03
   -0.375007   16.98865  0.0000E+00  0.1286E-04  0.1146E-06  0.4338E-03  0.6116E-02  0.3559E+02
   -0.412509   16.98976  0.0000E+00  0.1236E-04  0.9418E-07  0.4756E-03  0.5507E-02  0.9173E+02
   -0.450012   16.99071  0.0000E+00  0.1196E-04  0.7938E-07  0.5091E-03  0.4963E-02  0.9234E+02
   -0.487514   16.99155  0.0000E+00  0.1163E-04  0.6815E-07  0.5354E-03  0.4467E-02  0.6323E+02
   -0.525017   16.99232  0.0000E+00  0.1133E-04  0.5938E-07  0.5591E-03  0.4010E-02  0.1555E+02
   -0.562519   16.99304  0.0000E+00  0.1107E-04  0.5232E-07  0.5825E-03  0.3593E-02  0.7334E+01
   -0.600022   16.99373  0.0000E+00  0.1083E-04  0.4654E-07  0.6045E-03  0.3212E-02  0.4767E+01
   -0.637525   16.99440  0.0000E+00  0.1060E-04  0.4176E-07  0.6257E-03  0.2864E-02  0.4641E+01
   -0.675028   16.99505  0.0000E+00  0.1039E-04  0.3778E-07  0.6459E-03  0.2544E-02  0.3432E+01
   -0.712530   16.99569  0.0000E+00  0.1018E-04  0.3447E-07  0.6642E-03  0.2252E-02  0.3207E+01
   -0.750033   16.99633  0.0000E+00  0.9970E-05  0.3172E-07  0.6807E-03  0.1985E-02  0.2787E+01
   -0.787536   16.99696  0.0000E+00  0.9756E-05  0.2946E-07  0.6952E-03  0.1743E-02  0.2558E+01
   -0.825039   16.99758  0.0000E+00  0.9535E-05  0.2762E-07  0.7084E-03  0.1523E-02  0.2376E+01
   -0.862542   16.99821  0.0000E+00  0.9305E-05  0.2615E-07  0.7211E-03  0.1324E-02  0.2226E+01
   -0.900045   16.99884  0.0000E+00  0.9063E-05  0.2501E-07  0.7331E-03  0.1145E-02  0.2101E+01
   -0.937548   16.99947  0.0000E+00  0.8809E-05  0.2416E-07  0.7497E-03  0.9814E-03  0.2035E+01
   -0.975050   17.00010  0.0000E+00  0.8535E-05  0.2355E-07  0.7360E-03  0.8362E-03  0.1889E+01
   -1.012553   17.00077  0.0000E+00  0.8368E-05  0.2330E-07  0.9866E-03  0.6935E-03  0.1281E+01
   -1.050055   17.00126  0.0000E+00  0.8251E-05  0.2331E-07  0.8503E-03  0.6456E-03  0.2520E+01
   -1.087557   17.00184  0.0000E+00  0.8088E-05  0.2349E-07  0.7723E-03  0.6051E-03  0.1348E+01
   -1.125059   17.00250  0.0000E+00  0.7811E-05  0.2395E-07  0.7102E-03  0.5149E-03  0.1262E+01
   -1.162561   17.00323  0.0000E+00  0.7558E-05  0.2461E-07  0.6616E-03  0.4465E-03  0.1128E+01
   -1.200063   17.00402  0.0000E+00  0.7312E-05  0.2552E-07  0.6125E-03  0.3892E-03  0.1122E+01
   -1.237564   17.00490  0.0000E+00  0.7067E-05  0.2680E-07  0.5588E-03  0.3413E-03  0.1427E+01
   -1.275066   17.00589  0.0000E+00  0.6805E-05  0.2871E-07  0.4929E-03  0.3001E-03  0.2016E+01
   -1.312567   17.00703  0.0000E+00  0.6497E-05  0.3176E-07  0.4310E-03  0.2645E-03  0.3562E+01
   -1.350067   17.00839  0.0000E+00  0.6101E-05  0.3707E-07  0.3243E-03  0.2319E-03  0.2634E+02
   -1.387568   17.01034  0.0000E+00  0.5579E-05  0.4664E-07  0.2945E-03  0.1974E-03  0.5551E+03
   -1.425068   17.01237  0.0000E+00  0.4698E-05  0.7586E-07  0.1274E-03  0.1713E-03  0.1215E+04
   -1.462567   17.02238  0.0000E+00  0.2853E-05  0.1841E-06  0.4373E-04  0.1292E-03 -0.7818E+04
   -1.500067   17.03845  0.0000E+00  0.0000E+00  0.0000E+00  0.0000E+00  0.1448E-03  0.0000E+00
