 1 - depth, m
 2 - temperature, C
 3 - salinity, kg/kg
 4 - turbulent kinetic energy, m**2/s**2
 5 - dissipation rate, m**2/s**3
 6 - kinematic heat conductance, m**2/s
 7 - modulus of horizontal velocity, m/s
 8 - Richardson number, n/d
   -0.000000    0.00000  0.0000E+00  0.4096E-13  0.8590E-16  0.1000E-09  0.0000E+00  0.1014E+17
   -0.037499    0.15539  0.0000E+00  0.4096E-13  0.8590E-16  0.1000E-09  0.0000E+00  0.9597E+16
   -0.074999    0.30886  0.0000E+00  0.4096E-13  0.8590E-16  0.1000E-09  0.0000E+00  0.9060E+16
   -0.112499    0.46026  0.0000E+00  0.4096E-13  0.8590E-16  0.1000E-09  0.0000E+00  0.8532E+16
   -0.150000    0.60943  0.0000E+00  0.4096E-13  0.8590E-16  0.1000E-09  0.0000E+00  0.8014E+16
   -0.187500    0.75620  0.0000E+00  0.4096E-13  0.8590E-16  0.1000E-09  0.0000E+00  0.7508E+16
   -0.225001    0.90039  0.0000E+00  0.4096E-13  0.8590E-16  0.1000E-09  0.0000E+00  0.7016E+16
   -0.262502    1.04184  0.0000E+00  0.4096E-13  0.8590E-16  0.1000E-09  0.0000E+00  0.6523E+16
   -0.300004    1.18007  0.0000E+00  0.4096E-13  0.8590E-16  0.1000E-09  0.0000E+00  0.6044E+16
   -0.337506    1.31485  0.0000E+00  0.4096E-13  0.8590E-16  0.1000E-09  0.0000E+00  0.5585E+16
   -0.375007    1.44603  0.0000E+00  0.4096E-13  0.8590E-16  0.1000E-09  0.0000E+00  0.5191E+16
   -0.412510    1.57463  0.0000E+00  0.4096E-13  0.8590E-16  0.1000E-09  0.0000E+00  0.4839E+16
   -0.450012    1.70131  0.0000E+00  0.4096E-13  0.8590E-16  0.1000E-09  0.0000E+00  0.4499E+16
   -0.487514    1.82600  0.0000E+00  0.4096E-13  0.8590E-16  0.1000E-09  0.0000E+00  0.4170E+16
   -0.525017    1.94862  0.0000E+00  0.4096E-13  0.8590E-16  0.1000E-09  0.0000E+00  0.3846E+16
   -0.562519    2.06891  0.0000E+00  0.4096E-13  0.8590E-16  0.1000E-09  0.0000E+00  0.3536E+16
   -0.600022    2.18681  0.0000E+00  0.4096E-13  0.8590E-16  0.1000E-09  0.0000E+00  0.3240E+16
   -0.637525    2.30228  0.0000E+00  0.4096E-13  0.8590E-16  0.1000E-09  0.0000E+00  0.2957E+16
   -0.675028    2.41528  0.0000E+00  0.4096E-13  0.8590E-16  0.1000E-09  0.0000E+00  0.2688E+16
   -0.712531    2.52575  0.0000E+00  0.5924E-13  0.8590E-16  0.1000E-09  0.0000E+00  0.2432E+16
   -0.750034    2.63368  0.0000E+00  0.2371E-12  0.1057E-15  0.1000E-09  0.0000E+00  0.2225E+16
   -0.787537    2.74076  0.0000E+00  0.6208E-12  0.2132E-15  0.1000E-09  0.0000E+00  0.2034E+16
   -0.825039    2.84765  0.0000E+00  0.1420E-11  0.4541E-15  0.1000E-09  0.0000E+00  0.1848E+16
   -0.862542    2.95451  0.0000E+00  0.3106E-11  0.9605E-15  0.1000E-09  0.0000E+00  0.1665E+16
   -0.900045    3.06148  0.0000E+00  0.6668E-11  0.2011E-14  0.1000E-09  0.0000E+00  0.1484E+16
   -0.937548    3.16875  0.0000E+00  0.1416E-10  0.4173E-14  0.1000E-09  0.0000E+00  0.1305E+16
   -0.975051    3.27654  0.0000E+00  0.2983E-10  0.8593E-14  0.1000E-09  0.0000E+00  0.1127E+16
   -1.012553    3.38515  0.0000E+00  0.6250E-10  0.1761E-13  0.1000E-09  0.0000E+00  0.9467E+15
   -1.050056    3.49482  0.0000E+00  0.1304E-09  0.3594E-13  0.1312E-09  0.0000E+00  0.7643E+15
   -1.087558    3.60600  0.0000E+00  0.2707E-09  0.7298E-13  0.3502E-09  0.0000E+00  0.5764E+15
   -1.125060    3.71911  0.0000E+00  0.5582E-09  0.1473E-12  0.1065E-08  0.0000E+00  0.3811E+15
   -1.162562    3.83515  0.0000E+00  0.1142E-08  0.2952E-12  0.4779E-08  0.0000E+00  0.1694E+15
   -1.200063    3.95197  0.0000E+00  0.2179E-08  0.5570E-12  0.3082E-06  0.0000E+00  0.8303E+13
   -1.237565    4.00361  0.0000E+00  0.3195E-08  0.8389E-12  0.4703E-05  0.0000E+00 -0.1075E+13
   -1.275066    4.00734  0.0000E+00  0.3740E-08  0.1048E-11  0.5062E-05  0.0000E+00 -0.1221E+13
   -1.312567    4.01084  0.0000E+00  0.4134E-08  0.1290E-11  0.4892E-05  0.0000E+00 -0.1501E+13
   -1.350068    4.01453  0.0000E+00  0.4367E-08  0.1609E-11  0.4217E-05  0.0000E+00 -0.2060E+13
   -1.387568    4.01890  0.0000E+00  0.4382E-08  0.2107E-11  0.3064E-05  0.0000E+00 -0.3415E+13
   -1.425068    4.02505  0.0000E+00  0.4026E-08  0.3120E-11  0.1582E-05  0.0000E+00 -0.8381E+13
   -1.462568    4.03705  0.0000E+00  0.3006E-08  0.6316E-11  0.3495E-06  0.0000E+00 -0.5170E+14
   -1.500067    4.08214  0.0000E+00  0.0000E+00  0.0000E+00  0.0000E+00  0.0000E+00  0.0000E+00
