 1 - depth, m
 2 - temperature, C
 3 - salinity, kg/kg
 4 - turbulent kinetic energy, m**2/s**2
 5 - dissipation rate, m**2/s**3
 6 - kinematic heat conductance, m**2/s
 7 - modulus of horizontal velocity, m/s
 8 - Richardson number, n/d
   -0.000000    0.00000  0.0000E+00  0.4096E-13  0.8590E-16  0.1000E-09  0.0000E+00  0.9757E+16
   -0.037493    0.14935  0.0000E+00  0.4096E-13  0.8590E-16  0.1000E-09  0.0000E+00  0.9337E+16
   -0.074986    0.29832  0.0000E+00  0.4096E-13  0.8590E-16  0.1000E-09  0.0000E+00  0.8916E+16
   -0.112479    0.44680  0.0000E+00  0.4096E-13  0.8590E-16  0.1000E-09  0.0000E+00  0.8494E+16
   -0.149973    0.59467  0.0000E+00  0.4096E-13  0.8590E-16  0.1000E-09  0.0000E+00  0.8072E+16
   -0.187467    0.74180  0.0000E+00  0.4096E-13  0.8590E-16  0.1000E-09  0.0000E+00  0.7652E+16
   -0.224961    0.88809  0.0000E+00  0.4096E-13  0.8590E-16  0.1000E-09  0.0000E+00  0.7235E+16
   -0.262456    1.03342  0.0000E+00  0.4096E-13  0.8590E-16  0.1000E-09  0.0000E+00  0.6818E+16
   -0.299951    1.17761  0.0000E+00  0.4096E-13  0.8590E-16  0.1000E-09  0.0000E+00  0.6406E+16
   -0.337446    1.32054  0.0000E+00  0.4096E-13  0.8590E-16  0.1000E-09  0.0000E+00  0.6000E+16
   -0.374941    1.46208  0.0000E+00  0.4096E-13  0.8590E-16  0.1000E-09  0.0000E+00  0.5611E+16
   -0.412436    1.60237  0.0000E+00  0.4096E-13  0.8590E-16  0.1000E-09  0.0000E+00  0.5234E+16
   -0.449932    1.74145  0.0000E+00  0.4096E-13  0.8590E-16  0.1000E-09  0.0000E+00  0.4863E+16
   -0.487428    1.87921  0.0000E+00  0.4096E-13  0.8590E-16  0.1000E-09  0.0000E+00  0.4499E+16
   -0.524924    2.01555  0.0000E+00  0.4096E-13  0.8590E-16  0.1000E-09  0.0000E+00  0.4141E+16
   -0.562420    2.15027  0.0000E+00  0.6259E-13  0.8590E-16  0.1000E-09  0.0000E+00  0.3792E+16
   -0.599916    2.28326  0.0000E+00  0.2480E-12  0.9113E-16  0.1000E-09  0.0000E+00  0.3453E+16
   -0.637412    2.41439  0.0000E+00  0.6110E-12  0.1576E-15  0.1000E-09  0.0000E+00  0.3124E+16
   -0.674908    2.54354  0.0000E+00  0.1283E-11  0.2978E-15  0.1000E-09  0.0000E+00  0.2806E+16
   -0.712404    2.67056  0.0000E+00  0.2538E-11  0.5644E-15  0.1000E-09  0.0000E+00  0.2499E+16
   -0.749901    2.79533  0.0000E+00  0.4899E-11  0.1061E-14  0.1000E-09  0.0000E+00  0.2214E+16
   -0.787397    2.91822  0.0000E+00  0.9343E-11  0.1978E-14  0.1000E-09  0.0000E+00  0.1942E+16
   -0.824893    3.03928  0.0000E+00  0.1768E-10  0.3665E-14  0.1000E-09  0.0000E+00  0.1680E+16
   -0.862389    3.15842  0.0000E+00  0.3323E-10  0.6752E-14  0.1000E-09  0.0000E+00  0.1429E+16
   -0.899885    3.27552  0.0000E+00  0.6211E-10  0.1237E-13  0.1000E-09  0.0000E+00  0.1189E+16
   -0.937382    3.39048  0.0000E+00  0.1155E-09  0.2254E-13  0.1000E-09  0.0000E+00  0.9607E+15
   -0.974878    3.50320  0.0000E+00  0.2135E-09  0.4087E-13  0.1522E-09  0.0000E+00  0.7447E+15
   -1.012373    3.61354  0.0000E+00  0.3934E-09  0.7386E-13  0.3797E-09  0.0000E+00  0.5395E+15
   -1.049869    3.72093  0.0000E+00  0.7234E-09  0.1332E-12  0.1060E-08  0.0000E+00  0.3485E+15
   -1.087365    3.82480  0.0000E+00  0.1323E-08  0.2392E-12  0.3811E-08  0.0000E+00  0.1738E+15
   -1.124860    3.92358  0.0000E+00  0.2371E-08  0.4218E-12  0.3988E-07  0.0000E+00  0.2899E+14
   -1.162355    4.00194  0.0000E+00  0.3153E-08  0.5644E-12  0.7059E-05  0.0000E+00 -0.5115E+12
   -1.199850    4.00391  0.0000E+00  0.3524E-08  0.6513E-12  0.7476E-05  0.0000E+00 -0.5421E+12
   -1.237345    4.00578  0.0000E+00  0.3804E-08  0.7424E-12  0.7482E-05  0.0000E+00 -0.5989E+12
   -1.274840    4.00765  0.0000E+00  0.4001E-08  0.8470E-12  0.7086E-05  0.0000E+00 -0.6972E+12
   -1.312334    4.00964  0.0000E+00  0.4108E-08  0.9788E-12  0.6265E-05  0.0000E+00 -0.8706E+12
   -1.349828    4.01192  0.0000E+00  0.4097E-08  0.1164E-11  0.5016E-05  0.0000E+00 -0.1211E+13
   -1.387322    4.01478  0.0000E+00  0.3908E-08  0.1471E-11  0.3377E-05  0.0000E+00 -0.2047E+13
   -1.424815    4.01905  0.0000E+00  0.3392E-08  0.2126E-11  0.1566E-05  0.0000E+00 -0.5273E+13
   -1.462308    4.02809  0.0000E+00  0.2309E-08  0.4268E-11  0.2789E-06  0.0000E+00 -0.3645E+14
   -1.499801    4.06633  0.0000E+00  0.0000E+00  0.0000E+00  0.0000E+00  0.0000E+00  0.0000E+00
