 1 - depth, m
 2 - temperature, C
 3 - salinity, kg/kg
 4 - turbulent kinetic energy, m**2/s**2
 5 - dissipation rate, m**2/s**3
 6 - kinematic heat conductance, m**2/s
 7 - modulus of horizontal velocity, m/s
 8 - Richardson number, n/d
   -0.000000    2.25384  0.0000E+00  0.1026E-02  0.5247E-02  0.1133E-03  0.4653E+00  0.1438E-01
   -0.037494    2.40590  0.0000E+00  0.5033E-03  0.2044E-02  0.2098E-03  0.1571E+00 -0.6877E-01
   -0.074989    2.47602  0.0000E+00  0.3278E-03  0.6815E-03  0.3530E-03  0.8990E-01 -0.1560E+00
   -0.112484    2.50568  0.0000E+00  0.2614E-03  0.4361E-03  0.3462E-03  0.6805E-01  0.1019E+00
   -0.149979    2.51844  0.0000E+00  0.2173E-03  0.2940E-03  0.3488E-03  0.5597E-01  0.9269E-02
   -0.187475    2.52510  0.0000E+00  0.1844E-03  0.2016E-03  0.3515E-03  0.4859E-01  0.5547E-02
   -0.224970    2.53002  0.0000E+00  0.1599E-03  0.1389E-03  0.3477E-03  0.4338E-01  0.1076E-01
   -0.262466    2.53389  0.0000E+00  0.1404E-03  0.9629E-04  0.3522E-03  0.3922E-01  0.7744E-02
   -0.299963    2.53727  0.0000E+00  0.1249E-03  0.6699E-04  0.3521E-03  0.3568E-01  0.1290E+00
   -0.337459    2.54057  0.0000E+00  0.1114E-03  0.4484E-04  0.3570E-03  0.3272E-01  0.4065E-02
   -0.374956    2.54391  0.0000E+00  0.1004E-03  0.2958E-04  0.3653E-03  0.2992E-01 -0.2289E+00
   -0.412453    2.54648  0.0000E+00  0.9132E-04  0.1951E-04  0.3709E-03  0.2752E-01 -0.3586E+00
   -0.449950    2.54911  0.0000E+00  0.8377E-04  0.1323E-04  0.3746E-03  0.2538E-01  0.9180E-02
   -0.487448    2.55175  0.0000E+00  0.7735E-04  0.8949E-05  0.3692E-03  0.2335E-01  0.8266E-02
   -0.524945    2.55616  0.0000E+00  0.7101E-04  0.6034E-05  0.3863E-03  0.2075E-01 -0.4664E-02
   -0.562442    2.55867  0.0000E+00  0.6588E-04  0.4169E-05  0.3917E-03  0.1914E-01 -0.1818E+00
   -0.599940    2.56103  0.0000E+00  0.6136E-04  0.2971E-05  0.3950E-03  0.1771E-01 -0.1541E-01
   -0.637438    2.56318  0.0000E+00  0.5735E-04  0.2122E-05  0.3977E-03  0.1640E-01 -0.3116E+00
   -0.674935    2.56602  0.0000E+00  0.5357E-04  0.1483E-05  0.4022E-03  0.1494E-01 -0.2357E+00
   -0.712433    2.56828  0.0000E+00  0.5020E-04  0.1070E-05  0.4038E-03  0.1381E-01  0.1025E+00
   -0.749931    2.57055  0.0000E+00  0.4716E-04  0.8366E-06  0.4079E-03  0.1275E-01  0.1722E+00
   -0.787429    2.57291  0.0000E+00  0.4434E-04  0.6668E-06  0.4060E-03  0.1178E-01  0.2957E+00
   -0.824927    2.57542  0.0000E+00  0.4176E-04  0.5544E-06  0.4047E-03  0.1088E-01  0.4719E+00
   -0.862424    2.57756  0.0000E+00  0.3937E-04  0.4712E-06  0.4028E-03  0.1005E-01  0.9106E+00
   -0.899922    2.57963  0.0000E+00  0.3714E-04  0.4070E-06  0.3995E-03  0.9275E-02  0.3632E+01
   -0.937420    2.58172  0.0000E+00  0.3503E-04  0.3561E-06  0.3946E-03  0.8548E-02  0.3308E+02
   -0.974917    2.58383  0.0000E+00  0.3304E-04  0.3153E-06  0.3876E-03  0.7861E-02  0.4603E+03
   -1.012415    2.58612  0.0000E+00  0.3112E-04  0.2814E-06  0.3818E-03  0.7208E-02  0.5104E+04
   -1.049912    2.58827  0.0000E+00  0.2928E-04  0.2527E-06  0.3738E-03  0.6603E-02  0.5502E+05
   -1.087409    2.59034  0.0000E+00  0.2750E-04  0.2281E-06  0.3640E-03  0.6041E-02  0.3020E+06
   -1.124906    2.59230  0.0000E+00  0.2579E-04  0.2073E-06  0.3515E-03  0.5518E-02  0.7022E+07
   -1.162403    2.59435  0.0000E+00  0.2412E-04  0.1898E-06  0.3353E-03  0.5027E-02  0.1270E+09
   -1.199899    2.59656  0.0000E+00  0.2249E-04  0.1752E-06  0.3154E-03  0.4560E-02  0.2723E+10
   -1.237396    2.59908  0.0000E+00  0.2087E-04  0.1635E-06  0.2924E-03  0.4109E-02  0.8796E+11
   -1.274892    2.60229  0.0000E+00  0.1924E-04  0.1553E-06  0.2674E-03  0.3676E-02  0.1699E+13
   -1.312388    2.60544  0.0000E+00  0.1753E-04  0.1514E-06  0.2355E-03  0.3276E-02  0.4514E+13
   -1.349883    2.60901  0.0000E+00  0.1570E-04  0.1548E-06  0.1956E-03  0.2903E-02  0.8789E+13
   -1.387378    2.61341  0.0000E+00  0.1358E-04  0.1734E-06  0.1470E-03  0.2549E-02  0.3363E+12
   -1.424873    2.61962  0.0000E+00  0.1090E-04  0.2345E-06  0.8937E-04  0.2209E-02  0.2510E+10
   -1.462368    2.63220  0.0000E+00  0.5825E-05  0.5528E-06  0.1584E-04  0.1879E-02  0.1618E+08
   -1.499862    2.70480  0.0000E+00  0.0000E+00  0.0000E+00  0.0000E+00  0.1946E-02  0.0000E+00
