 1 - depth, m
 2 - temperature, C
 3 - salinity, kg/kg
 4 - turbulent kinetic energy, m**2/s**2
 5 - dissipation rate, m**2/s**3
 6 - kinematic heat conductance, m**2/s
 7 - modulus of horizontal velocity, m/s
 8 - Richardson number, n/d
   -0.000000    0.00000  0.0000E+00  0.4096E-13  0.8590E-16  0.1000E-09  0.0000E+00  0.7564E+16
   -0.037498    0.11525  0.0000E+00  0.4096E-13  0.8590E-16  0.1000E-09  0.0000E+00  0.7304E+16
   -0.074997    0.23012  0.0000E+00  0.4096E-13  0.8590E-16  0.1000E-09  0.0000E+00  0.7050E+16
   -0.112496    0.34465  0.0000E+00  0.4096E-13  0.8590E-16  0.1000E-09  0.0000E+00  0.6799E+16
   -0.149996    0.45886  0.0000E+00  0.4096E-13  0.8590E-16  0.1000E-09  0.0000E+00  0.6552E+16
   -0.187496    0.57274  0.0000E+00  0.4096E-13  0.8590E-16  0.1000E-09  0.0000E+00  0.6306E+16
   -0.224996    0.68630  0.0000E+00  0.4096E-13  0.8590E-16  0.1000E-09  0.0000E+00  0.6063E+16
   -0.262496    0.79949  0.0000E+00  0.4096E-13  0.8590E-16  0.1000E-09  0.0000E+00  0.5817E+16
   -0.299996    0.91225  0.0000E+00  0.4096E-13  0.8590E-16  0.1000E-09  0.0000E+00  0.5573E+16
   -0.337497    1.02449  0.0000E+00  0.4096E-13  0.8590E-16  0.1000E-09  0.0000E+00  0.5329E+16
   -0.374998    1.13617  0.0000E+00  0.4096E-13  0.8590E-16  0.1000E-09  0.0000E+00  0.5093E+16
   -0.412499    1.24738  0.0000E+00  0.4096E-13  0.8590E-16  0.1000E-09  0.0000E+00  0.4863E+16
   -0.450001    1.35815  0.0000E+00  0.4096E-13  0.8590E-16  0.1000E-09  0.0000E+00  0.4633E+16
   -0.487502    1.46841  0.0000E+00  0.4096E-13  0.8590E-16  0.1000E-09  0.0000E+00  0.4403E+16
   -0.525004    1.57808  0.0000E+00  0.4096E-13  0.8590E-16  0.1000E-09  0.0000E+00  0.4173E+16
   -0.562505    1.68706  0.0000E+00  0.4096E-13  0.8590E-16  0.1000E-09  0.0000E+00  0.3945E+16
   -0.600007    1.79524  0.0000E+00  0.4096E-13  0.8590E-16  0.1000E-09  0.0000E+00  0.3719E+16
   -0.637509    1.90257  0.0000E+00  0.4096E-13  0.8590E-16  0.1000E-09  0.0000E+00  0.3496E+16
   -0.675011    2.00896  0.0000E+00  0.4096E-13  0.8590E-16  0.1000E-09  0.0000E+00  0.3276E+16
   -0.712513    2.11432  0.0000E+00  0.4096E-13  0.8590E-16  0.1000E-09  0.0000E+00  0.3060E+16
   -0.750015    2.21858  0.0000E+00  0.4096E-13  0.8590E-16  0.1000E-09  0.0000E+00  0.2857E+16
   -0.787517    2.32199  0.0000E+00  0.4096E-13  0.8590E-16  0.1000E-09  0.0000E+00  0.2661E+16
   -0.825019    2.42462  0.0000E+00  0.4096E-13  0.8590E-16  0.1000E-09  0.0000E+00  0.2467E+16
   -0.862521    2.52638  0.0000E+00  0.4096E-13  0.8590E-16  0.1000E-09  0.0000E+00  0.2277E+16
   -0.900023    2.62722  0.0000E+00  0.4096E-13  0.8590E-16  0.1000E-09  0.0000E+00  0.2091E+16
   -0.937525    2.72706  0.0000E+00  0.4096E-13  0.8590E-16  0.1000E-09  0.0000E+00  0.1908E+16
   -0.975026    2.82582  0.0000E+00  0.4096E-13  0.8590E-16  0.1000E-09  0.0000E+00  0.1730E+16
   -1.012528    2.92343  0.0000E+00  0.4096E-13  0.8590E-16  0.1000E-09  0.0000E+00  0.1554E+16
   -1.050030    3.01964  0.0000E+00  0.4096E-13  0.8590E-16  0.1000E-09  0.0000E+00  0.1383E+16
   -1.087531    3.11429  0.0000E+00  0.4096E-13  0.8590E-16  0.1000E-09  0.0000E+00  0.1218E+16
   -1.125032    3.20724  0.0000E+00  0.4096E-13  0.8590E-16  0.1000E-09  0.0000E+00  0.1073E+16
   -1.162533    3.29963  0.0000E+00  0.4096E-13  0.8590E-16  0.1000E-09  0.0000E+00  0.9326E+15
   -1.200034    3.39161  0.0000E+00  0.4096E-13  0.8590E-16  0.1000E-09  0.0000E+00  0.7942E+15
   -1.237534    3.48318  0.0000E+00  0.8495E-13  0.1224E-15  0.1000E-09  0.0000E+00  0.6581E+15
   -1.275035    3.57434  0.0000E+00  0.3680E-12  0.4936E-15  0.1000E-09  0.0000E+00  0.5249E+15
   -1.312535    3.66522  0.0000E+00  0.1631E-11  0.2152E-14  0.1000E-09  0.0000E+00  0.3933E+15
   -1.350034    3.75586  0.0000E+00  0.7185E-11  0.9428E-14  0.1000E-09  0.0000E+00  0.2632E+15
   -1.387534    3.84630  0.0000E+00  0.3151E-10  0.4172E-13  0.6567E-09  0.0000E+00  0.1341E+15
   -1.425033    3.93625  0.0000E+00  0.1366E-09  0.1897E-12  0.9536E-08  0.0000E+00  0.1028E+14
   -1.462532    4.02088  0.0000E+00  0.5153E-09  0.9451E-12  0.9954E-07  0.0000E+00 -0.5093E+14
   -1.500030    4.07408  0.0000E+00  0.0000E+00  0.0000E+00  0.0000E+00  0.0000E+00  0.0000E+00
