 1 - depth, m
 2 - temperature, C
 3 - salinity, kg/kg
 4 - turbulent kinetic energy, m**2/s**2
 5 - dissipation rate, m**2/s**3
 6 - kinematic heat conductance, m**2/s
 7 - modulus of horizontal velocity, m/s
 8 - Richardson number, n/d
   -0.000000    7.83011  0.0000E+00  0.1374E-04  0.9145E-06  0.2043E-04  0.2222E-01 -0.1151E-01
   -0.037497    7.86114  0.0000E+00  0.1166E-04  0.3540E-06  0.3975E-04  0.1415E-01 -0.2903E-01
   -0.074995    7.87589  0.0000E+00  0.1029E-04  0.1983E-06  0.5692E-04  0.1075E-01 -0.4990E-01
   -0.112493    7.88601  0.0000E+00  0.9250E-05  0.1290E-06  0.7351E-04  0.8609E-02 -0.7581E-01
   -0.149992    7.89369  0.0000E+00  0.8417E-05  0.9107E-07  0.9037E-04  0.7092E-02 -0.1080E+00
   -0.187490    7.89981  0.0000E+00  0.7733E-05  0.6774E-07  0.1084E-03  0.5955E-02 -0.1451E+00
   -0.224989    7.90482  0.0000E+00  0.7164E-05  0.5228E-07  0.1345E-03  0.5073E-02 -0.8353E-01
   -0.262488    7.90879  0.0000E+00  0.6709E-05  0.4192E-07  0.2485E-03  0.4372E-02  0.4700E+03
   -0.299988    7.91122  0.0000E+00  0.6359E-05  0.3482E-07  0.3226E-03  0.3861E-02  0.5974E+03
   -0.337487    7.91296  0.0000E+00  0.6076E-05  0.2953E-07  0.3741E-03  0.3428E-02  0.3607E+03
   -0.374987    7.91433  0.0000E+00  0.5839E-05  0.2542E-07  0.3960E-03  0.3053E-02  0.4686E+01
   -0.412487    7.91559  0.0000E+00  0.5632E-05  0.2210E-07  0.4053E-03  0.2714E-02  0.4364E+01
   -0.449988    7.91680  0.0000E+00  0.5448E-05  0.1937E-07  0.4167E-03  0.2407E-02  0.4079E+01
   -0.487488    7.91796  0.0000E+00  0.5283E-05  0.1711E-07  0.4276E-03  0.2129E-02  0.3786E+01
   -0.524989    7.91907  0.0000E+00  0.5131E-05  0.1523E-07  0.4414E-03  0.1877E-02  0.3334E+01
   -0.562489    7.92013  0.0000E+00  0.4990E-05  0.1364E-07  0.4558E-03  0.1651E-02  0.2982E+01
   -0.599990    7.92114  0.0000E+00  0.4859E-05  0.1230E-07  0.4710E-03  0.1450E-02  0.2702E+01
   -0.637491    7.92211  0.0000E+00  0.4736E-05  0.1118E-07  0.4871E-03  0.1270E-02  0.2473E+01
   -0.674992    7.92304  0.0000E+00  0.4618E-05  0.1022E-07  0.5042E-03  0.1111E-02  0.2281E+01
   -0.712493    7.92392  0.0000E+00  0.4504E-05  0.9420E-08  0.5225E-03  0.9687E-03  0.2116E+01
   -0.749994    7.92476  0.0000E+00  0.4394E-05  0.8749E-08  0.5421E-03  0.8431E-03  0.1974E+01
   -0.787494    7.92557  0.0000E+00  0.4286E-05  0.8191E-08  0.5632E-03  0.7324E-03  0.1850E+01
   -0.824995    7.92633  0.0000E+00  0.4181E-05  0.7734E-08  0.5862E-03  0.6352E-03  0.1740E+01
   -0.862496    7.92706  0.0000E+00  0.4078E-05  0.7367E-08  0.6114E-03  0.5501E-03  0.1642E+01
   -0.899997    7.92775  0.0000E+00  0.3976E-05  0.7081E-08  0.6367E-03  0.4759E-03  0.1554E+01
   -0.937498    7.92841  0.0000E+00  0.3877E-05  0.6866E-08  0.6447E-03  0.4114E-03  0.1466E+01
   -0.974998    7.92905  0.0000E+00  0.3781E-05  0.6716E-08  0.6370E-03  0.3552E-03  0.1383E+01
   -1.012499    7.92969  0.0000E+00  0.3688E-05  0.6625E-08  0.6217E-03  0.3064E-03  0.1266E+01
   -1.049999    7.93034  0.0000E+00  0.3599E-05  0.6589E-08  0.5961E-03  0.2656E-03  0.1156E+01
   -1.087500    7.93101  0.0000E+00  0.3516E-05  0.6602E-08  0.5662E-03  0.2319E-03  0.1052E+01
   -1.125000    7.93171  0.0000E+00  0.3439E-05  0.6658E-08  0.5384E-03  0.2043E-03  0.9604E+00
   -1.162500    7.93244  0.0000E+00  0.3364E-05  0.6759E-08  0.5122E-03  0.1816E-03  0.1014E+01
   -1.199999    7.93320  0.0000E+00  0.3288E-05  0.6917E-08  0.4826E-03  0.1621E-03  0.1252E+01
   -1.237499    7.93400  0.0000E+00  0.3206E-05  0.7151E-08  0.4472E-03  0.1442E-03  0.1738E+01
   -1.274998    7.93486  0.0000E+00  0.3112E-05  0.7502E-08  0.4046E-03  0.1270E-03  0.2629E+01
   -1.312497    7.93580  0.0000E+00  0.3003E-05  0.8038E-08  0.3546E-03  0.1109E-03  0.4675E+01
   -1.349996    7.93687  0.0000E+00  0.2870E-05  0.8888E-08  0.2985E-03  0.9580E-04  0.9886E+01
   -1.387494    7.93815  0.0000E+00  0.2701E-05  0.1035E-07  0.2280E-03  0.8179E-04  0.2862E+02
   -1.424992    7.93981  0.0000E+00  0.2467E-05  0.1327E-07  0.1725E-03  0.6879E-04  0.1139E+03
   -1.462490    7.94203  0.0000E+00  0.1544E-05  0.3343E-07  0.1147E-04  0.5903E-04 -0.1289E+05
   -1.499987    7.97524  0.0000E+00  0.0000E+00  0.0000E+00  0.0000E+00  0.5898E-04  0.0000E+00
