 1 - depth, m
 2 - temperature, C
 3 - salinity, kg/kg
 4 - turbulent kinetic energy, m**2/s**2
 5 - dissipation rate, m**2/s**3
 6 - kinematic heat conductance, m**2/s
 7 - modulus of horizontal velocity, m/s
 8 - Richardson number, n/d
   -0.000000    0.00000  0.0000E+00  0.4096E-13  0.8590E-16  0.1000E-09  0.0000E+00  0.1198E+17
   -0.037493    0.18421  0.0000E+00  0.4096E-13  0.8590E-16  0.1000E-09  0.0000E+00  0.1125E+17
   -0.074986    0.36642  0.0000E+00  0.4096E-13  0.8590E-16  0.1000E-09  0.0000E+00  0.1055E+17
   -0.112480    0.54647  0.0000E+00  0.4096E-13  0.8590E-16  0.1000E-09  0.0000E+00  0.9853E+16
   -0.149974    0.72421  0.0000E+00  0.4096E-13  0.8590E-16  0.1000E-09  0.0000E+00  0.9178E+16
   -0.187468    0.89950  0.0000E+00  0.4096E-13  0.8590E-16  0.1000E-09  0.0000E+00  0.8523E+16
   -0.224963    1.07223  0.0000E+00  0.1112E-12  0.8590E-16  0.1000E-09  0.0000E+00  0.7888E+16
   -0.262457    1.24226  0.0000E+00  0.3338E-12  0.9492E-16  0.1000E-09  0.0000E+00  0.7263E+16
   -0.299952    1.40920  0.0000E+00  0.7407E-12  0.1428E-15  0.1000E-09  0.0000E+00  0.6661E+16
   -0.337448    1.57288  0.0000E+00  0.1427E-11  0.2414E-15  0.1000E-09  0.0000E+00  0.6084E+16
   -0.374943    1.73320  0.0000E+00  0.2583E-11  0.4146E-15  0.1000E-09  0.0000E+00  0.5574E+16
   -0.412439    1.89123  0.0000E+00  0.4547E-11  0.7089E-15  0.1000E-09  0.0000E+00  0.5106E+16
   -0.449935    2.04769  0.0000E+00  0.7890E-11  0.1204E-14  0.1000E-09  0.0000E+00  0.4652E+16
   -0.487431    2.20257  0.0000E+00  0.1357E-10  0.2033E-14  0.1000E-09  0.0000E+00  0.4212E+16
   -0.524927    2.35584  0.0000E+00  0.2321E-10  0.3417E-14  0.1000E-09  0.0000E+00  0.3783E+16
   -0.562423    2.50735  0.0000E+00  0.3951E-10  0.5717E-14  0.1000E-09  0.0000E+00  0.3369E+16
   -0.599919    2.65711  0.0000E+00  0.6695E-10  0.9523E-14  0.1000E-09  0.0000E+00  0.2970E+16
   -0.637416    2.80515  0.0000E+00  0.1129E-09  0.1579E-13  0.1000E-09  0.0000E+00  0.2585E+16
   -0.674912    2.95150  0.0000E+00  0.1897E-09  0.2608E-13  0.1000E-09  0.0000E+00  0.2216E+16
   -0.712409    3.09626  0.0000E+00  0.3171E-09  0.4287E-13  0.1003E-09  0.0000E+00  0.1862E+16
   -0.749905    3.23963  0.0000E+00  0.5278E-09  0.7016E-13  0.1335E-09  0.0000E+00  0.1540E+16
   -0.787402    3.38387  0.0000E+00  0.8749E-09  0.1143E-12  0.2598E-09  0.0000E+00  0.1223E+16
   -0.824898    3.53017  0.0000E+00  0.1444E-08  0.1855E-12  0.5721E-09  0.0000E+00  0.8957E+15
   -0.862394    3.67912  0.0000E+00  0.2371E-08  0.2997E-12  0.1482E-08  0.0000E+00  0.5509E+15
   -0.899891    3.83056  0.0000E+00  0.3867E-08  0.4808E-12  0.6961E-08  0.0000E+00  0.1882E+15
   -0.937387    3.97889  0.0000E+00  0.4816E-08  0.6014E-12  0.6806E-05  0.0000E+00  0.2510E+13
   -0.974883    3.99363  0.0000E+00  0.5287E-08  0.6698E-12  0.1265E-04  0.0000E+00 -0.2094E+12
   -1.012379    3.99547  0.0000E+00  0.5644E-08  0.7313E-12  0.1420E-04  0.0000E+00 -0.2339E+12
   -1.049875    3.99708  0.0000E+00  0.5968E-08  0.7974E-12  0.1525E-04  0.0000E+00 -0.2575E+12
   -1.087371    3.99858  0.0000E+00  0.6260E-08  0.8693E-12  0.1587E-04  0.0000E+00 -0.2843E+12
   -1.124867    4.00003  0.0000E+00  0.6516E-08  0.9483E-12  0.1600E-04  0.0000E+00 -0.3159E+12
   -1.162362    4.00146  0.0000E+00  0.6735E-08  0.1037E-11  0.1573E-04  0.0000E+00 -0.3559E+12
   -1.199858    4.00292  0.0000E+00  0.6911E-08  0.1140E-11  0.1506E-04  0.0000E+00 -0.4093E+12
   -1.237353    4.00446  0.0000E+00  0.7036E-08  0.1263E-11  0.1396E-04  0.0000E+00 -0.4848E+12
   -1.274847    4.00611  0.0000E+00  0.7097E-08  0.1419E-11  0.1240E-04  0.0000E+00 -0.6008E+12
   -1.312342    4.00798  0.0000E+00  0.7072E-08  0.1632E-11  0.1041E-04  0.0000E+00 -0.7934E+12
   -1.349836    4.01022  0.0000E+00  0.6914E-08  0.1949E-11  0.7992E-05  0.0000E+00 -0.1163E+13
   -1.387330    4.01317  0.0000E+00  0.6528E-08  0.2497E-11  0.5209E-05  0.0000E+00 -0.2068E+13
   -1.424824    4.01772  0.0000E+00  0.5678E-08  0.3724E-11  0.2366E-05  0.0000E+00 -0.5646E+13
   -1.462317    4.02764  0.0000E+00  0.3867E-08  0.8074E-11  0.4121E-06  0.0000E+00 -0.4637E+14
   -1.499810    4.07367  0.0000E+00  0.0000E+00  0.0000E+00  0.0000E+00  0.0000E+00  0.0000E+00
