 1 - depth, m
 2 - temperature, C
 3 - salinity, kg/kg
 4 - turbulent kinetic energy, m**2/s**2
 5 - dissipation rate, m**2/s**3
 6 - kinematic heat conductance, m**2/s
 7 - modulus of horizontal velocity, m/s
 8 - Richardson number, n/d
   -0.000000    0.00000  0.0000E+00  0.4096E-13  0.8590E-16  0.1000E-09  0.0000E+00  0.9186E+16
   -0.037499    0.14044  0.0000E+00  0.4096E-13  0.8590E-16  0.1000E-09  0.0000E+00  0.8755E+16
   -0.074999    0.27958  0.0000E+00  0.4096E-13  0.8590E-16  0.1000E-09  0.0000E+00  0.8327E+16
   -0.112499    0.41727  0.0000E+00  0.4096E-13  0.8590E-16  0.1000E-09  0.0000E+00  0.7901E+16
   -0.150000    0.55335  0.0000E+00  0.4096E-13  0.8590E-16  0.1000E-09  0.0000E+00  0.7481E+16
   -0.187501    0.68768  0.0000E+00  0.4096E-13  0.8590E-16  0.1000E-09  0.0000E+00  0.7068E+16
   -0.225002    0.82013  0.0000E+00  0.4096E-13  0.8590E-16  0.1000E-09  0.0000E+00  0.6663E+16
   -0.262503    0.95056  0.0000E+00  0.4096E-13  0.8590E-16  0.1000E-09  0.0000E+00  0.6257E+16
   -0.300005    1.07866  0.0000E+00  0.4096E-13  0.8590E-16  0.1000E-09  0.0000E+00  0.5861E+16
   -0.337506    1.20427  0.0000E+00  0.4096E-13  0.8590E-16  0.1000E-09  0.0000E+00  0.5477E+16
   -0.375008    1.32726  0.0000E+00  0.4096E-13  0.8590E-16  0.1000E-09  0.0000E+00  0.5138E+16
   -0.412510    1.44830  0.0000E+00  0.4096E-13  0.8590E-16  0.1000E-09  0.0000E+00  0.4828E+16
   -0.450013    1.56780  0.0000E+00  0.4096E-13  0.8590E-16  0.1000E-09  0.0000E+00  0.4527E+16
   -0.487515    1.68570  0.0000E+00  0.4096E-13  0.8590E-16  0.1000E-09  0.0000E+00  0.4234E+16
   -0.525018    1.80196  0.0000E+00  0.4096E-13  0.8590E-16  0.1000E-09  0.0000E+00  0.3945E+16
   -0.562521    1.91636  0.0000E+00  0.4096E-13  0.8590E-16  0.1000E-09  0.0000E+00  0.3665E+16
   -0.600023    2.02886  0.0000E+00  0.4096E-13  0.8590E-16  0.1000E-09  0.0000E+00  0.3396E+16
   -0.637526    2.13941  0.0000E+00  0.4096E-13  0.8590E-16  0.1000E-09  0.0000E+00  0.3137E+16
   -0.675029    2.24796  0.0000E+00  0.4096E-13  0.8590E-16  0.1000E-09  0.0000E+00  0.2888E+16
   -0.712532    2.35446  0.0000E+00  0.4096E-13  0.8590E-16  0.1000E-09  0.0000E+00  0.2649E+16
   -0.750035    2.45885  0.0000E+00  0.4096E-13  0.8590E-16  0.1000E-09  0.0000E+00  0.2450E+16
   -0.787538    2.56239  0.0000E+00  0.4096E-13  0.8590E-16  0.1000E-09  0.0000E+00  0.2266E+16
   -0.825041    2.66552  0.0000E+00  0.4096E-13  0.8590E-16  0.1000E-09  0.0000E+00  0.2085E+16
   -0.862544    2.76829  0.0000E+00  0.4096E-13  0.8590E-16  0.1000E-09  0.0000E+00  0.1908E+16
   -0.900047    2.87073  0.0000E+00  0.4096E-13  0.8590E-16  0.1000E-09  0.0000E+00  0.1733E+16
   -0.937550    2.97289  0.0000E+00  0.1837E-12  0.1174E-15  0.1000E-09  0.0000E+00  0.1560E+16
   -0.975053    3.07479  0.0000E+00  0.5551E-12  0.2863E-15  0.1000E-09  0.0000E+00  0.1390E+16
   -1.012555    3.17647  0.0000E+00  0.1489E-11  0.7264E-15  0.1000E-09  0.0000E+00  0.1220E+16
   -1.050058    3.27781  0.0000E+00  0.3865E-11  0.1825E-14  0.1000E-09  0.0000E+00  0.1052E+16
   -1.087560    3.37880  0.0000E+00  0.9876E-11  0.4534E-14  0.1000E-09  0.0000E+00  0.8861E+15
   -1.125062    3.47943  0.0000E+00  0.2495E-10  0.1115E-13  0.1000E-09  0.0000E+00  0.7337E+15
   -1.162564    3.58143  0.0000E+00  0.6240E-10  0.2715E-13  0.1295E-09  0.0000E+00  0.5772E+15
   -1.200066    3.68524  0.0000E+00  0.1546E-09  0.6551E-13  0.4361E-09  0.0000E+00  0.4125E+15
   -1.237568    3.79089  0.0000E+00  0.3790E-09  0.1567E-12  0.1791E-08  0.0000E+00  0.2386E+15
   -1.275069    3.89804  0.0000E+00  0.9235E-09  0.3733E-12  0.1623E-07  0.0000E+00  0.5989E+14
   -1.312570    3.99867  0.0000E+00  0.1932E-08  0.7810E-12  0.1645E-05  0.0000E+00 -0.2439E+13
   -1.350071    4.00786  0.0000E+00  0.2565E-08  0.1188E-11  0.1972E-05  0.0000E+00 -0.3258E+13
   -1.387571    4.01598  0.0000E+00  0.2972E-08  0.1753E-11  0.1743E-05  0.0000E+00 -0.5207E+13
   -1.425071    4.02562  0.0000E+00  0.3055E-08  0.2774E-11  0.1083E-05  0.0000E+00 -0.1185E+14
   -1.462571    4.04162  0.0000E+00  0.2588E-08  0.5594E-11  0.3169E-06  0.0000E+00 -0.5867E+14
   -1.500071    4.08906  0.0000E+00  0.0000E+00  0.0000E+00  0.0000E+00  0.0000E+00  0.0000E+00
