 1 - depth, m
 2 - temperature, C
 3 - salinity, kg/kg
 4 - turbulent kinetic energy, m**2/s**2
 5 - dissipation rate, m**2/s**3
 6 - kinematic heat conductance, m**2/s
 7 - modulus of horizontal velocity, m/s
 8 - Richardson number, n/d
   -0.000000    0.00000  0.0000E+00  0.4096E-13  0.8590E-16  0.1000E-09  0.0000E+00  0.1178E+17
   -0.037498    0.18115  0.0000E+00  0.4096E-13  0.8590E-16  0.1000E-09  0.0000E+00  0.1107E+17
   -0.074996    0.36014  0.0000E+00  0.4096E-13  0.8590E-16  0.1000E-09  0.0000E+00  0.1038E+17
   -0.112495    0.53692  0.0000E+00  0.4096E-13  0.8590E-16  0.1000E-09  0.0000E+00  0.9708E+16
   -0.149994    0.71143  0.0000E+00  0.4096E-13  0.8590E-16  0.1000E-09  0.0000E+00  0.9059E+16
   -0.187493    0.88363  0.0000E+00  0.4096E-13  0.8590E-16  0.1000E-09  0.0000E+00  0.8432E+16
   -0.224993    1.05347  0.0000E+00  0.4096E-13  0.8590E-16  0.1000E-09  0.0000E+00  0.7827E+16
   -0.262493    1.22093  0.0000E+00  0.1207E-12  0.8590E-16  0.1000E-09  0.0000E+00  0.7239E+16
   -0.299993    1.38587  0.0000E+00  0.3643E-12  0.9195E-16  0.1000E-09  0.0000E+00  0.6674E+16
   -0.337493    1.54825  0.0000E+00  0.7851E-12  0.1399E-15  0.1000E-09  0.0000E+00  0.6130E+16
   -0.374994    1.70800  0.0000E+00  0.1476E-11  0.2324E-15  0.1000E-09  0.0000E+00  0.5627E+16
   -0.412495    1.86565  0.0000E+00  0.2617E-11  0.3907E-15  0.1000E-09  0.0000E+00  0.5154E+16
   -0.449996    2.02151  0.0000E+00  0.4513E-11  0.6541E-15  0.1000E-09  0.0000E+00  0.4695E+16
   -0.487497    2.17555  0.0000E+00  0.7674E-11  0.1089E-14  0.1000E-09  0.0000E+00  0.4251E+16
   -0.524998    2.32772  0.0000E+00  0.1295E-10  0.1803E-14  0.1000E-09  0.0000E+00  0.3822E+16
   -0.562499    2.47794  0.0000E+00  0.2175E-10  0.2975E-14  0.1000E-09  0.0000E+00  0.3407E+16
   -0.600000    2.62615  0.0000E+00  0.3636E-10  0.4889E-14  0.1000E-09  0.0000E+00  0.3008E+16
   -0.637502    2.77229  0.0000E+00  0.6053E-10  0.8004E-14  0.1000E-09  0.0000E+00  0.2623E+16
   -0.675003    2.91628  0.0000E+00  0.1004E-09  0.1305E-13  0.1000E-09  0.0000E+00  0.2254E+16
   -0.712505    3.05803  0.0000E+00  0.1659E-09  0.2121E-13  0.1000E-09  0.0000E+00  0.1901E+16
   -0.750007    3.19745  0.0000E+00  0.2730E-09  0.3435E-13  0.1000E-09  0.0000E+00  0.1572E+16
   -0.787508    3.33524  0.0000E+00  0.4478E-09  0.5543E-13  0.1225E-09  0.0000E+00  0.1257E+16
   -0.825010    3.47159  0.0000E+00  0.7319E-09  0.8914E-13  0.2602E-09  0.0000E+00  0.9509E+15
   -0.862511    3.60632  0.0000E+00  0.1192E-08  0.1429E-12  0.6046E-09  0.0000E+00  0.6559E+15
   -0.900013    3.73917  0.0000E+00  0.1933E-08  0.2281E-12  0.1700E-08  0.0000E+00  0.3725E+15
   -0.937514    3.86941  0.0000E+00  0.3114E-08  0.3619E-12  0.9391E-08  0.0000E+00  0.1069E+15
   -0.975015    3.99145  0.0000E+00  0.3697E-08  0.4317E-12  0.9299E-05  0.0000E+00 -0.1833E+12
   -1.012516    3.99339  0.0000E+00  0.4011E-08  0.4773E-12  0.1090E-04  0.0000E+00 -0.2037E+12
   -1.050018    3.99504  0.0000E+00  0.4295E-08  0.5266E-12  0.1196E-04  0.0000E+00 -0.2230E+12
   -1.087518    3.99655  0.0000E+00  0.4552E-08  0.5802E-12  0.1256E-04  0.0000E+00 -0.2451E+12
   -1.125019    3.99798  0.0000E+00  0.4778E-08  0.6393E-12  0.1279E-04  0.0000E+00 -0.2725E+12
   -1.162520    3.99939  0.0000E+00  0.4974E-08  0.7056E-12  0.1265E-04  0.0000E+00 -0.3077E+12
   -1.200020    4.00081  0.0000E+00  0.5133E-08  0.7819E-12  0.1216E-04  0.0000E+00 -0.3547E+12
   -1.237520    4.00230  0.0000E+00  0.5249E-08  0.8722E-12  0.1133E-04  0.0000E+00 -0.4207E+12
   -1.275020    4.00390  0.0000E+00  0.5313E-08  0.9860E-12  0.1012E-04  0.0000E+00 -0.5212E+12
   -1.312520    4.00570  0.0000E+00  0.5306E-08  0.1140E-11  0.8517E-05  0.0000E+00 -0.6899E+12
   -1.350019    4.00785  0.0000E+00  0.5191E-08  0.1369E-11  0.6523E-05  0.0000E+00 -0.1017E+13
   -1.387518    4.01068  0.0000E+00  0.4891E-08  0.1763E-11  0.4217E-05  0.0000E+00 -0.1829E+13
   -1.425017    4.01507  0.0000E+00  0.4224E-08  0.2635E-11  0.1885E-05  0.0000E+00 -0.5084E+13
   -1.462515    4.02474  0.0000E+00  0.2874E-08  0.5579E-11  0.3305E-06  0.0000E+00 -0.4016E+14
   -1.500013    4.06760  0.0000E+00  0.0000E+00  0.0000E+00  0.0000E+00  0.0000E+00  0.0000E+00
