 1 - depth, m
 2 - temperature, C
 3 - salinity, kg/kg
 4 - turbulent kinetic energy, m**2/s**2
 5 - dissipation rate, m**2/s**3
 6 - kinematic heat conductance, m**2/s
 7 - modulus of horizontal velocity, m/s
 8 - Richardson number, n/d
   -0.000000    0.00000  0.0000E+00  0.4096E-13  0.8590E-16  0.1000E-09  0.0000E+00  0.8008E+16
   -0.037493    0.12212  0.0000E+00  0.4096E-13  0.8590E-16  0.1000E-09  0.0000E+00  0.7710E+16
   -0.074986    0.24373  0.0000E+00  0.4096E-13  0.8590E-16  0.1000E-09  0.0000E+00  0.7412E+16
   -0.112480    0.36474  0.0000E+00  0.4096E-13  0.8590E-16  0.1000E-09  0.0000E+00  0.7114E+16
   -0.149973    0.48505  0.0000E+00  0.4096E-13  0.8590E-16  0.1000E-09  0.0000E+00  0.6816E+16
   -0.187468    0.60458  0.0000E+00  0.4096E-13  0.8590E-16  0.1000E-09  0.0000E+00  0.6519E+16
   -0.224962    0.72325  0.0000E+00  0.4096E-13  0.8590E-16  0.1000E-09  0.0000E+00  0.6225E+16
   -0.262457    0.84098  0.0000E+00  0.4096E-13  0.8590E-16  0.1000E-09  0.0000E+00  0.5930E+16
   -0.299952    0.95762  0.0000E+00  0.4096E-13  0.8590E-16  0.1000E-09  0.0000E+00  0.5639E+16
   -0.337447    1.07308  0.0000E+00  0.4096E-13  0.8590E-16  0.1000E-09  0.0000E+00  0.5351E+16
   -0.374942    1.18728  0.0000E+00  0.4096E-13  0.8590E-16  0.1000E-09  0.0000E+00  0.5081E+16
   -0.412438    1.30044  0.0000E+00  0.4096E-13  0.8590E-16  0.1000E-09  0.0000E+00  0.4823E+16
   -0.449934    1.41265  0.0000E+00  0.4096E-13  0.8590E-16  0.1000E-09  0.0000E+00  0.4569E+16
   -0.487430    1.52386  0.0000E+00  0.4096E-13  0.8590E-16  0.1000E-09  0.0000E+00  0.4318E+16
   -0.524926    1.63401  0.0000E+00  0.4096E-13  0.8590E-16  0.1000E-09  0.0000E+00  0.4070E+16
   -0.562422    1.74299  0.0000E+00  0.4096E-13  0.8590E-16  0.1000E-09  0.0000E+00  0.3828E+16
   -0.599918    1.85073  0.0000E+00  0.4096E-13  0.8590E-16  0.1000E-09  0.0000E+00  0.3590E+16
   -0.637414    1.95716  0.0000E+00  0.4096E-13  0.8590E-16  0.1000E-09  0.0000E+00  0.3358E+16
   -0.674911    2.06223  0.0000E+00  0.4096E-13  0.8590E-16  0.1000E-09  0.0000E+00  0.3132E+16
   -0.712407    2.16584  0.0000E+00  0.4096E-13  0.8590E-16  0.1000E-09  0.0000E+00  0.2911E+16
   -0.749903    2.26794  0.0000E+00  0.4096E-13  0.8590E-16  0.1000E-09  0.0000E+00  0.2711E+16
   -0.787400    2.36897  0.0000E+00  0.4096E-13  0.8590E-16  0.1000E-09  0.0000E+00  0.2520E+16
   -0.824896    2.46907  0.0000E+00  0.4096E-13  0.8590E-16  0.1000E-09  0.0000E+00  0.2333E+16
   -0.862393    2.56818  0.0000E+00  0.4096E-13  0.8590E-16  0.1000E-09  0.0000E+00  0.2150E+16
   -0.899889    2.66627  0.0000E+00  0.4096E-13  0.8590E-16  0.1000E-09  0.0000E+00  0.1972E+16
   -0.937385    2.76329  0.0000E+00  0.4096E-13  0.8590E-16  0.1000E-09  0.0000E+00  0.1798E+16
   -0.974881    2.85918  0.0000E+00  0.4096E-13  0.8590E-16  0.1000E-09  0.0000E+00  0.1630E+16
   -1.012377    2.95388  0.0000E+00  0.4096E-13  0.8590E-16  0.1000E-09  0.0000E+00  0.1465E+16
   -1.049873    3.04728  0.0000E+00  0.4096E-13  0.8590E-16  0.1000E-09  0.0000E+00  0.1305E+16
   -1.087369    3.13927  0.0000E+00  0.4096E-13  0.8590E-16  0.1000E-09  0.0000E+00  0.1151E+16
   -1.124864    3.22973  0.0000E+00  0.4096E-13  0.8590E-16  0.1000E-09  0.0000E+00  0.1015E+16
   -1.162360    3.31980  0.0000E+00  0.4096E-13  0.8590E-16  0.1000E-09  0.0000E+00  0.8837E+15
   -1.199855    3.40967  0.0000E+00  0.4096E-13  0.8590E-16  0.1000E-09  0.0000E+00  0.7536E+15
   -1.237350    3.49938  0.0000E+00  0.1622E-12  0.2232E-15  0.1000E-09  0.0000E+00  0.6253E+15
   -1.274845    3.58905  0.0000E+00  0.7222E-12  0.9475E-15  0.1000E-09  0.0000E+00  0.5000E+15
   -1.312339    3.67918  0.0000E+00  0.3165E-11  0.4091E-14  0.1000E-09  0.0000E+00  0.3740E+15
   -1.349833    3.77003  0.0000E+00  0.1377E-10  0.1770E-13  0.1717E-09  0.0000E+00  0.2459E+15
   -1.387327    3.86195  0.0000E+00  0.5956E-10  0.7738E-13  0.1395E-08  0.0000E+00  0.1135E+15
   -1.424821    3.95475  0.0000E+00  0.2527E-09  0.3473E-12  0.2909E-07  0.0000E+00 -0.1048E+14
   -1.462314    4.03466  0.0000E+00  0.7881E-09  0.1581E-11  0.1352E-06  0.0000E+00 -0.6005E+14
   -1.499807    4.08637  0.0000E+00  0.0000E+00  0.0000E+00  0.0000E+00  0.0000E+00  0.0000E+00
