 1 - depth, m
 2 - temperature, C
 3 - salinity, kg/kg
 4 - turbulent kinetic energy, m**2/s**2
 5 - dissipation rate, m**2/s**3
 6 - kinematic heat conductance, m**2/s
 7 - modulus of horizontal velocity, m/s
 8 - Richardson number, n/d
   -0.000000    0.75489  0.0000E+00  0.1007E-03  0.3526E-04  0.5147E-04  0.9276E-01  0.1588E-02
   -0.037497    0.79738  0.0000E+00  0.6062E-04  0.9713E-05  0.7622E-04  0.3736E-01 -0.3629E-01
   -0.074995    0.80456  0.0000E+00  0.4611E-04  0.4522E-05  0.8748E-04  0.2891E-01  0.1117E-01
   -0.112493    0.80965  0.0000E+00  0.3782E-04  0.2549E-05  0.9614E-04  0.2448E-01  0.9344E-02
   -0.149991    0.81376  0.0000E+00  0.3189E-04  0.1434E-05  0.1049E-03  0.2116E-01  0.1228E-01
   -0.187490    0.81730  0.0000E+00  0.2749E-04  0.8896E-06  0.1126E-03  0.1849E-01  0.1521E-01
   -0.224989    0.82046  0.0000E+00  0.2406E-04  0.5971E-06  0.1185E-03  0.1625E-01  0.1841E-01
   -0.262488    0.82337  0.0000E+00  0.2124E-04  0.4248E-06  0.1236E-03  0.1431E-01  0.2297E-01
   -0.299988    0.82607  0.0000E+00  0.1886E-04  0.3142E-06  0.1271E-03  0.1265E-01  0.2857E-01
   -0.337487    0.82859  0.0000E+00  0.1683E-04  0.2390E-06  0.1290E-03  0.1121E-01  0.3529E-01
   -0.374987    0.83100  0.0000E+00  0.1506E-04  0.1858E-06  0.1295E-03  0.9950E-02  0.4334E-01
   -0.412487    0.83331  0.0000E+00  0.1349E-04  0.1469E-06  0.1286E-03  0.8833E-02  0.5291E-01
   -0.449987    0.83556  0.0000E+00  0.1209E-04  0.1176E-06  0.1262E-03  0.7834E-02  0.6410E-01
   -0.487488    0.83779  0.0000E+00  0.1081E-04  0.9487E-07  0.1225E-03  0.6930E-02  0.7775E-01
   -0.524988    0.84000  0.0000E+00  0.9632E-05  0.7689E-07  0.1186E-03  0.6109E-02  0.9949E-01
   -0.562489    0.84222  0.0000E+00  0.8555E-05  0.6257E-07  0.1135E-03  0.5377E-02  0.1277E+00
   -0.599990    0.84446  0.0000E+00  0.7572E-05  0.5105E-07  0.1074E-03  0.4722E-02  0.1651E+00
   -0.637490    0.84676  0.0000E+00  0.6677E-05  0.4172E-07  0.1005E-03  0.4134E-02  0.2161E+00
   -0.674991    0.84915  0.0000E+00  0.5864E-05  0.3412E-07  0.9314E-04  0.3603E-02  0.2877E+00
   -0.712492    0.85167  0.0000E+00  0.5126E-05  0.2791E-07  0.8534E-04  0.3124E-02  0.3928E+00
   -0.749993    0.85439  0.0000E+00  0.4458E-05  0.2282E-07  0.7726E-04  0.2692E-02  0.5610E+00
   -0.787494    0.85744  0.0000E+00  0.3856E-05  0.1863E-07  0.6912E-04  0.2301E-02  0.8574E+00
   -0.824995    0.86106  0.0000E+00  0.3314E-05  0.1518E-07  0.6116E-04  0.1947E-02  0.1480E+01
   -0.862495    0.86586  0.0000E+00  0.2826E-05  0.1233E-07  0.5358E-04  0.1625E-02  0.3487E+01
   -0.899996    0.87506  0.0000E+00  0.2391E-05  0.9971E-08  0.4694E-04  0.1326E-02  0.2207E+02
   -0.937497    0.90207  0.0000E+00  0.2026E-05  0.8086E-08  0.4109E-04  0.1049E-02  0.2962E+03
   -0.974998    0.94078  0.0000E+00  0.1721E-05  0.6580E-08  0.3567E-04  0.8318E-03  0.5052E+04
   -1.012498    0.98746  0.0000E+00  0.1464E-05  0.5359E-08  0.3143E-04  0.6443E-03  0.1266E+06
   -1.049998    1.03419  0.0000E+00  0.1249E-05  0.4373E-08  0.2745E-04  0.5073E-03  0.3077E+07
   -1.087499    1.06886  0.0000E+00  0.1062E-05  0.3562E-08  0.2369E-04  0.4014E-03  0.6331E+08
   -1.124999    1.08868  0.0000E+00  0.8976E-06  0.2891E-08  0.1987E-04  0.3157E-03  0.3149E+10
   -1.162499    1.11645  0.0000E+00  0.7520E-06  0.2334E-08  0.1623E-04  0.2444E-03  0.1954E+12
   -1.199998    1.15850  0.0000E+00  0.6230E-06  0.1870E-08  0.1285E-04  0.1846E-03  0.1267E+14
   -1.237498    1.22070  0.0000E+00  0.5098E-06  0.1486E-08  0.9805E-05  0.1341E-03  0.7244E+15
   -1.274997    1.30759  0.0000E+00  0.4107E-06  0.1167E-08  0.7391E-05  0.9150E-04  0.1867E+16
   -1.312496    1.40981  0.0000E+00  0.3260E-06  0.9082E-09  0.5227E-05  0.6064E-04  0.3219E+16
   -1.349994    1.53231  0.0000E+00  0.2509E-06  0.6932E-09  0.3327E-05  0.3852E-04  0.3696E+16
   -1.387493    1.68323  0.0000E+00  0.1806E-06  0.5101E-09  0.1824E-05  0.2234E-04  0.4293E+16
   -1.424991    1.87560  0.0000E+00  0.1140E-06  0.3669E-09  0.6259E-06  0.1174E-04  0.4624E+16
   -1.462488    2.11411  0.0000E+00  0.3754E-07  0.3540E-09  0.1199E-06  0.4588E-05  0.4661E+16
   -1.499986    2.39766  0.0000E+00  0.0000E+00  0.0000E+00  0.0000E+00  0.4978E-05  0.0000E+00
