 1 - depth, m
 2 - temperature, C
 3 - salinity, kg/kg
 4 - turbulent kinetic energy, m**2/s**2
 5 - dissipation rate, m**2/s**3
 6 - kinematic heat conductance, m**2/s
 7 - modulus of horizontal velocity, m/s
 8 - Richardson number, n/d
   -0.000000    0.00000  0.0000E+00  0.4096E-13  0.8590E-16  0.1000E-09  0.0000E+00  0.1151E+17
   -0.037498    0.17684  0.0000E+00  0.4096E-13  0.8590E-16  0.1000E-09  0.0000E+00  0.1089E+17
   -0.074997    0.35263  0.0000E+00  0.4096E-13  0.8590E-16  0.1000E-09  0.0000E+00  0.1028E+17
   -0.112497    0.52724  0.0000E+00  0.4096E-13  0.8590E-16  0.1000E-09  0.0000E+00  0.9674E+16
   -0.149996    0.70059  0.0000E+00  0.4096E-13  0.8590E-16  0.1000E-09  0.0000E+00  0.9080E+16
   -0.187496    0.87256  0.0000E+00  0.7924E-13  0.8590E-16  0.1000E-09  0.0000E+00  0.8496E+16
   -0.224996    1.04305  0.0000E+00  0.2811E-12  0.8591E-16  0.1000E-09  0.0000E+00  0.7923E+16
   -0.262496    1.21198  0.0000E+00  0.6487E-12  0.1330E-15  0.1000E-09  0.0000E+00  0.7354E+16
   -0.299997    1.37902  0.0000E+00  0.1275E-11  0.2291E-15  0.1000E-09  0.0000E+00  0.6798E+16
   -0.337498    1.54404  0.0000E+00  0.2346E-11  0.3998E-15  0.1000E-09  0.0000E+00  0.6258E+16
   -0.374999    1.70694  0.0000E+00  0.4195E-11  0.6939E-15  0.1000E-09  0.0000E+00  0.5764E+16
   -0.412500    1.86847  0.0000E+00  0.7393E-11  0.1196E-14  0.1000E-09  0.0000E+00  0.5298E+16
   -0.450001    2.02911  0.0000E+00  0.1292E-10  0.2051E-14  0.1000E-09  0.0000E+00  0.4841E+16
   -0.487503    2.18883  0.0000E+00  0.2244E-10  0.3498E-14  0.1000E-09  0.0000E+00  0.4391E+16
   -0.525005    2.34757  0.0000E+00  0.3882E-10  0.5943E-14  0.1000E-09  0.0000E+00  0.3948E+16
   -0.562506    2.50516  0.0000E+00  0.6688E-10  0.1006E-13  0.1000E-09  0.0000E+00  0.3515E+16
   -0.600008    2.66157  0.0000E+00  0.1147E-09  0.1696E-13  0.1000E-09  0.0000E+00  0.3093E+16
   -0.637510    2.81676  0.0000E+00  0.1961E-09  0.2848E-13  0.1000E-09  0.0000E+00  0.2681E+16
   -0.675012    2.97067  0.0000E+00  0.3336E-09  0.4764E-13  0.1000E-09  0.0000E+00  0.2279E+16
   -0.712514    3.12327  0.0000E+00  0.5655E-09  0.7937E-13  0.1167E-09  0.0000E+00  0.1889E+16
   -0.750016    3.27448  0.0000E+00  0.9547E-09  0.1317E-12  0.2405E-09  0.0000E+00  0.1521E+16
   -0.787518    3.42550  0.0000E+00  0.1605E-08  0.2178E-12  0.5222E-09  0.0000E+00  0.1158E+16
   -0.825020    3.57667  0.0000E+00  0.2688E-08  0.3588E-12  0.1254E-08  0.0000E+00  0.7941E+15
   -0.862522    3.72754  0.0000E+00  0.4478E-08  0.5881E-12  0.3786E-08  0.0000E+00  0.4310E+15
   -0.900024    3.87628  0.0000E+00  0.7349E-08  0.9511E-12  0.2843E-07  0.0000E+00  0.9253E+14
   -0.937526    4.00380  0.0000E+00  0.8066E-08  0.1048E-11  0.2444E-04  0.0000E+00 -0.2464E+12
   -0.975028    4.00467  0.0000E+00  0.8385E-08  0.1100E-11  0.2569E-04  0.0000E+00 -0.2473E+12
   -1.012530    4.00551  0.0000E+00  0.8643E-08  0.1151E-11  0.2614E-04  0.0000E+00 -0.2552E+12
   -1.050031    4.00634  0.0000E+00  0.8857E-08  0.1203E-11  0.2623E-04  0.0000E+00 -0.2666E+12
   -1.087533    4.00718  0.0000E+00  0.9035E-08  0.1259E-11  0.2609E-04  0.0000E+00 -0.2807E+12
   -1.125034    4.00802  0.0000E+00  0.9179E-08  0.1322E-11  0.2567E-04  0.0000E+00 -0.2977E+12
   -1.162535    4.00888  0.0000E+00  0.9291E-08  0.1397E-11  0.2493E-04  0.0000E+00 -0.3197E+12
   -1.200036    4.00976  0.0000E+00  0.9364E-08  0.1491E-11  0.2363E-04  0.0000E+00 -0.3518E+12
   -1.237536    4.01070  0.0000E+00  0.9382E-08  0.1611E-11  0.2044E-04  0.0000E+00 -0.4257E+12
   -1.275037    4.01179  0.0000E+00  0.9325E-08  0.1769E-11  0.1727E-04  0.0000E+00 -0.5314E+12
   -1.312537    4.01309  0.0000E+00  0.9164E-08  0.1989E-11  0.1414E-04  0.0000E+00 -0.6904E+12
   -1.350037    4.01469  0.0000E+00  0.8845E-08  0.2323E-11  0.1070E-04  0.0000E+00 -0.9834E+12
   -1.387536    4.01682  0.0000E+00  0.8251E-08  0.2909E-11  0.6880E-05  0.0000E+00 -0.1688E+13
   -1.425035    4.02017  0.0000E+00  0.7078E-08  0.4258E-11  0.3041E-05  0.0000E+00 -0.4457E+13
   -1.462534    4.02773  0.0000E+00  0.4548E-08  0.9405E-11  0.4518E-06  0.0000E+00 -0.4109E+14
   -1.500033    4.06977  0.0000E+00  0.0000E+00  0.0000E+00  0.0000E+00  0.0000E+00  0.0000E+00
