 1 - depth, m
 2 - temperature, C
 3 - salinity, kg/kg
 4 - turbulent kinetic energy, m**2/s**2
 5 - dissipation rate, m**2/s**3
 6 - kinematic heat conductance, m**2/s
 7 - modulus of horizontal velocity, m/s
 8 - Richardson number, n/d
   -0.000000    0.00000  0.0000E+00  0.4096E-13  0.8590E-16  0.1000E-09  0.0000E+00  0.9852E+16
   -0.037499    0.15084  0.0000E+00  0.4096E-13  0.8590E-16  0.1000E-09  0.0000E+00  0.9331E+16
   -0.074998    0.29977  0.0000E+00  0.4096E-13  0.8590E-16  0.1000E-09  0.0000E+00  0.8829E+16
   -0.112497    0.44684  0.0000E+00  0.4096E-13  0.8590E-16  0.1000E-09  0.0000E+00  0.8345E+16
   -0.149997    0.59207  0.0000E+00  0.4096E-13  0.8590E-16  0.1000E-09  0.0000E+00  0.7879E+16
   -0.187497    0.73548  0.0000E+00  0.4096E-13  0.8590E-16  0.1000E-09  0.0000E+00  0.7428E+16
   -0.224997    0.87708  0.0000E+00  0.4096E-13  0.8590E-16  0.1000E-09  0.0000E+00  0.6992E+16
   -0.262497    1.01688  0.0000E+00  0.4096E-13  0.8590E-16  0.1000E-09  0.0000E+00  0.6564E+16
   -0.299998    1.15471  0.0000E+00  0.4096E-13  0.8590E-16  0.1000E-09  0.0000E+00  0.6148E+16
   -0.337499    1.29051  0.0000E+00  0.4096E-13  0.8590E-16  0.1000E-09  0.0000E+00  0.5747E+16
   -0.375000    1.42427  0.0000E+00  0.4096E-13  0.8590E-16  0.1000E-09  0.0000E+00  0.5385E+16
   -0.412502    1.55656  0.0000E+00  0.4096E-13  0.8590E-16  0.1000E-09  0.0000E+00  0.5047E+16
   -0.450003    1.68775  0.0000E+00  0.4096E-13  0.8590E-16  0.1000E-09  0.0000E+00  0.4718E+16
   -0.487505    1.81783  0.0000E+00  0.4096E-13  0.8590E-16  0.1000E-09  0.0000E+00  0.4395E+16
   -0.525007    1.94675  0.0000E+00  0.4096E-13  0.8590E-16  0.1000E-09  0.0000E+00  0.4077E+16
   -0.562508    2.07438  0.0000E+00  0.4096E-13  0.8590E-16  0.1000E-09  0.0000E+00  0.3768E+16
   -0.600010    2.20068  0.0000E+00  0.4097E-13  0.8590E-16  0.1000E-09  0.0000E+00  0.3466E+16
   -0.637513    2.32561  0.0000E+00  0.1943E-12  0.8590E-16  0.1000E-09  0.0000E+00  0.3173E+16
   -0.675015    2.44911  0.0000E+00  0.5148E-12  0.1437E-15  0.1000E-09  0.0000E+00  0.2889E+16
   -0.712517    2.57112  0.0000E+00  0.1117E-11  0.2742E-15  0.1000E-09  0.0000E+00  0.2613E+16
   -0.750019    2.69158  0.0000E+00  0.2257E-11  0.5278E-15  0.1000E-09  0.0000E+00  0.2365E+16
   -0.787521    2.81148  0.0000E+00  0.4433E-11  0.1008E-14  0.1000E-09  0.0000E+00  0.2128E+16
   -0.825023    2.93116  0.0000E+00  0.8589E-11  0.1909E-14  0.1000E-09  0.0000E+00  0.1892E+16
   -0.862526    3.05059  0.0000E+00  0.1650E-10  0.3590E-14  0.1000E-09  0.0000E+00  0.1659E+16
   -0.900028    3.16978  0.0000E+00  0.3150E-10  0.6712E-14  0.1000E-09  0.0000E+00  0.1427E+16
   -0.937530    3.28868  0.0000E+00  0.5977E-10  0.1248E-13  0.1000E-09  0.0000E+00  0.1198E+16
   -0.975032    3.40729  0.0000E+00  0.1128E-09  0.2307E-13  0.1000E-09  0.0000E+00  0.9711E+15
   -1.012533    3.52555  0.0000E+00  0.2120E-09  0.4251E-13  0.1579E-09  0.0000E+00  0.7467E+15
   -1.050035    3.64342  0.0000E+00  0.3977E-09  0.7820E-13  0.4131E-09  0.0000E+00  0.5246E+15
   -1.087537    3.76070  0.0000E+00  0.7428E-09  0.1433E-12  0.1298E-08  0.0000E+00  0.3056E+15
   -1.125038    3.87682  0.0000E+00  0.1377E-08  0.2607E-12  0.7630E-08  0.0000E+00  0.9397E+14
   -1.162539    3.98806  0.0000E+00  0.2088E-08  0.3954E-12  0.2717E-05  0.0000E+00 -0.4224E+12
   -1.200040    3.99385  0.0000E+00  0.2568E-08  0.5144E-12  0.4153E-05  0.0000E+00 -0.5790E+12
   -1.237541    3.99774  0.0000E+00  0.2972E-08  0.6449E-12  0.4777E-05  0.0000E+00 -0.7078E+12
   -1.275041    4.00118  0.0000E+00  0.3309E-08  0.7988E-12  0.4894E-05  0.0000E+00 -0.8854E+12
   -1.312542    4.00459  0.0000E+00  0.3572E-08  0.9936E-12  0.4568E-05  0.0000E+00 -0.1174E+13
   -1.350042    4.00831  0.0000E+00  0.3732E-08  0.1264E-11  0.3829E-05  0.0000E+00 -0.1721E+13
   -1.387541    4.01283  0.0000E+00  0.3729E-08  0.1699E-11  0.2715E-05  0.0000E+00 -0.3035E+13
   -1.425041    4.01934  0.0000E+00  0.3427E-08  0.2583E-11  0.1381E-05  0.0000E+00 -0.7884E+13
   -1.462540    4.03211  0.0000E+00  0.2595E-08  0.5277E-11  0.3147E-06  0.0000E+00 -0.4885E+14
   -1.500038    4.07764  0.0000E+00  0.0000E+00  0.0000E+00  0.0000E+00  0.0000E+00  0.0000E+00
