 1 - depth, m
 2 - temperature, C
 3 - salinity, kg/kg
 4 - turbulent kinetic energy, m**2/s**2
 5 - dissipation rate, m**2/s**3
 6 - kinematic heat conductance, m**2/s
 7 - modulus of horizontal velocity, m/s
 8 - Richardson number, n/d
   -0.000000    0.00000  0.0000E+00  0.4096E-13  0.8590E-16  0.1000E-09  0.0000E+00  0.8200E+16
   -0.037495    0.12510  0.0000E+00  0.4096E-13  0.8590E-16  0.1000E-09  0.0000E+00  0.7919E+16
   -0.074991    0.25017  0.0000E+00  0.4096E-13  0.8590E-16  0.1000E-09  0.0000E+00  0.7636E+16
   -0.112487    0.37513  0.0000E+00  0.4096E-13  0.8590E-16  0.1000E-09  0.0000E+00  0.7350E+16
   -0.149984    0.49990  0.0000E+00  0.4096E-13  0.8590E-16  0.1000E-09  0.0000E+00  0.7062E+16
   -0.187480    0.62441  0.0000E+00  0.4096E-13  0.8590E-16  0.1000E-09  0.0000E+00  0.6773E+16
   -0.224977    0.74860  0.0000E+00  0.4096E-13  0.8590E-16  0.1000E-09  0.0000E+00  0.6484E+16
   -0.262474    0.87237  0.0000E+00  0.4096E-13  0.8590E-16  0.1000E-09  0.0000E+00  0.6191E+16
   -0.299972    0.99560  0.0000E+00  0.4096E-13  0.8590E-16  0.1000E-09  0.0000E+00  0.5898E+16
   -0.337470    1.11817  0.0000E+00  0.4096E-13  0.8590E-16  0.1000E-09  0.0000E+00  0.5607E+16
   -0.374967    1.24001  0.0000E+00  0.4096E-13  0.8590E-16  0.1000E-09  0.0000E+00  0.5325E+16
   -0.412466    1.36121  0.0000E+00  0.4096E-13  0.8590E-16  0.1000E-09  0.0000E+00  0.5049E+16
   -0.449964    1.48178  0.0000E+00  0.4096E-13  0.8590E-16  0.1000E-09  0.0000E+00  0.4776E+16
   -0.487462    1.60167  0.0000E+00  0.4096E-13  0.8590E-16  0.1000E-09  0.0000E+00  0.4503E+16
   -0.524961    1.72077  0.0000E+00  0.4096E-13  0.8590E-16  0.1000E-09  0.0000E+00  0.4231E+16
   -0.562459    1.83893  0.0000E+00  0.4096E-13  0.8590E-16  0.1000E-09  0.0000E+00  0.3963E+16
   -0.599958    1.95603  0.0000E+00  0.4096E-13  0.8590E-16  0.1000E-09  0.0000E+00  0.3698E+16
   -0.637457    2.07200  0.0000E+00  0.4096E-13  0.8590E-16  0.1000E-09  0.0000E+00  0.3438E+16
   -0.674956    2.18673  0.0000E+00  0.4096E-13  0.8590E-16  0.1000E-09  0.0000E+00  0.3183E+16
   -0.712455    2.30011  0.0000E+00  0.4096E-13  0.8590E-16  0.1000E-09  0.0000E+00  0.2934E+16
   -0.749954    2.41204  0.0000E+00  0.4096E-13  0.8590E-16  0.1000E-09  0.0000E+00  0.2700E+16
   -0.787453    2.52280  0.0000E+00  0.4096E-13  0.8590E-16  0.1000E-09  0.0000E+00  0.2474E+16
   -0.824952    2.63244  0.0000E+00  0.4096E-13  0.8590E-16  0.1000E-09  0.0000E+00  0.2254E+16
   -0.862450    2.74087  0.0000E+00  0.4096E-13  0.8590E-16  0.1000E-09  0.0000E+00  0.2038E+16
   -0.899949    2.84800  0.0000E+00  0.4096E-13  0.8590E-16  0.1000E-09  0.0000E+00  0.1829E+16
   -0.937448    2.95372  0.0000E+00  0.4096E-13  0.8590E-16  0.1000E-09  0.0000E+00  0.1626E+16
   -0.974947    3.05793  0.0000E+00  0.5426E-13  0.8590E-16  0.1000E-09  0.0000E+00  0.1429E+16
   -1.012445    3.16053  0.0000E+00  0.2303E-12  0.1493E-15  0.1000E-09  0.0000E+00  0.1237E+16
   -1.049944    3.26113  0.0000E+00  0.7005E-12  0.3913E-15  0.1000E-09  0.0000E+00  0.1053E+16
   -1.087442    3.35948  0.0000E+00  0.1944E-11  0.1038E-14  0.1000E-09  0.0000E+00  0.8776E+15
   -1.124940    3.45537  0.0000E+00  0.5247E-11  0.2717E-14  0.1000E-09  0.0000E+00  0.7260E+15
   -1.162438    3.55052  0.0000E+00  0.1396E-10  0.7030E-14  0.1000E-09  0.0000E+00  0.5796E+15
   -1.199936    3.64517  0.0000E+00  0.3672E-10  0.1800E-13  0.1132E-09  0.0000E+00  0.4358E+15
   -1.237433    3.73933  0.0000E+00  0.9561E-10  0.4568E-13  0.4232E-09  0.0000E+00  0.2942E+15
   -1.274930    3.83281  0.0000E+00  0.2490E-09  0.1161E-12  0.2009E-08  0.0000E+00  0.1553E+15
   -1.312427    3.92494  0.0000E+00  0.6399E-09  0.2926E-12  0.2549E-07  0.0000E+00  0.2715E+14
   -1.349924    4.00383  0.0000E+00  0.1441E-08  0.6700E-12  0.1206E-05  0.0000E+00 -0.3423E+13
   -1.387420    4.01360  0.0000E+00  0.1854E-08  0.1031E-11  0.1241E-05  0.0000E+00 -0.4799E+13
   -1.424916    4.02316  0.0000E+00  0.1934E-08  0.1563E-11  0.8070E-06  0.0000E+00 -0.9643E+13
   -1.462412    4.03720  0.0000E+00  0.1548E-08  0.2868E-11  0.2130E-06  0.0000E+00 -0.4179E+14
   -1.499907    4.07536  0.0000E+00  0.0000E+00  0.0000E+00  0.0000E+00  0.0000E+00  0.0000E+00
