 1 - depth, m
 2 - temperature, C
 3 - salinity, kg/kg
 4 - turbulent kinetic energy, m**2/s**2
 5 - dissipation rate, m**2/s**3
 6 - kinematic heat conductance, m**2/s
 7 - modulus of horizontal velocity, m/s
 8 - Richardson number, n/d
   -0.000000    0.00000  0.0000E+00  0.3189E-13  0.5206E-16  0.1000E-09  0.0000E+00  0.5991E+16
   -0.042497    0.09098  0.0000E+00  0.3189E-13  0.5206E-16  0.1000E-09  0.0000E+00  0.6065E+16
   -0.084995    0.18544  0.0000E+00  0.3189E-13  0.5206E-16  0.1000E-09  0.0000E+00  0.6111E+16
   -0.127493    0.28323  0.0000E+00  0.3189E-13  0.5206E-16  0.1000E-09  0.0000E+00  0.5979E+16
   -0.169992    0.38163  0.0000E+00  0.3189E-13  0.5206E-16  0.1000E-09  0.0000E+00  0.5843E+16
   -0.212490    0.48063  0.0000E+00  0.3189E-13  0.5206E-16  0.1000E-09  0.0000E+00  0.5711E+16
   -0.254990    0.58035  0.0000E+00  0.3189E-13  0.5206E-16  0.1000E-09  0.0000E+00  0.5578E+16
   -0.297489    0.68083  0.0000E+00  0.3189E-13  0.5206E-16  0.1000E-09  0.0000E+00  0.5423E+16
   -0.339989    0.78170  0.0000E+00  0.3189E-13  0.5206E-16  0.1000E-09  0.0000E+00  0.5238E+16
   -0.382489    0.88242  0.0000E+00  0.3189E-13  0.5206E-16  0.1000E-09  0.0000E+00  0.5048E+16
   -0.424989    0.98286  0.0000E+00  0.3189E-13  0.5206E-16  0.1000E-09  0.0000E+00  0.4832E+16
   -0.467489    1.08242  0.0000E+00  0.3189E-13  0.5206E-16  0.1000E-09  0.0000E+00  0.4616E+16
   -0.509990    1.18099  0.0000E+00  0.3189E-13  0.5206E-16  0.1000E-09  0.0000E+00  0.4414E+16
   -0.552491    1.27876  0.0000E+00  0.3189E-13  0.5206E-16  0.1000E-09  0.0000E+00  0.4214E+16
   -0.594992    1.37567  0.0000E+00  0.3189E-13  0.5206E-16  0.1000E-09  0.0000E+00  0.4031E+16
   -0.637493    1.47204  0.0000E+00  0.3189E-13  0.5206E-16  0.1000E-09  0.0000E+00  0.3875E+16
   -0.679994    1.56844  0.0000E+00  0.3189E-13  0.5206E-16  0.1000E-09  0.0000E+00  0.3720E+16
   -0.722495    1.66491  0.0000E+00  0.3189E-13  0.5206E-16  0.1000E-09  0.0000E+00  0.3579E+16
   -0.764996    1.76183  0.0000E+00  0.3189E-13  0.5206E-16  0.1000E-09  0.0000E+00  0.3441E+16
   -0.807498    1.85933  0.0000E+00  0.3189E-13  0.5206E-16  0.1000E-09  0.0000E+00  0.3274E+16
   -0.849999    1.95659  0.0000E+00  0.3189E-13  0.5206E-16  0.1000E-09  0.0000E+00  0.3092E+16
   -0.892500    2.05308  0.0000E+00  0.3189E-13  0.5206E-16  0.1000E-09  0.0000E+00  0.2929E+16
   -0.935002    2.14931  0.0000E+00  0.3189E-13  0.5206E-16  0.1000E-09  0.0000E+00  0.2759E+16
   -0.977503    2.24498  0.0000E+00  0.3189E-13  0.5206E-16  0.1000E-09  0.0000E+00  0.2592E+16
   -1.020004    2.34006  0.0000E+00  0.3189E-13  0.5206E-16  0.1000E-09  0.0000E+00  0.2403E+16
   -1.062505    2.43355  0.0000E+00  0.3189E-13  0.5206E-16  0.1000E-09  0.0000E+00  0.2217E+16
   -1.105006    2.52524  0.0000E+00  0.3189E-13  0.5206E-16  0.1000E-09  0.0000E+00  0.2015E+16
   -1.147507    2.61403  0.0000E+00  0.3189E-13  0.5206E-16  0.1000E-09  0.0000E+00  0.1810E+16
   -1.190008    2.69910  0.0000E+00  0.3189E-13  0.5206E-16  0.1000E-09  0.0000E+00  0.1631E+16
   -1.232509    2.78098  0.0000E+00  0.3189E-13  0.5206E-16  0.1000E-09  0.0000E+00  0.1500E+16
   -1.275009    2.86166  0.0000E+00  0.3189E-13  0.5206E-16  0.1000E-09  0.0000E+00  0.1393E+16
   -1.317509    2.94224  0.0000E+00  0.3189E-13  0.5206E-16  0.1000E-09  0.0000E+00  0.1350E+16
   -1.360009    3.02694  0.0000E+00  0.3189E-13  0.5206E-16  0.1000E-09  0.0000E+00  0.1321E+16
   -1.402509    3.11791  0.0000E+00  0.3189E-13  0.5206E-16  0.1000E-09  0.0000E+00  0.1222E+16
   -1.445008    3.21168  0.0000E+00  0.3275E-13  0.5344E-16  0.1000E-09  0.0000E+00  0.1057E+16
   -1.487507    3.30319  0.0000E+00  0.1680E-12  0.2656E-15  0.1000E-09  0.0000E+00  0.9272E+15
   -1.530006    3.39516  0.0000E+00  0.1113E-11  0.1727E-14  0.1000E-09  0.0000E+00  0.9609E+15
   -1.572505    3.50901  0.0000E+00  0.8514E-11  0.1295E-13  0.1000E-09  0.0000E+00  0.1180E+16
   -1.615003    3.70700  0.0000E+00  0.6912E-10  0.1027E-12  0.4918E-09  0.0000E+00  0.5967E+15
   -1.657501    3.94097  0.0000E+00  0.4576E-09  0.6758E-12  0.1172E-06  0.0000E+00 -0.3786E+14
   -1.699998    4.06938  0.0000E+00  0.0000E+00  0.0000E+00  0.0000E+00  0.0000E+00  0.0000E+00
