 1 - depth, m
 2 - temperature, C
 3 - salinity, kg/kg
 4 - turbulent kinetic energy, m**2/s**2
 5 - dissipation rate, m**2/s**3
 6 - kinematic heat conductance, m**2/s
 7 - modulus of horizontal velocity, m/s
 8 - Richardson number, n/d
   -0.000000    0.00000  0.0000E+00  0.3189E-13  0.5206E-16  0.1000E-09  0.0000E+00  0.8361E+16
   -0.042497    0.12760  0.0000E+00  0.3189E-13  0.5206E-16  0.1000E-09  0.0000E+00  0.8353E+16
   -0.084995    0.25974  0.0000E+00  0.3189E-13  0.5206E-16  0.1000E-09  0.0000E+00  0.8287E+16
   -0.127493    0.39595  0.0000E+00  0.3189E-13  0.5206E-16  0.1000E-09  0.0000E+00  0.7948E+16
   -0.169992    0.53196  0.0000E+00  0.3189E-13  0.5206E-16  0.1000E-09  0.0000E+00  0.7604E+16
   -0.212491    0.66761  0.0000E+00  0.3189E-13  0.5206E-16  0.1000E-09  0.0000E+00  0.7264E+16
   -0.254990    0.80290  0.0000E+00  0.3189E-13  0.5206E-16  0.1000E-09  0.0000E+00  0.6922E+16
   -0.297489    0.93772  0.0000E+00  0.3189E-13  0.5206E-16  0.1000E-09  0.0000E+00  0.6562E+16
   -0.339989    1.07158  0.0000E+00  0.3189E-13  0.5206E-16  0.1000E-09  0.0000E+00  0.6181E+16
   -0.382489    1.20385  0.0000E+00  0.3189E-13  0.5206E-16  0.1000E-09  0.0000E+00  0.5801E+16
   -0.424989    1.33428  0.0000E+00  0.3189E-13  0.5206E-16  0.1000E-09  0.0000E+00  0.5410E+16
   -0.467490    1.46226  0.0000E+00  0.3189E-13  0.5206E-16  0.1000E-09  0.0000E+00  0.5028E+16
   -0.509990    1.58760  0.0000E+00  0.3189E-13  0.5206E-16  0.1000E-09  0.0000E+00  0.4680E+16
   -0.552491    1.71071  0.0000E+00  0.3189E-13  0.5206E-16  0.1000E-09  0.0000E+00  0.4345E+16
   -0.594992    1.83155  0.0000E+00  0.3189E-13  0.5206E-16  0.1000E-09  0.0000E+00  0.4032E+16
   -0.637493    1.95031  0.0000E+00  0.3189E-13  0.5206E-16  0.1000E-09  0.0000E+00  0.3745E+16
   -0.679994    2.06744  0.0000E+00  0.3189E-13  0.5206E-16  0.1000E-09  0.0000E+00  0.3465E+16
   -0.722496    2.18279  0.0000E+00  0.3189E-13  0.5206E-16  0.1000E-09  0.0000E+00  0.3199E+16
   -0.764997    2.29647  0.0000E+00  0.3189E-13  0.5206E-16  0.1000E-09  0.0000E+00  0.2938E+16
   -0.807498    2.40831  0.0000E+00  0.3189E-13  0.5206E-16  0.1000E-09  0.0000E+00  0.2668E+16
   -0.850000    2.51741  0.0000E+00  0.3189E-13  0.5206E-16  0.1000E-09  0.0000E+00  0.2398E+16
   -0.892501    2.62310  0.0000E+00  0.3189E-13  0.5206E-16  0.1000E-09  0.0000E+00  0.2169E+16
   -0.935002    2.72647  0.0000E+00  0.3189E-13  0.5206E-16  0.1000E-09  0.0000E+00  0.1956E+16
   -0.977504    2.82779  0.0000E+00  0.3189E-13  0.5206E-16  0.1000E-09  0.0000E+00  0.1753E+16
   -1.020005    2.92693  0.0000E+00  0.3189E-13  0.5206E-16  0.1000E-09  0.0000E+00  0.1544E+16
   -1.062506    3.02285  0.0000E+00  0.3189E-13  0.5206E-16  0.1000E-09  0.0000E+00  0.1348E+16
   -1.105007    3.11528  0.0000E+00  0.3189E-13  0.5206E-16  0.1000E-09  0.0000E+00  0.1154E+16
   -1.147508    3.20318  0.0000E+00  0.3189E-13  0.5206E-16  0.1000E-09  0.0000E+00  0.9714E+15
   -1.190009    3.28579  0.0000E+00  0.3189E-13  0.5206E-16  0.1000E-09  0.0000E+00  0.8129E+15
   -1.232510    3.36340  0.0000E+00  0.3311E-13  0.5206E-16  0.1000E-09  0.0000E+00  0.6830E+15
   -1.275010    3.43710  0.0000E+00  0.1570E-12  0.1338E-15  0.1000E-09  0.0000E+00  0.5779E+15
   -1.317510    3.50836  0.0000E+00  0.6451E-12  0.5090E-15  0.1000E-09  0.0000E+00  0.5219E+15
   -1.360010    3.58348  0.0000E+00  0.2561E-11  0.1958E-14  0.1000E-09  0.0000E+00  0.4641E+15
   -1.402510    3.66481  0.0000E+00  0.1013E-10  0.7543E-14  0.1000E-09  0.0000E+00  0.3695E+15
   -1.445009    3.74884  0.0000E+00  0.3760E-10  0.2733E-13  0.3226E-09  0.0000E+00  0.2519E+15
   -1.487509    3.83031  0.0000E+00  0.1377E-09  0.9817E-13  0.1919E-08  0.0000E+00  0.1470E+15
   -1.530007    3.91146  0.0000E+00  0.5469E-09  0.3870E-12  0.2213E-07  0.0000E+00  0.4179E+14
   -1.572506    4.00292  0.0000E+00  0.2140E-08  0.1596E-11  0.1094E-05  0.0000E+00 -0.9853E+13
   -1.615004    4.02550  0.0000E+00  0.3848E-08  0.3979E-11  0.1348E-05  0.0000E+00 -0.1849E+14
   -1.657502    4.04874  0.0000E+00  0.4370E-08  0.9186E-11  0.6135E-06  0.0000E+00 -0.6791E+14
   -1.699999    4.09847  0.0000E+00  0.0000E+00  0.0000E+00  0.0000E+00  0.0000E+00  0.0000E+00
