 1 - depth, m
 2 - temperature, C
 3 - salinity, kg/kg
 4 - turbulent kinetic energy, m**2/s**2
 5 - dissipation rate, m**2/s**3
 6 - kinematic heat conductance, m**2/s
 7 - modulus of horizontal velocity, m/s
 8 - Richardson number, n/d
   -0.000000   11.98622  0.0000E+00  0.6697E-03  0.1008E-02  0.1148E-03  0.2925E+00 -0.6012E-03
   -0.042498   12.05158  0.0000E+00  0.3324E-03  0.2967E-03  0.2672E-03  0.6128E-01  0.1379E+00
   -0.084995   12.06218  0.0000E+00  0.2374E-03  0.1576E-03  0.2443E-03  0.3912E-01  0.1344E+00
   -0.127494   12.06915  0.0000E+00  0.1811E-03  0.9294E-04  0.2165E-03  0.3176E-01 -0.1898E+00
   -0.169992   12.07423  0.0000E+00  0.1385E-03  0.5414E-04  0.1990E-03  0.2653E-01 -0.4470E-01
   -0.212491   12.07851  0.0000E+00  0.1068E-03  0.3218E-04  0.1881E-03  0.2220E-01 -0.7215E-01
   -0.254991   12.08240  0.0000E+00  0.8218E-04  0.1784E-04  0.1837E-03  0.1871E-01 -0.8659E+00
   -0.297490   12.08620  0.0000E+00  0.6411E-04  0.9720E-05  0.1823E-03  0.1597E-01  0.1256E+00
   -0.339990   12.08997  0.0000E+00  0.5138E-04  0.5269E-05  0.1828E-03  0.1372E-01  0.2435E+00
   -0.382491   12.09344  0.0000E+00  0.4199E-04  0.2949E-05  0.1882E-03  0.1167E-01  0.1777E+01
   -0.424991   12.09642  0.0000E+00  0.3498E-04  0.1720E-05  0.1929E-03  0.1009E-01  0.4239E+01
   -0.467492   12.09924  0.0000E+00  0.2970E-04  0.1054E-05  0.2014E-03  0.8590E-02  0.1685E+01
   -0.509992   12.10178  0.0000E+00  0.2559E-04  0.6860E-06  0.2111E-03  0.7265E-02  0.1584E+03
   -0.552493   12.10416  0.0000E+00  0.2232E-04  0.4759E-06  0.2263E-03  0.6116E-02  0.1308E+02
   -0.594994   12.10628  0.0000E+00  0.1965E-04  0.3475E-06  0.2471E-03  0.5108E-02  0.5863E+02
   -0.637496   12.10819  0.0000E+00  0.1741E-04  0.2623E-06  0.2731E-03  0.4255E-02  0.4166E+02
   -0.679997   12.10986  0.0000E+00  0.1551E-04  0.2027E-06  0.3039E-03  0.3563E-02  0.4458E+02
   -0.722499   12.11137  0.0000E+00  0.1389E-04  0.1591E-06  0.3349E-03  0.2991E-02  0.1691E+02
   -0.765000   12.11271  0.0000E+00  0.1250E-04  0.1262E-06  0.3710E-03  0.2528E-02  0.2235E+03
   -0.807502   12.11391  0.0000E+00  0.1130E-04  0.1009E-06  0.4129E-03  0.2163E-02  0.2151E+03
   -0.850003   12.11499  0.0000E+00  0.1030E-04  0.8161E-07  0.4495E-03  0.1864E-02  0.3938E+02
   -0.892505   12.11594  0.0000E+00  0.9431E-05  0.6652E-07  0.4843E-03  0.1614E-02  0.2249E+04
   -0.935006   12.11681  0.0000E+00  0.8703E-05  0.5485E-07  0.5124E-03  0.1405E-02  0.6930E+02
   -0.977508   12.11760  0.0000E+00  0.8085E-05  0.4575E-07  0.5351E-03  0.1224E-02  0.2501E+02
   -1.020009   12.11834  0.0000E+00  0.7558E-05  0.3860E-07  0.5509E-03  0.1068E-02  0.2587E+02
   -1.062511   12.11903  0.0000E+00  0.7109E-05  0.3300E-07  0.5637E-03  0.9299E-03  0.4367E+02
   -1.105012   12.11970  0.0000E+00  0.6725E-05  0.2859E-07  0.5732E-03  0.8070E-03  0.3363E+02
   -1.147513   12.12033  0.0000E+00  0.6402E-05  0.2521E-07  0.5791E-03  0.6939E-03  0.7348E+01
   -1.190014   12.12095  0.0000E+00  0.6131E-05  0.2266E-07  0.5814E-03  0.5865E-03  0.7344E+01
   -1.232515   12.12154  0.0000E+00  0.5894E-05  0.2070E-07  0.5827E-03  0.4871E-03  0.1587E+02
   -1.275015   12.12213  0.0000E+00  0.5685E-05  0.1923E-07  0.5799E-03  0.4028E-03  0.8712E+01
   -1.317516   12.12271  0.0000E+00  0.5501E-05  0.1818E-07  0.5706E-03  0.3333E-03  0.1385E+02
   -1.360016   12.12329  0.0000E+00  0.5334E-05  0.1751E-07  0.5552E-03  0.2770E-03  0.1565E+02
   -1.402516   12.12389  0.0000E+00  0.5175E-05  0.1722E-07  0.5350E-03  0.2325E-03  0.2303E+02
   -1.445015   12.12450  0.0000E+00  0.5032E-05  0.1744E-07  0.5033E-03  0.1953E-03  0.3551E+02
   -1.487515   12.12516  0.0000E+00  0.4896E-05  0.1837E-07  0.4739E-03  0.1604E-03  0.5800E+02
   -1.530014   12.12588  0.0000E+00  0.4734E-05  0.2088E-07  0.4099E-03  0.1271E-03 -0.2503E+03
   -1.572512   12.12687  0.0000E+00  0.4487E-05  0.2731E-07  0.3868E-03  0.9403E-04  0.6453E+03
   -1.615011   12.12771  0.0000E+00  0.3860E-05  0.5655E-07  0.2088E-03  0.7438E-04 -0.1452E+06
   -1.657509   12.13173  0.0000E+00  0.2485E-05  0.1610E-06  0.5148E-04  0.5038E-04 -0.1182E+08
   -1.700006   12.14057  0.0000E+00  0.0000E+00  0.0000E+00  0.0000E+00  0.6453E-04  0.0000E+00
