 1 - depth, m
 2 - temperature, C
 3 - salinity, kg/kg
 4 - turbulent kinetic energy, m**2/s**2
 5 - dissipation rate, m**2/s**3
 6 - kinematic heat conductance, m**2/s
 7 - modulus of horizontal velocity, m/s
 8 - Richardson number, n/d
   -0.000000    0.00000  0.0000E+00  0.3189E-13  0.5206E-16  0.1000E-09  0.0000E+00  0.9381E+16
   -0.042497    0.14348  0.0000E+00  0.3189E-13  0.5206E-16  0.1000E-09  0.0000E+00  0.9387E+16
   -0.084995    0.29301  0.0000E+00  0.3189E-13  0.5206E-16  0.1000E-09  0.0000E+00  0.9315E+16
   -0.127494    0.44804  0.0000E+00  0.3189E-13  0.5206E-16  0.1000E-09  0.0000E+00  0.8882E+16
   -0.169992    0.60290  0.0000E+00  0.3189E-13  0.5206E-16  0.1000E-09  0.0000E+00  0.8445E+16
   -0.212491    0.75742  0.0000E+00  0.3189E-13  0.5206E-16  0.1000E-09  0.0000E+00  0.8008E+16
   -0.254990    0.91152  0.0000E+00  0.3189E-13  0.5206E-16  0.1000E-09  0.0000E+00  0.7570E+16
   -0.297490    1.06505  0.0000E+00  0.3189E-13  0.5206E-16  0.1000E-09  0.0000E+00  0.7124E+16
   -0.339990    1.21771  0.0000E+00  0.3189E-13  0.5206E-16  0.1000E-09  0.0000E+00  0.6672E+16
   -0.382490    1.36913  0.0000E+00  0.3189E-13  0.5206E-16  0.1000E-09  0.0000E+00  0.6223E+16
   -0.424990    1.51913  0.0000E+00  0.3189E-13  0.5206E-16  0.1000E-09  0.0000E+00  0.5776E+16
   -0.467491    1.66737  0.0000E+00  0.4753E-13  0.5206E-16  0.1000E-09  0.0000E+00  0.5338E+16
   -0.509991    1.81373  0.0000E+00  0.1457E-12  0.5395E-16  0.1000E-09  0.0000E+00  0.4933E+16
   -0.552492    1.95870  0.0000E+00  0.3786E-12  0.7287E-16  0.1000E-09  0.0000E+00  0.4540E+16
   -0.594993    2.10230  0.0000E+00  0.7967E-12  0.1258E-15  0.1000E-09  0.0000E+00  0.4162E+16
   -0.637494    2.24468  0.0000E+00  0.1552E-11  0.2285E-15  0.1000E-09  0.0000E+00  0.3803E+16
   -0.679996    2.38612  0.0000E+00  0.2926E-11  0.4170E-15  0.1000E-09  0.0000E+00  0.3448E+16
   -0.722497    2.52653  0.0000E+00  0.5454E-11  0.7612E-15  0.1000E-09  0.0000E+00  0.3104E+16
   -0.764998    2.66593  0.0000E+00  0.1014E-10  0.1390E-14  0.1000E-09  0.0000E+00  0.2764E+16
   -0.807500    2.80415  0.0000E+00  0.1878E-10  0.2536E-14  0.1000E-09  0.0000E+00  0.2421E+16
   -0.850001    2.94045  0.0000E+00  0.3439E-10  0.4574E-14  0.1000E-09  0.0000E+00  0.2084E+16
   -0.892503    3.07423  0.0000E+00  0.6273E-10  0.8223E-14  0.1000E-09  0.0000E+00  0.1777E+16
   -0.935004    3.20656  0.0000E+00  0.1133E-09  0.1464E-13  0.1000E-09  0.0000E+00  0.1484E+16
   -0.977506    3.33770  0.0000E+00  0.2036E-09  0.2595E-13  0.1000E-09  0.0000E+00  0.1198E+16
   -1.020007    3.46750  0.0000E+00  0.3640E-09  0.4577E-13  0.1583E-09  0.0000E+00  0.9142E+15
   -1.062508    3.59481  0.0000E+00  0.6478E-09  0.8035E-13  0.3925E-09  0.0000E+00  0.6435E+15
   -1.105009    3.71888  0.0000E+00  0.1149E-08  0.1406E-12  0.1133E-08  0.0000E+00  0.3876E+15
   -1.147510    3.83752  0.0000E+00  0.2012E-08  0.2430E-12  0.4658E-08  0.0000E+00  0.1606E+15
   -1.190011    3.94628  0.0000E+00  0.3340E-08  0.4010E-12  0.2877E-06  0.0000E+00  0.1196E+14
   -1.232512    4.00136  0.0000E+00  0.3985E-08  0.4827E-12  0.1323E-04  0.0000E+00 -0.2594E+12
   -1.275013    4.00253  0.0000E+00  0.4329E-08  0.5350E-12  0.1382E-04  0.0000E+00 -0.2701E+12
   -1.317513    4.00363  0.0000E+00  0.4651E-08  0.5947E-12  0.1441E-04  0.0000E+00 -0.2915E+12
   -1.360013    4.00472  0.0000E+00  0.4955E-08  0.6654E-12  0.1473E-04  0.0000E+00 -0.3244E+12
   -1.402513    4.00586  0.0000E+00  0.5247E-08  0.7539E-12  0.1426E-04  0.0000E+00 -0.3699E+12
   -1.445012    4.00707  0.0000E+00  0.5500E-08  0.8596E-12  0.1303E-04  0.0000E+00 -0.4297E+12
   -1.487512    4.00839  0.0000E+00  0.5719E-08  0.9959E-12  0.1161E-04  0.0000E+00 -0.5241E+12
   -1.530011    4.00989  0.0000E+00  0.5939E-08  0.1215E-11  0.1052E-04  0.0000E+00 -0.7366E+12
   -1.572509    4.01184  0.0000E+00  0.6172E-08  0.1670E-11  0.9706E-05  0.0000E+00 -0.1389E+13
   -1.615007    4.01516  0.0000E+00  0.6181E-08  0.3174E-11  0.4132E-05  0.0000E+00 -0.4549E+13
   -1.657505    4.02393  0.0000E+00  0.5020E-08  0.8621E-11  0.7053E-06  0.0000E+00 -0.3869E+14
   -1.700003    4.06603  0.0000E+00  0.0000E+00  0.0000E+00  0.0000E+00  0.0000E+00  0.0000E+00
