 1 - depth, m
 2 - temperature, C
 3 - salinity, kg/kg
 4 - turbulent kinetic energy, m**2/s**2
 5 - dissipation rate, m**2/s**3
 6 - kinematic heat conductance, m**2/s
 7 - modulus of horizontal velocity, m/s
 8 - Richardson number, n/d
   -0.000000   10.20181  0.0000E+00  0.4826E-04  0.4185E-04  0.3232E-04  0.4037E-01  0.2458E-02
   -0.042497   10.24987  0.0000E+00  0.2913E-04  0.2785E-04  0.5533E-04  0.1499E-01 -0.3658E-01
   -0.084995   10.26558  0.0000E+00  0.2154E-04  0.2129E-04  0.6276E-04  0.1002E-01 -0.1771E+00
   -0.127493   10.27714  0.0000E+00  0.1629E-04  0.1065E-04  0.7291E-04  0.7212E-02 -0.1316E+00
   -0.169991   10.28629  0.0000E+00  0.1255E-04  0.2903E-05  0.8735E-04  0.5312E-02 -0.2357E+00
   -0.212490   10.29374  0.0000E+00  0.1007E-04  0.7027E-06  0.1197E-03  0.3958E-02  0.4389E+00
   -0.254989   10.29942  0.0000E+00  0.8458E-05  0.2564E-06  0.2141E-03  0.3028E-02  0.4619E+03
   -0.297489   10.30315  0.0000E+00  0.7411E-05  0.1328E-06  0.2724E-03  0.2448E-02  0.1286E+02
   -0.339988   10.30604  0.0000E+00  0.6720E-05  0.8599E-07  0.3084E-03  0.2048E-02  0.3504E+02
   -0.382488   10.30844  0.0000E+00  0.6251E-05  0.5996E-07  0.3504E-03  0.1725E-02  0.5999E+01
   -0.424988   10.31049  0.0000E+00  0.5944E-05  0.4436E-07  0.3955E-03  0.1469E-02  0.5338E+01
   -0.467489   10.31218  0.0000E+00  0.5747E-05  0.3441E-07  0.4426E-03  0.1253E-02  0.1795E+01
   -0.509989   10.31369  0.0000E+00  0.5624E-05  0.2777E-07  0.4911E-03  0.1062E-02  0.1876E+01
   -0.552490   10.31501  0.0000E+00  0.5551E-05  0.2315E-07  0.5396E-03  0.8950E-03  0.1428E+02
   -0.594991   10.31621  0.0000E+00  0.5511E-05  0.1988E-07  0.5877E-03  0.7468E-03  0.3794E+01
   -0.637492   10.31731  0.0000E+00  0.5490E-05  0.1751E-07  0.6355E-03  0.6188E-03  0.1746E+01
   -0.679993   10.31830  0.0000E+00  0.5483E-05  0.1577E-07  0.6807E-03  0.5142E-03  0.1703E+01
   -0.722494   10.31921  0.0000E+00  0.5483E-05  0.1448E-07  0.7221E-03  0.4295E-03  0.4906E+01
   -0.764995   10.32005  0.0000E+00  0.5489E-05  0.1352E-07  0.7584E-03  0.3633E-03  0.1858E+01
   -0.807497   10.32082  0.0000E+00  0.5500E-05  0.1280E-07  0.7877E-03  0.3131E-03  0.1124E+01
   -0.849998   10.32156  0.0000E+00  0.5512E-05  0.1229E-07  0.8103E-03  0.2739E-03  0.1099E+01
   -0.892499   10.32227  0.0000E+00  0.5527E-05  0.1190E-07  0.8283E-03  0.2426E-03  0.1142E+01
   -0.935001   10.32297  0.0000E+00  0.5543E-05  0.1163E-07  0.8429E-03  0.2169E-03  0.1261E+01
   -0.977502   10.32366  0.0000E+00  0.5559E-05  0.1144E-07  0.8542E-03  0.1950E-03  0.1407E+01
   -1.020003   10.32434  0.0000E+00  0.5576E-05  0.1133E-07  0.8619E-03  0.1762E-03  0.1613E+01
   -1.062504   10.32503  0.0000E+00  0.5592E-05  0.1128E-07  0.8655E-03  0.1594E-03  0.1838E+01
   -1.105005   10.32573  0.0000E+00  0.5606E-05  0.1129E-07  0.8651E-03  0.1443E-03  0.2115E+01
   -1.147506   10.32645  0.0000E+00  0.5617E-05  0.1136E-07  0.8604E-03  0.1301E-03  0.2442E+01
   -1.190007   10.32719  0.0000E+00  0.5624E-05  0.1148E-07  0.8513E-03  0.1167E-03  0.2757E+01
   -1.232507   10.32796  0.0000E+00  0.5626E-05  0.1166E-07  0.8371E-03  0.1040E-03  0.3173E+01
   -1.275008   10.32875  0.0000E+00  0.5622E-05  0.1192E-07  0.8170E-03  0.9252E-04  0.3996E+01
   -1.317508   10.32958  0.0000E+00  0.5612E-05  0.1230E-07  0.7898E-03  0.8204E-04  0.5204E+01
   -1.360008   10.33044  0.0000E+00  0.5592E-05  0.1283E-07  0.7528E-03  0.7251E-04  0.6943E+01
   -1.402507   10.33135  0.0000E+00  0.5561E-05  0.1361E-07  0.7068E-03  0.6383E-04  0.1016E+02
   -1.445007   10.33234  0.0000E+00  0.5519E-05  0.1467E-07  0.6454E-03  0.5568E-04  0.1552E+02
   -1.487506   10.33346  0.0000E+00  0.5464E-05  0.1614E-07  0.6010E-03  0.4740E-04  0.2013E+02
   -1.530005   10.33468  0.0000E+00  0.5382E-05  0.1873E-07  0.4763E-03  0.3937E-04  0.2647E+02
   -1.572503   10.33635  0.0000E+00  0.5230E-05  0.2466E-07  0.5638E-03  0.3100E-04  0.2569E+04
   -1.615001   10.33762  0.0000E+00  0.4613E-05  0.5454E-07  0.1953E-03  0.2654E-04 -0.1182E+09
   -1.657499   10.34843  0.0000E+00  0.2994E-05  0.1694E-06  0.7110E-04  0.1669E-04 -0.1159E+05
   -1.699996   10.35915  0.0000E+00  0.0000E+00  0.0000E+00  0.0000E+00  0.2025E-04  0.0000E+00
