 1 - depth, m
 2 - temperature, C
 3 - salinity, kg/kg
 4 - turbulent kinetic energy, m**2/s**2
 5 - dissipation rate, m**2/s**3
 6 - kinematic heat conductance, m**2/s
 7 - modulus of horizontal velocity, m/s
 8 - Richardson number, n/d
   -0.000000    0.00000  0.0000E+00  0.3993E-12  0.8400E-16  0.1000E-09  0.0000E+00  0.2177E+17
   -0.042496    0.34214  0.0000E+00  0.6054E-12  0.8342E-16  0.1000E-09  0.0000E+00  0.1899E+17
   -0.084993    0.67130  0.0000E+00  0.1026E-11  0.1094E-15  0.1000E-09  0.0000E+00  0.1646E+17
   -0.127490    0.98742  0.0000E+00  0.1737E-11  0.1637E-15  0.1000E-09  0.0000E+00  0.1394E+17
   -0.169987    1.28566  0.0000E+00  0.2887E-11  0.2563E-15  0.1000E-09  0.0000E+00  0.1174E+17
   -0.212485    1.56643  0.0000E+00  0.4735E-11  0.4069E-15  0.1000E-09  0.0000E+00  0.9820E+16
   -0.254983    1.83054  0.0000E+00  0.7709E-11  0.6481E-15  0.1000E-09  0.0000E+00  0.8148E+16
   -0.297481    2.07832  0.0000E+00  0.1250E-10  0.1033E-14  0.1000E-09  0.0000E+00  0.6667E+16
   -0.339979    2.30902  0.0000E+00  0.2004E-10  0.1631E-14  0.1000E-09  0.0000E+00  0.5365E+16
   -0.382478    2.52161  0.0000E+00  0.3193E-10  0.2562E-14  0.1000E-09  0.0000E+00  0.4264E+16
   -0.424977    2.71637  0.0000E+00  0.5053E-10  0.3998E-14  0.1000E-09  0.0000E+00  0.3334E+16
   -0.467477    2.89314  0.0000E+00  0.7949E-10  0.6204E-14  0.1000E-09  0.0000E+00  0.2572E+16
   -0.509976    3.05252  0.0000E+00  0.1246E-09  0.9597E-14  0.1000E-09  0.0000E+00  0.1994E+16
   -0.552476    3.19835  0.0000E+00  0.1951E-09  0.1482E-13  0.1000E-09  0.0000E+00  0.1525E+16
   -0.594975    3.33182  0.0000E+00  0.3047E-09  0.2285E-13  0.1000E-09  0.0000E+00  0.1150E+16
   -0.637475    3.45439  0.0000E+00  0.4792E-09  0.3547E-13  0.1308E-09  0.0000E+00  0.8524E+15
   -0.679975    3.56806  0.0000E+00  0.7566E-09  0.5528E-13  0.2861E-09  0.0000E+00  0.6070E+15
   -0.722475    3.67343  0.0000E+00  0.1199E-08  0.8652E-13  0.6661E-09  0.0000E+00  0.4079E+15
   -0.764976    3.77172  0.0000E+00  0.1909E-08  0.1360E-12  0.1753E-08  0.0000E+00  0.2434E+15
   -0.807476    3.86360  0.0000E+00  0.3037E-08  0.2138E-12  0.6315E-08  0.0000E+00  0.1063E+15
   -0.849976    3.94761  0.0000E+00  0.4621E-08  0.3229E-12  0.1033E-06  0.0000E+00  0.1078E+14
   -0.892476    3.99794  0.0000E+00  0.4996E-08  0.3505E-12  0.2677E-04  0.0000E+00 -0.8310E+11
   -0.934976    3.99839  0.0000E+00  0.5185E-08  0.3665E-12  0.2869E-04  0.0000E+00 -0.8211E+11
   -0.977476    3.99882  0.0000E+00  0.5357E-08  0.3830E-12  0.2968E-04  0.0000E+00 -0.8403E+11
   -1.019977    3.99924  0.0000E+00  0.5516E-08  0.4003E-12  0.3000E-04  0.0000E+00 -0.8683E+11
   -1.062477    3.99966  0.0000E+00  0.5663E-08  0.4188E-12  0.3014E-04  0.0000E+00 -0.9033E+11
   -1.104976    4.00009  0.0000E+00  0.5803E-08  0.4393E-12  0.2990E-04  0.0000E+00 -0.9375E+11
   -1.147476    4.00051  0.0000E+00  0.5937E-08  0.4621E-12  0.2930E-04  0.0000E+00 -0.9741E+11
   -1.189976    4.00094  0.0000E+00  0.6066E-08  0.4882E-12  0.2862E-04  0.0000E+00 -0.1031E+12
   -1.232475    4.00139  0.0000E+00  0.6193E-08  0.5191E-12  0.2829E-04  0.0000E+00 -0.1138E+12
   -1.274975    4.00186  0.0000E+00  0.6317E-08  0.5559E-12  0.2772E-04  0.0000E+00 -0.1274E+12
   -1.317474    4.00238  0.0000E+00  0.6441E-08  0.6018E-12  0.2666E-04  0.0000E+00 -0.1445E+12
   -1.359972    4.00294  0.0000E+00  0.6566E-08  0.6618E-12  0.2518E-04  0.0000E+00 -0.1706E+12
   -1.402471    4.00358  0.0000E+00  0.6696E-08  0.7458E-12  0.2226E-04  0.0000E+00 -0.2096E+12
   -1.444969    4.00434  0.0000E+00  0.6818E-08  0.8568E-12  0.1849E-04  0.0000E+00 -0.2632E+12
   -1.487467    4.00525  0.0000E+00  0.6936E-08  0.1011E-11  0.1527E-04  0.0000E+00 -0.3448E+12
   -1.529965    4.00638  0.0000E+00  0.7078E-08  0.1274E-11  0.1301E-04  0.0000E+00 -0.5354E+12
   -1.572462    4.00802  0.0000E+00  0.7270E-08  0.1862E-11  0.1130E-04  0.0000E+00 -0.1188E+13
   -1.614959    4.01127  0.0000E+00  0.7339E-08  0.4127E-11  0.4236E-05  0.0000E+00 -0.5166E+13
   -1.657456    4.02212  0.0000E+00  0.6572E-08  0.1270E-10  0.8966E-06  0.0000E+00 -0.5274E+14
   -1.699952    4.07587  0.0000E+00  0.0000E+00  0.0000E+00  0.0000E+00  0.0000E+00  0.0000E+00
