 1 - depth, m
 2 - temperature, C
 3 - salinity, kg/kg
 4 - turbulent kinetic energy, m**2/s**2
 5 - dissipation rate, m**2/s**3
 6 - kinematic heat conductance, m**2/s
 7 - modulus of horizontal velocity, m/s
 8 - Richardson number, n/d
   -0.000000   16.89018  0.0000E+00  0.4601E-04  0.1097E-04  0.3557E-04  0.4206E-01 -0.7443E+00
   -0.042497   16.94264  0.0000E+00  0.2574E-04  0.3002E-05  0.7038E-04  0.1317E-01  0.1969E+04
   -0.084995   16.95416  0.0000E+00  0.1848E-04  0.1294E-05  0.9328E-04  0.8883E-02  0.4404E+02
   -0.127493   16.96188  0.0000E+00  0.1396E-04  0.6251E-06  0.1217E-03  0.6502E-02  0.2497E+03
   -0.169992   16.96793  0.0000E+00  0.1099E-04  0.3250E-06  0.1542E-03  0.4852E-02  0.1126E+03
   -0.212491   16.97290  0.0000E+00  0.8988E-05  0.1792E-06  0.1946E-03  0.3639E-02  0.3197E+02
   -0.254990   16.97691  0.0000E+00  0.7696E-05  0.1055E-06  0.2470E-03  0.2766E-02  0.1736E+02
   -0.297489   16.98000  0.0000E+00  0.6920E-05  0.6741E-07  0.3054E-03  0.2168E-02  0.3817E+02
   -0.339989   16.98228  0.0000E+00  0.6502E-05  0.4750E-07  0.3634E-03  0.1757E-02  0.1149E+02
   -0.382489   16.98396  0.0000E+00  0.6303E-05  0.3664E-07  0.4190E-03  0.1461E-02  0.1077E+02
   -0.424989   16.98525  0.0000E+00  0.6235E-05  0.3031E-07  0.4727E-03  0.1240E-02  0.4258E+03
   -0.467490   16.98631  0.0000E+00  0.6238E-05  0.2623E-07  0.5254E-03  0.1059E-02  0.2629E+01
   -0.509991   16.98724  0.0000E+00  0.6279E-05  0.2334E-07  0.5779E-03  0.9014E-03  0.2106E+01
   -0.552491   16.98806  0.0000E+00  0.6339E-05  0.2119E-07  0.6288E-03  0.7622E-03  0.2123E+01
   -0.594992   16.98882  0.0000E+00  0.6404E-05  0.1955E-07  0.6791E-03  0.6386E-03  0.2128E+01
   -0.637493   16.98951  0.0000E+00  0.6469E-05  0.1828E-07  0.7311E-03  0.5321E-03  0.2047E+01
   -0.679995   16.99014  0.0000E+00  0.6530E-05  0.1729E-07  0.7823E-03  0.4448E-03  0.2059E+01
   -0.722496   16.99071  0.0000E+00  0.6585E-05  0.1655E-07  0.8296E-03  0.3747E-03  0.2039E+01
   -0.764997   16.99124  0.0000E+00  0.6634E-05  0.1598E-07  0.8676E-03  0.3202E-03  0.2117E+01
   -0.807499   16.99173  0.0000E+00  0.6677E-05  0.1557E-07  0.8968E-03  0.2788E-03  0.2232E+01
   -0.850000   16.99221  0.0000E+00  0.6714E-05  0.1528E-07  0.9195E-03  0.2464E-03  0.2461E+01
   -0.892501   16.99266  0.0000E+00  0.6746E-05  0.1509E-07  0.9363E-03  0.2205E-03  0.2632E+01
   -0.935003   16.99311  0.0000E+00  0.6774E-05  0.1498E-07  0.9477E-03  0.1993E-03  0.3007E+01
   -0.977504   16.99355  0.0000E+00  0.6797E-05  0.1495E-07  0.9542E-03  0.1815E-03  0.3253E+01
   -1.020006   16.99399  0.0000E+00  0.6816E-05  0.1498E-07  0.9562E-03  0.1660E-03  0.3750E+01
   -1.062507   16.99444  0.0000E+00  0.6831E-05  0.1507E-07  0.9536E-03  0.1523E-03  0.4077E+01
   -1.105008   16.99490  0.0000E+00  0.6841E-05  0.1522E-07  0.9465E-03  0.1396E-03  0.4682E+01
   -1.147509   16.99538  0.0000E+00  0.6845E-05  0.1544E-07  0.9343E-03  0.1276E-03  0.5174E+01
   -1.190010   16.99587  0.0000E+00  0.6842E-05  0.1573E-07  0.9170E-03  0.1159E-03  0.5850E+01
   -1.232510   16.99639  0.0000E+00  0.6830E-05  0.1612E-07  0.8937E-03  0.1046E-03  0.6502E+01
   -1.275011   16.99693  0.0000E+00  0.6807E-05  0.1666E-07  0.8618E-03  0.9394E-04  0.8269E+01
   -1.317511   16.99750  0.0000E+00  0.6770E-05  0.1741E-07  0.8247E-03  0.8396E-04  0.1052E+02
   -1.360011   16.99810  0.0000E+00  0.6716E-05  0.1849E-07  0.7684E-03  0.7463E-04  0.1443E+02
   -1.402511   16.99877  0.0000E+00  0.6636E-05  0.2015E-07  0.7206E-03  0.6595E-04  0.2124E+02
   -1.445010   16.99949  0.0000E+00  0.6532E-05  0.2267E-07  0.6352E-03  0.5777E-04  0.4282E+02
   -1.487509   17.00042  0.0000E+00  0.6392E-05  0.2652E-07  0.5998E-03  0.4859E-04  0.1486E+04
   -1.530008   17.00147  0.0000E+00  0.6167E-05  0.3439E-07  0.4705E-03  0.3967E-04 -0.1393E+04
   -1.572507   17.00363  0.0000E+00  0.5786E-05  0.5216E-07  0.5143E-03  0.2902E-04  0.4956E+06
   -1.615005   17.00425  0.0000E+00  0.4840E-05  0.1309E-06  0.2066E-03  0.2373E-04 -0.7490E+06
   -1.657503   17.01450  0.0000E+00  0.3221E-05  0.3687E-06  0.9792E-04  0.1484E-04 -0.5741E+06
   -1.700000   17.02047  0.0000E+00  0.0000E+00  0.0000E+00  0.0000E+00  0.2078E-04  0.0000E+00
