 1 - depth, m
 2 - temperature, C
 3 - salinity, kg/kg
 4 - turbulent kinetic energy, m**2/s**2
 5 - dissipation rate, m**2/s**3
 6 - kinematic heat conductance, m**2/s
 7 - modulus of horizontal velocity, m/s
 8 - Richardson number, n/d
   -0.000000    0.00000  0.0000E+00  0.2006E-07  0.6319E-10  0.2453E-08  0.0000E+00  0.8080E+17
   -0.042498    1.51413  0.0000E+00  0.1643E-06  0.5399E-10  0.4154E-08  0.0000E+00  0.4098E+17
   -0.084995    2.97101  0.0000E+00  0.4490E-06  0.8361E-10  0.3385E-07  0.0000E+00  0.7936E+16
   -0.127494    4.16015  0.0000E+00  0.4512E-06  0.8394E-10  0.7605E-03  0.0000E+00 -0.7527E+12
   -0.169992    4.16042  0.0000E+00  0.4523E-06  0.8412E-10  0.7518E-03  0.0000E+00 -0.7199E+12
   -0.212491    4.16068  0.0000E+00  0.4533E-06  0.8433E-10  0.7535E-03  0.0000E+00 -0.7059E+12
   -0.254991    4.16094  0.0000E+00  0.4542E-06  0.8456E-10  0.7546E-03  0.0000E+00 -0.6974E+12
   -0.297490    4.16120  0.0000E+00  0.4551E-06  0.8483E-10  0.7553E-03  0.0000E+00 -0.6872E+12
   -0.339990    4.16145  0.0000E+00  0.4559E-06  0.8512E-10  0.7555E-03  0.0000E+00 -0.6814E+12
   -0.382490    4.16170  0.0000E+00  0.4566E-06  0.8544E-10  0.7552E-03  0.0000E+00 -0.6751E+12
   -0.424991    4.16195  0.0000E+00  0.4572E-06  0.8579E-10  0.7544E-03  0.0000E+00 -0.6714E+12
   -0.467491    4.16219  0.0000E+00  0.4578E-06  0.8618E-10  0.7531E-03  0.0000E+00 -0.6673E+12
   -0.509992    4.16244  0.0000E+00  0.4583E-06  0.8660E-10  0.7513E-03  0.0000E+00 -0.6635E+12
   -0.552493    4.16268  0.0000E+00  0.4587E-06  0.8706E-10  0.7490E-03  0.0000E+00 -0.6585E+12
   -0.594994    4.16292  0.0000E+00  0.4591E-06  0.8756E-10  0.7460E-03  0.0000E+00 -0.6571E+12
   -0.637495    4.16316  0.0000E+00  0.4593E-06  0.8812E-10  0.7424E-03  0.0000E+00 -0.6547E+12
   -0.679997    4.16339  0.0000E+00  0.4596E-06  0.8876E-10  0.7381E-03  0.0000E+00 -0.6553E+12
   -0.722498    4.16363  0.0000E+00  0.4598E-06  0.8950E-10  0.7329E-03  0.0000E+00 -0.6561E+12
   -0.765000    4.16387  0.0000E+00  0.4599E-06  0.9034E-10  0.7266E-03  0.0000E+00 -0.6602E+12
   -0.807501    4.16411  0.0000E+00  0.4600E-06  0.9133E-10  0.7194E-03  0.0000E+00 -0.6639E+12
   -0.850003    4.16435  0.0000E+00  0.4600E-06  0.9244E-10  0.7111E-03  0.0000E+00 -0.6715E+12
   -0.892504    4.16459  0.0000E+00  0.4599E-06  0.9371E-10  0.7018E-03  0.0000E+00 -0.6778E+12
   -0.935006    4.16483  0.0000E+00  0.4598E-06  0.9513E-10  0.6916E-03  0.0000E+00 -0.6862E+12
   -0.977507    4.16508  0.0000E+00  0.4596E-06  0.9668E-10  0.7206E-03  0.0000E+00 -0.6331E+12
   -1.020009    4.16532  0.0000E+00  0.4594E-06  0.9840E-10  0.6558E-03  0.0000E+00 -0.7447E+12
   -1.062510    4.16557  0.0000E+00  0.4591E-06  0.1003E-09  0.6984E-03  0.0000E+00 -0.6547E+12
   -1.105011    4.16582  0.0000E+00  0.4588E-06  0.1024E-09  0.6267E-03  0.0000E+00 -0.7771E+12
   -1.147512    4.16609  0.0000E+00  0.4584E-06  0.1047E-09  0.6716E-03  0.0000E+00 -0.6814E+12
   -1.190013    4.16634  0.0000E+00  0.4579E-06  0.1072E-09  0.5954E-03  0.0000E+00 -0.8166E+12
   -1.232514    4.16662  0.0000E+00  0.4574E-06  0.1102E-09  0.5927E-03  0.0000E+00 -0.8006E+12
   -1.275015    4.16690  0.0000E+00  0.4568E-06  0.1139E-09  0.5747E-03  0.0000E+00 -0.8257E+12
   -1.317515    4.16720  0.0000E+00  0.4560E-06  0.1185E-09  0.5521E-03  0.0000E+00 -0.8627E+12
   -1.360015    4.16750  0.0000E+00  0.4551E-06  0.1244E-09  0.5234E-03  0.0000E+00 -0.9137E+12
   -1.402515    4.16783  0.0000E+00  0.4540E-06  0.1322E-09  0.5568E-03  0.0000E+00 -0.8395E+12
   -1.445015    4.16813  0.0000E+00  0.4527E-06  0.1416E-09  0.4343E-03  0.0000E+00 -0.1129E+13
   -1.487514    4.16852  0.0000E+00  0.4513E-06  0.1534E-09  0.4210E-03  0.0000E+00 -0.1146E+13
   -1.530013    4.16892  0.0000E+00  0.4494E-06  0.1723E-09  0.3809E-03  0.0000E+00 -0.1269E+13
   -1.572512    4.16937  0.0000E+00  0.4459E-06  0.2134E-09  0.3013E-03  0.0000E+00 -0.1664E+13
   -1.615010    4.16995  0.0000E+00  0.4347E-06  0.3605E-09  0.2077E-03  0.0000E+00 -0.2522E+13
   -1.657508    4.17083  0.0000E+00  0.3178E-06  0.2232E-08  0.5933E-05  0.0000E+00 -0.9819E+14
   -1.700006    4.20230  0.0000E+00  0.0000E+00  0.0000E+00  0.0000E+00  0.0000E+00  0.0000E+00
