 1 - depth, m
 2 - temperature, C
 3 - salinity, kg/kg
 4 - turbulent kinetic energy, m**2/s**2
 5 - dissipation rate, m**2/s**3
 6 - kinematic heat conductance, m**2/s
 7 - modulus of horizontal velocity, m/s
 8 - Richardson number, n/d
   -0.000000    0.00000  0.0000E+00  0.3189E-13  0.5206E-16  0.1000E-09  0.0000E+00  0.6568E+16
   -0.042497    0.09986  0.0000E+00  0.3189E-13  0.5206E-16  0.1000E-09  0.0000E+00  0.6624E+16
   -0.084995    0.20342  0.0000E+00  0.3189E-13  0.5206E-16  0.1000E-09  0.0000E+00  0.6643E+16
   -0.127493    0.31041  0.0000E+00  0.3189E-13  0.5206E-16  0.1000E-09  0.0000E+00  0.6464E+16
   -0.169992    0.41780  0.0000E+00  0.3189E-13  0.5206E-16  0.1000E-09  0.0000E+00  0.6282E+16
   -0.212491    0.52554  0.0000E+00  0.3189E-13  0.5206E-16  0.1000E-09  0.0000E+00  0.6103E+16
   -0.254990    0.63374  0.0000E+00  0.3189E-13  0.5206E-16  0.1000E-09  0.0000E+00  0.5925E+16
   -0.297490    0.74243  0.0000E+00  0.3189E-13  0.5206E-16  0.1000E-09  0.0000E+00  0.5725E+16
   -0.339989    0.85124  0.0000E+00  0.3189E-13  0.5206E-16  0.1000E-09  0.0000E+00  0.5497E+16
   -0.382489    0.95958  0.0000E+00  0.3189E-13  0.5206E-16  0.1000E-09  0.0000E+00  0.5265E+16
   -0.424990    1.06732  0.0000E+00  0.3189E-13  0.5206E-16  0.1000E-09  0.0000E+00  0.5010E+16
   -0.467490    1.17386  0.0000E+00  0.3189E-13  0.5206E-16  0.1000E-09  0.0000E+00  0.4756E+16
   -0.509991    1.27906  0.0000E+00  0.3189E-13  0.5206E-16  0.1000E-09  0.0000E+00  0.4520E+16
   -0.552492    1.38316  0.0000E+00  0.3189E-13  0.5206E-16  0.1000E-09  0.0000E+00  0.4288E+16
   -0.594993    1.48611  0.0000E+00  0.3189E-13  0.5206E-16  0.1000E-09  0.0000E+00  0.4074E+16
   -0.637494    1.58820  0.0000E+00  0.3189E-13  0.5206E-16  0.1000E-09  0.0000E+00  0.3887E+16
   -0.679995    1.69000  0.0000E+00  0.3189E-13  0.5206E-16  0.1000E-09  0.0000E+00  0.3702E+16
   -0.722497    1.79150  0.0000E+00  0.3189E-13  0.5206E-16  0.1000E-09  0.0000E+00  0.3530E+16
   -0.764998    1.89303  0.0000E+00  0.3189E-13  0.5206E-16  0.1000E-09  0.0000E+00  0.3360E+16
   -0.807499    1.99467  0.0000E+00  0.3189E-13  0.5206E-16  0.1000E-09  0.0000E+00  0.3165E+16
   -0.850001    2.09556  0.0000E+00  0.3189E-13  0.5206E-16  0.1000E-09  0.0000E+00  0.2957E+16
   -0.892502    2.19512  0.0000E+00  0.3189E-13  0.5206E-16  0.1000E-09  0.0000E+00  0.2774E+16
   -0.935004    2.29399  0.0000E+00  0.3189E-13  0.5206E-16  0.1000E-09  0.0000E+00  0.2589E+16
   -0.977505    2.39195  0.0000E+00  0.3189E-13  0.5206E-16  0.1000E-09  0.0000E+00  0.2408E+16
   -1.020006    2.48897  0.0000E+00  0.3189E-13  0.5206E-16  0.1000E-09  0.0000E+00  0.2209E+16
   -1.062508    2.58399  0.0000E+00  0.3189E-13  0.5206E-16  0.1000E-09  0.0000E+00  0.2015E+16
   -1.105009    2.67682  0.0000E+00  0.3189E-13  0.5206E-16  0.1000E-09  0.0000E+00  0.1810E+16
   -1.147510    2.76634  0.0000E+00  0.3189E-13  0.5206E-16  0.1000E-09  0.0000E+00  0.1605E+16
   -1.190011    2.85174  0.0000E+00  0.3189E-13  0.5206E-16  0.1000E-09  0.0000E+00  0.1425E+16
   -1.232511    2.93351  0.0000E+00  0.3189E-13  0.5206E-16  0.1000E-09  0.0000E+00  0.1289E+16
   -1.275012    3.01346  0.0000E+00  0.3189E-13  0.5206E-16  0.1000E-09  0.0000E+00  0.1177E+16
   -1.317512    3.09278  0.0000E+00  0.3189E-13  0.5206E-16  0.1000E-09  0.0000E+00  0.1127E+16
   -1.360012    3.17611  0.0000E+00  0.3189E-13  0.5206E-16  0.1000E-09  0.0000E+00  0.1087E+16
   -1.402512    3.26565  0.0000E+00  0.3189E-13  0.5206E-16  0.1000E-09  0.0000E+00  0.9850E+15
   -1.445011    3.35788  0.0000E+00  0.1193E-12  0.2261E-15  0.1000E-09  0.0000E+00  0.8288E+15
   -1.487511    3.44772  0.0000E+00  0.7768E-12  0.1479E-14  0.1000E-09  0.0000E+00  0.7028E+15
   -1.530010    3.53792  0.0000E+00  0.5805E-11  0.1112E-13  0.1000E-09  0.0000E+00  0.6941E+15
   -1.572508    3.65017  0.0000E+00  0.5053E-10  0.9752E-13  0.3655E-09  0.0000E+00  0.7362E+15
   -1.615006    3.84715  0.0000E+00  0.4683E-09  0.9088E-12  0.1378E-07  0.0000E+00  0.1072E+15
   -1.657504    4.06184  0.0000E+00  0.3079E-08  0.7134E-11  0.4608E-06  0.0000E+00 -0.9087E+14
   -1.700002    4.11794  0.0000E+00  0.0000E+00  0.0000E+00  0.0000E+00  0.0000E+00  0.0000E+00
