 1 - depth, m
 2 - temperature, C
 3 - salinity, kg/kg
 4 - turbulent kinetic energy, m**2/s**2
 5 - dissipation rate, m**2/s**3
 6 - kinematic heat conductance, m**2/s
 7 - modulus of horizontal velocity, m/s
 8 - Richardson number, n/d
   -0.000000    0.00000  0.0000E+00  0.3189E-13  0.5206E-16  0.1000E-09  0.0000E+00  0.6692E+16
   -0.042497    0.10177  0.0000E+00  0.3189E-13  0.5206E-16  0.1000E-09  0.0000E+00  0.6751E+16
   -0.084995    0.20741  0.0000E+00  0.3189E-13  0.5206E-16  0.1000E-09  0.0000E+00  0.6772E+16
   -0.127493    0.31664  0.0000E+00  0.3189E-13  0.5206E-16  0.1000E-09  0.0000E+00  0.6586E+16
   -0.169992    0.42629  0.0000E+00  0.3189E-13  0.5206E-16  0.1000E-09  0.0000E+00  0.6395E+16
   -0.212491    0.53629  0.0000E+00  0.3189E-13  0.5206E-16  0.1000E-09  0.0000E+00  0.6207E+16
   -0.254990    0.64674  0.0000E+00  0.3189E-13  0.5206E-16  0.1000E-09  0.0000E+00  0.6018E+16
   -0.297490    0.75764  0.0000E+00  0.3189E-13  0.5206E-16  0.1000E-09  0.0000E+00  0.5807E+16
   -0.339989    0.86859  0.0000E+00  0.3189E-13  0.5206E-16  0.1000E-09  0.0000E+00  0.5567E+16
   -0.382490    0.97901  0.0000E+00  0.3189E-13  0.5206E-16  0.1000E-09  0.0000E+00  0.5324E+16
   -0.424990    1.08876  0.0000E+00  0.3189E-13  0.5206E-16  0.1000E-09  0.0000E+00  0.5059E+16
   -0.467490    1.19722  0.0000E+00  0.3189E-13  0.5206E-16  0.1000E-09  0.0000E+00  0.4795E+16
   -0.509991    1.30427  0.0000E+00  0.3189E-13  0.5206E-16  0.1000E-09  0.0000E+00  0.4549E+16
   -0.552492    1.41013  0.0000E+00  0.3189E-13  0.5206E-16  0.1000E-09  0.0000E+00  0.4309E+16
   -0.594993    1.51477  0.0000E+00  0.3189E-13  0.5206E-16  0.1000E-09  0.0000E+00  0.4086E+16
   -0.637494    1.61846  0.0000E+00  0.3189E-13  0.5206E-16  0.1000E-09  0.0000E+00  0.3890E+16
   -0.679995    1.72174  0.0000E+00  0.3189E-13  0.5206E-16  0.1000E-09  0.0000E+00  0.3695E+16
   -0.722497    1.82460  0.0000E+00  0.3189E-13  0.5206E-16  0.1000E-09  0.0000E+00  0.3513E+16
   -0.764998    1.92733  0.0000E+00  0.3189E-13  0.5206E-16  0.1000E-09  0.0000E+00  0.3335E+16
   -0.807499    2.03000  0.0000E+00  0.3189E-13  0.5206E-16  0.1000E-09  0.0000E+00  0.3131E+16
   -0.850001    2.13174  0.0000E+00  0.3189E-13  0.5206E-16  0.1000E-09  0.0000E+00  0.2916E+16
   -0.892502    2.23198  0.0000E+00  0.3189E-13  0.5206E-16  0.1000E-09  0.0000E+00  0.2728E+16
   -0.935004    2.33139  0.0000E+00  0.3189E-13  0.5206E-16  0.1000E-09  0.0000E+00  0.2540E+16
   -0.977505    2.42981  0.0000E+00  0.3189E-13  0.5206E-16  0.1000E-09  0.0000E+00  0.2356E+16
   -1.020007    2.52720  0.0000E+00  0.3189E-13  0.5206E-16  0.1000E-09  0.0000E+00  0.2155E+16
   -1.062508    2.62252  0.0000E+00  0.3189E-13  0.5206E-16  0.1000E-09  0.0000E+00  0.1960E+16
   -1.105009    2.71554  0.0000E+00  0.3189E-13  0.5206E-16  0.1000E-09  0.0000E+00  0.1755E+16
   -1.147510    2.80518  0.0000E+00  0.3189E-13  0.5206E-16  0.1000E-09  0.0000E+00  0.1552E+16
   -1.190011    2.89063  0.0000E+00  0.3189E-13  0.5206E-16  0.1000E-09  0.0000E+00  0.1373E+16
   -1.232511    2.97234  0.0000E+00  0.3189E-13  0.5206E-16  0.1000E-09  0.0000E+00  0.1235E+16
   -1.275012    3.05205  0.0000E+00  0.3189E-13  0.5206E-16  0.1000E-09  0.0000E+00  0.1122E+16
   -1.317512    3.13095  0.0000E+00  0.3189E-13  0.5206E-16  0.1000E-09  0.0000E+00  0.1070E+16
   -1.360012    3.21382  0.0000E+00  0.3189E-13  0.5206E-16  0.1000E-09  0.0000E+00  0.1027E+16
   -1.402512    3.30283  0.0000E+00  0.3531E-13  0.6190E-16  0.1000E-09  0.0000E+00  0.9248E+15
   -1.445012    3.39448  0.0000E+00  0.1927E-12  0.3376E-15  0.1000E-09  0.0000E+00  0.7715E+15
   -1.487511    3.48370  0.0000E+00  0.1207E-11  0.2104E-14  0.1000E-09  0.0000E+00  0.6469E+15
   -1.530010    3.57324  0.0000E+00  0.8496E-11  0.1483E-13  0.1000E-09  0.0000E+00  0.6272E+15
   -1.572508    3.68464  0.0000E+00  0.6939E-10  0.1216E-12  0.5377E-09  0.0000E+00  0.6262E+15
   -1.615007    3.87989  0.0000E+00  0.6007E-09  0.1057E-11  0.2974E-07  0.0000E+00  0.3039E+14
   -1.657504    4.07272  0.0000E+00  0.3348E-08  0.7865E-11  0.4914E-06  0.0000E+00 -0.9313E+14
   -1.700002    4.12551  0.0000E+00  0.0000E+00  0.0000E+00  0.0000E+00  0.0000E+00  0.0000E+00
