 1 - depth, m
 2 - temperature, C
 3 - salinity, kg/kg
 4 - turbulent kinetic energy, m**2/s**2
 5 - dissipation rate, m**2/s**3
 6 - kinematic heat conductance, m**2/s
 7 - modulus of horizontal velocity, m/s
 8 - Richardson number, n/d
   -0.000000   10.36700  0.0000E+00  0.1043E-04  0.4970E-06  0.2181E-04  0.1435E-01 -0.2351E-01
   -0.042497   10.39036  0.0000E+00  0.7860E-05  0.1873E-06  0.3614E-04  0.7793E-02 -0.6839E-01
   -0.084995   10.40392  0.0000E+00  0.6217E-05  0.9349E-07  0.5097E-04  0.4858E-02 -0.1501E+00
   -0.127493   10.41333  0.0000E+00  0.5172E-05  0.5380E-07  0.7379E-04  0.3185E-02 -0.2121E+00
   -0.169992   10.41990  0.0000E+00  0.4521E-05  0.3446E-07  0.1233E-03  0.2166E-02  0.6635E+02
   -0.212491   10.42415  0.0000E+00  0.4145E-05  0.2467E-07  0.2007E-03  0.1552E-02  0.1834E+03
   -0.254990   10.42662  0.0000E+00  0.3962E-05  0.1973E-07  0.2675E-03  0.1210E-02  0.2239E+01
   -0.297490   10.42829  0.0000E+00  0.3867E-05  0.1662E-07  0.2944E-03  0.1017E-02  0.1190E+01
   -0.339990   10.42978  0.0000E+00  0.3814E-05  0.1434E-07  0.3275E-03  0.8613E-03  0.1229E+01
   -0.382490   10.43109  0.0000E+00  0.3790E-05  0.1267E-07  0.3615E-03  0.7373E-03  0.1210E+01
   -0.424990   10.43225  0.0000E+00  0.3784E-05  0.1139E-07  0.3966E-03  0.6366E-03  0.1268E+01
   -0.467490   10.43328  0.0000E+00  0.3790E-05  0.1039E-07  0.4329E-03  0.5489E-03  0.1303E+01
   -0.509991   10.43421  0.0000E+00  0.3801E-05  0.9594E-08  0.4696E-03  0.4716E-03  0.1314E+01
   -0.552492   10.43504  0.0000E+00  0.3816E-05  0.8952E-08  0.5058E-03  0.4035E-03  0.1319E+01
   -0.594993   10.43579  0.0000E+00  0.3831E-05  0.8436E-08  0.5404E-03  0.3437E-03  0.1293E+01
   -0.637494   10.43648  0.0000E+00  0.3846E-05  0.8015E-08  0.5729E-03  0.2924E-03  0.1229E+01
   -0.679995   10.43712  0.0000E+00  0.3859E-05  0.7675E-08  0.6023E-03  0.2503E-03  0.1178E+01
   -0.722497   10.43773  0.0000E+00  0.3870E-05  0.7401E-08  0.6276E-03  0.2164E-03  0.1110E+01
   -0.764998   10.43830  0.0000E+00  0.3879E-05  0.7181E-08  0.6472E-03  0.1901E-03  0.1077E+01
   -0.807500   10.43885  0.0000E+00  0.3886E-05  0.6995E-08  0.6636E-03  0.1698E-03  0.1228E+01
   -0.850001   10.43938  0.0000E+00  0.3890E-05  0.6835E-08  0.6796E-03  0.1528E-03  0.1471E+01
   -0.892503   10.43990  0.0000E+00  0.3893E-05  0.6693E-08  0.6945E-03  0.1379E-03  0.1737E+01
   -0.935004   10.44040  0.0000E+00  0.3892E-05  0.6570E-08  0.7071E-03  0.1248E-03  0.2066E+01
   -0.977505   10.44088  0.0000E+00  0.3889E-05  0.6466E-08  0.7172E-03  0.1130E-03  0.2367E+01
   -1.020007   10.44135  0.0000E+00  0.3883E-05  0.6381E-08  0.7247E-03  0.1024E-03  0.2736E+01
   -1.062508   10.44180  0.0000E+00  0.3874E-05  0.6316E-08  0.7292E-03  0.9273E-04  0.3048E+01
   -1.105009   10.44224  0.0000E+00  0.3863E-05  0.6270E-08  0.7307E-03  0.8381E-04  0.3394E+01
   -1.147510   10.44267  0.0000E+00  0.3849E-05  0.6247E-08  0.7292E-03  0.7540E-04  0.3755E+01
   -1.190011   10.44309  0.0000E+00  0.3834E-05  0.6248E-08  0.7240E-03  0.6732E-04  0.4098E+01
   -1.232512   10.44350  0.0000E+00  0.3817E-05  0.6277E-08  0.7148E-03  0.5961E-04  0.4587E+01
   -1.275012   10.44390  0.0000E+00  0.3796E-05  0.6341E-08  0.7010E-03  0.5256E-04  0.5703E+01
   -1.317513   10.44431  0.0000E+00  0.3772E-05  0.6450E-08  0.6815E-03  0.4612E-04  0.7339E+01
   -1.360013   10.44473  0.0000E+00  0.3743E-05  0.6624E-08  0.6549E-03  0.4028E-04  0.9640E+01
   -1.402513   10.44516  0.0000E+00  0.3708E-05  0.6894E-08  0.6201E-03  0.3506E-04  0.1375E+02
   -1.445012   10.44560  0.0000E+00  0.3669E-05  0.7271E-08  0.5780E-03  0.3021E-04  0.2008E+02
   -1.487511   10.44607  0.0000E+00  0.3627E-05  0.7804E-08  0.5373E-03  0.2546E-04  0.2514E+02
   -1.530010   10.44656  0.0000E+00  0.3575E-05  0.8733E-08  0.4483E-03  0.2085E-04  0.3329E+02
   -1.572509   10.44714  0.0000E+00  0.3487E-05  0.1090E-07  0.4918E-03  0.1639E-04  0.4423E+02
   -1.615007   10.44768  0.0000E+00  0.3148E-05  0.2237E-07  0.1846E-03  0.1382E-04 -0.9268E+06
   -1.657505   10.45152  0.0000E+00  0.2009E-05  0.7617E-07  0.4820E-04  0.8734E-05 -0.1505E+05
   -1.700002   10.45751  0.0000E+00  0.0000E+00  0.0000E+00  0.0000E+00  0.1028E-04  0.0000E+00
