 1 - depth, m
 2 - temperature, C
 3 - salinity, kg/kg
 4 - turbulent kinetic energy, m**2/s**2
 5 - dissipation rate, m**2/s**3
 6 - kinematic heat conductance, m**2/s
 7 - modulus of horizontal velocity, m/s
 8 - Richardson number, n/d
   -0.000000    0.00000  0.0000E+00  0.3189E-13  0.5207E-16  0.1000E-09  0.0000E+00  0.1133E+17
   -0.042497    0.17398  0.0000E+00  0.3189E-13  0.5207E-16  0.1000E-09  0.0000E+00  0.1107E+17
   -0.084995    0.35265  0.0000E+00  0.3189E-13  0.5207E-16  0.1000E-09  0.0000E+00  0.1075E+17
   -0.127493    0.53544  0.0000E+00  0.3189E-13  0.5207E-16  0.1000E-09  0.0000E+00  0.1005E+17
   -0.169991    0.71613  0.0000E+00  0.3189E-13  0.5207E-16  0.1000E-09  0.0000E+00  0.9370E+16
   -0.212490    0.89471  0.0000E+00  0.1251E-12  0.5207E-16  0.1000E-09  0.0000E+00  0.8718E+16
   -0.254989    1.07121  0.0000E+00  0.3534E-12  0.6064E-16  0.1000E-09  0.0000E+00  0.8087E+16
   -0.297488    1.24560  0.0000E+00  0.7474E-12  0.9420E-16  0.1000E-09  0.0000E+00  0.7465E+16
   -0.339988    1.41758  0.0000E+00  0.1389E-11  0.1564E-15  0.1000E-09  0.0000E+00  0.6853E+16
   -0.382488    1.58676  0.0000E+00  0.2443E-11  0.2615E-15  0.1000E-09  0.0000E+00  0.6262E+16
   -0.424988    1.75301  0.0000E+00  0.4171E-11  0.4339E-15  0.1000E-09  0.0000E+00  0.5688E+16
   -0.467488    1.91603  0.0000E+00  0.7007E-11  0.7139E-15  0.1000E-09  0.0000E+00  0.5141E+16
   -0.509988    2.07571  0.0000E+00  0.1167E-10  0.1168E-14  0.1000E-09  0.0000E+00  0.4653E+16
   -0.552489    2.23317  0.0000E+00  0.1936E-10  0.1904E-14  0.1000E-09  0.0000E+00  0.4189E+16
   -0.594990    2.38853  0.0000E+00  0.3198E-10  0.3094E-14  0.1000E-09  0.0000E+00  0.3750E+16
   -0.637491    2.54214  0.0000E+00  0.5312E-10  0.5056E-14  0.1000E-09  0.0000E+00  0.3340E+16
   -0.679992    2.69462  0.0000E+00  0.8845E-10  0.8283E-14  0.1000E-09  0.0000E+00  0.2939E+16
   -0.722493    2.84594  0.0000E+00  0.1477E-09  0.1361E-13  0.1000E-09  0.0000E+00  0.2553E+16
   -0.764994    2.99640  0.0000E+00  0.2473E-09  0.2243E-13  0.1000E-09  0.0000E+00  0.2176E+16
   -0.807495    3.14599  0.0000E+00  0.4141E-09  0.3696E-13  0.1000E-09  0.0000E+00  0.1796E+16
   -0.849997    3.29379  0.0000E+00  0.6865E-09  0.6034E-13  0.1332E-09  0.0000E+00  0.1425E+16
   -0.892498    3.43913  0.0000E+00  0.1134E-08  0.9815E-13  0.2861E-09  0.0000E+00  0.1079E+16
   -0.934999    3.58300  0.0000E+00  0.1855E-08  0.1581E-12  0.6683E-09  0.0000E+00  0.7444E+15
   -0.977500    3.72531  0.0000E+00  0.3014E-08  0.2532E-12  0.1896E-08  0.0000E+00  0.4200E+15
   -1.020001    3.86523  0.0000E+00  0.4850E-08  0.4015E-12  0.1104E-07  0.0000E+00  0.1144E+15
   -1.062502    3.99466  0.0000E+00  0.5316E-08  0.4420E-12  0.2260E-04  0.0000E+00 -0.1176E+12
   -1.105003    3.99551  0.0000E+00  0.5548E-08  0.4656E-12  0.2412E-04  0.0000E+00 -0.1194E+12
   -1.147504    3.99631  0.0000E+00  0.5755E-08  0.4902E-12  0.2523E-04  0.0000E+00 -0.1213E+12
   -1.190005    3.99706  0.0000E+00  0.5940E-08  0.5163E-12  0.2595E-04  0.0000E+00 -0.1249E+12
   -1.232505    3.99778  0.0000E+00  0.6112E-08  0.5456E-12  0.2656E-04  0.0000E+00 -0.1314E+12
   -1.275006    3.99849  0.0000E+00  0.6275E-08  0.5795E-12  0.2670E-04  0.0000E+00 -0.1411E+12
   -1.317506    3.99920  0.0000E+00  0.6429E-08  0.6199E-12  0.2649E-04  0.0000E+00 -0.1551E+12
   -1.360005    3.99995  0.0000E+00  0.6578E-08  0.6699E-12  0.2591E-04  0.0000E+00 -0.1752E+12
   -1.402505    4.00075  0.0000E+00  0.6725E-08  0.7367E-12  0.2420E-04  0.0000E+00 -0.2030E+12
   -1.445004    4.00162  0.0000E+00  0.6856E-08  0.8213E-12  0.2105E-04  0.0000E+00 -0.2447E+12
   -1.487503    4.00261  0.0000E+00  0.6967E-08  0.9326E-12  0.1818E-04  0.0000E+00 -0.3034E+12
   -1.530002    4.00376  0.0000E+00  0.7067E-08  0.1111E-11  0.1595E-04  0.0000E+00 -0.4236E+12
   -1.572500    4.00524  0.0000E+00  0.7145E-08  0.1492E-11  0.1381E-04  0.0000E+00 -0.7909E+12
   -1.614998    4.00774  0.0000E+00  0.6942E-08  0.2931E-11  0.5284E-05  0.0000E+00 -0.2883E+13
   -1.657496    4.01508  0.0000E+00  0.5461E-08  0.9049E-11  0.7569E-06  0.0000E+00 -0.3401E+14
   -1.699993    4.05823  0.0000E+00  0.0000E+00  0.0000E+00  0.0000E+00  0.0000E+00  0.0000E+00
