 1 - depth, m
 2 - temperature, C
 3 - salinity, kg/kg
 4 - turbulent kinetic energy, m**2/s**2
 5 - dissipation rate, m**2/s**3
 6 - kinematic heat conductance, m**2/s
 7 - modulus of horizontal velocity, m/s
 8 - Richardson number, n/d
   -0.000000    0.00000  0.0000E+00  0.3188E-13  0.5205E-16  0.1000E-09  0.0000E+00  0.1118E+17
   -0.042500    0.17358  0.0000E+00  0.3188E-13  0.5205E-16  0.1000E-09  0.0000E+00  0.7837E+16
   -0.085000    0.30115  0.0000E+00  0.3188E-13  0.5205E-16  0.1000E-09  0.0000E+00  0.6440E+16
   -0.127500    0.40864  0.0000E+00  0.3188E-13  0.5205E-16  0.1000E-09  0.0000E+00  0.5927E+16
   -0.170001    0.51019  0.0000E+00  0.3188E-13  0.5205E-16  0.1000E-09  0.0000E+00  0.5721E+16
   -0.212502    0.61111  0.0000E+00  0.3188E-13  0.5205E-16  0.1000E-09  0.0000E+00  0.5361E+16
   -0.255003    0.70831  0.0000E+00  0.3188E-13  0.5205E-16  0.1000E-09  0.0000E+00  0.4786E+16
   -0.297505    0.79706  0.0000E+00  0.3188E-13  0.5205E-16  0.1000E-09  0.0000E+00  0.4482E+16
   -0.340007    0.88230  0.0000E+00  0.3188E-13  0.5205E-16  0.1000E-09  0.0000E+00  0.4655E+16
   -0.382509    0.97392  0.0000E+00  0.3188E-13  0.5205E-16  0.1000E-09  0.0000E+00  0.4539E+16
   -0.425012    1.06619  0.0000E+00  0.3188E-13  0.5205E-16  0.1000E-09  0.0000E+00  0.4908E+16
   -0.467514    1.17009  0.0000E+00  0.3188E-13  0.5205E-16  0.1000E-09  0.0000E+00  0.5144E+16
   -0.510017    1.28384  0.0000E+00  0.3188E-13  0.5205E-16  0.1000E-09  0.0000E+00  0.5231E+16
   -0.552520    1.40516  0.0000E+00  0.3221E-13  0.5206E-16  0.1000E-09  0.0000E+00  0.5391E+16
   -0.595023    1.53724  0.0000E+00  0.3820E-13  0.5504E-16  0.1000E-09  0.0000E+00  0.5377E+16
   -0.637527    1.67731  0.0000E+00  0.6789E-13  0.7251E-16  0.1000E-09  0.0000E+00  0.4932E+16
   -0.680030    1.81399  0.0000E+00  0.1872E-12  0.1443E-15  0.1000E-09  0.0000E+00  0.4631E+16
   -0.722534    1.95113  0.0000E+00  0.6484E-12  0.4163E-15  0.1000E-09  0.0000E+00  0.4101E+16
   -0.765037    2.08048  0.0000E+00  0.2414E-11  0.1425E-14  0.1000E-09  0.0000E+00  0.3428E+16
   -0.807541    2.19446  0.0000E+00  0.9121E-11  0.5129E-14  0.1021E-09  0.0000E+00  0.3120E+16
   -0.850044    2.30469  0.0000E+00  0.3409E-10  0.1847E-13  0.1273E-09  0.0000E+00  0.2864E+16
   -0.892548    2.41269  0.0000E+00  0.1266E-09  0.6637E-13  0.2535E-09  0.0000E+00  0.2585E+16
   -0.935052    2.51691  0.0000E+00  0.4561E-09  0.2321E-12  0.5456E-09  0.0000E+00  0.2529E+16
   -0.977555    2.62767  0.0000E+00  0.1580E-08  0.7824E-12  0.1587E-08  0.0000E+00  0.2299E+16
   -1.020059    2.73714  0.0000E+00  0.5141E-08  0.2485E-11  0.3131E-08  0.0000E+00  0.2251E+16
   -1.062562    2.85738  0.0000E+00  0.1552E-07  0.7339E-11  0.7715E-08  0.0000E+00  0.2145E+16
   -1.105066    3.00392  0.0000E+00  0.2882E-07  0.1359E-10  0.6073E-05  0.0000E+00  0.1957E+16
   -1.147569    3.16530  0.0000E+00  0.3998E-07  0.1894E-10  0.1689E-04  0.0000E+00  0.1754E+16
   -1.190072    3.32777  0.0000E+00  0.4817E-07  0.2294E-10  0.2595E-04  0.0000E+00  0.1433E+16
   -1.232575    3.48010  0.0000E+00  0.5365E-07  0.2577E-10  0.3285E-04  0.0000E+00  0.1020E+16
   -1.275077    3.60381  0.0000E+00  0.5767E-07  0.2806E-10  0.3683E-04  0.0000E+00  0.7626E+15
   -1.317580    3.71313  0.0000E+00  0.6086E-07  0.3011E-10  0.3926E-04  0.0000E+00  0.5950E+15
   -1.360082    3.82269  0.0000E+00  0.6360E-07  0.3210E-10  0.4070E-04  0.0000E+00  0.3929E+15
   -1.402584    3.94080  0.0000E+00  0.6652E-07  0.3445E-10  0.4192E-04  0.0000E+00  0.1207E+15
   -1.445086    4.04531  0.0000E+00  0.6886E-07  0.3695E-10  0.4537E-04  0.0000E+00 -0.2571E+13
   -1.487587    4.05477  0.0000E+00  0.7023E-07  0.3969E-10  0.4485E-04  0.0000E+00 -0.3796E+13
   -1.530088    4.05888  0.0000E+00  0.7105E-07  0.4360E-10  0.4209E-04  0.0000E+00 -0.4459E+13
   -1.572589    4.06328  0.0000E+00  0.7126E-07  0.5156E-10  0.3663E-04  0.0000E+00 -0.6108E+13
   -1.615089    4.06903  0.0000E+00  0.6948E-07  0.7909E-10  0.2285E-04  0.0000E+00 -0.1262E+14
   -1.657589    4.08004  0.0000E+00  0.5246E-07  0.2784E-09  0.2269E-05  0.0000E+00 -0.1324E+15
   -1.700089    4.14097  0.0000E+00  0.0000E+00  0.0000E+00  0.0000E+00  0.0000E+00  0.0000E+00
