 1 - depth, m
 2 - temperature, C
 3 - salinity, kg/kg
 4 - turbulent kinetic energy, m**2/s**2
 5 - dissipation rate, m**2/s**3
 6 - kinematic heat conductance, m**2/s
 7 - modulus of horizontal velocity, m/s
 8 - Richardson number, n/d
   -0.000000    9.20298  0.0000E+00  0.1247E-02  0.6219E-02  0.1070E-03  0.4439E+00 -0.7353E-03
   -0.042498    9.22824  0.0000E+00  0.5900E-03  0.2464E-02  0.2981E-03  0.9328E-01 -0.4064E-02
   -0.084997    9.23443  0.0000E+00  0.3988E-03  0.1094E-02  0.3132E-03  0.5414E-01 -0.7495E-01
   -0.127495    9.23810  0.0000E+00  0.2973E-03  0.6346E-03  0.2626E-03  0.4252E-01 -0.5912E-01
   -0.169995    9.24068  0.0000E+00  0.2267E-03  0.3940E-03  0.2275E-03  0.3542E-01 -0.3607E-01
   -0.212494    9.24277  0.0000E+00  0.1731E-03  0.2503E-03  0.2101E-03  0.2920E-01  0.2443E-01
   -0.254994    9.24489  0.0000E+00  0.1312E-03  0.1562E-03  0.2012E-03  0.2406E-01 -0.1960E+00
   -0.297494    9.24693  0.0000E+00  0.1035E-03  0.1000E-03  0.1958E-03  0.2039E-01 -0.6851E+00
   -0.339995    9.24873  0.0000E+00  0.8247E-04  0.6258E-04  0.1932E-03  0.1781E-01  0.7696E+01
   -0.382496    9.25045  0.0000E+00  0.6679E-04  0.3730E-04  0.1941E-03  0.1533E-01  0.1076E+02
   -0.424997    9.25192  0.0000E+00  0.5519E-04  0.2086E-04  0.1962E-03  0.1352E-01  0.3121E+03
   -0.467498    9.25333  0.0000E+00  0.4648E-04  0.1102E-04  0.1995E-03  0.1160E-01  0.8413E+01
   -0.509999    9.25467  0.0000E+00  0.3978E-04  0.5627E-05  0.2046E-03  0.9845E-02  0.2413E+03
   -0.552501    9.25594  0.0000E+00  0.3458E-04  0.2906E-05  0.2102E-03  0.8328E-02  0.1312E+02
   -0.595002    9.25715  0.0000E+00  0.3036E-04  0.1619E-05  0.2179E-03  0.6976E-02  0.1737E+03
   -0.637504    9.25829  0.0000E+00  0.2678E-04  0.9971E-06  0.2287E-03  0.5847E-02  0.2201E+02
   -0.680006    9.25928  0.0000E+00  0.2373E-04  0.6710E-06  0.2397E-03  0.4969E-02  0.2942E+02
   -0.722508    9.26021  0.0000E+00  0.2109E-04  0.4806E-06  0.2531E-03  0.4238E-02  0.1671E+03
   -0.765010    9.26104  0.0000E+00  0.1882E-04  0.3588E-06  0.2672E-03  0.3653E-02  0.5223E+01
   -0.807512    9.26180  0.0000E+00  0.1684E-04  0.2754E-06  0.2782E-03  0.3195E-02  0.1845E+04
   -0.850014    9.26251  0.0000E+00  0.1514E-04  0.2166E-06  0.2890E-03  0.2807E-02 -0.3586E+03
   -0.892517    9.26318  0.0000E+00  0.1367E-04  0.1735E-06  0.3005E-03  0.2476E-02 -0.1416E+03
   -0.935019    9.26383  0.0000E+00  0.1241E-04  0.1410E-06  0.3111E-03  0.2193E-02 -0.1579E+05
   -0.977521    9.26444  0.0000E+00  0.1132E-04  0.1160E-06  0.3243E-03  0.1940E-02 -0.7619E+02
   -1.020023    9.26503  0.0000E+00  0.1037E-04  0.9626E-07  0.3362E-03  0.1721E-02  0.2421E+03
   -1.062525    9.26559  0.0000E+00  0.9552E-05  0.8060E-07  0.3489E-03  0.1522E-02  0.1096E+03
   -1.105026    9.26613  0.0000E+00  0.8838E-05  0.6801E-07  0.3598E-03  0.1343E-02  0.1586E+03
   -1.147528    9.26665  0.0000E+00  0.8227E-05  0.5805E-07  0.3687E-03  0.1177E-02  0.2437E+03
   -1.190030    9.26716  0.0000E+00  0.7708E-05  0.5027E-07  0.3769E-03  0.1018E-02  0.2264E+03
   -1.232531    9.26765  0.0000E+00  0.7252E-05  0.4402E-07  0.3838E-03  0.8692E-03  0.1192E+03
   -1.275032    9.26814  0.0000E+00  0.6846E-05  0.3894E-07  0.3891E-03  0.7399E-03  0.9926E+02
   -1.317533    9.26862  0.0000E+00  0.6482E-05  0.3484E-07  0.3930E-03  0.6278E-03  0.1408E+03
   -1.360034    9.26910  0.0000E+00  0.6149E-05  0.3158E-07  0.3935E-03  0.5320E-03  0.1971E+05
   -1.402534    9.26957  0.0000E+00  0.5834E-05  0.2902E-07  0.3876E-03  0.4516E-03  0.1163E+04
   -1.445035    9.27006  0.0000E+00  0.5564E-05  0.2745E-07  0.3768E-03  0.3804E-03  0.1494E+04
   -1.487535    9.27056  0.0000E+00  0.5340E-05  0.2709E-07  0.3621E-03  0.3136E-03  0.6526E+03
   -1.530034    9.27109  0.0000E+00  0.5132E-05  0.2857E-07  0.3348E-03  0.2506E-03  0.4479E+04
   -1.572533    9.27166  0.0000E+00  0.4875E-05  0.3482E-07  0.2878E-03  0.1952E-03  0.1352E+04
   -1.615032    9.27234  0.0000E+00  0.4306E-05  0.6152E-07  0.2007E-03  0.1559E-03  0.1609E+05
   -1.657531    9.27343  0.0000E+00  0.2724E-05  0.1698E-06  0.1970E-04  0.1195E-03 -0.5196E+08
   -1.700029    9.28656  0.0000E+00  0.0000E+00  0.0000E+00  0.0000E+00  0.1350E-03  0.0000E+00
