 1 - depth, m
 2 - temperature, C
 3 - salinity, kg/kg
 4 - turbulent kinetic energy, m**2/s**2
 5 - dissipation rate, m**2/s**3
 6 - kinematic heat conductance, m**2/s
 7 - modulus of horizontal velocity, m/s
 8 - Richardson number, n/d
   -0.000000    0.00000  0.0000E+00  0.5081E-11  0.1914E-14  0.1000E-09  0.0000E+00  0.1826E+17
   -0.042497    0.28470  0.0000E+00  0.9785E-11  0.1688E-14  0.1000E-09  0.0000E+00  0.1722E+17
   -0.084995    0.57641  0.0000E+00  0.1887E-10  0.2120E-14  0.1000E-09  0.0000E+00  0.1602E+17
   -0.127493    0.87371  0.0000E+00  0.3363E-10  0.3123E-14  0.1000E-09  0.0000E+00  0.1419E+17
   -0.169991    1.16462  0.0000E+00  0.5688E-10  0.4849E-14  0.1000E-09  0.0000E+00  0.1242E+17
   -0.212490    1.44801  0.0000E+00  0.9347E-10  0.7632E-14  0.1000E-09  0.0000E+00  0.1073E+17
   -0.254989    1.72238  0.0000E+00  0.1514E-09  0.1204E-13  0.1000E-09  0.0000E+00  0.9116E+16
   -0.297488    1.98613  0.0000E+00  0.2433E-09  0.1900E-13  0.1000E-09  0.0000E+00  0.7628E+16
   -0.339988    2.23827  0.0000E+00  0.3863E-09  0.2969E-13  0.1000E-09  0.0000E+00  0.6283E+16
   -0.382487    2.47831  0.0000E+00  0.6092E-09  0.4616E-13  0.1000E-09  0.0000E+00  0.5067E+16
   -0.424987    2.70517  0.0000E+00  0.9538E-09  0.7127E-13  0.1000E-09  0.0000E+00  0.4012E+16
   -0.467488    2.91926  0.0000E+00  0.1484E-08  0.1094E-12  0.1114E-09  0.0000E+00  0.3089E+16
   -0.509988    3.12012  0.0000E+00  0.2302E-08  0.1674E-12  0.2242E-09  0.0000E+00  0.2349E+16
   -0.552489    3.31251  0.0000E+00  0.3562E-08  0.2557E-12  0.4727E-09  0.0000E+00  0.1701E+16
   -0.594990    3.49763  0.0000E+00  0.5501E-08  0.3897E-12  0.1089E-08  0.0000E+00  0.1125E+16
   -0.637491    3.67633  0.0000E+00  0.8539E-08  0.5971E-12  0.3094E-08  0.0000E+00  0.6072E+15
   -0.679992    3.84894  0.0000E+00  0.1321E-07  0.9126E-12  0.1964E-07  0.0000E+00  0.1461E+15
   -0.722493    4.00189  0.0000E+00  0.1354E-07  0.9366E-12  0.7342E-04  0.0000E+00 -0.8258E+11
   -0.764994    4.00223  0.0000E+00  0.1371E-07  0.9506E-12  0.7148E-04  0.0000E+00 -0.8703E+11
   -0.807495    4.00257  0.0000E+00  0.1388E-07  0.9666E-12  0.7180E-04  0.0000E+00 -0.8871E+11
   -0.849996    4.00292  0.0000E+00  0.1405E-07  0.9843E-12  0.7215E-04  0.0000E+00 -0.9018E+11
   -0.892497    4.00326  0.0000E+00  0.1421E-07  0.1004E-11  0.7240E-04  0.0000E+00 -0.9235E+11
   -0.934999    4.00360  0.0000E+00  0.1437E-07  0.1025E-11  0.7250E-04  0.0000E+00 -0.9479E+11
   -0.977500    4.00395  0.0000E+00  0.1453E-07  0.1049E-11  0.7244E-04  0.0000E+00 -0.9761E+11
   -1.020001    4.00430  0.0000E+00  0.1467E-07  0.1074E-11  0.7219E-04  0.0000E+00 -0.1002E+12
   -1.062502    4.00465  0.0000E+00  0.1481E-07  0.1101E-11  0.7178E-04  0.0000E+00 -0.1030E+12
   -1.105003    4.00501  0.0000E+00  0.1494E-07  0.1131E-11  0.7121E-04  0.0000E+00 -0.1055E+12
   -1.147504    4.00536  0.0000E+00  0.1505E-07  0.1163E-11  0.7050E-04  0.0000E+00 -0.1076E+12
   -1.190004    4.00572  0.0000E+00  0.1516E-07  0.1197E-11  0.6954E-04  0.0000E+00 -0.1109E+12
   -1.232505    4.00608  0.0000E+00  0.1525E-07  0.1235E-11  0.6836E-04  0.0000E+00 -0.1175E+12
   -1.275005    4.00646  0.0000E+00  0.1533E-07  0.1281E-11  0.6688E-04  0.0000E+00 -0.1255E+12
   -1.317505    4.00685  0.0000E+00  0.1541E-07  0.1337E-11  0.6501E-04  0.0000E+00 -0.1348E+12
   -1.360005    4.00726  0.0000E+00  0.1548E-07  0.1408E-11  0.6261E-04  0.0000E+00 -0.1477E+12
   -1.402504    4.00771  0.0000E+00  0.1555E-07  0.1500E-11  0.5964E-04  0.0000E+00 -0.1613E+12
   -1.445004    4.00819  0.0000E+00  0.1559E-07  0.1612E-11  0.5628E-04  0.0000E+00 -0.1736E+12
   -1.487503    4.00869  0.0000E+00  0.1561E-07  0.1752E-11  0.5224E-04  0.0000E+00 -0.1920E+12
   -1.530001    4.00923  0.0000E+00  0.1561E-07  0.1966E-11  0.4705E-04  0.0000E+00 -0.2415E+12
   -1.572500    4.00989  0.0000E+00  0.1555E-07  0.2422E-11  0.3995E-04  0.0000E+00 -0.4027E+12
   -1.614998    4.01096  0.0000E+00  0.1510E-07  0.4419E-11  0.1557E-04  0.0000E+00 -0.1294E+13
   -1.657495    4.01411  0.0000E+00  0.1154E-07  0.1899E-10  0.1306E-05  0.0000E+00 -0.2517E+14
   -1.699992    4.04946  0.0000E+00  0.0000E+00  0.0000E+00  0.0000E+00  0.0000E+00  0.0000E+00
