 1 - depth, m
 2 - temperature, C
 3 - salinity, kg/kg
 4 - turbulent kinetic energy, m**2/s**2
 5 - dissipation rate, m**2/s**3
 6 - kinematic heat conductance, m**2/s
 7 - modulus of horizontal velocity, m/s
 8 - Richardson number, n/d
   -0.000000   15.04920  0.0000E+00  0.6865E-03  0.1299E-02  0.6691E-04  0.2738E+00  0.4272E-02
   -0.042498   15.10035  0.0000E+00  0.3414E-03  0.3833E-03  0.2688E-03  0.5823E-01 -0.2715E-01
   -0.084996   15.10955  0.0000E+00  0.2450E-03  0.2132E-03  0.2440E-03  0.3659E-01 -0.6784E-02
   -0.127494   15.11556  0.0000E+00  0.1872E-03  0.1269E-03  0.2103E-03  0.2954E-01 -0.7368E+00
   -0.169993   15.11983  0.0000E+00  0.1444E-03  0.7194E-04  0.1937E-03  0.2462E-01  0.8112E+01
   -0.212492   15.12344  0.0000E+00  0.1118E-03  0.4287E-04  0.1905E-03  0.2054E-01  0.1981E+02
   -0.254991   15.12665  0.0000E+00  0.8583E-04  0.2473E-04  0.1954E-03  0.1730E-01  0.3727E+01
   -0.297491   15.12965  0.0000E+00  0.6733E-04  0.1453E-04  0.2040E-03  0.1482E-01  0.1234E+03
   -0.339991   15.13223  0.0000E+00  0.5397E-04  0.8492E-05  0.2135E-03  0.1287E-01  0.2576E+04
   -0.382491   15.13455  0.0000E+00  0.4397E-04  0.4807E-05  0.2244E-03  0.1106E-01  0.1273E+01
   -0.424992   15.13659  0.0000E+00  0.3666E-04  0.2673E-05  0.2357E-03  0.9670E-02  0.7111E+02
   -0.467492   15.13847  0.0000E+00  0.3125E-04  0.1519E-05  0.2492E-03  0.8276E-02  0.3474E+02
   -0.509993   15.14020  0.0000E+00  0.2714E-04  0.9258E-06  0.2662E-03  0.7008E-02  0.2492E+01
   -0.552494   15.14178  0.0000E+00  0.2394E-04  0.6186E-06  0.2844E-03  0.5914E-02  0.1836E+02
   -0.594995   15.14325  0.0000E+00  0.2135E-04  0.4487E-06  0.3056E-03  0.4963E-02  0.1228E+02
   -0.637497   15.14456  0.0000E+00  0.1916E-04  0.3432E-06  0.3312E-03  0.4174E-02  0.5449E+01
   -0.679998   15.14572  0.0000E+00  0.1731E-04  0.2709E-06  0.3583E-03  0.3544E-02  0.1881E+02
   -0.722500   15.14676  0.0000E+00  0.1571E-04  0.2182E-06  0.3895E-03  0.3027E-02  0.3404E+02
   -0.765001   15.14767  0.0000E+00  0.1433E-04  0.1777E-06  0.4237E-03  0.2613E-02  0.1331E+03
   -0.807503   15.14849  0.0000E+00  0.1312E-04  0.1456E-06  0.4574E-03  0.2284E-02  0.2559E+03
   -0.850004   15.14923  0.0000E+00  0.1207E-04  0.1204E-06  0.4868E-03  0.2011E-02  0.2045E+02
   -0.892506   15.14990  0.0000E+00  0.1115E-04  0.9999E-07  0.5213E-03  0.1778E-02  0.1677E+03
   -0.935008   15.15051  0.0000E+00  0.1036E-04  0.8363E-07  0.5531E-03  0.1580E-02  0.2111E+03
   -0.977509   15.15107  0.0000E+00  0.9663E-05  0.7051E-07  0.5795E-03  0.1405E-02  0.1295E+02
   -1.020011   15.15159  0.0000E+00  0.9054E-05  0.5986E-07  0.5981E-03  0.1250E-02  0.1948E+02
   -1.062512   15.15208  0.0000E+00  0.8520E-05  0.5124E-07  0.6101E-03  0.1109E-02  0.1433E+02
   -1.105013   15.15256  0.0000E+00  0.8048E-05  0.4424E-07  0.6166E-03  0.9801E-03  0.7665E+01
   -1.147515   15.15303  0.0000E+00  0.7641E-05  0.3871E-07  0.6185E-03  0.8577E-03  0.9869E+01
   -1.190016   15.15348  0.0000E+00  0.7290E-05  0.3445E-07  0.6179E-03  0.7390E-03  0.6954E+01
   -1.232516   15.15393  0.0000E+00  0.6974E-05  0.3108E-07  0.6174E-03  0.6264E-03  0.8578E+01
   -1.275017   15.15438  0.0000E+00  0.6684E-05  0.2845E-07  0.6127E-03  0.5278E-03  0.1259E+02
   -1.317518   15.15482  0.0000E+00  0.6418E-05  0.2650E-07  0.6022E-03  0.4434E-03  0.7577E+01
   -1.360018   15.15527  0.0000E+00  0.6170E-05  0.2519E-07  0.5837E-03  0.3727E-03  0.1644E+02
   -1.402518   15.15573  0.0000E+00  0.5927E-05  0.2460E-07  0.5561E-03  0.3155E-03  0.3070E+02
   -1.445018   15.15622  0.0000E+00  0.5701E-05  0.2518E-07  0.5156E-03  0.2662E-03  0.2382E+02
   -1.487517   15.15677  0.0000E+00  0.5476E-05  0.2741E-07  0.4763E-03  0.2180E-03  0.2762E+02
   -1.530016   15.15740  0.0000E+00  0.5205E-05  0.3336E-07  0.4054E-03  0.1694E-03  0.2289E+03
   -1.572515   15.15828  0.0000E+00  0.4838E-05  0.4830E-07  0.3919E-03  0.1210E-03 -0.2233E+03
   -1.615013   15.15892  0.0000E+00  0.4042E-05  0.1149E-06  0.1959E-03  0.9400E-04 -0.1414E+07
   -1.657511   15.16256  0.0000E+00  0.2633E-05  0.2950E-06  0.6242E-04  0.6275E-04 -0.5026E+06
   -1.700009   15.16878  0.0000E+00  0.0000E+00  0.0000E+00  0.0000E+00  0.9428E-04  0.0000E+00
