 1 - depth, m
 2 - temperature, C
 3 - salinity, kg/kg
 4 - turbulent kinetic energy, m**2/s**2
 5 - dissipation rate, m**2/s**3
 6 - kinematic heat conductance, m**2/s
 7 - modulus of horizontal velocity, m/s
 8 - Richardson number, n/d
   -0.000000    9.08340  0.0000E+00  0.6495E-03  0.9641E-03  0.7675E-04  0.2824E+00  0.1424E-01
   -0.042497    9.20238  0.0000E+00  0.3214E-03  0.2876E-03  0.2367E-03  0.6087E-01 -0.6060E+00
   -0.084995    9.22453  0.0000E+00  0.2278E-03  0.1558E-03  0.2123E-03  0.3906E-01 -0.2031E+00
   -0.127493    9.24002  0.0000E+00  0.1723E-03  0.9091E-04  0.1914E-03  0.3156E-01 -0.1046E+00
   -0.169992    9.25157  0.0000E+00  0.1295E-03  0.4805E-04  0.1684E-03  0.2606E-01 -0.1442E-01
   -0.212490    9.26146  0.0000E+00  0.9863E-04  0.2764E-04  0.1606E-03  0.2140E-01  0.1451E+02
   -0.254989    9.27026  0.0000E+00  0.7418E-04  0.1469E-04  0.1616E-03  0.1774E-01  0.1621E+01
   -0.297489    9.27851  0.0000E+00  0.5689E-04  0.8073E-05  0.1666E-03  0.1495E-01  0.1710E+02
   -0.339988    9.28589  0.0000E+00  0.4489E-04  0.4471E-05  0.1743E-03  0.1272E-01  0.6353E+02
   -0.382488    9.29267  0.0000E+00  0.3632E-04  0.2516E-05  0.1866E-03  0.1070E-01  0.1050E+02
   -0.424989    9.29837  0.0000E+00  0.3030E-04  0.1481E-05  0.1999E-03  0.9139E-02  0.1034E+02
   -0.467489    9.30370  0.0000E+00  0.2591E-04  0.9317E-06  0.2232E-03  0.7693E-02  0.2139E+02
   -0.509990    9.30836  0.0000E+00  0.2258E-04  0.6257E-06  0.2516E-03  0.6448E-02  0.1231E+02
   -0.552490    9.31245  0.0000E+00  0.1997E-04  0.4418E-06  0.2833E-03  0.5404E-02  0.4406E+01
   -0.594991    9.31606  0.0000E+00  0.1785E-04  0.3251E-06  0.3171E-03  0.4504E-02  0.2261E+02
   -0.637492    9.31925  0.0000E+00  0.1606E-04  0.2469E-06  0.3541E-03  0.3749E-02  0.1880E+02
   -0.679993    9.32201  0.0000E+00  0.1456E-04  0.1925E-06  0.3910E-03  0.3141E-02  0.2158E+02
   -0.722494    9.32444  0.0000E+00  0.1330E-04  0.1536E-06  0.4326E-03  0.2641E-02  0.1356E+02
   -0.764996    9.32657  0.0000E+00  0.1222E-04  0.1244E-06  0.4766E-03  0.2241E-02  0.4418E+02
   -0.807497    9.32844  0.0000E+00  0.1130E-04  0.1018E-06  0.5167E-03  0.1927E-02  0.1372E+03
   -0.849998    9.33010  0.0000E+00  0.1053E-04  0.8429E-07  0.5524E-03  0.1670E-02  0.2503E+02
   -0.892500    9.33162  0.0000E+00  0.9871E-05  0.7051E-07  0.5868E-03  0.1457E-02  0.1154E+03
   -0.935001    9.33299  0.0000E+00  0.9312E-05  0.5968E-07  0.6137E-03  0.1279E-02  0.1474E+02
   -0.977502    9.33430  0.0000E+00  0.8835E-05  0.5109E-07  0.6373E-03  0.1124E-02  0.3600E+02
   -1.020004    9.33554  0.0000E+00  0.8426E-05  0.4425E-07  0.6556E-03  0.9912E-03  0.2579E+01
   -1.062505    9.33674  0.0000E+00  0.8075E-05  0.3882E-07  0.6690E-03  0.8722E-03  0.3632E+01
   -1.105006    9.33792  0.0000E+00  0.7772E-05  0.3451E-07  0.6782E-03  0.7657E-03  0.2326E+01
   -1.147507    9.33908  0.0000E+00  0.7513E-05  0.3120E-07  0.6819E-03  0.6668E-03  0.2341E+01
   -1.190007    9.34023  0.0000E+00  0.7289E-05  0.2869E-07  0.6799E-03  0.5724E-03  0.2493E+01
   -1.232508    9.34140  0.0000E+00  0.7083E-05  0.2678E-07  0.6757E-03  0.4837E-03  0.2606E+01
   -1.275008    9.34258  0.0000E+00  0.6892E-05  0.2538E-07  0.6662E-03  0.4074E-03  0.2711E+01
   -1.317508    9.34377  0.0000E+00  0.6712E-05  0.2447E-07  0.6507E-03  0.3432E-03  0.3347E+01
   -1.360008    9.34500  0.0000E+00  0.6537E-05  0.2406E-07  0.6253E-03  0.2900E-03  0.4425E+01
   -1.402508    9.34628  0.0000E+00  0.6358E-05  0.2430E-07  0.5941E-03  0.2468E-03  0.6504E+01
   -1.445007    9.34765  0.0000E+00  0.6181E-05  0.2555E-07  0.5476E-03  0.2097E-03  0.1052E+02
   -1.487507    9.34920  0.0000E+00  0.5994E-05  0.2838E-07  0.5092E-03  0.1733E-03  0.9750E+01
   -1.530005    9.35098  0.0000E+00  0.5753E-05  0.3517E-07  0.4212E-03  0.1364E-03  0.2007E+04
   -1.572504    9.35359  0.0000E+00  0.5406E-05  0.5042E-07  0.4417E-03  0.9867E-04  0.7060E+04
   -1.615002    9.35527  0.0000E+00  0.4530E-05  0.1210E-06  0.1840E-03  0.7800E-04 -0.4034E+07
   -1.657500    9.36802  0.0000E+00  0.2954E-05  0.3179E-06  0.7820E-04  0.4921E-04 -0.5122E+06
   -1.699997    9.38045  0.0000E+00  0.0000E+00  0.0000E+00  0.0000E+00  0.7337E-04  0.0000E+00
