 1 - depth, m
 2 - temperature, C
 3 - salinity, kg/kg
 4 - turbulent kinetic energy, m**2/s**2
 5 - dissipation rate, m**2/s**3
 6 - kinematic heat conductance, m**2/s
 7 - modulus of horizontal velocity, m/s
 8 - Richardson number, n/d
   -0.000000   15.64087  0.0000E+00  0.3457E-03  0.2727E-03  0.7232E-04  0.1846E+00 -0.1360E+00
   -0.042497   15.71879  0.0000E+00  0.1786E-03  0.8741E-04  0.1828E-03  0.4084E-01 -0.3565E+00
   -0.084995   15.73243  0.0000E+00  0.1285E-03  0.4609E-04  0.1614E-03  0.2716E-01 -0.4396E+00
   -0.127493   15.74208  0.0000E+00  0.9690E-04  0.2568E-04  0.1448E-03  0.2184E-01 -0.9980E-01
   -0.169992   15.74956  0.0000E+00  0.7281E-04  0.1297E-04  0.1382E-03  0.1783E-01 -0.3309E-01
   -0.212491   15.75613  0.0000E+00  0.5521E-04  0.6957E-05  0.1398E-03  0.1450E-01  0.2101E+01
   -0.254990   15.76200  0.0000E+00  0.4179E-04  0.3525E-05  0.1472E-03  0.1185E-01  0.4820E+02
   -0.297489   15.76748  0.0000E+00  0.3237E-04  0.1886E-05  0.1577E-03  0.9817E-02  0.3149E+01
   -0.339989   15.77241  0.0000E+00  0.2586E-04  0.1073E-05  0.1730E-03  0.8169E-02  0.1017E+02
   -0.382489   15.77675  0.0000E+00  0.2123E-04  0.6516E-06  0.1953E-03  0.6774E-02  0.6917E+02
   -0.424989   15.78043  0.0000E+00  0.1801E-04  0.4277E-06  0.2280E-03  0.5684E-02  0.2839E+03
   -0.467490   15.78351  0.0000E+00  0.1566E-04  0.2984E-06  0.2666E-03  0.4768E-02  0.1502E+03
   -0.509990   15.78603  0.0000E+00  0.1388E-04  0.2168E-06  0.3060E-03  0.4004E-02  0.8295E+02
   -0.552491   15.78813  0.0000E+00  0.1251E-04  0.1625E-06  0.3447E-03  0.3359E-02  0.1920E+02
   -0.594992   15.78989  0.0000E+00  0.1142E-04  0.1250E-06  0.3857E-03  0.2799E-02  0.3781E+02
   -0.637493   15.79139  0.0000E+00  0.1052E-04  0.9804E-07  0.4283E-03  0.2319E-02  0.8304E+02
   -0.679994   15.79267  0.0000E+00  0.9788E-05  0.7854E-07  0.4712E-03  0.1924E-02  0.9753E+01
   -0.722495   15.79379  0.0000E+00  0.9179E-05  0.6401E-07  0.5141E-03  0.1597E-02  0.1004E+03
   -0.764997   15.79478  0.0000E+00  0.8665E-05  0.5294E-07  0.5568E-03  0.1334E-02  0.3341E+01
   -0.807498   15.79568  0.0000E+00  0.8236E-05  0.4445E-07  0.5925E-03  0.1129E-02  0.1473E+02
   -0.849999   15.79650  0.0000E+00  0.7880E-05  0.3800E-07  0.6240E-03  0.9638E-03  0.2183E+01
   -0.892501   15.79726  0.0000E+00  0.7579E-05  0.3298E-07  0.6506E-03  0.8287E-03  0.2173E+01
   -0.935002   15.79798  0.0000E+00  0.7324E-05  0.2909E-07  0.6723E-03  0.7179E-03  0.1630E+01
   -0.977504   15.79866  0.0000E+00  0.7104E-05  0.2604E-07  0.6904E-03  0.6238E-03  0.1294E+01
   -1.020005   15.79931  0.0000E+00  0.6913E-05  0.2364E-07  0.7038E-03  0.5445E-03  0.1268E+01
   -1.062506   15.79992  0.0000E+00  0.6743E-05  0.2174E-07  0.7131E-03  0.4756E-03  0.1303E+01
   -1.105007   15.80052  0.0000E+00  0.6591E-05  0.2025E-07  0.7184E-03  0.4155E-03  0.1363E+01
   -1.147508   15.80110  0.0000E+00  0.6455E-05  0.1913E-07  0.7194E-03  0.3611E-03  0.1437E+01
   -1.190009   15.80165  0.0000E+00  0.6334E-05  0.1833E-07  0.7159E-03  0.3105E-03  0.1492E+01
   -1.232509   15.80219  0.0000E+00  0.6222E-05  0.1777E-07  0.7082E-03  0.2642E-03  0.1566E+01
   -1.275010   15.80273  0.0000E+00  0.6115E-05  0.1745E-07  0.6949E-03  0.2252E-03  0.1829E+01
   -1.317510   15.80326  0.0000E+00  0.6013E-05  0.1736E-07  0.6757E-03  0.1929E-03  0.2270E+01
   -1.360010   15.80380  0.0000E+00  0.5908E-05  0.1752E-07  0.6484E-03  0.1661E-03  0.2935E+01
   -1.402510   15.80435  0.0000E+00  0.5792E-05  0.1803E-07  0.6178E-03  0.1438E-03  0.4213E+01
   -1.445009   15.80493  0.0000E+00  0.5668E-05  0.1911E-07  0.5688E-03  0.1240E-03  0.6514E+02
   -1.487508   15.80556  0.0000E+00  0.5531E-05  0.2102E-07  0.5348E-03  0.1032E-03  0.9762E+01
   -1.530007   15.80623  0.0000E+00  0.5353E-05  0.2520E-07  0.4397E-03  0.8315E-04  0.1875E+02
   -1.572506   15.80723  0.0000E+00  0.5077E-05  0.3534E-07  0.4708E-03  0.6145E-04  0.4072E+04
   -1.615004   15.80783  0.0000E+00  0.4314E-05  0.8241E-07  0.1942E-03  0.5025E-04 -0.1520E+07
   -1.657502   15.81285  0.0000E+00  0.2781E-05  0.2326E-06  0.7502E-04  0.3153E-04 -0.4297E+05
   -1.699999   15.81744  0.0000E+00  0.0000E+00  0.0000E+00  0.0000E+00  0.4336E-04  0.0000E+00
