 1 - depth, m
 2 - temperature, C
 3 - salinity, kg/kg
 4 - turbulent kinetic energy, m**2/s**2
 5 - dissipation rate, m**2/s**3
 6 - kinematic heat conductance, m**2/s
 7 - modulus of horizontal velocity, m/s
 8 - Richardson number, n/d
   -0.000000    0.00000  0.0000E+00  0.3189E-13  0.5206E-16  0.1000E-09  0.0000E+00  0.9762E+16
   -0.042497    0.14943  0.0000E+00  0.3189E-13  0.5206E-16  0.1000E-09  0.0000E+00  0.9739E+16
   -0.084995    0.30496  0.0000E+00  0.3189E-13  0.5206E-16  0.1000E-09  0.0000E+00  0.9638E+16
   -0.127493    0.46608  0.0000E+00  0.3189E-13  0.5206E-16  0.1000E-09  0.0000E+00  0.9161E+16
   -0.169992    0.62682  0.0000E+00  0.3189E-13  0.5206E-16  0.1000E-09  0.0000E+00  0.8682E+16
   -0.212491    0.78706  0.0000E+00  0.3189E-13  0.5206E-16  0.1000E-09  0.0000E+00  0.8206E+16
   -0.254990    0.94670  0.0000E+00  0.3189E-13  0.5206E-16  0.1000E-09  0.0000E+00  0.7731E+16
   -0.297490    1.10562  0.0000E+00  0.3189E-13  0.5206E-16  0.1000E-09  0.0000E+00  0.7251E+16
   -0.339989    1.26351  0.0000E+00  0.3189E-13  0.5206E-16  0.1000E-09  0.0000E+00  0.6767E+16
   -0.382489    1.42002  0.0000E+00  0.5651E-13  0.5206E-16  0.1000E-09  0.0000E+00  0.6288E+16
   -0.424990    1.57496  0.0000E+00  0.1683E-12  0.5455E-16  0.1000E-09  0.0000E+00  0.5813E+16
   -0.467490    1.72804  0.0000E+00  0.4177E-12  0.7293E-16  0.1000E-09  0.0000E+00  0.5349E+16
   -0.509991    1.87908  0.0000E+00  0.8551E-12  0.1221E-15  0.1000E-09  0.0000E+00  0.4921E+16
   -0.552492    2.02869  0.0000E+00  0.1610E-11  0.2137E-15  0.1000E-09  0.0000E+00  0.4506E+16
   -0.594993    2.17686  0.0000E+00  0.2921E-11  0.3746E-15  0.1000E-09  0.0000E+00  0.4106E+16
   -0.637494    2.32372  0.0000E+00  0.5261E-11  0.6596E-15  0.1000E-09  0.0000E+00  0.3725E+16
   -0.679995    2.46956  0.0000E+00  0.9440E-11  0.1162E-14  0.1000E-09  0.0000E+00  0.3350E+16
   -0.722496    2.61424  0.0000E+00  0.1694E-10  0.2049E-14  0.1000E-09  0.0000E+00  0.2985E+16
   -0.764998    2.75776  0.0000E+00  0.3043E-10  0.3622E-14  0.1000E-09  0.0000E+00  0.2625E+16
   -0.807499    2.89992  0.0000E+00  0.5461E-10  0.6396E-14  0.1000E-09  0.0000E+00  0.2265E+16
   -0.850001    3.03991  0.0000E+00  0.9690E-10  0.1117E-13  0.1000E-09  0.0000E+00  0.1913E+16
   -0.892502    3.17709  0.0000E+00  0.1713E-09  0.1944E-13  0.1000E-09  0.0000E+00  0.1593E+16
   -0.935004    3.31264  0.0000E+00  0.2995E-09  0.3348E-13  0.1042E-09  0.0000E+00  0.1289E+16
   -0.977505    3.44695  0.0000E+00  0.5207E-09  0.5733E-13  0.1827E-09  0.0000E+00  0.9921E+15
   -1.020006    3.57988  0.0000E+00  0.8992E-09  0.9753E-13  0.4391E-09  0.0000E+00  0.7009E+15
   -1.062508    3.71032  0.0000E+00  0.1543E-08  0.1649E-12  0.1217E-08  0.0000E+00  0.4244E+15
   -1.105009    3.83773  0.0000E+00  0.2630E-08  0.2770E-12  0.5265E-08  0.0000E+00  0.1639E+15
   -1.147510    3.95839  0.0000E+00  0.3829E-08  0.4054E-12  0.2785E-05  0.0000E+00  0.8736E+13
   -1.190010    3.99791  0.0000E+00  0.4323E-08  0.4627E-12  0.1508E-04  0.0000E+00 -0.1919E+12
   -1.232511    3.99912  0.0000E+00  0.4613E-08  0.5027E-12  0.1609E-04  0.0000E+00 -0.2013E+12
   -1.275012    4.00020  0.0000E+00  0.4884E-08  0.5476E-12  0.1663E-04  0.0000E+00 -0.2147E+12
   -1.317512    4.00125  0.0000E+00  0.5143E-08  0.6001E-12  0.1709E-04  0.0000E+00 -0.2358E+12
   -1.360012    4.00229  0.0000E+00  0.5391E-08  0.6636E-12  0.1722E-04  0.0000E+00 -0.2661E+12
   -1.402512    4.00338  0.0000E+00  0.5634E-08  0.7449E-12  0.1644E-04  0.0000E+00 -0.3080E+12
   -1.445011    4.00455  0.0000E+00  0.5845E-08  0.8434E-12  0.1484E-04  0.0000E+00 -0.3627E+12
   -1.487511    4.00583  0.0000E+00  0.6029E-08  0.9711E-12  0.1311E-04  0.0000E+00 -0.4461E+12
   -1.530009    4.00728  0.0000E+00  0.6208E-08  0.1176E-11  0.1174E-04  0.0000E+00 -0.6289E+12
   -1.572508    4.00915  0.0000E+00  0.6390E-08  0.1606E-11  0.1058E-04  0.0000E+00 -0.1192E+13
   -1.615006    4.01232  0.0000E+00  0.6337E-08  0.3088E-11  0.4369E-05  0.0000E+00 -0.4069E+13
   -1.657504    4.02094  0.0000E+00  0.5107E-08  0.8685E-11  0.7148E-06  0.0000E+00 -0.3747E+14
   -1.700001    4.06367  0.0000E+00  0.0000E+00  0.0000E+00  0.0000E+00  0.0000E+00  0.0000E+00
