 1 - depth, m
 2 - temperature, C
 3 - salinity, kg/kg
 4 - turbulent kinetic energy, m**2/s**2
 5 - dissipation rate, m**2/s**3
 6 - kinematic heat conductance, m**2/s
 7 - modulus of horizontal velocity, m/s
 8 - Richardson number, n/d
   -0.000000   14.66638  0.0000E+00  0.6154E-03  0.2137E-02  0.1019E-03  0.2780E+00  0.1405E-01
   -0.042498   14.76521  0.0000E+00  0.3031E-03  0.7731E-03  0.2286E-03  0.6000E-01 -0.3116E+00
   -0.084996   14.79088  0.0000E+00  0.2142E-03  0.3958E-03  0.2314E-03  0.3666E-01  0.3110E-02
   -0.127495   14.80297  0.0000E+00  0.1613E-03  0.2485E-03  0.1945E-03  0.2911E-01 -0.6753E-01
   -0.169994   14.81099  0.0000E+00  0.1219E-03  0.1545E-03  0.1746E-03  0.2386E-01 -0.7037E-01
   -0.212494   14.81750  0.0000E+00  0.9269E-04  0.9967E-04  0.1693E-03  0.1949E-01  0.1956E+00
   -0.254994   14.82364  0.0000E+00  0.7033E-04  0.6284E-04  0.1716E-03  0.1599E-01  0.5034E+01
   -0.297494   14.82947  0.0000E+00  0.5476E-04  0.4009E-04  0.1778E-03  0.1342E-01  0.2573E+02
   -0.339994   14.83422  0.0000E+00  0.4346E-04  0.2477E-04  0.1866E-03  0.1144E-01  0.2268E+02
   -0.382495   14.83861  0.0000E+00  0.3529E-04  0.1458E-04  0.2010E-03  0.9652E-02  0.2955E+04
   -0.424996   14.84203  0.0000E+00  0.2938E-04  0.8174E-05  0.2172E-03  0.8304E-02  0.5439E+01
   -0.467497   14.84525  0.0000E+00  0.2506E-04  0.4435E-05  0.2414E-03  0.6997E-02  0.2248E+02
   -0.509998   14.84814  0.0000E+00  0.2185E-04  0.2396E-05  0.2747E-03  0.5853E-02  0.6072E+02
   -0.552499   14.85057  0.0000E+00  0.1937E-04  0.1314E-05  0.3135E-03  0.4920E-02  0.6458E+03
   -0.595001   14.85268  0.0000E+00  0.1740E-04  0.7725E-06  0.3560E-03  0.4132E-02  0.3723E+02
   -0.637503   14.85438  0.0000E+00  0.1577E-04  0.4622E-06  0.3973E-03  0.3475E-02  0.4110E+02
   -0.680004   14.85598  0.0000E+00  0.1440E-04  0.2976E-06  0.4374E-03  0.2938E-02  0.5502E+02
   -0.722506   14.85722  0.0000E+00  0.1323E-04  0.2022E-06  0.4809E-03  0.2491E-02  0.5207E+02
   -0.765008   14.85845  0.0000E+00  0.1223E-04  0.1455E-06  0.5230E-03  0.2126E-02  0.5915E+02
   -0.807510   14.85942  0.0000E+00  0.1135E-04  0.1096E-06  0.5571E-03  0.1837E-02 -0.2641E+02
   -0.850012   14.86041  0.0000E+00  0.1062E-04  0.8723E-07  0.5868E-03  0.1594E-02  0.1195E+04
   -0.892514   14.86124  0.0000E+00  0.9987E-05  0.7145E-07  0.6161E-03  0.1392E-02  0.1522E+02
   -0.935016   14.86206  0.0000E+00  0.9448E-05  0.6006E-07  0.6382E-03  0.1222E-02  0.4618E+02
   -0.977518   14.86280  0.0000E+00  0.8983E-05  0.5125E-07  0.6594E-03  0.1073E-02  0.1051E+03
   -1.020020   14.86353  0.0000E+00  0.8582E-05  0.4442E-07  0.6745E-03  0.9442E-03  0.1723E+02
   -1.062522   14.86420  0.0000E+00  0.8232E-05  0.3901E-07  0.6865E-03  0.8295E-03  0.1340E+02
   -1.105024   14.86487  0.0000E+00  0.7922E-05  0.3471E-07  0.6939E-03  0.7264E-03  0.2852E+03
   -1.147525   14.86551  0.0000E+00  0.7652E-05  0.3142E-07  0.6963E-03  0.6310E-03  0.3825E+02
   -1.190027   14.86614  0.0000E+00  0.7416E-05  0.2895E-07  0.6938E-03  0.5400E-03  0.5324E+01
   -1.232528   14.86677  0.0000E+00  0.7197E-05  0.2709E-07  0.6884E-03  0.4551E-03  0.5800E+01
   -1.275029   14.86740  0.0000E+00  0.6993E-05  0.2576E-07  0.6767E-03  0.3826E-03  0.6076E+01
   -1.317530   14.86803  0.0000E+00  0.6802E-05  0.2494E-07  0.6590E-03  0.3224E-03  0.9237E+01
   -1.360031   14.86868  0.0000E+00  0.6618E-05  0.2468E-07  0.6324E-03  0.2732E-03  0.2691E+02
   -1.402531   14.86935  0.0000E+00  0.6427E-05  0.2515E-07  0.6016E-03  0.2337E-03  0.2122E+02
   -1.445031   14.87007  0.0000E+00  0.6232E-05  0.2685E-07  0.5521E-03  0.1996E-03  0.4471E+02
   -1.487531   14.87089  0.0000E+00  0.6019E-05  0.3041E-07  0.5153E-03  0.1646E-03  0.4430E+02
   -1.530030   14.87182  0.0000E+00  0.5741E-05  0.3921E-07  0.4241E-03  0.1288E-03 -0.1485E+04
   -1.572530   14.87329  0.0000E+00  0.5366E-05  0.5915E-07  0.4396E-03  0.9108E-04  0.2493E+05
   -1.615028   14.87398  0.0000E+00  0.4509E-05  0.1537E-06  0.1958E-03  0.7269E-04 -0.3655E+06
   -1.657527   14.88071  0.0000E+00  0.2955E-05  0.4003E-06  0.7987E-04  0.4642E-04 -0.6762E+06
   -1.700025   14.88713  0.0000E+00  0.0000E+00  0.0000E+00  0.0000E+00  0.7194E-04  0.0000E+00
