 1 - depth, m
 2 - temperature, C
 3 - salinity, kg/kg
 4 - turbulent kinetic energy, m**2/s**2
 5 - dissipation rate, m**2/s**3
 6 - kinematic heat conductance, m**2/s
 7 - modulus of horizontal velocity, m/s
 8 - Richardson number, n/d
   -0.000000    0.00000  0.0000E+00  0.3189E-13  0.5206E-16  0.1000E-09  0.0000E+00  0.8193E+16
   -0.042497    0.12499  0.0000E+00  0.3189E-13  0.5206E-16  0.1000E-09  0.0000E+00  0.8256E+16
   -0.084995    0.25548  0.0000E+00  0.3189E-13  0.5206E-16  0.1000E-09  0.0000E+00  0.8262E+16
   -0.127493    0.39111  0.0000E+00  0.3189E-13  0.5206E-16  0.1000E-09  0.0000E+00  0.7954E+16
   -0.169992    0.52702  0.0000E+00  0.3189E-13  0.5206E-16  0.1000E-09  0.0000E+00  0.7642E+16
   -0.212491    0.66314  0.0000E+00  0.3189E-13  0.5206E-16  0.1000E-09  0.0000E+00  0.7328E+16
   -0.254990    0.79945  0.0000E+00  0.3189E-13  0.5206E-16  0.1000E-09  0.0000E+00  0.7012E+16
   -0.297490    0.93589  0.0000E+00  0.3189E-13  0.5206E-16  0.1000E-09  0.0000E+00  0.6683E+16
   -0.339989    1.07220  0.0000E+00  0.3189E-13  0.5206E-16  0.1000E-09  0.0000E+00  0.6342E+16
   -0.382489    1.20805  0.0000E+00  0.3189E-13  0.5206E-16  0.1000E-09  0.0000E+00  0.6000E+16
   -0.424990    1.34330  0.0000E+00  0.3189E-13  0.5206E-16  0.1000E-09  0.0000E+00  0.5650E+16
   -0.467490    1.47763  0.0000E+00  0.3189E-13  0.5206E-16  0.1000E-09  0.0000E+00  0.5304E+16
   -0.509991    1.61091  0.0000E+00  0.3189E-13  0.5206E-16  0.1000E-09  0.0000E+00  0.4975E+16
   -0.552492    1.74343  0.0000E+00  0.3189E-13  0.5206E-16  0.1000E-09  0.0000E+00  0.4652E+16
   -0.594993    1.87516  0.0000E+00  0.3189E-13  0.5206E-16  0.1000E-09  0.0000E+00  0.4340E+16
   -0.637494    2.00623  0.0000E+00  0.3189E-13  0.5206E-16  0.1000E-09  0.0000E+00  0.4042E+16
   -0.679995    2.13692  0.0000E+00  0.3189E-13  0.5206E-16  0.1000E-09  0.0000E+00  0.3745E+16
   -0.722497    2.26714  0.0000E+00  0.3189E-13  0.5206E-16  0.1000E-09  0.0000E+00  0.3455E+16
   -0.764998    2.39699  0.0000E+00  0.1425E-12  0.5239E-16  0.1000E-09  0.0000E+00  0.3166E+16
   -0.807499    2.52634  0.0000E+00  0.3983E-12  0.9969E-16  0.1000E-09  0.0000E+00  0.2866E+16
   -0.850001    2.65454  0.0000E+00  0.9258E-12  0.2094E-15  0.1000E-09  0.0000E+00  0.2566E+16
   -0.892502    2.78108  0.0000E+00  0.2030E-11  0.4408E-15  0.1000E-09  0.0000E+00  0.2287E+16
   -0.935004    2.90657  0.0000E+00  0.4312E-11  0.9115E-15  0.1000E-09  0.0000E+00  0.2016E+16
   -0.977505    3.03103  0.0000E+00  0.9035E-11  0.1865E-14  0.1000E-09  0.0000E+00  0.1750E+16
   -1.020006    3.15430  0.0000E+00  0.1871E-10  0.3778E-14  0.1000E-09  0.0000E+00  0.1483E+16
   -1.062508    3.27554  0.0000E+00  0.3839E-10  0.7580E-14  0.1000E-09  0.0000E+00  0.1226E+16
   -1.105009    3.39448  0.0000E+00  0.7814E-10  0.1509E-13  0.1000E-09  0.0000E+00  0.9766E+15
   -1.147510    3.51026  0.0000E+00  0.1565E-09  0.2959E-13  0.1254E-09  0.0000E+00  0.7416E+15
   -1.190011    3.62221  0.0000E+00  0.3108E-09  0.5752E-13  0.3424E-09  0.0000E+00  0.5276E+15
   -1.232511    3.73031  0.0000E+00  0.6282E-09  0.1138E-12  0.1067E-08  0.0000E+00  0.3348E+15
   -1.275012    3.83489  0.0000E+00  0.1281E-08  0.2272E-12  0.4460E-08  0.0000E+00  0.1595E+15
   -1.317512    3.93530  0.0000E+00  0.2543E-08  0.4438E-12  0.7601E-07  0.0000E+00  0.1765E+14
   -1.360012    4.00508  0.0000E+00  0.3542E-08  0.6245E-12  0.8447E-05  0.0000E+00 -0.5756E+12
   -1.402512    4.00694  0.0000E+00  0.4069E-08  0.7445E-12  0.8969E-05  0.0000E+00 -0.6094E+12
   -1.445011    4.00875  0.0000E+00  0.4493E-08  0.8740E-12  0.8729E-05  0.0000E+00 -0.6693E+12
   -1.487511    4.01058  0.0000E+00  0.4843E-08  0.1032E-11  0.8122E-05  0.0000E+00 -0.7822E+12
   -1.530010    4.01256  0.0000E+00  0.5180E-08  0.1281E-11  0.7649E-05  0.0000E+00 -0.1063E+13
   -1.572508    4.01503  0.0000E+00  0.5542E-08  0.1785E-11  0.7385E-05  0.0000E+00 -0.1930E+13
   -1.615006    4.01904  0.0000E+00  0.5693E-08  0.3292E-11  0.3452E-05  0.0000E+00 -0.5687E+13
   -1.657504    4.02871  0.0000E+00  0.4701E-08  0.8219E-11  0.6662E-06  0.0000E+00 -0.4089E+14
   -1.700002    4.07011  0.0000E+00  0.0000E+00  0.0000E+00  0.0000E+00  0.0000E+00  0.0000E+00
