 1 - depth, m
 2 - temperature, C
 3 - salinity, kg/kg
 4 - turbulent kinetic energy, m**2/s**2
 5 - dissipation rate, m**2/s**3
 6 - kinematic heat conductance, m**2/s
 7 - modulus of horizontal velocity, m/s
 8 - Richardson number, n/d
   -0.000000    0.00000  0.0000E+00  0.3188E-13  0.5206E-16  0.1000E-09  0.0000E+00  0.6004E+16
   -0.042498    0.09118  0.0000E+00  0.3188E-13  0.5206E-16  0.1000E-09  0.0000E+00  0.6452E+16
   -0.084997    0.19178  0.0000E+00  0.3188E-13  0.5206E-16  0.1000E-09  0.0000E+00  0.6833E+16
   -0.127496    0.30150  0.0000E+00  0.3188E-13  0.5206E-16  0.1000E-09  0.0000E+00  0.6804E+16
   -0.169996    0.41432  0.0000E+00  0.3188E-13  0.5206E-16  0.1000E-09  0.0000E+00  0.6735E+16
   -0.212495    0.52986  0.0000E+00  0.3188E-13  0.5206E-16  0.1000E-09  0.0000E+00  0.6621E+16
   -0.254996    0.64757  0.0000E+00  0.3188E-13  0.5206E-16  0.1000E-09  0.0000E+00  0.6467E+16
   -0.297496    0.76693  0.0000E+00  0.3188E-13  0.5206E-16  0.1000E-09  0.0000E+00  0.6294E+16
   -0.339997    0.88777  0.0000E+00  0.3188E-13  0.5206E-16  0.1000E-09  0.0000E+00  0.6116E+16
   -0.382498    1.01013  0.0000E+00  0.3188E-13  0.5206E-16  0.1000E-09  0.0000E+00  0.5915E+16
   -0.424999    1.13372  0.0000E+00  0.3188E-13  0.5206E-16  0.1000E-09  0.0000E+00  0.5714E+16
   -0.467500    1.25868  0.0000E+00  0.3188E-13  0.5206E-16  0.1000E-09  0.0000E+00  0.5499E+16
   -0.510002    1.38487  0.0000E+00  0.3188E-13  0.5206E-16  0.1000E-09  0.0000E+00  0.5268E+16
   -0.552504    1.51206  0.0000E+00  0.3188E-13  0.5206E-16  0.1000E-09  0.0000E+00  0.5028E+16
   -0.595005    1.64014  0.0000E+00  0.3188E-13  0.5206E-16  0.1000E-09  0.0000E+00  0.4773E+16
   -0.637507    1.76887  0.0000E+00  0.3188E-13  0.5206E-16  0.1000E-09  0.0000E+00  0.4498E+16
   -0.680010    1.89769  0.0000E+00  0.3188E-13  0.5206E-16  0.1000E-09  0.0000E+00  0.4215E+16
   -0.722512    2.02636  0.0000E+00  0.3188E-13  0.5206E-16  0.1000E-09  0.0000E+00  0.3918E+16
   -0.765014    2.15432  0.0000E+00  0.3188E-13  0.5206E-16  0.1000E-09  0.0000E+00  0.3610E+16
   -0.807516    2.28099  0.0000E+00  0.3188E-13  0.5206E-16  0.1000E-09  0.0000E+00  0.3310E+16
   -0.850019    2.40628  0.0000E+00  0.3188E-13  0.5206E-16  0.1000E-09  0.0000E+00  0.3013E+16
   -0.892521    2.52992  0.0000E+00  0.3188E-13  0.5206E-16  0.1000E-09  0.0000E+00  0.2741E+16
   -0.935023    2.65259  0.0000E+00  0.1400E-12  0.6126E-16  0.1000E-09  0.0000E+00  0.2491E+16
   -0.977526    2.77504  0.0000E+00  0.4103E-12  0.1352E-15  0.1000E-09  0.0000E+00  0.2237E+16
   -1.020028    2.89694  0.0000E+00  0.1038E-11  0.3187E-15  0.1000E-09  0.0000E+00  0.1984E+16
   -1.062530    3.01802  0.0000E+00  0.2506E-11  0.7433E-15  0.1000E-09  0.0000E+00  0.1731E+16
   -1.105032    3.13793  0.0000E+00  0.5931E-11  0.1712E-14  0.1000E-09  0.0000E+00  0.1483E+16
   -1.147534    3.25635  0.0000E+00  0.1374E-10  0.3869E-14  0.1000E-09  0.0000E+00  0.1241E+16
   -1.190036    3.37308  0.0000E+00  0.3150E-10  0.8648E-14  0.1000E-09  0.0000E+00  0.1006E+16
   -1.232537    3.48753  0.0000E+00  0.7353E-10  0.1969E-13  0.1000E-09  0.0000E+00  0.7735E+15
   -1.275039    3.59809  0.0000E+00  0.1730E-09  0.4519E-13  0.2494E-09  0.0000E+00  0.5679E+15
   -1.317540    3.70595  0.0000E+00  0.4084E-09  0.1042E-12  0.8205E-09  0.0000E+00  0.3975E+15
   -1.360041    3.81886  0.0000E+00  0.9693E-09  0.2416E-12  0.3754E-08  0.0000E+00  0.2013E+15
   -1.402542    3.93727  0.0000E+00  0.2221E-08  0.5439E-12  0.1111E-06  0.0000E+00  0.1536E+14
   -1.445042    4.00879  0.0000E+00  0.3501E-08  0.8720E-12  0.5761E-05  0.0000E+00 -0.1136E+13
   -1.487542    4.01182  0.0000E+00  0.4119E-08  0.1093E-11  0.5928E-05  0.0000E+00 -0.1253E+13
   -1.530042    4.01479  0.0000E+00  0.4663E-08  0.1406E-11  0.5930E-05  0.0000E+00 -0.1618E+13
   -1.572541    4.01821  0.0000E+00  0.5212E-08  0.1997E-11  0.5955E-05  0.0000E+00 -0.2755E+13
   -1.615041    4.02332  0.0000E+00  0.5543E-08  0.3571E-11  0.3097E-05  0.0000E+00 -0.7156E+13
   -1.657539    4.03411  0.0000E+00  0.4644E-08  0.8306E-11  0.6541E-06  0.0000E+00 -0.4347E+14
   -1.700038    4.07485  0.0000E+00  0.0000E+00  0.0000E+00  0.0000E+00  0.0000E+00  0.0000E+00
