 1 - depth, m
 2 - temperature, C
 3 - salinity, kg/kg
 4 - turbulent kinetic energy, m**2/s**2
 5 - dissipation rate, m**2/s**3
 6 - kinematic heat conductance, m**2/s
 7 - modulus of horizontal velocity, m/s
 8 - Richardson number, n/d
   -0.000000    0.00000  0.0000E+00  0.4993E-10  0.3316E-13  0.1000E-09  0.0000E+00  0.2879E+17
   -0.042497    0.46013  0.0000E+00  0.1310E-09  0.2493E-13  0.1000E-09  0.0000E+00  0.2535E+17
   -0.084995    0.92598  0.0000E+00  0.2763E-09  0.2701E-13  0.1000E-09  0.0000E+00  0.2151E+17
   -0.127493    1.38980  0.0000E+00  0.4931E-09  0.3505E-13  0.1000E-09  0.0000E+00  0.1715E+17
   -0.169992    1.83383  0.0000E+00  0.8040E-09  0.4898E-13  0.1000E-09  0.0000E+00  0.1313E+17
   -0.212490    2.25229  0.0000E+00  0.1248E-08  0.7029E-13  0.1000E-09  0.0000E+00  0.9577E+16
   -0.254989    2.63986  0.0000E+00  0.1888E-08  0.1018E-12  0.1000E-09  0.0000E+00  0.6559E+16
   -0.297489    2.99110  0.0000E+00  0.2814E-08  0.1477E-12  0.1239E-09  0.0000E+00  0.4134E+16
   -0.339988    3.30097  0.0000E+00  0.4133E-08  0.2131E-12  0.3006E-09  0.0000E+00  0.2324E+16
   -0.382488    3.56610  0.0000E+00  0.6019E-08  0.3061E-12  0.9743E-09  0.0000E+00  0.1086E+16
   -0.424989    3.78602  0.0000E+00  0.8684E-08  0.4366E-12  0.5849E-08  0.0000E+00  0.3146E+15
   -0.467489    3.96210  0.0000E+00  0.9546E-08  0.4791E-12  0.4506E-04  0.0000E+00  0.2238E+14
   -0.509990    3.99294  0.0000E+00  0.9693E-08  0.4874E-12  0.6283E-04  0.0000E+00 -0.3428E+11
   -0.552490    3.99331  0.0000E+00  0.9806E-08  0.4947E-12  0.6436E-04  0.0000E+00 -0.3619E+11
   -0.594991    3.99367  0.0000E+00  0.9918E-08  0.5027E-12  0.6587E-04  0.0000E+00 -0.3791E+11
   -0.637492    3.99402  0.0000E+00  0.1003E-07  0.5117E-12  0.6724E-04  0.0000E+00 -0.3990E+11
   -0.679993    3.99436  0.0000E+00  0.1015E-07  0.5218E-12  0.6846E-04  0.0000E+00 -0.4203E+11
   -0.722494    3.99470  0.0000E+00  0.1027E-07  0.5330E-12  0.6956E-04  0.0000E+00 -0.4459E+11
   -0.764996    3.99504  0.0000E+00  0.1039E-07  0.5456E-12  0.7045E-04  0.0000E+00 -0.4763E+11
   -0.807497    3.99539  0.0000E+00  0.1052E-07  0.5596E-12  0.7098E-04  0.0000E+00 -0.5072E+11
   -0.849998    3.99574  0.0000E+00  0.1065E-07  0.5750E-12  0.7116E-04  0.0000E+00 -0.5410E+11
   -0.892500    3.99610  0.0000E+00  0.1078E-07  0.5920E-12  0.7090E-04  0.0000E+00 -0.5755E+11
   -0.935001    3.99647  0.0000E+00  0.1091E-07  0.6103E-12  0.7048E-04  0.0000E+00 -0.6065E+11
   -0.977502    3.99685  0.0000E+00  0.1104E-07  0.6302E-12  0.6994E-04  0.0000E+00 -0.6406E+11
   -1.020003    3.99723  0.0000E+00  0.1116E-07  0.6517E-12  0.6926E-04  0.0000E+00 -0.6738E+11
   -1.062505    3.99762  0.0000E+00  0.1128E-07  0.6750E-12  0.6845E-04  0.0000E+00 -0.7101E+11
   -1.105006    3.99801  0.0000E+00  0.1139E-07  0.7001E-12  0.6751E-04  0.0000E+00 -0.7444E+11
   -1.147507    3.99841  0.0000E+00  0.1150E-07  0.7266E-12  0.6647E-04  0.0000E+00 -0.7774E+11
   -1.190007    3.99882  0.0000E+00  0.1159E-07  0.7549E-12  0.6523E-04  0.0000E+00 -0.8195E+11
   -1.232508    3.99923  0.0000E+00  0.1168E-07  0.7870E-12  0.6383E-04  0.0000E+00 -0.8874E+11
   -1.275008    3.99966  0.0000E+00  0.1177E-07  0.8246E-12  0.6216E-04  0.0000E+00 -0.9682E+11
   -1.317508    4.00012  0.0000E+00  0.1185E-07  0.8699E-12  0.6010E-04  0.0000E+00 -0.1060E+12
   -1.360008    4.00060  0.0000E+00  0.1193E-07  0.9266E-12  0.5755E-04  0.0000E+00 -0.1184E+12
   -1.402508    4.00112  0.0000E+00  0.1200E-07  0.1001E-11  0.5442E-04  0.0000E+00 -0.1323E+12
   -1.445007    4.00168  0.0000E+00  0.1205E-07  0.1090E-11  0.5093E-04  0.0000E+00 -0.1461E+12
   -1.487506    4.00228  0.0000E+00  0.1209E-07  0.1201E-11  0.4682E-04  0.0000E+00 -0.1662E+12
   -1.530005    4.00293  0.0000E+00  0.1211E-07  0.1372E-11  0.4172E-04  0.0000E+00 -0.2144E+12
   -1.572504    4.00373  0.0000E+00  0.1209E-07  0.1737E-11  0.3486E-04  0.0000E+00 -0.3673E+12
   -1.615002    4.00503  0.0000E+00  0.1177E-07  0.3393E-11  0.1275E-04  0.0000E+00 -0.1317E+13
   -1.657499    4.00909  0.0000E+00  0.9137E-08  0.1492E-10  0.1135E-05  0.0000E+00 -0.2849E+14
   -1.699997    4.05076  0.0000E+00  0.0000E+00  0.0000E+00  0.0000E+00  0.0000E+00  0.0000E+00
