 1 - depth, m
 2 - temperature, C
 3 - salinity, kg/kg
 4 - turbulent kinetic energy, m**2/s**2
 5 - dissipation rate, m**2/s**3
 6 - kinematic heat conductance, m**2/s
 7 - modulus of horizontal velocity, m/s
 8 - Richardson number, n/d
   -0.000000    0.00000  0.0000E+00  0.5260E-11  0.1968E-14  0.1000E-09  0.0000E+00  0.2029E+17
   -0.042497    0.31787  0.0000E+00  0.1004E-10  0.1631E-14  0.1000E-09  0.0000E+00  0.1844E+17
   -0.084994    0.63453  0.0000E+00  0.1896E-10  0.1873E-14  0.1000E-09  0.0000E+00  0.1653E+17
   -0.127492    0.94813  0.0000E+00  0.3274E-10  0.2537E-14  0.1000E-09  0.0000E+00  0.1439E+17
   -0.169990    1.25191  0.0000E+00  0.5318E-10  0.3669E-14  0.1000E-09  0.0000E+00  0.1241E+17
   -0.212488    1.54555  0.0000E+00  0.8335E-10  0.5423E-14  0.1000E-09  0.0000E+00  0.1061E+17
   -0.254987    1.82951  0.0000E+00  0.1281E-09  0.8072E-14  0.1000E-09  0.0000E+00  0.8971E+16
   -0.297486    2.10401  0.0000E+00  0.1950E-09  0.1204E-13  0.1000E-09  0.0000E+00  0.7443E+16
   -0.339985    2.36796  0.0000E+00  0.2929E-09  0.1783E-13  0.1000E-09  0.0000E+00  0.6024E+16
   -0.382485    2.61955  0.0000E+00  0.4370E-09  0.2630E-13  0.1000E-09  0.0000E+00  0.4753E+16
   -0.424984    2.85798  0.0000E+00  0.6478E-09  0.3860E-13  0.1000E-09  0.0000E+00  0.3609E+16
   -0.467484    3.08095  0.0000E+00  0.9556E-09  0.5643E-13  0.1000E-09  0.0000E+00  0.2620E+16
   -0.509985    3.28684  0.0000E+00  0.1407E-08  0.8236E-13  0.1441E-09  0.0000E+00  0.1809E+16
   -0.552485    3.47610  0.0000E+00  0.2070E-08  0.1202E-12  0.3308E-09  0.0000E+00  0.1144E+16
   -0.594985    3.64718  0.0000E+00  0.3044E-08  0.1754E-12  0.8829E-09  0.0000E+00  0.6260E+15
   -0.637486    3.79896  0.0000E+00  0.4506E-08  0.2577E-12  0.3518E-08  0.0000E+00  0.2475E+15
   -0.679987    3.92968  0.0000E+00  0.6148E-08  0.3533E-12  0.5752E-05  0.0000E+00  0.3709E+14
   -0.722487    3.99492  0.0000E+00  0.6380E-08  0.3677E-12  0.3898E-04  0.0000E+00 -0.5195E+11
   -0.764988    3.99539  0.0000E+00  0.6523E-08  0.3777E-12  0.3995E-04  0.0000E+00 -0.5528E+11
   -0.807489    3.99584  0.0000E+00  0.6668E-08  0.3889E-12  0.4139E-04  0.0000E+00 -0.5710E+11
   -0.849990    3.99626  0.0000E+00  0.6810E-08  0.4010E-12  0.4258E-04  0.0000E+00 -0.5871E+11
   -0.892491    3.99666  0.0000E+00  0.6951E-08  0.4143E-12  0.4361E-04  0.0000E+00 -0.6086E+11
   -0.934992    3.99706  0.0000E+00  0.7087E-08  0.4285E-12  0.4440E-04  0.0000E+00 -0.6329E+11
   -0.977493    3.99745  0.0000E+00  0.7219E-08  0.4438E-12  0.4494E-04  0.0000E+00 -0.6611E+11
   -1.019994    3.99784  0.0000E+00  0.7346E-08  0.4601E-12  0.4514E-04  0.0000E+00 -0.6889E+11
   -1.062494    3.99824  0.0000E+00  0.7466E-08  0.4776E-12  0.4510E-04  0.0000E+00 -0.7207E+11
   -1.104995    3.99863  0.0000E+00  0.7580E-08  0.4965E-12  0.4481E-04  0.0000E+00 -0.7505E+11
   -1.147495    3.99903  0.0000E+00  0.7684E-08  0.5165E-12  0.4434E-04  0.0000E+00 -0.7787E+11
   -1.189996    3.99942  0.0000E+00  0.7780E-08  0.5379E-12  0.4372E-04  0.0000E+00 -0.8166E+11
   -1.232496    3.99983  0.0000E+00  0.7872E-08  0.5623E-12  0.4306E-04  0.0000E+00 -0.8834E+11
   -1.274996    4.00025  0.0000E+00  0.7961E-08  0.5910E-12  0.4217E-04  0.0000E+00 -0.9654E+11
   -1.317495    4.00070  0.0000E+00  0.8046E-08  0.6256E-12  0.4096E-04  0.0000E+00 -0.1066E+12
   -1.359995    4.00117  0.0000E+00  0.8129E-08  0.6689E-12  0.3939E-04  0.0000E+00 -0.1206E+12
   -1.402494    4.00169  0.0000E+00  0.8209E-08  0.7260E-12  0.3720E-04  0.0000E+00 -0.1363E+12
   -1.444993    4.00226  0.0000E+00  0.8279E-08  0.7970E-12  0.3432E-04  0.0000E+00 -0.1530E+12
   -1.487492    4.00287  0.0000E+00  0.8338E-08  0.8921E-12  0.3036E-04  0.0000E+00 -0.1833E+12
   -1.529990    4.00358  0.0000E+00  0.8390E-08  0.1050E-11  0.2613E-04  0.0000E+00 -0.2588E+12
   -1.572488    4.00454  0.0000E+00  0.8419E-08  0.1392E-11  0.2171E-04  0.0000E+00 -0.5022E+12
   -1.614986    4.00626  0.0000E+00  0.8193E-08  0.2821E-11  0.7741E-05  0.0000E+00 -0.1997E+13
   -1.657483    4.01192  0.0000E+00  0.6407E-08  0.1042E-10  0.8642E-06  0.0000E+00 -0.3144E+14
   -1.699980    4.05462  0.0000E+00  0.0000E+00  0.0000E+00  0.0000E+00  0.0000E+00  0.0000E+00
