 1 - depth, m
 2 - temperature, C
 3 - salinity, kg/kg
 4 - turbulent kinetic energy, m**2/s**2
 5 - dissipation rate, m**2/s**3
 6 - kinematic heat conductance, m**2/s
 7 - modulus of horizontal velocity, m/s
 8 - Richardson number, n/d
   -0.000000    0.00000  0.0000E+00  0.2266E-09  0.2239E-12  0.1000E-09  0.0000E+00  0.3081E+17
   -0.042497    0.49489  0.0000E+00  0.7756E-09  0.1716E-12  0.1000E-09  0.0000E+00  0.2571E+17
   -0.084994    0.97357  0.0000E+00  0.1772E-08  0.2042E-12  0.1000E-09  0.0000E+00  0.2122E+17
   -0.127492    1.43938  0.0000E+00  0.3320E-08  0.2927E-12  0.1000E-09  0.0000E+00  0.1712E+17
   -0.169990    1.89325  0.0000E+00  0.5671E-08  0.4455E-12  0.1048E-09  0.0000E+00  0.1342E+17
   -0.212488    2.33739  0.0000E+00  0.9259E-08  0.6880E-12  0.2168E-09  0.0000E+00  0.9993E+16
   -0.254987    2.77300  0.0000E+00  0.1479E-07  0.1065E-11  0.4940E-09  0.0000E+00  0.6795E+16
   -0.297486    3.19986  0.0000E+00  0.2336E-07  0.1649E-11  0.1368E-08  0.0000E+00  0.3800E+16
   -0.339985    3.61480  0.0000E+00  0.3629E-07  0.2523E-11  0.7365E-08  0.0000E+00  0.1084E+16
   -0.382485    4.00204  0.0000E+00  0.3664E-07  0.2549E-11  0.1777E-03  0.0000E+00 -0.7980E+11
   -0.424985    4.00235  0.0000E+00  0.3682E-07  0.2564E-11  0.1742E-03  0.0000E+00 -0.8076E+11
   -0.467485    4.00267  0.0000E+00  0.3700E-07  0.2581E-11  0.1745E-03  0.0000E+00 -0.8159E+11
   -0.509985    4.00299  0.0000E+00  0.3717E-07  0.2599E-11  0.1748E-03  0.0000E+00 -0.8273E+11
   -0.552485    4.00331  0.0000E+00  0.3734E-07  0.2620E-11  0.1749E-03  0.0000E+00 -0.8412E+11
   -0.594986    4.00362  0.0000E+00  0.3751E-07  0.2642E-11  0.1749E-03  0.0000E+00 -0.8592E+11
   -0.637486    4.00394  0.0000E+00  0.3768E-07  0.2668E-11  0.1746E-03  0.0000E+00 -0.8843E+11
   -0.679987    4.00426  0.0000E+00  0.3785E-07  0.2696E-11  0.1742E-03  0.0000E+00 -0.9131E+11
   -0.722488    4.00458  0.0000E+00  0.3802E-07  0.2728E-11  0.1736E-03  0.0000E+00 -0.9510E+11
   -0.764989    4.00491  0.0000E+00  0.3820E-07  0.2765E-11  0.1727E-03  0.0000E+00 -0.9963E+11
   -0.807490    4.00525  0.0000E+00  0.3839E-07  0.2806E-11  0.1716E-03  0.0000E+00 -0.1042E+12
   -0.849991    4.00560  0.0000E+00  0.3857E-07  0.2853E-11  0.1704E-03  0.0000E+00 -0.1091E+12
   -0.892492    4.00596  0.0000E+00  0.3876E-07  0.2905E-11  0.1689E-03  0.0000E+00 -0.1136E+12
   -0.934993    4.00632  0.0000E+00  0.3894E-07  0.2961E-11  0.1673E-03  0.0000E+00 -0.1173E+12
   -0.977494    4.00670  0.0000E+00  0.3911E-07  0.3023E-11  0.1654E-03  0.0000E+00 -0.1216E+12
   -1.019994    4.00708  0.0000E+00  0.3927E-07  0.3091E-11  0.1633E-03  0.0000E+00 -0.1258E+12
   -1.062495    4.00746  0.0000E+00  0.3943E-07  0.3165E-11  0.1610E-03  0.0000E+00 -0.1307E+12
   -1.104996    4.00785  0.0000E+00  0.3957E-07  0.3245E-11  0.1584E-03  0.0000E+00 -0.1354E+12
   -1.147496    4.00825  0.0000E+00  0.3970E-07  0.3330E-11  0.1556E-03  0.0000E+00 -0.1402E+12
   -1.189997    4.00866  0.0000E+00  0.3981E-07  0.3422E-11  0.1525E-03  0.0000E+00 -0.1463E+12
   -1.232497    4.00907  0.0000E+00  0.3990E-07  0.3527E-11  0.1490E-03  0.0000E+00 -0.1554E+12
   -1.274997    4.00950  0.0000E+00  0.3999E-07  0.3651E-11  0.1449E-03  0.0000E+00 -0.1659E+12
   -1.317497    4.00996  0.0000E+00  0.4006E-07  0.3801E-11  0.1401E-03  0.0000E+00 -0.1764E+12
   -1.359996    4.01043  0.0000E+00  0.4011E-07  0.3990E-11  0.1343E-03  0.0000E+00 -0.1903E+12
   -1.402495    4.01093  0.0000E+00  0.4014E-07  0.4239E-11  0.1275E-03  0.0000E+00 -0.2060E+12
   -1.444994    4.01146  0.0000E+00  0.4015E-07  0.4538E-11  0.1204E-03  0.0000E+00 -0.2225E+12
   -1.487493    4.01202  0.0000E+00  0.4012E-07  0.4908E-11  0.1122E-03  0.0000E+00 -0.2444E+12
   -1.529992    4.01262  0.0000E+00  0.4004E-07  0.5471E-11  0.1013E-03  0.0000E+00 -0.2887E+12
   -1.572490    4.01331  0.0000E+00  0.3982E-07  0.6669E-11  0.8596E-04  0.0000E+00 -0.4046E+12
   -1.614987    4.01425  0.0000E+00  0.3874E-07  0.1195E-10  0.3605E-04  0.0000E+00 -0.1123E+13
   -1.657485    4.01672  0.0000E+00  0.2866E-07  0.6575E-10  0.2010E-05  0.0000E+00 -0.3494E+14
   -1.699982    4.05972  0.0000E+00  0.0000E+00  0.0000E+00  0.0000E+00  0.0000E+00  0.0000E+00
