 1 - depth, m
 2 - temperature, C
 3 - salinity, kg/kg
 4 - turbulent kinetic energy, m**2/s**2
 5 - dissipation rate, m**2/s**3
 6 - kinematic heat conductance, m**2/s
 7 - modulus of horizontal velocity, m/s
 8 - Richardson number, n/d
   -0.000000    0.00000  0.0000E+00  0.1643E-08  0.2739E-11  0.1800E-09  0.0000E+00  0.4767E+17
   -0.042497    0.80028  0.0000E+00  0.8319E-08  0.2218E-11  0.1988E-09  0.0000E+00  0.3507E+17
   -0.084995    1.56293  0.0000E+00  0.2067E-07  0.3007E-11  0.3943E-09  0.0000E+00  0.2404E+17
   -0.127492    2.28230  0.0000E+00  0.4079E-07  0.4804E-11  0.1033E-08  0.0000E+00  0.1473E+17
   -0.169991    2.95497  0.0000E+00  0.7319E-07  0.7919E-11  0.3612E-08  0.0000E+00  0.7062E+16
   -0.212489    3.57092  0.0000E+00  0.1239E-06  0.1287E-10  0.3528E-07  0.0000E+00  0.1355E+16
   -0.254988    4.04601  0.0000E+00  0.1246E-06  0.1295E-10  0.3856E-03  0.0000E+00 -0.1991E+12
   -0.297487    4.04623  0.0000E+00  0.1250E-06  0.1299E-10  0.3810E-03  0.0000E+00 -0.1973E+12
   -0.339987    4.04644  0.0000E+00  0.1253E-06  0.1304E-10  0.3816E-03  0.0000E+00 -0.1967E+12
   -0.382487    4.04665  0.0000E+00  0.1256E-06  0.1309E-10  0.3821E-03  0.0000E+00 -0.1958E+12
   -0.424986    4.04687  0.0000E+00  0.1259E-06  0.1315E-10  0.3823E-03  0.0000E+00 -0.1946E+12
   -0.467487    4.04708  0.0000E+00  0.1262E-06  0.1321E-10  0.3824E-03  0.0000E+00 -0.1931E+12
   -0.509987    4.04728  0.0000E+00  0.1264E-06  0.1327E-10  0.3821E-03  0.0000E+00 -0.1917E+12
   -0.552488    4.04749  0.0000E+00  0.1267E-06  0.1334E-10  0.3817E-03  0.0000E+00 -0.1897E+12
   -0.594988    4.04769  0.0000E+00  0.1269E-06  0.1342E-10  0.3809E-03  0.0000E+00 -0.1895E+12
   -0.637489    4.04789  0.0000E+00  0.1271E-06  0.1350E-10  0.3798E-03  0.0000E+00 -0.1900E+12
   -0.679990    4.04809  0.0000E+00  0.1273E-06  0.1360E-10  0.3782E-03  0.0000E+00 -0.1919E+12
   -0.722491    4.04829  0.0000E+00  0.1274E-06  0.1371E-10  0.3763E-03  0.0000E+00 -0.1946E+12
   -0.764992    4.04850  0.0000E+00  0.1276E-06  0.1383E-10  0.3739E-03  0.0000E+00 -0.1992E+12
   -0.807493    4.04870  0.0000E+00  0.1277E-06  0.1398E-10  0.3710E-03  0.0000E+00 -0.2026E+12
   -0.849994    4.04891  0.0000E+00  0.1279E-06  0.1414E-10  0.3677E-03  0.0000E+00 -0.2069E+12
   -0.892495    4.04913  0.0000E+00  0.1280E-06  0.1432E-10  0.3640E-03  0.0000E+00 -0.2098E+12
   -0.934996    4.04935  0.0000E+00  0.1281E-06  0.1452E-10  0.3598E-03  0.0000E+00 -0.2123E+12
   -0.977497    4.04956  0.0000E+00  0.1282E-06  0.1474E-10  0.3552E-03  0.0000E+00 -0.2147E+12
   -1.019998    4.04978  0.0000E+00  0.1282E-06  0.1499E-10  0.3501E-03  0.0000E+00 -0.2174E+12
   -1.062499    4.05001  0.0000E+00  0.1282E-06  0.1526E-10  0.3446E-03  0.0000E+00 -0.2198E+12
   -1.105000    4.05023  0.0000E+00  0.1283E-06  0.1555E-10  0.3386E-03  0.0000E+00 -0.2223E+12
   -1.147501    4.05045  0.0000E+00  0.1282E-06  0.1588E-10  0.3324E-03  0.0000E+00 -0.2237E+12
   -1.190001    4.05068  0.0000E+00  0.1282E-06  0.1623E-10  0.3256E-03  0.0000E+00 -0.2273E+12
   -1.232502    4.05091  0.0000E+00  0.1281E-06  0.1663E-10  0.3180E-03  0.0000E+00 -0.2342E+12
   -1.275002    4.05114  0.0000E+00  0.1281E-06  0.1712E-10  0.3092E-03  0.0000E+00 -0.2435E+12
   -1.317502    4.05138  0.0000E+00  0.1279E-06  0.1772E-10  0.2991E-03  0.0000E+00 -0.2525E+12
   -1.360002    4.05163  0.0000E+00  0.1278E-06  0.1848E-10  0.2870E-03  0.0000E+00 -0.2664E+12
   -1.402501    4.05189  0.0000E+00  0.1276E-06  0.1949E-10  0.2727E-03  0.0000E+00 -0.2809E+12
   -1.445000    4.05217  0.0000E+00  0.1273E-06  0.2072E-10  0.2576E-03  0.0000E+00 -0.2951E+12
   -1.487499    4.05246  0.0000E+00  0.1270E-06  0.2224E-10  0.2408E-03  0.0000E+00 -0.3125E+12
   -1.529998    4.05276  0.0000E+00  0.1266E-06  0.2456E-10  0.2181E-03  0.0000E+00 -0.3539E+12
   -1.572496    4.05310  0.0000E+00  0.1258E-06  0.2948E-10  0.1898E-03  0.0000E+00 -0.4553E+12
   -1.614994    4.05354  0.0000E+00  0.1228E-06  0.5052E-10  0.8664E-04  0.0000E+00 -0.1117E+13
   -1.657491    4.05463  0.0000E+00  0.8705E-07  0.3307E-09  0.3079E-05  0.0000E+00 -0.3880E+14
   -1.699988    4.08459  0.0000E+00  0.0000E+00  0.0000E+00  0.0000E+00  0.0000E+00  0.0000E+00
