 1 - depth, m
 2 - temperature, C
 3 - salinity, kg/kg
 4 - turbulent kinetic energy, m**2/s**2
 5 - dissipation rate, m**2/s**3
 6 - kinematic heat conductance, m**2/s
 7 - modulus of horizontal velocity, m/s
 8 - Richardson number, n/d
   -0.000000   14.45022  0.0000E+00  0.7181E-04  0.1529E-02  0.3967E-04  0.5389E-01 -0.9093E-02
   -0.042497   14.51075  0.0000E+00  0.4271E-04  0.1302E-02  0.6210E-04  0.1856E-01 -0.3456E-01
   -0.084995   14.52761  0.0000E+00  0.3179E-04  0.1173E-02  0.6788E-04  0.1241E-01 -0.5589E-01
   -0.127493   14.53967  0.0000E+00  0.2520E-04  0.9837E-03  0.7915E-04  0.9031E-02 -0.5575E-01
   -0.169991   14.54914  0.0000E+00  0.1985E-04  0.6978E-03  0.9741E-04  0.6715E-02  0.3698E+01
   -0.212490   14.55688  0.0000E+00  0.1506E-04  0.3613E-03  0.1466E-03  0.5035E-02  0.2296E+03
   -0.254989   14.56284  0.0000E+00  0.1129E-04  0.1175E-03  0.2241E-03  0.3863E-02  0.1519E+03
   -0.297489   14.56717  0.0000E+00  0.9119E-05  0.2307E-04  0.2935E-03  0.3088E-02  0.1033E+03
   -0.339988   14.57031  0.0000E+00  0.8181E-05  0.3695E-05  0.3504E-03  0.2552E-02  0.1554E+02
   -0.382488   14.57263  0.0000E+00  0.7751E-05  0.5977E-06  0.4016E-03  0.2146E-02  0.8677E+01
   -0.424988   14.57455  0.0000E+00  0.7547E-05  0.1541E-06  0.4541E-03  0.1828E-02  0.5450E+02
   -0.467489   14.57610  0.0000E+00  0.7459E-05  0.6262E-07  0.5103E-03  0.1556E-02  0.2269E+01
   -0.509989   14.57749  0.0000E+00  0.7434E-05  0.4128E-07  0.5621E-03  0.1318E-02  0.6182E+01
   -0.552490   14.57864  0.0000E+00  0.7444E-05  0.3226E-07  0.6105E-03  0.1110E-02  0.2903E+01
   -0.594991   14.57977  0.0000E+00  0.7470E-05  0.2724E-07  0.6608E-03  0.9239E-03  0.1467E+02
   -0.637492   14.58073  0.0000E+00  0.7502E-05  0.2428E-07  0.7218E-03  0.7646E-03  0.1897E+01
   -0.679993   14.58165  0.0000E+00  0.7533E-05  0.2234E-07  0.7856E-03  0.6329E-03  0.5487E+01
   -0.722494   14.58246  0.0000E+00  0.7560E-05  0.2099E-07  0.8469E-03  0.5274E-03  0.3203E+01
   -0.764995   14.58321  0.0000E+00  0.7581E-05  0.2000E-07  0.9005E-03  0.4462E-03  0.3840E+01
   -0.807496   14.58390  0.0000E+00  0.7595E-05  0.1927E-07  0.9329E-03  0.3851E-03  0.1127E+01
   -0.849998   14.58456  0.0000E+00  0.7601E-05  0.1873E-07  0.9570E-03  0.3367E-03  0.2144E+01
   -0.892499   14.58520  0.0000E+00  0.7600E-05  0.1835E-07  0.9721E-03  0.2984E-03  0.1362E+01
   -0.935000   14.58582  0.0000E+00  0.7591E-05  0.1809E-07  0.9799E-03  0.2677E-03  0.1322E+01
   -0.977501   14.58643  0.0000E+00  0.7577E-05  0.1794E-07  0.9817E-03  0.2422E-03  0.1323E+01
   -1.020003   14.58704  0.0000E+00  0.7558E-05  0.1787E-07  0.9786E-03  0.2208E-03  0.1390E+01
   -1.062504   14.58765  0.0000E+00  0.7533E-05  0.1789E-07  0.9707E-03  0.2021E-03  0.1494E+01
   -1.105005   14.58826  0.0000E+00  0.7502E-05  0.1798E-07  0.9581E-03  0.1852E-03  0.1654E+01
   -1.147505   14.58888  0.0000E+00  0.7464E-05  0.1817E-07  0.9404E-03  0.1693E-03  0.1883E+01
   -1.190006   14.58951  0.0000E+00  0.7420E-05  0.1845E-07  0.9170E-03  0.1540E-03  0.2123E+01
   -1.232507   14.59016  0.0000E+00  0.7365E-05  0.1887E-07  0.8876E-03  0.1390E-03  0.2488E+01
   -1.275007   14.59084  0.0000E+00  0.7297E-05  0.1949E-07  0.8460E-03  0.1250E-03  0.3251E+01
   -1.317507   14.59154  0.0000E+00  0.7209E-05  0.2041E-07  0.8048E-03  0.1117E-03  0.4488E+01
   -1.360007   14.59229  0.0000E+00  0.7096E-05  0.2182E-07  0.7336E-03  0.9941E-04  0.6614E+01
   -1.402507   14.59313  0.0000E+00  0.6944E-05  0.2409E-07  0.6916E-03  0.8774E-04  0.1107E+02
   -1.445006   14.59403  0.0000E+00  0.6750E-05  0.2793E-07  0.5892E-03  0.7696E-04 -0.3649E+01
   -1.487505   14.59532  0.0000E+00  0.6495E-05  0.3406E-07  0.5617E-03  0.6361E-04  0.7285E+02
   -1.530004   14.59672  0.0000E+00  0.6107E-05  0.4688E-07  0.4306E-03  0.5098E-04 -0.3071E+04
   -1.572502   14.60022  0.0000E+00  0.5507E-05  0.7617E-07  0.4455E-03  0.3485E-04  0.6325E+06
   -1.615000   14.60033  0.0000E+00  0.4386E-05  0.2006E-06  0.1975E-03  0.2797E-04 -0.6321E+07
   -1.657498   14.61467  0.0000E+00  0.2956E-05  0.5391E-06  0.1222E-03  0.1703E-04 -0.5667E+06
   -1.699995   14.61899  0.0000E+00  0.0000E+00  0.0000E+00  0.0000E+00  0.2726E-04  0.0000E+00
