 1 - depth, m
 2 - temperature, C
 3 - salinity, kg/kg
 4 - turbulent kinetic energy, m**2/s**2
 5 - dissipation rate, m**2/s**3
 6 - kinematic heat conductance, m**2/s
 7 - modulus of horizontal velocity, m/s
 8 - Richardson number, n/d
   -0.000000    0.00000  0.0000E+00  0.5825E-09  0.7432E-12  0.1000E-09  0.0000E+00  0.3584E+17
   -0.042496    0.58301  0.0000E+00  0.2401E-08  0.6153E-12  0.1000E-09  0.0000E+00  0.2806E+17
   -0.084993    1.12675  0.0000E+00  0.5827E-08  0.8489E-12  0.1221E-09  0.0000E+00  0.2191E+17
   -0.127490    1.64248  0.0000E+00  0.1154E-07  0.1385E-11  0.2573E-09  0.0000E+00  0.1694E+17
   -0.169988    2.14223  0.0000E+00  0.2101E-07  0.2339E-11  0.5843E-09  0.0000E+00  0.1263E+17
   -0.212486    2.63465  0.0000E+00  0.3687E-07  0.3962E-11  0.1448E-08  0.0000E+00  0.8681E+16
   -0.254984    3.12767  0.0000E+00  0.6353E-07  0.6676E-11  0.4511E-08  0.0000E+00  0.4807E+16
   -0.297482    3.62387  0.0000E+00  0.1064E-06  0.1101E-10  0.4310E-07  0.0000E+00  0.1055E+16
   -0.339981    4.04271  0.0000E+00  0.1071E-06  0.1108E-10  0.3335E-03  0.0000E+00 -0.1965E+12
   -0.382480    4.04293  0.0000E+00  0.1074E-06  0.1113E-10  0.3292E-03  0.0000E+00 -0.1966E+12
   -0.424979    4.04315  0.0000E+00  0.1078E-06  0.1118E-10  0.3297E-03  0.0000E+00 -0.1965E+12
   -0.467479    4.04337  0.0000E+00  0.1081E-06  0.1123E-10  0.3300E-03  0.0000E+00 -0.1971E+12
   -0.509978    4.04360  0.0000E+00  0.1084E-06  0.1129E-10  0.3301E-03  0.0000E+00 -0.1970E+12
   -0.552478    4.04382  0.0000E+00  0.1087E-06  0.1135E-10  0.3300E-03  0.0000E+00 -0.1974E+12
   -0.594978    4.04404  0.0000E+00  0.1089E-06  0.1142E-10  0.3296E-03  0.0000E+00 -0.1982E+12
   -0.637478    4.04426  0.0000E+00  0.1092E-06  0.1150E-10  0.3289E-03  0.0000E+00 -0.2002E+12
   -0.679978    4.04448  0.0000E+00  0.1094E-06  0.1159E-10  0.3279E-03  0.0000E+00 -0.2025E+12
   -0.722478    4.04470  0.0000E+00  0.1097E-06  0.1169E-10  0.3265E-03  0.0000E+00 -0.2062E+12
   -0.764979    4.04493  0.0000E+00  0.1099E-06  0.1181E-10  0.3246E-03  0.0000E+00 -0.2107E+12
   -0.807479    4.04516  0.0000E+00  0.1101E-06  0.1194E-10  0.3224E-03  0.0000E+00 -0.2157E+12
   -0.849980    4.04539  0.0000E+00  0.1103E-06  0.1209E-10  0.3198E-03  0.0000E+00 -0.2210E+12
   -0.892480    4.04563  0.0000E+00  0.1106E-06  0.1226E-10  0.3168E-03  0.0000E+00 -0.2259E+12
   -0.934980    4.04588  0.0000E+00  0.1107E-06  0.1244E-10  0.3133E-03  0.0000E+00 -0.2300E+12
   -0.977481    4.04612  0.0000E+00  0.1109E-06  0.1265E-10  0.3095E-03  0.0000E+00 -0.2350E+12
   -1.019981    4.04637  0.0000E+00  0.1111E-06  0.1288E-10  0.3052E-03  0.0000E+00 -0.2401E+12
   -1.062481    4.04663  0.0000E+00  0.1112E-06  0.1313E-10  0.3004E-03  0.0000E+00 -0.2462E+12
   -1.104981    4.04689  0.0000E+00  0.1113E-06  0.1340E-10  0.2952E-03  0.0000E+00 -0.2522E+12
   -1.147481    4.04716  0.0000E+00  0.1114E-06  0.1370E-10  0.2898E-03  0.0000E+00 -0.2587E+12
   -1.189981    4.04743  0.0000E+00  0.1115E-06  0.1402E-10  0.2838E-03  0.0000E+00 -0.2666E+12
   -1.232480    4.04771  0.0000E+00  0.1115E-06  0.1439E-10  0.2771E-03  0.0000E+00 -0.2784E+12
   -1.274980    4.04800  0.0000E+00  0.1115E-06  0.1483E-10  0.2694E-03  0.0000E+00 -0.2917E+12
   -1.317479    4.04830  0.0000E+00  0.1115E-06  0.1538E-10  0.2604E-03  0.0000E+00 -0.3057E+12
   -1.359978    4.04861  0.0000E+00  0.1114E-06  0.1607E-10  0.2496E-03  0.0000E+00 -0.3242E+12
   -1.402477    4.04894  0.0000E+00  0.1113E-06  0.1698E-10  0.2369E-03  0.0000E+00 -0.3461E+12
   -1.444975    4.04929  0.0000E+00  0.1111E-06  0.1809E-10  0.2235E-03  0.0000E+00 -0.3695E+12
   -1.487473    4.04967  0.0000E+00  0.1109E-06  0.1947E-10  0.2085E-03  0.0000E+00 -0.3994E+12
   -1.529971    4.05007  0.0000E+00  0.1106E-06  0.2157E-10  0.1885E-03  0.0000E+00 -0.4567E+12
   -1.572469    4.05052  0.0000E+00  0.1099E-06  0.2604E-10  0.1618E-03  0.0000E+00 -0.5960E+12
   -1.614966    4.05111  0.0000E+00  0.1071E-06  0.4475E-10  0.8153E-04  0.0000E+00 -0.1299E+13
   -1.657463    4.05240  0.0000E+00  0.7675E-07  0.2747E-09  0.2980E-05  0.0000E+00 -0.4573E+14
   -1.699959    4.08740  0.0000E+00  0.0000E+00  0.0000E+00  0.0000E+00  0.0000E+00  0.0000E+00
