 1 - depth, m
 2 - temperature, C
 3 - salinity, kg/kg
 4 - turbulent kinetic energy, m**2/s**2
 5 - dissipation rate, m**2/s**3
 6 - kinematic heat conductance, m**2/s
 7 - modulus of horizontal velocity, m/s
 8 - Richardson number, n/d
   -0.000000    0.00000  0.0000E+00  0.2444E-09  0.2464E-12  0.1000E-09  0.0000E+00  0.3114E+17
   -0.042497    0.50059  0.0000E+00  0.8488E-09  0.1891E-12  0.1000E-09  0.0000E+00  0.2625E+17
   -0.084994    0.99124  0.0000E+00  0.1946E-08  0.2257E-12  0.1000E-09  0.0000E+00  0.2169E+17
   -0.127492    1.47191  0.0000E+00  0.3651E-08  0.3243E-12  0.1000E-09  0.0000E+00  0.1724E+17
   -0.169990    1.93669  0.0000E+00  0.6241E-08  0.4940E-12  0.1175E-09  0.0000E+00  0.1323E+17
   -0.212489    2.38590  0.0000E+00  0.1019E-07  0.7630E-12  0.2498E-09  0.0000E+00  0.9612E+16
   -0.254987    2.81966  0.0000E+00  0.1628E-07  0.1181E-11  0.5834E-09  0.0000E+00  0.6370E+16
   -0.297486    3.23777  0.0000E+00  0.2568E-07  0.1823E-11  0.1653E-08  0.0000E+00  0.3473E+16
   -0.339986    3.63852  0.0000E+00  0.3982E-07  0.2781E-11  0.9241E-08  0.0000E+00  0.9478E+15
   -0.382485    4.00596  0.0000E+00  0.4017E-07  0.2807E-11  0.1917E-03  0.0000E+00 -0.8826E+11
   -0.424985    4.00624  0.0000E+00  0.4035E-07  0.2822E-11  0.1881E-03  0.0000E+00 -0.8824E+11
   -0.467485    4.00653  0.0000E+00  0.4052E-07  0.2838E-11  0.1885E-03  0.0000E+00 -0.8783E+11
   -0.509985    4.00680  0.0000E+00  0.4068E-07  0.2856E-11  0.1889E-03  0.0000E+00 -0.8818E+11
   -0.552486    4.00707  0.0000E+00  0.4084E-07  0.2875E-11  0.1890E-03  0.0000E+00 -0.8875E+11
   -0.594986    4.00734  0.0000E+00  0.4098E-07  0.2896E-11  0.1890E-03  0.0000E+00 -0.8972E+11
   -0.637487    4.00762  0.0000E+00  0.4113E-07  0.2920E-11  0.1888E-03  0.0000E+00 -0.9122E+11
   -0.679988    4.00789  0.0000E+00  0.4128E-07  0.2946E-11  0.1883E-03  0.0000E+00 -0.9303E+11
   -0.722489    4.00816  0.0000E+00  0.4142E-07  0.2976E-11  0.1877E-03  0.0000E+00 -0.9545E+11
   -0.764990    4.00844  0.0000E+00  0.4156E-07  0.3009E-11  0.1868E-03  0.0000E+00 -0.9845E+11
   -0.807491    4.00872  0.0000E+00  0.4171E-07  0.3048E-11  0.1857E-03  0.0000E+00 -0.1014E+12
   -0.849992    4.00901  0.0000E+00  0.4185E-07  0.3091E-11  0.1844E-03  0.0000E+00 -0.1045E+12
   -0.892493    4.00930  0.0000E+00  0.4199E-07  0.3139E-11  0.1828E-03  0.0000E+00 -0.1074E+12
   -0.934994    4.00959  0.0000E+00  0.4212E-07  0.3192E-11  0.1811E-03  0.0000E+00 -0.1100E+12
   -0.977495    4.00989  0.0000E+00  0.4224E-07  0.3250E-11  0.1791E-03  0.0000E+00 -0.1129E+12
   -1.019995    4.01020  0.0000E+00  0.4236E-07  0.3313E-11  0.1768E-03  0.0000E+00 -0.1158E+12
   -1.062496    4.01051  0.0000E+00  0.4246E-07  0.3383E-11  0.1742E-03  0.0000E+00 -0.1190E+12
   -1.104997    4.01082  0.0000E+00  0.4255E-07  0.3459E-11  0.1715E-03  0.0000E+00 -0.1220E+12
   -1.147497    4.01113  0.0000E+00  0.4263E-07  0.3541E-11  0.1685E-03  0.0000E+00 -0.1250E+12
   -1.189998    4.01145  0.0000E+00  0.4270E-07  0.3629E-11  0.1653E-03  0.0000E+00 -0.1290E+12
   -1.232498    4.01178  0.0000E+00  0.4275E-07  0.3730E-11  0.1615E-03  0.0000E+00 -0.1352E+12
   -1.274998    4.01211  0.0000E+00  0.4279E-07  0.3851E-11  0.1571E-03  0.0000E+00 -0.1426E+12
   -1.317498    4.01247  0.0000E+00  0.4282E-07  0.3998E-11  0.1521E-03  0.0000E+00 -0.1507E+12
   -1.359997    4.01283  0.0000E+00  0.4283E-07  0.4184E-11  0.1459E-03  0.0000E+00 -0.1618E+12
   -1.402497    4.01322  0.0000E+00  0.4282E-07  0.4430E-11  0.1386E-03  0.0000E+00 -0.1739E+12
   -1.444996    4.01363  0.0000E+00  0.4278E-07  0.4727E-11  0.1310E-03  0.0000E+00 -0.1860E+12
   -1.487495    4.01406  0.0000E+00  0.4272E-07  0.5096E-11  0.1223E-03  0.0000E+00 -0.2022E+12
   -1.529993    4.01452  0.0000E+00  0.4262E-07  0.5658E-11  0.1106E-03  0.0000E+00 -0.2378E+12
   -1.572491    4.01505  0.0000E+00  0.4237E-07  0.6853E-11  0.9451E-04  0.0000E+00 -0.3339E+12
   -1.614989    4.01578  0.0000E+00  0.4123E-07  0.1216E-10  0.3749E-04  0.0000E+00 -0.9799E+12
   -1.657486    4.01784  0.0000E+00  0.3014E-07  0.6935E-10  0.1989E-05  0.0000E+00 -0.2950E+14
   -1.699983    4.05532  0.0000E+00  0.0000E+00  0.0000E+00  0.0000E+00  0.0000E+00  0.0000E+00
