 1 - depth, m
 2 - temperature, C
 3 - salinity, kg/kg
 4 - turbulent kinetic energy, m**2/s**2
 5 - dissipation rate, m**2/s**3
 6 - kinematic heat conductance, m**2/s
 7 - modulus of horizontal velocity, m/s
 8 - Richardson number, n/d
   -0.000000    9.81835  0.0000E+00  0.2321E-02  0.4397E-01  0.1548E-03  0.6802E+00 -0.2688E-02
   -0.042498   10.00706  0.0000E+00  0.1113E-02  0.2975E-01  0.3253E-03  0.1423E+00 -0.1484E-01
   -0.084996   10.08692  0.0000E+00  0.7221E-03  0.1289E-01  0.4138E-03  0.7968E-01 -0.2649E+00
   -0.127494   10.11328  0.0000E+00  0.5330E-03  0.8266E-02  0.3807E-03  0.6217E-01 -0.3372E-01
   -0.169993   10.12716  0.0000E+00  0.4101E-03  0.6191E-02  0.3543E-03  0.5050E-01  0.1831E+02
   -0.212492   10.13828  0.0000E+00  0.3231E-03  0.4818E-02  0.3371E-03  0.4136E-01  0.1058E+01
   -0.254991   10.14864  0.0000E+00  0.2570E-03  0.3843E-02  0.3337E-03  0.3457E-01  0.4961E+01
   -0.297491   10.15562  0.0000E+00  0.2093E-03  0.3060E-02  0.3472E-03  0.3014E-01  0.3225E+01
   -0.339991   10.16151  0.0000E+00  0.1726E-03  0.2374E-02  0.3467E-03  0.2686E-01  0.5543E+01
   -0.382491   10.16777  0.0000E+00  0.1453E-03  0.1813E-02  0.3613E-03  0.2349E-01  0.3027E+03
   -0.424992   10.17279  0.0000E+00  0.1254E-03  0.1360E-02  0.3738E-03  0.2132E-01  0.4327E+02
   -0.467492   10.17780  0.0000E+00  0.1096E-03  0.9991E-03  0.3896E-03  0.1893E-01  0.1187E+02
   -0.509993   10.18172  0.0000E+00  0.9680E-04  0.7123E-03  0.4094E-03  0.1669E-01  0.5811E+02
   -0.552494   10.18506  0.0000E+00  0.8632E-04  0.4885E-03  0.4272E-03  0.1472E-01  0.1223E+02
   -0.594996   10.18868  0.0000E+00  0.7732E-04  0.3233E-03  0.4532E-03  0.1280E-01  0.5146E+02
   -0.637497   10.19174  0.0000E+00  0.6961E-04  0.2073E-03  0.4795E-03  0.1115E-01  0.2366E+02
   -0.679998   10.19443  0.0000E+00  0.6304E-04  0.1304E-03  0.5043E-03  0.9909E-02  0.1117E+03
   -0.722500   10.19693  0.0000E+00  0.5739E-04  0.8130E-04  0.5341E-03  0.8843E-02  0.1554E+03
   -0.765001   10.19912  0.0000E+00  0.5249E-04  0.5043E-04  0.5619E-03  0.7983E-02 -0.2288E+04
   -0.807503   10.20098  0.0000E+00  0.4820E-04  0.3114E-04  0.5904E-03  0.7317E-02  0.5890E+02
   -0.850005   10.20264  0.0000E+00  0.4446E-04  0.1913E-04  0.6208E-03  0.6723E-02  0.3098E+04
   -0.892506   10.20447  0.0000E+00  0.4115E-04  0.1186E-04  0.6437E-03  0.6188E-02  0.1827E+04
   -0.935008   10.20576  0.0000E+00  0.3822E-04  0.7205E-05  0.6710E-03  0.5724E-02  0.1459E+04
   -0.977510   10.20758  0.0000E+00  0.3565E-04  0.4687E-05  0.6880E-03  0.5266E-02  0.1753E+03
   -1.020011   10.20861  0.0000E+00  0.3337E-04  0.3055E-05  0.6985E-03  0.4876E-02  0.6923E+04
   -1.062512   10.21038  0.0000E+00  0.3134E-04  0.1868E-05  0.7153E-03  0.4482E-02  0.6648E+04
   -1.105014   10.21135  0.0000E+00  0.2955E-04  0.1189E-05  0.7185E-03  0.4140E-02  0.8298E+02
   -1.147515   10.21277  0.0000E+00  0.2797E-04  0.7898E-06  0.7159E-03  0.3797E-02  0.1722E+03
   -1.190016   10.21431  0.0000E+00  0.2655E-04  0.5710E-06  0.7123E-03  0.3428E-02  0.1051E+03
   -1.232517   10.21541  0.0000E+00  0.2523E-04  0.4312E-06  0.7014E-03  0.3078E-02  0.1448E+03
   -1.275018   10.21695  0.0000E+00  0.2396E-04  0.3573E-06  0.6964E-03  0.2764E-02  0.1551E+03
   -1.317518   10.21803  0.0000E+00  0.2271E-04  0.3139E-06  0.6717E-03  0.2481E-02 -0.6903E+02
   -1.360018   10.21950  0.0000E+00  0.2145E-04  0.2924E-06  0.6426E-03  0.2223E-02  0.5865E+03
   -1.402518   10.22065  0.0000E+00  0.2010E-04  0.2920E-06  0.6030E-03  0.1995E-02 -0.9859E+05
   -1.445018   10.22217  0.0000E+00  0.1878E-04  0.3204E-06  0.5455E-03  0.1774E-02  0.7634E+05
   -1.487517   10.22372  0.0000E+00  0.1749E-04  0.3847E-06  0.4973E-03  0.1534E-02  0.4945E+05
   -1.530017   10.22569  0.0000E+00  0.1605E-04  0.5252E-06  0.4178E-03  0.1243E-02  0.8627E+04
   -1.572515   10.22845  0.0000E+00  0.1437E-04  0.8796E-06  0.4129E-03  0.9542E-03 -0.1027E+07
   -1.615014   10.23006  0.0000E+00  0.1148E-04  0.2186E-05  0.2143E-03  0.7849E-03 -0.6972E+07
   -1.657512   10.23907  0.0000E+00  0.7749E-05  0.5173E-05  0.1195E-03  0.5890E-03 -0.4366E+08
   -1.700009   10.25233  0.0000E+00  0.0000E+00  0.0000E+00  0.0000E+00  0.9912E-03  0.0000E+00
