 1 - depth, m
 2 - temperature, C
 3 - salinity, kg/kg
 4 - turbulent kinetic energy, m**2/s**2
 5 - dissipation rate, m**2/s**3
 6 - kinematic heat conductance, m**2/s
 7 - modulus of horizontal velocity, m/s
 8 - Richardson number, n/d
   -0.000000    0.00000  0.0000E+00  0.4277E-12  0.9447E-16  0.1000E-09  0.0000E+00  0.1550E+17
   -0.042497    0.24030  0.0000E+00  0.6634E-12  0.9645E-16  0.1000E-09  0.0000E+00  0.1427E+17
   -0.084994    0.47702  0.0000E+00  0.1153E-11  0.1314E-15  0.1000E-09  0.0000E+00  0.1311E+17
   -0.127492    0.71037  0.0000E+00  0.1998E-11  0.2034E-15  0.1000E-09  0.0000E+00  0.1179E+17
   -0.169990    0.93647  0.0000E+00  0.3402E-11  0.3279E-15  0.1000E-09  0.0000E+00  0.1059E+17
   -0.212488    1.15577  0.0000E+00  0.5716E-11  0.5336E-15  0.1000E-09  0.0000E+00  0.9494E+16
   -0.254987    1.36865  0.0000E+00  0.9531E-11  0.8695E-15  0.1000E-09  0.0000E+00  0.8478E+16
   -0.297486    1.57535  0.0000E+00  0.1581E-10  0.1414E-14  0.1000E-09  0.0000E+00  0.7532E+16
   -0.339985    1.77583  0.0000E+00  0.2588E-10  0.2275E-14  0.1000E-09  0.0000E+00  0.6650E+16
   -0.382485    1.96998  0.0000E+00  0.4206E-10  0.3633E-14  0.1000E-09  0.0000E+00  0.5835E+16
   -0.424984    2.15787  0.0000E+00  0.6773E-10  0.5750E-14  0.1000E-09  0.0000E+00  0.5083E+16
   -0.467484    2.33950  0.0000E+00  0.1082E-09  0.9024E-14  0.1000E-09  0.0000E+00  0.4393E+16
   -0.509985    2.51494  0.0000E+00  0.1718E-09  0.1408E-13  0.1000E-09  0.0000E+00  0.3801E+16
   -0.552485    2.68620  0.0000E+00  0.2715E-09  0.2186E-13  0.1000E-09  0.0000E+00  0.3256E+16
   -0.594985    2.85380  0.0000E+00  0.4271E-09  0.3376E-13  0.1000E-09  0.0000E+00  0.2755E+16
   -0.637486    3.01853  0.0000E+00  0.6743E-09  0.5231E-13  0.1006E-09  0.0000E+00  0.2297E+16
   -0.679987    3.18171  0.0000E+00  0.1065E-08  0.8107E-13  0.1371E-09  0.0000E+00  0.1861E+16
   -0.722487    3.34408  0.0000E+00  0.1683E-08  0.1257E-12  0.2736E-09  0.0000E+00  0.1444E+16
   -0.764988    3.50698  0.0000E+00  0.2664E-08  0.1952E-12  0.5937E-09  0.0000E+00  0.1030E+16
   -0.807489    3.67144  0.0000E+00  0.4207E-08  0.3024E-12  0.1567E-08  0.0000E+00  0.6023E+15
   -0.849990    3.83601  0.0000E+00  0.6556E-08  0.4628E-12  0.8148E-08  0.0000E+00  0.1771E+15
   -0.892491    3.99249  0.0000E+00  0.6971E-08  0.4932E-12  0.3106E-04  0.0000E+00 -0.7620E+11
   -0.934992    3.99325  0.0000E+00  0.7181E-08  0.5109E-12  0.3555E-04  0.0000E+00 -0.7446E+11
   -0.977493    3.99391  0.0000E+00  0.7373E-08  0.5292E-12  0.3874E-04  0.0000E+00 -0.7433E+11
   -1.019994    3.99452  0.0000E+00  0.7545E-08  0.5477E-12  0.4003E-04  0.0000E+00 -0.7694E+11
   -1.062494    3.99510  0.0000E+00  0.7698E-08  0.5666E-12  0.4056E-04  0.0000E+00 -0.8088E+11
   -1.104995    3.99567  0.0000E+00  0.7839E-08  0.5864E-12  0.4069E-04  0.0000E+00 -0.8489E+11
   -1.147495    3.99624  0.0000E+00  0.7967E-08  0.6074E-12  0.4063E-04  0.0000E+00 -0.8862E+11
   -1.189996    3.99679  0.0000E+00  0.8084E-08  0.6298E-12  0.4039E-04  0.0000E+00 -0.9325E+11
   -1.232496    3.99735  0.0000E+00  0.8195E-08  0.6554E-12  0.4005E-04  0.0000E+00 -0.1007E+12
   -1.274996    3.99792  0.0000E+00  0.8302E-08  0.6853E-12  0.3949E-04  0.0000E+00 -0.1097E+12
   -1.317496    3.99851  0.0000E+00  0.8404E-08  0.7213E-12  0.3866E-04  0.0000E+00 -0.1206E+12
   -1.359995    3.99913  0.0000E+00  0.8503E-08  0.7663E-12  0.3748E-04  0.0000E+00 -0.1355E+12
   -1.402494    3.99979  0.0000E+00  0.8598E-08  0.8249E-12  0.3576E-04  0.0000E+00 -0.1520E+12
   -1.444993    4.00049  0.0000E+00  0.8681E-08  0.8997E-12  0.3349E-04  0.0000E+00 -0.1691E+12
   -1.487492    4.00123  0.0000E+00  0.8754E-08  0.1006E-11  0.2899E-04  0.0000E+00 -0.2072E+12
   -1.529990    4.00210  0.0000E+00  0.8813E-08  0.1184E-11  0.2406E-04  0.0000E+00 -0.2971E+12
   -1.572488    4.00326  0.0000E+00  0.8836E-08  0.1573E-11  0.1956E-04  0.0000E+00 -0.5638E+12
   -1.614986    4.00526  0.0000E+00  0.8533E-08  0.3163E-11  0.7031E-05  0.0000E+00 -0.2189E+13
   -1.657483    4.01157  0.0000E+00  0.6635E-08  0.1100E-10  0.8776E-06  0.0000E+00 -0.3251E+14
   -1.699980    4.05550  0.0000E+00  0.0000E+00  0.0000E+00  0.0000E+00  0.0000E+00  0.0000E+00
