 1 - depth, m
 2 - temperature, C
 3 - salinity, kg/kg
 4 - turbulent kinetic energy, m**2/s**2
 5 - dissipation rate, m**2/s**3
 6 - kinematic heat conductance, m**2/s
 7 - modulus of horizontal velocity, m/s
 8 - Richardson number, n/d
   -0.000000    0.00000  0.0000E+00  0.3791E-05  0.1407E-06  0.9211E-05  0.1107E-01  0.1444E-01
   -0.042497    0.01524  0.0000E+00  0.1903E-05  0.3686E-07  0.8594E-05  0.5605E-02  0.6629E-01
   -0.084995    0.03100  0.0000E+00  0.6719E-06  0.9220E-08  0.3265E-05  0.3016E-02  0.3745E+00
   -0.127493    0.07263  0.0000E+00  0.4930E-07  0.6522E-09  0.4459E-07  0.1270E-02  0.1645E+02
   -0.169992    0.77341  0.0000E+00  0.7265E-08  0.4147E-10  0.3073E-08  0.1996E-03  0.6263E+03
   -0.212491    1.68242  0.0000E+00  0.5687E-07  0.2529E-10  0.2850E-08  0.2679E-04  0.2309E+05
   -0.254990    2.64186  0.0000E+00  0.1755E-06  0.3426E-10  0.9568E-08  0.3381E-05  0.5990E+06
   -0.297490    3.63827  0.0000E+00  0.2773E-06  0.4752E-10  0.1700E-03  0.3646E-06  0.2935E+07
   -0.339989    4.09978  0.0000E+00  0.2789E-06  0.4776E-10  0.5146E-03  0.3527E-07  0.4600E+07
   -0.382489    4.10010  0.0000E+00  0.2797E-06  0.4791E-10  0.5111E-03  0.3189E-07  0.2704E+07
   -0.424990    4.10042  0.0000E+00  0.2806E-06  0.4809E-10  0.5122E-03  0.2881E-07  0.2481E+09
   -0.467490    4.10073  0.0000E+00  0.2813E-06  0.4828E-10  0.5130E-03  0.2594E-07  0.3486E+07
   -0.509991    4.10104  0.0000E+00  0.2820E-06  0.4850E-10  0.5134E-03  0.2326E-07  0.3921E+07
   -0.552492    4.10135  0.0000E+00  0.2827E-06  0.4873E-10  0.5134E-03  0.2075E-07  0.4516E+07
   -0.594993    4.10166  0.0000E+00  0.2833E-06  0.4899E-10  0.5130E-03  0.1841E-07  0.5258E+07
   -0.637494    4.10197  0.0000E+00  0.2838E-06  0.4929E-10  0.5120E-03  0.1625E-07  0.6302E+07
   -0.679995    4.10227  0.0000E+00  0.2844E-06  0.4962E-10  0.5105E-03  0.1432E-07  0.8010E+07
   -0.722496    4.10258  0.0000E+00  0.2848E-06  0.5000E-10  0.5084E-03  0.1259E-07  0.1051E+08
   -0.764998    4.10289  0.0000E+00  0.2853E-06  0.5044E-10  0.5056E-03  0.1109E-07  0.1415E+08
   -0.807499    4.10320  0.0000E+00  0.2858E-06  0.5095E-10  0.5021E-03  0.9801E-08  0.1982E+08
   -0.850001    4.10352  0.0000E+00  0.2861E-06  0.5153E-10  0.4980E-03  0.8685E-08  0.2713E+08
   -0.892502    4.10384  0.0000E+00  0.2865E-06  0.5218E-10  0.4933E-03  0.7705E-08  0.3647E+08
   -0.935004    4.10417  0.0000E+00  0.2868E-06  0.5291E-10  0.4878E-03  0.6850E-08  0.4938E+08
   -0.977505    4.10450  0.0000E+00  0.2870E-06  0.5372E-10  0.4816E-03  0.6082E-08  0.6405E+08
   -1.020006    4.10483  0.0000E+00  0.2872E-06  0.5461E-10  0.4747E-03  0.5400E-08  0.8394E+08
   -1.062508    4.10517  0.0000E+00  0.2873E-06  0.5561E-10  0.4670E-03  0.4778E-08  0.1053E+09
   -1.105009    4.10551  0.0000E+00  0.2874E-06  0.5672E-10  0.4587E-03  0.4213E-08  0.1310E+09
   -1.147510    4.10585  0.0000E+00  0.2874E-06  0.5792E-10  0.4496E-03  0.3683E-08  0.1614E+09
   -1.190011    4.10620  0.0000E+00  0.2873E-06  0.5923E-10  0.4391E-03  0.3174E-08  0.1956E+09
   -1.232511    4.10656  0.0000E+00  0.2872E-06  0.6076E-10  0.4277E-03  0.2691E-08  0.2455E+09
   -1.275012    4.10692  0.0000E+00  0.2869E-06  0.6261E-10  0.4149E-03  0.2262E-08  0.4124E+09
   -1.317512    4.10730  0.0000E+00  0.2866E-06  0.6489E-10  0.4094E-03  0.1881E-08  0.5287E+09
   -1.360012    4.10768  0.0000E+00  0.2862E-06  0.6780E-10  0.3821E-03  0.1566E-08  0.1781E+10
   -1.402512    4.10808  0.0000E+00  0.2857E-06  0.7160E-10  0.3966E-03  0.1290E-08  0.2670E+10
   -1.445011    4.10847  0.0000E+00  0.2850E-06  0.7620E-10  0.3365E-03  0.1065E-08  0.8405E+11
   -1.487511    4.10894  0.0000E+00  0.2843E-06  0.8200E-10  0.3165E-03  0.8383E-09  0.3648E+10
   -1.530010    4.10942  0.0000E+00  0.2831E-06  0.9115E-10  0.2868E-03  0.6269E-09  0.4198E+10
   -1.572508    4.10997  0.0000E+00  0.2810E-06  0.1108E-09  0.2395E-03  0.4493E-09  0.9087E+10
   -1.615006    4.11064  0.0000E+00  0.2735E-06  0.1861E-09  0.1517E-03  0.3321E-09  0.1081E+12
   -1.657504    4.11177  0.0000E+00  0.1967E-06  0.1113E-08  0.4657E-05  0.2153E-09 -0.4244E+14
   -1.700001    4.14807  0.0000E+00  0.0000E+00  0.0000E+00  0.0000E+00  0.2152E-09  0.0000E+00
