 1 - depth, m
 2 - temperature, C
 3 - salinity, kg/kg
 4 - turbulent kinetic energy, m**2/s**2
 5 - dissipation rate, m**2/s**3
 6 - kinematic heat conductance, m**2/s
 7 - modulus of horizontal velocity, m/s
 8 - Richardson number, n/d
   -0.000000    0.00000  0.0000E+00  0.2357E-07  0.7757E-10  0.2968E-08  0.0000E+00  0.8178E+17
   -0.042498    1.53909  0.0000E+00  0.1979E-06  0.6857E-10  0.5246E-08  0.0000E+00  0.4128E+17
   -0.084996    3.05890  0.0000E+00  0.5454E-06  0.1109E-09  0.6053E-07  0.0000E+00  0.6535E+16
   -0.127495    4.19941  0.0000E+00  0.5481E-06  0.1113E-09  0.8455E-03  0.0000E+00 -0.9142E+12
   -0.169994    4.19968  0.0000E+00  0.5493E-06  0.1116E-09  0.8357E-03  0.0000E+00 -0.8721E+12
   -0.212494    4.19994  0.0000E+00  0.5504E-06  0.1118E-09  0.8374E-03  0.0000E+00 -0.8506E+12
   -0.254993    4.20020  0.0000E+00  0.5514E-06  0.1121E-09  0.8384E-03  0.0000E+00 -0.8370E+12
   -0.297493    4.20045  0.0000E+00  0.5524E-06  0.1125E-09  0.8391E-03  0.0000E+00 -0.8200E+12
   -0.339994    4.20069  0.0000E+00  0.5532E-06  0.1129E-09  0.8392E-03  0.0000E+00 -0.8112E+12
   -0.382494    4.20094  0.0000E+00  0.5540E-06  0.1133E-09  0.8387E-03  0.0000E+00 -0.7997E+12
   -0.424995    4.20118  0.0000E+00  0.5547E-06  0.1137E-09  0.8376E-03  0.0000E+00 -0.7944E+12
   -0.467496    4.20141  0.0000E+00  0.5553E-06  0.1142E-09  0.8359E-03  0.0000E+00 -0.7868E+12
   -0.509997    4.20165  0.0000E+00  0.5558E-06  0.1148E-09  0.8337E-03  0.0000E+00 -0.7832E+12
   -0.552499    4.20188  0.0000E+00  0.5562E-06  0.1154E-09  0.8309E-03  0.0000E+00 -0.7769E+12
   -0.595000    4.20211  0.0000E+00  0.5566E-06  0.1160E-09  0.8275E-03  0.0000E+00 -0.7762E+12
   -0.637502    4.20234  0.0000E+00  0.5569E-06  0.1168E-09  0.8233E-03  0.0000E+00 -0.7722E+12
   -0.680004    4.20257  0.0000E+00  0.5571E-06  0.1176E-09  0.8182E-03  0.0000E+00 -0.7733E+12
   -0.722506    4.20280  0.0000E+00  0.5572E-06  0.1186E-09  0.8123E-03  0.0000E+00 -0.7724E+12
   -0.765008    4.20303  0.0000E+00  0.5573E-06  0.1197E-09  0.8052E-03  0.0000E+00 -0.7770E+12
   -0.807510    4.20326  0.0000E+00  0.5573E-06  0.1210E-09  0.7970E-03  0.0000E+00 -0.7796E+12
   -0.850012    4.20349  0.0000E+00  0.5572E-06  0.1225E-09  0.7876E-03  0.0000E+00 -0.7878E+12
   -0.892514    4.20372  0.0000E+00  0.5571E-06  0.1241E-09  0.8199E-03  0.0000E+00 -0.7251E+12
   -0.935016    4.20395  0.0000E+00  0.5569E-06  0.1260E-09  0.7502E-03  0.0000E+00 -0.8495E+12
   -0.977518    4.20419  0.0000E+00  0.5567E-06  0.1280E-09  0.8003E-03  0.0000E+00 -0.7434E+12
   -1.020019    4.20442  0.0000E+00  0.5563E-06  0.1303E-09  0.7201E-03  0.0000E+00 -0.8821E+12
   -1.062521    4.20467  0.0000E+00  0.5559E-06  0.1328E-09  0.7763E-03  0.0000E+00 -0.7660E+12
   -1.105023    4.20490  0.0000E+00  0.5554E-06  0.1356E-09  0.6867E-03  0.0000E+00 -0.9239E+12
   -1.147524    4.20516  0.0000E+00  0.5549E-06  0.1388E-09  0.6909E-03  0.0000E+00 -0.8940E+12
   -1.190026    4.20543  0.0000E+00  0.5543E-06  0.1423E-09  0.6752E-03  0.0000E+00 -0.9136E+12
   -1.232527    4.20569  0.0000E+00  0.5536E-06  0.1464E-09  0.6547E-03  0.0000E+00 -0.9444E+12
   -1.275028    4.20597  0.0000E+00  0.5528E-06  0.1512E-09  0.6959E-03  0.0000E+00 -0.8631E+12
   -1.317529    4.20623  0.0000E+00  0.5519E-06  0.1572E-09  0.5745E-03  0.0000E+00 -0.1107E+13
   -1.360030    4.20655  0.0000E+00  0.5508E-06  0.1647E-09  0.6490E-03  0.0000E+00 -0.9368E+12
   -1.402530    4.20683  0.0000E+00  0.5495E-06  0.1750E-09  0.5040E-03  0.0000E+00 -0.1271E+13
   -1.445030    4.20719  0.0000E+00  0.5480E-06  0.1872E-09  0.5774E-03  0.0000E+00 -0.1066E+13
   -1.487530    4.20751  0.0000E+00  0.5463E-06  0.2031E-09  0.4328E-03  0.0000E+00 -0.1478E+13
   -1.530029    4.20793  0.0000E+00  0.5441E-06  0.2276E-09  0.4135E-03  0.0000E+00 -0.1530E+13
   -1.572528    4.20837  0.0000E+00  0.5398E-06  0.2824E-09  0.3287E-03  0.0000E+00 -0.1980E+13
   -1.615027    4.20894  0.0000E+00  0.5264E-06  0.4761E-09  0.2318E-03  0.0000E+00 -0.2921E+13
   -1.657525    4.20979  0.0000E+00  0.3843E-06  0.2981E-08  0.6518E-05  0.0000E+00 -0.1141E+15
   -1.700023    4.24048  0.0000E+00  0.0000E+00  0.0000E+00  0.0000E+00  0.0000E+00  0.0000E+00
