 1 - depth, m
 2 - temperature, C
 3 - salinity, kg/kg
 4 - turbulent kinetic energy, m**2/s**2
 5 - dissipation rate, m**2/s**3
 6 - kinematic heat conductance, m**2/s
 7 - modulus of horizontal velocity, m/s
 8 - Richardson number, n/d
   -0.000000    5.04690  0.0000E+00  0.1730E-02  0.8844E-02  0.1277E-03  0.5458E+00 -0.4752E-03
   -0.042497    5.16308  0.0000E+00  0.8085E-03  0.3765E-02  0.3773E-03  0.1115E+00 -0.2176E-01
   -0.084995    5.19264  0.0000E+00  0.5616E-03  0.1610E-02  0.4285E-03  0.6606E-01 -0.9443E-02
   -0.127493    5.21059  0.0000E+00  0.4281E-03  0.9198E-03  0.3656E-03  0.5287E-01  0.2231E+00
   -0.169992    5.22185  0.0000E+00  0.3308E-03  0.5786E-03  0.3252E-03  0.4412E-01 -0.2759E-01
   -0.212490    5.23137  0.0000E+00  0.2618E-03  0.3910E-03  0.2953E-03  0.3696E-01 -0.1650E-01
   -0.254989    5.23949  0.0000E+00  0.2025E-03  0.2480E-03  0.2812E-03  0.3131E-01 -0.1005E+00
   -0.297489    5.24727  0.0000E+00  0.1602E-03  0.1556E-03  0.2737E-03  0.2710E-01 -0.1476E+00
   -0.339989    5.25393  0.0000E+00  0.1298E-03  0.9830E-04  0.2690E-03  0.2395E-01  0.2431E+00
   -0.382489    5.25959  0.0000E+00  0.1066E-03  0.5974E-04  0.2691E-03  0.2101E-01 -0.6152E+00
   -0.424989    5.26437  0.0000E+00  0.8889E-04  0.3401E-04  0.2680E-03  0.1891E-01  0.1352E+02
   -0.467489    5.26909  0.0000E+00  0.7541E-04  0.1838E-04  0.2687E-03  0.1651E-01  0.2733E+02
   -0.509990    5.27367  0.0000E+00  0.6502E-04  0.9564E-05  0.2696E-03  0.1420E-01  0.3844E+00
   -0.552490    5.27815  0.0000E+00  0.5686E-04  0.4900E-05  0.2698E-03  0.1215E-01  0.1013E+03
   -0.594991    5.28262  0.0000E+00  0.5024E-04  0.2663E-05  0.2719E-03  0.1029E-01  0.5389E+01
   -0.637492    5.28693  0.0000E+00  0.4466E-04  0.1635E-05  0.2766E-03  0.8716E-02  0.3334E+00
   -0.679993    5.29084  0.0000E+00  0.3992E-04  0.1132E-05  0.2809E-03  0.7510E-02  0.1806E+02
   -0.722495    5.29448  0.0000E+00  0.3583E-04  0.8500E-06  0.2874E-03  0.6519E-02  0.1446E+03
   -0.764996    5.29777  0.0000E+00  0.3224E-04  0.6672E-06  0.2937E-03  0.5725E-02  0.4210E+02
   -0.807497    5.30075  0.0000E+00  0.2906E-04  0.5352E-06  0.2984E-03  0.5096E-02 -0.3007E+03
   -0.849999    5.30360  0.0000E+00  0.2627E-04  0.4359E-06  0.3048E-03  0.4555E-02  0.8346E+04
   -0.892500    5.30630  0.0000E+00  0.2380E-04  0.3579E-06  0.3103E-03  0.4085E-02  0.4411E+05
   -0.935001    5.30887  0.0000E+00  0.2163E-04  0.2959E-06  0.3176E-03  0.3675E-02  0.2061E+06
   -0.977503    5.31133  0.0000E+00  0.1972E-04  0.2458E-06  0.3253E-03  0.3303E-02  0.4518E+03
   -1.020004    5.31366  0.0000E+00  0.1804E-04  0.2049E-06  0.3321E-03  0.2970E-02  0.4922E+03
   -1.062505    5.31591  0.0000E+00  0.1655E-04  0.1716E-06  0.3388E-03  0.2663E-02  0.1979E+03
   -1.105006    5.31806  0.0000E+00  0.1523E-04  0.1446E-06  0.3451E-03  0.2380E-02  0.7317E+03
   -1.147507    5.32014  0.0000E+00  0.1410E-04  0.1230E-06  0.3496E-03  0.2111E-02  0.1012E+03
   -1.190008    5.32216  0.0000E+00  0.1313E-04  0.1061E-06  0.3537E-03  0.1850E-02  0.1597E+03
   -1.232508    5.32410  0.0000E+00  0.1227E-04  0.9252E-07  0.3585E-03  0.1603E-02  0.7561E+03
   -1.275009    5.32598  0.0000E+00  0.1150E-04  0.8151E-07  0.3626E-03  0.1384E-02  0.2772E+03
   -1.317509    5.32780  0.0000E+00  0.1080E-04  0.7267E-07  0.3652E-03  0.1190E-02  0.3043E+03
   -1.360009    5.32957  0.0000E+00  0.1015E-04  0.6570E-07  0.3645E-03  0.1021E-02  0.2808E+03
   -1.402508    5.33132  0.0000E+00  0.9540E-05  0.6036E-07  0.3582E-03  0.8772E-03  0.1440E+04
   -1.445008    5.33306  0.0000E+00  0.9006E-05  0.5730E-07  0.3466E-03  0.7474E-03  0.7963E+03
   -1.487507    5.33481  0.0000E+00  0.8556E-05  0.5710E-07  0.3285E-03  0.6227E-03  0.1611E+04
   -1.530006    5.33662  0.0000E+00  0.8130E-05  0.6157E-07  0.3033E-03  0.5024E-03  0.1790E+04
   -1.572504    5.33856  0.0000E+00  0.7600E-05  0.7885E-07  0.2594E-03  0.3939E-03  0.3985E+04
   -1.615002    5.34084  0.0000E+00  0.6443E-05  0.1507E-06  0.1664E-03  0.3166E-03  0.6326E+05
   -1.657500    5.34466  0.0000E+00  0.3968E-05  0.4098E-06  0.2698E-04  0.2417E-03 -0.2672E+08
   -1.699997    5.37821  0.0000E+00  0.0000E+00  0.0000E+00  0.0000E+00  0.2860E-03  0.0000E+00
