 1 - depth, m
 2 - temperature, C
 3 - salinity, kg/kg
 4 - turbulent kinetic energy, m**2/s**2
 5 - dissipation rate, m**2/s**3
 6 - kinematic heat conductance, m**2/s
 7 - modulus of horizontal velocity, m/s
 8 - Richardson number, n/d
   -0.000000   15.87920  0.0000E+00  0.2201E-03  0.1679E-03  0.6357E-04  0.1247E+00 -0.1765E+00
   -0.042497   15.91854  0.0000E+00  0.1161E-03  0.5452E-04  0.1391E-03  0.2919E-01  0.1178E+04
   -0.084995   15.92630  0.0000E+00  0.8315E-04  0.2889E-04  0.1324E-03  0.1955E-01  0.4377E+01
   -0.127493   15.93171  0.0000E+00  0.6232E-04  0.1564E-04  0.1323E-03  0.1545E-01  0.4010E+01
   -0.169992   15.93596  0.0000E+00  0.4677E-04  0.7997E-05  0.1390E-03  0.1242E-01  0.1897E+01
   -0.212491   15.93960  0.0000E+00  0.3521E-04  0.4049E-05  0.1504E-03  0.9989E-02  0.2076E+01
   -0.254990   15.94278  0.0000E+00  0.2658E-04  0.1988E-05  0.1674E-03  0.8095E-02  0.3484E+02
   -0.297489   15.94558  0.0000E+00  0.2055E-04  0.9946E-06  0.1845E-03  0.6647E-02  0.2536E+02
   -0.339989   15.94809  0.0000E+00  0.1644E-04  0.5492E-06  0.2047E-03  0.5475E-02  0.2304E+03
   -0.382489   15.95032  0.0000E+00  0.1358E-04  0.3389E-06  0.2289E-03  0.4496E-02  0.3782E+02
   -0.424989   15.95223  0.0000E+00  0.1157E-04  0.2259E-06  0.2548E-03  0.3742E-02  0.7254E+01
   -0.467490   15.95388  0.0000E+00  0.1011E-04  0.1575E-06  0.2850E-03  0.3114E-02  0.3244E+02
   -0.509990   15.95530  0.0000E+00  0.9003E-05  0.1137E-06  0.3190E-03  0.2591E-02  0.6272E+01
   -0.552491   15.95653  0.0000E+00  0.8151E-05  0.8429E-07  0.3585E-03  0.2148E-02  0.4040E+03
   -0.594992   15.95759  0.0000E+00  0.7480E-05  0.6413E-07  0.3971E-03  0.1769E-02  0.1478E+02
   -0.637493   15.95851  0.0000E+00  0.6934E-05  0.4978E-07  0.4365E-03  0.1447E-02  0.8688E+01
   -0.679994   15.95932  0.0000E+00  0.6492E-05  0.3945E-07  0.4760E-03  0.1185E-02  0.1772E+03
   -0.722495   15.96004  0.0000E+00  0.6133E-05  0.3192E-07  0.5119E-03  0.9730E-03  0.1185E+02
   -0.764997   15.96067  0.0000E+00  0.5842E-05  0.2635E-07  0.5445E-03  0.8047E-03  0.1169E+02
   -0.807498   15.96124  0.0000E+00  0.5608E-05  0.2219E-07  0.5736E-03  0.6750E-03  0.4025E+02
   -0.850000   15.96177  0.0000E+00  0.5427E-05  0.1915E-07  0.6001E-03  0.5717E-03  0.6383E+01
   -0.892501   15.96225  0.0000E+00  0.5289E-05  0.1691E-07  0.6239E-03  0.4890E-03  0.4598E+01
   -0.935002   15.96270  0.0000E+00  0.5184E-05  0.1525E-07  0.6437E-03  0.4224E-03  0.7087E+01
   -0.977504   15.96313  0.0000E+00  0.5104E-05  0.1402E-07  0.6604E-03  0.3667E-03  0.3746E+01
   -1.020005   15.96356  0.0000E+00  0.5043E-05  0.1310E-07  0.6735E-03  0.3202E-03  0.7581E+01
   -1.062506   15.96397  0.0000E+00  0.4996E-05  0.1240E-07  0.6835E-03  0.2802E-03  0.4554E+01
   -1.105007   15.96438  0.0000E+00  0.4958E-05  0.1189E-07  0.6898E-03  0.2454E-03  0.5587E+01
   -1.147508   15.96480  0.0000E+00  0.4927E-05  0.1154E-07  0.6924E-03  0.2140E-03  0.5647E+01
   -1.190009   15.96523  0.0000E+00  0.4900E-05  0.1131E-07  0.6911E-03  0.1846E-03  0.6768E+01
   -1.232510   15.96566  0.0000E+00  0.4875E-05  0.1119E-07  0.6855E-03  0.1578E-03  0.6875E+01
   -1.275010   15.96610  0.0000E+00  0.4849E-05  0.1117E-07  0.6750E-03  0.1350E-03  0.9281E+01
   -1.317510   15.96655  0.0000E+00  0.4822E-05  0.1126E-07  0.6590E-03  0.1159E-03  0.1087E+02
   -1.360010   15.96701  0.0000E+00  0.4791E-05  0.1148E-07  0.6362E-03  0.9982E-04  0.1550E+02
   -1.402510   15.96749  0.0000E+00  0.4752E-05  0.1187E-07  0.6050E-03  0.8618E-04  0.2061E+02
   -1.445009   15.96801  0.0000E+00  0.4709E-05  0.1247E-07  0.5647E-03  0.7381E-04  0.3282E+02
   -1.487509   15.96857  0.0000E+00  0.4658E-05  0.1334E-07  0.5266E-03  0.6185E-04  0.3908E+02
   -1.530007   15.96918  0.0000E+00  0.4588E-05  0.1492E-07  0.4375E-03  0.5032E-04  0.4968E+02
   -1.572506   15.96994  0.0000E+00  0.4462E-05  0.1866E-07  0.4857E-03  0.3922E-04 -0.2677E+02
   -1.615004   15.97061  0.0000E+00  0.3970E-05  0.3812E-07  0.1814E-03  0.3287E-04 -0.8596E+07
   -1.657502   15.97513  0.0000E+00  0.2549E-05  0.1202E-06  0.5803E-04  0.2063E-04 -0.2348E+05
   -1.699999   15.98101  0.0000E+00  0.0000E+00  0.0000E+00  0.0000E+00  0.2445E-04  0.0000E+00
