 1 - depth, m
 2 - temperature, C
 3 - salinity, kg/kg
 4 - turbulent kinetic energy, m**2/s**2
 5 - dissipation rate, m**2/s**3
 6 - kinematic heat conductance, m**2/s
 7 - modulus of horizontal velocity, m/s
 8 - Richardson number, n/d
   -0.000000   10.75480  0.0000E+00  0.7790E-03  0.1225E-02  0.9024E-04  0.3165E+00  0.3483E-01
   -0.042498   10.81590  0.0000E+00  0.3732E-03  0.3719E-03  0.2762E-03  0.6800E-01 -0.1146E+00
   -0.084996   10.82590  0.0000E+00  0.2650E-03  0.1877E-03  0.2388E-03  0.4299E-01 -0.1393E+00
   -0.127494   10.83302  0.0000E+00  0.1990E-03  0.1006E-03  0.2010E-03  0.3479E-01 -0.3556E-01
   -0.169993   10.83853  0.0000E+00  0.1487E-03  0.4962E-04  0.1776E-03  0.2892E-01 -0.6090E-01
   -0.212492   10.84352  0.0000E+00  0.1112E-03  0.2485E-04  0.1679E-03  0.2380E-01 -0.7195E-01
   -0.254991   10.84806  0.0000E+00  0.8298E-04  0.1247E-04  0.1645E-03  0.1977E-01 -0.7342E+00
   -0.297491   10.85242  0.0000E+00  0.6321E-04  0.6433E-05  0.1640E-03  0.1665E-01  0.1947E+02
   -0.339991   10.85649  0.0000E+00  0.4972E-04  0.3614E-05  0.1651E-03  0.1406E-01  0.6379E+01
   -0.382491   10.86028  0.0000E+00  0.4021E-04  0.2173E-05  0.1706E-03  0.1176E-01  0.5602E+02
   -0.424991   10.86358  0.0000E+00  0.3350E-04  0.1387E-05  0.1766E-03  0.1000E-01  0.1465E+04
   -0.467492   10.86649  0.0000E+00  0.2847E-04  0.9237E-06  0.1858E-03  0.8457E-02  0.1116E+02
   -0.509993   10.86904  0.0000E+00  0.2457E-04  0.6394E-06  0.1973E-03  0.7133E-02  0.6059E+01
   -0.552494   10.87138  0.0000E+00  0.2146E-04  0.4593E-06  0.2109E-03  0.5996E-02  0.4236E+01
   -0.594995   10.87349  0.0000E+00  0.1891E-04  0.3413E-06  0.2303E-03  0.5002E-02  0.1111E+03
   -0.637496   10.87540  0.0000E+00  0.1673E-04  0.2595E-06  0.2569E-03  0.4155E-02  0.1973E+02
   -0.679998   10.87709  0.0000E+00  0.1487E-04  0.2008E-06  0.2844E-03  0.3468E-02  0.1363E+03
   -0.722499   10.87861  0.0000E+00  0.1328E-04  0.1574E-06  0.3151E-03  0.2902E-02  0.1644E+02
   -0.765001   10.87998  0.0000E+00  0.1191E-04  0.1244E-06  0.3475E-03  0.2448E-02  0.5146E+02
   -0.807502   10.88122  0.0000E+00  0.1073E-04  0.9892E-07  0.3838E-03  0.2089E-02  0.1547E+03
   -0.850004   10.88234  0.0000E+00  0.9735E-05  0.7940E-07  0.4185E-03  0.1796E-02  0.9124E+03
   -0.892506   10.88335  0.0000E+00  0.8884E-05  0.6424E-07  0.4485E-03  0.1552E-02  0.3632E+02
   -0.935007   10.88429  0.0000E+00  0.8165E-05  0.5251E-07  0.4757E-03  0.1348E-02  0.3263E+03
   -0.977509   10.88515  0.0000E+00  0.7559E-05  0.4341E-07  0.5030E-03  0.1171E-02  0.1074E+02
   -1.020010   10.88594  0.0000E+00  0.7048E-05  0.3634E-07  0.5231E-03  0.1021E-02  0.3633E+02
   -1.062512   10.88668  0.0000E+00  0.6616E-05  0.3084E-07  0.5381E-03  0.8876E-03  0.1661E+02
   -1.105013   10.88739  0.0000E+00  0.6247E-05  0.2654E-07  0.5489E-03  0.7699E-03  0.1942E+02
   -1.147514   10.88807  0.0000E+00  0.5939E-05  0.2325E-07  0.5554E-03  0.6612E-03  0.8652E+01
   -1.190015   10.88872  0.0000E+00  0.5681E-05  0.2078E-07  0.5583E-03  0.5581E-03  0.1779E+02
   -1.232516   10.88936  0.0000E+00  0.5458E-05  0.1890E-07  0.5615E-03  0.4622E-03  0.1109E+02
   -1.275016   10.88998  0.0000E+00  0.5262E-05  0.1748E-07  0.5605E-03  0.3812E-03  0.9718E+01
   -1.317517   10.89059  0.0000E+00  0.5092E-05  0.1648E-07  0.5534E-03  0.3143E-03  0.1256E+02
   -1.360017   10.89121  0.0000E+00  0.4939E-05  0.1583E-07  0.5388E-03  0.2603E-03  0.1597E+02
   -1.402517   10.89184  0.0000E+00  0.4795E-05  0.1552E-07  0.5199E-03  0.2176E-03  0.2383E+02
   -1.445017   10.89249  0.0000E+00  0.4668E-05  0.1566E-07  0.4928E-03  0.1823E-03  0.3507E+02
   -1.487516   10.89318  0.0000E+00  0.4551E-05  0.1641E-07  0.4657E-03  0.1496E-03  0.4757E+02
   -1.530015   10.89392  0.0000E+00  0.4413E-05  0.1854E-07  0.4074E-03  0.1188E-03 -0.7690E+01
   -1.572514   10.89491  0.0000E+00  0.4205E-05  0.2385E-07  0.3786E-03  0.8809E-04  0.2271E+03
   -1.615012   10.89585  0.0000E+00  0.3678E-05  0.4670E-07  0.2162E-03  0.6986E-04 -0.9205E+05
   -1.657510   10.89963  0.0000E+00  0.2397E-05  0.1371E-06  0.4427E-04  0.4790E-04 -0.1573E+07
   -1.700008   10.91211  0.0000E+00  0.0000E+00  0.0000E+00  0.0000E+00  0.6015E-04  0.0000E+00
