 1 - depth, m
 2 - temperature, C
 3 - salinity, kg/kg
 4 - turbulent kinetic energy, m**2/s**2
 5 - dissipation rate, m**2/s**3
 6 - kinematic heat conductance, m**2/s
 7 - modulus of horizontal velocity, m/s
 8 - Richardson number, n/d
   -0.000000   12.73860  0.0000E+00  0.7845E-04  0.3137E-02  0.4204E-04  0.5072E-01 -0.1990E-01
   -0.042498   12.79047  0.0000E+00  0.4915E-04  0.2570E-02  0.6754E-04  0.1693E-01 -0.4632E-01
   -0.084996   12.80577  0.0000E+00  0.3654E-04  0.2256E-02  0.7425E-04  0.1134E-01 -0.1010E+00
   -0.127494   12.81670  0.0000E+00  0.2941E-04  0.1879E-02  0.9391E-04  0.8294E-02  0.6182E+02
   -0.169993   12.82494  0.0000E+00  0.2343E-04  0.1376E-02  0.1203E-03  0.6243E-02  0.1484E+02
   -0.212492   12.83158  0.0000E+00  0.1773E-04  0.7690E-03  0.1579E-03  0.4758E-02  0.1683E+03
   -0.254991   12.83685  0.0000E+00  0.1260E-04  0.2651E-03  0.2233E-03  0.3692E-02  0.2054E+02
   -0.297491   12.84088  0.0000E+00  0.9307E-05  0.4972E-04  0.2758E-03  0.2967E-02  0.8160E+02
   -0.339991   12.84406  0.0000E+00  0.7847E-05  0.6794E-05  0.3236E-03  0.2439E-02  0.4666E+01
   -0.382491   12.84654  0.0000E+00  0.7146E-05  0.8122E-06  0.3704E-03  0.2031E-02  0.5769E+01
   -0.424992   12.84858  0.0000E+00  0.6756E-05  0.1293E-06  0.4172E-03  0.1716E-02 -0.2158E+00
   -0.467493   12.85028  0.0000E+00  0.6516E-05  0.4632E-07  0.4661E-03  0.1449E-02  0.5264E+01
   -0.509993   12.85173  0.0000E+00  0.6367E-05  0.3305E-07  0.5168E-03  0.1218E-02  0.4704E+02
   -0.552495   12.85291  0.0000E+00  0.6275E-05  0.2669E-07  0.5679E-03  0.1021E-02  0.2108E+02
   -0.594996   12.85401  0.0000E+00  0.6216E-05  0.2251E-07  0.6163E-03  0.8459E-03  0.2406E+01
   -0.637497   12.85493  0.0000E+00  0.6183E-05  0.1987E-07  0.6667E-03  0.6963E-03  0.6489E+01
   -0.679999   12.85579  0.0000E+00  0.6165E-05  0.1806E-07  0.7156E-03  0.5791E-03  0.2430E+01
   -0.722500   12.85656  0.0000E+00  0.6154E-05  0.1670E-07  0.7553E-03  0.4856E-03  0.1357E+01
   -0.765002   12.85728  0.0000E+00  0.6144E-05  0.1562E-07  0.7938E-03  0.4085E-03  0.3575E+01
   -0.807503   12.85795  0.0000E+00  0.6135E-05  0.1478E-07  0.8241E-03  0.3503E-03  0.1239E+01
   -0.850005   12.85859  0.0000E+00  0.6125E-05  0.1414E-07  0.8484E-03  0.3050E-03  0.1183E+01
   -0.892507   12.85920  0.0000E+00  0.6114E-05  0.1365E-07  0.8677E-03  0.2689E-03  0.1154E+01
   -0.935008   12.85979  0.0000E+00  0.6101E-05  0.1326E-07  0.8819E-03  0.2399E-03  0.1166E+01
   -0.977510   12.86036  0.0000E+00  0.6086E-05  0.1297E-07  0.8921E-03  0.2156E-03  0.1201E+01
   -1.020011   12.86091  0.0000E+00  0.6069E-05  0.1275E-07  0.8984E-03  0.1950E-03  0.1286E+01
   -1.062513   12.86145  0.0000E+00  0.6049E-05  0.1259E-07  0.9009E-03  0.1768E-03  0.1384E+01
   -1.105014   12.86197  0.0000E+00  0.6027E-05  0.1249E-07  0.8994E-03  0.1605E-03  0.1507E+01
   -1.147515   12.86249  0.0000E+00  0.6002E-05  0.1245E-07  0.8939E-03  0.1453E-03  0.1662E+01
   -1.190017   12.86300  0.0000E+00  0.5974E-05  0.1247E-07  0.8839E-03  0.1310E-03  0.1799E+01
   -1.232517   12.86351  0.0000E+00  0.5943E-05  0.1255E-07  0.8684E-03  0.1173E-03  0.2012E+01
   -1.275018   12.86402  0.0000E+00  0.5907E-05  0.1272E-07  0.8469E-03  0.1048E-03  0.2470E+01
   -1.317519   12.86453  0.0000E+00  0.5864E-05  0.1300E-07  0.8179E-03  0.9328E-04  0.3170E+01
   -1.360019   12.86506  0.0000E+00  0.5812E-05  0.1343E-07  0.7785E-03  0.8272E-04  0.4149E+01
   -1.402519   12.86561  0.0000E+00  0.5747E-05  0.1411E-07  0.7315E-03  0.7306E-04  0.5974E+01
   -1.445019   12.86619  0.0000E+00  0.5674E-05  0.1506E-07  0.6665E-03  0.6394E-04  0.8955E+01
   -1.487518   12.86682  0.0000E+00  0.5595E-05  0.1645E-07  0.6247E-03  0.5472E-04  0.1094E+02
   -1.530017   12.86748  0.0000E+00  0.5491E-05  0.1898E-07  0.4951E-03  0.4573E-04 -0.1214E+02
   -1.572516   12.86836  0.0000E+00  0.5319E-05  0.2489E-07  0.5830E-03  0.3631E-04  0.1187E+03
   -1.615014   12.86905  0.0000E+00  0.4655E-05  0.5475E-07  0.2101E-03  0.3120E-04 -0.2862E+06
   -1.657512   12.87478  0.0000E+00  0.3001E-05  0.1718E-06  0.7284E-04  0.1992E-04 -0.4553E+05
   -1.700010   12.88020  0.0000E+00  0.0000E+00  0.0000E+00  0.0000E+00  0.2416E-04  0.0000E+00
