 1 - depth, m
 2 - temperature, C
 3 - salinity, kg/kg
 4 - turbulent kinetic energy, m**2/s**2
 5 - dissipation rate, m**2/s**3
 6 - kinematic heat conductance, m**2/s
 7 - modulus of horizontal velocity, m/s
 8 - Richardson number, n/d
   -0.000000    0.00000  0.0000E+00  0.1270E-10  0.5945E-14  0.1000E-09  0.0000E+00  0.2063E+17
   -0.042497    0.32352  0.0000E+00  0.2731E-10  0.4892E-14  0.1000E-09  0.0000E+00  0.1929E+17
   -0.084995    0.65619  0.0000E+00  0.5462E-10  0.5796E-14  0.1000E-09  0.0000E+00  0.1769E+17
   -0.127493    0.99570  0.0000E+00  0.9754E-10  0.8154E-14  0.1000E-09  0.0000E+00  0.1536E+17
   -0.169991    1.32734  0.0000E+00  0.1627E-09  0.1220E-13  0.1000E-09  0.0000E+00  0.1310E+17
   -0.212490    1.64899  0.0000E+00  0.2616E-09  0.1856E-13  0.1000E-09  0.0000E+00  0.1095E+17
   -0.254989    1.95805  0.0000E+00  0.4126E-09  0.2837E-13  0.1000E-09  0.0000E+00  0.8923E+16
   -0.297489    2.25184  0.0000E+00  0.6441E-09  0.4332E-13  0.1000E-09  0.0000E+00  0.7098E+16
   -0.339988    2.52861  0.0000E+00  0.9916E-09  0.6558E-13  0.1000E-09  0.0000E+00  0.5502E+16
   -0.382488    2.78749  0.0000E+00  0.1515E-08  0.9870E-13  0.1000E-09  0.0000E+00  0.4120E+16
   -0.424988    3.02709  0.0000E+00  0.2297E-08  0.1475E-12  0.1560E-09  0.0000E+00  0.2982E+16
   -0.467489    3.24840  0.0000E+00  0.3459E-08  0.2191E-12  0.3384E-09  0.0000E+00  0.2045E+16
   -0.509989    3.45137  0.0000E+00  0.5187E-08  0.3243E-12  0.7706E-09  0.0000E+00  0.1331E+16
   -0.552490    3.64353  0.0000E+00  0.7758E-08  0.4786E-12  0.2093E-08  0.0000E+00  0.7253E+15
   -0.594991    3.82696  0.0000E+00  0.1153E-07  0.7024E-12  0.1127E-07  0.0000E+00  0.1990E+15
   -0.637492    3.99584  0.0000E+00  0.1179E-07  0.7190E-12  0.7222E-04  0.0000E+00 -0.5415E+11
   -0.679993    3.99620  0.0000E+00  0.1193E-07  0.7288E-12  0.7073E-04  0.0000E+00 -0.5765E+11
   -0.722494    3.99656  0.0000E+00  0.1206E-07  0.7400E-12  0.7107E-04  0.0000E+00 -0.6030E+11
   -0.764996    3.99693  0.0000E+00  0.1220E-07  0.7529E-12  0.7141E-04  0.0000E+00 -0.6330E+11
   -0.807497    3.99731  0.0000E+00  0.1235E-07  0.7676E-12  0.7165E-04  0.0000E+00 -0.6613E+11
   -0.849998    3.99769  0.0000E+00  0.1249E-07  0.7839E-12  0.7179E-04  0.0000E+00 -0.6901E+11
   -0.892500    3.99807  0.0000E+00  0.1264E-07  0.8020E-12  0.7181E-04  0.0000E+00 -0.7206E+11
   -0.935001    3.99846  0.0000E+00  0.1278E-07  0.8218E-12  0.7169E-04  0.0000E+00 -0.7496E+11
   -0.977502    3.99885  0.0000E+00  0.1292E-07  0.8432E-12  0.7143E-04  0.0000E+00 -0.7816E+11
   -1.020003    3.99924  0.0000E+00  0.1306E-07  0.8665E-12  0.7101E-04  0.0000E+00 -0.8119E+11
   -1.062504    3.99964  0.0000E+00  0.1318E-07  0.8916E-12  0.7043E-04  0.0000E+00 -0.8448E+11
   -1.105005    4.00004  0.0000E+00  0.1330E-07  0.9189E-12  0.6970E-04  0.0000E+00 -0.8747E+11
   -1.147506    4.00044  0.0000E+00  0.1341E-07  0.9478E-12  0.6885E-04  0.0000E+00 -0.9021E+11
   -1.190007    4.00084  0.0000E+00  0.1351E-07  0.9787E-12  0.6777E-04  0.0000E+00 -0.9394E+11
   -1.232508    4.00125  0.0000E+00  0.1360E-07  0.1014E-11  0.6650E-04  0.0000E+00 -0.1005E+12
   -1.275008    4.00167  0.0000E+00  0.1368E-07  0.1055E-11  0.6493E-04  0.0000E+00 -0.1083E+12
   -1.317508    4.00212  0.0000E+00  0.1376E-07  0.1106E-11  0.6298E-04  0.0000E+00 -0.1172E+12
   -1.360008    4.00258  0.0000E+00  0.1383E-07  0.1169E-11  0.6051E-04  0.0000E+00 -0.1295E+12
   -1.402508    4.00309  0.0000E+00  0.1389E-07  0.1251E-11  0.5747E-04  0.0000E+00 -0.1428E+12
   -1.445007    4.00362  0.0000E+00  0.1394E-07  0.1351E-11  0.5406E-04  0.0000E+00 -0.1555E+12
   -1.487506    4.00419  0.0000E+00  0.1396E-07  0.1475E-11  0.5000E-04  0.0000E+00 -0.1740E+12
   -1.530005    4.00480  0.0000E+00  0.1397E-07  0.1666E-11  0.4483E-04  0.0000E+00 -0.2204E+12
   -1.572503    4.00554  0.0000E+00  0.1392E-07  0.2073E-11  0.3773E-04  0.0000E+00 -0.3691E+12
   -1.615001    4.00673  0.0000E+00  0.1353E-07  0.3893E-11  0.1417E-04  0.0000E+00 -0.1257E+13
   -1.657499    4.01035  0.0000E+00  0.1038E-07  0.1700E-10  0.1224E-05  0.0000E+00 -0.2653E+14
   -1.699996    4.04929  0.0000E+00  0.0000E+00  0.0000E+00  0.0000E+00  0.0000E+00  0.0000E+00
