 1 - depth, m
 2 - temperature, C
 3 - salinity, kg/kg
 4 - turbulent kinetic energy, m**2/s**2
 5 - dissipation rate, m**2/s**3
 6 - kinematic heat conductance, m**2/s
 7 - modulus of horizontal velocity, m/s
 8 - Richardson number, n/d
   -0.000000    0.00000  0.0000E+00  0.3189E-13  0.5206E-16  0.1000E-09  0.0000E+00  0.1241E+17
   -0.042497    0.19098  0.0000E+00  0.3189E-13  0.5206E-16  0.1000E-09  0.0000E+00  0.1219E+17
   -0.084995    0.38925  0.0000E+00  0.3189E-13  0.5206E-16  0.1000E-09  0.0000E+00  0.1183E+17
   -0.127493    0.59337  0.0000E+00  0.3189E-13  0.5206E-16  0.1000E-09  0.0000E+00  0.1081E+17
   -0.169992    0.79191  0.0000E+00  0.1323E-12  0.5206E-16  0.1000E-09  0.0000E+00  0.9822E+16
   -0.212491    0.98436  0.0000E+00  0.3675E-12  0.7137E-16  0.1000E-09  0.0000E+00  0.8863E+16
   -0.254990    1.16989  0.0000E+00  0.7951E-12  0.1243E-15  0.1000E-09  0.0000E+00  0.7942E+16
   -0.297490    1.34776  0.0000E+00  0.1562E-11  0.2261E-15  0.1000E-09  0.0000E+00  0.7114E+16
   -0.339989    1.51845  0.0000E+00  0.2920E-11  0.4078E-15  0.1000E-09  0.0000E+00  0.6397E+16
   -0.382489    1.68318  0.0000E+00  0.5347E-11  0.7291E-15  0.1000E-09  0.0000E+00  0.5731E+16
   -0.424990    1.84191  0.0000E+00  0.9650E-11  0.1290E-14  0.1000E-09  0.0000E+00  0.5170E+16
   -0.467490    1.99634  0.0000E+00  0.1725E-10  0.2265E-14  0.1000E-09  0.0000E+00  0.4645E+16
   -0.509991    2.14653  0.0000E+00  0.3068E-10  0.3954E-14  0.1000E-09  0.0000E+00  0.4263E+16
   -0.552492    2.29642  0.0000E+00  0.5434E-10  0.6880E-14  0.1000E-09  0.0000E+00  0.3907E+16
   -0.594993    2.44696  0.0000E+00  0.9590E-10  0.1193E-13  0.1000E-09  0.0000E+00  0.3558E+16
   -0.637494    2.59857  0.0000E+00  0.1702E-09  0.2081E-13  0.1000E-09  0.0000E+00  0.3213E+16
   -0.679995    2.75176  0.0000E+00  0.3027E-09  0.3635E-13  0.1000E-09  0.0000E+00  0.2864E+16
   -0.722496    2.90687  0.0000E+00  0.5395E-09  0.6366E-13  0.1000E-09  0.0000E+00  0.2510E+16
   -0.764998    3.06444  0.0000E+00  0.9635E-09  0.1118E-12  0.1640E-09  0.0000E+00  0.2144E+16
   -0.807499    3.22490  0.0000E+00  0.1719E-08  0.1960E-12  0.3510E-09  0.0000E+00  0.1757E+16
   -0.850001    3.38815  0.0000E+00  0.3031E-08  0.3399E-12  0.7919E-09  0.0000E+00  0.1351E+16
   -0.892502    3.55425  0.0000E+00  0.5321E-08  0.5869E-12  0.1982E-08  0.0000E+00  0.9327E+15
   -0.935004    3.72512  0.0000E+00  0.9215E-08  0.1000E-11  0.6659E-08  0.0000E+00  0.4750E+15
   -0.977505    3.89858  0.0000E+00  0.1522E-07  0.1634E-11  0.1036E-06  0.0000E+00  0.5663E+14
   -1.020006    4.01204  0.0000E+00  0.1584E-07  0.1705E-11  0.5728E-04  0.0000E+00 -0.1943E+12
   -1.062508    4.01252  0.0000E+00  0.1615E-07  0.1745E-11  0.5616E-04  0.0000E+00 -0.2043E+12
   -1.105009    4.01301  0.0000E+00  0.1643E-07  0.1789E-11  0.5650E-04  0.0000E+00 -0.2078E+12
   -1.147510    4.01350  0.0000E+00  0.1669E-07  0.1836E-11  0.5674E-04  0.0000E+00 -0.2105E+12
   -1.190011    4.01399  0.0000E+00  0.1691E-07  0.1886E-11  0.5670E-04  0.0000E+00 -0.2163E+12
   -1.232511    4.01449  0.0000E+00  0.1712E-07  0.1944E-11  0.5653E-04  0.0000E+00 -0.2306E+12
   -1.275012    4.01501  0.0000E+00  0.1732E-07  0.2012E-11  0.5605E-04  0.0000E+00 -0.2470E+12
   -1.317512    4.01555  0.0000E+00  0.1750E-07  0.2093E-11  0.5510E-04  0.0000E+00 -0.2612E+12
   -1.360012    4.01612  0.0000E+00  0.1766E-07  0.2193E-11  0.5370E-04  0.0000E+00 -0.2812E+12
   -1.402512    4.01671  0.0000E+00  0.1781E-07  0.2324E-11  0.5176E-04  0.0000E+00 -0.3021E+12
   -1.445011    4.01734  0.0000E+00  0.1791E-07  0.2479E-11  0.4938E-04  0.0000E+00 -0.3211E+12
   -1.487511    4.01799  0.0000E+00  0.1798E-07  0.2672E-11  0.4633E-04  0.0000E+00 -0.3503E+12
   -1.530009    4.01869  0.0000E+00  0.1801E-07  0.2965E-11  0.4228E-04  0.0000E+00 -0.4273E+12
   -1.572508    4.01952  0.0000E+00  0.1796E-07  0.3581E-11  0.3654E-04  0.0000E+00 -0.6696E+12
   -1.615006    4.02079  0.0000E+00  0.1743E-07  0.6140E-11  0.1535E-04  0.0000E+00 -0.1916E+13
   -1.657504    4.02417  0.0000E+00  0.1340E-07  0.2316E-10  0.1457E-05  0.0000E+00 -0.2825E+14
   -1.700001    4.05732  0.0000E+00  0.0000E+00  0.0000E+00  0.0000E+00  0.0000E+00  0.0000E+00
