 1 - depth, m
 2 - temperature, C
 3 - salinity, kg/kg
 4 - turbulent kinetic energy, m**2/s**2
 5 - dissipation rate, m**2/s**3
 6 - kinematic heat conductance, m**2/s
 7 - modulus of horizontal velocity, m/s
 8 - Richardson number, n/d
   -0.000000    0.00000  0.0000E+00  0.3189E-13  0.5206E-16  0.1000E-09  0.0000E+00  0.8221E+16
   -0.042497    0.12543  0.0000E+00  0.3189E-13  0.5206E-16  0.1000E-09  0.0000E+00  0.8265E+16
   -0.084995    0.25608  0.0000E+00  0.3189E-13  0.5206E-16  0.1000E-09  0.0000E+00  0.8254E+16
   -0.127494    0.39160  0.0000E+00  0.3189E-13  0.5206E-16  0.1000E-09  0.0000E+00  0.7938E+16
   -0.169992    0.52725  0.0000E+00  0.3189E-13  0.5206E-16  0.1000E-09  0.0000E+00  0.7622E+16
   -0.212491    0.66303  0.0000E+00  0.3189E-13  0.5206E-16  0.1000E-09  0.0000E+00  0.7309E+16
   -0.254990    0.79896  0.0000E+00  0.3189E-13  0.5206E-16  0.1000E-09  0.0000E+00  0.6994E+16
   -0.297490    0.93503  0.0000E+00  0.3189E-13  0.5206E-16  0.1000E-09  0.0000E+00  0.6668E+16
   -0.339990    1.07098  0.0000E+00  0.3189E-13  0.5206E-16  0.1000E-09  0.0000E+00  0.6329E+16
   -0.382490    1.20647  0.0000E+00  0.3189E-13  0.5206E-16  0.1000E-09  0.0000E+00  0.5989E+16
   -0.424990    1.34139  0.0000E+00  0.3189E-13  0.5206E-16  0.1000E-09  0.0000E+00  0.5641E+16
   -0.467491    1.47538  0.0000E+00  0.3189E-13  0.5206E-16  0.1000E-09  0.0000E+00  0.5296E+16
   -0.509991    1.60833  0.0000E+00  0.3189E-13  0.5206E-16  0.1000E-09  0.0000E+00  0.4968E+16
   -0.552492    1.74051  0.0000E+00  0.3189E-13  0.5206E-16  0.1000E-09  0.0000E+00  0.4647E+16
   -0.594993    1.87188  0.0000E+00  0.3189E-13  0.5206E-16  0.1000E-09  0.0000E+00  0.4336E+16
   -0.637495    2.00260  0.0000E+00  0.3189E-13  0.5206E-16  0.1000E-09  0.0000E+00  0.4040E+16
   -0.679996    2.13295  0.0000E+00  0.3189E-13  0.5206E-16  0.1000E-09  0.0000E+00  0.3745E+16
   -0.722497    2.26285  0.0000E+00  0.3189E-13  0.5206E-16  0.1000E-09  0.0000E+00  0.3457E+16
   -0.764999    2.39241  0.0000E+00  0.1413E-12  0.5219E-16  0.1000E-09  0.0000E+00  0.3170E+16
   -0.807500    2.52152  0.0000E+00  0.3952E-12  0.9915E-16  0.1000E-09  0.0000E+00  0.2872E+16
   -0.850002    2.64951  0.0000E+00  0.9191E-12  0.2083E-15  0.1000E-09  0.0000E+00  0.2572E+16
   -0.892503    2.77585  0.0000E+00  0.2016E-11  0.4384E-15  0.1000E-09  0.0000E+00  0.2295E+16
   -0.935005    2.90117  0.0000E+00  0.4283E-11  0.9068E-15  0.1000E-09  0.0000E+00  0.2024E+16
   -0.977506    3.02545  0.0000E+00  0.8977E-11  0.1856E-14  0.1000E-09  0.0000E+00  0.1759E+16
   -1.020007    3.14856  0.0000E+00  0.1860E-10  0.3759E-14  0.1000E-09  0.0000E+00  0.1493E+16
   -1.062509    3.26965  0.0000E+00  0.3816E-10  0.7545E-14  0.1000E-09  0.0000E+00  0.1236E+16
   -1.105010    3.38848  0.0000E+00  0.7767E-10  0.1502E-13  0.1000E-09  0.0000E+00  0.9869E+15
   -1.147511    3.50415  0.0000E+00  0.1556E-09  0.2946E-13  0.1231E-09  0.0000E+00  0.7519E+15
   -1.190012    3.61600  0.0000E+00  0.3090E-09  0.5726E-13  0.3343E-09  0.0000E+00  0.5381E+15
   -1.232513    3.72406  0.0000E+00  0.6246E-09  0.1133E-12  0.1029E-08  0.0000E+00  0.3454E+15
   -1.275013    3.82876  0.0000E+00  0.1274E-08  0.2262E-12  0.4178E-08  0.0000E+00  0.1695E+15
   -1.317513    3.92960  0.0000E+00  0.2544E-08  0.4443E-12  0.6023E-07  0.0000E+00  0.2246E+14
   -1.360013    4.00503  0.0000E+00  0.3549E-08  0.6255E-12  0.8454E-05  0.0000E+00 -0.5748E+12
   -1.402513    4.00690  0.0000E+00  0.4074E-08  0.7451E-12  0.8978E-05  0.0000E+00 -0.6083E+12
   -1.445013    4.00871  0.0000E+00  0.4497E-08  0.8741E-12  0.8738E-05  0.0000E+00 -0.6678E+12
   -1.487512    4.01054  0.0000E+00  0.4846E-08  0.1032E-11  0.8130E-05  0.0000E+00 -0.7803E+12
   -1.530011    4.01251  0.0000E+00  0.5182E-08  0.1280E-11  0.7657E-05  0.0000E+00 -0.1060E+13
   -1.572510    4.01498  0.0000E+00  0.5543E-08  0.1782E-11  0.7393E-05  0.0000E+00 -0.1924E+13
   -1.615008    4.01898  0.0000E+00  0.5691E-08  0.3287E-11  0.3454E-05  0.0000E+00 -0.5670E+13
   -1.657506    4.02864  0.0000E+00  0.4696E-08  0.8205E-11  0.6655E-06  0.0000E+00 -0.4081E+14
   -1.700003    4.07001  0.0000E+00  0.0000E+00  0.0000E+00  0.0000E+00  0.0000E+00  0.0000E+00
