 1 - depth, m
 2 - temperature, C
 3 - salinity, kg/kg
 4 - turbulent kinetic energy, m**2/s**2
 5 - dissipation rate, m**2/s**3
 6 - kinematic heat conductance, m**2/s
 7 - modulus of horizontal velocity, m/s
 8 - Richardson number, n/d
   -0.000000   23.35799  0.0000E+00  0.1298E-04  0.8018E-06  0.2272E-04  0.1626E-01 -0.5571E-01
   -0.042497   23.38870  0.0000E+00  0.1012E-04  0.2767E-06  0.4844E-04  0.8141E-02 -0.1643E+00
   -0.084995   23.40132  0.0000E+00  0.8571E-05  0.1403E-06  0.9568E-04  0.5103E-02  0.3490E+02
   -0.127493   23.40787  0.0000E+00  0.7719E-05  0.8725E-07  0.1665E-03  0.3529E-02  0.5845E+03
   -0.169991   23.41149  0.0000E+00  0.7294E-05  0.6263E-07  0.2533E-03  0.2648E-02  0.3908E+03
   -0.212490   23.41353  0.0000E+00  0.7116E-05  0.4948E-07  0.3317E-03  0.2116E-02  0.2094E+01
   -0.254989   23.41492  0.0000E+00  0.7062E-05  0.4100E-07  0.3860E-03  0.1761E-02  0.1664E+01
   -0.297489   23.41605  0.0000E+00  0.7080E-05  0.3495E-07  0.4498E-03  0.1482E-02  0.1522E+01
   -0.339988   23.41696  0.0000E+00  0.7149E-05  0.3069E-07  0.5163E-03  0.1269E-02  0.1480E+01
   -0.382488   23.41773  0.0000E+00  0.7247E-05  0.2756E-07  0.5856E-03  0.1096E-02  0.1438E+01
   -0.424988   23.41840  0.0000E+00  0.7362E-05  0.2521E-07  0.6559E-03  0.9533E-03  0.1491E+01
   -0.467489   23.41898  0.0000E+00  0.7485E-05  0.2340E-07  0.7276E-03  0.8272E-03  0.1537E+01
   -0.509989   23.41952  0.0000E+00  0.7605E-05  0.2197E-07  0.7957E-03  0.7143E-03  0.1561E+01
   -0.552490   23.42000  0.0000E+00  0.7718E-05  0.2084E-07  0.8580E-03  0.6135E-03  0.1574E+01
   -0.594991   23.42046  0.0000E+00  0.7815E-05  0.1997E-07  0.9196E-03  0.5239E-03  0.1540E+01
   -0.637492   23.42088  0.0000E+00  0.7897E-05  0.1928E-07  0.9808E-03  0.4463E-03  0.1453E+01
   -0.679993   23.42127  0.0000E+00  0.7962E-05  0.1876E-07  0.1029E-02  0.3822E-03  0.1365E+01
   -0.722494   23.42164  0.0000E+00  0.8012E-05  0.1839E-07  0.1065E-02  0.3304E-03  0.1257E+01
   -0.764995   23.42199  0.0000E+00  0.8051E-05  0.1814E-07  0.1090E-02  0.2897E-03  0.1151E+01
   -0.807497   23.42232  0.0000E+00  0.8081E-05  0.1799E-07  0.1106E-02  0.2582E-03  0.1083E+01
   -0.849998   23.42263  0.0000E+00  0.8105E-05  0.1794E-07  0.1114E-02  0.2334E-03  0.1026E+01
   -0.892499   23.42295  0.0000E+00  0.8124E-05  0.1796E-07  0.1116E-02  0.2132E-03  0.9845E+00
   -0.935001   23.42326  0.0000E+00  0.8138E-05  0.1805E-07  0.1114E-02  0.1967E-03  0.1019E+01
   -0.977502   23.42358  0.0000E+00  0.8148E-05  0.1821E-07  0.1107E-02  0.1824E-03  0.1135E+01
   -1.020003   23.42390  0.0000E+00  0.8154E-05  0.1843E-07  0.1095E-02  0.1695E-03  0.1339E+01
   -1.062504   23.42424  0.0000E+00  0.8156E-05  0.1875E-07  0.1077E-02  0.1573E-03  0.1579E+01
   -1.105005   23.42459  0.0000E+00  0.8151E-05  0.1915E-07  0.1054E-02  0.1456E-03  0.1886E+01
   -1.147506   23.42497  0.0000E+00  0.8139E-05  0.1965E-07  0.1025E-02  0.1342E-03  0.2265E+01
   -1.190007   23.42538  0.0000E+00  0.8117E-05  0.2027E-07  0.9899E-03  0.1229E-03  0.2675E+01
   -1.232507   23.42582  0.0000E+00  0.8081E-05  0.2106E-07  0.9510E-03  0.1117E-03  0.3242E+01
   -1.275008   23.42629  0.0000E+00  0.8027E-05  0.2213E-07  0.8960E-03  0.1010E-03  0.4400E+01
   -1.317508   23.42680  0.0000E+00  0.7950E-05  0.2361E-07  0.8473E-03  0.9081E-04  0.6313E+01
   -1.360008   23.42736  0.0000E+00  0.7840E-05  0.2581E-07  0.7629E-03  0.8120E-04  0.1005E+02
   -1.402507   23.42800  0.0000E+00  0.7681E-05  0.2929E-07  0.7157E-03  0.7194E-04  0.1969E+02
   -1.445007   23.42871  0.0000E+00  0.7459E-05  0.3507E-07  0.6015E-03  0.6324E-04  0.2732E+03
   -1.487506   23.42983  0.0000E+00  0.7152E-05  0.4398E-07  0.5694E-03  0.5208E-04  0.1088E+05
   -1.530005   23.43109  0.0000E+00  0.6678E-05  0.6236E-07  0.4335E-03  0.4154E-04 -0.5968E+04
   -1.572503   23.43443  0.0000E+00  0.5993E-05  0.1032E-06  0.4511E-03  0.2827E-04  0.5901E+07
   -1.615001   23.43420  0.0000E+00  0.4784E-05  0.2773E-06  0.1998E-03  0.2273E-04 -0.1528E+09
   -1.657499   23.44723  0.0000E+00  0.3304E-05  0.7289E-06  0.1395E-03  0.1385E-04 -0.4834E+06
   -1.699996   23.45097  0.0000E+00  0.0000E+00  0.0000E+00  0.0000E+00  0.2254E-04  0.0000E+00
