 1 - depth, m
 2 - temperature, C
 3 - salinity, kg/kg
 4 - turbulent kinetic energy, m**2/s**2
 5 - dissipation rate, m**2/s**3
 6 - kinematic heat conductance, m**2/s
 7 - modulus of horizontal velocity, m/s
 8 - Richardson number, n/d
   -0.000000   13.95242  0.0000E+00  0.1181E-04  0.7539E-06  0.1922E-04  0.1702E-01 -0.1905E-01
   -0.042497   13.96461  0.0000E+00  0.8259E-05  0.2496E-06  0.3034E-04  0.9073E-02 -0.5415E-01
   -0.084995   13.97048  0.0000E+00  0.6052E-05  0.1142E-06  0.3818E-04  0.5768E-02 -0.1124E+00
   -0.127493   13.97410  0.0000E+00  0.4577E-05  0.6007E-07  0.4700E-04  0.3820E-02 -0.1994E+00
   -0.169992   13.97665  0.0000E+00  0.3566E-05  0.3441E-07  0.6173E-04  0.2569E-02  0.9573E+02
   -0.212490   13.97840  0.0000E+00  0.2865E-05  0.2088E-07  0.7225E-04  0.1739E-02  0.8054E+01
   -0.254990   13.97950  0.0000E+00  0.2413E-05  0.1364E-07  0.9936E-04  0.1190E-02  0.1312E+02
   -0.297489   13.97979  0.0000E+00  0.2166E-05  0.9685E-08  0.1165E-03  0.8487E-03  0.3892E+02
   -0.339989   13.97946  0.0000E+00  0.2080E-05  0.7474E-08  0.1409E-03  0.6210E-03  0.8512E+02
   -0.382489   13.97893  0.0000E+00  0.2094E-05  0.6200E-08  0.1735E-03  0.4681E-03  0.9080E+02
   -0.424989   13.97860  0.0000E+00  0.2134E-05  0.5454E-08  0.2347E-03  0.3692E-03  0.5008E+03
   -0.467489   13.97878  0.0000E+00  0.2170E-05  0.4972E-08  0.3371E-03  0.3071E-03  0.1207E+04
   -0.509990   13.97901  0.0000E+00  0.2207E-05  0.4628E-08  0.3910E-03  0.2612E-03  0.4061E+01
   -0.552491   13.97926  0.0000E+00  0.2247E-05  0.4370E-08  0.4125E-03  0.2227E-03  0.5116E+01
   -0.594992   13.97951  0.0000E+00  0.2289E-05  0.4178E-08  0.4376E-03  0.1888E-03  0.6428E+01
   -0.637493   13.97977  0.0000E+00  0.2333E-05  0.4034E-08  0.4628E-03  0.1597E-03  0.7742E+01
   -0.679994   13.98001  0.0000E+00  0.2378E-05  0.3932E-08  0.4868E-03  0.1358E-03  0.9181E+01
   -0.722495   13.98024  0.0000E+00  0.2424E-05  0.3865E-08  0.5099E-03  0.1165E-03  0.1075E+02
   -0.764996   13.98046  0.0000E+00  0.2472E-05  0.3830E-08  0.5318E-03  0.1011E-03  0.1290E+02
   -0.807498   13.98064  0.0000E+00  0.2524E-05  0.3823E-08  0.5517E-03  0.8899E-04  0.1626E+02
   -0.849999   13.98082  0.0000E+00  0.2581E-05  0.3844E-08  0.5689E-03  0.7906E-04  0.2176E+02
   -0.892500   13.98100  0.0000E+00  0.2642E-05  0.3891E-08  0.5842E-03  0.7078E-04  0.3049E+02
   -0.935002   13.98118  0.0000E+00  0.2708E-05  0.3961E-08  0.5973E-03  0.6366E-04  0.4338E+02
   -0.977503   13.98137  0.0000E+00  0.2777E-05  0.4053E-08  0.6090E-03  0.5736E-04  0.6149E+02
   -1.020004   13.98158  0.0000E+00  0.2849E-05  0.4168E-08  0.6185E-03  0.5172E-04  0.8635E+02
   -1.062505   13.98182  0.0000E+00  0.2921E-05  0.4302E-08  0.6258E-03  0.4662E-04  0.1180E+03
   -1.105006   13.98208  0.0000E+00  0.2994E-05  0.4457E-08  0.6304E-03  0.4193E-04  0.1597E+03
   -1.147507   13.98238  0.0000E+00  0.3062E-05  0.4625E-08  0.6320E-03  0.3756E-04  0.2116E+03
   -1.190008   13.98273  0.0000E+00  0.3125E-05  0.4806E-08  0.6303E-03  0.3335E-04  0.2675E+03
   -1.232509   13.98311  0.0000E+00  0.3182E-05  0.5008E-08  0.6257E-03  0.2938E-04  0.3377E+03
   -1.275009   13.98353  0.0000E+00  0.3235E-05  0.5243E-08  0.6167E-03  0.2575E-04  0.4659E+03
   -1.317509   13.98397  0.0000E+00  0.3283E-05  0.5522E-08  0.6027E-03  0.2248E-04  0.6579E+03
   -1.360009   13.98445  0.0000E+00  0.3326E-05  0.5869E-08  0.5823E-03  0.1952E-04  0.9545E+03
   -1.402509   13.98496  0.0000E+00  0.3366E-05  0.6322E-08  0.5541E-03  0.1692E-04  0.1514E+04
   -1.445008   13.98553  0.0000E+00  0.3396E-05  0.6867E-08  0.5196E-03  0.1450E-04  0.2472E+04
   -1.487507   13.98619  0.0000E+00  0.3413E-05  0.7544E-08  0.4816E-03  0.1215E-04  0.3402E+04
   -1.530006   13.98697  0.0000E+00  0.3411E-05  0.8593E-08  0.4157E-03  0.9857E-05  0.4611E+04
   -1.572505   13.98792  0.0000E+00  0.3373E-05  0.1089E-07  0.3789E-03  0.7699E-05  0.9843E+04
   -1.615003   13.98910  0.0000E+00  0.3180E-05  0.2077E-07  0.1971E-03  0.6307E-05  0.8367E+05
   -1.657501   13.99280  0.0000E+00  0.2200E-05  0.7177E-07  0.3558E-04  0.4255E-05 -0.1966E+08
   -1.699998   14.01257  0.0000E+00  0.0000E+00  0.0000E+00  0.0000E+00  0.4677E-05  0.0000E+00
