 1 - depth, m
 2 - temperature, C
 3 - salinity, kg/kg
 4 - turbulent kinetic energy, m**2/s**2
 5 - dissipation rate, m**2/s**3
 6 - kinematic heat conductance, m**2/s
 7 - modulus of horizontal velocity, m/s
 8 - Richardson number, n/d
   -0.000000   15.48576  0.0000E+00  0.7804E-03  0.1393E-02  0.7716E-04  0.3244E+00 -0.1879E-01
   -0.042497   15.52144  0.0000E+00  0.3775E-03  0.4466E-03  0.3152E-03  0.6875E-01  0.4130E-02
   -0.084995   15.52687  0.0000E+00  0.2666E-03  0.2263E-03  0.2471E-03  0.4309E-01 -0.1189E+00
   -0.127494   15.53065  0.0000E+00  0.2003E-03  0.1210E-03  0.2101E-03  0.3449E-01 -0.1392E+00
   -0.169992   15.53356  0.0000E+00  0.1503E-03  0.5740E-04  0.1877E-03  0.2835E-01 -0.2284E-01
   -0.212491   15.53614  0.0000E+00  0.1134E-03  0.2974E-04  0.1738E-03  0.2324E-01 -0.1419E+00
   -0.254991   15.53864  0.0000E+00  0.8511E-04  0.1431E-04  0.1687E-03  0.1920E-01 -0.2951E+00
   -0.297490   15.54090  0.0000E+00  0.6462E-04  0.7258E-05  0.1669E-03  0.1616E-01  0.1333E+02
   -0.339990   15.54289  0.0000E+00  0.5085E-04  0.4057E-05  0.1670E-03  0.1368E-01  0.4090E+01
   -0.382490   15.54477  0.0000E+00  0.4113E-04  0.2422E-05  0.1703E-03  0.1145E-01  0.1377E+03
   -0.424991   15.54640  0.0000E+00  0.3415E-04  0.1522E-05  0.1741E-03  0.9764E-02  0.9338E+02
   -0.467491   15.54791  0.0000E+00  0.2900E-04  0.1007E-05  0.1805E-03  0.8241E-02  0.1058E+03
   -0.509992   15.54927  0.0000E+00  0.2498E-04  0.6912E-06  0.1899E-03  0.6930E-02  0.1029E+04
   -0.552493   15.55049  0.0000E+00  0.2179E-04  0.4928E-06  0.2015E-03  0.5816E-02  0.4490E+01
   -0.594994   15.55160  0.0000E+00  0.1915E-04  0.3641E-06  0.2173E-03  0.4850E-02  0.5498E+01
   -0.637495   15.55260  0.0000E+00  0.1692E-04  0.2771E-06  0.2367E-03  0.4032E-02  0.5138E+02
   -0.679996   15.55349  0.0000E+00  0.1503E-04  0.2154E-06  0.2584E-03  0.3370E-02  0.5623E+01
   -0.722498   15.55429  0.0000E+00  0.1341E-04  0.1698E-06  0.2827E-03  0.2828E-02  0.1189E+02
   -0.764999   15.55501  0.0000E+00  0.1201E-04  0.1352E-06  0.3080E-03  0.2395E-02  0.3824E+02
   -0.807501   15.55566  0.0000E+00  0.1080E-04  0.1082E-06  0.3342E-03  0.2054E-02  0.1037E+03
   -0.850002   15.55624  0.0000E+00  0.9768E-05  0.8730E-07  0.3655E-03  0.1773E-02  0.1118E+03
   -0.892504   15.55678  0.0000E+00  0.8879E-05  0.7080E-07  0.3969E-03  0.1539E-02  0.2718E+02
   -0.935005   15.55726  0.0000E+00  0.8121E-05  0.5785E-07  0.4249E-03  0.1343E-02  0.1738E+02
   -0.977507   15.55772  0.0000E+00  0.7473E-05  0.4763E-07  0.4494E-03  0.1172E-02  0.1564E+02
   -1.020008   15.55814  0.0000E+00  0.6918E-05  0.3953E-07  0.4690E-03  0.1025E-02  0.7118E+02
   -1.062510   15.55853  0.0000E+00  0.6446E-05  0.3316E-07  0.4874E-03  0.8936E-03  0.7231E+02
   -1.105011   15.55891  0.0000E+00  0.6041E-05  0.2810E-07  0.4990E-03  0.7771E-03  0.2681E+02
   -1.147512   15.55928  0.0000E+00  0.5703E-05  0.2420E-07  0.5081E-03  0.6693E-03  0.1870E+02
   -1.190013   15.55963  0.0000E+00  0.5423E-05  0.2124E-07  0.5145E-03  0.5673E-03  0.1389E+02
   -1.232514   15.55997  0.0000E+00  0.5182E-05  0.1894E-07  0.5200E-03  0.4728E-03  0.2274E+02
   -1.275014   15.56031  0.0000E+00  0.4972E-05  0.1716E-07  0.5220E-03  0.3921E-03  0.1761E+02
   -1.317514   15.56064  0.0000E+00  0.4789E-05  0.1581E-07  0.5202E-03  0.3241E-03  0.1693E+02
   -1.360015   15.56097  0.0000E+00  0.4627E-05  0.1483E-07  0.5135E-03  0.2681E-03  0.2248E+02
   -1.402514   15.56130  0.0000E+00  0.4479E-05  0.1419E-07  0.5019E-03  0.2233E-03  0.3778E+02
   -1.445014   15.56164  0.0000E+00  0.4356E-05  0.1395E-07  0.4810E-03  0.1859E-03  0.5896E+02
   -1.487513   15.56199  0.0000E+00  0.4251E-05  0.1418E-07  0.4578E-03  0.1520E-03  0.9753E+02
   -1.530012   15.56237  0.0000E+00  0.4141E-05  0.1526E-07  0.4106E-03  0.1208E-03  0.3223E+02
   -1.572511   15.56284  0.0000E+00  0.3982E-05  0.1833E-07  0.3590E-03  0.9203E-04  0.2334E+03
   -1.615009   15.56333  0.0000E+00  0.3575E-05  0.3133E-07  0.2406E-03  0.7352E-04 -0.3863E+05
   -1.657507   15.56461  0.0000E+00  0.2333E-05  0.9469E-07  0.2935E-04  0.5446E-04 -0.1686E+07
   -1.700005   15.57308  0.0000E+00  0.0000E+00  0.0000E+00  0.0000E+00  0.6111E-04  0.0000E+00
