 1 - depth, m
 2 - temperature, C
 3 - salinity, kg/kg
 4 - turbulent kinetic energy, m**2/s**2
 5 - dissipation rate, m**2/s**3
 6 - kinematic heat conductance, m**2/s
 7 - modulus of horizontal velocity, m/s
 8 - Richardson number, n/d
   -0.000000    0.00000  0.0000E+00  0.3189E-13  0.5206E-16  0.1000E-09  0.0000E+00  0.9670E+16
   -0.042497    0.14800  0.0000E+00  0.3189E-13  0.5206E-16  0.1000E-09  0.0000E+00  0.9648E+16
   -0.084995    0.30198  0.0000E+00  0.3189E-13  0.5206E-16  0.1000E-09  0.0000E+00  0.9549E+16
   -0.127493    0.46143  0.0000E+00  0.3189E-13  0.5206E-16  0.1000E-09  0.0000E+00  0.9081E+16
   -0.169992    0.62051  0.0000E+00  0.3189E-13  0.5206E-16  0.1000E-09  0.0000E+00  0.8613E+16
   -0.212491    0.77910  0.0000E+00  0.3189E-13  0.5206E-16  0.1000E-09  0.0000E+00  0.8148E+16
   -0.254990    0.93714  0.0000E+00  0.3189E-13  0.5206E-16  0.1000E-09  0.0000E+00  0.7683E+16
   -0.297490    1.09450  0.0000E+00  0.3189E-13  0.5206E-16  0.1000E-09  0.0000E+00  0.7214E+16
   -0.339989    1.25088  0.0000E+00  0.3189E-13  0.5206E-16  0.1000E-09  0.0000E+00  0.6739E+16
   -0.382489    1.40594  0.0000E+00  0.3189E-13  0.5206E-16  0.1000E-09  0.0000E+00  0.6270E+16
   -0.424990    1.55950  0.0000E+00  0.1348E-12  0.5206E-16  0.1000E-09  0.0000E+00  0.5804E+16
   -0.467490    1.71124  0.0000E+00  0.3684E-12  0.7123E-16  0.1000E-09  0.0000E+00  0.5347E+16
   -0.509991    1.86100  0.0000E+00  0.7844E-12  0.1227E-15  0.1000E-09  0.0000E+00  0.4925E+16
   -0.552492    2.00931  0.0000E+00  0.1517E-11  0.2201E-15  0.1000E-09  0.0000E+00  0.4515E+16
   -0.594993    2.15618  0.0000E+00  0.2820E-11  0.3944E-15  0.1000E-09  0.0000E+00  0.4120E+16
   -0.637494    2.30171  0.0000E+00  0.5196E-11  0.7093E-15  0.1000E-09  0.0000E+00  0.3744E+16
   -0.679995    2.44616  0.0000E+00  0.9535E-11  0.1275E-14  0.1000E-09  0.0000E+00  0.3373E+16
   -0.722496    2.58936  0.0000E+00  0.1748E-10  0.2294E-14  0.1000E-09  0.0000E+00  0.3012E+16
   -0.764998    2.73133  0.0000E+00  0.3209E-10  0.4131E-14  0.1000E-09  0.0000E+00  0.2657E+16
   -0.807499    2.87183  0.0000E+00  0.5876E-10  0.7428E-14  0.1000E-09  0.0000E+00  0.2302E+16
   -0.850001    3.01011  0.0000E+00  0.1063E-09  0.1320E-13  0.1000E-09  0.0000E+00  0.1956E+16
   -0.892502    3.14557  0.0000E+00  0.1915E-09  0.2335E-13  0.1000E-09  0.0000E+00  0.1643E+16
   -0.935003    3.27948  0.0000E+00  0.3409E-09  0.4085E-13  0.1000E-09  0.0000E+00  0.1346E+16
   -0.977505    3.41228  0.0000E+00  0.6030E-09  0.7100E-13  0.2116E-09  0.0000E+00  0.1056E+16
   -1.020006    3.54383  0.0000E+00  0.1059E-08  0.1225E-12  0.5010E-09  0.0000E+00  0.7694E+15
   -1.062507    3.67302  0.0000E+00  0.1846E-08  0.2100E-12  0.1330E-08  0.0000E+00  0.4966E+15
   -1.105008    3.79923  0.0000E+00  0.3196E-08  0.3576E-12  0.4693E-08  0.0000E+00  0.2396E+15
   -1.147509    3.91942  0.0000E+00  0.5340E-08  0.5893E-12  0.5713E-07  0.0000E+00  0.3233E+14
   -1.190010    4.00508  0.0000E+00  0.5978E-08  0.6631E-12  0.2226E-04  0.0000E+00 -0.2220E+12
   -1.232511    4.00582  0.0000E+00  0.6280E-08  0.7049E-12  0.2314E-04  0.0000E+00 -0.2202E+12
   -1.275011    4.00653  0.0000E+00  0.6553E-08  0.7510E-12  0.2345E-04  0.0000E+00 -0.2255E+12
   -1.317512    4.00723  0.0000E+00  0.6805E-08  0.8041E-12  0.2363E-04  0.0000E+00 -0.2400E+12
   -1.360012    4.00795  0.0000E+00  0.7038E-08  0.8681E-12  0.2347E-04  0.0000E+00 -0.2631E+12
   -1.402512    4.00871  0.0000E+00  0.7261E-08  0.9505E-12  0.2201E-04  0.0000E+00 -0.2978E+12
   -1.445011    4.00954  0.0000E+00  0.7450E-08  0.1052E-11  0.1949E-04  0.0000E+00 -0.3446E+12
   -1.487510    4.01047  0.0000E+00  0.7606E-08  0.1183E-11  0.1710E-04  0.0000E+00 -0.4110E+12
   -1.530009    4.01153  0.0000E+00  0.7749E-08  0.1392E-11  0.1538E-04  0.0000E+00 -0.5547E+12
   -1.572508    4.01290  0.0000E+00  0.7868E-08  0.1825E-11  0.1403E-04  0.0000E+00 -0.9871E+12
   -1.615006    4.01517  0.0000E+00  0.7657E-08  0.3356E-11  0.5757E-05  0.0000E+00 -0.3157E+13
   -1.657504    4.02147  0.0000E+00  0.5913E-08  0.9854E-11  0.7909E-06  0.0000E+00 -0.3330E+14
   -1.700001    4.06041  0.0000E+00  0.0000E+00  0.0000E+00  0.0000E+00  0.0000E+00  0.0000E+00
