 1 - depth, m
 2 - temperature, C
 3 - salinity, kg/kg
 4 - turbulent kinetic energy, m**2/s**2
 5 - dissipation rate, m**2/s**3
 6 - kinematic heat conductance, m**2/s
 7 - modulus of horizontal velocity, m/s
 8 - Richardson number, n/d
   -0.000000    0.00000  0.0000E+00  0.2636E-09  0.2713E-12  0.1000E-09  0.0000E+00  0.3205E+17
   -0.042497    0.51633  0.0000E+00  0.9280E-09  0.2096E-12  0.1000E-09  0.0000E+00  0.2649E+17
   -0.084993    1.01454  0.0000E+00  0.2138E-08  0.2544E-12  0.1000E-09  0.0000E+00  0.2160E+17
   -0.127491    1.49770  0.0000E+00  0.4034E-08  0.3715E-12  0.1000E-09  0.0000E+00  0.1705E+17
   -0.169988    1.96295  0.0000E+00  0.6946E-08  0.5743E-12  0.1390E-09  0.0000E+00  0.1302E+17
   -0.212486    2.41161  0.0000E+00  0.1145E-07  0.8992E-12  0.3012E-09  0.0000E+00  0.9410E+16
   -0.254985    2.84427  0.0000E+00  0.1847E-07  0.1410E-11  0.7196E-09  0.0000E+00  0.6183E+16
   -0.297483    3.26054  0.0000E+00  0.2947E-07  0.2208E-11  0.2110E-08  0.0000E+00  0.3308E+16
   -0.339982    3.65745  0.0000E+00  0.4616E-07  0.3409E-11  0.1285E-07  0.0000E+00  0.8460E+15
   -0.382481    4.01186  0.0000E+00  0.4656E-07  0.3440E-11  0.2084E-03  0.0000E+00 -0.1026E+12
   -0.424981    4.01211  0.0000E+00  0.4675E-07  0.3457E-11  0.2048E-03  0.0000E+00 -0.1026E+12
   -0.467480    4.01237  0.0000E+00  0.4694E-07  0.3476E-11  0.2052E-03  0.0000E+00 -0.1020E+12
   -0.509980    4.01262  0.0000E+00  0.4711E-07  0.3497E-11  0.2056E-03  0.0000E+00 -0.1022E+12
   -0.552480    4.01287  0.0000E+00  0.4728E-07  0.3520E-11  0.2058E-03  0.0000E+00 -0.1026E+12
   -0.594980    4.01311  0.0000E+00  0.4744E-07  0.3544E-11  0.2057E-03  0.0000E+00 -0.1034E+12
   -0.637480    4.01336  0.0000E+00  0.4760E-07  0.3571E-11  0.2054E-03  0.0000E+00 -0.1048E+12
   -0.679981    4.01361  0.0000E+00  0.4775E-07  0.3602E-11  0.2050E-03  0.0000E+00 -0.1065E+12
   -0.722481    4.01386  0.0000E+00  0.4791E-07  0.3637E-11  0.2043E-03  0.0000E+00 -0.1090E+12
   -0.764982    4.01411  0.0000E+00  0.4806E-07  0.3677E-11  0.2033E-03  0.0000E+00 -0.1120E+12
   -0.807482    4.01437  0.0000E+00  0.4821E-07  0.3722E-11  0.2021E-03  0.0000E+00 -0.1149E+12
   -0.849983    4.01463  0.0000E+00  0.4836E-07  0.3772E-11  0.2006E-03  0.0000E+00 -0.1181E+12
   -0.892483    4.01490  0.0000E+00  0.4850E-07  0.3829E-11  0.1989E-03  0.0000E+00 -0.1211E+12
   -0.934984    4.01517  0.0000E+00  0.4863E-07  0.3891E-11  0.1970E-03  0.0000E+00 -0.1237E+12
   -0.977484    4.01544  0.0000E+00  0.4876E-07  0.3960E-11  0.1948E-03  0.0000E+00 -0.1267E+12
   -1.019985    4.01572  0.0000E+00  0.4888E-07  0.4035E-11  0.1923E-03  0.0000E+00 -0.1296E+12
   -1.062485    4.01600  0.0000E+00  0.4898E-07  0.4118E-11  0.1895E-03  0.0000E+00 -0.1330E+12
   -1.104985    4.01629  0.0000E+00  0.4907E-07  0.4208E-11  0.1864E-03  0.0000E+00 -0.1362E+12
   -1.147485    4.01658  0.0000E+00  0.4915E-07  0.4306E-11  0.1832E-03  0.0000E+00 -0.1394E+12
   -1.189985    4.01687  0.0000E+00  0.4921E-07  0.4411E-11  0.1796E-03  0.0000E+00 -0.1435E+12
   -1.232485    4.01717  0.0000E+00  0.4926E-07  0.4532E-11  0.1755E-03  0.0000E+00 -0.1501E+12
   -1.274985    4.01748  0.0000E+00  0.4929E-07  0.4676E-11  0.1708E-03  0.0000E+00 -0.1580E+12
   -1.317484    4.01781  0.0000E+00  0.4931E-07  0.4852E-11  0.1652E-03  0.0000E+00 -0.1666E+12
   -1.359983    4.01814  0.0000E+00  0.4931E-07  0.5075E-11  0.1585E-03  0.0000E+00 -0.1784E+12
   -1.402482    4.01850  0.0000E+00  0.4929E-07  0.5370E-11  0.1507E-03  0.0000E+00 -0.1913E+12
   -1.444981    4.01888  0.0000E+00  0.4924E-07  0.5726E-11  0.1424E-03  0.0000E+00 -0.2043E+12
   -1.487479    4.01928  0.0000E+00  0.4917E-07  0.6168E-11  0.1329E-03  0.0000E+00 -0.2214E+12
   -1.529977    4.01971  0.0000E+00  0.4904E-07  0.6843E-11  0.1202E-03  0.0000E+00 -0.2592E+12
   -1.572475    4.02020  0.0000E+00  0.4875E-07  0.8276E-11  0.1029E-03  0.0000E+00 -0.3612E+12
   -1.614972    4.02088  0.0000E+00  0.4746E-07  0.1459E-10  0.4217E-04  0.0000E+00 -0.1018E+13
   -1.657469    4.02272  0.0000E+00  0.3451E-07  0.8449E-10  0.2098E-05  0.0000E+00 -0.3065E+14
   -1.699965    4.05873  0.0000E+00  0.0000E+00  0.0000E+00  0.0000E+00  0.0000E+00  0.0000E+00
