 1 - depth, m
 2 - temperature, C
 3 - salinity, kg/kg
 4 - turbulent kinetic energy, m**2/s**2
 5 - dissipation rate, m**2/s**3
 6 - kinematic heat conductance, m**2/s
 7 - modulus of horizontal velocity, m/s
 8 - Richardson number, n/d
   -0.000000    5.92008  0.0000E+00  0.8871E-03  0.2043E-02  0.1292E-03  0.3322E+00  0.3254E-02
   -0.042497    6.01037  0.0000E+00  0.4474E-03  0.6556E-03  0.3057E-03  0.6828E-01 -0.8820E-02
   -0.084995    6.02352  0.0000E+00  0.3216E-03  0.3732E-03  0.2974E-03  0.4369E-01 -0.3391E-01
   -0.127493    6.03284  0.0000E+00  0.2481E-03  0.2293E-03  0.2652E-03  0.3527E-01 -0.3992E-01
   -0.169992    6.03943  0.0000E+00  0.1920E-03  0.1290E-03  0.2341E-03  0.2963E-01  0.8423E-02
   -0.212491    6.04489  0.0000E+00  0.1499E-03  0.7063E-04  0.2210E-03  0.2478E-01 -0.5773E-01
   -0.254990    6.05000  0.0000E+00  0.1165E-03  0.3952E-04  0.2138E-03  0.2096E-01 -0.1857E+00
   -0.297489    6.05490  0.0000E+00  0.9219E-04  0.2019E-04  0.2110E-03  0.1805E-01 -0.1750E+00
   -0.339989    6.05990  0.0000E+00  0.7470E-04  0.1013E-04  0.2094E-03  0.1564E-01  0.1122E+02
   -0.382489    6.06447  0.0000E+00  0.6174E-04  0.5243E-05  0.2126E-03  0.1348E-01  0.7840E+01
   -0.424989    6.06840  0.0000E+00  0.5231E-04  0.2979E-05  0.2190E-03  0.1181E-01  0.3002E+02
   -0.467490    6.07201  0.0000E+00  0.4517E-04  0.1886E-05  0.2291E-03  0.1025E-01  0.1201E+02
   -0.509990    6.07534  0.0000E+00  0.3955E-04  0.1306E-05  0.2364E-03  0.8879E-02  0.3266E+01
   -0.552491    6.07844  0.0000E+00  0.3501E-04  0.9656E-06  0.2441E-03  0.7678E-02  0.1200E+02
   -0.594992    6.08139  0.0000E+00  0.3124E-04  0.7459E-06  0.2534E-03  0.6600E-02  0.1053E+01
   -0.637493    6.08415  0.0000E+00  0.2797E-04  0.5905E-06  0.2649E-03  0.5668E-02  0.8250E+01
   -0.679994    6.08666  0.0000E+00  0.2513E-04  0.4752E-06  0.2775E-03  0.4903E-02  0.8567E+01
   -0.722496    6.08897  0.0000E+00  0.2265E-04  0.3868E-06  0.2899E-03  0.4259E-02  0.7786E+01
   -0.764997    6.09108  0.0000E+00  0.2046E-04  0.3170E-06  0.3039E-03  0.3730E-02  0.1419E+02
   -0.807498    6.09302  0.0000E+00  0.1851E-04  0.2605E-06  0.3160E-03  0.3301E-02  0.1069E+05
   -0.850000    6.09484  0.0000E+00  0.1681E-04  0.2155E-06  0.3287E-03  0.2935E-02 -0.1486E+02
   -0.892501    6.09657  0.0000E+00  0.1531E-04  0.1788E-06  0.3427E-03  0.2619E-02 -0.1174E+04
   -0.935003    6.09821  0.0000E+00  0.1399E-04  0.1492E-06  0.3539E-03  0.2344E-02  0.5817E+02
   -0.977504    6.09980  0.0000E+00  0.1284E-04  0.1251E-06  0.3672E-03  0.2097E-02  0.2057E+02
   -1.020005    6.10133  0.0000E+00  0.1184E-04  0.1055E-06  0.3788E-03  0.1877E-02  0.1019E+02
   -1.062506    6.10282  0.0000E+00  0.1096E-04  0.8949E-07  0.3920E-03  0.1675E-02  0.6982E+02
   -1.105007    6.10426  0.0000E+00  0.1018E-04  0.7645E-07  0.4048E-03  0.1491E-02  0.4516E+02
   -1.147508    6.10568  0.0000E+00  0.9524E-05  0.6604E-07  0.4171E-03  0.1318E-02  0.1296E+02
   -1.190009    6.10706  0.0000E+00  0.8963E-05  0.5785E-07  0.4297E-03  0.1151E-02  0.1457E+02
   -1.232510    6.10842  0.0000E+00  0.8466E-05  0.5120E-07  0.4422E-03  0.9935E-03  0.3468E+02
   -1.275010    6.10974  0.0000E+00  0.8021E-05  0.4577E-07  0.4534E-03  0.8542E-03  0.3507E+02
   -1.317511    6.11102  0.0000E+00  0.7619E-05  0.4137E-07  0.4584E-03  0.7317E-03  0.4120E+02
   -1.360011    6.11229  0.0000E+00  0.7248E-05  0.3785E-07  0.4578E-03  0.6253E-03  0.4314E+02
   -1.402510    6.11356  0.0000E+00  0.6895E-05  0.3512E-07  0.4519E-03  0.5347E-03  0.1338E+03
   -1.445010    6.11485  0.0000E+00  0.6592E-05  0.3354E-07  0.4360E-03  0.4542E-03  0.1008E+03
   -1.487509    6.11621  0.0000E+00  0.6338E-05  0.3337E-07  0.4119E-03  0.3778E-03  0.1229E+03
   -1.530008    6.11765  0.0000E+00  0.6095E-05  0.3542E-07  0.3731E-03  0.3048E-03  0.1627E+03
   -1.572506    6.11929  0.0000E+00  0.5780E-05  0.4348E-07  0.3186E-03  0.2389E-03  0.3110E+03
   -1.615004    6.12119  0.0000E+00  0.5048E-05  0.7839E-07  0.2097E-03  0.1920E-03 -0.3143E+03
   -1.657502    6.12476  0.0000E+00  0.3162E-05  0.2214E-06  0.2598E-04  0.1466E-03 -0.1676E+07
   -1.700000    6.15712  0.0000E+00  0.0000E+00  0.0000E+00  0.0000E+00  0.1669E-03  0.0000E+00
