 1 - depth, m
 2 - temperature, C
 3 - salinity, kg/kg
 4 - turbulent kinetic energy, m**2/s**2
 5 - dissipation rate, m**2/s**3
 6 - kinematic heat conductance, m**2/s
 7 - modulus of horizontal velocity, m/s
 8 - Richardson number, n/d
   -0.000000   17.04120  0.0000E+00  0.7912E-04  0.3177E-04  0.3869E-04  0.6036E-01  0.2095E-01
   -0.042498   17.10558  0.0000E+00  0.4445E-04  0.8629E-05  0.6700E-04  0.1942E-01 -0.8797E+00
   -0.084996   17.12231  0.0000E+00  0.3223E-04  0.4027E-05  0.7816E-04  0.1294E-01 -0.8790E-01
   -0.127494   17.13413  0.0000E+00  0.2478E-04  0.2142E-05  0.9285E-04  0.9551E-02 -0.1716E+00
   -0.169993   17.14308  0.0000E+00  0.1964E-04  0.1171E-05  0.1197E-03  0.7257E-02  0.3714E+00
   -0.212492   17.14987  0.0000E+00  0.1605E-04  0.6585E-06  0.2192E-03  0.5623E-02  0.9636E+03
   -0.254991   17.15432  0.0000E+00  0.1356E-04  0.3842E-06  0.2772E-03  0.4551E-02  0.1572E+02
   -0.297491   17.15781  0.0000E+00  0.1184E-04  0.2394E-06  0.3229E-03  0.3772E-02  0.1817E+02
   -0.339991   17.16070  0.0000E+00  0.1070E-04  0.1594E-06  0.3733E-03  0.3173E-02  0.8875E+02
   -0.382491   17.16307  0.0000E+00  0.9927E-05  0.1127E-06  0.4266E-03  0.2690E-02  0.1894E+02
   -0.424992   17.16502  0.0000E+00  0.9415E-05  0.8382E-07  0.4808E-03  0.2303E-02  0.3331E+01
   -0.467493   17.16666  0.0000E+00  0.9067E-05  0.6495E-07  0.5353E-03  0.1965E-02  0.4415E+02
   -0.509994   17.16804  0.0000E+00  0.8836E-05  0.5247E-07  0.5843E-03  0.1668E-02  0.5681E+01
   -0.552495   17.16923  0.0000E+00  0.8672E-05  0.4384E-07  0.6282E-03  0.1407E-02  0.3436E+01
   -0.594996   17.17029  0.0000E+00  0.8547E-05  0.3762E-07  0.6769E-03  0.1176E-02  0.2981E+01
   -0.637497   17.17122  0.0000E+00  0.8447E-05  0.3303E-07  0.7377E-03  0.9758E-03  0.1771E+01
   -0.679999   17.17207  0.0000E+00  0.8361E-05  0.2954E-07  0.7997E-03  0.8099E-03  0.1827E+01
   -0.722500   17.17283  0.0000E+00  0.8280E-05  0.2685E-07  0.8554E-03  0.6739E-03  0.1814E+01
   -0.765002   17.17353  0.0000E+00  0.8204E-05  0.2478E-07  0.8994E-03  0.5669E-03  0.1382E+01
   -0.807503   17.17418  0.0000E+00  0.8128E-05  0.2316E-07  0.9310E-03  0.4849E-03  0.1284E+01
   -0.850005   17.17479  0.0000E+00  0.8053E-05  0.2192E-07  0.9529E-03  0.4205E-03  0.1222E+01
   -0.892507   17.17538  0.0000E+00  0.7976E-05  0.2095E-07  0.9673E-03  0.3690E-03  0.1160E+01
   -0.935008   17.17595  0.0000E+00  0.7898E-05  0.2021E-07  0.9738E-03  0.3276E-03  0.1120E+01
   -0.977510   17.17650  0.0000E+00  0.7819E-05  0.1966E-07  0.9742E-03  0.2932E-03  0.1072E+01
   -1.020012   17.17703  0.0000E+00  0.7737E-05  0.1925E-07  0.9693E-03  0.2645E-03  0.1089E+01
   -1.062513   17.17756  0.0000E+00  0.7651E-05  0.1898E-07  0.9590E-03  0.2395E-03  0.1123E+01
   -1.105014   17.17807  0.0000E+00  0.7561E-05  0.1883E-07  0.9433E-03  0.2174E-03  0.1207E+01
   -1.147516   17.17857  0.0000E+00  0.7468E-05  0.1879E-07  0.9223E-03  0.1969E-03  0.1322E+01
   -1.190017   17.17907  0.0000E+00  0.7372E-05  0.1890E-07  0.8952E-03  0.1774E-03  0.1453E+01
   -1.232518   17.17956  0.0000E+00  0.7268E-05  0.1916E-07  0.8624E-03  0.1590E-03  0.1662E+01
   -1.275018   17.18006  0.0000E+00  0.7151E-05  0.1964E-07  0.8170E-03  0.1421E-03  0.2178E+01
   -1.317519   17.18058  0.0000E+00  0.7015E-05  0.2044E-07  0.7741E-03  0.1266E-03  0.3061E+01
   -1.360019   17.18112  0.0000E+00  0.6850E-05  0.2178E-07  0.6987E-03  0.1124E-03  0.4780E+01
   -1.402519   17.18172  0.0000E+00  0.6639E-05  0.2406E-07  0.6600E-03  0.9897E-04  0.8678E+01
   -1.445019   17.18235  0.0000E+00  0.6375E-05  0.2828E-07  0.5516E-03  0.8668E-04 -0.9930E+03
   -1.487518   17.18333  0.0000E+00  0.6031E-05  0.3544E-07  0.5223E-03  0.7069E-04  0.9845E+03
   -1.530017   17.18435  0.0000E+00  0.5518E-05  0.5156E-07  0.3847E-03  0.5530E-04  0.3452E+03
   -1.572516   17.18726  0.0000E+00  0.4794E-05  0.8616E-07  0.4005E-03  0.3567E-04  0.4312E+07
   -1.615015   17.18651  0.0000E+00  0.3701E-05  0.2329E-06  0.1821E-03  0.2846E-04 -0.1182E+09
   -1.657513   17.19676  0.0000E+00  0.2494E-05  0.6081E-06  0.1360E-03  0.1681E-04 -0.1302E+06
   -1.700010   17.19756  0.0000E+00  0.0000E+00  0.0000E+00  0.0000E+00  0.3060E-04  0.0000E+00
