 1 - depth, m
 2 - temperature, C
 3 - salinity, kg/kg
 4 - turbulent kinetic energy, m**2/s**2
 5 - dissipation rate, m**2/s**3
 6 - kinematic heat conductance, m**2/s
 7 - modulus of horizontal velocity, m/s
 8 - Richardson number, n/d
   -0.000000    0.00000  0.0000E+00  0.3189E-13  0.5206E-16  0.1000E-09  0.0000E+00  0.1106E+17
   -0.042498    0.16970  0.0000E+00  0.3189E-13  0.5206E-16  0.1000E-09  0.0000E+00  0.1113E+17
   -0.084996    0.34907  0.0000E+00  0.3189E-13  0.5206E-16  0.1000E-09  0.0000E+00  0.1102E+17
   -0.127494    0.53650  0.0000E+00  0.6498E-13  0.5206E-16  0.1000E-09  0.0000E+00  0.1038E+17
   -0.169993    0.72345  0.0000E+00  0.2292E-12  0.5223E-16  0.1000E-09  0.0000E+00  0.9717E+16
   -0.212493    0.90931  0.0000E+00  0.5330E-12  0.7949E-16  0.1000E-09  0.0000E+00  0.9042E+16
   -0.254992    1.09356  0.0000E+00  0.1055E-11  0.1361E-15  0.1000E-09  0.0000E+00  0.8366E+16
   -0.297492    1.27573  0.0000E+00  0.1954E-11  0.2376E-15  0.1000E-09  0.0000E+00  0.7700E+16
   -0.339992    1.45553  0.0000E+00  0.3483E-11  0.4104E-15  0.1000E-09  0.0000E+00  0.7054E+16
   -0.382492    1.63280  0.0000E+00  0.6099E-11  0.7029E-15  0.1000E-09  0.0000E+00  0.6421E+16
   -0.424993    1.80720  0.0000E+00  0.1054E-10  0.1192E-14  0.1000E-09  0.0000E+00  0.5817E+16
   -0.467494    1.97872  0.0000E+00  0.1806E-10  0.2005E-14  0.1000E-09  0.0000E+00  0.5232E+16
   -0.509995    2.14709  0.0000E+00  0.3077E-10  0.3357E-14  0.1000E-09  0.0000E+00  0.4710E+16
   -0.552496    2.31358  0.0000E+00  0.5224E-10  0.5601E-14  0.1000E-09  0.0000E+00  0.4211E+16
   -0.594998    2.47835  0.0000E+00  0.8838E-10  0.9314E-14  0.1000E-09  0.0000E+00  0.3730E+16
   -0.637499    2.64151  0.0000E+00  0.1504E-09  0.1558E-13  0.1000E-09  0.0000E+00  0.3269E+16
   -0.680001    2.80330  0.0000E+00  0.2564E-09  0.2611E-13  0.1000E-09  0.0000E+00  0.2819E+16
   -0.722502    2.96364  0.0000E+00  0.4381E-09  0.4386E-13  0.1000E-09  0.0000E+00  0.2383E+16
   -0.765004    3.12252  0.0000E+00  0.7507E-09  0.7389E-13  0.1188E-09  0.0000E+00  0.1958E+16
   -0.807506    3.27969  0.0000E+00  0.1285E-08  0.1244E-12  0.2543E-09  0.0000E+00  0.1541E+16
   -0.850007    3.43443  0.0000E+00  0.2177E-08  0.2074E-12  0.5733E-09  0.0000E+00  0.1139E+16
   -0.892509    3.58604  0.0000E+00  0.3671E-08  0.3441E-12  0.1412E-08  0.0000E+00  0.7684E+15
   -0.935011    3.73605  0.0000E+00  0.6118E-08  0.5644E-12  0.4362E-08  0.0000E+00  0.4094E+15
   -0.977513    3.88363  0.0000E+00  0.9985E-08  0.9084E-12  0.3667E-07  0.0000E+00  0.8024E+14
   -1.020014    4.00549  0.0000E+00  0.1044E-07  0.9522E-12  0.4623E-04  0.0000E+00 -0.1423E+12
   -1.062516    4.00596  0.0000E+00  0.1066E-07  0.9764E-12  0.4540E-04  0.0000E+00 -0.1479E+12
   -1.105017    4.00643  0.0000E+00  0.1086E-07  0.1002E-11  0.4565E-04  0.0000E+00 -0.1489E+12
   -1.147519    4.00690  0.0000E+00  0.1103E-07  0.1029E-11  0.4579E-04  0.0000E+00 -0.1494E+12
   -1.190020    4.00736  0.0000E+00  0.1119E-07  0.1058E-11  0.4570E-04  0.0000E+00 -0.1512E+12
   -1.232521    4.00781  0.0000E+00  0.1133E-07  0.1091E-11  0.4547E-04  0.0000E+00 -0.1569E+12
   -1.275022    4.00827  0.0000E+00  0.1146E-07  0.1130E-11  0.4498E-04  0.0000E+00 -0.1646E+12
   -1.317522    4.00875  0.0000E+00  0.1158E-07  0.1177E-11  0.4424E-04  0.0000E+00 -0.1757E+12
   -1.360023    4.00924  0.0000E+00  0.1169E-07  0.1236E-11  0.4311E-04  0.0000E+00 -0.1916E+12
   -1.402523    4.00977  0.0000E+00  0.1179E-07  0.1313E-11  0.4143E-04  0.0000E+00 -0.2079E+12
   -1.445023    4.01033  0.0000E+00  0.1186E-07  0.1405E-11  0.3927E-04  0.0000E+00 -0.2220E+12
   -1.487522    4.01091  0.0000E+00  0.1192E-07  0.1526E-11  0.3648E-04  0.0000E+00 -0.2450E+12
   -1.530022    4.01154  0.0000E+00  0.1195E-07  0.1728E-11  0.3275E-04  0.0000E+00 -0.3141E+12
   -1.572521    4.01232  0.0000E+00  0.1193E-07  0.2158E-11  0.2773E-04  0.0000E+00 -0.5468E+12
   -1.615019    4.01363  0.0000E+00  0.1152E-07  0.3890E-11  0.1056E-04  0.0000E+00 -0.1791E+13
   -1.657517    4.01754  0.0000E+00  0.8656E-08  0.1412E-10  0.1036E-05  0.0000E+00 -0.2673E+14
   -1.700015    4.05257  0.0000E+00  0.0000E+00  0.0000E+00  0.0000E+00  0.0000E+00  0.0000E+00
