 1 - depth, m
 2 - temperature, C
 3 - salinity, kg/kg
 4 - turbulent kinetic energy, m**2/s**2
 5 - dissipation rate, m**2/s**3
 6 - kinematic heat conductance, m**2/s
 7 - modulus of horizontal velocity, m/s
 8 - Richardson number, n/d
   -0.000000    0.00000  0.0000E+00  0.3189E-13  0.5207E-16  0.1000E-09  0.0000E+00  0.1213E+17
   -0.042497    0.18666  0.0000E+00  0.3189E-13  0.5207E-16  0.1000E-09  0.0000E+00  0.1195E+17
   -0.084995    0.38060  0.0000E+00  0.3189E-13  0.5207E-16  0.1000E-09  0.0000E+00  0.1163E+17
   -0.127493    0.58060  0.0000E+00  0.3189E-13  0.5207E-16  0.1000E-09  0.0000E+00  0.1060E+17
   -0.169992    0.77435  0.0000E+00  0.3189E-13  0.5207E-16  0.1000E-09  0.0000E+00  0.9603E+16
   -0.212490    0.96122  0.0000E+00  0.5262E-13  0.5207E-16  0.1000E-09  0.0000E+00  0.8624E+16
   -0.254989    1.14004  0.0000E+00  0.2047E-12  0.5247E-16  0.1000E-09  0.0000E+00  0.7675E+16
   -0.297489    1.30972  0.0000E+00  0.4981E-12  0.8091E-16  0.1000E-09  0.0000E+00  0.6831E+16
   -0.339989    1.47081  0.0000E+00  0.1004E-11  0.1410E-15  0.1000E-09  0.0000E+00  0.6119E+16
   -0.382488    1.62484  0.0000E+00  0.1882E-11  0.2496E-15  0.1000E-09  0.0000E+00  0.5460E+16
   -0.424989    1.77166  0.0000E+00  0.3406E-11  0.4386E-15  0.1000E-09  0.0000E+00  0.4930E+16
   -0.467489    1.91350  0.0000E+00  0.6057E-11  0.7641E-15  0.1000E-09  0.0000E+00  0.4440E+16
   -0.509990    2.05043  0.0000E+00  0.1068E-10  0.1324E-14  0.1000E-09  0.0000E+00  0.4111E+16
   -0.552490    2.18681  0.0000E+00  0.1876E-10  0.2286E-14  0.1000E-09  0.0000E+00  0.3818E+16
   -0.594991    2.32378  0.0000E+00  0.3283E-10  0.3936E-14  0.1000E-09  0.0000E+00  0.3531E+16
   -0.637492    2.46166  0.0000E+00  0.5781E-10  0.6821E-14  0.1000E-09  0.0000E+00  0.3243E+16
   -0.679993    2.60065  0.0000E+00  0.1021E-09  0.1185E-13  0.1000E-09  0.0000E+00  0.2958E+16
   -0.722495    2.74124  0.0000E+00  0.1807E-09  0.2066E-13  0.1000E-09  0.0000E+00  0.2672E+16
   -0.764996    2.88386  0.0000E+00  0.3210E-09  0.3613E-13  0.1000E-09  0.0000E+00  0.2381E+16
   -0.807497    3.02907  0.0000E+00  0.5700E-09  0.6318E-13  0.1043E-09  0.0000E+00  0.2083E+16
   -0.849999    3.17760  0.0000E+00  0.1002E-08  0.1094E-12  0.1951E-09  0.0000E+00  0.1769E+16
   -0.892500    3.32997  0.0000E+00  0.1755E-08  0.1888E-12  0.4104E-09  0.0000E+00  0.1455E+16
   -0.935001    3.48953  0.0000E+00  0.3043E-08  0.3226E-12  0.9346E-09  0.0000E+00  0.1095E+16
   -0.977502    3.65773  0.0000E+00  0.5243E-08  0.5479E-12  0.2629E-08  0.0000E+00  0.6652E+15
   -1.020004    3.83324  0.0000E+00  0.8918E-08  0.9195E-12  0.1650E-07  0.0000E+00  0.1831E+15
   -1.062505    4.00003  0.0000E+00  0.9604E-08  0.9941E-12  0.3463E-04  0.0000E+00 -0.1688E+12
   -1.105006    4.00082  0.0000E+00  0.9926E-08  0.1035E-11  0.3668E-04  0.0000E+00 -0.1705E+12
   -1.147507    4.00158  0.0000E+00  0.1020E-07  0.1077E-11  0.3777E-04  0.0000E+00 -0.1753E+12
   -1.190007    4.00231  0.0000E+00  0.1045E-07  0.1120E-11  0.3839E-04  0.0000E+00 -0.1843E+12
   -1.232508    4.00304  0.0000E+00  0.1068E-07  0.1169E-11  0.3874E-04  0.0000E+00 -0.2025E+12
   -1.275008    4.00381  0.0000E+00  0.1090E-07  0.1224E-11  0.3884E-04  0.0000E+00 -0.2231E+12
   -1.317509    4.00461  0.0000E+00  0.1110E-07  0.1290E-11  0.3842E-04  0.0000E+00 -0.2414E+12
   -1.360009    4.00545  0.0000E+00  0.1130E-07  0.1370E-11  0.3763E-04  0.0000E+00 -0.2660E+12
   -1.402508    4.00632  0.0000E+00  0.1149E-07  0.1473E-11  0.3630E-04  0.0000E+00 -0.2937E+12
   -1.445008    4.00725  0.0000E+00  0.1164E-07  0.1595E-11  0.3450E-04  0.0000E+00 -0.3228E+12
   -1.487507    4.00822  0.0000E+00  0.1176E-07  0.1746E-11  0.3217E-04  0.0000E+00 -0.3652E+12
   -1.530006    4.00927  0.0000E+00  0.1185E-07  0.1982E-11  0.2910E-04  0.0000E+00 -0.4634E+12
   -1.572504    4.01053  0.0000E+00  0.1190E-07  0.2496E-11  0.2448E-04  0.0000E+00 -0.7758E+12
   -1.615002    4.01252  0.0000E+00  0.1160E-07  0.4617E-11  0.9507E-05  0.0000E+00 -0.2600E+13
   -1.657500    4.01826  0.0000E+00  0.9146E-08  0.1606E-10  0.1137E-05  0.0000E+00 -0.3623E+14
   -1.699997    4.06147  0.0000E+00  0.0000E+00  0.0000E+00  0.0000E+00  0.0000E+00  0.0000E+00
