 1 - depth, m
 2 - temperature, C
 3 - salinity, kg/kg
 4 - turbulent kinetic energy, m**2/s**2
 5 - dissipation rate, m**2/s**3
 6 - kinematic heat conductance, m**2/s
 7 - modulus of horizontal velocity, m/s
 8 - Richardson number, n/d
   -0.000000    6.32365  0.0000E+00  0.1210E-02  0.9061E-02  0.1642E-03  0.4862E+00  0.1274E-02
   -0.042497    6.43965  0.0000E+00  0.5663E-03  0.4256E-02  0.2567E-03  0.1078E+00  0.1951E-01
   -0.084995    6.48868  0.0000E+00  0.3615E-03  0.1685E-02  0.2877E-03  0.5802E-01  0.5452E+00
   -0.127493    6.51381  0.0000E+00  0.2598E-03  0.9532E-03  0.2331E-03  0.4376E-01 -0.1523E-01
   -0.169992    6.52764  0.0000E+00  0.1947E-03  0.5715E-03  0.2078E-03  0.3500E-01 -0.1618E-01
   -0.212490    6.53834  0.0000E+00  0.1464E-03  0.3693E-03  0.1935E-03  0.2792E-01 -0.5627E-01
   -0.254989    6.55062  0.0000E+00  0.1113E-03  0.2330E-03  0.1890E-03  0.2224E-01 -0.4648E+01
   -0.297489    6.56220  0.0000E+00  0.8772E-04  0.1519E-03  0.1904E-03  0.1836E-01  0.1243E+02
   -0.339989    6.56977  0.0000E+00  0.7068E-04  0.9700E-04  0.1901E-03  0.1591E-01  0.1101E+02
   -0.382489    6.57670  0.0000E+00  0.5800E-04  0.5936E-04  0.1942E-03  0.1361E-01  0.2785E+02
   -0.424989    6.58250  0.0000E+00  0.4865E-04  0.3455E-04  0.1971E-03  0.1205E-01  0.4591E+02
   -0.467489    6.58809  0.0000E+00  0.4150E-04  0.1930E-04  0.2031E-03  0.1035E-01  0.1355E+03
   -0.509990    6.59321  0.0000E+00  0.3593E-04  0.1055E-04  0.2107E-03  0.8794E-02  0.4564E+03
   -0.552490    6.59788  0.0000E+00  0.3149E-04  0.5751E-05  0.2186E-03  0.7479E-02  0.2432E+03
   -0.594991    6.60245  0.0000E+00  0.2780E-04  0.3194E-05  0.2306E-03  0.6275E-02  0.2273E+03
   -0.637492    6.60647  0.0000E+00  0.2466E-04  0.1825E-05  0.2454E-03  0.5260E-02  0.1280E+03
   -0.679993    6.60994  0.0000E+00  0.2198E-04  0.1092E-05  0.2617E-03  0.4481E-02  0.4425E+03
   -0.722495    6.61313  0.0000E+00  0.1966E-04  0.6923E-06  0.2804E-03  0.3831E-02  0.3799E+03
   -0.764996    6.61602  0.0000E+00  0.1764E-04  0.4651E-06  0.3008E-03  0.3312E-02  0.8388E+03
   -0.807497    6.61855  0.0000E+00  0.1587E-04  0.3268E-06  0.3189E-03  0.2909E-02  0.3942E+04
   -0.849999    6.62097  0.0000E+00  0.1436E-04  0.2410E-06  0.3400E-03  0.2566E-02  0.1059E+03
   -0.892500    6.62313  0.0000E+00  0.1303E-04  0.1832E-06  0.3575E-03  0.2274E-02  0.7629E+04
   -0.935001    6.62522  0.0000E+00  0.1189E-04  0.1422E-06  0.3744E-03  0.2024E-02 -0.4071E+03
   -0.977503    6.62711  0.0000E+00  0.1091E-04  0.1131E-06  0.3888E-03  0.1799E-02  0.3656E+03
   -1.020004    6.62893  0.0000E+00  0.1005E-04  0.9187E-07  0.4029E-03  0.1600E-02  0.3685E+03
   -1.062505    6.63061  0.0000E+00  0.9315E-05  0.7591E-07  0.4154E-03  0.1419E-02  0.5605E+03
   -1.105006    6.63219  0.0000E+00  0.8676E-05  0.6368E-07  0.4286E-03  0.1255E-02  0.3470E+04
   -1.147507    6.63368  0.0000E+00  0.8129E-05  0.5426E-07  0.4388E-03  0.1102E-02  0.2534E+03
   -1.190008    6.63508  0.0000E+00  0.7664E-05  0.4702E-07  0.4490E-03  0.9537E-03  0.3594E+03
   -1.232508    6.63641  0.0000E+00  0.7254E-05  0.4129E-07  0.4562E-03  0.8153E-03  0.3371E+03
   -1.275009    6.63768  0.0000E+00  0.6888E-05  0.3669E-07  0.4619E-03  0.6948E-03  0.1257E+04
   -1.317509    6.63890  0.0000E+00  0.6557E-05  0.3301E-07  0.4623E-03  0.5903E-03  0.7158E+03
   -1.360009    6.64010  0.0000E+00  0.6252E-05  0.3011E-07  0.4591E-03  0.5007E-03  0.1028E+04
   -1.402508    6.64128  0.0000E+00  0.5962E-05  0.2788E-07  0.4496E-03  0.4255E-03  0.2162E+04
   -1.445008    6.64246  0.0000E+00  0.5712E-05  0.2660E-07  0.4340E-03  0.3593E-03  0.2246E+04
   -1.487507    6.64365  0.0000E+00  0.5500E-05  0.2648E-07  0.4110E-03  0.2971E-03  0.2943E+04
   -1.530006    6.64489  0.0000E+00  0.5293E-05  0.2823E-07  0.3733E-03  0.2378E-03  0.3873E+04
   -1.572504    6.64627  0.0000E+00  0.5024E-05  0.3495E-07  0.3209E-03  0.1846E-03  0.7426E+04
   -1.615002    6.64784  0.0000E+00  0.4427E-05  0.6441E-07  0.2185E-03  0.1478E-03  0.4540E+05
   -1.657500    6.65075  0.0000E+00  0.2808E-05  0.1768E-06  0.2540E-04  0.1130E-03 -0.5728E+09
   -1.699997    6.67680  0.0000E+00  0.0000E+00  0.0000E+00  0.0000E+00  0.1277E-03  0.0000E+00
