 1 - depth, m
 2 - temperature, C
 3 - salinity, kg/kg
 4 - turbulent kinetic energy, m**2/s**2
 5 - dissipation rate, m**2/s**3
 6 - kinematic heat conductance, m**2/s
 7 - modulus of horizontal velocity, m/s
 8 - Richardson number, n/d
   -0.000000    8.43486  0.0000E+00  0.4264E-04  0.9320E-05  0.3092E-04  0.4186E-01 -0.5011E-02
   -0.042498    8.46687  0.0000E+00  0.2568E-04  0.2674E-05  0.4756E-04  0.1682E-01 -0.1670E-01
   -0.084996    8.47931  0.0000E+00  0.1848E-04  0.1158E-05  0.5473E-04  0.1133E-01 -0.3700E-01
   -0.127495    8.48903  0.0000E+00  0.1376E-04  0.5659E-06  0.6157E-04  0.8128E-02 -0.7008E-01
   -0.169994    8.49722  0.0000E+00  0.1050E-04  0.3005E-06  0.6887E-04  0.5928E-02 -0.1249E+00
   -0.212493    8.50434  0.0000E+00  0.8169E-05  0.1687E-06  0.7910E-04  0.4334E-02 -0.2191E+00
   -0.254993    8.51047  0.0000E+00  0.6520E-05  0.9923E-07  0.1066E-03  0.3196E-02  0.1480E+01
   -0.297492    8.51538  0.0000E+00  0.5417E-05  0.6144E-07  0.1568E-03  0.2417E-02  0.5603E+02
   -0.339993    8.51918  0.0000E+00  0.4701E-05  0.4040E-07  0.1906E-03  0.1896E-02  0.1130E+03
   -0.382493    8.52221  0.0000E+00  0.4240E-05  0.2823E-07  0.2428E-03  0.1511E-02  0.1453E+03
   -0.424994    8.52446  0.0000E+00  0.3949E-05  0.2107E-07  0.2796E-03  0.1242E-02  0.4268E+01
   -0.467495    8.52629  0.0000E+00  0.3756E-05  0.1656E-07  0.3101E-03  0.1031E-02  0.3138E+02
   -0.509996    8.52784  0.0000E+00  0.3626E-05  0.1359E-07  0.3436E-03  0.8532E-03  0.3053E+01
   -0.552497    8.52918  0.0000E+00  0.3539E-05  0.1156E-07  0.3741E-03  0.7062E-03  0.3501E+02
   -0.594998    8.53036  0.0000E+00  0.3479E-05  0.1012E-07  0.4036E-03  0.5797E-03  0.1074E+02
   -0.637500    8.53144  0.0000E+00  0.3437E-05  0.9048E-08  0.4328E-03  0.4732E-03  0.1275E+01
   -0.680002    8.53243  0.0000E+00  0.3409E-05  0.8248E-08  0.4607E-03  0.3883E-03  0.1325E+01
   -0.722503    8.53334  0.0000E+00  0.3391E-05  0.7647E-08  0.4863E-03  0.3214E-03  0.1660E+01
   -0.765005    8.53419  0.0000E+00  0.3380E-05  0.7190E-08  0.5087E-03  0.2710E-03  0.4055E+01
   -0.807507    8.53499  0.0000E+00  0.3374E-05  0.6834E-08  0.5294E-03  0.2333E-03  0.1205E+01
   -0.850009    8.53575  0.0000E+00  0.3372E-05  0.6551E-08  0.5477E-03  0.2038E-03  0.1366E+01
   -0.892511    8.53648  0.0000E+00  0.3371E-05  0.6320E-08  0.5644E-03  0.1799E-03  0.1583E+01
   -0.935012    8.53718  0.0000E+00  0.3371E-05  0.6130E-08  0.5796E-03  0.1600E-03  0.1901E+01
   -0.977514    8.53786  0.0000E+00  0.3371E-05  0.5974E-08  0.5930E-03  0.1427E-03  0.2205E+01
   -1.020016    8.53852  0.0000E+00  0.3370E-05  0.5847E-08  0.6043E-03  0.1275E-03  0.2597E+01
   -1.062518    8.53917  0.0000E+00  0.3369E-05  0.5748E-08  0.6130E-03  0.1140E-03  0.2944E+01
   -1.105019    8.53980  0.0000E+00  0.3366E-05  0.5674E-08  0.6191E-03  0.1018E-03  0.3350E+01
   -1.147521    8.54042  0.0000E+00  0.3362E-05  0.5627E-08  0.6223E-03  0.9041E-04  0.3779E+01
   -1.190022    8.54104  0.0000E+00  0.3357E-05  0.5606E-08  0.6222E-03  0.7964E-04  0.4218E+01
   -1.232523    8.54165  0.0000E+00  0.3350E-05  0.5611E-08  0.6186E-03  0.6953E-04  0.4808E+01
   -1.275024    8.54226  0.0000E+00  0.3340E-05  0.5647E-08  0.6111E-03  0.6041E-04  0.6114E+01
   -1.317524    8.54288  0.0000E+00  0.3327E-05  0.5720E-08  0.5989E-03  0.5226E-04  0.8009E+01
   -1.360025    8.54351  0.0000E+00  0.3310E-05  0.5845E-08  0.5807E-03  0.4500E-04  0.1074E+02
   -1.402525    8.54416  0.0000E+00  0.3288E-05  0.6045E-08  0.5554E-03  0.3867E-04  0.1559E+02
   -1.445025    8.54484  0.0000E+00  0.3262E-05  0.6326E-08  0.5243E-03  0.3290E-04  0.2321E+02
   -1.487525    8.54556  0.0000E+00  0.3233E-05  0.6725E-08  0.4901E-03  0.2737E-04  0.2936E+02
   -1.530024    8.54632  0.0000E+00  0.3193E-05  0.7413E-08  0.4248E-03  0.2205E-04  0.3777E+02
   -1.572523    8.54721  0.0000E+00  0.3123E-05  0.9003E-08  0.4329E-03  0.1716E-04  0.5445E+02
   -1.615021    8.54807  0.0000E+00  0.2861E-05  0.1707E-07  0.1920E-03  0.1413E-04 -0.5236E+08
   -1.657520    8.55260  0.0000E+00  0.1849E-05  0.5894E-07  0.3820E-04  0.9412E-05 -0.2681E+05
   -1.700017    8.56352  0.0000E+00  0.0000E+00  0.0000E+00  0.0000E+00  0.1052E-04  0.0000E+00
