 1 - depth, m
 2 - temperature, C
 3 - salinity, kg/kg
 4 - turbulent kinetic energy, m**2/s**2
 5 - dissipation rate, m**2/s**3
 6 - kinematic heat conductance, m**2/s
 7 - modulus of horizontal velocity, m/s
 8 - Richardson number, n/d
   -0.000000    0.00000  0.0000E+00  0.3189E-13  0.5206E-16  0.1000E-09  0.0000E+00  0.8141E+16
   -0.042497    0.12420  0.0000E+00  0.3189E-13  0.5206E-16  0.1000E-09  0.0000E+00  0.8201E+16
   -0.084995    0.25376  0.0000E+00  0.3189E-13  0.5206E-16  0.1000E-09  0.0000E+00  0.8201E+16
   -0.127494    0.38830  0.0000E+00  0.3189E-13  0.5206E-16  0.1000E-09  0.0000E+00  0.7894E+16
   -0.169992    0.52304  0.0000E+00  0.3189E-13  0.5206E-16  0.1000E-09  0.0000E+00  0.7584E+16
   -0.212491    0.65793  0.0000E+00  0.3189E-13  0.5206E-16  0.1000E-09  0.0000E+00  0.7274E+16
   -0.254991    0.79299  0.0000E+00  0.3189E-13  0.5206E-16  0.1000E-09  0.0000E+00  0.6963E+16
   -0.297490    0.92816  0.0000E+00  0.3189E-13  0.5206E-16  0.1000E-09  0.0000E+00  0.6641E+16
   -0.339990    1.06321  0.0000E+00  0.3189E-13  0.5206E-16  0.1000E-09  0.0000E+00  0.6306E+16
   -0.382490    1.19780  0.0000E+00  0.3189E-13  0.5206E-16  0.1000E-09  0.0000E+00  0.5969E+16
   -0.424991    1.33179  0.0000E+00  0.3189E-13  0.5206E-16  0.1000E-09  0.0000E+00  0.5625E+16
   -0.467491    1.46486  0.0000E+00  0.3189E-13  0.5206E-16  0.1000E-09  0.0000E+00  0.5283E+16
   -0.509992    1.59688  0.0000E+00  0.3189E-13  0.5206E-16  0.1000E-09  0.0000E+00  0.4960E+16
   -0.552493    1.72813  0.0000E+00  0.3189E-13  0.5206E-16  0.1000E-09  0.0000E+00  0.4642E+16
   -0.594994    1.85859  0.0000E+00  0.3189E-13  0.5206E-16  0.1000E-09  0.0000E+00  0.4336E+16
   -0.637495    1.98841  0.0000E+00  0.3189E-13  0.5206E-16  0.1000E-09  0.0000E+00  0.4044E+16
   -0.679996    2.11789  0.0000E+00  0.3189E-13  0.5206E-16  0.1000E-09  0.0000E+00  0.3754E+16
   -0.722498    2.24696  0.0000E+00  0.3189E-13  0.5206E-16  0.1000E-09  0.0000E+00  0.3470E+16
   -0.764999    2.37572  0.0000E+00  0.1177E-12  0.5206E-16  0.1000E-09  0.0000E+00  0.3188E+16
   -0.807501    2.50411  0.0000E+00  0.3449E-12  0.8982E-16  0.1000E-09  0.0000E+00  0.2894E+16
   -0.850002    2.63144  0.0000E+00  0.8162E-12  0.1856E-15  0.1000E-09  0.0000E+00  0.2598E+16
   -0.892504    2.75720  0.0000E+00  0.1798E-11  0.3892E-15  0.1000E-09  0.0000E+00  0.2324E+16
   -0.935005    2.88202  0.0000E+00  0.3818E-11  0.8031E-15  0.1000E-09  0.0000E+00  0.2056E+16
   -0.977507    3.00587  0.0000E+00  0.7986E-11  0.1640E-14  0.1000E-09  0.0000E+00  0.1793E+16
   -1.020008    3.12863  0.0000E+00  0.1650E-10  0.3313E-14  0.1000E-09  0.0000E+00  0.1528E+16
   -1.062509    3.24948  0.0000E+00  0.3377E-10  0.6630E-14  0.1000E-09  0.0000E+00  0.1273E+16
   -1.105011    3.36815  0.0000E+00  0.6855E-10  0.1317E-13  0.1000E-09  0.0000E+00  0.1024E+16
   -1.147512    3.48379  0.0000E+00  0.1370E-09  0.2574E-13  0.1029E-09  0.0000E+00  0.7888E+15
   -1.190013    3.59576  0.0000E+00  0.2713E-09  0.4990E-13  0.2731E-09  0.0000E+00  0.5741E+15
   -1.232513    3.70412  0.0000E+00  0.5468E-09  0.9845E-13  0.8132E-09  0.0000E+00  0.3802E+15
   -1.275014    3.80947  0.0000E+00  0.1113E-08  0.1962E-12  0.3046E-08  0.0000E+00  0.2019E+15
   -1.317514    3.91184  0.0000E+00  0.2248E-08  0.3890E-12  0.2898E-07  0.0000E+00  0.4156E+14
   -1.360015    4.00197  0.0000E+00  0.3206E-08  0.5591E-12  0.7490E-05  0.0000E+00 -0.5556E+12
   -1.402514    4.00409  0.0000E+00  0.3715E-08  0.6736E-12  0.8097E-05  0.0000E+00 -0.5932E+12
   -1.445014    4.00611  0.0000E+00  0.4128E-08  0.7982E-12  0.7962E-05  0.0000E+00 -0.6575E+12
   -1.487513    4.00813  0.0000E+00  0.4472E-08  0.9515E-12  0.7450E-05  0.0000E+00 -0.7764E+12
   -1.530012    4.01029  0.0000E+00  0.4808E-08  0.1194E-11  0.7027E-05  0.0000E+00 -0.1069E+13
   -1.572511    4.01299  0.0000E+00  0.5178E-08  0.1688E-11  0.6774E-05  0.0000E+00 -0.1975E+13
   -1.615009    4.01736  0.0000E+00  0.5364E-08  0.3161E-11  0.3192E-05  0.0000E+00 -0.5903E+13
   -1.657507    4.02776  0.0000E+00  0.4487E-08  0.7851E-11  0.6439E-06  0.0000E+00 -0.4144E+14
   -1.700005    4.07005  0.0000E+00  0.0000E+00  0.0000E+00  0.0000E+00  0.0000E+00  0.0000E+00
