 1 - depth, m
 2 - temperature, C
 3 - salinity, kg/kg
 4 - turbulent kinetic energy, m**2/s**2
 5 - dissipation rate, m**2/s**3
 6 - kinematic heat conductance, m**2/s
 7 - modulus of horizontal velocity, m/s
 8 - Richardson number, n/d
   -0.000000    0.00000  0.0000E+00  0.3113E-11  0.1053E-14  0.1000E-09  0.0000E+00  0.1901E+17
   -0.042497    0.29693  0.0000E+00  0.5691E-11  0.9690E-15  0.1000E-09  0.0000E+00  0.1738E+17
   -0.084994    0.59254  0.0000E+00  0.1076E-10  0.1260E-14  0.1000E-09  0.0000E+00  0.1574E+17
   -0.127491    0.88616  0.0000E+00  0.1916E-10  0.1902E-14  0.1000E-09  0.0000E+00  0.1378E+17
   -0.169989    1.16968  0.0000E+00  0.3265E-10  0.3010E-14  0.1000E-09  0.0000E+00  0.1199E+17
   -0.212487    1.44307  0.0000E+00  0.5429E-10  0.4816E-14  0.1000E-09  0.0000E+00  0.1034E+17
   -0.254986    1.70635  0.0000E+00  0.8916E-10  0.7719E-14  0.1000E-09  0.0000E+00  0.8834E+16
   -0.297484    1.95930  0.0000E+00  0.1455E-09  0.1236E-13  0.1000E-09  0.0000E+00  0.7451E+16
   -0.339983    2.20134  0.0000E+00  0.2344E-09  0.1959E-13  0.1000E-09  0.0000E+00  0.6193E+16
   -0.382483    2.43188  0.0000E+00  0.3752E-09  0.3089E-13  0.1000E-09  0.0000E+00  0.5068E+16
   -0.424982    2.65065  0.0000E+00  0.5961E-09  0.4834E-13  0.1000E-09  0.0000E+00  0.4073E+16
   -0.467482    2.85752  0.0000E+00  0.9409E-09  0.7521E-13  0.1000E-09  0.0000E+00  0.3200E+16
   -0.509982    3.05237  0.0000E+00  0.1480E-08  0.1166E-12  0.1477E-09  0.0000E+00  0.2483E+16
   -0.552482    3.23836  0.0000E+00  0.2321E-08  0.1802E-12  0.3062E-09  0.0000E+00  0.1852E+16
   -0.594982    3.41589  0.0000E+00  0.3633E-08  0.2781E-12  0.6735E-09  0.0000E+00  0.1299E+16
   -0.637482    3.58531  0.0000E+00  0.5716E-08  0.4313E-12  0.1665E-08  0.0000E+00  0.8154E+15
   -0.679983    3.74707  0.0000E+00  0.9008E-08  0.6702E-12  0.5423E-08  0.0000E+00  0.3890E+15
   -0.722483    3.89851  0.0000E+00  0.1394E-07  0.1026E-11  0.5672E-07  0.0000E+00  0.5707E+14
   -0.764984    4.00715  0.0000E+00  0.1431E-07  0.1054E-11  0.7301E-04  0.0000E+00 -0.9614E+11
   -0.807485    4.00744  0.0000E+00  0.1450E-07  0.1071E-11  0.7106E-04  0.0000E+00 -0.1007E+12
   -0.849985    4.00775  0.0000E+00  0.1468E-07  0.1089E-11  0.7137E-04  0.0000E+00 -0.1020E+12
   -0.892486    4.00805  0.0000E+00  0.1486E-07  0.1110E-11  0.7174E-04  0.0000E+00 -0.1039E+12
   -0.934987    4.00835  0.0000E+00  0.1504E-07  0.1132E-11  0.7197E-04  0.0000E+00 -0.1058E+12
   -0.977487    4.00866  0.0000E+00  0.1520E-07  0.1156E-11  0.7203E-04  0.0000E+00 -0.1082E+12
   -1.019988    4.00896  0.0000E+00  0.1536E-07  0.1182E-11  0.7190E-04  0.0000E+00 -0.1102E+12
   -1.062488    4.00927  0.0000E+00  0.1550E-07  0.1210E-11  0.7159E-04  0.0000E+00 -0.1125E+12
   -1.104989    4.00958  0.0000E+00  0.1563E-07  0.1240E-11  0.7111E-04  0.0000E+00 -0.1142E+12
   -1.147489    4.00989  0.0000E+00  0.1575E-07  0.1273E-11  0.7048E-04  0.0000E+00 -0.1155E+12
   -1.189989    4.01020  0.0000E+00  0.1585E-07  0.1308E-11  0.6959E-04  0.0000E+00 -0.1180E+12
   -1.232489    4.01052  0.0000E+00  0.1594E-07  0.1348E-11  0.6849E-04  0.0000E+00 -0.1245E+12
   -1.274989    4.01084  0.0000E+00  0.1603E-07  0.1396E-11  0.6707E-04  0.0000E+00 -0.1324E+12
   -1.317488    4.01118  0.0000E+00  0.1611E-07  0.1454E-11  0.6526E-04  0.0000E+00 -0.1417E+12
   -1.359988    4.01155  0.0000E+00  0.1618E-07  0.1527E-11  0.6293E-04  0.0000E+00 -0.1550E+12
   -1.402487    4.01193  0.0000E+00  0.1624E-07  0.1624E-11  0.6002E-04  0.0000E+00 -0.1685E+12
   -1.444985    4.01235  0.0000E+00  0.1628E-07  0.1741E-11  0.5669E-04  0.0000E+00 -0.1797E+12
   -1.487484    4.01279  0.0000E+00  0.1630E-07  0.1887E-11  0.5268E-04  0.0000E+00 -0.1974E+12
   -1.529982    4.01326  0.0000E+00  0.1629E-07  0.2113E-11  0.4754E-04  0.0000E+00 -0.2491E+12
   -1.572480    4.01384  0.0000E+00  0.1623E-07  0.2591E-11  0.4061E-04  0.0000E+00 -0.4229E+12
   -1.614977    4.01481  0.0000E+00  0.1576E-07  0.4657E-11  0.1617E-04  0.0000E+00 -0.1321E+13
   -1.657474    4.01763  0.0000E+00  0.1199E-07  0.1973E-10  0.1327E-05  0.0000E+00 -0.2408E+14
   -1.699971    4.05001  0.0000E+00  0.0000E+00  0.0000E+00  0.0000E+00  0.0000E+00  0.0000E+00
