 1 - depth, m
 2 - temperature, C
 3 - salinity, kg/kg
 4 - turbulent kinetic energy, m**2/s**2
 5 - dissipation rate, m**2/s**3
 6 - kinematic heat conductance, m**2/s
 7 - modulus of horizontal velocity, m/s
 8 - Richardson number, n/d
   -0.000000    0.00000  0.0000E+00  0.1207E-07  0.3325E-10  0.1388E-08  0.0000E+00  0.7521E+17
   -0.042498    1.37917  0.0000E+00  0.9087E-07  0.2550E-10  0.1885E-08  0.0000E+00  0.4262E+17
   -0.084996    2.75028  0.0000E+00  0.2376E-06  0.3334E-10  0.8742E-08  0.0000E+00  0.1208E+17
   -0.127495    4.05807  0.0000E+00  0.2390E-06  0.3347E-10  0.5397E-03  0.0000E+00 -0.4270E+12
   -0.169994    4.05843  0.0000E+00  0.2397E-06  0.3354E-10  0.5335E-03  0.0000E+00 -0.4004E+12
   -0.212493    4.05879  0.0000E+00  0.2403E-06  0.3362E-10  0.5352E-03  0.0000E+00 -0.3943E+12
   -0.254993    4.05914  0.0000E+00  0.2409E-06  0.3371E-10  0.5366E-03  0.0000E+00 -0.3897E+12
   -0.297493    4.05949  0.0000E+00  0.2415E-06  0.3381E-10  0.5377E-03  0.0000E+00 -0.3848E+12
   -0.339993    4.05982  0.0000E+00  0.2420E-06  0.3391E-10  0.5386E-03  0.0000E+00 -0.3808E+12
   -0.382493    4.06016  0.0000E+00  0.2425E-06  0.3403E-10  0.5390E-03  0.0000E+00 -0.3775E+12
   -0.424994    4.06048  0.0000E+00  0.2430E-06  0.3416E-10  0.5392E-03  0.0000E+00 -0.3738E+12
   -0.467495    4.06081  0.0000E+00  0.2434E-06  0.3430E-10  0.5389E-03  0.0000E+00 -0.3712E+12
   -0.509996    4.06113  0.0000E+00  0.2438E-06  0.3446E-10  0.5383E-03  0.0000E+00 -0.3678E+12
   -0.552497    4.06145  0.0000E+00  0.2441E-06  0.3463E-10  0.5373E-03  0.0000E+00 -0.3652E+12
   -0.594999    4.06176  0.0000E+00  0.2444E-06  0.3481E-10  0.5360E-03  0.0000E+00 -0.3637E+12
   -0.637500    4.06207  0.0000E+00  0.2446E-06  0.3501E-10  0.5341E-03  0.0000E+00 -0.3633E+12
   -0.680002    4.06238  0.0000E+00  0.2449E-06  0.3525E-10  0.5317E-03  0.0000E+00 -0.3632E+12
   -0.722504    4.06268  0.0000E+00  0.2451E-06  0.3551E-10  0.5288E-03  0.0000E+00 -0.3650E+12
   -0.765006    4.06299  0.0000E+00  0.2452E-06  0.3582E-10  0.5252E-03  0.0000E+00 -0.3675E+12
   -0.807508    4.06330  0.0000E+00  0.2454E-06  0.3617E-10  0.5208E-03  0.0000E+00 -0.3702E+12
   -0.850009    4.06360  0.0000E+00  0.2455E-06  0.3657E-10  0.5159E-03  0.0000E+00 -0.3738E+12
   -0.892511    4.06392  0.0000E+00  0.2456E-06  0.3703E-10  0.5102E-03  0.0000E+00 -0.3775E+12
   -0.935013    4.06423  0.0000E+00  0.2456E-06  0.3753E-10  0.5042E-03  0.0000E+00 -0.3801E+12
   -0.977515    4.06454  0.0000E+00  0.2456E-06  0.3809E-10  0.5212E-03  0.0000E+00 -0.3481E+12
   -1.020017    4.06484  0.0000E+00  0.2456E-06  0.3869E-10  0.4922E-03  0.0000E+00 -0.4072E+12
   -1.062518    4.06516  0.0000E+00  0.2455E-06  0.3936E-10  0.5079E-03  0.0000E+00 -0.3578E+12
   -1.105020    4.06547  0.0000E+00  0.2454E-06  0.4010E-10  0.4743E-03  0.0000E+00 -0.4187E+12
   -1.147521    4.06579  0.0000E+00  0.2453E-06  0.4091E-10  0.4911E-03  0.0000E+00 -0.3687E+12
   -1.190023    4.06610  0.0000E+00  0.2452E-06  0.4179E-10  0.4540E-03  0.0000E+00 -0.4340E+12
   -1.232524    4.06644  0.0000E+00  0.2450E-06  0.4283E-10  0.4425E-03  0.0000E+00 -0.4288E+12
   -1.275025    4.06678  0.0000E+00  0.2447E-06  0.4411E-10  0.4302E-03  0.0000E+00 -0.4411E+12
   -1.317526    4.06713  0.0000E+00  0.2444E-06  0.4569E-10  0.4153E-03  0.0000E+00 -0.4583E+12
   -1.360026    4.06750  0.0000E+00  0.2440E-06  0.4772E-10  0.3972E-03  0.0000E+00 -0.4823E+12
   -1.402526    4.06788  0.0000E+00  0.2436E-06  0.5035E-10  0.4125E-03  0.0000E+00 -0.4482E+12
   -1.445026    4.06825  0.0000E+00  0.2430E-06  0.5351E-10  0.3497E-03  0.0000E+00 -0.5641E+12
   -1.487526    4.06868  0.0000E+00  0.2424E-06  0.5747E-10  0.3297E-03  0.0000E+00 -0.5840E+12
   -1.530025    4.06913  0.0000E+00  0.2416E-06  0.6369E-10  0.2990E-03  0.0000E+00 -0.6473E+12
   -1.572524    4.06963  0.0000E+00  0.2400E-06  0.7697E-10  0.2560E-03  0.0000E+00 -0.7957E+12
   -1.615023    4.07024  0.0000E+00  0.2341E-06  0.1309E-09  0.1563E-03  0.0000E+00 -0.1364E+13
   -1.657521    4.07129  0.0000E+00  0.1667E-06  0.8621E-09  0.4248E-05  0.0000E+00 -0.6231E+14
   -1.700019    4.10967  0.0000E+00  0.0000E+00  0.0000E+00  0.0000E+00  0.0000E+00  0.0000E+00
