 1 - depth, m
 2 - temperature, C
 3 - salinity, kg/kg
 4 - turbulent kinetic energy, m**2/s**2
 5 - dissipation rate, m**2/s**3
 6 - kinematic heat conductance, m**2/s
 7 - modulus of horizontal velocity, m/s
 8 - Richardson number, n/d
   -0.000000    7.32944  0.0000E+00  0.3978E-03  0.4630E-03  0.6743E-04  0.2036E+00  0.7121E-02
   -0.042497    7.37142  0.0000E+00  0.2006E-03  0.1408E-03  0.1912E-03  0.4485E-01  0.1524E+00
   -0.084995    7.37952  0.0000E+00  0.1415E-03  0.6922E-04  0.1612E-03  0.2952E-01 -0.3313E-01
   -0.127493    7.38590  0.0000E+00  0.1054E-03  0.3496E-04  0.1399E-03  0.2367E-01 -0.3196E-01
   -0.169992    7.39096  0.0000E+00  0.7771E-04  0.1712E-04  0.1275E-03  0.1931E-01 -0.4987E-01
   -0.212491    7.39551  0.0000E+00  0.5724E-04  0.8503E-05  0.1199E-03  0.1566E-01 -0.4941E-01
   -0.254990    7.39994  0.0000E+00  0.4193E-04  0.4042E-05  0.1151E-03  0.1269E-01 -0.1126E+01
   -0.297489    7.40452  0.0000E+00  0.3149E-04  0.2061E-05  0.1123E-03  0.1031E-01 -0.1947E+01
   -0.339989    7.40899  0.0000E+00  0.2443E-04  0.1128E-05  0.1114E-03  0.8447E-02  0.1862E-02
   -0.382489    7.41316  0.0000E+00  0.1943E-04  0.6604E-06  0.1139E-03  0.6927E-02  0.2654E+00
   -0.424989    7.41692  0.0000E+00  0.1587E-04  0.4173E-06  0.1176E-03  0.5757E-02  0.5576E+01
   -0.467490    7.42041  0.0000E+00  0.1324E-04  0.2822E-06  0.1248E-03  0.4736E-02  0.1979E+02
   -0.509990    7.42356  0.0000E+00  0.1125E-04  0.1998E-06  0.1354E-03  0.3870E-02  0.1914E+02
   -0.552491    7.42639  0.0000E+00  0.9663E-05  0.1451E-06  0.1494E-03  0.3141E-02  0.4076E+03
   -0.594992    7.42894  0.0000E+00  0.8391E-05  0.1077E-06  0.1680E-03  0.2522E-02  0.8157E+01
   -0.637493    7.43117  0.0000E+00  0.7336E-05  0.8088E-07  0.1889E-03  0.2013E-02  0.8614E+01
   -0.679994    7.43314  0.0000E+00  0.6464E-05  0.6147E-07  0.2113E-03  0.1614E-02  0.9355E+01
   -0.722495    7.43487  0.0000E+00  0.5741E-05  0.4721E-07  0.2375E-03  0.1297E-02  0.4383E+02
   -0.764997    7.43640  0.0000E+00  0.5141E-05  0.3659E-07  0.2638E-03  0.1054E-02  0.1209E+03
   -0.807498    7.43776  0.0000E+00  0.4644E-05  0.2860E-07  0.2890E-03  0.8701E-03  0.5483E+02
   -0.849999    7.43898  0.0000E+00  0.4238E-05  0.2265E-07  0.3121E-03  0.7252E-03  0.9286E+02
   -0.892501    7.44010  0.0000E+00  0.3903E-05  0.1816E-07  0.3327E-03  0.6091E-03  0.1506E+02
   -0.935002    7.44114  0.0000E+00  0.3630E-05  0.1479E-07  0.3519E-03  0.5152E-03  0.1016E+02
   -0.977504    7.44211  0.0000E+00  0.3407E-05  0.1226E-07  0.3692E-03  0.4368E-03  0.1118E+02
   -1.020005    7.44303  0.0000E+00  0.3226E-05  0.1035E-07  0.3843E-03  0.3719E-03  0.1906E+02
   -1.062506    7.44389  0.0000E+00  0.3080E-05  0.8909E-08  0.3979E-03  0.3166E-03  0.5627E+03
   -1.105007    7.44472  0.0000E+00  0.2961E-05  0.7825E-08  0.4097E-03  0.2696E-03  0.2255E+02
   -1.147508    7.44551  0.0000E+00  0.2867E-05  0.7024E-08  0.4190E-03  0.2282E-03  0.1130E+02
   -1.190009    7.44628  0.0000E+00  0.2792E-05  0.6442E-08  0.4262E-03  0.1902E-03  0.5515E+02
   -1.232509    7.44703  0.0000E+00  0.2731E-05  0.6010E-08  0.4307E-03  0.1563E-03  0.2767E+02
   -1.275010    7.44776  0.0000E+00  0.2679E-05  0.5694E-08  0.4330E-03  0.1281E-03  0.1723E+02
   -1.317510    7.44849  0.0000E+00  0.2635E-05  0.5471E-08  0.4320E-03  0.1051E-03  0.3128E+02
   -1.360010    7.44921  0.0000E+00  0.2596E-05  0.5328E-08  0.4272E-03  0.8640E-04  0.3416E+02
   -1.402510    7.44993  0.0000E+00  0.2559E-05  0.5259E-08  0.4184E-03  0.7148E-04  0.5283E+02
   -1.445009    7.45068  0.0000E+00  0.2526E-05  0.5278E-08  0.4056E-03  0.5900E-04  0.8204E+02
   -1.487508    7.45144  0.0000E+00  0.2496E-05  0.5394E-08  0.3883E-03  0.4766E-04  0.1073E+03
   -1.530007    7.45225  0.0000E+00  0.2462E-05  0.5698E-08  0.3605E-03  0.3727E-04  0.1322E+03
   -1.572506    7.45313  0.0000E+00  0.2410E-05  0.6492E-08  0.3094E-03  0.2818E-04  0.2491E+03
   -1.615004    7.45415  0.0000E+00  0.2270E-05  0.9400E-08  0.2321E-03  0.2199E-04  0.8015E+03
   -1.657502    7.45571  0.0000E+00  0.1549E-05  0.3111E-07  0.1525E-04  0.1685E-04 -0.6338E+06
   -1.699999    7.47856  0.0000E+00  0.0000E+00  0.0000E+00  0.0000E+00  0.1744E-04  0.0000E+00
