 1 - depth, m
 2 - temperature, C
 3 - salinity, kg/kg
 4 - turbulent kinetic energy, m**2/s**2
 5 - dissipation rate, m**2/s**3
 6 - kinematic heat conductance, m**2/s
 7 - modulus of horizontal velocity, m/s
 8 - Richardson number, n/d
   -0.000000   10.80206  0.0000E+00  0.1362E-03  0.5432E-04  0.6889E-04  0.1075E+00  0.6172E-03
   -0.042498   10.84192  0.0000E+00  0.7397E-04  0.1696E-04  0.8904E-04  0.2918E-01 -0.3515E-01
   -0.084996   10.84833  0.0000E+00  0.5139E-04  0.7554E-05  0.7927E-04  0.1995E-01 -0.2972E+00
   -0.127494   10.85384  0.0000E+00  0.3678E-04  0.3469E-05  0.7603E-04  0.1519E-01 -0.3744E-01
   -0.169993   10.85863  0.0000E+00  0.2662E-04  0.1666E-05  0.7556E-04  0.1177E-01  0.8941E-01
   -0.212492   10.86317  0.0000E+00  0.1935E-04  0.8327E-06  0.7635E-04  0.9056E-02  0.2104E+01
   -0.254992   10.86760  0.0000E+00  0.1419E-04  0.4378E-06  0.7867E-04  0.6952E-02  0.2682E+01
   -0.297492   10.87184  0.0000E+00  0.1066E-04  0.2438E-06  0.8285E-04  0.5391E-02  0.1163E+02
   -0.339992   10.87575  0.0000E+00  0.8300E-05  0.1434E-06  0.9020E-04  0.4223E-02  0.3649E+01
   -0.382492   10.87924  0.0000E+00  0.6697E-05  0.8805E-07  0.1055E-03  0.3308E-02  0.6125E+02
   -0.424993   10.88224  0.0000E+00  0.5624E-05  0.5683E-07  0.1306E-03  0.2616E-02  0.5309E+02
   -0.467493   10.88473  0.0000E+00  0.4894E-05  0.3864E-07  0.1703E-03  0.2061E-02  0.1143E+03
   -0.509994   10.88670  0.0000E+00  0.4394E-05  0.2774E-07  0.2145E-03  0.1624E-02  0.1674E+02
   -0.552496   10.88826  0.0000E+00  0.4048E-05  0.2098E-07  0.2563E-03  0.1285E-02  0.5093E+03
   -0.594997   10.88951  0.0000E+00  0.3804E-05  0.1662E-07  0.2911E-03  0.1014E-02  0.4673E+02
   -0.637498   10.89057  0.0000E+00  0.3627E-05  0.1366E-07  0.3252E-03  0.7976E-03  0.5380E+01
   -0.680000   10.89148  0.0000E+00  0.3501E-05  0.1162E-07  0.3557E-03  0.6326E-03  0.8483E+01
   -0.722501   10.89228  0.0000E+00  0.3412E-05  0.1016E-07  0.3824E-03  0.5064E-03  0.1903E+02
   -0.765003   10.89300  0.0000E+00  0.3349E-05  0.9098E-08  0.4078E-03  0.4124E-03  0.1861E+02
   -0.807505   10.89366  0.0000E+00  0.3306E-05  0.8307E-08  0.4311E-03  0.3445E-03  0.1370E+01
   -0.850006   10.89427  0.0000E+00  0.3277E-05  0.7712E-08  0.4516E-03  0.2933E-03  0.1387E+01
   -0.892508   10.89485  0.0000E+00  0.3258E-05  0.7245E-08  0.4709E-03  0.2534E-03  0.1505E+01
   -0.935010   10.89540  0.0000E+00  0.3245E-05  0.6874E-08  0.4889E-03  0.2214E-03  0.1705E+01
   -0.977512   10.89593  0.0000E+00  0.3237E-05  0.6575E-08  0.5055E-03  0.1946E-03  0.1945E+01
   -1.020013   10.89644  0.0000E+00  0.3232E-05  0.6332E-08  0.5205E-03  0.1718E-03  0.2273E+01
   -1.062515   10.89694  0.0000E+00  0.3228E-05  0.6137E-08  0.5337E-03  0.1519E-03  0.2554E+01
   -1.105016   10.89742  0.0000E+00  0.3225E-05  0.5981E-08  0.5448E-03  0.1343E-03  0.2888E+01
   -1.147517   10.89789  0.0000E+00  0.3223E-05  0.5865E-08  0.5534E-03  0.1181E-03  0.3238E+01
   -1.190019   10.89836  0.0000E+00  0.3219E-05  0.5784E-08  0.5590E-03  0.1030E-03  0.3598E+01
   -1.232520   10.89882  0.0000E+00  0.3215E-05  0.5732E-08  0.5617E-03  0.8902E-04  0.4076E+01
   -1.275020   10.89927  0.0000E+00  0.3210E-05  0.5710E-08  0.5615E-03  0.7659E-04  0.5159E+01
   -1.317521   10.89973  0.0000E+00  0.3203E-05  0.5721E-08  0.5575E-03  0.6564E-04  0.6690E+01
   -1.360021   10.90020  0.0000E+00  0.3193E-05  0.5773E-08  0.5489E-03  0.5605E-04  0.8844E+01
   -1.402521   10.90066  0.0000E+00  0.3179E-05  0.5879E-08  0.5349E-03  0.4782E-04  0.1255E+02
   -1.445021   10.90115  0.0000E+00  0.3163E-05  0.6044E-08  0.5162E-03  0.4046E-04  0.1814E+02
   -1.487521   10.90165  0.0000E+00  0.3144E-05  0.6290E-08  0.4914E-03  0.3352E-04  0.2197E+02
   -1.530020   10.90218  0.0000E+00  0.3119E-05  0.6716E-08  0.4559E-03  0.2697E-04  0.2583E+02
   -1.572519   10.90275  0.0000E+00  0.3071E-05  0.7692E-08  0.3807E-03  0.2126E-04  0.4753E+02
   -1.615017   10.90344  0.0000E+00  0.2935E-05  0.1097E-07  0.2941E-03  0.1697E-04  0.2337E+03
   -1.657515   10.90436  0.0000E+00  0.2022E-05  0.4083E-07  0.1630E-04  0.1383E-04 -0.5472E+05
   -1.700013   10.92126  0.0000E+00  0.0000E+00  0.0000E+00  0.0000E+00  0.1383E-04  0.0000E+00
