 1 - depth, m
 2 - temperature, C
 3 - salinity, kg/kg
 4 - turbulent kinetic energy, m**2/s**2
 5 - dissipation rate, m**2/s**3
 6 - kinematic heat conductance, m**2/s
 7 - modulus of horizontal velocity, m/s
 8 - Richardson number, n/d
   -0.000000    0.00000  0.0000E+00  0.4817E-09  0.5877E-12  0.1000E-09  0.0000E+00  0.3342E+17
   -0.042497    0.54018  0.0000E+00  0.1918E-08  0.4717E-12  0.1000E-09  0.0000E+00  0.2802E+17
   -0.084995    1.07440  0.0000E+00  0.4558E-08  0.6108E-12  0.1036E-09  0.0000E+00  0.2285E+17
   -0.127492    1.60215  0.0000E+00  0.8771E-08  0.9358E-12  0.1687E-09  0.0000E+00  0.1781E+17
   -0.169991    2.11888  0.0000E+00  0.1538E-07  0.1492E-11  0.3573E-09  0.0000E+00  0.1314E+17
   -0.212489    2.62535  0.0000E+00  0.2581E-07  0.2387E-11  0.8534E-09  0.0000E+00  0.8798E+16
   -0.254988    3.12102  0.0000E+00  0.4233E-07  0.3799E-11  0.2541E-08  0.0000E+00  0.4740E+16
   -0.297487    3.59974  0.0000E+00  0.6798E-07  0.5967E-11  0.1757E-07  0.0000E+00  0.1171E+16
   -0.339987    4.01849  0.0000E+00  0.6846E-07  0.6010E-11  0.2545E-03  0.0000E+00 -0.1188E+12
   -0.382486    4.01880  0.0000E+00  0.6869E-07  0.6034E-11  0.2524E-03  0.0000E+00 -0.1181E+12
   -0.424986    4.01908  0.0000E+00  0.6891E-07  0.6060E-11  0.2536E-03  0.0000E+00 -0.1171E+12
   -0.467486    4.01935  0.0000E+00  0.6912E-07  0.6087E-11  0.2548E-03  0.0000E+00 -0.1154E+12
   -0.509987    4.01961  0.0000E+00  0.6931E-07  0.6117E-11  0.2555E-03  0.0000E+00 -0.1148E+12
   -0.552487    4.01986  0.0000E+00  0.6948E-07  0.6150E-11  0.2562E-03  0.0000E+00 -0.1138E+12
   -0.594988    4.02010  0.0000E+00  0.6965E-07  0.6185E-11  0.2566E-03  0.0000E+00 -0.1140E+12
   -0.637489    4.02034  0.0000E+00  0.6980E-07  0.6225E-11  0.2566E-03  0.0000E+00 -0.1147E+12
   -0.679990    4.02058  0.0000E+00  0.6995E-07  0.6269E-11  0.2561E-03  0.0000E+00 -0.1164E+12
   -0.722491    4.02082  0.0000E+00  0.7010E-07  0.6319E-11  0.2551E-03  0.0000E+00 -0.1186E+12
   -0.764992    4.02106  0.0000E+00  0.7024E-07  0.6377E-11  0.2536E-03  0.0000E+00 -0.1223E+12
   -0.807493    4.02131  0.0000E+00  0.7037E-07  0.6442E-11  0.2520E-03  0.0000E+00 -0.1249E+12
   -0.849994    4.02155  0.0000E+00  0.7050E-07  0.6516E-11  0.2501E-03  0.0000E+00 -0.1282E+12
   -0.892495    4.02181  0.0000E+00  0.7061E-07  0.6599E-11  0.2479E-03  0.0000E+00 -0.1305E+12
   -0.934996    4.02207  0.0000E+00  0.7071E-07  0.6690E-11  0.2454E-03  0.0000E+00 -0.1325E+12
   -0.977497    4.02232  0.0000E+00  0.7080E-07  0.6791E-11  0.2427E-03  0.0000E+00 -0.1342E+12
   -1.019998    4.02258  0.0000E+00  0.7088E-07  0.6902E-11  0.2395E-03  0.0000E+00 -0.1362E+12
   -1.062499    4.02284  0.0000E+00  0.7093E-07  0.7025E-11  0.2362E-03  0.0000E+00 -0.1378E+12
   -1.105000    4.02311  0.0000E+00  0.7098E-07  0.7160E-11  0.2324E-03  0.0000E+00 -0.1395E+12
   -1.147500    4.02337  0.0000E+00  0.7100E-07  0.7305E-11  0.2286E-03  0.0000E+00 -0.1401E+12
   -1.190001    4.02363  0.0000E+00  0.7101E-07  0.7463E-11  0.2243E-03  0.0000E+00 -0.1424E+12
   -1.232501    4.02389  0.0000E+00  0.7101E-07  0.7646E-11  0.2194E-03  0.0000E+00 -0.1471E+12
   -1.275002    4.02416  0.0000E+00  0.7099E-07  0.7864E-11  0.2136E-03  0.0000E+00 -0.1535E+12
   -1.317501    4.02444  0.0000E+00  0.7095E-07  0.8133E-11  0.2070E-03  0.0000E+00 -0.1599E+12
   -1.360001    4.02473  0.0000E+00  0.7089E-07  0.8474E-11  0.1989E-03  0.0000E+00 -0.1696E+12
   -1.402501    4.02503  0.0000E+00  0.7079E-07  0.8927E-11  0.1895E-03  0.0000E+00 -0.1793E+12
   -1.445000    4.02535  0.0000E+00  0.7067E-07  0.9474E-11  0.1795E-03  0.0000E+00 -0.1883E+12
   -1.487499    4.02568  0.0000E+00  0.7052E-07  0.1015E-10  0.1681E-03  0.0000E+00 -0.1996E+12
   -1.529997    4.02602  0.0000E+00  0.7031E-07  0.1119E-10  0.1526E-03  0.0000E+00 -0.2297E+12
   -1.572495    4.02642  0.0000E+00  0.6989E-07  0.1338E-10  0.1328E-03  0.0000E+00 -0.3099E+12
   -1.614993    4.02695  0.0000E+00  0.6808E-07  0.2306E-10  0.5081E-04  0.0000E+00 -0.9430E+12
   -1.657491    4.02859  0.0000E+00  0.4849E-07  0.1438E-09  0.2327E-05  0.0000E+00 -0.2882E+14
   -1.699988    4.06082  0.0000E+00  0.0000E+00  0.0000E+00  0.0000E+00  0.0000E+00  0.0000E+00
