 1 - depth, m
 2 - temperature, C
 3 - salinity, kg/kg
 4 - turbulent kinetic energy, m**2/s**2
 5 - dissipation rate, m**2/s**3
 6 - kinematic heat conductance, m**2/s
 7 - modulus of horizontal velocity, m/s
 8 - Richardson number, n/d
   -0.000000    0.00000  0.0000E+00  0.7072E-11  0.2896E-14  0.1000E-09  0.0000E+00  0.1931E+17
   -0.042497    0.30179  0.0000E+00  0.1412E-10  0.2453E-14  0.1000E-09  0.0000E+00  0.1811E+17
   -0.084995    0.61104  0.0000E+00  0.2737E-10  0.2938E-14  0.1000E-09  0.0000E+00  0.1667E+17
   -0.127493    0.92483  0.0000E+00  0.4819E-10  0.4135E-14  0.1000E-09  0.0000E+00  0.1459E+17
   -0.169992    1.23023  0.0000E+00  0.7970E-10  0.6154E-14  0.1000E-09  0.0000E+00  0.1260E+17
   -0.212490    1.52587  0.0000E+00  0.1272E-09  0.9296E-14  0.1000E-09  0.0000E+00  0.1073E+17
   -0.254989    1.81054  0.0000E+00  0.1991E-09  0.1408E-13  0.1000E-09  0.0000E+00  0.8997E+16
   -0.297489    2.08308  0.0000E+00  0.3082E-09  0.2127E-13  0.1000E-09  0.0000E+00  0.7420E+16
   -0.339989    2.34268  0.0000E+00  0.4701E-09  0.3184E-13  0.1000E-09  0.0000E+00  0.6011E+16
   -0.382489    2.58898  0.0000E+00  0.7109E-09  0.4732E-13  0.1000E-09  0.0000E+00  0.4761E+16
   -0.424989    2.82143  0.0000E+00  0.1066E-08  0.6980E-13  0.1000E-09  0.0000E+00  0.3683E+16
   -0.467489    3.04047  0.0000E+00  0.1586E-08  0.1022E-12  0.1329E-09  0.0000E+00  0.2748E+16
   -0.509990    3.24571  0.0000E+00  0.2349E-08  0.1491E-12  0.2375E-09  0.0000E+00  0.1994E+16
   -0.552490    3.44183  0.0000E+00  0.3469E-08  0.2168E-12  0.5191E-09  0.0000E+00  0.1329E+16
   -0.594991    3.62863  0.0000E+00  0.5105E-08  0.3144E-12  0.1358E-08  0.0000E+00  0.7421E+15
   -0.637492    3.80413  0.0000E+00  0.7531E-08  0.4570E-12  0.6630E-08  0.0000E+00  0.2476E+15
   -0.679993    3.96096  0.0000E+00  0.8528E-08  0.5167E-12  0.3116E-04  0.0000E+00  0.1843E+14
   -0.722495    3.99463  0.0000E+00  0.8730E-08  0.5301E-12  0.4897E-04  0.0000E+00 -0.5302E+11
   -0.764996    3.99511  0.0000E+00  0.8881E-08  0.5416E-12  0.5031E-04  0.0000E+00 -0.5625E+11
   -0.807497    3.99557  0.0000E+00  0.9034E-08  0.5546E-12  0.5170E-04  0.0000E+00 -0.5849E+11
   -0.849999    3.99600  0.0000E+00  0.9185E-08  0.5688E-12  0.5283E-04  0.0000E+00 -0.6056E+11
   -0.892500    3.99642  0.0000E+00  0.9335E-08  0.5845E-12  0.5381E-04  0.0000E+00 -0.6303E+11
   -0.935001    3.99683  0.0000E+00  0.9481E-08  0.6014E-12  0.5459E-04  0.0000E+00 -0.6569E+11
   -0.977503    3.99724  0.0000E+00  0.9622E-08  0.6196E-12  0.5513E-04  0.0000E+00 -0.6868E+11
   -1.020004    3.99765  0.0000E+00  0.9758E-08  0.6392E-12  0.5532E-04  0.0000E+00 -0.7165E+11
   -1.062505    3.99805  0.0000E+00  0.9886E-08  0.6602E-12  0.5525E-04  0.0000E+00 -0.7500E+11
   -1.105006    3.99846  0.0000E+00  0.1001E-07  0.6829E-12  0.5492E-04  0.0000E+00 -0.7821E+11
   -1.147507    3.99888  0.0000E+00  0.1012E-07  0.7069E-12  0.5440E-04  0.0000E+00 -0.8129E+11
   -1.190008    3.99929  0.0000E+00  0.1022E-07  0.7325E-12  0.5369E-04  0.0000E+00 -0.8536E+11
   -1.232508    3.99971  0.0000E+00  0.1031E-07  0.7617E-12  0.5286E-04  0.0000E+00 -0.9224E+11
   -1.275009    4.00015  0.0000E+00  0.1040E-07  0.7959E-12  0.5174E-04  0.0000E+00 -0.1006E+12
   -1.317509    4.00061  0.0000E+00  0.1049E-07  0.8371E-12  0.5026E-04  0.0000E+00 -0.1102E+12
   -1.360009    4.00110  0.0000E+00  0.1057E-07  0.8889E-12  0.4835E-04  0.0000E+00 -0.1235E+12
   -1.402508    4.00163  0.0000E+00  0.1065E-07  0.9567E-12  0.4586E-04  0.0000E+00 -0.1383E+12
   -1.445008    4.00220  0.0000E+00  0.1071E-07  0.1039E-11  0.4294E-04  0.0000E+00 -0.1530E+12
   -1.487507    4.00280  0.0000E+00  0.1075E-07  0.1144E-11  0.3926E-04  0.0000E+00 -0.1762E+12
   -1.530006    4.00348  0.0000E+00  0.1079E-07  0.1313E-11  0.3450E-04  0.0000E+00 -0.2360E+12
   -1.572504    4.00434  0.0000E+00  0.1078E-07  0.1682E-11  0.2851E-04  0.0000E+00 -0.4308E+12
   -1.615002    4.00582  0.0000E+00  0.1046E-07  0.3298E-11  0.1020E-04  0.0000E+00 -0.1641E+13
   -1.657500    4.01062  0.0000E+00  0.8081E-08  0.1322E-10  0.1015E-05  0.0000E+00 -0.2949E+14
   -1.699997    4.05224  0.0000E+00  0.0000E+00  0.0000E+00  0.0000E+00  0.0000E+00  0.0000E+00
