 1 - depth, m
 2 - temperature, C
 3 - salinity, kg/kg
 4 - turbulent kinetic energy, m**2/s**2
 5 - dissipation rate, m**2/s**3
 6 - kinematic heat conductance, m**2/s
 7 - modulus of horizontal velocity, m/s
 8 - Richardson number, n/d
   -0.000000    5.20440  0.0000E+00  0.7599E-03  0.2036E-02  0.8985E-04  0.3477E+00  0.1784E-04
   -0.042498    5.21537  0.0000E+00  0.3674E-03  0.7080E-03  0.2706E-03  0.7669E-01 -0.3042E-03
   -0.084995    5.21834  0.0000E+00  0.2460E-03  0.2929E-03  0.2219E-03  0.4492E-01 -0.5191E-03
   -0.127494    5.21981  0.0000E+00  0.1809E-03  0.1578E-03  0.1862E-03  0.3535E-01 -0.7292E-03
   -0.169992    5.22088  0.0000E+00  0.1372E-03  0.8370E-04  0.1665E-03  0.2911E-01 -0.6407E-03
   -0.212491    5.22177  0.0000E+00  0.1032E-03  0.4262E-04  0.1552E-03  0.2385E-01 -0.2354E-02
   -0.254991    5.22270  0.0000E+00  0.7851E-04  0.2313E-04  0.1490E-03  0.1951E-01 -0.1860E+00
   -0.297490    5.22362  0.0000E+00  0.6099E-04  0.1318E-04  0.1453E-03  0.1641E-01 -0.8692E+00
   -0.339990    5.22458  0.0000E+00  0.4832E-04  0.7526E-05  0.1425E-03  0.1410E-01 -0.1393E+00
   -0.382491    5.22550  0.0000E+00  0.3893E-04  0.4212E-05  0.1422E-03  0.1194E-01 -0.4547E+00
   -0.424991    5.22635  0.0000E+00  0.3207E-04  0.2305E-05  0.1412E-03  0.1030E-01 -0.3479E+00
   -0.467492    5.22719  0.0000E+00  0.2700E-04  0.1279E-05  0.1410E-03  0.8700E-02  0.9915E+00
   -0.509992    5.22799  0.0000E+00  0.2312E-04  0.7566E-06  0.1415E-03  0.7291E-02  0.2595E+04
   -0.552493    5.22873  0.0000E+00  0.2007E-04  0.4924E-06  0.1416E-03  0.6092E-02  0.2247E+03
   -0.594994    5.22940  0.0000E+00  0.1752E-04  0.3486E-06  0.1426E-03  0.5043E-02  0.1721E+03
   -0.637496    5.23001  0.0000E+00  0.1532E-04  0.2591E-06  0.1451E-03  0.4155E-02  0.2872E+03
   -0.679997    5.23056  0.0000E+00  0.1340E-04  0.1984E-06  0.1470E-03  0.3440E-02  0.7380E+02
   -0.722499    5.23107  0.0000E+00  0.1174E-04  0.1544E-06  0.1493E-03  0.2852E-02  0.4595E+05
   -0.765000    5.23155  0.0000E+00  0.1028E-04  0.1211E-06  0.1517E-03  0.2384E-02  0.3170E+04
   -0.807502    5.23200  0.0000E+00  0.9008E-05  0.9533E-07  0.1533E-03  0.2019E-02  0.2413E+05
   -0.850003    5.23244  0.0000E+00  0.7915E-05  0.7547E-07  0.1546E-03  0.1721E-02  0.2305E+07
   -0.892505    5.23287  0.0000E+00  0.6966E-05  0.5989E-07  0.1564E-03  0.1473E-02  0.1633E+05
   -0.935006    5.23329  0.0000E+00  0.6151E-05  0.4774E-07  0.1579E-03  0.1266E-02  0.3696E+04
   -0.977508    5.23371  0.0000E+00  0.5451E-05  0.3820E-07  0.1595E-03  0.1086E-02  0.3363E+05
   -1.020009    5.23412  0.0000E+00  0.4850E-05  0.3070E-07  0.1609E-03  0.9328E-03  0.2774E+04
   -1.062511    5.23453  0.0000E+00  0.4336E-05  0.2480E-07  0.1624E-03  0.7972E-03  0.4805E+04
   -1.105012    5.23494  0.0000E+00  0.3897E-05  0.2016E-07  0.1637E-03  0.6786E-03  0.5974E+04
   -1.147513    5.23535  0.0000E+00  0.3531E-05  0.1658E-07  0.1650E-03  0.5700E-03  0.1026E+05
   -1.190014    5.23576  0.0000E+00  0.3228E-05  0.1385E-07  0.1665E-03  0.4674E-03  0.1176E+05
   -1.232515    5.23616  0.0000E+00  0.2970E-05  0.1171E-07  0.1685E-03  0.3739E-03  0.2372E+05
   -1.275015    5.23658  0.0000E+00  0.2747E-05  0.1000E-07  0.1700E-03  0.2966E-03  0.2743E+06
   -1.317516    5.23700  0.0000E+00  0.2554E-05  0.8646E-08  0.1703E-03  0.2335E-03  0.5473E+05
   -1.360016    5.23742  0.0000E+00  0.2384E-05  0.7562E-08  0.1694E-03  0.1831E-03  0.8738E+05
   -1.402516    5.23784  0.0000E+00  0.2229E-05  0.6677E-08  0.1669E-03  0.1443E-03  0.2223E+06
   -1.445016    5.23828  0.0000E+00  0.2103E-05  0.6053E-08  0.1629E-03  0.1129E-03  0.4854E+06
   -1.487515    5.23874  0.0000E+00  0.2004E-05  0.5684E-08  0.1568E-03  0.8523E-04  0.8461E+06
   -1.530014    5.23922  0.0000E+00  0.1922E-05  0.5570E-08  0.1470E-03  0.6125E-04  0.1116E+07
   -1.572513    5.23976  0.0000E+00  0.1832E-05  0.5881E-08  0.1285E-03  0.4268E-04  0.3237E+07
   -1.615011    5.24053  0.0000E+00  0.1643E-05  0.7758E-08  0.8210E-04  0.3108E-04  0.8904E+07
   -1.657509    5.24200  0.0000E+00  0.1002E-05  0.2157E-07  0.8730E-05  0.2197E-04 -0.1455E+12
   -1.700006    5.25967  0.0000E+00  0.0000E+00  0.0000E+00  0.0000E+00  0.2282E-04  0.0000E+00
