 1 - depth, m
 2 - temperature, C
 3 - salinity, kg/kg
 4 - turbulent kinetic energy, m**2/s**2
 5 - dissipation rate, m**2/s**3
 6 - kinematic heat conductance, m**2/s
 7 - modulus of horizontal velocity, m/s
 8 - Richardson number, n/d
   -0.000000    0.00000  0.0000E+00  0.3188E-13  0.5206E-16  0.1000E-09  0.0000E+00  0.2994E+17
   -0.042499    0.48055  0.0000E+00  0.3188E-13  0.5206E-16  0.1000E-09  0.0000E+00  0.2061E+17
   -0.084998    0.85761  0.0000E+00  0.3188E-13  0.5206E-16  0.1000E-09  0.0000E+00  0.1426E+17
   -0.127497    1.14975  0.0000E+00  0.3188E-13  0.5206E-16  0.1000E-09  0.0000E+00  0.1060E+17
   -0.169997    1.38926  0.0000E+00  0.3188E-13  0.5206E-16  0.1000E-09  0.0000E+00  0.7911E+16
   -0.212497    1.58439  0.0000E+00  0.3199E-13  0.5206E-16  0.1000E-09  0.0000E+00  0.5600E+16
   -0.254998    1.73307  0.0000E+00  0.3884E-13  0.5327E-16  0.1000E-09  0.0000E+00  0.3547E+16
   -0.297498    1.83252  0.0000E+00  0.6871E-13  0.6273E-16  0.1000E-09  0.0000E+00  0.2206E+16
   -0.339999    1.89656  0.0000E+00  0.1647E-12  0.9731E-16  0.1000E-09  0.0000E+00  0.1727E+16
   -0.382501    1.94800  0.0000E+00  0.4528E-12  0.2036E-15  0.1000E-09  0.0000E+00  0.1326E+16
   -0.425002    1.98824  0.0000E+00  0.1288E-11  0.5083E-15  0.1000E-09  0.0000E+00  0.1700E+16
   -0.467504    2.04139  0.0000E+00  0.3670E-11  0.1357E-14  0.1000E-09  0.0000E+00  0.2135E+16
   -0.510006    2.11055  0.0000E+00  0.1038E-10  0.3686E-14  0.1000E-09  0.0000E+00  0.2607E+16
   -0.552508    2.19903  0.0000E+00  0.2903E-10  0.9986E-14  0.1010E-09  0.0000E+00  0.3116E+16
   -0.595010    2.31138  0.0000E+00  0.8009E-10  0.2676E-13  0.1110E-09  0.0000E+00  0.3332E+16
   -0.637512    2.44101  0.0000E+00  0.2203E-09  0.7156E-13  0.1598E-09  0.0000E+00  0.3012E+16
   -0.680015    2.56865  0.0000E+00  0.5978E-09  0.1890E-12  0.3282E-09  0.0000E+00  0.2687E+16
   -0.722517    2.69339  0.0000E+00  0.1600E-08  0.4925E-12  0.9428E-09  0.0000E+00  0.2105E+16
   -0.765020    2.80042  0.0000E+00  0.4193E-08  0.1259E-11  0.2952E-08  0.0000E+00  0.1436E+16
   -0.807523    2.88044  0.0000E+00  0.1066E-07  0.3126E-11  0.6183E-08  0.0000E+00  0.1213E+16
   -0.850025    2.96101  0.0000E+00  0.2534E-07  0.7309E-11  0.1919E-07  0.0000E+00  0.1082E+16
   -0.892528    3.06777  0.0000E+00  0.4143E-07  0.1202E-10  0.1673E-04  0.0000E+00  0.1012E+16
   -0.935031    3.17718  0.0000E+00  0.5829E-07  0.1710E-10  0.3481E-04  0.0000E+00  0.1185E+16
   -0.977533    3.30523  0.0000E+00  0.7545E-07  0.2241E-10  0.5388E-04  0.0000E+00  0.1227E+16
   -1.020036    3.44253  0.0000E+00  0.9235E-07  0.2778E-10  0.7279E-04  0.0000E+00  0.1283E+16
   -1.062538    3.59123  0.0000E+00  0.1084E-06  0.3300E-10  0.9134E-04  0.0000E+00  0.1204E+16
   -1.105041    3.74276  0.0000E+00  0.1230E-06  0.3786E-10  0.1087E-03  0.0000E+00  0.1017E+16
   -1.147543    3.89121  0.0000E+00  0.1350E-06  0.4198E-10  0.1250E-03  0.0000E+00  0.6348E+15
   -1.190045    4.01913  0.0000E+00  0.1425E-06  0.4477E-10  0.1394E-03  0.0000E+00  0.1481E+15
   -1.232547    4.08847  0.0000E+00  0.1446E-06  0.4601E-10  0.1505E-03  0.0000E+00 -0.2112E+13
   -1.275049    4.08980  0.0000E+00  0.1461E-06  0.4733E-10  0.1487E-03  0.0000E+00 -0.2257E+13
   -1.317550    4.09121  0.0000E+00  0.1474E-06  0.4891E-10  0.1467E-03  0.0000E+00 -0.2323E+13
   -1.360052    4.09263  0.0000E+00  0.1486E-06  0.5086E-10  0.1434E-03  0.0000E+00 -0.2424E+13
   -1.402553    4.09409  0.0000E+00  0.1495E-06  0.5340E-10  0.1389E-03  0.0000E+00 -0.2541E+13
   -1.445053    4.09560  0.0000E+00  0.1501E-06  0.5642E-10  0.1334E-03  0.0000E+00 -0.2695E+13
   -1.487554    4.09718  0.0000E+00  0.1504E-06  0.6014E-10  0.1265E-03  0.0000E+00 -0.2904E+13
   -1.530054    4.09885  0.0000E+00  0.1501E-06  0.6579E-10  0.1164E-03  0.0000E+00 -0.3280E+13
   -1.572554    4.10070  0.0000E+00  0.1490E-06  0.7777E-10  0.9961E-04  0.0000E+00 -0.4224E+13
   -1.615053    4.10304  0.0000E+00  0.1439E-06  0.1222E-09  0.6195E-04  0.0000E+00 -0.7483E+13
   -1.657552    4.10714  0.0000E+00  0.1053E-06  0.4986E-09  0.3828E-05  0.0000E+00 -0.1568E+15
   -1.700051    4.17261  0.0000E+00  0.0000E+00  0.0000E+00  0.0000E+00  0.0000E+00  0.0000E+00
