 1 - depth, m
 2 - temperature, C
 3 - salinity, kg/kg
 4 - turbulent kinetic energy, m**2/s**2
 5 - dissipation rate, m**2/s**3
 6 - kinematic heat conductance, m**2/s
 7 - modulus of horizontal velocity, m/s
 8 - Richardson number, n/d
   -0.000000    0.00000  0.0000E+00  0.3189E-13  0.5206E-16  0.1000E-09  0.0000E+00  0.6275E+16
   -0.042497    0.09535  0.0000E+00  0.3189E-13  0.5206E-16  0.1000E-09  0.0000E+00  0.6345E+16
   -0.084995    0.19437  0.0000E+00  0.3189E-13  0.5206E-16  0.1000E-09  0.0000E+00  0.6382E+16
   -0.127493    0.29683  0.0000E+00  0.3189E-13  0.5206E-16  0.1000E-09  0.0000E+00  0.6229E+16
   -0.169992    0.39983  0.0000E+00  0.3189E-13  0.5206E-16  0.1000E-09  0.0000E+00  0.6070E+16
   -0.212491    0.50332  0.0000E+00  0.3189E-13  0.5206E-16  0.1000E-09  0.0000E+00  0.5916E+16
   -0.254990    0.60741  0.0000E+00  0.3189E-13  0.5206E-16  0.1000E-09  0.0000E+00  0.5760E+16
   -0.297490    0.71212  0.0000E+00  0.3189E-13  0.5206E-16  0.1000E-09  0.0000E+00  0.5581E+16
   -0.339989    0.81707  0.0000E+00  0.3189E-13  0.5206E-16  0.1000E-09  0.0000E+00  0.5374E+16
   -0.382489    0.92170  0.0000E+00  0.3189E-13  0.5206E-16  0.1000E-09  0.0000E+00  0.5162E+16
   -0.424990    1.02587  0.0000E+00  0.3189E-13  0.5206E-16  0.1000E-09  0.0000E+00  0.4925E+16
   -0.467490    1.12899  0.0000E+00  0.3189E-13  0.5206E-16  0.1000E-09  0.0000E+00  0.4690E+16
   -0.509991    1.23094  0.0000E+00  0.3189E-13  0.5206E-16  0.1000E-09  0.0000E+00  0.4470E+16
   -0.552492    1.33191  0.0000E+00  0.3189E-13  0.5206E-16  0.1000E-09  0.0000E+00  0.4254E+16
   -0.594993    1.43189  0.0000E+00  0.3189E-13  0.5206E-16  0.1000E-09  0.0000E+00  0.4055E+16
   -0.637494    1.53116  0.0000E+00  0.3189E-13  0.5206E-16  0.1000E-09  0.0000E+00  0.3884E+16
   -0.679995    1.63030  0.0000E+00  0.3189E-13  0.5206E-16  0.1000E-09  0.0000E+00  0.3713E+16
   -0.722496    1.72932  0.0000E+00  0.3189E-13  0.5206E-16  0.1000E-09  0.0000E+00  0.3556E+16
   -0.764998    1.82858  0.0000E+00  0.3189E-13  0.5206E-16  0.1000E-09  0.0000E+00  0.3403E+16
   -0.807499    1.92820  0.0000E+00  0.3189E-13  0.5206E-16  0.1000E-09  0.0000E+00  0.3221E+16
   -0.850001    2.02732  0.0000E+00  0.3189E-13  0.5206E-16  0.1000E-09  0.0000E+00  0.3026E+16
   -0.892502    2.12540  0.0000E+00  0.3189E-13  0.5206E-16  0.1000E-09  0.0000E+00  0.2852E+16
   -0.935004    2.22301  0.0000E+00  0.3189E-13  0.5206E-16  0.1000E-09  0.0000E+00  0.2675E+16
   -0.977505    2.31990  0.0000E+00  0.3189E-13  0.5206E-16  0.1000E-09  0.0000E+00  0.2501E+16
   -1.020006    2.41602  0.0000E+00  0.3189E-13  0.5206E-16  0.1000E-09  0.0000E+00  0.2306E+16
   -1.062507    2.51035  0.0000E+00  0.3189E-13  0.5206E-16  0.1000E-09  0.0000E+00  0.2116E+16
   -1.105009    2.60268  0.0000E+00  0.3189E-13  0.5206E-16  0.1000E-09  0.0000E+00  0.1912E+16
   -1.147510    2.69191  0.0000E+00  0.3189E-13  0.5206E-16  0.1000E-09  0.0000E+00  0.1707E+16
   -1.190010    2.77724  0.0000E+00  0.3189E-13  0.5206E-16  0.1000E-09  0.0000E+00  0.1527E+16
   -1.232511    2.85915  0.0000E+00  0.3189E-13  0.5206E-16  0.1000E-09  0.0000E+00  0.1393E+16
   -1.275012    2.93953  0.0000E+00  0.3189E-13  0.5206E-16  0.1000E-09  0.0000E+00  0.1282E+16
   -1.317512    3.01955  0.0000E+00  0.3189E-13  0.5206E-16  0.1000E-09  0.0000E+00  0.1236E+16
   -1.360012    3.10364  0.0000E+00  0.3189E-13  0.5206E-16  0.1000E-09  0.0000E+00  0.1202E+16
   -1.402512    3.19402  0.0000E+00  0.3189E-13  0.5206E-16  0.1000E-09  0.0000E+00  0.1101E+16
   -1.445011    3.28719  0.0000E+00  0.6387E-13  0.1236E-15  0.1000E-09  0.0000E+00  0.9405E+15
   -1.487510    3.37810  0.0000E+00  0.4067E-12  0.7931E-15  0.1000E-09  0.0000E+00  0.8127E+15
   -1.530009    3.46951  0.0000E+00  0.3100E-11  0.6056E-14  0.1000E-09  0.0000E+00  0.8247E+15
   -1.572508    3.58313  0.0000E+00  0.2751E-10  0.5379E-13  0.1600E-09  0.0000E+00  0.9516E+15
   -1.615006    3.78220  0.0000E+00  0.2599E-09  0.5060E-12  0.3758E-08  0.0000E+00  0.3210E+15
   -1.657504    4.01403  0.0000E+00  0.1913E-08  0.3968E-11  0.3262E-06  0.0000E+00 -0.7343E+14
   -1.700001    4.08708  0.0000E+00  0.0000E+00  0.0000E+00  0.0000E+00  0.0000E+00  0.0000E+00
