 1 - depth, m
 2 - temperature, C
 3 - salinity, kg/kg
 4 - turbulent kinetic energy, m**2/s**2
 5 - dissipation rate, m**2/s**3
 6 - kinematic heat conductance, m**2/s
 7 - modulus of horizontal velocity, m/s
 8 - Richardson number, n/d
   -0.000000    0.00000  0.0000E+00  0.3189E-13  0.5207E-16  0.1000E-09  0.0000E+00  0.1109E+17
   -0.042497    0.17016  0.0000E+00  0.3189E-13  0.5207E-16  0.1000E-09  0.0000E+00  0.1089E+17
   -0.084995    0.34564  0.0000E+00  0.3189E-13  0.5207E-16  0.1000E-09  0.0000E+00  0.1062E+17
   -0.127493    0.52592  0.0000E+00  0.3189E-13  0.5207E-16  0.1000E-09  0.0000E+00  0.9962E+16
   -0.169991    0.70450  0.0000E+00  0.3189E-13  0.5207E-16  0.1000E-09  0.0000E+00  0.9319E+16
   -0.212490    0.88136  0.0000E+00  0.1417E-12  0.5207E-16  0.1000E-09  0.0000E+00  0.8695E+16
   -0.254989    1.05654  0.0000E+00  0.3879E-12  0.6708E-16  0.1000E-09  0.0000E+00  0.8087E+16
   -0.297488    1.22996  0.0000E+00  0.8178E-12  0.1103E-15  0.1000E-09  0.0000E+00  0.7489E+16
   -0.339988    1.40142  0.0000E+00  0.1538E-11  0.1895E-15  0.1000E-09  0.0000E+00  0.6902E+16
   -0.382488    1.57067  0.0000E+00  0.2757E-11  0.3258E-15  0.1000E-09  0.0000E+00  0.6330E+16
   -0.424988    1.73755  0.0000E+00  0.4817E-11  0.5549E-15  0.1000E-09  0.0000E+00  0.5775E+16
   -0.467488    1.90188  0.0000E+00  0.8297E-11  0.9366E-15  0.1000E-09  0.0000E+00  0.5238E+16
   -0.509989    2.06348  0.0000E+00  0.1418E-10  0.1572E-14  0.1000E-09  0.0000E+00  0.4754E+16
   -0.552489    2.22337  0.0000E+00  0.2414E-10  0.2629E-14  0.1000E-09  0.0000E+00  0.4288E+16
   -0.594990    2.38161  0.0000E+00  0.4092E-10  0.4381E-14  0.1000E-09  0.0000E+00  0.3841E+16
   -0.637491    2.53837  0.0000E+00  0.6977E-10  0.7343E-14  0.1000E-09  0.0000E+00  0.3416E+16
   -0.679992    2.69409  0.0000E+00  0.1192E-09  0.1233E-13  0.1000E-09  0.0000E+00  0.2999E+16
   -0.722493    2.84863  0.0000E+00  0.2041E-09  0.2077E-13  0.1000E-09  0.0000E+00  0.2594E+16
   -0.764995    3.00210  0.0000E+00  0.3504E-09  0.3507E-13  0.1000E-09  0.0000E+00  0.2198E+16
   -0.807496    3.15438  0.0000E+00  0.6013E-09  0.5919E-13  0.1033E-09  0.0000E+00  0.1803E+16
   -0.849997    3.30462  0.0000E+00  0.1021E-08  0.9889E-13  0.2194E-09  0.0000E+00  0.1418E+16
   -0.892498    3.45209  0.0000E+00  0.1727E-08  0.1646E-12  0.4875E-09  0.0000E+00  0.1062E+16
   -0.935000    3.59802  0.0000E+00  0.2889E-08  0.2711E-12  0.1187E-08  0.0000E+00  0.7185E+15
   -0.977501    3.74238  0.0000E+00  0.4800E-08  0.4435E-12  0.3630E-08  0.0000E+00  0.3843E+15
   -1.020002    3.88348  0.0000E+00  0.7838E-08  0.7141E-12  0.2778E-07  0.0000E+00  0.8075E+14
   -1.062503    4.00285  0.0000E+00  0.8326E-08  0.7610E-12  0.3764E-04  0.0000E+00 -0.1392E+12
   -1.105004    4.00338  0.0000E+00  0.8546E-08  0.7856E-12  0.3724E-04  0.0000E+00 -0.1435E+12
   -1.147505    4.00391  0.0000E+00  0.8730E-08  0.8099E-12  0.3750E-04  0.0000E+00 -0.1444E+12
   -1.190005    4.00442  0.0000E+00  0.8893E-08  0.8357E-12  0.3759E-04  0.0000E+00 -0.1465E+12
   -1.232506    4.00493  0.0000E+00  0.9043E-08  0.8649E-12  0.3757E-04  0.0000E+00 -0.1523E+12
   -1.275006    4.00545  0.0000E+00  0.9184E-08  0.8993E-12  0.3733E-04  0.0000E+00 -0.1602E+12
   -1.317506    4.00597  0.0000E+00  0.9317E-08  0.9406E-12  0.3686E-04  0.0000E+00 -0.1718E+12
   -1.360006    4.00652  0.0000E+00  0.9443E-08  0.9920E-12  0.3606E-04  0.0000E+00 -0.1884E+12
   -1.402506    4.00711  0.0000E+00  0.9561E-08  0.1059E-11  0.3472E-04  0.0000E+00 -0.2057E+12
   -1.445005    4.00773  0.0000E+00  0.9661E-08  0.1143E-11  0.3285E-04  0.0000E+00 -0.2215E+12
   -1.487504    4.00838  0.0000E+00  0.9749E-08  0.1263E-11  0.2862E-04  0.0000E+00 -0.2630E+12
   -1.530003    4.00913  0.0000E+00  0.9820E-08  0.1462E-11  0.2441E-04  0.0000E+00 -0.3624E+12
   -1.572501    4.01012  0.0000E+00  0.9847E-08  0.1882E-11  0.2090E-04  0.0000E+00 -0.6470E+12
   -1.614999    4.01180  0.0000E+00  0.9487E-08  0.3498E-11  0.8039E-05  0.0000E+00 -0.2162E+13
   -1.657497    4.01674  0.0000E+00  0.7166E-08  0.1171E-10  0.9072E-06  0.0000E+00 -0.2920E+14
   -1.699994    4.05454  0.0000E+00  0.0000E+00  0.0000E+00  0.0000E+00  0.0000E+00  0.0000E+00
