 1 - depth, m
 2 - temperature, C
 3 - salinity, kg/kg
 4 - turbulent kinetic energy, m**2/s**2
 5 - dissipation rate, m**2/s**3
 6 - kinematic heat conductance, m**2/s
 7 - modulus of horizontal velocity, m/s
 8 - Richardson number, n/d
   -0.000000    8.04166  0.0000E+00  0.5943E-05  0.2038E-06  0.1694E-04  0.1017E-01 -0.2257E-01
   -0.042497    8.06135  0.0000E+00  0.4301E-05  0.7647E-07  0.2619E-04  0.5333E-02 -0.6838E-01
   -0.084995    8.07330  0.0000E+00  0.3270E-05  0.3656E-07  0.3621E-04  0.3119E-02 -0.1629E+00
   -0.127493    8.08153  0.0000E+00  0.2664E-05  0.2019E-07  0.5222E-04  0.1903E-02 -0.3287E+00
   -0.169992    8.08716  0.0000E+00  0.2331E-05  0.1274E-07  0.9506E-04  0.1201E-02  0.3680E+03
   -0.212491    8.09062  0.0000E+00  0.2160E-05  0.9084E-08  0.1337E-03  0.8085E-03  0.1181E+03
   -0.254990    8.09291  0.0000E+00  0.2085E-05  0.7213E-08  0.1982E-03  0.5874E-03  0.2163E+05
   -0.297489    8.09426  0.0000E+00  0.2059E-05  0.6165E-08  0.2305E-03  0.4697E-03  0.1837E+01
   -0.339989    8.09539  0.0000E+00  0.2056E-05  0.5465E-08  0.2542E-03  0.3963E-03  0.1647E+01
   -0.382489    8.09639  0.0000E+00  0.2064E-05  0.4943E-08  0.2803E-03  0.3377E-03  0.1676E+01
   -0.424989    8.09729  0.0000E+00  0.2080E-05  0.4548E-08  0.3064E-03  0.2906E-03  0.1730E+01
   -0.467490    8.09811  0.0000E+00  0.2100E-05  0.4244E-08  0.3321E-03  0.2509E-03  0.1739E+01
   -0.509990    8.09887  0.0000E+00  0.2122E-05  0.4006E-08  0.3570E-03  0.2167E-03  0.1768E+01
   -0.552491    8.09958  0.0000E+00  0.2145E-05  0.3817E-08  0.3809E-03  0.1872E-03  0.1854E+01
   -0.594992    8.10024  0.0000E+00  0.2167E-05  0.3665E-08  0.4035E-03  0.1614E-03  0.1983E+01
   -0.637493    8.10087  0.0000E+00  0.2190E-05  0.3539E-08  0.4253E-03  0.1390E-03  0.2179E+01
   -0.679994    8.10147  0.0000E+00  0.2212E-05  0.3434E-08  0.4463E-03  0.1200E-03  0.2542E+01
   -0.722495    8.10203  0.0000E+00  0.2234E-05  0.3344E-08  0.4666E-03  0.1039E-03  0.3032E+01
   -0.764997    8.10257  0.0000E+00  0.2256E-05  0.3268E-08  0.4862E-03  0.9049E-04  0.3712E+01
   -0.807498    8.10307  0.0000E+00  0.2279E-05  0.3203E-08  0.5053E-03  0.7942E-04  0.4679E+01
   -0.849999    8.10355  0.0000E+00  0.2301E-05  0.3150E-08  0.5230E-03  0.7009E-04  0.5816E+01
   -0.892501    8.10402  0.0000E+00  0.2322E-05  0.3107E-08  0.5396E-03  0.6215E-04  0.7101E+01
   -0.935002    8.10447  0.0000E+00  0.2343E-05  0.3074E-08  0.5545E-03  0.5534E-04  0.8784E+01
   -0.977504    8.10492  0.0000E+00  0.2363E-05  0.3051E-08  0.5676E-03  0.4935E-04  0.1047E+02
   -1.020005    8.10535  0.0000E+00  0.2382E-05  0.3037E-08  0.5786E-03  0.4409E-04  0.1265E+02
   -1.062506    8.10579  0.0000E+00  0.2399E-05  0.3032E-08  0.5874E-03  0.3937E-04  0.1473E+02
   -1.105007    8.10622  0.0000E+00  0.2415E-05  0.3035E-08  0.5939E-03  0.3510E-04  0.1719E+02
   -1.147508    8.10666  0.0000E+00  0.2428E-05  0.3047E-08  0.5978E-03  0.3114E-04  0.1992E+02
   -1.190009    8.10710  0.0000E+00  0.2440E-05  0.3068E-08  0.5989E-03  0.2737E-04  0.2270E+02
   -1.232509    8.10756  0.0000E+00  0.2449E-05  0.3099E-08  0.5972E-03  0.2384E-04  0.2635E+02
   -1.275010    8.10802  0.0000E+00  0.2456E-05  0.3142E-08  0.5923E-03  0.2067E-04  0.3391E+02
   -1.317510    8.10849  0.0000E+00  0.2461E-05  0.3203E-08  0.5837E-03  0.1783E-04  0.4482E+02
   -1.360010    8.10897  0.0000E+00  0.2463E-05  0.3286E-08  0.5702E-03  0.1532E-04  0.6029E+02
   -1.402510    8.10947  0.0000E+00  0.2463E-05  0.3405E-08  0.5510E-03  0.1314E-04  0.8748E+02
   -1.445009    8.10999  0.0000E+00  0.2460E-05  0.3556E-08  0.5273E-03  0.1117E-04  0.1292E+03
   -1.487508    8.11054  0.0000E+00  0.2452E-05  0.3754E-08  0.4979E-03  0.9288E-05  0.1601E+03
   -1.530007    8.11114  0.0000E+00  0.2439E-05  0.4067E-08  0.4581E-03  0.7497E-05  0.1917E+03
   -1.572506    8.11180  0.0000E+00  0.2409E-05  0.4753E-08  0.3765E-03  0.5917E-05  0.3624E+03
   -1.615004    8.11260  0.0000E+00  0.2316E-05  0.7037E-08  0.2868E-03  0.4720E-05  0.1816E+04
   -1.657502    8.11369  0.0000E+00  0.1612E-05  0.2874E-07  0.1458E-04  0.3833E-05 -0.4640E+06
   -1.699999    8.13569  0.0000E+00  0.0000E+00  0.0000E+00  0.0000E+00  0.3831E-05  0.0000E+00
