 1 - depth, m
 2 - temperature, C
 3 - salinity, kg/kg
 4 - turbulent kinetic energy, m**2/s**2
 5 - dissipation rate, m**2/s**3
 6 - kinematic heat conductance, m**2/s
 7 - modulus of horizontal velocity, m/s
 8 - Richardson number, n/d
   -0.000000    0.00000  0.0000E+00  0.3151E-11  0.1080E-14  0.1000E-09  0.0000E+00  0.2227E+17
   -0.042497    0.35041  0.0000E+00  0.5787E-11  0.9971E-15  0.1000E-09  0.0000E+00  0.1922E+17
   -0.084994    0.68471  0.0000E+00  0.1097E-10  0.1301E-14  0.1000E-09  0.0000E+00  0.1645E+17
   -0.127491    1.00218  0.0000E+00  0.1955E-10  0.1966E-14  0.1000E-09  0.0000E+00  0.1384E+17
   -0.169989    1.29970  0.0000E+00  0.3330E-10  0.3108E-14  0.1000E-09  0.0000E+00  0.1157E+17
   -0.212487    1.57790  0.0000E+00  0.5528E-10  0.4961E-14  0.1000E-09  0.0000E+00  0.9624E+16
   -0.254985    1.83783  0.0000E+00  0.9057E-10  0.7922E-14  0.1000E-09  0.0000E+00  0.7962E+16
   -0.297484    2.08051  0.0000E+00  0.1472E-09  0.1262E-13  0.1000E-09  0.0000E+00  0.6544E+16
   -0.339983    2.30696  0.0000E+00  0.2360E-09  0.1988E-13  0.1000E-09  0.0000E+00  0.5345E+16
   -0.382482    2.51841  0.0000E+00  0.3754E-09  0.3109E-13  0.1000E-09  0.0000E+00  0.4343E+16
   -0.424981    2.71656  0.0000E+00  0.5917E-09  0.4819E-13  0.1000E-09  0.0000E+00  0.3509E+16
   -0.467481    2.90345  0.0000E+00  0.9254E-09  0.7412E-13  0.1164E-09  0.0000E+00  0.2808E+16
   -0.509981    3.08095  0.0000E+00  0.1439E-08  0.1134E-12  0.1694E-09  0.0000E+00  0.2260E+16
   -0.552481    3.25496  0.0000E+00  0.2229E-08  0.1726E-12  0.3052E-09  0.0000E+00  0.1760E+16
   -0.594981    3.42731  0.0000E+00  0.3438E-08  0.2616E-12  0.6220E-09  0.0000E+00  0.1283E+16
   -0.637481    3.59905  0.0000E+00  0.5318E-08  0.3976E-12  0.1455E-08  0.0000E+00  0.8103E+15
   -0.679982    3.77016  0.0000E+00  0.8210E-08  0.6030E-12  0.5712E-08  0.0000E+00  0.3303E+15
   -0.722482    3.93264  0.0000E+00  0.1010E-07  0.7338E-12  0.1673E-04  0.0000E+00  0.3928E+14
   -0.764983    3.99526  0.0000E+00  0.1041E-07  0.7570E-12  0.4724E-04  0.0000E+00 -0.6690E+11
   -0.807483    3.99581  0.0000E+00  0.1061E-07  0.7739E-12  0.4900E-04  0.0000E+00 -0.7235E+11
   -0.849984    3.99633  0.0000E+00  0.1080E-07  0.7922E-12  0.5125E-04  0.0000E+00 -0.7580E+11
   -0.892485    3.99684  0.0000E+00  0.1099E-07  0.8121E-12  0.5355E-04  0.0000E+00 -0.7803E+11
   -0.934985    3.99733  0.0000E+00  0.1117E-07  0.8336E-12  0.5342E-04  0.0000E+00 -0.8289E+11
   -0.977486    3.99781  0.0000E+00  0.1134E-07  0.8567E-12  0.5408E-04  0.0000E+00 -0.8623E+11
   -1.019986    3.99829  0.0000E+00  0.1151E-07  0.8815E-12  0.5447E-04  0.0000E+00 -0.8912E+11
   -1.062487    3.99877  0.0000E+00  0.1166E-07  0.9079E-12  0.5454E-04  0.0000E+00 -0.9257E+11
   -1.104987    3.99924  0.0000E+00  0.1180E-07  0.9365E-12  0.5437E-04  0.0000E+00 -0.9558E+11
   -1.147487    3.99971  0.0000E+00  0.1193E-07  0.9668E-12  0.5393E-04  0.0000E+00 -0.9853E+11
   -1.189987    4.00017  0.0000E+00  0.1205E-07  0.9993E-12  0.5333E-04  0.0000E+00 -0.1025E+12
   -1.232487    4.00064  0.0000E+00  0.1215E-07  0.1036E-11  0.5259E-04  0.0000E+00 -0.1099E+12
   -1.274986    4.00113  0.0000E+00  0.1226E-07  0.1080E-11  0.5160E-04  0.0000E+00 -0.1190E+12
   -1.317486    4.00164  0.0000E+00  0.1235E-07  0.1134E-11  0.5018E-04  0.0000E+00 -0.1302E+12
   -1.359985    4.00218  0.0000E+00  0.1245E-07  0.1201E-11  0.4835E-04  0.0000E+00 -0.1460E+12
   -1.402484    4.00276  0.0000E+00  0.1253E-07  0.1290E-11  0.4582E-04  0.0000E+00 -0.1642E+12
   -1.444983    4.00340  0.0000E+00  0.1261E-07  0.1402E-11  0.4226E-04  0.0000E+00 -0.1854E+12
   -1.487481    4.00409  0.0000E+00  0.1267E-07  0.1556E-11  0.3701E-04  0.0000E+00 -0.2248E+12
   -1.529979    4.00490  0.0000E+00  0.1271E-07  0.1812E-11  0.3138E-04  0.0000E+00 -0.3203E+12
   -1.572477    4.00600  0.0000E+00  0.1273E-07  0.2384E-11  0.2550E-04  0.0000E+00 -0.6324E+12
   -1.614974    4.00799  0.0000E+00  0.1238E-07  0.4813E-11  0.9367E-05  0.0000E+00 -0.2619E+13
   -1.657471    4.01470  0.0000E+00  0.9935E-08  0.1821E-10  0.1183E-05  0.0000E+00 -0.4031E+14
   -1.699968    4.06328  0.0000E+00  0.0000E+00  0.0000E+00  0.0000E+00  0.0000E+00  0.0000E+00
