 1 - depth, m
 2 - temperature, C
 3 - salinity, kg/kg
 4 - turbulent kinetic energy, m**2/s**2
 5 - dissipation rate, m**2/s**3
 6 - kinematic heat conductance, m**2/s
 7 - modulus of horizontal velocity, m/s
 8 - Richardson number, n/d
   -0.000000    0.00000  0.0000E+00  0.6199E-12  0.1429E-15  0.1000E-09  0.0000E+00  0.2188E+17
   -0.042496    0.34399  0.0000E+00  0.9732E-12  0.1387E-15  0.1000E-09  0.0000E+00  0.1898E+17
   -0.084993    0.67313  0.0000E+00  0.1689E-11  0.1809E-15  0.1000E-09  0.0000E+00  0.1638E+17
   -0.127490    0.98789  0.0000E+00  0.2892E-11  0.2707E-15  0.1000E-09  0.0000E+00  0.1385E+17
   -0.169987    1.28418  0.0000E+00  0.4840E-11  0.4250E-15  0.1000E-09  0.0000E+00  0.1165E+17
   -0.212485    1.56268  0.0000E+00  0.7972E-11  0.6765E-15  0.1000E-09  0.0000E+00  0.9747E+16
   -0.254983    1.82420  0.0000E+00  0.1302E-10  0.1080E-14  0.1000E-09  0.0000E+00  0.8086E+16
   -0.297481    2.06912  0.0000E+00  0.2117E-10  0.1726E-14  0.1000E-09  0.0000E+00  0.6626E+16
   -0.339980    2.29699  0.0000E+00  0.3403E-10  0.2732E-14  0.1000E-09  0.0000E+00  0.5351E+16
   -0.382479    2.50720  0.0000E+00  0.5436E-10  0.4301E-14  0.1000E-09  0.0000E+00  0.4270E+16
   -0.424978    2.70002  0.0000E+00  0.8623E-10  0.6726E-14  0.1000E-09  0.0000E+00  0.3361E+16
   -0.467477    2.87564  0.0000E+00  0.1360E-09  0.1046E-13  0.1000E-09  0.0000E+00  0.2612E+16
   -0.509976    3.03470  0.0000E+00  0.2136E-09  0.1620E-13  0.1000E-09  0.0000E+00  0.2046E+16
   -0.552476    3.18137  0.0000E+00  0.3349E-09  0.2505E-13  0.1000E-09  0.0000E+00  0.1586E+16
   -0.594976    3.31710  0.0000E+00  0.5239E-09  0.3866E-13  0.1037E-09  0.0000E+00  0.1213E+16
   -0.637476    3.44362  0.0000E+00  0.8246E-09  0.6001E-13  0.2068E-09  0.0000E+00  0.9119E+15
   -0.679976    3.56326  0.0000E+00  0.1302E-08  0.9346E-13  0.4466E-09  0.0000E+00  0.6580E+15
   -0.722476    3.67739  0.0000E+00  0.2063E-08  0.1460E-12  0.1042E-08  0.0000E+00  0.4410E+15
   -0.764976    3.78803  0.0000E+00  0.3277E-08  0.2288E-12  0.2955E-08  0.0000E+00  0.2450E+15
   -0.807476    3.89637  0.0000E+00  0.5173E-08  0.3566E-12  0.1857E-07  0.0000E+00  0.6348E+14
   -0.849977    3.99442  0.0000E+00  0.5588E-08  0.3867E-12  0.2709E-04  0.0000E+00 -0.4682E+11
   -0.892477    3.99549  0.0000E+00  0.5794E-08  0.4037E-12  0.3055E-04  0.0000E+00 -0.7689E+11
   -0.934977    3.99603  0.0000E+00  0.5981E-08  0.4211E-12  0.3198E-04  0.0000E+00 -0.7883E+11
   -0.977477    3.99654  0.0000E+00  0.6154E-08  0.4392E-12  0.3310E-04  0.0000E+00 -0.8154E+11
   -1.019977    3.99705  0.0000E+00  0.6316E-08  0.4583E-12  0.3369E-04  0.0000E+00 -0.8463E+11
   -1.062477    3.99755  0.0000E+00  0.6469E-08  0.4788E-12  0.3395E-04  0.0000E+00 -0.8856E+11
   -1.104977    3.99804  0.0000E+00  0.6612E-08  0.5009E-12  0.3386E-04  0.0000E+00 -0.9239E+11
   -1.147477    3.99854  0.0000E+00  0.6747E-08  0.5250E-12  0.3355E-04  0.0000E+00 -0.9605E+11
   -1.189977    3.99904  0.0000E+00  0.6874E-08  0.5518E-12  0.3307E-04  0.0000E+00 -0.1014E+12
   -1.232476    3.99954  0.0000E+00  0.6998E-08  0.5829E-12  0.3267E-04  0.0000E+00 -0.1112E+12
   -1.274975    4.00007  0.0000E+00  0.7117E-08  0.6194E-12  0.3202E-04  0.0000E+00 -0.1235E+12
   -1.317474    4.00063  0.0000E+00  0.7234E-08  0.6641E-12  0.3103E-04  0.0000E+00 -0.1383E+12
   -1.359973    4.00124  0.0000E+00  0.7351E-08  0.7216E-12  0.2965E-04  0.0000E+00 -0.1600E+12
   -1.402472    4.00191  0.0000E+00  0.7475E-08  0.8034E-12  0.2711E-04  0.0000E+00 -0.1900E+12
   -1.444970    4.00268  0.0000E+00  0.7595E-08  0.9148E-12  0.2240E-04  0.0000E+00 -0.2410E+12
   -1.487468    4.00360  0.0000E+00  0.7708E-08  0.1069E-11  0.1843E-04  0.0000E+00 -0.3165E+12
   -1.529966    4.00473  0.0000E+00  0.7831E-08  0.1327E-11  0.1559E-04  0.0000E+00 -0.4802E+12
   -1.572463    4.00633  0.0000E+00  0.7980E-08  0.1905E-11  0.1319E-04  0.0000E+00 -0.1028E+13
   -1.614960    4.00938  0.0000E+00  0.7962E-08  0.4205E-11  0.4827E-05  0.0000E+00 -0.4525E+13
   -1.657457    4.01962  0.0000E+00  0.7003E-08  0.1343E-10  0.9461E-06  0.0000E+00 -0.5120E+14
   -1.699953    4.07377  0.0000E+00  0.0000E+00  0.0000E+00  0.0000E+00  0.0000E+00  0.0000E+00
