 1 - depth, m
 2 - temperature, C
 3 - salinity, kg/kg
 4 - turbulent kinetic energy, m**2/s**2
 5 - dissipation rate, m**2/s**3
 6 - kinematic heat conductance, m**2/s
 7 - modulus of horizontal velocity, m/s
 8 - Richardson number, n/d
   -0.000000    0.00000  0.0000E+00  0.3189E-13  0.5206E-16  0.1000E-09  0.0000E+00  0.6369E+16
   -0.042497    0.09680  0.0000E+00  0.3189E-13  0.5206E-16  0.1000E-09  0.0000E+00  0.6435E+16
   -0.084995    0.19728  0.0000E+00  0.3189E-13  0.5206E-16  0.1000E-09  0.0000E+00  0.6464E+16
   -0.127494    0.30115  0.0000E+00  0.3189E-13  0.5206E-16  0.1000E-09  0.0000E+00  0.6300E+16
   -0.169992    0.40548  0.0000E+00  0.3189E-13  0.5206E-16  0.1000E-09  0.0000E+00  0.6132E+16
   -0.212491    0.51021  0.0000E+00  0.3189E-13  0.5206E-16  0.1000E-09  0.0000E+00  0.5968E+16
   -0.254990    0.61547  0.0000E+00  0.3189E-13  0.5206E-16  0.1000E-09  0.0000E+00  0.5805E+16
   -0.297490    0.72128  0.0000E+00  0.3189E-13  0.5206E-16  0.1000E-09  0.0000E+00  0.5619E+16
   -0.339990    0.82726  0.0000E+00  0.3189E-13  0.5206E-16  0.1000E-09  0.0000E+00  0.5404E+16
   -0.382490    0.93286  0.0000E+00  0.3189E-13  0.5206E-16  0.1000E-09  0.0000E+00  0.5185E+16
   -0.424990    1.03792  0.0000E+00  0.3189E-13  0.5206E-16  0.1000E-09  0.0000E+00  0.4942E+16
   -0.467491    1.14187  0.0000E+00  0.3189E-13  0.5206E-16  0.1000E-09  0.0000E+00  0.4701E+16
   -0.509991    1.24456  0.0000E+00  0.3189E-13  0.5206E-16  0.1000E-09  0.0000E+00  0.4476E+16
   -0.552492    1.34624  0.0000E+00  0.3189E-13  0.5206E-16  0.1000E-09  0.0000E+00  0.4256E+16
   -0.594993    1.44686  0.0000E+00  0.3189E-13  0.5206E-16  0.1000E-09  0.0000E+00  0.4054E+16
   -0.637495    1.54672  0.0000E+00  0.3189E-13  0.5206E-16  0.1000E-09  0.0000E+00  0.3879E+16
   -0.679996    1.64643  0.0000E+00  0.3189E-13  0.5206E-16  0.1000E-09  0.0000E+00  0.3705E+16
   -0.722497    1.74598  0.0000E+00  0.3189E-13  0.5206E-16  0.1000E-09  0.0000E+00  0.3546E+16
   -0.764999    1.84574  0.0000E+00  0.3189E-13  0.5206E-16  0.1000E-09  0.0000E+00  0.3389E+16
   -0.807500    1.94582  0.0000E+00  0.3189E-13  0.5206E-16  0.1000E-09  0.0000E+00  0.3205E+16
   -0.850002    2.04537  0.0000E+00  0.3189E-13  0.5206E-16  0.1000E-09  0.0000E+00  0.3007E+16
   -0.892503    2.14383  0.0000E+00  0.3189E-13  0.5206E-16  0.1000E-09  0.0000E+00  0.2832E+16
   -0.935005    2.24176  0.0000E+00  0.3189E-13  0.5206E-16  0.1000E-09  0.0000E+00  0.2652E+16
   -0.977506    2.33893  0.0000E+00  0.3189E-13  0.5206E-16  0.1000E-09  0.0000E+00  0.2476E+16
   -1.020007    2.43527  0.0000E+00  0.3189E-13  0.5206E-16  0.1000E-09  0.0000E+00  0.2280E+16
   -1.062509    2.52976  0.0000E+00  0.3189E-13  0.5206E-16  0.1000E-09  0.0000E+00  0.2088E+16
   -1.105010    2.62219  0.0000E+00  0.3189E-13  0.5206E-16  0.1000E-09  0.0000E+00  0.1884E+16
   -1.147511    2.71145  0.0000E+00  0.3189E-13  0.5206E-16  0.1000E-09  0.0000E+00  0.1679E+16
   -1.190012    2.79673  0.0000E+00  0.3189E-13  0.5206E-16  0.1000E-09  0.0000E+00  0.1499E+16
   -1.232512    2.87852  0.0000E+00  0.3189E-13  0.5206E-16  0.1000E-09  0.0000E+00  0.1365E+16
   -1.275013    2.95874  0.0000E+00  0.3189E-13  0.5206E-16  0.1000E-09  0.0000E+00  0.1254E+16
   -1.317513    3.03854  0.0000E+00  0.3189E-13  0.5206E-16  0.1000E-09  0.0000E+00  0.1207E+16
   -1.360013    3.12240  0.0000E+00  0.3189E-13  0.5206E-16  0.1000E-09  0.0000E+00  0.1171E+16
   -1.402513    3.21253  0.0000E+00  0.3189E-13  0.5206E-16  0.1000E-09  0.0000E+00  0.1071E+16
   -1.445013    3.30542  0.0000E+00  0.7361E-13  0.1435E-15  0.1000E-09  0.0000E+00  0.9110E+15
   -1.487512    3.39600  0.0000E+00  0.4762E-12  0.9363E-15  0.1000E-09  0.0000E+00  0.7836E+15
   -1.530011    3.48703  0.0000E+00  0.3647E-11  0.7199E-14  0.1000E-09  0.0000E+00  0.7907E+15
   -1.572510    3.60025  0.0000E+00  0.3254E-10  0.6449E-13  0.2018E-09  0.0000E+00  0.8964E+15
   -1.615008    3.79890  0.0000E+00  0.3094E-09  0.6127E-12  0.5242E-08  0.0000E+00  0.2620E+15
   -1.657506    4.02809  0.0000E+00  0.2253E-08  0.4858E-11  0.3671E-06  0.0000E+00 -0.7915E+14
   -1.700003    4.09523  0.0000E+00  0.0000E+00  0.0000E+00  0.0000E+00  0.0000E+00  0.0000E+00
