 1 - depth, m
 2 - temperature, C
 3 - salinity, kg/kg
 4 - turbulent kinetic energy, m**2/s**2
 5 - dissipation rate, m**2/s**3
 6 - kinematic heat conductance, m**2/s
 7 - modulus of horizontal velocity, m/s
 8 - Richardson number, n/d
   -0.000000    0.00000  0.0000E+00  0.3189E-13  0.5206E-16  0.1000E-09  0.0000E+00  0.6001E+16
   -0.042497    0.09114  0.0000E+00  0.3189E-13  0.5206E-16  0.1000E-09  0.0000E+00  0.6053E+16
   -0.084995    0.18542  0.0000E+00  0.3189E-13  0.5206E-16  0.1000E-09  0.0000E+00  0.6075E+16
   -0.127493    0.28263  0.0000E+00  0.3189E-13  0.5206E-16  0.1000E-09  0.0000E+00  0.5933E+16
   -0.169992    0.38025  0.0000E+00  0.3189E-13  0.5206E-16  0.1000E-09  0.0000E+00  0.5788E+16
   -0.212491    0.47828  0.0000E+00  0.3189E-13  0.5206E-16  0.1000E-09  0.0000E+00  0.5651E+16
   -0.254990    0.57686  0.0000E+00  0.3189E-13  0.5206E-16  0.1000E-09  0.0000E+00  0.5516E+16
   -0.297489    0.67609  0.0000E+00  0.3189E-13  0.5206E-16  0.1000E-09  0.0000E+00  0.5359E+16
   -0.339989    0.77559  0.0000E+00  0.3189E-13  0.5206E-16  0.1000E-09  0.0000E+00  0.5172E+16
   -0.382489    0.87481  0.0000E+00  0.3189E-13  0.5206E-16  0.1000E-09  0.0000E+00  0.4981E+16
   -0.424990    0.97362  0.0000E+00  0.3189E-13  0.5206E-16  0.1000E-09  0.0000E+00  0.4764E+16
   -0.467490    1.07143  0.0000E+00  0.3189E-13  0.5206E-16  0.1000E-09  0.0000E+00  0.4549E+16
   -0.509991    1.16815  0.0000E+00  0.3189E-13  0.5206E-16  0.1000E-09  0.0000E+00  0.4349E+16
   -0.552492    1.26398  0.0000E+00  0.3189E-13  0.5206E-16  0.1000E-09  0.0000E+00  0.4154E+16
   -0.594993    1.35893  0.0000E+00  0.3189E-13  0.5206E-16  0.1000E-09  0.0000E+00  0.3978E+16
   -0.637494    1.45333  0.0000E+00  0.3189E-13  0.5206E-16  0.1000E-09  0.0000E+00  0.3832E+16
   -0.679995    1.54787  0.0000E+00  0.3189E-13  0.5206E-16  0.1000E-09  0.0000E+00  0.3688E+16
   -0.722496    1.64261  0.0000E+00  0.3189E-13  0.5206E-16  0.1000E-09  0.0000E+00  0.3560E+16
   -0.764998    1.73800  0.0000E+00  0.3189E-13  0.5206E-16  0.1000E-09  0.0000E+00  0.3436E+16
   -0.807499    1.83424  0.0000E+00  0.3189E-13  0.5206E-16  0.1000E-09  0.0000E+00  0.3280E+16
   -0.850000    1.93046  0.0000E+00  0.3189E-13  0.5206E-16  0.1000E-09  0.0000E+00  0.3107E+16
   -0.892502    2.02610  0.0000E+00  0.3189E-13  0.5206E-16  0.1000E-09  0.0000E+00  0.2951E+16
   -0.935003    2.12162  0.0000E+00  0.3189E-13  0.5206E-16  0.1000E-09  0.0000E+00  0.2784E+16
   -0.977505    2.21661  0.0000E+00  0.3189E-13  0.5206E-16  0.1000E-09  0.0000E+00  0.2620E+16
   -1.020006    2.31107  0.0000E+00  0.3189E-13  0.5206E-16  0.1000E-09  0.0000E+00  0.2432E+16
   -1.062507    2.40392  0.0000E+00  0.3189E-13  0.5206E-16  0.1000E-09  0.0000E+00  0.2247E+16
   -1.105008    2.49499  0.0000E+00  0.3189E-13  0.5206E-16  0.1000E-09  0.0000E+00  0.2045E+16
   -1.147509    2.58313  0.0000E+00  0.3189E-13  0.5206E-16  0.1000E-09  0.0000E+00  0.1838E+16
   -1.190010    2.66750  0.0000E+00  0.3189E-13  0.5206E-16  0.1000E-09  0.0000E+00  0.1659E+16
   -1.232511    2.74870  0.0000E+00  0.3189E-13  0.5206E-16  0.1000E-09  0.0000E+00  0.1534E+16
   -1.275011    2.82894  0.0000E+00  0.3189E-13  0.5206E-16  0.1000E-09  0.0000E+00  0.1431E+16
   -1.317511    2.90929  0.0000E+00  0.3189E-13  0.5206E-16  0.1000E-09  0.0000E+00  0.1391E+16
   -1.360011    2.99371  0.0000E+00  0.3189E-13  0.5206E-16  0.1000E-09  0.0000E+00  0.1365E+16
   -1.402511    3.08435  0.0000E+00  0.3189E-13  0.5206E-16  0.1000E-09  0.0000E+00  0.1267E+16
   -1.445011    3.17763  0.0000E+00  0.3189E-13  0.5206E-16  0.1000E-09  0.0000E+00  0.1099E+16
   -1.487510    3.26843  0.0000E+00  0.6208E-13  0.6877E-16  0.1000E-09  0.0000E+00  0.9686E+15
   -1.530009    3.35941  0.0000E+00  0.3037E-12  0.3038E-15  0.1000E-09  0.0000E+00  0.1014E+16
   -1.572507    3.47185  0.0000E+00  0.1756E-11  0.1694E-14  0.1000E-09  0.0000E+00  0.1283E+16
   -1.615006    3.66691  0.0000E+00  0.1090E-10  0.1019E-13  0.1000E-09  0.0000E+00  0.7379E+15
   -1.657503    3.89609  0.0000E+00  0.5549E-10  0.5048E-13  0.2611E-07  0.0000E+00 -0.1405E+14
   -1.700001    4.08608  0.0000E+00  0.0000E+00  0.0000E+00  0.0000E+00  0.0000E+00  0.0000E+00
