 1 - depth, m
 2 - temperature, C
 3 - salinity, kg/kg
 4 - turbulent kinetic energy, m**2/s**2
 5 - dissipation rate, m**2/s**3
 6 - kinematic heat conductance, m**2/s
 7 - modulus of horizontal velocity, m/s
 8 - Richardson number, n/d
   -0.000000    0.00000  0.0000E+00  0.3188E-13  0.5206E-16  0.1000E-09  0.0000E+00  0.6273E+16
   -0.042499    0.09532  0.0000E+00  0.3188E-13  0.5206E-16  0.1000E-09  0.0000E+00  0.6725E+16
   -0.084997    0.20036  0.0000E+00  0.3188E-13  0.5206E-16  0.1000E-09  0.0000E+00  0.7091E+16
   -0.127497    0.31458  0.0000E+00  0.3188E-13  0.5206E-16  0.1000E-09  0.0000E+00  0.7037E+16
   -0.169996    0.43179  0.0000E+00  0.3188E-13  0.5206E-16  0.1000E-09  0.0000E+00  0.6935E+16
   -0.212496    0.55145  0.0000E+00  0.3188E-13  0.5206E-16  0.1000E-09  0.0000E+00  0.6783E+16
   -0.254997    0.67292  0.0000E+00  0.3188E-13  0.5206E-16  0.1000E-09  0.0000E+00  0.6591E+16
   -0.297497    0.79564  0.0000E+00  0.3188E-13  0.5206E-16  0.1000E-09  0.0000E+00  0.6380E+16
   -0.339998    0.91936  0.0000E+00  0.3188E-13  0.5206E-16  0.1000E-09  0.0000E+00  0.6161E+16
   -0.382500    1.04404  0.0000E+00  0.3188E-13  0.5206E-16  0.1000E-09  0.0000E+00  0.5925E+16
   -0.425001    1.16941  0.0000E+00  0.3188E-13  0.5206E-16  0.1000E-09  0.0000E+00  0.5689E+16
   -0.467503    1.29555  0.0000E+00  0.3188E-13  0.5206E-16  0.1000E-09  0.0000E+00  0.5445E+16
   -0.510004    1.42235  0.0000E+00  0.3188E-13  0.5206E-16  0.1000E-09  0.0000E+00  0.5194E+16
   -0.552506    1.54972  0.0000E+00  0.3188E-13  0.5206E-16  0.1000E-09  0.0000E+00  0.4939E+16
   -0.595008    1.67763  0.0000E+00  0.3188E-13  0.5206E-16  0.1000E-09  0.0000E+00  0.4677E+16
   -0.637511    1.80592  0.0000E+00  0.3188E-13  0.5206E-16  0.1000E-09  0.0000E+00  0.4400E+16
   -0.680013    1.93421  0.0000E+00  0.3188E-13  0.5206E-16  0.1000E-09  0.0000E+00  0.4120E+16
   -0.722515    2.06233  0.0000E+00  0.3188E-13  0.5206E-16  0.1000E-09  0.0000E+00  0.3829E+16
   -0.765018    2.18987  0.0000E+00  0.3188E-13  0.5206E-16  0.1000E-09  0.0000E+00  0.3530E+16
   -0.807521    2.31634  0.0000E+00  0.3188E-13  0.5206E-16  0.1000E-09  0.0000E+00  0.3236E+16
   -0.850023    2.44161  0.0000E+00  0.3212E-13  0.5206E-16  0.1000E-09  0.0000E+00  0.2943E+16
   -0.892526    2.56534  0.0000E+00  0.8045E-13  0.5341E-16  0.1000E-09  0.0000E+00  0.2674E+16
   -0.935028    2.68819  0.0000E+00  0.2565E-12  0.8224E-16  0.1000E-09  0.0000E+00  0.2422E+16
   -0.977531    2.81075  0.0000E+00  0.6469E-12  0.1763E-15  0.1000E-09  0.0000E+00  0.2167E+16
   -1.020033    2.93270  0.0000E+00  0.1494E-11  0.3876E-15  0.1000E-09  0.0000E+00  0.1912E+16
   -1.062536    3.05366  0.0000E+00  0.3342E-11  0.8438E-15  0.1000E-09  0.0000E+00  0.1658E+16
   -1.105038    3.17329  0.0000E+00  0.7371E-11  0.1820E-14  0.1000E-09  0.0000E+00  0.1410E+16
   -1.147540    3.29124  0.0000E+00  0.1597E-10  0.3862E-14  0.1000E-09  0.0000E+00  0.1170E+16
   -1.190042    3.40730  0.0000E+00  0.3431E-10  0.8130E-14  0.1000E-09  0.0000E+00  0.9388E+15
   -1.232544    3.52114  0.0000E+00  0.7519E-10  0.1746E-13  0.1005E-09  0.0000E+00  0.7139E+15
   -1.275045    3.63159  0.0000E+00  0.1666E-09  0.3792E-13  0.2328E-09  0.0000E+00  0.5126E+15
   -1.317547    3.73995  0.0000E+00  0.3717E-09  0.8300E-13  0.7715E-09  0.0000E+00  0.3384E+15
   -1.360048    3.85365  0.0000E+00  0.8360E-09  0.1832E-12  0.4282E-08  0.0000E+00  0.1363E+15
   -1.402549    3.97230  0.0000E+00  0.1683E-08  0.3681E-12  0.9646E-06  0.0000E+00  0.1417E+13
   -1.445049    3.99820  0.0000E+00  0.2493E-08  0.5827E-12  0.3882E-05  0.0000E+00 -0.9415E+12
   -1.487550    4.00260  0.0000E+00  0.3035E-08  0.7823E-12  0.4251E-05  0.0000E+00 -0.1145E+13
   -1.530050    4.00665  0.0000E+00  0.3556E-08  0.1078E-11  0.4360E-05  0.0000E+00 -0.1609E+13
   -1.572549    4.01124  0.0000E+00  0.4139E-08  0.1656E-11  0.4450E-05  0.0000E+00 -0.2984E+13
   -1.615049    4.01801  0.0000E+00  0.4621E-08  0.3170E-11  0.2430E-05  0.0000E+00 -0.8132E+13
   -1.657548    4.03154  0.0000E+00  0.4086E-08  0.7369E-11  0.5964E-06  0.0000E+00 -0.4589E+14
   -1.700046    4.07525  0.0000E+00  0.0000E+00  0.0000E+00  0.0000E+00  0.0000E+00  0.0000E+00
