 1 - depth, m
 2 - temperature, C
 3 - salinity, kg/kg
 4 - turbulent kinetic energy, m**2/s**2
 5 - dissipation rate, m**2/s**3
 6 - kinematic heat conductance, m**2/s
 7 - modulus of horizontal velocity, m/s
 8 - Richardson number, n/d
   -0.000000    4.40395  0.0000E+00  0.7708E-04  0.2103E-04  0.5241E-04  0.7323E-01 -0.6311E-03
   -0.042497    4.46037  0.0000E+00  0.4135E-04  0.5634E-05  0.5230E-04  0.2418E-01 -0.2908E-02
   -0.084995    4.47506  0.0000E+00  0.2795E-04  0.2184E-05  0.5245E-04  0.1655E-01 -0.2788E-02
   -0.127493    4.48711  0.0000E+00  0.1932E-04  0.9448E-06  0.5421E-04  0.1218E-01 -0.5576E-02
   -0.169992    4.49826  0.0000E+00  0.1353E-04  0.4404E-06  0.5403E-04  0.9058E-02 -0.1042E-01
   -0.212491    4.50943  0.0000E+00  0.9441E-05  0.2142E-06  0.5226E-04  0.6655E-02 -0.2217E-01
   -0.254990    4.52102  0.0000E+00  0.6557E-05  0.1074E-06  0.5002E-04  0.4844E-02  0.4128E+00
   -0.297489    4.53316  0.0000E+00  0.4614E-05  0.5580E-07  0.4786E-04  0.3553E-02 -0.4673E-02
   -0.339989    4.54574  0.0000E+00  0.3353E-05  0.3062E-07  0.4659E-04  0.2626E-02 -0.1340E+00
   -0.382489    4.55846  0.0000E+00  0.2521E-05  0.1768E-07  0.4797E-04  0.1923E-02  0.2266E+02
   -0.424989    4.57064  0.0000E+00  0.1987E-05  0.1088E-07  0.5154E-04  0.1420E-02  0.3521E+01
   -0.467489    4.58181  0.0000E+00  0.1636E-05  0.7114E-08  0.5884E-04  0.1029E-02  0.1055E+01
   -0.509990    4.59156  0.0000E+00  0.1402E-05  0.4923E-08  0.7144E-04  0.7316E-03  0.1248E+02
   -0.552491    4.59971  0.0000E+00  0.1246E-05  0.3605E-08  0.9167E-04  0.5134E-03  0.1172E+03
   -0.594992    4.60621  0.0000E+00  0.1144E-05  0.2803E-08  0.1205E-03  0.3555E-03  0.5453E+03
   -0.637493    4.61117  0.0000E+00  0.1080E-05  0.2311E-08  0.1531E-03  0.2484E-03  0.2994E+03
   -0.679994    4.61490  0.0000E+00  0.1040E-05  0.2004E-08  0.1794E-03  0.1818E-03  0.1001E+04
   -0.722495    4.61783  0.0000E+00  0.1015E-05  0.1795E-08  0.1945E-03  0.1387E-03  0.1968E+03
   -0.764997    4.62043  0.0000E+00  0.9978E-06  0.1636E-08  0.2059E-03  0.1091E-03  0.7708E+03
   -0.807498    4.62285  0.0000E+00  0.9852E-06  0.1507E-08  0.2165E-03  0.8779E-04  0.5221E+02
   -0.849999    4.62512  0.0000E+00  0.9758E-06  0.1402E-08  0.2267E-03  0.7155E-04  0.2223E+02
   -0.892501    4.62727  0.0000E+00  0.9685E-06  0.1314E-08  0.2367E-03  0.5890E-04  0.2935E+02
   -0.935002    4.62931  0.0000E+00  0.9629E-06  0.1240E-08  0.2464E-03  0.4903E-04  0.4003E+02
   -0.977503    4.63124  0.0000E+00  0.9582E-06  0.1179E-08  0.2554E-03  0.4099E-04  0.5080E+02
   -1.020005    4.63308  0.0000E+00  0.9542E-06  0.1127E-08  0.2638E-03  0.3450E-04  0.6591E+02
   -1.062506    4.63482  0.0000E+00  0.9506E-06  0.1085E-08  0.2712E-03  0.2907E-04  0.8003E+02
   -1.105007    4.63648  0.0000E+00  0.9471E-06  0.1049E-08  0.2776E-03  0.2451E-04  0.9599E+02
   -1.147508    4.63807  0.0000E+00  0.9437E-06  0.1021E-08  0.2827E-03  0.2050E-04  0.1143E+03
   -1.190009    4.63958  0.0000E+00  0.9403E-06  0.1000E-08  0.2863E-03  0.1687E-04  0.1343E+03
   -1.232509    4.64104  0.0000E+00  0.9368E-06  0.9852E-09  0.2883E-03  0.1361E-04  0.1646E+03
   -1.275010    4.64246  0.0000E+00  0.9329E-06  0.9751E-09  0.2889E-03  0.1091E-04  0.2361E+03
   -1.317510    4.64386  0.0000E+00  0.9286E-06  0.9707E-09  0.2875E-03  0.8671E-05  0.3584E+03
   -1.360010    4.64525  0.0000E+00  0.9234E-06  0.9730E-09  0.2838E-03  0.6861E-05  0.5504E+03
   -1.402510    4.64664  0.0000E+00  0.9172E-06  0.9838E-09  0.2776E-03  0.5440E-05  0.9333E+03
   -1.445009    4.64804  0.0000E+00  0.9105E-06  0.1005E-08  0.2693E-03  0.4270E-05  0.1587E+04
   -1.487508    4.64944  0.0000E+00  0.9034E-06  0.1039E-08  0.2578E-03  0.3227E-05  0.2192E+04
   -1.530007    4.65087  0.0000E+00  0.8947E-06  0.1103E-08  0.2402E-03  0.2304E-05  0.2808E+04
   -1.572505    4.65238  0.0000E+00  0.8799E-06  0.1252E-08  0.2064E-03  0.1570E-05  0.5537E+04
   -1.615004    4.65417  0.0000E+00  0.8385E-06  0.1771E-08  0.1510E-03  0.1102E-05  0.6060E+05
   -1.657501    4.65665  0.0000E+00  0.5879E-06  0.6236E-08  0.8229E-05  0.7646E-06 -0.1441E+08
   -1.699999    4.70075  0.0000E+00  0.0000E+00  0.0000E+00  0.0000E+00  0.7653E-06  0.0000E+00
