 1 - depth, m
 2 - temperature, C
 3 - salinity, kg/kg
 4 - turbulent kinetic energy, m**2/s**2
 5 - dissipation rate, m**2/s**3
 6 - kinematic heat conductance, m**2/s
 7 - modulus of horizontal velocity, m/s
 8 - Richardson number, n/d
   -0.000000    0.00000  0.0000E+00  0.3189E-13  0.5207E-16  0.1000E-09  0.0000E+00  0.9655E+16
   -0.042497    0.14776  0.0000E+00  0.3189E-13  0.5207E-16  0.1000E-09  0.0000E+00  0.9543E+16
   -0.084995    0.30002  0.0000E+00  0.3189E-13  0.5207E-16  0.1000E-09  0.0000E+00  0.9365E+16
   -0.127493    0.45623  0.0000E+00  0.3189E-13  0.5207E-16  0.1000E-09  0.0000E+00  0.8882E+16
   -0.169991    0.61148  0.0000E+00  0.3189E-13  0.5207E-16  0.1000E-09  0.0000E+00  0.8401E+16
   -0.212490    0.76561  0.0000E+00  0.3189E-13  0.5207E-16  0.1000E-09  0.0000E+00  0.7930E+16
   -0.254989    0.91859  0.0000E+00  0.3189E-13  0.5207E-16  0.1000E-09  0.0000E+00  0.7463E+16
   -0.297488    1.07030  0.0000E+00  0.3189E-13  0.5207E-16  0.1000E-09  0.0000E+00  0.6985E+16
   -0.339988    1.22019  0.0000E+00  0.3189E-13  0.5207E-16  0.1000E-09  0.0000E+00  0.6493E+16
   -0.382488    1.36759  0.0000E+00  0.3189E-13  0.5207E-16  0.1000E-09  0.0000E+00  0.6011E+16
   -0.424988    1.51220  0.0000E+00  0.3189E-13  0.5207E-16  0.1000E-09  0.0000E+00  0.5527E+16
   -0.467488    1.65341  0.0000E+00  0.3189E-13  0.5207E-16  0.1000E-09  0.0000E+00  0.5060E+16
   -0.509989    1.79099  0.0000E+00  0.3189E-13  0.5207E-16  0.1000E-09  0.0000E+00  0.4640E+16
   -0.552490    1.92549  0.0000E+00  0.3189E-13  0.5207E-16  0.1000E-09  0.0000E+00  0.4239E+16
   -0.594991    2.05685  0.0000E+00  0.3189E-13  0.5207E-16  0.1000E-09  0.0000E+00  0.3865E+16
   -0.637491    2.18521  0.0000E+00  0.3189E-13  0.5207E-16  0.1000E-09  0.0000E+00  0.3520E+16
   -0.679993    2.31095  0.0000E+00  0.3189E-13  0.5207E-16  0.1000E-09  0.0000E+00  0.3187E+16
   -0.722494    2.43382  0.0000E+00  0.3189E-13  0.5207E-16  0.1000E-09  0.0000E+00  0.2872E+16
   -0.764995    2.55377  0.0000E+00  0.3189E-13  0.5207E-16  0.1000E-09  0.0000E+00  0.2568E+16
   -0.807496    2.67045  0.0000E+00  0.3189E-13  0.5207E-16  0.1000E-09  0.0000E+00  0.2264E+16
   -0.849998    2.78293  0.0000E+00  0.3189E-13  0.5207E-16  0.1000E-09  0.0000E+00  0.1972E+16
   -0.892499    2.89045  0.0000E+00  0.3189E-13  0.5207E-16  0.1000E-09  0.0000E+00  0.1730E+16
   -0.935000    2.99450  0.0000E+00  0.3189E-13  0.5207E-16  0.1000E-09  0.0000E+00  0.1514E+16
   -0.977501    3.09568  0.0000E+00  0.3189E-13  0.5207E-16  0.1000E-09  0.0000E+00  0.1311E+16
   -1.020002    3.19384  0.0000E+00  0.3189E-13  0.5207E-16  0.1000E-09  0.0000E+00  0.1112E+16
   -1.062504    3.28792  0.0000E+00  0.9197E-13  0.5344E-16  0.1000E-09  0.0000E+00  0.9278E+15
   -1.105005    3.37761  0.0000E+00  0.2876E-12  0.1234E-15  0.1000E-09  0.0000E+00  0.7548E+15
   -1.147505    3.46190  0.0000E+00  0.7916E-12  0.3172E-15  0.1000E-09  0.0000E+00  0.5987E+15
   -1.190006    3.54005  0.0000E+00  0.2089E-11  0.8097E-15  0.1000E-09  0.0000E+00  0.4669E+15
   -1.232507    3.61224  0.0000E+00  0.5577E-11  0.2101E-14  0.1000E-09  0.0000E+00  0.3593E+15
   -1.275007    3.67922  0.0000E+00  0.1493E-10  0.5480E-14  0.1000E-09  0.0000E+00  0.2744E+15
   -1.317507    3.74253  0.0000E+00  0.4001E-10  0.1432E-13  0.2012E-09  0.0000E+00  0.2205E+15
   -1.360007    3.80920  0.0000E+00  0.1077E-09  0.3762E-13  0.7268E-09  0.0000E+00  0.1596E+15
   -1.402507    3.88127  0.0000E+00  0.2913E-09  0.9947E-13  0.3853E-08  0.0000E+00  0.7827E+14
   -1.445006    3.95385  0.0000E+00  0.7277E-09  0.2448E-12  0.8000E-07  0.0000E+00  0.6916E+13
   -1.487505    3.99980  0.0000E+00  0.1525E-08  0.5383E-12  0.1296E-05  0.0000E+00 -0.1938E+13
   -1.530004    4.00703  0.0000E+00  0.2302E-08  0.9745E-12  0.1722E-05  0.0000E+00 -0.2889E+13
   -1.572502    4.01456  0.0000E+00  0.3366E-08  0.1921E-11  0.2354E-05  0.0000E+00 -0.5890E+13
   -1.615000    4.02568  0.0000E+00  0.4540E-08  0.4159E-11  0.1748E-05  0.0000E+00 -0.1432E+14
   -1.657498    4.04445  0.0000E+00  0.4767E-08  0.9847E-11  0.6637E-06  0.0000E+00 -0.6443E+14
   -1.699995    4.09408  0.0000E+00  0.0000E+00  0.0000E+00  0.0000E+00  0.0000E+00  0.0000E+00
