 1 - depth, m
 2 - temperature, C
 3 - salinity, kg/kg
 4 - turbulent kinetic energy, m**2/s**2
 5 - dissipation rate, m**2/s**3
 6 - kinematic heat conductance, m**2/s
 7 - modulus of horizontal velocity, m/s
 8 - Richardson number, n/d
   -0.000000    0.00000  0.0000E+00  0.3868E-12  0.8320E-16  0.1000E-09  0.0000E+00  0.1552E+17
   -0.042497    0.24055  0.0000E+00  0.5864E-12  0.8205E-16  0.1000E-09  0.0000E+00  0.1433E+17
   -0.084994    0.47833  0.0000E+00  0.9900E-12  0.1061E-15  0.1000E-09  0.0000E+00  0.1318E+17
   -0.127492    0.71306  0.0000E+00  0.1663E-11  0.1564E-15  0.1000E-09  0.0000E+00  0.1185E+17
   -0.169990    0.94053  0.0000E+00  0.2736E-11  0.2415E-15  0.1000E-09  0.0000E+00  0.1063E+17
   -0.212488    1.16103  0.0000E+00  0.4435E-11  0.3779E-15  0.1000E-09  0.0000E+00  0.9522E+16
   -0.254987    1.37503  0.0000E+00  0.7128E-11  0.5936E-15  0.1000E-09  0.0000E+00  0.8501E+16
   -0.297486    1.58287  0.0000E+00  0.1140E-10  0.9327E-15  0.1000E-09  0.0000E+00  0.7545E+16
   -0.339985    1.78444  0.0000E+00  0.1802E-10  0.1453E-14  0.1000E-09  0.0000E+00  0.6650E+16
   -0.382485    1.97946  0.0000E+00  0.2833E-10  0.2253E-14  0.1000E-09  0.0000E+00  0.5830E+16
   -0.424984    2.16818  0.0000E+00  0.4422E-10  0.3472E-14  0.1000E-09  0.0000E+00  0.5071E+16
   -0.467484    2.35051  0.0000E+00  0.6866E-10  0.5325E-14  0.1000E-09  0.0000E+00  0.4379E+16
   -0.509984    2.52672  0.0000E+00  0.1063E-09  0.8146E-14  0.1000E-09  0.0000E+00  0.3784E+16
   -0.552485    2.69878  0.0000E+00  0.1644E-09  0.1245E-13  0.1000E-09  0.0000E+00  0.3236E+16
   -0.594985    2.86721  0.0000E+00  0.2540E-09  0.1903E-13  0.1000E-09  0.0000E+00  0.2732E+16
   -0.637486    3.03272  0.0000E+00  0.3953E-09  0.2930E-13  0.1000E-09  0.0000E+00  0.2266E+16
   -0.679986    3.19638  0.0000E+00  0.6183E-09  0.4537E-13  0.1003E-09  0.0000E+00  0.1815E+16
   -0.722487    3.35794  0.0000E+00  0.9724E-09  0.7067E-13  0.1612E-09  0.0000E+00  0.1380E+16
   -0.764988    3.51711  0.0000E+00  0.1538E-08  0.1108E-12  0.3644E-09  0.0000E+00  0.9573E+15
   -0.807489    3.67230  0.0000E+00  0.2440E-08  0.1742E-12  0.9876E-09  0.0000E+00  0.5534E+15
   -0.849990    3.81924  0.0000E+00  0.3841E-08  0.2721E-12  0.4246E-08  0.0000E+00  0.2034E+15
   -0.892491    3.95098  0.0000E+00  0.5239E-08  0.3755E-12  0.6299E-05  0.0000E+00  0.1788E+14
   -0.934992    3.99521  0.0000E+00  0.5553E-08  0.4004E-12  0.2660E-04  0.0000E+00 -0.7995E+11
   -0.977492    3.99596  0.0000E+00  0.5754E-08  0.4184E-12  0.2812E-04  0.0000E+00 -0.8589E+11
   -1.019993    3.99664  0.0000E+00  0.5944E-08  0.4376E-12  0.2957E-04  0.0000E+00 -0.8992E+11
   -1.062494    3.99727  0.0000E+00  0.6125E-08  0.4583E-12  0.3083E-04  0.0000E+00 -0.9368E+11
   -1.104995    3.99787  0.0000E+00  0.6296E-08  0.4804E-12  0.3165E-04  0.0000E+00 -0.9739E+11
   -1.147495    3.99846  0.0000E+00  0.6453E-08  0.5039E-12  0.3198E-04  0.0000E+00 -0.1015E+12
   -1.189995    3.99903  0.0000E+00  0.6596E-08  0.5290E-12  0.3206E-04  0.0000E+00 -0.1068E+12
   -1.232495    3.99959  0.0000E+00  0.6733E-08  0.5574E-12  0.3209E-04  0.0000E+00 -0.1152E+12
   -1.274995    4.00017  0.0000E+00  0.6866E-08  0.5905E-12  0.3181E-04  0.0000E+00 -0.1259E+12
   -1.317495    4.00077  0.0000E+00  0.6994E-08  0.6301E-12  0.3119E-04  0.0000E+00 -0.1397E+12
   -1.359995    4.00141  0.0000E+00  0.7119E-08  0.6794E-12  0.3023E-04  0.0000E+00 -0.1591E+12
   -1.402494    4.00210  0.0000E+00  0.7245E-08  0.7450E-12  0.2851E-04  0.0000E+00 -0.1828E+12
   -1.444993    4.00285  0.0000E+00  0.7360E-08  0.8285E-12  0.2555E-04  0.0000E+00 -0.2153E+12
   -1.487491    4.00370  0.0000E+00  0.7462E-08  0.9415E-12  0.2223E-04  0.0000E+00 -0.2677E+12
   -1.529990    4.00470  0.0000E+00  0.7559E-08  0.1128E-11  0.1913E-04  0.0000E+00 -0.3835E+12
   -1.572488    4.00604  0.0000E+00  0.7640E-08  0.1527E-11  0.1618E-04  0.0000E+00 -0.7431E+12
   -1.614986    4.00837  0.0000E+00  0.7468E-08  0.3088E-11  0.5938E-05  0.0000E+00 -0.2885E+13
   -1.657483    4.01563  0.0000E+00  0.5964E-08  0.1006E-10  0.8185E-06  0.0000E+00 -0.3585E+14
   -1.699980    4.06005  0.0000E+00  0.0000E+00  0.0000E+00  0.0000E+00  0.0000E+00  0.0000E+00
