 1 - depth, m
 2 - temperature, C
 3 - salinity, kg/kg
 4 - turbulent kinetic energy, m**2/s**2
 5 - dissipation rate, m**2/s**3
 6 - kinematic heat conductance, m**2/s
 7 - modulus of horizontal velocity, m/s
 8 - Richardson number, n/d
   -0.000000   10.60429  0.0000E+00  0.2041E-03  0.3846E-03  0.5519E-04  0.1282E+00 -0.7372E-02
   -0.042498   10.63416  0.0000E+00  0.1063E-03  0.1385E-03  0.1093E-03  0.3378E-01 -0.1161E-01
   -0.084996   10.64209  0.0000E+00  0.7333E-04  0.6854E-04  0.9888E-04  0.2165E-01 -0.1779E-01
   -0.127495   10.64774  0.0000E+00  0.5444E-04  0.4041E-04  0.9530E-04  0.1667E-01 -0.5396E-01
   -0.169994   10.65254  0.0000E+00  0.4088E-04  0.2100E-04  0.9406E-04  0.1318E-01 -0.4771E-01
   -0.212493   10.65691  0.0000E+00  0.3083E-04  0.1201E-04  0.9446E-04  0.1037E-01 -0.8886E-01
   -0.254993   10.66113  0.0000E+00  0.2328E-04  0.6078E-05  0.9817E-04  0.8175E-02 -0.2020E+00
   -0.297493   10.66508  0.0000E+00  0.1811E-04  0.3345E-05  0.1045E-03  0.6549E-02  0.1938E+00
   -0.339993   10.66860  0.0000E+00  0.1460E-04  0.1948E-05  0.1206E-03  0.5345E-02  0.5371E+01
   -0.382494   10.67148  0.0000E+00  0.1208E-04  0.1124E-05  0.1634E-03  0.4383E-02  0.2042E+03
   -0.424994   10.67375  0.0000E+00  0.1025E-04  0.6256E-06  0.1860E-03  0.3693E-02  0.2562E+02
   -0.467495   10.67573  0.0000E+00  0.8887E-05  0.3392E-06  0.2073E-03  0.3083E-02  0.6119E+02
   -0.509997   10.67743  0.0000E+00  0.7836E-05  0.1861E-06  0.2304E-03  0.2555E-02  0.2177E+03
   -0.552498   10.67897  0.0000E+00  0.7016E-05  0.1134E-06  0.2563E-03  0.2103E-02  0.2186E+02
   -0.594999   10.68021  0.0000E+00  0.6360E-05  0.7454E-07  0.2830E-03  0.1717E-02  0.5407E+04
   -0.637501   10.68145  0.0000E+00  0.5815E-05  0.5368E-07  0.3083E-03  0.1396E-02  0.3164E+01
   -0.680003   10.68239  0.0000E+00  0.5361E-05  0.4063E-07  0.3322E-03  0.1144E-02  0.7120E+01
   -0.722504   10.68338  0.0000E+00  0.4980E-05  0.3188E-07  0.3583E-03  0.9388E-03  0.6426E+02
   -0.765006   10.68417  0.0000E+00  0.4663E-05  0.2568E-07  0.3868E-03  0.7800E-03  0.2235E+01
   -0.807508   10.68495  0.0000E+00  0.4397E-05  0.2111E-07  0.4091E-03  0.6580E-03  0.3908E+02
   -0.850010   10.68563  0.0000E+00  0.4177E-05  0.1767E-07  0.4293E-03  0.5600E-03  0.3395E+02
   -0.892512   10.68628  0.0000E+00  0.3991E-05  0.1501E-07  0.4490E-03  0.4796E-03  0.8080E+01
   -0.935014   10.68688  0.0000E+00  0.3837E-05  0.1295E-07  0.4678E-03  0.4137E-03  0.1153E+02
   -0.977516   10.68744  0.0000E+00  0.3709E-05  0.1135E-07  0.4839E-03  0.3579E-03  0.2352E+02
   -1.020018   10.68796  0.0000E+00  0.3600E-05  0.1009E-07  0.4983E-03  0.3109E-03  0.1001E+03
   -1.062519   10.68846  0.0000E+00  0.3508E-05  0.9102E-08  0.5105E-03  0.2700E-03  0.3115E+02
   -1.105021   10.68893  0.0000E+00  0.3428E-05  0.8319E-08  0.5196E-03  0.2345E-03  0.8917E+01
   -1.147522   10.68939  0.0000E+00  0.3362E-05  0.7716E-08  0.5267E-03  0.2022E-03  0.9483E+01
   -1.190024   10.68982  0.0000E+00  0.3305E-05  0.7262E-08  0.5309E-03  0.1722E-03  0.1078E+02
   -1.232525   10.69024  0.0000E+00  0.3255E-05  0.6911E-08  0.5327E-03  0.1446E-03  0.1161E+02
   -1.275026   10.69066  0.0000E+00  0.3210E-05  0.6651E-08  0.5320E-03  0.1211E-03  0.1550E+02
   -1.317527   10.69106  0.0000E+00  0.3169E-05  0.6470E-08  0.5280E-03  0.1014E-03  0.2035E+02
   -1.360027   10.69147  0.0000E+00  0.3129E-05  0.6365E-08  0.5194E-03  0.8493E-04  0.2829E+02
   -1.402527   10.69188  0.0000E+00  0.3089E-05  0.6339E-08  0.5059E-03  0.7149E-04  0.4186E+02
   -1.445027   10.69229  0.0000E+00  0.3052E-05  0.6408E-08  0.4878E-03  0.5993E-04  0.6244E+02
   -1.487527   10.69271  0.0000E+00  0.3017E-05  0.6591E-08  0.4651E-03  0.4926E-04  0.7800E+02
   -1.530026   10.69314  0.0000E+00  0.2978E-05  0.7007E-08  0.4296E-03  0.3936E-04  0.9345E+02
   -1.572525   10.69360  0.0000E+00  0.2916E-05  0.8057E-08  0.3642E-03  0.3051E-04  0.1754E+03
   -1.615024   10.69415  0.0000E+00  0.2751E-05  0.1194E-07  0.2734E-03  0.2430E-04 -0.7878E+02
   -1.657522   10.69502  0.0000E+00  0.1869E-05  0.4173E-07  0.1706E-04  0.1887E-04 -0.1439E+08
   -1.700020   10.70784  0.0000E+00  0.0000E+00  0.0000E+00  0.0000E+00  0.1979E-04  0.0000E+00
