 1 - depth, m
 2 - temperature, C
 3 - salinity, kg/kg
 4 - turbulent kinetic energy, m**2/s**2
 5 - dissipation rate, m**2/s**3
 6 - kinematic heat conductance, m**2/s
 7 - modulus of horizontal velocity, m/s
 8 - Richardson number, n/d
   -0.000000    0.00000  0.0000E+00  0.3189E-13  0.5206E-16  0.1000E-09  0.0000E+00  0.6795E+16
   -0.042498    0.10337  0.0000E+00  0.3189E-13  0.5206E-16  0.1000E-09  0.0000E+00  0.7060E+16
   -0.084996    0.21397  0.0000E+00  0.3189E-13  0.5206E-16  0.1000E-09  0.0000E+00  0.7243E+16
   -0.127495    0.33115  0.0000E+00  0.3189E-13  0.5206E-16  0.1000E-09  0.0000E+00  0.7085E+16
   -0.169993    0.44976  0.0000E+00  0.3189E-13  0.5206E-16  0.1000E-09  0.0000E+00  0.6895E+16
   -0.212493    0.56938  0.0000E+00  0.3189E-13  0.5206E-16  0.1000E-09  0.0000E+00  0.6682E+16
   -0.254992    0.68970  0.0000E+00  0.3189E-13  0.5206E-16  0.1000E-09  0.0000E+00  0.6453E+16
   -0.297492    0.81047  0.0000E+00  0.3189E-13  0.5206E-16  0.1000E-09  0.0000E+00  0.6211E+16
   -0.339992    0.93146  0.0000E+00  0.3189E-13  0.5206E-16  0.1000E-09  0.0000E+00  0.5960E+16
   -0.382493    1.05250  0.0000E+00  0.3189E-13  0.5206E-16  0.1000E-09  0.0000E+00  0.5703E+16
   -0.424993    1.17345  0.0000E+00  0.3189E-13  0.5206E-16  0.1000E-09  0.0000E+00  0.5443E+16
   -0.467494    1.29418  0.0000E+00  0.3189E-13  0.5206E-16  0.1000E-09  0.0000E+00  0.5181E+16
   -0.509995    1.41462  0.0000E+00  0.3189E-13  0.5206E-16  0.1000E-09  0.0000E+00  0.4930E+16
   -0.552496    1.53497  0.0000E+00  0.3189E-13  0.5206E-16  0.1000E-09  0.0000E+00  0.4683E+16
   -0.594998    1.65525  0.0000E+00  0.3189E-13  0.5206E-16  0.1000E-09  0.0000E+00  0.4440E+16
   -0.637499    1.77559  0.0000E+00  0.3189E-13  0.5206E-16  0.1000E-09  0.0000E+00  0.4204E+16
   -0.680001    1.89615  0.0000E+00  0.3189E-13  0.5206E-16  0.1000E-09  0.0000E+00  0.3968E+16
   -0.722503    2.01693  0.0000E+00  0.3189E-13  0.5206E-16  0.1000E-09  0.0000E+00  0.3733E+16
   -0.765004    2.13800  0.0000E+00  0.3189E-13  0.5206E-16  0.1000E-09  0.0000E+00  0.3495E+16
   -0.807506    2.25927  0.0000E+00  0.3189E-13  0.5206E-16  0.1000E-09  0.0000E+00  0.3246E+16
   -0.850008    2.38033  0.0000E+00  0.3189E-13  0.5206E-16  0.1000E-09  0.0000E+00  0.2990E+16
   -0.892510    2.50080  0.0000E+00  0.3189E-13  0.5206E-16  0.1000E-09  0.0000E+00  0.2747E+16
   -0.935012    2.62105  0.0000E+00  0.3290E-13  0.5206E-16  0.1000E-09  0.0000E+00  0.2505E+16
   -0.977513    2.74105  0.0000E+00  0.1389E-12  0.6114E-16  0.1000E-09  0.0000E+00  0.2262E+16
   -1.020015    2.86057  0.0000E+00  0.4032E-12  0.1338E-15  0.1000E-09  0.0000E+00  0.2011E+16
   -1.062517    2.97894  0.0000E+00  0.1015E-11  0.3134E-15  0.1000E-09  0.0000E+00  0.1764E+16
   -1.105018    3.09584  0.0000E+00  0.2438E-11  0.7275E-15  0.1000E-09  0.0000E+00  0.1518E+16
   -1.147519    3.21060  0.0000E+00  0.5692E-11  0.1653E-14  0.1000E-09  0.0000E+00  0.1278E+16
   -1.190021    3.32270  0.0000E+00  0.1312E-10  0.3712E-14  0.1000E-09  0.0000E+00  0.1054E+16
   -1.232522    3.43220  0.0000E+00  0.3076E-10  0.8483E-14  0.1000E-09  0.0000E+00  0.8470E+15
   -1.275023    3.53936  0.0000E+00  0.7266E-10  0.1954E-13  0.1028E-09  0.0000E+00  0.6590E+15
   -1.317523    3.64550  0.0000E+00  0.1722E-09  0.4518E-13  0.2851E-09  0.0000E+00  0.4982E+15
   -1.360024    3.75644  0.0000E+00  0.4108E-09  0.1052E-12  0.1045E-08  0.0000E+00  0.3162E+15
   -1.402524    3.87413  0.0000E+00  0.9843E-09  0.2464E-12  0.7828E-08  0.0000E+00  0.9855E+14
   -1.445024    3.99103  0.0000E+00  0.1853E-08  0.4629E-12  0.2226E-05  0.0000E+00 -0.9599E+12
   -1.487523    3.99855  0.0000E+00  0.2449E-08  0.6750E-12  0.3032E-05  0.0000E+00 -0.1279E+13
   -1.530022    4.00403  0.0000E+00  0.3032E-08  0.9900E-12  0.3358E-05  0.0000E+00 -0.1848E+13
   -1.572521    4.00977  0.0000E+00  0.3703E-08  0.1604E-11  0.3633E-05  0.0000E+00 -0.3481E+13
   -1.615020    4.01785  0.0000E+00  0.4311E-08  0.3135E-11  0.2148E-05  0.0000E+00 -0.9143E+13
   -1.657518    4.03281  0.0000E+00  0.3920E-08  0.7154E-11  0.5759E-06  0.0000E+00 -0.4770E+14
   -1.700016    4.07719  0.0000E+00  0.0000E+00  0.0000E+00  0.0000E+00  0.0000E+00  0.0000E+00
