 1 - depth, m
 2 - temperature, C
 3 - salinity, kg/kg
 4 - turbulent kinetic energy, m**2/s**2
 5 - dissipation rate, m**2/s**3
 6 - kinematic heat conductance, m**2/s
 7 - modulus of horizontal velocity, m/s
 8 - Richardson number, n/d
   -0.000000    0.00000  0.0000E+00  0.3189E-13  0.5206E-16  0.1000E-09  0.0000E+00  0.1081E+17
   -0.042497    0.16584  0.0000E+00  0.3189E-13  0.5206E-16  0.1000E-09  0.0000E+00  0.1075E+17
   -0.084995    0.33866  0.0000E+00  0.3189E-13  0.5206E-16  0.1000E-09  0.0000E+00  0.1058E+17
   -0.127493    0.51782  0.0000E+00  0.3189E-13  0.5206E-16  0.1000E-09  0.0000E+00  0.9973E+16
   -0.169992    0.69612  0.0000E+00  0.3189E-13  0.5206E-16  0.1000E-09  0.0000E+00  0.9365E+16
   -0.212491    0.87338  0.0000E+00  0.1344E-12  0.5206E-16  0.1000E-09  0.0000E+00  0.8760E+16
   -0.254990    1.04940  0.0000E+00  0.3730E-12  0.6742E-16  0.1000E-09  0.0000E+00  0.8159E+16
   -0.297490    1.22392  0.0000E+00  0.7960E-12  0.1124E-15  0.1000E-09  0.0000E+00  0.7564E+16
   -0.339989    1.39673  0.0000E+00  0.1515E-11  0.1958E-15  0.1000E-09  0.0000E+00  0.6980E+16
   -0.382490    1.56763  0.0000E+00  0.2750E-11  0.3413E-15  0.1000E-09  0.0000E+00  0.6407E+16
   -0.424990    1.73638  0.0000E+00  0.4866E-11  0.5889E-15  0.1000E-09  0.0000E+00  0.5852E+16
   -0.467490    1.90289  0.0000E+00  0.8490E-11  0.1007E-14  0.1000E-09  0.0000E+00  0.5311E+16
   -0.509991    2.06692  0.0000E+00  0.1470E-10  0.1713E-14  0.1000E-09  0.0000E+00  0.4820E+16
   -0.552492    2.22944  0.0000E+00  0.2536E-10  0.2901E-14  0.1000E-09  0.0000E+00  0.4344E+16
   -0.594993    2.39048  0.0000E+00  0.4356E-10  0.4898E-14  0.1000E-09  0.0000E+00  0.3883E+16
   -0.637494    2.55009  0.0000E+00  0.7524E-10  0.8314E-14  0.1000E-09  0.0000E+00  0.3440E+16
   -0.679995    2.70844  0.0000E+00  0.1302E-09  0.1414E-13  0.1000E-09  0.0000E+00  0.3005E+16
   -0.722497    2.86534  0.0000E+00  0.2259E-09  0.2412E-13  0.1000E-09  0.0000E+00  0.2581E+16
   -0.764998    3.02069  0.0000E+00  0.3928E-09  0.4124E-13  0.1000E-09  0.0000E+00  0.2168E+16
   -0.807499    3.17422  0.0000E+00  0.6826E-09  0.7048E-13  0.1258E-09  0.0000E+00  0.1762E+16
   -0.850001    3.32517  0.0000E+00  0.1173E-08  0.1192E-12  0.2734E-09  0.0000E+00  0.1372E+16
   -0.892502    3.47287  0.0000E+00  0.2009E-08  0.2007E-12  0.6226E-09  0.0000E+00  0.1014E+16
   -0.935004    3.61887  0.0000E+00  0.3401E-08  0.3346E-12  0.1567E-08  0.0000E+00  0.6716E+15
   -0.977505    3.76343  0.0000E+00  0.5714E-08  0.5533E-12  0.5166E-08  0.0000E+00  0.3370E+15
   -1.020006    3.90407  0.0000E+00  0.9325E-08  0.8915E-12  0.5653E-07  0.0000E+00  0.4962E+14
   -1.062508    4.00722  0.0000E+00  0.9807E-08  0.9402E-12  0.4204E-04  0.0000E+00 -0.1592E+12
   -1.105009    4.00770  0.0000E+00  0.1003E-07  0.9669E-12  0.4132E-04  0.0000E+00 -0.1638E+12
   -1.147510    4.00818  0.0000E+00  0.1023E-07  0.9948E-12  0.4153E-04  0.0000E+00 -0.1639E+12
   -1.190011    4.00866  0.0000E+00  0.1041E-07  0.1024E-11  0.4158E-04  0.0000E+00 -0.1651E+12
   -1.232511    4.00912  0.0000E+00  0.1057E-07  0.1057E-11  0.4150E-04  0.0000E+00 -0.1703E+12
   -1.275012    4.00959  0.0000E+00  0.1072E-07  0.1096E-11  0.4117E-04  0.0000E+00 -0.1777E+12
   -1.317512    4.01008  0.0000E+00  0.1085E-07  0.1143E-11  0.4063E-04  0.0000E+00 -0.1894E+12
   -1.360012    4.01058  0.0000E+00  0.1098E-07  0.1202E-11  0.3972E-04  0.0000E+00 -0.2064E+12
   -1.402512    4.01112  0.0000E+00  0.1110E-07  0.1277E-11  0.3826E-04  0.0000E+00 -0.2238E+12
   -1.445012    4.01169  0.0000E+00  0.1119E-07  0.1368E-11  0.3630E-04  0.0000E+00 -0.2388E+12
   -1.487511    4.01228  0.0000E+00  0.1126E-07  0.1490E-11  0.3369E-04  0.0000E+00 -0.2641E+12
   -1.530010    4.01292  0.0000E+00  0.1131E-07  0.1700E-11  0.2979E-04  0.0000E+00 -0.3466E+12
   -1.572508    4.01374  0.0000E+00  0.1131E-07  0.2143E-11  0.2541E-04  0.0000E+00 -0.6098E+12
   -1.615007    4.01512  0.0000E+00  0.1092E-07  0.3883E-11  0.9650E-05  0.0000E+00 -0.2011E+13
   -1.657504    4.01928  0.0000E+00  0.8214E-08  0.1347E-10  0.9987E-06  0.0000E+00 -0.2792E+14
   -1.700002    4.05452  0.0000E+00  0.0000E+00  0.0000E+00  0.0000E+00  0.0000E+00  0.0000E+00
