 1 - depth, m
 2 - temperature, C
 3 - salinity, kg/kg
 4 - turbulent kinetic energy, m**2/s**2
 5 - dissipation rate, m**2/s**3
 6 - kinematic heat conductance, m**2/s
 7 - modulus of horizontal velocity, m/s
 8 - Richardson number, n/d
   -0.000000    0.00000  0.0000E+00  0.4139E-12  0.8757E-16  0.1000E-09  0.0000E+00  0.2148E+17
   -0.042496    0.33740  0.0000E+00  0.6287E-12  0.8589E-16  0.1000E-09  0.0000E+00  0.1863E+17
   -0.084993    0.65958  0.0000E+00  0.1065E-11  0.1114E-15  0.1000E-09  0.0000E+00  0.1610E+17
   -0.127490    0.96721  0.0000E+00  0.1798E-11  0.1654E-15  0.1000E-09  0.0000E+00  0.1367E+17
   -0.169987    1.25701  0.0000E+00  0.2981E-11  0.2581E-15  0.1000E-09  0.0000E+00  0.1156E+17
   -0.212485    1.52984  0.0000E+00  0.4880E-11  0.4096E-15  0.1000E-09  0.0000E+00  0.9730E+16
   -0.254983    1.78683  0.0000E+00  0.7941E-11  0.6539E-15  0.1000E-09  0.0000E+00  0.8141E+16
   -0.297481    2.02865  0.0000E+00  0.1289E-10  0.1046E-14  0.1000E-09  0.0000E+00  0.6736E+16
   -0.339980    2.25499  0.0000E+00  0.2073E-10  0.1663E-14  0.1000E-09  0.0000E+00  0.5497E+16
   -0.382478    2.46524  0.0000E+00  0.3320E-10  0.2634E-14  0.1000E-09  0.0000E+00  0.4440E+16
   -0.424977    2.65982  0.0000E+00  0.5289E-10  0.4150E-14  0.1000E-09  0.0000E+00  0.3536E+16
   -0.467477    2.83872  0.0000E+00  0.8390E-10  0.6512E-14  0.1000E-09  0.0000E+00  0.2781E+16
   -0.509976    3.00248  0.0000E+00  0.1328E-09  0.1020E-13  0.1000E-09  0.0000E+00  0.2194E+16
   -0.552476    3.15457  0.0000E+00  0.2102E-09  0.1595E-13  0.1000E-09  0.0000E+00  0.1706E+16
   -0.594976    3.29595  0.0000E+00  0.3324E-09  0.2494E-13  0.1001E-09  0.0000E+00  0.1302E+16
   -0.637476    3.42773  0.0000E+00  0.5297E-09  0.3928E-13  0.1405E-09  0.0000E+00  0.9706E+15
   -0.679976    3.55149  0.0000E+00  0.8477E-09  0.6213E-13  0.2826E-09  0.0000E+00  0.6888E+15
   -0.722476    3.66750  0.0000E+00  0.1363E-08  0.9871E-13  0.6772E-09  0.0000E+00  0.4534E+15
   -0.764976    3.77659  0.0000E+00  0.2200E-08  0.1575E-12  0.1907E-08  0.0000E+00  0.2546E+15
   -0.807476    3.87918  0.0000E+00  0.3540E-08  0.2507E-12  0.9758E-08  0.0000E+00  0.8604E+14
   -0.849976    3.97140  0.0000E+00  0.4437E-08  0.3152E-12  0.1114E-04  0.0000E+00  0.4127E+13
   -0.892476    3.99571  0.0000E+00  0.4746E-08  0.3393E-12  0.2471E-04  0.0000E+00 -0.8297E+11
   -0.934977    3.99629  0.0000E+00  0.4946E-08  0.3571E-12  0.2629E-04  0.0000E+00 -0.8508E+11
   -0.977477    3.99685  0.0000E+00  0.5133E-08  0.3759E-12  0.2738E-04  0.0000E+00 -0.8857E+11
   -1.019977    3.99739  0.0000E+00  0.5310E-08  0.3958E-12  0.2798E-04  0.0000E+00 -0.9259E+11
   -1.062477    3.99793  0.0000E+00  0.5478E-08  0.4173E-12  0.2829E-04  0.0000E+00 -0.9751E+11
   -1.104977    3.99847  0.0000E+00  0.5639E-08  0.4408E-12  0.2830E-04  0.0000E+00 -0.1025E+12
   -1.147477    3.99901  0.0000E+00  0.5791E-08  0.4665E-12  0.2802E-04  0.0000E+00 -0.1078E+12
   -1.189976    3.99955  0.0000E+00  0.5936E-08  0.4951E-12  0.2764E-04  0.0000E+00 -0.1151E+12
   -1.232476    4.00011  0.0000E+00  0.6080E-08  0.5287E-12  0.2739E-04  0.0000E+00 -0.1274E+12
   -1.274975    4.00069  0.0000E+00  0.6223E-08  0.5687E-12  0.2688E-04  0.0000E+00 -0.1431E+12
   -1.317474    4.00133  0.0000E+00  0.6365E-08  0.6181E-12  0.2598E-04  0.0000E+00 -0.1634E+12
   -1.359973    4.00201  0.0000E+00  0.6511E-08  0.6819E-12  0.2475E-04  0.0000E+00 -0.1932E+12
   -1.402471    4.00279  0.0000E+00  0.6663E-08  0.7705E-12  0.2237E-04  0.0000E+00 -0.2359E+12
   -1.444970    4.00368  0.0000E+00  0.6810E-08  0.8882E-12  0.1879E-04  0.0000E+00 -0.2978E+12
   -1.487468    4.00475  0.0000E+00  0.6953E-08  0.1052E-11  0.1549E-04  0.0000E+00 -0.3956E+12
   -1.529965    4.00607  0.0000E+00  0.7122E-08  0.1331E-11  0.1313E-04  0.0000E+00 -0.6175E+12
   -1.572463    4.00797  0.0000E+00  0.7350E-08  0.1957E-11  0.1123E-04  0.0000E+00 -0.1369E+13
   -1.614960    4.01165  0.0000E+00  0.7477E-08  0.4316E-11  0.4278E-05  0.0000E+00 -0.5734E+13
   -1.657456    4.02321  0.0000E+00  0.6736E-08  0.1315E-10  0.9111E-06  0.0000E+00 -0.5427E+14
   -1.699952    4.07734  0.0000E+00  0.0000E+00  0.0000E+00  0.0000E+00  0.0000E+00  0.0000E+00
