 1 - depth, m
 2 - temperature, C
 3 - salinity, kg/kg
 4 - turbulent kinetic energy, m**2/s**2
 5 - dissipation rate, m**2/s**3
 6 - kinematic heat conductance, m**2/s
 7 - modulus of horizontal velocity, m/s
 8 - Richardson number, n/d
   -0.000000    0.00000  0.0000E+00  0.3109E-11  0.1049E-14  0.1000E-09  0.0000E+00  0.1915E+17
   -0.042497    0.29920  0.0000E+00  0.5676E-11  0.9609E-15  0.1000E-09  0.0000E+00  0.1743E+17
   -0.084994    0.59596  0.0000E+00  0.1071E-10  0.1242E-14  0.1000E-09  0.0000E+00  0.1573E+17
   -0.127491    0.88973  0.0000E+00  0.1902E-10  0.1864E-14  0.1000E-09  0.0000E+00  0.1375E+17
   -0.169989    1.17281  0.0000E+00  0.3232E-10  0.2935E-14  0.1000E-09  0.0000E+00  0.1193E+17
   -0.212487    1.44530  0.0000E+00  0.5354E-10  0.4674E-14  0.1000E-09  0.0000E+00  0.1029E+17
   -0.254985    1.70743  0.0000E+00  0.8757E-10  0.7454E-14  0.1000E-09  0.0000E+00  0.8789E+16
   -0.297484    1.95914  0.0000E+00  0.1422E-09  0.1187E-13  0.1000E-09  0.0000E+00  0.7415E+16
   -0.339983    2.19990  0.0000E+00  0.2281E-09  0.1873E-13  0.1000E-09  0.0000E+00  0.6164E+16
   -0.382482    2.42906  0.0000E+00  0.3634E-09  0.2936E-13  0.1000E-09  0.0000E+00  0.5049E+16
   -0.424982    2.64647  0.0000E+00  0.5743E-09  0.4570E-13  0.1000E-09  0.0000E+00  0.4062E+16
   -0.467481    2.85196  0.0000E+00  0.9018E-09  0.7068E-13  0.1000E-09  0.0000E+00  0.3198E+16
   -0.509981    3.04551  0.0000E+00  0.1410E-08  0.1089E-12  0.1376E-09  0.0000E+00  0.2489E+16
   -0.552481    3.23028  0.0000E+00  0.2200E-08  0.1673E-12  0.2823E-09  0.0000E+00  0.1865E+16
   -0.594981    3.40669  0.0000E+00  0.3422E-08  0.2565E-12  0.6124E-09  0.0000E+00  0.1318E+16
   -0.637482    3.57519  0.0000E+00  0.5352E-08  0.3952E-12  0.1483E-08  0.0000E+00  0.8387E+15
   -0.679982    3.73629  0.0000E+00  0.8384E-08  0.6101E-12  0.4635E-08  0.0000E+00  0.4145E+15
   -0.722483    3.88762  0.0000E+00  0.1298E-07  0.9325E-12  0.4013E-07  0.0000E+00  0.7366E+14
   -0.764983    4.00510  0.0000E+00  0.1333E-07  0.9590E-12  0.6999E-04  0.0000E+00 -0.8947E+11
   -0.807484    4.00540  0.0000E+00  0.1351E-07  0.9744E-12  0.6820E-04  0.0000E+00 -0.9388E+11
   -0.849984    4.00571  0.0000E+00  0.1368E-07  0.9915E-12  0.6853E-04  0.0000E+00 -0.9541E+11
   -0.892485    4.00602  0.0000E+00  0.1385E-07  0.1010E-11  0.6890E-04  0.0000E+00 -0.9735E+11
   -0.934986    4.00633  0.0000E+00  0.1402E-07  0.1031E-11  0.6912E-04  0.0000E+00 -0.9930E+11
   -0.977486    4.00665  0.0000E+00  0.1418E-07  0.1053E-11  0.6919E-04  0.0000E+00 -0.1016E+12
   -1.019987    4.00696  0.0000E+00  0.1432E-07  0.1077E-11  0.6907E-04  0.0000E+00 -0.1036E+12
   -1.062487    4.00728  0.0000E+00  0.1446E-07  0.1103E-11  0.6878E-04  0.0000E+00 -0.1058E+12
   -1.104988    4.00760  0.0000E+00  0.1459E-07  0.1132E-11  0.6831E-04  0.0000E+00 -0.1075E+12
   -1.147488    4.00792  0.0000E+00  0.1470E-07  0.1162E-11  0.6769E-04  0.0000E+00 -0.1088E+12
   -1.189988    4.00824  0.0000E+00  0.1480E-07  0.1194E-11  0.6682E-04  0.0000E+00 -0.1112E+12
   -1.232488    4.00856  0.0000E+00  0.1489E-07  0.1231E-11  0.6576E-04  0.0000E+00 -0.1174E+12
   -1.274987    4.00890  0.0000E+00  0.1497E-07  0.1276E-11  0.6439E-04  0.0000E+00 -0.1251E+12
   -1.317487    4.00925  0.0000E+00  0.1505E-07  0.1330E-11  0.6264E-04  0.0000E+00 -0.1341E+12
   -1.359986    4.00962  0.0000E+00  0.1511E-07  0.1398E-11  0.6038E-04  0.0000E+00 -0.1469E+12
   -1.402485    4.01002  0.0000E+00  0.1517E-07  0.1487E-11  0.5755E-04  0.0000E+00 -0.1600E+12
   -1.444984    4.01044  0.0000E+00  0.1521E-07  0.1596E-11  0.5430E-04  0.0000E+00 -0.1711E+12
   -1.487482    4.01089  0.0000E+00  0.1523E-07  0.1732E-11  0.5039E-04  0.0000E+00 -0.1883E+12
   -1.529980    4.01138  0.0000E+00  0.1523E-07  0.1941E-11  0.4543E-04  0.0000E+00 -0.2388E+12
   -1.572478    4.01198  0.0000E+00  0.1517E-07  0.2386E-11  0.3876E-04  0.0000E+00 -0.4088E+12
   -1.614975    4.01298  0.0000E+00  0.1473E-07  0.4318E-11  0.1520E-04  0.0000E+00 -0.1306E+13
   -1.657472    4.01594  0.0000E+00  0.1117E-07  0.1825E-10  0.1259E-05  0.0000E+00 -0.2425E+14
   -1.699969    4.04936  0.0000E+00  0.0000E+00  0.0000E+00  0.0000E+00  0.0000E+00  0.0000E+00
