 1 - depth, m
 2 - temperature, C
 3 - salinity, kg/kg
 4 - turbulent kinetic energy, m**2/s**2
 5 - dissipation rate, m**2/s**3
 6 - kinematic heat conductance, m**2/s
 7 - modulus of horizontal velocity, m/s
 8 - Richardson number, n/d
   -0.000000   12.16959  0.0000E+00  0.8877E-04  0.3565E-04  0.4144E-04  0.6532E-01 -0.2124E-01
   -0.042498   12.21759  0.0000E+00  0.4941E-04  0.1113E-04  0.7552E-04  0.1812E-01 -0.1199E+00
   -0.084996   12.22959  0.0000E+00  0.3555E-04  0.5331E-05  0.8476E-04  0.1226E-01 -0.1228E+00
   -0.127494   12.23759  0.0000E+00  0.2666E-04  0.2727E-05  0.1134E-03  0.9289E-02  0.2106E+02
   -0.169993   12.24346  0.0000E+00  0.2040E-04  0.1455E-05  0.1335E-03  0.7221E-02  0.1036E+02
   -0.212492   12.24836  0.0000E+00  0.1585E-04  0.7902E-06  0.1602E-03  0.5634E-02  0.2177E+02
   -0.254991   12.25252  0.0000E+00  0.1259E-04  0.4397E-06  0.1926E-03  0.4441E-02  0.7193E+01
   -0.297491   12.25601  0.0000E+00  0.1033E-04  0.2560E-06  0.2305E-03  0.3568E-02  0.3672E+02
   -0.339991   12.25896  0.0000E+00  0.8812E-05  0.1587E-06  0.2698E-03  0.2910E-02  0.1436E+02
   -0.382491   12.26146  0.0000E+00  0.7798E-05  0.1057E-06  0.3157E-03  0.2389E-02  0.5753E+02
   -0.424991   12.26351  0.0000E+00  0.7131E-05  0.7478E-07  0.3641E-03  0.1991E-02  0.2622E+02
   -0.467492   12.26526  0.0000E+00  0.6684E-05  0.5547E-07  0.4149E-03  0.1665E-02  0.7298E+01
   -0.509993   12.26673  0.0000E+00  0.6377E-05  0.4270E-07  0.4662E-03  0.1395E-02  0.2461E+02
   -0.552494   12.26800  0.0000E+00  0.6162E-05  0.3394E-07  0.5161E-03  0.1165E-02  0.3541E+01
   -0.594995   12.26912  0.0000E+00  0.6013E-05  0.2788E-07  0.5644E-03  0.9665E-03  0.4979E+01
   -0.637496   12.27011  0.0000E+00  0.5905E-05  0.2353E-07  0.6113E-03  0.7966E-03  0.2762E+01
   -0.679998   12.27101  0.0000E+00  0.5830E-05  0.2037E-07  0.6559E-03  0.6575E-03  0.2406E+02
   -0.722499   12.27182  0.0000E+00  0.5779E-05  0.1807E-07  0.6971E-03  0.5450E-03  0.1322E+01
   -0.765001   12.27255  0.0000E+00  0.5746E-05  0.1638E-07  0.7328E-03  0.4572E-03  0.1403E+01
   -0.807502   12.27323  0.0000E+00  0.5728E-05  0.1513E-07  0.7623E-03  0.3903E-03  0.1702E+01
   -0.850004   12.27386  0.0000E+00  0.5721E-05  0.1423E-07  0.7864E-03  0.3379E-03  0.1084E+01
   -0.892505   12.27447  0.0000E+00  0.5722E-05  0.1356E-07  0.8061E-03  0.2961E-03  0.1126E+01
   -0.935007   12.27506  0.0000E+00  0.5730E-05  0.1308E-07  0.8223E-03  0.2619E-03  0.1242E+01
   -0.977509   12.27565  0.0000E+00  0.5741E-05  0.1273E-07  0.8349E-03  0.2331E-03  0.1371E+01
   -1.020010   12.27624  0.0000E+00  0.5756E-05  0.1250E-07  0.8443E-03  0.2086E-03  0.1564E+01
   -1.062511   12.27683  0.0000E+00  0.5771E-05  0.1237E-07  0.8496E-03  0.1870E-03  0.1755E+01
   -1.105013   12.27743  0.0000E+00  0.5787E-05  0.1232E-07  0.8511E-03  0.1678E-03  0.2006E+01
   -1.147514   12.27805  0.0000E+00  0.5800E-05  0.1235E-07  0.8480E-03  0.1502E-03  0.2292E+01
   -1.190015   12.27869  0.0000E+00  0.5809E-05  0.1244E-07  0.8405E-03  0.1336E-03  0.2574E+01
   -1.232516   12.27936  0.0000E+00  0.5814E-05  0.1261E-07  0.8277E-03  0.1181E-03  0.2932E+01
   -1.275016   12.28005  0.0000E+00  0.5813E-05  0.1287E-07  0.8091E-03  0.1042E-03  0.3672E+01
   -1.317517   12.28076  0.0000E+00  0.5806E-05  0.1324E-07  0.7829E-03  0.9185E-04  0.4748E+01
   -1.360017   12.28151  0.0000E+00  0.5790E-05  0.1378E-07  0.7477E-03  0.8081E-04  0.6309E+01
   -1.402517   12.28230  0.0000E+00  0.5762E-05  0.1458E-07  0.7030E-03  0.7094E-04  0.9213E+01
   -1.445017   12.28316  0.0000E+00  0.5724E-05  0.1564E-07  0.6432E-03  0.6169E-04  0.1403E+02
   -1.487516   12.28412  0.0000E+00  0.5673E-05  0.1712E-07  0.5998E-03  0.5247E-04  0.1809E+02
   -1.530015   12.28519  0.0000E+00  0.5593E-05  0.1967E-07  0.4761E-03  0.4348E-04  0.2473E+02
   -1.572514   12.28660  0.0000E+00  0.5441E-05  0.2550E-07  0.5629E-03  0.3434E-04  0.1866E+03
   -1.615012   12.28774  0.0000E+00  0.4804E-05  0.5543E-07  0.1969E-03  0.2931E-04 -0.4441E+07
   -1.657510   12.29702  0.0000E+00  0.3125E-05  0.1735E-06  0.7141E-04  0.1852E-04 -0.1055E+05
   -1.700008   12.30664  0.0000E+00  0.0000E+00  0.0000E+00  0.0000E+00  0.2208E-04  0.0000E+00
