 1 - depth, m
 2 - temperature, C
 3 - salinity, kg/kg
 4 - turbulent kinetic energy, m**2/s**2
 5 - dissipation rate, m**2/s**3
 6 - kinematic heat conductance, m**2/s
 7 - modulus of horizontal velocity, m/s
 8 - Richardson number, n/d
   -0.000000    0.00000  0.0000E+00  0.1149E-11  0.2961E-15  0.1000E-09  0.0000E+00  0.2361E+17
   -0.042496    0.37273  0.0000E+00  0.1871E-11  0.2693E-15  0.1000E-09  0.0000E+00  0.2021E+17
   -0.084992    0.72770  0.0000E+00  0.3282E-11  0.3304E-15  0.1000E-09  0.0000E+00  0.1718E+17
   -0.127489    1.06535  0.0000E+00  0.5562E-11  0.4702E-15  0.1000E-09  0.0000E+00  0.1434E+17
   -0.169986    1.38218  0.0000E+00  0.9097E-11  0.7071E-15  0.1000E-09  0.0000E+00  0.1188E+17
   -0.212483    1.67909  0.0000E+00  0.1454E-10  0.1081E-14  0.1000E-09  0.0000E+00  0.9792E+16
   -0.254981    1.95753  0.0000E+00  0.2295E-10  0.1660E-14  0.1000E-09  0.0000E+00  0.7993E+16
   -0.297479    2.21824  0.0000E+00  0.3595E-10  0.2547E-14  0.1000E-09  0.0000E+00  0.6411E+16
   -0.339978    2.46027  0.0000E+00  0.5560E-10  0.3872E-14  0.1000E-09  0.0000E+00  0.5030E+16
   -0.382476    2.68212  0.0000E+00  0.8536E-10  0.5852E-14  0.1000E-09  0.0000E+00  0.3881E+16
   -0.424975    2.88413  0.0000E+00  0.1300E-09  0.8779E-14  0.1000E-09  0.0000E+00  0.2922E+16
   -0.467474    3.06561  0.0000E+00  0.1966E-09  0.1308E-13  0.1000E-09  0.0000E+00  0.2155E+16
   -0.509973    3.22722  0.0000E+00  0.2961E-09  0.1941E-13  0.1000E-09  0.0000E+00  0.1582E+16
   -0.552472    3.37282  0.0000E+00  0.4445E-09  0.2872E-13  0.1000E-09  0.0000E+00  0.1133E+16
   -0.594972    3.50364  0.0000E+00  0.6654E-09  0.4237E-13  0.1701E-09  0.0000E+00  0.7870E+15
   -0.637472    3.62138  0.0000E+00  0.1001E-08  0.6279E-13  0.3784E-09  0.0000E+00  0.5257E+15
   -0.679971    3.72863  0.0000E+00  0.1509E-08  0.9327E-13  0.9260E-09  0.0000E+00  0.3205E+15
   -0.722471    3.82620  0.0000E+00  0.2279E-08  0.1388E-12  0.2752E-08  0.0000E+00  0.1619E+15
   -0.764971    3.91538  0.0000E+00  0.3431E-08  0.2061E-12  0.1744E-07  0.0000E+00  0.3947E+14
   -0.807471    3.99159  0.0000E+00  0.3746E-08  0.2257E-12  0.1836E-04  0.0000E+00 -0.5434E+11
   -0.849971    3.99228  0.0000E+00  0.3917E-08  0.2380E-12  0.2013E-04  0.0000E+00 -0.5760E+11
   -0.892471    3.99291  0.0000E+00  0.4086E-08  0.2515E-12  0.2177E-04  0.0000E+00 -0.6053E+11
   -0.934971    3.99350  0.0000E+00  0.4249E-08  0.2662E-12  0.2303E-04  0.0000E+00 -0.6346E+11
   -0.977471    3.99406  0.0000E+00  0.4406E-08  0.2820E-12  0.2394E-04  0.0000E+00 -0.6716E+11
   -1.019971    3.99462  0.0000E+00  0.4557E-08  0.2991E-12  0.2436E-04  0.0000E+00 -0.7119E+11
   -1.062470    3.99516  0.0000E+00  0.4700E-08  0.3177E-12  0.2454E-04  0.0000E+00 -0.7592E+11
   -1.104970    3.99570  0.0000E+00  0.4838E-08  0.3382E-12  0.2425E-04  0.0000E+00 -0.8099E+11
   -1.147470    3.99625  0.0000E+00  0.4970E-08  0.3608E-12  0.2357E-04  0.0000E+00 -0.8662E+11
   -1.189969    3.99679  0.0000E+00  0.5095E-08  0.3861E-12  0.2289E-04  0.0000E+00 -0.9403E+11
   -1.232468    3.99736  0.0000E+00  0.5220E-08  0.4161E-12  0.2274E-04  0.0000E+00 -0.1057E+12
   -1.274967    3.99796  0.0000E+00  0.5344E-08  0.4524E-12  0.2232E-04  0.0000E+00 -0.1208E+12
   -1.317466    3.99861  0.0000E+00  0.5469E-08  0.4977E-12  0.2134E-04  0.0000E+00 -0.1403E+12
   -1.359965    3.99932  0.0000E+00  0.5596E-08  0.5570E-12  0.2011E-04  0.0000E+00 -0.1693E+12
   -1.402463    4.00013  0.0000E+00  0.5728E-08  0.6392E-12  0.1784E-04  0.0000E+00 -0.2113E+12
   -1.444961    4.00108  0.0000E+00  0.5853E-08  0.7471E-12  0.1499E-04  0.0000E+00 -0.2684E+12
   -1.487459    4.00220  0.0000E+00  0.5977E-08  0.8985E-12  0.1234E-04  0.0000E+00 -0.3613E+12
   -1.529956    4.00360  0.0000E+00  0.6134E-08  0.1162E-11  0.1039E-04  0.0000E+00 -0.5858E+12
   -1.572453    4.00564  0.0000E+00  0.6367E-08  0.1770E-11  0.8867E-05  0.0000E+00 -0.1388E+13
   -1.614950    4.00978  0.0000E+00  0.6570E-08  0.4080E-11  0.3413E-05  0.0000E+00 -0.6298E+13
   -1.657446    4.02310  0.0000E+00  0.6164E-08  0.1222E-10  0.8473E-06  0.0000E+00 -0.5696E+14
   -1.699942    4.07922  0.0000E+00  0.0000E+00  0.0000E+00  0.0000E+00  0.0000E+00  0.0000E+00
