 1 - depth, m
 2 - temperature, C
 3 - salinity, kg/kg
 4 - turbulent kinetic energy, m**2/s**2
 5 - dissipation rate, m**2/s**3
 6 - kinematic heat conductance, m**2/s
 7 - modulus of horizontal velocity, m/s
 8 - Richardson number, n/d
   -0.000000    0.00000  0.0000E+00  0.3189E-13  0.5206E-16  0.1000E-09  0.0000E+00  0.1211E+17
   -0.042498    0.18637  0.0000E+00  0.3189E-13  0.5206E-16  0.1000E-09  0.0000E+00  0.1202E+17
   -0.084995    0.38139  0.0000E+00  0.6826E-13  0.5206E-16  0.1000E-09  0.0000E+00  0.1175E+17
   -0.127494    0.58365  0.0000E+00  0.2358E-12  0.5230E-16  0.1000E-09  0.0000E+00  0.1082E+17
   -0.169992    0.78175  0.0000E+00  0.5422E-12  0.7799E-16  0.1000E-09  0.0000E+00  0.9902E+16
   -0.212491    0.97513  0.0000E+00  0.1061E-11  0.1313E-15  0.1000E-09  0.0000E+00  0.8994E+16
   -0.254991    1.16286  0.0000E+00  0.1941E-11  0.2259E-15  0.1000E-09  0.0000E+00  0.8110E+16
   -0.297490    1.34410  0.0000E+00  0.3448E-11  0.3889E-15  0.1000E-09  0.0000E+00  0.7301E+16
   -0.339990    1.51917  0.0000E+00  0.5989E-11  0.6610E-15  0.1000E-09  0.0000E+00  0.6588E+16
   -0.382490    1.68908  0.0000E+00  0.1029E-10  0.1116E-14  0.1000E-09  0.0000E+00  0.5917E+16
   -0.424991    1.85364  0.0000E+00  0.1750E-10  0.1867E-14  0.1000E-09  0.0000E+00  0.5340E+16
   -0.467491    2.01435  0.0000E+00  0.2956E-10  0.3102E-14  0.1000E-09  0.0000E+00  0.4795E+16
   -0.509992    2.17118  0.0000E+00  0.4970E-10  0.5135E-14  0.1000E-09  0.0000E+00  0.4384E+16
   -0.552493    2.32792  0.0000E+00  0.8336E-10  0.8479E-14  0.1000E-09  0.0000E+00  0.3998E+16
   -0.594994    2.48548  0.0000E+00  0.1394E-09  0.1396E-13  0.1000E-09  0.0000E+00  0.3619E+16
   -0.637495    2.64435  0.0000E+00  0.2347E-09  0.2314E-13  0.1000E-09  0.0000E+00  0.3243E+16
   -0.679997    2.80516  0.0000E+00  0.3962E-09  0.3847E-13  0.1000E-09  0.0000E+00  0.2860E+16
   -0.722498    2.96830  0.0000E+00  0.6708E-09  0.6415E-13  0.1000E-09  0.0000E+00  0.2469E+16
   -0.765000    3.13435  0.0000E+00  0.1140E-08  0.1073E-12  0.1640E-09  0.0000E+00  0.2061E+16
   -0.807501    3.30371  0.0000E+00  0.1936E-08  0.1797E-12  0.3482E-09  0.0000E+00  0.1625E+16
   -0.850003    3.47592  0.0000E+00  0.3257E-08  0.2979E-12  0.8051E-09  0.0000E+00  0.1165E+16
   -0.892504    3.65049  0.0000E+00  0.5457E-08  0.4919E-12  0.2247E-08  0.0000E+00  0.6896E+15
   -0.935006    3.82793  0.0000E+00  0.9009E-08  0.8012E-12  0.1291E-07  0.0000E+00  0.1958E+15
   -0.977507    3.99779  0.0000E+00  0.9567E-08  0.8537E-12  0.4068E-04  0.0000E+00 -0.1210E+12
   -1.020009    3.99845  0.0000E+00  0.9822E-08  0.8816E-12  0.4248E-04  0.0000E+00 -0.1234E+12
   -1.062510    3.99909  0.0000E+00  0.1004E-07  0.9094E-12  0.4295E-04  0.0000E+00 -0.1299E+12
   -1.105011    3.99972  0.0000E+00  0.1025E-07  0.9397E-12  0.4334E-04  0.0000E+00 -0.1357E+12
   -1.147512    4.00035  0.0000E+00  0.1045E-07  0.9723E-12  0.4353E-04  0.0000E+00 -0.1413E+12
   -1.190013    4.00098  0.0000E+00  0.1062E-07  0.1007E-11  0.4352E-04  0.0000E+00 -0.1489E+12
   -1.232514    4.00162  0.0000E+00  0.1079E-07  0.1048E-11  0.4344E-04  0.0000E+00 -0.1619E+12
   -1.275015    4.00228  0.0000E+00  0.1096E-07  0.1095E-11  0.4310E-04  0.0000E+00 -0.1770E+12
   -1.317515    4.00297  0.0000E+00  0.1111E-07  0.1151E-11  0.4234E-04  0.0000E+00 -0.1921E+12
   -1.360015    4.00370  0.0000E+00  0.1126E-07  0.1221E-11  0.4118E-04  0.0000E+00 -0.2123E+12
   -1.402515    4.00446  0.0000E+00  0.1140E-07  0.1312E-11  0.3949E-04  0.0000E+00 -0.2350E+12
   -1.445015    4.00527  0.0000E+00  0.1152E-07  0.1419E-11  0.3735E-04  0.0000E+00 -0.2583E+12
   -1.487514    4.00612  0.0000E+00  0.1160E-07  0.1552E-11  0.3470E-04  0.0000E+00 -0.2919E+12
   -1.530013    4.00704  0.0000E+00  0.1166E-07  0.1756E-11  0.3134E-04  0.0000E+00 -0.3701E+12
   -1.572512    4.00815  0.0000E+00  0.1167E-07  0.2194E-11  0.2658E-04  0.0000E+00 -0.6142E+12
   -1.615010    4.00988  0.0000E+00  0.1135E-07  0.4063E-11  0.1018E-04  0.0000E+00 -0.2061E+13
   -1.657508    4.01493  0.0000E+00  0.8840E-08  0.1501E-10  0.1103E-05  0.0000E+00 -0.3254E+14
   -1.700006    4.05684  0.0000E+00  0.0000E+00  0.0000E+00  0.0000E+00  0.0000E+00  0.0000E+00
