 1 - depth, m
 2 - temperature, C
 3 - salinity, kg/kg
 4 - turbulent kinetic energy, m**2/s**2
 5 - dissipation rate, m**2/s**3
 6 - kinematic heat conductance, m**2/s
 7 - modulus of horizontal velocity, m/s
 8 - Richardson number, n/d
   -0.000000    0.00000  0.0000E+00  0.3189E-13  0.5206E-16  0.1000E-09  0.0000E+00  0.1088E+17
   -0.042497    0.16693  0.0000E+00  0.3189E-13  0.5206E-16  0.1000E-09  0.0000E+00  0.1076E+17
   -0.084995    0.34006  0.0000E+00  0.3189E-13  0.5206E-16  0.1000E-09  0.0000E+00  0.1054E+17
   -0.127493    0.51864  0.0000E+00  0.3189E-13  0.5206E-16  0.1000E-09  0.0000E+00  0.9924E+16
   -0.169992    0.69609  0.0000E+00  0.3189E-13  0.5206E-16  0.1000E-09  0.0000E+00  0.9305E+16
   -0.212491    0.87218  0.0000E+00  0.3189E-13  0.5206E-16  0.1000E-09  0.0000E+00  0.8694E+16
   -0.254990    1.04675  0.0000E+00  0.7282E-13  0.5206E-16  0.1000E-09  0.0000E+00  0.8090E+16
   -0.297489    1.21958  0.0000E+00  0.2466E-12  0.5459E-16  0.1000E-09  0.0000E+00  0.7488E+16
   -0.339989    1.39028  0.0000E+00  0.5625E-12  0.8556E-16  0.1000E-09  0.0000E+00  0.6890E+16
   -0.382489    1.55843  0.0000E+00  0.1103E-11  0.1478E-15  0.1000E-09  0.0000E+00  0.6309E+16
   -0.424989    1.72380  0.0000E+00  0.2026E-11  0.2577E-15  0.1000E-09  0.0000E+00  0.5743E+16
   -0.467490    1.88607  0.0000E+00  0.3607E-11  0.4457E-15  0.1000E-09  0.0000E+00  0.5200E+16
   -0.509990    2.04509  0.0000E+00  0.6333E-11  0.7661E-15  0.1000E-09  0.0000E+00  0.4712E+16
   -0.552491    2.20182  0.0000E+00  0.1104E-10  0.1311E-14  0.1000E-09  0.0000E+00  0.4248E+16
   -0.594992    2.35637  0.0000E+00  0.1915E-10  0.2234E-14  0.1000E-09  0.0000E+00  0.3807E+16
   -0.637493    2.50896  0.0000E+00  0.3340E-10  0.3828E-14  0.1000E-09  0.0000E+00  0.3393E+16
   -0.679995    2.66004  0.0000E+00  0.5836E-10  0.6575E-14  0.1000E-09  0.0000E+00  0.2989E+16
   -0.722496    2.80951  0.0000E+00  0.1022E-09  0.1132E-13  0.1000E-09  0.0000E+00  0.2602E+16
   -0.764997    2.95749  0.0000E+00  0.1794E-09  0.1954E-13  0.1000E-09  0.0000E+00  0.2224E+16
   -0.807499    3.10381  0.0000E+00  0.3146E-09  0.3370E-13  0.1000E-09  0.0000E+00  0.1850E+16
   -0.850000    3.24766  0.0000E+00  0.5460E-09  0.5753E-13  0.1216E-09  0.0000E+00  0.1489E+16
   -0.892501    3.38837  0.0000E+00  0.9436E-09  0.9784E-13  0.2656E-09  0.0000E+00  0.1159E+16
   -0.935003    3.52716  0.0000E+00  0.1614E-08  0.1647E-12  0.6139E-09  0.0000E+00  0.8439E+15
   -0.977504    3.66421  0.0000E+00  0.2742E-08  0.2755E-12  0.1606E-08  0.0000E+00  0.5396E+15
   -1.020005    3.79887  0.0000E+00  0.4621E-08  0.4571E-12  0.5785E-08  0.0000E+00  0.2485E+15
   -1.062507    3.92732  0.0000E+00  0.7461E-08  0.7300E-12  0.9440E-07  0.0000E+00  0.2430E+14
   -1.105008    4.00598  0.0000E+00  0.8008E-08  0.7864E-12  0.3438E-04  0.0000E+00 -0.1650E+12
   -1.147509    4.00651  0.0000E+00  0.8243E-08  0.8149E-12  0.3402E-04  0.0000E+00 -0.1681E+12
   -1.190010    4.00704  0.0000E+00  0.8435E-08  0.8427E-12  0.3419E-04  0.0000E+00 -0.1692E+12
   -1.232510    4.00755  0.0000E+00  0.8611E-08  0.8738E-12  0.3429E-04  0.0000E+00 -0.1739E+12
   -1.275011    4.00807  0.0000E+00  0.8775E-08  0.9100E-12  0.3417E-04  0.0000E+00 -0.1810E+12
   -1.317511    4.00859  0.0000E+00  0.8930E-08  0.9533E-12  0.3389E-04  0.0000E+00 -0.1934E+12
   -1.360011    4.00914  0.0000E+00  0.9076E-08  0.1007E-11  0.3329E-04  0.0000E+00 -0.2115E+12
   -1.402511    4.00972  0.0000E+00  0.9212E-08  0.1076E-11  0.3214E-04  0.0000E+00 -0.2302E+12
   -1.445010    4.01034  0.0000E+00  0.9334E-08  0.1166E-11  0.3042E-04  0.0000E+00 -0.2471E+12
   -1.487509    4.01099  0.0000E+00  0.9443E-08  0.1296E-11  0.2554E-04  0.0000E+00 -0.3044E+12
   -1.530008    4.01177  0.0000E+00  0.9536E-08  0.1505E-11  0.2206E-04  0.0000E+00 -0.4177E+12
   -1.572507    4.01279  0.0000E+00  0.9589E-08  0.1941E-11  0.1943E-04  0.0000E+00 -0.7396E+12
   -1.615005    4.01452  0.0000E+00  0.9260E-08  0.3571E-11  0.7673E-05  0.0000E+00 -0.2400E+13
   -1.657503    4.01951  0.0000E+00  0.7016E-08  0.1154E-10  0.8938E-06  0.0000E+00 -0.3009E+14
   -1.700000    4.05664  0.0000E+00  0.0000E+00  0.0000E+00  0.0000E+00  0.0000E+00  0.0000E+00
