 1 - depth, m
 2 - temperature, C
 3 - salinity, kg/kg
 4 - turbulent kinetic energy, m**2/s**2
 5 - dissipation rate, m**2/s**3
 6 - kinematic heat conductance, m**2/s
 7 - modulus of horizontal velocity, m/s
 8 - Richardson number, n/d
   -0.000000    7.94036  0.0000E+00  0.1786E-03  0.1066E-03  0.6412E-04  0.1251E+00 -0.2437E-02
   -0.042498    8.00814  0.0000E+00  0.9717E-04  0.3066E-04  0.1091E-03  0.3240E-01 -0.8641E-02
   -0.084995    8.01877  0.0000E+00  0.6806E-04  0.1327E-04  0.9956E-04  0.2204E-01 -0.2570E-01
   -0.127494    8.02763  0.0000E+00  0.4994E-04  0.6445E-05  0.9497E-04  0.1701E-01 -0.2740E-01
   -0.169992    8.03521  0.0000E+00  0.3718E-04  0.3224E-05  0.9330E-04  0.1339E-01  0.7000E+00
   -0.212491    8.04220  0.0000E+00  0.2784E-04  0.1641E-05  0.9295E-04  0.1054E-01 -0.5439E-01
   -0.254991    8.04891  0.0000E+00  0.2109E-04  0.8799E-06  0.9469E-04  0.8308E-02  0.1852E+02
   -0.297490    8.05529  0.0000E+00  0.1634E-04  0.5090E-06  0.9833E-04  0.6637E-02  0.5380E+00
   -0.339990    8.06112  0.0000E+00  0.1307E-04  0.3185E-06  0.1052E-03  0.5365E-02  0.4198E+01
   -0.382490    8.06645  0.0000E+00  0.1074E-04  0.2103E-06  0.1204E-03  0.4349E-02  0.2949E+02
   -0.424991    8.07095  0.0000E+00  0.9095E-05  0.1447E-06  0.1455E-03  0.3570E-02  0.1772E+04
   -0.467491    8.07482  0.0000E+00  0.7895E-05  0.1028E-06  0.1789E-03  0.2924E-02  0.2771E+03
   -0.509992    8.07807  0.0000E+00  0.6998E-05  0.7521E-07  0.2151E-03  0.2390E-02  0.1619E+02
   -0.552493    8.08081  0.0000E+00  0.6313E-05  0.5655E-07  0.2516E-03  0.1951E-02  0.5097E+02
   -0.594994    8.08314  0.0000E+00  0.5779E-05  0.4365E-07  0.2885E-03  0.1583E-02  0.9795E+01
   -0.637495    8.08513  0.0000E+00  0.5348E-05  0.3437E-07  0.3230E-03  0.1279E-02  0.3102E+02
   -0.679997    8.08686  0.0000E+00  0.5001E-05  0.2762E-07  0.3582E-03  0.1036E-02  0.1192E+02
   -0.722498    8.08838  0.0000E+00  0.4720E-05  0.2262E-07  0.3901E-03  0.8439E-03  0.4000E+01
   -0.765000    8.08975  0.0000E+00  0.4492E-05  0.1887E-07  0.4171E-03  0.6946E-03  0.1703E+01
   -0.807501    8.09100  0.0000E+00  0.4307E-05  0.1602E-07  0.4431E-03  0.5812E-03  0.2911E+03
   -0.850003    8.09215  0.0000E+00  0.4162E-05  0.1389E-07  0.4665E-03  0.4922E-03  0.6968E+01
   -0.892504    8.09322  0.0000E+00  0.4047E-05  0.1226E-07  0.4870E-03  0.4214E-03  0.5247E+01
   -0.935006    8.09423  0.0000E+00  0.3958E-05  0.1103E-07  0.5062E-03  0.3640E-03  0.3251E+01
   -0.977507    8.09518  0.0000E+00  0.3888E-05  0.1010E-07  0.5230E-03  0.3165E-03  0.2547E+01
   -1.020009    8.09611  0.0000E+00  0.3833E-05  0.9374E-08  0.5370E-03  0.2766E-03  0.2280E+01
   -1.062510    8.09701  0.0000E+00  0.3788E-05  0.8815E-08  0.5485E-03  0.2420E-03  0.2366E+01
   -1.105011    8.09790  0.0000E+00  0.3752E-05  0.8383E-08  0.5575E-03  0.2117E-03  0.2664E+01
   -1.147512    8.09878  0.0000E+00  0.3721E-05  0.8061E-08  0.5633E-03  0.1843E-03  0.3027E+01
   -1.190013    8.09966  0.0000E+00  0.3695E-05  0.7833E-08  0.5659E-03  0.1586E-03  0.3411E+01
   -1.232514    8.10055  0.0000E+00  0.3671E-05  0.7681E-08  0.5654E-03  0.1349E-03  0.3910E+01
   -1.275014    8.10144  0.0000E+00  0.3648E-05  0.7598E-08  0.5612E-03  0.1146E-03  0.5023E+01
   -1.317515    8.10234  0.0000E+00  0.3625E-05  0.7587E-08  0.5525E-03  0.9728E-04  0.6647E+01
   -1.360015    8.10326  0.0000E+00  0.3599E-05  0.7656E-08  0.5383E-03  0.8260E-04  0.9048E+01
   -1.402515    8.10421  0.0000E+00  0.3570E-05  0.7828E-08  0.5175E-03  0.7032E-04  0.1335E+02
   -1.445014    8.10521  0.0000E+00  0.3537E-05  0.8119E-08  0.4905E-03  0.5941E-04  0.2032E+02
   -1.487514    8.10627  0.0000E+00  0.3501E-05  0.8572E-08  0.4602E-03  0.4903E-04  0.2596E+02
   -1.530013    8.10742  0.0000E+00  0.3452E-05  0.9415E-08  0.4009E-03  0.3919E-04  0.3315E+02
   -1.572511    8.10876  0.0000E+00  0.3364E-05  0.1143E-07  0.4075E-03  0.3007E-04  0.6380E+02
   -1.615010    8.11006  0.0000E+00  0.3050E-05  0.2163E-07  0.1757E-03  0.2452E-04 -0.2307E+07
   -1.657508    8.11665  0.0000E+00  0.1960E-05  0.7087E-07  0.4142E-04  0.1593E-04 -0.3870E+05
   -1.700005    8.13074  0.0000E+00  0.0000E+00  0.0000E+00  0.0000E+00  0.1836E-04  0.0000E+00
