 1 - depth, m
 2 - temperature, C
 3 - salinity, kg/kg
 4 - turbulent kinetic energy, m**2/s**2
 5 - dissipation rate, m**2/s**3
 6 - kinematic heat conductance, m**2/s
 7 - modulus of horizontal velocity, m/s
 8 - Richardson number, n/d
   -0.000000    6.75915  0.0000E+00  0.2133E-02  0.1687E-01  0.1794E-03  0.6549E+00 -0.5672E-01
   -0.042497    6.89324  0.0000E+00  0.1007E-02  0.7618E-02  0.3459E-03  0.1362E+00 -0.2448E-01
   -0.084995    6.93657  0.0000E+00  0.6891E-03  0.3584E-02  0.4690E-03  0.7921E-01 -0.1747E+00
   -0.127493    6.95236  0.0000E+00  0.5259E-03  0.2296E-02  0.4147E-03  0.6368E-01 -0.5067E-01
   -0.169992    6.96144  0.0000E+00  0.4053E-03  0.1452E-02  0.3710E-03  0.5363E-01 -0.7145E+00
   -0.212490    6.96959  0.0000E+00  0.3231E-03  0.1041E-02  0.3396E-03  0.4470E-01 -0.7643E-01
   -0.254989    6.97644  0.0000E+00  0.2516E-03  0.7265E-03  0.3293E-03  0.3800E-01 -0.1200E+00
   -0.297489    6.98321  0.0000E+00  0.1998E-03  0.5102E-03  0.3306E-03  0.3306E-01  0.3983E+00
   -0.339989    6.98908  0.0000E+00  0.1632E-03  0.3560E-03  0.3240E-03  0.2932E-01  0.2247E+01
   -0.382488    6.99372  0.0000E+00  0.1351E-03  0.2389E-03  0.3263E-03  0.2576E-01  0.2280E+02
   -0.424989    6.99775  0.0000E+00  0.1142E-03  0.1526E-03  0.3266E-03  0.2323E-01  0.8697E+00
   -0.467489    7.00159  0.0000E+00  0.9823E-04  0.9282E-04  0.3290E-03  0.2033E-01  0.4415E+01
   -0.509990    7.00536  0.0000E+00  0.8588E-04  0.5409E-04  0.3327E-03  0.1762E-01  0.8045E+01
   -0.552490    7.00871  0.0000E+00  0.7608E-04  0.3062E-04  0.3344E-03  0.1527E-01  0.1432E+02
   -0.594991    7.01205  0.0000E+00  0.6804E-04  0.1724E-04  0.3387E-03  0.1309E-01  0.6790E+01
   -0.637492    7.01522  0.0000E+00  0.6125E-04  0.9789E-05  0.3465E-03  0.1123E-01  0.1848E+03
   -0.679993    7.01805  0.0000E+00  0.5548E-04  0.5697E-05  0.3531E-03  0.9829E-02  0.2646E+01
   -0.722495    7.02076  0.0000E+00  0.5042E-04  0.3447E-05  0.3624E-03  0.8652E-02  0.7676E+01
   -0.764996    7.02323  0.0000E+00  0.4597E-04  0.2185E-05  0.3719E-03  0.7708E-02 -0.1338E+03
   -0.807497    7.02534  0.0000E+00  0.4201E-04  0.1454E-05  0.3794E-03  0.6971E-02 -0.6621E+01
   -0.849999    7.02741  0.0000E+00  0.3851E-04  0.1024E-05  0.3886E-03  0.6324E-02 -0.4557E+03
   -0.892500    7.02935  0.0000E+00  0.3539E-04  0.7585E-06  0.3987E-03  0.5753E-02 -0.2769E+04
   -0.935001    7.03123  0.0000E+00  0.3262E-04  0.5886E-06  0.4094E-03  0.5262E-02 -0.1733E+04
   -0.977503    7.03294  0.0000E+00  0.3016E-04  0.4728E-06  0.4192E-03  0.4799E-02 -0.4400E+04
   -1.020004    7.03473  0.0000E+00  0.2796E-04  0.3902E-06  0.4310E-03  0.4390E-02  0.6504E+03
   -1.062505    7.03628  0.0000E+00  0.2600E-04  0.3284E-06  0.4397E-03  0.4001E-02  0.2112E+03
   -1.105006    7.03791  0.0000E+00  0.2425E-04  0.2809E-06  0.4496E-03  0.3643E-02  0.9767E+03
   -1.147507    7.03940  0.0000E+00  0.2271E-04  0.2443E-06  0.4531E-03  0.3296E-02  0.4966E+03
   -1.190008    7.04090  0.0000E+00  0.2136E-04  0.2163E-06  0.4577E-03  0.2947E-02  0.3515E+03
   -1.232508    7.04233  0.0000E+00  0.2014E-04  0.1941E-06  0.4638E-03  0.2614E-02  0.1741E+03
   -1.275008    7.04370  0.0000E+00  0.1899E-04  0.1764E-06  0.4672E-03  0.2315E-02  0.1607E+03
   -1.317509    7.04502  0.0000E+00  0.1791E-04  0.1630E-06  0.4666E-03  0.2045E-02  0.3229E+03
   -1.360009    7.04632  0.0000E+00  0.1687E-04  0.1539E-06  0.4607E-03  0.1804E-02  0.2597E+04
   -1.402508    7.04761  0.0000E+00  0.1580E-04  0.1500E-06  0.4439E-03  0.1590E-02  0.3805E+03
   -1.445008    7.04893  0.0000E+00  0.1479E-04  0.1541E-06  0.4181E-03  0.1388E-02  0.1192E+04
   -1.487507    7.05031  0.0000E+00  0.1387E-04  0.1704E-06  0.3863E-03  0.1182E-02  0.4748E+04
   -1.530006    7.05181  0.0000E+00  0.1290E-04  0.2129E-06  0.3475E-03  0.9626E-03  0.3495E+05
   -1.572504    7.05352  0.0000E+00  0.1170E-04  0.3332E-06  0.2988E-03  0.7504E-03 -0.5505E+03
   -1.615002    7.05544  0.0000E+00  0.9450E-05  0.7781E-06  0.1964E-03  0.6081E-03 -0.4325E+03
   -1.657500    7.05916  0.0000E+00  0.6131E-05  0.1866E-05  0.6350E-04  0.4638E-03 -0.1153E+08
   -1.699997    7.07997  0.0000E+00  0.0000E+00  0.0000E+00  0.0000E+00  0.6580E-03  0.0000E+00
