 1 - depth, m
 2 - temperature, C
 3 - salinity, kg/kg
 4 - turbulent kinetic energy, m**2/s**2
 5 - dissipation rate, m**2/s**3
 6 - kinematic heat conductance, m**2/s
 7 - modulus of horizontal velocity, m/s
 8 - Richardson number, n/d
   -0.000000    0.00000  0.0000E+00  0.3189E-13  0.5206E-16  0.1000E-09  0.0000E+00  0.1010E+17
   -0.042497    0.15478  0.0000E+00  0.3189E-13  0.5206E-16  0.1000E-09  0.0000E+00  0.1007E+17
   -0.084995    0.31596  0.0000E+00  0.3189E-13  0.5206E-16  0.1000E-09  0.0000E+00  0.9947E+16
   -0.127493    0.48293  0.0000E+00  0.3189E-13  0.5206E-16  0.1000E-09  0.0000E+00  0.9442E+16
   -0.169992    0.64962  0.0000E+00  0.3189E-13  0.5206E-16  0.1000E-09  0.0000E+00  0.8927E+16
   -0.212491    0.81574  0.0000E+00  0.3189E-13  0.5206E-16  0.1000E-09  0.0000E+00  0.8407E+16
   -0.254990    0.98103  0.0000E+00  0.3189E-13  0.5206E-16  0.1000E-09  0.0000E+00  0.7880E+16
   -0.297490    1.14516  0.0000E+00  0.3189E-13  0.5206E-16  0.1000E-09  0.0000E+00  0.7339E+16
   -0.339989    1.30750  0.0000E+00  0.3189E-13  0.5206E-16  0.1000E-09  0.0000E+00  0.6787E+16
   -0.382489    1.46737  0.0000E+00  0.3189E-13  0.5206E-16  0.1000E-09  0.0000E+00  0.6240E+16
   -0.424990    1.62430  0.0000E+00  0.3189E-13  0.5206E-16  0.1000E-09  0.0000E+00  0.5697E+16
   -0.467490    1.77769  0.0000E+00  0.3189E-13  0.5206E-16  0.1000E-09  0.0000E+00  0.5169E+16
   -0.509991    1.92712  0.0000E+00  0.3189E-13  0.5206E-16  0.1000E-09  0.0000E+00  0.4690E+16
   -0.552492    2.07312  0.0000E+00  0.3189E-13  0.5206E-16  0.1000E-09  0.0000E+00  0.4231E+16
   -0.594993    2.21551  0.0000E+00  0.3189E-13  0.5206E-16  0.1000E-09  0.0000E+00  0.3797E+16
   -0.637494    2.35415  0.0000E+00  0.3189E-13  0.5206E-16  0.1000E-09  0.0000E+00  0.3390E+16
   -0.679995    2.48906  0.0000E+00  0.3189E-13  0.5206E-16  0.1000E-09  0.0000E+00  0.2999E+16
   -0.722497    2.61976  0.0000E+00  0.3189E-13  0.5206E-16  0.1000E-09  0.0000E+00  0.2628E+16
   -0.764998    2.74580  0.0000E+00  0.3189E-13  0.5206E-16  0.1000E-09  0.0000E+00  0.2273E+16
   -0.807499    2.86649  0.0000E+00  0.3189E-13  0.5206E-16  0.1000E-09  0.0000E+00  0.1938E+16
   -0.850001    2.98094  0.0000E+00  0.3189E-13  0.5206E-16  0.1000E-09  0.0000E+00  0.1626E+16
   -0.892502    3.08834  0.0000E+00  0.7854E-13  0.5206E-16  0.1000E-09  0.0000E+00  0.1379E+16
   -0.935004    3.19088  0.0000E+00  0.2579E-12  0.8325E-16  0.1000E-09  0.0000E+00  0.1171E+16
   -0.977505    3.28991  0.0000E+00  0.6570E-12  0.1796E-15  0.1000E-09  0.0000E+00  0.9790E+15
   -1.020006    3.38527  0.0000E+00  0.1527E-11  0.3959E-15  0.1000E-09  0.0000E+00  0.7966E+15
   -1.062508    3.47597  0.0000E+00  0.3432E-11  0.8634E-15  0.1000E-09  0.0000E+00  0.6326E+15
   -1.105009    3.56172  0.0000E+00  0.7592E-11  0.1863E-14  0.1000E-09  0.0000E+00  0.4843E+15
   -1.147510    3.64161  0.0000E+00  0.1647E-10  0.3948E-14  0.1000E-09  0.0000E+00  0.3558E+15
   -1.190011    3.71498  0.0000E+00  0.3538E-10  0.8288E-14  0.1043E-09  0.0000E+00  0.2501E+15
   -1.232511    3.78184  0.0000E+00  0.7738E-10  0.1772E-13  0.3349E-09  0.0000E+00  0.1653E+15
   -1.275012    3.84219  0.0000E+00  0.1707E-09  0.3824E-13  0.1178E-08  0.0000E+00  0.1010E+15
   -1.317512    3.89744  0.0000E+00  0.3775E-09  0.8289E-13  0.4755E-08  0.0000E+00  0.5396E+14
   -1.360012    3.95436  0.0000E+00  0.8204E-09  0.1774E-12  0.7120E-07  0.0000E+00  0.7162E+13
   -1.402512    3.99750  0.0000E+00  0.1488E-08  0.3275E-12  0.2304E-05  0.0000E+00 -0.8146E+12
   -1.445012    4.00145  0.0000E+00  0.1932E-08  0.4661E-12  0.2550E-05  0.0000E+00 -0.9419E+12
   -1.487511    4.00500  0.0000E+00  0.2359E-08  0.6609E-12  0.2497E-05  0.0000E+00 -0.1213E+13
   -1.530010    4.00877  0.0000E+00  0.2907E-08  0.1028E-11  0.2555E-05  0.0000E+00 -0.1989E+13
   -1.572508    4.01385  0.0000E+00  0.3741E-08  0.1872E-11  0.2957E-05  0.0000E+00 -0.4514E+13
   -1.615006    4.02284  0.0000E+00  0.4710E-08  0.4082E-11  0.1884E-05  0.0000E+00 -0.1271E+14
   -1.657504    4.04070  0.0000E+00  0.4884E-08  0.1002E-10  0.6814E-06  0.0000E+00 -0.6339E+14
   -1.700002    4.09148  0.0000E+00  0.0000E+00  0.0000E+00  0.0000E+00  0.0000E+00  0.0000E+00
