 1 - depth, m
 2 - temperature, C
 3 - salinity, kg/kg
 4 - turbulent kinetic energy, m**2/s**2
 5 - dissipation rate, m**2/s**3
 6 - kinematic heat conductance, m**2/s
 7 - modulus of horizontal velocity, m/s
 8 - Richardson number, n/d
   -0.000000   10.55348  0.0000E+00  0.9951E-04  0.3126E-04  0.5522E-04  0.8102E-01 -0.4281E-01
   -0.042497   10.58310  0.0000E+00  0.5366E-04  0.8857E-05  0.7066E-04  0.2378E-01 -0.9634E-02
   -0.084995   10.58884  0.0000E+00  0.3731E-04  0.3867E-05  0.6712E-04  0.1640E-01 -0.2399E-01
   -0.127493   10.59323  0.0000E+00  0.2671E-04  0.1904E-05  0.6601E-04  0.1231E-01 -0.3399E-01
   -0.169992   10.59718  0.0000E+00  0.1937E-04  0.9926E-06  0.6524E-04  0.9336E-02 -0.4732E-01
   -0.212491   10.60093  0.0000E+00  0.1412E-04  0.5387E-06  0.6473E-04  0.7015E-02 -0.8079E-01
   -0.254990   10.60452  0.0000E+00  0.1039E-04  0.3008E-06  0.6545E-04  0.5250E-02 -0.1379E+00
   -0.297489   10.60781  0.0000E+00  0.7825E-05  0.1724E-06  0.6893E-04  0.3980E-02 -0.2186E+00
   -0.339989   10.61076  0.0000E+00  0.6124E-05  0.1028E-06  0.7867E-04  0.3052E-02  0.1083E+01
   -0.382489   10.61330  0.0000E+00  0.4990E-05  0.6383E-07  0.1030E-03  0.2342E-02  0.8182E+03
   -0.424989   10.61534  0.0000E+00  0.4254E-05  0.4172E-07  0.1416E-03  0.1826E-02  0.2108E+03
   -0.467490   10.61696  0.0000E+00  0.3767E-05  0.2875E-07  0.1874E-03  0.1431E-02  0.9716E+02
   -0.509990   10.61825  0.0000E+00  0.3437E-05  0.2085E-07  0.2231E-03  0.1133E-02  0.1074E+03
   -0.552491   10.61932  0.0000E+00  0.3210E-05  0.1584E-07  0.2550E-03  0.9016E-03  0.1185E+03
   -0.594992   10.62025  0.0000E+00  0.3052E-05  0.1257E-07  0.2858E-03  0.7165E-03  0.4491E+02
   -0.637493   10.62106  0.0000E+00  0.2938E-05  0.1033E-07  0.3133E-03  0.5693E-03  0.1960E+02
   -0.679995   10.62178  0.0000E+00  0.2858E-05  0.8762E-08  0.3400E-03  0.4556E-03  0.5353E+02
   -0.722496   10.62243  0.0000E+00  0.2803E-05  0.7654E-08  0.3651E-03  0.3685E-03  0.7088E+01
   -0.764997   10.62301  0.0000E+00  0.2768E-05  0.6854E-08  0.3879E-03  0.3032E-03  0.1762E+01
   -0.807499   10.62353  0.0000E+00  0.2749E-05  0.6268E-08  0.4101E-03  0.2546E-03  0.2889E+01
   -0.850000   10.62402  0.0000E+00  0.2743E-05  0.5842E-08  0.4315E-03  0.2169E-03  0.4884E+01
   -0.892501   10.62448  0.0000E+00  0.2747E-05  0.5525E-08  0.4513E-03  0.1870E-03  0.2340E+01
   -0.935003   10.62492  0.0000E+00  0.2757E-05  0.5291E-08  0.4693E-03  0.1630E-03  0.2909E+01
   -0.977504   10.62536  0.0000E+00  0.2773E-05  0.5117E-08  0.4859E-03  0.1426E-03  0.6589E+01
   -1.020005   10.62579  0.0000E+00  0.2792E-05  0.4993E-08  0.5005E-03  0.1255E-03  0.4283E+01
   -1.062507   10.62622  0.0000E+00  0.2813E-05  0.4910E-08  0.5127E-03  0.1105E-03  0.5101E+01
   -1.105008   10.62666  0.0000E+00  0.2834E-05  0.4860E-08  0.5223E-03  0.9733E-04  0.6092E+01
   -1.147509   10.62712  0.0000E+00  0.2854E-05  0.4839E-08  0.5291E-03  0.8531E-04  0.7262E+01
   -1.190009   10.62759  0.0000E+00  0.2872E-05  0.4846E-08  0.5326E-03  0.7409E-04  0.8474E+01
   -1.232510   10.62808  0.0000E+00  0.2887E-05  0.4878E-08  0.5331E-03  0.6367E-04  0.1010E+02
   -1.275011   10.62859  0.0000E+00  0.2900E-05  0.4938E-08  0.5299E-03  0.5450E-04  0.1334E+02
   -1.317511   10.62911  0.0000E+00  0.2909E-05  0.5033E-08  0.5226E-03  0.4643E-04  0.1821E+02
   -1.360011   10.62965  0.0000E+00  0.2915E-05  0.5174E-08  0.5097E-03  0.3940E-04  0.2541E+02
   -1.402511   10.63021  0.0000E+00  0.2916E-05  0.5384E-08  0.4903E-03  0.3338E-04  0.3871E+02
   -1.445010   10.63081  0.0000E+00  0.2912E-05  0.5661E-08  0.4654E-03  0.2800E-04  0.6039E+02
   -1.487509   10.63147  0.0000E+00  0.2901E-05  0.6035E-08  0.4356E-03  0.2290E-04  0.7969E+02
   -1.530008   10.63220  0.0000E+00  0.2877E-05  0.6652E-08  0.3828E-03  0.1807E-04  0.1030E+03
   -1.572507   10.63306  0.0000E+00  0.2823E-05  0.8046E-08  0.3729E-03  0.1373E-04  0.1815E+03
   -1.615005   10.63394  0.0000E+00  0.2608E-05  0.1480E-07  0.1691E-03  0.1105E-04 -0.1463E+06
   -1.657503   10.63737  0.0000E+00  0.1703E-05  0.5071E-07  0.3474E-04  0.7106E-05 -0.4687E+07
   -1.700000   10.64838  0.0000E+00  0.0000E+00  0.0000E+00  0.0000E+00  0.7910E-05  0.0000E+00
