 1 - depth, m
 2 - temperature, C
 3 - salinity, kg/kg
 4 - turbulent kinetic energy, m**2/s**2
 5 - dissipation rate, m**2/s**3
 6 - kinematic heat conductance, m**2/s
 7 - modulus of horizontal velocity, m/s
 8 - Richardson number, n/d
   -0.000000    0.00000  0.0000E+00  0.3189E-13  0.5207E-16  0.1000E-09  0.0000E+00  0.1278E+17
   -0.042497    0.19682  0.0000E+00  0.9236E-13  0.5207E-16  0.1000E-09  0.0000E+00  0.1245E+17
   -0.084995    0.39971  0.0000E+00  0.2850E-12  0.5365E-16  0.1000E-09  0.0000E+00  0.1201E+17
   -0.127493    0.60776  0.0000E+00  0.6208E-12  0.7789E-16  0.1000E-09  0.0000E+00  0.1103E+17
   -0.169991    0.81155  0.0000E+00  0.1169E-11  0.1261E-15  0.1000E-09  0.0000E+00  0.1009E+17
   -0.212490    1.01090  0.0000E+00  0.2063E-11  0.2089E-15  0.1000E-09  0.0000E+00  0.9189E+16
   -0.254989    1.20542  0.0000E+00  0.3540E-11  0.3466E-15  0.1000E-09  0.0000E+00  0.8320E+16
   -0.297488    1.39475  0.0000E+00  0.5990E-11  0.5734E-15  0.1000E-09  0.0000E+00  0.7513E+16
   -0.339988    1.57904  0.0000E+00  0.9979E-11  0.9383E-15  0.1000E-09  0.0000E+00  0.6774E+16
   -0.382488    1.75881  0.0000E+00  0.1649E-10  0.1525E-14  0.1000E-09  0.0000E+00  0.6077E+16
   -0.424988    1.93398  0.0000E+00  0.2701E-10  0.2460E-14  0.1000E-09  0.0000E+00  0.5448E+16
   -0.467488    2.10533  0.0000E+00  0.4396E-10  0.3943E-14  0.1000E-09  0.0000E+00  0.4854E+16
   -0.509988    2.27285  0.0000E+00  0.7125E-10  0.6296E-14  0.1000E-09  0.0000E+00  0.4373E+16
   -0.552489    2.43972  0.0000E+00  0.1152E-09  0.1003E-13  0.1000E-09  0.0000E+00  0.3915E+16
   -0.594990    2.60659  0.0000E+00  0.1859E-09  0.1594E-13  0.1000E-09  0.0000E+00  0.3470E+16
   -0.637491    2.77401  0.0000E+00  0.3017E-09  0.2549E-13  0.1000E-09  0.0000E+00  0.3038E+16
   -0.679992    2.94293  0.0000E+00  0.4912E-09  0.4089E-13  0.1000E-09  0.0000E+00  0.2600E+16
   -0.722493    3.11357  0.0000E+00  0.8026E-09  0.6583E-13  0.1012E-09  0.0000E+00  0.2158E+16
   -0.764994    3.28664  0.0000E+00  0.1316E-08  0.1064E-12  0.1968E-09  0.0000E+00  0.1701E+16
   -0.807495    3.46244  0.0000E+00  0.2159E-08  0.1720E-12  0.4448E-09  0.0000E+00  0.1217E+16
   -0.849997    3.63978  0.0000E+00  0.3508E-08  0.2757E-12  0.1205E-08  0.0000E+00  0.7201E+15
   -0.892498    3.81741  0.0000E+00  0.5670E-08  0.4395E-12  0.6193E-08  0.0000E+00  0.2237E+15
   -0.934999    3.99057  0.0000E+00  0.6183E-08  0.4814E-12  0.2183E-04  0.0000E+00 -0.8825E+11
   -0.977500    3.99175  0.0000E+00  0.6461E-08  0.5078E-12  0.2510E-04  0.0000E+00 -0.9610E+11
   -1.020001    3.99279  0.0000E+00  0.6731E-08  0.5366E-12  0.2824E-04  0.0000E+00 -0.1007E+12
   -1.062502    3.99372  0.0000E+00  0.6986E-08  0.5673E-12  0.3163E-04  0.0000E+00 -0.1025E+12
   -1.105003    3.99456  0.0000E+00  0.7222E-08  0.5994E-12  0.3389E-04  0.0000E+00 -0.1054E+12
   -1.147504    3.99534  0.0000E+00  0.7432E-08  0.6317E-12  0.3470E-04  0.0000E+00 -0.1115E+12
   -1.190005    3.99609  0.0000E+00  0.7616E-08  0.6642E-12  0.3477E-04  0.0000E+00 -0.1206E+12
   -1.232505    3.99685  0.0000E+00  0.7784E-08  0.6990E-12  0.3481E-04  0.0000E+00 -0.1337E+12
   -1.275006    3.99763  0.0000E+00  0.7946E-08  0.7385E-12  0.3465E-04  0.0000E+00 -0.1488E+12
   -1.317506    3.99844  0.0000E+00  0.8104E-08  0.7856E-12  0.3415E-04  0.0000E+00 -0.1652E+12
   -1.360006    3.99928  0.0000E+00  0.8259E-08  0.8435E-12  0.3330E-04  0.0000E+00 -0.1868E+12
   -1.402505    4.00017  0.0000E+00  0.8412E-08  0.9178E-12  0.3190E-04  0.0000E+00 -0.2116E+12
   -1.445004    4.00111  0.0000E+00  0.8544E-08  0.1006E-11  0.3005E-04  0.0000E+00 -0.2381E+12
   -1.487503    4.00211  0.0000E+00  0.8658E-08  0.1124E-11  0.2761E-04  0.0000E+00 -0.2776E+12
   -1.530002    4.00319  0.0000E+00  0.8763E-08  0.1325E-11  0.2359E-04  0.0000E+00 -0.3837E+12
   -1.572500    4.00459  0.0000E+00  0.8835E-08  0.1765E-11  0.1868E-04  0.0000E+00 -0.7166E+12
   -1.614998    4.00694  0.0000E+00  0.8611E-08  0.3542E-11  0.6735E-05  0.0000E+00 -0.2739E+13
   -1.657496    4.01415  0.0000E+00  0.6878E-08  0.1186E-10  0.9190E-06  0.0000E+00 -0.3700E+14
   -1.699993    4.06048  0.0000E+00  0.0000E+00  0.0000E+00  0.0000E+00  0.0000E+00  0.0000E+00
