 1 - depth, m
 2 - temperature, C
 3 - salinity, kg/kg
 4 - turbulent kinetic energy, m**2/s**2
 5 - dissipation rate, m**2/s**3
 6 - kinematic heat conductance, m**2/s
 7 - modulus of horizontal velocity, m/s
 8 - Richardson number, n/d
   -0.000000    0.00000  0.0000E+00  0.3188E-09  0.3477E-12  0.1000E-09  0.0000E+00  0.3278E+17
   -0.042497    0.52905  0.0000E+00  0.1172E-08  0.2823E-12  0.1000E-09  0.0000E+00  0.2653E+17
   -0.084994    1.03050  0.0000E+00  0.2768E-08  0.3735E-12  0.1000E-09  0.0000E+00  0.2135E+17
   -0.127491    1.51085  0.0000E+00  0.5385E-08  0.5905E-12  0.1187E-09  0.0000E+00  0.1688E+17
   -0.169989    1.97391  0.0000E+00  0.9650E-08  0.9786E-12  0.2389E-09  0.0000E+00  0.1294E+17
   -0.212487    2.42302  0.0000E+00  0.1671E-07  0.1640E-11  0.5520E-09  0.0000E+00  0.9418E+16
   -0.254985    2.86077  0.0000E+00  0.2860E-07  0.2763E-11  0.1421E-08  0.0000E+00  0.6204E+16
   -0.297484    3.28943  0.0000E+00  0.4885E-07  0.4681E-11  0.4805E-08  0.0000E+00  0.3214E+16
   -0.339983    3.71063  0.0000E+00  0.7794E-07  0.7397E-11  0.5936E-05  0.0000E+00  0.6192E+15
   -0.382482    4.03357  0.0000E+00  0.7855E-07  0.7460E-11  0.2713E-03  0.0000E+00 -0.1767E+12
   -0.424982    4.03381  0.0000E+00  0.7885E-07  0.7495E-11  0.2675E-03  0.0000E+00 -0.1778E+12
   -0.467481    4.03405  0.0000E+00  0.7914E-07  0.7535E-11  0.2679E-03  0.0000E+00 -0.1755E+12
   -0.509981    4.03429  0.0000E+00  0.7942E-07  0.7578E-11  0.2683E-03  0.0000E+00 -0.1756E+12
   -0.552481    4.03453  0.0000E+00  0.7969E-07  0.7626E-11  0.2684E-03  0.0000E+00 -0.1765E+12
   -0.594981    4.03476  0.0000E+00  0.7994E-07  0.7677E-11  0.2683E-03  0.0000E+00 -0.1777E+12
   -0.637482    4.03500  0.0000E+00  0.8019E-07  0.7735E-11  0.2678E-03  0.0000E+00 -0.1803E+12
   -0.679982    4.03524  0.0000E+00  0.8043E-07  0.7801E-11  0.2672E-03  0.0000E+00 -0.1829E+12
   -0.722483    4.03549  0.0000E+00  0.8068E-07  0.7875E-11  0.2661E-03  0.0000E+00 -0.1873E+12
   -0.764983    4.03573  0.0000E+00  0.8092E-07  0.7960E-11  0.2648E-03  0.0000E+00 -0.1922E+12
   -0.807484    4.03599  0.0000E+00  0.8116E-07  0.8057E-11  0.2631E-03  0.0000E+00 -0.1977E+12
   -0.849985    4.03624  0.0000E+00  0.8139E-07  0.8166E-11  0.2611E-03  0.0000E+00 -0.2034E+12
   -0.892485    4.03651  0.0000E+00  0.8162E-07  0.8287E-11  0.2587E-03  0.0000E+00 -0.2088E+12
   -0.934986    4.03678  0.0000E+00  0.8184E-07  0.8422E-11  0.2561E-03  0.0000E+00 -0.2128E+12
   -0.977486    4.03705  0.0000E+00  0.8203E-07  0.8570E-11  0.2530E-03  0.0000E+00 -0.2180E+12
   -1.019987    4.03733  0.0000E+00  0.8222E-07  0.8734E-11  0.2496E-03  0.0000E+00 -0.2230E+12
   -1.062487    4.03762  0.0000E+00  0.8238E-07  0.8913E-11  0.2458E-03  0.0000E+00 -0.2293E+12
   -1.104988    4.03791  0.0000E+00  0.8253E-07  0.9110E-11  0.2416E-03  0.0000E+00 -0.2351E+12
   -1.147488    4.03821  0.0000E+00  0.8265E-07  0.9322E-11  0.2372E-03  0.0000E+00 -0.2416E+12
   -1.189988    4.03851  0.0000E+00  0.8274E-07  0.9551E-11  0.2324E-03  0.0000E+00 -0.2494E+12
   -1.232488    4.03882  0.0000E+00  0.8282E-07  0.9815E-11  0.2268E-03  0.0000E+00 -0.2616E+12
   -1.274987    4.03915  0.0000E+00  0.8287E-07  0.1013E-10  0.2204E-03  0.0000E+00 -0.2752E+12
   -1.317487    4.03949  0.0000E+00  0.8289E-07  0.1051E-10  0.2130E-03  0.0000E+00 -0.2892E+12
   -1.359986    4.03984  0.0000E+00  0.8288E-07  0.1100E-10  0.2041E-03  0.0000E+00 -0.3077E+12
   -1.402485    4.04022  0.0000E+00  0.8283E-07  0.1165E-10  0.1936E-03  0.0000E+00 -0.3295E+12
   -1.444984    4.04062  0.0000E+00  0.8274E-07  0.1243E-10  0.1825E-03  0.0000E+00 -0.3524E+12
   -1.487482    4.04104  0.0000E+00  0.8260E-07  0.1340E-10  0.1701E-03  0.0000E+00 -0.3823E+12
   -1.529980    4.04150  0.0000E+00  0.8236E-07  0.1489E-10  0.1535E-03  0.0000E+00 -0.4411E+12
   -1.572478    4.04202  0.0000E+00  0.8185E-07  0.1805E-10  0.1306E-03  0.0000E+00 -0.5918E+12
   -1.614975    4.04272  0.0000E+00  0.7971E-07  0.3130E-10  0.6628E-04  0.0000E+00 -0.1309E+13
   -1.657472    4.04424  0.0000E+00  0.5774E-07  0.1844E-09  0.2652E-05  0.0000E+00 -0.4385E+14
   -1.699969    4.08130  0.0000E+00  0.0000E+00  0.0000E+00  0.0000E+00  0.0000E+00  0.0000E+00
