 1 - depth, m
 2 - temperature, C
 3 - salinity, kg/kg
 4 - turbulent kinetic energy, m**2/s**2
 5 - dissipation rate, m**2/s**3
 6 - kinematic heat conductance, m**2/s
 7 - modulus of horizontal velocity, m/s
 8 - Richardson number, n/d
   -0.000000    0.00000  0.0000E+00  0.3189E-13  0.5207E-16  0.1000E-09  0.0000E+00  0.1263E+17
   -0.042497    0.19454  0.0000E+00  0.3194E-13  0.5207E-16  0.1000E-09  0.0000E+00  0.1229E+17
   -0.084995    0.39470  0.0000E+00  0.1129E-12  0.5207E-16  0.1000E-09  0.0000E+00  0.1186E+17
   -0.127493    0.59974  0.0000E+00  0.3256E-12  0.6040E-16  0.1000E-09  0.0000E+00  0.1097E+17
   -0.169991    0.80180  0.0000E+00  0.6969E-12  0.9537E-16  0.1000E-09  0.0000E+00  0.1011E+17
   -0.212490    1.00076  0.0000E+00  0.1324E-11  0.1627E-15  0.1000E-09  0.0000E+00  0.9278E+16
   -0.254989    1.19649  0.0000E+00  0.2393E-11  0.2811E-15  0.1000E-09  0.0000E+00  0.8474E+16
   -0.297488    1.38877  0.0000E+00  0.4236E-11  0.4854E-15  0.1000E-09  0.0000E+00  0.7701E+16
   -0.339988    1.57740  0.0000E+00  0.7363E-11  0.8288E-15  0.1000E-09  0.0000E+00  0.6963E+16
   -0.382488    1.76224  0.0000E+00  0.1269E-10  0.1407E-14  0.1000E-09  0.0000E+00  0.6257E+16
   -0.424988    1.94314  0.0000E+00  0.2170E-10  0.2370E-14  0.1000E-09  0.0000E+00  0.5592E+16
   -0.467488    2.12012  0.0000E+00  0.3687E-10  0.3968E-14  0.1000E-09  0.0000E+00  0.4961E+16
   -0.509988    2.29306  0.0000E+00  0.6241E-10  0.6619E-14  0.1000E-09  0.0000E+00  0.4415E+16
   -0.552489    2.46389  0.0000E+00  0.1054E-09  0.1102E-13  0.1000E-09  0.0000E+00  0.3895E+16
   -0.594990    2.63288  0.0000E+00  0.1777E-09  0.1829E-13  0.1000E-09  0.0000E+00  0.3399E+16
   -0.637491    2.80036  0.0000E+00  0.3015E-09  0.3057E-13  0.1000E-09  0.0000E+00  0.2927E+16
   -0.679992    2.96687  0.0000E+00  0.5129E-09  0.5122E-13  0.1000E-09  0.0000E+00  0.2462E+16
   -0.722493    3.13215  0.0000E+00  0.8751E-09  0.8609E-13  0.1351E-09  0.0000E+00  0.2007E+16
   -0.764994    3.29605  0.0000E+00  0.1498E-08  0.1451E-12  0.2927E-09  0.0000E+00  0.1560E+16
   -0.807495    3.45792  0.0000E+00  0.2563E-08  0.2446E-12  0.6853E-09  0.0000E+00  0.1122E+16
   -0.849996    3.61621  0.0000E+00  0.4337E-08  0.4079E-12  0.1807E-08  0.0000E+00  0.7091E+15
   -0.892498    3.76981  0.0000E+00  0.7295E-08  0.6763E-12  0.6421E-08  0.0000E+00  0.3309E+15
   -0.934999    3.91784  0.0000E+00  0.1166E-07  0.1071E-11  0.1055E-06  0.0000E+00  0.3324E+14
   -0.977500    4.00829  0.0000E+00  0.1215E-07  0.1118E-11  0.5241E-04  0.0000E+00 -0.1473E+12
   -1.020001    4.00872  0.0000E+00  0.1238E-07  0.1144E-11  0.5131E-04  0.0000E+00 -0.1538E+12
   -1.062502    4.00915  0.0000E+00  0.1260E-07  0.1173E-11  0.5162E-04  0.0000E+00 -0.1562E+12
   -1.105003    4.00958  0.0000E+00  0.1281E-07  0.1204E-11  0.5183E-04  0.0000E+00 -0.1578E+12
   -1.147504    4.01001  0.0000E+00  0.1299E-07  0.1236E-11  0.5186E-04  0.0000E+00 -0.1590E+12
   -1.190005    4.01044  0.0000E+00  0.1315E-07  0.1271E-11  0.5163E-04  0.0000E+00 -0.1620E+12
   -1.232505    4.01086  0.0000E+00  0.1329E-07  0.1311E-11  0.5126E-04  0.0000E+00 -0.1697E+12
   -1.275005    4.01130  0.0000E+00  0.1343E-07  0.1358E-11  0.5061E-04  0.0000E+00 -0.1794E+12
   -1.317505    4.01175  0.0000E+00  0.1355E-07  0.1416E-11  0.4963E-04  0.0000E+00 -0.1914E+12
   -1.360005    4.01223  0.0000E+00  0.1367E-07  0.1487E-11  0.4822E-04  0.0000E+00 -0.2084E+12
   -1.402505    4.01274  0.0000E+00  0.1377E-07  0.1581E-11  0.4625E-04  0.0000E+00 -0.2261E+12
   -1.445004    4.01328  0.0000E+00  0.1385E-07  0.1694E-11  0.4382E-04  0.0000E+00 -0.2416E+12
   -1.487503    4.01384  0.0000E+00  0.1390E-07  0.1834E-11  0.4081E-04  0.0000E+00 -0.2658E+12
   -1.530002    4.01445  0.0000E+00  0.1393E-07  0.2051E-11  0.3706E-04  0.0000E+00 -0.3340E+12
   -1.572500    4.01520  0.0000E+00  0.1390E-07  0.2506E-11  0.3203E-04  0.0000E+00 -0.5571E+12
   -1.614998    4.01641  0.0000E+00  0.1348E-07  0.4420E-11  0.1295E-04  0.0000E+00 -0.1696E+13
   -1.657496    4.01981  0.0000E+00  0.1022E-07  0.1689E-10  0.1182E-05  0.0000E+00 -0.2654E+14
   -1.699993    4.05348  0.0000E+00  0.0000E+00  0.0000E+00  0.0000E+00  0.0000E+00  0.0000E+00
