 1 - depth, m
 2 - temperature, C
 3 - salinity, kg/kg
 4 - turbulent kinetic energy, m**2/s**2
 5 - dissipation rate, m**2/s**3
 6 - kinematic heat conductance, m**2/s
 7 - modulus of horizontal velocity, m/s
 8 - Richardson number, n/d
   -0.000000    0.00000  0.0000E+00  0.3189E-13  0.5207E-16  0.1000E-09  0.0000E+00  0.8864E+16
   -0.042497    0.13543  0.0000E+00  0.3189E-13  0.5207E-16  0.1000E-09  0.0000E+00  0.8824E+16
   -0.084995    0.27549  0.0000E+00  0.3189E-13  0.5207E-16  0.1000E-09  0.0000E+00  0.8724E+16
   -0.127493    0.41971  0.0000E+00  0.3189E-13  0.5207E-16  0.1000E-09  0.0000E+00  0.8333E+16
   -0.169992    0.56350  0.0000E+00  0.3189E-13  0.5207E-16  0.1000E-09  0.0000E+00  0.7940E+16
   -0.212490    0.70672  0.0000E+00  0.3189E-13  0.5207E-16  0.1000E-09  0.0000E+00  0.7551E+16
   -0.254990    0.84933  0.0000E+00  0.3189E-13  0.5207E-16  0.1000E-09  0.0000E+00  0.7162E+16
   -0.297489    0.99121  0.0000E+00  0.3189E-13  0.5207E-16  0.1000E-09  0.0000E+00  0.6757E+16
   -0.339989    1.13187  0.0000E+00  0.3189E-13  0.5207E-16  0.1000E-09  0.0000E+00  0.6333E+16
   -0.382489    1.27065  0.0000E+00  0.3189E-13  0.5207E-16  0.1000E-09  0.0000E+00  0.5914E+16
   -0.424989    1.40727  0.0000E+00  0.3189E-13  0.5207E-16  0.1000E-09  0.0000E+00  0.5486E+16
   -0.467489    1.54114  0.0000E+00  0.3189E-13  0.5207E-16  0.1000E-09  0.0000E+00  0.5069E+16
   -0.509990    1.67201  0.0000E+00  0.3189E-13  0.5207E-16  0.1000E-09  0.0000E+00  0.4690E+16
   -0.552491    1.80034  0.0000E+00  0.3189E-13  0.5207E-16  0.1000E-09  0.0000E+00  0.4327E+16
   -0.594991    1.92609  0.0000E+00  0.3189E-13  0.5207E-16  0.1000E-09  0.0000E+00  0.3986E+16
   -0.637492    2.04938  0.0000E+00  0.3189E-13  0.5207E-16  0.1000E-09  0.0000E+00  0.3672E+16
   -0.679994    2.17062  0.0000E+00  0.3189E-13  0.5207E-16  0.1000E-09  0.0000E+00  0.3367E+16
   -0.722495    2.28960  0.0000E+00  0.3189E-13  0.5207E-16  0.1000E-09  0.0000E+00  0.3076E+16
   -0.764996    2.40635  0.0000E+00  0.3189E-13  0.5207E-16  0.1000E-09  0.0000E+00  0.2793E+16
   -0.807497    2.52060  0.0000E+00  0.3189E-13  0.5207E-16  0.1000E-09  0.0000E+00  0.2504E+16
   -0.849999    2.63144  0.0000E+00  0.3189E-13  0.5207E-16  0.1000E-09  0.0000E+00  0.2222E+16
   -0.892500    2.73817  0.0000E+00  0.3189E-13  0.5207E-16  0.1000E-09  0.0000E+00  0.1984E+16
   -0.935001    2.84206  0.0000E+00  0.3189E-13  0.5207E-16  0.1000E-09  0.0000E+00  0.1769E+16
   -0.977503    2.94355  0.0000E+00  0.3189E-13  0.5207E-16  0.1000E-09  0.0000E+00  0.1564E+16
   -1.020004    3.04248  0.0000E+00  0.3189E-13  0.5207E-16  0.1000E-09  0.0000E+00  0.1358E+16
   -1.062505    3.13783  0.0000E+00  0.3189E-13  0.5207E-16  0.1000E-09  0.0000E+00  0.1165E+16
   -1.105006    3.22931  0.0000E+00  0.3189E-13  0.5207E-16  0.1000E-09  0.0000E+00  0.9792E+15
   -1.147507    3.31591  0.0000E+00  0.3189E-13  0.5207E-16  0.1000E-09  0.0000E+00  0.8071E+15
   -1.190008    3.39688  0.0000E+00  0.1096E-12  0.7618E-16  0.1000E-09  0.0000E+00  0.6588E+15
   -1.232508    3.47246  0.0000E+00  0.3883E-12  0.2306E-15  0.1000E-09  0.0000E+00  0.5367E+15
   -1.275009    3.54355  0.0000E+00  0.1294E-11  0.7366E-15  0.1000E-09  0.0000E+00  0.4389E+15
   -1.317509    3.61165  0.0000E+00  0.4250E-11  0.2348E-14  0.1000E-09  0.0000E+00  0.3835E+15
   -1.360009    3.68355  0.0000E+00  0.1395E-10  0.7501E-14  0.1000E-09  0.0000E+00  0.3238E+15
   -1.402509    3.76160  0.0000E+00  0.4593E-10  0.2406E-13  0.3143E-09  0.0000E+00  0.2334E+15
   -1.445008    3.84215  0.0000E+00  0.1423E-09  0.7282E-13  0.1698E-08  0.0000E+00  0.1280E+15
   -1.487507    3.91942  0.0000E+00  0.4321E-09  0.2174E-12  0.1648E-07  0.0000E+00  0.3500E+14
   -1.530006    3.98995  0.0000E+00  0.1297E-08  0.6664E-12  0.6534E-06  0.0000E+00 -0.3666E+13
   -1.572504    4.00833  0.0000E+00  0.2605E-08  0.1723E-11  0.1541E-05  0.0000E+00 -0.7841E+13
   -1.615003    4.02486  0.0000E+00  0.4073E-08  0.4013E-11  0.1477E-05  0.0000E+00 -0.1669E+14
   -1.657500    4.04646  0.0000E+00  0.4495E-08  0.9380E-11  0.6300E-06  0.0000E+00 -0.6656E+14
   -1.699998    4.09643  0.0000E+00  0.0000E+00  0.0000E+00  0.0000E+00  0.0000E+00  0.0000E+00
