 1 - depth, m
 2 - temperature, C
 3 - salinity, kg/kg
 4 - turbulent kinetic energy, m**2/s**2
 5 - dissipation rate, m**2/s**3
 6 - kinematic heat conductance, m**2/s
 7 - modulus of horizontal velocity, m/s
 8 - Richardson number, n/d
   -0.000000    0.00000  0.0000E+00  0.3189E-13  0.5206E-16  0.1000E-09  0.0000E+00  0.9728E+16
   -0.042497    0.14890  0.0000E+00  0.3189E-13  0.5206E-16  0.1000E-09  0.0000E+00  0.9707E+16
   -0.084995    0.30389  0.0000E+00  0.3189E-13  0.5206E-16  0.1000E-09  0.0000E+00  0.9608E+16
   -0.127493    0.46444  0.0000E+00  0.3189E-13  0.5206E-16  0.1000E-09  0.0000E+00  0.9134E+16
   -0.169992    0.62461  0.0000E+00  0.3189E-13  0.5206E-16  0.1000E-09  0.0000E+00  0.8659E+16
   -0.212491    0.78429  0.0000E+00  0.3189E-13  0.5206E-16  0.1000E-09  0.0000E+00  0.8187E+16
   -0.254990    0.94338  0.0000E+00  0.3189E-13  0.5206E-16  0.1000E-09  0.0000E+00  0.7715E+16
   -0.297490    1.10176  0.0000E+00  0.3189E-13  0.5206E-16  0.1000E-09  0.0000E+00  0.7238E+16
   -0.339989    1.25914  0.0000E+00  0.3189E-13  0.5206E-16  0.1000E-09  0.0000E+00  0.6758E+16
   -0.382489    1.41516  0.0000E+00  0.3189E-13  0.5206E-16  0.1000E-09  0.0000E+00  0.6283E+16
   -0.424990    1.56963  0.0000E+00  0.1114E-12  0.5206E-16  0.1000E-09  0.0000E+00  0.5811E+16
   -0.467490    1.72227  0.0000E+00  0.3222E-12  0.6595E-16  0.1000E-09  0.0000E+00  0.5349E+16
   -0.509991    1.87289  0.0000E+00  0.7041E-12  0.1120E-15  0.1000E-09  0.0000E+00  0.4924E+16
   -0.552492    2.02209  0.0000E+00  0.1380E-11  0.2013E-15  0.1000E-09  0.0000E+00  0.4510E+16
   -0.594993    2.16985  0.0000E+00  0.2586E-11  0.3627E-15  0.1000E-09  0.0000E+00  0.4112E+16
   -0.637494    2.31630  0.0000E+00  0.4796E-11  0.6562E-15  0.1000E-09  0.0000E+00  0.3733E+16
   -0.679995    2.46171  0.0000E+00  0.8854E-11  0.1187E-14  0.1000E-09  0.0000E+00  0.3358E+16
   -0.722496    2.60593  0.0000E+00  0.1633E-10  0.2148E-14  0.1000E-09  0.0000E+00  0.2994E+16
   -0.764998    2.74896  0.0000E+00  0.3015E-10  0.3894E-14  0.1000E-09  0.0000E+00  0.2636E+16
   -0.807499    2.89057  0.0000E+00  0.5555E-10  0.7046E-14  0.1000E-09  0.0000E+00  0.2277E+16
   -0.850001    3.02996  0.0000E+00  0.1011E-09  0.1260E-13  0.1000E-09  0.0000E+00  0.1926E+16
   -0.892502    3.16646  0.0000E+00  0.1831E-09  0.2242E-13  0.1000E-09  0.0000E+00  0.1607E+16
   -0.935004    3.30115  0.0000E+00  0.3279E-09  0.3945E-13  0.1000E-09  0.0000E+00  0.1302E+16
   -0.977505    3.43423  0.0000E+00  0.5832E-09  0.6895E-13  0.2155E-09  0.0000E+00  0.1006E+16
   -1.020006    3.56525  0.0000E+00  0.1029E-08  0.1196E-12  0.5235E-09  0.0000E+00  0.7186E+15
   -1.062508    3.69292  0.0000E+00  0.1804E-08  0.2061E-12  0.1437E-08  0.0000E+00  0.4507E+15
   -1.105009    3.81672  0.0000E+00  0.3137E-08  0.3524E-12  0.5418E-08  0.0000E+00  0.2043E+15
   -1.147510    3.93412  0.0000E+00  0.5185E-08  0.5756E-12  0.9630E-07  0.0000E+00  0.1859E+14
   -1.190011    4.00508  0.0000E+00  0.5827E-08  0.6502E-12  0.2169E-04  0.0000E+00 -0.2263E+12
   -1.232511    4.00584  0.0000E+00  0.6134E-08  0.6929E-12  0.2244E-04  0.0000E+00 -0.2256E+12
   -1.275012    4.00656  0.0000E+00  0.6412E-08  0.7400E-12  0.2269E-04  0.0000E+00 -0.2316E+12
   -1.317512    4.00728  0.0000E+00  0.6670E-08  0.7944E-12  0.2288E-04  0.0000E+00 -0.2468E+12
   -1.360012    4.00802  0.0000E+00  0.6910E-08  0.8599E-12  0.2274E-04  0.0000E+00 -0.2709E+12
   -1.402512    4.00880  0.0000E+00  0.7139E-08  0.9439E-12  0.2137E-04  0.0000E+00 -0.3065E+12
   -1.445011    4.00965  0.0000E+00  0.7333E-08  0.1047E-11  0.1899E-04  0.0000E+00 -0.3537E+12
   -1.487511    4.01060  0.0000E+00  0.7495E-08  0.1180E-11  0.1668E-04  0.0000E+00 -0.4221E+12
   -1.530009    4.01168  0.0000E+00  0.7644E-08  0.1392E-11  0.1500E-04  0.0000E+00 -0.5715E+12
   -1.572508    4.01308  0.0000E+00  0.7774E-08  0.1832E-11  0.1370E-04  0.0000E+00 -0.1022E+13
   -1.615006    4.01542  0.0000E+00  0.7581E-08  0.3381E-11  0.5631E-05  0.0000E+00 -0.3281E+13
   -1.657504    4.02189  0.0000E+00  0.5887E-08  0.9869E-11  0.7905E-06  0.0000E+00 -0.3409E+14
   -1.700001    4.06128  0.0000E+00  0.0000E+00  0.0000E+00  0.0000E+00  0.0000E+00  0.0000E+00
