 1 - depth, m
 2 - temperature, C
 3 - salinity, kg/kg
 4 - turbulent kinetic energy, m**2/s**2
 5 - dissipation rate, m**2/s**3
 6 - kinematic heat conductance, m**2/s
 7 - modulus of horizontal velocity, m/s
 8 - Richardson number, n/d
   -0.000000    0.45439  0.0000E+00  0.1128E-03  0.3989E-04  0.5734E-04  0.9464E-01  0.3302E-02
   -0.042497    0.46770  0.0000E+00  0.6190E-04  0.1117E-04  0.7117E-04  0.2930E-01  0.8600E-02
   -0.084995    0.47064  0.0000E+00  0.4275E-04  0.4576E-05  0.6969E-04  0.2026E-01  0.7863E-02
   -0.127493    0.47303  0.0000E+00  0.3055E-04  0.2110E-05  0.6915E-04  0.1537E-01  0.6251E-01
   -0.169992    0.47511  0.0000E+00  0.2206E-04  0.1044E-05  0.6732E-04  0.1184E-01  0.1132E-01
   -0.212491    0.47709  0.0000E+00  0.1583E-04  0.5391E-06  0.6390E-04  0.9070E-02  0.3179E-01
   -0.254990    0.47903  0.0000E+00  0.1126E-04  0.2869E-06  0.5939E-04  0.6949E-02  0.3982E-01
   -0.297489    0.48092  0.0000E+00  0.8004E-05  0.1575E-06  0.5374E-04  0.5402E-02  0.9062E-01
   -0.339989    0.48283  0.0000E+00  0.5740E-05  0.8905E-07  0.4732E-04  0.4250E-02  0.1676E+00
   -0.382489    0.48486  0.0000E+00  0.4123E-05  0.5108E-07  0.4142E-04  0.3327E-02  0.1087E+01
   -0.424989    0.48701  0.0000E+00  0.2993E-05  0.3005E-07  0.3475E-04  0.2634E-02  0.5197E+00
   -0.467490    0.48960  0.0000E+00  0.2170E-05  0.1799E-07  0.2818E-04  0.2031E-02  0.9518E+00
   -0.509990    0.49307  0.0000E+00  0.1552E-05  0.1086E-07  0.2182E-04  0.1509E-02  0.4407E+01
   -0.552491    0.50057  0.0000E+00  0.1082E-05  0.6539E-08  0.1566E-04  0.1067E-02  0.1038E+03
   -0.594992    0.51989  0.0000E+00  0.7219E-06  0.3848E-08  0.1015E-04  0.6925E-03  0.4485E+04
   -0.637493    0.55233  0.0000E+00  0.4398E-06  0.2119E-08  0.5334E-05  0.4087E-03  0.3019E+06
   -0.679994    0.59201  0.0000E+00  0.2077E-06  0.9574E-09  0.1132E-05  0.2234E-03  0.2469E+08
   -0.722496    0.66921  0.0000E+00  0.5039E-07  0.2326E-09  0.5610E-07  0.7643E-04  0.2555E+10
   -0.764997    0.85990  0.0000E+00  0.5763E-08  0.2722E-10  0.7003E-08  0.9880E-05  0.2779E+12
   -0.807499    1.04233  0.0000E+00  0.4829E-09  0.2850E-11  0.1013E-08  0.1052E-05  0.2310E+14
   -0.850000    1.17241  0.0000E+00  0.2579E-10  0.1036E-11  0.1705E-09  0.1098E-06  0.3665E+15
   -0.892501    1.25010  0.0000E+00  0.4419E-11  0.1000E-11  0.1000E-09  0.1154E-07  0.7259E+15
   -0.935003    1.29972  0.0000E+00  0.4419E-11  0.1000E-11  0.1000E-09  0.1402E-08  0.1037E+16
   -0.977504    1.36042  0.0000E+00  0.4419E-11  0.1000E-11  0.1000E-09  0.1616E-09  0.1547E+16
   -1.020005    1.43411  0.0000E+00  0.4419E-11  0.1000E-11  0.1000E-09  0.2143E-10  0.3579E+16
   -1.062507    1.54370  0.0000E+00  0.1066E-09  0.1000E-11  0.1895E-09  0.2741E-11  0.5828E+16
   -1.105008    1.69825  0.0000E+00  0.8631E-09  0.1165E-11  0.2712E-09  0.4222E-12  0.7909E+16
   -1.147509    1.92812  0.0000E+00  0.3209E-08  0.1963E-11  0.5213E-09  0.7448E-13  0.9918E+16
   -1.190009    2.26548  0.0000E+00  0.9615E-08  0.4446E-11  0.1530E-08  0.9717E-14  0.1020E+17
   -1.232510    2.72400  0.0000E+00  0.2708E-07  0.1133E-10  0.1967E-07  0.7302E-15  0.7416E+16
   -1.275010    3.24429  0.0000E+00  0.4204E-07  0.1774E-10  0.2068E-04  0.4925E-16  0.4496E+16
   -1.317511    3.63144  0.0000E+00  0.5368E-07  0.2312E-10  0.3512E-04  0.2722E-17  0.2289E+16
   -1.360011    3.92295  0.0000E+00  0.6352E-07  0.2791E-10  0.4516E-04  0.2413E-18  0.4481E+15
   -1.402510    4.07612  0.0000E+00  0.6764E-07  0.3042E-10  0.5655E-04  0.9564E-19 -0.4097E+13
   -1.445010    4.07919  0.0000E+00  0.6997E-07  0.3254E-10  0.5640E-04  0.5377E-19 -0.4313E+13
   -1.487509    4.08229  0.0000E+00  0.7161E-07  0.3491E-10  0.5515E-04  0.2754E-19 -0.4636E+13
   -1.530008    4.08550  0.0000E+00  0.7267E-07  0.3826E-10  0.5212E-04  0.1140E-19 -0.5277E+13
   -1.572507    4.08902  0.0000E+00  0.7309E-07  0.4496E-10  0.4587E-04  0.3921E-20 -0.7021E+13
   -1.615005    4.09351  0.0000E+00  0.7152E-07  0.6958E-10  0.2679E-04  0.1523E-20 -0.1458E+14
   -1.657502    4.10240  0.0000E+00  0.5560E-07  0.2199E-09  0.3079E-05  0.3850E-21 -0.1750E+15
   -1.700000    4.17622  0.0000E+00  0.0000E+00  0.0000E+00  0.0000E+00  0.3868E-21  0.0000E+00
