 1 - depth, m
 2 - temperature, C
 3 - salinity, kg/kg
 4 - turbulent kinetic energy, m**2/s**2
 5 - dissipation rate, m**2/s**3
 6 - kinematic heat conductance, m**2/s
 7 - modulus of horizontal velocity, m/s
 8 - Richardson number, n/d
   -0.000000    0.00000  0.0000E+00  0.1466E-05  0.3663E-07  0.5237E-05  0.6419E-02  0.2948E-01
   -0.042497    0.01221  0.0000E+00  0.5269E-06  0.7613E-08  0.3039E-05  0.2843E-02  0.2628E+00
   -0.084994    0.03808  0.0000E+00  0.1028E-06  0.1103E-08  0.6499E-06  0.1098E-02  0.1229E+02
   -0.127492    0.17696  0.0000E+00  0.1172E-07  0.1041E-09  0.5530E-07  0.2684E-03  0.4839E+03
   -0.169990    0.37007  0.0000E+00  0.1074E-08  0.6547E-11  0.2039E-08  0.4628E-04  0.1952E+05
   -0.212489    0.56525  0.0000E+00  0.1983E-08  0.1150E-11  0.3324E-09  0.6321E-05  0.1019E+07
   -0.254988    0.76413  0.0000E+00  0.5830E-08  0.1573E-11  0.4192E-09  0.8067E-06  0.6787E+08
   -0.297487    0.98717  0.0000E+00  0.1407E-07  0.3235E-11  0.7429E-09  0.1134E-06  0.4182E+10
   -0.339986    1.27401  0.0000E+00  0.3103E-07  0.6777E-11  0.1320E-08  0.1904E-07  0.1701E+12
   -0.382486    1.67646  0.0000E+00  0.6614E-07  0.1403E-10  0.2648E-08  0.3196E-08  0.6564E+13
   -0.424986    2.23913  0.0000E+00  0.1371E-06  0.2842E-10  0.9381E-08  0.6828E-09  0.7633E+14
   -0.467486    2.99421  0.0000E+00  0.2278E-06  0.4723E-10  0.8143E-04  0.1378E-09  0.3867E+15
   -0.509986    3.67616  0.0000E+00  0.2953E-06  0.6195E-10  0.2609E-03  0.2331E-10  0.7926E+15
   -0.552487    4.06408  0.0000E+00  0.3104E-06  0.6548E-10  0.4291E-03  0.3518E-11  0.6750E+14
   -0.594987    4.11207  0.0000E+00  0.3116E-06  0.6584E-10  0.4657E-03  0.1383E-11 -0.8191E+12
   -0.637488    4.11249  0.0000E+00  0.3126E-06  0.6621E-10  0.4656E-03  0.1213E-11 -0.8004E+12
   -0.679989    4.11289  0.0000E+00  0.3136E-06  0.6664E-10  0.4654E-03  0.1064E-11 -0.8102E+12
   -0.722490    4.11330  0.0000E+00  0.3146E-06  0.6713E-10  0.4647E-03  0.9309E-12 -0.8302E+12
   -0.764991    4.11372  0.0000E+00  0.3156E-06  0.6771E-10  0.4633E-03  0.8161E-12 -0.8588E+12
   -0.807492    4.11415  0.0000E+00  0.3166E-06  0.6839E-10  0.4613E-03  0.7183E-12 -0.8816E+12
   -0.849993    4.11459  0.0000E+00  0.3175E-06  0.6915E-10  0.4587E-03  0.6339E-12 -0.9123E+12
   -0.892494    4.11504  0.0000E+00  0.3183E-06  0.7000E-10  0.4555E-03  0.5602E-12 -0.9268E+12
   -0.934995    4.11550  0.0000E+00  0.3191E-06  0.7095E-10  0.4517E-03  0.4962E-12 -0.9359E+12
   -0.977496    4.11596  0.0000E+00  0.3197E-06  0.7201E-10  0.4472E-03  0.4390E-12 -0.9448E+12
   -1.019997    4.11642  0.0000E+00  0.3203E-06  0.7318E-10  0.4419E-03  0.3885E-12 -0.9575E+12
   -1.062498    4.11689  0.0000E+00  0.3208E-06  0.7447E-10  0.4358E-03  0.3427E-12 -0.9709E+12
   -1.104999    4.11737  0.0000E+00  0.3211E-06  0.7590E-10  0.4290E-03  0.3012E-12 -0.9857E+12
   -1.147499    4.11784  0.0000E+00  0.3214E-06  0.7745E-10  0.4215E-03  0.2624E-12 -0.1001E+13
   -1.190000    4.11833  0.0000E+00  0.3215E-06  0.7914E-10  0.4134E-03  0.2254E-12 -0.1026E+13
   -1.232500    4.11882  0.0000E+00  0.3215E-06  0.8112E-10  0.4032E-03  0.1905E-12 -0.1056E+13
   -1.275000    4.11933  0.0000E+00  0.3215E-06  0.8350E-10  0.3909E-03  0.1596E-12 -0.1096E+13
   -1.317500    4.11985  0.0000E+00  0.3212E-06  0.8645E-10  0.3770E-03  0.1324E-12 -0.1136E+13
   -1.360000    4.12039  0.0000E+00  0.3209E-06  0.9024E-10  0.3607E-03  0.1089E-12 -0.1195E+13
   -1.402499    4.12095  0.0000E+00  0.3203E-06  0.9529E-10  0.3529E-03  0.8917E-13 -0.1207E+13
   -1.444998    4.12152  0.0000E+00  0.3196E-06  0.1014E-09  0.3308E-03  0.7249E-13 -0.1295E+13
   -1.487497    4.12213  0.0000E+00  0.3186E-06  0.1090E-09  0.2979E-03  0.5672E-13 -0.1463E+13
   -1.529996    4.12281  0.0000E+00  0.3173E-06  0.1208E-09  0.2694E-03  0.4193E-13 -0.1624E+13
   -1.572494    4.12356  0.0000E+00  0.3146E-06  0.1467E-09  0.2234E-03  0.2953E-13 -0.2048E+13
   -1.614992    4.12450  0.0000E+00  0.3055E-06  0.2425E-09  0.1473E-03  0.2139E-13 -0.3214E+13
   -1.657489    4.12598  0.0000E+00  0.2204E-06  0.1331E-08  0.4994E-05  0.1391E-13 -0.1080E+15
   -1.699986    4.16887  0.0000E+00  0.0000E+00  0.0000E+00  0.0000E+00  0.1393E-13  0.0000E+00
