 1 - depth, m
 2 - temperature, C
 3 - salinity, kg/kg
 4 - turbulent kinetic energy, m**2/s**2
 5 - dissipation rate, m**2/s**3
 6 - kinematic heat conductance, m**2/s
 7 - modulus of horizontal velocity, m/s
 8 - Richardson number, n/d
   -0.000000   12.40448  0.0000E+00  0.4472E-03  0.6316E-03  0.8067E-04  0.2431E+00  0.1015E-02
   -0.042498   12.51626  0.0000E+00  0.2217E-03  0.1812E-03  0.2067E-03  0.5620E-01 -0.2755E-01
   -0.084996   12.53582  0.0000E+00  0.1512E-03  0.7879E-04  0.1578E-03  0.3481E-01 -0.1994E+00
   -0.127494   12.54966  0.0000E+00  0.1104E-03  0.3878E-04  0.1452E-03  0.2704E-01 -0.3242E+00
   -0.169993   12.56094  0.0000E+00  0.8245E-04  0.1977E-04  0.1381E-03  0.2175E-01 -0.1094E+00
   -0.212493   12.57066  0.0000E+00  0.6198E-04  0.1023E-04  0.1424E-03  0.1742E-01  0.2284E+00
   -0.254992   12.57931  0.0000E+00  0.4719E-04  0.5164E-05  0.1508E-03  0.1407E-01  0.7026E+02
   -0.297492   12.58726  0.0000E+00  0.3698E-04  0.2789E-05  0.1633E-03  0.1158E-01  0.1151E+02
   -0.339992   12.59384  0.0000E+00  0.2985E-04  0.1554E-05  0.1780E-03  0.9668E-02  0.1171E+02
   -0.382493   12.59954  0.0000E+00  0.2478E-04  0.9043E-06  0.1975E-03  0.8090E-02  0.1273E+03
   -0.424993   12.60424  0.0000E+00  0.2117E-04  0.5622E-06  0.2206E-03  0.6879E-02  0.9949E+04
   -0.467494   12.60832  0.0000E+00  0.1850E-04  0.3757E-06  0.2513E-03  0.5812E-02  0.2050E+02
   -0.509995   12.61189  0.0000E+00  0.1649E-04  0.2715E-06  0.2928E-03  0.4898E-02  0.1999E+02
   -0.552496   12.61482  0.0000E+00  0.1490E-04  0.2041E-06  0.3378E-03  0.4132E-02  0.1329E+03
   -0.594998   12.61732  0.0000E+00  0.1360E-04  0.1578E-06  0.3855E-03  0.3468E-02  0.7525E+03
   -0.637499   12.61941  0.0000E+00  0.1252E-04  0.1249E-06  0.4286E-03  0.2901E-02  0.1719E+02
   -0.680001   12.62121  0.0000E+00  0.1160E-04  0.1006E-06  0.4733E-03  0.2431E-02  0.2224E+02
   -0.722502   12.62277  0.0000E+00  0.1081E-04  0.8224E-07  0.5173E-03  0.2038E-02  0.1669E+02
   -0.765004   12.62413  0.0000E+00  0.1013E-04  0.6803E-07  0.5605E-03  0.1718E-02  0.1138E+02
   -0.807506   12.62535  0.0000E+00  0.9539E-05  0.5687E-07  0.5946E-03  0.1462E-02  0.5462E+01
   -0.850008   12.62648  0.0000E+00  0.9044E-05  0.4827E-07  0.6265E-03  0.1251E-02  0.1174E+02
   -0.892510   12.62753  0.0000E+00  0.8623E-05  0.4150E-07  0.6538E-03  0.1079E-02  0.6497E+01
   -0.935011   12.62852  0.0000E+00  0.8270E-05  0.3627E-07  0.6778E-03  0.9363E-03  0.3607E+01
   -0.977513   12.62945  0.0000E+00  0.7967E-05  0.3215E-07  0.6988E-03  0.8134E-03  0.4080E+01
   -1.020015   12.63033  0.0000E+00  0.7703E-05  0.2888E-07  0.7096E-03  0.7100E-03  0.1657E+02
   -1.062516   12.63119  0.0000E+00  0.7465E-05  0.2622E-07  0.7220E-03  0.6164E-03  0.3128E+01
   -1.105018   12.63202  0.0000E+00  0.7255E-05  0.2414E-07  0.7281E-03  0.5353E-03  0.3334E+01
   -1.147519   12.63282  0.0000E+00  0.7070E-05  0.2259E-07  0.7295E-03  0.4612E-03  0.3846E+01
   -1.190020   12.63361  0.0000E+00  0.6906E-05  0.2147E-07  0.7255E-03  0.3923E-03  0.4055E+01
   -1.232521   12.63438  0.0000E+00  0.6755E-05  0.2071E-07  0.7166E-03  0.3291E-03  0.4878E+01
   -1.275022   12.63516  0.0000E+00  0.6615E-05  0.2029E-07  0.7006E-03  0.2764E-03  0.5668E+01
   -1.317523   12.63594  0.0000E+00  0.6484E-05  0.2019E-07  0.6783E-03  0.2335E-03  0.8160E+01
   -1.360023   12.63674  0.0000E+00  0.6355E-05  0.2045E-07  0.6482E-03  0.1994E-03  0.1007E+02
   -1.402523   12.63758  0.0000E+00  0.6216E-05  0.2123E-07  0.6178E-03  0.1719E-03  0.1680E+02
   -1.445023   12.63846  0.0000E+00  0.6065E-05  0.2283E-07  0.5661E-03  0.1480E-03  0.2393E+02
   -1.487523   12.63947  0.0000E+00  0.5896E-05  0.2563E-07  0.5328E-03  0.1227E-03  0.3717E+02
   -1.530022   12.64055  0.0000E+00  0.5670E-05  0.3199E-07  0.4382E-03  0.9813E-04 -0.1014E+04
   -1.572521   12.64233  0.0000E+00  0.5335E-05  0.4702E-07  0.4548E-03  0.7114E-04  0.4289E+05
   -1.615020   12.64315  0.0000E+00  0.4497E-05  0.1154E-06  0.2009E-03  0.5787E-04 -0.1354E+07
   -1.657518   12.65144  0.0000E+00  0.2929E-05  0.3130E-06  0.8137E-04  0.3643E-04 -0.8436E+06
   -1.700015   12.65867  0.0000E+00  0.0000E+00  0.0000E+00  0.0000E+00  0.5250E-04  0.0000E+00
