 1 - depth, m
 2 - temperature, C
 3 - salinity, kg/kg
 4 - turbulent kinetic energy, m**2/s**2
 5 - dissipation rate, m**2/s**3
 6 - kinematic heat conductance, m**2/s
 7 - modulus of horizontal velocity, m/s
 8 - Richardson number, n/d
   -0.000000   14.81647  0.0000E+00  0.8598E-05  0.4105E-06  0.1945E-04  0.1275E-01 -0.2776E-01
   -0.042497   14.83080  0.0000E+00  0.6319E-05  0.1485E-06  0.3127E-04  0.6788E-02 -0.7590E-01
   -0.084995   14.83875  0.0000E+00  0.4885E-05  0.7219E-07  0.4264E-04  0.4147E-02 -0.1591E+00
   -0.127493   14.84404  0.0000E+00  0.3989E-05  0.4068E-07  0.5765E-04  0.2654E-02 -0.3113E+00
   -0.169992   14.84774  0.0000E+00  0.3431E-05  0.2529E-07  0.8304E-04  0.1755E-02 -0.4925E+00
   -0.212491   14.85022  0.0000E+00  0.3107E-05  0.1751E-07  0.1739E-03  0.1201E-02  0.3782E+04
   -0.254990   14.85142  0.0000E+00  0.2947E-05  0.1373E-07  0.2265E-03  0.9112E-03  0.2457E+03
   -0.297490   14.85222  0.0000E+00  0.2863E-05  0.1147E-07  0.2484E-03  0.7600E-03  0.1214E+01
   -0.339990   14.85290  0.0000E+00  0.2816E-05  0.9860E-08  0.2753E-03  0.6421E-03  0.1261E+01
   -0.382490   14.85350  0.0000E+00  0.2794E-05  0.8677E-08  0.3031E-03  0.5478E-03  0.1258E+01
   -0.424990   14.85403  0.0000E+00  0.2789E-05  0.7790E-08  0.3315E-03  0.4717E-03  0.1305E+01
   -0.467490   14.85451  0.0000E+00  0.2794E-05  0.7108E-08  0.3601E-03  0.4063E-03  0.1333E+01
   -0.509991   14.85494  0.0000E+00  0.2806E-05  0.6573E-08  0.3886E-03  0.3493E-03  0.1366E+01
   -0.552492   14.85535  0.0000E+00  0.2821E-05  0.6148E-08  0.4164E-03  0.2996E-03  0.1421E+01
   -0.594993   14.85572  0.0000E+00  0.2838E-05  0.5810E-08  0.4429E-03  0.2560E-03  0.1480E+01
   -0.637494   14.85607  0.0000E+00  0.2855E-05  0.5534E-08  0.4684E-03  0.2185E-03  0.1557E+01
   -0.679995   14.85640  0.0000E+00  0.2872E-05  0.5309E-08  0.4924E-03  0.1873E-03  0.1717E+01
   -0.722497   14.85670  0.0000E+00  0.2890E-05  0.5126E-08  0.5150E-03  0.1616E-03  0.1937E+01
   -0.764998   14.85699  0.0000E+00  0.2908E-05  0.4976E-08  0.5360E-03  0.1407E-03  0.2260E+01
   -0.807500   14.85725  0.0000E+00  0.2927E-05  0.4854E-08  0.5555E-03  0.1239E-03  0.2749E+01
   -0.850001   14.85750  0.0000E+00  0.2947E-05  0.4758E-08  0.5731E-03  0.1101E-03  0.3361E+01
   -0.892503   14.85775  0.0000E+00  0.2967E-05  0.4683E-08  0.5891E-03  0.9834E-04  0.4100E+01
   -0.935004   14.85798  0.0000E+00  0.2988E-05  0.4627E-08  0.6032E-03  0.8823E-04  0.5101E+01
   -0.977505   14.85821  0.0000E+00  0.3008E-05  0.4589E-08  0.6153E-03  0.7928E-04  0.6185E+01
   -1.020007   14.85844  0.0000E+00  0.3028E-05  0.4569E-08  0.6250E-03  0.7132E-04  0.7606E+01
   -1.062508   14.85868  0.0000E+00  0.3047E-05  0.4566E-08  0.6321E-03  0.6411E-04  0.9095E+01
   -1.105009   14.85891  0.0000E+00  0.3065E-05  0.4581E-08  0.6362E-03  0.5753E-04  0.1095E+02
   -1.147510   14.85915  0.0000E+00  0.3081E-05  0.4611E-08  0.6375E-03  0.5138E-04  0.1310E+02
   -1.190011   14.85941  0.0000E+00  0.3094E-05  0.4658E-08  0.6354E-03  0.4549E-04  0.1535E+02
   -1.232512   14.85967  0.0000E+00  0.3104E-05  0.4725E-08  0.6300E-03  0.3993E-04  0.1826E+02
   -1.275012   14.85994  0.0000E+00  0.3112E-05  0.4819E-08  0.6205E-03  0.3487E-04  0.2401E+02
   -1.317513   14.86021  0.0000E+00  0.3116E-05  0.4947E-08  0.6062E-03  0.3032E-04  0.3247E+02
   -1.360013   14.86050  0.0000E+00  0.3116E-05  0.5125E-08  0.5855E-03  0.2623E-04  0.4507E+02
   -1.402512   14.86081  0.0000E+00  0.3112E-05  0.5379E-08  0.5574E-03  0.2263E-04  0.6817E+02
   -1.445012   14.86114  0.0000E+00  0.3102E-05  0.5708E-08  0.5233E-03  0.1932E-04  0.1061E+03
   -1.487511   14.86150  0.0000E+00  0.3087E-05  0.6146E-08  0.4864E-03  0.1612E-04  0.1400E+03
   -1.530010   14.86190  0.0000E+00  0.3060E-05  0.6869E-08  0.4175E-03  0.1303E-04  0.1847E+03
   -1.572509   14.86238  0.0000E+00  0.3003E-05  0.8505E-08  0.4171E-03  0.1012E-04  0.3324E+03
   -1.615007   14.86289  0.0000E+00  0.2775E-05  0.1655E-07  0.1824E-03  0.8356E-05 -0.1310E+07
   -1.657505   14.86515  0.0000E+00  0.1822E-05  0.5804E-07  0.3801E-04  0.5414E-05 -0.6591E+08
   -1.700002   14.87269  0.0000E+00  0.0000E+00  0.0000E+00  0.0000E+00  0.6128E-05  0.0000E+00
