 1 - depth, m
 2 - temperature, C
 3 - salinity, kg/kg
 4 - turbulent kinetic energy, m**2/s**2
 5 - dissipation rate, m**2/s**3
 6 - kinematic heat conductance, m**2/s
 7 - modulus of horizontal velocity, m/s
 8 - Richardson number, n/d
   -0.000000    0.00000  0.0000E+00  0.2497E-09  0.2550E-12  0.1000E-09  0.0000E+00  0.3379E+17
   -0.042496    0.54674  0.0000E+00  0.8729E-09  0.2016E-12  0.1000E-09  0.0000E+00  0.2709E+17
   -0.084993    1.06294  0.0000E+00  0.2020E-08  0.2534E-12  0.1000E-09  0.0000E+00  0.2139E+17
   -0.127490    1.55095  0.0000E+00  0.3846E-08  0.3811E-12  0.1000E-09  0.0000E+00  0.1641E+17
   -0.169988    2.00925  0.0000E+00  0.6708E-08  0.6024E-12  0.1548E-09  0.0000E+00  0.1225E+17
   -0.212486    2.44090  0.0000E+00  0.1122E-07  0.9606E-12  0.3443E-09  0.0000E+00  0.8775E+16
   -0.254984    2.84992  0.0000E+00  0.1840E-07  0.1530E-11  0.8223E-09  0.0000E+00  0.5843E+16
   -0.297482    3.24093  0.0000E+00  0.2982E-07  0.2429E-11  0.2305E-08  0.0000E+00  0.3301E+16
   -0.339981    3.61718  0.0000E+00  0.4743E-07  0.3799E-11  0.1209E-07  0.0000E+00  0.1056E+16
   -0.382480    3.96506  0.0000E+00  0.5401E-07  0.4350E-11  0.1517E-03  0.0000E+00  0.3536E+14
   -0.424979    4.01791  0.0000E+00  0.5432E-07  0.4378E-11  0.2203E-03  0.0000E+00 -0.1182E+12
   -0.467479    4.01815  0.0000E+00  0.5453E-07  0.4401E-11  0.2194E-03  0.0000E+00 -0.1182E+12
   -0.509978    4.01839  0.0000E+00  0.5473E-07  0.4425E-11  0.2199E-03  0.0000E+00 -0.1170E+12
   -0.552478    4.01863  0.0000E+00  0.5491E-07  0.4451E-11  0.2201E-03  0.0000E+00 -0.1167E+12
   -0.594978    4.01886  0.0000E+00  0.5509E-07  0.4479E-11  0.2202E-03  0.0000E+00 -0.1170E+12
   -0.637478    4.01910  0.0000E+00  0.5526E-07  0.4510E-11  0.2200E-03  0.0000E+00 -0.1180E+12
   -0.679978    4.01933  0.0000E+00  0.5542E-07  0.4546E-11  0.2195E-03  0.0000E+00 -0.1195E+12
   -0.722479    4.01956  0.0000E+00  0.5558E-07  0.4585E-11  0.2188E-03  0.0000E+00 -0.1218E+12
   -0.764979    4.01980  0.0000E+00  0.5574E-07  0.4630E-11  0.2178E-03  0.0000E+00 -0.1249E+12
   -0.807479    4.02004  0.0000E+00  0.5590E-07  0.4682E-11  0.2166E-03  0.0000E+00 -0.1276E+12
   -0.849980    4.02028  0.0000E+00  0.5604E-07  0.4740E-11  0.2152E-03  0.0000E+00 -0.1305E+12
   -0.892480    4.02053  0.0000E+00  0.5618E-07  0.4804E-11  0.2134E-03  0.0000E+00 -0.1330E+12
   -0.934980    4.02078  0.0000E+00  0.5631E-07  0.4875E-11  0.2115E-03  0.0000E+00 -0.1351E+12
   -0.977481    4.02103  0.0000E+00  0.5642E-07  0.4954E-11  0.2092E-03  0.0000E+00 -0.1374E+12
   -1.019981    4.02129  0.0000E+00  0.5652E-07  0.5040E-11  0.2066E-03  0.0000E+00 -0.1396E+12
   -1.062481    4.02155  0.0000E+00  0.5661E-07  0.5134E-11  0.2038E-03  0.0000E+00 -0.1419E+12
   -1.104981    4.02181  0.0000E+00  0.5668E-07  0.5238E-11  0.2006E-03  0.0000E+00 -0.1440E+12
   -1.147481    4.02207  0.0000E+00  0.5674E-07  0.5350E-11  0.1973E-03  0.0000E+00 -0.1456E+12
   -1.189981    4.02233  0.0000E+00  0.5678E-07  0.5471E-11  0.1936E-03  0.0000E+00 -0.1485E+12
   -1.232481    4.02260  0.0000E+00  0.5680E-07  0.5610E-11  0.1894E-03  0.0000E+00 -0.1541E+12
   -1.274980    4.02287  0.0000E+00  0.5681E-07  0.5777E-11  0.1844E-03  0.0000E+00 -0.1610E+12
   -1.317479    4.02315  0.0000E+00  0.5681E-07  0.5982E-11  0.1786E-03  0.0000E+00 -0.1686E+12
   -1.359978    4.02345  0.0000E+00  0.5678E-07  0.6242E-11  0.1716E-03  0.0000E+00 -0.1796E+12
   -1.402477    4.02376  0.0000E+00  0.5673E-07  0.6586E-11  0.1633E-03  0.0000E+00 -0.1911E+12
   -1.444976    4.02409  0.0000E+00  0.5665E-07  0.7003E-11  0.1546E-03  0.0000E+00 -0.2017E+12
   -1.487474    4.02443  0.0000E+00  0.5654E-07  0.7520E-11  0.1447E-03  0.0000E+00 -0.2159E+12
   -1.529972    4.02479  0.0000E+00  0.5638E-07  0.8309E-11  0.1311E-03  0.0000E+00 -0.2511E+12
   -1.572469    4.02521  0.0000E+00  0.5604E-07  0.9984E-11  0.1131E-03  0.0000E+00 -0.3489E+12
   -1.614966    4.02579  0.0000E+00  0.5455E-07  0.1736E-10  0.4483E-04  0.0000E+00 -0.1012E+13
   -1.657463    4.02743  0.0000E+00  0.3926E-07  0.1023E-09  0.2174E-05  0.0000E+00 -0.2910E+14
   -1.699959    4.06001  0.0000E+00  0.0000E+00  0.0000E+00  0.0000E+00  0.0000E+00  0.0000E+00
