 1 - depth, m
 2 - temperature, C
 3 - salinity, kg/kg
 4 - turbulent kinetic energy, m**2/s**2
 5 - dissipation rate, m**2/s**3
 6 - kinematic heat conductance, m**2/s
 7 - modulus of horizontal velocity, m/s
 8 - Richardson number, n/d
   -0.000000    7.28716  0.0000E+00  0.3593E-04  0.8036E-05  0.2926E-04  0.3565E-01 -0.1049E-01
   -0.042497    7.31909  0.0000E+00  0.2108E-04  0.2324E-05  0.4237E-04  0.1390E-01 -0.3926E-01
   -0.084995    7.33284  0.0000E+00  0.1497E-04  0.1002E-05  0.4904E-04  0.9256E-02 -0.7820E-01
   -0.127493    7.34321  0.0000E+00  0.1096E-04  0.4649E-06  0.5811E-04  0.6568E-02 -0.1590E+00
   -0.169992    7.35154  0.0000E+00  0.8223E-05  0.2319E-06  0.7689E-04  0.4744E-02  0.3853E-01
   -0.212491    7.35831  0.0000E+00  0.6310E-05  0.1222E-06  0.1063E-03  0.3434E-02  0.1376E+03
   -0.254990    7.36403  0.0000E+00  0.4990E-05  0.6818E-07  0.1264E-03  0.2514E-02  0.3123E+02
   -0.297489    7.36900  0.0000E+00  0.4118E-05  0.4067E-07  0.1509E-03  0.1877E-02  0.9209E+01
   -0.339989    7.37323  0.0000E+00  0.3565E-05  0.2609E-07  0.1788E-03  0.1429E-02  0.1306E+02
   -0.382489    7.37671  0.0000E+00  0.3217E-05  0.1796E-07  0.2179E-03  0.1104E-02  0.3326E+02
   -0.424989    7.37934  0.0000E+00  0.3009E-05  0.1337E-07  0.2627E-03  0.8795E-03  0.1414E+03
   -0.467489    7.38129  0.0000E+00  0.2883E-05  0.1064E-07  0.2933E-03  0.7197E-03  0.1020E+03
   -0.509990    7.38289  0.0000E+00  0.2802E-05  0.8879E-08  0.3195E-03  0.5951E-03  0.2583E+01
   -0.552491    7.38429  0.0000E+00  0.2749E-05  0.7675E-08  0.3444E-03  0.4920E-03  0.3302E+01
   -0.594992    7.38554  0.0000E+00  0.2715E-05  0.6820E-08  0.3685E-03  0.4049E-03  0.1490E+01
   -0.637493    7.38669  0.0000E+00  0.2694E-05  0.6188E-08  0.3919E-03  0.3323E-03  0.1753E+01
   -0.679994    7.38774  0.0000E+00  0.2682E-05  0.5715E-08  0.4143E-03  0.2747E-03  0.1421E+01
   -0.722495    7.38872  0.0000E+00  0.2677E-05  0.5354E-08  0.4356E-03  0.2292E-03  0.1582E+01
   -0.764997    7.38964  0.0000E+00  0.2677E-05  0.5072E-08  0.4558E-03  0.1943E-03  0.1910E+01
   -0.807498    7.39051  0.0000E+00  0.2679E-05  0.4844E-08  0.4746E-03  0.1678E-03  0.2149E+01
   -0.849999    7.39134  0.0000E+00  0.2684E-05  0.4657E-08  0.4925E-03  0.1466E-03  0.2635E+01
   -0.892501    7.39213  0.0000E+00  0.2689E-05  0.4497E-08  0.5095E-03  0.1289E-03  0.3167E+01
   -0.935002    7.39289  0.0000E+00  0.2694E-05  0.4362E-08  0.5253E-03  0.1139E-03  0.3864E+01
   -0.977503    7.39362  0.0000E+00  0.2699E-05  0.4249E-08  0.5394E-03  0.1008E-03  0.4504E+01
   -1.020005    7.39432  0.0000E+00  0.2703E-05  0.4155E-08  0.5518E-03  0.8953E-04  0.5326E+01
   -1.062506    7.39500  0.0000E+00  0.2706E-05  0.4079E-08  0.5620E-03  0.7946E-04  0.6028E+01
   -1.105007    7.39566  0.0000E+00  0.2708E-05  0.4020E-08  0.5701E-03  0.7045E-04  0.6843E+01
   -1.147508    7.39631  0.0000E+00  0.2709E-05  0.3979E-08  0.5757E-03  0.6216E-04  0.7680E+01
   -1.190009    7.39694  0.0000E+00  0.2708E-05  0.3954E-08  0.5785E-03  0.5435E-04  0.8525E+01
   -1.232509    7.39757  0.0000E+00  0.2706E-05  0.3946E-08  0.5783E-03  0.4706E-04  0.9655E+01
   -1.275010    7.39819  0.0000E+00  0.2702E-05  0.3955E-08  0.5752E-03  0.4057E-04  0.1218E+02
   -1.317510    7.39881  0.0000E+00  0.2697E-05  0.3985E-08  0.5684E-03  0.3482E-04  0.1579E+02
   -1.360010    7.39944  0.0000E+00  0.2689E-05  0.4043E-08  0.5570E-03  0.2976E-04  0.2079E+02
   -1.402510    7.40007  0.0000E+00  0.2677E-05  0.4140E-08  0.5401E-03  0.2540E-04  0.2941E+02
   -1.445009    7.40073  0.0000E+00  0.2664E-05  0.4277E-08  0.5191E-03  0.2149E-04  0.4219E+02
   -1.487508    7.40140  0.0000E+00  0.2649E-05  0.4471E-08  0.4922E-03  0.1779E-04  0.5082E+02
   -1.530007    7.40211  0.0000E+00  0.2628E-05  0.4798E-08  0.4551E-03  0.1429E-04  0.5952E+02
   -1.572505    7.40287  0.0000E+00  0.2589E-05  0.5536E-08  0.3776E-03  0.1123E-04  0.1094E+03
   -1.615004    7.40379  0.0000E+00  0.2480E-05  0.8012E-08  0.2905E-03  0.8937E-05  0.5284E+03
   -1.657501    7.40501  0.0000E+00  0.1716E-05  0.3127E-07  0.1468E-04  0.7244E-05 -0.1303E+06
   -1.699999    7.42916  0.0000E+00  0.0000E+00  0.0000E+00  0.0000E+00  0.7243E-05  0.0000E+00
