 1 - depth, m
 2 - temperature, C
 3 - salinity, kg/kg
 4 - turbulent kinetic energy, m**2/s**2
 5 - dissipation rate, m**2/s**3
 6 - kinematic heat conductance, m**2/s
 7 - modulus of horizontal velocity, m/s
 8 - Richardson number, n/d
   -0.000000    0.00000  0.0000E+00  0.9874E-11  0.4365E-14  0.1000E-09  0.0000E+00  0.2105E+17
   -0.042497    0.33040  0.0000E+00  0.2048E-10  0.3573E-14  0.1000E-09  0.0000E+00  0.1903E+17
   -0.084994    0.65907  0.0000E+00  0.4012E-10  0.4132E-14  0.1000E-09  0.0000E+00  0.1700E+17
   -0.127492    0.98483  0.0000E+00  0.7040E-10  0.5645E-14  0.1000E-09  0.0000E+00  0.1474E+17
   -0.169990    1.30089  0.0000E+00  0.1153E-09  0.8208E-14  0.1000E-09  0.0000E+00  0.1264E+17
   -0.212489    1.60667  0.0000E+00  0.1816E-09  0.1216E-13  0.1000E-09  0.0000E+00  0.1070E+17
   -0.254988    1.90180  0.0000E+00  0.2800E-09  0.1811E-13  0.1000E-09  0.0000E+00  0.8913E+16
   -0.297487    2.18572  0.0000E+00  0.4268E-09  0.2697E-13  0.1000E-09  0.0000E+00  0.7273E+16
   -0.339986    2.45727  0.0000E+00  0.6415E-09  0.3984E-13  0.1000E-09  0.0000E+00  0.5786E+16
   -0.382486    2.71524  0.0000E+00  0.9569E-09  0.5859E-13  0.1000E-09  0.0000E+00  0.4472E+16
   -0.424986    2.95914  0.0000E+00  0.1417E-08  0.8569E-13  0.1032E-09  0.0000E+00  0.3326E+16
   -0.467486    3.18843  0.0000E+00  0.2087E-08  0.1248E-12  0.1682E-09  0.0000E+00  0.2344E+16
   -0.509986    3.40269  0.0000E+00  0.3067E-08  0.1814E-12  0.3737E-09  0.0000E+00  0.1535E+16
   -0.552487    3.60409  0.0000E+00  0.4502E-08  0.2637E-12  0.9850E-09  0.0000E+00  0.8471E+15
   -0.594987    3.79113  0.0000E+00  0.6600E-08  0.3831E-12  0.4436E-08  0.0000E+00  0.2849E+15
   -0.637488    3.95815  0.0000E+00  0.7896E-08  0.4633E-12  0.2017E-04  0.0000E+00  0.1826E+14
   -0.679989    3.99402  0.0000E+00  0.8121E-08  0.4783E-12  0.4466E-04  0.0000E+00 -0.5089E+11
   -0.722490    3.99459  0.0000E+00  0.8285E-08  0.4905E-12  0.4714E-04  0.0000E+00 -0.5472E+11
   -0.764991    3.99511  0.0000E+00  0.8449E-08  0.5041E-12  0.4967E-04  0.0000E+00 -0.5731E+11
   -0.807492    3.99559  0.0000E+00  0.8614E-08  0.5191E-12  0.5178E-04  0.0000E+00 -0.5961E+11
   -0.849993    3.99605  0.0000E+00  0.8775E-08  0.5351E-12  0.5336E-04  0.0000E+00 -0.6204E+11
   -0.892494    3.99649  0.0000E+00  0.8934E-08  0.5524E-12  0.5412E-04  0.0000E+00 -0.6535E+11
   -0.934995    3.99693  0.0000E+00  0.9090E-08  0.5710E-12  0.5445E-04  0.0000E+00 -0.6901E+11
   -0.977496    3.99737  0.0000E+00  0.9242E-08  0.5910E-12  0.5453E-04  0.0000E+00 -0.7314E+11
   -1.019997    3.99781  0.0000E+00  0.9391E-08  0.6127E-12  0.5439E-04  0.0000E+00 -0.7732E+11
   -1.062497    3.99826  0.0000E+00  0.9534E-08  0.6360E-12  0.5410E-04  0.0000E+00 -0.8186E+11
   -1.104998    3.99872  0.0000E+00  0.9672E-08  0.6612E-12  0.5366E-04  0.0000E+00 -0.8627E+11
   -1.147499    3.99918  0.0000E+00  0.9800E-08  0.6879E-12  0.5310E-04  0.0000E+00 -0.9065E+11
   -1.189999    3.99964  0.0000E+00  0.9917E-08  0.7163E-12  0.5235E-04  0.0000E+00 -0.9599E+11
   -1.232500    4.00011  0.0000E+00  0.1003E-07  0.7485E-12  0.5147E-04  0.0000E+00 -0.1039E+12
   -1.275000    4.00061  0.0000E+00  0.1014E-07  0.7862E-12  0.5034E-04  0.0000E+00 -0.1134E+12
   -1.317499    4.00112  0.0000E+00  0.1024E-07  0.8315E-12  0.4888E-04  0.0000E+00 -0.1248E+12
   -1.359999    4.00167  0.0000E+00  0.1034E-07  0.8880E-12  0.4698E-04  0.0000E+00 -0.1401E+12
   -1.402499    4.00225  0.0000E+00  0.1044E-07  0.9618E-12  0.4451E-04  0.0000E+00 -0.1574E+12
   -1.444998    4.00289  0.0000E+00  0.1051E-07  0.1050E-11  0.4162E-04  0.0000E+00 -0.1754E+12
   -1.487496    4.00356  0.0000E+00  0.1057E-07  0.1160E-11  0.3823E-04  0.0000E+00 -0.2016E+12
   -1.529995    4.00431  0.0000E+00  0.1061E-07  0.1330E-11  0.3412E-04  0.0000E+00 -0.2631E+12
   -1.572493    4.00523  0.0000E+00  0.1062E-07  0.1696E-11  0.2858E-04  0.0000E+00 -0.4600E+12
   -1.614991    4.00675  0.0000E+00  0.1036E-07  0.3318E-11  0.1046E-04  0.0000E+00 -0.1681E+13
   -1.657488    4.01152  0.0000E+00  0.8097E-08  0.1337E-10  0.1040E-05  0.0000E+00 -0.3095E+14
   -1.699985    4.05409  0.0000E+00  0.0000E+00  0.0000E+00  0.0000E+00  0.0000E+00  0.0000E+00
