 1 - depth, m
 2 - temperature, C
 3 - salinity, kg/kg
 4 - turbulent kinetic energy, m**2/s**2
 5 - dissipation rate, m**2/s**3
 6 - kinematic heat conductance, m**2/s
 7 - modulus of horizontal velocity, m/s
 8 - Richardson number, n/d
   -0.000000    0.00000  0.0000E+00  0.1427E-08  0.2335E-11  0.1751E-09  0.0000E+00  0.4165E+17
   -0.042496    0.68803  0.0000E+00  0.7129E-08  0.1995E-11  0.2019E-09  0.0000E+00  0.3088E+17
   -0.084993    1.31826  0.0000E+00  0.1808E-07  0.2955E-11  0.4023E-09  0.0000E+00  0.2292E+17
   -0.127490    1.91408  0.0000E+00  0.3704E-07  0.5109E-11  0.9527E-09  0.0000E+00  0.1685E+17
   -0.169987    2.50661  0.0000E+00  0.6990E-07  0.9049E-11  0.2603E-08  0.0000E+00  0.1125E+17
   -0.212485    3.11703  0.0000E+00  0.1267E-06  0.1590E-10  0.1357E-07  0.0000E+00  0.5333E+16
   -0.254983    3.73298  0.0000E+00  0.1700E-06  0.2104E-10  0.1719E-03  0.0000E+00  0.1010E+16
   -0.297482    4.05103  0.0000E+00  0.1734E-06  0.2145E-10  0.4254E-03  0.0000E+00  0.7532E+13
   -0.339980    4.06259  0.0000E+00  0.1739E-06  0.2153E-10  0.4418E-03  0.0000E+00 -0.2996E+12
   -0.382479    4.06284  0.0000E+00  0.1744E-06  0.2162E-10  0.4420E-03  0.0000E+00 -0.2942E+12
   -0.424978    4.06309  0.0000E+00  0.1748E-06  0.2171E-10  0.4423E-03  0.0000E+00 -0.2943E+12
   -0.467478    4.06334  0.0000E+00  0.1752E-06  0.2181E-10  0.4423E-03  0.0000E+00 -0.2952E+12
   -0.509977    4.06359  0.0000E+00  0.1756E-06  0.2192E-10  0.4420E-03  0.0000E+00 -0.2941E+12
   -0.552477    4.06383  0.0000E+00  0.1759E-06  0.2204E-10  0.4415E-03  0.0000E+00 -0.2931E+12
   -0.594977    4.06407  0.0000E+00  0.1762E-06  0.2217E-10  0.4406E-03  0.0000E+00 -0.2935E+12
   -0.637477    4.06432  0.0000E+00  0.1765E-06  0.2232E-10  0.4392E-03  0.0000E+00 -0.2947E+12
   -0.679977    4.06456  0.0000E+00  0.1768E-06  0.2248E-10  0.4375E-03  0.0000E+00 -0.2966E+12
   -0.722477    4.06480  0.0000E+00  0.1771E-06  0.2266E-10  0.4353E-03  0.0000E+00 -0.3001E+12
   -0.764977    4.06505  0.0000E+00  0.1773E-06  0.2288E-10  0.4325E-03  0.0000E+00 -0.3047E+12
   -0.807478    4.06529  0.0000E+00  0.1775E-06  0.2312E-10  0.4291E-03  0.0000E+00 -0.3093E+12
   -0.849978    4.06554  0.0000E+00  0.1778E-06  0.2340E-10  0.4253E-03  0.0000E+00 -0.3149E+12
   -0.892478    4.06580  0.0000E+00  0.1779E-06  0.2371E-10  0.4208E-03  0.0000E+00 -0.3197E+12
   -0.934979    4.06606  0.0000E+00  0.1781E-06  0.2405E-10  0.4159E-03  0.0000E+00 -0.3242E+12
   -0.977479    4.06632  0.0000E+00  0.1782E-06  0.2443E-10  0.4103E-03  0.0000E+00 -0.3296E+12
   -1.019979    4.06658  0.0000E+00  0.1784E-06  0.2486E-10  0.4041E-03  0.0000E+00 -0.3353E+12
   -1.062479    4.06685  0.0000E+00  0.1784E-06  0.2533E-10  0.3973E-03  0.0000E+00 -0.3421E+12
   -1.104979    4.06712  0.0000E+00  0.1785E-06  0.2584E-10  0.3900E-03  0.0000E+00 -0.3487E+12
   -1.147479    4.06739  0.0000E+00  0.1785E-06  0.2640E-10  0.3824E-03  0.0000E+00 -0.3558E+12
   -1.189979    4.06767  0.0000E+00  0.1785E-06  0.2701E-10  0.3742E-03  0.0000E+00 -0.3651E+12
   -1.232478    4.06796  0.0000E+00  0.1784E-06  0.2772E-10  0.3649E-03  0.0000E+00 -0.3783E+12
   -1.274978    4.06825  0.0000E+00  0.1783E-06  0.2856E-10  0.3544E-03  0.0000E+00 -0.3941E+12
   -1.317477    4.06856  0.0000E+00  0.1782E-06  0.2960E-10  0.3422E-03  0.0000E+00 -0.4109E+12
   -1.359976    4.06888  0.0000E+00  0.1780E-06  0.3093E-10  0.3274E-03  0.0000E+00 -0.4343E+12
   -1.402474    4.06921  0.0000E+00  0.1777E-06  0.3270E-10  0.3099E-03  0.0000E+00 -0.4610E+12
   -1.444973    4.06957  0.0000E+00  0.1773E-06  0.3485E-10  0.2917E-03  0.0000E+00 -0.4911E+12
   -1.487471    4.06994  0.0000E+00  0.1769E-06  0.3753E-10  0.2714E-03  0.0000E+00 -0.5288E+12
   -1.529968    4.07035  0.0000E+00  0.1763E-06  0.4163E-10  0.2449E-03  0.0000E+00 -0.5988E+12
   -1.572466    4.07080  0.0000E+00  0.1751E-06  0.5038E-10  0.2089E-03  0.0000E+00 -0.7625E+12
   -1.614963    4.07137  0.0000E+00  0.1707E-06  0.8605E-10  0.1189E-03  0.0000E+00 -0.1431E+13
   -1.657460    4.07245  0.0000E+00  0.1221E-06  0.5461E-09  0.3687E-05  0.0000E+00 -0.5652E+14
   -1.699956    4.10737  0.0000E+00  0.0000E+00  0.0000E+00  0.0000E+00  0.0000E+00  0.0000E+00
