 1 - depth, m
 2 - temperature, C
 3 - salinity, kg/kg
 4 - turbulent kinetic energy, m**2/s**2
 5 - dissipation rate, m**2/s**3
 6 - kinematic heat conductance, m**2/s
 7 - modulus of horizontal velocity, m/s
 8 - Richardson number, n/d
   -0.000000   13.07444  0.0000E+00  0.3713E-03  0.3569E-03  0.7298E-04  0.2026E+00  0.1549E+00
   -0.042497   13.12966  0.0000E+00  0.1924E-03  0.1136E-03  0.1794E-03  0.4551E-01 -0.1640E-01
   -0.084995   13.13832  0.0000E+00  0.1347E-03  0.5568E-04  0.1519E-03  0.3019E-01 -0.2327E-01
   -0.127493   13.14554  0.0000E+00  0.9939E-04  0.2795E-04  0.1358E-03  0.2408E-01 -0.2195E-01
   -0.169992   13.15105  0.0000E+00  0.7361E-04  0.1399E-04  0.1272E-03  0.1955E-01  0.9603E-01
   -0.212490   13.15606  0.0000E+00  0.5447E-04  0.6959E-05  0.1249E-03  0.1578E-01  0.3589E+00
   -0.254990   13.16070  0.0000E+00  0.4054E-04  0.3439E-05  0.1263E-03  0.1275E-01  0.6520E+01
   -0.297489   13.16502  0.0000E+00  0.3095E-04  0.1786E-05  0.1306E-03  0.1039E-01  0.2248E+02
   -0.339989   13.16893  0.0000E+00  0.2441E-04  0.9939E-06  0.1388E-03  0.8526E-02  0.2742E+02
   -0.382489   13.17238  0.0000E+00  0.1984E-04  0.6005E-06  0.1515E-03  0.6988E-02  0.6302E+01
   -0.424989   13.17538  0.0000E+00  0.1663E-04  0.3890E-06  0.1696E-03  0.5812E-02  0.1968E+02
   -0.467489   13.17802  0.0000E+00  0.1426E-04  0.2649E-06  0.1941E-03  0.4819E-02  0.1525E+02
   -0.509990   13.18030  0.0000E+00  0.1247E-04  0.1882E-06  0.2292E-03  0.3989E-02  0.1929E+02
   -0.552491   13.18226  0.0000E+00  0.1109E-04  0.1384E-06  0.2654E-03  0.3299E-02  0.1633E+02
   -0.594991   13.18395  0.0000E+00  0.9991E-05  0.1049E-06  0.3017E-03  0.2711E-02  0.4680E+02
   -0.637492   13.18546  0.0000E+00  0.9086E-05  0.8110E-07  0.3424E-03  0.2216E-02  0.5797E+02
   -0.679994   13.18675  0.0000E+00  0.8342E-05  0.6386E-07  0.3847E-03  0.1816E-02  0.5301E+02
   -0.722495   13.18788  0.0000E+00  0.7729E-05  0.5121E-07  0.4264E-03  0.1489E-02  0.3576E+02
   -0.764996   13.18887  0.0000E+00  0.7226E-05  0.4177E-07  0.4665E-03  0.1230E-02  0.6058E+01
   -0.807497   13.18975  0.0000E+00  0.6813E-05  0.3461E-07  0.5022E-03  0.1030E-02  0.1474E+02
   -0.849999   13.19055  0.0000E+00  0.6482E-05  0.2926E-07  0.5332E-03  0.8697E-03  0.4980E+01
   -0.892500   13.19129  0.0000E+00  0.6214E-05  0.2517E-07  0.5604E-03  0.7405E-03  0.2392E+01
   -0.935001   13.19198  0.0000E+00  0.5998E-05  0.2205E-07  0.5799E-03  0.6356E-03  0.2589E+01
   -0.977503   13.19266  0.0000E+00  0.5843E-05  0.1989E-07  0.6126E-03  0.5471E-03  0.8446E+01
   -1.020004   13.19329  0.0000E+00  0.5730E-05  0.1836E-07  0.6298E-03  0.4843E-03  0.6661E+01
   -1.062505   13.19390  0.0000E+00  0.5632E-05  0.1712E-07  0.6320E-03  0.4290E-03  0.2627E+01
   -1.105006   13.19453  0.0000E+00  0.5538E-05  0.1606E-07  0.6416E-03  0.3726E-03  0.2317E+01
   -1.147507   13.19515  0.0000E+00  0.5460E-05  0.1531E-07  0.6451E-03  0.3224E-03  0.2637E+01
   -1.190008   13.19579  0.0000E+00  0.5393E-05  0.1479E-07  0.6445E-03  0.2755E-03  0.2955E+01
   -1.232508   13.19643  0.0000E+00  0.5332E-05  0.1448E-07  0.6401E-03  0.2328E-03  0.3351E+01
   -1.275009   13.19709  0.0000E+00  0.5275E-05  0.1434E-07  0.6301E-03  0.1970E-03  0.4225E+01
   -1.317509   13.19776  0.0000E+00  0.5219E-05  0.1439E-07  0.6155E-03  0.1676E-03  0.5554E+01
   -1.360009   13.19846  0.0000E+00  0.5160E-05  0.1464E-07  0.5931E-03  0.1433E-03  0.7568E+01
   -1.402509   13.19919  0.0000E+00  0.5092E-05  0.1519E-07  0.5669E-03  0.1231E-03  0.1139E+02
   -1.445008   13.19997  0.0000E+00  0.5015E-05  0.1618E-07  0.5273E-03  0.1053E-03  0.1626E+02
   -1.487507   13.20087  0.0000E+00  0.4924E-05  0.1781E-07  0.4950E-03  0.8755E-04  0.3000E+02
   -1.530006   13.20185  0.0000E+00  0.4795E-05  0.2121E-07  0.4161E-03  0.7042E-04 -0.3890E+03
   -1.572504   13.20333  0.0000E+00  0.4581E-05  0.2934E-07  0.4349E-03  0.5282E-04  0.2299E+09
   -1.615003   13.20421  0.0000E+00  0.3967E-05  0.6761E-07  0.1801E-03  0.4314E-04 -0.2486E+07
   -1.657500   13.21150  0.0000E+00  0.2573E-05  0.1930E-06  0.6517E-04  0.2696E-04 -0.1629E+04
   -1.699998   13.21946  0.0000E+00  0.0000E+00  0.0000E+00  0.0000E+00  0.3477E-04  0.0000E+00
