 1 - depth, m
 2 - temperature, C
 3 - salinity, kg/kg
 4 - turbulent kinetic energy, m**2/s**2
 5 - dissipation rate, m**2/s**3
 6 - kinematic heat conductance, m**2/s
 7 - modulus of horizontal velocity, m/s
 8 - Richardson number, n/d
   -0.000000    0.00000  0.0000E+00  0.3189E-13  0.5206E-16  0.1000E-09  0.0000E+00  0.6455E+16
   -0.042497    0.09812  0.0000E+00  0.3189E-13  0.5206E-16  0.1000E-09  0.0000E+00  0.6507E+16
   -0.084995    0.19978  0.0000E+00  0.3189E-13  0.5206E-16  0.1000E-09  0.0000E+00  0.6526E+16
   -0.127493    0.30475  0.0000E+00  0.3189E-13  0.5206E-16  0.1000E-09  0.0000E+00  0.6354E+16
   -0.169992    0.41010  0.0000E+00  0.3189E-13  0.5206E-16  0.1000E-09  0.0000E+00  0.6180E+16
   -0.212491    0.51583  0.0000E+00  0.3189E-13  0.5206E-16  0.1000E-09  0.0000E+00  0.6011E+16
   -0.254990    0.62203  0.0000E+00  0.3189E-13  0.5206E-16  0.1000E-09  0.0000E+00  0.5843E+16
   -0.297490    0.72878  0.0000E+00  0.3189E-13  0.5206E-16  0.1000E-09  0.0000E+00  0.5652E+16
   -0.339989    0.83567  0.0000E+00  0.3189E-13  0.5206E-16  0.1000E-09  0.0000E+00  0.5433E+16
   -0.382489    0.94215  0.0000E+00  0.3189E-13  0.5206E-16  0.1000E-09  0.0000E+00  0.5210E+16
   -0.424990    1.04808  0.0000E+00  0.3189E-13  0.5206E-16  0.1000E-09  0.0000E+00  0.4963E+16
   -0.467490    1.15284  0.0000E+00  0.3189E-13  0.5206E-16  0.1000E-09  0.0000E+00  0.4717E+16
   -0.509991    1.25634  0.0000E+00  0.3189E-13  0.5206E-16  0.1000E-09  0.0000E+00  0.4489E+16
   -0.552492    1.35878  0.0000E+00  0.3189E-13  0.5206E-16  0.1000E-09  0.0000E+00  0.4265E+16
   -0.594993    1.46013  0.0000E+00  0.3189E-13  0.5206E-16  0.1000E-09  0.0000E+00  0.4059E+16
   -0.637494    1.56068  0.0000E+00  0.3189E-13  0.5206E-16  0.1000E-09  0.0000E+00  0.3880E+16
   -0.679995    1.66105  0.0000E+00  0.3189E-13  0.5206E-16  0.1000E-09  0.0000E+00  0.3703E+16
   -0.722496    1.76121  0.0000E+00  0.3189E-13  0.5206E-16  0.1000E-09  0.0000E+00  0.3540E+16
   -0.764998    1.86154  0.0000E+00  0.3189E-13  0.5206E-16  0.1000E-09  0.0000E+00  0.3380E+16
   -0.807499    1.96214  0.0000E+00  0.3189E-13  0.5206E-16  0.1000E-09  0.0000E+00  0.3192E+16
   -0.850001    2.06214  0.0000E+00  0.3189E-13  0.5206E-16  0.1000E-09  0.0000E+00  0.2991E+16
   -0.892502    2.16098  0.0000E+00  0.3189E-13  0.5206E-16  0.1000E-09  0.0000E+00  0.2813E+16
   -0.935003    2.25924  0.0000E+00  0.3189E-13  0.5206E-16  0.1000E-09  0.0000E+00  0.2631E+16
   -0.977505    2.35668  0.0000E+00  0.3189E-13  0.5206E-16  0.1000E-09  0.0000E+00  0.2454E+16
   -1.020006    2.45325  0.0000E+00  0.3189E-13  0.5206E-16  0.1000E-09  0.0000E+00  0.2256E+16
   -1.062507    2.54792  0.0000E+00  0.3189E-13  0.5206E-16  0.1000E-09  0.0000E+00  0.2064E+16
   -1.105008    2.64048  0.0000E+00  0.3189E-13  0.5206E-16  0.1000E-09  0.0000E+00  0.1859E+16
   -1.147509    2.72981  0.0000E+00  0.3189E-13  0.5206E-16  0.1000E-09  0.0000E+00  0.1654E+16
   -1.190010    2.81511  0.0000E+00  0.3189E-13  0.5206E-16  0.1000E-09  0.0000E+00  0.1474E+16
   -1.232511    2.89686  0.0000E+00  0.3189E-13  0.5206E-16  0.1000E-09  0.0000E+00  0.1339E+16
   -1.275011    2.97698  0.0000E+00  0.3189E-13  0.5206E-16  0.1000E-09  0.0000E+00  0.1228E+16
   -1.317512    3.05663  0.0000E+00  0.3189E-13  0.5206E-16  0.1000E-09  0.0000E+00  0.1181E+16
   -1.360012    3.14034  0.0000E+00  0.3189E-13  0.5206E-16  0.1000E-09  0.0000E+00  0.1143E+16
   -1.402512    3.23032  0.0000E+00  0.3189E-13  0.5206E-16  0.1000E-09  0.0000E+00  0.1042E+16
   -1.445011    3.32302  0.0000E+00  0.8535E-13  0.1663E-15  0.1000E-09  0.0000E+00  0.8833E+15
   -1.487510    3.41335  0.0000E+00  0.5569E-12  0.1094E-14  0.1000E-09  0.0000E+00  0.7562E+15
   -1.530009    3.50409  0.0000E+00  0.4257E-11  0.8408E-14  0.1000E-09  0.0000E+00  0.7583E+15
   -1.572508    3.61703  0.0000E+00  0.3793E-10  0.7537E-13  0.2490E-09  0.0000E+00  0.8429E+15
   -1.615006    3.81533  0.0000E+00  0.3602E-09  0.7172E-12  0.7221E-08  0.0000E+00  0.2060E+15
   -1.657504    4.04097  0.0000E+00  0.2567E-08  0.5708E-11  0.4035E-06  0.0000E+00 -0.8398E+14
   -1.700001    4.10346  0.0000E+00  0.0000E+00  0.0000E+00  0.0000E+00  0.0000E+00  0.0000E+00
