 1 - depth, m
 2 - temperature, C
 3 - salinity, kg/kg
 4 - turbulent kinetic energy, m**2/s**2
 5 - dissipation rate, m**2/s**3
 6 - kinematic heat conductance, m**2/s
 7 - modulus of horizontal velocity, m/s
 8 - Richardson number, n/d
   -0.000000   16.17870  0.0000E+00  0.1332E-03  0.5025E-04  0.5802E-04  0.9768E-01  0.2481E-01
   -0.042497   16.23250  0.0000E+00  0.7306E-04  0.1537E-04  0.9192E-04  0.2686E-01 -0.2166E-01
   -0.084995   16.24155  0.0000E+00  0.5144E-04  0.6893E-05  0.8660E-04  0.1827E-01 -0.1266E+00
   -0.127493   16.24808  0.0000E+00  0.3765E-04  0.3415E-05  0.8542E-04  0.1390E-01 -0.8791E-01
   -0.169991   16.25351  0.0000E+00  0.2800E-04  0.1776E-05  0.8802E-04  0.1079E-01 -0.9292E-01
   -0.212490   16.25828  0.0000E+00  0.2105E-04  0.9565E-06  0.9357E-04  0.8373E-02  0.8266E+00
   -0.254989   16.26249  0.0000E+00  0.1606E-04  0.5327E-06  0.1031E-03  0.6522E-02  0.2693E+01
   -0.297488   16.26615  0.0000E+00  0.1261E-04  0.3093E-06  0.1222E-03  0.5150E-02  0.1121E+01
   -0.339988   16.26924  0.0000E+00  0.1032E-04  0.1900E-06  0.1665E-03  0.4114E-02  0.5490E+02
   -0.382488   16.27177  0.0000E+00  0.8783E-05  0.1226E-06  0.2122E-03  0.3319E-02  0.9808E+02
   -0.424988   16.27379  0.0000E+00  0.7788E-05  0.8359E-07  0.2674E-03  0.2720E-02  0.2364E+02
   -0.467488   16.27541  0.0000E+00  0.7140E-05  0.6027E-07  0.3212E-03  0.2247E-02  0.3352E+02
   -0.509989   16.27673  0.0000E+00  0.6714E-05  0.4567E-07  0.3720E-03  0.1862E-02  0.1253E+02
   -0.552490   16.27785  0.0000E+00  0.6441E-05  0.3626E-07  0.4191E-03  0.1538E-02  0.5556E+01
   -0.594990   16.27883  0.0000E+00  0.6267E-05  0.3000E-07  0.4663E-03  0.1259E-02  0.1853E+02
   -0.637491   16.27969  0.0000E+00  0.6155E-05  0.2560E-07  0.5158E-03  0.1024E-02  0.7632E+01
   -0.679992   16.28046  0.0000E+00  0.6088E-05  0.2246E-07  0.5661E-03  0.8331E-03  0.5478E+01
   -0.722494   16.28114  0.0000E+00  0.6053E-05  0.2017E-07  0.6165E-03  0.6810E-03  0.1402E+01
   -0.764995   16.28174  0.0000E+00  0.6039E-05  0.1849E-07  0.6620E-03  0.5639E-03  0.1206E+01
   -0.807496   16.28229  0.0000E+00  0.6042E-05  0.1724E-07  0.7000E-03  0.4763E-03  0.1122E+01
   -0.849997   16.28280  0.0000E+00  0.6057E-05  0.1633E-07  0.7320E-03  0.4085E-03  0.1078E+01
   -0.892499   16.28329  0.0000E+00  0.6081E-05  0.1568E-07  0.7589E-03  0.3552E-03  0.1054E+01
   -0.935000   16.28377  0.0000E+00  0.6111E-05  0.1524E-07  0.7803E-03  0.3127E-03  0.1079E+01
   -0.977501   16.28425  0.0000E+00  0.6144E-05  0.1495E-07  0.7966E-03  0.2777E-03  0.1117E+01
   -1.020002   16.28472  0.0000E+00  0.6178E-05  0.1479E-07  0.8081E-03  0.2485E-03  0.1217E+01
   -1.062503   16.28521  0.0000E+00  0.6213E-05  0.1474E-07  0.8153E-03  0.2233E-03  0.1342E+01
   -1.105004   16.28572  0.0000E+00  0.6246E-05  0.1479E-07  0.8178E-03  0.2011E-03  0.1527E+01
   -1.147505   16.28625  0.0000E+00  0.6274E-05  0.1492E-07  0.8155E-03  0.1809E-03  0.1757E+01
   -1.190006   16.28681  0.0000E+00  0.6297E-05  0.1512E-07  0.8082E-03  0.1618E-03  0.1997E+01
   -1.232506   16.28741  0.0000E+00  0.6311E-05  0.1542E-07  0.7957E-03  0.1440E-03  0.2307E+01
   -1.275007   16.28803  0.0000E+00  0.6317E-05  0.1584E-07  0.7767E-03  0.1278E-03  0.2951E+01
   -1.317507   16.28869  0.0000E+00  0.6312E-05  0.1643E-07  0.7510E-03  0.1131E-03  0.3912E+01
   -1.360007   16.28938  0.0000E+00  0.6294E-05  0.1727E-07  0.7122E-03  0.9961E-04  0.5400E+01
   -1.402506   16.29013  0.0000E+00  0.6258E-05  0.1853E-07  0.6707E-03  0.8739E-04  0.8229E+01
   -1.445006   16.29095  0.0000E+00  0.6204E-05  0.2032E-07  0.6060E-03  0.7593E-04  0.1531E+02
   -1.487505   16.29192  0.0000E+00  0.6124E-05  0.2292E-07  0.5685E-03  0.6405E-04  0.1437E+02
   -1.530003   16.29302  0.0000E+00  0.5985E-05  0.2808E-07  0.4559E-03  0.5251E-04 -0.7596E+03
   -1.572502   16.29483  0.0000E+00  0.5718E-05  0.3999E-07  0.4985E-03  0.3982E-04  0.5774E+04
   -1.615000   16.29595  0.0000E+00  0.4896E-05  0.9260E-07  0.1953E-03  0.3281E-04 -0.1275E+08
   -1.657497   16.30573  0.0000E+00  0.3230E-05  0.2712E-06  0.8245E-04  0.2061E-04 -0.3546E+06
   -1.699995   16.31438  0.0000E+00  0.0000E+00  0.0000E+00  0.0000E+00  0.2640E-04  0.0000E+00
