 1 - depth, m
 2 - temperature, C
 3 - salinity, kg/kg
 4 - turbulent kinetic energy, m**2/s**2
 5 - dissipation rate, m**2/s**3
 6 - kinematic heat conductance, m**2/s
 7 - modulus of horizontal velocity, m/s
 8 - Richardson number, n/d
   -0.000000    0.00000  0.0000E+00  0.7034E-04  0.1944E-04  0.4523E-04  0.7000E-01  0.2803E-02
   -0.042497    0.00323  0.0000E+00  0.3954E-04  0.5314E-05  0.5107E-04  0.2504E-01  0.1256E-02
   -0.084995    0.00521  0.0000E+00  0.2713E-04  0.2059E-05  0.5402E-04  0.1719E-01  0.4497E-02
   -0.127492    0.00692  0.0000E+00  0.1907E-04  0.8876E-06  0.5620E-04  0.1267E-01  0.6068E-02
   -0.169991    0.00845  0.0000E+00  0.1351E-04  0.4131E-06  0.5558E-04  0.9449E-02  0.9840E-02
   -0.212489    0.00994  0.0000E+00  0.9475E-05  0.2021E-06  0.5261E-04  0.6983E-02  0.1820E-01
   -0.254988    0.01145  0.0000E+00  0.6547E-05  0.1021E-06  0.4818E-04  0.5139E-02  0.4540E-01
   -0.297487    0.01298  0.0000E+00  0.4501E-05  0.5304E-07  0.4250E-04  0.3836E-02  0.2193E+00
   -0.339987    0.01456  0.0000E+00  0.3107E-05  0.2861E-07  0.3602E-04  0.2902E-02  0.5335E+00
   -0.382486    0.01626  0.0000E+00  0.2125E-05  0.1571E-07  0.2968E-04  0.2179E-02  0.2730E+02
   -0.424986    0.01812  0.0000E+00  0.1447E-05  0.8845E-08  0.2264E-04  0.1659E-02  0.1812E+02
   -0.467486    0.02041  0.0000E+00  0.9557E-06  0.4978E-08  0.1565E-04  0.1222E-02  0.3618E+02
   -0.509987    0.02353  0.0000E+00  0.5885E-06  0.2705E-08  0.8833E-05  0.8556E-03  0.2024E+03
   -0.552487    0.02949  0.0000E+00  0.2973E-06  0.1281E-08  0.2782E-05  0.5546E-03  0.2555E+04
   -0.594988    0.06071  0.0000E+00  0.8888E-07  0.3792E-09  0.3012E-06  0.2571E-03  0.1241E+06
   -0.637489    0.19650  0.0000E+00  0.1409E-07  0.6040E-10  0.1910E-07  0.5089E-04  0.1038E+08
   -0.679990    0.38681  0.0000E+00  0.1429E-08  0.6247E-11  0.1429E-08  0.6681E-05  0.7320E+09
   -0.722491    0.59089  0.0000E+00  0.1220E-09  0.5491E-12  0.1961E-09  0.6328E-06  0.5980E+11
   -0.764992    0.78077  0.0000E+00  0.1013E-10  0.4669E-13  0.1045E-09  0.5423E-07  0.5390E+13
   -0.807493    0.93922  0.0000E+00  0.8295E-12  0.3864E-14  0.1000E-09  0.5273E-08  0.1755E+15
   -0.849994    1.06891  0.0000E+00  0.8410E-13  0.3443E-15  0.1000E-09  0.5399E-09  0.6782E+15
   -0.892495    1.16855  0.0000E+00  0.3404E-13  0.6950E-16  0.1000E-09  0.5643E-10  0.2399E+16
   -0.934996    1.25046  0.0000E+00  0.3189E-13  0.5270E-16  0.1000E-09  0.6847E-11  0.3658E+16
   -0.977497    1.33569  0.0000E+00  0.3512E-13  0.5207E-16  0.1000E-09  0.7918E-12  0.3854E+16
   -1.019998    1.42662  0.0000E+00  0.9518E-13  0.7036E-16  0.1000E-09  0.1061E-12  0.4409E+16
   -1.062499    1.53492  0.0000E+00  0.3367E-12  0.1980E-15  0.1000E-09  0.1381E-13  0.5046E+16
   -1.105000    1.66520  0.0000E+00  0.1092E-11  0.6183E-15  0.1000E-09  0.2201E-14  0.5928E+16
   -1.147500    1.82845  0.0000E+00  0.3415E-11  0.1894E-14  0.1000E-09  0.4096E-15  0.6787E+16
   -1.190001    2.03233  0.0000E+00  0.1054E-10  0.5735E-14  0.1000E-09  0.5585E-16  0.7101E+16
   -1.232501    2.27204  0.0000E+00  0.3319E-10  0.1772E-13  0.1000E-09  0.4302E-17  0.6530E+16
   -1.275001    2.52798  0.0000E+00  0.1050E-09  0.5498E-13  0.1000E-09  0.2966E-18  0.5829E+16
   -1.317501    2.80366  0.0000E+00  0.3327E-09  0.1707E-12  0.1091E-09  0.1777E-19  0.5178E+16
   -1.360001    3.12071  0.0000E+00  0.1059E-08  0.5322E-12  0.4189E-09  0.9106E-21  0.3926E+16
   -1.402500    3.48166  0.0000E+00  0.3385E-08  0.1665E-11  0.2710E-08  0.5433E-22  0.1931E+16
   -1.445000    3.88041  0.0000E+00  0.8995E-08  0.4452E-11  0.1281E-05  0.4070E-23  0.1376E+15
   -1.487498    4.03741  0.0000E+00  0.1352E-07  0.6970E-11  0.1093E-04  0.2230E-24 -0.4450E+13
   -1.529997    4.04404  0.0000E+00  0.1563E-07  0.8793E-11  0.1120E-04  0.3130E-25 -0.5412E+13
   -1.572495    4.05075  0.0000E+00  0.1757E-07  0.1203E-10  0.1068E-04  0.3398E-26 -0.8444E+13
   -1.614993    4.05971  0.0000E+00  0.1940E-07  0.2105E-10  0.6268E-05  0.4803E-27 -0.2029E+14
   -1.657491    4.07694  0.0000E+00  0.1844E-07  0.5130E-10  0.1808E-05  0.4917E-28 -0.1113E+15
   -1.699988    4.13686  0.0000E+00  0.0000E+00  0.0000E+00  0.0000E+00  0.5291E-28  0.0000E+00
