 1 - depth, m
 2 - temperature, C
 3 - salinity, kg/kg
 4 - turbulent kinetic energy, m**2/s**2
 5 - dissipation rate, m**2/s**3
 6 - kinematic heat conductance, m**2/s
 7 - modulus of horizontal velocity, m/s
 8 - Richardson number, n/d
   -0.000000    5.15257  0.0000E+00  0.2208E-03  0.1239E-03  0.6704E-04  0.1398E+00  0.3704E-02
   -0.042498    5.22894  0.0000E+00  0.1187E-03  0.4049E-04  0.1302E-03  0.3400E-01 -0.2099E-01
   -0.084996    5.24222  0.0000E+00  0.8403E-04  0.2011E-04  0.1137E-03  0.2335E-01 -0.2005E-01
   -0.127494    5.25345  0.0000E+00  0.6169E-04  0.1016E-04  0.1015E-03  0.1838E-01 -0.3716E-01
   -0.169993    5.26282  0.0000E+00  0.4531E-04  0.5091E-05  0.9436E-04  0.1467E-01 -0.5663E-01
   -0.212492    5.27171  0.0000E+00  0.3318E-04  0.2587E-05  0.8960E-04  0.1168E-01 -0.3690E-01
   -0.254992    5.28060  0.0000E+00  0.2418E-04  0.1302E-05  0.8650E-04  0.9310E-02 -0.7489E-01
   -0.297492    5.28971  0.0000E+00  0.1792E-04  0.6925E-06  0.8416E-04  0.7486E-02 -0.1431E+00
   -0.339992    5.29897  0.0000E+00  0.1362E-04  0.3962E-06  0.8294E-04  0.6052E-02 -0.2101E+00
   -0.382492    5.30792  0.0000E+00  0.1060E-04  0.2411E-06  0.8451E-04  0.4877E-02  0.7121E-01
   -0.424993    5.31633  0.0000E+00  0.8488E-05  0.1541E-06  0.8762E-04  0.3962E-02  0.2471E+01
   -0.467494    5.32408  0.0000E+00  0.6955E-05  0.1023E-06  0.9373E-04  0.3181E-02  0.9507E-01
   -0.509995    5.33104  0.0000E+00  0.5810E-05  0.6994E-07  0.1044E-03  0.2522E-02  0.1187E+04
   -0.552496    5.33716  0.0000E+00  0.4933E-05  0.4904E-07  0.1209E-03  0.1975E-02  0.4788E+03
   -0.594997    5.34240  0.0000E+00  0.4251E-05  0.3519E-07  0.1440E-03  0.1520E-02  0.1139E+03
   -0.637498    5.34683  0.0000E+00  0.3706E-05  0.2569E-07  0.1656E-03  0.1158E-02  0.3469E+02
   -0.680000    5.35064  0.0000E+00  0.3276E-05  0.1912E-07  0.1862E-03  0.8862E-03  0.2591E+03
   -0.722502    5.35397  0.0000E+00  0.2935E-05  0.1450E-07  0.2086E-03  0.6796E-03  0.1012E+02
   -0.765003    5.35691  0.0000E+00  0.2667E-05  0.1122E-07  0.2290E-03  0.5281E-03  0.1382E+03
   -0.807505    5.35953  0.0000E+00  0.2456E-05  0.8871E-08  0.2496E-03  0.4193E-03  0.2345E+02
   -0.850007    5.36186  0.0000E+00  0.2293E-05  0.7198E-08  0.2682E-03  0.3381E-03  0.4218E+02
   -0.892509    5.36397  0.0000E+00  0.2165E-05  0.5987E-08  0.2847E-03  0.2762E-03  0.4233E+02
   -0.935010    5.36591  0.0000E+00  0.2065E-05  0.5108E-08  0.3000E-03  0.2287E-03  0.2498E+02
   -0.977512    5.36770  0.0000E+00  0.1986E-05  0.4459E-08  0.3122E-03  0.1906E-03  0.2228E+03
   -1.020014    5.36938  0.0000E+00  0.1923E-05  0.3973E-08  0.3236E-03  0.1601E-03  0.3505E+02
   -1.062515    5.37096  0.0000E+00  0.1872E-05  0.3606E-08  0.3335E-03  0.1349E-03  0.1055E+02
   -1.105017    5.37244  0.0000E+00  0.1831E-05  0.3326E-08  0.3422E-03  0.1139E-03  0.1185E+02
   -1.147518    5.37385  0.0000E+00  0.1798E-05  0.3117E-08  0.3495E-03  0.9582E-04  0.1609E+02
   -1.190019    5.37517  0.0000E+00  0.1772E-05  0.2964E-08  0.3546E-03  0.7966E-04  0.1554E+02
   -1.232520    5.37644  0.0000E+00  0.1749E-05  0.2847E-08  0.3577E-03  0.6538E-04  0.1842E+02
   -1.275021    5.37766  0.0000E+00  0.1729E-05  0.2759E-08  0.3591E-03  0.5350E-04  0.2415E+02
   -1.317521    5.37887  0.0000E+00  0.1710E-05  0.2696E-08  0.3581E-03  0.4363E-04  0.3297E+02
   -1.360022    5.38005  0.0000E+00  0.1691E-05  0.2656E-08  0.3541E-03  0.3548E-04  0.4715E+02
   -1.402522    5.38124  0.0000E+00  0.1670E-05  0.2641E-08  0.3471E-03  0.2889E-04  0.7347E+02
   -1.445022    5.38243  0.0000E+00  0.1651E-05  0.2657E-08  0.3374E-03  0.2332E-04  0.1150E+03
   -1.487521    5.38362  0.0000E+00  0.1633E-05  0.2715E-08  0.3238E-03  0.1827E-04  0.1493E+03
   -1.530020    5.38482  0.0000E+00  0.1613E-05  0.2847E-08  0.3026E-03  0.1371E-04  0.1846E+03
   -1.572519    5.38608  0.0000E+00  0.1582E-05  0.3184E-08  0.2602E-03  0.9952E-05  0.3517E+03
   -1.615018    5.38758  0.0000E+00  0.1501E-05  0.4373E-08  0.1958E-03  0.7434E-05  0.2024E+04
   -1.657516    5.38958  0.0000E+00  0.1037E-05  0.1474E-07  0.1092E-04  0.5546E-05 -0.7875E+06
   -1.700014    5.42445  0.0000E+00  0.0000E+00  0.0000E+00  0.0000E+00  0.5549E-05  0.0000E+00
