 1 - depth, m
 2 - temperature, C
 3 - salinity, kg/kg
 4 - turbulent kinetic energy, m**2/s**2
 5 - dissipation rate, m**2/s**3
 6 - kinematic heat conductance, m**2/s
 7 - modulus of horizontal velocity, m/s
 8 - Richardson number, n/d
   -0.000000    0.00000  0.0000E+00  0.3189E-13  0.5207E-16  0.1000E-09  0.0000E+00  0.1257E+17
   -0.042497    0.19366  0.0000E+00  0.8480E-13  0.5207E-16  0.1000E-09  0.0000E+00  0.1229E+17
   -0.084995    0.39375  0.0000E+00  0.2512E-12  0.5609E-16  0.1000E-09  0.0000E+00  0.1190E+17
   -0.127493    0.59934  0.0000E+00  0.5679E-12  0.8012E-16  0.1000E-09  0.0000E+00  0.1093E+17
   -0.169991    0.80057  0.0000E+00  0.1105E-11  0.1331E-15  0.1000E-09  0.0000E+00  0.1000E+17
   -0.212490    0.99723  0.0000E+00  0.2011E-11  0.2273E-15  0.1000E-09  0.0000E+00  0.9101E+16
   -0.254989    1.18884  0.0000E+00  0.3554E-11  0.3886E-15  0.1000E-09  0.0000E+00  0.8237E+16
   -0.297488    1.37496  0.0000E+00  0.6188E-11  0.6614E-15  0.1000E-09  0.0000E+00  0.7438E+16
   -0.339988    1.55581  0.0000E+00  0.1059E-10  0.1111E-14  0.1000E-09  0.0000E+00  0.6716E+16
   -0.382488    1.73206  0.0000E+00  0.1797E-10  0.1851E-14  0.1000E-09  0.0000E+00  0.6034E+16
   -0.424988    1.90359  0.0000E+00  0.3017E-10  0.3055E-14  0.1000E-09  0.0000E+00  0.5425E+16
   -0.467488    2.07137  0.0000E+00  0.5024E-10  0.5000E-14  0.1000E-09  0.0000E+00  0.4848E+16
   -0.509989    2.23531  0.0000E+00  0.8319E-10  0.8139E-14  0.1000E-09  0.0000E+00  0.4391E+16
   -0.552490    2.39883  0.0000E+00  0.1372E-09  0.1319E-13  0.1000E-09  0.0000E+00  0.3957E+16
   -0.594990    2.56263  0.0000E+00  0.2253E-09  0.2130E-13  0.1000E-09  0.0000E+00  0.3536E+16
   -0.637491    2.72735  0.0000E+00  0.3717E-09  0.3453E-13  0.1000E-09  0.0000E+00  0.3129E+16
   -0.679992    2.89409  0.0000E+00  0.6139E-09  0.5604E-13  0.1002E-09  0.0000E+00  0.2717E+16
   -0.722493    3.06352  0.0000E+00  0.1015E-08  0.9108E-13  0.1321E-09  0.0000E+00  0.2303E+16
   -0.764995    3.23702  0.0000E+00  0.1682E-08  0.1482E-12  0.2494E-09  0.0000E+00  0.1870E+16
   -0.807496    3.41606  0.0000E+00  0.2781E-08  0.2408E-12  0.5406E-09  0.0000E+00  0.1394E+16
   -0.849997    3.60089  0.0000E+00  0.4545E-08  0.3867E-12  0.1369E-08  0.0000E+00  0.8714E+15
   -0.892499    3.79188  0.0000E+00  0.7366E-08  0.6159E-12  0.6305E-08  0.0000E+00  0.2967E+15
   -0.935000    3.98529  0.0000E+00  0.8320E-08  0.7013E-12  0.2036E-04  0.0000E+00  0.9980E+12
   -0.977501    3.99249  0.0000E+00  0.8651E-08  0.7334E-12  0.3080E-04  0.0000E+00 -0.9574E+11
   -1.020002    3.99363  0.0000E+00  0.8936E-08  0.7645E-12  0.3426E-04  0.0000E+00 -0.1036E+12
   -1.062503    3.99462  0.0000E+00  0.9200E-08  0.7971E-12  0.3702E-04  0.0000E+00 -0.1093E+12
   -1.105004    3.99550  0.0000E+00  0.9445E-08  0.8312E-12  0.3907E-04  0.0000E+00 -0.1138E+12
   -1.147505    3.99632  0.0000E+00  0.9665E-08  0.8663E-12  0.4052E-04  0.0000E+00 -0.1175E+12
   -1.190006    3.99708  0.0000E+00  0.9860E-08  0.9026E-12  0.4149E-04  0.0000E+00 -0.1225E+12
   -1.232506    3.99782  0.0000E+00  0.1004E-07  0.9416E-12  0.4170E-04  0.0000E+00 -0.1339E+12
   -1.275006    3.99857  0.0000E+00  0.1020E-07  0.9847E-12  0.4137E-04  0.0000E+00 -0.1483E+12
   -1.317507    3.99935  0.0000E+00  0.1035E-07  0.1035E-11  0.4069E-04  0.0000E+00 -0.1631E+12
   -1.360006    4.00015  0.0000E+00  0.1049E-07  0.1097E-11  0.3966E-04  0.0000E+00 -0.1825E+12
   -1.402506    4.00099  0.0000E+00  0.1063E-07  0.1177E-11  0.3811E-04  0.0000E+00 -0.2041E+12
   -1.445005    4.00188  0.0000E+00  0.1074E-07  0.1272E-11  0.3613E-04  0.0000E+00 -0.2264E+12
   -1.487504    4.00280  0.0000E+00  0.1083E-07  0.1399E-11  0.3339E-04  0.0000E+00 -0.2606E+12
   -1.530003    4.00381  0.0000E+00  0.1091E-07  0.1609E-11  0.2892E-04  0.0000E+00 -0.3514E+12
   -1.572502    4.00507  0.0000E+00  0.1093E-07  0.2073E-11  0.2296E-04  0.0000E+00 -0.6381E+12
   -1.615000    4.00718  0.0000E+00  0.1058E-07  0.3973E-11  0.8528E-05  0.0000E+00 -0.2343E+13
   -1.657497    4.01347  0.0000E+00  0.8215E-08  0.1399E-10  0.1015E-05  0.0000E+00 -0.3321E+14
   -1.699994    4.05679  0.0000E+00  0.0000E+00  0.0000E+00  0.0000E+00  0.0000E+00  0.0000E+00
