 1 - depth, m
 2 - temperature, C
 3 - salinity, kg/kg
 4 - turbulent kinetic energy, m**2/s**2
 5 - dissipation rate, m**2/s**3
 6 - kinematic heat conductance, m**2/s
 7 - modulus of horizontal velocity, m/s
 8 - Richardson number, n/d
   -0.000000    0.00000  0.0000E+00  0.3189E-13  0.5207E-16  0.1000E-09  0.0000E+00  0.1260E+17
   -0.042497    0.19403  0.0000E+00  0.3189E-13  0.5207E-16  0.1000E-09  0.0000E+00  0.1230E+17
   -0.084995    0.39424  0.0000E+00  0.3189E-13  0.5207E-16  0.1000E-09  0.0000E+00  0.1188E+17
   -0.127493    0.59949  0.0000E+00  0.3189E-13  0.5207E-16  0.1000E-09  0.0000E+00  0.1103E+17
   -0.169992    0.80275  0.0000E+00  0.3189E-13  0.5207E-16  0.1000E-09  0.0000E+00  0.1019E+17
   -0.212490    1.00340  0.0000E+00  0.3189E-13  0.5207E-16  0.1000E-09  0.0000E+00  0.9354E+16
   -0.254989    1.20100  0.0000E+00  0.3189E-13  0.5207E-16  0.1000E-09  0.0000E+00  0.8531E+16
   -0.297489    1.39497  0.0000E+00  0.3189E-13  0.5207E-16  0.1000E-09  0.0000E+00  0.7711E+16
   -0.339989    1.58436  0.0000E+00  0.3189E-13  0.5207E-16  0.1000E-09  0.0000E+00  0.6901E+16
   -0.382488    1.76809  0.0000E+00  0.3189E-13  0.5207E-16  0.1000E-09  0.0000E+00  0.6126E+16
   -0.424989    1.94555  0.0000E+00  0.3189E-13  0.5207E-16  0.1000E-09  0.0000E+00  0.5386E+16
   -0.467489    2.11594  0.0000E+00  0.3189E-13  0.5207E-16  0.1000E-09  0.0000E+00  0.4697E+16
   -0.509990    2.27880  0.0000E+00  0.4457E-13  0.5207E-16  0.1000E-09  0.0000E+00  0.4099E+16
   -0.552490    2.43529  0.0000E+00  0.1356E-12  0.5257E-16  0.1000E-09  0.0000E+00  0.3552E+16
   -0.594991    2.58535  0.0000E+00  0.3412E-12  0.6661E-16  0.1000E-09  0.0000E+00  0.3056E+16
   -0.637492    2.72905  0.0000E+00  0.7186E-12  0.1051E-15  0.1000E-09  0.0000E+00  0.2610E+16
   -0.679993    2.86661  0.0000E+00  0.1373E-11  0.1819E-15  0.1000E-09  0.0000E+00  0.2200E+16
   -0.722495    2.99761  0.0000E+00  0.2519E-11  0.3196E-15  0.1000E-09  0.0000E+00  0.1828E+16
   -0.764996    3.12166  0.0000E+00  0.4550E-11  0.5628E-15  0.1000E-09  0.0000E+00  0.1489E+16
   -0.807497    3.23804  0.0000E+00  0.8149E-11  0.9888E-15  0.1000E-09  0.0000E+00  0.1185E+16
   -0.849999    3.34581  0.0000E+00  0.1439E-10  0.1717E-14  0.1000E-09  0.0000E+00  0.9195E+15
   -0.892500    3.44414  0.0000E+00  0.2529E-10  0.2969E-14  0.1000E-09  0.0000E+00  0.7210E+15
   -0.935001    3.53617  0.0000E+00  0.4397E-10  0.5084E-14  0.1000E-09  0.0000E+00  0.5620E+15
   -0.977502    3.62389  0.0000E+00  0.7602E-10  0.8658E-14  0.1001E-09  0.0000E+00  0.4215E+15
   -1.020004    3.70737  0.0000E+00  0.1306E-09  0.1466E-13  0.1581E-09  0.0000E+00  0.2949E+15
   -1.062505    3.78554  0.0000E+00  0.2232E-09  0.2470E-13  0.4198E-09  0.0000E+00  0.1874E+15
   -1.105006    3.85810  0.0000E+00  0.3798E-09  0.4145E-13  0.1358E-08  0.0000E+00  0.9795E+14
   -1.147507    3.92357  0.0000E+00  0.6371E-09  0.6864E-13  0.7878E-08  0.0000E+00  0.3022E+14
   -1.190007    3.97882  0.0000E+00  0.9477E-09  0.1023E-12  0.1386E-05  0.0000E+00  0.1028E+13
   -1.232508    3.99166  0.0000E+00  0.1222E-08  0.1370E-12  0.3312E-05  0.0000E+00 -0.1984E+12
   -1.275008    3.99370  0.0000E+00  0.1452E-08  0.1732E-12  0.3776E-05  0.0000E+00 -0.2274E+12
   -1.317509    3.99547  0.0000E+00  0.1687E-08  0.2192E-12  0.4209E-05  0.0000E+00 -0.2765E+12
   -1.360009    3.99724  0.0000E+00  0.1931E-08  0.2793E-12  0.4503E-05  0.0000E+00 -0.3504E+12
   -1.402508    3.99913  0.0000E+00  0.2187E-08  0.3620E-12  0.4363E-05  0.0000E+00 -0.4532E+12
   -1.445008    4.00122  0.0000E+00  0.2439E-08  0.4731E-12  0.3836E-05  0.0000E+00 -0.5936E+12
   -1.487507    4.00358  0.0000E+00  0.2718E-08  0.6424E-12  0.3274E-05  0.0000E+00 -0.8406E+12
   -1.530006    4.00645  0.0000E+00  0.3129E-08  0.9731E-12  0.3029E-05  0.0000E+00 -0.1511E+13
   -1.572504    4.01077  0.0000E+00  0.3824E-08  0.1763E-11  0.3215E-05  0.0000E+00 -0.3800E+13
   -1.615002    4.01923  0.0000E+00  0.4705E-08  0.3994E-11  0.1890E-05  0.0000E+00 -0.1208E+14
   -1.657500    4.03756  0.0000E+00  0.4941E-08  0.1017E-10  0.6907E-06  0.0000E+00 -0.6403E+14
   -1.699997    4.09029  0.0000E+00  0.0000E+00  0.0000E+00  0.0000E+00  0.0000E+00  0.0000E+00
