 1 - depth, m
 2 - temperature, C
 3 - salinity, kg/kg
 4 - turbulent kinetic energy, m**2/s**2
 5 - dissipation rate, m**2/s**3
 6 - kinematic heat conductance, m**2/s
 7 - modulus of horizontal velocity, m/s
 8 - Richardson number, n/d
   -0.000000   11.66549  0.0000E+00  0.1530E-03  0.6645E-04  0.6703E-04  0.1090E+00 -0.4633E-01
   -0.042497   11.71263  0.0000E+00  0.8463E-04  0.2209E-04  0.9829E-04  0.3023E-01 -0.1941E+01
   -0.084995   11.71991  0.0000E+00  0.6003E-04  0.1087E-04  0.9249E-04  0.2080E-01 -0.7321E-01
   -0.127493   11.72624  0.0000E+00  0.4410E-04  0.5448E-05  0.9025E-04  0.1599E-01 -0.4743E-01
   -0.169992   11.73184  0.0000E+00  0.3282E-04  0.2808E-05  0.9026E-04  0.1250E-01  0.9476E+00
   -0.212491   11.73702  0.0000E+00  0.2464E-04  0.1529E-05  0.9176E-04  0.9772E-02  0.3987E+00
   -0.254990   11.74190  0.0000E+00  0.1862E-04  0.8169E-06  0.9627E-04  0.7668E-02 -0.1101E+00
   -0.297490   11.74641  0.0000E+00  0.1442E-04  0.4611E-06  0.1040E-03  0.6104E-02  0.1478E+01
   -0.339990   11.75050  0.0000E+00  0.1153E-04  0.2727E-06  0.1201E-03  0.4906E-02  0.1435E+02
   -0.382490   11.75400  0.0000E+00  0.9508E-05  0.1657E-06  0.1544E-03  0.3962E-02  0.5333E+02
   -0.424990   11.75680  0.0000E+00  0.8116E-05  0.1065E-06  0.1951E-03  0.3254E-02  0.4225E+02
   -0.467490   11.75909  0.0000E+00  0.7134E-05  0.7326E-07  0.2322E-03  0.2670E-02  0.9231E+01
   -0.509991   11.76102  0.0000E+00  0.6424E-05  0.5311E-07  0.2697E-03  0.2179E-02  0.8392E+02
   -0.552492   11.76265  0.0000E+00  0.5900E-05  0.4020E-07  0.3079E-03  0.1770E-02  0.1821E+02
   -0.594993   11.76404  0.0000E+00  0.5505E-05  0.3152E-07  0.3480E-03  0.1426E-02  0.3123E+02
   -0.637494   11.76523  0.0000E+00  0.5201E-05  0.2541E-07  0.3877E-03  0.1141E-02  0.1206E+02
   -0.679995   11.76625  0.0000E+00  0.4966E-05  0.2104E-07  0.4242E-03  0.9174E-03  0.4399E+02
   -0.722497   11.76714  0.0000E+00  0.4785E-05  0.1786E-07  0.4585E-03  0.7403E-03  0.5436E+01
   -0.764998   11.76794  0.0000E+00  0.4646E-05  0.1551E-07  0.4908E-03  0.6049E-03  0.1028E+03
   -0.807500   11.76867  0.0000E+00  0.4539E-05  0.1376E-07  0.5174E-03  0.5052E-03  0.2971E+01
   -0.850001   11.76935  0.0000E+00  0.4456E-05  0.1244E-07  0.5407E-03  0.4283E-03  0.1170E+01
   -0.892502   11.76999  0.0000E+00  0.4392E-05  0.1143E-07  0.5612E-03  0.3679E-03  0.1132E+01
   -0.935004   11.77060  0.0000E+00  0.4342E-05  0.1065E-07  0.5791E-03  0.3197E-03  0.1291E+01
   -0.977505   11.77119  0.0000E+00  0.4302E-05  0.1005E-07  0.5947E-03  0.2799E-03  0.1923E+01
   -1.020007   11.77175  0.0000E+00  0.4270E-05  0.9592E-08  0.6081E-03  0.2467E-03  0.1417E+01
   -1.062508   11.77230  0.0000E+00  0.4243E-05  0.9237E-08  0.6186E-03  0.2182E-03  0.1534E+01
   -1.105009   11.77284  0.0000E+00  0.4220E-05  0.8963E-08  0.6264E-03  0.1933E-03  0.1709E+01
   -1.147510   11.77336  0.0000E+00  0.4198E-05  0.8763E-08  0.6313E-03  0.1705E-03  0.1904E+01
   -1.190011   11.77389  0.0000E+00  0.4178E-05  0.8629E-08  0.6327E-03  0.1492E-03  0.2102E+01
   -1.232512   11.77440  0.0000E+00  0.4157E-05  0.8553E-08  0.6304E-03  0.1295E-03  0.2370E+01
   -1.275012   11.77492  0.0000E+00  0.4136E-05  0.8535E-08  0.6241E-03  0.1122E-03  0.2984E+01
   -1.317512   11.77544  0.0000E+00  0.4111E-05  0.8582E-08  0.6128E-03  0.9692E-04  0.3883E+01
   -1.360013   11.77597  0.0000E+00  0.4083E-05  0.8710E-08  0.5953E-03  0.8353E-04  0.5181E+01
   -1.402512   11.77652  0.0000E+00  0.4048E-05  0.8953E-08  0.5702E-03  0.7192E-04  0.7510E+01
   -1.445012   11.77709  0.0000E+00  0.4009E-05  0.9323E-08  0.5384E-03  0.6135E-04  0.1118E+02
   -1.487511   11.77769  0.0000E+00  0.3967E-05  0.9878E-08  0.5045E-03  0.5122E-04  0.1416E+02
   -1.530010   11.77833  0.0000E+00  0.3911E-05  0.1087E-07  0.4349E-03  0.4149E-04  0.1831E+02
   -1.572509   11.77908  0.0000E+00  0.3816E-05  0.1322E-07  0.4488E-03  0.3251E-04  0.2638E+02
   -1.615007   11.77980  0.0000E+00  0.3464E-05  0.2518E-07  0.2021E-03  0.2689E-04 -0.6239E+07
   -1.657505   11.78376  0.0000E+00  0.2241E-05  0.8277E-07  0.4427E-04  0.1825E-04 -0.1421E+05
   -1.700002   11.79230  0.0000E+00  0.0000E+00  0.0000E+00  0.0000E+00  0.2040E-04  0.0000E+00
