 1 - depth, m
 2 - temperature, C
 3 - salinity, kg/kg
 4 - turbulent kinetic energy, m**2/s**2
 5 - dissipation rate, m**2/s**3
 6 - kinematic heat conductance, m**2/s
 7 - modulus of horizontal velocity, m/s
 8 - Richardson number, n/d
   -0.000000   17.99730  0.0000E+00  0.2457E-03  0.2109E-03  0.8040E-04  0.1659E+00 -0.7869E-02
   -0.042497   18.12608  0.0000E+00  0.1286E-03  0.5763E-04  0.1336E-03  0.3941E-01  0.1305E-01
   -0.084995   18.15515  0.0000E+00  0.8843E-04  0.2359E-04  0.1308E-03  0.2483E-01 -0.8626E-01
   -0.127493   18.17543  0.0000E+00  0.6626E-04  0.1184E-04  0.1418E-03  0.1914E-01  0.4033E+01
   -0.169992   18.19010  0.0000E+00  0.5088E-04  0.6066E-05  0.1570E-03  0.1529E-01  0.3268E+03
   -0.212491   18.20176  0.0000E+00  0.3971E-04  0.3095E-05  0.1870E-03  0.1229E-01  0.1625E+03
   -0.254990   18.21098  0.0000E+00  0.3169E-04  0.1643E-05  0.2229E-03  0.1002E-01  0.1947E+02
   -0.297490   18.21875  0.0000E+00  0.2603E-04  0.9212E-06  0.2652E-03  0.8327E-02  0.2710E+03
   -0.339989   18.22520  0.0000E+00  0.2219E-04  0.5786E-06  0.3141E-03  0.7017E-02  0.5531E+02
   -0.382489   18.23043  0.0000E+00  0.1953E-04  0.3878E-06  0.3738E-03  0.5962E-02  0.1225E+03
   -0.424990   18.23453  0.0000E+00  0.1771E-04  0.2736E-06  0.4207E-03  0.5135E-02  0.1282E+03
   -0.467490   18.23784  0.0000E+00  0.1643E-04  0.2031E-06  0.4644E-03  0.4415E-02  0.2569E+03
   -0.509991   18.24061  0.0000E+00  0.1551E-04  0.1576E-06  0.5091E-03  0.3781E-02  0.3473E+02
   -0.552492   18.24291  0.0000E+00  0.1483E-04  0.1271E-06  0.5498E-03  0.3220E-02  0.2743E+02
   -0.594993   18.24490  0.0000E+00  0.1429E-04  0.1055E-06  0.5882E-03  0.2715E-02  0.7696E+01
   -0.637494   18.24668  0.0000E+00  0.1384E-04  0.8938E-07  0.6327E-03  0.2265E-02  0.2606E+01
   -0.679995   18.24829  0.0000E+00  0.1346E-04  0.7704E-07  0.6779E-03  0.1883E-02  0.2377E+01
   -0.722496   18.24978  0.0000E+00  0.1313E-04  0.6738E-07  0.7310E-03  0.1561E-02  0.1812E+01
   -0.764998   18.25115  0.0000E+00  0.1283E-04  0.5976E-07  0.7906E-03  0.1301E-02  0.1604E+01
   -0.807499   18.25240  0.0000E+00  0.1256E-04  0.5374E-07  0.8479E-03  0.1097E-02  0.1920E+01
   -0.850000   18.25357  0.0000E+00  0.1232E-04  0.4908E-07  0.9004E-03  0.9346E-03  0.1386E+01
   -0.892502   18.25464  0.0000E+00  0.1209E-04  0.4545E-07  0.9471E-03  0.8033E-03  0.1339E+01
   -0.935003   18.25565  0.0000E+00  0.1187E-04  0.4267E-07  0.9817E-03  0.6975E-03  0.1090E+01
   -0.977505   18.25659  0.0000E+00  0.1166E-04  0.4058E-07  0.1004E-02  0.6094E-03  0.1370E+01
   -1.020006   18.25750  0.0000E+00  0.1145E-04  0.3904E-07  0.1014E-02  0.5365E-03  0.1354E+01
   -1.062507   18.25837  0.0000E+00  0.1124E-04  0.3797E-07  0.1009E-02  0.4744E-03  0.1361E+01
   -1.105008   18.25922  0.0000E+00  0.1103E-04  0.3731E-07  0.9922E-03  0.4211E-03  0.1189E+01
   -1.147509   18.26006  0.0000E+00  0.1083E-04  0.3705E-07  0.9665E-03  0.3737E-03  0.1460E+01
   -1.190010   18.26090  0.0000E+00  0.1063E-04  0.3717E-07  0.9316E-03  0.3306E-03  0.1504E+01
   -1.232511   18.26174  0.0000E+00  0.1043E-04  0.3772E-07  0.8913E-03  0.2917E-03  0.1608E+01
   -1.275011   18.26261  0.0000E+00  0.1021E-04  0.3880E-07  0.8411E-03  0.2583E-03  0.1961E+01
   -1.317511   18.26353  0.0000E+00  0.9972E-05  0.4066E-07  0.8008E-03  0.2295E-03  0.2663E+01
   -1.360012   18.26449  0.0000E+00  0.9681E-05  0.4400E-07  0.7282E-03  0.2040E-03 -0.4773E+00
   -1.402511   18.26560  0.0000E+00  0.9294E-05  0.4988E-07  0.6847E-03  0.1799E-03 -0.4259E+02
   -1.445011   18.26684  0.0000E+00  0.8796E-05  0.6023E-07  0.5796E-03  0.1570E-03  0.5568E+03
   -1.487510   18.26880  0.0000E+00  0.8199E-05  0.7674E-07  0.5389E-03  0.1267E-03  0.3278E+04
   -1.530009   18.27073  0.0000E+00  0.7363E-05  0.1182E-06  0.3991E-03  0.9829E-04 -0.9866E+04
   -1.572507   18.27691  0.0000E+00  0.6406E-05  0.2046E-06  0.4249E-03  0.6169E-04  0.2226E+07
   -1.615006   18.27433  0.0000E+00  0.4958E-05  0.5749E-06  0.2006E-03  0.5016E-04 -0.5542E+08
   -1.657503   18.29449  0.0000E+00  0.3495E-05  0.1403E-05  0.1816E-03  0.2954E-04 -0.1693E+06
   -1.700001   18.29377  0.0000E+00  0.0000E+00  0.0000E+00  0.0000E+00  0.5874E-04  0.0000E+00
