 1 - depth, m
 2 - temperature, C
 3 - salinity, kg/kg
 4 - turbulent kinetic energy, m**2/s**2
 5 - dissipation rate, m**2/s**3
 6 - kinematic heat conductance, m**2/s
 7 - modulus of horizontal velocity, m/s
 8 - Richardson number, n/d
   -0.000000    0.00000  0.0000E+00  0.3189E-13  0.5207E-16  0.1000E-09  0.0000E+00  0.8166E+16
   -0.042497    0.12458  0.0000E+00  0.3189E-13  0.5207E-16  0.1000E-09  0.0000E+00  0.8150E+16
   -0.084995    0.25335  0.0000E+00  0.3189E-13  0.5207E-16  0.1000E-09  0.0000E+00  0.8084E+16
   -0.127493    0.38591  0.0000E+00  0.3189E-13  0.5207E-16  0.1000E-09  0.0000E+00  0.7761E+16
   -0.169992    0.51824  0.0000E+00  0.3189E-13  0.5207E-16  0.1000E-09  0.0000E+00  0.7436E+16
   -0.212490    0.65025  0.0000E+00  0.3189E-13  0.5207E-16  0.1000E-09  0.0000E+00  0.7116E+16
   -0.254990    0.78196  0.0000E+00  0.3189E-13  0.5207E-16  0.1000E-09  0.0000E+00  0.6797E+16
   -0.297489    0.91334  0.0000E+00  0.3189E-13  0.5207E-16  0.1000E-09  0.0000E+00  0.6459E+16
   -0.339989    1.04391  0.0000E+00  0.3189E-13  0.5207E-16  0.1000E-09  0.0000E+00  0.6099E+16
   -0.382489    1.17304  0.0000E+00  0.3189E-13  0.5207E-16  0.1000E-09  0.0000E+00  0.5740E+16
   -0.424989    1.30052  0.0000E+00  0.3189E-13  0.5207E-16  0.1000E-09  0.0000E+00  0.5367E+16
   -0.467489    1.42572  0.0000E+00  0.3189E-13  0.5207E-16  0.1000E-09  0.0000E+00  0.5003E+16
   -0.509990    1.54847  0.0000E+00  0.3189E-13  0.5207E-16  0.1000E-09  0.0000E+00  0.4670E+16
   -0.552491    1.66914  0.0000E+00  0.3189E-13  0.5207E-16  0.1000E-09  0.0000E+00  0.4349E+16
   -0.594991    1.78770  0.0000E+00  0.3189E-13  0.5207E-16  0.1000E-09  0.0000E+00  0.4048E+16
   -0.637492    1.90435  0.0000E+00  0.3189E-13  0.5207E-16  0.1000E-09  0.0000E+00  0.3775E+16
   -0.679994    2.01958  0.0000E+00  0.3189E-13  0.5207E-16  0.1000E-09  0.0000E+00  0.3507E+16
   -0.722495    2.13325  0.0000E+00  0.3189E-13  0.5207E-16  0.1000E-09  0.0000E+00  0.3252E+16
   -0.764996    2.24551  0.0000E+00  0.3189E-13  0.5207E-16  0.1000E-09  0.0000E+00  0.3003E+16
   -0.807497    2.35624  0.0000E+00  0.3189E-13  0.5207E-16  0.1000E-09  0.0000E+00  0.2741E+16
   -0.849999    2.46453  0.0000E+00  0.3189E-13  0.5207E-16  0.1000E-09  0.0000E+00  0.2478E+16
   -0.892500    2.56971  0.0000E+00  0.3189E-13  0.5207E-16  0.1000E-09  0.0000E+00  0.2253E+16
   -0.935002    2.67281  0.0000E+00  0.3189E-13  0.5207E-16  0.1000E-09  0.0000E+00  0.2043E+16
   -0.977503    2.77401  0.0000E+00  0.3189E-13  0.5207E-16  0.1000E-09  0.0000E+00  0.1840E+16
   -1.020004    2.87320  0.0000E+00  0.3189E-13  0.5207E-16  0.1000E-09  0.0000E+00  0.1631E+16
   -1.062505    2.96934  0.0000E+00  0.3189E-13  0.5207E-16  0.1000E-09  0.0000E+00  0.1433E+16
   -1.105006    3.06216  0.0000E+00  0.3189E-13  0.5207E-16  0.1000E-09  0.0000E+00  0.1236E+16
   -1.147507    3.15061  0.0000E+00  0.3189E-13  0.5207E-16  0.1000E-09  0.0000E+00  0.1050E+16
   -1.190008    3.23393  0.0000E+00  0.3189E-13  0.5207E-16  0.1000E-09  0.0000E+00  0.8870E+15
   -1.232508    3.31244  0.0000E+00  0.3189E-13  0.5207E-16  0.1000E-09  0.0000E+00  0.7550E+15
   -1.275009    3.38741  0.0000E+00  0.6051E-13  0.6046E-16  0.1000E-09  0.0000E+00  0.6476E+15
   -1.317509    3.46025  0.0000E+00  0.2493E-12  0.2198E-15  0.1000E-09  0.0000E+00  0.5909E+15
   -1.360009    3.53700  0.0000E+00  0.1049E-11  0.8930E-15  0.1000E-09  0.0000E+00  0.5335E+15
   -1.402509    3.61997  0.0000E+00  0.4406E-11  0.3650E-14  0.1000E-09  0.0000E+00  0.4362E+15
   -1.445008    3.70561  0.0000E+00  0.1735E-10  0.1402E-13  0.1334E-09  0.0000E+00  0.3125E+15
   -1.487507    3.78871  0.0000E+00  0.6743E-10  0.5344E-13  0.7602E-09  0.0000E+00  0.2038E+15
   -1.530006    3.87189  0.0000E+00  0.2870E-09  0.2248E-12  0.5987E-08  0.0000E+00  0.1015E+15
   -1.572505    3.97436  0.0000E+00  0.1309E-08  0.1042E-11  0.4399E-06  0.0000E+00 -0.8988E+13
   -1.615003    4.02231  0.0000E+00  0.3377E-08  0.3684E-11  0.1138E-05  0.0000E+00 -0.2074E+14
   -1.657500    4.04912  0.0000E+00  0.4122E-08  0.8740E-11  0.5851E-06  0.0000E+00 -0.7005E+14
   -1.699998    4.09989  0.0000E+00  0.0000E+00  0.0000E+00  0.0000E+00  0.0000E+00  0.0000E+00
