 1 - depth, m
 2 - temperature, C
 3 - salinity, kg/kg
 4 - turbulent kinetic energy, m**2/s**2
 5 - dissipation rate, m**2/s**3
 6 - kinematic heat conductance, m**2/s
 7 - modulus of horizontal velocity, m/s
 8 - Richardson number, n/d
   -0.000000    0.19763  0.0000E+00  0.2805E-03  0.4383E-03  0.9296E-04  0.1859E+00 -0.1314E-02
   -0.042498    0.22575  0.0000E+00  0.1465E-03  0.1630E-03  0.1441E-03  0.4766E-01  0.7071E-02
   -0.084996    0.23298  0.0000E+00  0.9817E-04  0.6353E-04  0.1093E-03  0.3059E-01  0.1111E-01
   -0.127494    0.23896  0.0000E+00  0.6949E-04  0.2545E-04  0.9894E-04  0.2349E-01  0.2097E-01
   -0.169993    0.24407  0.0000E+00  0.4986E-04  0.1063E-04  0.9153E-04  0.1846E-01  0.1738E+00
   -0.212492    0.24994  0.0000E+00  0.3560E-04  0.4156E-05  0.8587E-04  0.1429E-01  0.7229E-01
   -0.254992    0.25766  0.0000E+00  0.2606E-04  0.1968E-05  0.8092E-04  0.1105E-01  0.5388E+01
   -0.297492    0.26371  0.0000E+00  0.1937E-04  0.9965E-06  0.7529E-04  0.8894E-02  0.6528E+01
   -0.339992    0.26864  0.0000E+00  0.1465E-04  0.5247E-06  0.6922E-04  0.7337E-02  0.7029E+02
   -0.382492    0.27409  0.0000E+00  0.1123E-04  0.3018E-06  0.6378E-04  0.6032E-02  0.1946E+04
   -0.424992    0.27902  0.0000E+00  0.8759E-05  0.1887E-06  0.5700E-04  0.5032E-02  0.6073E+04
   -0.467493    0.28406  0.0000E+00  0.6903E-05  0.1226E-06  0.5033E-04  0.4124E-02  0.2675E+05
   -0.509994    0.28925  0.0000E+00  0.5452E-05  0.8119E-07  0.4361E-04  0.3309E-02  0.2118E+06
   -0.552495    0.29515  0.0000E+00  0.4284E-05  0.5448E-07  0.3633E-04  0.2589E-02  0.1860E+07
   -0.594997    0.30286  0.0000E+00  0.3305E-05  0.3668E-07  0.2922E-04  0.1933E-02  0.2903E+08
   -0.637498    0.31442  0.0000E+00  0.2471E-05  0.2444E-07  0.2280E-04  0.1365E-02  0.6621E+09
   -0.679999    0.33476  0.0000E+00  0.1790E-05  0.1608E-07  0.1678E-04  0.9386E-03  0.2773E+11
   -0.722501    0.38038  0.0000E+00  0.1259E-05  0.1038E-07  0.1204E-04  0.6112E-03  0.2190E+12
   -0.765003    0.45829  0.0000E+00  0.8582E-06  0.6541E-08  0.1050E-04  0.3953E-03 -0.7622E+11
   -0.807504    0.55008  0.0000E+00  0.5627E-06  0.3996E-08  0.8185E-05  0.2591E-03  0.8736E+12
   -0.850006    0.66411  0.0000E+00  0.3627E-06  0.2397E-08  0.6361E-05  0.1658E-03  0.5487E+14
   -0.892508    0.77151  0.0000E+00  0.2274E-06  0.1389E-08  0.4764E-05  0.1068E-03  0.2503E+15
   -0.935010    0.84833  0.0000E+00  0.1263E-06  0.7149E-09  0.1396E-05  0.6886E-04  0.3278E+15
   -0.977511    0.91530  0.0000E+00  0.5127E-07  0.2661E-09  0.1764E-06  0.3664E-04  0.4690E+15
   -1.020013    0.97635  0.0000E+00  0.1362E-07  0.6545E-10  0.3413E-07  0.1408E-04  0.9111E+15
   -1.062514    1.04218  0.0000E+00  0.2532E-08  0.1169E-10  0.7621E-08  0.3899E-05  0.1401E+16
   -1.105016    1.11044  0.0000E+00  0.3151E-09  0.2107E-11  0.1208E-08  0.8683E-06  0.2550E+16
   -1.147517    1.20933  0.0000E+00  0.2698E-10  0.1068E-11  0.1582E-09  0.1884E-06  0.4742E+16
   -1.190018    1.36819  0.0000E+00  0.4494E-11  0.1000E-11  0.1000E-09  0.2920E-07  0.6627E+16
   -1.232519    1.57823  0.0000E+00  0.4419E-11  0.1000E-11  0.1000E-09  0.2432E-08  0.6127E+16
   -1.275020    1.76814  0.0000E+00  0.4419E-11  0.1000E-11  0.1000E-09  0.1810E-09  0.5838E+16
   -1.317520    1.95840  0.0000E+00  0.4419E-11  0.1000E-11  0.1000E-09  0.1161E-10  0.7731E+16
   -1.360021    2.22723  0.0000E+00  0.4419E-11  0.1000E-11  0.1000E-09  0.6303E-12  0.8662E+16
   -1.402521    2.56438  0.0000E+00  0.4419E-11  0.1000E-11  0.1000E-09  0.4013E-13  0.8205E+16
   -1.445021    2.97935  0.0000E+00  0.4419E-11  0.1000E-11  0.1000E-09  0.3287E-14  0.6278E+16
   -1.487520    3.48020  0.0000E+00  0.4419E-11  0.1000E-11  0.1000E-09  0.1901E-15  0.2385E+16
   -1.530019    3.98522  0.0000E+00  0.4419E-11  0.1000E-11  0.1000E-09  0.5216E-17 -0.3890E+16
   -1.572518    4.69772  0.0000E+00  0.4419E-11  0.1000E-11  0.1000E-09  0.9112E-19 -0.1100E+17
   -1.615016    5.37861  0.0000E+00  0.4419E-11  0.1000E-11  0.1000E-09  0.2199E-20 -0.1468E+17
   -1.657515    5.95128  0.0000E+00  0.4419E-11  0.1000E-11  0.1000E-09  0.5235E-22 -0.1077E+17
   -1.700012    6.28163  0.0000E+00  0.0000E+00  0.0000E+00  0.0000E+00  0.6088E-22  0.0000E+00
