 1 - depth, m
 2 - temperature, C
 3 - salinity, kg/kg
 4 - turbulent kinetic energy, m**2/s**2
 5 - dissipation rate, m**2/s**3
 6 - kinematic heat conductance, m**2/s
 7 - modulus of horizontal velocity, m/s
 8 - Richardson number, n/d
   -0.000000    0.00000  0.0000E+00  0.3189E-13  0.5206E-16  0.1000E-09  0.0000E+00  0.9643E+16
   -0.042497    0.14757  0.0000E+00  0.3189E-13  0.5206E-16  0.1000E-09  0.0000E+00  0.9621E+16
   -0.084995    0.30109  0.0000E+00  0.3189E-13  0.5206E-16  0.1000E-09  0.0000E+00  0.9523E+16
   -0.127493    0.46004  0.0000E+00  0.3189E-13  0.5206E-16  0.1000E-09  0.0000E+00  0.9057E+16
   -0.169992    0.61862  0.0000E+00  0.3189E-13  0.5206E-16  0.1000E-09  0.0000E+00  0.8592E+16
   -0.212491    0.77671  0.0000E+00  0.3189E-13  0.5206E-16  0.1000E-09  0.0000E+00  0.8129E+16
   -0.254990    0.93425  0.0000E+00  0.3189E-13  0.5206E-16  0.1000E-09  0.0000E+00  0.7668E+16
   -0.297490    1.09113  0.0000E+00  0.3189E-13  0.5206E-16  0.1000E-09  0.0000E+00  0.7201E+16
   -0.339989    1.24703  0.0000E+00  0.3189E-13  0.5206E-16  0.1000E-09  0.0000E+00  0.6730E+16
   -0.382489    1.40162  0.0000E+00  0.3189E-13  0.5206E-16  0.1000E-09  0.0000E+00  0.6263E+16
   -0.424990    1.55472  0.0000E+00  0.1324E-12  0.5206E-16  0.1000E-09  0.0000E+00  0.5799E+16
   -0.467490    1.70600  0.0000E+00  0.3635E-12  0.7044E-16  0.1000E-09  0.0000E+00  0.5345E+16
   -0.509991    1.85531  0.0000E+00  0.7750E-12  0.1208E-15  0.1000E-09  0.0000E+00  0.4925E+16
   -0.552492    2.00317  0.0000E+00  0.1498E-11  0.2162E-15  0.1000E-09  0.0000E+00  0.4517E+16
   -0.594993    2.14959  0.0000E+00  0.2781E-11  0.3869E-15  0.1000E-09  0.0000E+00  0.4124E+16
   -0.637494    2.29467  0.0000E+00  0.5118E-11  0.6945E-15  0.1000E-09  0.0000E+00  0.3750E+16
   -0.679995    2.43868  0.0000E+00  0.9374E-11  0.1246E-14  0.1000E-09  0.0000E+00  0.3381E+16
   -0.722496    2.58147  0.0000E+00  0.1716E-10  0.2237E-14  0.1000E-09  0.0000E+00  0.3022E+16
   -0.764998    2.72306  0.0000E+00  0.3143E-10  0.4023E-14  0.1000E-09  0.0000E+00  0.2670E+16
   -0.807499    2.86322  0.0000E+00  0.5746E-10  0.7220E-14  0.1000E-09  0.0000E+00  0.2317E+16
   -0.850001    3.00123  0.0000E+00  0.1038E-09  0.1281E-13  0.1000E-09  0.0000E+00  0.1973E+16
   -0.892502    3.13650  0.0000E+00  0.1865E-09  0.2261E-13  0.1000E-09  0.0000E+00  0.1661E+16
   -0.935003    3.27030  0.0000E+00  0.3315E-09  0.3948E-13  0.1000E-09  0.0000E+00  0.1365E+16
   -0.977505    3.40308  0.0000E+00  0.5853E-09  0.6849E-13  0.2003E-09  0.0000E+00  0.1076E+16
   -1.020006    3.53471  0.0000E+00  0.1026E-08  0.1180E-12  0.4703E-09  0.0000E+00  0.7891E+15
   -1.062507    3.66412  0.0000E+00  0.1785E-08  0.2018E-12  0.1232E-08  0.0000E+00  0.5155E+15
   -1.105008    3.79069  0.0000E+00  0.3086E-08  0.3430E-12  0.4203E-08  0.0000E+00  0.2567E+15
   -1.147509    3.91166  0.0000E+00  0.5175E-08  0.5671E-12  0.4319E-07  0.0000E+00  0.4121E+14
   -1.190010    4.00416  0.0000E+00  0.5806E-08  0.6395E-12  0.2152E-04  0.0000E+00 -0.2195E+12
   -1.232511    4.00492  0.0000E+00  0.6106E-08  0.6806E-12  0.2226E-04  0.0000E+00 -0.2196E+12
   -1.275011    4.00566  0.0000E+00  0.6378E-08  0.7263E-12  0.2258E-04  0.0000E+00 -0.2254E+12
   -1.317512    4.00639  0.0000E+00  0.6629E-08  0.7790E-12  0.2281E-04  0.0000E+00 -0.2400E+12
   -1.360012    4.00714  0.0000E+00  0.6863E-08  0.8424E-12  0.2268E-04  0.0000E+00 -0.2633E+12
   -1.402512    4.00793  0.0000E+00  0.7085E-08  0.9239E-12  0.2134E-04  0.0000E+00 -0.2976E+12
   -1.445011    4.00879  0.0000E+00  0.7273E-08  0.1023E-11  0.1901E-04  0.0000E+00 -0.3430E+12
   -1.487510    4.00975  0.0000E+00  0.7429E-08  0.1153E-11  0.1671E-04  0.0000E+00 -0.4091E+12
   -1.530009    4.01084  0.0000E+00  0.7571E-08  0.1359E-11  0.1503E-04  0.0000E+00 -0.5533E+12
   -1.572508    4.01224  0.0000E+00  0.7692E-08  0.1786E-11  0.1369E-04  0.0000E+00 -0.9885E+12
   -1.615006    4.01457  0.0000E+00  0.7489E-08  0.3297E-11  0.5606E-05  0.0000E+00 -0.3185E+13
   -1.657504    4.02102  0.0000E+00  0.5796E-08  0.9653E-11  0.7798E-06  0.0000E+00 -0.3345E+14
   -1.700001    4.06033  0.0000E+00  0.0000E+00  0.0000E+00  0.0000E+00  0.0000E+00  0.0000E+00
