 1 - depth, m
 2 - temperature, C
 3 - salinity, kg/kg
 4 - turbulent kinetic energy, m**2/s**2
 5 - dissipation rate, m**2/s**3
 6 - kinematic heat conductance, m**2/s
 7 - modulus of horizontal velocity, m/s
 8 - Richardson number, n/d
   -0.000000    0.00000  0.0000E+00  0.3189E-13  0.5206E-16  0.1000E-09  0.0000E+00  0.9696E+16
   -0.042497    0.14840  0.0000E+00  0.3189E-13  0.5206E-16  0.1000E-09  0.0000E+00  0.9675E+16
   -0.084995    0.30285  0.0000E+00  0.3189E-13  0.5206E-16  0.1000E-09  0.0000E+00  0.9577E+16
   -0.127493    0.46282  0.0000E+00  0.3189E-13  0.5206E-16  0.1000E-09  0.0000E+00  0.9107E+16
   -0.169992    0.62242  0.0000E+00  0.3189E-13  0.5206E-16  0.1000E-09  0.0000E+00  0.8636E+16
   -0.212491    0.78154  0.0000E+00  0.3189E-13  0.5206E-16  0.1000E-09  0.0000E+00  0.8167E+16
   -0.254990    0.94009  0.0000E+00  0.3189E-13  0.5206E-16  0.1000E-09  0.0000E+00  0.7699E+16
   -0.297490    1.09796  0.0000E+00  0.3189E-13  0.5206E-16  0.1000E-09  0.0000E+00  0.7226E+16
   -0.339989    1.25483  0.0000E+00  0.3189E-13  0.5206E-16  0.1000E-09  0.0000E+00  0.6749E+16
   -0.382489    1.41037  0.0000E+00  0.3189E-13  0.5206E-16  0.1000E-09  0.0000E+00  0.6277E+16
   -0.424990    1.56439  0.0000E+00  0.1352E-12  0.5206E-16  0.1000E-09  0.0000E+00  0.5808E+16
   -0.467490    1.71658  0.0000E+00  0.3692E-12  0.7132E-16  0.1000E-09  0.0000E+00  0.5349E+16
   -0.509991    1.86678  0.0000E+00  0.7860E-12  0.1229E-15  0.1000E-09  0.0000E+00  0.4925E+16
   -0.552492    2.01556  0.0000E+00  0.1520E-11  0.2205E-15  0.1000E-09  0.0000E+00  0.4514E+16
   -0.594993    2.16289  0.0000E+00  0.2825E-11  0.3953E-15  0.1000E-09  0.0000E+00  0.4117E+16
   -0.637494    2.30889  0.0000E+00  0.5207E-11  0.7110E-15  0.1000E-09  0.0000E+00  0.3739E+16
   -0.679995    2.45382  0.0000E+00  0.9557E-11  0.1278E-14  0.1000E-09  0.0000E+00  0.3365E+16
   -0.722496    2.59752  0.0000E+00  0.1753E-10  0.2300E-14  0.1000E-09  0.0000E+00  0.3002E+16
   -0.764998    2.73996  0.0000E+00  0.3218E-10  0.4145E-14  0.1000E-09  0.0000E+00  0.2645E+16
   -0.807499    2.88090  0.0000E+00  0.5896E-10  0.7457E-14  0.1000E-09  0.0000E+00  0.2288E+16
   -0.850001    3.01956  0.0000E+00  0.1067E-09  0.1326E-13  0.1000E-09  0.0000E+00  0.1939E+16
   -0.892502    3.15532  0.0000E+00  0.1923E-09  0.2347E-13  0.1000E-09  0.0000E+00  0.1624E+16
   -0.935003    3.28939  0.0000E+00  0.3425E-09  0.4108E-13  0.1000E-09  0.0000E+00  0.1325E+16
   -0.977505    3.42222  0.0000E+00  0.6062E-09  0.7145E-13  0.2173E-09  0.0000E+00  0.1034E+16
   -1.020006    3.55363  0.0000E+00  0.1065E-08  0.1234E-12  0.5189E-09  0.0000E+00  0.7480E+15
   -1.062507    3.68254  0.0000E+00  0.1858E-08  0.2117E-12  0.1397E-08  0.0000E+00  0.4764E+15
   -1.105009    3.80829  0.0000E+00  0.3219E-08  0.3606E-12  0.5113E-08  0.0000E+00  0.2217E+15
   -1.147510    3.92765  0.0000E+00  0.5342E-08  0.5908E-12  0.7647E-07  0.0000E+00  0.2417E+14
   -1.190010    4.00531  0.0000E+00  0.5981E-08  0.6650E-12  0.2231E-04  0.0000E+00 -0.2232E+12
   -1.232511    4.00605  0.0000E+00  0.6285E-08  0.7071E-12  0.2320E-04  0.0000E+00 -0.2211E+12
   -1.275012    4.00675  0.0000E+00  0.6559E-08  0.7535E-12  0.2349E-04  0.0000E+00 -0.2264E+12
   -1.317512    4.00745  0.0000E+00  0.6812E-08  0.8070E-12  0.2367E-04  0.0000E+00 -0.2411E+12
   -1.360012    4.00816  0.0000E+00  0.7047E-08  0.8714E-12  0.2350E-04  0.0000E+00 -0.2643E+12
   -1.402512    4.00892  0.0000E+00  0.7271E-08  0.9544E-12  0.2202E-04  0.0000E+00 -0.2994E+12
   -1.445011    4.00975  0.0000E+00  0.7462E-08  0.1056E-11  0.1949E-04  0.0000E+00 -0.3466E+12
   -1.487510    4.01068  0.0000E+00  0.7620E-08  0.1188E-11  0.1710E-04  0.0000E+00 -0.4136E+12
   -1.530009    4.01174  0.0000E+00  0.7764E-08  0.1399E-11  0.1538E-04  0.0000E+00 -0.5584E+12
   -1.572508    4.01310  0.0000E+00  0.7886E-08  0.1835E-11  0.1404E-04  0.0000E+00 -0.9939E+12
   -1.615006    4.01537  0.0000E+00  0.7677E-08  0.3374E-11  0.5764E-05  0.0000E+00 -0.3177E+13
   -1.657504    4.02167  0.0000E+00  0.5933E-08  0.9902E-11  0.7933E-06  0.0000E+00 -0.3345E+14
   -1.700001    4.06063  0.0000E+00  0.0000E+00  0.0000E+00  0.0000E+00  0.0000E+00  0.0000E+00
