 1 - depth, m
 2 - temperature, C
 3 - salinity, kg/kg
 4 - turbulent kinetic energy, m**2/s**2
 5 - dissipation rate, m**2/s**3
 6 - kinematic heat conductance, m**2/s
 7 - modulus of horizontal velocity, m/s
 8 - Richardson number, n/d
   -0.000000    0.00000  0.0000E+00  0.7074E-08  0.1713E-10  0.8496E-09  0.0000E+00  0.6318E+17
   -0.042497    1.11129  0.0000E+00  0.4840E-07  0.1444E-10  0.1115E-08  0.0000E+00  0.4074E+17
   -0.084995    2.18115  0.0000E+00  0.1280E-06  0.2157E-10  0.3215E-08  0.0000E+00  0.2124E+17
   -0.127494    3.20973  0.0000E+00  0.2617E-06  0.3726E-10  0.2670E-07  0.0000E+00  0.4692E+16
   -0.169992    4.09322  0.0000E+00  0.2631E-06  0.3744E-10  0.5850E-03  0.0000E+00 -0.4261E+12
   -0.212491    4.09347  0.0000E+00  0.2637E-06  0.3755E-10  0.5790E-03  0.0000E+00 -0.4099E+12
   -0.254990    4.09372  0.0000E+00  0.2643E-06  0.3766E-10  0.5799E-03  0.0000E+00 -0.4061E+12
   -0.297490    4.09396  0.0000E+00  0.2649E-06  0.3779E-10  0.5806E-03  0.0000E+00 -0.4011E+12
   -0.339990    4.09420  0.0000E+00  0.2654E-06  0.3794E-10  0.5809E-03  0.0000E+00 -0.3997E+12
   -0.382490    4.09444  0.0000E+00  0.2659E-06  0.3809E-10  0.5809E-03  0.0000E+00 -0.3972E+12
   -0.424990    4.09468  0.0000E+00  0.2664E-06  0.3827E-10  0.5804E-03  0.0000E+00 -0.3973E+12
   -0.467491    4.09491  0.0000E+00  0.2668E-06  0.3845E-10  0.5796E-03  0.0000E+00 -0.3964E+12
   -0.509992    4.09515  0.0000E+00  0.2672E-06  0.3866E-10  0.5783E-03  0.0000E+00 -0.3960E+12
   -0.552492    4.09539  0.0000E+00  0.2676E-06  0.3887E-10  0.5768E-03  0.0000E+00 -0.3941E+12
   -0.594994    4.09562  0.0000E+00  0.2679E-06  0.3911E-10  0.5747E-03  0.0000E+00 -0.3949E+12
   -0.637495    4.09585  0.0000E+00  0.2681E-06  0.3938E-10  0.5721E-03  0.0000E+00 -0.3940E+12
   -0.679996    4.09608  0.0000E+00  0.2684E-06  0.3968E-10  0.5690E-03  0.0000E+00 -0.3958E+12
   -0.722497    4.09632  0.0000E+00  0.2686E-06  0.4002E-10  0.5653E-03  0.0000E+00 -0.3966E+12
   -0.764999    4.09655  0.0000E+00  0.2688E-06  0.4041E-10  0.5608E-03  0.0000E+00 -0.4003E+12
   -0.807500    4.09678  0.0000E+00  0.2689E-06  0.4087E-10  0.5555E-03  0.0000E+00 -0.4031E+12
   -0.850002    4.09702  0.0000E+00  0.2691E-06  0.4138E-10  0.5495E-03  0.0000E+00 -0.4093E+12
   -0.892503    4.09726  0.0000E+00  0.2692E-06  0.4196E-10  0.5427E-03  0.0000E+00 -0.4137E+12
   -0.935005    4.09750  0.0000E+00  0.2692E-06  0.4261E-10  0.5351E-03  0.0000E+00 -0.4210E+12
   -0.977506    4.09774  0.0000E+00  0.2692E-06  0.4333E-10  0.5268E-03  0.0000E+00 -0.4274E+12
   -1.020008    4.09799  0.0000E+00  0.2692E-06  0.4413E-10  0.5176E-03  0.0000E+00 -0.4371E+12
   -1.062509    4.09824  0.0000E+00  0.2692E-06  0.4502E-10  0.5077E-03  0.0000E+00 -0.4464E+12
   -1.105010    4.09850  0.0000E+00  0.2691E-06  0.4601E-10  0.4971E-03  0.0000E+00 -0.4586E+12
   -1.147511    4.09876  0.0000E+00  0.2690E-06  0.4709E-10  0.4860E-03  0.0000E+00 -0.4703E+12
   -1.190012    4.09903  0.0000E+00  0.2688E-06  0.4826E-10  0.4743E-03  0.0000E+00 -0.4857E+12
   -1.232513    4.09931  0.0000E+00  0.2686E-06  0.4962E-10  0.4614E-03  0.0000E+00 -0.5005E+12
   -1.275013    4.09959  0.0000E+00  0.2684E-06  0.5123E-10  0.4802E-03  0.0000E+00 -0.4714E+12
   -1.317514    4.09987  0.0000E+00  0.2681E-06  0.5318E-10  0.4238E-03  0.0000E+00 -0.5671E+12
   -1.360014    4.10018  0.0000E+00  0.2677E-06  0.5564E-10  0.4490E-03  0.0000E+00 -0.5138E+12
   -1.402514    4.10048  0.0000E+00  0.2672E-06  0.5897E-10  0.3786E-03  0.0000E+00 -0.6442E+12
   -1.445013    4.10083  0.0000E+00  0.2666E-06  0.6295E-10  0.4021E-03  0.0000E+00 -0.5864E+12
   -1.487512    4.10117  0.0000E+00  0.2659E-06  0.6803E-10  0.3284E-03  0.0000E+00 -0.7492E+12
   -1.530011    4.10158  0.0000E+00  0.2650E-06  0.7588E-10  0.3012E-03  0.0000E+00 -0.8146E+12
   -1.572510    4.10203  0.0000E+00  0.2631E-06  0.9326E-10  0.2500E-03  0.0000E+00 -0.1037E+13
   -1.615008    4.10259  0.0000E+00  0.2566E-06  0.1595E-09  0.1629E-03  0.0000E+00 -0.1673E+13
   -1.657506    4.10352  0.0000E+00  0.1862E-06  0.1016E-08  0.4537E-05  0.0000E+00 -0.7011E+14
   -1.700004    4.13719  0.0000E+00  0.0000E+00  0.0000E+00  0.0000E+00  0.0000E+00  0.0000E+00
