 1 - depth, m
 2 - temperature, C
 3 - salinity, kg/kg
 4 - turbulent kinetic energy, m**2/s**2
 5 - dissipation rate, m**2/s**3
 6 - kinematic heat conductance, m**2/s
 7 - modulus of horizontal velocity, m/s
 8 - Richardson number, n/d
   -0.000000    9.76788  0.0000E+00  0.9835E-04  0.3220E-04  0.5625E-04  0.7478E-01  0.5462E-03
   -0.042498    9.81333  0.0000E+00  0.5457E-04  0.1011E-04  0.7816E-04  0.2187E-01 -0.1103E+02
   -0.084995    9.82411  0.0000E+00  0.3881E-04  0.4817E-05  0.7471E-04  0.1500E-01 -0.4957E-01
   -0.127494    9.83263  0.0000E+00  0.2835E-04  0.2340E-05  0.7615E-04  0.1130E-01 -0.1240E+00
   -0.169992    9.83972  0.0000E+00  0.2100E-04  0.1199E-05  0.8209E-04  0.8682E-02 -0.1721E+00
   -0.212492    9.84587  0.0000E+00  0.1568E-04  0.6322E-06  0.1030E-03  0.6677E-02  0.1082E+03
   -0.254991    9.85120  0.0000E+00  0.1188E-04  0.3449E-06  0.1227E-03  0.5165E-02  0.1186E+02
   -0.297490    9.85596  0.0000E+00  0.9267E-05  0.1970E-06  0.1423E-03  0.4052E-02  0.1032E+02
   -0.339990    9.86018  0.0000E+00  0.7520E-05  0.1190E-06  0.1663E-03  0.3213E-02  0.9923E+01
   -0.382491    9.86382  0.0000E+00  0.6345E-05  0.7540E-07  0.1981E-03  0.2558E-02  0.1233E+02
   -0.424991    9.86686  0.0000E+00  0.5568E-05  0.5037E-07  0.2333E-03  0.2065E-02  0.3653E+02
   -0.467492    9.86933  0.0000E+00  0.5050E-05  0.3563E-07  0.2749E-03  0.1669E-02  0.1463E+03
   -0.509992    9.87133  0.0000E+00  0.4699E-05  0.2659E-07  0.3167E-03  0.1353E-02  0.1132E+02
   -0.552493    9.87298  0.0000E+00  0.4459E-05  0.2084E-07  0.3560E-03  0.1097E-02  0.4517E+03
   -0.594994    9.87437  0.0000E+00  0.4295E-05  0.1707E-07  0.3936E-03  0.8840E-03  0.6545E+01
   -0.637496    9.87557  0.0000E+00  0.4179E-05  0.1447E-07  0.4295E-03  0.7097E-03  0.3512E+01
   -0.679997    9.87663  0.0000E+00  0.4099E-05  0.1264E-07  0.4632E-03  0.5732E-03  0.2671E+01
   -0.722499    9.87757  0.0000E+00  0.4045E-05  0.1131E-07  0.4944E-03  0.4664E-03  0.1639E+01
   -0.765000    9.87843  0.0000E+00  0.4008E-05  0.1035E-07  0.5215E-03  0.3860E-03  0.1460E+01
   -0.807502    9.87923  0.0000E+00  0.3985E-05  0.9619E-08  0.5452E-03  0.3268E-03  0.1876E+02
   -0.850003    9.87999  0.0000E+00  0.3970E-05  0.9068E-08  0.5662E-03  0.2815E-03  0.1213E+01
   -0.892505    9.88071  0.0000E+00  0.3961E-05  0.8637E-08  0.5851E-03  0.2457E-03  0.1332E+01
   -0.935006    9.88140  0.0000E+00  0.3956E-05  0.8298E-08  0.6019E-03  0.2168E-03  0.1532E+01
   -0.977508    9.88207  0.0000E+00  0.3953E-05  0.8031E-08  0.6167E-03  0.1923E-03  0.1739E+01
   -1.020009    9.88272  0.0000E+00  0.3951E-05  0.7822E-08  0.6290E-03  0.1714E-03  0.2009E+01
   -1.062511    9.88335  0.0000E+00  0.3950E-05  0.7662E-08  0.6386E-03  0.1529E-03  0.2265E+01
   -1.105012    9.88398  0.0000E+00  0.3947E-05  0.7546E-08  0.6453E-03  0.1365E-03  0.2557E+01
   -1.147513    9.88460  0.0000E+00  0.3944E-05  0.7473E-08  0.6488E-03  0.1213E-03  0.2891E+01
   -1.190014    9.88522  0.0000E+00  0.3938E-05  0.7440E-08  0.6486E-03  0.1070E-03  0.3213E+01
   -1.232515    9.88584  0.0000E+00  0.3931E-05  0.7446E-08  0.6446E-03  0.9358E-04  0.3672E+01
   -1.275015    9.88646  0.0000E+00  0.3920E-05  0.7496E-08  0.6362E-03  0.8153E-04  0.4643E+01
   -1.317516    9.88709  0.0000E+00  0.3905E-05  0.7601E-08  0.6225E-03  0.7072E-04  0.6087E+01
   -1.360016    9.88774  0.0000E+00  0.3885E-05  0.7780E-08  0.6021E-03  0.6109E-04  0.8129E+01
   -1.402516    9.88841  0.0000E+00  0.3858E-05  0.8069E-08  0.5737E-03  0.5263E-04  0.1186E+02
   -1.445016    9.88911  0.0000E+00  0.3826E-05  0.8476E-08  0.5382E-03  0.4492E-04  0.1770E+02
   -1.487515    9.88986  0.0000E+00  0.3789E-05  0.9057E-08  0.5017E-03  0.3745E-04  0.2261E+02
   -1.530014    9.89067  0.0000E+00  0.3738E-05  0.1007E-07  0.4244E-03  0.3027E-04  0.2961E+02
   -1.572513    9.89164  0.0000E+00  0.3646E-05  0.1243E-07  0.4574E-03  0.2349E-04  0.4101E+02
   -1.615011    9.89252  0.0000E+00  0.3286E-05  0.2484E-07  0.1760E-03  0.1956E-04 -0.1686E+08
   -1.657509    9.89808  0.0000E+00  0.2101E-05  0.8191E-07  0.4821E-04  0.1228E-04 -0.1602E+05
   -1.700006    9.90673  0.0000E+00  0.0000E+00  0.0000E+00  0.0000E+00  0.1432E-04  0.0000E+00
