 1 - depth, m
 2 - temperature, C
 3 - salinity, kg/kg
 4 - turbulent kinetic energy, m**2/s**2
 5 - dissipation rate, m**2/s**3
 6 - kinematic heat conductance, m**2/s
 7 - modulus of horizontal velocity, m/s
 8 - Richardson number, n/d
   -0.000000    5.46334  0.0000E+00  0.5132E-03  0.8657E-03  0.6838E-04  0.2255E+00 -0.2633E-02
   -0.042497    5.50434  0.0000E+00  0.2512E-03  0.2527E-03  0.1950E-03  0.4956E-01 -0.9141E-02
   -0.084995    5.51448  0.0000E+00  0.1769E-03  0.1371E-03  0.1858E-03  0.3142E-01 -0.2177E-01
   -0.127493    5.52013  0.0000E+00  0.1337E-03  0.8129E-04  0.1579E-03  0.2515E-01 -0.3863E-01
   -0.169992    5.52434  0.0000E+00  0.1011E-03  0.4628E-04  0.1441E-03  0.2075E-01  0.5689E+01
   -0.212491    5.52772  0.0000E+00  0.7684E-04  0.2655E-04  0.1382E-03  0.1705E-01  0.3709E+01
   -0.254990    5.53062  0.0000E+00  0.5792E-04  0.1401E-04  0.1369E-03  0.1406E-01  0.1109E+02
   -0.297489    5.53315  0.0000E+00  0.4469E-04  0.7319E-05  0.1383E-03  0.1168E-01  0.2600E+02
   -0.339989    5.53534  0.0000E+00  0.3538E-04  0.3898E-05  0.1419E-03  0.9854E-02  0.8903E+02
   -0.382489    5.53753  0.0000E+00  0.2846E-04  0.2051E-05  0.1485E-03  0.8280E-02  0.3475E+02
   -0.424989    5.53956  0.0000E+00  0.2348E-04  0.1152E-05  0.1551E-03  0.7065E-02  0.4153E+01
   -0.467490    5.54161  0.0000E+00  0.1978E-04  0.7202E-06  0.1642E-03  0.5941E-02  0.2847E+01
   -0.509990    5.54365  0.0000E+00  0.1689E-04  0.4851E-06  0.1756E-03  0.4967E-02  0.1247E+02
   -0.552491    5.54560  0.0000E+00  0.1457E-04  0.3408E-06  0.1857E-03  0.4146E-02  0.2974E+02
   -0.594992    5.54748  0.0000E+00  0.1266E-04  0.2467E-06  0.1945E-03  0.3432E-02  0.3604E+02
   -0.637493    5.54928  0.0000E+00  0.1103E-04  0.1822E-06  0.2039E-03  0.2824E-02  0.1466E+02
   -0.679994    5.55095  0.0000E+00  0.9645E-05  0.1372E-06  0.2142E-03  0.2332E-02  0.5921E+02
   -0.722495    5.55250  0.0000E+00  0.8463E-05  0.1048E-06  0.2244E-03  0.1928E-02  0.7276E+02
   -0.764997    5.55393  0.0000E+00  0.7449E-05  0.8079E-07  0.2344E-03  0.1606E-02  0.8271E+02
   -0.807498    5.55524  0.0000E+00  0.6580E-05  0.6258E-07  0.2446E-03  0.1354E-02  0.5749E+03
   -0.849999    5.55649  0.0000E+00  0.5845E-05  0.4882E-07  0.2564E-03  0.1147E-02  0.2512E+03
   -0.892501    5.55769  0.0000E+00  0.5219E-05  0.3825E-07  0.2699E-03  0.9761E-03  0.2835E+04
   -0.935002    5.55886  0.0000E+00  0.4692E-05  0.3017E-07  0.2822E-03  0.8338E-03  0.4123E+03
   -0.977504    5.56002  0.0000E+00  0.4247E-05  0.2397E-07  0.2947E-03  0.7110E-03  0.4527E+03
   -1.020005    5.56118  0.0000E+00  0.3874E-05  0.1919E-07  0.3068E-03  0.6066E-03  0.3942E+03
   -1.062506    5.56236  0.0000E+00  0.3562E-05  0.1552E-07  0.3183E-03  0.5151E-03  0.4814E+03
   -1.105007    5.56355  0.0000E+00  0.3302E-05  0.1270E-07  0.3291E-03  0.4355E-03  0.4196E+03
   -1.147508    5.56477  0.0000E+00  0.3092E-05  0.1058E-07  0.3389E-03  0.3638E-03  0.3797E+03
   -1.190009    5.56602  0.0000E+00  0.2923E-05  0.9020E-08  0.3474E-03  0.2975E-03  0.4281E+03
   -1.232509    5.56731  0.0000E+00  0.2784E-05  0.7832E-08  0.3547E-03  0.2381E-03  0.5300E+03
   -1.275010    5.56860  0.0000E+00  0.2667E-05  0.6923E-08  0.3603E-03  0.1893E-03  0.7942E+03
   -1.317510    5.56989  0.0000E+00  0.2567E-05  0.6232E-08  0.3646E-03  0.1495E-03  0.1263E+04
   -1.360010    5.57119  0.0000E+00  0.2483E-05  0.5714E-08  0.3657E-03  0.1178E-03  0.2255E+04
   -1.402510    5.57249  0.0000E+00  0.2408E-05  0.5332E-08  0.3631E-03  0.9340E-04  0.3685E+04
   -1.445009    5.57383  0.0000E+00  0.2349E-05  0.5112E-08  0.3553E-03  0.7381E-04  0.6787E+04
   -1.487508    5.57525  0.0000E+00  0.2302E-05  0.5043E-08  0.3414E-03  0.5690E-04  0.1077E+05
   -1.530007    5.57680  0.0000E+00  0.2259E-05  0.5150E-08  0.3175E-03  0.4218E-04  0.1386E+05
   -1.572506    5.57849  0.0000E+00  0.2203E-05  0.5626E-08  0.2716E-03  0.3039E-04  0.2937E+05
   -1.615004    5.58048  0.0000E+00  0.2062E-05  0.7614E-08  0.1910E-03  0.2270E-04  0.2238E+06
   -1.657502    5.58352  0.0000E+00  0.1369E-05  0.2467E-07  0.1280E-04  0.1628E-04 -0.2723E+09
   -1.699999    5.62780  0.0000E+00  0.0000E+00  0.0000E+00  0.0000E+00  0.1647E-04  0.0000E+00
