 1 - depth, m
 2 - temperature, C
 3 - salinity, kg/kg
 4 - turbulent kinetic energy, m**2/s**2
 5 - dissipation rate, m**2/s**3
 6 - kinematic heat conductance, m**2/s
 7 - modulus of horizontal velocity, m/s
 8 - Richardson number, n/d
   -0.000000   13.20609  0.0000E+00  0.1773E-03  0.6189E-03  0.5461E-04  0.1212E+00 -0.1367E-01
   -0.042497   13.31095  0.0000E+00  0.9444E-04  0.4317E-03  0.1010E-03  0.3192E-01 -0.5320E-01
   -0.084995   13.33338  0.0000E+00  0.6535E-04  0.3596E-03  0.9506E-04  0.2065E-01  0.4555E-01
   -0.127493   13.34985  0.0000E+00  0.4874E-04  0.2826E-03  0.1013E-03  0.1568E-01  0.1650E-01
   -0.169992   13.36288  0.0000E+00  0.3688E-04  0.1811E-03  0.1120E-03  0.1221E-01  0.3505E+01
   -0.212490   13.37373  0.0000E+00  0.2769E-04  0.7954E-04  0.1339E-03  0.9507E-02  0.2079E+02
   -0.254990   13.38310  0.0000E+00  0.2123E-04  0.2467E-04  0.1809E-03  0.7469E-02  0.1232E+03
   -0.297489   13.39061  0.0000E+00  0.1703E-04  0.5576E-05  0.2243E-03  0.6027E-02  0.3997E+02
   -0.339989   13.39677  0.0000E+00  0.1440E-04  0.1263E-05  0.2770E-03  0.4955E-02  0.1068E+03
   -0.382489   13.40155  0.0000E+00  0.1269E-04  0.3733E-06  0.3272E-03  0.4119E-02  0.2286E+02
   -0.424989   13.40535  0.0000E+00  0.1157E-04  0.2109E-06  0.3737E-03  0.3492E-02  0.6119E+02
   -0.467489   13.40845  0.0000E+00  0.1077E-04  0.1395E-06  0.4228E-03  0.2961E-02  0.3929E+02
   -0.509990   13.41099  0.0000E+00  0.1019E-04  0.9817E-07  0.4661E-03  0.2507E-02  0.4186E+03
   -0.552491   13.41307  0.0000E+00  0.9754E-05  0.7520E-07  0.5073E-03  0.2114E-02  0.1637E+03
   -0.594992   13.41491  0.0000E+00  0.9407E-05  0.6053E-07  0.5480E-03  0.1766E-02  0.1355E+02
   -0.637493   13.41645  0.0000E+00  0.9116E-05  0.5044E-07  0.5930E-03  0.1463E-02  0.4245E+01
   -0.679994   13.41787  0.0000E+00  0.8865E-05  0.4305E-07  0.6398E-03  0.1210E-02  0.7566E+01
   -0.722495   13.41913  0.0000E+00  0.8644E-05  0.3738E-07  0.6927E-03  0.9972E-03  0.5153E+01
   -0.764996   13.42029  0.0000E+00  0.8430E-05  0.3268E-07  0.7258E-03  0.8272E-03  0.8783E+01
   -0.807498   13.42140  0.0000E+00  0.8285E-05  0.2983E-07  0.7954E-03  0.6814E-03  0.1418E+03
   -0.849999   13.42238  0.0000E+00  0.8189E-05  0.2809E-07  0.8690E-03  0.6203E-03  0.2019E+02
   -0.892500   13.42325  0.0000E+00  0.8081E-05  0.2645E-07  0.8079E-03  0.5743E-03  0.1275E+01
   -0.935002   13.42418  0.0000E+00  0.7925E-05  0.2452E-07  0.8374E-03  0.4982E-03 -0.6337E+00
   -0.977503   13.42505  0.0000E+00  0.7781E-05  0.2303E-07  0.8470E-03  0.4368E-03 -0.4482E+01
   -1.020004   13.42588  0.0000E+00  0.7643E-05  0.2186E-07  0.8528E-03  0.3855E-03 -0.4285E+01
   -1.062505   13.42667  0.0000E+00  0.7509E-05  0.2095E-07  0.8528E-03  0.3413E-03 -0.1386E+02
   -1.105006   13.42743  0.0000E+00  0.7378E-05  0.2027E-07  0.8473E-03  0.3029E-03  0.9746E+01
   -1.147507   13.42816  0.0000E+00  0.7252E-05  0.1980E-07  0.8365E-03  0.2683E-03  0.3729E+01
   -1.190008   13.42886  0.0000E+00  0.7130E-05  0.1954E-07  0.8198E-03  0.2363E-03  0.3698E+01
   -1.232509   13.42953  0.0000E+00  0.7008E-05  0.1947E-07  0.7970E-03  0.2068E-03  0.4154E+01
   -1.275009   13.43020  0.0000E+00  0.6881E-05  0.1962E-07  0.7653E-03  0.1813E-03  0.5410E+01
   -1.317509   13.43088  0.0000E+00  0.6744E-05  0.2004E-07  0.7313E-03  0.1591E-03  0.7465E+01
   -1.360009   13.43157  0.0000E+00  0.6588E-05  0.2089E-07  0.6760E-03  0.1397E-03  0.1074E+02
   -1.402509   13.43232  0.0000E+00  0.6397E-05  0.2245E-07  0.6391E-03  0.1224E-03  0.1670E+02
   -1.445008   13.43308  0.0000E+00  0.6172E-05  0.2539E-07  0.5545E-03  0.1068E-03  0.4939E+02
   -1.487508   13.43411  0.0000E+00  0.5892E-05  0.3051E-07  0.5218E-03  0.8805E-04  0.2501E+03
   -1.530006   13.43520  0.0000E+00  0.5488E-05  0.4186E-07  0.4027E-03  0.6967E-04 -0.8146E+03
   -1.572505   13.43774  0.0000E+00  0.4901E-05  0.6742E-07  0.4151E-03  0.4734E-04  0.1965E+06
   -1.615003   13.43764  0.0000E+00  0.3856E-05  0.1770E-06  0.1859E-03  0.3790E-04 -0.3060E+08
   -1.657501   13.44791  0.0000E+00  0.2552E-05  0.4695E-06  0.1160E-03  0.2280E-04 -0.1597E+09
   -1.699998   13.45026  0.0000E+00  0.0000E+00  0.0000E+00  0.0000E+00  0.3808E-04  0.0000E+00
