 1 - depth, m
 2 - temperature, C
 3 - salinity, kg/kg
 4 - turbulent kinetic energy, m**2/s**2
 5 - dissipation rate, m**2/s**3
 6 - kinematic heat conductance, m**2/s
 7 - modulus of horizontal velocity, m/s
 8 - Richardson number, n/d
   -0.000000   14.25904  0.0000E+00  0.1361E-04  0.8511E-06  0.2175E-04  0.1883E-01 -0.1367E-01
   -0.042497   14.27369  0.0000E+00  0.9647E-05  0.2877E-06  0.3428E-04  0.1022E-01 -0.3581E-01
   -0.084995   14.28090  0.0000E+00  0.7141E-05  0.1335E-06  0.4247E-04  0.6582E-02 -0.6485E-01
   -0.127493   14.28548  0.0000E+00  0.5449E-05  0.7111E-07  0.4982E-04  0.4407E-02 -0.1154E+00
   -0.169992   14.28880  0.0000E+00  0.4278E-05  0.4117E-07  0.5816E-04  0.2995E-02 -0.1868E+00
   -0.212490   14.29119  0.0000E+00  0.3465E-05  0.2531E-07  0.7810E-04  0.2044E-02  0.5661E+00
   -0.254990   14.29263  0.0000E+00  0.2937E-05  0.1678E-07  0.1155E-03  0.1419E-02  0.1946E+03
   -0.297489   14.29325  0.0000E+00  0.2630E-05  0.1203E-07  0.1339E-03  0.1031E-02  0.6084E+02
   -0.339989   14.29340  0.0000E+00  0.2491E-05  0.9298E-08  0.1595E-03  0.7686E-03  0.2345E+02
   -0.382489   14.29338  0.0000E+00  0.2461E-05  0.7673E-08  0.1948E-03  0.5887E-03  0.4672E+02
   -0.424989   14.29334  0.0000E+00  0.2480E-05  0.6729E-08  0.2629E-03  0.4681E-03  0.7002E+02
   -0.467489   14.29359  0.0000E+00  0.2510E-05  0.6130E-08  0.3315E-03  0.3925E-03  0.8848E+03
   -0.509990   14.29388  0.0000E+00  0.2541E-05  0.5696E-08  0.3894E-03  0.3351E-03  0.1647E+01
   -0.552491   14.29418  0.0000E+00  0.2578E-05  0.5365E-08  0.4138E-03  0.2863E-03  0.1807E+01
   -0.594992   14.29448  0.0000E+00  0.2619E-05  0.5115E-08  0.4417E-03  0.2434E-03  0.2133E+01
   -0.637493   14.29479  0.0000E+00  0.2661E-05  0.4925E-08  0.4692E-03  0.2066E-03  0.2390E+01
   -0.679994   14.29508  0.0000E+00  0.2704E-05  0.4786E-08  0.4945E-03  0.1767E-03  0.2661E+01
   -0.722495   14.29535  0.0000E+00  0.2747E-05  0.4689E-08  0.5185E-03  0.1526E-03  0.2986E+01
   -0.764996   14.29559  0.0000E+00  0.2794E-05  0.4628E-08  0.5419E-03  0.1331E-03  0.3455E+01
   -0.807498   14.29581  0.0000E+00  0.2847E-05  0.4600E-08  0.5635E-03  0.1175E-03  0.4232E+01
   -0.849999   14.29601  0.0000E+00  0.2904E-05  0.4605E-08  0.5827E-03  0.1046E-03  0.5534E+01
   -0.892501   14.29622  0.0000E+00  0.2967E-05  0.4640E-08  0.5998E-03  0.9358E-04  0.7645E+01
   -0.935002   14.29642  0.0000E+00  0.3034E-05  0.4704E-08  0.6150E-03  0.8410E-04  0.1071E+02
   -0.977503   14.29664  0.0000E+00  0.3106E-05  0.4794E-08  0.6282E-03  0.7566E-04  0.1502E+02
   -1.020004   14.29688  0.0000E+00  0.3180E-05  0.4911E-08  0.6390E-03  0.6819E-04  0.2086E+02
   -1.062506   14.29714  0.0000E+00  0.3255E-05  0.5052E-08  0.6474E-03  0.6138E-04  0.2830E+02
   -1.105007   14.29743  0.0000E+00  0.3331E-05  0.5217E-08  0.6529E-03  0.5518E-04  0.3803E+02
   -1.147508   14.29776  0.0000E+00  0.3402E-05  0.5399E-08  0.6549E-03  0.4936E-04  0.5016E+02
   -1.190008   14.29814  0.0000E+00  0.3466E-05  0.5595E-08  0.6536E-03  0.4380E-04  0.6298E+02
   -1.232509   14.29857  0.0000E+00  0.3524E-05  0.5816E-08  0.6489E-03  0.3852E-04  0.7892E+02
   -1.275009   14.29902  0.0000E+00  0.3578E-05  0.6072E-08  0.6397E-03  0.3374E-04  0.1075E+03
   -1.317510   14.29950  0.0000E+00  0.3625E-05  0.6378E-08  0.6250E-03  0.2940E-04  0.1497E+03
   -1.360010   14.30002  0.0000E+00  0.3667E-05  0.6759E-08  0.6036E-03  0.2551E-04  0.2138E+03
   -1.402509   14.30057  0.0000E+00  0.3703E-05  0.7258E-08  0.5737E-03  0.2207E-04  0.3347E+03
   -1.445009   14.30119  0.0000E+00  0.3728E-05  0.7860E-08  0.5368E-03  0.1890E-04  0.5401E+03
   -1.487508   14.30190  0.0000E+00  0.3738E-05  0.8612E-08  0.4974E-03  0.1580E-04  0.7343E+03
   -1.530007   14.30272  0.0000E+00  0.3725E-05  0.9784E-08  0.4219E-03  0.1281E-04  0.9778E+03
   -1.572505   14.30373  0.0000E+00  0.3666E-05  0.1234E-07  0.4216E-03  0.9984E-05  0.1909E+04
   -1.615003   14.30478  0.0000E+00  0.3395E-05  0.2439E-07  0.1853E-03  0.8243E-05 -0.7438E+06
   -1.657501   14.30889  0.0000E+00  0.2260E-05  0.8209E-07  0.4336E-04  0.5361E-05 -0.1350E+08
   -1.699998   14.32164  0.0000E+00  0.0000E+00  0.0000E+00  0.0000E+00  0.6035E-05  0.0000E+00
