 1 - depth, m
 2 - temperature, C
 3 - salinity, kg/kg
 4 - turbulent kinetic energy, m**2/s**2
 5 - dissipation rate, m**2/s**3
 6 - kinematic heat conductance, m**2/s
 7 - modulus of horizontal velocity, m/s
 8 - Richardson number, n/d
   -0.000000    0.00000  0.0000E+00  0.3189E-13  0.5206E-16  0.1000E-09  0.0000E+00  0.6605E+16
   -0.042497    0.10043  0.0000E+00  0.3189E-13  0.5206E-16  0.1000E-09  0.0000E+00  0.6657E+16
   -0.084995    0.20454  0.0000E+00  0.3189E-13  0.5206E-16  0.1000E-09  0.0000E+00  0.6674E+16
   -0.127493    0.31207  0.0000E+00  0.3189E-13  0.5206E-16  0.1000E-09  0.0000E+00  0.6492E+16
   -0.169992    0.41999  0.0000E+00  0.3189E-13  0.5206E-16  0.1000E-09  0.0000E+00  0.6307E+16
   -0.212491    0.52825  0.0000E+00  0.3189E-13  0.5206E-16  0.1000E-09  0.0000E+00  0.6127E+16
   -0.254990    0.63696  0.0000E+00  0.3189E-13  0.5206E-16  0.1000E-09  0.0000E+00  0.5947E+16
   -0.297490    0.74617  0.0000E+00  0.3189E-13  0.5206E-16  0.1000E-09  0.0000E+00  0.5744E+16
   -0.339989    0.85548  0.0000E+00  0.3189E-13  0.5206E-16  0.1000E-09  0.0000E+00  0.5513E+16
   -0.382489    0.96431  0.0000E+00  0.3189E-13  0.5206E-16  0.1000E-09  0.0000E+00  0.5279E+16
   -0.424990    1.07253  0.0000E+00  0.3189E-13  0.5206E-16  0.1000E-09  0.0000E+00  0.5021E+16
   -0.467490    1.17953  0.0000E+00  0.3189E-13  0.5206E-16  0.1000E-09  0.0000E+00  0.4765E+16
   -0.509991    1.28518  0.0000E+00  0.3189E-13  0.5206E-16  0.1000E-09  0.0000E+00  0.4527E+16
   -0.552492    1.38971  0.0000E+00  0.3189E-13  0.5206E-16  0.1000E-09  0.0000E+00  0.4294E+16
   -0.594993    1.49308  0.0000E+00  0.3189E-13  0.5206E-16  0.1000E-09  0.0000E+00  0.4078E+16
   -0.637494    1.59556  0.0000E+00  0.3189E-13  0.5206E-16  0.1000E-09  0.0000E+00  0.3888E+16
   -0.679995    1.69773  0.0000E+00  0.3189E-13  0.5206E-16  0.1000E-09  0.0000E+00  0.3701E+16
   -0.722496    1.79957  0.0000E+00  0.3189E-13  0.5206E-16  0.1000E-09  0.0000E+00  0.3526E+16
   -0.764998    1.90140  0.0000E+00  0.3189E-13  0.5206E-16  0.1000E-09  0.0000E+00  0.3355E+16
   -0.807499    2.00331  0.0000E+00  0.3189E-13  0.5206E-16  0.1000E-09  0.0000E+00  0.3157E+16
   -0.850001    2.10442  0.0000E+00  0.3189E-13  0.5206E-16  0.1000E-09  0.0000E+00  0.2948E+16
   -0.892502    2.20416  0.0000E+00  0.3189E-13  0.5206E-16  0.1000E-09  0.0000E+00  0.2763E+16
   -0.935004    2.30317  0.0000E+00  0.3189E-13  0.5206E-16  0.1000E-09  0.0000E+00  0.2577E+16
   -0.977505    2.40126  0.0000E+00  0.3189E-13  0.5206E-16  0.1000E-09  0.0000E+00  0.2396E+16
   -1.020006    2.49837  0.0000E+00  0.3189E-13  0.5206E-16  0.1000E-09  0.0000E+00  0.2196E+16
   -1.062508    2.59348  0.0000E+00  0.3189E-13  0.5206E-16  0.1000E-09  0.0000E+00  0.2001E+16
   -1.105009    2.68635  0.0000E+00  0.3189E-13  0.5206E-16  0.1000E-09  0.0000E+00  0.1796E+16
   -1.147510    2.77590  0.0000E+00  0.3189E-13  0.5206E-16  0.1000E-09  0.0000E+00  0.1592E+16
   -1.190011    2.86132  0.0000E+00  0.3189E-13  0.5206E-16  0.1000E-09  0.0000E+00  0.1412E+16
   -1.232511    2.94306  0.0000E+00  0.3189E-13  0.5206E-16  0.1000E-09  0.0000E+00  0.1276E+16
   -1.275012    3.02296  0.0000E+00  0.3189E-13  0.5206E-16  0.1000E-09  0.0000E+00  0.1163E+16
   -1.317512    3.10218  0.0000E+00  0.3189E-13  0.5206E-16  0.1000E-09  0.0000E+00  0.1113E+16
   -1.360012    3.18541  0.0000E+00  0.3189E-13  0.5206E-16  0.1000E-09  0.0000E+00  0.1072E+16
   -1.402512    3.27485  0.0000E+00  0.3189E-13  0.5206E-16  0.1000E-09  0.0000E+00  0.9702E+15
   -1.445011    3.36695  0.0000E+00  0.1323E-12  0.2472E-15  0.1000E-09  0.0000E+00  0.8145E+15
   -1.487511    3.45664  0.0000E+00  0.8566E-12  0.1606E-14  0.1000E-09  0.0000E+00  0.6888E+15
   -1.530009    3.54667  0.0000E+00  0.6332E-11  0.1194E-13  0.1000E-09  0.0000E+00  0.6775E+15
   -1.572508    3.65873  0.0000E+00  0.5449E-10  0.1034E-12  0.4024E-09  0.0000E+00  0.7089E+15
   -1.615006    3.85534  0.0000E+00  0.4988E-09  0.9523E-12  0.1649E-07  0.0000E+00  0.8499E+14
   -1.657504    4.06588  0.0000E+00  0.3177E-08  0.7409E-11  0.4716E-06  0.0000E+00 -0.9198E+14
   -1.700001    4.12082  0.0000E+00  0.0000E+00  0.0000E+00  0.0000E+00  0.0000E+00  0.0000E+00
