 1 - depth, m
 2 - temperature, C
 3 - salinity, kg/kg
 4 - turbulent kinetic energy, m**2/s**2
 5 - dissipation rate, m**2/s**3
 6 - kinematic heat conductance, m**2/s
 7 - modulus of horizontal velocity, m/s
 8 - Richardson number, n/d
   -0.000000    0.00000  0.0000E+00  0.3189E-13  0.5207E-16  0.1000E-09  0.0000E+00  0.1087E+17
   -0.042497    0.16684  0.0000E+00  0.3189E-13  0.5207E-16  0.1000E-09  0.0000E+00  0.1074E+17
   -0.084995    0.33971  0.0000E+00  0.3189E-13  0.5207E-16  0.1000E-09  0.0000E+00  0.1054E+17
   -0.127493    0.51824  0.0000E+00  0.3189E-13  0.5207E-16  0.1000E-09  0.0000E+00  0.9923E+16
   -0.169991    0.69565  0.0000E+00  0.3189E-13  0.5207E-16  0.1000E-09  0.0000E+00  0.9314E+16
   -0.212490    0.87188  0.0000E+00  0.1382E-12  0.5207E-16  0.1000E-09  0.0000E+00  0.8713E+16
   -0.254989    1.04683  0.0000E+00  0.3808E-12  0.6738E-16  0.1000E-09  0.0000E+00  0.8119E+16
   -0.297488    1.22030  0.0000E+00  0.8078E-12  0.1117E-15  0.1000E-09  0.0000E+00  0.7530E+16
   -0.339988    1.39206  0.0000E+00  0.1529E-11  0.1933E-15  0.1000E-09  0.0000E+00  0.6951E+16
   -0.382488    1.56188  0.0000E+00  0.2759E-11  0.3349E-15  0.1000E-09  0.0000E+00  0.6384E+16
   -0.424988    1.72954  0.0000E+00  0.4853E-11  0.5743E-15  0.1000E-09  0.0000E+00  0.5832E+16
   -0.467488    1.89489  0.0000E+00  0.8416E-11  0.9761E-15  0.1000E-09  0.0000E+00  0.5296E+16
   -0.509989    2.05774  0.0000E+00  0.1449E-10  0.1650E-14  0.1000E-09  0.0000E+00  0.4809E+16
   -0.552490    2.21903  0.0000E+00  0.2483E-10  0.2778E-14  0.1000E-09  0.0000E+00  0.4339E+16
   -0.594990    2.37882  0.0000E+00  0.4239E-10  0.4660E-14  0.1000E-09  0.0000E+00  0.3885E+16
   -0.637491    2.53718  0.0000E+00  0.7276E-10  0.7862E-14  0.1000E-09  0.0000E+00  0.3450E+16
   -0.679992    2.69441  0.0000E+00  0.1251E-09  0.1329E-13  0.1000E-09  0.0000E+00  0.3023E+16
   -0.722494    2.85032  0.0000E+00  0.2157E-09  0.2253E-13  0.1000E-09  0.0000E+00  0.2607E+16
   -0.764995    3.00492  0.0000E+00  0.3728E-09  0.3828E-13  0.1000E-09  0.0000E+00  0.2201E+16
   -0.807496    3.15801  0.0000E+00  0.6438E-09  0.6501E-13  0.1136E-09  0.0000E+00  0.1800E+16
   -0.849997    3.30883  0.0000E+00  0.1100E-08  0.1093E-12  0.2435E-09  0.0000E+00  0.1412E+16
   -0.892499    3.45670  0.0000E+00  0.1872E-08  0.1829E-12  0.5459E-09  0.0000E+00  0.1054E+16
   -0.935000    3.60309  0.0000E+00  0.3151E-08  0.3031E-12  0.1344E-08  0.0000E+00  0.7095E+15
   -0.977501    3.74815  0.0000E+00  0.5264E-08  0.4985E-12  0.4210E-08  0.0000E+00  0.3724E+15
   -1.020002    3.88987  0.0000E+00  0.8613E-08  0.8045E-12  0.3598E-07  0.0000E+00  0.7020E+14
   -1.062503    4.00491  0.0000E+00  0.9078E-08  0.8505E-12  0.3992E-04  0.0000E+00 -0.1490E+12
   -1.105004    4.00541  0.0000E+00  0.9297E-08  0.8756E-12  0.3935E-04  0.0000E+00 -0.1534E+12
   -1.147505    4.00592  0.0000E+00  0.9490E-08  0.9017E-12  0.3958E-04  0.0000E+00 -0.1539E+12
   -1.190006    4.00641  0.0000E+00  0.9659E-08  0.9294E-12  0.3965E-04  0.0000E+00 -0.1556E+12
   -1.232506    4.00690  0.0000E+00  0.9815E-08  0.9607E-12  0.3960E-04  0.0000E+00 -0.1610E+12
   -1.275007    4.00739  0.0000E+00  0.9960E-08  0.9974E-12  0.3931E-04  0.0000E+00 -0.1686E+12
   -1.317507    4.00790  0.0000E+00  0.1010E-07  0.1042E-11  0.3881E-04  0.0000E+00 -0.1802E+12
   -1.360007    4.00842  0.0000E+00  0.1022E-07  0.1097E-11  0.3796E-04  0.0000E+00 -0.1970E+12
   -1.402506    4.00899  0.0000E+00  0.1034E-07  0.1168E-11  0.3656E-04  0.0000E+00 -0.2142E+12
   -1.445006    4.00958  0.0000E+00  0.1044E-07  0.1255E-11  0.3465E-04  0.0000E+00 -0.2294E+12
   -1.487505    4.01020  0.0000E+00  0.1052E-07  0.1375E-11  0.3163E-04  0.0000E+00 -0.2588E+12
   -1.530003    4.01088  0.0000E+00  0.1059E-07  0.1583E-11  0.2699E-04  0.0000E+00 -0.3538E+12
   -1.572502    4.01179  0.0000E+00  0.1060E-07  0.2016E-11  0.2300E-04  0.0000E+00 -0.6283E+12
   -1.615000    4.01331  0.0000E+00  0.1022E-07  0.3697E-11  0.8816E-05  0.0000E+00 -0.2077E+13
   -1.657497    4.01784  0.0000E+00  0.7692E-08  0.1259E-10  0.9521E-06  0.0000E+00 -0.2844E+14
   -1.699995    4.05433  0.0000E+00  0.0000E+00  0.0000E+00  0.0000E+00  0.0000E+00  0.0000E+00
