 1 - depth, m
 2 - temperature, C
 3 - salinity, kg/kg
 4 - turbulent kinetic energy, m**2/s**2
 5 - dissipation rate, m**2/s**3
 6 - kinematic heat conductance, m**2/s
 7 - modulus of horizontal velocity, m/s
 8 - Richardson number, n/d
   -0.000000    0.00000  0.0000E+00  0.2350E-12  0.5327E-16  0.1000E-09  0.0000E+00  0.1546E+17
   -0.042497    0.23957  0.0000E+00  0.3667E-12  0.5607E-16  0.1000E-09  0.0000E+00  0.1431E+17
   -0.084994    0.47688  0.0000E+00  0.6432E-12  0.7841E-16  0.1000E-09  0.0000E+00  0.1318E+17
   -0.127492    0.71164  0.0000E+00  0.1127E-11  0.1240E-15  0.1000E-09  0.0000E+00  0.1188E+17
   -0.169990    0.93956  0.0000E+00  0.1944E-11  0.2036E-15  0.1000E-09  0.0000E+00  0.1067E+17
   -0.212488    1.16084  0.0000E+00  0.3314E-11  0.3375E-15  0.1000E-09  0.0000E+00  0.9568E+16
   -0.254987    1.37590  0.0000E+00  0.5614E-11  0.5606E-15  0.1000E-09  0.0000E+00  0.8547E+16
   -0.297486    1.58500  0.0000E+00  0.9475E-11  0.9305E-15  0.1000E-09  0.0000E+00  0.7587E+16
   -0.339986    1.78794  0.0000E+00  0.1582E-10  0.1530E-14  0.1000E-09  0.0000E+00  0.6683E+16
   -0.382485    1.98433  0.0000E+00  0.2625E-10  0.2500E-14  0.1000E-09  0.0000E+00  0.5852E+16
   -0.424985    2.17431  0.0000E+00  0.4323E-10  0.4058E-14  0.1000E-09  0.0000E+00  0.5080E+16
   -0.467485    2.35769  0.0000E+00  0.7075E-10  0.6546E-14  0.1000E-09  0.0000E+00  0.4374E+16
   -0.509985    2.53457  0.0000E+00  0.1154E-09  0.1052E-13  0.1000E-09  0.0000E+00  0.3760E+16
   -0.552486    2.70653  0.0000E+00  0.1877E-09  0.1687E-13  0.1000E-09  0.0000E+00  0.3195E+16
   -0.594986    2.87380  0.0000E+00  0.3047E-09  0.2698E-13  0.1000E-09  0.0000E+00  0.2675E+16
   -0.637487    3.03670  0.0000E+00  0.4976E-09  0.4342E-13  0.1000E-09  0.0000E+00  0.2198E+16
   -0.679987    3.19577  0.0000E+00  0.8151E-09  0.7011E-13  0.1262E-09  0.0000E+00  0.1748E+16
   -0.722488    3.35049  0.0000E+00  0.1340E-08  0.1136E-12  0.2686E-09  0.0000E+00  0.1330E+16
   -0.764989    3.50059  0.0000E+00  0.2209E-08  0.1846E-12  0.6148E-09  0.0000E+00  0.9442E+15
   -0.807490    3.64547  0.0000E+00  0.3641E-08  0.3001E-12  0.1596E-08  0.0000E+00  0.5909E+15
   -0.849991    3.78366  0.0000E+00  0.5937E-08  0.4826E-12  0.5418E-08  0.0000E+00  0.2800E+15
   -0.892492    3.91278  0.0000E+00  0.9427E-08  0.7579E-12  0.5998E-07  0.0000E+00  0.3965E+14
   -0.934993    4.00495  0.0000E+00  0.9815E-08  0.7911E-12  0.4876E-04  0.0000E+00 -0.1112E+12
   -0.977494    4.00533  0.0000E+00  0.1001E-07  0.8097E-12  0.4787E-04  0.0000E+00 -0.1165E+12
   -1.019995    4.00571  0.0000E+00  0.1019E-07  0.8299E-12  0.4818E-04  0.0000E+00 -0.1182E+12
   -1.062496    4.00610  0.0000E+00  0.1035E-07  0.8516E-12  0.4842E-04  0.0000E+00 -0.1200E+12
   -1.104996    4.00648  0.0000E+00  0.1051E-07  0.8750E-12  0.4846E-04  0.0000E+00 -0.1213E+12
   -1.147497    4.00686  0.0000E+00  0.1064E-07  0.8999E-12  0.4830E-04  0.0000E+00 -0.1222E+12
   -1.189997    4.00724  0.0000E+00  0.1076E-07  0.9267E-12  0.4793E-04  0.0000E+00 -0.1246E+12
   -1.232497    4.00761  0.0000E+00  0.1088E-07  0.9575E-12  0.4746E-04  0.0000E+00 -0.1310E+12
   -1.274997    4.00800  0.0000E+00  0.1098E-07  0.9941E-12  0.4674E-04  0.0000E+00 -0.1392E+12
   -1.317497    4.00841  0.0000E+00  0.1108E-07  0.1039E-11  0.4571E-04  0.0000E+00 -0.1498E+12
   -1.359997    4.00884  0.0000E+00  0.1117E-07  0.1095E-11  0.4430E-04  0.0000E+00 -0.1650E+12
   -1.402496    4.00930  0.0000E+00  0.1126E-07  0.1168E-11  0.4231E-04  0.0000E+00 -0.1806E+12
   -1.444995    4.00980  0.0000E+00  0.1132E-07  0.1257E-11  0.3985E-04  0.0000E+00 -0.1942E+12
   -1.487494    4.01032  0.0000E+00  0.1137E-07  0.1375E-11  0.3675E-04  0.0000E+00 -0.2167E+12
   -1.529992    4.01089  0.0000E+00  0.1140E-07  0.1574E-11  0.3270E-04  0.0000E+00 -0.2856E+12
   -1.572490    4.01162  0.0000E+00  0.1139E-07  0.1989E-11  0.2768E-04  0.0000E+00 -0.5197E+12
   -1.614988    4.01290  0.0000E+00  0.1104E-07  0.3652E-11  0.1059E-04  0.0000E+00 -0.1745E+13
   -1.657485    4.01680  0.0000E+00  0.8392E-08  0.1370E-10  0.1032E-05  0.0000E+00 -0.2792E+14
   -1.699982    4.05336  0.0000E+00  0.0000E+00  0.0000E+00  0.0000E+00  0.0000E+00  0.0000E+00
