 1 - depth, m
 2 - temperature, C
 3 - salinity, kg/kg
 4 - turbulent kinetic energy, m**2/s**2
 5 - dissipation rate, m**2/s**3
 6 - kinematic heat conductance, m**2/s
 7 - modulus of horizontal velocity, m/s
 8 - Richardson number, n/d
   -0.000000    9.70489  0.0000E+00  0.2342E-03  0.2224E-03  0.5638E-04  0.1391E+00  0.1097E-01
   -0.042497    9.78092  0.0000E+00  0.1240E-03  0.6907E-04  0.1422E-03  0.3331E-01 -0.5929E-01
   -0.084995    9.79493  0.0000E+00  0.8768E-04  0.3285E-04  0.1201E-03  0.2249E-01 -0.4193E-01
   -0.127493    9.80512  0.0000E+00  0.6492E-04  0.1625E-04  0.1105E-03  0.1761E-01 -0.9727E-01
   -0.169992    9.81325  0.0000E+00  0.4830E-04  0.8116E-05  0.1068E-03  0.1402E-01 -0.6270E+00
   -0.212491    9.82062  0.0000E+00  0.3596E-04  0.4007E-05  0.1071E-03  0.1112E-01  0.7556E+01
   -0.254990    9.82754  0.0000E+00  0.2696E-04  0.1946E-05  0.1128E-03  0.8836E-02  0.9456E+00
   -0.297489    9.83391  0.0000E+00  0.2076E-04  0.9968E-06  0.1284E-03  0.7116E-02  0.8620E+02
   -0.339989    9.83942  0.0000E+00  0.1654E-04  0.5596E-06  0.1495E-03  0.5801E-02  0.2140E+02
   -0.382489    9.84411  0.0000E+00  0.1358E-04  0.3445E-06  0.1721E-03  0.4745E-02  0.2304E+02
   -0.424989    9.84792  0.0000E+00  0.1149E-04  0.2280E-06  0.1971E-03  0.3950E-02  0.1044E+03
   -0.467489    9.85119  0.0000E+00  0.9960E-05  0.1593E-06  0.2254E-03  0.3283E-02  0.2609E+02
   -0.509990    9.85397  0.0000E+00  0.8817E-05  0.1156E-06  0.2597E-03  0.2718E-02  0.3364E+02
   -0.552491    9.85636  0.0000E+00  0.7932E-05  0.8608E-07  0.2930E-03  0.2241E-02  0.1866E+03
   -0.594992    9.85840  0.0000E+00  0.7235E-05  0.6568E-07  0.3297E-03  0.1833E-02  0.1459E+02
   -0.637493    9.86017  0.0000E+00  0.6671E-05  0.5111E-07  0.3692E-03  0.1490E-02  0.3019E+03
   -0.679994    9.86169  0.0000E+00  0.6211E-05  0.4050E-07  0.4051E-03  0.1218E-02  0.2130E+02
   -0.722495    9.86304  0.0000E+00  0.5832E-05  0.3263E-07  0.4401E-03  0.9976E-03  0.8656E+01
   -0.764997    9.86425  0.0000E+00  0.5522E-05  0.2678E-07  0.4712E-03  0.8253E-03  0.3259E+01
   -0.807498    9.86535  0.0000E+00  0.5268E-05  0.2238E-07  0.4986E-03  0.6933E-03  0.5066E+01
   -0.849999    9.86636  0.0000E+00  0.5062E-05  0.1908E-07  0.5229E-03  0.5887E-03  0.5493E+01
   -0.892501    9.86731  0.0000E+00  0.4896E-05  0.1661E-07  0.5444E-03  0.5044E-03  0.1595E+02
   -0.935002    9.86820  0.0000E+00  0.4762E-05  0.1475E-07  0.5630E-03  0.4364E-03  0.2348E+02
   -0.977503    9.86903  0.0000E+00  0.4654E-05  0.1335E-07  0.5791E-03  0.3792E-03  0.1659E+02
   -1.020005    9.86983  0.0000E+00  0.4564E-05  0.1228E-07  0.5922E-03  0.3315E-03  0.1698E+01
   -1.062506    9.87059  0.0000E+00  0.4488E-05  0.1144E-07  0.6021E-03  0.2901E-03  0.1833E+01
   -1.105007    9.87133  0.0000E+00  0.4421E-05  0.1079E-07  0.6091E-03  0.2539E-03  0.2031E+01
   -1.147508    9.87205  0.0000E+00  0.4363E-05  0.1029E-07  0.6133E-03  0.2210E-03  0.2258E+01
   -1.190009    9.87275  0.0000E+00  0.4312E-05  0.9930E-08  0.6143E-03  0.1902E-03  0.2472E+01
   -1.232509    9.87344  0.0000E+00  0.4264E-05  0.9676E-08  0.6114E-03  0.1619E-03  0.2776E+01
   -1.275010    9.87412  0.0000E+00  0.4218E-05  0.9520E-08  0.6045E-03  0.1377E-03  0.3467E+01
   -1.317510    9.87481  0.0000E+00  0.4173E-05  0.9462E-08  0.5928E-03  0.1172E-03  0.4519E+01
   -1.360010    9.87550  0.0000E+00  0.4126E-05  0.9511E-08  0.5751E-03  0.1000E-03  0.6019E+01
   -1.402510    9.87620  0.0000E+00  0.4074E-05  0.9694E-08  0.5505E-03  0.8553E-04  0.8768E+01
   -1.445009    9.87694  0.0000E+00  0.4020E-05  0.1004E-07  0.5188E-03  0.7270E-04  0.1304E+02
   -1.487508    9.87770  0.0000E+00  0.3963E-05  0.1061E-07  0.4861E-03  0.6037E-04  0.1657E+02
   -1.530007    9.87851  0.0000E+00  0.3893E-05  0.1174E-07  0.4149E-03  0.4859E-04  0.2710E+02
   -1.572505    9.87947  0.0000E+00  0.3776E-05  0.1452E-07  0.4391E-03  0.3722E-04  0.2797E+02
   -1.615004    9.88036  0.0000E+00  0.3363E-05  0.2876E-07  0.1761E-03  0.3061E-04 -0.3545E+08
   -1.657501    9.88553  0.0000E+00  0.2136E-05  0.9129E-07  0.4954E-04  0.1916E-04 -0.5249E+05
   -1.699999    9.89359  0.0000E+00  0.0000E+00  0.0000E+00  0.0000E+00  0.2318E-04  0.0000E+00
