 1 - depth, m
 2 - temperature, C
 3 - salinity, kg/kg
 4 - turbulent kinetic energy, m**2/s**2
 5 - dissipation rate, m**2/s**3
 6 - kinematic heat conductance, m**2/s
 7 - modulus of horizontal velocity, m/s
 8 - Richardson number, n/d
   -0.000000   -0.00156  0.0000E+00  0.4424E-03  0.9544E-03  0.1008E-03  0.2805E+00  0.2784E-02
   -0.042497    0.00987  0.0000E+00  0.2403E-03  0.3757E-03  0.1884E-03  0.6875E-01  0.4308E-01
   -0.084995    0.01637  0.0000E+00  0.1614E-03  0.1498E-03  0.1583E-03  0.4118E-01  0.1618E-01
   -0.127493    0.02167  0.0000E+00  0.1188E-03  0.7358E-04  0.1470E-03  0.3204E-01  0.1172E-01
   -0.169992    0.02583  0.0000E+00  0.8998E-04  0.3386E-04  0.1412E-03  0.2584E-01  0.4819E-01
   -0.212491    0.02975  0.0000E+00  0.6848E-04  0.1532E-04  0.1378E-03  0.2073E-01  0.2687E-01
   -0.254990    0.03402  0.0000E+00  0.5325E-04  0.6912E-05  0.1362E-03  0.1669E-01  0.2846E+00
   -0.297490    0.03807  0.0000E+00  0.4266E-04  0.3724E-05  0.1345E-03  0.1388E-01  0.3264E+02
   -0.339990    0.04167  0.0000E+00  0.3503E-04  0.2114E-05  0.1321E-03  0.1186E-01  0.2241E+02
   -0.382490    0.04518  0.0000E+00  0.2927E-04  0.1257E-05  0.1310E-03  0.1018E-01  0.4774E+02
   -0.424990    0.04817  0.0000E+00  0.2489E-04  0.7911E-06  0.1280E-03  0.8877E-02  0.3920E+02
   -0.467490    0.05112  0.0000E+00  0.2141E-04  0.5275E-06  0.1245E-03  0.7656E-02  0.3790E+01
   -0.509991    0.05409  0.0000E+00  0.1852E-04  0.3717E-06  0.1204E-03  0.6532E-02  0.5350E+01
   -0.552492    0.05712  0.0000E+00  0.1604E-04  0.2736E-06  0.1145E-03  0.5515E-02  0.1147E+02
   -0.594993    0.06044  0.0000E+00  0.1385E-04  0.2069E-06  0.1083E-03  0.4572E-02  0.7618E+02
   -0.637494    0.06412  0.0000E+00  0.1187E-04  0.1577E-06  0.1028E-03  0.3738E-02  0.1066E+04
   -0.679995    0.06774  0.0000E+00  0.1009E-04  0.1206E-06  0.9558E-04  0.3051E-02  0.2570E+05
   -0.722497    0.07176  0.0000E+00  0.8510E-05  0.9189E-07  0.8832E-04  0.2475E-02  0.4804E+06
   -0.764998    0.07572  0.0000E+00  0.7117E-05  0.6974E-07  0.8104E-04  0.2014E-02 -0.4909E+07
   -0.807500    0.07895  0.0000E+00  0.5897E-05  0.5261E-07  0.7152E-04  0.1660E-02  0.7791E+09
   -0.850001    0.08237  0.0000E+00  0.4847E-05  0.3954E-07  0.6173E-04  0.1372E-02  0.1661E+09
   -0.892502    0.08617  0.0000E+00  0.3939E-05  0.2949E-07  0.5233E-04  0.1134E-02 -0.1602E+09
   -0.935004    0.08994  0.0000E+00  0.3157E-05  0.2180E-07  0.4171E-04  0.9409E-03  0.1922E+09
   -0.977505    0.09496  0.0000E+00  0.2486E-05  0.1592E-07  0.3266E-04  0.7737E-03  0.3574E+10
   -1.020007    0.10003  0.0000E+00  0.1910E-05  0.1144E-07  0.2353E-04  0.6379E-03  0.6086E+12
   -1.062508    0.10820  0.0000E+00  0.1423E-05  0.8049E-08  0.1586E-04  0.5187E-03  0.2732E+12
   -1.105009    0.11849  0.0000E+00  0.1008E-05  0.5486E-08  0.8820E-05  0.4250E-03  0.3613E+13
   -1.147510    0.14204  0.0000E+00  0.6359E-06  0.3444E-08  0.3013E-05  0.3383E-03  0.1327E+13
   -1.190011    0.23150  0.0000E+00  0.2988E-06  0.1681E-08  0.4080E-06  0.2095E-03  0.2182E+14
   -1.232512    0.52141  0.0000E+00  0.7640E-07  0.4489E-09  0.4903E-07  0.5871E-04  0.4507E+15
   -1.275012    0.93912  0.0000E+00  0.1150E-07  0.6891E-10  0.1321E-07  0.8429E-05  0.1044E+16
   -1.317512    1.28323  0.0000E+00  0.1178E-08  0.6983E-11  0.2392E-08  0.7641E-06  0.1862E+16
   -1.360012    1.58480  0.0000E+00  0.1328E-09  0.6333E-12  0.8687E-09  0.4331E-07  0.2859E+16
   -1.402512    1.82475  0.0000E+00  0.1700E-09  0.2171E-12  0.1867E-09  0.2584E-08  0.4339E+16
   -1.445012    2.08192  0.0000E+00  0.7595E-09  0.7497E-12  0.3020E-09  0.1909E-09  0.7500E+16
   -1.487511    2.48489  0.0000E+00  0.3436E-08  0.3285E-11  0.3035E-08  0.1033E-10  0.9437E+16
   -1.530010    3.08954  0.0000E+00  0.8865E-08  0.9085E-11  0.3286E-05  0.2768E-12  0.6032E+16
   -1.572509    3.55379  0.0000E+00  0.1560E-07  0.1875E-10  0.6083E-05  0.4824E-14  0.1347E+16
   -1.615007    3.70646  0.0000E+00  0.1979E-07  0.3121E-10  0.4887E-05  0.1469E-15  0.8526E+15
   -1.657505    3.79630  0.0000E+00  0.1784E-07  0.6230E-10  0.1379E-05  0.9555E-17  0.1027E+16
   -1.700002    3.90514  0.0000E+00  0.0000E+00  0.0000E+00  0.0000E+00  0.1027E-15  0.0000E+00
