 1 - depth, m
 2 - temperature, C
 3 - salinity, kg/kg
 4 - turbulent kinetic energy, m**2/s**2
 5 - dissipation rate, m**2/s**3
 6 - kinematic heat conductance, m**2/s
 7 - modulus of horizontal velocity, m/s
 8 - Richardson number, n/d
   -0.000000    0.09788  0.0000E+00  0.5573E-03  0.1027E-02  0.1109E-03  0.3015E+00 -0.2215E-02
   -0.042505    0.12731  0.0000E+00  0.2908E-03  0.3530E-03  0.2417E-03  0.7033E-01  0.1182E-01
   -0.085010    0.13574  0.0000E+00  0.1994E-03  0.1423E-03  0.1860E-03  0.4310E-01  0.6326E-01
   -0.127515    0.14350  0.0000E+00  0.1483E-03  0.6955E-04  0.1694E-03  0.3379E-01  0.7489E-01
   -0.170021    0.15043  0.0000E+00  0.1130E-03  0.3523E-04  0.1567E-03  0.2745E-01  0.6916E-01
   -0.212527    0.15823  0.0000E+00  0.8648E-04  0.1838E-04  0.1483E-03  0.2226E-01  0.5703E-01
   -0.255033    0.16773  0.0000E+00  0.6659E-04  0.9382E-05  0.1442E-03  0.1818E-01  0.1358E+01
   -0.297540    0.17516  0.0000E+00  0.5237E-04  0.5076E-05  0.1402E-03  0.1528E-01  0.1973E+02
   -0.340047    0.18171  0.0000E+00  0.4227E-04  0.2837E-05  0.1366E-03  0.1316E-01  0.9689E+02
   -0.382554    0.18777  0.0000E+00  0.3469E-04  0.1646E-05  0.1345E-03  0.1133E-01  0.1237E+03
   -0.425062    0.19335  0.0000E+00  0.2905E-04  0.1034E-05  0.1307E-03  0.9844E-02  0.4325E+05
   -0.467569    0.19888  0.0000E+00  0.2468E-04  0.7036E-06  0.1269E-03  0.8455E-02  0.6706E+02
   -0.510077    0.20442  0.0000E+00  0.2111E-04  0.4997E-06  0.1227E-03  0.7203E-02  0.1042E+03
   -0.552585    0.21029  0.0000E+00  0.1815E-04  0.3665E-06  0.1170E-03  0.6078E-02  0.2557E+03
   -0.595093    0.21667  0.0000E+00  0.1557E-04  0.2742E-06  0.1110E-03  0.5037E-02  0.2618E+04
   -0.637602    0.22376  0.0000E+00  0.1326E-04  0.2071E-06  0.1053E-03  0.4109E-02  0.8816E+05
   -0.680110    0.23226  0.0000E+00  0.1124E-04  0.1578E-06  0.9800E-04  0.3345E-02  0.4100E+07
   -0.722619    0.24372  0.0000E+00  0.9446E-05  0.1201E-06  0.9047E-04  0.2703E-02  0.2318E+09
   -0.765127    0.25664  0.0000E+00  0.7871E-05  0.9112E-07  0.8230E-04  0.2192E-02  0.9230E+10
   -0.807636    0.26855  0.0000E+00  0.6505E-05  0.6879E-07  0.7254E-04  0.1802E-02  0.1716E+12
   -0.850144    0.28036  0.0000E+00  0.5327E-05  0.5150E-07  0.6287E-04  0.1485E-02  0.6539E+12
   -0.892653    0.29415  0.0000E+00  0.4317E-05  0.3836E-07  0.5333E-04  0.1223E-02 -0.6154E+12
   -0.935162    0.30980  0.0000E+00  0.3452E-05  0.2827E-07  0.4247E-04  0.1011E-02  0.5880E+13
   -0.977670    0.32683  0.0000E+00  0.2720E-05  0.2064E-07  0.3324E-04  0.8253E-03  0.8132E+13
   -1.020179    0.34126  0.0000E+00  0.2107E-05  0.1495E-07  0.2446E-04  0.6752E-03  0.2747E+14
   -1.062687    0.35771  0.0000E+00  0.1591E-05  0.1067E-07  0.1694E-04  0.5445E-03  0.2839E+14
   -1.105195    0.38196  0.0000E+00  0.1146E-05  0.7392E-08  0.1044E-04  0.4382E-03  0.7651E+14
   -1.147704    0.44493  0.0000E+00  0.7583E-06  0.4851E-08  0.5951E-05  0.3305E-03  0.2107E+15
   -1.190212    0.60701  0.0000E+00  0.4607E-06  0.2989E-08  0.4172E-05  0.1859E-03  0.4877E+15
   -1.232719    0.88384  0.0000E+00  0.3072E-06  0.1945E-08  0.3269E-05  0.8495E-04  0.7850E+15
   -1.275227    1.10190  0.0000E+00  0.2284E-06  0.1362E-08  0.2497E-05  0.5088E-04  0.7889E+15
   -1.317735    1.22154  0.0000E+00  0.1718E-06  0.9623E-09  0.1734E-05  0.3318E-04  0.1247E+16
   -1.360242    1.34369  0.0000E+00  0.1261E-06  0.6679E-09  0.1081E-05  0.2126E-04  0.1981E+16
   -1.402749    1.48007  0.0000E+00  0.8511E-07  0.4327E-09  0.4827E-06  0.1385E-04  0.4795E+16
   -1.445255    1.68071  0.0000E+00  0.4619E-07  0.2302E-09  0.7792E-07  0.8562E-05  0.9472E+16
   -1.487762    2.01953  0.0000E+00  0.1393E-07  0.6890E-10  0.8450E-08  0.2692E-05  0.1182E+17
   -1.530268    2.52291  0.0000E+00  0.2404E-08  0.1190E-10  0.1849E-08  0.1628E-06  0.9429E+16
   -1.572774    3.07476  0.0000E+00  0.6899E-09  0.2460E-11  0.1882E-08  0.3706E-08  0.4024E+16
   -1.615279    3.49115  0.0000E+00  0.2071E-08  0.3740E-11  0.5012E-06  0.9827E-10  0.1152E+16
   -1.657784    3.69005  0.0000E+00  0.5609E-08  0.1767E-10  0.6074E-06  0.2328E-11 -0.7667E+14
   -1.700289    3.70331  0.0000E+00  0.0000E+00  0.0000E+00  0.0000E+00  0.1810E-11  0.0000E+00
