 1 - depth, m
 2 - temperature, C
 3 - salinity, kg/kg
 4 - turbulent kinetic energy, m**2/s**2
 5 - dissipation rate, m**2/s**3
 6 - kinematic heat conductance, m**2/s
 7 - modulus of horizontal velocity, m/s
 8 - Richardson number, n/d
   -0.000000    0.00000  0.0000E+00  0.3189E-13  0.5206E-16  0.1000E-09  0.0000E+00  0.6511E+16
   -0.042497    0.09899  0.0000E+00  0.3189E-13  0.5206E-16  0.1000E-09  0.0000E+00  0.6564E+16
   -0.084995    0.20157  0.0000E+00  0.3189E-13  0.5206E-16  0.1000E-09  0.0000E+00  0.6582E+16
   -0.127493    0.30751  0.0000E+00  0.3189E-13  0.5206E-16  0.1000E-09  0.0000E+00  0.6407E+16
   -0.169992    0.41384  0.0000E+00  0.3189E-13  0.5206E-16  0.1000E-09  0.0000E+00  0.6229E+16
   -0.212491    0.52053  0.0000E+00  0.3189E-13  0.5206E-16  0.1000E-09  0.0000E+00  0.6055E+16
   -0.254990    0.62769  0.0000E+00  0.3189E-13  0.5206E-16  0.1000E-09  0.0000E+00  0.5883E+16
   -0.297490    0.73537  0.0000E+00  0.3189E-13  0.5206E-16  0.1000E-09  0.0000E+00  0.5688E+16
   -0.339989    0.84320  0.0000E+00  0.3189E-13  0.5206E-16  0.1000E-09  0.0000E+00  0.5464E+16
   -0.382489    0.95058  0.0000E+00  0.3189E-13  0.5206E-16  0.1000E-09  0.0000E+00  0.5237E+16
   -0.424990    1.05739  0.0000E+00  0.3189E-13  0.5206E-16  0.1000E-09  0.0000E+00  0.4986E+16
   -0.467490    1.16303  0.0000E+00  0.3189E-13  0.5206E-16  0.1000E-09  0.0000E+00  0.4737E+16
   -0.509991    1.26736  0.0000E+00  0.3189E-13  0.5206E-16  0.1000E-09  0.0000E+00  0.4504E+16
   -0.552492    1.37062  0.0000E+00  0.3189E-13  0.5206E-16  0.1000E-09  0.0000E+00  0.4277E+16
   -0.594993    1.47277  0.0000E+00  0.3189E-13  0.5206E-16  0.1000E-09  0.0000E+00  0.4067E+16
   -0.637494    1.57408  0.0000E+00  0.3189E-13  0.5206E-16  0.1000E-09  0.0000E+00  0.3884E+16
   -0.679995    1.67516  0.0000E+00  0.3189E-13  0.5206E-16  0.1000E-09  0.0000E+00  0.3703E+16
   -0.722496    1.77599  0.0000E+00  0.3189E-13  0.5206E-16  0.1000E-09  0.0000E+00  0.3535E+16
   -0.764998    1.87692  0.0000E+00  0.3189E-13  0.5206E-16  0.1000E-09  0.0000E+00  0.3371E+16
   -0.807499    1.97804  0.0000E+00  0.3189E-13  0.5206E-16  0.1000E-09  0.0000E+00  0.3179E+16
   -0.850001    2.07849  0.0000E+00  0.3189E-13  0.5206E-16  0.1000E-09  0.0000E+00  0.2975E+16
   -0.892502    2.17769  0.0000E+00  0.3189E-13  0.5206E-16  0.1000E-09  0.0000E+00  0.2794E+16
   -0.935003    2.27626  0.0000E+00  0.3189E-13  0.5206E-16  0.1000E-09  0.0000E+00  0.2611E+16
   -0.977505    2.37396  0.0000E+00  0.3189E-13  0.5206E-16  0.1000E-09  0.0000E+00  0.2432E+16
   -1.020006    2.47076  0.0000E+00  0.3189E-13  0.5206E-16  0.1000E-09  0.0000E+00  0.2233E+16
   -1.062507    2.56562  0.0000E+00  0.3189E-13  0.5206E-16  0.1000E-09  0.0000E+00  0.2040E+16
   -1.105009    2.65832  0.0000E+00  0.3189E-13  0.5206E-16  0.1000E-09  0.0000E+00  0.1835E+16
   -1.147510    2.74775  0.0000E+00  0.3189E-13  0.5206E-16  0.1000E-09  0.0000E+00  0.1630E+16
   -1.190010    2.83311  0.0000E+00  0.3189E-13  0.5206E-16  0.1000E-09  0.0000E+00  0.1450E+16
   -1.232511    2.91488  0.0000E+00  0.3189E-13  0.5206E-16  0.1000E-09  0.0000E+00  0.1315E+16
   -1.275012    2.99493  0.0000E+00  0.3189E-13  0.5206E-16  0.1000E-09  0.0000E+00  0.1203E+16
   -1.317512    3.07443  0.0000E+00  0.3189E-13  0.5206E-16  0.1000E-09  0.0000E+00  0.1155E+16
   -1.360012    3.15797  0.0000E+00  0.3189E-13  0.5206E-16  0.1000E-09  0.0000E+00  0.1116E+16
   -1.402512    3.24776  0.0000E+00  0.3189E-13  0.5206E-16  0.1000E-09  0.0000E+00  0.1014E+16
   -1.445011    3.34025  0.0000E+00  0.9982E-13  0.1928E-15  0.1000E-09  0.0000E+00  0.8565E+15
   -1.487510    3.43035  0.0000E+00  0.6529E-12  0.1269E-14  0.1000E-09  0.0000E+00  0.7299E+15
   -1.530009    3.52085  0.0000E+00  0.4951E-11  0.9687E-14  0.1000E-09  0.0000E+00  0.7266E+15
   -1.572508    3.63348  0.0000E+00  0.4378E-10  0.8627E-13  0.3024E-09  0.0000E+00  0.7899E+15
   -1.615006    3.83121  0.0000E+00  0.4123E-09  0.8161E-12  0.9898E-08  0.0000E+00  0.1547E+15
   -1.657504    4.05225  0.0000E+00  0.2844E-08  0.6475E-11  0.4347E-06  0.0000E+00 -0.8788E+14
   -1.700001    4.11115  0.0000E+00  0.0000E+00  0.0000E+00  0.0000E+00  0.0000E+00  0.0000E+00
