 1 - depth, m
 2 - temperature, C
 3 - salinity, kg/kg
 4 - turbulent kinetic energy, m**2/s**2
 5 - dissipation rate, m**2/s**3
 6 - kinematic heat conductance, m**2/s
 7 - modulus of horizontal velocity, m/s
 8 - Richardson number, n/d
   -0.000000    0.00000  0.0000E+00  0.4487E-09  0.5547E-12  0.1000E-09  0.0000E+00  0.3044E+17
   -0.042497    0.48860  0.0000E+00  0.1820E-08  0.5051E-12  0.1027E-09  0.0000E+00  0.2397E+17
   -0.084995    0.93153  0.0000E+00  0.4537E-08  0.7862E-12  0.1385E-09  0.0000E+00  0.1920E+17
   -0.127493    1.34270  0.0000E+00  0.9422E-08  0.1412E-11  0.2714E-09  0.0000E+00  0.1618E+17
   -0.169992    1.75049  0.0000E+00  0.1824E-07  0.2587E-11  0.5873E-09  0.0000E+00  0.1370E+17
   -0.212491    2.17015  0.0000E+00  0.3431E-07  0.4730E-11  0.1294E-08  0.0000E+00  0.1140E+17
   -0.254990    2.62109  0.0000E+00  0.6372E-07  0.8605E-11  0.3178E-08  0.0000E+00  0.8729E+16
   -0.297489    3.12762  0.0000E+00  0.1165E-06  0.1546E-10  0.1597E-07  0.0000E+00  0.4845E+16
   -0.339989    3.68000  0.0000E+00  0.1573E-06  0.2064E-10  0.1503E-03  0.0000E+00  0.1353E+16
   -0.382489    4.00453  0.0000E+00  0.1682E-06  0.2197E-10  0.3455E-03  0.0000E+00  0.8209E+14
   -0.424989    4.06643  0.0000E+00  0.1688E-06  0.2207E-10  0.4118E-03  0.0000E+00 -0.3431E+12
   -0.467490    4.06670  0.0000E+00  0.1693E-06  0.2216E-10  0.4070E-03  0.0000E+00 -0.3354E+12
   -0.509991    4.06697  0.0000E+00  0.1697E-06  0.2227E-10  0.4072E-03  0.0000E+00 -0.3339E+12
   -0.552491    4.06724  0.0000E+00  0.1701E-06  0.2238E-10  0.4072E-03  0.0000E+00 -0.3322E+12
   -0.594992    4.06750  0.0000E+00  0.1705E-06  0.2251E-10  0.4068E-03  0.0000E+00 -0.3328E+12
   -0.637493    4.06776  0.0000E+00  0.1709E-06  0.2264E-10  0.4061E-03  0.0000E+00 -0.3334E+12
   -0.679995    4.06803  0.0000E+00  0.1712E-06  0.2280E-10  0.4050E-03  0.0000E+00 -0.3355E+12
   -0.722496    4.06829  0.0000E+00  0.1715E-06  0.2298E-10  0.4034E-03  0.0000E+00 -0.3387E+12
   -0.764997    4.06856  0.0000E+00  0.1718E-06  0.2319E-10  0.4013E-03  0.0000E+00 -0.3439E+12
   -0.807499    4.06882  0.0000E+00  0.1721E-06  0.2342E-10  0.3987E-03  0.0000E+00 -0.3484E+12
   -0.850000    4.06909  0.0000E+00  0.1724E-06  0.2369E-10  0.3955E-03  0.0000E+00 -0.3549E+12
   -0.892502    4.06937  0.0000E+00  0.1726E-06  0.2399E-10  0.3919E-03  0.0000E+00 -0.3593E+12
   -0.935003    4.06965  0.0000E+00  0.1729E-06  0.2432E-10  0.3877E-03  0.0000E+00 -0.3636E+12
   -0.977504    4.06993  0.0000E+00  0.1730E-06  0.2469E-10  0.3830E-03  0.0000E+00 -0.3681E+12
   -1.020006    4.07021  0.0000E+00  0.1732E-06  0.2511E-10  0.3777E-03  0.0000E+00 -0.3739E+12
   -1.062507    4.07049  0.0000E+00  0.1733E-06  0.2556E-10  0.3718E-03  0.0000E+00 -0.3802E+12
   -1.105008    4.07078  0.0000E+00  0.1734E-06  0.2606E-10  0.3654E-03  0.0000E+00 -0.3873E+12
   -1.147509    4.07107  0.0000E+00  0.1734E-06  0.2661E-10  0.3586E-03  0.0000E+00 -0.3945E+12
   -1.190010    4.07137  0.0000E+00  0.1734E-06  0.2720E-10  0.3512E-03  0.0000E+00 -0.4043E+12
   -1.232510    4.07167  0.0000E+00  0.1734E-06  0.2789E-10  0.3429E-03  0.0000E+00 -0.4160E+12
   -1.275011    4.07199  0.0000E+00  0.1733E-06  0.2872E-10  0.3334E-03  0.0000E+00 -0.4312E+12
   -1.317511    4.07231  0.0000E+00  0.1732E-06  0.2974E-10  0.3223E-03  0.0000E+00 -0.4490E+12
   -1.360011    4.07264  0.0000E+00  0.1730E-06  0.3103E-10  0.3089E-03  0.0000E+00 -0.4742E+12
   -1.402511    4.07299  0.0000E+00  0.1727E-06  0.3276E-10  0.2931E-03  0.0000E+00 -0.5028E+12
   -1.445010    4.07336  0.0000E+00  0.1724E-06  0.3486E-10  0.2762E-03  0.0000E+00 -0.5358E+12
   -1.487510    4.07375  0.0000E+00  0.1719E-06  0.3748E-10  0.2576E-03  0.0000E+00 -0.5763E+12
   -1.530008    4.07417  0.0000E+00  0.1714E-06  0.4148E-10  0.2327E-03  0.0000E+00 -0.6510E+12
   -1.572507    4.07464  0.0000E+00  0.1702E-06  0.5002E-10  0.1991E-03  0.0000E+00 -0.8211E+12
   -1.615005    4.07523  0.0000E+00  0.1658E-06  0.8482E-10  0.1135E-03  0.0000E+00 -0.1533E+13
   -1.657503    4.07634  0.0000E+00  0.1184E-06  0.5238E-09  0.3635E-05  0.0000E+00 -0.5731E+14
   -1.700000    4.11057  0.0000E+00  0.0000E+00  0.0000E+00  0.0000E+00  0.0000E+00  0.0000E+00
