 1 - depth, m
 2 - temperature, C
 3 - salinity, kg/kg
 4 - turbulent kinetic energy, m**2/s**2
 5 - dissipation rate, m**2/s**3
 6 - kinematic heat conductance, m**2/s
 7 - modulus of horizontal velocity, m/s
 8 - Richardson number, n/d
   -0.000000    0.00000  0.0000E+00  0.2720E-11  0.8663E-15  0.1000E-09  0.0000E+00  0.1787E+17
   -0.042497    0.27837  0.0000E+00  0.4833E-11  0.7556E-15  0.1000E-09  0.0000E+00  0.1672E+17
   -0.084995    0.56077  0.0000E+00  0.8874E-11  0.9061E-15  0.1000E-09  0.0000E+00  0.1545E+17
   -0.127493    0.84554  0.0000E+00  0.1529E-10  0.1270E-14  0.1000E-09  0.0000E+00  0.1376E+17
   -0.169991    1.12423  0.0000E+00  0.2505E-10  0.1886E-14  0.1000E-09  0.0000E+00  0.1212E+17
   -0.212489    1.39589  0.0000E+00  0.3984E-10  0.2846E-14  0.1000E-09  0.0000E+00  0.1058E+17
   -0.254988    1.65985  0.0000E+00  0.6230E-10  0.4311E-14  0.1000E-09  0.0000E+00  0.9112E+16
   -0.297488    1.91522  0.0000E+00  0.9645E-10  0.6523E-14  0.1000E-09  0.0000E+00  0.7727E+16
   -0.339987    2.16059  0.0000E+00  0.1472E-09  0.9775E-14  0.1000E-09  0.0000E+00  0.6433E+16
   -0.382487    2.39443  0.0000E+00  0.2228E-09  0.1455E-13  0.1000E-09  0.0000E+00  0.5263E+16
   -0.424987    2.61599  0.0000E+00  0.3343E-09  0.2148E-13  0.1000E-09  0.0000E+00  0.4219E+16
   -0.467487    2.82446  0.0000E+00  0.4977E-09  0.3148E-13  0.1000E-09  0.0000E+00  0.3308E+16
   -0.509987    3.01955  0.0000E+00  0.7372E-09  0.4592E-13  0.1000E-09  0.0000E+00  0.2562E+16
   -0.552488    3.20397  0.0000E+00  0.1088E-08  0.6676E-13  0.1200E-09  0.0000E+00  0.1921E+16
   -0.594989    3.37839  0.0000E+00  0.1601E-08  0.9674E-13  0.2244E-09  0.0000E+00  0.1371E+16
   -0.637490    3.54363  0.0000E+00  0.2365E-08  0.1408E-12  0.4979E-09  0.0000E+00  0.9022E+15
   -0.679991    3.70086  0.0000E+00  0.3502E-08  0.2053E-12  0.1335E-08  0.0000E+00  0.4935E+15
   -0.722492    3.84960  0.0000E+00  0.5185E-08  0.2995E-12  0.6884E-08  0.0000E+00  0.1455E+15
   -0.764993    3.98455  0.0000E+00  0.5607E-08  0.3240E-12  0.2674E-04  0.0000E+00  0.1684E+13
   -0.807494    3.99186  0.0000E+00  0.5789E-08  0.3360E-12  0.3289E-04  0.0000E+00 -0.4771E+11
   -0.849995    3.99248  0.0000E+00  0.5943E-08  0.3474E-12  0.3483E-04  0.0000E+00 -0.4993E+11
   -0.892496    3.99303  0.0000E+00  0.6094E-08  0.3599E-12  0.3651E-04  0.0000E+00 -0.5225E+11
   -0.934997    3.99355  0.0000E+00  0.6239E-08  0.3733E-12  0.3795E-04  0.0000E+00 -0.5477E+11
   -0.977498    3.99405  0.0000E+00  0.6378E-08  0.3875E-12  0.3910E-04  0.0000E+00 -0.5744E+11
   -1.019999    3.99453  0.0000E+00  0.6510E-08  0.4026E-12  0.3983E-04  0.0000E+00 -0.6007E+11
   -1.062500    3.99500  0.0000E+00  0.6634E-08  0.4186E-12  0.4022E-04  0.0000E+00 -0.6312E+11
   -1.105001    3.99546  0.0000E+00  0.6751E-08  0.4357E-12  0.4020E-04  0.0000E+00 -0.6620E+11
   -1.147502    3.99592  0.0000E+00  0.6859E-08  0.4538E-12  0.3995E-04  0.0000E+00 -0.6920E+11
   -1.190002    3.99638  0.0000E+00  0.6958E-08  0.4733E-12  0.3952E-04  0.0000E+00 -0.7305E+11
   -1.232503    3.99684  0.0000E+00  0.7052E-08  0.4954E-12  0.3905E-04  0.0000E+00 -0.7943E+11
   -1.275003    3.99731  0.0000E+00  0.7142E-08  0.5212E-12  0.3833E-04  0.0000E+00 -0.8731E+11
   -1.317503    3.99782  0.0000E+00  0.7229E-08  0.5523E-12  0.3732E-04  0.0000E+00 -0.9711E+11
   -1.360003    3.99835  0.0000E+00  0.7313E-08  0.5911E-12  0.3596E-04  0.0000E+00 -0.1107E+12
   -1.402502    3.99893  0.0000E+00  0.7397E-08  0.6430E-12  0.3397E-04  0.0000E+00 -0.1264E+12
   -1.445002    3.99956  0.0000E+00  0.7473E-08  0.7103E-12  0.3085E-04  0.0000E+00 -0.1472E+12
   -1.487500    4.00025  0.0000E+00  0.7541E-08  0.8050E-12  0.2619E-04  0.0000E+00 -0.1865E+12
   -1.529999    4.00109  0.0000E+00  0.7601E-08  0.9638E-12  0.2176E-04  0.0000E+00 -0.2739E+12
   -1.572497    4.00223  0.0000E+00  0.7638E-08  0.1310E-11  0.1793E-04  0.0000E+00 -0.5430E+12
   -1.614995    4.00427  0.0000E+00  0.7402E-08  0.2734E-11  0.6248E-05  0.0000E+00 -0.2248E+13
   -1.657493    4.01096  0.0000E+00  0.5814E-08  0.9500E-11  0.7991E-06  0.0000E+00 -0.3257E+14
   -1.699990    4.05530  0.0000E+00  0.0000E+00  0.0000E+00  0.0000E+00  0.0000E+00  0.0000E+00
