 1 - depth, m
 2 - temperature, C
 3 - salinity, kg/kg
 4 - turbulent kinetic energy, m**2/s**2
 5 - dissipation rate, m**2/s**3
 6 - kinematic heat conductance, m**2/s
 7 - modulus of horizontal velocity, m/s
 8 - Richardson number, n/d
   -0.000000    0.00000  0.0000E+00  0.3189E-13  0.5206E-16  0.1000E-09  0.0000E+00  0.8743E+16
   -0.042498    0.13355  0.0000E+00  0.3189E-13  0.5206E-16  0.1000E-09  0.0000E+00  0.8794E+16
   -0.084995    0.27304  0.0000E+00  0.3189E-13  0.5206E-16  0.1000E-09  0.0000E+00  0.8773E+16
   -0.127494    0.41799  0.0000E+00  0.3189E-13  0.5206E-16  0.1000E-09  0.0000E+00  0.8410E+16
   -0.169992    0.56305  0.0000E+00  0.3189E-13  0.5206E-16  0.1000E-09  0.0000E+00  0.8041E+16
   -0.212491    0.70812  0.0000E+00  0.3189E-13  0.5206E-16  0.1000E-09  0.0000E+00  0.7671E+16
   -0.254991    0.85312  0.0000E+00  0.3189E-13  0.5206E-16  0.1000E-09  0.0000E+00  0.7297E+16
   -0.297490    0.99794  0.0000E+00  0.3189E-13  0.5206E-16  0.1000E-09  0.0000E+00  0.6914E+16
   -0.339990    1.14231  0.0000E+00  0.3189E-13  0.5206E-16  0.1000E-09  0.0000E+00  0.6520E+16
   -0.382490    1.28587  0.0000E+00  0.3189E-13  0.5206E-16  0.1000E-09  0.0000E+00  0.6127E+16
   -0.424991    1.42845  0.0000E+00  0.3189E-13  0.5206E-16  0.1000E-09  0.0000E+00  0.5730E+16
   -0.467491    1.56973  0.0000E+00  0.3189E-13  0.5206E-16  0.1000E-09  0.0000E+00  0.5339E+16
   -0.509992    1.70958  0.0000E+00  0.3189E-13  0.5206E-16  0.1000E-09  0.0000E+00  0.4972E+16
   -0.552493    1.84834  0.0000E+00  0.3189E-13  0.5206E-16  0.1000E-09  0.0000E+00  0.4613E+16
   -0.594994    1.98601  0.0000E+00  0.7669E-13  0.5206E-16  0.1000E-09  0.0000E+00  0.4267E+16
   -0.637495    2.12270  0.0000E+00  0.2545E-12  0.6322E-16  0.1000E-09  0.0000E+00  0.3936E+16
   -0.679997    2.25866  0.0000E+00  0.6038E-12  0.1124E-15  0.1000E-09  0.0000E+00  0.3609E+16
   -0.722498    2.39380  0.0000E+00  0.1267E-11  0.2150E-15  0.1000E-09  0.0000E+00  0.3289E+16
   -0.764999    2.52814  0.0000E+00  0.2543E-11  0.4142E-15  0.1000E-09  0.0000E+00  0.2973E+16
   -0.807501    2.66154  0.0000E+00  0.5003E-11  0.7940E-15  0.1000E-09  0.0000E+00  0.2651E+16
   -0.850003    2.79331  0.0000E+00  0.9651E-11  0.1499E-14  0.1000E-09  0.0000E+00  0.2332E+16
   -0.892504    2.92293  0.0000E+00  0.1848E-10  0.2812E-14  0.1000E-09  0.0000E+00  0.2042E+16
   -0.935006    3.05134  0.0000E+00  0.3491E-10  0.5209E-14  0.1000E-09  0.0000E+00  0.1764E+16
   -0.977507    3.17881  0.0000E+00  0.6544E-10  0.9576E-14  0.1000E-09  0.0000E+00  0.1492E+16
   -1.020008    3.30523  0.0000E+00  0.1217E-09  0.1746E-13  0.1000E-09  0.0000E+00  0.1219E+16
   -1.062510    3.42976  0.0000E+00  0.2245E-09  0.3161E-13  0.1050E-09  0.0000E+00  0.9574E+15
   -1.105011    3.55218  0.0000E+00  0.4117E-09  0.5687E-13  0.2541E-09  0.0000E+00  0.7040E+15
   -1.147512    3.67148  0.0000E+00  0.7445E-09  0.1009E-12  0.6806E-09  0.0000E+00  0.4666E+15
   -1.190013    3.78682  0.0000E+00  0.1335E-08  0.1777E-12  0.2229E-08  0.0000E+00  0.2508E+15
   -1.232514    3.89767  0.0000E+00  0.2419E-08  0.3163E-12  0.1635E-07  0.0000E+00  0.6077E+14
   -1.275014    3.99670  0.0000E+00  0.3126E-08  0.4114E-12  0.8830E-05  0.0000E+00 -0.3037E+12
   -1.317515    3.99843  0.0000E+00  0.3504E-08  0.4740E-12  0.9861E-05  0.0000E+00 -0.3246E+12
   -1.360015    4.00004  0.0000E+00  0.3855E-08  0.5462E-12  0.1056E-04  0.0000E+00 -0.3592E+12
   -1.402515    4.00162  0.0000E+00  0.4189E-08  0.6345E-12  0.1058E-04  0.0000E+00 -0.4080E+12
   -1.445014    4.00324  0.0000E+00  0.4475E-08  0.7380E-12  0.9900E-05  0.0000E+00 -0.4730E+12
   -1.487514    4.00494  0.0000E+00  0.4723E-08  0.8703E-12  0.8951E-05  0.0000E+00 -0.5778E+12
   -1.530013    4.00683  0.0000E+00  0.4972E-08  0.1083E-11  0.8185E-05  0.0000E+00 -0.8181E+12
   -1.572511    4.00923  0.0000E+00  0.5248E-08  0.1528E-11  0.7586E-05  0.0000E+00 -0.1566E+13
   -1.615010    4.01325  0.0000E+00  0.5351E-08  0.2954E-11  0.3337E-05  0.0000E+00 -0.5131E+13
   -1.657508    4.02347  0.0000E+00  0.4464E-08  0.7706E-11  0.6461E-06  0.0000E+00 -0.4017E+14
   -1.700005    4.06701  0.0000E+00  0.0000E+00  0.0000E+00  0.0000E+00  0.0000E+00  0.0000E+00
