 1 - depth, m
 2 - temperature, C
 3 - salinity, kg/kg
 4 - turbulent kinetic energy, m**2/s**2
 5 - dissipation rate, m**2/s**3
 6 - kinematic heat conductance, m**2/s
 7 - modulus of horizontal velocity, m/s
 8 - Richardson number, n/d
   -0.000000    0.00000  0.0000E+00  0.2755E-09  0.2896E-12  0.1000E-09  0.0000E+00  0.2964E+17
   -0.042497    0.47476  0.0000E+00  0.9850E-09  0.2342E-12  0.1000E-09  0.0000E+00  0.2485E+17
   -0.084994    0.93283  0.0000E+00  0.2302E-08  0.3040E-12  0.1000E-09  0.0000E+00  0.2070E+17
   -0.127492    1.37875  0.0000E+00  0.4429E-08  0.4689E-12  0.1052E-09  0.0000E+00  0.1701E+17
   -0.169990    1.81625  0.0000E+00  0.7814E-08  0.7551E-12  0.1737E-09  0.0000E+00  0.1369E+17
   -0.212488    2.25005  0.0000E+00  0.1323E-07  0.1222E-11  0.3616E-09  0.0000E+00  0.1061E+17
   -0.254987    2.68542  0.0000E+00  0.2197E-07  0.1973E-11  0.8069E-09  0.0000E+00  0.7604E+16
   -0.297486    3.12722  0.0000E+00  0.3604E-07  0.3169E-11  0.2145E-08  0.0000E+00  0.4516E+16
   -0.339985    3.57600  0.0000E+00  0.5796E-07  0.5005E-11  0.1139E-07  0.0000E+00  0.1331E+16
   -0.382484    4.00771  0.0000E+00  0.5900E-07  0.5106E-11  0.2241E-03  0.0000E+00  0.7765E+12
   -0.424984    4.01071  0.0000E+00  0.5924E-07  0.5131E-11  0.2260E-03  0.0000E+00 -0.1148E+12
   -0.467484    4.01101  0.0000E+00  0.5946E-07  0.5157E-11  0.2264E-03  0.0000E+00 -0.1129E+12
   -0.509984    4.01130  0.0000E+00  0.5967E-07  0.5185E-11  0.2267E-03  0.0000E+00 -0.1130E+12
   -0.552484    4.01159  0.0000E+00  0.5987E-07  0.5216E-11  0.2270E-03  0.0000E+00 -0.1128E+12
   -0.594985    4.01187  0.0000E+00  0.6007E-07  0.5249E-11  0.2269E-03  0.0000E+00 -0.1140E+12
   -0.637485    4.01215  0.0000E+00  0.6026E-07  0.5287E-11  0.2266E-03  0.0000E+00 -0.1157E+12
   -0.679986    4.01244  0.0000E+00  0.6045E-07  0.5329E-11  0.2261E-03  0.0000E+00 -0.1185E+12
   -0.722487    4.01273  0.0000E+00  0.6063E-07  0.5377E-11  0.2253E-03  0.0000E+00 -0.1220E+12
   -0.764988    4.01302  0.0000E+00  0.6082E-07  0.5432E-11  0.2241E-03  0.0000E+00 -0.1271E+12
   -0.807488    4.01332  0.0000E+00  0.6101E-07  0.5495E-11  0.2228E-03  0.0000E+00 -0.1312E+12
   -0.849989    4.01363  0.0000E+00  0.6119E-07  0.5564E-11  0.2212E-03  0.0000E+00 -0.1362E+12
   -0.892490    4.01395  0.0000E+00  0.6136E-07  0.5642E-11  0.2194E-03  0.0000E+00 -0.1398E+12
   -0.934991    4.01428  0.0000E+00  0.6152E-07  0.5728E-11  0.2174E-03  0.0000E+00 -0.1428E+12
   -0.977492    4.01460  0.0000E+00  0.6167E-07  0.5822E-11  0.2151E-03  0.0000E+00 -0.1457E+12
   -1.019993    4.01493  0.0000E+00  0.6181E-07  0.5925E-11  0.2124E-03  0.0000E+00 -0.1489E+12
   -1.062493    4.01527  0.0000E+00  0.6193E-07  0.6038E-11  0.2095E-03  0.0000E+00 -0.1520E+12
   -1.104994    4.01560  0.0000E+00  0.6203E-07  0.6161E-11  0.2062E-03  0.0000E+00 -0.1551E+12
   -1.147494    4.01594  0.0000E+00  0.6211E-07  0.6294E-11  0.2029E-03  0.0000E+00 -0.1574E+12
   -1.189994    4.01629  0.0000E+00  0.6218E-07  0.6438E-11  0.1991E-03  0.0000E+00 -0.1617E+12
   -1.232495    4.01663  0.0000E+00  0.6223E-07  0.6602E-11  0.1947E-03  0.0000E+00 -0.1691E+12
   -1.274995    4.01700  0.0000E+00  0.6226E-07  0.6799E-11  0.1896E-03  0.0000E+00 -0.1782E+12
   -1.317494    4.01737  0.0000E+00  0.6227E-07  0.7039E-11  0.1837E-03  0.0000E+00 -0.1865E+12
   -1.359994    4.01776  0.0000E+00  0.6226E-07  0.7343E-11  0.1765E-03  0.0000E+00 -0.1987E+12
   -1.402493    4.01817  0.0000E+00  0.6221E-07  0.7745E-11  0.1681E-03  0.0000E+00 -0.2111E+12
   -1.444992    4.01860  0.0000E+00  0.6214E-07  0.8230E-11  0.1591E-03  0.0000E+00 -0.2239E+12
   -1.487490    4.01905  0.0000E+00  0.6203E-07  0.8832E-11  0.1490E-03  0.0000E+00 -0.2404E+12
   -1.529989    4.01953  0.0000E+00  0.6186E-07  0.9746E-11  0.1352E-03  0.0000E+00 -0.2779E+12
   -1.572487    4.02007  0.0000E+00  0.6149E-07  0.1168E-10  0.1170E-03  0.0000E+00 -0.3738E+12
   -1.614984    4.02079  0.0000E+00  0.5985E-07  0.2023E-10  0.4633E-04  0.0000E+00 -0.1082E+13
   -1.657482    4.02280  0.0000E+00  0.4298E-07  0.1206E-09  0.2277E-05  0.0000E+00 -0.3396E+14
   -1.699979    4.06179  0.0000E+00  0.0000E+00  0.0000E+00  0.0000E+00  0.0000E+00  0.0000E+00
