 1 - depth, m
 2 - temperature, C
 3 - salinity, kg/kg
 4 - turbulent kinetic energy, m**2/s**2
 5 - dissipation rate, m**2/s**3
 6 - kinematic heat conductance, m**2/s
 7 - modulus of horizontal velocity, m/s
 8 - Richardson number, n/d
   -0.000000    9.65114  0.0000E+00  0.1462E-03  0.9025E-04  0.6441E-04  0.1145E+00 -0.1042E-01
   -0.042497    9.68997  0.0000E+00  0.7874E-04  0.2456E-04  0.8891E-04  0.3171E-01 -0.2172E-01
   -0.084995    9.69803  0.0000E+00  0.5424E-04  0.9841E-05  0.8282E-04  0.2116E-01 -0.4568E-01
   -0.127493    9.70443  0.0000E+00  0.3931E-04  0.4750E-05  0.8153E-04  0.1610E-01 -0.2198E-01
   -0.169992    9.70985  0.0000E+00  0.2892E-04  0.2332E-05  0.8183E-04  0.1253E-01 -0.4916E-01
   -0.212490    9.71496  0.0000E+00  0.2134E-04  0.1132E-05  0.8318E-04  0.9719E-02 -0.5566E-01
   -0.254990    9.71993  0.0000E+00  0.1593E-04  0.5660E-06  0.8575E-04  0.7529E-02  0.9385E-01
   -0.297489    9.72467  0.0000E+00  0.1219E-04  0.3043E-06  0.9039E-04  0.5903E-02  0.1721E+02
   -0.339989    9.72902  0.0000E+00  0.9652E-05  0.1792E-06  0.9799E-04  0.4684E-02  0.1750E+01
   -0.382489    9.73293  0.0000E+00  0.7900E-05  0.1125E-06  0.1117E-03  0.3724E-02  0.7232E+01
   -0.424989    9.73636  0.0000E+00  0.6700E-05  0.7455E-07  0.1330E-03  0.2990E-02  0.2035E+02
   -0.467489    9.73931  0.0000E+00  0.5859E-05  0.5188E-07  0.1687E-03  0.2389E-02  0.4367E+03
   -0.509990    9.74173  0.0000E+00  0.5265E-05  0.3785E-07  0.2245E-03  0.1906E-02  0.2756E+03
   -0.552491    9.74361  0.0000E+00  0.4840E-05  0.2888E-07  0.2704E-03  0.1531E-02  0.4257E+02
   -0.594992    9.74515  0.0000E+00  0.4526E-05  0.2289E-07  0.3093E-03  0.1227E-02  0.1352E+02
   -0.637493    9.74645  0.0000E+00  0.4287E-05  0.1870E-07  0.3489E-03  0.9789E-03  0.8630E+03
   -0.679994    9.74755  0.0000E+00  0.4105E-05  0.1570E-07  0.3797E-03  0.7865E-03  0.1226E+02
   -0.722495    9.74853  0.0000E+00  0.3966E-05  0.1351E-07  0.4076E-03  0.6344E-03  0.3617E+01
   -0.764996    9.74942  0.0000E+00  0.3860E-05  0.1187E-07  0.4328E-03  0.5188E-03  0.2125E+01
   -0.807498    9.75024  0.0000E+00  0.3779E-05  0.1063E-07  0.4562E-03  0.4330E-03  0.1570E+01
   -0.849999    9.75101  0.0000E+00  0.3721E-05  0.9703E-08  0.4777E-03  0.3671E-03  0.1746E+01
   -0.892500    9.75173  0.0000E+00  0.3678E-05  0.8992E-08  0.4972E-03  0.3155E-03  0.1384E+01
   -0.935002    9.75243  0.0000E+00  0.3647E-05  0.8441E-08  0.5144E-03  0.2744E-03  0.1597E+01
   -0.977503    9.75310  0.0000E+00  0.3624E-05  0.8007E-08  0.5300E-03  0.2400E-03  0.1812E+01
   -1.020004    9.75375  0.0000E+00  0.3606E-05  0.7665E-08  0.5437E-03  0.2111E-03  0.2107E+01
   -1.062505    9.75439  0.0000E+00  0.3593E-05  0.7399E-08  0.5551E-03  0.1861E-03  0.2381E+01
   -1.105006    9.75502  0.0000E+00  0.3582E-05  0.7196E-08  0.5640E-03  0.1641E-03  0.2710E+01
   -1.147507    9.75565  0.0000E+00  0.3572E-05  0.7052E-08  0.5701E-03  0.1441E-03  0.3079E+01
   -1.190008    9.75627  0.0000E+00  0.3563E-05  0.6959E-08  0.5727E-03  0.1255E-03  0.3457E+01
   -1.232509    9.75690  0.0000E+00  0.3553E-05  0.6912E-08  0.5719E-03  0.1082E-03  0.3978E+01
   -1.275009    9.75753  0.0000E+00  0.3541E-05  0.6912E-08  0.5674E-03  0.9315E-04  0.5107E+01
   -1.317509    9.75817  0.0000E+00  0.3527E-05  0.6962E-08  0.5584E-03  0.7994E-04  0.6787E+01
   -1.360009    9.75882  0.0000E+00  0.3509E-05  0.7078E-08  0.5436E-03  0.6841E-04  0.9219E+01
   -1.402509    9.75950  0.0000E+00  0.3486E-05  0.7285E-08  0.5218E-03  0.5847E-04  0.1363E+02
   -1.445008    9.76020  0.0000E+00  0.3458E-05  0.7592E-08  0.4939E-03  0.4950E-04  0.2062E+02
   -1.487507    9.76096  0.0000E+00  0.3426E-05  0.8045E-08  0.4623E-03  0.4092E-04  0.2651E+02
   -1.530006    9.76177  0.0000E+00  0.3381E-05  0.8846E-08  0.4005E-03  0.3272E-04  0.3404E+02
   -1.572505    9.76271  0.0000E+00  0.3300E-05  0.1073E-07  0.4142E-03  0.2517E-04  0.5186E+02
   -1.615003    9.76362  0.0000E+00  0.2993E-05  0.2050E-07  0.1687E-03  0.2071E-04 -0.3774E+07
   -1.657501    9.76850  0.0000E+00  0.1917E-05  0.6778E-07  0.4238E-04  0.1302E-04 -0.3322E+05
   -1.699998    9.77800  0.0000E+00  0.0000E+00  0.0000E+00  0.0000E+00  0.1503E-04  0.0000E+00
