 1 - depth, m
 2 - temperature, C
 3 - salinity, kg/kg
 4 - turbulent kinetic energy, m**2/s**2
 5 - dissipation rate, m**2/s**3
 6 - kinematic heat conductance, m**2/s
 7 - modulus of horizontal velocity, m/s
 8 - Richardson number, n/d
   -0.000000    0.00000  0.0000E+00  0.1296E-09  0.1145E-12  0.1000E-09  0.0000E+00  0.3087E+17
   -0.042497    0.49582  0.0000E+00  0.4113E-09  0.1005E-12  0.1000E-09  0.0000E+00  0.2424E+17
   -0.084994    0.94513  0.0000E+00  0.9585E-09  0.1439E-12  0.1000E-09  0.0000E+00  0.1892E+17
   -0.127491    1.35163  0.0000E+00  0.1900E-08  0.2410E-12  0.1000E-09  0.0000E+00  0.1483E+17
   -0.169989    1.72341  0.0000E+00  0.3509E-08  0.4164E-12  0.1154E-09  0.0000E+00  0.1166E+17
   -0.212488    2.06786  0.0000E+00  0.6283E-08  0.7199E-12  0.2442E-09  0.0000E+00  0.9214E+16
   -0.254986    2.39426  0.0000E+00  0.1109E-07  0.1240E-11  0.5299E-09  0.0000E+00  0.7325E+16
   -0.297485    2.71487  0.0000E+00  0.1941E-07  0.2127E-11  0.1157E-08  0.0000E+00  0.5779E+16
   -0.339984    3.04557  0.0000E+00  0.3346E-07  0.3597E-11  0.2717E-08  0.0000E+00  0.4249E+16
   -0.382483    3.40307  0.0000E+00  0.5694E-07  0.6012E-11  0.1038E-07  0.0000E+00  0.2327E+16
   -0.424983    3.78770  0.0000E+00  0.8062E-07  0.8503E-11  0.6911E-04  0.0000E+00  0.5150E+15
   -0.467483    4.01945  0.0000E+00  0.8331E-07  0.8811E-11  0.2414E-03  0.0000E+00  0.7487E+13
   -0.509983    4.03166  0.0000E+00  0.8369E-07  0.8861E-11  0.2555E-03  0.0000E+00 -0.1894E+12
   -0.552483    4.03193  0.0000E+00  0.8403E-07  0.8913E-11  0.2557E-03  0.0000E+00 -0.1893E+12
   -0.594983    4.03220  0.0000E+00  0.8436E-07  0.8971E-11  0.2559E-03  0.0000E+00 -0.1901E+12
   -0.637484    4.03246  0.0000E+00  0.8469E-07  0.9037E-11  0.2559E-03  0.0000E+00 -0.1940E+12
   -0.679984    4.03273  0.0000E+00  0.8502E-07  0.9112E-11  0.2555E-03  0.0000E+00 -0.1994E+12
   -0.722485    4.03301  0.0000E+00  0.8535E-07  0.9197E-11  0.2549E-03  0.0000E+00 -0.2069E+12
   -0.764986    4.03329  0.0000E+00  0.8569E-07  0.9295E-11  0.2539E-03  0.0000E+00 -0.2171E+12
   -0.807487    4.03358  0.0000E+00  0.8603E-07  0.9407E-11  0.2526E-03  0.0000E+00 -0.2264E+12
   -0.849987    4.03389  0.0000E+00  0.8636E-07  0.9531E-11  0.2510E-03  0.0000E+00 -0.2366E+12
   -0.892488    4.03421  0.0000E+00  0.8668E-07  0.9670E-11  0.2492E-03  0.0000E+00 -0.2437E+12
   -0.934989    4.03453  0.0000E+00  0.8698E-07  0.9823E-11  0.2472E-03  0.0000E+00 -0.2481E+12
   -0.977490    4.03486  0.0000E+00  0.8726E-07  0.9990E-11  0.2448E-03  0.0000E+00 -0.2530E+12
   -1.019990    4.03519  0.0000E+00  0.8752E-07  0.1017E-10  0.2420E-03  0.0000E+00 -0.2581E+12
   -1.062491    4.03552  0.0000E+00  0.8775E-07  0.1037E-10  0.2388E-03  0.0000E+00 -0.2637E+12
   -1.104991    4.03587  0.0000E+00  0.8795E-07  0.1059E-10  0.2353E-03  0.0000E+00 -0.2691E+12
   -1.147492    4.03621  0.0000E+00  0.8812E-07  0.1082E-10  0.2316E-03  0.0000E+00 -0.2739E+12
   -1.189992    4.03656  0.0000E+00  0.8825E-07  0.1108E-10  0.2273E-03  0.0000E+00 -0.2817E+12
   -1.232492    4.03692  0.0000E+00  0.8836E-07  0.1136E-10  0.2223E-03  0.0000E+00 -0.2954E+12
   -1.274992    4.03729  0.0000E+00  0.8844E-07  0.1171E-10  0.2166E-03  0.0000E+00 -0.3114E+12
   -1.317491    4.03767  0.0000E+00  0.8848E-07  0.1213E-10  0.2099E-03  0.0000E+00 -0.3247E+12
   -1.359991    4.03808  0.0000E+00  0.8849E-07  0.1266E-10  0.2017E-03  0.0000E+00 -0.3437E+12
   -1.402490    4.03850  0.0000E+00  0.8845E-07  0.1336E-10  0.1920E-03  0.0000E+00 -0.3644E+12
   -1.444989    4.03894  0.0000E+00  0.8835E-07  0.1420E-10  0.1818E-03  0.0000E+00 -0.3862E+12
   -1.487487    4.03941  0.0000E+00  0.8820E-07  0.1525E-10  0.1701E-03  0.0000E+00 -0.4143E+12
   -1.529985    4.03990  0.0000E+00  0.8794E-07  0.1684E-10  0.1543E-03  0.0000E+00 -0.4741E+12
   -1.572483    4.04046  0.0000E+00  0.8738E-07  0.2022E-10  0.1329E-03  0.0000E+00 -0.6258E+12
   -1.614981    4.04119  0.0000E+00  0.8501E-07  0.3452E-10  0.6286E-04  0.0000E+00 -0.1465E+13
   -1.657478    4.04289  0.0000E+00  0.6103E-07  0.1981E-09  0.2714E-05  0.0000E+00 -0.4649E+14
   -1.699975    4.08195  0.0000E+00  0.0000E+00  0.0000E+00  0.0000E+00  0.0000E+00  0.0000E+00
