 1 - depth, m
 2 - temperature, C
 3 - salinity, kg/kg
 4 - turbulent kinetic energy, m**2/s**2
 5 - dissipation rate, m**2/s**3
 6 - kinematic heat conductance, m**2/s
 7 - modulus of horizontal velocity, m/s
 8 - Richardson number, n/d
   -0.000000    0.19904  0.0000E+00  0.2018E-02  0.3057E-01  0.1813E-03  0.7665E+00  0.1020E-02
   -0.042496    0.24727  0.0000E+00  0.1108E-02  0.1953E-01  0.3762E-03  0.1762E+00  0.1529E-01
   -0.084993    0.27893  0.0000E+00  0.7297E-03  0.8978E-02  0.4335E-03  0.9427E-01 -0.4282E-01
   -0.127490    0.28927  0.0000E+00  0.5475E-03  0.4974E-02  0.4204E-03  0.7132E-01  0.2295E-01
   -0.169987    0.29329  0.0000E+00  0.4399E-03  0.3263E-02  0.4160E-03  0.5830E-01  0.5728E-02
   -0.212485    0.29653  0.0000E+00  0.3609E-03  0.2354E-02  0.3941E-03  0.4876E-01  0.3799E-01
   -0.254983    0.29949  0.0000E+00  0.3010E-03  0.1749E-02  0.3979E-03  0.4182E-01  0.1848E+00
   -0.297481    0.30184  0.0000E+00  0.2550E-03  0.1284E-02  0.3996E-03  0.3741E-01  0.1081E+01
   -0.339980    0.30376  0.0000E+00  0.2199E-03  0.9347E-03  0.3961E-03  0.3417E-01  0.4302E+01
   -0.382479    0.30589  0.0000E+00  0.1920E-03  0.6806E-03  0.4029E-03  0.3071E-01  0.7058E+01
   -0.424978    0.30754  0.0000E+00  0.1693E-03  0.4852E-03  0.4041E-03  0.2846E-01  0.4715E+00
   -0.467477    0.30935  0.0000E+00  0.1514E-03  0.3310E-03  0.4085E-03  0.2585E-01  0.3046E+00
   -0.509977    0.31116  0.0000E+00  0.1366E-03  0.2152E-03  0.4051E-03  0.2331E-01  0.6142E+00
   -0.552476    0.31292  0.0000E+00  0.1241E-03  0.1358E-03  0.4088E-03  0.2099E-01  0.2056E+01
   -0.594976    0.31485  0.0000E+00  0.1129E-03  0.8558E-04  0.4067E-03  0.1864E-01  0.2718E+02
   -0.637476    0.31693  0.0000E+00  0.1031E-03  0.5444E-04  0.4100E-03  0.1660E-01  0.6752E+03
   -0.679976    0.31876  0.0000E+00  0.9443E-04  0.3489E-04  0.4126E-03  0.1500E-01  0.4575E+05
   -0.722476    0.32072  0.0000E+00  0.8669E-04  0.2230E-04  0.4148E-03  0.1359E-01  0.1405E+07
   -0.764977    0.32250  0.0000E+00  0.7973E-04  0.1400E-04  0.4182E-03  0.1240E-01 -0.4115E+08
   -0.807477    0.32398  0.0000E+00  0.7344E-04  0.8537E-05  0.4150E-03  0.1145E-01 -0.5083E+10
   -0.849977    0.32553  0.0000E+00  0.6778E-04  0.5156E-05  0.4109E-03  0.1058E-01 -0.1602E+09
   -0.892477    0.32726  0.0000E+00  0.6268E-04  0.3165E-05  0.4059E-03  0.9786E-02 -0.1344E+09
   -0.934978    0.32893  0.0000E+00  0.5811E-04  0.2054E-05  0.3987E-03  0.9082E-02  0.9394E+07
   -0.977478    0.33081  0.0000E+00  0.5401E-04  0.1443E-05  0.3916E-03  0.8410E-02 -0.1508E+08
   -1.019978    0.33261  0.0000E+00  0.5032E-04  0.1096E-05  0.3812E-03  0.7799E-02 -0.1038E+08
   -1.062478    0.33459  0.0000E+00  0.4700E-04  0.8859E-06  0.3712E-03  0.7208E-02 -0.1233E+08
   -1.104978    0.33633  0.0000E+00  0.4398E-04  0.7491E-06  0.3572E-03  0.6669E-02 -0.1712E+08
   -1.147478    0.33833  0.0000E+00  0.4127E-04  0.6560E-06  0.3384E-03  0.6138E-02  0.1190E+09
   -1.189978    0.34155  0.0000E+00  0.3877E-04  0.5892E-06  0.3238E-03  0.5555E-02  0.4849E+09
   -1.232477    0.34682  0.0000E+00  0.3644E-04  0.5412E-06  0.3121E-03  0.4989E-02  0.2498E+11
   -1.274976    0.35165  0.0000E+00  0.3422E-04  0.5074E-06  0.2989E-03  0.4489E-02  0.3229E+13
   -1.317476    0.35744  0.0000E+00  0.3207E-04  0.4874E-06  0.2833E-03  0.4028E-02  0.1562E+14
   -1.359974    0.36459  0.0000E+00  0.2995E-04  0.4838E-06  0.2705E-03  0.3605E-02 -0.2779E+12
   -1.402473    0.37055  0.0000E+00  0.2784E-04  0.5057E-06  0.2482E-03  0.3243E-02  0.4592E+13
   -1.444971    0.37730  0.0000E+00  0.2584E-04  0.5625E-06  0.2202E-03  0.2898E-02  0.9067E+14
   -1.487469    0.39671  0.0000E+00  0.2391E-04  0.6720E-06  0.1928E-03  0.2516E-02  0.5232E+15
   -1.529967    0.45749  0.0000E+00  0.2184E-04  0.8941E-06  0.1687E-03  0.2033E-02  0.1317E+16
   -1.572465    0.55024  0.0000E+00  0.1967E-04  0.1434E-05  0.1491E-03  0.1621E-02  0.5122E+15
   -1.614962    0.57812  0.0000E+00  0.1596E-04  0.3318E-05  0.8602E-04  0.1375E-02  0.1286E+16
   -1.657458    0.63815  0.0000E+00  0.1025E-04  0.8350E-05  0.2232E-04  0.1086E-02  0.1353E+16
   -1.699954    0.78620  0.0000E+00  0.0000E+00  0.0000E+00  0.0000E+00  0.1605E-02  0.0000E+00
