 1 - depth, m
 2 - temperature, C
 3 - salinity, kg/kg
 4 - turbulent kinetic energy, m**2/s**2
 5 - dissipation rate, m**2/s**3
 6 - kinematic heat conductance, m**2/s
 7 - modulus of horizontal velocity, m/s
 8 - Richardson number, n/d
   -0.000000   15.13188  0.0000E+00  0.1304E-03  0.5303E-04  0.5155E-04  0.8819E-01 -0.1932E-01
   -0.042498   15.15847  0.0000E+00  0.7274E-04  0.1694E-04  0.9861E-04  0.2284E-01 -0.8529E-01
   -0.084996   15.16423  0.0000E+00  0.5252E-04  0.8237E-05  0.1026E-03  0.1556E-01  0.8803E+01
   -0.127495   15.16803  0.0000E+00  0.3920E-04  0.4338E-05  0.1077E-03  0.1207E-01  0.1244E+03
   -0.169994   15.17097  0.0000E+00  0.2952E-04  0.2340E-05  0.1168E-03  0.9554E-02  0.1635E+02
   -0.212493   15.17346  0.0000E+00  0.2236E-04  0.1279E-05  0.1274E-03  0.7572E-02  0.3675E+02
   -0.254993   15.17563  0.0000E+00  0.1710E-04  0.7127E-06  0.1400E-03  0.6030E-02  0.1530E+02
   -0.297493   15.17753  0.0000E+00  0.1333E-04  0.4099E-06  0.1559E-03  0.4873E-02  0.6175E+01
   -0.339993   15.17921  0.0000E+00  0.1071E-04  0.2492E-06  0.1755E-03  0.3977E-02  0.8528E+03
   -0.382494   15.18073  0.0000E+00  0.8859E-05  0.1595E-06  0.2007E-03  0.3242E-02  0.1782E+02
   -0.424994   15.18206  0.0000E+00  0.7557E-05  0.1067E-06  0.2317E-03  0.2665E-02  0.1071E+02
   -0.467495   15.18323  0.0000E+00  0.6617E-05  0.7389E-07  0.2628E-03  0.2187E-02  0.1233E+02
   -0.509996   15.18426  0.0000E+00  0.5925E-05  0.5276E-07  0.2982E-03  0.1788E-02  0.9366E+01
   -0.552498   15.18516  0.0000E+00  0.5410E-05  0.3886E-07  0.3367E-03  0.1457E-02  0.8731E+01
   -0.594999   15.18595  0.0000E+00  0.5021E-05  0.2957E-07  0.3740E-03  0.1179E-02  0.4253E+02
   -0.637501   15.18665  0.0000E+00  0.4719E-05  0.2313E-07  0.4078E-03  0.9463E-03  0.4272E+03
   -0.680003   15.18728  0.0000E+00  0.4487E-05  0.1863E-07  0.4402E-03  0.7598E-03  0.4924E+01
   -0.722504   15.18784  0.0000E+00  0.4314E-05  0.1547E-07  0.4711E-03  0.6111E-03  0.4293E+01
   -0.765006   15.18834  0.0000E+00  0.4188E-05  0.1323E-07  0.5008E-03  0.4970E-03  0.1861E+02
   -0.807508   15.18879  0.0000E+00  0.4100E-05  0.1165E-07  0.5281E-03  0.4122E-03  0.4881E+02
   -0.850010   15.18919  0.0000E+00  0.4047E-05  0.1054E-07  0.5537E-03  0.3474E-03  0.2641E+01
   -0.892512   15.18956  0.0000E+00  0.4018E-05  0.9769E-08  0.5765E-03  0.2974E-03  0.2554E+01
   -0.935014   15.18992  0.0000E+00  0.4007E-05  0.9216E-08  0.5946E-03  0.2584E-03  0.2061E+01
   -0.977516   15.19027  0.0000E+00  0.4007E-05  0.8812E-08  0.6103E-03  0.2260E-03  0.2394E+01
   -1.020017   15.19063  0.0000E+00  0.4015E-05  0.8521E-08  0.6235E-03  0.1989E-03  0.2817E+01
   -1.062519   15.19099  0.0000E+00  0.4029E-05  0.8322E-08  0.6341E-03  0.1755E-03  0.3310E+01
   -1.105021   15.19135  0.0000E+00  0.4045E-05  0.8197E-08  0.6416E-03  0.1551E-03  0.3854E+01
   -1.147522   15.19173  0.0000E+00  0.4063E-05  0.8137E-08  0.6458E-03  0.1366E-03  0.4570E+01
   -1.190024   15.19213  0.0000E+00  0.4078E-05  0.8133E-08  0.6463E-03  0.1195E-03  0.5208E+01
   -1.232525   15.19255  0.0000E+00  0.4091E-05  0.8180E-08  0.6431E-03  0.1036E-03  0.6139E+01
   -1.275026   15.19298  0.0000E+00  0.4101E-05  0.8284E-08  0.6355E-03  0.8970E-04  0.7830E+01
   -1.317526   15.19343  0.0000E+00  0.4107E-05  0.8453E-08  0.6225E-03  0.7748E-04  0.1047E+02
   -1.360027   15.19390  0.0000E+00  0.4107E-05  0.8712E-08  0.6027E-03  0.6672E-04  0.1412E+02
   -1.402527   15.19439  0.0000E+00  0.4101E-05  0.9103E-08  0.5744E-03  0.5730E-04  0.2116E+02
   -1.445027   15.19492  0.0000E+00  0.4088E-05  0.9629E-08  0.5385E-03  0.4878E-04  0.3228E+02
   -1.487527   15.19550  0.0000E+00  0.4065E-05  0.1035E-07  0.5014E-03  0.4053E-04  0.4243E+02
   -1.530026   15.19616  0.0000E+00  0.4022E-05  0.1157E-07  0.4231E-03  0.3265E-04  0.5663E+02
   -1.572525   15.19696  0.0000E+00  0.3932E-05  0.1435E-07  0.4539E-03  0.2523E-04  0.8130E+02
   -1.615024   15.19770  0.0000E+00  0.3560E-05  0.2877E-07  0.1770E-03  0.2092E-04 -0.1704E+07
   -1.657522   15.20208  0.0000E+00  0.2307E-05  0.9371E-07  0.4972E-04  0.1317E-04 -0.4190E+05
   -1.700020   15.20975  0.0000E+00  0.0000E+00  0.0000E+00  0.0000E+00  0.1520E-04  0.0000E+00
