 1 - depth, m
 2 - temperature, C
 3 - salinity, kg/kg
 4 - turbulent kinetic energy, m**2/s**2
 5 - dissipation rate, m**2/s**3
 6 - kinematic heat conductance, m**2/s
 7 - modulus of horizontal velocity, m/s
 8 - Richardson number, n/d
   -0.000000   11.75205  0.0000E+00  0.1029E-02  0.2535E-02  0.1247E-03  0.3769E+00  0.1510E-01
   -0.042498   11.80910  0.0000E+00  0.4838E-03  0.8154E-03  0.3090E-03  0.7860E-01 -0.3684E-01
   -0.084996   11.82108  0.0000E+00  0.3381E-03  0.4021E-03  0.2869E-03  0.4897E-01 -0.4602E-01
   -0.127495   11.82731  0.0000E+00  0.2564E-03  0.2345E-03  0.2380E-03  0.4021E-01 -0.3065E-01
   -0.169994   11.83110  0.0000E+00  0.1909E-03  0.1161E-03  0.2059E-03  0.3335E-01 -0.1166E+00
   -0.212493   11.83480  0.0000E+00  0.1441E-03  0.6378E-04  0.1921E-03  0.2759E-01 -0.4024E-01
   -0.254993   11.83802  0.0000E+00  0.1076E-03  0.3447E-04  0.1826E-03  0.2298E-01 -0.4440E+00
   -0.297492   11.84122  0.0000E+00  0.8145E-04  0.1919E-04  0.1806E-03  0.1948E-01  0.1372E+00
   -0.339993   11.84419  0.0000E+00  0.6369E-04  0.1093E-04  0.1798E-03  0.1668E-01  0.4729E+01
   -0.382493   11.84710  0.0000E+00  0.5127E-04  0.6368E-05  0.1836E-03  0.1407E-01  0.5528E+02
   -0.424994   11.84953  0.0000E+00  0.4239E-04  0.3742E-05  0.1861E-03  0.1210E-01  0.2874E+02
   -0.467495   11.85184  0.0000E+00  0.3573E-04  0.2199E-05  0.1916E-03  0.1023E-01  0.5263E+02
   -0.509996   11.85396  0.0000E+00  0.3061E-04  0.1316E-05  0.1990E-03  0.8585E-02  0.7904E+01
   -0.552497   11.85595  0.0000E+00  0.2662E-04  0.8274E-06  0.2080E-03  0.7183E-02  0.2631E+02
   -0.594998   11.85780  0.0000E+00  0.2341E-04  0.5590E-06  0.2208E-03  0.5960E-02  0.3188E+01
   -0.637500   11.85946  0.0000E+00  0.2070E-04  0.4023E-06  0.2360E-03  0.4940E-02  0.7070E+02
   -0.680002   11.86095  0.0000E+00  0.1841E-04  0.3045E-06  0.2550E-03  0.4133E-02  0.6223E+01
   -0.722503   11.86231  0.0000E+00  0.1646E-04  0.2381E-06  0.2766E-03  0.3477E-02  0.1976E+02
   -0.765005   11.86352  0.0000E+00  0.1478E-04  0.1898E-06  0.3038E-03  0.2957E-02  0.7746E+04
   -0.807507   11.86461  0.0000E+00  0.1333E-04  0.1529E-06  0.3376E-03  0.2550E-02  0.1279E+03
   -0.850009   11.86559  0.0000E+00  0.1209E-04  0.1245E-06  0.3692E-03  0.2217E-02  0.3595E+02
   -0.892511   11.86647  0.0000E+00  0.1102E-04  0.1021E-06  0.3992E-03  0.1938E-02  0.5393E+02
   -0.935012   11.86728  0.0000E+00  0.1011E-04  0.8438E-07  0.4272E-03  0.1703E-02  0.3275E+02
   -0.977514   11.86803  0.0000E+00  0.9326E-05  0.7030E-07  0.4560E-03  0.1499E-02  0.5648E+02
   -1.020016   11.86871  0.0000E+00  0.8651E-05  0.5903E-07  0.4830E-03  0.1322E-02  0.6636E+02
   -1.062518   11.86933  0.0000E+00  0.8072E-05  0.5005E-07  0.5055E-03  0.1164E-02  0.5020E+02
   -1.105019   11.86992  0.0000E+00  0.7570E-05  0.4281E-07  0.5202E-03  0.1023E-02  0.7244E+02
   -1.147521   11.87048  0.0000E+00  0.7144E-05  0.3710E-07  0.5298E-03  0.8913E-03  0.4260E+02
   -1.190022   11.87103  0.0000E+00  0.6784E-05  0.3268E-07  0.5361E-03  0.7650E-03  0.3382E+02
   -1.232523   11.87155  0.0000E+00  0.6469E-05  0.2916E-07  0.5412E-03  0.6466E-03  0.2289E+02
   -1.275024   11.87207  0.0000E+00  0.6189E-05  0.2637E-07  0.5431E-03  0.5439E-03  0.5203E+02
   -1.317524   11.87258  0.0000E+00  0.5939E-05  0.2421E-07  0.5404E-03  0.4562E-03  0.3805E+02
   -1.360025   11.87309  0.0000E+00  0.5711E-05  0.2259E-07  0.5331E-03  0.3827E-03  0.7347E+02
   -1.402525   11.87360  0.0000E+00  0.5497E-05  0.2148E-07  0.5192E-03  0.3225E-03  0.7903E+02
   -1.445025   11.87412  0.0000E+00  0.5311E-05  0.2108E-07  0.4951E-03  0.2710E-03  0.1689E+03
   -1.487525   11.87467  0.0000E+00  0.5149E-05  0.2159E-07  0.4659E-03  0.2230E-03  0.1816E+03
   -1.530024   11.87526  0.0000E+00  0.4977E-05  0.2383E-07  0.4156E-03  0.1777E-03  0.1763E+03
   -1.572523   11.87597  0.0000E+00  0.4740E-05  0.3051E-07  0.3645E-03  0.1356E-03  0.4382E+03
   -1.615021   11.87674  0.0000E+00  0.4176E-05  0.5981E-07  0.2345E-03  0.1078E-03 -0.3724E+05
   -1.657520   11.87885  0.0000E+00  0.2702E-05  0.1595E-06  0.3588E-04  0.7920E-04 -0.1120E+08
   -1.700018   11.89032  0.0000E+00  0.0000E+00  0.0000E+00  0.0000E+00  0.9395E-04  0.0000E+00
