 1 - depth, m
 2 - temperature, C
 3 - salinity, kg/kg
 4 - turbulent kinetic energy, m**2/s**2
 5 - dissipation rate, m**2/s**3
 6 - kinematic heat conductance, m**2/s
 7 - modulus of horizontal velocity, m/s
 8 - Richardson number, n/d
   -0.000000    0.00000  0.0000E+00  0.5670E-04  0.1675E-04  0.3557E-04  0.5639E-01  0.3927E-02
   -0.042496    0.00470  0.0000E+00  0.3290E-04  0.4705E-05  0.4422E-04  0.2063E-01  0.1206E-01
   -0.084993    0.00769  0.0000E+00  0.2296E-04  0.1928E-05  0.4720E-04  0.1402E-01  0.1061E+00
   -0.127489    0.01074  0.0000E+00  0.1656E-04  0.8726E-06  0.4847E-04  0.1029E-01  0.2770E+01
   -0.169987    0.01427  0.0000E+00  0.1204E-04  0.4262E-06  0.4754E-04  0.7698E-02  0.1033E+03
   -0.212484    0.01848  0.0000E+00  0.8691E-05  0.2200E-06  0.4496E-04  0.5753E-02  0.3909E+04
   -0.254982    0.02286  0.0000E+00  0.6199E-05  0.1176E-06  0.4138E-04  0.4319E-02  0.9843E+05
   -0.297480    0.02631  0.0000E+00  0.4410E-05  0.6476E-07  0.3687E-04  0.3303E-02  0.9943E+06
   -0.339979    0.02893  0.0000E+00  0.3157E-05  0.3674E-07  0.3181E-04  0.2565E-02  0.6690E+08
   -0.382477    0.03200  0.0000E+00  0.2257E-05  0.2120E-07  0.2714E-04  0.1986E-02  0.9719E+09
   -0.424976    0.03441  0.0000E+00  0.1624E-05  0.1259E-07  0.2200E-04  0.1554E-02  0.1347E+12
   -0.467476    0.03922  0.0000E+00  0.1160E-05  0.7604E-08  0.1709E-04  0.1182E-02  0.4716E+13
   -0.509975    0.04719  0.0000E+00  0.8099E-06  0.4601E-08  0.1246E-04  0.8634E-03  0.9552E+14
   -0.552474    0.06126  0.0000E+00  0.5426E-06  0.2745E-08  0.8111E-05  0.5976E-03  0.3027E+15
   -0.594974    0.08692  0.0000E+00  0.3364E-06  0.1557E-08  0.4518E-05  0.3706E-03  0.5767E+15
   -0.637474    0.12774  0.0000E+00  0.1798E-06  0.7807E-09  0.2045E-05  0.1943E-03  0.7974E+15
   -0.679974    0.18743  0.0000E+00  0.8053E-07  0.3337E-09  0.6618E-06  0.8520E-04  0.9806E+15
   -0.722474    0.26829  0.0000E+00  0.2633E-07  0.1052E-09  0.9484E-07  0.2922E-04  0.9759E+15
   -0.764974    0.34981  0.0000E+00  0.5259E-08  0.2018E-10  0.1866E-07  0.5798E-05  0.7491E+15
   -0.807474    0.40844  0.0000E+00  0.7466E-09  0.2728E-11  0.3724E-08  0.8353E-06  0.5876E+15
   -0.849974    0.44676  0.0000E+00  0.8924E-10  0.3132E-12  0.5597E-09  0.9998E-07  0.4694E+15
   -0.892474    0.47054  0.0000E+00  0.1014E-10  0.3453E-13  0.1388E-09  0.1102E-07  0.5595E+15
   -0.934974    0.49214  0.0000E+00  0.1133E-11  0.3810E-14  0.1001E-09  0.1380E-08  0.1487E+16
   -0.977474    0.53394  0.0000E+00  0.1500E-12  0.4521E-15  0.1000E-09  0.1624E-09  0.2741E+16
   -1.019974    0.59283  0.0000E+00  0.7095E-13  0.1002E-15  0.1000E-09  0.2189E-10  0.4646E+16
   -1.062474    0.68567  0.0000E+00  0.2011E-12  0.1488E-15  0.1000E-09  0.2828E-11  0.6837E+16
   -1.104974    0.81756  0.0000E+00  0.6929E-12  0.4561E-15  0.1000E-09  0.4397E-12  0.9553E+16
   -1.147474    1.00730  0.0000E+00  0.2372E-11  0.1496E-14  0.1000E-09  0.7908E-13  0.1209E+17
   -1.189973    1.26600  0.0000E+00  0.7973E-11  0.4888E-14  0.1000E-09  0.1058E-13  0.1312E+17
   -1.232473    1.57855  0.0000E+00  0.2717E-10  0.1623E-13  0.1000E-09  0.8080E-15  0.1176E+17
   -1.274972    1.90006  0.0000E+00  0.9238E-10  0.5383E-13  0.1000E-09  0.5553E-16  0.1036E+17
   -1.317471    2.23396  0.0000E+00  0.3129E-09  0.1781E-12  0.1128E-09  0.3329E-17  0.9652E+16
   -1.359969    2.61899  0.0000E+00  0.1061E-08  0.5904E-12  0.2932E-09  0.1712E-18  0.7965E+16
   -1.402468    3.05460  0.0000E+00  0.3601E-08  0.1963E-11  0.1722E-08  0.1032E-19  0.5260E+16
   -1.444966    3.54529  0.0000E+00  0.9754E-08  0.5428E-11  0.1428E-05  0.8034E-21  0.1919E+16
   -1.487464    3.95657  0.0000E+00  0.1636E-07  0.9664E-11  0.1040E-04  0.4527E-22  0.1334E+15
   -1.529962    4.06740  0.0000E+00  0.2116E-07  0.1373E-10  0.1446E-04  0.1254E-23 -0.7849E+13
   -1.572459    4.07401  0.0000E+00  0.2365E-07  0.1793E-10  0.1364E-04  0.1202E-24 -0.1061E+14
   -1.614956    4.08211  0.0000E+00  0.2541E-07  0.2876E-10  0.8067E-05  0.1563E-25 -0.2195E+14
   -1.657452    4.09679  0.0000E+00  0.2269E-07  0.6618E-10  0.2042E-05  0.1605E-26 -0.1181E+15
   -1.699948    4.15270  0.0000E+00  0.0000E+00  0.0000E+00  0.0000E+00  0.2128E-26  0.0000E+00
