 1 - depth, m
 2 - temperature, C
 3 - salinity, kg/kg
 4 - turbulent kinetic energy, m**2/s**2
 5 - dissipation rate, m**2/s**3
 6 - kinematic heat conductance, m**2/s
 7 - modulus of horizontal velocity, m/s
 8 - Richardson number, n/d
   -0.000000   12.54271  0.0000E+00  0.1425E-02  0.1228E-01  0.1101E-03  0.4826E+00  0.1802E-01
   -0.042498   12.60597  0.0000E+00  0.6816E-03  0.5507E-02  0.2562E-03  0.1033E+00 -0.1054E+00
   -0.084996   12.64008  0.0000E+00  0.4317E-03  0.2119E-02  0.3207E-03  0.5943E-01 -0.1176E+00
   -0.127494   12.65293  0.0000E+00  0.3179E-03  0.1315E-02  0.2656E-03  0.4494E-01 -0.4002E-01
   -0.169993   12.65961  0.0000E+00  0.2363E-03  0.7393E-03  0.2291E-03  0.3642E-01 -0.6476E-01
   -0.212492   12.66447  0.0000E+00  0.1796E-03  0.4544E-03  0.2126E-03  0.2935E-01  0.8476E-01
   -0.254992   12.66888  0.0000E+00  0.1356E-03  0.2921E-03  0.2074E-03  0.2368E-01 -0.1785E+01
   -0.297492   12.67367  0.0000E+00  0.1059E-03  0.1867E-03  0.2079E-03  0.1960E-01  0.1039E+02
   -0.339992   12.67768  0.0000E+00  0.8519E-04  0.1210E-03  0.2158E-03  0.1674E-01  0.1533E+03
   -0.382492   12.68076  0.0000E+00  0.7026E-04  0.7612E-04  0.2251E-03  0.1415E-01  0.1206E+02
   -0.424993   12.68323  0.0000E+00  0.5922E-04  0.4589E-04  0.2359E-03  0.1242E-01  0.1605E+02
   -0.467493   12.68549  0.0000E+00  0.5082E-04  0.2662E-04  0.2461E-03  0.1068E-01  0.6915E+02
   -0.509994   12.68780  0.0000E+00  0.4433E-04  0.1508E-04  0.2635E-03  0.9110E-02  0.3902E+03
   -0.552496   12.68960  0.0000E+00  0.3919E-04  0.8509E-05  0.2788E-03  0.7808E-02  0.1196E+04
   -0.594997   12.69146  0.0000E+00  0.3500E-04  0.4911E-05  0.2981E-03  0.6616E-02  0.1637E+03
   -0.637498   12.69299  0.0000E+00  0.3146E-04  0.2936E-05  0.3215E-03  0.5622E-02  0.1064E+03
   -0.680000   12.69434  0.0000E+00  0.2845E-04  0.1844E-05  0.3427E-03  0.4870E-02  0.2736E+03
   -0.722501   12.69555  0.0000E+00  0.2584E-04  0.1220E-05  0.3688E-03  0.4240E-02  0.8759E+02
   -0.765003   12.69670  0.0000E+00  0.2356E-04  0.8495E-06  0.3955E-03  0.3737E-02  0.5549E+02
   -0.807505   12.69763  0.0000E+00  0.2155E-04  0.6171E-06  0.4177E-03  0.3351E-02 -0.1764E+03
   -0.850007   12.69857  0.0000E+00  0.1979E-04  0.4673E-06  0.4452E-03  0.3019E-02 -0.7154E+02
   -0.892508   12.69938  0.0000E+00  0.1824E-04  0.3649E-06  0.4684E-03  0.2731E-02  0.6484E+03
   -0.935010   12.70020  0.0000E+00  0.1687E-04  0.2925E-06  0.4900E-03  0.2483E-02  0.3221E+03
   -0.977512   12.70094  0.0000E+00  0.1567E-04  0.2395E-06  0.5134E-03  0.2251E-02  0.4155E+03
   -1.020013   12.70166  0.0000E+00  0.1461E-04  0.1995E-06  0.5296E-03  0.2046E-02  0.4934E+03
   -1.062515   12.70232  0.0000E+00  0.1366E-04  0.1681E-06  0.5443E-03  0.1853E-02  0.3517E+03
   -1.105016   12.70299  0.0000E+00  0.1283E-04  0.1432E-06  0.5573E-03  0.1674E-02  0.4574E+03
   -1.147518   12.70359  0.0000E+00  0.1210E-04  0.1236E-06  0.5648E-03  0.1503E-02  0.4168E+03
   -1.190019   12.70420  0.0000E+00  0.1147E-04  0.1084E-06  0.5675E-03  0.1333E-02  0.4781E+03
   -1.232520   12.70478  0.0000E+00  0.1089E-04  0.9609E-07  0.5711E-03  0.1170E-02  0.5699E+03
   -1.275020   12.70535  0.0000E+00  0.1036E-04  0.8615E-07  0.5672E-03  0.1025E-02  0.5343E+04
   -1.317521   12.70591  0.0000E+00  0.9864E-05  0.7823E-07  0.5606E-03  0.8962E-03  0.1029E+04
   -1.360021   12.70646  0.0000E+00  0.9386E-05  0.7208E-07  0.5467E-03  0.7823E-03  0.1567E+04
   -1.402521   12.70703  0.0000E+00  0.8910E-05  0.6780E-07  0.5266E-03  0.6834E-03  0.2284E+04
   -1.445021   12.70761  0.0000E+00  0.8474E-05  0.6629E-07  0.4910E-03  0.5933E-03  0.4679E+04
   -1.487521   12.70824  0.0000E+00  0.8077E-05  0.6875E-07  0.4576E-03  0.5028E-03  0.4575E+04
   -1.530020   12.70891  0.0000E+00  0.7655E-05  0.7893E-07  0.4030E-03  0.4109E-03  0.5455E+04
   -1.572519   12.70975  0.0000E+00  0.7109E-05  0.1106E-06  0.3624E-03  0.3221E-03  0.1061E+05
   -1.615017   12.71059  0.0000E+00  0.5949E-05  0.2464E-06  0.2159E-03  0.2628E-03 -0.3317E+06
   -1.657515   12.71315  0.0000E+00  0.3878E-05  0.6575E-06  0.5163E-04  0.1998E-03 -0.6533E+08
   -1.700013   12.72336  0.0000E+00  0.0000E+00  0.0000E+00  0.0000E+00  0.2612E-03  0.0000E+00
