 1 - depth, m
 2 - temperature, C
 3 - salinity, kg/kg
 4 - turbulent kinetic energy, m**2/s**2
 5 - dissipation rate, m**2/s**3
 6 - kinematic heat conductance, m**2/s
 7 - modulus of horizontal velocity, m/s
 8 - Richardson number, n/d
   -0.000000    0.00000  0.0000E+00  0.1356E-07  0.3862E-10  0.1588E-08  0.0000E+00  0.7620E+17
   -0.042498    1.40267  0.0000E+00  0.1043E-06  0.3031E-10  0.2258E-08  0.0000E+00  0.4234E+17
   -0.084996    2.78741  0.0000E+00  0.2749E-06  0.4103E-10  0.1165E-07  0.0000E+00  0.1135E+17
   -0.127495    4.07347  0.0000E+00  0.2765E-06  0.4119E-10  0.5872E-03  0.0000E+00 -0.4707E+12
   -0.169994    4.07380  0.0000E+00  0.2772E-06  0.4127E-10  0.5806E-03  0.0000E+00 -0.4433E+12
   -0.212493    4.07413  0.0000E+00  0.2779E-06  0.4137E-10  0.5822E-03  0.0000E+00 -0.4376E+12
   -0.254993    4.07446  0.0000E+00  0.2786E-06  0.4147E-10  0.5836E-03  0.0000E+00 -0.4323E+12
   -0.297493    4.07478  0.0000E+00  0.2792E-06  0.4159E-10  0.5846E-03  0.0000E+00 -0.4277E+12
   -0.339993    4.07509  0.0000E+00  0.2797E-06  0.4172E-10  0.5854E-03  0.0000E+00 -0.4223E+12
   -0.382494    4.07540  0.0000E+00  0.2803E-06  0.4186E-10  0.5857E-03  0.0000E+00 -0.4189E+12
   -0.424994    4.07571  0.0000E+00  0.2807E-06  0.4202E-10  0.5857E-03  0.0000E+00 -0.4133E+12
   -0.467495    4.07601  0.0000E+00  0.2811E-06  0.4219E-10  0.5852E-03  0.0000E+00 -0.4100E+12
   -0.509997    4.07631  0.0000E+00  0.2815E-06  0.4237E-10  0.5845E-03  0.0000E+00 -0.4047E+12
   -0.552498    4.07660  0.0000E+00  0.2818E-06  0.4257E-10  0.5833E-03  0.0000E+00 -0.4013E+12
   -0.594999    4.07689  0.0000E+00  0.2821E-06  0.4279E-10  0.5817E-03  0.0000E+00 -0.3982E+12
   -0.637501    4.07717  0.0000E+00  0.2823E-06  0.4303E-10  0.5795E-03  0.0000E+00 -0.3978E+12
   -0.680003    4.07746  0.0000E+00  0.2825E-06  0.4331E-10  0.5768E-03  0.0000E+00 -0.3968E+12
   -0.722505    4.07774  0.0000E+00  0.2827E-06  0.4363E-10  0.5735E-03  0.0000E+00 -0.3992E+12
   -0.765006    4.07803  0.0000E+00  0.2828E-06  0.4400E-10  0.5695E-03  0.0000E+00 -0.4016E+12
   -0.807508    4.07831  0.0000E+00  0.2829E-06  0.4442E-10  0.5646E-03  0.0000E+00 -0.4048E+12
   -0.850010    4.07860  0.0000E+00  0.2830E-06  0.4490E-10  0.5592E-03  0.0000E+00 -0.4077E+12
   -0.892512    4.07888  0.0000E+00  0.2830E-06  0.4545E-10  0.5529E-03  0.0000E+00 -0.4116E+12
   -0.935014    4.07917  0.0000E+00  0.2830E-06  0.4606E-10  0.5463E-03  0.0000E+00 -0.4130E+12
   -0.977516    4.07946  0.0000E+00  0.2830E-06  0.4673E-10  0.5654E-03  0.0000E+00 -0.3787E+12
   -1.020018    4.07974  0.0000E+00  0.2829E-06  0.4746E-10  0.5308E-03  0.0000E+00 -0.4403E+12
   -1.062519    4.08003  0.0000E+00  0.2827E-06  0.4827E-10  0.5508E-03  0.0000E+00 -0.3862E+12
   -1.105021    4.08032  0.0000E+00  0.2826E-06  0.4917E-10  0.5113E-03  0.0000E+00 -0.4491E+12
   -1.147522    4.08061  0.0000E+00  0.2823E-06  0.5014E-10  0.5325E-03  0.0000E+00 -0.3944E+12
   -1.190024    4.08090  0.0000E+00  0.2821E-06  0.5121E-10  0.4893E-03  0.0000E+00 -0.4609E+12
   -1.232525    4.08120  0.0000E+00  0.2818E-06  0.5248E-10  0.4788E-03  0.0000E+00 -0.4535E+12
   -1.275026    4.08151  0.0000E+00  0.2815E-06  0.5404E-10  0.4655E-03  0.0000E+00 -0.4654E+12
   -1.317527    4.08183  0.0000E+00  0.2811E-06  0.5596E-10  0.4494E-03  0.0000E+00 -0.4817E+12
   -1.360027    4.08216  0.0000E+00  0.2806E-06  0.5843E-10  0.4297E-03  0.0000E+00 -0.5064E+12
   -1.402527    4.08250  0.0000E+00  0.2800E-06  0.6165E-10  0.4485E-03  0.0000E+00 -0.4681E+12
   -1.445027    4.08283  0.0000E+00  0.2794E-06  0.6550E-10  0.3756E-03  0.0000E+00 -0.5894E+12
   -1.487527    4.08322  0.0000E+00  0.2786E-06  0.7035E-10  0.3564E-03  0.0000E+00 -0.6043E+12
   -1.530026    4.08362  0.0000E+00  0.2776E-06  0.7796E-10  0.3235E-03  0.0000E+00 -0.6659E+12
   -1.572526    4.08407  0.0000E+00  0.2758E-06  0.9421E-10  0.2766E-03  0.0000E+00 -0.8169E+12
   -1.615024    4.08461  0.0000E+00  0.2691E-06  0.1597E-09  0.1715E-03  0.0000E+00 -0.1384E+13
   -1.657522    4.08554  0.0000E+00  0.1914E-06  0.1062E-08  0.4509E-05  0.0000E+00 -0.6268E+14
   -1.700020    4.12035  0.0000E+00  0.0000E+00  0.0000E+00  0.0000E+00  0.0000E+00  0.0000E+00
