 1 - depth, m
 2 - temperature, C
 3 - salinity, kg/kg
 4 - turbulent kinetic energy, m**2/s**2
 5 - dissipation rate, m**2/s**3
 6 - kinematic heat conductance, m**2/s
 7 - modulus of horizontal velocity, m/s
 8 - Richardson number, n/d
   -0.000000    0.00000  0.0000E+00  0.3189E-13  0.5206E-16  0.1000E-09  0.0000E+00  0.7175E+16
   -0.042497    0.10923  0.0000E+00  0.3189E-13  0.5206E-16  0.1000E-09  0.0000E+00  0.7232E+16
   -0.084995    0.22276  0.0000E+00  0.3189E-13  0.5206E-16  0.1000E-09  0.0000E+00  0.7254E+16
   -0.127493    0.34042  0.0000E+00  0.3189E-13  0.5206E-16  0.1000E-09  0.0000E+00  0.7014E+16
   -0.169992    0.45815  0.0000E+00  0.3189E-13  0.5206E-16  0.1000E-09  0.0000E+00  0.6783E+16
   -0.212491    0.57610  0.0000E+00  0.3189E-13  0.5206E-16  0.1000E-09  0.0000E+00  0.6561E+16
   -0.254990    0.69446  0.0000E+00  0.3189E-13  0.5206E-16  0.1000E-09  0.0000E+00  0.6346E+16
   -0.297490    0.81338  0.0000E+00  0.3189E-13  0.5206E-16  0.1000E-09  0.0000E+00  0.6126E+16
   -0.339989    0.93281  0.0000E+00  0.3189E-13  0.5206E-16  0.1000E-09  0.0000E+00  0.5899E+16
   -0.382489    1.05264  0.0000E+00  0.3189E-13  0.5206E-16  0.1000E-09  0.0000E+00  0.5671E+16
   -0.424990    1.17289  0.0000E+00  0.3189E-13  0.5206E-16  0.1000E-09  0.0000E+00  0.5432E+16
   -0.467490    1.29335  0.0000E+00  0.3189E-13  0.5206E-16  0.1000E-09  0.0000E+00  0.5192E+16
   -0.509991    1.41402  0.0000E+00  0.3189E-13  0.5206E-16  0.1000E-09  0.0000E+00  0.4955E+16
   -0.552492    1.53495  0.0000E+00  0.3189E-13  0.5206E-16  0.1000E-09  0.0000E+00  0.4715E+16
   -0.594993    1.65610  0.0000E+00  0.3189E-13  0.5206E-16  0.1000E-09  0.0000E+00  0.4479E+16
   -0.637494    1.77757  0.0000E+00  0.3189E-13  0.5206E-16  0.1000E-09  0.0000E+00  0.4250E+16
   -0.679995    1.89960  0.0000E+00  0.3189E-13  0.5206E-16  0.1000E-09  0.0000E+00  0.4015E+16
   -0.722496    2.02210  0.0000E+00  0.3189E-13  0.5206E-16  0.1000E-09  0.0000E+00  0.3782E+16
   -0.764998    2.14517  0.0000E+00  0.3189E-13  0.5206E-16  0.1000E-09  0.0000E+00  0.3544E+16
   -0.807499    2.26875  0.0000E+00  0.3189E-13  0.5206E-16  0.1000E-09  0.0000E+00  0.3288E+16
   -0.850000    2.39219  0.0000E+00  0.3189E-13  0.5206E-16  0.1000E-09  0.0000E+00  0.3023E+16
   -0.892502    2.51504  0.0000E+00  0.3189E-13  0.5206E-16  0.1000E-09  0.0000E+00  0.2770E+16
   -0.935003    2.63766  0.0000E+00  0.9855E-13  0.5206E-16  0.1000E-09  0.0000E+00  0.2516E+16
   -0.977505    2.75987  0.0000E+00  0.3001E-12  0.1039E-15  0.1000E-09  0.0000E+00  0.2263E+16
   -1.020006    2.88153  0.0000E+00  0.7728E-12  0.2426E-15  0.1000E-09  0.0000E+00  0.2002E+16
   -1.062507    3.00185  0.0000E+00  0.1877E-11  0.5664E-15  0.1000E-09  0.0000E+00  0.1746E+16
   -1.105008    3.12055  0.0000E+00  0.4454E-11  0.1306E-14  0.1000E-09  0.0000E+00  0.1490E+16
   -1.147509    3.23678  0.0000E+00  0.1034E-10  0.2952E-14  0.1000E-09  0.0000E+00  0.1241E+16
   -1.190010    3.34989  0.0000E+00  0.2370E-10  0.6599E-14  0.1000E-09  0.0000E+00  0.1012E+16
   -1.232511    3.46002  0.0000E+00  0.5532E-10  0.1501E-13  0.1000E-09  0.0000E+00  0.8049E+15
   -1.275011    3.56800  0.0000E+00  0.1301E-09  0.3442E-13  0.1756E-09  0.0000E+00  0.6146E+15
   -1.317512    3.67491  0.0000E+00  0.3069E-09  0.7922E-13  0.5563E-09  0.0000E+00  0.4462E+15
   -1.360012    3.78574  0.0000E+00  0.7280E-09  0.1835E-12  0.2213E-08  0.0000E+00  0.2592E+15
   -1.402511    3.90135  0.0000E+00  0.1721E-08  0.4244E-12  0.2395E-07  0.0000E+00  0.5408E+14
   -1.445011    4.00412  0.0000E+00  0.2890E-08  0.7171E-12  0.4509E-05  0.0000E+00 -0.1100E+13
   -1.487510    4.00770  0.0000E+00  0.3469E-08  0.9238E-12  0.4765E-05  0.0000E+00 -0.1235E+13
   -1.530009    4.01112  0.0000E+00  0.4004E-08  0.1227E-11  0.4843E-05  0.0000E+00 -0.1646E+13
   -1.572507    4.01504  0.0000E+00  0.4581E-08  0.1817E-11  0.4977E-05  0.0000E+00 -0.2933E+13
   -1.615006    4.02095  0.0000E+00  0.5001E-08  0.3362E-11  0.2673E-05  0.0000E+00 -0.7782E+13
   -1.657503    4.03315  0.0000E+00  0.4318E-08  0.7781E-11  0.6199E-06  0.0000E+00 -0.4513E+14
   -1.700001    4.07554  0.0000E+00  0.0000E+00  0.0000E+00  0.0000E+00  0.0000E+00  0.0000E+00
