 1 - depth, m
 2 - temperature, C
 3 - salinity, kg/kg
 4 - turbulent kinetic energy, m**2/s**2
 5 - dissipation rate, m**2/s**3
 6 - kinematic heat conductance, m**2/s
 7 - modulus of horizontal velocity, m/s
 8 - Richardson number, n/d
   -0.000000    0.00000  0.0000E+00  0.3189E-13  0.5206E-16  0.1000E-09  0.0000E+00  0.1203E+17
   -0.042497    0.18497  0.0000E+00  0.3189E-13  0.5206E-16  0.1000E-09  0.0000E+00  0.1193E+17
   -0.084995    0.37846  0.0000E+00  0.7920E-13  0.5206E-16  0.1000E-09  0.0000E+00  0.1169E+17
   -0.127493    0.57941  0.0000E+00  0.2579E-12  0.5454E-16  0.1000E-09  0.0000E+00  0.1079E+17
   -0.169992    0.77669  0.0000E+00  0.5812E-12  0.8432E-16  0.1000E-09  0.0000E+00  0.9903E+16
   -0.212491    0.96975  0.0000E+00  0.1132E-11  0.1442E-15  0.1000E-09  0.0000E+00  0.9020E+16
   -0.254990    1.15766  0.0000E+00  0.2079E-11  0.2507E-15  0.1000E-09  0.0000E+00  0.8153E+16
   -0.297490    1.33953  0.0000E+00  0.3717E-11  0.4352E-15  0.1000E-09  0.0000E+00  0.7356E+16
   -0.339990    1.51562  0.0000E+00  0.6505E-11  0.7460E-15  0.1000E-09  0.0000E+00  0.6648E+16
   -0.382490    1.68685  0.0000E+00  0.1127E-10  0.1269E-14  0.1000E-09  0.0000E+00  0.5979E+16
   -0.424990    1.85302  0.0000E+00  0.1933E-10  0.2141E-14  0.1000E-09  0.0000E+00  0.5398E+16
   -0.467490    2.01552  0.0000E+00  0.3292E-10  0.3586E-14  0.1000E-09  0.0000E+00  0.4849E+16
   -0.509991    2.17429  0.0000E+00  0.5581E-10  0.5981E-14  0.1000E-09  0.0000E+00  0.4428E+16
   -0.552492    2.33297  0.0000E+00  0.9436E-10  0.9950E-14  0.1000E-09  0.0000E+00  0.4030E+16
   -0.594993    2.49239  0.0000E+00  0.1590E-09  0.1651E-13  0.1000E-09  0.0000E+00  0.3637E+16
   -0.637494    2.65296  0.0000E+00  0.2698E-09  0.2755E-13  0.1000E-09  0.0000E+00  0.3247E+16
   -0.679995    2.81524  0.0000E+00  0.4588E-09  0.4611E-13  0.1000E-09  0.0000E+00  0.2852E+16
   -0.722497    2.97953  0.0000E+00  0.7824E-09  0.7742E-13  0.1020E-09  0.0000E+00  0.2449E+16
   -0.764998    3.14638  0.0000E+00  0.1338E-08  0.1304E-12  0.2020E-09  0.0000E+00  0.2032E+16
   -0.807500    3.31609  0.0000E+00  0.2289E-08  0.2196E-12  0.4348E-09  0.0000E+00  0.1590E+16
   -0.850001    3.48824  0.0000E+00  0.3876E-08  0.3662E-12  0.1022E-08  0.0000E+00  0.1128E+16
   -0.892503    3.66229  0.0000E+00  0.6532E-08  0.6082E-12  0.2932E-08  0.0000E+00  0.6535E+15
   -0.935004    3.83836  0.0000E+00  0.1082E-07  0.9938E-12  0.1848E-07  0.0000E+00  0.1700E+15
   -0.977505    4.00151  0.0000E+00  0.1132E-07  0.1042E-11  0.4846E-04  0.0000E+00 -0.1319E+12
   -1.020007    4.00205  0.0000E+00  0.1156E-07  0.1069E-11  0.4789E-04  0.0000E+00 -0.1397E+12
   -1.062508    4.00261  0.0000E+00  0.1179E-07  0.1099E-11  0.4835E-04  0.0000E+00 -0.1449E+12
   -1.105009    4.00317  0.0000E+00  0.1200E-07  0.1132E-11  0.4867E-04  0.0000E+00 -0.1495E+12
   -1.147510    4.00373  0.0000E+00  0.1220E-07  0.1167E-11  0.4879E-04  0.0000E+00 -0.1538E+12
   -1.190011    4.00428  0.0000E+00  0.1238E-07  0.1204E-11  0.4868E-04  0.0000E+00 -0.1602E+12
   -1.232512    4.00484  0.0000E+00  0.1255E-07  0.1247E-11  0.4848E-04  0.0000E+00 -0.1723E+12
   -1.275012    4.00543  0.0000E+00  0.1271E-07  0.1298E-11  0.4800E-04  0.0000E+00 -0.1864E+12
   -1.317512    4.00604  0.0000E+00  0.1286E-07  0.1358E-11  0.4711E-04  0.0000E+00 -0.2004E+12
   -1.360013    4.00668  0.0000E+00  0.1300E-07  0.1433E-11  0.4579E-04  0.0000E+00 -0.2195E+12
   -1.402512    4.00736  0.0000E+00  0.1313E-07  0.1531E-11  0.4394E-04  0.0000E+00 -0.2403E+12
   -1.445012    4.00808  0.0000E+00  0.1323E-07  0.1647E-11  0.4165E-04  0.0000E+00 -0.2609E+12
   -1.487511    4.00883  0.0000E+00  0.1330E-07  0.1791E-11  0.3879E-04  0.0000E+00 -0.2911E+12
   -1.530010    4.00964  0.0000E+00  0.1334E-07  0.2011E-11  0.3516E-04  0.0000E+00 -0.3643E+12
   -1.572509    4.01062  0.0000E+00  0.1333E-07  0.2474E-11  0.3009E-04  0.0000E+00 -0.5916E+12
   -1.615007    4.01213  0.0000E+00  0.1295E-07  0.4441E-11  0.1194E-04  0.0000E+00 -0.1863E+13
   -1.657505    4.01639  0.0000E+00  0.9971E-08  0.1684E-10  0.1191E-05  0.0000E+00 -0.3008E+14
   -1.700002    4.05521  0.0000E+00  0.0000E+00  0.0000E+00  0.0000E+00  0.0000E+00  0.0000E+00
