 1 - depth, m
 2 - temperature, C
 3 - salinity, kg/kg
 4 - turbulent kinetic energy, m**2/s**2
 5 - dissipation rate, m**2/s**3
 6 - kinematic heat conductance, m**2/s
 7 - modulus of horizontal velocity, m/s
 8 - Richardson number, n/d
   -0.000000    7.73805  0.0000E+00  0.7053E-03  0.1466E-02  0.8192E-04  0.2837E+00 -0.1132E-03
   -0.042497    7.81382  0.0000E+00  0.3487E-03  0.4178E-03  0.2666E-03  0.6004E-01  0.1046E-01
   -0.084995    7.82842  0.0000E+00  0.2488E-03  0.2110E-03  0.2509E-03  0.3805E-01 -0.2564E-01
   -0.127493    7.83906  0.0000E+00  0.1923E-03  0.1281E-03  0.2213E-03  0.3089E-01  0.1138E+01
   -0.169992    7.84635  0.0000E+00  0.1500E-03  0.7542E-04  0.2033E-03  0.2562E-01 -0.4928E-01
   -0.212490    7.85277  0.0000E+00  0.1173E-03  0.4732E-04  0.1913E-03  0.2130E-01 -0.5879E-01
   -0.254990    7.85875  0.0000E+00  0.9206E-04  0.3035E-04  0.1856E-03  0.1786E-01 -0.2950E+00
   -0.297489    7.86458  0.0000E+00  0.7271E-04  0.1941E-04  0.1839E-03  0.1532E-01  0.6168E-01
   -0.339989    7.86987  0.0000E+00  0.5878E-04  0.1268E-04  0.1844E-03  0.1335E-01  0.4274E+00
   -0.382489    7.87446  0.0000E+00  0.4856E-04  0.8226E-05  0.1918E-03  0.1154E-01  0.3902E+02
   -0.424989    7.87839  0.0000E+00  0.4081E-04  0.5183E-05  0.2104E-03  0.1016E-01  0.9061E+02
   -0.467489    7.88182  0.0000E+00  0.3472E-04  0.3175E-05  0.2195E-03  0.8785E-02  0.3537E+02
   -0.509990    7.88500  0.0000E+00  0.2991E-04  0.1910E-05  0.2296E-03  0.7508E-02  0.3484E+01
   -0.552490    7.88795  0.0000E+00  0.2608E-04  0.1154E-05  0.2402E-03  0.6374E-02  0.1403E+02
   -0.594991    7.89090  0.0000E+00  0.2294E-04  0.7268E-06  0.2556E-03  0.5341E-02  0.3914E+01
   -0.637492    7.89349  0.0000E+00  0.2031E-04  0.4881E-06  0.2739E-03  0.4461E-02  0.8780E+01
   -0.679994    7.89581  0.0000E+00  0.1809E-04  0.3500E-06  0.2930E-03  0.3767E-02  0.5738E+02
   -0.722495    7.89792  0.0000E+00  0.1620E-04  0.2638E-06  0.3131E-03  0.3200E-02  0.3521E+02
   -0.764996    7.89985  0.0000E+00  0.1457E-04  0.2057E-06  0.3358E-03  0.2748E-02  0.3950E+02
   -0.807497    7.90157  0.0000E+00  0.1315E-04  0.1631E-06  0.3562E-03  0.2393E-02  0.5496E+02
   -0.849999    7.90321  0.0000E+00  0.1193E-04  0.1316E-06  0.3789E-03  0.2097E-02  0.2320E+02
   -0.892500    7.90466  0.0000E+00  0.1088E-04  0.1071E-06  0.4019E-03  0.1848E-02 -0.2605E+02
   -0.935001    7.90604  0.0000E+00  0.9977E-05  0.8794E-07  0.4262E-03  0.1634E-02  0.3079E+02
   -0.977503    7.90730  0.0000E+00  0.9194E-05  0.7276E-07  0.4483E-03  0.1447E-02  0.4320E+06
   -1.020004    7.90849  0.0000E+00  0.8517E-05  0.6069E-07  0.4673E-03  0.1282E-02  0.3372E+03
   -1.062505    7.90960  0.0000E+00  0.7930E-05  0.5108E-07  0.4856E-03  0.1133E-02  0.5537E+02
   -1.105006    7.91065  0.0000E+00  0.7417E-05  0.4336E-07  0.5039E-03  0.9987E-03  0.3555E+02
   -1.147507    7.91164  0.0000E+00  0.6980E-05  0.3730E-07  0.5143E-03  0.8728E-03  0.2904E+02
   -1.190008    7.91259  0.0000E+00  0.6610E-05  0.3261E-07  0.5223E-03  0.7515E-03  0.2256E+02
   -1.232508    7.91349  0.0000E+00  0.6283E-05  0.2888E-07  0.5302E-03  0.6374E-03  0.5611E+02
   -1.275009    7.91437  0.0000E+00  0.5991E-05  0.2591E-07  0.5343E-03  0.5377E-03  0.1870E+03
   -1.317509    7.91521  0.0000E+00  0.5728E-05  0.2359E-07  0.5330E-03  0.4518E-03  0.2970E+02
   -1.360009    7.91604  0.0000E+00  0.5488E-05  0.2182E-07  0.5265E-03  0.3789E-03  0.4928E+02
   -1.402509    7.91686  0.0000E+00  0.5261E-05  0.2059E-07  0.5111E-03  0.3190E-03  0.7106E+02
   -1.445008    7.91770  0.0000E+00  0.5065E-05  0.2008E-07  0.4845E-03  0.2675E-03  0.8378E+02
   -1.487507    7.91857  0.0000E+00  0.4892E-05  0.2048E-07  0.4545E-03  0.2192E-03  0.1429E+03
   -1.530006    7.91951  0.0000E+00  0.4710E-05  0.2260E-07  0.4049E-03  0.1731E-03  0.1727E+03
   -1.572504    7.92064  0.0000E+00  0.4463E-05  0.2927E-07  0.3495E-03  0.1301E-03  0.6820E+03
   -1.615002    7.92185  0.0000E+00  0.3894E-05  0.5834E-07  0.2390E-03  0.1024E-03  0.3426E+03
   -1.657500    7.92480  0.0000E+00  0.2520E-05  0.1533E-06  0.3246E-04  0.7488E-04 -0.5293E+07
   -1.699997    7.94349  0.0000E+00  0.0000E+00  0.0000E+00  0.0000E+00  0.9053E-04  0.0000E+00
