 1 - depth, m
 2 - temperature, C
 3 - salinity, kg/kg
 4 - turbulent kinetic energy, m**2/s**2
 5 - dissipation rate, m**2/s**3
 6 - kinematic heat conductance, m**2/s
 7 - modulus of horizontal velocity, m/s
 8 - Richardson number, n/d
   -0.000000   12.72919  0.0000E+00  0.2135E-02  0.2864E-01  0.1819E-03  0.8209E+00 -0.1635E-03
   -0.042497   12.77915  0.0000E+00  0.1111E-02  0.1845E-01  0.3184E-03  0.1859E+00  0.1215E-01
   -0.084995   12.81510  0.0000E+00  0.7059E-03  0.6718E-02  0.4384E-03  0.9525E-01  0.8599E-03
   -0.127494   12.82355  0.0000E+00  0.5241E-03  0.4252E-02  0.4078E-03  0.7074E-01  0.1298E-02
   -0.169992   12.82740  0.0000E+00  0.4136E-03  0.2813E-02  0.3795E-03  0.5757E-01 -0.1844E-02
   -0.212491   12.83048  0.0000E+00  0.3301E-03  0.1955E-02  0.3754E-03  0.4725E-01 -0.1878E-01
   -0.254990   12.83345  0.0000E+00  0.2688E-03  0.1349E-02  0.3752E-03  0.3919E-01  0.1082E+01
   -0.297490   12.83575  0.0000E+00  0.2246E-03  0.9562E-03  0.3770E-03  0.3454E-01  0.6180E+01
   -0.339990   12.83716  0.0000E+00  0.1895E-03  0.6727E-03  0.3810E-03  0.3158E-01  0.3449E+00
   -0.382490   12.83862  0.0000E+00  0.1625E-03  0.4695E-03  0.3878E-03  0.2836E-01 -0.9084E+01
   -0.424990   12.83979  0.0000E+00  0.1422E-03  0.3253E-03  0.3927E-03  0.2608E-01  0.3918E+01
   -0.467491   12.84108  0.0000E+00  0.1261E-03  0.2233E-03  0.3999E-03  0.2346E-01  0.9362E+02
   -0.509992   12.84229  0.0000E+00  0.1131E-03  0.1522E-03  0.4067E-03  0.2096E-01  0.7368E+01
   -0.552492   12.84350  0.0000E+00  0.1025E-03  0.1033E-03  0.4138E-03  0.1874E-01  0.1299E+03
   -0.594994   12.84463  0.0000E+00  0.9358E-04  0.7017E-04  0.4230E-03  0.1659E-01  0.1575E+02
   -0.637495   12.84571  0.0000E+00  0.8574E-04  0.4766E-04  0.4336E-03  0.1467E-01  0.2831E+03
   -0.679996   12.84664  0.0000E+00  0.7883E-04  0.3240E-04  0.4451E-03  0.1319E-01  0.1179E+02
   -0.722497   12.84753  0.0000E+00  0.7264E-04  0.2207E-04  0.4559E-03  0.1190E-01  0.1089E+05
   -0.764999   12.84831  0.0000E+00  0.6707E-04  0.1497E-04  0.4694E-03  0.1083E-01  0.2387E+04
   -0.807500   12.84894  0.0000E+00  0.6202E-04  0.1008E-04  0.4783E-03  0.9977E-02  0.4434E+05
   -0.850002   12.84957  0.0000E+00  0.5750E-04  0.6739E-05  0.4875E-03  0.9209E-02  0.6933E+05
   -0.892503   12.85019  0.0000E+00  0.5341E-04  0.4470E-05  0.4968E-03  0.8516E-02  0.9452E+04
   -0.935005   12.85076  0.0000E+00  0.4974E-04  0.2980E-05  0.5055E-03  0.7907E-02  0.2257E+05
   -0.977506   12.85139  0.0000E+00  0.4642E-04  0.2000E-05  0.5138E-03  0.7311E-02  0.4596E+06
   -1.020008   12.85189  0.0000E+00  0.4342E-04  0.1371E-05  0.5178E-03  0.6780E-02  0.3499E+04
   -1.062509   12.85252  0.0000E+00  0.4071E-04  0.9758E-06  0.5245E-03  0.6259E-02  0.1334E+04
   -1.105010   12.85306  0.0000E+00  0.3825E-04  0.7284E-06  0.5231E-03  0.5785E-02  0.1725E+04
   -1.147511   12.85356  0.0000E+00  0.3605E-04  0.5710E-06  0.5224E-03  0.5314E-02  0.1586E+05
   -1.190012   12.85421  0.0000E+00  0.3408E-04  0.4741E-06  0.5185E-03  0.4818E-02  0.2946E+04
   -1.232513   12.85480  0.0000E+00  0.3225E-04  0.4105E-06  0.5161E-03  0.4340E-02  0.1384E+04
   -1.275013   12.85538  0.0000E+00  0.3050E-04  0.3682E-06  0.5099E-03  0.3913E-02  0.4997E+04
   -1.317514   12.85590  0.0000E+00  0.2879E-04  0.3402E-06  0.5015E-03  0.3521E-02  0.1890E+04
   -1.360014   12.85651  0.0000E+00  0.2707E-04  0.3272E-06  0.4851E-03  0.3159E-02  0.3586E+05
   -1.402514   12.85703  0.0000E+00  0.2525E-04  0.3332E-06  0.4661E-03  0.2833E-02 -0.1467E+06
   -1.445013   12.85758  0.0000E+00  0.2348E-04  0.3634E-06  0.4333E-03  0.2519E-02  0.3561E+05
   -1.487512   12.85825  0.0000E+00  0.2176E-04  0.4327E-06  0.4009E-03  0.2173E-02  0.2242E+07
   -1.530011   12.85898  0.0000E+00  0.1991E-04  0.5893E-06  0.3591E-03  0.1756E-02  0.1857E+10
   -1.572510   12.85988  0.0000E+00  0.1777E-04  0.1006E-05  0.3109E-03  0.1362E-02  0.9041E+07
   -1.615008   12.86085  0.0000E+00  0.1412E-04  0.2505E-05  0.1993E-03  0.1118E-02 -0.7229E+09
   -1.657506   12.86290  0.0000E+00  0.9386E-05  0.5631E-05  0.1102E-03  0.8488E-03 -0.2485E+10
   -1.700004   12.87509  0.0000E+00  0.0000E+00  0.0000E+00  0.0000E+00  0.1361E-02  0.0000E+00
