 1 - depth, m
 2 - temperature, C
 3 - salinity, kg/kg
 4 - turbulent kinetic energy, m**2/s**2
 5 - dissipation rate, m**2/s**3
 6 - kinematic heat conductance, m**2/s
 7 - modulus of horizontal velocity, m/s
 8 - Richardson number, n/d
   -0.000000    1.72742  0.0000E+00  0.4274E-04  0.9489E-05  0.3094E-04  0.4266E-01  0.4602E-02
   -0.042497    1.76527  0.0000E+00  0.2454E-04  0.2652E-05  0.4177E-04  0.1719E-01  0.1301E-01
   -0.084995    1.77937  0.0000E+00  0.1683E-04  0.1145E-05  0.4196E-04  0.1175E-01  0.2928E-01
   -0.127493    1.79147  0.0000E+00  0.1170E-04  0.5422E-06  0.3988E-04  0.8457E-02  0.5857E-01
   -0.169992    1.80292  0.0000E+00  0.8081E-05  0.2704E-06  0.3550E-04  0.6118E-02  0.1321E+00
   -0.212491    1.81519  0.0000E+00  0.5423E-05  0.1370E-06  0.2966E-04  0.4354E-02  0.4638E+00
   -0.254990    1.83590  0.0000E+00  0.3511E-05  0.6897E-07  0.2363E-04  0.3041E-02  0.1145E+02
   -0.297489    1.89462  0.0000E+00  0.2219E-05  0.3430E-07  0.1772E-04  0.2144E-02  0.5132E+03
   -0.339989    1.98837  0.0000E+00  0.1395E-05  0.1697E-07  0.1233E-04  0.1535E-02  0.1897E+05
   -0.382489    2.14702  0.0000E+00  0.9008E-06  0.8251E-08  0.8100E-05  0.1070E-02  0.2893E+06
   -0.424989    2.41657  0.0000E+00  0.6286E-06  0.4033E-08  0.6109E-04  0.7499E-03  0.5566E+06
   -0.467490    2.72172  0.0000E+00  0.4890E-06  0.1986E-08  0.1425E-03  0.4809E-03  0.7727E+06
   -0.509990    3.00226  0.0000E+00  0.4291E-06  0.1000E-08  0.2170E-03  0.2787E-03  0.1266E+07
   -0.552491    3.25706  0.0000E+00  0.4105E-06  0.5241E-09  0.2799E-03  0.1516E-03  0.3717E+07
   -0.594992    3.47076  0.0000E+00  0.4086E-06  0.2823E-09  0.3347E-03  0.7130E-04  0.1492E+11
   -0.637493    3.64330  0.0000E+00  0.4153E-06  0.1675E-09  0.3800E-03  0.2586E-04  0.6507E+07
   -0.679994    3.78342  0.0000E+00  0.4314E-06  0.1349E-09  0.4137E-03  0.5704E-05  0.4481E+08
   -0.722496    3.90274  0.0000E+00  0.4500E-06  0.1348E-09  0.4419E-03  0.6857E-06  0.3606E+09
   -0.764997    3.98764  0.0000E+00  0.4666E-06  0.1396E-09  0.4641E-03  0.7552E-07  0.4570E+10
   -0.807498    4.04527  0.0000E+00  0.4815E-06  0.1449E-09  0.4793E-03  0.1871E-07  0.2056E+11
   -0.850000    4.09342  0.0000E+00  0.4941E-06  0.1498E-09  0.4907E-03  0.1163E-07  0.4507E+11
   -0.892501    4.13251  0.0000E+00  0.5006E-06  0.1532E-09  0.5027E-03  0.9860E-08  0.6159E+11
   -0.935003    4.14805  0.0000E+00  0.5025E-06  0.1552E-09  0.5037E-03  0.8848E-08  0.2996E+11
   -0.977504    4.14885  0.0000E+00  0.5042E-06  0.1575E-09  0.4994E-03  0.7969E-08  0.3493E+11
   -1.020005    4.14965  0.0000E+00  0.5057E-06  0.1601E-09  0.4901E-03  0.7173E-08  0.5294E+11
   -1.062506    4.15045  0.0000E+00  0.5070E-06  0.1630E-09  0.4827E-03  0.6432E-08  0.6475E+11
   -1.105007    4.15127  0.0000E+00  0.5082E-06  0.1662E-09  0.4748E-03  0.5742E-08  0.7704E+11
   -1.147508    4.15209  0.0000E+00  0.5091E-06  0.1697E-09  0.4672E-03  0.5085E-08  0.8295E+11
   -1.190009    4.15293  0.0000E+00  0.5098E-06  0.1735E-09  0.4603E-03  0.4447E-08  0.6966E+11
   -1.232510    4.15379  0.0000E+00  0.5103E-06  0.1780E-09  0.4504E-03  0.3840E-08  0.2707E+11
   -1.275010    4.15466  0.0000E+00  0.5106E-06  0.1833E-09  0.4391E-03  0.3289E-08 -0.3458E+11
   -1.317511    4.15555  0.0000E+00  0.5106E-06  0.1900E-09  0.4143E-03  0.2798E-08 -0.7759E+11
   -1.360011    4.15648  0.0000E+00  0.5103E-06  0.1986E-09  0.3987E-03  0.2354E-08 -0.1167E+12
   -1.402510    4.15743  0.0000E+00  0.5097E-06  0.2102E-09  0.3843E-03  0.1967E-08 -0.1657E+12
   -1.445010    4.15841  0.0000E+00  0.5087E-06  0.2243E-09  0.3590E-03  0.1625E-08 -0.3013E+12
   -1.487509    4.15948  0.0000E+00  0.5073E-06  0.2420E-09  0.3275E-03  0.1303E-08 -0.4659E+12
   -1.530008    4.16067  0.0000E+00  0.5051E-06  0.2692E-09  0.2980E-03  0.1000E-08 -0.7242E+12
   -1.572506    4.16200  0.0000E+00  0.5004E-06  0.3285E-09  0.2399E-03  0.7407E-09 -0.1111E+13
   -1.615004    4.16369  0.0000E+00  0.4849E-06  0.5370E-09  0.1649E-03  0.5527E-09 -0.1913E+13
   -1.657502    4.16634  0.0000E+00  0.3500E-06  0.2791E-08  0.6428E-05  0.4081E-09 -0.8755E+14
   -1.700000    4.23395  0.0000E+00  0.0000E+00  0.0000E+00  0.0000E+00  0.4095E-09  0.0000E+00
