 1 - depth, m
 2 - temperature, C
 3 - salinity, kg/kg
 4 - turbulent kinetic energy, m**2/s**2
 5 - dissipation rate, m**2/s**3
 6 - kinematic heat conductance, m**2/s
 7 - modulus of horizontal velocity, m/s
 8 - Richardson number, n/d
   -0.000000   14.31095  0.0000E+00  0.1572E-04  0.1134E-05  0.2294E-04  0.2043E-01 -0.9003E-02
   -0.042497   14.32310  0.0000E+00  0.1110E-04  0.3710E-06  0.3605E-04  0.1094E-01 -0.2617E-01
   -0.084995   14.32944  0.0000E+00  0.8322E-05  0.1718E-06  0.4515E-04  0.7093E-02 -0.5278E-01
   -0.127493   14.33407  0.0000E+00  0.6472E-05  0.9239E-07  0.5369E-04  0.4779E-02 -0.9821E-01
   -0.169992   14.33774  0.0000E+00  0.5225E-05  0.5451E-07  0.6418E-04  0.3268E-02 -0.1744E+00
   -0.212490   14.34064  0.0000E+00  0.4395E-05  0.3440E-07  0.7947E-04  0.2258E-02 -0.3056E+00
   -0.254989   14.34283  0.0000E+00  0.3878E-05  0.2313E-07  0.1108E-03  0.1597E-02  0.3560E+00
   -0.297489   14.34430  0.0000E+00  0.3607E-05  0.1710E-07  0.2003E-03  0.1181E-02  0.8919E+03
   -0.339989   14.34510  0.0000E+00  0.3494E-05  0.1401E-07  0.3094E-03  0.9446E-03  0.2577E+01
   -0.382488   14.34561  0.0000E+00  0.3452E-05  0.1210E-07  0.3378E-03  0.8023E-03  0.8225E+00
   -0.424989   14.34609  0.0000E+00  0.3452E-05  0.1075E-07  0.3700E-03  0.6920E-03  0.9334E+00
   -0.467489   14.34655  0.0000E+00  0.3479E-05  0.9744E-08  0.4071E-03  0.5949E-03  0.1069E+01
   -0.509990   14.34700  0.0000E+00  0.3525E-05  0.8987E-08  0.4462E-03  0.5089E-03  0.1182E+01
   -0.552490   14.34743  0.0000E+00  0.3581E-05  0.8411E-08  0.4868E-03  0.4328E-03  0.1274E+01
   -0.594991   14.34785  0.0000E+00  0.3642E-05  0.7973E-08  0.5275E-03  0.3657E-03  0.1300E+01
   -0.637492   14.34826  0.0000E+00  0.3703E-05  0.7639E-08  0.5668E-03  0.3082E-03  0.1246E+01
   -0.679993   14.34865  0.0000E+00  0.3762E-05  0.7391E-08  0.6025E-03  0.2614E-03  0.1195E+01
   -0.722495   14.34901  0.0000E+00  0.3819E-05  0.7213E-08  0.6344E-03  0.2241E-03  0.1152E+01
   -0.764996   14.34935  0.0000E+00  0.3874E-05  0.7092E-08  0.6617E-03  0.1950E-03  0.1155E+01
   -0.807497   14.34967  0.0000E+00  0.3930E-05  0.7020E-08  0.6848E-03  0.1727E-03  0.1278E+01
   -0.849998   14.34998  0.0000E+00  0.3986E-05  0.6989E-08  0.7052E-03  0.1546E-03  0.1486E+01
   -0.892500   14.35028  0.0000E+00  0.4045E-05  0.6995E-08  0.7233E-03  0.1394E-03  0.1779E+01
   -0.935001   14.35058  0.0000E+00  0.4105E-05  0.7034E-08  0.7386E-03  0.1264E-03  0.2193E+01
   -0.977502   14.35089  0.0000E+00  0.4166E-05  0.7104E-08  0.7514E-03  0.1148E-03  0.2679E+01
   -1.020004   14.35122  0.0000E+00  0.4227E-05  0.7203E-08  0.7611E-03  0.1044E-03  0.3312E+01
   -1.062505   14.35155  0.0000E+00  0.4288E-05  0.7331E-08  0.7675E-03  0.9487E-04  0.4010E+01
   -1.105006   14.35191  0.0000E+00  0.4346E-05  0.7487E-08  0.7702E-03  0.8605E-04  0.4884E+01
   -1.147507   14.35230  0.0000E+00  0.4400E-05  0.7667E-08  0.7688E-03  0.7771E-04  0.5923E+01
   -1.190007   14.35272  0.0000E+00  0.4447E-05  0.7870E-08  0.7635E-03  0.6967E-04  0.6978E+01
   -1.232508   14.35318  0.0000E+00  0.4488E-05  0.8109E-08  0.7539E-03  0.6198E-04  0.8302E+01
   -1.275008   14.35366  0.0000E+00  0.4523E-05  0.8400E-08  0.7389E-03  0.5490E-04  0.1079E+02
   -1.317509   14.35417  0.0000E+00  0.4551E-05  0.8762E-08  0.7173E-03  0.4840E-04  0.1439E+02
   -1.360008   14.35470  0.0000E+00  0.4572E-05  0.9230E-08  0.6877E-03  0.4248E-04  0.1967E+02
   -1.402508   14.35528  0.0000E+00  0.4585E-05  0.9867E-08  0.6485E-03  0.3715E-04  0.2947E+02
   -1.445008   14.35591  0.0000E+00  0.4587E-05  0.1067E-07  0.5994E-03  0.3216E-04  0.4576E+02
   -1.487507   14.35664  0.0000E+00  0.4574E-05  0.1170E-07  0.5551E-03  0.2722E-04  0.6030E+02
   -1.530005   14.35746  0.0000E+00  0.4536E-05  0.1340E-07  0.4524E-03  0.2238E-04  0.8251E+02
   -1.572504   14.35851  0.0000E+00  0.4440E-05  0.1715E-07  0.5092E-03  0.1763E-04  0.1158E+03
   -1.615002   14.35944  0.0000E+00  0.4011E-05  0.3659E-07  0.1858E-03  0.1491E-04 -0.7897E+07
   -1.657500   14.36577  0.0000E+00  0.2624E-05  0.1190E-06  0.5722E-04  0.9408E-05 -0.5674E+05
   -1.699997   14.37518  0.0000E+00  0.0000E+00  0.0000E+00  0.0000E+00  0.1096E-04  0.0000E+00
