 1 - depth, m
 2 - temperature, C
 3 - salinity, kg/kg
 4 - turbulent kinetic energy, m**2/s**2
 5 - dissipation rate, m**2/s**3
 6 - kinematic heat conductance, m**2/s
 7 - modulus of horizontal velocity, m/s
 8 - Richardson number, n/d
   -0.000000    0.00000  0.0000E+00  0.3189E-13  0.5207E-16  0.1000E-09  0.0000E+00  0.1111E+17
   -0.042497    0.17052  0.0000E+00  0.3189E-13  0.5207E-16  0.1000E-09  0.0000E+00  0.1093E+17
   -0.084995    0.34655  0.0000E+00  0.3189E-13  0.5207E-16  0.1000E-09  0.0000E+00  0.1065E+17
   -0.127493    0.52740  0.0000E+00  0.3189E-13  0.5207E-16  0.1000E-09  0.0000E+00  0.9996E+16
   -0.169992    0.70668  0.0000E+00  0.3189E-13  0.5207E-16  0.1000E-09  0.0000E+00  0.9348E+16
   -0.212490    0.88425  0.0000E+00  0.4659E-13  0.5207E-16  0.1000E-09  0.0000E+00  0.8715E+16
   -0.254989    1.06001  0.0000E+00  0.1427E-12  0.5215E-16  0.1000E-09  0.0000E+00  0.8095E+16
   -0.297489    1.23384  0.0000E+00  0.3737E-12  0.6410E-16  0.1000E-09  0.0000E+00  0.7481E+16
   -0.339988    1.40537  0.0000E+00  0.7737E-12  0.1001E-15  0.1000E-09  0.0000E+00  0.6873E+16
   -0.382488    1.57417  0.0000E+00  0.1440E-11  0.1683E-15  0.1000E-09  0.0000E+00  0.6284E+16
   -0.424989    1.74005  0.0000E+00  0.2543E-11  0.2842E-15  0.1000E-09  0.0000E+00  0.5711E+16
   -0.467489    1.90270  0.0000E+00  0.4375E-11  0.4766E-15  0.1000E-09  0.0000E+00  0.5164E+16
   -0.509990    2.06198  0.0000E+00  0.7434E-11  0.7942E-15  0.1000E-09  0.0000E+00  0.4675E+16
   -0.552490    2.21895  0.0000E+00  0.1255E-10  0.1318E-14  0.1000E-09  0.0000E+00  0.4210E+16
   -0.594991    2.37374  0.0000E+00  0.2107E-10  0.2178E-14  0.1000E-09  0.0000E+00  0.3771E+16
   -0.637492    2.52664  0.0000E+00  0.3557E-10  0.3618E-14  0.1000E-09  0.0000E+00  0.3359E+16
   -0.679993    2.67820  0.0000E+00  0.6016E-10  0.6023E-14  0.1000E-09  0.0000E+00  0.2958E+16
   -0.722494    2.82834  0.0000E+00  0.1020E-09  0.1005E-13  0.1000E-09  0.0000E+00  0.2571E+16
   -0.764996    2.97724  0.0000E+00  0.1733E-09  0.1682E-13  0.1000E-09  0.0000E+00  0.2195E+16
   -0.807497    3.12482  0.0000E+00  0.2945E-09  0.2814E-13  0.1000E-09  0.0000E+00  0.1819E+16
   -0.849998    3.27019  0.0000E+00  0.4951E-09  0.4661E-13  0.1178E-09  0.0000E+00  0.1455E+16
   -0.892500    3.41277  0.0000E+00  0.8293E-09  0.7692E-13  0.2168E-09  0.0000E+00  0.1121E+16
   -0.935001    3.55395  0.0000E+00  0.1375E-08  0.1257E-12  0.4953E-09  0.0000E+00  0.8000E+15
   -0.977502    3.69415  0.0000E+00  0.2266E-08  0.2041E-12  0.1310E-08  0.0000E+00  0.4855E+15
   -1.020003    3.83310  0.0000E+00  0.3701E-08  0.3288E-12  0.5794E-08  0.0000E+00  0.1768E+15
   -1.062505    3.96580  0.0000E+00  0.4835E-08  0.4334E-12  0.7096E-05  0.0000E+00  0.7542E+13
   -1.105006    3.99574  0.0000E+00  0.5221E-08  0.4719E-12  0.2002E-04  0.0000E+00 -0.1293E+12
   -1.147507    3.99678  0.0000E+00  0.5463E-08  0.5000E-12  0.2114E-04  0.0000E+00 -0.1366E+12
   -1.190007    3.99770  0.0000E+00  0.5678E-08  0.5292E-12  0.2195E-04  0.0000E+00 -0.1437E+12
   -1.232508    3.99857  0.0000E+00  0.5880E-08  0.5621E-12  0.2258E-04  0.0000E+00 -0.1533E+12
   -1.275008    3.99941  0.0000E+00  0.6075E-08  0.6003E-12  0.2289E-04  0.0000E+00 -0.1658E+12
   -1.317508    4.00026  0.0000E+00  0.6263E-08  0.6460E-12  0.2297E-04  0.0000E+00 -0.1834E+12
   -1.360008    4.00113  0.0000E+00  0.6445E-08  0.7022E-12  0.2272E-04  0.0000E+00 -0.2081E+12
   -1.402508    4.00204  0.0000E+00  0.6625E-08  0.7757E-12  0.2163E-04  0.0000E+00 -0.2400E+12
   -1.445007    4.00304  0.0000E+00  0.6785E-08  0.8670E-12  0.1962E-04  0.0000E+00 -0.2821E+12
   -1.487506    4.00412  0.0000E+00  0.6922E-08  0.9873E-12  0.1711E-04  0.0000E+00 -0.3495E+12
   -1.530005    4.00537  0.0000E+00  0.7051E-08  0.1181E-11  0.1503E-04  0.0000E+00 -0.4929E+12
   -1.572504    4.00700  0.0000E+00  0.7165E-08  0.1590E-11  0.1313E-04  0.0000E+00 -0.9315E+12
   -1.615002    4.00974  0.0000E+00  0.7010E-08  0.3090E-11  0.5177E-05  0.0000E+00 -0.3330E+13
   -1.657499    4.01755  0.0000E+00  0.5549E-08  0.9309E-11  0.7599E-06  0.0000E+00 -0.3534E+14
   -1.699997    4.06037  0.0000E+00  0.0000E+00  0.0000E+00  0.0000E+00  0.0000E+00  0.0000E+00
