 1 - depth, m
 2 - temperature, C
 3 - salinity, kg/kg
 4 - turbulent kinetic energy, m**2/s**2
 5 - dissipation rate, m**2/s**3
 6 - kinematic heat conductance, m**2/s
 7 - modulus of horizontal velocity, m/s
 8 - Richardson number, n/d
   -0.000000    0.00000  0.0000E+00  0.3189E-13  0.5206E-16  0.1000E-09  0.0000E+00  0.7328E+16
   -0.042498    0.11160  0.0000E+00  0.3189E-13  0.5206E-16  0.1000E-09  0.0000E+00  0.7538E+16
   -0.084996    0.23009  0.0000E+00  0.3189E-13  0.5206E-16  0.1000E-09  0.0000E+00  0.7680E+16
   -0.127495    0.35505  0.0000E+00  0.3189E-13  0.5206E-16  0.1000E-09  0.0000E+00  0.7480E+16
   -0.169994    0.48131  0.0000E+00  0.3189E-13  0.5206E-16  0.1000E-09  0.0000E+00  0.7263E+16
   -0.212494    0.60870  0.0000E+00  0.3189E-13  0.5206E-16  0.1000E-09  0.0000E+00  0.7031E+16
   -0.254993    0.73705  0.0000E+00  0.3189E-13  0.5206E-16  0.1000E-09  0.0000E+00  0.6783E+16
   -0.297494    0.86615  0.0000E+00  0.3189E-13  0.5206E-16  0.1000E-09  0.0000E+00  0.6520E+16
   -0.339994    0.99579  0.0000E+00  0.3189E-13  0.5206E-16  0.1000E-09  0.0000E+00  0.6244E+16
   -0.382494    1.12573  0.0000E+00  0.3189E-13  0.5206E-16  0.1000E-09  0.0000E+00  0.5959E+16
   -0.424995    1.25578  0.0000E+00  0.3189E-13  0.5206E-16  0.1000E-09  0.0000E+00  0.5666E+16
   -0.467496    1.38575  0.0000E+00  0.3189E-13  0.5206E-16  0.1000E-09  0.0000E+00  0.5369E+16
   -0.509998    1.51549  0.0000E+00  0.3189E-13  0.5206E-16  0.1000E-09  0.0000E+00  0.5078E+16
   -0.552499    1.64510  0.0000E+00  0.3189E-13  0.5206E-16  0.1000E-09  0.0000E+00  0.4787E+16
   -0.595001    1.77451  0.0000E+00  0.3189E-13  0.5206E-16  0.1000E-09  0.0000E+00  0.4498E+16
   -0.637502    1.90371  0.0000E+00  0.3189E-13  0.5206E-16  0.1000E-09  0.0000E+00  0.4213E+16
   -0.680004    2.03274  0.0000E+00  0.3189E-13  0.5206E-16  0.1000E-09  0.0000E+00  0.3926E+16
   -0.722506    2.16144  0.0000E+00  0.3189E-13  0.5206E-16  0.1000E-09  0.0000E+00  0.3639E+16
   -0.765008    2.28971  0.0000E+00  0.3189E-13  0.5206E-16  0.1000E-09  0.0000E+00  0.3350E+16
   -0.807510    2.41733  0.0000E+00  0.3189E-13  0.5206E-16  0.1000E-09  0.0000E+00  0.3056E+16
   -0.850012    2.54380  0.0000E+00  0.1501E-12  0.5849E-16  0.1000E-09  0.0000E+00  0.2761E+16
   -0.892514    2.66872  0.0000E+00  0.4270E-12  0.1205E-15  0.1000E-09  0.0000E+00  0.2488E+16
   -0.935016    2.79270  0.0000E+00  0.1025E-11  0.2665E-15  0.1000E-09  0.0000E+00  0.2226E+16
   -0.977518    2.91597  0.0000E+00  0.2334E-11  0.5849E-15  0.1000E-09  0.0000E+00  0.1965E+16
   -1.020020    3.03831  0.0000E+00  0.5190E-11  0.1266E-14  0.1000E-09  0.0000E+00  0.1703E+16
   -1.062521    3.15908  0.0000E+00  0.1138E-10  0.2710E-14  0.1000E-09  0.0000E+00  0.1447E+16
   -1.105023    3.27794  0.0000E+00  0.2472E-10  0.5746E-14  0.1000E-09  0.0000E+00  0.1196E+16
   -1.147525    3.39420  0.0000E+00  0.5275E-10  0.1198E-13  0.1000E-09  0.0000E+00  0.9571E+15
   -1.190026    3.50731  0.0000E+00  0.1115E-09  0.2474E-13  0.1057E-09  0.0000E+00  0.7349E+15
   -1.232527    3.61719  0.0000E+00  0.2399E-09  0.5202E-13  0.3083E-09  0.0000E+00  0.5297E+15
   -1.275028    3.72371  0.0000E+00  0.5210E-09  0.1104E-12  0.1005E-08  0.0000E+00  0.3446E+15
   -1.317529    3.82782  0.0000E+00  0.1135E-08  0.2355E-12  0.4192E-08  0.0000E+00  0.1757E+15
   -1.360030    3.93414  0.0000E+00  0.2407E-08  0.4906E-12  0.8254E-07  0.0000E+00  0.1796E+14
   -1.402530    4.00734  0.0000E+00  0.3591E-08  0.7410E-12  0.7291E-05  0.0000E+00 -0.7869E+12
   -1.445030    4.00961  0.0000E+00  0.4148E-08  0.8955E-12  0.7465E-05  0.0000E+00 -0.8348E+12
   -1.487530    4.01179  0.0000E+00  0.4591E-08  0.1074E-11  0.7176E-05  0.0000E+00 -0.9533E+12
   -1.530029    4.01408  0.0000E+00  0.5004E-08  0.1346E-11  0.6908E-05  0.0000E+00 -0.1268E+13
   -1.572529    4.01686  0.0000E+00  0.5438E-08  0.1885E-11  0.6789E-05  0.0000E+00 -0.2243E+13
   -1.615027    4.02123  0.0000E+00  0.5656E-08  0.3421E-11  0.3315E-05  0.0000E+00 -0.6257E+13
   -1.657526    4.03124  0.0000E+00  0.4691E-08  0.8279E-11  0.6623E-06  0.0000E+00 -0.4189E+14
   -1.700024    4.07217  0.0000E+00  0.0000E+00  0.0000E+00  0.0000E+00  0.0000E+00  0.0000E+00
