 1 - depth, m
 2 - temperature, C
 3 - salinity, kg/kg
 4 - turbulent kinetic energy, m**2/s**2
 5 - dissipation rate, m**2/s**3
 6 - kinematic heat conductance, m**2/s
 7 - modulus of horizontal velocity, m/s
 8 - Richardson number, n/d
   -0.000000    7.90272  0.0000E+00  0.8055E-04  0.2925E-04  0.4154E-04  0.6319E-01 -0.2818E-02
   -0.042498    7.93335  0.0000E+00  0.4453E-04  0.9373E-05  0.6396E-04  0.1942E-01 -0.3191E-01
   -0.084996    7.94299  0.0000E+00  0.3146E-04  0.4688E-05  0.6308E-04  0.1317E-01 -0.3393E-01
   -0.127494    7.95067  0.0000E+00  0.2290E-04  0.2464E-05  0.6333E-04  0.9806E-02 -0.5863E-01
   -0.169993    7.95718  0.0000E+00  0.1676E-04  0.1274E-05  0.6600E-04  0.7402E-02 -0.1096E+00
   -0.212492    7.96299  0.0000E+00  0.1229E-04  0.6464E-06  0.7281E-04  0.5575E-02 -0.1739E+00
   -0.254991    7.96816  0.0000E+00  0.9104E-05  0.3272E-06  0.9565E-04  0.4214E-02  0.3984E+02
   -0.297491    7.97259  0.0000E+00  0.6936E-05  0.1694E-06  0.1170E-03  0.3241E-02  0.5423E+01
   -0.339991    7.97648  0.0000E+00  0.5528E-05  0.9450E-07  0.1388E-03  0.2523E-02  0.2467E+02
   -0.382491    7.97993  0.0000E+00  0.4607E-05  0.5728E-07  0.1693E-03  0.1959E-02  0.1177E+03
   -0.424991    7.98280  0.0000E+00  0.4019E-05  0.3743E-07  0.2045E-03  0.1545E-02  0.5703E+02
   -0.467492    7.98515  0.0000E+00  0.3634E-05  0.2593E-07  0.2385E-03  0.1228E-02  0.3668E+03
   -0.509993    7.98711  0.0000E+00  0.3375E-05  0.1889E-07  0.2676E-03  0.9814E-03  0.1711E+02
   -0.552494    7.98880  0.0000E+00  0.3197E-05  0.1442E-07  0.2983E-03  0.7844E-03  0.9594E+01
   -0.594995    7.99025  0.0000E+00  0.3073E-05  0.1149E-07  0.3290E-03  0.6252E-03  0.1699E+02
   -0.637496    7.99152  0.0000E+00  0.2986E-05  0.9508E-08  0.3595E-03  0.4982E-03  0.7718E+01
   -0.679997    7.99264  0.0000E+00  0.2927E-05  0.8148E-08  0.3866E-03  0.4013E-03  0.1301E+01
   -0.722499    7.99366  0.0000E+00  0.2888E-05  0.7192E-08  0.4108E-03  0.3271E-03  0.1301E+02
   -0.765000    7.99458  0.0000E+00  0.2865E-05  0.6509E-08  0.4334E-03  0.2712E-03  0.1931E+01
   -0.807502    7.99544  0.0000E+00  0.2854E-05  0.6007E-08  0.4556E-03  0.2293E-03  0.6119E+02
   -0.850003    7.99625  0.0000E+00  0.2853E-05  0.5640E-08  0.4770E-03  0.1964E-03  0.1895E+01
   -0.892505    7.99701  0.0000E+00  0.2860E-05  0.5367E-08  0.4974E-03  0.1701E-03  0.4300E+01
   -0.935007    7.99773  0.0000E+00  0.2872E-05  0.5164E-08  0.5159E-03  0.1489E-03  0.2670E+01
   -0.977508    7.99843  0.0000E+00  0.2886E-05  0.5010E-08  0.5326E-03  0.1310E-03  0.3094E+01
   -1.020010    7.99912  0.0000E+00  0.2903E-05  0.4894E-08  0.5474E-03  0.1157E-03  0.3682E+01
   -1.062511    7.99980  0.0000E+00  0.2919E-05  0.4809E-08  0.5601E-03  0.1023E-03  0.4245E+01
   -1.105012    8.00048  0.0000E+00  0.2936E-05  0.4751E-08  0.5703E-03  0.9042E-04  0.4899E+01
   -1.147513    8.00116  0.0000E+00  0.2951E-05  0.4717E-08  0.5779E-03  0.7955E-04  0.5635E+01
   -1.190014    8.00186  0.0000E+00  0.2964E-05  0.4706E-08  0.5824E-03  0.6937E-04  0.6364E+01
   -1.232515    8.00256  0.0000E+00  0.2975E-05  0.4716E-08  0.5840E-03  0.5993E-04  0.7329E+01
   -1.275016    8.00327  0.0000E+00  0.2984E-05  0.4748E-08  0.5823E-03  0.5157E-04  0.9339E+01
   -1.317516    8.00400  0.0000E+00  0.2990E-05  0.4807E-08  0.5769E-03  0.4419E-04  0.1220E+02
   -1.360016    8.00474  0.0000E+00  0.2993E-05  0.4901E-08  0.5664E-03  0.3774E-04  0.1623E+02
   -1.402516    8.00550  0.0000E+00  0.2993E-05  0.5045E-08  0.5502E-03  0.3219E-04  0.2326E+02
   -1.445016    8.00629  0.0000E+00  0.2989E-05  0.5237E-08  0.5291E-03  0.2723E-04  0.3399E+02
   -1.487515    8.00714  0.0000E+00  0.2980E-05  0.5497E-08  0.5017E-03  0.2255E-04  0.4158E+02
   -1.530014    8.00805  0.0000E+00  0.2963E-05  0.5919E-08  0.4635E-03  0.1812E-04  0.4911E+02
   -1.572513    8.00904  0.0000E+00  0.2924E-05  0.6852E-08  0.3838E-03  0.1425E-04  0.9068E+02
   -1.615011    8.01025  0.0000E+00  0.2804E-05  0.9958E-08  0.2943E-03  0.1135E-04  0.4474E+03
   -1.657509    8.01186  0.0000E+00  0.1941E-05  0.3852E-07  0.1632E-04  0.9212E-05 -0.1063E+06
   -1.700007    8.04156  0.0000E+00  0.0000E+00  0.0000E+00  0.0000E+00  0.9209E-05  0.0000E+00
