 1 - depth, m
 2 - temperature, C
 3 - salinity, kg/kg
 4 - turbulent kinetic energy, m**2/s**2
 5 - dissipation rate, m**2/s**3
 6 - kinematic heat conductance, m**2/s
 7 - modulus of horizontal velocity, m/s
 8 - Richardson number, n/d
   -0.000000    1.25553  0.0000E+00  0.4290E-04  0.1275E-04  0.3317E-04  0.4160E-01  0.2699E-02
   -0.042497    1.27036  0.0000E+00  0.2505E-04  0.4052E-05  0.4425E-04  0.1640E-01  0.7976E-02
   -0.084995    1.27687  0.0000E+00  0.1742E-04  0.1790E-05  0.4391E-04  0.1113E-01  0.4149E-01
   -0.127493    1.28271  0.0000E+00  0.1214E-04  0.7876E-06  0.4154E-04  0.8017E-02  0.3753E-01
   -0.169992    1.28839  0.0000E+00  0.8423E-05  0.3699E-06  0.3714E-04  0.5833E-02  0.7972E-01
   -0.212491    1.29446  0.0000E+00  0.5685E-05  0.1753E-06  0.3107E-04  0.4198E-02  0.2389E+00
   -0.254990    1.30168  0.0000E+00  0.3704E-05  0.8594E-07  0.2382E-04  0.2990E-02  0.8081E+00
   -0.297489    1.31279  0.0000E+00  0.2315E-05  0.4315E-07  0.1630E-04  0.2145E-02  0.1029E+02
   -0.339989    1.37316  0.0000E+00  0.1408E-05  0.2195E-07  0.1040E-04  0.1526E-02  0.2280E+03
   -0.382489    1.49930  0.0000E+00  0.8042E-06  0.1088E-07  0.5805E-05  0.1065E-02  0.5787E+04
   -0.424989    1.64871  0.0000E+00  0.4176E-06  0.5179E-08  0.2482E-05  0.7502E-03  0.9631E+05
   -0.467490    1.81300  0.0000E+00  0.1884E-06  0.2269E-08  0.9420E-06  0.4600E-03  0.1774E+07
   -0.509990    2.00262  0.0000E+00  0.7041E-07  0.8499E-09  0.2263E-06  0.2384E-03  0.4392E+08
   -0.552491    2.17855  0.0000E+00  0.1598E-07  0.2096E-09  0.2266E-07  0.1017E-03  0.1203E+10
   -0.594992    2.34097  0.0000E+00  0.1753E-08  0.2250E-10  0.3864E-08  0.2408E-04  0.4722E+11
   -0.637493    2.47169  0.0000E+00  0.1154E-09  0.2091E-11  0.5646E-09  0.3214E-05  0.2953E+13
   -0.679994    2.56486  0.0000E+00  0.9786E-11  0.1033E-11  0.1324E-09  0.3496E-06  0.2042E+15
   -0.722496    2.63876  0.0000E+00  0.4419E-11  0.1000E-11  0.1000E-09  0.3217E-07  0.4867E+15
   -0.764997    2.69508  0.0000E+00  0.4419E-11  0.1000E-11  0.1000E-09  0.2727E-08  0.4135E+15
   -0.807498    2.73415  0.0000E+00  0.3419E-10  0.1000E-11  0.2321E-09  0.2615E-09  0.4771E+15
   -0.850000    2.77113  0.0000E+00  0.5594E-09  0.1010E-11  0.1051E-08  0.2630E-10  0.6976E+15
   -0.892501    2.81697  0.0000E+00  0.2300E-08  0.1213E-11  0.1489E-08  0.2693E-11  0.1194E+16
   -0.935003    2.89231  0.0000E+00  0.6363E-08  0.1943E-11  0.2347E-08  0.3161E-12  0.1990E+16
   -0.977504    3.03022  0.0000E+00  0.1541E-07  0.3700E-11  0.5372E-08  0.3506E-13  0.2489E+16
   -1.020005    3.25395  0.0000E+00  0.3082E-07  0.6860E-11  0.4962E-05  0.2881E-14  0.2383E+16
   -1.062506    3.52687  0.0000E+00  0.4476E-07  0.1006E-10  0.3575E-04  0.7440E-15  0.1845E+16
   -1.105007    3.76291  0.0000E+00  0.5649E-07  0.1280E-10  0.5826E-04  0.5724E-15  0.9902E+15
   -1.147508    3.95267  0.0000E+00  0.6430E-07  0.1468E-10  0.7974E-04  0.4314E-15  0.1714E+15
   -1.190009    4.03953  0.0000E+00  0.6566E-07  0.1510E-10  0.9985E-04  0.3140E-15 -0.1014E+13
   -1.232510    4.04075  0.0000E+00  0.6662E-07  0.1548E-10  0.9912E-04  0.2170E-15 -0.1089E+13
   -1.275010    4.04202  0.0000E+00  0.6751E-07  0.1593E-10  0.9875E-04  0.1479E-15 -0.1156E+13
   -1.317511    4.04333  0.0000E+00  0.6829E-07  0.1646E-10  0.9782E-04  0.9829E-16 -0.1197E+13
   -1.360011    4.04466  0.0000E+00  0.6898E-07  0.1710E-10  0.9612E-04  0.6474E-16 -0.1254E+13
   -1.402510    4.04602  0.0000E+00  0.6957E-07  0.1793E-10  0.9366E-04  0.4307E-16 -0.1319E+13
   -1.445010    4.04742  0.0000E+00  0.6998E-07  0.1889E-10  0.9068E-04  0.2865E-16 -0.1392E+13
   -1.487509    4.04886  0.0000E+00  0.7019E-07  0.2007E-10  0.8654E-04  0.1753E-16 -0.1493E+13
   -1.530008    4.05037  0.0000E+00  0.7018E-07  0.2183E-10  0.8024E-04  0.9336E-17 -0.1681E+13
   -1.572506    4.05203  0.0000E+00  0.6974E-07  0.2550E-10  0.6998E-04  0.4328E-17 -0.2133E+13
   -1.615004    4.05407  0.0000E+00  0.6731E-07  0.4017E-10  0.3568E-04  0.2221E-17 -0.4526E+13
   -1.657502    4.05825  0.0000E+00  0.4907E-07  0.1576E-09  0.2653E-05  0.7182E-18 -0.8119E+14
   -1.700000    4.11107  0.0000E+00  0.0000E+00  0.0000E+00  0.0000E+00  0.6832E-18  0.0000E+00
