 1 - depth, m
 2 - temperature, C
 3 - salinity, kg/kg
 4 - turbulent kinetic energy, m**2/s**2
 5 - dissipation rate, m**2/s**3
 6 - kinematic heat conductance, m**2/s
 7 - modulus of horizontal velocity, m/s
 8 - Richardson number, n/d
   -0.000000    0.00000  0.0000E+00  0.2178E-09  0.2135E-12  0.1000E-09  0.0000E+00  0.3372E+17
   -0.042498    0.54550  0.0000E+00  0.7447E-09  0.1578E-12  0.1000E-09  0.0000E+00  0.2911E+17
   -0.084995    1.10407  0.0000E+00  0.1690E-08  0.1767E-12  0.1000E-09  0.0000E+00  0.2379E+17
   -0.127494    1.66406  0.0000E+00  0.3126E-08  0.2401E-12  0.1000E-09  0.0000E+00  0.1784E+17
   -0.169992    2.20120  0.0000E+00  0.5249E-08  0.3512E-12  0.1068E-09  0.0000E+00  0.1234E+17
   -0.212491    2.70293  0.0000E+00  0.8392E-08  0.5264E-12  0.2210E-09  0.0000E+00  0.7645E+16
   -0.254991    3.15766  0.0000E+00  0.1310E-07  0.7956E-12  0.6619E-09  0.0000E+00  0.3975E+16
   -0.297490    3.55670  0.0000E+00  0.2018E-07  0.1205E-11  0.3383E-08  0.0000E+00  0.1375E+16
   -0.339990    3.89567  0.0000E+00  0.2459E-07  0.1483E-11  0.6861E-04  0.0000E+00  0.1605E+15
   -0.382490    4.00087  0.0000E+00  0.2482E-07  0.1499E-11  0.1328E-03  0.0000E+00 -0.6489E+11
   -0.424991    4.00121  0.0000E+00  0.2497E-07  0.1510E-11  0.1330E-03  0.0000E+00 -0.6538E+11
   -0.467491    4.00152  0.0000E+00  0.2512E-07  0.1523E-11  0.1342E-03  0.0000E+00 -0.6515E+11
   -0.509992    4.00182  0.0000E+00  0.2527E-07  0.1537E-11  0.1355E-03  0.0000E+00 -0.6630E+11
   -0.552493    4.00212  0.0000E+00  0.2542E-07  0.1552E-11  0.1365E-03  0.0000E+00 -0.6792E+11
   -0.594994    4.00241  0.0000E+00  0.2556E-07  0.1568E-11  0.1374E-03  0.0000E+00 -0.6961E+11
   -0.637495    4.00270  0.0000E+00  0.2571E-07  0.1587E-11  0.1381E-03  0.0000E+00 -0.7179E+11
   -0.679997    4.00299  0.0000E+00  0.2585E-07  0.1607E-11  0.1385E-03  0.0000E+00 -0.7412E+11
   -0.722498    4.00329  0.0000E+00  0.2600E-07  0.1630E-11  0.1387E-03  0.0000E+00 -0.7718E+11
   -0.765000    4.00358  0.0000E+00  0.2616E-07  0.1656E-11  0.1382E-03  0.0000E+00 -0.8078E+11
   -0.807501    4.00389  0.0000E+00  0.2632E-07  0.1685E-11  0.1373E-03  0.0000E+00 -0.8473E+11
   -0.850003    4.00420  0.0000E+00  0.2648E-07  0.1718E-11  0.1363E-03  0.0000E+00 -0.8886E+11
   -0.892504    4.00453  0.0000E+00  0.2664E-07  0.1754E-11  0.1351E-03  0.0000E+00 -0.9292E+11
   -0.935006    4.00486  0.0000E+00  0.2680E-07  0.1794E-11  0.1337E-03  0.0000E+00 -0.9649E+11
   -0.977507    4.00520  0.0000E+00  0.2696E-07  0.1838E-11  0.1322E-03  0.0000E+00 -0.1006E+12
   -1.020009    4.00555  0.0000E+00  0.2711E-07  0.1885E-11  0.1305E-03  0.0000E+00 -0.1048E+12
   -1.062510    4.00590  0.0000E+00  0.2725E-07  0.1936E-11  0.1285E-03  0.0000E+00 -0.1095E+12
   -1.105011    4.00626  0.0000E+00  0.2739E-07  0.1992E-11  0.1264E-03  0.0000E+00 -0.1142E+12
   -1.147512    4.00663  0.0000E+00  0.2751E-07  0.2052E-11  0.1241E-03  0.0000E+00 -0.1192E+12
   -1.190013    4.00701  0.0000E+00  0.2762E-07  0.2115E-11  0.1216E-03  0.0000E+00 -0.1251E+12
   -1.232514    4.00740  0.0000E+00  0.2772E-07  0.2187E-11  0.1187E-03  0.0000E+00 -0.1337E+12
   -1.275015    4.00780  0.0000E+00  0.2781E-07  0.2273E-11  0.1153E-03  0.0000E+00 -0.1435E+12
   -1.317515    4.00823  0.0000E+00  0.2789E-07  0.2376E-11  0.1114E-03  0.0000E+00 -0.1541E+12
   -1.360015    4.00868  0.0000E+00  0.2796E-07  0.2505E-11  0.1066E-03  0.0000E+00 -0.1678E+12
   -1.402515    4.00916  0.0000E+00  0.2801E-07  0.2675E-11  0.1011E-03  0.0000E+00 -0.1835E+12
   -1.445015    4.00967  0.0000E+00  0.2805E-07  0.2879E-11  0.9530E-04  0.0000E+00 -0.1997E+12
   -1.487514    4.01021  0.0000E+00  0.2805E-07  0.3132E-11  0.8859E-04  0.0000E+00 -0.2218E+12
   -1.530013    4.01080  0.0000E+00  0.2802E-07  0.3516E-11  0.7969E-04  0.0000E+00 -0.2677E+12
   -1.572512    4.01149  0.0000E+00  0.2789E-07  0.4337E-11  0.6697E-04  0.0000E+00 -0.3969E+12
   -1.615010    4.01248  0.0000E+00  0.2715E-07  0.7943E-11  0.2812E-04  0.0000E+00 -0.1114E+13
   -1.657508    4.01517  0.0000E+00  0.2054E-07  0.4130E-10  0.1767E-05  0.0000E+00 -0.3015E+14
   -1.700005    4.05479  0.0000E+00  0.0000E+00  0.0000E+00  0.0000E+00  0.0000E+00  0.0000E+00
