 1 - depth, m
 2 - temperature, C
 3 - salinity, kg/kg
 4 - turbulent kinetic energy, m**2/s**2
 5 - dissipation rate, m**2/s**3
 6 - kinematic heat conductance, m**2/s
 7 - modulus of horizontal velocity, m/s
 8 - Richardson number, n/d
   -0.000000   11.95470  0.0000E+00  0.4987E-04  0.1187E-04  0.3797E-04  0.4798E-01 -0.5026E-01
   -0.042497   11.97076  0.0000E+00  0.2712E-04  0.3244E-05  0.4533E-04  0.1640E-01 -0.1362E-01
   -0.084995   11.97524  0.0000E+00  0.1857E-04  0.1326E-05  0.4599E-04  0.1110E-01 -0.2612E-01
   -0.127493   11.97855  0.0000E+00  0.1300E-04  0.6049E-06  0.4791E-04  0.7991E-02 -0.4928E-01
   -0.169992   11.98143  0.0000E+00  0.9232E-05  0.2950E-06  0.4978E-04  0.5797E-02  0.6571E+01
   -0.212491   11.98404  0.0000E+00  0.6619E-05  0.1496E-06  0.5241E-04  0.4156E-02 -0.8481E-01
   -0.254990   11.98638  0.0000E+00  0.4835E-05  0.7835E-07  0.5745E-04  0.2956E-02 -0.3059E+00
   -0.297489   11.98837  0.0000E+00  0.3686E-05  0.4281E-07  0.6979E-04  0.2120E-02 -0.2393E+00
   -0.339989   11.99002  0.0000E+00  0.2995E-05  0.2492E-07  0.1065E-03  0.1534E-02  0.3243E+03
   -0.382489   11.99130  0.0000E+00  0.2595E-05  0.1570E-07  0.1399E-03  0.1122E-02  0.2798E+02
   -0.424989   11.99225  0.0000E+00  0.2377E-05  0.1085E-07  0.1758E-03  0.8491E-03  0.2029E+03
   -0.467490   11.99302  0.0000E+00  0.2260E-05  0.8196E-08  0.2264E-03  0.6516E-03  0.1083E+04
   -0.509990   11.99363  0.0000E+00  0.2204E-05  0.6692E-08  0.2658E-03  0.5130E-03  0.6342E+02
   -0.552491   11.99414  0.0000E+00  0.2181E-05  0.5774E-08  0.2937E-03  0.4138E-03  0.4170E+02
   -0.594992   11.99461  0.0000E+00  0.2179E-05  0.5171E-08  0.3203E-03  0.3356E-03  0.2606E+04
   -0.637493   11.99504  0.0000E+00  0.2189E-05  0.4745E-08  0.3463E-03  0.2731E-03  0.3409E+01
   -0.679994   11.99544  0.0000E+00  0.2206E-05  0.4436E-08  0.3715E-03  0.2249E-03  0.3307E+01
   -0.722495   11.99580  0.0000E+00  0.2227E-05  0.4208E-08  0.3956E-03  0.1874E-03  0.4268E+01
   -0.764997   11.99614  0.0000E+00  0.2253E-05  0.4036E-08  0.4182E-03  0.1590E-03  0.2910E+01
   -0.807498   11.99644  0.0000E+00  0.2283E-05  0.3904E-08  0.4402E-03  0.1371E-03  0.3667E+01
   -0.849999   11.99673  0.0000E+00  0.2316E-05  0.3805E-08  0.4615E-03  0.1194E-03  0.4622E+01
   -0.892501   11.99701  0.0000E+00  0.2353E-05  0.3732E-08  0.4818E-03  0.1046E-03  0.5854E+01
   -0.935002   11.99729  0.0000E+00  0.2391E-05  0.3685E-08  0.5007E-03  0.9229E-04  0.7485E+01
   -0.977504   11.99756  0.0000E+00  0.2430E-05  0.3659E-08  0.5178E-03  0.8161E-04  0.9417E+01
   -1.020005   11.99784  0.0000E+00  0.2471E-05  0.3651E-08  0.5330E-03  0.7242E-04  0.1189E+02
   -1.062506   11.99812  0.0000E+00  0.2511E-05  0.3661E-08  0.5459E-03  0.6424E-04  0.1472E+02
   -1.105007   11.99842  0.0000E+00  0.2550E-05  0.3686E-08  0.5563E-03  0.5698E-04  0.1810E+02
   -1.147508   11.99873  0.0000E+00  0.2586E-05  0.3725E-08  0.5637E-03  0.5028E-04  0.2228E+02
   -1.190009   11.99906  0.0000E+00  0.2619E-05  0.3774E-08  0.5682E-03  0.4400E-04  0.2645E+02
   -1.232509   11.99941  0.0000E+00  0.2648E-05  0.3837E-08  0.5698E-03  0.3813E-04  0.3204E+02
   -1.275010   11.99978  0.0000E+00  0.2674E-05  0.3917E-08  0.5681E-03  0.3292E-04  0.4235E+02
   -1.317510   12.00016  0.0000E+00  0.2697E-05  0.4019E-08  0.5625E-03  0.2829E-04  0.5792E+02
   -1.360010   12.00055  0.0000E+00  0.2717E-05  0.4151E-08  0.5520E-03  0.2423E-04  0.7994E+02
   -1.402510   12.00096  0.0000E+00  0.2734E-05  0.4329E-08  0.5355E-03  0.2072E-04  0.1207E+03
   -1.445009   12.00140  0.0000E+00  0.2745E-05  0.4547E-08  0.5139E-03  0.1757E-04  0.1842E+03
   -1.487508   12.00189  0.0000E+00  0.2749E-05  0.4820E-08  0.4861E-03  0.1458E-04  0.2375E+03
   -1.530007   12.00242  0.0000E+00  0.2743E-05  0.5239E-08  0.4474E-03  0.1175E-04  0.2896E+03
   -1.572506   12.00302  0.0000E+00  0.2714E-05  0.6133E-08  0.3683E-03  0.9269E-05  0.5652E+03
   -1.615004   12.00375  0.0000E+00  0.2612E-05  0.9082E-08  0.2783E-03  0.7369E-05  0.2970E+04
   -1.657502   12.00476  0.0000E+00  0.1823E-05  0.3581E-07  0.1635E-04  0.5977E-05 -0.7282E+06
   -1.699999   12.02263  0.0000E+00  0.0000E+00  0.0000E+00  0.0000E+00  0.5971E-05  0.0000E+00
