 1 - depth, m
 2 - temperature, C
 3 - salinity, kg/kg
 4 - turbulent kinetic energy, m**2/s**2
 5 - dissipation rate, m**2/s**3
 6 - kinematic heat conductance, m**2/s
 7 - modulus of horizontal velocity, m/s
 8 - Richardson number, n/d
   -0.000000   12.44901  0.0000E+00  0.2016E-04  0.3087E-05  0.2372E-04  0.2372E-01 -0.2500E-01
   -0.042498   12.47308  0.0000E+00  0.1271E-04  0.8275E-06  0.3706E-04  0.1068E-01 -0.5686E-01
   -0.084996   12.48442  0.0000E+00  0.9289E-05  0.3322E-06  0.4926E-04  0.6881E-02 -0.1220E+00
   -0.127495   12.49229  0.0000E+00  0.7150E-05  0.1565E-06  0.6528E-04  0.4678E-02 -0.2229E+00
   -0.169993   12.49813  0.0000E+00  0.5768E-05  0.8278E-07  0.1134E-03  0.3253E-02  0.3350E+03
   -0.212493   12.50208  0.0000E+00  0.4868E-05  0.4843E-07  0.1578E-03  0.2318E-02  0.1856E+03
   -0.254992   12.50507  0.0000E+00  0.4287E-05  0.3119E-07  0.1918E-03  0.1718E-02  0.5152E+02
   -0.297492   12.50743  0.0000E+00  0.3927E-05  0.2201E-07  0.2319E-03  0.1318E-02  0.3160E+02
   -0.339992   12.50922  0.0000E+00  0.3721E-05  0.1707E-07  0.2733E-03  0.1053E-02  0.9647E+02
   -0.382493   12.51056  0.0000E+00  0.3600E-05  0.1416E-07  0.3060E-03  0.8733E-03  0.8278E+01
   -0.424994   12.51164  0.0000E+00  0.3522E-05  0.1219E-07  0.3342E-03  0.7396E-03  0.4788E+01
   -0.467494   12.51257  0.0000E+00  0.3466E-05  0.1073E-07  0.3635E-03  0.6263E-03  0.1934E+01
   -0.509995   12.51338  0.0000E+00  0.3423E-05  0.9585E-08  0.3959E-03  0.5276E-03  0.2110E+01
   -0.552497   12.51409  0.0000E+00  0.3393E-05  0.8803E-08  0.4132E-03  0.4407E-03  0.3012E+02
   -0.594998   12.51474  0.0000E+00  0.3373E-05  0.8252E-08  0.4807E-03  0.3824E-03  0.4480E+01
   -0.637500   12.51527  0.0000E+00  0.3354E-05  0.7756E-08  0.4563E-03  0.3362E-03  0.1138E+01
   -0.680001   12.51581  0.0000E+00  0.3335E-05  0.7281E-08  0.4822E-03  0.2841E-03  0.1148E+01
   -0.722503   12.51631  0.0000E+00  0.3318E-05  0.6893E-08  0.5020E-03  0.2422E-03  0.1168E+01
   -0.765005   12.51678  0.0000E+00  0.3302E-05  0.6569E-08  0.5193E-03  0.2093E-03  0.1281E+01
   -0.807506   12.51723  0.0000E+00  0.3285E-05  0.6288E-08  0.5352E-03  0.1836E-03  0.1538E+01
   -0.850008   12.51765  0.0000E+00  0.3268E-05  0.6041E-08  0.5499E-03  0.1623E-03  0.1853E+01
   -0.892510   12.51806  0.0000E+00  0.3249E-05  0.5820E-08  0.5633E-03  0.1442E-03  0.2207E+01
   -0.935012   12.51844  0.0000E+00  0.3228E-05  0.5623E-08  0.5752E-03  0.1286E-03  0.2652E+01
   -0.977514   12.51880  0.0000E+00  0.3204E-05  0.5447E-08  0.5850E-03  0.1149E-03  0.3049E+01
   -1.020015   12.51915  0.0000E+00  0.3179E-05  0.5292E-08  0.5930E-03  0.1028E-03  0.3538E+01
   -1.062517   12.51947  0.0000E+00  0.3152E-05  0.5158E-08  0.5985E-03  0.9194E-04  0.3927E+01
   -1.105018   12.51977  0.0000E+00  0.3124E-05  0.5044E-08  0.6019E-03  0.8207E-04  0.4333E+01
   -1.147520   12.52005  0.0000E+00  0.3096E-05  0.4956E-08  0.6030E-03  0.7288E-04  0.4733E+01
   -1.190021   12.52032  0.0000E+00  0.3069E-05  0.4893E-08  0.6014E-03  0.6415E-04  0.5109E+01
   -1.232522   12.52056  0.0000E+00  0.3041E-05  0.4857E-08  0.5963E-03  0.5593E-04  0.5693E+01
   -1.275023   12.52079  0.0000E+00  0.3014E-05  0.4849E-08  0.5877E-03  0.4856E-04  0.7173E+01
   -1.317524   12.52102  0.0000E+00  0.2985E-05  0.4878E-08  0.5744E-03  0.4193E-04  0.9456E+01
   -1.360024   12.52124  0.0000E+00  0.2955E-05  0.4953E-08  0.5554E-03  0.3606E-04  0.1279E+02
   -1.402524   12.52148  0.0000E+00  0.2922E-05  0.5097E-08  0.5302E-03  0.3092E-04  0.1877E+02
   -1.445024   12.52172  0.0000E+00  0.2889E-05  0.5316E-08  0.5010E-03  0.2625E-04  0.2791E+02
   -1.487524   12.52196  0.0000E+00  0.2859E-05  0.5648E-08  0.4669E-03  0.2177E-04  0.3631E+02
   -1.530023   12.52221  0.0000E+00  0.2827E-05  0.6248E-08  0.4061E-03  0.1747E-04  0.5313E+02
   -1.572522   12.52253  0.0000E+00  0.2780E-05  0.7696E-08  0.3630E-03  0.1351E-04  0.1284E+03
   -1.615021   12.52314  0.0000E+00  0.2617E-05  0.1410E-07  0.1852E-03  0.1079E-04 -0.2442E+05
   -1.657519   12.52560  0.0000E+00  0.1810E-05  0.5094E-07  0.3155E-04  0.7468E-05 -0.2093E+07
   -1.700017   12.54287  0.0000E+00  0.0000E+00  0.0000E+00  0.0000E+00  0.7993E-05  0.0000E+00
