 1 - depth, m
 2 - temperature, C
 3 - salinity, kg/kg
 4 - turbulent kinetic energy, m**2/s**2
 5 - dissipation rate, m**2/s**3
 6 - kinematic heat conductance, m**2/s
 7 - modulus of horizontal velocity, m/s
 8 - Richardson number, n/d
   -0.000000   15.05996  0.0000E+00  0.2301E-03  0.1501E-03  0.6871E-04  0.1394E+00  0.3367E-01
   -0.042497   15.14505  0.0000E+00  0.1200E-03  0.4456E-04  0.1366E-03  0.3322E-01 -0.6091E-01
   -0.084995   15.16077  0.0000E+00  0.8520E-04  0.2254E-04  0.1238E-03  0.2230E-01 -0.1016E+01
   -0.127493   15.17244  0.0000E+00  0.6406E-04  0.1190E-04  0.1195E-03  0.1755E-01 -0.1910E+00
   -0.169992   15.18147  0.0000E+00  0.4880E-04  0.6315E-05  0.1216E-03  0.1409E-01 -0.7347E-01
   -0.212491   15.18934  0.0000E+00  0.3758E-04  0.3513E-05  0.1302E-03  0.1132E-01  0.1791E+02
   -0.254990   15.19619  0.0000E+00  0.2920E-04  0.1939E-05  0.1466E-03  0.9182E-02  0.2195E+02
   -0.297489   15.20225  0.0000E+00  0.2320E-04  0.1105E-05  0.1718E-03  0.7574E-02  0.1290E+03
   -0.339989   15.20751  0.0000E+00  0.1903E-04  0.6625E-06  0.2102E-03  0.6308E-02  0.1134E+03
   -0.382489   15.21186  0.0000E+00  0.1608E-04  0.4144E-06  0.2618E-03  0.5268E-02  0.6224E+03
   -0.424989   15.21533  0.0000E+00  0.1403E-04  0.2711E-06  0.3079E-03  0.4463E-02  0.1187E+04
   -0.467490   15.21824  0.0000E+00  0.1257E-04  0.1871E-06  0.3537E-03  0.3772E-02  0.6277E+02
   -0.509990   15.22062  0.0000E+00  0.1151E-04  0.1358E-06  0.3999E-03  0.3178E-02  0.3907E+02
   -0.552491   15.22266  0.0000E+00  0.1075E-04  0.1034E-06  0.4440E-03  0.2665E-02  0.5766E+02
   -0.594992   15.22436  0.0000E+00  0.1017E-04  0.8175E-07  0.4860E-03  0.2217E-02  0.1598E+03
   -0.637493   15.22585  0.0000E+00  0.9706E-05  0.6639E-07  0.5317E-03  0.1831E-02  0.1124E+02
   -0.679994   15.22715  0.0000E+00  0.9333E-05  0.5517E-07  0.5803E-03  0.1512E-02  0.6649E+01
   -0.722495   15.22832  0.0000E+00  0.9027E-05  0.4678E-07  0.6352E-03  0.1249E-02  0.2047E+02
   -0.764997   15.22937  0.0000E+00  0.8776E-05  0.4044E-07  0.6896E-03  0.1040E-02  0.1828E+01
   -0.807498   15.23031  0.0000E+00  0.8566E-05  0.3557E-07  0.7339E-03  0.8787E-03  0.1370E+01
   -0.850000   15.23119  0.0000E+00  0.8392E-05  0.3185E-07  0.7704E-03  0.7502E-03  0.1247E+01
   -0.892501   15.23201  0.0000E+00  0.8243E-05  0.2898E-07  0.7988E-03  0.6467E-03  0.1192E+01
   -0.935002   15.23280  0.0000E+00  0.8114E-05  0.2677E-07  0.8201E-03  0.5627E-03  0.1176E+01
   -0.977504   15.23355  0.0000E+00  0.7999E-05  0.2507E-07  0.8356E-03  0.4924E-03  0.1141E+01
   -1.020005   15.23429  0.0000E+00  0.7896E-05  0.2379E-07  0.8448E-03  0.4337E-03  0.1141E+01
   -1.062506   15.23500  0.0000E+00  0.7800E-05  0.2284E-07  0.8479E-03  0.3833E-03  0.1136E+01
   -1.105007   15.23571  0.0000E+00  0.7709E-05  0.2216E-07  0.8455E-03  0.3396E-03  0.1169E+01
   -1.147508   15.23642  0.0000E+00  0.7622E-05  0.2173E-07  0.8377E-03  0.3002E-03  0.1228E+01
   -1.190009   15.23712  0.0000E+00  0.7538E-05  0.2152E-07  0.8242E-03  0.2637E-03  0.1297E+01
   -1.232509   15.23783  0.0000E+00  0.7451E-05  0.2153E-07  0.8044E-03  0.2300E-03  0.1403E+01
   -1.275010   15.23856  0.0000E+00  0.7358E-05  0.2178E-07  0.7761E-03  0.2010E-03  0.1725E+01
   -1.317510   15.23931  0.0000E+00  0.7255E-05  0.2233E-07  0.7444E-03  0.1759E-03  0.2273E+01
   -1.360010   15.24009  0.0000E+00  0.7134E-05  0.2332E-07  0.6925E-03  0.1542E-03  0.3243E+01
   -1.402510   15.24094  0.0000E+00  0.6980E-05  0.2505E-07  0.6549E-03  0.1350E-03  0.5228E+01
   -1.445009   15.24184  0.0000E+00  0.6796E-05  0.2805E-07  0.5723E-03  0.1174E-03  0.1662E+02
   -1.487508   15.24302  0.0000E+00  0.6567E-05  0.3301E-07  0.5457E-03  0.9738E-04  0.6115E+02
   -1.530007   15.24431  0.0000E+00  0.6222E-05  0.4407E-07  0.4247E-03  0.7814E-04 -0.1748E+04
   -1.572506   15.24723  0.0000E+00  0.5675E-05  0.6938E-07  0.4408E-03  0.5450E-04  0.4017E+06
   -1.615004   15.24763  0.0000E+00  0.4582E-05  0.1763E-06  0.1968E-03  0.4379E-04 -0.4041E+08
   -1.657502   15.25977  0.0000E+00  0.3053E-05  0.4827E-06  0.1103E-03  0.2686E-04 -0.2869E+06
   -1.699999   15.26494  0.0000E+00  0.0000E+00  0.0000E+00  0.0000E+00  0.4108E-04  0.0000E+00
