 1 - depth, m
 2 - temperature, C
 3 - salinity, kg/kg
 4 - turbulent kinetic energy, m**2/s**2
 5 - dissipation rate, m**2/s**3
 6 - kinematic heat conductance, m**2/s
 7 - modulus of horizontal velocity, m/s
 8 - Richardson number, n/d
   -0.000000    0.00000  0.0000E+00  0.2581E-03  0.2497E-03  0.8405E-04  0.1889E+00  0.1795E-01
   -0.042498    0.00847  0.0000E+00  0.1399E-03  0.7799E-04  0.1192E-03  0.5064E-01  0.3469E-01
   -0.084997    0.01396  0.0000E+00  0.9398E-04  0.2841E-04  0.1018E-03  0.3292E-01  0.2340E-01
   -0.127496    0.01953  0.0000E+00  0.6805E-04  0.1198E-04  0.9651E-04  0.2552E-01  0.3124E+01
   -0.169996    0.02454  0.0000E+00  0.4990E-04  0.5418E-05  0.9330E-04  0.2025E-01  0.7627E-01
   -0.212495    0.02956  0.0000E+00  0.3647E-04  0.2500E-05  0.8962E-04  0.1602E-01  0.5815E-01
   -0.254996    0.03498  0.0000E+00  0.2694E-04  0.1273E-05  0.8545E-04  0.1269E-01  0.1103E+01
   -0.297496    0.04079  0.0000E+00  0.2024E-04  0.7093E-06  0.7983E-04  0.1030E-01  0.3132E+01
   -0.339997    0.04712  0.0000E+00  0.1547E-04  0.4207E-06  0.7292E-04  0.8567E-02  0.1727E+02
   -0.382498    0.05409  0.0000E+00  0.1189E-04  0.2560E-06  0.6619E-04  0.7170E-02  0.1067E+03
   -0.424999    0.06125  0.0000E+00  0.9252E-05  0.1615E-06  0.5784E-04  0.6107E-02  0.4343E+02
   -0.467500    0.06950  0.0000E+00  0.7209E-05  0.1054E-06  0.4894E-04  0.5104E-02  0.2470E+02
   -0.510002    0.07972  0.0000E+00  0.5561E-05  0.7023E-07  0.3964E-04  0.4159E-02  0.1207E+03
   -0.552504    0.09389  0.0000E+00  0.4188E-05  0.4701E-07  0.2961E-04  0.3291E-02  0.1051E+04
   -0.595006    0.12511  0.0000E+00  0.2978E-05  0.3053E-07  0.2010E-04  0.2433E-02  0.3560E+05
   -0.637508    0.29858  0.0000E+00  0.1931E-05  0.1828E-07  0.1210E-04  0.1600E-02  0.1057E+07
   -0.680010    0.77217  0.0000E+00  0.1128E-05  0.1009E-07  0.5126E-05  0.9807E-03  0.1017E+08
   -0.722512    1.38417  0.0000E+00  0.4838E-06  0.4226E-08  0.2818E-05  0.5174E-03  0.3113E+08
   -0.765014    2.06775  0.0000E+00  0.1021E-06  0.8619E-09  0.7218E-05  0.1576E-03  0.2608E+10
   -0.807517    2.96602  0.0000E+00  0.2541E-07  0.9707E-10  0.1086E-04  0.2507E-04  0.2855E+11
   -0.850019    3.68957  0.0000E+00  0.2775E-07  0.1931E-10  0.1731E-04  0.3027E-05  0.2647E+11
   -0.892521    3.99227  0.0000E+00  0.3459E-07  0.1335E-10  0.2986E-04  0.3897E-06 -0.1008E+11
   -0.935024    4.03385  0.0000E+00  0.3777E-07  0.1234E-10  0.4150E-04  0.1158E-06 -0.1386E+11
   -0.977526    4.03612  0.0000E+00  0.4007E-07  0.1200E-10  0.4795E-04  0.5590E-07 -0.1752E+11
   -1.020028    4.03792  0.0000E+00  0.4197E-07  0.1189E-10  0.5352E-04  0.3211E-07 -0.1820E+11
   -1.062530    4.03950  0.0000E+00  0.4359E-07  0.1189E-10  0.5839E-04  0.2005E-07 -0.2037E+11
   -1.105032    4.04093  0.0000E+00  0.4498E-07  0.1195E-10  0.6240E-04  0.1342E-07 -0.2095E+11
   -1.147534    4.04227  0.0000E+00  0.4615E-07  0.1207E-10  0.6560E-04  0.9154E-08 -0.2265E+11
   -1.190036    4.04355  0.0000E+00  0.4713E-07  0.1222E-10  0.6750E-04  0.5982E-08 -0.2863E+11
   -1.232538    4.04479  0.0000E+00  0.4800E-07  0.1241E-10  0.6865E-04  0.3660E-08 -0.4389E+11
   -1.275039    4.04602  0.0000E+00  0.4879E-07  0.1267E-10  0.6931E-04  0.2203E-08 -0.7230E+11
   -1.317540    4.04724  0.0000E+00  0.4949E-07  0.1299E-10  0.6942E-04  0.1298E-08 -0.1118E+12
   -1.360041    4.04848  0.0000E+00  0.5011E-07  0.1341E-10  0.6881E-04  0.7528E-09 -0.1643E+12
   -1.402542    4.04974  0.0000E+00  0.5066E-07  0.1397E-10  0.6760E-04  0.4522E-09 -0.2553E+12
   -1.445042    4.05104  0.0000E+00  0.5107E-07  0.1465E-10  0.6585E-04  0.2745E-09 -0.3698E+12
   -1.487543    4.05238  0.0000E+00  0.5132E-07  0.1551E-10  0.6308E-04  0.1511E-09 -0.5095E+12
   -1.530042    4.05378  0.0000E+00  0.5140E-07  0.1684E-10  0.5866E-04  0.6835E-10 -0.8337E+12
   -1.572542    4.05537  0.0000E+00  0.5119E-07  0.1965E-10  0.5132E-04  0.2602E-10 -0.1765E+13
   -1.615041    4.05751  0.0000E+00  0.4950E-07  0.3093E-10  0.2496E-04  0.1086E-10 -0.5236E+13
   -1.657540    4.06244  0.0000E+00  0.3712E-07  0.1096E-09  0.2436E-05  0.2794E-11 -0.8455E+14
   -1.700038    4.11542  0.0000E+00  0.0000E+00  0.0000E+00  0.0000E+00  0.2802E-11  0.0000E+00
