 1 - depth, m
 2 - temperature, C
 3 - salinity, kg/kg
 4 - turbulent kinetic energy, m**2/s**2
 5 - dissipation rate, m**2/s**3
 6 - kinematic heat conductance, m**2/s
 7 - modulus of horizontal velocity, m/s
 8 - Richardson number, n/d
   -0.000000    0.00000  0.0000E+00  0.2514E-10  0.1423E-13  0.1000E-09  0.0000E+00  0.2354E+17
   -0.042497    0.37164  0.0000E+00  0.6002E-10  0.1205E-13  0.1000E-09  0.0000E+00  0.2022E+17
   -0.084994    0.72679  0.0000E+00  0.1261E-09  0.1535E-13  0.1000E-09  0.0000E+00  0.1729E+17
   -0.127491    1.06653  0.0000E+00  0.2332E-09  0.2311E-13  0.1000E-09  0.0000E+00  0.1458E+17
   -0.169989    1.38916  0.0000E+00  0.4028E-09  0.3653E-13  0.1000E-09  0.0000E+00  0.1223E+17
   -0.212488    1.69627  0.0000E+00  0.6723E-09  0.5834E-13  0.1000E-09  0.0000E+00  0.1019E+17
   -0.254986    1.98954  0.0000E+00  0.1103E-08  0.9321E-13  0.1000E-09  0.0000E+00  0.8419E+16
   -0.297485    2.27060  0.0000E+00  0.1795E-08  0.1487E-12  0.1000E-09  0.0000E+00  0.6872E+16
   -0.339984    2.54126  0.0000E+00  0.2883E-08  0.2348E-12  0.1340E-09  0.0000E+00  0.5512E+16
   -0.382484    2.80355  0.0000E+00  0.4597E-08  0.3685E-12  0.2699E-09  0.0000E+00  0.4300E+16
   -0.424983    3.05949  0.0000E+00  0.7272E-08  0.5744E-12  0.5670E-09  0.0000E+00  0.3197E+16
   -0.467483    3.31101  0.0000E+00  0.1143E-07  0.8899E-12  0.1306E-08  0.0000E+00  0.2159E+16
   -0.509983    3.55865  0.0000E+00  0.1787E-07  0.1372E-11  0.3740E-08  0.0000E+00  0.1173E+16
   -0.552483    3.80149  0.0000E+00  0.2761E-07  0.2094E-11  0.2622E-07  0.0000E+00  0.2659E+15
   -0.594984    4.01025  0.0000E+00  0.2800E-07  0.2125E-11  0.1281E-03  0.0000E+00 -0.1004E+12
   -0.637484    4.01052  0.0000E+00  0.2819E-07  0.2143E-11  0.1251E-03  0.0000E+00 -0.1044E+12
   -0.679985    4.01080  0.0000E+00  0.2838E-07  0.2163E-11  0.1253E-03  0.0000E+00 -0.1066E+12
   -0.722485    4.01108  0.0000E+00  0.2858E-07  0.2187E-11  0.1255E-03  0.0000E+00 -0.1096E+12
   -0.764986    4.01136  0.0000E+00  0.2877E-07  0.2213E-11  0.1255E-03  0.0000E+00 -0.1135E+12
   -0.807487    4.01165  0.0000E+00  0.2897E-07  0.2243E-11  0.1254E-03  0.0000E+00 -0.1171E+12
   -0.849988    4.01195  0.0000E+00  0.2916E-07  0.2276E-11  0.1252E-03  0.0000E+00 -0.1210E+12
   -0.892488    4.01225  0.0000E+00  0.2935E-07  0.2313E-11  0.1248E-03  0.0000E+00 -0.1243E+12
   -0.934989    4.01256  0.0000E+00  0.2953E-07  0.2354E-11  0.1242E-03  0.0000E+00 -0.1267E+12
   -0.977490    4.01287  0.0000E+00  0.2970E-07  0.2398E-11  0.1235E-03  0.0000E+00 -0.1295E+12
   -1.019991    4.01318  0.0000E+00  0.2986E-07  0.2446E-11  0.1225E-03  0.0000E+00 -0.1321E+12
   -1.062491    4.01349  0.0000E+00  0.3001E-07  0.2498E-11  0.1213E-03  0.0000E+00 -0.1352E+12
   -1.104992    4.01381  0.0000E+00  0.3014E-07  0.2555E-11  0.1199E-03  0.0000E+00 -0.1380E+12
   -1.147492    4.01413  0.0000E+00  0.3026E-07  0.2616E-11  0.1183E-03  0.0000E+00 -0.1407E+12
   -1.189992    4.01446  0.0000E+00  0.3036E-07  0.2681E-11  0.1164E-03  0.0000E+00 -0.1444E+12
   -1.232492    4.01478  0.0000E+00  0.3044E-07  0.2756E-11  0.1142E-03  0.0000E+00 -0.1509E+12
   -1.274992    4.01512  0.0000E+00  0.3052E-07  0.2845E-11  0.1115E-03  0.0000E+00 -0.1588E+12
   -1.317492    4.01548  0.0000E+00  0.3058E-07  0.2953E-11  0.1082E-03  0.0000E+00 -0.1682E+12
   -1.359991    4.01585  0.0000E+00  0.3063E-07  0.3090E-11  0.1041E-03  0.0000E+00 -0.1810E+12
   -1.402490    4.01624  0.0000E+00  0.3066E-07  0.3271E-11  0.9927E-04  0.0000E+00 -0.1949E+12
   -1.444989    4.01665  0.0000E+00  0.3066E-07  0.3489E-11  0.9410E-04  0.0000E+00 -0.2077E+12
   -1.487488    4.01709  0.0000E+00  0.3064E-07  0.3760E-11  0.8797E-04  0.0000E+00 -0.2259E+12
   -1.529986    4.01756  0.0000E+00  0.3058E-07  0.4174E-11  0.7964E-04  0.0000E+00 -0.2703E+12
   -1.572484    4.01811  0.0000E+00  0.3041E-07  0.5053E-11  0.6783E-04  0.0000E+00 -0.4037E+12
   -1.614981    4.01892  0.0000E+00  0.2953E-07  0.8895E-11  0.2741E-04  0.0000E+00 -0.1181E+13
   -1.657478    4.02117  0.0000E+00  0.2192E-07  0.4408E-10  0.1756E-05  0.0000E+00 -0.2704E+14
   -1.699975    4.05468  0.0000E+00  0.0000E+00  0.0000E+00  0.0000E+00  0.0000E+00  0.0000E+00
