 1 - depth, m
 2 - temperature, C
 3 - salinity, kg/kg
 4 - turbulent kinetic energy, m**2/s**2
 5 - dissipation rate, m**2/s**3
 6 - kinematic heat conductance, m**2/s
 7 - modulus of horizontal velocity, m/s
 8 - Richardson number, n/d
   -0.000000    0.00000  0.0000E+00  0.1384E-08  0.2224E-11  0.1762E-09  0.0000E+00  0.3954E+17
   -0.042497    0.64930  0.0000E+00  0.6834E-08  0.1900E-11  0.1936E-09  0.0000E+00  0.3081E+17
   -0.084995    1.26774  0.0000E+00  0.1724E-07  0.2776E-11  0.3685E-09  0.0000E+00  0.2367E+17
   -0.127493    1.86906  0.0000E+00  0.3503E-07  0.4724E-11  0.8291E-09  0.0000E+00  0.1792E+17
   -0.169991    2.48385  0.0000E+00  0.6537E-07  0.8228E-11  0.2151E-08  0.0000E+00  0.1205E+17
   -0.212490    3.12531  0.0000E+00  0.1172E-06  0.1425E-10  0.8746E-08  0.0000E+00  0.5443E+16
   -0.254989    3.78755  0.0000E+00  0.1688E-06  0.2053E-10  0.1246E-03  0.0000E+00  0.4806E+15
   -0.297489    4.05981  0.0000E+00  0.1697E-06  0.2064E-10  0.4433E-03  0.0000E+00 -0.2856E+12
   -0.339988    4.06007  0.0000E+00  0.1701E-06  0.2071E-10  0.4401E-03  0.0000E+00 -0.2764E+12
   -0.382488    4.06032  0.0000E+00  0.1705E-06  0.2079E-10  0.4406E-03  0.0000E+00 -0.2777E+12
   -0.424988    4.06057  0.0000E+00  0.1709E-06  0.2087E-10  0.4409E-03  0.0000E+00 -0.2768E+12
   -0.467489    4.06082  0.0000E+00  0.1713E-06  0.2096E-10  0.4409E-03  0.0000E+00 -0.2775E+12
   -0.509989    4.06107  0.0000E+00  0.1717E-06  0.2106E-10  0.4408E-03  0.0000E+00 -0.2744E+12
   -0.552490    4.06131  0.0000E+00  0.1720E-06  0.2116E-10  0.4403E-03  0.0000E+00 -0.2720E+12
   -0.594991    4.06155  0.0000E+00  0.1722E-06  0.2128E-10  0.4395E-03  0.0000E+00 -0.2702E+12
   -0.637492    4.06179  0.0000E+00  0.1725E-06  0.2141E-10  0.4383E-03  0.0000E+00 -0.2708E+12
   -0.679993    4.06202  0.0000E+00  0.1727E-06  0.2155E-10  0.4366E-03  0.0000E+00 -0.2713E+12
   -0.722494    4.06226  0.0000E+00  0.1729E-06  0.2171E-10  0.4345E-03  0.0000E+00 -0.2745E+12
   -0.764995    4.06250  0.0000E+00  0.1731E-06  0.2190E-10  0.4318E-03  0.0000E+00 -0.2783E+12
   -0.807496    4.06274  0.0000E+00  0.1733E-06  0.2212E-10  0.4286E-03  0.0000E+00 -0.2823E+12
   -0.849998    4.06298  0.0000E+00  0.1734E-06  0.2236E-10  0.4249E-03  0.0000E+00 -0.2861E+12
   -0.892499    4.06323  0.0000E+00  0.1736E-06  0.2263E-10  0.4206E-03  0.0000E+00 -0.2897E+12
   -0.935000    4.06347  0.0000E+00  0.1736E-06  0.2294E-10  0.4159E-03  0.0000E+00 -0.2913E+12
   -0.977501    4.06372  0.0000E+00  0.1737E-06  0.2328E-10  0.4106E-03  0.0000E+00 -0.2943E+12
   -1.020003    4.06397  0.0000E+00  0.1737E-06  0.2365E-10  0.4047E-03  0.0000E+00 -0.2963E+12
   -1.062504    4.06422  0.0000E+00  0.1737E-06  0.2406E-10  0.3983E-03  0.0000E+00 -0.2999E+12
   -1.105005    4.06447  0.0000E+00  0.1737E-06  0.2452E-10  0.3914E-03  0.0000E+00 -0.3020E+12
   -1.147505    4.06473  0.0000E+00  0.1737E-06  0.2502E-10  0.3841E-03  0.0000E+00 -0.3049E+12
   -1.190006    4.06498  0.0000E+00  0.1736E-06  0.2556E-10  0.3763E-03  0.0000E+00 -0.3085E+12
   -1.232507    4.06524  0.0000E+00  0.1735E-06  0.2619E-10  0.3675E-03  0.0000E+00 -0.3162E+12
   -1.275007    4.06550  0.0000E+00  0.1733E-06  0.2694E-10  0.3574E-03  0.0000E+00 -0.3253E+12
   -1.317507    4.06576  0.0000E+00  0.1731E-06  0.2787E-10  0.3457E-03  0.0000E+00 -0.3376E+12
   -1.360007    4.06604  0.0000E+00  0.1729E-06  0.2906E-10  0.3317E-03  0.0000E+00 -0.3544E+12
   -1.402507    4.06632  0.0000E+00  0.1725E-06  0.3064E-10  0.3151E-03  0.0000E+00 -0.3740E+12
   -1.445006    4.06662  0.0000E+00  0.1722E-06  0.3256E-10  0.2976E-03  0.0000E+00 -0.3930E+12
   -1.487505    4.06694  0.0000E+00  0.1717E-06  0.3494E-10  0.2781E-03  0.0000E+00 -0.4177E+12
   -1.530004    4.06727  0.0000E+00  0.1712E-06  0.3858E-10  0.2518E-03  0.0000E+00 -0.4681E+12
   -1.572502    4.06764  0.0000E+00  0.1701E-06  0.4631E-10  0.2192E-03  0.0000E+00 -0.5857E+12
   -1.615000    4.06810  0.0000E+00  0.1659E-06  0.7867E-10  0.1089E-03  0.0000E+00 -0.1259E+13
   -1.657498    4.06913  0.0000E+00  0.1174E-06  0.5144E-09  0.3548E-05  0.0000E+00 -0.4615E+14
   -1.699995    4.09954  0.0000E+00  0.0000E+00  0.0000E+00  0.0000E+00  0.0000E+00  0.0000E+00
