 1 - depth, m
 2 - temperature, C
 3 - salinity, kg/kg
 4 - turbulent kinetic energy, m**2/s**2
 5 - dissipation rate, m**2/s**3
 6 - kinematic heat conductance, m**2/s
 7 - modulus of horizontal velocity, m/s
 8 - Richardson number, n/d
   -0.000000    1.26290  0.0000E+00  0.1077E-02  0.6878E-02  0.1141E-03  0.4737E+00  0.1246E-03
   -0.042498    1.23115  0.0000E+00  0.5334E-03  0.3741E-02  0.2669E-03  0.1037E+00 -0.8777E-03
   -0.084996    1.21541  0.0000E+00  0.3461E-03  0.1156E-02  0.2722E-03  0.5691E-01 -0.6719E-02
   -0.127494    1.20981  0.0000E+00  0.2518E-03  0.5308E-03  0.2332E-03  0.4365E-01 -0.2312E-01
   -0.169993    1.20703  0.0000E+00  0.1902E-03  0.2647E-03  0.2131E-03  0.3513E-01 -0.3442E-02
   -0.212492    1.20371  0.0000E+00  0.1434E-03  0.1391E-03  0.1975E-03  0.2819E-01 -0.3217E-01
   -0.254991    1.20035  0.0000E+00  0.1111E-03  0.7979E-04  0.1926E-03  0.2281E-01 -0.1399E+00
   -0.297491    1.19741  0.0000E+00  0.8780E-04  0.4625E-04  0.1896E-03  0.1930E-01 -0.2073E+01
   -0.339991    1.19551  0.0000E+00  0.7097E-04  0.2637E-04  0.1874E-03  0.1702E-01 -0.1369E+02
   -0.382491    1.19421  0.0000E+00  0.5845E-04  0.1421E-04  0.1877E-03  0.1481E-01 -0.2360E+02
   -0.424991    1.19312  0.0000E+00  0.4924E-04  0.7310E-05  0.1858E-03  0.1314E-01 -0.2423E+02
   -0.467492    1.19234  0.0000E+00  0.4225E-04  0.3787E-05  0.1841E-03  0.1136E-01 -0.2331E+02
   -0.509993    1.19184  0.0000E+00  0.3678E-04  0.2097E-05  0.1824E-03  0.9740E-02  0.1215E+03
   -0.552494    1.19157  0.0000E+00  0.3238E-04  0.1279E-05  0.1794E-03  0.8351E-02  0.7905E+04
   -0.594995    1.19170  0.0000E+00  0.2866E-04  0.8556E-06  0.1767E-03  0.7082E-02  0.3256E+06
   -0.637497    1.19221  0.0000E+00  0.2538E-04  0.6097E-06  0.1753E-03  0.5981E-02  0.1239E+08
   -0.679998    1.19280  0.0000E+00  0.2247E-04  0.4533E-06  0.1721E-03  0.5104E-02  0.1051E+10
   -0.722499    1.19363  0.0000E+00  0.1988E-04  0.3464E-06  0.1691E-03  0.4365E-02  0.3435E+11
   -0.765001    1.19451  0.0000E+00  0.1756E-04  0.2700E-06  0.1659E-03  0.3767E-02 -0.1103E+12
   -0.807503    1.19544  0.0000E+00  0.1549E-04  0.2132E-06  0.1594E-03  0.3297E-02 -0.1204E+12
   -0.850004    1.19671  0.0000E+00  0.1366E-04  0.1704E-06  0.1515E-03  0.2896E-02  0.1213E+13
   -0.892506    1.19864  0.0000E+00  0.1203E-04  0.1373E-06  0.1435E-03  0.2552E-02 -0.1214E+11
   -0.935007    1.20109  0.0000E+00  0.1059E-04  0.1111E-06  0.1340E-03  0.2258E-02  0.9236E+12
   -0.977509    1.20487  0.0000E+00  0.9302E-05  0.9014E-07  0.1248E-03  0.1992E-02 -0.1749E+12
   -1.020010    1.21250  0.0000E+00  0.8151E-05  0.7327E-07  0.1147E-03  0.1758E-02  0.8221E+12
   -1.062512    1.23219  0.0000E+00  0.7125E-05  0.5963E-07  0.1050E-03  0.1538E-02  0.2823E+12
   -1.105013    1.26719  0.0000E+00  0.6217E-05  0.4860E-07  0.9504E-04  0.1338E-02  0.1301E+14
   -1.147514    1.33449  0.0000E+00  0.5438E-05  0.3987E-07  0.8515E-04  0.1138E-02  0.6524E+14
   -1.190015    1.43913  0.0000E+00  0.4775E-05  0.3299E-07  0.7595E-04  0.9293E-03  0.2140E+15
   -1.232516    1.56546  0.0000E+00  0.4180E-05  0.2728E-07  0.6764E-04  0.7300E-03  0.4851E+15
   -1.275017    1.71684  0.0000E+00  0.3641E-05  0.2252E-07  0.5945E-04  0.5715E-03  0.6801E+15
   -1.317517    1.89862  0.0000E+00  0.3155E-05  0.1853E-07  0.5305E-04  0.4426E-03  0.7244E+15
   -1.360018    2.11486  0.0000E+00  0.2707E-05  0.1508E-07  0.4735E-04  0.3388E-03  0.1119E+16
   -1.402518    2.36791  0.0000E+00  0.2286E-05  0.1202E-07  0.4160E-04  0.2563E-03  0.1293E+16
   -1.445017    2.65694  0.0000E+00  0.1957E-05  0.9842E-08  0.3731E-04  0.1903E-03  0.9370E+15
   -1.487517    2.91552  0.0000E+00  0.1690E-05  0.8284E-08  0.3336E-04  0.1349E-03  0.5063E+15
   -1.530016    3.28303  0.0000E+00  0.1494E-05  0.7363E-08  0.2929E-04  0.8885E-04 -0.1347E+16
   -1.572514    3.65903  0.0000E+00  0.1343E-05  0.7207E-08  0.2426E-04  0.6038E-04 -0.4023E+16
   -1.615013    3.96079  0.0000E+00  0.1112E-05  0.8819E-08  0.1486E-04  0.4404E-04 -0.5912E+16
   -1.657511    4.26707  0.0000E+00  0.6052E-06  0.2219E-07  0.2882E-05  0.3149E-04 -0.6036E+16
   -1.700008    4.65939  0.0000E+00  0.0000E+00  0.0000E+00  0.0000E+00  0.3171E-04  0.0000E+00
