 1 - depth, m
 2 - temperature, C
 3 - salinity, kg/kg
 4 - turbulent kinetic energy, m**2/s**2
 5 - dissipation rate, m**2/s**3
 6 - kinematic heat conductance, m**2/s
 7 - modulus of horizontal velocity, m/s
 8 - Richardson number, n/d
   -0.000000   10.26220  0.0000E+00  0.2284E-03  0.1583E-03  0.7936E-04  0.1520E+00  0.2383E-02
   -0.042497   10.31101  0.0000E+00  0.1211E-03  0.4938E-04  0.1264E-03  0.3757E-01 -0.2833E-01
   -0.084995   10.31855  0.0000E+00  0.8434E-04  0.2192E-04  0.1116E-03  0.2512E-01 -0.3901E-01
   -0.127493   10.32493  0.0000E+00  0.6145E-04  0.1050E-04  0.1028E-03  0.1956E-01 -0.6151E-01
   -0.169992   10.33032  0.0000E+00  0.4531E-04  0.5246E-05  0.9867E-04  0.1554E-01 -0.1108E+00
   -0.212490   10.33531  0.0000E+00  0.3339E-04  0.2583E-05  0.9759E-04  0.1230E-01 -0.6575E-01
   -0.254990   10.34011  0.0000E+00  0.2488E-04  0.1304E-05  0.9954E-04  0.9720E-02  0.1546E+02
   -0.297489   10.34458  0.0000E+00  0.1898E-04  0.6906E-06  0.1034E-03  0.7782E-02  0.1108E+02
   -0.339989   10.34862  0.0000E+00  0.1494E-04  0.3971E-06  0.1106E-03  0.6303E-02  0.2720E+03
   -0.382489   10.35216  0.0000E+00  0.1210E-04  0.2474E-06  0.1220E-03  0.5116E-02  0.1660E+02
   -0.424989   10.35526  0.0000E+00  0.1010E-04  0.1627E-06  0.1375E-03  0.4199E-02  0.1577E+02
   -0.467489   10.35803  0.0000E+00  0.8633E-05  0.1114E-06  0.1579E-03  0.3428E-02  0.3069E+02
   -0.509990   10.36048  0.0000E+00  0.7534E-05  0.7881E-07  0.1863E-03  0.2781E-02  0.1255E+02
   -0.552491   10.36262  0.0000E+00  0.6692E-05  0.5740E-07  0.2223E-03  0.2242E-02  0.2466E+02
   -0.594992   10.36446  0.0000E+00  0.6042E-05  0.4309E-07  0.2693E-03  0.1791E-02  0.2001E+02
   -0.637493   10.36600  0.0000E+00  0.5530E-05  0.3322E-07  0.3147E-03  0.1425E-02  0.3104E+02
   -0.679994   10.36729  0.0000E+00  0.5128E-05  0.2629E-07  0.3548E-03  0.1138E-02  0.3987E+02
   -0.722495   10.36841  0.0000E+00  0.4814E-05  0.2135E-07  0.3876E-03  0.9107E-03  0.9103E+01
   -0.764996   10.36939  0.0000E+00  0.4570E-05  0.1778E-07  0.4161E-03  0.7362E-03  0.7811E+01
   -0.807498   10.37028  0.0000E+00  0.4384E-05  0.1516E-07  0.4428E-03  0.6060E-03  0.1435E+02
   -0.849999   10.37109  0.0000E+00  0.4247E-05  0.1329E-07  0.4685E-03  0.5057E-03  0.9230E+01
   -0.892500   10.37183  0.0000E+00  0.4149E-05  0.1192E-07  0.4915E-03  0.4282E-03  0.2723E+01
   -0.935002   10.37254  0.0000E+00  0.4079E-05  0.1092E-07  0.5120E-03  0.3675E-03  0.1888E+01
   -0.977503   10.37321  0.0000E+00  0.4029E-05  0.1017E-07  0.5287E-03  0.3183E-03  0.2674E+01
   -1.020004   10.37387  0.0000E+00  0.3993E-05  0.9604E-08  0.5432E-03  0.2777E-03  0.2328E+01
   -1.062505   10.37452  0.0000E+00  0.3967E-05  0.9171E-08  0.5553E-03  0.2431E-03  0.2624E+01
   -1.105006   10.37516  0.0000E+00  0.3948E-05  0.8845E-08  0.5650E-03  0.2131E-03  0.2995E+01
   -1.147507   10.37581  0.0000E+00  0.3933E-05  0.8614E-08  0.5717E-03  0.1863E-03  0.3424E+01
   -1.190008   10.37647  0.0000E+00  0.3921E-05  0.8463E-08  0.5750E-03  0.1614E-03  0.3864E+01
   -1.232509   10.37714  0.0000E+00  0.3909E-05  0.8378E-08  0.5749E-03  0.1387E-03  0.4451E+01
   -1.275009   10.37782  0.0000E+00  0.3897E-05  0.8356E-08  0.5711E-03  0.1192E-03  0.5720E+01
   -1.317509   10.37851  0.0000E+00  0.3882E-05  0.8400E-08  0.5627E-03  0.1023E-03  0.7609E+01
   -1.360009   10.37922  0.0000E+00  0.3863E-05  0.8527E-08  0.5483E-03  0.8750E-04  0.1038E+02
   -1.402509   10.37995  0.0000E+00  0.3839E-05  0.8766E-08  0.5266E-03  0.7477E-04  0.1542E+02
   -1.445008   10.38073  0.0000E+00  0.3809E-05  0.9133E-08  0.4983E-03  0.6328E-04  0.2354E+02
   -1.487507   10.38156  0.0000E+00  0.3774E-05  0.9678E-08  0.4664E-03  0.5230E-04  0.3048E+02
   -1.530006   10.38248  0.0000E+00  0.3725E-05  0.1065E-07  0.4023E-03  0.4182E-04  0.3953E+02
   -1.572505   10.38356  0.0000E+00  0.3633E-05  0.1294E-07  0.4203E-03  0.3216E-04  0.6115E+02
   -1.615003   10.38458  0.0000E+00  0.3280E-05  0.2490E-07  0.1695E-03  0.2648E-04 -0.1860E+07
   -1.657501   10.39023  0.0000E+00  0.2104E-05  0.8050E-07  0.4592E-04  0.1659E-04 -0.9335E+05
   -1.699998   10.40040  0.0000E+00  0.0000E+00  0.0000E+00  0.0000E+00  0.1919E-04  0.0000E+00
