 1 - depth, m
 2 - temperature, C
 3 - salinity, kg/kg
 4 - turbulent kinetic energy, m**2/s**2
 5 - dissipation rate, m**2/s**3
 6 - kinematic heat conductance, m**2/s
 7 - modulus of horizontal velocity, m/s
 8 - Richardson number, n/d
   -0.000000    0.00000  0.0000E+00  0.3189E-13  0.5207E-16  0.1000E-09  0.0000E+00  0.9600E+16
   -0.042497    0.14690  0.0000E+00  0.3189E-13  0.5207E-16  0.1000E-09  0.0000E+00  0.9487E+16
   -0.084995    0.29821  0.0000E+00  0.3189E-13  0.5207E-16  0.1000E-09  0.0000E+00  0.9311E+16
   -0.127493    0.45341  0.0000E+00  0.3189E-13  0.5207E-16  0.1000E-09  0.0000E+00  0.8833E+16
   -0.169991    0.60765  0.0000E+00  0.3189E-13  0.5207E-16  0.1000E-09  0.0000E+00  0.8358E+16
   -0.212490    0.76077  0.0000E+00  0.3189E-13  0.5207E-16  0.1000E-09  0.0000E+00  0.7892E+16
   -0.254989    0.91276  0.0000E+00  0.3189E-13  0.5207E-16  0.1000E-09  0.0000E+00  0.7432E+16
   -0.297488    1.06350  0.0000E+00  0.3189E-13  0.5207E-16  0.1000E-09  0.0000E+00  0.6960E+16
   -0.339988    1.21245  0.0000E+00  0.3189E-13  0.5207E-16  0.1000E-09  0.0000E+00  0.6473E+16
   -0.382488    1.35892  0.0000E+00  0.3189E-13  0.5207E-16  0.1000E-09  0.0000E+00  0.5996E+16
   -0.424988    1.50264  0.0000E+00  0.3189E-13  0.5207E-16  0.1000E-09  0.0000E+00  0.5516E+16
   -0.467488    1.64298  0.0000E+00  0.3189E-13  0.5207E-16  0.1000E-09  0.0000E+00  0.5054E+16
   -0.509989    1.77970  0.0000E+00  0.3189E-13  0.5207E-16  0.1000E-09  0.0000E+00  0.4638E+16
   -0.552490    1.91338  0.0000E+00  0.3189E-13  0.5207E-16  0.1000E-09  0.0000E+00  0.4241E+16
   -0.594990    2.04396  0.0000E+00  0.3189E-13  0.5207E-16  0.1000E-09  0.0000E+00  0.3870E+16
   -0.637491    2.17158  0.0000E+00  0.3189E-13  0.5207E-16  0.1000E-09  0.0000E+00  0.3530E+16
   -0.679992    2.29665  0.0000E+00  0.3189E-13  0.5207E-16  0.1000E-09  0.0000E+00  0.3201E+16
   -0.722494    2.41891  0.0000E+00  0.3189E-13  0.5207E-16  0.1000E-09  0.0000E+00  0.2890E+16
   -0.764995    2.53836  0.0000E+00  0.3189E-13  0.5207E-16  0.1000E-09  0.0000E+00  0.2589E+16
   -0.807496    2.65467  0.0000E+00  0.3189E-13  0.5207E-16  0.1000E-09  0.0000E+00  0.2288E+16
   -0.849997    2.76689  0.0000E+00  0.3189E-13  0.5207E-16  0.1000E-09  0.0000E+00  0.1998E+16
   -0.892499    2.87428  0.0000E+00  0.3189E-13  0.5207E-16  0.1000E-09  0.0000E+00  0.1756E+16
   -0.935000    2.97828  0.0000E+00  0.3189E-13  0.5207E-16  0.1000E-09  0.0000E+00  0.1541E+16
   -0.977501    3.07945  0.0000E+00  0.3189E-13  0.5207E-16  0.1000E-09  0.0000E+00  0.1338E+16
   -1.020002    3.17766  0.0000E+00  0.3189E-13  0.5207E-16  0.1000E-09  0.0000E+00  0.1137E+16
   -1.062503    3.27181  0.0000E+00  0.6065E-13  0.5207E-16  0.1000E-09  0.0000E+00  0.9522E+15
   -1.105004    3.36163  0.0000E+00  0.2192E-12  0.1028E-15  0.1000E-09  0.0000E+00  0.7777E+15
   -1.147505    3.44609  0.0000E+00  0.6340E-12  0.2661E-15  0.1000E-09  0.0000E+00  0.6200E+15
   -1.190006    3.52445  0.0000E+00  0.1714E-11  0.6914E-15  0.1000E-09  0.0000E+00  0.4865E+15
   -1.232506    3.59693  0.0000E+00  0.4661E-11  0.1825E-14  0.1000E-09  0.0000E+00  0.3776E+15
   -1.275007    3.66433  0.0000E+00  0.1269E-10  0.4837E-14  0.1000E-09  0.0000E+00  0.2915E+15
   -1.317507    3.72819  0.0000E+00  0.3456E-10  0.1284E-13  0.1674E-09  0.0000E+00  0.2376E+15
   -1.360007    3.79552  0.0000E+00  0.9449E-10  0.3424E-13  0.5980E-09  0.0000E+00  0.1767E+15
   -1.402506    3.86843  0.0000E+00  0.2596E-09  0.9190E-13  0.2980E-08  0.0000E+00  0.9384E+14
   -1.445006    3.94237  0.0000E+00  0.6640E-09  0.2311E-12  0.4278E-07  0.0000E+00  0.1408E+14
   -1.487505    3.99826  0.0000E+00  0.1457E-08  0.5196E-12  0.1196E-05  0.0000E+00 -0.1950E+13
   -1.530003    4.00611  0.0000E+00  0.2236E-08  0.9549E-12  0.1650E-05  0.0000E+00 -0.2928E+13
   -1.572502    4.01399  0.0000E+00  0.3307E-08  0.1901E-11  0.2292E-05  0.0000E+00 -0.5969E+13
   -1.615000    4.02540  0.0000E+00  0.4493E-08  0.4131E-11  0.1724E-05  0.0000E+00 -0.1443E+14
   -1.657497    4.04438  0.0000E+00  0.4733E-08  0.9774E-11  0.6598E-06  0.0000E+00 -0.6445E+14
   -1.699995    4.09406  0.0000E+00  0.0000E+00  0.0000E+00  0.0000E+00  0.0000E+00  0.0000E+00
