 1 - depth, m
 2 - temperature, C
 3 - salinity, kg/kg
 4 - turbulent kinetic energy, m**2/s**2
 5 - dissipation rate, m**2/s**3
 6 - kinematic heat conductance, m**2/s
 7 - modulus of horizontal velocity, m/s
 8 - Richardson number, n/d
   -0.000000   12.56222  0.0000E+00  0.8488E-03  0.1966E-02  0.9027E-04  0.3334E+00 -0.2368E-02
   -0.042499   12.63541  0.0000E+00  0.3981E-03  0.5800E-03  0.2779E-03  0.6921E-01 -0.3333E-02
   -0.084997   12.64990  0.0000E+00  0.2800E-03  0.3084E-03  0.2558E-03  0.4210E-01 -0.5689E-01
   -0.127497   12.65848  0.0000E+00  0.2149E-03  0.1938E-03  0.2202E-03  0.3386E-01 -0.2180E+00
   -0.169996   12.66433  0.0000E+00  0.1628E-03  0.1065E-03  0.1957E-03  0.2814E-01 -0.4888E-01
   -0.212496   12.66923  0.0000E+00  0.1239E-03  0.5793E-04  0.1811E-03  0.2331E-01 -0.1396E+00
   -0.254997   12.67412  0.0000E+00  0.9377E-04  0.3166E-04  0.1764E-03  0.1945E-01  0.4200E+02
   -0.297497   12.67837  0.0000E+00  0.7168E-04  0.1769E-04  0.1756E-03  0.1661E-01  0.5307E+03
   -0.339998   12.68242  0.0000E+00  0.5626E-04  0.1003E-04  0.1771E-03  0.1432E-01  0.1579E+01
   -0.382499   12.68609  0.0000E+00  0.4512E-04  0.5568E-05  0.1836E-03  0.1209E-01  0.1386E+01
   -0.425001   12.68934  0.0000E+00  0.3709E-04  0.3030E-05  0.1897E-03  0.1039E-01  0.1007E+02
   -0.467502   12.69244  0.0000E+00  0.3107E-04  0.1684E-05  0.2018E-03  0.8755E-02  0.1657E+02
   -0.510004   12.69529  0.0000E+00  0.2661E-04  0.1008E-05  0.2192E-03  0.7325E-02  0.3396E+02
   -0.552506   12.69771  0.0000E+00  0.2313E-04  0.6530E-06  0.2399E-03  0.6143E-02  0.8492E+02
   -0.595008   12.69986  0.0000E+00  0.2037E-04  0.4539E-06  0.2654E-03  0.5124E-02  0.7788E+02
   -0.637511   12.70181  0.0000E+00  0.1805E-04  0.3303E-06  0.2932E-03  0.4265E-02  0.1501E+02
   -0.680013   12.70351  0.0000E+00  0.1613E-04  0.2502E-06  0.3237E-03  0.3571E-02  0.1433E+02
   -0.722515   12.70502  0.0000E+00  0.1452E-04  0.1946E-06  0.3546E-03  0.3002E-02  0.2355E+02
   -0.765018   12.70640  0.0000E+00  0.1315E-04  0.1544E-06  0.3940E-03  0.2546E-02  0.5592E+03
   -0.807520   12.70759  0.0000E+00  0.1198E-04  0.1241E-06  0.4328E-03  0.2193E-02  0.9718E+02
   -0.850023   12.70867  0.0000E+00  0.1099E-04  0.1012E-06  0.4683E-03  0.1902E-02  0.6601E+02
   -0.892525   12.70963  0.0000E+00  0.1015E-04  0.8322E-07  0.5020E-03  0.1660E-02  0.1273E+02
   -0.935028   12.71051  0.0000E+00  0.9430E-05  0.6915E-07  0.5270E-03  0.1458E-02  0.4777E+02
   -0.977530   12.71132  0.0000E+00  0.8812E-05  0.5804E-07  0.5498E-03  0.1282E-02  0.4159E+02
   -1.020033   12.71208  0.0000E+00  0.8278E-05  0.4921E-07  0.5666E-03  0.1130E-02  0.8469E+02
   -1.062535   12.71280  0.0000E+00  0.7818E-05  0.4221E-07  0.5814E-03  0.9931E-03  0.5706E+02
   -1.105038   12.71350  0.0000E+00  0.7419E-05  0.3666E-07  0.5929E-03  0.8707E-03  0.5676E+01
   -1.147540   12.71417  0.0000E+00  0.7078E-05  0.3236E-07  0.5983E-03  0.7568E-03  0.1901E+02
   -1.190042   12.71482  0.0000E+00  0.6787E-05  0.2909E-07  0.6001E-03  0.6472E-03  0.3788E+01
   -1.232543   12.71546  0.0000E+00  0.6525E-05  0.2656E-07  0.6007E-03  0.5442E-03  0.7523E+01
   -1.275045   12.71610  0.0000E+00  0.6285E-05  0.2465E-07  0.5964E-03  0.4553E-03  0.5696E+01
   -1.317546   12.71674  0.0000E+00  0.6064E-05  0.2331E-07  0.5848E-03  0.3803E-03  0.5377E+01
   -1.360048   12.71738  0.0000E+00  0.5857E-05  0.2253E-07  0.5655E-03  0.3184E-03  0.7059E+01
   -1.402548   12.71805  0.0000E+00  0.5651E-05  0.2244E-07  0.5402E-03  0.2690E-03  0.1298E+02
   -1.445049   12.71875  0.0000E+00  0.5452E-05  0.2353E-07  0.4997E-03  0.2271E-03  0.1931E+02
   -1.487549   12.71956  0.0000E+00  0.5245E-05  0.2624E-07  0.4650E-03  0.1847E-03  0.3585E+02
   -1.530049   12.72046  0.0000E+00  0.4990E-05  0.3316E-07  0.3951E-03  0.1424E-03  0.1615E+02
   -1.572549   12.72176  0.0000E+00  0.4648E-05  0.5003E-07  0.3917E-03  0.9911E-04  0.9208E+04
   -1.615048   12.72261  0.0000E+00  0.3904E-05  0.1251E-06  0.1852E-03  0.7751E-04 -0.4215E+06
   -1.657547   12.72812  0.0000E+00  0.2539E-05  0.3201E-06  0.6628E-04  0.4928E-04 -0.1402E+07
   -1.700046   12.73572  0.0000E+00  0.0000E+00  0.0000E+00  0.0000E+00  0.7821E-04  0.0000E+00
