 1 - depth, m
 2 - temperature, C
 3 - salinity, kg/kg
 4 - turbulent kinetic energy, m**2/s**2
 5 - dissipation rate, m**2/s**3
 6 - kinematic heat conductance, m**2/s
 7 - modulus of horizontal velocity, m/s
 8 - Richardson number, n/d
   -0.000000    7.61894  0.0000E+00  0.1263E-03  0.4990E-04  0.5196E-04  0.8428E-01  0.2847E-02
   -0.042498    7.68095  0.0000E+00  0.7101E-04  0.1607E-04  0.9888E-04  0.2183E-01 -0.1143E+00
   -0.084996    7.69398  0.0000E+00  0.5152E-04  0.8047E-05  0.1018E-03  0.1494E-01  0.3853E+02
   -0.127494    7.70358  0.0000E+00  0.3872E-04  0.4425E-05  0.1073E-03  0.1160E-01  0.8449E+01
   -0.169993    7.71110  0.0000E+00  0.2930E-04  0.2442E-05  0.1170E-03  0.9205E-02  0.1813E+02
   -0.212492    7.71764  0.0000E+00  0.2224E-04  0.1351E-05  0.1302E-03  0.7319E-02  0.2317E+02
   -0.254991    7.72353  0.0000E+00  0.1700E-04  0.7544E-06  0.1461E-03  0.5864E-02  0.1059E+04
   -0.297491    7.72892  0.0000E+00  0.1321E-04  0.4322E-06  0.1632E-03  0.4770E-02  0.6890E+01
   -0.339991    7.73383  0.0000E+00  0.1055E-04  0.2596E-06  0.1829E-03  0.3913E-02  0.8276E+02
   -0.382491    7.73822  0.0000E+00  0.8656E-05  0.1637E-06  0.2033E-03  0.3206E-02  0.5360E+01
   -0.424992    7.74212  0.0000E+00  0.7316E-05  0.1082E-06  0.2239E-03  0.2645E-02  0.6902E+03
   -0.467492    7.74550  0.0000E+00  0.6343E-05  0.7413E-07  0.2465E-03  0.2170E-02  0.2766E+01
   -0.509993    7.74844  0.0000E+00  0.5620E-05  0.5236E-07  0.2732E-03  0.1769E-02  0.3699E+02
   -0.552494    7.75095  0.0000E+00  0.5072E-05  0.3809E-07  0.3019E-03  0.1432E-02  0.1335E+02
   -0.594995    7.75312  0.0000E+00  0.4649E-05  0.2856E-07  0.3311E-03  0.1148E-02  0.7147E+02
   -0.637497    7.75502  0.0000E+00  0.4314E-05  0.2197E-07  0.3594E-03  0.9120E-03  0.1089E+03
   -0.679998    7.75669  0.0000E+00  0.4052E-05  0.1738E-07  0.3885E-03  0.7262E-03  0.9115E+01
   -0.722500    7.75817  0.0000E+00  0.3846E-05  0.1415E-07  0.4145E-03  0.5805E-03  0.1704E+02
   -0.765001    7.75951  0.0000E+00  0.3686E-05  0.1185E-07  0.4389E-03  0.4699E-03  0.3256E+01
   -0.807503    7.76073  0.0000E+00  0.3563E-05  0.1019E-07  0.4605E-03  0.3880E-03  0.1325E+02
   -0.850004    7.76185  0.0000E+00  0.3469E-05  0.8995E-08  0.4800E-03  0.3250E-03  0.3377E+01
   -0.892506    7.76289  0.0000E+00  0.3396E-05  0.8110E-08  0.4974E-03  0.2758E-03  0.6302E+01
   -0.935008    7.76387  0.0000E+00  0.3341E-05  0.7456E-08  0.5138E-03  0.2369E-03  0.1214E+02
   -0.977509    7.76479  0.0000E+00  0.3297E-05  0.6963E-08  0.5277E-03  0.2053E-03  0.3557E+01
   -1.020011    7.76566  0.0000E+00  0.3262E-05  0.6578E-08  0.5391E-03  0.1794E-03  0.4204E+01
   -1.062512    7.76650  0.0000E+00  0.3231E-05  0.6274E-08  0.5483E-03  0.1571E-03  0.4067E+01
   -1.105013    7.76730  0.0000E+00  0.3203E-05  0.6030E-08  0.5554E-03  0.1377E-03  0.4596E+01
   -1.147515    7.76806  0.0000E+00  0.3178E-05  0.5842E-08  0.5601E-03  0.1202E-03  0.5072E+01
   -1.190016    7.76880  0.0000E+00  0.3156E-05  0.5704E-08  0.5622E-03  0.1039E-03  0.5629E+01
   -1.232517    7.76952  0.0000E+00  0.3134E-05  0.5605E-08  0.5612E-03  0.8894E-04  0.6302E+01
   -1.275017    7.77023  0.0000E+00  0.3112E-05  0.5544E-08  0.5573E-03  0.7586E-04  0.8013E+01
   -1.317518    7.77092  0.0000E+00  0.3089E-05  0.5521E-08  0.5493E-03  0.6449E-04  0.1036E+02
   -1.360018    7.77162  0.0000E+00  0.3063E-05  0.5544E-08  0.5365E-03  0.5460E-04  0.1388E+02
   -1.402518    7.77232  0.0000E+00  0.3034E-05  0.5627E-08  0.5180E-03  0.4622E-04  0.1979E+02
   -1.445018    7.77303  0.0000E+00  0.3004E-05  0.5781E-08  0.4949E-03  0.3876E-04  0.2914E+02
   -1.487517    7.77376  0.0000E+00  0.2973E-05  0.6030E-08  0.4676E-03  0.3180E-04  0.3599E+02
   -1.530016    7.77451  0.0000E+00  0.2936E-05  0.6492E-08  0.4196E-03  0.2525E-04  0.4553E+02
   -1.572515    7.77533  0.0000E+00  0.2876E-05  0.7593E-08  0.3936E-03  0.1953E-04  0.6803E+02
   -1.615013    7.77621  0.0000E+00  0.2683E-05  0.1254E-07  0.2301E-03  0.1557E-04 -0.1171E+08
   -1.657511    7.77889  0.0000E+00  0.1782E-05  0.4395E-07  0.2609E-04  0.1179E-04 -0.5522E+05
   -1.700009    7.79535  0.0000E+00  0.0000E+00  0.0000E+00  0.0000E+00  0.1217E-04  0.0000E+00
