 1 - depth, m
 2 - temperature, C
 3 - salinity, kg/kg
 4 - turbulent kinetic energy, m**2/s**2
 5 - dissipation rate, m**2/s**3
 6 - kinematic heat conductance, m**2/s
 7 - modulus of horizontal velocity, m/s
 8 - Richardson number, n/d
   -0.000000   10.17862  0.0000E+00  0.1804E-02  0.1428E-01  0.1062E-03  0.6012E+00  0.5229E-02
   -0.042497   10.32924  0.0000E+00  0.8674E-03  0.7324E-02  0.3373E-03  0.1253E+00  0.1364E-01
   -0.084995   10.40539  0.0000E+00  0.5727E-03  0.2254E-02  0.3795E-03  0.7066E-01 -0.1047E+00
   -0.127493   10.43129  0.0000E+00  0.4180E-03  0.1062E-02  0.3426E-03  0.5404E-01  0.1551E+00
   -0.169992   10.44570  0.0000E+00  0.3145E-03  0.5820E-03  0.2829E-03  0.4401E-01 -0.6921E-01
   -0.212490   10.45736  0.0000E+00  0.2392E-03  0.2935E-03  0.2671E-03  0.3572E-01 -0.1071E+00
   -0.254989   10.46959  0.0000E+00  0.1844E-03  0.1709E-03  0.2584E-03  0.2908E-01 -0.1033E+01
   -0.297489   10.47991  0.0000E+00  0.1460E-03  0.1056E-03  0.2613E-03  0.2482E-01  0.5800E+01
   -0.339988   10.48773  0.0000E+00  0.1171E-03  0.6470E-04  0.2643E-03  0.2182E-01  0.1379E+02
   -0.382488   10.49490  0.0000E+00  0.9634E-04  0.4029E-04  0.2716E-03  0.1891E-01 -0.5760E+01
   -0.424989   10.50001  0.0000E+00  0.8020E-04  0.2433E-04  0.2781E-03  0.1687E-01  0.7057E+02
   -0.467489   10.50500  0.0000E+00  0.6814E-04  0.1429E-04  0.2891E-03  0.1473E-01  0.8114E+02
   -0.509989   10.50918  0.0000E+00  0.5888E-04  0.8196E-05  0.3031E-03  0.1272E-01  0.2150E+04
   -0.552490   10.51340  0.0000E+00  0.5173E-04  0.4665E-05  0.3179E-03  0.1098E-01  0.2653E+03
   -0.594991   10.51687  0.0000E+00  0.4595E-04  0.2680E-05  0.3362E-03  0.9375E-02  0.1313E+05
   -0.637492   10.52070  0.0000E+00  0.4122E-04  0.1697E-05  0.3613E-03  0.8011E-02  0.9273E+03
   -0.679993   10.52339  0.0000E+00  0.3722E-04  0.1142E-05  0.3921E-03  0.6962E-02  0.3750E+03
   -0.722494   10.52643  0.0000E+00  0.3380E-04  0.8267E-06  0.4211E-03  0.6088E-02  0.1655E+03
   -0.764996   10.52836  0.0000E+00  0.3084E-04  0.6269E-06  0.4552E-03  0.5384E-02  0.8280E+03
   -0.807497   10.53092  0.0000E+00  0.2823E-04  0.4935E-06  0.4928E-03  0.4813E-02  0.8841E+03
   -0.849998   10.53246  0.0000E+00  0.2595E-04  0.4007E-06  0.5274E-03  0.4329E-02  0.3743E+03
   -0.892500   10.53452  0.0000E+00  0.2393E-04  0.3320E-06  0.5636E-03  0.3900E-02  0.2097E+03
   -0.935001   10.53589  0.0000E+00  0.2216E-04  0.2791E-06  0.5964E-03  0.3527E-02  0.2270E+03
   -0.977502   10.53746  0.0000E+00  0.2061E-04  0.2378E-06  0.6276E-03  0.3191E-02  0.7925E+03
   -1.020003   10.53871  0.0000E+00  0.1923E-04  0.2042E-06  0.6434E-03  0.2895E-02  0.4281E+03
   -1.062505   10.53998  0.0000E+00  0.1798E-04  0.1765E-06  0.6552E-03  0.2610E-02  0.1303E+04
   -1.105006   10.54112  0.0000E+00  0.1685E-04  0.1536E-06  0.6663E-03  0.2345E-02  0.4578E+04
   -1.147506   10.54223  0.0000E+00  0.1585E-04  0.1352E-06  0.6707E-03  0.2092E-02  0.2837E+03
   -1.190007   10.54327  0.0000E+00  0.1497E-04  0.1208E-06  0.6703E-03  0.1843E-02 -0.4030E+03
   -1.232508   10.54428  0.0000E+00  0.1416E-04  0.1091E-06  0.6702E-03  0.1605E-02  0.1055E+03
   -1.275008   10.54525  0.0000E+00  0.1338E-04  0.9983E-07  0.6640E-03  0.1391E-02  0.2983E+03
   -1.317508   10.54621  0.0000E+00  0.1264E-04  0.9285E-07  0.6526E-03  0.1202E-02  0.3902E+03
   -1.360008   10.54717  0.0000E+00  0.1192E-04  0.8840E-07  0.6268E-03  0.1037E-02  0.5984E+03
   -1.402508   10.54815  0.0000E+00  0.1119E-04  0.8736E-07  0.5908E-03  0.8978E-03  0.1853E+04
   -1.445007   10.54918  0.0000E+00  0.1050E-04  0.9224E-07  0.5311E-03  0.7734E-03  0.1446E+04
   -1.487506   10.55041  0.0000E+00  0.9814E-05  0.1058E-06  0.4841E-03  0.6472E-03  0.1960E+04
   -1.530005   10.55180  0.0000E+00  0.9041E-05  0.1391E-06  0.4005E-03  0.5134E-03  0.2158E+04
   -1.572504   10.55381  0.0000E+00  0.8112E-05  0.2234E-06  0.3783E-03  0.3769E-03  0.4619E+04
   -1.615002   10.55518  0.0000E+00  0.6485E-05  0.5745E-06  0.2083E-03  0.2985E-03 -0.5746E+06
   -1.657499   10.56226  0.0000E+00  0.4301E-05  0.1390E-05  0.9549E-04  0.2142E-03 -0.6068E+08
   -1.699997   10.57266  0.0000E+00  0.0000E+00  0.0000E+00  0.0000E+00  0.3456E-03  0.0000E+00
