 1 - depth, m
 2 - temperature, C
 3 - salinity, kg/kg
 4 - turbulent kinetic energy, m**2/s**2
 5 - dissipation rate, m**2/s**3
 6 - kinematic heat conductance, m**2/s
 7 - modulus of horizontal velocity, m/s
 8 - Richardson number, n/d
   -0.000000    0.00000  0.0000E+00  0.2754E-12  0.5642E-16  0.1000E-09  0.0000E+00  0.1418E+17
   -0.042497    0.21912  0.0000E+00  0.4141E-12  0.5924E-16  0.1000E-09  0.0000E+00  0.1356E+17
   -0.084995    0.44225  0.0000E+00  0.7052E-12  0.8167E-16  0.1000E-09  0.0000E+00  0.1287E+17
   -0.127493    0.66878  0.0000E+00  0.1212E-11  0.1269E-15  0.1000E-09  0.0000E+00  0.1181E+17
   -0.169991    0.89206  0.0000E+00  0.2059E-11  0.2052E-15  0.1000E-09  0.0000E+00  0.1078E+17
   -0.212490    1.11184  0.0000E+00  0.3461E-11  0.3350E-15  0.1000E-09  0.0000E+00  0.9791E+16
   -0.254989    1.32789  0.0000E+00  0.5784E-11  0.5481E-15  0.1000E-09  0.0000E+00  0.8831E+16
   -0.297488    1.53983  0.0000E+00  0.9628E-11  0.8961E-15  0.1000E-09  0.0000E+00  0.7897E+16
   -0.339988    1.74705  0.0000E+00  0.1585E-10  0.1451E-14  0.1000E-09  0.0000E+00  0.6996E+16
   -0.382487    1.94885  0.0000E+00  0.2592E-10  0.2335E-14  0.1000E-09  0.0000E+00  0.6140E+16
   -0.424987    2.14477  0.0000E+00  0.4206E-10  0.3730E-14  0.1000E-09  0.0000E+00  0.5334E+16
   -0.467488    2.33432  0.0000E+00  0.6780E-10  0.5921E-14  0.1000E-09  0.0000E+00  0.4582E+16
   -0.509988    2.51716  0.0000E+00  0.1089E-09  0.9360E-14  0.1000E-09  0.0000E+00  0.3918E+16
   -0.552489    2.69436  0.0000E+00  0.1744E-09  0.1476E-13  0.1000E-09  0.0000E+00  0.3305E+16
   -0.594990    2.86594  0.0000E+00  0.2785E-09  0.2322E-13  0.1000E-09  0.0000E+00  0.2742E+16
   -0.637490    3.03192  0.0000E+00  0.4475E-09  0.3674E-13  0.1000E-09  0.0000E+00  0.2229E+16
   -0.679991    3.19244  0.0000E+00  0.7212E-09  0.5831E-13  0.1045E-09  0.0000E+00  0.1757E+16
   -0.722493    3.34723  0.0000E+00  0.1166E-08  0.9285E-13  0.2202E-09  0.0000E+00  0.1328E+16
   -0.764994    3.49595  0.0000E+00  0.1891E-08  0.1483E-12  0.4970E-09  0.0000E+00  0.9396E+15
   -0.807495    3.63804  0.0000E+00  0.3067E-08  0.2370E-12  0.1254E-08  0.0000E+00  0.5953E+15
   -0.849996    3.77268  0.0000E+00  0.4922E-08  0.3750E-12  0.3977E-08  0.0000E+00  0.2971E+15
   -0.892497    3.89794  0.0000E+00  0.7780E-08  0.5852E-12  0.3100E-07  0.0000E+00  0.5964E+14
   -0.934999    4.00071  0.0000E+00  0.8129E-08  0.6130E-12  0.4346E-04  0.0000E+00 -0.9274E+11
   -0.977500    4.00111  0.0000E+00  0.8299E-08  0.6285E-12  0.4292E-04  0.0000E+00 -0.9722E+11
   -1.020001    4.00153  0.0000E+00  0.8458E-08  0.6451E-12  0.4329E-04  0.0000E+00 -0.9902E+11
   -1.062502    4.00194  0.0000E+00  0.8607E-08  0.6630E-12  0.4356E-04  0.0000E+00 -0.1010E+12
   -1.105003    4.00234  0.0000E+00  0.8745E-08  0.6823E-12  0.4361E-04  0.0000E+00 -0.1024E+12
   -1.147504    4.00275  0.0000E+00  0.8869E-08  0.7029E-12  0.4347E-04  0.0000E+00 -0.1035E+12
   -1.190004    4.00314  0.0000E+00  0.8979E-08  0.7250E-12  0.4315E-04  0.0000E+00 -0.1058E+12
   -1.232505    4.00354  0.0000E+00  0.9083E-08  0.7505E-12  0.4276E-04  0.0000E+00 -0.1118E+12
   -1.275005    4.00395  0.0000E+00  0.9182E-08  0.7807E-12  0.4213E-04  0.0000E+00 -0.1194E+12
   -1.317505    4.00438  0.0000E+00  0.9275E-08  0.8173E-12  0.4123E-04  0.0000E+00 -0.1292E+12
   -1.360005    4.00483  0.0000E+00  0.9364E-08  0.8635E-12  0.3999E-04  0.0000E+00 -0.1432E+12
   -1.402504    4.00531  0.0000E+00  0.9448E-08  0.9239E-12  0.3819E-04  0.0000E+00 -0.1577E+12
   -1.445004    4.00584  0.0000E+00  0.9517E-08  0.9997E-12  0.3588E-04  0.0000E+00 -0.1705E+12
   -1.487503    4.00639  0.0000E+00  0.9578E-08  0.1107E-11  0.3134E-04  0.0000E+00 -0.2019E+12
   -1.530001    4.00702  0.0000E+00  0.9629E-08  0.1292E-11  0.2635E-04  0.0000E+00 -0.2862E+12
   -1.572500    4.00788  0.0000E+00  0.9643E-08  0.1684E-11  0.2244E-04  0.0000E+00 -0.5336E+12
   -1.614998    4.00941  0.0000E+00  0.9301E-08  0.3248E-11  0.8249E-05  0.0000E+00 -0.1927E+13
   -1.657495    4.01423  0.0000E+00  0.7077E-08  0.1150E-10  0.9094E-06  0.0000E+00 -0.2920E+14
   -1.699992    4.05346  0.0000E+00  0.0000E+00  0.0000E+00  0.0000E+00  0.0000E+00  0.0000E+00
