 1 - depth, m
 2 - temperature, C
 3 - salinity, kg/kg
 4 - turbulent kinetic energy, m**2/s**2
 5 - dissipation rate, m**2/s**3
 6 - kinematic heat conductance, m**2/s
 7 - modulus of horizontal velocity, m/s
 8 - Richardson number, n/d
   -0.000000    0.00000  0.0000E+00  0.3189E-13  0.5206E-16  0.1000E-09  0.0000E+00  0.8939E+16
   -0.042497    0.13659  0.0000E+00  0.3189E-13  0.5206E-16  0.1000E-09  0.0000E+00  0.8969E+16
   -0.084995    0.27904  0.0000E+00  0.3189E-13  0.5206E-16  0.1000E-09  0.0000E+00  0.8924E+16
   -0.127494    0.42680  0.0000E+00  0.3189E-13  0.5206E-16  0.1000E-09  0.0000E+00  0.8536E+16
   -0.169992    0.57449  0.0000E+00  0.3189E-13  0.5206E-16  0.1000E-09  0.0000E+00  0.8143E+16
   -0.212491    0.72199  0.0000E+00  0.3189E-13  0.5206E-16  0.1000E-09  0.0000E+00  0.7751E+16
   -0.254990    0.86923  0.0000E+00  0.3189E-13  0.5206E-16  0.1000E-09  0.0000E+00  0.7359E+16
   -0.297490    1.01616  0.0000E+00  0.3189E-13  0.5206E-16  0.1000E-09  0.0000E+00  0.6959E+16
   -0.339990    1.16246  0.0000E+00  0.3189E-13  0.5206E-16  0.1000E-09  0.0000E+00  0.6549E+16
   -0.382490    1.30781  0.0000E+00  0.3189E-13  0.5206E-16  0.1000E-09  0.0000E+00  0.6142E+16
   -0.424990    1.45203  0.0000E+00  0.3189E-13  0.5206E-16  0.1000E-09  0.0000E+00  0.5731E+16
   -0.467491    1.59480  0.0000E+00  0.3189E-13  0.5206E-16  0.1000E-09  0.0000E+00  0.5328E+16
   -0.509991    1.73597  0.0000E+00  0.3189E-13  0.5206E-16  0.1000E-09  0.0000E+00  0.4952E+16
   -0.552492    1.87597  0.0000E+00  0.3189E-13  0.5206E-16  0.1000E-09  0.0000E+00  0.4585E+16
   -0.594993    2.01476  0.0000E+00  0.1252E-12  0.5206E-16  0.1000E-09  0.0000E+00  0.4233E+16
   -0.637495    2.15250  0.0000E+00  0.3551E-12  0.7824E-16  0.1000E-09  0.0000E+00  0.3896E+16
   -0.679996    2.28948  0.0000E+00  0.7990E-12  0.1469E-15  0.1000E-09  0.0000E+00  0.3564E+16
   -0.722497    2.42559  0.0000E+00  0.1654E-11  0.2855E-15  0.1000E-09  0.0000E+00  0.3241E+16
   -0.764999    2.56087  0.0000E+00  0.3324E-11  0.5554E-15  0.1000E-09  0.0000E+00  0.2920E+16
   -0.807500    2.69518  0.0000E+00  0.6585E-11  0.1074E-14  0.1000E-09  0.0000E+00  0.2595E+16
   -0.850002    2.82780  0.0000E+00  0.1282E-10  0.2048E-14  0.1000E-09  0.0000E+00  0.2272E+16
   -0.892503    2.95816  0.0000E+00  0.2478E-10  0.3880E-14  0.1000E-09  0.0000E+00  0.1977E+16
   -0.935005    3.08716  0.0000E+00  0.4728E-10  0.7257E-14  0.1000E-09  0.0000E+00  0.1695E+16
   -0.977506    3.21501  0.0000E+00  0.8952E-10  0.1347E-13  0.1000E-09  0.0000E+00  0.1419E+16
   -1.020007    3.34156  0.0000E+00  0.1681E-09  0.2481E-13  0.1000E-09  0.0000E+00  0.1145E+16
   -1.062509    3.46592  0.0000E+00  0.3132E-09  0.4536E-13  0.1614E-09  0.0000E+00  0.8836E+15
   -1.105010    3.58779  0.0000E+00  0.5800E-09  0.8240E-13  0.4097E-09  0.0000E+00  0.6324E+15
   -1.147511    3.70611  0.0000E+00  0.1059E-08  0.1477E-12  0.1162E-08  0.0000E+00  0.3993E+15
   -1.190012    3.81985  0.0000E+00  0.1915E-08  0.2622E-12  0.4329E-08  0.0000E+00  0.1903E+15
   -1.232513    3.92752  0.0000E+00  0.3438E-08  0.4635E-12  0.5857E-07  0.0000E+00  0.2466E+14
   -1.275013    4.00407  0.0000E+00  0.4240E-08  0.5758E-12  0.1276E-04  0.0000E+00 -0.3375E+12
   -1.317513    4.00524  0.0000E+00  0.4644E-08  0.6446E-12  0.1356E-04  0.0000E+00 -0.3514E+12
   -1.360014    4.00639  0.0000E+00  0.5010E-08  0.7223E-12  0.1408E-04  0.0000E+00 -0.3790E+12
   -1.402513    4.00756  0.0000E+00  0.5351E-08  0.8163E-12  0.1382E-04  0.0000E+00 -0.4193E+12
   -1.445013    4.00879  0.0000E+00  0.5635E-08  0.9256E-12  0.1276E-04  0.0000E+00 -0.4735E+12
   -1.487512    4.01009  0.0000E+00  0.5874E-08  0.1064E-11  0.1145E-04  0.0000E+00 -0.5620E+12
   -1.530011    4.01156  0.0000E+00  0.6105E-08  0.1286E-11  0.1047E-04  0.0000E+00 -0.7678E+12
   -1.572510    4.01343  0.0000E+00  0.6339E-08  0.1741E-11  0.9787E-05  0.0000E+00 -0.1398E+13
   -1.615008    4.01654  0.0000E+00  0.6318E-08  0.3231E-11  0.4229E-05  0.0000E+00 -0.4387E+13
   -1.657506    4.02470  0.0000E+00  0.5068E-08  0.8656E-11  0.7077E-06  0.0000E+00 -0.3762E+14
   -1.700003    4.06556  0.0000E+00  0.0000E+00  0.0000E+00  0.0000E+00  0.0000E+00  0.0000E+00
