 1 - depth, m
 2 - temperature, C
 3 - salinity, kg/kg
 4 - turbulent kinetic energy, m**2/s**2
 5 - dissipation rate, m**2/s**3
 6 - kinematic heat conductance, m**2/s
 7 - modulus of horizontal velocity, m/s
 8 - Richardson number, n/d
   -0.000000    0.00000  0.0000E+00  0.3927E-11  0.1385E-14  0.1000E-09  0.0000E+00  0.2349E+17
   -0.042496    0.37065  0.0000E+00  0.7307E-11  0.1229E-14  0.1000E-09  0.0000E+00  0.2025E+17
   -0.084993    0.72608  0.0000E+00  0.1383E-10  0.1537E-14  0.1000E-09  0.0000E+00  0.1734E+17
   -0.127490    1.06681  0.0000E+00  0.2440E-10  0.2248E-14  0.1000E-09  0.0000E+00  0.1460E+17
   -0.169987    1.39004  0.0000E+00  0.4095E-10  0.3462E-14  0.1000E-09  0.0000E+00  0.1219E+17
   -0.212485    1.69628  0.0000E+00  0.6681E-10  0.5401E-14  0.1000E-09  0.0000E+00  0.1009E+17
   -0.254983    1.98624  0.0000E+00  0.1074E-09  0.8441E-14  0.1000E-09  0.0000E+00  0.8230E+16
   -0.297482    2.25991  0.0000E+00  0.1711E-09  0.1317E-13  0.1000E-09  0.0000E+00  0.6574E+16
   -0.339980    2.51584  0.0000E+00  0.2692E-09  0.2036E-13  0.1000E-09  0.0000E+00  0.5114E+16
   -0.382479    2.75208  0.0000E+00  0.4201E-09  0.3125E-13  0.1000E-09  0.0000E+00  0.3880E+16
   -0.424978    2.96808  0.0000E+00  0.6503E-09  0.4761E-13  0.1000E-09  0.0000E+00  0.2850E+16
   -0.467478    3.16283  0.0000E+00  0.9995E-09  0.7204E-13  0.1143E-09  0.0000E+00  0.2027E+16
   -0.509977    3.33648  0.0000E+00  0.1529E-08  0.1085E-12  0.2405E-09  0.0000E+00  0.1425E+16
   -0.552477    3.49437  0.0000E+00  0.2332E-08  0.1629E-12  0.5416E-09  0.0000E+00  0.9528E+15
   -0.594977    3.63818  0.0000E+00  0.3544E-08  0.2438E-12  0.1323E-08  0.0000E+00  0.5863E+15
   -0.637477    3.77018  0.0000E+00  0.5406E-08  0.3662E-12  0.3934E-08  0.0000E+00  0.2986E+15
   -0.679977    3.89294  0.0000E+00  0.8185E-08  0.5466E-12  0.2701E-07  0.0000E+00  0.6829E+14
   -0.722477    3.99528  0.0000E+00  0.8582E-08  0.5743E-12  0.4029E-04  0.0000E+00 -0.6279E+11
   -0.764977    3.99574  0.0000E+00  0.8783E-08  0.5903E-12  0.4625E-04  0.0000E+00 -0.6217E+11
   -0.807478    3.99617  0.0000E+00  0.8971E-08  0.6070E-12  0.4895E-04  0.0000E+00 -0.6514E+11
   -0.849978    3.99659  0.0000E+00  0.9149E-08  0.6247E-12  0.5054E-04  0.0000E+00 -0.6965E+11
   -0.892478    3.99702  0.0000E+00  0.9323E-08  0.6436E-12  0.5105E-04  0.0000E+00 -0.7462E+11
   -0.934979    3.99746  0.0000E+00  0.9491E-08  0.6640E-12  0.5129E-04  0.0000E+00 -0.7830E+11
   -0.977479    3.99791  0.0000E+00  0.9656E-08  0.6863E-12  0.5143E-04  0.0000E+00 -0.8248E+11
   -1.019979    3.99836  0.0000E+00  0.9817E-08  0.7106E-12  0.5137E-04  0.0000E+00 -0.8639E+11
   -1.062479    3.99881  0.0000E+00  0.9972E-08  0.7369E-12  0.5117E-04  0.0000E+00 -0.9079E+11
   -1.104979    3.99927  0.0000E+00  0.1012E-07  0.7654E-12  0.5078E-04  0.0000E+00 -0.9474E+11
   -1.147479    3.99973  0.0000E+00  0.1026E-07  0.7958E-12  0.5023E-04  0.0000E+00 -0.9839E+11
   -1.189979    4.00020  0.0000E+00  0.1038E-07  0.8285E-12  0.4950E-04  0.0000E+00 -0.1037E+12
   -1.232478    4.00067  0.0000E+00  0.1050E-07  0.8659E-12  0.4873E-04  0.0000E+00 -0.1139E+12
   -1.274978    4.00117  0.0000E+00  0.1062E-07  0.9100E-12  0.4770E-04  0.0000E+00 -0.1261E+12
   -1.317477    4.00170  0.0000E+00  0.1073E-07  0.9633E-12  0.4623E-04  0.0000E+00 -0.1386E+12
   -1.359976    4.00227  0.0000E+00  0.1084E-07  0.1030E-11  0.4437E-04  0.0000E+00 -0.1560E+12
   -1.402474    4.00289  0.0000E+00  0.1095E-07  0.1118E-11  0.4191E-04  0.0000E+00 -0.1757E+12
   -1.444973    4.00355  0.0000E+00  0.1104E-07  0.1225E-11  0.3903E-04  0.0000E+00 -0.1956E+12
   -1.487471    4.00427  0.0000E+00  0.1111E-07  0.1368E-11  0.3534E-04  0.0000E+00 -0.2285E+12
   -1.529969    4.00507  0.0000E+00  0.1118E-07  0.1613E-11  0.3014E-04  0.0000E+00 -0.3238E+12
   -1.572466    4.00615  0.0000E+00  0.1124E-07  0.2163E-11  0.2433E-04  0.0000E+00 -0.6459E+12
   -1.614963    4.00814  0.0000E+00  0.1102E-07  0.4542E-11  0.8527E-05  0.0000E+00 -0.2760E+13
   -1.657460    4.01512  0.0000E+00  0.9187E-08  0.1698E-10  0.1185E-05  0.0000E+00 -0.4427E+14
   -1.699956    4.06682  0.0000E+00  0.0000E+00  0.0000E+00  0.0000E+00  0.0000E+00  0.0000E+00
