 1 - depth, m
 2 - temperature, C
 3 - salinity, kg/kg
 4 - turbulent kinetic energy, m**2/s**2
 5 - dissipation rate, m**2/s**3
 6 - kinematic heat conductance, m**2/s
 7 - modulus of horizontal velocity, m/s
 8 - Richardson number, n/d
   -0.000000   15.49301  0.0000E+00  0.1823E-03  0.8806E-04  0.6223E-04  0.1201E+00 -0.1311E-01
   -0.042497   15.56139  0.0000E+00  0.9935E-04  0.2732E-04  0.1110E-03  0.3111E-01 -0.3175E-01
   -0.084995   15.57368  0.0000E+00  0.7103E-04  0.1344E-04  0.1068E-03  0.2104E-01 -0.4671E-01
   -0.127493   15.58280  0.0000E+00  0.5374E-04  0.7138E-05  0.1076E-03  0.1624E-01 -0.1059E-01
   -0.169992   15.59028  0.0000E+00  0.4138E-04  0.3731E-05  0.1120E-03  0.1279E-01  0.2949E+01
   -0.212491   15.59686  0.0000E+00  0.3246E-04  0.2163E-05  0.1198E-03  0.1010E-01  0.1270E+02
   -0.254990   15.60267  0.0000E+00  0.2586E-04  0.1289E-05  0.1329E-03  0.8069E-02  0.3017E+02
   -0.297489   15.60774  0.0000E+00  0.2106E-04  0.8061E-06  0.1548E-03  0.6565E-02  0.4039E+02
   -0.339989   15.61206  0.0000E+00  0.1769E-04  0.5380E-06  0.1940E-03  0.5426E-02  0.3401E+02
   -0.382489   15.61555  0.0000E+00  0.1527E-04  0.3736E-06  0.2635E-03  0.4533E-02  0.2325E+03
   -0.424989   15.61816  0.0000E+00  0.1352E-04  0.2684E-06  0.3175E-03  0.3874E-02  0.2441E+02
   -0.467489   15.62021  0.0000E+00  0.1222E-04  0.1983E-06  0.3642E-03  0.3323E-02  0.1606E+02
   -0.509990   15.62194  0.0000E+00  0.1122E-04  0.1504E-06  0.4092E-03  0.2840E-02  0.4457E+01
   -0.552491   15.62342  0.0000E+00  0.1044E-04  0.1165E-06  0.4541E-03  0.2413E-02  0.8963E+01
   -0.594992   15.62471  0.0000E+00  0.9830E-05  0.9249E-07  0.4965E-03  0.2031E-02  0.1956E+02
   -0.637493   15.62586  0.0000E+00  0.9323E-05  0.7447E-07  0.5413E-03  0.1696E-02  0.7888E+01
   -0.679994   15.62689  0.0000E+00  0.8904E-05  0.6090E-07  0.5890E-03  0.1413E-02  0.3740E+01
   -0.722495   15.62781  0.0000E+00  0.8560E-05  0.5075E-07  0.6381E-03  0.1179E-02  0.5574E+01
   -0.764997   15.62864  0.0000E+00  0.8263E-05  0.4281E-07  0.6841E-03  0.9897E-03  0.1609E+01
   -0.807498   15.62940  0.0000E+00  0.8011E-05  0.3661E-07  0.7236E-03  0.8414E-03  0.2386E+02
   -0.849999   15.63011  0.0000E+00  0.7804E-05  0.3194E-07  0.7567E-03  0.7220E-03  0.1394E+01
   -0.892501   15.63078  0.0000E+00  0.7625E-05  0.2827E-07  0.7842E-03  0.6245E-03  0.2030E+01
   -0.935002   15.63142  0.0000E+00  0.7470E-05  0.2542E-07  0.8048E-03  0.5445E-03  0.1974E+01
   -0.977503   15.63204  0.0000E+00  0.7339E-05  0.2327E-07  0.8211E-03  0.4766E-03  0.1624E+01
   -1.020005   15.63263  0.0000E+00  0.7225E-05  0.2162E-07  0.8315E-03  0.4197E-03  0.1182E+01
   -1.062506   15.63322  0.0000E+00  0.7124E-05  0.2039E-07  0.8369E-03  0.3699E-03  0.1215E+01
   -1.105007   15.63379  0.0000E+00  0.7031E-05  0.1946E-07  0.8373E-03  0.3266E-03  0.1295E+01
   -1.147508   15.63437  0.0000E+00  0.6947E-05  0.1882E-07  0.8330E-03  0.2870E-03  0.1411E+01
   -1.190009   15.63494  0.0000E+00  0.6869E-05  0.1842E-07  0.8237E-03  0.2503E-03  0.1519E+01
   -1.232509   15.63552  0.0000E+00  0.6793E-05  0.1823E-07  0.8091E-03  0.2163E-03  0.1674E+01
   -1.275010   15.63611  0.0000E+00  0.6717E-05  0.1826E-07  0.7873E-03  0.1871E-03  0.2039E+01
   -1.317510   15.63671  0.0000E+00  0.6638E-05  0.1852E-07  0.7588E-03  0.1622E-03  0.2620E+01
   -1.360010   15.63734  0.0000E+00  0.6551E-05  0.1910E-07  0.7192E-03  0.1412E-03  0.3510E+01
   -1.402509   15.63800  0.0000E+00  0.6446E-05  0.2015E-07  0.6763E-03  0.1231E-03  0.5281E+01
   -1.445009   15.63871  0.0000E+00  0.6326E-05  0.2188E-07  0.6112E-03  0.1067E-03  0.9414E+01
   -1.487508   15.63952  0.0000E+00  0.6183E-05  0.2474E-07  0.5728E-03  0.8964E-04  0.1957E+02
   -1.530007   15.64046  0.0000E+00  0.5970E-05  0.3112E-07  0.4549E-03  0.7243E-04  0.9531E+02
   -1.572505   15.64202  0.0000E+00  0.5629E-05  0.4522E-07  0.5003E-03  0.5311E-04  0.4699E+05
   -1.615003   15.64276  0.0000E+00  0.4729E-05  0.1096E-06  0.1995E-03  0.4345E-04 -0.1762E+07
   -1.657501   15.65077  0.0000E+00  0.3097E-05  0.3101E-06  0.8963E-04  0.2692E-04 -0.6721E+05
   -1.699999   15.65656  0.0000E+00  0.0000E+00  0.0000E+00  0.0000E+00  0.3809E-04  0.0000E+00
