 1 - depth, m
 2 - temperature, C
 3 - salinity, kg/kg
 4 - turbulent kinetic energy, m**2/s**2
 5 - dissipation rate, m**2/s**3
 6 - kinematic heat conductance, m**2/s
 7 - modulus of horizontal velocity, m/s
 8 - Richardson number, n/d
   -0.000000    0.00000  0.0000E+00  0.9208E-12  0.2385E-15  0.1000E-09  0.0000E+00  0.1637E+17
   -0.042497    0.25420  0.0000E+00  0.1507E-11  0.2357E-15  0.1000E-09  0.0000E+00  0.1526E+17
   -0.084994    0.50897  0.0000E+00  0.2703E-11  0.3180E-15  0.1000E-09  0.0000E+00  0.1412E+17
   -0.127492    0.76382  0.0000E+00  0.4743E-11  0.4912E-15  0.1000E-09  0.0000E+00  0.1268E+17
   -0.169990    1.01233  0.0000E+00  0.8109E-11  0.7920E-15  0.1000E-09  0.0000E+00  0.1133E+17
   -0.212489    1.25445  0.0000E+00  0.1364E-10  0.1291E-14  0.1000E-09  0.0000E+00  0.1007E+17
   -0.254988    1.49014  0.0000E+00  0.2275E-10  0.2109E-14  0.1000E-09  0.0000E+00  0.8880E+16
   -0.297487    1.71921  0.0000E+00  0.3777E-10  0.3443E-14  0.1000E-09  0.0000E+00  0.7764E+16
   -0.339986    1.94124  0.0000E+00  0.6202E-10  0.5570E-14  0.1000E-09  0.0000E+00  0.6720E+16
   -0.382486    2.15583  0.0000E+00  0.1012E-09  0.8962E-14  0.1000E-09  0.0000E+00  0.5754E+16
   -0.424986    2.36272  0.0000E+00  0.1640E-09  0.1432E-13  0.1000E-09  0.0000E+00  0.4869E+16
   -0.467486    2.56174  0.0000E+00  0.2642E-09  0.2274E-13  0.1000E-09  0.0000E+00  0.4060E+16
   -0.509986    2.75266  0.0000E+00  0.4240E-09  0.3600E-13  0.1000E-09  0.0000E+00  0.3361E+16
   -0.552487    2.93723  0.0000E+00  0.6792E-09  0.5686E-13  0.1000E-09  0.0000E+00  0.2722E+16
   -0.594987    3.11548  0.0000E+00  0.1085E-08  0.8962E-13  0.1318E-09  0.0000E+00  0.2140E+16
   -0.637488    3.28735  0.0000E+00  0.1746E-08  0.1421E-12  0.2769E-09  0.0000E+00  0.1614E+16
   -0.679989    3.45294  0.0000E+00  0.2816E-08  0.2261E-12  0.6246E-09  0.0000E+00  0.1138E+16
   -0.722490    3.61182  0.0000E+00  0.4556E-08  0.3608E-12  0.1589E-08  0.0000E+00  0.7138E+15
   -0.764991    3.76370  0.0000E+00  0.7385E-08  0.5769E-12  0.5347E-08  0.0000E+00  0.3391E+15
   -0.807492    3.90652  0.0000E+00  0.1170E-07  0.9040E-12  0.6115E-07  0.0000E+00  0.4659E+14
   -0.849993    4.00692  0.0000E+00  0.1208E-07  0.9357E-12  0.6055E-04  0.0000E+00 -0.1060E+12
   -0.892494    4.00725  0.0000E+00  0.1228E-07  0.9538E-12  0.5901E-04  0.0000E+00 -0.1102E+12
   -0.934995    4.00758  0.0000E+00  0.1246E-07  0.9735E-12  0.5937E-04  0.0000E+00 -0.1121E+12
   -0.977496    4.00791  0.0000E+00  0.1264E-07  0.9950E-12  0.5970E-04  0.0000E+00 -0.1142E+12
   -1.019997    4.00825  0.0000E+00  0.1281E-07  0.1018E-11  0.5984E-04  0.0000E+00 -0.1160E+12
   -1.062497    4.00858  0.0000E+00  0.1296E-07  0.1043E-11  0.5980E-04  0.0000E+00 -0.1181E+12
   -1.104998    4.00892  0.0000E+00  0.1310E-07  0.1070E-11  0.5957E-04  0.0000E+00 -0.1196E+12
   -1.147499    4.00925  0.0000E+00  0.1323E-07  0.1099E-11  0.5918E-04  0.0000E+00 -0.1207E+12
   -1.189999    4.00959  0.0000E+00  0.1334E-07  0.1130E-11  0.5855E-04  0.0000E+00 -0.1232E+12
   -1.232499    4.00992  0.0000E+00  0.1344E-07  0.1166E-11  0.5776E-04  0.0000E+00 -0.1297E+12
   -1.275000    4.01027  0.0000E+00  0.1354E-07  0.1209E-11  0.5668E-04  0.0000E+00 -0.1379E+12
   -1.317499    4.01064  0.0000E+00  0.1363E-07  0.1261E-11  0.5526E-04  0.0000E+00 -0.1480E+12
   -1.359999    4.01102  0.0000E+00  0.1371E-07  0.1327E-11  0.5338E-04  0.0000E+00 -0.1624E+12
   -1.402498    4.01144  0.0000E+00  0.1378E-07  0.1413E-11  0.5092E-04  0.0000E+00 -0.1771E+12
   -1.444998    4.01188  0.0000E+00  0.1383E-07  0.1518E-11  0.4801E-04  0.0000E+00 -0.1897E+12
   -1.487496    4.01235  0.0000E+00  0.1386E-07  0.1650E-11  0.4451E-04  0.0000E+00 -0.2095E+12
   -1.529995    4.01286  0.0000E+00  0.1387E-07  0.1853E-11  0.4019E-04  0.0000E+00 -0.2680E+12
   -1.572493    4.01350  0.0000E+00  0.1384E-07  0.2283E-11  0.3451E-04  0.0000E+00 -0.4657E+12
   -1.614991    4.01457  0.0000E+00  0.1344E-07  0.4127E-11  0.1370E-04  0.0000E+00 -0.1476E+13
   -1.657488    4.01773  0.0000E+00  0.1021E-07  0.1669E-10  0.1187E-05  0.0000E+00 -0.2568E+14
   -1.699985    4.05164  0.0000E+00  0.0000E+00  0.0000E+00  0.0000E+00  0.0000E+00  0.0000E+00
