 1 - depth, m
 2 - temperature, C
 3 - salinity, kg/kg
 4 - turbulent kinetic energy, m**2/s**2
 5 - dissipation rate, m**2/s**3
 6 - kinematic heat conductance, m**2/s
 7 - modulus of horizontal velocity, m/s
 8 - Richardson number, n/d
   -0.000000    0.00000  0.0000E+00  0.3189E-13  0.5206E-16  0.1000E-09  0.0000E+00  0.6245E+16
   -0.042497    0.09490  0.0000E+00  0.3189E-13  0.5206E-16  0.1000E-09  0.0000E+00  0.6298E+16
   -0.084995    0.19315  0.0000E+00  0.3189E-13  0.5206E-16  0.1000E-09  0.0000E+00  0.6320E+16
   -0.127493    0.29455  0.0000E+00  0.3189E-13  0.5206E-16  0.1000E-09  0.0000E+00  0.6162E+16
   -0.169992    0.39636  0.0000E+00  0.3189E-13  0.5206E-16  0.1000E-09  0.0000E+00  0.6003E+16
   -0.212491    0.49858  0.0000E+00  0.3189E-13  0.5206E-16  0.1000E-09  0.0000E+00  0.5850E+16
   -0.254990    0.60134  0.0000E+00  0.3189E-13  0.5206E-16  0.1000E-09  0.0000E+00  0.5699E+16
   -0.297489    0.70473  0.0000E+00  0.3189E-13  0.5206E-16  0.1000E-09  0.0000E+00  0.5526E+16
   -0.339989    0.80836  0.0000E+00  0.3189E-13  0.5206E-16  0.1000E-09  0.0000E+00  0.5323E+16
   -0.382489    0.91168  0.0000E+00  0.3189E-13  0.5206E-16  0.1000E-09  0.0000E+00  0.5117E+16
   -0.424990    1.01457  0.0000E+00  0.3189E-13  0.5206E-16  0.1000E-09  0.0000E+00  0.4886E+16
   -0.467490    1.11641  0.0000E+00  0.3189E-13  0.5206E-16  0.1000E-09  0.0000E+00  0.4655E+16
   -0.509991    1.21711  0.0000E+00  0.3189E-13  0.5206E-16  0.1000E-09  0.0000E+00  0.4440E+16
   -0.552492    1.31687  0.0000E+00  0.3189E-13  0.5206E-16  0.1000E-09  0.0000E+00  0.4230E+16
   -0.594993    1.41565  0.0000E+00  0.3189E-13  0.5206E-16  0.1000E-09  0.0000E+00  0.4036E+16
   -0.637494    1.51377  0.0000E+00  0.3189E-13  0.5206E-16  0.1000E-09  0.0000E+00  0.3871E+16
   -0.679995    1.61183  0.0000E+00  0.3189E-13  0.5206E-16  0.1000E-09  0.0000E+00  0.3708E+16
   -0.722496    1.70987  0.0000E+00  0.3189E-13  0.5206E-16  0.1000E-09  0.0000E+00  0.3558E+16
   -0.764998    1.80827  0.0000E+00  0.3189E-13  0.5206E-16  0.1000E-09  0.0000E+00  0.3412E+16
   -0.807499    1.90716  0.0000E+00  0.3189E-13  0.5206E-16  0.1000E-09  0.0000E+00  0.3236E+16
   -0.850000    2.00568  0.0000E+00  0.3189E-13  0.5206E-16  0.1000E-09  0.0000E+00  0.3046E+16
   -0.892502    2.10328  0.0000E+00  0.3189E-13  0.5206E-16  0.1000E-09  0.0000E+00  0.2877E+16
   -0.935003    2.20048  0.0000E+00  0.3189E-13  0.5206E-16  0.1000E-09  0.0000E+00  0.2701E+16
   -0.977505    2.29699  0.0000E+00  0.3189E-13  0.5206E-16  0.1000E-09  0.0000E+00  0.2529E+16
   -1.020006    2.39279  0.0000E+00  0.3189E-13  0.5206E-16  0.1000E-09  0.0000E+00  0.2335E+16
   -1.062507    2.48681  0.0000E+00  0.3189E-13  0.5206E-16  0.1000E-09  0.0000E+00  0.2145E+16
   -1.105008    2.57888  0.0000E+00  0.3189E-13  0.5206E-16  0.1000E-09  0.0000E+00  0.1942E+16
   -1.147509    2.66787  0.0000E+00  0.3189E-13  0.5206E-16  0.1000E-09  0.0000E+00  0.1736E+16
   -1.190010    2.75296  0.0000E+00  0.3189E-13  0.5206E-16  0.1000E-09  0.0000E+00  0.1556E+16
   -1.232511    2.83468  0.0000E+00  0.3189E-13  0.5206E-16  0.1000E-09  0.0000E+00  0.1424E+16
   -1.275011    2.91505  0.0000E+00  0.3189E-13  0.5206E-16  0.1000E-09  0.0000E+00  0.1316E+16
   -1.317511    2.99521  0.0000E+00  0.3189E-13  0.5206E-16  0.1000E-09  0.0000E+00  0.1272E+16
   -1.360011    3.07949  0.0000E+00  0.3189E-13  0.5206E-16  0.1000E-09  0.0000E+00  0.1240E+16
   -1.402511    3.17009  0.0000E+00  0.3189E-13  0.5206E-16  0.1000E-09  0.0000E+00  0.1139E+16
   -1.445011    3.26346  0.0000E+00  0.5271E-13  0.9926E-16  0.1000E-09  0.0000E+00  0.9762E+15
   -1.487510    3.35448  0.0000E+00  0.3236E-12  0.6124E-15  0.1000E-09  0.0000E+00  0.8475E+15
   -1.530009    3.44594  0.0000E+00  0.2419E-11  0.4565E-14  0.1000E-09  0.0000E+00  0.8678E+15
   -1.572507    3.55963  0.0000E+00  0.2101E-10  0.3949E-13  0.1104E-09  0.0000E+00  0.1026E+16
   -1.615006    3.75893  0.0000E+00  0.1940E-09  0.3612E-12  0.2273E-08  0.0000E+00  0.4055E+15
   -1.657503    3.99297  0.0000E+00  0.1423E-08  0.2750E-11  0.2637E-06  0.0000E+00 -0.6404E+14
   -1.700001    4.07703  0.0000E+00  0.0000E+00  0.0000E+00  0.0000E+00  0.0000E+00  0.0000E+00
