 1 - depth, m
 2 - temperature, C
 3 - salinity, kg/kg
 4 - turbulent kinetic energy, m**2/s**2
 5 - dissipation rate, m**2/s**3
 6 - kinematic heat conductance, m**2/s
 7 - modulus of horizontal velocity, m/s
 8 - Richardson number, n/d
   -0.000000   13.84974  0.0000E+00  0.3316E-02  0.8604E-01  0.2622E-03  0.1052E+01 -0.4307E-03
   -0.042497   13.98008  0.0000E+00  0.1672E-02  0.6263E-01  0.4430E-03  0.2221E+00 -0.4380E-01
   -0.084995   14.12589  0.0000E+00  0.1020E-02  0.1819E-01  0.5437E-03  0.1119E+00  0.1502E+00
   -0.127493   14.16207  0.0000E+00  0.7532E-03  0.1041E-01  0.5363E-03  0.8273E-01  0.4715E-02
   -0.169991   14.17808  0.0000E+00  0.5847E-03  0.6038E-02  0.4593E-03  0.6482E-01  0.1648E-01
   -0.212490   14.19295  0.0000E+00  0.4622E-03  0.3782E-02  0.4411E-03  0.5114E-01 -0.7481E+01
   -0.254989   14.20848  0.0000E+00  0.3784E-03  0.2697E-02  0.4478E-03  0.4191E-01  0.4328E+01
   -0.297488   14.21394  0.0000E+00  0.3115E-03  0.1855E-02  0.4545E-03  0.3700E-01  0.9942E+01
   -0.339988   14.21825  0.0000E+00  0.2588E-03  0.1361E-02  0.4524E-03  0.3329E-01  0.5452E+02
   -0.382488   14.22229  0.0000E+00  0.2191E-03  0.1005E-02  0.4552E-03  0.2995E-01  0.4032E+02
   -0.424988   14.22487  0.0000E+00  0.1883E-03  0.7307E-03  0.4643E-03  0.2776E-01  0.5202E+04
   -0.467488   14.22799  0.0000E+00  0.1629E-03  0.5163E-03  0.4659E-03  0.2494E-01  0.8886E+03
   -0.509989   14.23025  0.0000E+00  0.1432E-03  0.3550E-03  0.4747E-03  0.2212E-01  0.7920E+05
   -0.552490   14.23328  0.0000E+00  0.1277E-03  0.2451E-03  0.4761E-03  0.1965E-01  0.8499E+02
   -0.594990   14.23581  0.0000E+00  0.1148E-03  0.1681E-03  0.4973E-03  0.1727E-01  0.8358E+04
   -0.637491   14.23875  0.0000E+00  0.1040E-03  0.1096E-03  0.5147E-03  0.1524E-01  0.8212E+02
   -0.679993   14.24103  0.0000E+00  0.9480E-04  0.7106E-04  0.5285E-03  0.1372E-01  0.2129E+04
   -0.722494   14.24296  0.0000E+00  0.8684E-04  0.4784E-04  0.5521E-03  0.1241E-01  0.2307E+04
   -0.764995   14.24418  0.0000E+00  0.7974E-04  0.3018E-04  0.5655E-03  0.1134E-01  0.2776E+04
   -0.807496   14.24615  0.0000E+00  0.7342E-04  0.1894E-04  0.5849E-03  0.1050E-01  0.1073E+05
   -0.849997   14.24752  0.0000E+00  0.6784E-04  0.1320E-04  0.6097E-03  0.9756E-02  0.3884E+04
   -0.892499   14.24829  0.0000E+00  0.6281E-04  0.8696E-05  0.6280E-03  0.9074E-02  0.1489E+05
   -0.935000   14.25026  0.0000E+00  0.5836E-04  0.5451E-05  0.6559E-03  0.8467E-02  0.1819E+05
   -0.977501   14.25074  0.0000E+00  0.5438E-04  0.3496E-05  0.6784E-03  0.7879E-02  0.7707E+04
   -1.020002   14.25260  0.0000E+00  0.5081E-04  0.2223E-05  0.7064E-03  0.7338E-02  0.5751E+04
   -1.062503   14.25304  0.0000E+00  0.4760E-04  0.1477E-05  0.7381E-03  0.6814E-02  0.1162E+04
   -1.105004   14.25472  0.0000E+00  0.4470E-04  0.1044E-05  0.7609E-03  0.6310E-02  0.5577E+03
   -1.147505   14.25521  0.0000E+00  0.4213E-04  0.7908E-06  0.7648E-03  0.5811E-02  0.1063E+04
   -1.190006   14.25670  0.0000E+00  0.3985E-04  0.6458E-06  0.7693E-03  0.5280E-02  0.4537E+03
   -1.232507   14.25737  0.0000E+00  0.3769E-04  0.5553E-06  0.7677E-03  0.4769E-02  0.2314E+04
   -1.275007   14.25867  0.0000E+00  0.3560E-04  0.4997E-06  0.7557E-03  0.4299E-02  0.2921E+04
   -1.317507   14.25941  0.0000E+00  0.3355E-04  0.4691E-06  0.7110E-03  0.3869E-02  0.1279E+04
   -1.360007   14.26057  0.0000E+00  0.3148E-04  0.4634E-06  0.6779E-03  0.3478E-02  0.5533E+04
   -1.402506   14.26158  0.0000E+00  0.2923E-04  0.4908E-06  0.6255E-03  0.3126E-02  0.2906E+05
   -1.445006   14.26267  0.0000E+00  0.2707E-04  0.5612E-06  0.5572E-03  0.2786E-02  0.1068E+06
   -1.487505   14.26397  0.0000E+00  0.2497E-04  0.6973E-06  0.4926E-03  0.2410E-02  0.2755E+05
   -1.530004   14.26559  0.0000E+00  0.2267E-04  0.9872E-06  0.4211E-03  0.1916E-02  0.1804E+05
   -1.572502   14.26777  0.0000E+00  0.2015E-04  0.1722E-05  0.4033E-03  0.1454E-02  0.3135E+05
   -1.615000   14.26916  0.0000E+00  0.1611E-04  0.4452E-05  0.2319E-03  0.1208E-02 -0.2621E+06
   -1.657498   14.27493  0.0000E+00  0.1101E-04  0.1002E-04  0.1624E-03  0.9262E-03 -0.4990E+09
   -1.699995   14.28531  0.0000E+00  0.0000E+00  0.0000E+00  0.0000E+00  0.1575E-02  0.0000E+00
