 1 - depth, m
 2 - temperature, C
 3 - salinity, kg/kg
 4 - turbulent kinetic energy, m**2/s**2
 5 - dissipation rate, m**2/s**3
 6 - kinematic heat conductance, m**2/s
 7 - modulus of horizontal velocity, m/s
 8 - Richardson number, n/d
   -0.000000    0.00000  0.0000E+00  0.3189E-13  0.5206E-16  0.1000E-09  0.0000E+00  0.7370E+16
   -0.042498    0.11224  0.0000E+00  0.3189E-13  0.5206E-16  0.1000E-09  0.0000E+00  0.7513E+16
   -0.084996    0.23035  0.0000E+00  0.3189E-13  0.5206E-16  0.1000E-09  0.0000E+00  0.7597E+16
   -0.127495    0.35394  0.0000E+00  0.3189E-13  0.5206E-16  0.1000E-09  0.0000E+00  0.7369E+16
   -0.169994    0.47825  0.0000E+00  0.3189E-13  0.5206E-16  0.1000E-09  0.0000E+00  0.7138E+16
   -0.212493    0.60329  0.0000E+00  0.3189E-13  0.5206E-16  0.1000E-09  0.0000E+00  0.6905E+16
   -0.254992    0.72906  0.0000E+00  0.3189E-13  0.5206E-16  0.1000E-09  0.0000E+00  0.6667E+16
   -0.297492    0.85558  0.0000E+00  0.3189E-13  0.5206E-16  0.1000E-09  0.0000E+00  0.6420E+16
   -0.339992    0.98271  0.0000E+00  0.3189E-13  0.5206E-16  0.1000E-09  0.0000E+00  0.6162E+16
   -0.382493    1.11028  0.0000E+00  0.3189E-13  0.5206E-16  0.1000E-09  0.0000E+00  0.5897E+16
   -0.424994    1.23819  0.0000E+00  0.3189E-13  0.5206E-16  0.1000E-09  0.0000E+00  0.5621E+16
   -0.467494    1.36621  0.0000E+00  0.3189E-13  0.5206E-16  0.1000E-09  0.0000E+00  0.5341E+16
   -0.509996    1.49421  0.0000E+00  0.3189E-13  0.5206E-16  0.1000E-09  0.0000E+00  0.5064E+16
   -0.552497    1.62224  0.0000E+00  0.3189E-13  0.5206E-16  0.1000E-09  0.0000E+00  0.4784E+16
   -0.594998    1.75018  0.0000E+00  0.3189E-13  0.5206E-16  0.1000E-09  0.0000E+00  0.4506E+16
   -0.637500    1.87805  0.0000E+00  0.3189E-13  0.5206E-16  0.1000E-09  0.0000E+00  0.4231E+16
   -0.680001    2.00592  0.0000E+00  0.3189E-13  0.5206E-16  0.1000E-09  0.0000E+00  0.3954E+16
   -0.722503    2.13363  0.0000E+00  0.3189E-13  0.5206E-16  0.1000E-09  0.0000E+00  0.3677E+16
   -0.765005    2.26113  0.0000E+00  0.3189E-13  0.5206E-16  0.1000E-09  0.0000E+00  0.3397E+16
   -0.807507    2.38820  0.0000E+00  0.3189E-13  0.5206E-16  0.1000E-09  0.0000E+00  0.3107E+16
   -0.850008    2.51430  0.0000E+00  0.1348E-12  0.5424E-16  0.1000E-09  0.0000E+00  0.2816E+16
   -0.892510    2.63897  0.0000E+00  0.3841E-12  0.1093E-15  0.1000E-09  0.0000E+00  0.2545E+16
   -0.935012    2.76280  0.0000E+00  0.9238E-12  0.2407E-15  0.1000E-09  0.0000E+00  0.2283E+16
   -0.977514    2.88593  0.0000E+00  0.2103E-11  0.5277E-15  0.1000E-09  0.0000E+00  0.2024E+16
   -1.020016    3.00820  0.0000E+00  0.4674E-11  0.1141E-14  0.1000E-09  0.0000E+00  0.1761E+16
   -1.062517    3.12891  0.0000E+00  0.1024E-10  0.2440E-14  0.1000E-09  0.0000E+00  0.1505E+16
   -1.105019    3.24779  0.0000E+00  0.2222E-10  0.5167E-14  0.1000E-09  0.0000E+00  0.1253E+16
   -1.147520    3.36410  0.0000E+00  0.4736E-10  0.1076E-13  0.1000E-09  0.0000E+00  0.1012E+16
   -1.190021    3.47728  0.0000E+00  0.9996E-10  0.2218E-13  0.1000E-09  0.0000E+00  0.7885E+15
   -1.232522    3.58736  0.0000E+00  0.2148E-09  0.4657E-13  0.2507E-09  0.0000E+00  0.5833E+15
   -1.275023    3.69461  0.0000E+00  0.4659E-09  0.9870E-13  0.7818E-09  0.0000E+00  0.3962E+15
   -1.317524    3.80003  0.0000E+00  0.1014E-08  0.2102E-12  0.2930E-08  0.0000E+00  0.2247E+15
   -1.360024    3.90837  0.0000E+00  0.2194E-08  0.4456E-12  0.3058E-07  0.0000E+00  0.4498E+14
   -1.402525    4.00476  0.0000E+00  0.3348E-08  0.6857E-12  0.6688E-05  0.0000E+00 -0.7678E+12
   -1.445024    4.00725  0.0000E+00  0.3888E-08  0.8342E-12  0.6936E-05  0.0000E+00 -0.8191E+12
   -1.487524    4.00962  0.0000E+00  0.4320E-08  0.1007E-11  0.6709E-05  0.0000E+00 -0.9422E+12
   -1.530023    4.01207  0.0000E+00  0.4728E-08  0.1273E-11  0.6474E-05  0.0000E+00 -0.1266E+13
   -1.572522    4.01504  0.0000E+00  0.5164E-08  0.1802E-11  0.6364E-05  0.0000E+00 -0.2269E+13
   -1.615021    4.01970  0.0000E+00  0.5406E-08  0.3309E-11  0.3128E-05  0.0000E+00 -0.6403E+13
   -1.657519    4.03027  0.0000E+00  0.4527E-08  0.7988E-11  0.6452E-06  0.0000E+00 -0.4223E+14
   -1.700017    4.07192  0.0000E+00  0.0000E+00  0.0000E+00  0.0000E+00  0.0000E+00  0.0000E+00
