 1 - depth, m
 2 - temperature, C
 3 - salinity, kg/kg
 4 - turbulent kinetic energy, m**2/s**2
 5 - dissipation rate, m**2/s**3
 6 - kinematic heat conductance, m**2/s
 7 - modulus of horizontal velocity, m/s
 8 - Richardson number, n/d
   -0.000000    0.00000  0.0000E+00  0.4999E-09  0.8311E-12  0.1163E-09  0.0000E+00  0.4636E+17
   -0.042500    0.78076  0.0000E+00  0.2689E-08  0.1065E-11  0.1626E-09  0.0000E+00  0.2543E+17
   -0.085000    1.32164  0.0000E+00  0.8500E-08  0.2638E-11  0.5650E-09  0.0000E+00  0.1360E+17
   -0.127501    1.67402  0.0000E+00  0.2386E-07  0.7096E-11  0.2291E-08  0.0000E+00  0.8352E+16
   -0.170002    1.92949  0.0000E+00  0.6247E-07  0.1835E-10  0.8592E-08  0.0000E+00  0.5441E+16
   -0.212503    2.13450  0.0000E+00  0.1195E-06  0.3484E-10  0.1771E-04  0.0000E+00  0.2914E+16
   -0.255005    2.26722  0.0000E+00  0.1607E-06  0.4820E-10  0.8446E-04  0.0000E+00  0.7616E+15
   -0.297507    2.31390  0.0000E+00  0.1919E-06  0.5874E-10  0.1673E-03  0.0000E+00  0.3590E+15
   -0.340010    2.34893  0.0000E+00  0.2202E-06  0.6830E-10  0.1932E-03  0.0000E+00  0.5913E+15
   -0.382512    2.39775  0.0000E+00  0.2565E-06  0.8105E-10  0.2214E-03  0.0000E+00  0.6889E+15
   -0.425015    2.45441  0.0000E+00  0.2959E-06  0.9534E-10  0.2047E-03  0.0000E+00  0.1528E+16
   -0.467518    2.54526  0.0000E+00  0.3386E-06  0.1121E-09  0.2269E-03  0.0000E+00  0.2708E+16
   -0.510021    2.68391  0.0000E+00  0.3849E-06  0.1313E-09  0.2700E-03  0.0000E+00  0.3597E+16
   -0.552525    2.86601  0.0000E+00  0.4329E-06  0.1500E-09  0.3146E-03  0.0000E+00  0.4069E+16
   -0.595028    3.07872  0.0000E+00  0.4782E-06  0.1671E-09  0.3617E-03  0.0000E+00  0.3788E+16
   -0.637532    3.29387  0.0000E+00  0.5172E-06  0.1818E-09  0.4058E-03  0.0000E+00  0.2825E+16
   -0.680035    3.47439  0.0000E+00  0.5491E-06  0.1940E-09  0.4424E-03  0.0000E+00  0.2087E+16
   -0.722539    3.62482  0.0000E+00  0.5746E-06  0.2041E-09  0.4715E-03  0.0000E+00  0.1332E+16
   -0.765043    3.73563  0.0000E+00  0.5959E-06  0.2131E-09  0.4934E-03  0.0000E+00  0.7253E+15
   -0.807547    3.80840  0.0000E+00  0.6156E-06  0.2220E-09  0.5094E-03  0.0000E+00  0.5254E+15
   -0.850051    3.86781  0.0000E+00  0.6351E-06  0.2314E-09  0.5167E-03  0.0000E+00  0.4429E+15
   -0.892555    3.92361  0.0000E+00  0.6551E-06  0.2416E-09  0.5198E-03  0.0000E+00  0.4152E+15
   -0.935059    3.97953  0.0000E+00  0.6754E-06  0.2525E-09  0.5225E-03  0.0000E+00  0.4608E+15
   -0.977563    4.04334  0.0000E+00  0.6946E-06  0.2636E-09  0.5248E-03  0.0000E+00  0.3910E+15
   -1.020067    4.10463  0.0000E+00  0.7102E-06  0.2738E-09  0.5296E-03  0.0000E+00  0.2512E+15
   -1.062571    4.15724  0.0000E+00  0.7174E-06  0.2810E-09  0.5337E-03  0.0000E+00  0.3140E+14
   -1.105074    4.17530  0.0000E+00  0.7197E-06  0.2867E-09  0.5295E-03  0.0000E+00 -0.3114E+13
   -1.147578    4.17640  0.0000E+00  0.7215E-06  0.2928E-09  0.5205E-03  0.0000E+00 -0.3266E+13
   -1.190081    4.17753  0.0000E+00  0.7230E-06  0.2995E-09  0.5174E-03  0.0000E+00 -0.3298E+13
   -1.232584    4.17869  0.0000E+00  0.7240E-06  0.3072E-09  0.5141E-03  0.0000E+00 -0.3195E+13
   -1.275087    4.17985  0.0000E+00  0.7248E-06  0.3166E-09  0.4796E-03  0.0000E+00 -0.3856E+13
   -1.317590    4.18109  0.0000E+00  0.7252E-06  0.3281E-09  0.4785E-03  0.0000E+00 -0.3580E+13
   -1.360093    4.18231  0.0000E+00  0.7250E-06  0.3431E-09  0.4556E-03  0.0000E+00 -0.3737E+13
   -1.402595    4.18356  0.0000E+00  0.7243E-06  0.3631E-09  0.4256E-03  0.0000E+00 -0.3966E+13
   -1.445097    4.18485  0.0000E+00  0.7231E-06  0.3874E-09  0.4007E-03  0.0000E+00 -0.4386E+13
   -1.487599    4.18627  0.0000E+00  0.7211E-06  0.4176E-09  0.3778E-03  0.0000E+00 -0.4885E+13
   -1.530100    4.18784  0.0000E+00  0.7179E-06  0.4640E-09  0.3424E-03  0.0000E+00 -0.5517E+13
   -1.572601    4.18958  0.0000E+00  0.7109E-06  0.5647E-09  0.2734E-03  0.0000E+00 -0.6940E+13
   -1.615102    4.19173  0.0000E+00  0.6882E-06  0.9166E-09  0.1922E-03  0.0000E+00 -0.1020E+14
   -1.657602    4.19500  0.0000E+00  0.4910E-06  0.4779E-08  0.7540E-05  0.0000E+00 -0.3014E+15
   -1.700102    4.27342  0.0000E+00  0.0000E+00  0.0000E+00  0.0000E+00  0.0000E+00  0.0000E+00
