 1 - depth, m
 2 - temperature, C
 3 - salinity, kg/kg
 4 - turbulent kinetic energy, m**2/s**2
 5 - dissipation rate, m**2/s**3
 6 - kinematic heat conductance, m**2/s
 7 - modulus of horizontal velocity, m/s
 8 - Richardson number, n/d
   -0.000000   10.83999  0.0000E+00  0.9172E-03  0.3183E-02  0.1149E-03  0.3967E+00  0.2053E-02
   -0.042497   10.92536  0.0000E+00  0.4622E-03  0.1338E-02  0.2929E-03  0.8489E-01 -0.5857E-02
   -0.084995   10.94369  0.0000E+00  0.3134E-03  0.4619E-03  0.2793E-03  0.5132E-01 -0.8830E-01
   -0.127493   10.95624  0.0000E+00  0.2329E-03  0.2147E-03  0.2441E-03  0.4073E-01 -0.4509E+00
   -0.169992   10.96423  0.0000E+00  0.1782E-03  0.1149E-03  0.2254E-03  0.3359E-01 -0.3545E-01
   -0.212490   10.97096  0.0000E+00  0.1381E-03  0.5883E-04  0.2153E-03  0.2761E-01 -0.5905E-01
   -0.254989   10.97768  0.0000E+00  0.1080E-03  0.3097E-04  0.2198E-03  0.2295E-01  0.8734E+02
   -0.297489   10.98326  0.0000E+00  0.8664E-04  0.1644E-04  0.2251E-03  0.1961E-01  0.1068E+02
   -0.339989   10.98801  0.0000E+00  0.7094E-04  0.8785E-05  0.2312E-03  0.1709E-01  0.2576E+02
   -0.382489   10.99210  0.0000E+00  0.5918E-04  0.4714E-05  0.2409E-03  0.1484E-01  0.8407E+02
   -0.424989   10.99569  0.0000E+00  0.5048E-04  0.2655E-05  0.2486E-03  0.1303E-01  0.1738E+02
   -0.467489   10.99901  0.0000E+00  0.4391E-04  0.1655E-05  0.2596E-03  0.1129E-01  0.3966E+02
   -0.509990   11.00212  0.0000E+00  0.3876E-04  0.1135E-05  0.2720E-03  0.9743E-02  0.6054E+02
   -0.552490   11.00485  0.0000E+00  0.3458E-04  0.8313E-06  0.2864E-03  0.8410E-02  0.4184E+03
   -0.594991   11.00735  0.0000E+00  0.3107E-04  0.6356E-06  0.3059E-03  0.7234E-02  0.9646E+04
   -0.637492   11.00964  0.0000E+00  0.2802E-04  0.4998E-06  0.3276E-03  0.6214E-02  0.2588E+02
   -0.679993   11.01162  0.0000E+00  0.2536E-04  0.4002E-06  0.3532E-03  0.5366E-02  0.2707E+02
   -0.722495   11.01352  0.0000E+00  0.2302E-04  0.3245E-06  0.3864E-03  0.4644E-02  0.2502E+02
   -0.764996   11.01516  0.0000E+00  0.2094E-04  0.2655E-06  0.4246E-03  0.4051E-02  0.1422E+02
   -0.807497   11.01667  0.0000E+00  0.1911E-04  0.2184E-06  0.4671E-03  0.3567E-02  0.1413E+02
   -0.849999   11.01802  0.0000E+00  0.1750E-04  0.1810E-06  0.5072E-03  0.3158E-02  0.6953E+02
   -0.892500   11.01925  0.0000E+00  0.1607E-04  0.1508E-06  0.5543E-03  0.2804E-02  0.1818E+03
   -0.935001   11.02036  0.0000E+00  0.1483E-04  0.1265E-06  0.5966E-03  0.2500E-02  0.4009E+02
   -0.977503   11.02138  0.0000E+00  0.1373E-04  0.1068E-06  0.6271E-03  0.2227E-02  0.2030E+02
   -1.020004   11.02232  0.0000E+00  0.1276E-04  0.9072E-07  0.6474E-03  0.1984E-02  0.3455E+02
   -1.062505   11.02320  0.0000E+00  0.1191E-04  0.7770E-07  0.6626E-03  0.1761E-02  0.2549E+02
   -1.105006   11.02404  0.0000E+00  0.1115E-04  0.6710E-07  0.6689E-03  0.1556E-02  0.1427E+02
   -1.147507   11.02486  0.0000E+00  0.1049E-04  0.5872E-07  0.6700E-03  0.1362E-02  0.1134E+02
   -1.190008   11.02565  0.0000E+00  0.9915E-05  0.5222E-07  0.6669E-03  0.1173E-02  0.1284E+02
   -1.232508   11.02643  0.0000E+00  0.9387E-05  0.4707E-07  0.6653E-03  0.9931E-03  0.1299E+02
   -1.275009   11.02720  0.0000E+00  0.8897E-05  0.4307E-07  0.6593E-03  0.8351E-03  0.2849E+02
   -1.317509   11.02796  0.0000E+00  0.8442E-05  0.4017E-07  0.6449E-03  0.6998E-03  0.2070E+02
   -1.360009   11.02874  0.0000E+00  0.8012E-05  0.3842E-07  0.6167E-03  0.5872E-03  0.2690E+02
   -1.402508   11.02955  0.0000E+00  0.7587E-05  0.3819E-07  0.5789E-03  0.4969E-03  0.4158E+02
   -1.445008   11.03043  0.0000E+00  0.7175E-05  0.4054E-07  0.5242E-03  0.4197E-03  0.1037E+03
   -1.487507   11.03150  0.0000E+00  0.6748E-05  0.4674E-07  0.4738E-03  0.3410E-03  0.8167E+02
   -1.530006   11.03277  0.0000E+00  0.6220E-05  0.6313E-07  0.3948E-03  0.2586E-03 -0.1399E+03
   -1.572504   11.03479  0.0000E+00  0.5591E-05  0.9990E-07  0.3777E-03  0.1743E-03  0.1341E+05
   -1.615002   11.03580  0.0000E+00  0.4419E-05  0.2614E-06  0.1870E-03  0.1330E-03 -0.3427E+07
   -1.657500   11.04374  0.0000E+00  0.2933E-05  0.6233E-06  0.9144E-04  0.8435E-04 -0.4446E+07
   -1.699997   11.05113  0.0000E+00  0.0000E+00  0.0000E+00  0.0000E+00  0.1525E-03  0.0000E+00
