 1 - depth, m
 2 - temperature, C
 3 - salinity, kg/kg
 4 - turbulent kinetic energy, m**2/s**2
 5 - dissipation rate, m**2/s**3
 6 - kinematic heat conductance, m**2/s
 7 - modulus of horizontal velocity, m/s
 8 - Richardson number, n/d
   -0.000000    0.00000  0.0000E+00  0.3189E-13  0.5206E-16  0.1000E-09  0.0000E+00  0.1166E+17
   -0.042497    0.17927  0.0000E+00  0.3189E-13  0.5206E-16  0.1000E-09  0.0000E+00  0.1154E+17
   -0.084995    0.36593  0.0000E+00  0.4568E-13  0.5206E-16  0.1000E-09  0.0000E+00  0.1130E+17
   -0.127493    0.55914  0.0000E+00  0.1325E-12  0.5206E-16  0.1000E-09  0.0000E+00  0.1057E+17
   -0.169992    0.75100  0.0000E+00  0.3480E-12  0.5937E-16  0.1000E-09  0.0000E+00  0.9846E+16
   -0.212491    0.94119  0.0000E+00  0.7160E-12  0.8585E-16  0.1000E-09  0.0000E+00  0.9127E+16
   -0.254990    1.12940  0.0000E+00  0.1310E-11  0.1380E-15  0.1000E-09  0.0000E+00  0.8415E+16
   -0.297490    1.31526  0.0000E+00  0.2273E-11  0.2270E-15  0.1000E-09  0.0000E+00  0.7717E+16
   -0.339989    1.49846  0.0000E+00  0.3814E-11  0.3713E-15  0.1000E-09  0.0000E+00  0.7040E+16
   -0.382489    1.67878  0.0000E+00  0.6305E-11  0.6044E-15  0.1000E-09  0.0000E+00  0.6382E+16
   -0.424990    1.85595  0.0000E+00  0.1032E-10  0.9778E-15  0.1000E-09  0.0000E+00  0.5754E+16
   -0.467490    2.02992  0.0000E+00  0.1678E-10  0.1575E-14  0.1000E-09  0.0000E+00  0.5152E+16
   -0.509991    2.20048  0.0000E+00  0.2724E-10  0.2534E-14  0.1000E-09  0.0000E+00  0.4619E+16
   -0.552492    2.36912  0.0000E+00  0.4420E-10  0.4079E-14  0.1000E-09  0.0000E+00  0.4110E+16
   -0.594993    2.53605  0.0000E+00  0.7175E-10  0.6571E-14  0.1000E-09  0.0000E+00  0.3622E+16
   -0.637494    2.70149  0.0000E+00  0.1175E-09  0.1068E-13  0.1000E-09  0.0000E+00  0.3157E+16
   -0.679995    2.86591  0.0000E+00  0.1938E-09  0.1748E-13  0.1000E-09  0.0000E+00  0.2701E+16
   -0.722496    3.02918  0.0000E+00  0.3215E-09  0.2881E-13  0.1000E-09  0.0000E+00  0.2256E+16
   -0.764998    3.19132  0.0000E+00  0.5372E-09  0.4779E-13  0.1057E-09  0.0000E+00  0.1818E+16
   -0.807499    3.35188  0.0000E+00  0.9006E-09  0.7957E-13  0.1815E-09  0.0000E+00  0.1382E+16
   -0.850001    3.50930  0.0000E+00  0.1501E-08  0.1317E-12  0.4312E-09  0.0000E+00  0.9616E+15
   -0.892502    3.66157  0.0000E+00  0.2499E-08  0.2177E-12  0.1175E-08  0.0000E+00  0.5772E+15
   -0.935004    3.80790  0.0000E+00  0.4126E-08  0.3571E-12  0.4651E-08  0.0000E+00  0.2323E+15
   -0.977505    3.94404  0.0000E+00  0.6248E-08  0.5446E-12  0.2189E-05  0.0000E+00  0.1872E+14
   -1.020006    3.99935  0.0000E+00  0.6668E-08  0.5839E-12  0.2860E-04  0.0000E+00 -0.1199E+12
   -1.062508    4.00019  0.0000E+00  0.6910E-08  0.6097E-12  0.2955E-04  0.0000E+00 -0.1285E+12
   -1.105009    4.00095  0.0000E+00  0.7135E-08  0.6372E-12  0.3055E-04  0.0000E+00 -0.1340E+12
   -1.147510    4.00165  0.0000E+00  0.7341E-08  0.6661E-12  0.3123E-04  0.0000E+00 -0.1391E+12
   -1.190011    4.00233  0.0000E+00  0.7527E-08  0.6968E-12  0.3159E-04  0.0000E+00 -0.1455E+12
   -1.232511    4.00299  0.0000E+00  0.7704E-08  0.7316E-12  0.3182E-04  0.0000E+00 -0.1547E+12
   -1.275012    4.00365  0.0000E+00  0.7875E-08  0.7724E-12  0.3177E-04  0.0000E+00 -0.1664E+12
   -1.317512    4.00432  0.0000E+00  0.8040E-08  0.8212E-12  0.3146E-04  0.0000E+00 -0.1826E+12
   -1.360012    4.00503  0.0000E+00  0.8202E-08  0.8818E-12  0.3074E-04  0.0000E+00 -0.2054E+12
   -1.402512    4.00578  0.0000E+00  0.8360E-08  0.9606E-12  0.2927E-04  0.0000E+00 -0.2335E+12
   -1.445011    4.00660  0.0000E+00  0.8498E-08  0.1057E-11  0.2711E-04  0.0000E+00 -0.2671E+12
   -1.487511    4.00749  0.0000E+00  0.8616E-08  0.1182E-11  0.2453E-04  0.0000E+00 -0.3193E+12
   -1.530009    4.00852  0.0000E+00  0.8723E-08  0.1386E-11  0.2172E-04  0.0000E+00 -0.4389E+12
   -1.572508    4.00983  0.0000E+00  0.8805E-08  0.1813E-11  0.1854E-04  0.0000E+00 -0.8104E+12
   -1.615006    4.01206  0.0000E+00  0.8611E-08  0.3449E-11  0.7227E-05  0.0000E+00 -0.2871E+13
   -1.657504    4.01857  0.0000E+00  0.6763E-08  0.1137E-10  0.8873E-06  0.0000E+00 -0.3435E+14
   -1.700001    4.05993  0.0000E+00  0.0000E+00  0.0000E+00  0.0000E+00  0.0000E+00  0.0000E+00
