 1 - depth, m
 2 - temperature, C
 3 - salinity, kg/kg
 4 - turbulent kinetic energy, m**2/s**2
 5 - dissipation rate, m**2/s**3
 6 - kinematic heat conductance, m**2/s
 7 - modulus of horizontal velocity, m/s
 8 - Richardson number, n/d
   -0.000000    0.00000  0.0000E+00  0.3189E-13  0.5207E-16  0.1000E-09  0.0000E+00  0.1273E+17
   -0.042497    0.19609  0.0000E+00  0.1507E-12  0.5207E-16  0.1000E-09  0.0000E+00  0.1245E+17
   -0.084995    0.39897  0.0000E+00  0.4036E-12  0.6350E-16  0.1000E-09  0.0000E+00  0.1205E+17
   -0.127493    0.60757  0.0000E+00  0.8259E-12  0.9874E-16  0.1000E-09  0.0000E+00  0.1109E+17
   -0.169992    0.81239  0.0000E+00  0.1515E-11  0.1631E-15  0.1000E-09  0.0000E+00  0.1016E+17
   -0.212490    1.01313  0.0000E+00  0.2647E-11  0.2718E-15  0.1000E-09  0.0000E+00  0.9257E+16
   -0.254989    1.20932  0.0000E+00  0.4529E-11  0.4523E-15  0.1000E-09  0.0000E+00  0.8388E+16
   -0.297489    1.40055  0.0000E+00  0.7669E-11  0.7506E-15  0.1000E-09  0.0000E+00  0.7574E+16
   -0.339988    1.58687  0.0000E+00  0.1280E-10  0.1232E-14  0.1000E-09  0.0000E+00  0.6824E+16
   -0.382488    1.76868  0.0000E+00  0.2122E-10  0.2008E-14  0.1000E-09  0.0000E+00  0.6114E+16
   -0.424989    1.94585  0.0000E+00  0.3487E-10  0.3249E-14  0.1000E-09  0.0000E+00  0.5470E+16
   -0.467489    2.11906  0.0000E+00  0.5692E-10  0.5223E-14  0.1000E-09  0.0000E+00  0.4861E+16
   -0.509989    2.28822  0.0000E+00  0.9255E-10  0.8363E-14  0.1000E-09  0.0000E+00  0.4363E+16
   -0.552490    2.45637  0.0000E+00  0.1501E-09  0.1336E-13  0.1000E-09  0.0000E+00  0.3889E+16
   -0.594991    2.62411  0.0000E+00  0.2429E-09  0.2129E-13  0.1000E-09  0.0000E+00  0.3431E+16
   -0.637492    2.79198  0.0000E+00  0.3954E-09  0.3414E-13  0.1000E-09  0.0000E+00  0.2989E+16
   -0.679993    2.96086  0.0000E+00  0.6456E-09  0.5491E-13  0.1000E-09  0.0000E+00  0.2544E+16
   -0.722494    3.13098  0.0000E+00  0.1058E-08  0.8861E-13  0.1329E-09  0.0000E+00  0.2098E+16
   -0.764996    3.30298  0.0000E+00  0.1738E-08  0.1435E-12  0.2750E-09  0.0000E+00  0.1642E+16
   -0.807497    3.47713  0.0000E+00  0.2859E-08  0.2326E-12  0.6283E-09  0.0000E+00  0.1165E+16
   -0.849998    3.65233  0.0000E+00  0.4655E-08  0.3734E-12  0.1733E-08  0.0000E+00  0.6780E+15
   -0.892500    3.82715  0.0000E+00  0.7528E-08  0.5956E-12  0.9456E-08  0.0000E+00  0.1982E+15
   -0.935001    3.99458  0.0000E+00  0.8015E-08  0.6364E-12  0.3491E-04  0.0000E+00 -0.9801E+11
   -0.977502    3.99530  0.0000E+00  0.8254E-08  0.6594E-12  0.4023E-04  0.0000E+00 -0.9291E+11
   -1.020003    3.99594  0.0000E+00  0.8458E-08  0.6819E-12  0.4074E-04  0.0000E+00 -0.9859E+11
   -1.062505    3.99657  0.0000E+00  0.8640E-08  0.7047E-12  0.4120E-04  0.0000E+00 -0.1044E+12
   -1.105006    3.99720  0.0000E+00  0.8815E-08  0.7297E-12  0.4148E-04  0.0000E+00 -0.1098E+12
   -1.147506    3.99783  0.0000E+00  0.8977E-08  0.7566E-12  0.4157E-04  0.0000E+00 -0.1151E+12
   -1.190007    3.99845  0.0000E+00  0.9127E-08  0.7854E-12  0.4146E-04  0.0000E+00 -0.1217E+12
   -1.232508    3.99907  0.0000E+00  0.9271E-08  0.8184E-12  0.4128E-04  0.0000E+00 -0.1322E+12
   -1.275008    3.99972  0.0000E+00  0.9410E-08  0.8571E-12  0.4086E-04  0.0000E+00 -0.1446E+12
   -1.317508    4.00039  0.0000E+00  0.9544E-08  0.9034E-12  0.4009E-04  0.0000E+00 -0.1583E+12
   -1.360008    4.00109  0.0000E+00  0.9672E-08  0.9607E-12  0.3895E-04  0.0000E+00 -0.1765E+12
   -1.402508    4.00183  0.0000E+00  0.9794E-08  0.1035E-11  0.3726E-04  0.0000E+00 -0.1970E+12
   -1.445007    4.00262  0.0000E+00  0.9895E-08  0.1123E-11  0.3513E-04  0.0000E+00 -0.2180E+12
   -1.487506    4.00345  0.0000E+00  0.9971E-08  0.1234E-11  0.3250E-04  0.0000E+00 -0.2486E+12
   -1.530005    4.00436  0.0000E+00  0.1003E-07  0.1412E-11  0.2910E-04  0.0000E+00 -0.3220E+12
   -1.572504    4.00546  0.0000E+00  0.1004E-07  0.1814E-11  0.2409E-04  0.0000E+00 -0.5621E+12
   -1.615002    4.00725  0.0000E+00  0.9744E-08  0.3535E-11  0.8515E-05  0.0000E+00 -0.2103E+13
   -1.657499    4.01290  0.0000E+00  0.7592E-08  0.1274E-10  0.9822E-06  0.0000E+00 -0.3271E+14
   -1.699997    4.05620  0.0000E+00  0.0000E+00  0.0000E+00  0.0000E+00  0.0000E+00  0.0000E+00
