 1 - depth, m
 2 - temperature, C
 3 - salinity, kg/kg
 4 - turbulent kinetic energy, m**2/s**2
 5 - dissipation rate, m**2/s**3
 6 - kinematic heat conductance, m**2/s
 7 - modulus of horizontal velocity, m/s
 8 - Richardson number, n/d
   -0.000000   11.66487  0.0000E+00  0.1104E-03  0.3889E-04  0.4770E-04  0.7970E-01  0.7660E-02
   -0.042497   11.68800  0.0000E+00  0.6038E-04  0.1274E-04  0.8013E-04  0.2186E-01 -0.1869E-01
   -0.084995   11.69146  0.0000E+00  0.4295E-04  0.6396E-05  0.7131E-04  0.1493E-01 -0.8555E-01
   -0.127493   11.69393  0.0000E+00  0.3126E-04  0.3308E-05  0.6590E-04  0.1136E-01 -0.2495E-01
   -0.169992   11.69590  0.0000E+00  0.2274E-04  0.1724E-05  0.6336E-04  0.8800E-02 -0.6088E-01
   -0.212490   11.69761  0.0000E+00  0.1652E-04  0.9126E-06  0.6231E-04  0.6800E-02 -0.3909E-01
   -0.254989   11.69905  0.0000E+00  0.1199E-04  0.4821E-06  0.6227E-04  0.5259E-02  0.6189E+00
   -0.297489   11.70013  0.0000E+00  0.8876E-05  0.2623E-06  0.6422E-04  0.4105E-02  0.7847E+00
   -0.339988   11.70091  0.0000E+00  0.6811E-05  0.1487E-06  0.7155E-04  0.3214E-02  0.2282E+01
   -0.382488   11.70177  0.0000E+00  0.5443E-05  0.8788E-07  0.9100E-04  0.2498E-02  0.1675E+03
   -0.424989   11.70273  0.0000E+00  0.4555E-05  0.5469E-07  0.1466E-03  0.1957E-02  0.3101E+03
   -0.467489   11.70386  0.0000E+00  0.3964E-05  0.3583E-07  0.2034E-03  0.1528E-02  0.2410E+03
   -0.509990   11.70490  0.0000E+00  0.3568E-05  0.2475E-07  0.2636E-03  0.1193E-02  0.8327E+02
   -0.552490   11.70578  0.0000E+00  0.3304E-05  0.1804E-07  0.2989E-03  0.9374E-03  0.2600E+02
   -0.594991   11.70655  0.0000E+00  0.3130E-05  0.1386E-07  0.3326E-03  0.7368E-03  0.8864E+02
   -0.637492   11.70722  0.0000E+00  0.3015E-05  0.1115E-07  0.3641E-03  0.5780E-03  0.1297E+02
   -0.679993   11.70780  0.0000E+00  0.2944E-05  0.9338E-08  0.3924E-03  0.4576E-03  0.6663E+01
   -0.722494   11.70833  0.0000E+00  0.2905E-05  0.8104E-08  0.4209E-03  0.3649E-03  0.7902E+01
   -0.764996   11.70879  0.0000E+00  0.2891E-05  0.7257E-08  0.4479E-03  0.2964E-03  0.9173E+01
   -0.807497   11.70920  0.0000E+00  0.2898E-05  0.6675E-08  0.4730E-03  0.2469E-03  0.1150E+02
   -0.849998   11.70958  0.0000E+00  0.2920E-05  0.6286E-08  0.4956E-03  0.2098E-03  0.1482E+02
   -0.892500   11.70994  0.0000E+00  0.2954E-05  0.6025E-08  0.5158E-03  0.1813E-03  0.1533E+02
   -0.935001   11.71030  0.0000E+00  0.2996E-05  0.5859E-08  0.5336E-03  0.1586E-03  0.2043E+02
   -0.977502   11.71066  0.0000E+00  0.3044E-05  0.5760E-08  0.5494E-03  0.1398E-03  0.2764E+02
   -1.020003   11.71104  0.0000E+00  0.3097E-05  0.5716E-08  0.5632E-03  0.1238E-03  0.3719E+02
   -1.062505   11.71144  0.0000E+00  0.3151E-05  0.5716E-08  0.5746E-03  0.1098E-03  0.4906E+02
   -1.105006   11.71187  0.0000E+00  0.3206E-05  0.5754E-08  0.5833E-03  0.9737E-04  0.6407E+02
   -1.147507   11.71233  0.0000E+00  0.3259E-05  0.5825E-08  0.5887E-03  0.8601E-04  0.8298E+02
   -1.190007   11.71283  0.0000E+00  0.3306E-05  0.5922E-08  0.5907E-03  0.7536E-04  0.1027E+03
   -1.232508   11.71338  0.0000E+00  0.3348E-05  0.6049E-08  0.5893E-03  0.6543E-04  0.1284E+03
   -1.275008   11.71396  0.0000E+00  0.3386E-05  0.6214E-08  0.5838E-03  0.5663E-04  0.1749E+03
   -1.317508   11.71456  0.0000E+00  0.3419E-05  0.6427E-08  0.5732E-03  0.4878E-04  0.2456E+03
   -1.360008   11.71520  0.0000E+00  0.3447E-05  0.6707E-08  0.5564E-03  0.4187E-04  0.3517E+03
   -1.402508   11.71588  0.0000E+00  0.3470E-05  0.7092E-08  0.5318E-03  0.3586E-04  0.5539E+03
   -1.445007   11.71662  0.0000E+00  0.3483E-05  0.7573E-08  0.5009E-03  0.3042E-04  0.8917E+03
   -1.487506   11.71745  0.0000E+00  0.3483E-05  0.8193E-08  0.4658E-03  0.2519E-04  0.1215E+04
   -1.530005   11.71841  0.0000E+00  0.3464E-05  0.9186E-08  0.4015E-03  0.2019E-04  0.1608E+04
   -1.572504   11.71956  0.0000E+00  0.3403E-05  0.1139E-07  0.3918E-03  0.1553E-04  0.3226E+04
   -1.615002   11.72075  0.0000E+00  0.3138E-05  0.2192E-07  0.1776E-03  0.1276E-04 -0.2805E+07
   -1.657499   11.72555  0.0000E+00  0.2076E-05  0.7287E-07  0.4057E-04  0.8147E-05 -0.1078E+08
   -1.699997   11.73951  0.0000E+00  0.0000E+00  0.0000E+00  0.0000E+00  0.9210E-05  0.0000E+00
