 1 - depth, m
 2 - temperature, C
 3 - salinity, kg/kg
 4 - turbulent kinetic energy, m**2/s**2
 5 - dissipation rate, m**2/s**3
 6 - kinematic heat conductance, m**2/s
 7 - modulus of horizontal velocity, m/s
 8 - Richardson number, n/d
   -0.000000    4.96416  0.0000E+00  0.5958E-03  0.1358E-02  0.1246E-03  0.3237E+00  0.3325E-02
   -0.042498    5.00492  0.0000E+00  0.3111E-03  0.4831E-03  0.2043E-03  0.7365E-01 -0.7662E-02
   -0.084996    5.01730  0.0000E+00  0.2096E-03  0.1746E-03  0.2111E-03  0.4447E-01 -0.4449E-02
   -0.127495    5.02564  0.0000E+00  0.1538E-03  0.7877E-04  0.1831E-03  0.3442E-01 -0.1316E-01
   -0.169994    5.03153  0.0000E+00  0.1178E-03  0.4264E-04  0.1729E-03  0.2790E-01 -0.5290E-02
   -0.212493    5.03704  0.0000E+00  0.9038E-04  0.2274E-04  0.1671E-03  0.2265E-01 -0.1284E-01
   -0.254993    5.04336  0.0000E+00  0.7105E-04  0.1258E-04  0.1662E-03  0.1845E-01 -0.2799E+00
   -0.297493    5.04865  0.0000E+00  0.5699E-04  0.6883E-05  0.1668E-03  0.1559E-01 -0.2890E+00
   -0.339993    5.05274  0.0000E+00  0.4661E-04  0.3682E-05  0.1677E-03  0.1353E-01  0.2020E+02
   -0.382493    5.05619  0.0000E+00  0.3878E-04  0.1983E-05  0.1710E-03  0.1167E-01  0.1024E+04
   -0.424994    5.05925  0.0000E+00  0.3296E-04  0.1151E-05  0.1730E-03  0.1018E-01  0.5370E+03
   -0.467495    5.06204  0.0000E+00  0.2850E-04  0.7504E-06  0.1758E-03  0.8761E-02  0.2137E+04
   -0.509996    5.06458  0.0000E+00  0.2495E-04  0.5352E-06  0.1791E-03  0.7503E-02  0.4388E+02
   -0.552497    5.06686  0.0000E+00  0.2200E-04  0.4012E-06  0.1814E-03  0.6401E-02  0.5599E+03
   -0.594999    5.06896  0.0000E+00  0.1946E-04  0.3089E-06  0.1847E-03  0.5413E-02  0.7448E+04
   -0.637500    5.07090  0.0000E+00  0.1721E-04  0.2409E-06  0.1892E-03  0.4551E-02  0.9365E+04
   -0.680002    5.07270  0.0000E+00  0.1522E-04  0.1894E-06  0.1929E-03  0.3835E-02  0.3525E+02
   -0.722504    5.07441  0.0000E+00  0.1344E-04  0.1495E-06  0.1969E-03  0.3230E-02  0.1012E+05
   -0.765006    5.07604  0.0000E+00  0.1186E-04  0.1182E-06  0.2009E-03  0.2735E-02  0.1160E+03
   -0.807507    5.07762  0.0000E+00  0.1046E-04  0.9346E-07  0.2035E-03  0.2339E-02  0.7289E+03
   -0.850009    5.07915  0.0000E+00  0.9243E-05  0.7412E-07  0.2064E-03  0.2007E-02  0.1201E+05
   -0.892511    5.08064  0.0000E+00  0.8176E-05  0.5884E-07  0.2088E-03  0.1726E-02  0.1087E+04
   -0.935013    5.08210  0.0000E+00  0.7254E-05  0.4689E-07  0.2100E-03  0.1487E-02  0.2405E+04
   -0.977515    5.08351  0.0000E+00  0.6459E-05  0.3754E-07  0.2117E-03  0.1279E-02  0.4666E+03
   -1.020017    5.08489  0.0000E+00  0.5775E-05  0.3021E-07  0.2133E-03  0.1098E-02  0.9766E+03
   -1.062518    5.08622  0.0000E+00  0.5190E-05  0.2449E-07  0.2151E-03  0.9384E-03  0.1462E+04
   -1.105020    5.08750  0.0000E+00  0.4691E-05  0.2002E-07  0.2165E-03  0.7976E-03  0.9801E+03
   -1.147521    5.08873  0.0000E+00  0.4275E-05  0.1660E-07  0.2175E-03  0.6689E-03  0.1502E+04
   -1.190023    5.08990  0.0000E+00  0.3934E-05  0.1401E-07  0.2187E-03  0.5478E-03  0.4243E+04
   -1.232524    5.09101  0.0000E+00  0.3643E-05  0.1199E-07  0.2206E-03  0.4376E-03  0.2809E+04
   -1.275025    5.09208  0.0000E+00  0.3393E-05  0.1039E-07  0.2215E-03  0.3462E-03  0.3658E+04
   -1.317525    5.09311  0.0000E+00  0.3177E-05  0.9122E-08  0.2217E-03  0.2715E-03  0.3402E+04
   -1.360026    5.09411  0.0000E+00  0.2986E-05  0.8111E-08  0.2203E-03  0.2119E-03  0.5967E+04
   -1.402526    5.09509  0.0000E+00  0.2813E-05  0.7291E-08  0.2165E-03  0.1662E-03  0.9660E+04
   -1.445026    5.09605  0.0000E+00  0.2673E-05  0.6722E-08  0.2098E-03  0.1293E-03  0.1005E+07
   -1.487526    5.09698  0.0000E+00  0.2563E-05  0.6397E-08  0.2000E-03  0.9688E-04  0.3036E+05
   -1.530025    5.09789  0.0000E+00  0.2469E-05  0.6318E-08  0.1861E-03  0.6867E-04  0.4873E+05
   -1.572524    5.09885  0.0000E+00  0.2363E-05  0.6658E-08  0.1612E-03  0.4676E-04  0.8165E+05
   -1.615023    5.10006  0.0000E+00  0.2134E-05  0.8543E-08  0.1014E-03  0.3318E-04  0.1452E+07
   -1.657521    5.10213  0.0000E+00  0.1299E-05  0.2398E-07  0.1013E-04  0.2261E-04 -0.3049E+10
   -1.700019    5.12359  0.0000E+00  0.0000E+00  0.0000E+00  0.0000E+00  0.2267E-04  0.0000E+00
