 1 - depth, m
 2 - temperature, C
 3 - salinity, kg/kg
 4 - turbulent kinetic energy, m**2/s**2
 5 - dissipation rate, m**2/s**3
 6 - kinematic heat conductance, m**2/s
 7 - modulus of horizontal velocity, m/s
 8 - Richardson number, n/d
   -0.000000    0.00000  0.0000E+00  0.2310E-09  0.2292E-12  0.1000E-09  0.0000E+00  0.3163E+17
   -0.042497    0.50900  0.0000E+00  0.7930E-09  0.1747E-12  0.1000E-09  0.0000E+00  0.2656E+17
   -0.084995    1.00739  0.0000E+00  0.1809E-08  0.2057E-12  0.1000E-09  0.0000E+00  0.2181E+17
   -0.127492    1.49417  0.0000E+00  0.3379E-08  0.2918E-12  0.1000E-09  0.0000E+00  0.1717E+17
   -0.169991    1.96215  0.0000E+00  0.5743E-08  0.4398E-12  0.1062E-09  0.0000E+00  0.1304E+17
   -0.212489    2.41139  0.0000E+00  0.9317E-08  0.6730E-12  0.2260E-09  0.0000E+00  0.9372E+16
   -0.254988    2.84188  0.0000E+00  0.1477E-07  0.1032E-11  0.5288E-09  0.0000E+00  0.6144E+16
   -0.297487    3.25348  0.0000E+00  0.2311E-07  0.1579E-11  0.1497E-08  0.0000E+00  0.3323E+16
   -0.339987    3.64500  0.0000E+00  0.3555E-07  0.2388E-11  0.8248E-08  0.0000E+00  0.9135E+15
   -0.382486    4.00333  0.0000E+00  0.3588E-07  0.2412E-11  0.1793E-03  0.0000E+00 -0.7895E+11
   -0.424986    4.00362  0.0000E+00  0.3605E-07  0.2425E-11  0.1759E-03  0.0000E+00 -0.7911E+11
   -0.467486    4.00391  0.0000E+00  0.3620E-07  0.2440E-11  0.1762E-03  0.0000E+00 -0.7880E+11
   -0.509987    4.00419  0.0000E+00  0.3636E-07  0.2456E-11  0.1765E-03  0.0000E+00 -0.7931E+11
   -0.552487    4.00448  0.0000E+00  0.3651E-07  0.2473E-11  0.1767E-03  0.0000E+00 -0.8001E+11
   -0.594988    4.00476  0.0000E+00  0.3665E-07  0.2492E-11  0.1767E-03  0.0000E+00 -0.8112E+11
   -0.637489    4.00503  0.0000E+00  0.3679E-07  0.2513E-11  0.1765E-03  0.0000E+00 -0.8273E+11
   -0.679990    4.00531  0.0000E+00  0.3693E-07  0.2537E-11  0.1761E-03  0.0000E+00 -0.8466E+11
   -0.722491    4.00560  0.0000E+00  0.3707E-07  0.2563E-11  0.1755E-03  0.0000E+00 -0.8719E+11
   -0.764992    4.00588  0.0000E+00  0.3721E-07  0.2594E-11  0.1746E-03  0.0000E+00 -0.9030E+11
   -0.807493    4.00618  0.0000E+00  0.3735E-07  0.2629E-11  0.1736E-03  0.0000E+00 -0.9330E+11
   -0.849994    4.00647  0.0000E+00  0.3749E-07  0.2667E-11  0.1723E-03  0.0000E+00 -0.9653E+11
   -0.892495    4.00678  0.0000E+00  0.3763E-07  0.2710E-11  0.1709E-03  0.0000E+00 -0.9952E+11
   -0.934996    4.00709  0.0000E+00  0.3776E-07  0.2758E-11  0.1693E-03  0.0000E+00 -0.1021E+12
   -0.977497    4.00740  0.0000E+00  0.3789E-07  0.2810E-11  0.1674E-03  0.0000E+00 -0.1051E+12
   -1.019998    4.00771  0.0000E+00  0.3800E-07  0.2867E-11  0.1653E-03  0.0000E+00 -0.1080E+12
   -1.062499    4.00803  0.0000E+00  0.3811E-07  0.2929E-11  0.1629E-03  0.0000E+00 -0.1112E+12
   -1.105000    4.00836  0.0000E+00  0.3821E-07  0.2997E-11  0.1603E-03  0.0000E+00 -0.1143E+12
   -1.147500    4.00869  0.0000E+00  0.3829E-07  0.3070E-11  0.1576E-03  0.0000E+00 -0.1172E+12
   -1.190001    4.00902  0.0000E+00  0.3836E-07  0.3148E-11  0.1545E-03  0.0000E+00 -0.1212E+12
   -1.232501    4.00936  0.0000E+00  0.3841E-07  0.3238E-11  0.1510E-03  0.0000E+00 -0.1274E+12
   -1.275001    4.00971  0.0000E+00  0.3846E-07  0.3345E-11  0.1469E-03  0.0000E+00 -0.1347E+12
   -1.317501    4.01007  0.0000E+00  0.3849E-07  0.3475E-11  0.1421E-03  0.0000E+00 -0.1427E+12
   -1.360001    4.01045  0.0000E+00  0.3851E-07  0.3640E-11  0.1363E-03  0.0000E+00 -0.1536E+12
   -1.402500    4.01086  0.0000E+00  0.3851E-07  0.3857E-11  0.1295E-03  0.0000E+00 -0.1655E+12
   -1.445000    4.01128  0.0000E+00  0.3849E-07  0.4120E-11  0.1224E-03  0.0000E+00 -0.1774E+12
   -1.487498    4.01173  0.0000E+00  0.3845E-07  0.4445E-11  0.1142E-03  0.0000E+00 -0.1933E+12
   -1.529997    4.01222  0.0000E+00  0.3835E-07  0.4941E-11  0.1032E-03  0.0000E+00 -0.2285E+12
   -1.572495    4.01277  0.0000E+00  0.3814E-07  0.5998E-11  0.8795E-04  0.0000E+00 -0.3247E+12
   -1.614993    4.01354  0.0000E+00  0.3710E-07  0.1071E-10  0.3451E-04  0.0000E+00 -0.9704E+12
   -1.657491    4.01574  0.0000E+00  0.2726E-07  0.6007E-10  0.1916E-05  0.0000E+00 -0.2890E+14
   -1.699988    4.05382  0.0000E+00  0.0000E+00  0.0000E+00  0.0000E+00  0.0000E+00  0.0000E+00
