 1 - depth, m
 2 - temperature, C
 3 - salinity, kg/kg
 4 - turbulent kinetic energy, m**2/s**2
 5 - dissipation rate, m**2/s**3
 6 - kinematic heat conductance, m**2/s
 7 - modulus of horizontal velocity, m/s
 8 - Richardson number, n/d
   -0.000000    0.00000  0.0000E+00  0.1221E-10  0.5825E-14  0.1000E-09  0.0000E+00  0.2451E+17
   -0.042497    0.38772  0.0000E+00  0.2657E-10  0.5186E-14  0.1000E-09  0.0000E+00  0.2075E+17
   -0.084994    0.75465  0.0000E+00  0.5452E-10  0.6884E-14  0.1000E-09  0.0000E+00  0.1746E+17
   -0.127491    1.10141  0.0000E+00  0.1012E-09  0.1071E-13  0.1000E-09  0.0000E+00  0.1447E+17
   -0.169989    1.42611  0.0000E+00  0.1773E-09  0.1742E-13  0.1000E-09  0.0000E+00  0.1191E+17
   -0.212487    1.72974  0.0000E+00  0.3020E-09  0.2855E-13  0.1000E-09  0.0000E+00  0.9710E+16
   -0.254985    2.01304  0.0000E+00  0.5073E-09  0.4680E-13  0.1000E-09  0.0000E+00  0.7836E+16
   -0.297484    2.27678  0.0000E+00  0.8459E-09  0.7655E-13  0.1000E-09  0.0000E+00  0.6270E+16
   -0.339983    2.52273  0.0000E+00  0.1392E-08  0.1239E-12  0.1000E-09  0.0000E+00  0.4981E+16
   -0.382482    2.75358  0.0000E+00  0.2275E-08  0.1991E-12  0.1605E-09  0.0000E+00  0.3905E+16
   -0.424982    2.97154  0.0000E+00  0.3687E-08  0.3175E-12  0.3304E-09  0.0000E+00  0.3024E+16
   -0.467482    3.18076  0.0000E+00  0.5931E-08  0.5028E-12  0.6977E-09  0.0000E+00  0.2268E+16
   -0.509982    3.38446  0.0000E+00  0.9492E-08  0.7922E-12  0.1535E-08  0.0000E+00  0.1623E+16
   -0.552482    3.59103  0.0000E+00  0.1513E-07  0.1243E-11  0.4086E-08  0.0000E+00  0.9641E+15
   -0.594982    3.80257  0.0000E+00  0.2381E-07  0.1928E-11  0.2494E-07  0.0000E+00  0.2700E+15
   -0.637482    3.99927  0.0000E+00  0.2496E-07  0.2030E-11  0.1004E-03  0.0000E+00  0.2185E+13
   -0.679983    4.00691  0.0000E+00  0.2521E-07  0.2054E-11  0.1074E-03  0.0000E+00 -0.1059E+12
   -0.722483    4.00723  0.0000E+00  0.2544E-07  0.2079E-11  0.1073E-03  0.0000E+00 -0.1120E+12
   -0.764984    4.00757  0.0000E+00  0.2568E-07  0.2108E-11  0.1074E-03  0.0000E+00 -0.1185E+12
   -0.807484    4.00793  0.0000E+00  0.2592E-07  0.2141E-11  0.1075E-03  0.0000E+00 -0.1248E+12
   -0.849985    4.00829  0.0000E+00  0.2616E-07  0.2178E-11  0.1075E-03  0.0000E+00 -0.1314E+12
   -0.892486    4.00867  0.0000E+00  0.2640E-07  0.2219E-11  0.1074E-03  0.0000E+00 -0.1365E+12
   -0.934986    4.00906  0.0000E+00  0.2663E-07  0.2263E-11  0.1071E-03  0.0000E+00 -0.1395E+12
   -0.977487    4.00945  0.0000E+00  0.2684E-07  0.2311E-11  0.1066E-03  0.0000E+00 -0.1431E+12
   -1.019988    4.00984  0.0000E+00  0.2705E-07  0.2363E-11  0.1060E-03  0.0000E+00 -0.1464E+12
   -1.062488    4.01023  0.0000E+00  0.2724E-07  0.2419E-11  0.1051E-03  0.0000E+00 -0.1502E+12
   -1.104988    4.01063  0.0000E+00  0.2741E-07  0.2480E-11  0.1040E-03  0.0000E+00 -0.1535E+12
   -1.147489    4.01103  0.0000E+00  0.2757E-07  0.2545E-11  0.1028E-03  0.0000E+00 -0.1566E+12
   -1.189989    4.01143  0.0000E+00  0.2770E-07  0.2614E-11  0.1012E-03  0.0000E+00 -0.1612E+12
   -1.232489    4.01184  0.0000E+00  0.2783E-07  0.2694E-11  0.9931E-04  0.0000E+00 -0.1704E+12
   -1.274988    4.01226  0.0000E+00  0.2793E-07  0.2788E-11  0.9699E-04  0.0000E+00 -0.1811E+12
   -1.317488    4.01270  0.0000E+00  0.2803E-07  0.2902E-11  0.9415E-04  0.0000E+00 -0.1925E+12
   -1.359987    4.01317  0.0000E+00  0.2811E-07  0.3046E-11  0.9059E-04  0.0000E+00 -0.2083E+12
   -1.402486    4.01366  0.0000E+00  0.2818E-07  0.3235E-11  0.8632E-04  0.0000E+00 -0.2255E+12
   -1.444985    4.01418  0.0000E+00  0.2821E-07  0.3464E-11  0.8171E-04  0.0000E+00 -0.2418E+12
   -1.487483    4.01473  0.0000E+00  0.2822E-07  0.3748E-11  0.7619E-04  0.0000E+00 -0.2657E+12
   -1.529981    4.01532  0.0000E+00  0.2819E-07  0.4183E-11  0.6876E-04  0.0000E+00 -0.3260E+12
   -1.572479    4.01603  0.0000E+00  0.2806E-07  0.5113E-11  0.5823E-04  0.0000E+00 -0.5181E+12
   -1.614977    4.01713  0.0000E+00  0.2729E-07  0.9178E-11  0.2402E-04  0.0000E+00 -0.1582E+13
   -1.657474    4.02026  0.0000E+00  0.2080E-07  0.4303E-10  0.1832E-05  0.0000E+00 -0.3776E+14
   -1.699970    4.06364  0.0000E+00  0.0000E+00  0.0000E+00  0.0000E+00  0.0000E+00  0.0000E+00
