 1 - depth, m
 2 - temperature, C
 3 - salinity, kg/kg
 4 - turbulent kinetic energy, m**2/s**2
 5 - dissipation rate, m**2/s**3
 6 - kinematic heat conductance, m**2/s
 7 - modulus of horizontal velocity, m/s
 8 - Richardson number, n/d
   -0.000000    0.00000  0.0000E+00  0.9662E-12  0.2463E-15  0.1000E-09  0.0000E+00  0.1622E+17
   -0.042497    0.25173  0.0000E+00  0.1564E-11  0.2305E-15  0.1000E-09  0.0000E+00  0.1531E+17
   -0.084995    0.50717  0.0000E+00  0.2744E-11  0.2903E-15  0.1000E-09  0.0000E+00  0.1431E+17
   -0.127493    0.76541  0.0000E+00  0.4676E-11  0.4223E-15  0.1000E-09  0.0000E+00  0.1291E+17
   -0.169991    1.01873  0.0000E+00  0.7715E-11  0.6480E-15  0.1000E-09  0.0000E+00  0.1156E+17
   -0.212490    1.26664  0.0000E+00  0.1248E-10  0.1012E-14  0.1000E-09  0.0000E+00  0.1027E+17
   -0.254989    1.50866  0.0000E+00  0.1999E-10  0.1590E-14  0.1000E-09  0.0000E+00  0.9044E+16
   -0.297488    1.74417  0.0000E+00  0.3188E-10  0.2507E-14  0.1000E-09  0.0000E+00  0.7872E+16
   -0.339987    1.97238  0.0000E+00  0.5039E-10  0.3928E-14  0.1000E-09  0.0000E+00  0.6770E+16
   -0.382487    2.19254  0.0000E+00  0.7934E-10  0.6140E-14  0.1000E-09  0.0000E+00  0.5748E+16
   -0.424987    2.40411  0.0000E+00  0.1244E-09  0.9563E-14  0.1000E-09  0.0000E+00  0.4814E+16
   -0.467487    2.60678  0.0000E+00  0.1944E-09  0.1485E-13  0.1000E-09  0.0000E+00  0.3968E+16
   -0.509988    2.80025  0.0000E+00  0.3037E-09  0.2306E-13  0.1000E-09  0.0000E+00  0.3242E+16
   -0.552488    2.98634  0.0000E+00  0.4751E-09  0.3584E-13  0.1000E-09  0.0000E+00  0.2588E+16
   -0.594989    3.16516  0.0000E+00  0.7440E-09  0.5576E-13  0.1075E-09  0.0000E+00  0.1998E+16
   -0.637490    3.33656  0.0000E+00  0.1176E-08  0.8753E-13  0.1874E-09  0.0000E+00  0.1468E+16
   -0.679991    3.50011  0.0000E+00  0.1871E-08  0.1383E-12  0.4350E-09  0.0000E+00  0.9941E+15
   -0.722492    3.65432  0.0000E+00  0.2995E-08  0.2197E-12  0.1163E-08  0.0000E+00  0.5840E+15
   -0.764993    3.79686  0.0000E+00  0.4820E-08  0.3509E-12  0.4239E-08  0.0000E+00  0.2503E+15
   -0.807494    3.92305  0.0000E+00  0.7583E-08  0.5496E-12  0.1444E-06  0.0000E+00  0.3156E+14
   -0.849995    4.00192  0.0000E+00  0.7931E-08  0.5762E-12  0.4289E-04  0.0000E+00 -0.8819E+11
   -0.892497    4.00232  0.0000E+00  0.8114E-08  0.5919E-12  0.4238E-04  0.0000E+00 -0.9164E+11
   -0.934998    4.00271  0.0000E+00  0.8292E-08  0.6092E-12  0.4311E-04  0.0000E+00 -0.9439E+11
   -0.977499    4.00310  0.0000E+00  0.8465E-08  0.6280E-12  0.4373E-04  0.0000E+00 -0.9748E+11
   -1.020000    4.00348  0.0000E+00  0.8630E-08  0.6484E-12  0.4414E-04  0.0000E+00 -0.1004E+12
   -1.062501    4.00387  0.0000E+00  0.8787E-08  0.6705E-12  0.4436E-04  0.0000E+00 -0.1037E+12
   -1.105002    4.00427  0.0000E+00  0.8936E-08  0.6944E-12  0.4437E-04  0.0000E+00 -0.1068E+12
   -1.147503    4.00466  0.0000E+00  0.9072E-08  0.7198E-12  0.4416E-04  0.0000E+00 -0.1098E+12
   -1.190003    4.00506  0.0000E+00  0.9196E-08  0.7472E-12  0.4379E-04  0.0000E+00 -0.1141E+12
   -1.232504    4.00546  0.0000E+00  0.9314E-08  0.7785E-12  0.4336E-04  0.0000E+00 -0.1222E+12
   -1.275004    4.00588  0.0000E+00  0.9428E-08  0.8154E-12  0.4265E-04  0.0000E+00 -0.1323E+12
   -1.317504    4.00632  0.0000E+00  0.9537E-08  0.8601E-12  0.4160E-04  0.0000E+00 -0.1448E+12
   -1.360004    4.00680  0.0000E+00  0.9643E-08  0.9161E-12  0.4017E-04  0.0000E+00 -0.1623E+12
   -1.402503    4.00732  0.0000E+00  0.9745E-08  0.9900E-12  0.3806E-04  0.0000E+00 -0.1823E+12
   -1.445002    4.00789  0.0000E+00  0.9832E-08  0.1081E-11  0.3531E-04  0.0000E+00 -0.2039E+12
   -1.487501    4.00851  0.0000E+00  0.9905E-08  0.1198E-11  0.3207E-04  0.0000E+00 -0.2389E+12
   -1.530000    4.00922  0.0000E+00  0.9968E-08  0.1385E-11  0.2848E-04  0.0000E+00 -0.3266E+12
   -1.572498    4.01016  0.0000E+00  0.1001E-07  0.1784E-11  0.2432E-04  0.0000E+00 -0.6108E+12
   -1.614996    4.01180  0.0000E+00  0.9771E-08  0.3418E-11  0.9345E-05  0.0000E+00 -0.2205E+13
   -1.657494    4.01692  0.0000E+00  0.7617E-08  0.1260E-10  0.9756E-06  0.0000E+00 -0.3172E+14
   -1.699991    4.05682  0.0000E+00  0.0000E+00  0.0000E+00  0.0000E+00  0.0000E+00  0.0000E+00
