 1 - depth, m
 2 - temperature, C
 3 - salinity, kg/kg
 4 - turbulent kinetic energy, m**2/s**2
 5 - dissipation rate, m**2/s**3
 6 - kinematic heat conductance, m**2/s
 7 - modulus of horizontal velocity, m/s
 8 - Richardson number, n/d
   -0.000000   15.94315  0.0000E+00  0.2136E-04  0.2231E-05  0.2563E-04  0.2508E-01 -0.1266E-01
   -0.042497   15.96035  0.0000E+00  0.1450E-04  0.6661E-06  0.3992E-04  0.1260E-01 -0.3330E-01
   -0.084995   15.96850  0.0000E+00  0.1086E-04  0.2984E-06  0.5082E-04  0.8299E-02 -0.6641E-01
   -0.127493   15.97438  0.0000E+00  0.8483E-05  0.1568E-06  0.6150E-04  0.5724E-02 -0.1216E+00
   -0.169992   15.97903  0.0000E+00  0.6863E-05  0.9093E-07  0.7418E-04  0.4023E-02 -0.2105E+00
   -0.212490   15.98276  0.0000E+00  0.5742E-05  0.5652E-07  0.9283E-04  0.2862E-02 -0.3439E+00
   -0.254990   15.98564  0.0000E+00  0.5001E-05  0.3750E-07  0.1531E-03  0.2083E-02  0.9671E+01
   -0.297489   15.98748  0.0000E+00  0.4582E-05  0.2758E-07  0.2594E-03  0.1595E-02  0.2091E+03
   -0.339989   15.98852  0.0000E+00  0.4358E-05  0.2216E-07  0.2988E-03  0.1329E-02  0.9546E+01
   -0.382489   15.98935  0.0000E+00  0.4222E-05  0.1852E-07  0.3287E-03  0.1128E-02  0.2908E+01
   -0.424989   15.99007  0.0000E+00  0.4143E-05  0.1593E-07  0.3610E-03  0.9657E-03  0.8222E+01
   -0.467489   15.99071  0.0000E+00  0.4101E-05  0.1401E-07  0.3959E-03  0.8250E-03  0.1331E+01
   -0.509990   15.99129  0.0000E+00  0.4083E-05  0.1254E-07  0.4328E-03  0.7009E-03  0.1379E+01
   -0.552491   15.99182  0.0000E+00  0.4081E-05  0.1139E-07  0.4707E-03  0.5916E-03  0.1426E+01
   -0.594992   15.99230  0.0000E+00  0.4087E-05  0.1049E-07  0.5085E-03  0.4953E-03  0.1410E+01
   -0.637493   15.99275  0.0000E+00  0.4098E-05  0.9777E-08  0.5462E-03  0.4127E-03  0.1323E+01
   -0.679994   15.99316  0.0000E+00  0.4112E-05  0.9210E-08  0.5813E-03  0.3455E-03  0.1245E+01
   -0.722495   15.99354  0.0000E+00  0.4126E-05  0.8764E-08  0.6125E-03  0.2918E-03  0.1187E+01
   -0.764996   15.99389  0.0000E+00  0.4140E-05  0.8413E-08  0.6401E-03  0.2501E-03  0.1175E+01
   -0.807498   15.99423  0.0000E+00  0.4156E-05  0.8138E-08  0.6640E-03  0.2181E-03  0.1247E+01
   -0.849999   15.99454  0.0000E+00  0.4172E-05  0.7927E-08  0.6845E-03  0.1927E-03  0.1369E+01
   -0.892500   15.99484  0.0000E+00  0.4188E-05  0.7766E-08  0.7021E-03  0.1720E-03  0.1543E+01
   -0.935002   15.99514  0.0000E+00  0.4204E-05  0.7648E-08  0.7167E-03  0.1548E-03  0.1813E+01
   -0.977503   15.99543  0.0000E+00  0.4221E-05  0.7566E-08  0.7287E-03  0.1399E-03  0.2118E+01
   -1.020004   15.99572  0.0000E+00  0.4237E-05  0.7516E-08  0.7379E-03  0.1268E-03  0.2521E+01
   -1.062506   15.99601  0.0000E+00  0.4252E-05  0.7496E-08  0.7439E-03  0.1149E-03  0.2947E+01
   -1.105007   15.99631  0.0000E+00  0.4265E-05  0.7505E-08  0.7466E-03  0.1041E-03  0.3472E+01
   -1.147507   15.99661  0.0000E+00  0.4275E-05  0.7542E-08  0.7458E-03  0.9390E-04  0.4093E+01
   -1.190008   15.99692  0.0000E+00  0.4283E-05  0.7608E-08  0.7411E-03  0.8409E-04  0.4713E+01
   -1.232509   15.99724  0.0000E+00  0.4286E-05  0.7710E-08  0.7322E-03  0.7472E-04  0.5523E+01
   -1.275009   15.99757  0.0000E+00  0.4285E-05  0.7857E-08  0.7183E-03  0.6612E-04  0.7107E+01
   -1.317509   15.99791  0.0000E+00  0.4279E-05  0.8066E-08  0.6982E-03  0.5823E-04  0.9424E+01
   -1.360009   15.99826  0.0000E+00  0.4268E-05  0.8363E-08  0.6706E-03  0.5107E-04  0.1279E+02
   -1.402509   15.99863  0.0000E+00  0.4248E-05  0.8796E-08  0.6340E-03  0.4462E-04  0.1900E+02
   -1.445009   15.99903  0.0000E+00  0.4222E-05  0.9371E-08  0.5882E-03  0.3861E-04  0.2911E+02
   -1.487508   15.99947  0.0000E+00  0.4188E-05  0.1016E-07  0.5464E-03  0.3267E-04  0.3799E+02
   -1.530007   15.99995  0.0000E+00  0.4137E-05  0.1149E-07  0.4502E-03  0.2689E-04  0.5087E+02
   -1.572505   16.00055  0.0000E+00  0.4038E-05  0.1454E-07  0.5003E-03  0.2117E-04  0.7315E+02
   -1.615003   16.00110  0.0000E+00  0.3635E-05  0.3044E-07  0.1863E-03  0.1796E-04 -0.1318E+08
   -1.657501   16.00469  0.0000E+00  0.2347E-05  0.1003E-06  0.5382E-04  0.1136E-04 -0.3941E+05
   -1.699998   16.01038  0.0000E+00  0.0000E+00  0.0000E+00  0.0000E+00  0.1341E-04  0.0000E+00
