 1 - depth, m
 2 - temperature, C
 3 - salinity, kg/kg
 4 - turbulent kinetic energy, m**2/s**2
 5 - dissipation rate, m**2/s**3
 6 - kinematic heat conductance, m**2/s
 7 - modulus of horizontal velocity, m/s
 8 - Richardson number, n/d
   -0.000000    8.75491  0.0000E+00  0.1989E-04  0.2614E-05  0.2141E-04  0.2408E-01 -0.4336E-01
   -0.042497    8.78469  0.0000E+00  0.1236E-04  0.6798E-06  0.3791E-04  0.1068E-01 -0.1580E+00
   -0.084995    8.79674  0.0000E+00  0.8922E-05  0.2743E-06  0.6444E-04  0.6970E-02  0.3823E+02
   -0.127493    8.80485  0.0000E+00  0.6801E-05  0.1321E-06  0.8788E-04  0.4793E-02  0.3683E+03
   -0.169992    8.81123  0.0000E+00  0.5410E-05  0.7143E-07  0.1121E-03  0.3347E-02  0.1825E+02
   -0.212491    8.81654  0.0000E+00  0.4466E-05  0.4201E-07  0.1350E-03  0.2348E-02  0.3108E+02
   -0.254990    8.82100  0.0000E+00  0.3846E-05  0.2667E-07  0.1616E-03  0.1672E-02  0.1024E+02
   -0.297489    8.82463  0.0000E+00  0.3467E-05  0.1828E-07  0.1945E-03  0.1229E-02  0.2057E+03
   -0.339989    8.82742  0.0000E+00  0.3261E-05  0.1374E-07  0.2577E-03  0.9375E-03  0.4399E+03
   -0.382489    8.82916  0.0000E+00  0.3171E-05  0.1143E-07  0.3135E-03  0.7542E-03  0.1809E+03
   -0.424989    8.83042  0.0000E+00  0.3132E-05  0.9991E-08  0.3386E-03  0.6490E-03  0.1291E+01
   -0.467490    8.83157  0.0000E+00  0.3114E-05  0.8902E-08  0.3681E-03  0.5535E-03  0.1356E+01
   -0.509990    8.83262  0.0000E+00  0.3112E-05  0.8076E-08  0.3975E-03  0.4707E-03  0.1395E+01
   -0.552491    8.83359  0.0000E+00  0.3119E-05  0.7435E-08  0.4271E-03  0.3984E-03  0.1451E+01
   -0.594992    8.83448  0.0000E+00  0.3132E-05  0.6935E-08  0.4563E-03  0.3352E-03  0.1480E+01
   -0.637493    8.83531  0.0000E+00  0.3148E-05  0.6538E-08  0.4848E-03  0.2812E-03  0.1488E+01
   -0.679994    8.83607  0.0000E+00  0.3167E-05  0.6225E-08  0.5116E-03  0.2374E-03  0.1555E+01
   -0.722496    8.83680  0.0000E+00  0.3186E-05  0.5977E-08  0.5366E-03  0.2023E-03  0.1659E+01
   -0.764997    8.83747  0.0000E+00  0.3205E-05  0.5781E-08  0.5587E-03  0.1749E-03  0.1830E+01
   -0.807498    8.83812  0.0000E+00  0.3224E-05  0.5622E-08  0.5782E-03  0.1539E-03  0.2178E+01
   -0.850000    8.83874  0.0000E+00  0.3243E-05  0.5493E-08  0.5966E-03  0.1367E-03  0.2632E+01
   -0.892501    8.83933  0.0000E+00  0.3262E-05  0.5386E-08  0.6141E-03  0.1220E-03  0.3149E+01
   -0.935002    8.83991  0.0000E+00  0.3280E-05  0.5300E-08  0.6296E-03  0.1093E-03  0.3800E+01
   -0.977504    8.84047  0.0000E+00  0.3297E-05  0.5233E-08  0.6430E-03  0.9810E-04  0.4440E+01
   -1.020005    8.84103  0.0000E+00  0.3313E-05  0.5185E-08  0.6539E-03  0.8819E-04  0.5230E+01
   -1.062506    8.84157  0.0000E+00  0.3326E-05  0.5155E-08  0.6622E-03  0.7920E-04  0.5976E+01
   -1.105007    8.84211  0.0000E+00  0.3338E-05  0.5143E-08  0.6676E-03  0.7105E-04  0.6824E+01
   -1.147508    8.84266  0.0000E+00  0.3347E-05  0.5149E-08  0.6700E-03  0.6344E-04  0.7778E+01
   -1.190009    8.84320  0.0000E+00  0.3353E-05  0.5172E-08  0.6691E-03  0.5620E-04  0.8697E+01
   -1.232510    8.84375  0.0000E+00  0.3357E-05  0.5217E-08  0.6646E-03  0.4934E-04  0.9963E+01
   -1.275010    8.84431  0.0000E+00  0.3358E-05  0.5287E-08  0.6561E-03  0.4315E-04  0.1259E+02
   -1.317510    8.84488  0.0000E+00  0.3355E-05  0.5391E-08  0.6428E-03  0.3756E-04  0.1646E+02
   -1.360010    8.84547  0.0000E+00  0.3349E-05  0.5542E-08  0.6233E-03  0.3256E-04  0.2190E+02
   -1.402510    8.84607  0.0000E+00  0.3338E-05  0.5765E-08  0.5966E-03  0.2816E-04  0.3179E+02
   -1.445010    8.84671  0.0000E+00  0.3322E-05  0.6059E-08  0.5640E-03  0.2413E-04  0.4716E+02
   -1.487509    8.84739  0.0000E+00  0.3302E-05  0.6457E-08  0.5280E-03  0.2024E-04  0.5978E+02
   -1.530008    8.84812  0.0000E+00  0.3271E-05  0.7118E-08  0.4638E-03  0.1650E-04  0.7716E+02
   -1.572506    8.84897  0.0000E+00  0.3211E-05  0.8611E-08  0.4448E-03  0.1307E-04  0.1125E+03
   -1.615004    8.84985  0.0000E+00  0.2990E-05  0.1560E-07  0.2383E-03  0.1075E-04 -0.2027E+07
   -1.657502    8.85341  0.0000E+00  0.1982E-05  0.5642E-07  0.3239E-04  0.7910E-05 -0.6543E+05
   -1.699999    8.86871  0.0000E+00  0.0000E+00  0.0000E+00  0.0000E+00  0.8396E-05  0.0000E+00
