 1 - depth, m
 2 - temperature, C
 3 - salinity, kg/kg
 4 - turbulent kinetic energy, m**2/s**2
 5 - dissipation rate, m**2/s**3
 6 - kinematic heat conductance, m**2/s
 7 - modulus of horizontal velocity, m/s
 8 - Richardson number, n/d
   -0.000000    0.00000  0.0000E+00  0.7241E-12  0.1713E-15  0.1000E-09  0.0000E+00  0.2334E+17
   -0.042496    0.36826  0.0000E+00  0.1133E-11  0.1581E-15  0.1000E-09  0.0000E+00  0.2007E+17
   -0.084993    0.72018  0.0000E+00  0.1931E-11  0.1927E-15  0.1000E-09  0.0000E+00  0.1711E+17
   -0.127490    1.05548  0.0000E+00  0.3211E-11  0.2705E-15  0.1000E-09  0.0000E+00  0.1429E+17
   -0.169987    1.36999  0.0000E+00  0.5169E-11  0.4009E-15  0.1000E-09  0.0000E+00  0.1185E+17
   -0.212484    1.66445  0.0000E+00  0.8146E-11  0.6049E-15  0.1000E-09  0.0000E+00  0.9771E+16
   -0.254982    1.94018  0.0000E+00  0.1269E-10  0.9181E-15  0.1000E-09  0.0000E+00  0.7983E+16
   -0.297481    2.19793  0.0000E+00  0.1963E-10  0.1396E-14  0.1000E-09  0.0000E+00  0.6415E+16
   -0.339979    2.43685  0.0000E+00  0.3005E-10  0.2108E-14  0.1000E-09  0.0000E+00  0.5051E+16
   -0.382478    2.65565  0.0000E+00  0.4574E-10  0.3171E-14  0.1000E-09  0.0000E+00  0.3917E+16
   -0.424977    2.85481  0.0000E+00  0.6922E-10  0.4749E-14  0.1000E-09  0.0000E+00  0.2972E+16
   -0.467476    3.03390  0.0000E+00  0.1043E-09  0.7083E-14  0.1000E-09  0.0000E+00  0.2215E+16
   -0.509975    3.19373  0.0000E+00  0.1568E-09  0.1055E-13  0.1000E-09  0.0000E+00  0.1649E+16
   -0.552475    3.33824  0.0000E+00  0.2359E-09  0.1572E-13  0.1000E-09  0.0000E+00  0.1202E+16
   -0.594975    3.46871  0.0000E+00  0.3548E-09  0.2342E-13  0.1016E-09  0.0000E+00  0.8537E+15
   -0.637474    3.58670  0.0000E+00  0.5379E-09  0.3518E-13  0.1886E-09  0.0000E+00  0.5857E+15
   -0.679974    3.69425  0.0000E+00  0.8204E-09  0.5316E-13  0.4481E-09  0.0000E+00  0.3716E+15
   -0.722474    3.79139  0.0000E+00  0.1258E-08  0.8080E-13  0.1221E-08  0.0000E+00  0.2064E+15
   -0.764975    3.87838  0.0000E+00  0.1939E-08  0.1234E-12  0.4777E-08  0.0000E+00  0.8260E+14
   -0.807475    3.95360  0.0000E+00  0.2850E-08  0.1812E-12  0.8570E-06  0.0000E+00  0.1018E+14
   -0.849975    3.99311  0.0000E+00  0.3153E-08  0.2018E-12  0.1567E-04  0.0000E+00 -0.6303E+11
   -0.892475    3.99378  0.0000E+00  0.3335E-08  0.2159E-12  0.1716E-04  0.0000E+00 -0.6704E+11
   -0.934975    3.99440  0.0000E+00  0.3512E-08  0.2314E-12  0.1840E-04  0.0000E+00 -0.7087E+11
   -0.977475    3.99499  0.0000E+00  0.3685E-08  0.2482E-12  0.1938E-04  0.0000E+00 -0.7541E+11
   -1.019975    3.99556  0.0000E+00  0.3852E-08  0.2666E-12  0.1990E-04  0.0000E+00 -0.8038E+11
   -1.062475    3.99613  0.0000E+00  0.4014E-08  0.2867E-12  0.2020E-04  0.0000E+00 -0.8627E+11
   -1.104975    3.99670  0.0000E+00  0.4171E-08  0.3090E-12  0.2007E-04  0.0000E+00 -0.9269E+11
   -1.147475    3.99727  0.0000E+00  0.4321E-08  0.3336E-12  0.1955E-04  0.0000E+00 -0.9995E+11
   -1.189974    3.99786  0.0000E+00  0.4466E-08  0.3612E-12  0.1907E-04  0.0000E+00 -0.1095E+12
   -1.232474    3.99846  0.0000E+00  0.4612E-08  0.3941E-12  0.1907E-04  0.0000E+00 -0.1242E+12
   -1.274973    3.99911  0.0000E+00  0.4760E-08  0.4339E-12  0.1882E-04  0.0000E+00 -0.1433E+12
   -1.317472    3.99982  0.0000E+00  0.4910E-08  0.4836E-12  0.1803E-04  0.0000E+00 -0.1681E+12
   -1.359971    4.00061  0.0000E+00  0.5065E-08  0.5484E-12  0.1705E-04  0.0000E+00 -0.2049E+12
   -1.402469    4.00151  0.0000E+00  0.5227E-08  0.6381E-12  0.1516E-04  0.0000E+00 -0.2578E+12
   -1.444967    4.00256  0.0000E+00  0.5383E-08  0.7560E-12  0.1273E-04  0.0000E+00 -0.3306E+12
   -1.487465    4.00382  0.0000E+00  0.5544E-08  0.9226E-12  0.1047E-04  0.0000E+00 -0.4504E+12
   -1.529963    4.00540  0.0000E+00  0.5752E-08  0.1216E-11  0.8855E-05  0.0000E+00 -0.7419E+12
   -1.572460    4.00775  0.0000E+00  0.6074E-08  0.1893E-11  0.7692E-05  0.0000E+00 -0.1776E+13
   -1.614957    4.01250  0.0000E+00  0.6421E-08  0.4326E-11  0.3140E-05  0.0000E+00 -0.7540E+13
   -1.657453    4.02687  0.0000E+00  0.6164E-08  0.1248E-10  0.8410E-06  0.0000E+00 -0.6010E+14
   -1.699950    4.08286  0.0000E+00  0.0000E+00  0.0000E+00  0.0000E+00  0.0000E+00  0.0000E+00
