 1 - depth, m
 2 - temperature, C
 3 - salinity, kg/kg
 4 - turbulent kinetic energy, m**2/s**2
 5 - dissipation rate, m**2/s**3
 6 - kinematic heat conductance, m**2/s
 7 - modulus of horizontal velocity, m/s
 8 - Richardson number, n/d
   -0.000000   14.30607  0.0000E+00  0.6997E-03  0.1056E-01  0.1114E-03  0.3096E+00  0.1590E-01
   -0.042498   14.39731  0.0000E+00  0.3615E-03  0.7246E-02  0.2472E-03  0.6701E-01 -0.1714E-01
   -0.084996   14.41648  0.0000E+00  0.2516E-03  0.5679E-02  0.2254E-03  0.4109E-01 -0.3863E-01
   -0.127495   14.42864  0.0000E+00  0.1909E-03  0.4434E-02  0.1988E-03  0.3257E-01 -0.4298E+00
   -0.169994   14.43730  0.0000E+00  0.1477E-03  0.3430E-02  0.1824E-03  0.2665E-01 -0.4402E-01
   -0.212493   14.44417  0.0000E+00  0.1149E-03  0.2631E-02  0.1789E-03  0.2171E-01  0.7543E+00
   -0.254993   14.45125  0.0000E+00  0.9028E-04  0.1990E-02  0.1819E-03  0.1785E-01  0.3891E+01
   -0.297493   14.45719  0.0000E+00  0.7173E-04  0.1454E-02  0.1884E-03  0.1507E-01  0.2982E+02
   -0.339993   14.46211  0.0000E+00  0.5790E-04  0.1001E-02  0.1963E-03  0.1289E-01  0.1580E+02
   -0.382494   14.46646  0.0000E+00  0.4704E-04  0.6241E-03  0.2091E-03  0.1096E-01  0.1856E+03
   -0.424994   14.47017  0.0000E+00  0.3838E-04  0.3335E-03  0.2242E-03  0.9494E-02  0.1791E+03
   -0.467495   14.47363  0.0000E+00  0.3155E-04  0.1421E-03  0.2459E-03  0.8124E-02  0.2173E+03
   -0.509996   14.47671  0.0000E+00  0.2641E-04  0.4530E-04  0.2727E-03  0.6912E-02  0.3702E+02
   -0.552498   14.47943  0.0000E+00  0.2278E-04  0.1088E-04  0.3080E-03  0.5864E-02  0.3215E+02
   -0.594999   14.48174  0.0000E+00  0.2019E-04  0.2327E-05  0.3490E-03  0.4936E-02  0.2358E+03
   -0.637501   14.48376  0.0000E+00  0.1817E-04  0.6359E-06  0.3938E-03  0.4149E-02  0.2912E+03
   -0.680003   14.48547  0.0000E+00  0.1650E-04  0.2926E-06  0.4341E-03  0.3513E-02  0.5535E+03
   -0.722504   14.48696  0.0000E+00  0.1509E-04  0.1922E-06  0.4791E-03  0.2980E-02  0.1160E+02
   -0.765006   14.48828  0.0000E+00  0.1387E-04  0.1449E-06  0.5269E-03  0.2544E-02  0.1926E+03
   -0.807508   14.48940  0.0000E+00  0.1282E-04  0.1148E-06  0.5676E-03  0.2198E-02  0.3509E+02
   -0.850010   14.49043  0.0000E+00  0.1193E-04  0.9440E-07  0.6025E-03  0.1910E-02  0.6427E+02
   -0.892512   14.49135  0.0000E+00  0.1116E-04  0.7872E-07  0.6298E-03  0.1670E-02  0.1958E+02
   -0.935014   14.49222  0.0000E+00  0.1050E-04  0.6652E-07  0.6548E-03  0.1465E-02  0.2638E+03
   -0.977516   14.49304  0.0000E+00  0.9934E-05  0.5694E-07  0.6723E-03  0.1287E-02  0.2122E+02
   -1.020017   14.49382  0.0000E+00  0.9434E-05  0.4927E-07  0.6880E-03  0.1130E-02  0.2783E+02
   -1.062519   14.49456  0.0000E+00  0.8997E-05  0.4317E-07  0.7008E-03  0.9906E-03  0.4439E+02
   -1.105021   14.49527  0.0000E+00  0.8611E-05  0.3832E-07  0.7083E-03  0.8657E-03  0.2147E+02
   -1.147522   14.49596  0.0000E+00  0.8274E-05  0.3456E-07  0.7094E-03  0.7500E-03  0.2496E+02
   -1.190023   14.49663  0.0000E+00  0.7977E-05  0.3171E-07  0.7054E-03  0.6395E-03  0.2845E+02
   -1.232525   14.49730  0.0000E+00  0.7703E-05  0.2953E-07  0.6996E-03  0.5364E-03  0.3349E+02
   -1.275026   14.49796  0.0000E+00  0.7449E-05  0.2796E-07  0.6873E-03  0.4483E-03  0.4390E+02
   -1.317526   14.49863  0.0000E+00  0.7213E-05  0.2698E-07  0.6662E-03  0.3752E-03  0.5959E+02
   -1.360027   14.49931  0.0000E+00  0.6990E-05  0.2659E-07  0.6356E-03  0.3158E-03  0.8297E+02
   -1.402527   14.50003  0.0000E+00  0.6763E-05  0.2697E-07  0.6041E-03  0.2689E-03  0.1262E+03
   -1.445027   14.50078  0.0000E+00  0.6536E-05  0.2874E-07  0.5524E-03  0.2288E-03  0.3596E+03
   -1.487527   14.50168  0.0000E+00  0.6288E-05  0.3261E-07  0.5149E-03  0.1878E-03  0.2656E+03
   -1.530026   14.50268  0.0000E+00  0.5968E-05  0.4219E-07  0.4211E-03  0.1465E-03  0.5274E+03
   -1.572525   14.50441  0.0000E+00  0.5549E-05  0.6426E-07  0.4343E-03  0.1032E-03  0.1991E+05
   -1.615024   14.50505  0.0000E+00  0.4607E-05  0.1682E-06  0.1876E-03  0.8227E-04 -0.1419E+07
   -1.657522   14.51339  0.0000E+00  0.3043E-05  0.4308E-06  0.8870E-04  0.5147E-04 -0.7045E+07
   -1.700020   14.52093  0.0000E+00  0.0000E+00  0.0000E+00  0.0000E+00  0.8139E-04  0.0000E+00
