 1 - depth, m
 2 - temperature, C
 3 - salinity, kg/kg
 4 - turbulent kinetic energy, m**2/s**2
 5 - dissipation rate, m**2/s**3
 6 - kinematic heat conductance, m**2/s
 7 - modulus of horizontal velocity, m/s
 8 - Richardson number, n/d
   -0.000000    0.00000  0.0000E+00  0.3188E-13  0.5206E-16  0.1000E-09  0.0000E+00  0.6831E+16
   -0.042499    0.10392  0.0000E+00  0.3188E-13  0.5206E-16  0.1000E-09  0.0000E+00  0.7186E+16
   -0.084998    0.21654  0.0000E+00  0.3188E-13  0.5206E-16  0.1000E-09  0.0000E+00  0.7424E+16
   -0.127497    0.33678  0.0000E+00  0.3188E-13  0.5206E-16  0.1000E-09  0.0000E+00  0.7273E+16
   -0.169997    0.45881  0.0000E+00  0.3188E-13  0.5206E-16  0.1000E-09  0.0000E+00  0.7088E+16
   -0.212497    0.58219  0.0000E+00  0.3188E-13  0.5206E-16  0.1000E-09  0.0000E+00  0.6877E+16
   -0.254997    0.70661  0.0000E+00  0.3188E-13  0.5206E-16  0.1000E-09  0.0000E+00  0.6647E+16
   -0.297498    0.83178  0.0000E+00  0.3188E-13  0.5206E-16  0.1000E-09  0.0000E+00  0.6405E+16
   -0.339999    0.95756  0.0000E+00  0.3188E-13  0.5206E-16  0.1000E-09  0.0000E+00  0.6157E+16
   -0.382500    1.08387  0.0000E+00  0.3188E-13  0.5206E-16  0.1000E-09  0.0000E+00  0.5897E+16
   -0.425001    1.21051  0.0000E+00  0.3188E-13  0.5206E-16  0.1000E-09  0.0000E+00  0.5635E+16
   -0.467503    1.33744  0.0000E+00  0.3188E-13  0.5206E-16  0.1000E-09  0.0000E+00  0.5366E+16
   -0.510005    1.46453  0.0000E+00  0.3188E-13  0.5206E-16  0.1000E-09  0.0000E+00  0.5099E+16
   -0.552507    1.59179  0.0000E+00  0.3188E-13  0.5206E-16  0.1000E-09  0.0000E+00  0.4830E+16
   -0.595009    1.71920  0.0000E+00  0.3188E-13  0.5206E-16  0.1000E-09  0.0000E+00  0.4560E+16
   -0.637511    1.84672  0.0000E+00  0.3188E-13  0.5206E-16  0.1000E-09  0.0000E+00  0.4287E+16
   -0.680014    1.97422  0.0000E+00  0.3188E-13  0.5206E-16  0.1000E-09  0.0000E+00  0.4012E+16
   -0.722516    2.10162  0.0000E+00  0.3188E-13  0.5206E-16  0.1000E-09  0.0000E+00  0.3733E+16
   -0.765019    2.22872  0.0000E+00  0.3188E-13  0.5206E-16  0.1000E-09  0.0000E+00  0.3449E+16
   -0.807521    2.35520  0.0000E+00  0.3188E-13  0.5206E-16  0.1000E-09  0.0000E+00  0.3162E+16
   -0.850024    2.48073  0.0000E+00  0.7982E-13  0.5206E-16  0.1000E-09  0.0000E+00  0.2873E+16
   -0.892526    2.60489  0.0000E+00  0.2632E-12  0.8237E-16  0.1000E-09  0.0000E+00  0.2605E+16
   -0.935029    2.72825  0.0000E+00  0.6644E-12  0.1752E-15  0.1000E-09  0.0000E+00  0.2348E+16
   -0.977532    2.85112  0.0000E+00  0.1531E-11  0.3823E-15  0.1000E-09  0.0000E+00  0.2090E+16
   -1.020034    2.97324  0.0000E+00  0.3403E-11  0.8240E-15  0.1000E-09  0.0000E+00  0.1830E+16
   -1.062536    3.09404  0.0000E+00  0.7436E-11  0.1755E-14  0.1000E-09  0.0000E+00  0.1575E+16
   -1.105039    3.21318  0.0000E+00  0.1607E-10  0.3701E-14  0.1000E-09  0.0000E+00  0.1324E+16
   -1.147541    3.33010  0.0000E+00  0.3409E-10  0.7670E-14  0.1000E-09  0.0000E+00  0.1083E+16
   -1.190043    3.44444  0.0000E+00  0.7163E-10  0.1575E-13  0.1000E-09  0.0000E+00  0.8569E+15
   -1.232545    3.55611  0.0000E+00  0.1533E-09  0.3290E-13  0.1613E-09  0.0000E+00  0.6436E+15
   -1.275046    3.66476  0.0000E+00  0.3309E-09  0.6942E-13  0.4861E-09  0.0000E+00  0.4512E+15
   -1.317548    3.77173  0.0000E+00  0.7178E-09  0.1473E-12  0.1675E-08  0.0000E+00  0.2790E+15
   -1.360049    3.88365  0.0000E+00  0.1560E-08  0.3134E-12  0.1234E-07  0.0000E+00  0.8221E+14
   -1.402550    3.99616  0.0000E+00  0.2544E-08  0.5132E-12  0.4552E-05  0.0000E+00 -0.6982E+12
   -1.445051    4.00012  0.0000E+00  0.3070E-08  0.6562E-12  0.5212E-05  0.0000E+00 -0.7918E+12
   -1.487551    4.00344  0.0000E+00  0.3505E-08  0.8255E-12  0.5274E-05  0.0000E+00 -0.9516E+12
   -1.530051    4.00671  0.0000E+00  0.3930E-08  0.1087E-11  0.5188E-05  0.0000E+00 -0.1331E+13
   -1.572551    4.01054  0.0000E+00  0.4407E-08  0.1612E-11  0.5128E-05  0.0000E+00 -0.2487E+13
   -1.615050    4.01640  0.0000E+00  0.4763E-08  0.3074E-11  0.2624E-05  0.0000E+00 -0.7145E+13
   -1.657549    4.02895  0.0000E+00  0.4135E-08  0.7346E-11  0.6038E-06  0.0000E+00 -0.4396E+14
   -1.700048    4.07254  0.0000E+00  0.0000E+00  0.0000E+00  0.0000E+00  0.0000E+00  0.0000E+00
