 1 - depth, m
 2 - temperature, C
 3 - salinity, kg/kg
 4 - turbulent kinetic energy, m**2/s**2
 5 - dissipation rate, m**2/s**3
 6 - kinematic heat conductance, m**2/s
 7 - modulus of horizontal velocity, m/s
 8 - Richardson number, n/d
   -0.000000    0.00000  0.0000E+00  0.4454E-04  0.8126E-05  0.2983E-04  0.4899E-01  0.1059E-01
   -0.042497    0.01130  0.0000E+00  0.2538E-04  0.2043E-05  0.3865E-04  0.2038E-01  0.5176E-02
   -0.084994    0.01739  0.0000E+00  0.1701E-04  0.7710E-06  0.4368E-04  0.1395E-01  0.1178E-01
   -0.127491    0.02255  0.0000E+00  0.1168E-04  0.3368E-06  0.4458E-04  0.9988E-02  0.2054E-01
   -0.169989    0.02726  0.0000E+00  0.8039E-05  0.1603E-06  0.4193E-04  0.7164E-02  0.3393E-01
   -0.212487    0.03184  0.0000E+00  0.5393E-05  0.7892E-07  0.3694E-04  0.5049E-02  0.6248E-01
   -0.254986    0.03642  0.0000E+00  0.3470E-05  0.3879E-07  0.3043E-04  0.3515E-02  0.1443E+00
   -0.297485    0.04110  0.0000E+00  0.2139E-05  0.1887E-07  0.2268E-04  0.2467E-02  0.4616E+00
   -0.339984    0.04629  0.0000E+00  0.1248E-05  0.9015E-08  0.1436E-04  0.1738E-02  0.8318E+00
   -0.382483    0.05312  0.0000E+00  0.6325E-06  0.3907E-08  0.6671E-05  0.1174E-02  0.5963E+01
   -0.424983    0.06629  0.0000E+00  0.2128E-06  0.1242E-08  0.1173E-05  0.7671E-03  0.3479E+02
   -0.467482    0.18510  0.0000E+00  0.3521E-07  0.2010E-09  0.5206E-07  0.3089E-03  0.6080E+03
   -0.509982    0.42751  0.0000E+00  0.3302E-08  0.1688E-10  0.3097E-08  0.6896E-04  0.1420E+05
   -0.552483    0.71109  0.0000E+00  0.4234E-08  0.4066E-11  0.6928E-09  0.1273E-04  0.3841E+06
   -0.594983    1.03842  0.0000E+00  0.1528E-07  0.5791E-11  0.9538E-09  0.1907E-05  0.1635E+08
   -0.637483    1.44201  0.0000E+00  0.4226E-07  0.1333E-10  0.2231E-08  0.2199E-06  0.1198E+10
   -0.679984    1.95256  0.0000E+00  0.1048E-06  0.3138E-10  0.1011E-07  0.2386E-07  0.9253E+11
   -0.722484    2.60635  0.0000E+00  0.1743E-06  0.5217E-10  0.6257E-04  0.1667E-08  0.8507E+13
   -0.764985    3.17197  0.0000E+00  0.2309E-06  0.6950E-10  0.1478E-03  0.2843E-09  0.6940E+15
   -0.807486    3.58719  0.0000E+00  0.2760E-06  0.8345E-10  0.2150E-03  0.1782E-09  0.2668E+16
   -0.849987    3.88648  0.0000E+00  0.3090E-06  0.9377E-10  0.2692E-03  0.1495E-09  0.1417E+16
   -0.892487    4.07880  0.0000E+00  0.3242E-06  0.9877E-10  0.3144E-03  0.1303E-09  0.1813E+15
   -0.934988    4.14201  0.0000E+00  0.3265E-06  0.9998E-10  0.3385E-03  0.1143E-09 -0.1255E+13
   -0.977489    4.14276  0.0000E+00  0.3285E-06  0.1013E-09  0.3377E-03  0.1003E-09 -0.1340E+13
   -1.019989    4.14352  0.0000E+00  0.3303E-06  0.1027E-09  0.3366E-03  0.8814E-10 -0.1374E+13
   -1.062490    4.14428  0.0000E+00  0.3320E-06  0.1043E-09  0.3345E-03  0.7723E-10 -0.1422E+13
   -1.104990    4.14506  0.0000E+00  0.3334E-06  0.1061E-09  0.3316E-03  0.6740E-10 -0.1468E+13
   -1.147490    4.14584  0.0000E+00  0.3347E-06  0.1081E-09  0.3280E-03  0.5828E-10 -0.1528E+13
   -1.189991    4.14663  0.0000E+00  0.3357E-06  0.1103E-09  0.3232E-03  0.4959E-10 -0.1607E+13
   -1.232491    4.14745  0.0000E+00  0.3366E-06  0.1128E-09  0.3171E-03  0.4146E-10 -0.1717E+13
   -1.274990    4.14829  0.0000E+00  0.3372E-06  0.1158E-09  0.3097E-03  0.3434E-10 -0.1815E+13
   -1.317490    4.14917  0.0000E+00  0.3377E-06  0.1196E-09  0.3005E-03  0.2817E-10 -0.1895E+13
   -1.359989    4.15007  0.0000E+00  0.3378E-06  0.1245E-09  0.2889E-03  0.2291E-10 -0.2035E+13
   -1.402488    4.15101  0.0000E+00  0.3377E-06  0.1309E-09  0.2805E-03  0.1859E-10 -0.2159E+13
   -1.444987    4.15198  0.0000E+00  0.3373E-06  0.1388E-09  0.2606E-03  0.1491E-10 -0.2414E+13
   -1.487486    4.15303  0.0000E+00  0.3364E-06  0.1487E-09  0.2434E-03  0.1150E-10 -0.2624E+13
   -1.529984    4.15415  0.0000E+00  0.3350E-06  0.1641E-09  0.2206E-03  0.8376E-11 -0.3000E+13
   -1.572482    4.15539  0.0000E+00  0.3317E-06  0.1974E-09  0.1825E-03  0.5806E-11 -0.3829E+13
   -1.614979    4.15694  0.0000E+00  0.3207E-06  0.3158E-09  0.1222E-03  0.4132E-11 -0.6008E+13
   -1.657476    4.15935  0.0000E+00  0.2321E-06  0.1486E-08  0.5292E-05  0.2691E-11 -0.1710E+15
   -1.699973    4.21414  0.0000E+00  0.0000E+00  0.0000E+00  0.0000E+00  0.2697E-11  0.0000E+00
