 1 - depth, m
 2 - temperature, C
 3 - salinity, kg/kg
 4 - turbulent kinetic energy, m**2/s**2
 5 - dissipation rate, m**2/s**3
 6 - kinematic heat conductance, m**2/s
 7 - modulus of horizontal velocity, m/s
 8 - Richardson number, n/d
   -0.000000    0.00000  0.0000E+00  0.4492E-11  0.1629E-14  0.1000E-09  0.0000E+00  0.1902E+17
   -0.042497    0.29715  0.0000E+00  0.8462E-11  0.1408E-14  0.1000E-09  0.0000E+00  0.1749E+17
   -0.084994    0.59481  0.0000E+00  0.1602E-10  0.1705E-14  0.1000E-09  0.0000E+00  0.1590E+17
   -0.127492    0.89168  0.0000E+00  0.2803E-10  0.2420E-14  0.1000E-09  0.0000E+00  0.1392E+17
   -0.169990    1.17872  0.0000E+00  0.4642E-10  0.3631E-14  0.1000E-09  0.0000E+00  0.1209E+17
   -0.212488    1.45565  0.0000E+00  0.7445E-10  0.5532E-14  0.1000E-09  0.0000E+00  0.1041E+17
   -0.254987    1.72240  0.0000E+00  0.1174E-09  0.8448E-14  0.1000E-09  0.0000E+00  0.8877E+16
   -0.297486    1.97877  0.0000E+00  0.1831E-09  0.1288E-13  0.1000E-09  0.0000E+00  0.7476E+16
   -0.339985    2.22444  0.0000E+00  0.2818E-09  0.1945E-13  0.1000E-09  0.0000E+00  0.6207E+16
   -0.382485    2.45914  0.0000E+00  0.4300E-09  0.2916E-13  0.1000E-09  0.0000E+00  0.5071E+16
   -0.424984    2.68273  0.0000E+00  0.6504E-09  0.4338E-13  0.1000E-09  0.0000E+00  0.4064E+16
   -0.467484    2.89533  0.0000E+00  0.9765E-09  0.6408E-13  0.1000E-09  0.0000E+00  0.3175E+16
   -0.509984    3.09678  0.0000E+00  0.1459E-08  0.9421E-13  0.1252E-09  0.0000E+00  0.2437E+16
   -0.552485    3.29062  0.0000E+00  0.2172E-08  0.1381E-12  0.2447E-09  0.0000E+00  0.1778E+16
   -0.594985    3.47720  0.0000E+00  0.3224E-08  0.2017E-12  0.5357E-09  0.0000E+00  0.1188E+16
   -0.637486    3.65680  0.0000E+00  0.4805E-08  0.2958E-12  0.1416E-08  0.0000E+00  0.6612E+15
   -0.679986    3.82981  0.0000E+00  0.7160E-08  0.4339E-12  0.7267E-08  0.0000E+00  0.1921E+15
   -0.722487    3.99088  0.0000E+00  0.7500E-08  0.4552E-12  0.3682E-04  0.0000E+00 -0.4592E+11
   -0.764988    3.99168  0.0000E+00  0.7680E-08  0.4681E-12  0.4102E-04  0.0000E+00 -0.5049E+11
   -0.807489    3.99235  0.0000E+00  0.7856E-08  0.4821E-12  0.4397E-04  0.0000E+00 -0.5354E+11
   -0.849990    3.99294  0.0000E+00  0.8025E-08  0.4970E-12  0.4632E-04  0.0000E+00 -0.5608E+11
   -0.892491    3.99350  0.0000E+00  0.8189E-08  0.5129E-12  0.4824E-04  0.0000E+00 -0.5855E+11
   -0.934992    3.99402  0.0000E+00  0.8345E-08  0.5297E-12  0.4949E-04  0.0000E+00 -0.6127E+11
   -0.977492    3.99453  0.0000E+00  0.8492E-08  0.5472E-12  0.4990E-04  0.0000E+00 -0.6510E+11
   -1.019993    3.99503  0.0000E+00  0.8632E-08  0.5658E-12  0.4992E-04  0.0000E+00 -0.6904E+11
   -1.062494    3.99554  0.0000E+00  0.8766E-08  0.5858E-12  0.4982E-04  0.0000E+00 -0.7316E+11
   -1.104995    3.99604  0.0000E+00  0.8894E-08  0.6074E-12  0.4954E-04  0.0000E+00 -0.7701E+11
   -1.147495    3.99654  0.0000E+00  0.9012E-08  0.6303E-12  0.4911E-04  0.0000E+00 -0.8060E+11
   -1.189995    3.99704  0.0000E+00  0.9120E-08  0.6548E-12  0.4850E-04  0.0000E+00 -0.8510E+11
   -1.232495    3.99754  0.0000E+00  0.9222E-08  0.6825E-12  0.4778E-04  0.0000E+00 -0.9226E+11
   -1.274995    3.99806  0.0000E+00  0.9321E-08  0.7151E-12  0.4681E-04  0.0000E+00 -0.1009E+12
   -1.317495    3.99861  0.0000E+00  0.9415E-08  0.7543E-12  0.4553E-04  0.0000E+00 -0.1111E+12
   -1.359995    3.99918  0.0000E+00  0.9505E-08  0.8033E-12  0.4385E-04  0.0000E+00 -0.1250E+12
   -1.402494    3.99979  0.0000E+00  0.9590E-08  0.8673E-12  0.4160E-04  0.0000E+00 -0.1406E+12
   -1.444993    4.00044  0.0000E+00  0.9659E-08  0.9441E-12  0.3893E-04  0.0000E+00 -0.1562E+12
   -1.487491    4.00114  0.0000E+00  0.9712E-08  0.1042E-11  0.3574E-04  0.0000E+00 -0.1794E+12
   -1.529990    4.00190  0.0000E+00  0.9750E-08  0.1202E-11  0.3153E-04  0.0000E+00 -0.2394E+12
   -1.572488    4.00285  0.0000E+00  0.9755E-08  0.1562E-11  0.2568E-04  0.0000E+00 -0.4441E+12
   -1.614986    4.00450  0.0000E+00  0.9466E-08  0.3135E-11  0.8877E-05  0.0000E+00 -0.1782E+13
   -1.657483    4.00993  0.0000E+00  0.7364E-08  0.1211E-10  0.9574E-06  0.0000E+00 -0.3111E+14
   -1.699980    4.05356  0.0000E+00  0.0000E+00  0.0000E+00  0.0000E+00  0.0000E+00  0.0000E+00
