 1 - depth, m
 2 - temperature, C
 3 - salinity, kg/kg
 4 - turbulent kinetic energy, m**2/s**2
 5 - dissipation rate, m**2/s**3
 6 - kinematic heat conductance, m**2/s
 7 - modulus of horizontal velocity, m/s
 8 - Richardson number, n/d
   -0.000000   11.42371  0.0000E+00  0.8075E-04  0.2186E-04  0.4571E-04  0.7151E-01 -0.6008E-02
   -0.042497   11.47740  0.0000E+00  0.4443E-04  0.6135E-05  0.6269E-04  0.2221E-01 -0.3251E-01
   -0.084995   11.49017  0.0000E+00  0.3113E-04  0.2682E-05  0.6444E-04  0.1515E-01 -0.3946E-01
   -0.127493   11.50000  0.0000E+00  0.2271E-04  0.1317E-05  0.6816E-04  0.1121E-01 -0.6853E-01
   -0.169992   11.50845  0.0000E+00  0.1693E-04  0.6907E-06  0.7320E-04  0.8405E-02 -0.1076E+00
   -0.212491   11.51611  0.0000E+00  0.1284E-04  0.3791E-06  0.8105E-04  0.6279E-02  0.7900E+00
   -0.254990   11.52300  0.0000E+00  0.9978E-05  0.2157E-06  0.9409E-04  0.4710E-02  0.8742E+00
   -0.297489   11.52898  0.0000E+00  0.8052E-05  0.1274E-06  0.1273E-03  0.3598E-02  0.4610E+02
   -0.339989   11.53370  0.0000E+00  0.6843E-05  0.8005E-07  0.1949E-03  0.2815E-02  0.8869E+02
   -0.382489   11.53707  0.0000E+00  0.6088E-05  0.5392E-07  0.2473E-03  0.2273E-02  0.7192E+02
   -0.424989   11.53960  0.0000E+00  0.5616E-05  0.3900E-07  0.2896E-03  0.1881E-02  0.1365E+03
   -0.467490   11.54162  0.0000E+00  0.5316E-05  0.3001E-07  0.3282E-03  0.1564E-02  0.9465E+01
   -0.509990   11.54330  0.0000E+00  0.5126E-05  0.2431E-07  0.3676E-03  0.1297E-02  0.1271E+02
   -0.552491   11.54471  0.0000E+00  0.5006E-05  0.2050E-07  0.4079E-03  0.1072E-02  0.4875E+01
   -0.594992   11.54592  0.0000E+00  0.4931E-05  0.1786E-07  0.4487E-03  0.8784E-03  0.4287E+01
   -0.637493   11.54698  0.0000E+00  0.4883E-05  0.1590E-07  0.4888E-03  0.7163E-03  0.6128E+01
   -0.679994   11.54793  0.0000E+00  0.4852E-05  0.1441E-07  0.5276E-03  0.5860E-03  0.6535E+01
   -0.722495   11.54879  0.0000E+00  0.4831E-05  0.1326E-07  0.5643E-03  0.4826E-03  0.1324E+01
   -0.764997   11.54959  0.0000E+00  0.4816E-05  0.1237E-07  0.5979E-03  0.4030E-03  0.1210E+01
   -0.807498   11.55034  0.0000E+00  0.4805E-05  0.1165E-07  0.6268E-03  0.3435E-03  0.1159E+01
   -0.849999   11.55105  0.0000E+00  0.4794E-05  0.1110E-07  0.6512E-03  0.2976E-03  0.1130E+01
   -0.892501   11.55173  0.0000E+00  0.4784E-05  0.1065E-07  0.6716E-03  0.2616E-03  0.1124E+01
   -0.935002   11.55237  0.0000E+00  0.4773E-05  0.1029E-07  0.6884E-03  0.2325E-03  0.1192E+01
   -0.977504   11.55299  0.0000E+00  0.4760E-05  0.1000E-07  0.7021E-03  0.2081E-03  0.1274E+01
   -1.020005   11.55359  0.0000E+00  0.4745E-05  0.9769E-08  0.7130E-03  0.1872E-03  0.1417E+01
   -1.062506   11.55416  0.0000E+00  0.4729E-05  0.9582E-08  0.7207E-03  0.1687E-03  0.1545E+01
   -1.105007   11.55472  0.0000E+00  0.4709E-05  0.9439E-08  0.7253E-03  0.1520E-03  0.1702E+01
   -1.147508   11.55526  0.0000E+00  0.4688E-05  0.9341E-08  0.7264E-03  0.1365E-03  0.1869E+01
   -1.190009   11.55579  0.0000E+00  0.4665E-05  0.9289E-08  0.7236E-03  0.1216E-03  0.2031E+01
   -1.232509   11.55630  0.0000E+00  0.4640E-05  0.9284E-08  0.7164E-03  0.1076E-03  0.2264E+01
   -1.275010   11.55681  0.0000E+00  0.4611E-05  0.9334E-08  0.7042E-03  0.9489E-04  0.2810E+01
   -1.317510   11.55732  0.0000E+00  0.4577E-05  0.9453E-08  0.6860E-03  0.8331E-04  0.3607E+01
   -1.360010   11.55784  0.0000E+00  0.4536E-05  0.9668E-08  0.6602E-03  0.7282E-04  0.4733E+01
   -1.402510   11.55837  0.0000E+00  0.4487E-05  0.1003E-07  0.6257E-03  0.6346E-04  0.6747E+01
   -1.445009   11.55892  0.0000E+00  0.4433E-05  0.1055E-07  0.5823E-03  0.5476E-04  0.9873E+01
   -1.487508   11.55950  0.0000E+00  0.4375E-05  0.1131E-07  0.5428E-03  0.4623E-04  0.1236E+02
   -1.530007   11.56010  0.0000E+00  0.4302E-05  0.1267E-07  0.4481E-03  0.3794E-04  0.1638E+02
   -1.572506   11.56084  0.0000E+00  0.4182E-05  0.1590E-07  0.5039E-03  0.2983E-04  0.2112E+02
   -1.615004   11.56147  0.0000E+00  0.3716E-05  0.3295E-07  0.1836E-03  0.2527E-04 -0.1206E+07
   -1.657502   11.56607  0.0000E+00  0.2362E-05  0.1061E-06  0.5730E-04  0.1585E-04 -0.5404E+04
   -1.699999   11.57147  0.0000E+00  0.0000E+00  0.0000E+00  0.0000E+00  0.1896E-04  0.0000E+00
