 1 - depth, m
 2 - temperature, C
 3 - salinity, kg/kg
 4 - turbulent kinetic energy, m**2/s**2
 5 - dissipation rate, m**2/s**3
 6 - kinematic heat conductance, m**2/s
 7 - modulus of horizontal velocity, m/s
 8 - Richardson number, n/d
   -0.000000    0.00000  0.0000E+00  0.3189E-13  0.5206E-16  0.1000E-09  0.0000E+00  0.6363E+16
   -0.042498    0.09671  0.0000E+00  0.3189E-13  0.5206E-16  0.1000E-09  0.0000E+00  0.6565E+16
   -0.084996    0.19925  0.0000E+00  0.3189E-13  0.5206E-16  0.1000E-09  0.0000E+00  0.6751E+16
   -0.127494    0.30787  0.0000E+00  0.3189E-13  0.5206E-16  0.1000E-09  0.0000E+00  0.6630E+16
   -0.169993    0.41797  0.0000E+00  0.3189E-13  0.5206E-16  0.1000E-09  0.0000E+00  0.6514E+16
   -0.212492    0.52977  0.0000E+00  0.3189E-13  0.5206E-16  0.1000E-09  0.0000E+00  0.6390E+16
   -0.254991    0.64330  0.0000E+00  0.3189E-13  0.5206E-16  0.1000E-09  0.0000E+00  0.6256E+16
   -0.297491    0.75854  0.0000E+00  0.3189E-13  0.5206E-16  0.1000E-09  0.0000E+00  0.6115E+16
   -0.339991    0.87554  0.0000E+00  0.3189E-13  0.5206E-16  0.1000E-09  0.0000E+00  0.5969E+16
   -0.382491    0.99439  0.0000E+00  0.3189E-13  0.5206E-16  0.1000E-09  0.0000E+00  0.5809E+16
   -0.424991    1.11502  0.0000E+00  0.3189E-13  0.5206E-16  0.1000E-09  0.0000E+00  0.5638E+16
   -0.467492    1.23741  0.0000E+00  0.3189E-13  0.5206E-16  0.1000E-09  0.0000E+00  0.5452E+16
   -0.509993    1.36145  0.0000E+00  0.3189E-13  0.5206E-16  0.1000E-09  0.0000E+00  0.5243E+16
   -0.552494    1.48679  0.0000E+00  0.3189E-13  0.5206E-16  0.1000E-09  0.0000E+00  0.5018E+16
   -0.594995    1.61322  0.0000E+00  0.3189E-13  0.5206E-16  0.1000E-09  0.0000E+00  0.4777E+16
   -0.637496    1.74045  0.0000E+00  0.3189E-13  0.5206E-16  0.1000E-09  0.0000E+00  0.4519E+16
   -0.679998    1.86811  0.0000E+00  0.3189E-13  0.5206E-16  0.1000E-09  0.0000E+00  0.4249E+16
   -0.722499    1.99585  0.0000E+00  0.3189E-13  0.5206E-16  0.1000E-09  0.0000E+00  0.3966E+16
   -0.765001    2.12324  0.0000E+00  0.3189E-13  0.5206E-16  0.1000E-09  0.0000E+00  0.3673E+16
   -0.807502    2.24982  0.0000E+00  0.3189E-13  0.5206E-16  0.1000E-09  0.0000E+00  0.3378E+16
   -0.850004    2.37524  0.0000E+00  0.3189E-13  0.5206E-16  0.1000E-09  0.0000E+00  0.3082E+16
   -0.892505    2.49915  0.0000E+00  0.3189E-13  0.5206E-16  0.1000E-09  0.0000E+00  0.2812E+16
   -0.935007    2.62224  0.0000E+00  0.1305E-12  0.5879E-16  0.1000E-09  0.0000E+00  0.2557E+16
   -0.977509    2.74497  0.0000E+00  0.3830E-12  0.1290E-15  0.1000E-09  0.0000E+00  0.2302E+16
   -1.020010    2.86718  0.0000E+00  0.9732E-12  0.3048E-15  0.1000E-09  0.0000E+00  0.2045E+16
   -1.062511    2.98845  0.0000E+00  0.2358E-11  0.7132E-15  0.1000E-09  0.0000E+00  0.1791E+16
   -1.105013    3.10853  0.0000E+00  0.5600E-11  0.1647E-14  0.1000E-09  0.0000E+00  0.1538E+16
   -1.147514    3.22690  0.0000E+00  0.1301E-10  0.3730E-14  0.1000E-09  0.0000E+00  0.1291E+16
   -1.190015    3.34314  0.0000E+00  0.2989E-10  0.8350E-14  0.1000E-09  0.0000E+00  0.1055E+16
   -1.232516    3.45699  0.0000E+00  0.6991E-10  0.1903E-13  0.1000E-09  0.0000E+00  0.8298E+15
   -1.275016    3.56794  0.0000E+00  0.1647E-09  0.4370E-13  0.2189E-09  0.0000E+00  0.6263E+15
   -1.317517    3.67723  0.0000E+00  0.3891E-09  0.1008E-12  0.6981E-09  0.0000E+00  0.4523E+15
   -1.360017    3.79131  0.0000E+00  0.9242E-09  0.2337E-12  0.2878E-08  0.0000E+00  0.2537E+15
   -1.402517    3.91078  0.0000E+00  0.2170E-08  0.5374E-12  0.3990E-07  0.0000E+00  0.4075E+14
   -1.445017    4.00880  0.0000E+00  0.3486E-08  0.8707E-12  0.5650E-05  0.0000E+00 -0.1138E+13
   -1.487516    4.01182  0.0000E+00  0.4095E-08  0.1089E-11  0.5807E-05  0.0000E+00 -0.1250E+13
   -1.530015    4.01478  0.0000E+00  0.4635E-08  0.1400E-11  0.5814E-05  0.0000E+00 -0.1615E+13
   -1.572514    4.01820  0.0000E+00  0.5185E-08  0.1993E-11  0.5875E-05  0.0000E+00 -0.2766E+13
   -1.615012    4.02332  0.0000E+00  0.5520E-08  0.3570E-11  0.3065E-05  0.0000E+00 -0.7203E+13
   -1.657510    4.03416  0.0000E+00  0.4630E-08  0.8293E-11  0.6521E-06  0.0000E+00 -0.4364E+14
   -1.700008    4.07501  0.0000E+00  0.0000E+00  0.0000E+00  0.0000E+00  0.0000E+00  0.0000E+00
