 1 - depth, m
 2 - temperature, C
 3 - salinity, kg/kg
 4 - turbulent kinetic energy, m**2/s**2
 5 - dissipation rate, m**2/s**3
 6 - kinematic heat conductance, m**2/s
 7 - modulus of horizontal velocity, m/s
 8 - Richardson number, n/d
   -0.000000    0.00000  0.0000E+00  0.3189E-13  0.5207E-16  0.1000E-09  0.0000E+00  0.1752E+17
   -0.042497    0.27272  0.0000E+00  0.4313E-13  0.5207E-16  0.1000E-09  0.0000E+00  0.1645E+17
   -0.084995    0.54978  0.0000E+00  0.1294E-12  0.5207E-16  0.1000E-09  0.0000E+00  0.1520E+17
   -0.127493    0.82880  0.0000E+00  0.3441E-12  0.5427E-16  0.1000E-09  0.0000E+00  0.1356E+17
   -0.169991    1.10164  0.0000E+00  0.6964E-12  0.7241E-16  0.1000E-09  0.0000E+00  0.1196E+17
   -0.212489    1.36689  0.0000E+00  0.1237E-11  0.1086E-15  0.1000E-09  0.0000E+00  0.1043E+17
   -0.254988    1.62366  0.0000E+00  0.2065E-11  0.1682E-15  0.1000E-09  0.0000E+00  0.8991E+16
   -0.297488    1.87093  0.0000E+00  0.3346E-11  0.2624E-15  0.1000E-09  0.0000E+00  0.7622E+16
   -0.339987    2.10684  0.0000E+00  0.5299E-11  0.4062E-15  0.1000E-09  0.0000E+00  0.6338E+16
   -0.382487    2.32929  0.0000E+00  0.8296E-11  0.6255E-15  0.1000E-09  0.0000E+00  0.5190E+16
   -0.424987    2.53739  0.0000E+00  0.1287E-10  0.9571E-15  0.1000E-09  0.0000E+00  0.4167E+16
   -0.467487    2.72985  0.0000E+00  0.1985E-10  0.1457E-14  0.1000E-09  0.0000E+00  0.3288E+16
   -0.509987    2.90619  0.0000E+00  0.3053E-10  0.2212E-14  0.1000E-09  0.0000E+00  0.2588E+16
   -0.552488    3.06902  0.0000E+00  0.4689E-10  0.3355E-14  0.1000E-09  0.0000E+00  0.2002E+16
   -0.594989    3.21871  0.0000E+00  0.7195E-10  0.5083E-14  0.1000E-09  0.0000E+00  0.1519E+16
   -0.637490    3.35590  0.0000E+00  0.1112E-09  0.7755E-14  0.1000E-09  0.0000E+00  0.1129E+16
   -0.679990    3.48173  0.0000E+00  0.1726E-09  0.1189E-13  0.1000E-09  0.0000E+00  0.8075E+15
   -0.722491    3.59610  0.0000E+00  0.2692E-09  0.1830E-13  0.1079E-09  0.0000E+00  0.5502E+15
   -0.764993    3.69919  0.0000E+00  0.4217E-09  0.2829E-13  0.2581E-09  0.0000E+00  0.3475E+15
   -0.807494    3.79060  0.0000E+00  0.6616E-09  0.4382E-13  0.7218E-09  0.0000E+00  0.1945E+15
   -0.849995    3.86957  0.0000E+00  0.1029E-08  0.6729E-13  0.2527E-08  0.0000E+00  0.8777E+14
   -0.892496    3.93572  0.0000E+00  0.1584E-08  0.1024E-12  0.1815E-07  0.0000E+00  0.2064E+14
   -0.934997    3.98977  0.0000E+00  0.1866E-08  0.1211E-12  0.8177E-05  0.0000E+00 -0.5634E+11
   -0.977498    3.99100  0.0000E+00  0.2028E-08  0.1338E-12  0.9683E-05  0.0000E+00 -0.6889E+11
   -1.019999    3.99191  0.0000E+00  0.2180E-08  0.1473E-12  0.1061E-04  0.0000E+00 -0.7479E+11
   -1.062500    3.99273  0.0000E+00  0.2325E-08  0.1621E-12  0.1122E-04  0.0000E+00 -0.8095E+11
   -1.105001    3.99351  0.0000E+00  0.2463E-08  0.1785E-12  0.1141E-04  0.0000E+00 -0.8742E+11
   -1.147502    3.99426  0.0000E+00  0.2594E-08  0.1967E-12  0.1123E-04  0.0000E+00 -0.9461E+11
   -1.190002    3.99499  0.0000E+00  0.2720E-08  0.2174E-12  0.1099E-04  0.0000E+00 -0.1042E+12
   -1.232503    3.99573  0.0000E+00  0.2849E-08  0.2427E-12  0.1101E-04  0.0000E+00 -0.1196E+12
   -1.275003    3.99651  0.0000E+00  0.2983E-08  0.2741E-12  0.1086E-04  0.0000E+00 -0.1407E+12
   -1.317503    3.99736  0.0000E+00  0.3122E-08  0.3145E-12  0.1050E-04  0.0000E+00 -0.1703E+12
   -1.360003    3.99830  0.0000E+00  0.3269E-08  0.3683E-12  0.1002E-04  0.0000E+00 -0.2152E+12
   -1.402502    3.99940  0.0000E+00  0.3428E-08  0.4443E-12  0.8883E-05  0.0000E+00 -0.2807E+12
   -1.445001    4.00071  0.0000E+00  0.3586E-08  0.5473E-12  0.7322E-05  0.0000E+00 -0.3726E+12
   -1.487500    4.00227  0.0000E+00  0.3762E-08  0.7002E-12  0.5908E-05  0.0000E+00 -0.5314E+12
   -1.529999    4.00427  0.0000E+00  0.4024E-08  0.9860E-12  0.5030E-05  0.0000E+00 -0.9494E+12
   -1.572497    4.00738  0.0000E+00  0.4478E-08  0.1668E-11  0.4635E-05  0.0000E+00 -0.2473E+13
   -1.614995    4.01386  0.0000E+00  0.5075E-08  0.3871E-11  0.2216E-05  0.0000E+00 -0.9630E+13
   -1.657493    4.03090  0.0000E+00  0.5162E-08  0.1047E-10  0.7235E-06  0.0000E+00 -0.6152E+14
   -1.699990    4.08556  0.0000E+00  0.0000E+00  0.0000E+00  0.0000E+00  0.0000E+00  0.0000E+00
