 1 - depth, m
 2 - temperature, C
 3 - salinity, kg/kg
 4 - turbulent kinetic energy, m**2/s**2
 5 - dissipation rate, m**2/s**3
 6 - kinematic heat conductance, m**2/s
 7 - modulus of horizontal velocity, m/s
 8 - Richardson number, n/d
   -0.000000    0.00000  0.0000E+00  0.2226E-07  0.7209E-10  0.2792E-08  0.0000E+00  0.8100E+17
   -0.042498    1.51907  0.0000E+00  0.1854E-06  0.6304E-10  0.4790E-08  0.0000E+00  0.4148E+17
   -0.084996    3.01486  0.0000E+00  0.5104E-06  0.1002E-09  0.4445E-07  0.0000E+00  0.7160E+16
   -0.127495    4.18568  0.0000E+00  0.5128E-06  0.1006E-09  0.8178E-03  0.0000E+00 -0.8471E+12
   -0.169994    4.18595  0.0000E+00  0.5140E-06  0.1008E-09  0.8084E-03  0.0000E+00 -0.8080E+12
   -0.212494    4.18621  0.0000E+00  0.5150E-06  0.1011E-09  0.8100E-03  0.0000E+00 -0.7927E+12
   -0.254993    4.18646  0.0000E+00  0.5160E-06  0.1013E-09  0.8111E-03  0.0000E+00 -0.7800E+12
   -0.297494    4.18671  0.0000E+00  0.5169E-06  0.1016E-09  0.8117E-03  0.0000E+00 -0.7679E+12
   -0.339994    4.18695  0.0000E+00  0.5177E-06  0.1020E-09  0.8119E-03  0.0000E+00 -0.7570E+12
   -0.382495    4.18720  0.0000E+00  0.5184E-06  0.1023E-09  0.8114E-03  0.0000E+00 -0.7478E+12
   -0.424995    4.18744  0.0000E+00  0.5190E-06  0.1027E-09  0.8105E-03  0.0000E+00 -0.7382E+12
   -0.467496    4.18767  0.0000E+00  0.5195E-06  0.1031E-09  0.8090E-03  0.0000E+00 -0.7306E+12
   -0.509998    4.18790  0.0000E+00  0.5200E-06  0.1036E-09  0.8069E-03  0.0000E+00 -0.7222E+12
   -0.552499    4.18813  0.0000E+00  0.5203E-06  0.1041E-09  0.8043E-03  0.0000E+00 -0.7154E+12
   -0.595001    4.18836  0.0000E+00  0.5206E-06  0.1047E-09  0.8011E-03  0.0000E+00 -0.7103E+12
   -0.637502    4.18859  0.0000E+00  0.5208E-06  0.1054E-09  0.7971E-03  0.0000E+00 -0.7079E+12
   -0.680004    4.18881  0.0000E+00  0.5210E-06  0.1061E-09  0.7923E-03  0.0000E+00 -0.7062E+12
   -0.722506    4.18903  0.0000E+00  0.5210E-06  0.1069E-09  0.7866E-03  0.0000E+00 -0.7080E+12
   -0.765008    4.18926  0.0000E+00  0.5210E-06  0.1079E-09  0.7798E-03  0.0000E+00 -0.7112E+12
   -0.807510    4.18948  0.0000E+00  0.5210E-06  0.1090E-09  0.7719E-03  0.0000E+00 -0.7155E+12
   -0.850012    4.18971  0.0000E+00  0.5209E-06  0.1103E-09  0.7631E-03  0.0000E+00 -0.7200E+12
   -0.892514    4.18993  0.0000E+00  0.5207E-06  0.1117E-09  0.7934E-03  0.0000E+00 -0.6648E+12
   -0.935016    4.19015  0.0000E+00  0.5204E-06  0.1133E-09  0.7294E-03  0.0000E+00 -0.7704E+12
   -0.977518    4.19038  0.0000E+00  0.5200E-06  0.1151E-09  0.7747E-03  0.0000E+00 -0.6756E+12
   -1.020020    4.19060  0.0000E+00  0.5196E-06  0.1171E-09  0.7010E-03  0.0000E+00 -0.7907E+12
   -1.062522    4.19084  0.0000E+00  0.5192E-06  0.1193E-09  0.7518E-03  0.0000E+00 -0.6896E+12
   -1.105023    4.19107  0.0000E+00  0.5186E-06  0.1218E-09  0.6694E-03  0.0000E+00 -0.8174E+12
   -1.147525    4.19132  0.0000E+00  0.5180E-06  0.1245E-09  0.6710E-03  0.0000E+00 -0.7870E+12
   -1.190026    4.19156  0.0000E+00  0.5173E-06  0.1276E-09  0.6559E-03  0.0000E+00 -0.7997E+12
   -1.232528    4.19181  0.0000E+00  0.5166E-06  0.1312E-09  0.6365E-03  0.0000E+00 -0.8208E+12
   -1.275029    4.19207  0.0000E+00  0.5158E-06  0.1354E-09  0.6747E-03  0.0000E+00 -0.7528E+12
   -1.317529    4.19231  0.0000E+00  0.5149E-06  0.1406E-09  0.5635E-03  0.0000E+00 -0.9467E+12
   -1.360030    4.19260  0.0000E+00  0.5138E-06  0.1472E-09  0.6298E-03  0.0000E+00 -0.8104E+12
   -1.402530    4.19285  0.0000E+00  0.5124E-06  0.1562E-09  0.4966E-03  0.0000E+00 -0.1073E+13
   -1.445030    4.19318  0.0000E+00  0.5110E-06  0.1670E-09  0.5614E-03  0.0000E+00 -0.9104E+12
   -1.487530    4.19347  0.0000E+00  0.5094E-06  0.1809E-09  0.4281E-03  0.0000E+00 -0.1225E+13
   -1.530030    4.19384  0.0000E+00  0.5073E-06  0.2024E-09  0.4058E-03  0.0000E+00 -0.1275E+13
   -1.572529    4.19423  0.0000E+00  0.5034E-06  0.2503E-09  0.3252E-03  0.0000E+00 -0.1647E+13
   -1.615028    4.19474  0.0000E+00  0.4909E-06  0.4220E-09  0.2273E-03  0.0000E+00 -0.2461E+13
   -1.657526    4.19550  0.0000E+00  0.3578E-06  0.2659E-08  0.6257E-05  0.0000E+00 -0.9779E+14
   -1.700024    4.22356  0.0000E+00  0.0000E+00  0.0000E+00  0.0000E+00  0.0000E+00  0.0000E+00
