 1 - depth, m
 2 - temperature, C
 3 - salinity, kg/kg
 4 - turbulent kinetic energy, m**2/s**2
 5 - dissipation rate, m**2/s**3
 6 - kinematic heat conductance, m**2/s
 7 - modulus of horizontal velocity, m/s
 8 - Richardson number, n/d
   -0.000000    0.00000  0.0000E+00  0.7753E-13  0.5540E-16  0.1000E-09  0.0000E+00  0.2094E+17
   -0.042497    0.32861  0.0000E+00  0.1779E-12  0.6044E-16  0.1000E-09  0.0000E+00  0.1706E+17
   -0.084994    0.62153  0.0000E+00  0.4400E-12  0.9581E-16  0.1000E-09  0.0000E+00  0.1388E+17
   -0.127491    0.88147  0.0000E+00  0.9649E-12  0.1842E-15  0.1000E-09  0.0000E+00  0.1120E+17
   -0.169989    1.10924  0.0000E+00  0.1996E-11  0.3622E-15  0.1000E-09  0.0000E+00  0.9047E+16
   -0.212487    1.30806  0.0000E+00  0.4028E-11  0.7089E-15  0.1000E-09  0.0000E+00  0.7264E+16
   -0.254986    1.47964  0.0000E+00  0.8032E-11  0.1379E-14  0.1000E-09  0.0000E+00  0.5804E+16
   -0.297485    1.62611  0.0000E+00  0.1589E-10  0.2666E-14  0.1000E-09  0.0000E+00  0.4758E+16
   -0.339984    1.75366  0.0000E+00  0.3094E-10  0.5074E-14  0.1000E-09  0.0000E+00  0.4115E+16
   -0.382483    1.87041  0.0000E+00  0.5964E-10  0.9567E-14  0.1000E-09  0.0000E+00  0.3636E+16
   -0.424983    1.97944  0.0000E+00  0.1136E-09  0.1783E-13  0.1000E-09  0.0000E+00  0.3441E+16
   -0.467483    2.08859  0.0000E+00  0.2144E-09  0.3293E-13  0.1000E-09  0.0000E+00  0.3308E+16
   -0.509983    2.19997  0.0000E+00  0.4015E-09  0.6037E-13  0.1000E-09  0.0000E+00  0.3447E+16
   -0.552483    2.32421  0.0000E+00  0.7477E-09  0.1101E-12  0.1106E-09  0.0000E+00  0.3594E+16
   -0.594983    2.46487  0.0000E+00  0.1384E-08  0.1997E-12  0.1708E-09  0.0000E+00  0.3689E+16
   -0.637484    2.62474  0.0000E+00  0.2573E-08  0.3636E-12  0.3094E-09  0.0000E+00  0.3712E+16
   -0.679984    2.80795  0.0000E+00  0.4781E-08  0.6622E-12  0.5806E-09  0.0000E+00  0.3611E+16
   -0.722485    3.01987  0.0000E+00  0.8882E-08  0.1206E-11  0.1161E-08  0.0000E+00  0.3306E+16
   -0.764986    3.26831  0.0000E+00  0.1649E-07  0.2196E-11  0.2720E-08  0.0000E+00  0.2620E+16
   -0.807486    3.56064  0.0000E+00  0.3034E-07  0.3969E-11  0.1201E-07  0.0000E+00  0.1329E+16
   -0.849987    3.88243  0.0000E+00  0.4223E-07  0.5559E-11  0.4505E-04  0.0000E+00  0.1770E+15
   -0.892488    4.02480  0.0000E+00  0.4304E-07  0.5677E-11  0.1141E-03  0.0000E+00 -0.2993E+12
   -0.934989    4.02531  0.0000E+00  0.4352E-07  0.5760E-11  0.1125E-03  0.0000E+00 -0.3120E+12
   -0.977489    4.02582  0.0000E+00  0.4399E-07  0.5853E-11  0.1129E-03  0.0000E+00 -0.3190E+12
   -1.019990    4.02634  0.0000E+00  0.4444E-07  0.5956E-11  0.1131E-03  0.0000E+00 -0.3257E+12
   -1.062490    4.02687  0.0000E+00  0.4486E-07  0.6070E-11  0.1130E-03  0.0000E+00 -0.3339E+12
   -1.104991    4.02740  0.0000E+00  0.4525E-07  0.6196E-11  0.1127E-03  0.0000E+00 -0.3411E+12
   -1.147491    4.02793  0.0000E+00  0.4559E-07  0.6331E-11  0.1121E-03  0.0000E+00 -0.3480E+12
   -1.189991    4.02846  0.0000E+00  0.4590E-07  0.6478E-11  0.1111E-03  0.0000E+00 -0.3596E+12
   -1.232491    4.02901  0.0000E+00  0.4618E-07  0.6646E-11  0.1096E-03  0.0000E+00 -0.3841E+12
   -1.274991    4.02959  0.0000E+00  0.4643E-07  0.6846E-11  0.1077E-03  0.0000E+00 -0.4110E+12
   -1.317491    4.03020  0.0000E+00  0.4664E-07  0.7089E-11  0.1052E-03  0.0000E+00 -0.4304E+12
   -1.359990    4.03082  0.0000E+00  0.4683E-07  0.7393E-11  0.1020E-03  0.0000E+00 -0.4575E+12
   -1.402489    4.03148  0.0000E+00  0.4697E-07  0.7793E-11  0.9798E-04  0.0000E+00 -0.4874E+12
   -1.444988    4.03217  0.0000E+00  0.4705E-07  0.8273E-11  0.9355E-04  0.0000E+00 -0.5172E+12
   -1.487487    4.03289  0.0000E+00  0.4707E-07  0.8868E-11  0.8808E-04  0.0000E+00 -0.5602E+12
   -1.529985    4.03366  0.0000E+00  0.4701E-07  0.9775E-11  0.8038E-04  0.0000E+00 -0.6601E+12
   -1.572483    4.03455  0.0000E+00  0.4674E-07  0.1170E-10  0.6893E-04  0.0000E+00 -0.9570E+12
   -1.614980    4.03580  0.0000E+00  0.4533E-07  0.1975E-10  0.3170E-04  0.0000E+00 -0.2478E+13
   -1.657477    4.03895  0.0000E+00  0.3366E-07  0.8812E-10  0.2245E-05  0.0000E+00 -0.5532E+14
   -1.699974    4.08562  0.0000E+00  0.0000E+00  0.0000E+00  0.0000E+00  0.0000E+00  0.0000E+00
