 1 - depth, m
 2 - temperature, C
 3 - salinity, kg/kg
 4 - turbulent kinetic energy, m**2/s**2
 5 - dissipation rate, m**2/s**3
 6 - kinematic heat conductance, m**2/s
 7 - modulus of horizontal velocity, m/s
 8 - Richardson number, n/d
   -0.000000   12.52514  0.0000E+00  0.1169E-03  0.3973E-04  0.5424E-04  0.8311E-01  0.1454E-01
   -0.042497   12.59913  0.0000E+00  0.6540E-04  0.1205E-04  0.9044E-04  0.2277E-01 -0.7325E-01
   -0.084995   12.61397  0.0000E+00  0.4686E-04  0.5636E-05  0.9259E-04  0.1559E-01 -0.1103E+00
   -0.127493   12.62468  0.0000E+00  0.3504E-04  0.2933E-05  0.1149E-03  0.1195E-01  0.1122E+03
   -0.169992   12.63277  0.0000E+00  0.2674E-04  0.1605E-05  0.1326E-03  0.9408E-02  0.8322E+01
   -0.212491   12.63966  0.0000E+00  0.2077E-04  0.9115E-06  0.1571E-03  0.7433E-02  0.2550E+02
   -0.254990   12.64559  0.0000E+00  0.1645E-04  0.5330E-06  0.1865E-03  0.5929E-02  0.5833E+02
   -0.297490   12.65068  0.0000E+00  0.1339E-04  0.3214E-06  0.2168E-03  0.4816E-02  0.6215E+01
   -0.339990   12.65503  0.0000E+00  0.1129E-04  0.2036E-06  0.2566E-03  0.3963E-02  0.1641E+03
   -0.382490   12.65869  0.0000E+00  0.9839E-05  0.1351E-06  0.3051E-03  0.3279E-02  0.3394E+02
   -0.424990   12.66167  0.0000E+00  0.8855E-05  0.9438E-07  0.3580E-03  0.2745E-02  0.4790E+02
   -0.467490   12.66409  0.0000E+00  0.8182E-05  0.6911E-07  0.4103E-03  0.2299E-02  0.6666E+03
   -0.509991   12.66609  0.0000E+00  0.7715E-05  0.5286E-07  0.4602E-03  0.1922E-02  0.7466E+01
   -0.552492   12.66777  0.0000E+00  0.7388E-05  0.4207E-07  0.5085E-03  0.1598E-02  0.9678E+01
   -0.594993   12.66922  0.0000E+00  0.7153E-05  0.3470E-07  0.5557E-03  0.1316E-02  0.6761E+01
   -0.637494   12.67048  0.0000E+00  0.6982E-05  0.2947E-07  0.6044E-03  0.1076E-02  0.1058E+02
   -0.679995   12.67158  0.0000E+00  0.6856E-05  0.2569E-07  0.6513E-03  0.8810E-03  0.1964E+01
   -0.722497   12.67256  0.0000E+00  0.6760E-05  0.2289E-07  0.6961E-03  0.7235E-03  0.1697E+01
   -0.764998   12.67345  0.0000E+00  0.6688E-05  0.2077E-07  0.7375E-03  0.6004E-03  0.1308E+01
   -0.807500   12.67427  0.0000E+00  0.6632E-05  0.1915E-07  0.7706E-03  0.5075E-03  0.1198E+01
   -0.850001   12.67505  0.0000E+00  0.6588E-05  0.1792E-07  0.7979E-03  0.4350E-03  0.1144E+01
   -0.892502   12.67578  0.0000E+00  0.6552E-05  0.1698E-07  0.8200E-03  0.3775E-03  0.1094E+01
   -0.935004   12.67648  0.0000E+00  0.6522E-05  0.1627E-07  0.8371E-03  0.3317E-03  0.1089E+01
   -0.977505   12.67717  0.0000E+00  0.6495E-05  0.1574E-07  0.8495E-03  0.2938E-03  0.1099E+01
   -1.020007   12.67783  0.0000E+00  0.6469E-05  0.1535E-07  0.8578E-03  0.2621E-03  0.1162E+01
   -1.062508   12.67848  0.0000E+00  0.6444E-05  0.1507E-07  0.8613E-03  0.2348E-03  0.1221E+01
   -1.105009   12.67913  0.0000E+00  0.6417E-05  0.1491E-07  0.8605E-03  0.2108E-03  0.1316E+01
   -1.147510   12.67977  0.0000E+00  0.6390E-05  0.1483E-07  0.8550E-03  0.1890E-03  0.1428E+01
   -1.190011   12.68042  0.0000E+00  0.6360E-05  0.1485E-07  0.8447E-03  0.1686E-03  0.1543E+01
   -1.232512   12.68108  0.0000E+00  0.6325E-05  0.1497E-07  0.8289E-03  0.1497E-03  0.1707E+01
   -1.275012   12.68174  0.0000E+00  0.6284E-05  0.1520E-07  0.8068E-03  0.1328E-03  0.2124E+01
   -1.317512   12.68242  0.0000E+00  0.6235E-05  0.1559E-07  0.7784E-03  0.1175E-03  0.2771E+01
   -1.360012   12.68313  0.0000E+00  0.6173E-05  0.1620E-07  0.7363E-03  0.1037E-03  0.3808E+01
   -1.402512   12.68388  0.0000E+00  0.6093E-05  0.1720E-07  0.6940E-03  0.9114E-04  0.5807E+01
   -1.445012   12.68468  0.0000E+00  0.5998E-05  0.1873E-07  0.6250E-03  0.7940E-04 -0.7977E+01
   -1.487511   12.68563  0.0000E+00  0.5884E-05  0.2109E-07  0.5885E-03  0.6711E-04  0.1320E+02
   -1.530010   12.68666  0.0000E+00  0.5719E-05  0.2583E-07  0.4691E-03  0.5518E-04 -0.3770E+03
   -1.572509   12.68844  0.0000E+00  0.5441E-05  0.3679E-07  0.5180E-03  0.4212E-04  0.5375E+05
   -1.615007   12.68927  0.0000E+00  0.4654E-05  0.8615E-07  0.2082E-03  0.3516E-04 -0.7181E+07
   -1.657505   12.69822  0.0000E+00  0.3033E-05  0.2520E-06  0.8195E-04  0.2245E-04 -0.1233E+06
   -1.700002   12.70534  0.0000E+00  0.0000E+00  0.0000E+00  0.0000E+00  0.2868E-04  0.0000E+00
