 1 - depth, m
 2 - temperature, C
 3 - salinity, kg/kg
 4 - turbulent kinetic energy, m**2/s**2
 5 - dissipation rate, m**2/s**3
 6 - kinematic heat conductance, m**2/s
 7 - modulus of horizontal velocity, m/s
 8 - Richardson number, n/d
   -0.000000    0.00000  0.0000E+00  0.3189E-13  0.5206E-16  0.1000E-09  0.0000E+00  0.7531E+16
   -0.042497    0.11474  0.0000E+00  0.3189E-13  0.5206E-16  0.1000E-09  0.0000E+00  0.7548E+16
   -0.084995    0.23350  0.0000E+00  0.3189E-13  0.5206E-16  0.1000E-09  0.0000E+00  0.7517E+16
   -0.127493    0.35588  0.0000E+00  0.3189E-13  0.5206E-16  0.1000E-09  0.0000E+00  0.7253E+16
   -0.169992    0.47826  0.0000E+00  0.3189E-13  0.5206E-16  0.1000E-09  0.0000E+00  0.6984E+16
   -0.212491    0.60055  0.0000E+00  0.3189E-13  0.5206E-16  0.1000E-09  0.0000E+00  0.6720E+16
   -0.254990    0.72278  0.0000E+00  0.3189E-13  0.5206E-16  0.1000E-09  0.0000E+00  0.6455E+16
   -0.297489    0.84493  0.0000E+00  0.3189E-13  0.5206E-16  0.1000E-09  0.0000E+00  0.6170E+16
   -0.339989    0.96656  0.0000E+00  0.3189E-13  0.5206E-16  0.1000E-09  0.0000E+00  0.5859E+16
   -0.382489    1.08701  0.0000E+00  0.3189E-13  0.5206E-16  0.1000E-09  0.0000E+00  0.5547E+16
   -0.424989    1.20611  0.0000E+00  0.3189E-13  0.5206E-16  0.1000E-09  0.0000E+00  0.5218E+16
   -0.467490    1.32324  0.0000E+00  0.3189E-13  0.5206E-16  0.1000E-09  0.0000E+00  0.4895E+16
   -0.509990    1.43824  0.0000E+00  0.3189E-13  0.5206E-16  0.1000E-09  0.0000E+00  0.4601E+16
   -0.552491    1.55147  0.0000E+00  0.3189E-13  0.5206E-16  0.1000E-09  0.0000E+00  0.4316E+16
   -0.594992    1.66293  0.0000E+00  0.3189E-13  0.5206E-16  0.1000E-09  0.0000E+00  0.4052E+16
   -0.637493    1.77288  0.0000E+00  0.3189E-13  0.5206E-16  0.1000E-09  0.0000E+00  0.3817E+16
   -0.679994    1.88191  0.0000E+00  0.3189E-13  0.5206E-16  0.1000E-09  0.0000E+00  0.3587E+16
   -0.722496    1.98996  0.0000E+00  0.3189E-13  0.5206E-16  0.1000E-09  0.0000E+00  0.3371E+16
   -0.764997    2.09732  0.0000E+00  0.3189E-13  0.5206E-16  0.1000E-09  0.0000E+00  0.3159E+16
   -0.807498    2.20399  0.0000E+00  0.3189E-13  0.5206E-16  0.1000E-09  0.0000E+00  0.2927E+16
   -0.850000    2.30906  0.0000E+00  0.3189E-13  0.5206E-16  0.1000E-09  0.0000E+00  0.2688E+16
   -0.892501    2.41191  0.0000E+00  0.3189E-13  0.5206E-16  0.1000E-09  0.0000E+00  0.2481E+16
   -0.935003    2.51336  0.0000E+00  0.3189E-13  0.5206E-16  0.1000E-09  0.0000E+00  0.2280E+16
   -0.977504    2.61336  0.0000E+00  0.3189E-13  0.5206E-16  0.1000E-09  0.0000E+00  0.2085E+16
   -1.020005    2.71183  0.0000E+00  0.3189E-13  0.5206E-16  0.1000E-09  0.0000E+00  0.1879E+16
   -1.062506    2.80771  0.0000E+00  0.3189E-13  0.5206E-16  0.1000E-09  0.0000E+00  0.1680E+16
   -1.105007    2.90076  0.0000E+00  0.3189E-13  0.5206E-16  0.1000E-09  0.0000E+00  0.1478E+16
   -1.147508    2.98988  0.0000E+00  0.3189E-13  0.5206E-16  0.1000E-09  0.0000E+00  0.1281E+16
   -1.190009    3.07429  0.0000E+00  0.3189E-13  0.5206E-16  0.1000E-09  0.0000E+00  0.1109E+16
   -1.232510    3.15440  0.0000E+00  0.3189E-13  0.5206E-16  0.1000E-09  0.0000E+00  0.9741E+15
   -1.275010    3.23182  0.0000E+00  0.3189E-13  0.5206E-16  0.1000E-09  0.0000E+00  0.8630E+15
   -1.317511    3.30784  0.0000E+00  0.3189E-13  0.5206E-16  0.1000E-09  0.0000E+00  0.8079E+15
   -1.360011    3.38780  0.0000E+00  0.1549E-12  0.1898E-15  0.1000E-09  0.0000E+00  0.7565E+15
   -1.402510    3.47399  0.0000E+00  0.8074E-12  0.9516E-15  0.1000E-09  0.0000E+00  0.6561E+15
   -1.445010    3.56284  0.0000E+00  0.3919E-11  0.4515E-14  0.1000E-09  0.0000E+00  0.5177E+15
   -1.487509    3.64923  0.0000E+00  0.1880E-10  0.2128E-13  0.1532E-09  0.0000E+00  0.4012E+15
   -1.530008    3.73604  0.0000E+00  0.9966E-10  0.1114E-12  0.9472E-09  0.0000E+00  0.3354E+15
   -1.572506    3.84509  0.0000E+00  0.6039E-09  0.6711E-12  0.1199E-07  0.0000E+00  0.1429E+15
   -1.615004    4.02790  0.0000E+00  0.3378E-08  0.3906E-11  0.1104E-05  0.0000E+00 -0.2360E+14
   -1.657502    4.05520  0.0000E+00  0.4170E-08  0.8955E-11  0.5856E-06  0.0000E+00 -0.7194E+14
   -1.700000    4.10439  0.0000E+00  0.0000E+00  0.0000E+00  0.0000E+00  0.0000E+00  0.0000E+00
