 1 - depth, m
 2 - temperature, C
 3 - salinity, kg/kg
 4 - turbulent kinetic energy, m**2/s**2
 5 - dissipation rate, m**2/s**3
 6 - kinematic heat conductance, m**2/s
 7 - modulus of horizontal velocity, m/s
 8 - Richardson number, n/d
   -0.000000    9.93115  0.0000E+00  0.7625E-05  0.6390E-06  0.1832E-04  0.1017E-01 -0.1191E+00
   -0.042497    9.96898  0.0000E+00  0.5789E-05  0.1874E-06  0.5375E-04  0.4561E-02 -0.2683E+00
   -0.084995    9.98200  0.0000E+00  0.4931E-05  0.8500E-07  0.1196E-03  0.2803E-02  0.5018E+03
   -0.127493    9.98867  0.0000E+00  0.4444E-05  0.4729E-07  0.1750E-03  0.1925E-02  0.1428E+03
   -0.169992    9.99298  0.0000E+00  0.4173E-05  0.3057E-07  0.2180E-03  0.1419E-02  0.2564E+02
   -0.212491    9.99623  0.0000E+00  0.4032E-05  0.2212E-07  0.2654E-03  0.1084E-02  0.8121E+01
   -0.254990    9.99872  0.0000E+00  0.3978E-05  0.1751E-07  0.3146E-03  0.8607E-03  0.8530E+01
   -0.297489   10.00065  0.0000E+00  0.3979E-05  0.1484E-07  0.3634E-03  0.7116E-03  0.6609E+01
   -0.339989   10.00221  0.0000E+00  0.4006E-05  0.1312E-07  0.4062E-03  0.6081E-03  0.1384E+01
   -0.382489   10.00356  0.0000E+00  0.4043E-05  0.1189E-07  0.4477E-03  0.5253E-03  0.1395E+01
   -0.424989   10.00475  0.0000E+00  0.4086E-05  0.1096E-07  0.4883E-03  0.4580E-03  0.1380E+01
   -0.467490   10.00581  0.0000E+00  0.4129E-05  0.1024E-07  0.5278E-03  0.3998E-03  0.1389E+01
   -0.509990   10.00677  0.0000E+00  0.4171E-05  0.9659E-08  0.5661E-03  0.3481E-03  0.1392E+01
   -0.552491   10.00764  0.0000E+00  0.4209E-05  0.9191E-08  0.6023E-03  0.3025E-03  0.1403E+01
   -0.594992   10.00845  0.0000E+00  0.4244E-05  0.8813E-08  0.6360E-03  0.2621E-03  0.1408E+01
   -0.637493   10.00919  0.0000E+00  0.4276E-05  0.8502E-08  0.6669E-03  0.2272E-03  0.1409E+01
   -0.679994   10.00989  0.0000E+00  0.4304E-05  0.8249E-08  0.6944E-03  0.1980E-03  0.1469E+01
   -0.722495   10.01055  0.0000E+00  0.4329E-05  0.8040E-08  0.7184E-03  0.1739E-03  0.1582E+01
   -0.764997   10.01119  0.0000E+00  0.4351E-05  0.7867E-08  0.7398E-03  0.1543E-03  0.1786E+01
   -0.807498   10.01180  0.0000E+00  0.4370E-05  0.7720E-08  0.7590E-03  0.1384E-03  0.2099E+01
   -0.849999   10.01239  0.0000E+00  0.4385E-05  0.7599E-08  0.7756E-03  0.1250E-03  0.2466E+01
   -0.892501   10.01296  0.0000E+00  0.4398E-05  0.7497E-08  0.7898E-03  0.1134E-03  0.2869E+01
   -0.935002   10.01352  0.0000E+00  0.4407E-05  0.7415E-08  0.8014E-03  0.1033E-03  0.3394E+01
   -0.977504   10.01406  0.0000E+00  0.4412E-05  0.7351E-08  0.8102E-03  0.9422E-04  0.3880E+01
   -1.020005   10.01459  0.0000E+00  0.4414E-05  0.7306E-08  0.8160E-03  0.8595E-04  0.4483E+01
   -1.062506   10.01511  0.0000E+00  0.4413E-05  0.7280E-08  0.8183E-03  0.7830E-04  0.5010E+01
   -1.105007   10.01562  0.0000E+00  0.4408E-05  0.7276E-08  0.8172E-03  0.7121E-04  0.5619E+01
   -1.147508   10.01612  0.0000E+00  0.4399E-05  0.7295E-08  0.8126E-03  0.6448E-04  0.6267E+01
   -1.190009   10.01661  0.0000E+00  0.4388E-05  0.7340E-08  0.8042E-03  0.5797E-04  0.6888E+01
   -1.232509   10.01710  0.0000E+00  0.4374E-05  0.7418E-08  0.7910E-03  0.5174E-04  0.7738E+01
   -1.275010   10.01760  0.0000E+00  0.4355E-05  0.7540E-08  0.7727E-03  0.4597E-04  0.9614E+01
   -1.317510   10.01810  0.0000E+00  0.4332E-05  0.7719E-08  0.7477E-03  0.4066E-04  0.1233E+02
   -1.360010   10.01861  0.0000E+00  0.4303E-05  0.7984E-08  0.7147E-03  0.3579E-04  0.1620E+02
   -1.402510   10.01914  0.0000E+00  0.4266E-05  0.8380E-08  0.6724E-03  0.3139E-04  0.2320E+02
   -1.445009   10.01970  0.0000E+00  0.4223E-05  0.8916E-08  0.6205E-03  0.2726E-04  0.3427E+02
   -1.487508   10.02030  0.0000E+00  0.4176E-05  0.9663E-08  0.5758E-03  0.2316E-04  0.4335E+02
   -1.530007   10.02093  0.0000E+00  0.4115E-05  0.1096E-07  0.4673E-03  0.1915E-04  0.5945E+02
   -1.572506   10.02172  0.0000E+00  0.4010E-05  0.1395E-07  0.5350E-03  0.1515E-04  0.7491E+02
   -1.615004   10.02241  0.0000E+00  0.3591E-05  0.2975E-07  0.1906E-03  0.1293E-04 -0.1852E+07
   -1.657502   10.02779  0.0000E+00  0.2297E-05  0.9899E-07  0.5621E-04  0.8151E-05 -0.2046E+05
   -1.699999   10.03460  0.0000E+00  0.0000E+00  0.0000E+00  0.0000E+00  0.9722E-05  0.0000E+00
