 1 - depth, m
 2 - temperature, C
 3 - salinity, kg/kg
 4 - turbulent kinetic energy, m**2/s**2
 5 - dissipation rate, m**2/s**3
 6 - kinematic heat conductance, m**2/s
 7 - modulus of horizontal velocity, m/s
 8 - Richardson number, n/d
   -0.000000   12.21036  0.0000E+00  0.3647E-03  0.1074E-02  0.1066E-03  0.2081E+00  0.7523E-01
   -0.042497   12.34343  0.0000E+00  0.1952E-03  0.4490E-03  0.1872E-03  0.4818E-01 -0.3872E-01
   -0.084995   12.36497  0.0000E+00  0.1366E-03  0.2226E-03  0.1641E-03  0.3064E-01 -0.8571E-01
   -0.127493   12.38189  0.0000E+00  0.1023E-03  0.9333E-04  0.1585E-03  0.2413E-01 -0.1143E+01
   -0.169991   12.39523  0.0000E+00  0.7830E-04  0.3091E-04  0.1595E-03  0.1970E-01  0.1731E+01
   -0.212490   12.40637  0.0000E+00  0.6053E-04  0.8403E-05  0.1683E-03  0.1615E-01  0.9924E+03
   -0.254989   12.41667  0.0000E+00  0.4805E-04  0.4282E-05  0.1827E-03  0.1334E-01  0.1433E+02
   -0.297488   12.42519  0.0000E+00  0.3896E-04  0.2519E-05  0.2022E-03  0.1128E-01  0.5695E+01
   -0.339988   12.43238  0.0000E+00  0.3236E-04  0.1521E-05  0.2274E-03  0.9663E-02  0.2076E+02
   -0.382488   12.43869  0.0000E+00  0.2746E-04  0.9390E-06  0.2641E-03  0.8289E-02  0.1931E+03
   -0.424988   12.44401  0.0000E+00  0.2385E-04  0.6081E-06  0.3083E-03  0.7179E-02  0.1985E+03
   -0.467488   12.44862  0.0000E+00  0.2116E-04  0.4202E-06  0.3559E-03  0.6192E-02  0.3544E+02
   -0.509989   12.45249  0.0000E+00  0.1909E-04  0.3041E-06  0.4033E-03  0.5321E-02  0.2531E+02
   -0.552490   12.45583  0.0000E+00  0.1746E-04  0.2302E-06  0.4500E-03  0.4552E-02  0.1839E+02
   -0.594990   12.45862  0.0000E+00  0.1614E-04  0.1799E-06  0.4953E-03  0.3868E-02  0.8360E+02
   -0.637491   12.46108  0.0000E+00  0.1504E-04  0.1440E-06  0.5425E-03  0.3262E-02  0.1326E+02
   -0.679992   12.46319  0.0000E+00  0.1411E-04  0.1176E-06  0.5822E-03  0.2749E-02  0.1287E+02
   -0.722494   12.46511  0.0000E+00  0.1331E-04  0.9743E-07  0.6263E-03  0.2310E-02  0.2594E+02
   -0.764995   12.46682  0.0000E+00  0.1262E-04  0.8187E-07  0.6739E-03  0.1947E-02  0.4866E+01
   -0.807496   12.46839  0.0000E+00  0.1201E-04  0.6964E-07  0.7163E-03  0.1658E-02  0.5413E+01
   -0.849997   12.46983  0.0000E+00  0.1150E-04  0.6011E-07  0.7529E-03  0.1419E-02  0.4634E+01
   -0.892499   12.47119  0.0000E+00  0.1105E-04  0.5256E-07  0.7846E-03  0.1221E-02  0.1458E+01
   -0.935000   12.47247  0.0000E+00  0.1067E-04  0.4665E-07  0.8090E-03  0.1057E-02  0.1263E+01
   -0.977501   12.47371  0.0000E+00  0.1033E-04  0.4200E-07  0.8284E-03  0.9152E-03  0.1231E+01
   -1.020002   12.47490  0.0000E+00  0.1003E-04  0.3837E-07  0.8407E-03  0.7948E-03  0.1259E+01
   -1.062503   12.47606  0.0000E+00  0.9749E-05  0.3554E-07  0.8452E-03  0.6890E-03  0.1269E+01
   -1.105004   12.47721  0.0000E+00  0.9494E-05  0.3339E-07  0.8460E-03  0.5952E-03  0.1316E+01
   -1.147505   12.47834  0.0000E+00  0.9251E-05  0.3182E-07  0.8187E-03  0.5102E-03  0.1382E+01
   -1.190006   12.47950  0.0000E+00  0.9090E-05  0.3110E-07  0.9073E-03  0.4257E-03  0.2566E+01
   -1.232506   12.48054  0.0000E+00  0.8963E-05  0.3092E-07  0.7985E-03  0.3841E-03  0.1103E+02
   -1.275007   12.48171  0.0000E+00  0.8811E-05  0.3103E-07  0.7871E-03  0.3465E-03  0.1691E+01
   -1.317507   12.48289  0.0000E+00  0.8606E-05  0.3164E-07  0.7460E-03  0.2944E-03  0.1918E+01
   -1.360007   12.48414  0.0000E+00  0.8395E-05  0.3301E-07  0.6901E-03  0.2539E-03  0.2626E+01
   -1.402506   12.48551  0.0000E+00  0.8146E-05  0.3569E-07  0.6552E-03  0.2206E-03  0.5289E+01
   -1.445006   12.48699  0.0000E+00  0.7849E-05  0.4084E-07  0.5701E-03  0.1910E-03  0.1956E+02
   -1.487505   12.48909  0.0000E+00  0.7487E-05  0.4943E-07  0.5398E-03  0.1565E-03 -0.8787E+01
   -1.530003   12.49130  0.0000E+00  0.6968E-05  0.7019E-07  0.4176E-03  0.1234E-03 -0.2646E+04
   -1.572502   12.49697  0.0000E+00  0.6266E-05  0.1158E-06  0.4322E-03  0.8281E-04  0.3562E+06
   -1.615000   12.49660  0.0000E+00  0.4964E-05  0.3182E-06  0.1951E-03  0.6645E-04 -0.7449E+08
   -1.657497   12.51821  0.0000E+00  0.3366E-05  0.8080E-06  0.1325E-03  0.4001E-04 -0.1306E+06
   -1.699995   12.52345  0.0000E+00  0.0000E+00  0.0000E+00  0.0000E+00  0.6857E-04  0.0000E+00
