 1 - depth, m
 2 - temperature, C
 3 - salinity, kg/kg
 4 - turbulent kinetic energy, m**2/s**2
 5 - dissipation rate, m**2/s**3
 6 - kinematic heat conductance, m**2/s
 7 - modulus of horizontal velocity, m/s
 8 - Richardson number, n/d
   -0.000000   13.69725  0.0000E+00  0.3204E-04  0.6376E-05  0.2907E-04  0.3268E-01 -0.1659E-01
   -0.042497   13.72063  0.0000E+00  0.1931E-04  0.1771E-05  0.4222E-04  0.1331E-01 -0.4502E-01
   -0.084995   13.72898  0.0000E+00  0.1395E-04  0.7499E-06  0.5258E-04  0.8799E-02 -0.1006E+00
   -0.127493   13.73492  0.0000E+00  0.1052E-04  0.3614E-06  0.6800E-04  0.6200E-02 -0.1478E+00
   -0.169992   13.73951  0.0000E+00  0.8236E-05  0.1917E-06  0.9793E-04  0.4461E-02  0.3164E+02
   -0.212490   13.74315  0.0000E+00  0.6658E-05  0.1090E-06  0.1263E-03  0.3246E-02  0.5480E+02
   -0.254990   13.74609  0.0000E+00  0.5598E-05  0.6586E-07  0.1685E-03  0.2400E-02  0.1308E+03
   -0.297489   13.74836  0.0000E+00  0.4927E-05  0.4248E-07  0.2143E-03  0.1836E-02  0.9630E+02
   -0.339989   13.75008  0.0000E+00  0.4538E-05  0.2974E-07  0.2775E-03  0.1455E-02  0.2809E+03
   -0.382489   13.75130  0.0000E+00  0.4323E-05  0.2254E-07  0.3259E-03  0.1198E-02  0.3216E+02
   -0.424989   13.75223  0.0000E+00  0.4211E-05  0.1820E-07  0.3659E-03  0.1014E-02  0.8639E+01
   -0.467489   13.75302  0.0000E+00  0.4159E-05  0.1537E-07  0.4046E-03  0.8600E-03  0.1333E+02
   -0.509990   13.75373  0.0000E+00  0.4144E-05  0.1343E-07  0.4442E-03  0.7272E-03  0.2583E+01
   -0.552491   13.75438  0.0000E+00  0.4154E-05  0.1204E-07  0.4849E-03  0.6113E-03  0.1614E+01
   -0.594992   13.75498  0.0000E+00  0.4178E-05  0.1102E-07  0.5258E-03  0.5100E-03  0.1488E+01
   -0.637493   13.75553  0.0000E+00  0.4210E-05  0.1026E-07  0.5658E-03  0.4236E-03  0.1355E+01
   -0.679994   13.75604  0.0000E+00  0.4244E-05  0.9674E-08  0.6027E-03  0.3538E-03  0.1298E+01
   -0.722495   13.75651  0.0000E+00  0.4280E-05  0.9229E-08  0.6368E-03  0.2978E-03  0.1249E+01
   -0.764996   13.75695  0.0000E+00  0.4316E-05  0.8893E-08  0.6672E-03  0.2545E-03  0.1240E+01
   -0.807498   13.75736  0.0000E+00  0.4354E-05  0.8646E-08  0.6934E-03  0.2215E-03  0.1313E+01
   -0.849999   13.75776  0.0000E+00  0.4391E-05  0.8471E-08  0.7156E-03  0.1956E-03  0.1440E+01
   -0.892500   13.75814  0.0000E+00  0.4428E-05  0.8351E-08  0.7345E-03  0.1747E-03  0.1626E+01
   -0.935002   13.75852  0.0000E+00  0.4464E-05  0.8279E-08  0.7501E-03  0.1574E-03  0.1908E+01
   -0.977503   13.75889  0.0000E+00  0.4500E-05  0.8246E-08  0.7626E-03  0.1424E-03  0.2229E+01
   -1.020004   13.75927  0.0000E+00  0.4535E-05  0.8249E-08  0.7721E-03  0.1293E-03  0.2652E+01
   -1.062506   13.75965  0.0000E+00  0.4568E-05  0.8284E-08  0.7781E-03  0.1174E-03  0.3102E+01
   -1.105007   13.76005  0.0000E+00  0.4599E-05  0.8351E-08  0.7806E-03  0.1065E-03  0.3656E+01
   -1.147507   13.76046  0.0000E+00  0.4626E-05  0.8449E-08  0.7791E-03  0.9625E-04  0.4305E+01
   -1.190008   13.76089  0.0000E+00  0.4648E-05  0.8577E-08  0.7735E-03  0.8636E-04  0.4950E+01
   -1.232509   13.76134  0.0000E+00  0.4665E-05  0.8745E-08  0.7634E-03  0.7689E-04  0.5785E+01
   -1.275009   13.76181  0.0000E+00  0.4676E-05  0.8968E-08  0.7480E-03  0.6818E-04  0.7409E+01
   -1.317509   13.76229  0.0000E+00  0.4682E-05  0.9264E-08  0.7258E-03  0.6018E-04  0.9769E+01
   -1.360009   13.76280  0.0000E+00  0.4680E-05  0.9669E-08  0.6956E-03  0.5289E-04  0.1319E+02
   -1.402509   13.76334  0.0000E+00  0.4669E-05  0.1024E-07  0.6557E-03  0.4631E-04  0.1951E+02
   -1.445009   13.76393  0.0000E+00  0.4650E-05  0.1099E-07  0.6056E-03  0.4014E-04  0.2988E+02
   -1.487508   13.76459  0.0000E+00  0.4619E-05  0.1199E-07  0.5615E-03  0.3402E-04  0.3898E+02
   -1.530007   13.76533  0.0000E+00  0.4566E-05  0.1367E-07  0.4561E-03  0.2805E-04  0.5332E+02
   -1.572505   13.76627  0.0000E+00  0.4457E-05  0.1747E-07  0.5201E-03  0.2207E-04  0.7181E+02
   -1.615003   13.76707  0.0000E+00  0.3994E-05  0.3728E-07  0.1863E-03  0.1878E-04 -0.2853E+10
   -1.657501   13.77302  0.0000E+00  0.2588E-05  0.1205E-06  0.5919E-04  0.1180E-04 -0.2873E+05
   -1.699998   13.78068  0.0000E+00  0.0000E+00  0.0000E+00  0.0000E+00  0.1393E-04  0.0000E+00
