 1 - depth, m
 2 - temperature, C
 3 - salinity, kg/kg
 4 - turbulent kinetic energy, m**2/s**2
 5 - dissipation rate, m**2/s**3
 6 - kinematic heat conductance, m**2/s
 7 - modulus of horizontal velocity, m/s
 8 - Richardson number, n/d
   -0.000000    0.00000  0.0000E+00  0.3189E-13  0.5206E-16  0.1000E-09  0.0000E+00  0.9061E+16
   -0.042497    0.13849  0.0000E+00  0.3189E-13  0.5206E-16  0.1000E-09  0.0000E+00  0.9030E+16
   -0.084995    0.28201  0.0000E+00  0.3189E-13  0.5206E-16  0.1000E-09  0.0000E+00  0.8929E+16
   -0.127493    0.42999  0.0000E+00  0.3189E-13  0.5206E-16  0.1000E-09  0.0000E+00  0.8522E+16
   -0.169992    0.57758  0.0000E+00  0.3189E-13  0.5206E-16  0.1000E-09  0.0000E+00  0.8107E+16
   -0.212491    0.72455  0.0000E+00  0.3189E-13  0.5206E-16  0.1000E-09  0.0000E+00  0.7694E+16
   -0.254990    0.87080  0.0000E+00  0.3189E-13  0.5206E-16  0.1000E-09  0.0000E+00  0.7279E+16
   -0.297489    1.01616  0.0000E+00  0.3189E-13  0.5206E-16  0.1000E-09  0.0000E+00  0.6848E+16
   -0.339989    1.16009  0.0000E+00  0.3189E-13  0.5206E-16  0.1000E-09  0.0000E+00  0.6400E+16
   -0.382489    1.30191  0.0000E+00  0.3189E-13  0.5206E-16  0.1000E-09  0.0000E+00  0.5956E+16
   -0.424989    1.44132  0.0000E+00  0.3189E-13  0.5206E-16  0.1000E-09  0.0000E+00  0.5508E+16
   -0.467490    1.57772  0.0000E+00  0.3189E-13  0.5206E-16  0.1000E-09  0.0000E+00  0.5073E+16
   -0.509990    1.71087  0.0000E+00  0.3189E-13  0.5206E-16  0.1000E-09  0.0000E+00  0.4679E+16
   -0.552491    1.84128  0.0000E+00  0.3189E-13  0.5206E-16  0.1000E-09  0.0000E+00  0.4302E+16
   -0.594992    1.96890  0.0000E+00  0.3189E-13  0.5206E-16  0.1000E-09  0.0000E+00  0.3949E+16
   -0.637493    2.09387  0.0000E+00  0.3189E-13  0.5206E-16  0.1000E-09  0.0000E+00  0.3624E+16
   -0.679995    2.21657  0.0000E+00  0.3189E-13  0.5206E-16  0.1000E-09  0.0000E+00  0.3309E+16
   -0.722496    2.33680  0.0000E+00  0.3189E-13  0.5206E-16  0.1000E-09  0.0000E+00  0.3009E+16
   -0.764997    2.45453  0.0000E+00  0.3189E-13  0.5206E-16  0.1000E-09  0.0000E+00  0.2718E+16
   -0.807499    2.56949  0.0000E+00  0.3189E-13  0.5206E-16  0.1000E-09  0.0000E+00  0.2425E+16
   -0.850000    2.68078  0.0000E+00  0.3189E-13  0.5206E-16  0.1000E-09  0.0000E+00  0.2139E+16
   -0.892501    2.78768  0.0000E+00  0.3189E-13  0.5206E-16  0.1000E-09  0.0000E+00  0.1900E+16
   -0.935003    2.89155  0.0000E+00  0.3189E-13  0.5206E-16  0.1000E-09  0.0000E+00  0.1685E+16
   -0.977504    2.99289  0.0000E+00  0.3189E-13  0.5206E-16  0.1000E-09  0.0000E+00  0.1481E+16
   -1.020005    3.09155  0.0000E+00  0.3189E-13  0.5206E-16  0.1000E-09  0.0000E+00  0.1277E+16
   -1.062507    3.18650  0.0000E+00  0.3189E-13  0.5206E-16  0.1000E-09  0.0000E+00  0.1088E+16
   -1.105008    3.27743  0.0000E+00  0.3189E-13  0.5206E-16  0.1000E-09  0.0000E+00  0.9057E+15
   -1.147509    3.36334  0.0000E+00  0.8699E-13  0.5832E-16  0.1000E-09  0.0000E+00  0.7387E+15
   -1.190009    3.44350  0.0000E+00  0.2865E-12  0.1559E-15  0.1000E-09  0.0000E+00  0.5953E+15
   -1.232510    3.51806  0.0000E+00  0.9017E-12  0.4659E-15  0.1000E-09  0.0000E+00  0.4768E+15
   -1.275011    3.58781  0.0000E+00  0.2793E-11  0.1399E-14  0.1000E-09  0.0000E+00  0.3824E+15
   -1.317511    3.65425  0.0000E+00  0.8611E-11  0.4198E-14  0.1000E-09  0.0000E+00  0.3277E+15
   -1.360011    3.72436  0.0000E+00  0.2661E-10  0.1264E-13  0.1451E-09  0.0000E+00  0.2678E+15
   -1.402511    3.80045  0.0000E+00  0.8257E-10  0.3824E-13  0.6465E-09  0.0000E+00  0.1804E+15
   -1.445010    3.87875  0.0000E+00  0.2413E-09  0.1094E-12  0.3942E-08  0.0000E+00  0.8188E+14
   -1.487509    3.95269  0.0000E+00  0.6798E-09  0.3047E-12  0.7931E-07  0.0000E+00  0.7054E+13
   -1.530008    4.00183  0.0000E+00  0.1734E-08  0.8498E-12  0.1104E-05  0.0000E+00 -0.3832E+13
   -1.572507    4.01333  0.0000E+00  0.2996E-08  0.1890E-11  0.1899E-05  0.0000E+00 -0.7205E+13
   -1.615005    4.02693  0.0000E+00  0.4355E-08  0.4173E-11  0.1621E-05  0.0000E+00 -0.1576E+14
   -1.657502    4.04683  0.0000E+00  0.4664E-08  0.9701E-11  0.6494E-06  0.0000E+00 -0.6565E+14
   -1.700000    4.09611  0.0000E+00  0.0000E+00  0.0000E+00  0.0000E+00  0.0000E+00  0.0000E+00
