 1 - depth, m
 2 - temperature, C
 3 - salinity, kg/kg
 4 - turbulent kinetic energy, m**2/s**2
 5 - dissipation rate, m**2/s**3
 6 - kinematic heat conductance, m**2/s
 7 - modulus of horizontal velocity, m/s
 8 - Richardson number, n/d
   -0.000000    0.00000  0.0000E+00  0.2712E-12  0.5604E-16  0.1000E-09  0.0000E+00  0.1479E+17
   -0.042497    0.22882  0.0000E+00  0.4087E-12  0.5944E-16  0.1000E-09  0.0000E+00  0.1383E+17
   -0.084994    0.45720  0.0000E+00  0.6988E-12  0.8283E-16  0.1000E-09  0.0000E+00  0.1288E+17
   -0.127492    0.68490  0.0000E+00  0.1207E-11  0.1299E-15  0.1000E-09  0.0000E+00  0.1169E+17
   -0.169990    0.90691  0.0000E+00  0.2061E-11  0.2115E-15  0.1000E-09  0.0000E+00  0.1057E+17
   -0.212489    1.12340  0.0000E+00  0.3484E-11  0.3476E-15  0.1000E-09  0.0000E+00  0.9538E+16
   -0.254988    1.33460  0.0000E+00  0.5858E-11  0.5724E-15  0.1000E-09  0.0000E+00  0.8570E+16
   -0.297487    1.54059  0.0000E+00  0.9813E-11  0.9417E-15  0.1000E-09  0.0000E+00  0.7653E+16
   -0.339986    1.74117  0.0000E+00  0.1625E-10  0.1534E-14  0.1000E-09  0.0000E+00  0.6785E+16
   -0.382486    1.93600  0.0000E+00  0.2675E-10  0.2484E-14  0.1000E-09  0.0000E+00  0.5976E+16
   -0.424986    2.12503  0.0000E+00  0.4367E-10  0.3993E-14  0.1000E-09  0.0000E+00  0.5221E+16
   -0.467486    2.30808  0.0000E+00  0.7084E-10  0.6378E-14  0.1000E-09  0.0000E+00  0.4522E+16
   -0.509986    2.48511  0.0000E+00  0.1145E-09  0.1015E-13  0.1000E-09  0.0000E+00  0.3909E+16
   -0.552486    2.65753  0.0000E+00  0.1845E-09  0.1610E-13  0.1000E-09  0.0000E+00  0.3342E+16
   -0.594987    2.82557  0.0000E+00  0.2965E-09  0.2549E-13  0.1000E-09  0.0000E+00  0.2819E+16
   -0.637488    2.98954  0.0000E+00  0.4795E-09  0.4060E-13  0.1000E-09  0.0000E+00  0.2337E+16
   -0.679989    3.14998  0.0000E+00  0.7778E-09  0.6486E-13  0.1083E-09  0.0000E+00  0.1884E+16
   -0.722489    3.30675  0.0000E+00  0.1266E-08  0.1039E-12  0.2240E-09  0.0000E+00  0.1460E+16
   -0.764990    3.45982  0.0000E+00  0.2066E-08  0.1672E-12  0.4951E-09  0.0000E+00  0.1063E+16
   -0.807491    3.60881  0.0000E+00  0.3373E-08  0.2690E-12  0.1225E-08  0.0000E+00  0.6911E+15
   -0.849992    3.75242  0.0000E+00  0.5451E-08  0.4286E-12  0.3805E-08  0.0000E+00  0.3543E+15
   -0.892494    3.88836  0.0000E+00  0.8681E-08  0.6740E-12  0.2886E-07  0.0000E+00  0.7337E+14
   -0.934995    4.00168  0.0000E+00  0.9043E-08  0.7038E-12  0.4654E-04  0.0000E+00 -0.1001E+12
   -0.977496    4.00209  0.0000E+00  0.9221E-08  0.7206E-12  0.4583E-04  0.0000E+00 -0.1051E+12
   -1.019996    4.00251  0.0000E+00  0.9391E-08  0.7389E-12  0.4618E-04  0.0000E+00 -0.1070E+12
   -1.062497    4.00292  0.0000E+00  0.9548E-08  0.7586E-12  0.4645E-04  0.0000E+00 -0.1091E+12
   -1.104998    4.00334  0.0000E+00  0.9694E-08  0.7799E-12  0.4650E-04  0.0000E+00 -0.1107E+12
   -1.147499    4.00375  0.0000E+00  0.9825E-08  0.8025E-12  0.4637E-04  0.0000E+00 -0.1120E+12
   -1.189999    4.00415  0.0000E+00  0.9941E-08  0.8269E-12  0.4604E-04  0.0000E+00 -0.1146E+12
   -1.232499    4.00456  0.0000E+00  0.1005E-07  0.8549E-12  0.4561E-04  0.0000E+00 -0.1208E+12
   -1.274999    4.00498  0.0000E+00  0.1015E-07  0.8881E-12  0.4493E-04  0.0000E+00 -0.1287E+12
   -1.317499    4.00541  0.0000E+00  0.1025E-07  0.9284E-12  0.4397E-04  0.0000E+00 -0.1388E+12
   -1.359999    4.00587  0.0000E+00  0.1034E-07  0.9790E-12  0.4264E-04  0.0000E+00 -0.1532E+12
   -1.402498    4.00636  0.0000E+00  0.1042E-07  0.1045E-11  0.4073E-04  0.0000E+00 -0.1683E+12
   -1.444997    4.00689  0.0000E+00  0.1048E-07  0.1125E-11  0.3837E-04  0.0000E+00 -0.1816E+12
   -1.487496    4.00745  0.0000E+00  0.1053E-07  0.1233E-11  0.3534E-04  0.0000E+00 -0.2035E+12
   -1.529995    4.00805  0.0000E+00  0.1057E-07  0.1419E-11  0.3099E-04  0.0000E+00 -0.2725E+12
   -1.572493    4.00884  0.0000E+00  0.1056E-07  0.1818E-11  0.2596E-04  0.0000E+00 -0.5007E+12
   -1.614991    4.01021  0.0000E+00  0.1020E-07  0.3450E-11  0.9381E-05  0.0000E+00 -0.1806E+13
   -1.657488    4.01463  0.0000E+00  0.7750E-08  0.1263E-10  0.9731E-06  0.0000E+00 -0.2857E+14
   -1.699985    4.05303  0.0000E+00  0.0000E+00  0.0000E+00  0.0000E+00  0.0000E+00  0.0000E+00
