 1 - depth, m
 2 - temperature, C
 3 - salinity, kg/kg
 4 - turbulent kinetic energy, m**2/s**2
 5 - dissipation rate, m**2/s**3
 6 - kinematic heat conductance, m**2/s
 7 - modulus of horizontal velocity, m/s
 8 - Richardson number, n/d
   -0.000000   10.93425  0.0000E+00  0.2950E-03  0.2628E-03  0.5989E-04  0.1566E+00 -0.3576E-02
   -0.042497   10.98392  0.0000E+00  0.1551E-03  0.8138E-04  0.1649E-03  0.3578E-01 -0.4061E-01
   -0.084995   10.99374  0.0000E+00  0.1110E-03  0.4105E-04  0.1433E-03  0.2367E-01 -0.3507E-01
   -0.127493   11.00084  0.0000E+00  0.8362E-04  0.2229E-04  0.1311E-03  0.1884E-01 -0.8317E-01
   -0.169992   11.00645  0.0000E+00  0.6293E-04  0.1170E-04  0.1248E-03  0.1537E-01 -0.7655E-01
   -0.212491   11.01144  0.0000E+00  0.4758E-04  0.6181E-05  0.1250E-03  0.1248E-01 -0.1347E+00
   -0.254990   11.01598  0.0000E+00  0.3610E-04  0.3156E-05  0.1410E-03  0.1017E-01  0.2426E+03
   -0.297489   11.02001  0.0000E+00  0.2808E-04  0.1671E-05  0.1584E-03  0.8409E-02  0.7899E+01
   -0.339989   11.02362  0.0000E+00  0.2245E-04  0.9338E-06  0.1750E-03  0.6999E-02  0.2456E+02
   -0.382489   11.02679  0.0000E+00  0.1843E-04  0.5688E-06  0.1913E-03  0.5817E-02  0.2092E+02
   -0.424989   11.02950  0.0000E+00  0.1554E-04  0.3753E-06  0.2089E-03  0.4902E-02  0.4332E+02
   -0.467490   11.03196  0.0000E+00  0.1337E-04  0.2617E-06  0.2293E-03  0.4113E-02  0.6772E+01
   -0.509990   11.03413  0.0000E+00  0.1171E-04  0.1896E-06  0.2544E-03  0.3440E-02  0.1985E+02
   -0.552491   11.03602  0.0000E+00  0.1038E-04  0.1404E-06  0.2820E-03  0.2870E-02  0.2176E+02
   -0.594992   11.03774  0.0000E+00  0.9312E-05  0.1060E-06  0.3134E-03  0.2374E-02  0.1753E+02
   -0.637493   11.03925  0.0000E+00  0.8422E-05  0.8119E-07  0.3510E-03  0.1953E-02  0.4268E+02
   -0.679994   11.04058  0.0000E+00  0.7680E-05  0.6306E-07  0.3901E-03  0.1612E-02  0.5121E+01
   -0.722496   11.04174  0.0000E+00  0.7059E-05  0.4965E-07  0.4264E-03  0.1333E-02  0.7899E+01
   -0.764997   11.04278  0.0000E+00  0.6541E-05  0.3962E-07  0.4600E-03  0.1110E-02  0.4136E+02
   -0.807498   11.04372  0.0000E+00  0.6109E-05  0.3203E-07  0.4885E-03  0.9359E-03  0.3319E+02
   -0.850000   11.04459  0.0000E+00  0.5760E-05  0.2641E-07  0.5145E-03  0.7944E-03  0.3889E+01
   -0.892501   11.04540  0.0000E+00  0.5476E-05  0.2217E-07  0.5389E-03  0.6784E-03  0.3480E+01
   -0.935003   11.04616  0.0000E+00  0.5251E-05  0.1904E-07  0.5621E-03  0.5833E-03  0.2311E+02
   -0.977504   11.04687  0.0000E+00  0.5073E-05  0.1670E-07  0.5818E-03  0.5035E-03  0.5043E+01
   -1.020005   11.04754  0.0000E+00  0.4933E-05  0.1497E-07  0.5986E-03  0.4368E-03  0.3310E+02
   -1.062506   11.04818  0.0000E+00  0.4822E-05  0.1368E-07  0.6110E-03  0.3796E-03  0.8892E+01
   -1.105008   11.04881  0.0000E+00  0.4732E-05  0.1270E-07  0.6187E-03  0.3299E-03  0.2266E+01
   -1.147508   11.04944  0.0000E+00  0.4658E-05  0.1198E-07  0.6225E-03  0.2849E-03  0.2479E+01
   -1.190009   11.05007  0.0000E+00  0.4595E-05  0.1145E-07  0.6228E-03  0.2425E-03  0.2764E+01
   -1.232510   11.05071  0.0000E+00  0.4540E-05  0.1109E-07  0.6195E-03  0.2035E-03  0.3102E+01
   -1.275010   11.05136  0.0000E+00  0.4490E-05  0.1086E-07  0.6119E-03  0.1707E-03  0.3882E+01
   -1.317511   11.05201  0.0000E+00  0.4443E-05  0.1077E-07  0.5995E-03  0.1438E-03  0.5016E+01
   -1.360011   11.05269  0.0000E+00  0.4397E-05  0.1081E-07  0.5813E-03  0.1218E-03  0.6724E+01
   -1.402510   11.05339  0.0000E+00  0.4347E-05  0.1102E-07  0.5561E-03  0.1039E-03  0.9810E+01
   -1.445010   11.05412  0.0000E+00  0.4296E-05  0.1141E-07  0.5242E-03  0.8826E-04  0.1483E+02
   -1.487509   11.05491  0.0000E+00  0.4241E-05  0.1208E-07  0.4898E-03  0.7338E-04  0.1916E+02
   -1.530008   11.05578  0.0000E+00  0.4171E-05  0.1334E-07  0.4170E-03  0.5900E-04  0.2491E+02
   -1.572506   11.05681  0.0000E+00  0.4050E-05  0.1646E-07  0.4454E-03  0.4551E-04  0.3393E+02
   -1.615005   11.05776  0.0000E+00  0.3607E-05  0.3317E-07  0.1745E-03  0.3761E-04 -0.4097E+07
   -1.657502   11.06351  0.0000E+00  0.2304E-05  0.1027E-06  0.5228E-04  0.2348E-04 -0.1666E+05
   -1.700000   11.07203  0.0000E+00  0.0000E+00  0.0000E+00  0.0000E+00  0.2815E-04  0.0000E+00
