 1 - depth, m
 2 - temperature, C
 3 - salinity, kg/kg
 4 - turbulent kinetic energy, m**2/s**2
 5 - dissipation rate, m**2/s**3
 6 - kinematic heat conductance, m**2/s
 7 - modulus of horizontal velocity, m/s
 8 - Richardson number, n/d
   -0.000000    0.00000  0.0000E+00  0.3189E-13  0.5206E-16  0.1000E-09  0.0000E+00  0.8514E+16
   -0.042497    0.12999  0.0000E+00  0.3189E-13  0.5206E-16  0.1000E-09  0.0000E+00  0.8583E+16
   -0.084995    0.26592  0.0000E+00  0.3189E-13  0.5206E-16  0.1000E-09  0.0000E+00  0.8582E+16
   -0.127494    0.40734  0.0000E+00  0.3189E-13  0.5206E-16  0.1000E-09  0.0000E+00  0.8244E+16
   -0.169992    0.54903  0.0000E+00  0.3189E-13  0.5206E-16  0.1000E-09  0.0000E+00  0.7900E+16
   -0.212491    0.69084  0.0000E+00  0.3189E-13  0.5206E-16  0.1000E-09  0.0000E+00  0.7552E+16
   -0.254991    0.83272  0.0000E+00  0.3189E-13  0.5206E-16  0.1000E-09  0.0000E+00  0.7201E+16
   -0.297490    0.97456  0.0000E+00  0.3189E-13  0.5206E-16  0.1000E-09  0.0000E+00  0.6838E+16
   -0.339990    1.11607  0.0000E+00  0.3189E-13  0.5206E-16  0.1000E-09  0.0000E+00  0.6464E+16
   -0.382490    1.25694  0.0000E+00  0.3189E-13  0.5206E-16  0.1000E-09  0.0000E+00  0.6091E+16
   -0.424991    1.39699  0.0000E+00  0.3189E-13  0.5206E-16  0.1000E-09  0.0000E+00  0.5712E+16
   -0.467491    1.53592  0.0000E+00  0.3189E-13  0.5206E-16  0.1000E-09  0.0000E+00  0.5337E+16
   -0.509992    1.67361  0.0000E+00  0.3189E-13  0.5206E-16  0.1000E-09  0.0000E+00  0.4985E+16
   -0.552493    1.81036  0.0000E+00  0.3189E-13  0.5206E-16  0.1000E-09  0.0000E+00  0.4639E+16
   -0.594994    1.94618  0.0000E+00  0.3189E-13  0.5206E-16  0.1000E-09  0.0000E+00  0.4305E+16
   -0.637495    2.08117  0.0000E+00  0.3189E-13  0.5206E-16  0.1000E-09  0.0000E+00  0.3986E+16
   -0.679996    2.21559  0.0000E+00  0.1254E-12  0.5206E-16  0.1000E-09  0.0000E+00  0.3668E+16
   -0.722498    2.34934  0.0000E+00  0.3592E-12  0.8477E-16  0.1000E-09  0.0000E+00  0.3358E+16
   -0.764999    2.48245  0.0000E+00  0.8330E-12  0.1685E-15  0.1000E-09  0.0000E+00  0.3049E+16
   -0.807501    2.61477  0.0000E+00  0.1786E-11  0.3420E-15  0.1000E-09  0.0000E+00  0.2734E+16
   -0.850002    2.74564  0.0000E+00  0.3680E-11  0.6839E-15  0.1000E-09  0.0000E+00  0.2420E+16
   -0.892504    2.87452  0.0000E+00  0.7472E-11  0.1356E-14  0.1000E-09  0.0000E+00  0.2130E+16
   -0.935005    3.00212  0.0000E+00  0.1492E-10  0.2651E-14  0.1000E-09  0.0000E+00  0.1851E+16
   -0.977507    3.12854  0.0000E+00  0.2954E-10  0.5139E-14  0.1000E-09  0.0000E+00  0.1578E+16
   -1.020008    3.25361  0.0000E+00  0.5794E-10  0.9872E-14  0.1000E-09  0.0000E+00  0.1306E+16
   -1.062510    3.37647  0.0000E+00  0.1127E-09  0.1881E-13  0.1000E-09  0.0000E+00  0.1045E+16
   -1.105011    3.49680  0.0000E+00  0.2177E-09  0.3561E-13  0.1408E-09  0.0000E+00  0.7949E+15
   -1.147512    3.61372  0.0000E+00  0.4143E-09  0.6643E-13  0.3721E-09  0.0000E+00  0.5612E+15
   -1.190013    3.72643  0.0000E+00  0.7820E-09  0.1230E-12  0.1103E-08  0.0000E+00  0.3501E+15
   -1.232514    3.83468  0.0000E+00  0.1499E-08  0.2312E-12  0.4490E-08  0.0000E+00  0.1615E+15
   -1.275014    3.93724  0.0000E+00  0.2813E-08  0.4271E-12  0.7921E-07  0.0000E+00  0.1655E+14
   -1.317515    4.00369  0.0000E+00  0.3688E-08  0.5650E-12  0.9908E-05  0.0000E+00 -0.4308E+12
   -1.360015    4.00521  0.0000E+00  0.4143E-08  0.6536E-12  0.1075E-04  0.0000E+00 -0.4557E+12
   -1.402515    4.00669  0.0000E+00  0.4557E-08  0.7565E-12  0.1088E-04  0.0000E+00 -0.4978E+12
   -1.445014    4.00819  0.0000E+00  0.4901E-08  0.8730E-12  0.1027E-04  0.0000E+00 -0.5581E+12
   -1.487513    4.00977  0.0000E+00  0.5189E-08  0.1019E-11  0.9351E-05  0.0000E+00 -0.6613E+12
   -1.530012    4.01150  0.0000E+00  0.5471E-08  0.1252E-11  0.8661E-05  0.0000E+00 -0.9077E+12
   -1.572511    4.01370  0.0000E+00  0.5771E-08  0.1730E-11  0.8213E-05  0.0000E+00 -0.1668E+13
   -1.615009    4.01735  0.0000E+00  0.5853E-08  0.3223E-11  0.3687E-05  0.0000E+00 -0.5125E+13
   -1.657507    4.02653  0.0000E+00  0.4794E-08  0.8306E-11  0.6785E-06  0.0000E+00 -0.3977E+14
   -1.700005    4.06816  0.0000E+00  0.0000E+00  0.0000E+00  0.0000E+00  0.0000E+00  0.0000E+00
