 1 - depth, m
 2 - temperature, C
 3 - salinity, kg/kg
 4 - turbulent kinetic energy, m**2/s**2
 5 - dissipation rate, m**2/s**3
 6 - kinematic heat conductance, m**2/s
 7 - modulus of horizontal velocity, m/s
 8 - Richardson number, n/d
   -0.000000    0.00000  0.0000E+00  0.3189E-13  0.5206E-16  0.1000E-09  0.0000E+00  0.6185E+16
   -0.042497    0.09396  0.0000E+00  0.3189E-13  0.5206E-16  0.1000E-09  0.0000E+00  0.6246E+16
   -0.084995    0.19139  0.0000E+00  0.3189E-13  0.5206E-16  0.1000E-09  0.0000E+00  0.6274E+16
   -0.127494    0.29200  0.0000E+00  0.3189E-13  0.5206E-16  0.1000E-09  0.0000E+00  0.6122E+16
   -0.169992    0.39305  0.0000E+00  0.3189E-13  0.5206E-16  0.1000E-09  0.0000E+00  0.5966E+16
   -0.212491    0.49452  0.0000E+00  0.3189E-13  0.5206E-16  0.1000E-09  0.0000E+00  0.5816E+16
   -0.254990    0.59655  0.0000E+00  0.3189E-13  0.5206E-16  0.1000E-09  0.0000E+00  0.5667E+16
   -0.297490    0.69919  0.0000E+00  0.3189E-13  0.5206E-16  0.1000E-09  0.0000E+00  0.5497E+16
   -0.339990    0.80207  0.0000E+00  0.3189E-13  0.5206E-16  0.1000E-09  0.0000E+00  0.5297E+16
   -0.382490    0.90464  0.0000E+00  0.3189E-13  0.5206E-16  0.1000E-09  0.0000E+00  0.5093E+16
   -0.424990    1.00678  0.0000E+00  0.3189E-13  0.5206E-16  0.1000E-09  0.0000E+00  0.4864E+16
   -0.467491    1.10787  0.0000E+00  0.3189E-13  0.5206E-16  0.1000E-09  0.0000E+00  0.4636E+16
   -0.509992    1.20782  0.0000E+00  0.3189E-13  0.5206E-16  0.1000E-09  0.0000E+00  0.4424E+16
   -0.552492    1.30683  0.0000E+00  0.3189E-13  0.5206E-16  0.1000E-09  0.0000E+00  0.4216E+16
   -0.594994    1.40489  0.0000E+00  0.3189E-13  0.5206E-16  0.1000E-09  0.0000E+00  0.4026E+16
   -0.637495    1.50230  0.0000E+00  0.3189E-13  0.5206E-16  0.1000E-09  0.0000E+00  0.3864E+16
   -0.679996    1.59969  0.0000E+00  0.3189E-13  0.5206E-16  0.1000E-09  0.0000E+00  0.3704E+16
   -0.722497    1.69710  0.0000E+00  0.3189E-13  0.5206E-16  0.1000E-09  0.0000E+00  0.3559E+16
   -0.764999    1.79492  0.0000E+00  0.3189E-13  0.5206E-16  0.1000E-09  0.0000E+00  0.3417E+16
   -0.807500    1.89329  0.0000E+00  0.3189E-13  0.5206E-16  0.1000E-09  0.0000E+00  0.3245E+16
   -0.850002    1.99137  0.0000E+00  0.3189E-13  0.5206E-16  0.1000E-09  0.0000E+00  0.3058E+16
   -0.892503    2.08859  0.0000E+00  0.3189E-13  0.5206E-16  0.1000E-09  0.0000E+00  0.2891E+16
   -0.935005    2.18547  0.0000E+00  0.3189E-13  0.5206E-16  0.1000E-09  0.0000E+00  0.2717E+16
   -0.977506    2.28170  0.0000E+00  0.3189E-13  0.5206E-16  0.1000E-09  0.0000E+00  0.2546E+16
   -1.020008    2.37725  0.0000E+00  0.3189E-13  0.5206E-16  0.1000E-09  0.0000E+00  0.2354E+16
   -1.062509    2.47107  0.0000E+00  0.3189E-13  0.5206E-16  0.1000E-09  0.0000E+00  0.2165E+16
   -1.105010    2.56296  0.0000E+00  0.3189E-13  0.5206E-16  0.1000E-09  0.0000E+00  0.1962E+16
   -1.147511    2.65181  0.0000E+00  0.3189E-13  0.5206E-16  0.1000E-09  0.0000E+00  0.1756E+16
   -1.190012    2.73680  0.0000E+00  0.3189E-13  0.5206E-16  0.1000E-09  0.0000E+00  0.1576E+16
   -1.232513    2.81846  0.0000E+00  0.3189E-13  0.5206E-16  0.1000E-09  0.0000E+00  0.1445E+16
   -1.275013    2.89883  0.0000E+00  0.3189E-13  0.5206E-16  0.1000E-09  0.0000E+00  0.1338E+16
   -1.317514    2.97903  0.0000E+00  0.3189E-13  0.5206E-16  0.1000E-09  0.0000E+00  0.1294E+16
   -1.360014    3.06335  0.0000E+00  0.3189E-13  0.5206E-16  0.1000E-09  0.0000E+00  0.1263E+16
   -1.402514    3.15398  0.0000E+00  0.3189E-13  0.5206E-16  0.1000E-09  0.0000E+00  0.1164E+16
   -1.445013    3.24737  0.0000E+00  0.4588E-13  0.8369E-16  0.1000E-09  0.0000E+00  0.1000E+16
   -1.487512    3.33844  0.0000E+00  0.2710E-12  0.4948E-15  0.1000E-09  0.0000E+00  0.8714E+15
   -1.530011    3.42995  0.0000E+00  0.1978E-11  0.3588E-14  0.1000E-09  0.0000E+00  0.8964E+15
   -1.572510    3.54361  0.0000E+00  0.1675E-10  0.3012E-13  0.1000E-09  0.0000E+00  0.1076E+16
   -1.615008    3.74259  0.0000E+00  0.1507E-09  0.2672E-12  0.1524E-08  0.0000E+00  0.4658E+15
   -1.657506    3.97731  0.0000E+00  0.1087E-08  0.1971E-11  0.2174E-06  0.0000E+00 -0.5654E+14
   -1.700004    4.07181  0.0000E+00  0.0000E+00  0.0000E+00  0.0000E+00  0.0000E+00  0.0000E+00
