 1 - depth, m
 2 - temperature, C
 3 - salinity, kg/kg
 4 - turbulent kinetic energy, m**2/s**2
 5 - dissipation rate, m**2/s**3
 6 - kinematic heat conductance, m**2/s
 7 - modulus of horizontal velocity, m/s
 8 - Richardson number, n/d
   -0.000000   11.75086  0.0000E+00  0.1191E-02  0.4778E-02  0.1877E-03  0.4499E+00  0.2199E-02
   -0.042497   11.81912  0.0000E+00  0.5535E-03  0.1669E-02  0.2545E-03  0.9857E-01 -0.3643E-02
   -0.084995   11.83479  0.0000E+00  0.3644E-03  0.7297E-03  0.3060E-03  0.5610E-01 -0.4379E-01
   -0.127493   11.84429  0.0000E+00  0.2660E-03  0.3962E-03  0.2380E-03  0.4390E-01 -0.2773E-01
   -0.169992   11.85049  0.0000E+00  0.1995E-03  0.2261E-03  0.2118E-03  0.3592E-01 -0.2017E-01
   -0.212490   11.85548  0.0000E+00  0.1510E-03  0.1404E-03  0.1990E-03  0.2939E-01 -0.8958E-03
   -0.254990   11.86028  0.0000E+00  0.1141E-03  0.8542E-04  0.1959E-03  0.2414E-01 -0.3689E+00
   -0.297489   11.86579  0.0000E+00  0.8905E-04  0.5301E-04  0.1973E-03  0.2010E-01  0.9643E+00
   -0.339989   11.86950  0.0000E+00  0.7147E-04  0.3184E-04  0.1994E-03  0.1733E-01  0.2972E+01
   -0.382489   11.87291  0.0000E+00  0.5839E-04  0.1791E-04  0.2052E-03  0.1482E-01  0.1578E+03
   -0.424989   11.87565  0.0000E+00  0.4876E-04  0.9399E-05  0.2099E-03  0.1298E-01  0.6057E+01
   -0.467489   11.87835  0.0000E+00  0.4144E-04  0.4713E-05  0.2166E-03  0.1109E-01  0.1357E+02
   -0.509990   11.88096  0.0000E+00  0.3580E-04  0.2376E-05  0.2280E-03  0.9369E-02  0.5232E+03
   -0.552490   11.88339  0.0000E+00  0.3140E-04  0.1293E-05  0.2409E-03  0.7907E-02  0.6115E+02
   -0.594991   11.88557  0.0000E+00  0.2785E-04  0.8008E-06  0.2566E-03  0.6627E-02  0.5278E+02
   -0.637492   11.88749  0.0000E+00  0.2484E-04  0.5563E-06  0.2760E-03  0.5570E-02  0.7491E+01
   -0.679994   11.88919  0.0000E+00  0.2227E-04  0.4158E-06  0.2960E-03  0.4742E-02  0.2415E+02
   -0.722495   11.89069  0.0000E+00  0.2004E-04  0.3236E-06  0.3185E-03  0.4059E-02  0.3094E+02
   -0.764996   11.89209  0.0000E+00  0.1810E-04  0.2577E-06  0.3452E-03  0.3507E-02  0.1935E+03
   -0.807497   11.89331  0.0000E+00  0.1640E-04  0.2079E-06  0.3749E-03  0.3069E-02  0.1078E+03
   -0.849999   11.89445  0.0000E+00  0.1493E-04  0.1695E-06  0.4044E-03  0.2701E-02  0.4785E+02
   -0.892500   11.89547  0.0000E+00  0.1364E-04  0.1388E-06  0.4381E-03  0.2387E-02  0.4073E+03
   -0.935001   11.89640  0.0000E+00  0.1253E-04  0.1145E-06  0.4663E-03  0.2118E-02 -0.1001E+03
   -0.977503   11.89724  0.0000E+00  0.1155E-04  0.9507E-07  0.4928E-03  0.1879E-02  0.5656E+03
   -1.020004   11.89801  0.0000E+00  0.1070E-04  0.7942E-07  0.5142E-03  0.1669E-02  0.6979E+02
   -1.062505   11.89873  0.0000E+00  0.9950E-05  0.6692E-07  0.5356E-03  0.1478E-02  0.5477E+02
   -1.105006   11.89939  0.0000E+00  0.9299E-05  0.5687E-07  0.5522E-03  0.1305E-02  0.9865E+02
   -1.147507   11.90002  0.0000E+00  0.8738E-05  0.4895E-07  0.5598E-03  0.1142E-02  0.4313E+02
   -1.190008   11.90063  0.0000E+00  0.8259E-05  0.4284E-07  0.5645E-03  0.9838E-03  0.4958E+02
   -1.232508   11.90121  0.0000E+00  0.7832E-05  0.3799E-07  0.5695E-03  0.8347E-03  0.4846E+02
   -1.275009   11.90178  0.0000E+00  0.7446E-05  0.3413E-07  0.5707E-03  0.7041E-03  0.6603E+03
   -1.317509   11.90234  0.0000E+00  0.7096E-05  0.3115E-07  0.5662E-03  0.5913E-03  0.9500E+02
   -1.360009   11.90289  0.0000E+00  0.6772E-05  0.2893E-07  0.5550E-03  0.4960E-03  0.1397E+03
   -1.402509   11.90345  0.0000E+00  0.6463E-05  0.2748E-07  0.5378E-03  0.4178E-03  0.2121E+03
   -1.445008   11.90402  0.0000E+00  0.6190E-05  0.2716E-07  0.5032E-03  0.3507E-03  0.3288E+03
   -1.487507   11.90464  0.0000E+00  0.5941E-05  0.2828E-07  0.4659E-03  0.2868E-03  0.4268E+03
   -1.530006   11.90531  0.0000E+00  0.5670E-05  0.3236E-07  0.4056E-03  0.2250E-03  0.5069E+03
   -1.572504   11.90621  0.0000E+00  0.5308E-05  0.4382E-07  0.3551E-03  0.1667E-03  0.1650E+04
   -1.615002   11.90708  0.0000E+00  0.4504E-05  0.9356E-07  0.2261E-03  0.1302E-03 -0.2081E+05
   -1.657500   11.90999  0.0000E+00  0.2925E-05  0.2446E-06  0.4713E-04  0.9277E-04 -0.1481E+09
   -1.699997   11.92238  0.0000E+00  0.0000E+00  0.0000E+00  0.0000E+00  0.1202E-03  0.0000E+00
