 1 - depth, m
 2 - temperature, C
 3 - salinity, kg/kg
 4 - turbulent kinetic energy, m**2/s**2
 5 - dissipation rate, m**2/s**3
 6 - kinematic heat conductance, m**2/s
 7 - modulus of horizontal velocity, m/s
 8 - Richardson number, n/d
   -0.000000   15.39050  0.0000E+00  0.3181E-03  0.3135E-03  0.7026E-04  0.1775E+00  0.1027E-01
   -0.042497   15.47995  0.0000E+00  0.1613E-03  0.1007E-03  0.1577E-03  0.4157E-01 -0.4098E-01
   -0.084995   15.49539  0.0000E+00  0.1122E-03  0.5090E-04  0.1289E-03  0.2735E-01 -0.6423E-01
   -0.127493   15.50751  0.0000E+00  0.8134E-04  0.2519E-04  0.1182E-03  0.2138E-01 -0.9735E-01
   -0.169992   15.51711  0.0000E+00  0.5954E-04  0.1165E-04  0.1179E-03  0.1704E-01  0.3652E+00
   -0.212491   15.52506  0.0000E+00  0.4393E-04  0.5729E-05  0.1259E-03  0.1364E-01  0.1245E+01
   -0.254990   15.53199  0.0000E+00  0.3264E-04  0.2728E-05  0.1387E-03  0.1098E-01  0.3821E+01
   -0.297489   15.53831  0.0000E+00  0.2488E-04  0.1324E-05  0.1558E-03  0.8960E-02  0.2255E+03
   -0.339989   15.54403  0.0000E+00  0.1977E-04  0.7055E-06  0.1783E-03  0.7319E-02  0.1132E+03
   -0.382489   15.54902  0.0000E+00  0.1635E-04  0.4221E-06  0.2106E-03  0.5934E-02  0.1282E+04
   -0.424989   15.55325  0.0000E+00  0.1405E-04  0.2744E-06  0.2490E-03  0.4893E-02  0.2603E+02
   -0.467490   15.55664  0.0000E+00  0.1246E-04  0.1896E-06  0.2943E-03  0.4056E-02  0.4300E+02
   -0.509990   15.55942  0.0000E+00  0.1131E-04  0.1379E-06  0.3417E-03  0.3371E-02  0.1055E+03
   -0.552491   15.56166  0.0000E+00  0.1047E-04  0.1044E-06  0.3899E-03  0.2803E-02  0.1742E+02
   -0.594992   15.56347  0.0000E+00  0.9815E-05  0.8197E-07  0.4347E-03  0.2319E-02  0.9386E+01
   -0.637493   15.56498  0.0000E+00  0.9296E-05  0.6616E-07  0.4807E-03  0.1908E-02  0.3880E+03
   -0.679994   15.56629  0.0000E+00  0.8878E-05  0.5465E-07  0.5250E-03  0.1571E-02  0.2348E+02
   -0.722496   15.56745  0.0000E+00  0.8536E-05  0.4604E-07  0.5727E-03  0.1292E-02  0.1981E+02
   -0.764997   15.56849  0.0000E+00  0.8258E-05  0.3952E-07  0.6201E-03  0.1071E-02  0.2577E+02
   -0.807498   15.56944  0.0000E+00  0.8027E-05  0.3450E-07  0.6609E-03  0.9009E-03  0.1500E+01
   -0.850000   15.57031  0.0000E+00  0.7839E-05  0.3067E-07  0.6945E-03  0.7659E-03  0.1356E+01
   -0.892501   15.57113  0.0000E+00  0.7679E-05  0.2768E-07  0.7237E-03  0.6573E-03  0.1278E+01
   -0.935002   15.57190  0.0000E+00  0.7544E-05  0.2537E-07  0.7475E-03  0.5694E-03  0.1285E+01
   -0.977504   15.57264  0.0000E+00  0.7426E-05  0.2358E-07  0.7666E-03  0.4960E-03  0.1289E+01
   -1.020005   15.57335  0.0000E+00  0.7321E-05  0.2220E-07  0.7802E-03  0.4348E-03  0.1329E+01
   -1.062506   15.57404  0.0000E+00  0.7225E-05  0.2115E-07  0.7886E-03  0.3822E-03  0.1353E+01
   -1.105007   15.57471  0.0000E+00  0.7136E-05  0.2037E-07  0.7914E-03  0.3368E-03  0.1407E+01
   -1.147508   15.57536  0.0000E+00  0.7053E-05  0.1984E-07  0.7888E-03  0.2961E-03  0.1482E+01
   -1.190009   15.57601  0.0000E+00  0.6974E-05  0.1952E-07  0.7803E-03  0.2586E-03  0.1549E+01
   -1.232510   15.57665  0.0000E+00  0.6895E-05  0.1939E-07  0.7663E-03  0.2244E-03  0.1651E+01
   -1.275010   15.57730  0.0000E+00  0.6814E-05  0.1946E-07  0.7462E-03  0.1953E-03  0.1974E+01
   -1.317510   15.57795  0.0000E+00  0.6727E-05  0.1976E-07  0.7219E-03  0.1705E-03  0.2528E+01
   -1.360010   15.57863  0.0000E+00  0.6627E-05  0.2037E-07  0.6822E-03  0.1491E-03  0.3416E+01
   -1.402510   15.57934  0.0000E+00  0.6505E-05  0.2148E-07  0.6477E-03  0.1302E-03  0.5147E+01
   -1.445010   15.58009  0.0000E+00  0.6366E-05  0.2337E-07  0.5807E-03  0.1131E-03  0.9776E+01
   -1.487509   15.58098  0.0000E+00  0.6201E-05  0.2648E-07  0.5530E-03  0.9456E-04  0.1498E+04
   -1.530008   15.58192  0.0000E+00  0.5965E-05  0.3324E-07  0.4467E-03  0.7689E-04 -0.7171E+05
   -1.572506   15.58370  0.0000E+00  0.5567E-05  0.4937E-07  0.4540E-03  0.5607E-04  0.7026E+05
   -1.615004   15.58446  0.0000E+00  0.4600E-05  0.1190E-06  0.2089E-03  0.4536E-04 -0.6021E+06
   -1.657502   15.59261  0.0000E+00  0.3017E-05  0.3385E-06  0.9018E-04  0.2875E-04 -0.1093E+06
   -1.699999   15.59855  0.0000E+00  0.0000E+00  0.0000E+00  0.0000E+00  0.4028E-04  0.0000E+00
