 1 - depth, m
 2 - temperature, C
 3 - salinity, kg/kg
 4 - turbulent kinetic energy, m**2/s**2
 5 - dissipation rate, m**2/s**3
 6 - kinematic heat conductance, m**2/s
 7 - modulus of horizontal velocity, m/s
 8 - Richardson number, n/d
   -0.000000    4.95801  0.0000E+00  0.2377E-02  0.1791E-01  0.1258E-03  0.7036E+00 -0.2977E-03
   -0.042498    4.92485  0.0000E+00  0.1124E-02  0.8109E-02  0.4495E-03  0.1439E+00  0.1803E-03
   -0.084996    4.91711  0.0000E+00  0.7576E-03  0.3776E-02  0.5054E-03  0.8160E-01  0.3124E-02
   -0.127495    4.91194  0.0000E+00  0.5743E-03  0.2334E-02  0.4561E-03  0.6528E-01  0.1595E-02
   -0.169994    4.90960  0.0000E+00  0.4387E-03  0.1290E-02  0.3870E-03  0.5388E-01  0.1215E-02
   -0.212493    4.90732  0.0000E+00  0.3411E-03  0.8386E-03  0.3419E-03  0.4434E-01  0.8224E-05
   -0.254993    4.90540  0.0000E+00  0.2641E-03  0.5224E-03  0.3220E-03  0.3698E-01  0.1055E+00
   -0.297493    4.90356  0.0000E+00  0.2105E-03  0.3532E-03  0.3252E-03  0.3190E-01  0.1135E+00
   -0.339994    4.90170  0.0000E+00  0.1702E-03  0.2373E-03  0.3000E-03  0.2833E-01 -0.1238E+00
   -0.382494    4.90025  0.0000E+00  0.1400E-03  0.1559E-03  0.2949E-03  0.2484E-01  0.4461E+01
   -0.424995    4.89894  0.0000E+00  0.1180E-03  0.9995E-04  0.2905E-03  0.2238E-01  0.4627E-01
   -0.467496    4.89776  0.0000E+00  0.1005E-03  0.6252E-04  0.2866E-03  0.1956E-01  0.4752E-01
   -0.509997    4.89672  0.0000E+00  0.8703E-04  0.3820E-04  0.2826E-03  0.1691E-01  0.1216E+00
   -0.552498    4.89575  0.0000E+00  0.7603E-04  0.2283E-04  0.2787E-03  0.1460E-01  0.2990E+00
   -0.595000    4.89482  0.0000E+00  0.6707E-04  0.1348E-04  0.2761E-03  0.1247E-01  0.8391E+00
   -0.637502    4.89394  0.0000E+00  0.5938E-04  0.7902E-05  0.2768E-03  0.1062E-01  0.3059E+01
   -0.680003    4.89310  0.0000E+00  0.5279E-04  0.4658E-05  0.2764E-03  0.9232E-02  0.1118E+02
   -0.722505    4.89227  0.0000E+00  0.4713E-04  0.2812E-05  0.2774E-03  0.8056E-02  0.7303E+02
   -0.765007    4.89145  0.0000E+00  0.4226E-04  0.1770E-05  0.2786E-03  0.7116E-02  0.1363E+06
   -0.807509    4.89068  0.0000E+00  0.3802E-04  0.1178E-05  0.2774E-03  0.6385E-02  0.1052E+05
   -0.850011    4.88993  0.0000E+00  0.3434E-04  0.8389E-06  0.2760E-03  0.5749E-02  0.1313E+05
   -0.892513    4.88923  0.0000E+00  0.3109E-04  0.6325E-06  0.2741E-03  0.5193E-02  0.1713E+05
   -0.935015    4.88858  0.0000E+00  0.2824E-04  0.4979E-06  0.2712E-03  0.4714E-02  0.3200E+06
   -0.977517    4.88791  0.0000E+00  0.2572E-04  0.4034E-06  0.2690E-03  0.4263E-02  0.1074E+07
   -1.020019    4.88727  0.0000E+00  0.2352E-04  0.3338E-06  0.2659E-03  0.3863E-02  0.2679E+07
   -1.062520    4.88668  0.0000E+00  0.2158E-04  0.2800E-06  0.2630E-03  0.3491E-02  0.3561E+07
   -1.105022    4.88616  0.0000E+00  0.1987E-04  0.2379E-06  0.2590E-03  0.3147E-02  0.2088E+08
   -1.147524    4.88571  0.0000E+00  0.1838E-04  0.2047E-06  0.2539E-03  0.2816E-02  0.1706E+05
   -1.190025    4.88532  0.0000E+00  0.1709E-04  0.1788E-06  0.2498E-03  0.2489E-02 -0.5332E+05
   -1.232526    4.88502  0.0000E+00  0.1592E-04  0.1580E-06  0.2481E-03  0.2177E-02 -0.6926E+06
   -1.275027    4.88479  0.0000E+00  0.1486E-04  0.1413E-06  0.2454E-03  0.1901E-02 -0.6030E+07
   -1.317528    4.88462  0.0000E+00  0.1388E-04  0.1281E-06  0.2408E-03  0.1656E-02 -0.2922E+08
   -1.360028    4.88448  0.0000E+00  0.1296E-04  0.1184E-06  0.2348E-03  0.1440E-02 -0.1814E+09
   -1.402529    4.88437  0.0000E+00  0.1206E-04  0.1123E-06  0.2249E-03  0.1254E-02 -0.9022E+09
   -1.445029    4.88429  0.0000E+00  0.1126E-04  0.1115E-06  0.2125E-03  0.1083E-02 -0.2661E+10
   -1.487528    4.88425  0.0000E+00  0.1056E-04  0.1180E-06  0.1986E-03  0.9150E-03 -0.1012E+11
   -1.530028    4.88427  0.0000E+00  0.9899E-05  0.1382E-06  0.1821E-03  0.7467E-03 -0.6175E+11
   -1.572527    4.88437  0.0000E+00  0.9130E-05  0.1985E-06  0.1572E-03  0.5921E-03 -0.3631E+12
   -1.615026    4.88472  0.0000E+00  0.7583E-05  0.4164E-06  0.9682E-04  0.4855E-03 -0.1162E+13
   -1.657524    4.88571  0.0000E+00  0.4684E-05  0.1080E-05  0.2016E-04  0.3774E-03 -0.1196E+14
   -1.700022    4.89677  0.0000E+00  0.0000E+00  0.0000E+00  0.0000E+00  0.4831E-03  0.0000E+00
