 1 - depth, m
 2 - temperature, C
 3 - salinity, kg/kg
 4 - turbulent kinetic energy, m**2/s**2
 5 - dissipation rate, m**2/s**3
 6 - kinematic heat conductance, m**2/s
 7 - modulus of horizontal velocity, m/s
 8 - Richardson number, n/d
   -0.000000    9.87231  0.0000E+00  0.3997E-03  0.4014E-03  0.7625E-04  0.1957E+00  0.4580E-03
   -0.042497    9.92408  0.0000E+00  0.2047E-03  0.1058E-03  0.2076E-03  0.4419E-01 -0.1927E-01
   -0.084995    9.93290  0.0000E+00  0.1478E-03  0.5326E-04  0.1819E-03  0.2909E-01 -0.3017E-01
   -0.127493    9.93946  0.0000E+00  0.1135E-03  0.3081E-04  0.1631E-03  0.2343E-01 -0.5139E-01
   -0.169992    9.94460  0.0000E+00  0.8775E-04  0.1787E-04  0.1522E-03  0.1927E-01 -0.5151E-01
   -0.212491    9.94922  0.0000E+00  0.6785E-04  0.1052E-04  0.1478E-03  0.1588E-01 -0.8602E-01
   -0.254990    9.95348  0.0000E+00  0.5276E-04  0.6229E-05  0.1504E-03  0.1321E-01  0.9792E+02
   -0.297489    9.95745  0.0000E+00  0.4159E-04  0.3718E-05  0.1583E-03  0.1116E-01  0.2993E+02
   -0.339989    9.96108  0.0000E+00  0.3341E-04  0.2274E-05  0.1691E-03  0.9519E-02  0.1038E+02
   -0.382489    9.96424  0.0000E+00  0.2737E-04  0.1417E-05  0.1813E-03  0.8099E-02  0.1022E+02
   -0.424989    9.96703  0.0000E+00  0.2288E-04  0.8921E-06  0.1924E-03  0.6970E-02  0.4528E+01
   -0.467490    9.96952  0.0000E+00  0.1945E-04  0.5704E-06  0.2048E-03  0.5938E-02  0.7394E+01
   -0.509990    9.97179  0.0000E+00  0.1679E-04  0.3784E-06  0.2193E-03  0.5013E-02  0.9544E+02
   -0.552491    9.97386  0.0000E+00  0.1467E-04  0.2632E-06  0.2350E-03  0.4200E-02  0.1989E+01
   -0.594992    9.97577  0.0000E+00  0.1294E-04  0.1918E-06  0.2539E-03  0.3481E-02  0.2202E+02
   -0.637493    9.97749  0.0000E+00  0.1148E-04  0.1441E-06  0.2741E-03  0.2871E-02  0.2666E+02
   -0.679994    9.97904  0.0000E+00  0.1024E-04  0.1108E-06  0.2983E-03  0.2375E-02  0.1650E+03
   -0.722496    9.98045  0.0000E+00  0.9200E-05  0.8649E-07  0.3306E-03  0.1968E-02  0.3037E+02
   -0.764997    9.98169  0.0000E+00  0.8314E-05  0.6831E-07  0.3635E-03  0.1646E-02  0.2468E+02
   -0.807498    9.98281  0.0000E+00  0.7558E-05  0.5442E-07  0.3938E-03  0.1394E-02  0.1191E+03
   -0.850000    9.98383  0.0000E+00  0.6924E-05  0.4387E-07  0.4203E-03  0.1189E-02  0.2205E+02
   -0.892501    9.98476  0.0000E+00  0.6387E-05  0.3572E-07  0.4467E-03  0.1019E-02  0.2632E+03
   -0.935002    9.98562  0.0000E+00  0.5939E-05  0.2948E-07  0.4709E-03  0.8793E-03  0.6265E+02
   -0.977504    9.98641  0.0000E+00  0.5563E-05  0.2467E-07  0.4913E-03  0.7597E-03  0.2460E+02
   -1.020005    9.98715  0.0000E+00  0.5247E-05  0.2095E-07  0.5090E-03  0.6581E-03  0.4374E+01
   -1.062506    9.98784  0.0000E+00  0.4983E-05  0.1807E-07  0.5243E-03  0.5693E-03  0.9162E+01
   -1.105007    9.98849  0.0000E+00  0.4759E-05  0.1584E-07  0.5361E-03  0.4918E-03  0.2635E+02
   -1.147508    9.98911  0.0000E+00  0.4574E-05  0.1415E-07  0.5438E-03  0.4213E-03  0.8896E+01
   -1.190009    9.98970  0.0000E+00  0.4421E-05  0.1289E-07  0.5482E-03  0.3552E-03  0.5291E+01
   -1.232510    9.99027  0.0000E+00  0.4290E-05  0.1193E-07  0.5510E-03  0.2944E-03  0.1405E+02
   -1.275010    9.99083  0.0000E+00  0.4175E-05  0.1121E-07  0.5500E-03  0.2434E-03  0.4966E+01
   -1.317510    9.99138  0.0000E+00  0.4074E-05  0.1070E-07  0.5439E-03  0.2013E-03  0.3628E+02
   -1.360010    9.99192  0.0000E+00  0.3983E-05  0.1038E-07  0.5329E-03  0.1672E-03  0.8323E+01
   -1.402510    9.99248  0.0000E+00  0.3896E-05  0.1022E-07  0.5173E-03  0.1401E-03  0.1215E+02
   -1.445010    9.99304  0.0000E+00  0.3817E-05  0.1030E-07  0.4952E-03  0.1174E-03  0.1774E+02
   -1.487509    9.99362  0.0000E+00  0.3744E-05  0.1067E-07  0.4700E-03  0.9634E-04  0.3100E+02
   -1.530008    9.99424  0.0000E+00  0.3660E-05  0.1172E-07  0.4247E-03  0.7645E-04 -0.8033E+02
   -1.572506    9.99498  0.0000E+00  0.3529E-05  0.1446E-07  0.3703E-03  0.5722E-04  0.1550E+03
   -1.615004    9.99576  0.0000E+00  0.3195E-05  0.2579E-07  0.2555E-03  0.4510E-04 -0.7089E+04
   -1.657502    9.99777  0.0000E+00  0.2116E-05  0.7958E-07  0.2847E-04  0.3235E-04 -0.2425E+06
   -1.699999   10.01134  0.0000E+00  0.0000E+00  0.0000E+00  0.0000E+00  0.3815E-04  0.0000E+00
