 1 - depth, m
 2 - temperature, C
 3 - salinity, kg/kg
 4 - turbulent kinetic energy, m**2/s**2
 5 - dissipation rate, m**2/s**3
 6 - kinematic heat conductance, m**2/s
 7 - modulus of horizontal velocity, m/s
 8 - Richardson number, n/d
   -0.000000    7.31991  0.0000E+00  0.1270E-03  0.6823E-04  0.6439E-04  0.1027E+00  0.1482E-02
   -0.042497    7.37428  0.0000E+00  0.6810E-04  0.2054E-04  0.7724E-04  0.2889E-01 -0.1243E-01
   -0.084995    7.38510  0.0000E+00  0.4655E-04  0.8307E-05  0.7125E-04  0.1952E-01 -0.3344E-01
   -0.127493    7.39436  0.0000E+00  0.3297E-04  0.3586E-05  0.7014E-04  0.1471E-01 -0.3459E-01
   -0.169992    7.40261  0.0000E+00  0.2374E-04  0.1671E-05  0.7010E-04  0.1124E-01  0.1742E+01
   -0.212490    7.41046  0.0000E+00  0.1716E-04  0.7895E-06  0.7064E-04  0.8532E-02  0.2732E+00
   -0.254990    7.41818  0.0000E+00  0.1259E-04  0.3978E-06  0.7305E-04  0.6447E-02  0.1144E+02
   -0.297489    7.42553  0.0000E+00  0.9513E-05  0.2177E-06  0.7713E-04  0.4928E-02  0.3707E+02
   -0.339989    7.43223  0.0000E+00  0.7487E-05  0.1293E-06  0.8459E-04  0.3824E-02  0.6568E+00
   -0.382489    7.43812  0.0000E+00  0.6111E-05  0.8158E-07  0.9916E-04  0.2977E-02  0.4610E+04
   -0.424989    7.44313  0.0000E+00  0.5183E-05  0.5427E-07  0.1240E-03  0.2348E-02  0.3264E+02
   -0.467489    7.44720  0.0000E+00  0.4539E-05  0.3783E-07  0.1653E-03  0.1851E-02  0.3186E+03
   -0.509990    7.45034  0.0000E+00  0.4086E-05  0.2761E-07  0.2078E-03  0.1468E-02  0.9140E+02
   -0.552491    7.45283  0.0000E+00  0.3757E-05  0.2099E-07  0.2395E-03  0.1174E-02  0.1338E+02
   -0.594991    7.45490  0.0000E+00  0.3513E-05  0.1656E-07  0.2725E-03  0.9334E-03  0.4871E+01
   -0.637492    7.45665  0.0000E+00  0.3326E-05  0.1346E-07  0.3009E-03  0.7414E-03  0.1289E+02
   -0.679994    7.45818  0.0000E+00  0.3184E-05  0.1125E-07  0.3275E-03  0.5928E-03  0.5574E+01
   -0.722495    7.45953  0.0000E+00  0.3076E-05  0.9665E-08  0.3524E-03  0.4778E-03  0.3715E+03
   -0.764996    7.46075  0.0000E+00  0.2995E-05  0.8490E-08  0.3733E-03  0.3916E-03  0.4151E+01
   -0.807497    7.46188  0.0000E+00  0.2932E-05  0.7592E-08  0.3923E-03  0.3273E-03  0.2155E+01
   -0.849999    7.46294  0.0000E+00  0.2884E-05  0.6904E-08  0.4104E-03  0.2773E-03  0.2203E+01
   -0.892500    7.46393  0.0000E+00  0.2847E-05  0.6363E-08  0.4279E-03  0.2375E-03  0.6977E+01
   -0.935001    7.46487  0.0000E+00  0.2819E-05  0.5938E-08  0.4445E-03  0.2054E-03  0.2930E+01
   -0.977503    7.46577  0.0000E+00  0.2797E-05  0.5601E-08  0.4595E-03  0.1787E-03  0.3400E+01
   -1.020004    7.46662  0.0000E+00  0.2778E-05  0.5328E-08  0.4727E-03  0.1563E-03  0.4010E+01
   -1.062505    7.46744  0.0000E+00  0.2763E-05  0.5105E-08  0.4843E-03  0.1368E-03  0.4556E+01
   -1.105006    7.46824  0.0000E+00  0.2749E-05  0.4925E-08  0.4941E-03  0.1198E-03  0.5156E+01
   -1.147507    7.46900  0.0000E+00  0.2736E-05  0.4785E-08  0.5017E-03  0.1044E-03  0.5817E+01
   -1.190008    7.46974  0.0000E+00  0.2725E-05  0.4682E-08  0.5066E-03  0.9008E-04  0.6473E+01
   -1.232508    7.47047  0.0000E+00  0.2714E-05  0.4609E-08  0.5089E-03  0.7692E-04  0.7413E+01
   -1.275009    7.47118  0.0000E+00  0.2702E-05  0.4562E-08  0.5085E-03  0.6548E-04  0.9484E+01
   -1.317509    7.47189  0.0000E+00  0.2689E-05  0.4544E-08  0.5050E-03  0.5557E-04  0.1256E+02
   -1.360009    7.47259  0.0000E+00  0.2674E-05  0.4559E-08  0.4972E-03  0.4703E-04  0.1686E+02
   -1.402509    7.47331  0.0000E+00  0.2657E-05  0.4616E-08  0.4848E-03  0.3978E-04  0.2445E+02
   -1.445008    7.47403  0.0000E+00  0.2638E-05  0.4721E-08  0.4683E-03  0.3337E-04  0.3581E+02
   -1.487507    7.47477  0.0000E+00  0.2619E-05  0.4891E-08  0.4464E-03  0.2737E-04  0.4402E+02
   -1.530006    7.47554  0.0000E+00  0.2594E-05  0.5200E-08  0.4147E-03  0.2176E-04  0.5227E+02
   -1.572504    7.47636  0.0000E+00  0.2551E-05  0.5924E-08  0.3484E-03  0.1690E-04  0.9689E+02
   -1.615003    7.47734  0.0000E+00  0.2435E-05  0.8376E-08  0.2682E-03  0.1334E-04  0.4870E+03
   -1.657500    7.47863  0.0000E+00  0.1680E-05  0.3063E-07  0.1443E-04  0.1073E-04 -0.1186E+06
   -1.699998    7.50253  0.0000E+00  0.0000E+00  0.0000E+00  0.0000E+00  0.1074E-04  0.0000E+00
