 1 - depth, m
 2 - temperature, C
 3 - salinity, kg/kg
 4 - turbulent kinetic energy, m**2/s**2
 5 - dissipation rate, m**2/s**3
 6 - kinematic heat conductance, m**2/s
 7 - modulus of horizontal velocity, m/s
 8 - Richardson number, n/d
   -0.000000    5.37909  0.0000E+00  0.5344E-03  0.1160E-02  0.8976E-04  0.2997E+00 -0.3891E-03
   -0.042497    5.38835  0.0000E+00  0.2750E-03  0.4253E-03  0.2139E-03  0.7032E-01 -0.5566E-03
   -0.084995    5.39113  0.0000E+00  0.1832E-03  0.1604E-03  0.1730E-03  0.4263E-01 -0.1497E-02
   -0.127494    5.39258  0.0000E+00  0.1330E-03  0.6615E-04  0.1528E-03  0.3302E-01 -0.6721E-01
   -0.169992    5.39362  0.0000E+00  0.9942E-04  0.2875E-04  0.1429E-03  0.2644E-01 -0.7726E-03
   -0.212491    5.39478  0.0000E+00  0.7463E-04  0.1336E-04  0.1384E-03  0.2106E-01 -0.4392E-02
   -0.254991    5.39600  0.0000E+00  0.5698E-04  0.6620E-05  0.1378E-03  0.1686E-01  0.1801E+01
   -0.297490    5.39708  0.0000E+00  0.4499E-04  0.3630E-05  0.1382E-03  0.1396E-01  0.4790E-01
   -0.339990    5.39783  0.0000E+00  0.3654E-04  0.2141E-05  0.1388E-03  0.1187E-01  0.3282E+01
   -0.382490    5.39841  0.0000E+00  0.3030E-04  0.1326E-05  0.1415E-03  0.1013E-01  0.7792E+01
   -0.424991    5.39891  0.0000E+00  0.2570E-04  0.8598E-06  0.1431E-03  0.8766E-02  0.5513E+01
   -0.467491    5.39940  0.0000E+00  0.2214E-04  0.5778E-06  0.1452E-03  0.7503E-02  0.3199E+01
   -0.509992    5.39987  0.0000E+00  0.1925E-04  0.4017E-06  0.1475E-03  0.6375E-02  0.4361E+01
   -0.552493    5.40032  0.0000E+00  0.1684E-04  0.2908E-06  0.1489E-03  0.5376E-02  0.1624E+04
   -0.594994    5.40077  0.0000E+00  0.1477E-04  0.2181E-06  0.1504E-03  0.4477E-02  0.2613E+03
   -0.637495    5.40121  0.0000E+00  0.1292E-04  0.1667E-06  0.1528E-03  0.3697E-02  0.3980E+02
   -0.679997    5.40164  0.0000E+00  0.1129E-04  0.1287E-06  0.1542E-03  0.3057E-02  0.3520E+02
   -0.722498    5.40206  0.0000E+00  0.9851E-05  0.9984E-07  0.1556E-03  0.2524E-02  0.3181E+02
   -0.764999    5.40246  0.0000E+00  0.8583E-05  0.7755E-07  0.1567E-03  0.2095E-02  0.5483E+03
   -0.807501    5.40286  0.0000E+00  0.7471E-05  0.6019E-07  0.1568E-03  0.1757E-02  0.1530E+05
   -0.850002    5.40325  0.0000E+00  0.6514E-05  0.4685E-07  0.1568E-03  0.1479E-02  0.1401E+05
   -0.892504    5.40365  0.0000E+00  0.5687E-05  0.3650E-07  0.1566E-03  0.1247E-02  0.5038E+03
   -0.935005    5.40405  0.0000E+00  0.4983E-05  0.2857E-07  0.1566E-03  0.1055E-02  0.8499E+03
   -0.977507    5.40446  0.0000E+00  0.4383E-05  0.2247E-07  0.1571E-03  0.8899E-03  0.2002E+05
   -1.020008    5.40488  0.0000E+00  0.3874E-05  0.1778E-07  0.1582E-03  0.7505E-03  0.1869E+05
   -1.062510    5.40531  0.0000E+00  0.3445E-05  0.1418E-07  0.1601E-03  0.6291E-03  0.2675E+04
   -1.105011    5.40575  0.0000E+00  0.3084E-05  0.1141E-07  0.1622E-03  0.5248E-03  0.2488E+04
   -1.147512    5.40621  0.0000E+00  0.2787E-05  0.9332E-08  0.1647E-03  0.4311E-03  0.1388E+05
   -1.190013    5.40668  0.0000E+00  0.2548E-05  0.7783E-08  0.1678E-03  0.3441E-03  0.6254E+04
   -1.232514    5.40717  0.0000E+00  0.2347E-05  0.6592E-08  0.1706E-03  0.2663E-03  0.2951E+04
   -1.275014    5.40766  0.0000E+00  0.2177E-05  0.5665E-08  0.1730E-03  0.2039E-03  0.1039E+05
   -1.317515    5.40817  0.0000E+00  0.2032E-05  0.4941E-08  0.1747E-03  0.1545E-03  0.8487E+04
   -1.360015    5.40868  0.0000E+00  0.1907E-05  0.4370E-08  0.1751E-03  0.1164E-03  0.4549E+07
   -1.402515    5.40920  0.0000E+00  0.1794E-05  0.3913E-08  0.1737E-03  0.8838E-04  0.2860E+05
   -1.445014    5.40974  0.0000E+00  0.1704E-05  0.3601E-08  0.1711E-03  0.6665E-04  0.5734E+05
   -1.487514    5.41030  0.0000E+00  0.1635E-05  0.3427E-08  0.1663E-03  0.4820E-04  0.5110E+06
   -1.530013    5.41089  0.0000E+00  0.1578E-05  0.3390E-08  0.1565E-03  0.3271E-04  0.2961E+06
   -1.572511    5.41155  0.0000E+00  0.1513E-05  0.3583E-08  0.1367E-03  0.2123E-04  0.2756E+06
   -1.615009    5.41243  0.0000E+00  0.1372E-05  0.4621E-08  0.8607E-04  0.1448E-04  0.2528E+08
   -1.657507    5.41408  0.0000E+00  0.8495E-06  0.1301E-07  0.8555E-05  0.9446E-05 -0.4072E+11
   -1.700005    5.43341  0.0000E+00  0.0000E+00  0.0000E+00  0.0000E+00  0.9460E-05  0.0000E+00
