 1 - depth, m
 2 - temperature, C
 3 - salinity, kg/kg
 4 - turbulent kinetic energy, m**2/s**2
 5 - dissipation rate, m**2/s**3
 6 - kinematic heat conductance, m**2/s
 7 - modulus of horizontal velocity, m/s
 8 - Richardson number, n/d
   -0.000000    0.00000  0.0000E+00  0.5059E-09  0.6202E-12  0.1000E-09  0.0000E+00  0.3189E+17
   -0.042498    0.51355  0.0000E+00  0.2036E-08  0.4945E-12  0.1000E-09  0.0000E+00  0.2644E+17
   -0.084996    1.01026  0.0000E+00  0.4878E-08  0.6439E-12  0.1048E-09  0.0000E+00  0.2187E+17
   -0.127494    1.49930  0.0000E+00  0.9499E-08  0.1005E-11  0.1767E-09  0.0000E+00  0.1794E+17
   -0.169993    1.99240  0.0000E+00  0.1694E-07  0.1648E-11  0.3702E-09  0.0000E+00  0.1410E+17
   -0.212492    2.49442  0.0000E+00  0.2908E-07  0.2728E-11  0.8573E-09  0.0000E+00  0.1014E+17
   -0.254992    3.00797  0.0000E+00  0.4907E-07  0.4521E-11  0.2451E-08  0.0000E+00  0.5951E+16
   -0.297492    3.53156  0.0000E+00  0.8169E-07  0.7448E-11  0.1581E-07  0.0000E+00  0.1625E+16
   -0.339992    4.02655  0.0000E+00  0.8227E-07  0.7505E-11  0.2935E-03  0.0000E+00 -0.1659E+12
   -0.382492    4.02681  0.0000E+00  0.8255E-07  0.7537E-11  0.2896E-03  0.0000E+00 -0.1644E+12
   -0.424993    4.02708  0.0000E+00  0.8282E-07  0.7572E-11  0.2900E-03  0.0000E+00 -0.1646E+12
   -0.467494    4.02735  0.0000E+00  0.8308E-07  0.7610E-11  0.2904E-03  0.0000E+00 -0.1646E+12
   -0.509995    4.02761  0.0000E+00  0.8332E-07  0.7652E-11  0.2905E-03  0.0000E+00 -0.1651E+12
   -0.552496    4.02788  0.0000E+00  0.8355E-07  0.7698E-11  0.2904E-03  0.0000E+00 -0.1651E+12
   -0.594997    4.02814  0.0000E+00  0.8376E-07  0.7747E-11  0.2901E-03  0.0000E+00 -0.1663E+12
   -0.637499    4.02840  0.0000E+00  0.8396E-07  0.7802E-11  0.2895E-03  0.0000E+00 -0.1672E+12
   -0.680000    4.02866  0.0000E+00  0.8416E-07  0.7864E-11  0.2885E-03  0.0000E+00 -0.1691E+12
   -0.722502    4.02892  0.0000E+00  0.8435E-07  0.7934E-11  0.2874E-03  0.0000E+00 -0.1710E+12
   -0.765004    4.02919  0.0000E+00  0.8454E-07  0.8014E-11  0.2857E-03  0.0000E+00 -0.1743E+12
   -0.807505    4.02945  0.0000E+00  0.8472E-07  0.8107E-11  0.2838E-03  0.0000E+00 -0.1772E+12
   -0.850007    4.02972  0.0000E+00  0.8490E-07  0.8210E-11  0.2815E-03  0.0000E+00 -0.1814E+12
   -0.892509    4.03000  0.0000E+00  0.8507E-07  0.8326E-11  0.2788E-03  0.0000E+00 -0.1846E+12
   -0.935011    4.03028  0.0000E+00  0.8522E-07  0.8455E-11  0.2758E-03  0.0000E+00 -0.1883E+12
   -0.977512    4.03056  0.0000E+00  0.8536E-07  0.8598E-11  0.2724E-03  0.0000E+00 -0.1919E+12
   -1.020014    4.03084  0.0000E+00  0.8549E-07  0.8755E-11  0.2685E-03  0.0000E+00 -0.1966E+12
   -1.062515    4.03113  0.0000E+00  0.8560E-07  0.8929E-11  0.2643E-03  0.0000E+00 -0.2013E+12
   -1.105017    4.03143  0.0000E+00  0.8570E-07  0.9120E-11  0.2597E-03  0.0000E+00 -0.2070E+12
   -1.147518    4.03172  0.0000E+00  0.8577E-07  0.9326E-11  0.2548E-03  0.0000E+00 -0.2125E+12
   -1.190019    4.03203  0.0000E+00  0.8582E-07  0.9550E-11  0.2495E-03  0.0000E+00 -0.2197E+12
   -1.232520    4.03234  0.0000E+00  0.8586E-07  0.9808E-11  0.2436E-03  0.0000E+00 -0.2278E+12
   -1.275021    4.03267  0.0000E+00  0.8587E-07  0.1012E-10  0.2367E-03  0.0000E+00 -0.2383E+12
   -1.317522    4.03300  0.0000E+00  0.8586E-07  0.1049E-10  0.2288E-03  0.0000E+00 -0.2501E+12
   -1.360022    4.03335  0.0000E+00  0.8581E-07  0.1097E-10  0.2192E-03  0.0000E+00 -0.2667E+12
   -1.402522    4.03372  0.0000E+00  0.8573E-07  0.1161E-10  0.2080E-03  0.0000E+00 -0.2853E+12
   -1.445022    4.03411  0.0000E+00  0.8562E-07  0.1238E-10  0.1961E-03  0.0000E+00 -0.3066E+12
   -1.487522    4.03452  0.0000E+00  0.8546E-07  0.1334E-10  0.1828E-03  0.0000E+00 -0.3328E+12
   -1.530021    4.03497  0.0000E+00  0.8521E-07  0.1480E-10  0.1651E-03  0.0000E+00 -0.3829E+12
   -1.572520    4.03548  0.0000E+00  0.8469E-07  0.1791E-10  0.1414E-03  0.0000E+00 -0.4997E+12
   -1.615018    4.03613  0.0000E+00  0.8251E-07  0.3112E-10  0.6811E-04  0.0000E+00 -0.1152E+13
   -1.657516    4.03765  0.0000E+00  0.5946E-07  0.1906E-09  0.2657E-05  0.0000E+00 -0.4039E+14
   -1.700014    4.07485  0.0000E+00  0.0000E+00  0.0000E+00  0.0000E+00  0.0000E+00  0.0000E+00
