 1 - depth, m
 2 - temperature, C
 3 - salinity, kg/kg
 4 - turbulent kinetic energy, m**2/s**2
 5 - dissipation rate, m**2/s**3
 6 - kinematic heat conductance, m**2/s
 7 - modulus of horizontal velocity, m/s
 8 - Richardson number, n/d
   -0.000000   16.56785  0.0000E+00  0.4159E-04  0.8093E-05  0.2965E-04  0.4027E-01 -0.5651E-02
   -0.042497   16.62973  0.0000E+00  0.2530E-04  0.2267E-05  0.5374E-04  0.1495E-01 -0.6010E-01
   -0.084995   16.64935  0.0000E+00  0.1885E-04  0.1002E-05  0.6932E-04  0.9909E-02 -0.1301E+00
   -0.127493   16.66206  0.0000E+00  0.1487E-04  0.5110E-06  0.9133E-04  0.7083E-02 -0.2191E+00
   -0.169991   16.67126  0.0000E+00  0.1228E-04  0.2863E-06  0.1455E-03  0.5232E-02  0.2396E+03
   -0.212490   16.67755  0.0000E+00  0.1065E-04  0.1754E-06  0.2585E-03  0.3997E-02  0.1337E+04
   -0.254989   16.68149  0.0000E+00  0.9645E-05  0.1164E-06  0.3154E-03  0.3226E-02  0.2981E+02
   -0.297488   16.68446  0.0000E+00  0.9035E-05  0.8274E-07  0.3735E-03  0.2666E-02  0.1066E+02
   -0.339988   16.68673  0.0000E+00  0.8712E-05  0.6333E-07  0.4325E-03  0.2250E-02  0.8887E+01
   -0.382488   16.68855  0.0000E+00  0.8566E-05  0.5133E-07  0.4959E-03  0.1920E-02  0.6711E+02
   -0.424988   16.69006  0.0000E+00  0.8533E-05  0.4351E-07  0.5610E-03  0.1654E-02  0.2814E+01
   -0.467488   16.69134  0.0000E+00  0.8567E-05  0.3808E-07  0.6180E-03  0.1422E-02  0.1770E+01
   -0.509989   16.69248  0.0000E+00  0.8634E-05  0.3406E-07  0.6658E-03  0.1215E-02  0.1792E+01
   -0.552489   16.69354  0.0000E+00  0.8714E-05  0.3099E-07  0.7145E-03  0.1029E-02  0.1800E+01
   -0.594990   16.69451  0.0000E+00  0.8792E-05  0.2864E-07  0.7709E-03  0.8638E-03  0.1745E+01
   -0.637491   16.69541  0.0000E+00  0.8861E-05  0.2681E-07  0.8449E-03  0.7206E-03  0.1623E+01
   -0.679992   16.69622  0.0000E+00  0.8918E-05  0.2540E-07  0.9323E-03  0.6028E-03  0.1523E+01
   -0.722493   16.69694  0.0000E+00  0.8960E-05  0.2435E-07  0.1010E-02  0.5078E-03  0.1405E+01
   -0.764994   16.69760  0.0000E+00  0.8988E-05  0.2357E-07  0.1057E-02  0.4339E-03  0.1289E+01
   -0.807495   16.69822  0.0000E+00  0.9005E-05  0.2302E-07  0.1085E-02  0.3776E-03  0.1219E+01
   -0.849997   16.69881  0.0000E+00  0.9012E-05  0.2266E-07  0.1100E-02  0.3336E-03  0.1158E+01
   -0.892498   16.69939  0.0000E+00  0.9010E-05  0.2246E-07  0.1105E-02  0.2986E-03  0.1102E+01
   -0.934999   16.69996  0.0000E+00  0.9000E-05  0.2238E-07  0.1103E-02  0.2703E-03  0.1067E+01
   -0.977500   16.70054  0.0000E+00  0.8984E-05  0.2240E-07  0.1096E-02  0.2468E-03  0.1041E+01
   -1.020002   16.70112  0.0000E+00  0.8962E-05  0.2253E-07  0.1084E-02  0.2269E-03  0.1090E+01
   -1.062503   16.70171  0.0000E+00  0.8932E-05  0.2276E-07  0.1066E-02  0.2093E-03  0.1193E+01
   -1.105004   16.70232  0.0000E+00  0.8894E-05  0.2311E-07  0.1043E-02  0.1932E-03  0.1366E+01
   -1.147504   16.70296  0.0000E+00  0.8847E-05  0.2357E-07  0.1013E-02  0.1778E-03  0.1602E+01
   -1.190005   16.70362  0.0000E+00  0.8789E-05  0.2419E-07  0.9765E-03  0.1626E-03  0.1868E+01
   -1.232505   16.70433  0.0000E+00  0.8716E-05  0.2503E-07  0.9362E-03  0.1477E-03  0.2258E+01
   -1.275006   16.70508  0.0000E+00  0.8620E-05  0.2621E-07  0.8769E-03  0.1335E-03  0.3091E+01
   -1.317506   16.70588  0.0000E+00  0.8495E-05  0.2793E-07  0.8278E-03  0.1199E-03  0.4501E+01
   -1.360006   16.70676  0.0000E+00  0.8328E-05  0.3058E-07  0.7377E-03  0.1071E-03  0.7400E+01
   -1.402505   16.70777  0.0000E+00  0.8095E-05  0.3489E-07  0.6926E-03  0.9475E-04  0.1701E+02
   -1.445005   16.70890  0.0000E+00  0.7779E-05  0.4238E-07  0.5746E-03  0.8319E-04  0.1081E+05
   -1.487504   16.71080  0.0000E+00  0.7356E-05  0.5415E-07  0.5410E-03  0.6751E-04  0.1863E+04
   -1.530002   16.71285  0.0000E+00  0.6716E-05  0.7943E-07  0.4083E-03  0.5288E-04 -0.3315E+04
   -1.572501   16.71905  0.0000E+00  0.5860E-05  0.1355E-06  0.4178E-03  0.3386E-04  0.2026E+08
   -1.614999   16.71749  0.0000E+00  0.4541E-05  0.3804E-06  0.1902E-03  0.2698E-04 -0.1675E+10
   -1.657496   16.73994  0.0000E+00  0.3189E-05  0.9617E-06  0.1612E-03  0.1583E-04 -0.4015E+06
   -1.699993   16.74136  0.0000E+00  0.0000E+00  0.0000E+00  0.0000E+00  0.2935E-04  0.0000E+00
