 1 - depth, m
 2 - temperature, C
 3 - salinity, kg/kg
 4 - turbulent kinetic energy, m**2/s**2
 5 - dissipation rate, m**2/s**3
 6 - kinematic heat conductance, m**2/s
 7 - modulus of horizontal velocity, m/s
 8 - Richardson number, n/d
   -0.000000    0.00000  0.0000E+00  0.3189E-13  0.5206E-16  0.1000E-09  0.0000E+00  0.7254E+16
   -0.042497    0.11046  0.0000E+00  0.3189E-13  0.5206E-16  0.1000E-09  0.0000E+00  0.7319E+16
   -0.084995    0.22541  0.0000E+00  0.3189E-13  0.5206E-16  0.1000E-09  0.0000E+00  0.7341E+16
   -0.127493    0.34460  0.0000E+00  0.3189E-13  0.5206E-16  0.1000E-09  0.0000E+00  0.7097E+16
   -0.169992    0.46390  0.0000E+00  0.3189E-13  0.5206E-16  0.1000E-09  0.0000E+00  0.6857E+16
   -0.212491    0.58339  0.0000E+00  0.3189E-13  0.5206E-16  0.1000E-09  0.0000E+00  0.6624E+16
   -0.254990    0.70319  0.0000E+00  0.3189E-13  0.5206E-16  0.1000E-09  0.0000E+00  0.6395E+16
   -0.297490    0.82339  0.0000E+00  0.3189E-13  0.5206E-16  0.1000E-09  0.0000E+00  0.6159E+16
   -0.339990    0.94388  0.0000E+00  0.3189E-13  0.5206E-16  0.1000E-09  0.0000E+00  0.5913E+16
   -0.382490    1.06449  0.0000E+00  0.3189E-13  0.5206E-16  0.1000E-09  0.0000E+00  0.5667E+16
   -0.424990    1.18520  0.0000E+00  0.3189E-13  0.5206E-16  0.1000E-09  0.0000E+00  0.5411E+16
   -0.467490    1.30577  0.0000E+00  0.3189E-13  0.5206E-16  0.1000E-09  0.0000E+00  0.5156E+16
   -0.509991    1.42619  0.0000E+00  0.3189E-13  0.5206E-16  0.1000E-09  0.0000E+00  0.4909E+16
   -0.552492    1.54660  0.0000E+00  0.3189E-13  0.5206E-16  0.1000E-09  0.0000E+00  0.4663E+16
   -0.594993    1.66699  0.0000E+00  0.3189E-13  0.5206E-16  0.1000E-09  0.0000E+00  0.4423E+16
   -0.637494    1.78753  0.0000E+00  0.3189E-13  0.5206E-16  0.1000E-09  0.0000E+00  0.4195E+16
   -0.679996    1.90853  0.0000E+00  0.3189E-13  0.5206E-16  0.1000E-09  0.0000E+00  0.3963E+16
   -0.722497    2.02996  0.0000E+00  0.3189E-13  0.5206E-16  0.1000E-09  0.0000E+00  0.3734E+16
   -0.764998    2.15197  0.0000E+00  0.3189E-13  0.5206E-16  0.1000E-09  0.0000E+00  0.3503E+16
   -0.807500    2.27457  0.0000E+00  0.3189E-13  0.5206E-16  0.1000E-09  0.0000E+00  0.3253E+16
   -0.850001    2.39710  0.0000E+00  0.3189E-13  0.5206E-16  0.1000E-09  0.0000E+00  0.2993E+16
   -0.892503    2.51913  0.0000E+00  0.3189E-13  0.5206E-16  0.1000E-09  0.0000E+00  0.2745E+16
   -0.935004    2.64098  0.0000E+00  0.8240E-13  0.5206E-16  0.1000E-09  0.0000E+00  0.2494E+16
   -0.977506    2.76243  0.0000E+00  0.2666E-12  0.9540E-16  0.1000E-09  0.0000E+00  0.2245E+16
   -1.020007    2.88334  0.0000E+00  0.6997E-12  0.2209E-15  0.1000E-09  0.0000E+00  0.1986E+16
   -1.062508    3.00289  0.0000E+00  0.1708E-11  0.5159E-15  0.1000E-09  0.0000E+00  0.1733E+16
   -1.105009    3.12083  0.0000E+00  0.4058E-11  0.1190E-14  0.1000E-09  0.0000E+00  0.1479E+16
   -1.147510    3.23625  0.0000E+00  0.9418E-11  0.2690E-14  0.1000E-09  0.0000E+00  0.1234E+16
   -1.190011    3.34853  0.0000E+00  0.2160E-10  0.6012E-14  0.1000E-09  0.0000E+00  0.1008E+16
   -1.232512    3.45782  0.0000E+00  0.5041E-10  0.1368E-13  0.1000E-09  0.0000E+00  0.8039E+15
   -1.275012    3.56509  0.0000E+00  0.1185E-09  0.3135E-13  0.1595E-09  0.0000E+00  0.6166E+15
   -1.317513    3.67141  0.0000E+00  0.2796E-09  0.7216E-13  0.5019E-09  0.0000E+00  0.4505E+15
   -1.360013    3.78167  0.0000E+00  0.6633E-09  0.1671E-12  0.1964E-08  0.0000E+00  0.2660E+15
   -1.402513    3.89690  0.0000E+00  0.1571E-08  0.3873E-12  0.1954E-07  0.0000E+00  0.6072E+14
   -1.445012    4.00206  0.0000E+00  0.2687E-08  0.6654E-12  0.4104E-05  0.0000E+00 -0.1085E+13
   -1.487511    4.00597  0.0000E+00  0.3258E-08  0.8691E-12  0.4415E-05  0.0000E+00 -0.1232E+13
   -1.530010    4.00963  0.0000E+00  0.3793E-08  0.1171E-11  0.4526E-05  0.0000E+00 -0.1663E+13
   -1.572509    4.01381  0.0000E+00  0.4381E-08  0.1759E-11  0.4680E-05  0.0000E+00 -0.3003E+13
   -1.615007    4.02007  0.0000E+00  0.4832E-08  0.3294E-11  0.2548E-05  0.0000E+00 -0.8003E+13
   -1.657505    4.03281  0.0000E+00  0.4217E-08  0.7612E-11  0.6091E-06  0.0000E+00 -0.4561E+14
   -1.700002    4.07570  0.0000E+00  0.0000E+00  0.0000E+00  0.0000E+00  0.0000E+00  0.0000E+00
