 1 - depth, m
 2 - temperature, C
 3 - salinity, kg/kg
 4 - turbulent kinetic energy, m**2/s**2
 5 - dissipation rate, m**2/s**3
 6 - kinematic heat conductance, m**2/s
 7 - modulus of horizontal velocity, m/s
 8 - Richardson number, n/d
   -0.000000    0.00000  0.0000E+00  0.9622E-12  0.2521E-15  0.1000E-09  0.0000E+00  0.1626E+17
   -0.042497    0.25246  0.0000E+00  0.1586E-11  0.2500E-15  0.1000E-09  0.0000E+00  0.1526E+17
   -0.084995    0.50707  0.0000E+00  0.2863E-11  0.3398E-15  0.1000E-09  0.0000E+00  0.1421E+17
   -0.127492    0.76331  0.0000E+00  0.5058E-11  0.5289E-15  0.1000E-09  0.0000E+00  0.1280E+17
   -0.169991    1.01412  0.0000E+00  0.8707E-11  0.8588E-15  0.1000E-09  0.0000E+00  0.1146E+17
   -0.212489    1.25926  0.0000E+00  0.1475E-10  0.1409E-14  0.1000E-09  0.0000E+00  0.1019E+17
   -0.254988    1.49838  0.0000E+00  0.2480E-10  0.2318E-14  0.1000E-09  0.0000E+00  0.8978E+16
   -0.297487    1.73098  0.0000E+00  0.4150E-10  0.3811E-14  0.1000E-09  0.0000E+00  0.7832E+16
   -0.339987    1.95643  0.0000E+00  0.6869E-10  0.6206E-14  0.1000E-09  0.0000E+00  0.6756E+16
   -0.382487    2.17413  0.0000E+00  0.1130E-09  0.1005E-13  0.1000E-09  0.0000E+00  0.5755E+16
   -0.424987    2.38349  0.0000E+00  0.1845E-09  0.1615E-13  0.1000E-09  0.0000E+00  0.4839E+16
   -0.467487    2.58423  0.0000E+00  0.2994E-09  0.2580E-13  0.1000E-09  0.0000E+00  0.4004E+16
   -0.509987    2.77587  0.0000E+00  0.4837E-09  0.4104E-13  0.1000E-09  0.0000E+00  0.3289E+16
   -0.552488    2.96033  0.0000E+00  0.7793E-09  0.6508E-13  0.1004E-09  0.0000E+00  0.2645E+16
   -0.594988    3.13782  0.0000E+00  0.1252E-08  0.1029E-12  0.1564E-09  0.0000E+00  0.2066E+16
   -0.637489    3.30857  0.0000E+00  0.2021E-08  0.1634E-12  0.3306E-09  0.0000E+00  0.1552E+16
   -0.679990    3.47337  0.0000E+00  0.3269E-08  0.2601E-12  0.7475E-09  0.0000E+00  0.1091E+16
   -0.722491    3.63313  0.0000E+00  0.5295E-08  0.4145E-12  0.1921E-08  0.0000E+00  0.6763E+15
   -0.764992    3.78979  0.0000E+00  0.8572E-08  0.6605E-12  0.7472E-08  0.0000E+00  0.2831E+15
   -0.807493    3.94307  0.0000E+00  0.1197E-07  0.9218E-12  0.1212E-04  0.0000E+00  0.1862E+14
   -0.849994    4.00425  0.0000E+00  0.1233E-07  0.9515E-12  0.6140E-04  0.0000E+00 -0.1026E+12
   -0.892495    4.00463  0.0000E+00  0.1253E-07  0.9699E-12  0.6034E-04  0.0000E+00 -0.1067E+12
   -0.934996    4.00501  0.0000E+00  0.1271E-07  0.9899E-12  0.6071E-04  0.0000E+00 -0.1087E+12
   -0.977498    4.00539  0.0000E+00  0.1289E-07  0.1011E-11  0.6105E-04  0.0000E+00 -0.1108E+12
   -1.019999    4.00577  0.0000E+00  0.1306E-07  0.1034E-11  0.6119E-04  0.0000E+00 -0.1125E+12
   -1.062499    4.00615  0.0000E+00  0.1321E-07  0.1059E-11  0.6117E-04  0.0000E+00 -0.1144E+12
   -1.105000    4.00652  0.0000E+00  0.1335E-07  0.1086E-11  0.6094E-04  0.0000E+00 -0.1157E+12
   -1.147501    4.00690  0.0000E+00  0.1347E-07  0.1114E-11  0.6053E-04  0.0000E+00 -0.1165E+12
   -1.190001    4.00726  0.0000E+00  0.1358E-07  0.1145E-11  0.5986E-04  0.0000E+00 -0.1187E+12
   -1.232502    4.00763  0.0000E+00  0.1368E-07  0.1179E-11  0.5900E-04  0.0000E+00 -0.1247E+12
   -1.275002    4.00801  0.0000E+00  0.1377E-07  0.1221E-11  0.5790E-04  0.0000E+00 -0.1322E+12
   -1.317502    4.00840  0.0000E+00  0.1386E-07  0.1271E-11  0.5647E-04  0.0000E+00 -0.1414E+12
   -1.360002    4.00881  0.0000E+00  0.1393E-07  0.1335E-11  0.5459E-04  0.0000E+00 -0.1547E+12
   -1.402501    4.00925  0.0000E+00  0.1400E-07  0.1419E-11  0.5214E-04  0.0000E+00 -0.1681E+12
   -1.445000    4.00972  0.0000E+00  0.1404E-07  0.1521E-11  0.4924E-04  0.0000E+00 -0.1792E+12
   -1.487499    4.01021  0.0000E+00  0.1407E-07  0.1653E-11  0.4492E-04  0.0000E+00 -0.1997E+12
   -1.529998    4.01075  0.0000E+00  0.1407E-07  0.1859E-11  0.3984E-04  0.0000E+00 -0.2582E+12
   -1.572496    4.01143  0.0000E+00  0.1403E-07  0.2302E-11  0.3380E-04  0.0000E+00 -0.4505E+12
   -1.614994    4.01257  0.0000E+00  0.1357E-07  0.4189E-11  0.1328E-04  0.0000E+00 -0.1453E+13
   -1.657491    4.01596  0.0000E+00  0.1026E-07  0.1680E-10  0.1180E-05  0.0000E+00 -0.2535E+14
   -1.699989    4.05055  0.0000E+00  0.0000E+00  0.0000E+00  0.0000E+00  0.0000E+00  0.0000E+00
