 1 - depth, m
 2 - temperature, C
 3 - salinity, kg/kg
 4 - turbulent kinetic energy, m**2/s**2
 5 - dissipation rate, m**2/s**3
 6 - kinematic heat conductance, m**2/s
 7 - modulus of horizontal velocity, m/s
 8 - Richardson number, n/d
   -0.000000    0.00000  0.0000E+00  0.3189E-13  0.5206E-16  0.1000E-09  0.0000E+00  0.9026E+16
   -0.042497    0.13794  0.0000E+00  0.3189E-13  0.5206E-16  0.1000E-09  0.0000E+00  0.9028E+16
   -0.084995    0.28141  0.0000E+00  0.3189E-13  0.5206E-16  0.1000E-09  0.0000E+00  0.8967E+16
   -0.127493    0.42999  0.0000E+00  0.3189E-13  0.5206E-16  0.1000E-09  0.0000E+00  0.8569E+16
   -0.169992    0.57843  0.0000E+00  0.3189E-13  0.5206E-16  0.1000E-09  0.0000E+00  0.8172E+16
   -0.212491    0.72664  0.0000E+00  0.3189E-13  0.5206E-16  0.1000E-09  0.0000E+00  0.7776E+16
   -0.254990    0.87461  0.0000E+00  0.3189E-13  0.5206E-16  0.1000E-09  0.0000E+00  0.7382E+16
   -0.297490    1.02226  0.0000E+00  0.3189E-13  0.5206E-16  0.1000E-09  0.0000E+00  0.6977E+16
   -0.339989    1.16931  0.0000E+00  0.3189E-13  0.5206E-16  0.1000E-09  0.0000E+00  0.6564E+16
   -0.382489    1.31539  0.0000E+00  0.3189E-13  0.5206E-16  0.1000E-09  0.0000E+00  0.6153E+16
   -0.424990    1.46034  0.0000E+00  0.3189E-13  0.5206E-16  0.1000E-09  0.0000E+00  0.5739E+16
   -0.467490    1.60382  0.0000E+00  0.3189E-13  0.5206E-16  0.1000E-09  0.0000E+00  0.5332E+16
   -0.509991    1.74570  0.0000E+00  0.3189E-13  0.5206E-16  0.1000E-09  0.0000E+00  0.4953E+16
   -0.552492    1.88639  0.0000E+00  0.3189E-13  0.5206E-16  0.1000E-09  0.0000E+00  0.4583E+16
   -0.594993    2.02588  0.0000E+00  0.1209E-12  0.5206E-16  0.1000E-09  0.0000E+00  0.4227E+16
   -0.637494    2.16431  0.0000E+00  0.3464E-12  0.7674E-16  0.1000E-09  0.0000E+00  0.3889E+16
   -0.679995    2.30198  0.0000E+00  0.7820E-12  0.1433E-15  0.1000E-09  0.0000E+00  0.3553E+16
   -0.722496    2.43878  0.0000E+00  0.1619E-11  0.2779E-15  0.1000E-09  0.0000E+00  0.3227E+16
   -0.764998    2.57477  0.0000E+00  0.3251E-11  0.5399E-15  0.1000E-09  0.0000E+00  0.2904E+16
   -0.807499    2.70979  0.0000E+00  0.6434E-11  0.1043E-14  0.1000E-09  0.0000E+00  0.2576E+16
   -0.850001    2.84310  0.0000E+00  0.1251E-10  0.1987E-14  0.1000E-09  0.0000E+00  0.2250E+16
   -0.892502    2.97414  0.0000E+00  0.2416E-10  0.3762E-14  0.1000E-09  0.0000E+00  0.1953E+16
   -0.935003    3.10378  0.0000E+00  0.4606E-10  0.7033E-14  0.1000E-09  0.0000E+00  0.1667E+16
   -0.977505    3.23216  0.0000E+00  0.8715E-10  0.1305E-13  0.1000E-09  0.0000E+00  0.1389E+16
   -1.020006    3.35914  0.0000E+00  0.1636E-09  0.2403E-13  0.1000E-09  0.0000E+00  0.1113E+16
   -1.062507    3.48376  0.0000E+00  0.3047E-09  0.4393E-13  0.1626E-09  0.0000E+00  0.8493E+15
   -1.105008    3.60568  0.0000E+00  0.5642E-09  0.7983E-13  0.4197E-09  0.0000E+00  0.5979E+15
   -1.147509    3.72376  0.0000E+00  0.1030E-08  0.1431E-12  0.1227E-08  0.0000E+00  0.3662E+15
   -1.190010    3.83686  0.0000E+00  0.1863E-08  0.2541E-12  0.4964E-08  0.0000E+00  0.1606E+15
   -1.232511    3.94313  0.0000E+00  0.3283E-08  0.4420E-12  0.1092E-06  0.0000E+00  0.1231E+14
   -1.275011    4.00350  0.0000E+00  0.4066E-08  0.5520E-12  0.1224E-04  0.0000E+00 -0.3372E+12
   -1.317512    4.00471  0.0000E+00  0.4471E-08  0.6209E-12  0.1305E-04  0.0000E+00 -0.3519E+12
   -1.360012    4.00589  0.0000E+00  0.4839E-08  0.6989E-12  0.1357E-04  0.0000E+00 -0.3805E+12
   -1.402512    4.00709  0.0000E+00  0.5181E-08  0.7932E-12  0.1334E-04  0.0000E+00 -0.4223E+12
   -1.445011    4.00835  0.0000E+00  0.5469E-08  0.9029E-12  0.1232E-04  0.0000E+00 -0.4786E+12
   -1.487510    4.00970  0.0000E+00  0.5712E-08  0.1043E-11  0.1106E-04  0.0000E+00 -0.5703E+12
   -1.530009    4.01120  0.0000E+00  0.5949E-08  0.1265E-11  0.1011E-04  0.0000E+00 -0.7833E+12
   -1.572508    4.01314  0.0000E+00  0.6194E-08  0.1725E-11  0.9447E-05  0.0000E+00 -0.1437E+13
   -1.615006    4.01636  0.0000E+00  0.6196E-08  0.3220E-11  0.4092E-05  0.0000E+00 -0.4537E+13
   -1.657504    4.02482  0.0000E+00  0.5004E-08  0.8586E-11  0.7021E-06  0.0000E+00 -0.3830E+14
   -1.700001    4.06616  0.0000E+00  0.0000E+00  0.0000E+00  0.0000E+00  0.0000E+00  0.0000E+00
