 1 - depth, m
 2 - temperature, C
 3 - salinity, kg/kg
 4 - turbulent kinetic energy, m**2/s**2
 5 - dissipation rate, m**2/s**3
 6 - kinematic heat conductance, m**2/s
 7 - modulus of horizontal velocity, m/s
 8 - Richardson number, n/d
   -0.000000    0.00000  0.0000E+00  0.3189E-13  0.5206E-16  0.1000E-09  0.0000E+00  0.8667E+16
   -0.042497    0.13236  0.0000E+00  0.3189E-13  0.5206E-16  0.1000E-09  0.0000E+00  0.8698E+16
   -0.084995    0.27025  0.0000E+00  0.3189E-13  0.5206E-16  0.1000E-09  0.0000E+00  0.8669E+16
   -0.127493    0.41333  0.0000E+00  0.3189E-13  0.5206E-16  0.1000E-09  0.0000E+00  0.8313E+16
   -0.169992    0.55647  0.0000E+00  0.3189E-13  0.5206E-16  0.1000E-09  0.0000E+00  0.7954E+16
   -0.212491    0.69964  0.0000E+00  0.3189E-13  0.5206E-16  0.1000E-09  0.0000E+00  0.7597E+16
   -0.254990    0.84280  0.0000E+00  0.3189E-13  0.5206E-16  0.1000E-09  0.0000E+00  0.7238E+16
   -0.297490    0.98589  0.0000E+00  0.3189E-13  0.5206E-16  0.1000E-09  0.0000E+00  0.6868E+16
   -0.339989    1.12863  0.0000E+00  0.3189E-13  0.5206E-16  0.1000E-09  0.0000E+00  0.6487E+16
   -0.382489    1.27070  0.0000E+00  0.3189E-13  0.5206E-16  0.1000E-09  0.0000E+00  0.6107E+16
   -0.424990    1.41192  0.0000E+00  0.3189E-13  0.5206E-16  0.1000E-09  0.0000E+00  0.5721E+16
   -0.467490    1.55197  0.0000E+00  0.3189E-13  0.5206E-16  0.1000E-09  0.0000E+00  0.5339E+16
   -0.509991    1.69071  0.0000E+00  0.3189E-13  0.5206E-16  0.1000E-09  0.0000E+00  0.4980E+16
   -0.552492    1.82847  0.0000E+00  0.3189E-13  0.5206E-16  0.1000E-09  0.0000E+00  0.4629E+16
   -0.594993    1.96522  0.0000E+00  0.3189E-13  0.5206E-16  0.1000E-09  0.0000E+00  0.4289E+16
   -0.637494    2.10107  0.0000E+00  0.3947E-13  0.5206E-16  0.1000E-09  0.0000E+00  0.3964E+16
   -0.679995    2.23629  0.0000E+00  0.1499E-12  0.5333E-16  0.1000E-09  0.0000E+00  0.3641E+16
   -0.722496    2.37076  0.0000E+00  0.4051E-12  0.8435E-16  0.1000E-09  0.0000E+00  0.3327E+16
   -0.764998    2.50454  0.0000E+00  0.9013E-12  0.1610E-15  0.1000E-09  0.0000E+00  0.3015E+16
   -0.807499    2.63749  0.0000E+00  0.1860E-11  0.3143E-15  0.1000E-09  0.0000E+00  0.2697E+16
   -0.850001    2.76894  0.0000E+00  0.3688E-11  0.6054E-15  0.1000E-09  0.0000E+00  0.2381E+16
   -0.892502    2.89840  0.0000E+00  0.7208E-11  0.1157E-14  0.1000E-09  0.0000E+00  0.2092E+16
   -0.935003    3.02672  0.0000E+00  0.1386E-10  0.2182E-14  0.1000E-09  0.0000E+00  0.1813E+16
   -0.977505    3.15411  0.0000E+00  0.2643E-10  0.4082E-14  0.1000E-09  0.0000E+00  0.1541E+16
   -1.020006    3.28045  0.0000E+00  0.4994E-10  0.7572E-14  0.1000E-09  0.0000E+00  0.1267E+16
   -1.062507    3.40486  0.0000E+00  0.9365E-10  0.1394E-13  0.1000E-09  0.0000E+00  0.1004E+16
   -1.105008    3.52703  0.0000E+00  0.1745E-09  0.2550E-13  0.1086E-09  0.0000E+00  0.7495E+15
   -1.147509    3.64593  0.0000E+00  0.3205E-09  0.4602E-13  0.2830E-09  0.0000E+00  0.5110E+15
   -1.190010    3.76068  0.0000E+00  0.5843E-09  0.8244E-13  0.8748E-09  0.0000E+00  0.2956E+15
   -1.232511    3.87113  0.0000E+00  0.1082E-08  0.1500E-12  0.4551E-08  0.0000E+00  0.1029E+15
   -1.275011    3.97585  0.0000E+00  0.1767E-08  0.2448E-12  0.1067E-05  0.0000E+00  0.8007E+12
   -1.317512    3.99324  0.0000E+00  0.2333E-08  0.3361E-12  0.5519E-05  0.0000E+00 -0.3453E+12
   -1.360012    3.99601  0.0000E+00  0.2756E-08  0.4203E-12  0.6677E-05  0.0000E+00 -0.4046E+12
   -1.402512    3.99843  0.0000E+00  0.3163E-08  0.5212E-12  0.7159E-05  0.0000E+00 -0.4760E+12
   -1.445011    4.00074  0.0000E+00  0.3518E-08  0.6376E-12  0.6996E-05  0.0000E+00 -0.5676E+12
   -1.487510    4.00308  0.0000E+00  0.3833E-08  0.7851E-12  0.6503E-05  0.0000E+00 -0.7127E+12
   -1.530009    4.00562  0.0000E+00  0.4160E-08  0.1022E-11  0.6059E-05  0.0000E+00 -0.1042E+13
   -1.572508    4.00881  0.0000E+00  0.4547E-08  0.1517E-11  0.5742E-05  0.0000E+00 -0.2064E+13
   -1.615006    4.01407  0.0000E+00  0.4832E-08  0.2997E-11  0.2730E-05  0.0000E+00 -0.6553E+13
   -1.657504    4.02640  0.0000E+00  0.4212E-08  0.7478E-11  0.6167E-06  0.0000E+00 -0.4401E+14
   -1.700001    4.07134  0.0000E+00  0.0000E+00  0.0000E+00  0.0000E+00  0.0000E+00  0.0000E+00
