 1 - depth, m
 2 - temperature, C
 3 - salinity, kg/kg
 4 - turbulent kinetic energy, m**2/s**2
 5 - dissipation rate, m**2/s**3
 6 - kinematic heat conductance, m**2/s
 7 - modulus of horizontal velocity, m/s
 8 - Richardson number, n/d
   -0.000000   13.33353  0.0000E+00  0.5284E-04  0.1373E-04  0.4275E-04  0.4830E-01 -0.1561E-01
   -0.042498   13.35566  0.0000E+00  0.2910E-04  0.3859E-05  0.5065E-04  0.1543E-01 -0.5664E-01
   -0.084996   13.36144  0.0000E+00  0.2026E-04  0.1626E-05  0.5345E-04  0.1042E-01 -0.1080E+00
   -0.127495   13.36534  0.0000E+00  0.1454E-04  0.7684E-06  0.6403E-04  0.7617E-02 -0.1243E+00
   -0.169994   13.36836  0.0000E+00  0.1062E-04  0.3877E-06  0.8302E-04  0.5655E-02  0.2834E+02
   -0.212494   13.37088  0.0000E+00  0.7858E-05  0.2028E-06  0.9783E-04  0.4187E-02  0.7527E+02
   -0.254993   13.37306  0.0000E+00  0.5934E-05  0.1089E-06  0.1126E-03  0.3097E-02  0.4352E+01
   -0.297493   13.37497  0.0000E+00  0.4661E-05  0.6048E-07  0.1275E-03  0.2314E-02  0.4334E+02
   -0.339994   13.37665  0.0000E+00  0.3868E-05  0.3550E-07  0.1490E-03  0.1742E-02  0.5916E+02
   -0.382494   13.37812  0.0000E+00  0.3388E-05  0.2231E-07  0.1908E-03  0.1312E-02  0.2096E+03
   -0.424995   13.37929  0.0000E+00  0.3121E-05  0.1536E-07  0.2400E-03  0.1006E-02  0.8477E+03
   -0.467496   13.38019  0.0000E+00  0.2985E-05  0.1169E-07  0.2896E-03  0.7904E-03  0.7148E+02
   -0.509997   13.38089  0.0000E+00  0.2924E-05  0.9623E-08  0.3254E-03  0.6395E-03  0.4449E+02
   -0.552499   13.38148  0.0000E+00  0.2905E-05  0.8352E-08  0.3588E-03  0.5225E-03  0.1404E+02
   -0.595000   13.38201  0.0000E+00  0.2909E-05  0.7513E-08  0.3904E-03  0.4279E-03  0.6397E+01
   -0.637502   13.38250  0.0000E+00  0.2926E-05  0.6915E-08  0.4208E-03  0.3508E-03  0.1777E+01
   -0.680004   13.38295  0.0000E+00  0.2950E-05  0.6476E-08  0.4495E-03  0.2900E-03  0.1574E+01
   -0.722506   13.38336  0.0000E+00  0.2979E-05  0.6148E-08  0.4767E-03  0.2423E-03  0.1641E+01
   -0.765008   13.38374  0.0000E+00  0.3011E-05  0.5905E-08  0.5020E-03  0.2058E-03  0.1798E+01
   -0.807510   13.38409  0.0000E+00  0.3047E-05  0.5728E-08  0.5251E-03  0.1784E-03  0.2119E+01
   -0.850012   13.38442  0.0000E+00  0.3087E-05  0.5605E-08  0.5463E-03  0.1567E-03  0.2572E+01
   -0.892514   13.38474  0.0000E+00  0.3130E-05  0.5523E-08  0.5661E-03  0.1388E-03  0.3161E+01
   -0.935016   13.38505  0.0000E+00  0.3175E-05  0.5477E-08  0.5840E-03  0.1237E-03  0.3971E+01
   -0.977518   13.38537  0.0000E+00  0.3223E-05  0.5463E-08  0.5998E-03  0.1105E-03  0.4894E+01
   -1.020019   13.38569  0.0000E+00  0.3271E-05  0.5478E-08  0.6131E-03  0.9891E-04  0.6105E+01
   -1.062521   13.38602  0.0000E+00  0.3319E-05  0.5520E-08  0.6236E-03  0.8853E-04  0.7431E+01
   -1.105023   13.38637  0.0000E+00  0.3366E-05  0.5587E-08  0.6309E-03  0.7915E-04  0.9094E+01
   -1.147524   13.38674  0.0000E+00  0.3409E-05  0.5675E-08  0.6347E-03  0.7046E-04  0.1107E+02
   -1.190026   13.38714  0.0000E+00  0.3447E-05  0.5783E-08  0.6349E-03  0.6218E-04  0.1311E+02
   -1.232527   13.38756  0.0000E+00  0.3480E-05  0.5916E-08  0.6316E-03  0.5440E-04  0.1571E+02
   -1.275028   13.38800  0.0000E+00  0.3509E-05  0.6083E-08  0.6238E-03  0.4737E-04  0.2069E+02
   -1.317529   13.38847  0.0000E+00  0.3533E-05  0.6295E-08  0.6107E-03  0.4107E-04  0.2797E+02
   -1.360030   13.38895  0.0000E+00  0.3552E-05  0.6573E-08  0.5911E-03  0.3544E-04  0.3877E+02
   -1.402530   13.38947  0.0000E+00  0.3565E-05  0.6953E-08  0.5634E-03  0.3052E-04  0.5869E+02
   -1.445030   13.39003  0.0000E+00  0.3570E-05  0.7428E-08  0.5289E-03  0.2601E-04  0.9155E+02
   -1.487530   13.39066  0.0000E+00  0.3563E-05  0.8043E-08  0.4915E-03  0.2165E-04  0.1209E+03
   -1.530029   13.39137  0.0000E+00  0.3539E-05  0.9032E-08  0.4190E-03  0.1744E-04  0.1593E+03
   -1.572528   13.39224  0.0000E+00  0.3473E-05  0.1123E-07  0.4323E-03  0.1350E-04  0.2647E+03
   -1.615027   13.39307  0.0000E+00  0.3189E-05  0.2226E-07  0.1787E-03  0.1115E-04 -0.4020E+06
   -1.657525   13.39730  0.0000E+00  0.2088E-05  0.7511E-07  0.4316E-04  0.7131E-05 -0.1456E+07
   -1.700023   13.40705  0.0000E+00  0.0000E+00  0.0000E+00  0.0000E+00  0.8068E-05  0.0000E+00
