 1 - depth, m
 2 - temperature, C
 3 - salinity, kg/kg
 4 - turbulent kinetic energy, m**2/s**2
 5 - dissipation rate, m**2/s**3
 6 - kinematic heat conductance, m**2/s
 7 - modulus of horizontal velocity, m/s
 8 - Richardson number, n/d
   -0.000000   15.20603  0.0000E+00  0.1276E-03  0.4578E-04  0.6782E-04  0.9868E-01  0.2852E-02
   -0.042497   15.29250  0.0000E+00  0.6900E-04  0.1324E-04  0.8976E-04  0.2585E-01 -0.5502E+00
   -0.084995   15.30808  0.0000E+00  0.4856E-04  0.5912E-05  0.8762E-04  0.1755E-01 -0.1449E+00
   -0.127493   15.31949  0.0000E+00  0.3583E-04  0.2932E-05  0.9123E-04  0.1344E-01 -0.9784E-01
   -0.169992   15.32871  0.0000E+00  0.2701E-04  0.1532E-05  0.9977E-04  0.1048E-01  0.1230E+02
   -0.212491   15.33668  0.0000E+00  0.2071E-04  0.8296E-06  0.1151E-03  0.8167E-02  0.1930E+02
   -0.254990   15.34362  0.0000E+00  0.1624E-04  0.4665E-06  0.1396E-03  0.6408E-02  0.3337E+01
   -0.297489   15.34949  0.0000E+00  0.1319E-04  0.2758E-06  0.1795E-03  0.5119E-02  0.1398E+02
   -0.339989   15.35429  0.0000E+00  0.1120E-04  0.1738E-06  0.2300E-03  0.4158E-02  0.7062E+02
   -0.382489   15.35809  0.0000E+00  0.9901E-05  0.1168E-06  0.2895E-03  0.3418E-02  0.4412E+02
   -0.424989   15.36100  0.0000E+00  0.9089E-05  0.8393E-07  0.3441E-03  0.2860E-02  0.1411E+03
   -0.467490   15.36331  0.0000E+00  0.8584E-05  0.6413E-07  0.3965E-03  0.2402E-02  0.3825E+03
   -0.509990   15.36517  0.0000E+00  0.8273E-05  0.5158E-07  0.4480E-03  0.2014E-02  0.1070E+03
   -0.552491   15.36672  0.0000E+00  0.8085E-05  0.4320E-07  0.4960E-03  0.1682E-02  0.3149E+02
   -0.594992   15.36805  0.0000E+00  0.7970E-05  0.3730E-07  0.5409E-03  0.1393E-02  0.4129E+01
   -0.637493   15.36925  0.0000E+00  0.7895E-05  0.3287E-07  0.5915E-03  0.1143E-02  0.1860E+01
   -0.679995   15.37034  0.0000E+00  0.7845E-05  0.2948E-07  0.6466E-03  0.9367E-03  0.1683E+01
   -0.722496   15.37132  0.0000E+00  0.7812E-05  0.2688E-07  0.7065E-03  0.7697E-03  0.1502E+01
   -0.764997   15.37221  0.0000E+00  0.7789E-05  0.2488E-07  0.7634E-03  0.6398E-03  0.1347E+01
   -0.807499   15.37303  0.0000E+00  0.7773E-05  0.2335E-07  0.8092E-03  0.5419E-03  0.1268E+01
   -0.850000   15.37379  0.0000E+00  0.7761E-05  0.2220E-07  0.8445E-03  0.4659E-03  0.1209E+01
   -0.892501   15.37451  0.0000E+00  0.7748E-05  0.2135E-07  0.8711E-03  0.4059E-03  0.1157E+01
   -0.935003   15.37520  0.0000E+00  0.7734E-05  0.2073E-07  0.8896E-03  0.3581E-03  0.1138E+01
   -0.977504   15.37587  0.0000E+00  0.7718E-05  0.2029E-07  0.9008E-03  0.3187E-03  0.1109E+01
   -1.020005   15.37653  0.0000E+00  0.7697E-05  0.2000E-07  0.9060E-03  0.2860E-03  0.1121E+01
   -1.062507   15.37719  0.0000E+00  0.7673E-05  0.1985E-07  0.9053E-03  0.2580E-03  0.1141E+01
   -1.105008   15.37785  0.0000E+00  0.7644E-05  0.1981E-07  0.8993E-03  0.2334E-03  0.1204E+01
   -1.147509   15.37852  0.0000E+00  0.7610E-05  0.1989E-07  0.8881E-03  0.2111E-03  0.1298E+01
   -1.190010   15.37919  0.0000E+00  0.7571E-05  0.2008E-07  0.8715E-03  0.1902E-03  0.1411E+01
   -1.232510   15.37989  0.0000E+00  0.7522E-05  0.2041E-07  0.8492E-03  0.1706E-03  0.1595E+01
   -1.275011   15.38060  0.0000E+00  0.7461E-05  0.2093E-07  0.8174E-03  0.1526E-03  0.2054E+01
   -1.317511   15.38134  0.0000E+00  0.7383E-05  0.2173E-07  0.7825E-03  0.1360E-03  0.2802E+01
   -1.360011   15.38213  0.0000E+00  0.7281E-05  0.2299E-07  0.7230E-03  0.1206E-03  0.4115E+01
   -1.402511   15.38298  0.0000E+00  0.7145E-05  0.2501E-07  0.6819E-03  0.1062E-03  0.6815E+01
   -1.445010   15.38391  0.0000E+00  0.6976E-05  0.2833E-07  0.5913E-03  0.9290E-04  0.1577E+02
   -1.487509   15.38513  0.0000E+00  0.6758E-05  0.3360E-07  0.5655E-03  0.7753E-04  0.3442E+02
   -1.530008   15.38648  0.0000E+00  0.6425E-05  0.4481E-07  0.4417E-03  0.6285E-04 -0.4442E+04
   -1.572507   15.38955  0.0000E+00  0.5883E-05  0.7053E-07  0.4581E-03  0.4447E-04  0.1211E+06
   -1.615005   15.39010  0.0000E+00  0.4735E-05  0.1780E-06  0.2002E-03  0.3595E-04 -0.4305E+07
   -1.657503   15.40350  0.0000E+00  0.3169E-05  0.4951E-06  0.1128E-03  0.2216E-04 -0.1709E+06
   -1.700000   15.40882  0.0000E+00  0.0000E+00  0.0000E+00  0.0000E+00  0.3296E-04  0.0000E+00
