 1 - depth, m
 2 - temperature, C
 3 - salinity, kg/kg
 4 - turbulent kinetic energy, m**2/s**2
 5 - dissipation rate, m**2/s**3
 6 - kinematic heat conductance, m**2/s
 7 - modulus of horizontal velocity, m/s
 8 - Richardson number, n/d
   -0.000000   12.70751  0.0000E+00  0.1813E-02  0.1123E-01  0.1389E-03  0.5761E+00 -0.9433E-03
   -0.042497   12.81237  0.0000E+00  0.8270E-03  0.4683E-02  0.2952E-03  0.1175E+00 -0.1626E-01
   -0.084995   12.84573  0.0000E+00  0.5514E-03  0.2113E-02  0.3978E-03  0.6588E-01  0.1168E+00
   -0.127493   12.86346  0.0000E+00  0.4226E-03  0.1335E-02  0.3534E-03  0.5217E-01 -0.3756E-01
   -0.169991   12.87387  0.0000E+00  0.3300E-03  0.8646E-03  0.3102E-03  0.4369E-01 -0.1834E-01
   -0.212490   12.88221  0.0000E+00  0.2605E-03  0.6061E-03  0.2904E-03  0.3633E-01  0.1923E-01
   -0.254989   12.88916  0.0000E+00  0.2060E-03  0.4217E-03  0.2847E-03  0.3055E-01  0.2210E+00
   -0.297488   12.89550  0.0000E+00  0.1655E-03  0.2993E-03  0.2817E-03  0.2637E-01  0.5215E+01
   -0.339988   12.90044  0.0000E+00  0.1349E-03  0.2112E-03  0.2825E-03  0.2348E-01  0.3118E+01
   -0.382488   12.90488  0.0000E+00  0.1119E-03  0.1472E-03  0.2878E-03  0.2053E-01  0.1099E+01
   -0.424988   12.90841  0.0000E+00  0.9428E-04  0.1016E-03  0.2916E-03  0.1845E-01  0.7669E+01
   -0.467488   12.91234  0.0000E+00  0.8075E-04  0.6992E-04  0.3026E-03  0.1602E-01  0.8530E+01
   -0.509989   12.91542  0.0000E+00  0.7017E-04  0.4804E-04  0.3137E-03  0.1380E-01  0.1327E+03
   -0.552490   12.91874  0.0000E+00  0.6166E-04  0.3298E-04  0.3295E-03  0.1187E-01  0.6139E+02
   -0.594990   12.92162  0.0000E+00  0.5453E-04  0.2263E-04  0.3446E-03  0.1012E-01  0.5200E+02
   -0.637491   12.92438  0.0000E+00  0.4820E-04  0.1535E-04  0.3683E-03  0.8630E-02 -0.1436E+03
   -0.679992   12.92662  0.0000E+00  0.4275E-04  0.1024E-04  0.3950E-03  0.7484E-02  0.3981E+03
   -0.722494   12.92872  0.0000E+00  0.3823E-04  0.6692E-05  0.4236E-03  0.6517E-02  0.3269E+02
   -0.764995   12.93062  0.0000E+00  0.3428E-04  0.4275E-05  0.4536E-03  0.5737E-02 -0.4012E+04
   -0.807496   12.93216  0.0000E+00  0.3076E-04  0.2670E-05  0.4834E-03  0.5119E-02 -0.2590E+03
   -0.849997   12.93368  0.0000E+00  0.2784E-04  0.1670E-05  0.5194E-03  0.4591E-02  0.2293E+03
   -0.892499   12.93502  0.0000E+00  0.2535E-04  0.1050E-05  0.5510E-03  0.4128E-02  0.2069E+03
   -0.935000   12.93628  0.0000E+00  0.2317E-04  0.6808E-06  0.5738E-03  0.3726E-02  0.2449E+03
   -0.977501   12.93741  0.0000E+00  0.2133E-04  0.4625E-06  0.5935E-03  0.3354E-02 -0.6623E+02
   -1.020002   12.93860  0.0000E+00  0.1975E-04  0.3304E-06  0.6142E-03  0.3025E-02  0.8803E+02
   -1.062503   12.93968  0.0000E+00  0.1838E-04  0.2515E-06  0.6339E-03  0.2721E-02  0.3749E+02
   -1.105004   12.94063  0.0000E+00  0.1718E-04  0.1977E-06  0.6493E-03  0.2445E-02  0.3682E+02
   -1.147505   12.94170  0.0000E+00  0.1614E-04  0.1626E-06  0.6468E-03  0.2174E-02  0.1957E+02
   -1.190006   12.94264  0.0000E+00  0.1526E-04  0.1395E-06  0.6716E-03  0.1905E-02 -0.9616E+02
   -1.232506   12.94366  0.0000E+00  0.1448E-04  0.1238E-06  0.6600E-03  0.1667E-02  0.3393E+02
   -1.275007   12.94457  0.0000E+00  0.1374E-04  0.1128E-06  0.6435E-03  0.1462E-02  0.2400E+03
   -1.317507   12.94556  0.0000E+00  0.1299E-04  0.1056E-06  0.6369E-03  0.1262E-02  0.8013E+07
   -1.360007   12.94649  0.0000E+00  0.1226E-04  0.1027E-06  0.6092E-03  0.1091E-02 -0.7952E+03
   -1.402506   12.94748  0.0000E+00  0.1150E-04  0.1059E-06  0.5723E-03  0.9450E-03  0.3876E+04
   -1.445006   12.94854  0.0000E+00  0.1077E-04  0.1181E-06  0.5153E-03  0.8147E-03  0.1082E+05
   -1.487505   12.94979  0.0000E+00  0.1005E-04  0.1446E-06  0.4714E-03  0.6784E-03  0.3009E+04
   -1.530003   12.95125  0.0000E+00  0.9257E-05  0.2052E-06  0.3933E-03  0.5253E-03  0.2107E+04
   -1.572502   12.95350  0.0000E+00  0.8314E-05  0.3543E-06  0.3830E-03  0.3803E-03  0.2927E+05
   -1.615000   12.95472  0.0000E+00  0.6573E-05  0.9362E-06  0.1899E-03  0.3033E-03 -0.1483E+07
   -1.657497   12.96309  0.0000E+00  0.4419E-05  0.2141E-05  0.1046E-03  0.2094E-03 -0.1632E+08
   -1.699995   12.97226  0.0000E+00  0.0000E+00  0.0000E+00  0.0000E+00  0.3657E-03  0.0000E+00
