 1 - depth, m
 2 - temperature, C
 3 - salinity, kg/kg
 4 - turbulent kinetic energy, m**2/s**2
 5 - dissipation rate, m**2/s**3
 6 - kinematic heat conductance, m**2/s
 7 - modulus of horizontal velocity, m/s
 8 - Richardson number, n/d
   -0.000000    0.00000  0.0000E+00  0.3189E-13  0.5207E-16  0.1000E-09  0.0000E+00  0.9424E+16
   -0.042497    0.14415  0.0000E+00  0.3189E-13  0.5207E-16  0.1000E-09  0.0000E+00  0.9343E+16
   -0.084995    0.29300  0.0000E+00  0.3189E-13  0.5207E-16  0.1000E-09  0.0000E+00  0.9191E+16
   -0.127493    0.44593  0.0000E+00  0.3189E-13  0.5207E-16  0.1000E-09  0.0000E+00  0.8734E+16
   -0.169992    0.59804  0.0000E+00  0.3189E-13  0.5207E-16  0.1000E-09  0.0000E+00  0.8275E+16
   -0.212491    0.74915  0.0000E+00  0.3189E-13  0.5207E-16  0.1000E-09  0.0000E+00  0.7824E+16
   -0.254990    0.89919  0.0000E+00  0.3189E-13  0.5207E-16  0.1000E-09  0.0000E+00  0.7377E+16
   -0.297489    1.04804  0.0000E+00  0.3189E-13  0.5207E-16  0.1000E-09  0.0000E+00  0.6916E+16
   -0.339989    1.19516  0.0000E+00  0.3189E-13  0.5207E-16  0.1000E-09  0.0000E+00  0.6440E+16
   -0.382489    1.33987  0.0000E+00  0.3189E-13  0.5207E-16  0.1000E-09  0.0000E+00  0.5973E+16
   -0.424989    1.48188  0.0000E+00  0.3189E-13  0.5207E-16  0.1000E-09  0.0000E+00  0.5503E+16
   -0.467489    1.62058  0.0000E+00  0.3189E-13  0.5207E-16  0.1000E-09  0.0000E+00  0.5049E+16
   -0.509990    1.75575  0.0000E+00  0.3189E-13  0.5207E-16  0.1000E-09  0.0000E+00  0.4641E+16
   -0.552491    1.88793  0.0000E+00  0.3189E-13  0.5207E-16  0.1000E-09  0.0000E+00  0.4252E+16
   -0.594992    2.01710  0.0000E+00  0.3189E-13  0.5207E-16  0.1000E-09  0.0000E+00  0.3889E+16
   -0.637493    2.14342  0.0000E+00  0.3189E-13  0.5207E-16  0.1000E-09  0.0000E+00  0.3556E+16
   -0.679994    2.26729  0.0000E+00  0.3189E-13  0.5207E-16  0.1000E-09  0.0000E+00  0.3234E+16
   -0.722495    2.38851  0.0000E+00  0.3189E-13  0.5207E-16  0.1000E-09  0.0000E+00  0.2929E+16
   -0.764996    2.50707  0.0000E+00  0.3189E-13  0.5207E-16  0.1000E-09  0.0000E+00  0.2633E+16
   -0.807498    2.62269  0.0000E+00  0.3189E-13  0.5207E-16  0.1000E-09  0.0000E+00  0.2337E+16
   -0.849999    2.73443  0.0000E+00  0.3189E-13  0.5207E-16  0.1000E-09  0.0000E+00  0.2049E+16
   -0.892501    2.84154  0.0000E+00  0.3189E-13  0.5207E-16  0.1000E-09  0.0000E+00  0.1810E+16
   -0.935002    2.94543  0.0000E+00  0.3189E-13  0.5207E-16  0.1000E-09  0.0000E+00  0.1594E+16
   -0.977503    3.04660  0.0000E+00  0.3189E-13  0.5207E-16  0.1000E-09  0.0000E+00  0.1391E+16
   -1.020004    3.14492  0.0000E+00  0.3189E-13  0.5207E-16  0.1000E-09  0.0000E+00  0.1189E+16
   -1.062506    3.23931  0.0000E+00  0.3189E-13  0.5207E-16  0.1000E-09  0.0000E+00  0.1003E+16
   -1.105007    3.32949  0.0000E+00  0.1101E-12  0.6268E-16  0.1000E-09  0.0000E+00  0.8256E+15
   -1.147508    3.41445  0.0000E+00  0.3442E-12  0.1566E-15  0.1000E-09  0.0000E+00  0.6645E+15
   -1.190008    3.49346  0.0000E+00  0.9686E-12  0.4170E-15  0.1000E-09  0.0000E+00  0.5275E+15
   -1.232509    3.56674  0.0000E+00  0.2714E-11  0.1131E-14  0.1000E-09  0.0000E+00  0.4154E+15
   -1.275009    3.63513  0.0000E+00  0.7592E-11  0.3078E-14  0.1000E-09  0.0000E+00  0.3264E+15
   -1.317510    3.70019  0.0000E+00  0.2122E-10  0.8380E-14  0.1023E-09  0.0000E+00  0.2720E+15
   -1.360010    3.76887  0.0000E+00  0.5955E-10  0.2292E-13  0.3360E-09  0.0000E+00  0.2109E+15
   -1.402509    3.84340  0.0000E+00  0.1679E-09  0.6309E-13  0.1540E-08  0.0000E+00  0.1254E+15
   -1.445009    3.91971  0.0000E+00  0.4451E-09  0.1639E-12  0.1359E-07  0.0000E+00  0.3480E+14
   -1.487508    3.98766  0.0000E+00  0.1068E-08  0.3943E-12  0.6612E-06  0.0000E+00 -0.1663E+13
   -1.530007    4.00111  0.0000E+00  0.1871E-08  0.8374E-12  0.1267E-05  0.0000E+00 -0.3138E+13
   -1.572505    4.01121  0.0000E+00  0.2999E-08  0.1804E-11  0.1963E-05  0.0000E+00 -0.6508E+13
   -1.615003    4.02440  0.0000E+00  0.4281E-08  0.4043E-11  0.1603E-05  0.0000E+00 -0.1524E+14
   -1.657501    4.04460  0.0000E+00  0.4612E-08  0.9563E-11  0.6455E-06  0.0000E+00 -0.6535E+14
   -1.699998    4.09471  0.0000E+00  0.0000E+00  0.0000E+00  0.0000E+00  0.0000E+00  0.0000E+00
