 1 - depth, m
 2 - temperature, C
 3 - salinity, kg/kg
 4 - turbulent kinetic energy, m**2/s**2
 5 - dissipation rate, m**2/s**3
 6 - kinematic heat conductance, m**2/s
 7 - modulus of horizontal velocity, m/s
 8 - Richardson number, n/d
   -0.000000    8.98053  0.0000E+00  0.1809E-02  0.1343E-01  0.1155E-03  0.5577E+00  0.9620E-02
   -0.042497    9.13568  0.0000E+00  0.8824E-03  0.6387E-02  0.3628E-03  0.1145E+00  0.1882E+00
   -0.084995    9.17509  0.0000E+00  0.5895E-03  0.3073E-02  0.4266E-03  0.6645E-01  0.4219E+00
   -0.127493    9.19559  0.0000E+00  0.4506E-03  0.2061E-02  0.3747E-03  0.5306E-01 -0.1223E-01
   -0.169991    9.20901  0.0000E+00  0.3586E-03  0.1454E-02  0.3557E-03  0.4437E-01  0.8721E+00
   -0.212490    9.21891  0.0000E+00  0.2860E-03  0.1063E-02  0.3296E-03  0.3725E-01  0.2360E+00
   -0.254989    9.22715  0.0000E+00  0.2289E-03  0.7558E-03  0.3235E-03  0.3167E-01  0.6016E+00
   -0.297489    9.23366  0.0000E+00  0.1871E-03  0.5421E-03  0.3208E-03  0.2773E-01  0.4940E+01
   -0.339988    9.23901  0.0000E+00  0.1550E-03  0.3800E-03  0.3230E-03  0.2496E-01  0.4104E+01
   -0.382488    9.24406  0.0000E+00  0.1302E-03  0.2558E-03  0.3304E-03  0.2214E-01  0.8984E+00
   -0.424988    9.24842  0.0000E+00  0.1109E-03  0.1639E-03  0.3386E-03  0.2007E-01  0.3976E+02
   -0.467488    9.25264  0.0000E+00  0.9590E-04  0.9996E-04  0.3531E-03  0.1766E-01  0.2857E+02
   -0.509989    9.25673  0.0000E+00  0.8438E-04  0.5864E-04  0.3671E-03  0.1540E-01  0.3086E+02
   -0.552490    9.26104  0.0000E+00  0.7526E-04  0.3380E-04  0.3826E-03  0.1345E-01  0.1141E+02
   -0.594991    9.26474  0.0000E+00  0.6760E-04  0.1986E-04  0.4048E-03  0.1163E-01  0.2107E+02
   -0.637492    9.26809  0.0000E+00  0.6111E-04  0.1219E-04  0.4263E-03  0.1011E-01  0.7900E+02
   -0.679993    9.27091  0.0000E+00  0.5555E-04  0.7925E-05  0.4481E-03  0.8934E-02  0.3335E+01
   -0.722494    9.27358  0.0000E+00  0.5067E-04  0.5453E-05  0.4738E-03  0.7919E-02  0.4040E+02
   -0.764995    9.27590  0.0000E+00  0.4634E-04  0.3902E-05  0.4990E-03  0.7095E-02 -0.1191E+02
   -0.807496    9.27797  0.0000E+00  0.4244E-04  0.2861E-05  0.5193E-03  0.6451E-02  0.5297E+02
   -0.849998    9.27970  0.0000E+00  0.3898E-04  0.2139E-05  0.5418E-03  0.5886E-02  0.2190E+03
   -0.892499    9.28165  0.0000E+00  0.3590E-04  0.1611E-05  0.5649E-03  0.5382E-02  0.1309E+04
   -0.935000    9.28319  0.0000E+00  0.3317E-04  0.1223E-05  0.5884E-03  0.4954E-02  0.1391E+04
   -0.977501    9.28488  0.0000E+00  0.3075E-04  0.9357E-06  0.6109E-03  0.4533E-02  0.6728E+03
   -1.020003    9.28638  0.0000E+00  0.2858E-04  0.7167E-06  0.6331E-03  0.4169E-02  0.9022E+02
   -1.062504    9.28786  0.0000E+00  0.2667E-04  0.5537E-06  0.6585E-03  0.3811E-02  0.4303E+02
   -1.105005    9.28928  0.0000E+00  0.2497E-04  0.4357E-06  0.6763E-03  0.3487E-02  0.7257E+02
   -1.147505    9.29063  0.0000E+00  0.2347E-04  0.3506E-06  0.6835E-03  0.3165E-02  0.9112E+03
   -1.190006    9.29201  0.0000E+00  0.2218E-04  0.2957E-06  0.6908E-03  0.2829E-02  0.2104E+02
   -1.232507    9.29335  0.0000E+00  0.2098E-04  0.2552E-06  0.6976E-03  0.2504E-02  0.4719E+02
   -1.275007    9.29467  0.0000E+00  0.1984E-04  0.2242E-06  0.6956E-03  0.2217E-02  0.1550E+02
   -1.317507    9.29595  0.0000E+00  0.1876E-04  0.2020E-06  0.6795E-03  0.1961E-02  0.2614E+02
   -1.360007    9.29725  0.0000E+00  0.1769E-04  0.1880E-06  0.6474E-03  0.1734E-02  0.7223E+02
   -1.402507    9.29860  0.0000E+00  0.1658E-04  0.1823E-06  0.6060E-03  0.1535E-02  0.6341E+03
   -1.445006    9.30006  0.0000E+00  0.1553E-04  0.1896E-06  0.5403E-03  0.1349E-02  0.2598E+04
   -1.487505    9.30176  0.0000E+00  0.1449E-04  0.2140E-06  0.4910E-03  0.1156E-02  0.1992E+03
   -1.530004    9.30373  0.0000E+00  0.1331E-04  0.2759E-06  0.4056E-03  0.9422E-03  0.2623E+03
   -1.572502    9.30668  0.0000E+00  0.1192E-04  0.4419E-06  0.3965E-03  0.7206E-03  0.6051E+03
   -1.615000    9.30844  0.0000E+00  0.9462E-05  0.1113E-05  0.1979E-03  0.5866E-03 -0.2178E+06
   -1.657498    9.31878  0.0000E+00  0.6347E-05  0.2768E-05  0.1190E-03  0.4270E-03 -0.6545E+10
   -1.699995    9.33164  0.0000E+00  0.0000E+00  0.0000E+00  0.0000E+00  0.6565E-03  0.0000E+00
