 1 - depth, m
 2 - temperature, C
 3 - salinity, kg/kg
 4 - turbulent kinetic energy, m**2/s**2
 5 - dissipation rate, m**2/s**3
 6 - kinematic heat conductance, m**2/s
 7 - modulus of horizontal velocity, m/s
 8 - Richardson number, n/d
   -0.000000   12.58991  0.0000E+00  0.1006E-04  0.5085E-06  0.1908E-04  0.1565E-01 -0.8524E-02
   -0.042497   12.59760  0.0000E+00  0.7076E-05  0.1774E-06  0.2866E-04  0.8527E-02 -0.2438E-01
   -0.084995   12.60209  0.0000E+00  0.5113E-05  0.8128E-07  0.3451E-04  0.5326E-02 -0.5255E-01
   -0.127493   12.60537  0.0000E+00  0.3799E-05  0.4218E-07  0.3969E-04  0.3438E-02 -0.1071E+00
   -0.169992   12.60798  0.0000E+00  0.2924E-05  0.2375E-07  0.4614E-04  0.2237E-02 -0.2063E+00
   -0.212491   12.61005  0.0000E+00  0.2351E-05  0.1426E-07  0.5736E-04  0.1455E-02 -0.3608E+00
   -0.254990   12.61159  0.0000E+00  0.2004E-05  0.9250E-08  0.8675E-04  0.9603E-03  0.1642E+04
   -0.297490   12.61261  0.0000E+00  0.1815E-05  0.6522E-08  0.1108E-03  0.6671E-03  0.2345E+02
   -0.339989   12.61333  0.0000E+00  0.1728E-05  0.5048E-08  0.1606E-03  0.4867E-03  0.5388E+03
   -0.382489   12.61379  0.0000E+00  0.1696E-05  0.4253E-08  0.2178E-03  0.3765E-03  0.6411E+03
   -0.424990   12.61412  0.0000E+00  0.1691E-05  0.3788E-08  0.2549E-03  0.3114E-03  0.1846E+01
   -0.467490   12.61442  0.0000E+00  0.1697E-05  0.3465E-08  0.2748E-03  0.2650E-03  0.1711E+01
   -0.509991   12.61471  0.0000E+00  0.1711E-05  0.3224E-08  0.2966E-03  0.2254E-03  0.1818E+01
   -0.552492   12.61500  0.0000E+00  0.1730E-05  0.3040E-08  0.3181E-03  0.1917E-03  0.1972E+01
   -0.594993   12.61528  0.0000E+00  0.1751E-05  0.2898E-08  0.3391E-03  0.1626E-03  0.2160E+01
   -0.637494   12.61555  0.0000E+00  0.1773E-05  0.2785E-08  0.3599E-03  0.1377E-03  0.2406E+01
   -0.679995   12.61580  0.0000E+00  0.1797E-05  0.2695E-08  0.3806E-03  0.1170E-03  0.2816E+01
   -0.722496   12.61604  0.0000E+00  0.1822E-05  0.2623E-08  0.4010E-03  0.9977E-04  0.3348E+01
   -0.764998   12.61626  0.0000E+00  0.1849E-05  0.2566E-08  0.4213E-03  0.8564E-04  0.4090E+01
   -0.807499   12.61647  0.0000E+00  0.1878E-05  0.2523E-08  0.4410E-03  0.7424E-04  0.5173E+01
   -0.850001   12.61666  0.0000E+00  0.1908E-05  0.2495E-08  0.4596E-03  0.6480E-04  0.6531E+01
   -0.892502   12.61685  0.0000E+00  0.1941E-05  0.2480E-08  0.4770E-03  0.5689E-04  0.8203E+01
   -0.935004   12.61703  0.0000E+00  0.1975E-05  0.2476E-08  0.4929E-03  0.5021E-04  0.1048E+02
   -0.977505   12.61722  0.0000E+00  0.2010E-05  0.2485E-08  0.5071E-03  0.4441E-04  0.1306E+02
   -1.020006   12.61741  0.0000E+00  0.2045E-05  0.2504E-08  0.5193E-03  0.3938E-04  0.1648E+02
   -1.062507   12.61761  0.0000E+00  0.2080E-05  0.2533E-08  0.5295E-03  0.3490E-04  0.2018E+02
   -1.105009   12.61781  0.0000E+00  0.2114E-05  0.2571E-08  0.5373E-03  0.3089E-04  0.2478E+02
   -1.147510   12.61804  0.0000E+00  0.2146E-05  0.2616E-08  0.5425E-03  0.2720E-04  0.3020E+02
   -1.190010   12.61828  0.0000E+00  0.2175E-05  0.2668E-08  0.5450E-03  0.2371E-04  0.3588E+02
   -1.232511   12.61853  0.0000E+00  0.2201E-05  0.2729E-08  0.5450E-03  0.2046E-04  0.4318E+02
   -1.275012   12.61880  0.0000E+00  0.2224E-05  0.2803E-08  0.5418E-03  0.1756E-04  0.5737E+02
   -1.317512   12.61908  0.0000E+00  0.2246E-05  0.2893E-08  0.5349E-03  0.1500E-04  0.7824E+02
   -1.360012   12.61938  0.0000E+00  0.2264E-05  0.3007E-08  0.5233E-03  0.1276E-04  0.1088E+03
   -1.402512   12.61968  0.0000E+00  0.2281E-05  0.3156E-08  0.5060E-03  0.1084E-04  0.1641E+03
   -1.445011   12.62002  0.0000E+00  0.2293E-05  0.3337E-08  0.4842E-03  0.9113E-05  0.2524E+03
   -1.487510   12.62039  0.0000E+00  0.2299E-05  0.3559E-08  0.4566E-03  0.7483E-05  0.3258E+03
   -1.530009   12.62080  0.0000E+00  0.2296E-05  0.3896E-08  0.4184E-03  0.5939E-05  0.4054E+03
   -1.572508   12.62127  0.0000E+00  0.2276E-05  0.4611E-08  0.3425E-03  0.4589E-05  0.8110E+03
   -1.615006   12.62188  0.0000E+00  0.2198E-05  0.6978E-08  0.2538E-03  0.3584E-05  0.4483E+04
   -1.657504   12.62278  0.0000E+00  0.1553E-05  0.2821E-07  0.1548E-04  0.2836E-05 -0.1160E+07
   -1.700001   12.63960  0.0000E+00  0.0000E+00  0.0000E+00  0.0000E+00  0.2835E-05  0.0000E+00
