 1 - depth, m
 2 - temperature, C
 3 - salinity, kg/kg
 4 - turbulent kinetic energy, m**2/s**2
 5 - dissipation rate, m**2/s**3
 6 - kinematic heat conductance, m**2/s
 7 - modulus of horizontal velocity, m/s
 8 - Richardson number, n/d
   -0.000000    0.00000  0.0000E+00  0.3189E-13  0.5207E-16  0.1000E-09  0.0000E+00  0.1194E+17
   -0.042497    0.18365  0.0000E+00  0.3189E-13  0.5207E-16  0.1000E-09  0.0000E+00  0.1175E+17
   -0.084995    0.37410  0.0000E+00  0.1394E-12  0.5207E-16  0.1000E-09  0.0000E+00  0.1145E+17
   -0.127493    0.57056  0.0000E+00  0.3808E-12  0.6285E-16  0.1000E-09  0.0000E+00  0.1068E+17
   -0.169992    0.76525  0.0000E+00  0.7900E-12  0.9833E-16  0.1000E-09  0.0000E+00  0.9922E+16
   -0.212491    0.95792  0.0000E+00  0.1466E-11  0.1640E-15  0.1000E-09  0.0000E+00  0.9174E+16
   -0.254990    1.14831  0.0000E+00  0.2592E-11  0.2764E-15  0.1000E-09  0.0000E+00  0.8439E+16
   -0.297489    1.33610  0.0000E+00  0.4483E-11  0.4647E-15  0.1000E-09  0.0000E+00  0.7721E+16
   -0.339989    1.52100  0.0000E+00  0.7601E-11  0.7716E-15  0.1000E-09  0.0000E+00  0.7025E+16
   -0.382489    1.70278  0.0000E+00  0.1276E-10  0.1272E-14  0.1000E-09  0.0000E+00  0.6352E+16
   -0.424989    1.88116  0.0000E+00  0.2121E-10  0.2078E-14  0.1000E-09  0.0000E+00  0.5711E+16
   -0.467489    2.05609  0.0000E+00  0.3499E-10  0.3372E-14  0.1000E-09  0.0000E+00  0.5097E+16
   -0.509990    2.22736  0.0000E+00  0.5745E-10  0.5446E-14  0.1000E-09  0.0000E+00  0.4558E+16
   -0.552491    2.39656  0.0000E+00  0.9406E-10  0.8771E-14  0.1000E-09  0.0000E+00  0.4044E+16
   -0.594992    2.56392  0.0000E+00  0.1535E-09  0.1409E-13  0.1000E-09  0.0000E+00  0.3554E+16
   -0.637493    2.72970  0.0000E+00  0.2520E-09  0.2275E-13  0.1000E-09  0.0000E+00  0.3088E+16
   -0.679994    2.89446  0.0000E+00  0.4147E-09  0.3683E-13  0.1000E-09  0.0000E+00  0.2632E+16
   -0.722495    3.05818  0.0000E+00  0.6844E-09  0.5981E-13  0.1000E-09  0.0000E+00  0.2190E+16
   -0.764997    3.22112  0.0000E+00  0.1133E-08  0.9742E-13  0.1746E-09  0.0000E+00  0.1756E+16
   -0.807498    3.38321  0.0000E+00  0.1874E-08  0.1587E-12  0.3772E-09  0.0000E+00  0.1324E+16
   -0.849999    3.54351  0.0000E+00  0.3071E-08  0.2561E-12  0.8915E-09  0.0000E+00  0.9040E+15
   -0.892501    3.70113  0.0000E+00  0.5009E-08  0.4113E-12  0.2557E-08  0.0000E+00  0.5063E+15
   -0.935002    3.85629  0.0000E+00  0.8043E-08  0.6511E-12  0.1561E-07  0.0000E+00  0.1315E+15
   -0.977503    3.99839  0.0000E+00  0.8482E-08  0.6886E-12  0.4178E-04  0.0000E+00 -0.1031E+12
   -1.020005    3.99893  0.0000E+00  0.8682E-08  0.7083E-12  0.4161E-04  0.0000E+00 -0.1079E+12
   -1.062506    3.99946  0.0000E+00  0.8857E-08  0.7282E-12  0.4203E-04  0.0000E+00 -0.1112E+12
   -1.105007    3.99999  0.0000E+00  0.9021E-08  0.7498E-12  0.4231E-04  0.0000E+00 -0.1140E+12
   -1.147508    4.00051  0.0000E+00  0.9169E-08  0.7728E-12  0.4239E-04  0.0000E+00 -0.1164E+12
   -1.190008    4.00103  0.0000E+00  0.9302E-08  0.7975E-12  0.4227E-04  0.0000E+00 -0.1201E+12
   -1.232509    4.00154  0.0000E+00  0.9427E-08  0.8258E-12  0.4203E-04  0.0000E+00 -0.1272E+12
   -1.275009    4.00207  0.0000E+00  0.9545E-08  0.8590E-12  0.4156E-04  0.0000E+00 -0.1360E+12
   -1.317510    4.00261  0.0000E+00  0.9657E-08  0.8992E-12  0.4082E-04  0.0000E+00 -0.1470E+12
   -1.360010    4.00317  0.0000E+00  0.9763E-08  0.9493E-12  0.3971E-04  0.0000E+00 -0.1623E+12
   -1.402509    4.00378  0.0000E+00  0.9862E-08  0.1014E-11  0.3806E-04  0.0000E+00 -0.1787E+12
   -1.445009    4.00442  0.0000E+00  0.9940E-08  0.1092E-11  0.3595E-04  0.0000E+00 -0.1940E+12
   -1.487508    4.00509  0.0000E+00  0.1000E-07  0.1197E-11  0.3322E-04  0.0000E+00 -0.2182E+12
   -1.530007    4.00582  0.0000E+00  0.1005E-07  0.1379E-11  0.2880E-04  0.0000E+00 -0.2930E+12
   -1.572505    4.00676  0.0000E+00  0.1005E-07  0.1773E-11  0.2354E-04  0.0000E+00 -0.5331E+12
   -1.615003    4.00836  0.0000E+00  0.9687E-08  0.3372E-11  0.8561E-05  0.0000E+00 -0.1904E+13
   -1.657501    4.01332  0.0000E+00  0.7347E-08  0.1196E-10  0.9315E-06  0.0000E+00 -0.2887E+14
   -1.699998    4.05277  0.0000E+00  0.0000E+00  0.0000E+00  0.0000E+00  0.0000E+00  0.0000E+00
