 1 - depth, m
 2 - temperature, C
 3 - salinity, kg/kg
 4 - turbulent kinetic energy, m**2/s**2
 5 - dissipation rate, m**2/s**3
 6 - kinematic heat conductance, m**2/s
 7 - modulus of horizontal velocity, m/s
 8 - Richardson number, n/d
   -0.000000    0.00000  0.0000E+00  0.1441E-10  0.7055E-14  0.1000E-09  0.0000E+00  0.2268E+17
   -0.042497    0.35723  0.0000E+00  0.3170E-10  0.6016E-14  0.1000E-09  0.0000E+00  0.1957E+17
   -0.084994    0.69863  0.0000E+00  0.6458E-10  0.7566E-14  0.1000E-09  0.0000E+00  0.1684E+17
   -0.127491    1.02572  0.0000E+00  0.1177E-09  0.1124E-13  0.1000E-09  0.0000E+00  0.1427E+17
   -0.169989    1.33599  0.0000E+00  0.2012E-09  0.1756E-13  0.1000E-09  0.0000E+00  0.1204E+17
   -0.212487    1.63089  0.0000E+00  0.3328E-09  0.2775E-13  0.1000E-09  0.0000E+00  0.1010E+17
   -0.254985    1.91177  0.0000E+00  0.5414E-09  0.4389E-13  0.1000E-09  0.0000E+00  0.8404E+16
   -0.297484    2.17977  0.0000E+00  0.8727E-09  0.6929E-13  0.1000E-09  0.0000E+00  0.6921E+16
   -0.339983    2.43602  0.0000E+00  0.1388E-08  0.1083E-12  0.1000E-09  0.0000E+00  0.5623E+16
   -0.382482    2.68185  0.0000E+00  0.2191E-08  0.1681E-12  0.1180E-09  0.0000E+00  0.4484E+16
   -0.424981    2.91873  0.0000E+00  0.3430E-08  0.2592E-12  0.2346E-09  0.0000E+00  0.3480E+16
   -0.467481    3.14841  0.0000E+00  0.5336E-08  0.3972E-12  0.4863E-09  0.0000E+00  0.2576E+16
   -0.509981    3.37231  0.0000E+00  0.8267E-08  0.6064E-12  0.1090E-08  0.0000E+00  0.1760E+16
   -0.552481    3.59366  0.0000E+00  0.1277E-07  0.9235E-12  0.3031E-08  0.0000E+00  0.9721E+15
   -0.594981    3.81069  0.0000E+00  0.1955E-07  0.1396E-11  0.1909E-07  0.0000E+00  0.2412E+15
   -0.637481    4.00384  0.0000E+00  0.1990E-07  0.1422E-11  0.9986E-04  0.0000E+00 -0.8388E+11
   -0.679981    4.00414  0.0000E+00  0.2007E-07  0.1438E-11  0.9738E-04  0.0000E+00 -0.8849E+11
   -0.722482    4.00446  0.0000E+00  0.2026E-07  0.1455E-11  0.9761E-04  0.0000E+00 -0.9178E+11
   -0.764982    4.00478  0.0000E+00  0.2044E-07  0.1475E-11  0.9784E-04  0.0000E+00 -0.9570E+11
   -0.807483    4.00512  0.0000E+00  0.2063E-07  0.1499E-11  0.9797E-04  0.0000E+00 -0.9955E+11
   -0.849984    4.00546  0.0000E+00  0.2082E-07  0.1524E-11  0.9798E-04  0.0000E+00 -0.1036E+12
   -0.892484    4.00580  0.0000E+00  0.2100E-07  0.1553E-11  0.9786E-04  0.0000E+00 -0.1071E+12
   -0.934985    4.00615  0.0000E+00  0.2118E-07  0.1584E-11  0.9760E-04  0.0000E+00 -0.1098E+12
   -0.977485    4.00651  0.0000E+00  0.2135E-07  0.1617E-11  0.9717E-04  0.0000E+00 -0.1129E+12
   -1.019986    4.00687  0.0000E+00  0.2151E-07  0.1654E-11  0.9655E-04  0.0000E+00 -0.1160E+12
   -1.062486    4.00723  0.0000E+00  0.2166E-07  0.1693E-11  0.9573E-04  0.0000E+00 -0.1194E+12
   -1.104986    4.00759  0.0000E+00  0.2180E-07  0.1736E-11  0.9474E-04  0.0000E+00 -0.1225E+12
   -1.147486    4.00796  0.0000E+00  0.2193E-07  0.1782E-11  0.9363E-04  0.0000E+00 -0.1256E+12
   -1.189986    4.00833  0.0000E+00  0.2204E-07  0.1831E-11  0.9223E-04  0.0000E+00 -0.1297E+12
   -1.232486    4.00870  0.0000E+00  0.2214E-07  0.1887E-11  0.9050E-04  0.0000E+00 -0.1365E+12
   -1.274986    4.00909  0.0000E+00  0.2223E-07  0.1953E-11  0.8842E-04  0.0000E+00 -0.1447E+12
   -1.317485    4.00950  0.0000E+00  0.2230E-07  0.2033E-11  0.8587E-04  0.0000E+00 -0.1544E+12
   -1.359985    4.00992  0.0000E+00  0.2237E-07  0.2134E-11  0.8265E-04  0.0000E+00 -0.1676E+12
   -1.402483    4.01037  0.0000E+00  0.2243E-07  0.2267E-11  0.7880E-04  0.0000E+00 -0.1819E+12
   -1.444982    4.01085  0.0000E+00  0.2246E-07  0.2427E-11  0.7463E-04  0.0000E+00 -0.1954E+12
   -1.487480    4.01136  0.0000E+00  0.2246E-07  0.2625E-11  0.6962E-04  0.0000E+00 -0.2147E+12
   -1.529979    4.01191  0.0000E+00  0.2244E-07  0.2928E-11  0.6291E-04  0.0000E+00 -0.2615E+12
   -1.572476    4.01255  0.0000E+00  0.2233E-07  0.3571E-11  0.5335E-04  0.0000E+00 -0.4040E+12
   -1.614974    4.01352  0.0000E+00  0.2169E-07  0.6389E-11  0.2133E-04  0.0000E+00 -0.1221E+13
   -1.657471    4.01627  0.0000E+00  0.1645E-07  0.2947E-10  0.1593E-05  0.0000E+00 -0.2570E+14
   -1.699967    4.05099  0.0000E+00  0.0000E+00  0.0000E+00  0.0000E+00  0.0000E+00  0.0000E+00
