 1 - depth, m
 2 - temperature, C
 3 - salinity, kg/kg
 4 - turbulent kinetic energy, m**2/s**2
 5 - dissipation rate, m**2/s**3
 6 - kinematic heat conductance, m**2/s
 7 - modulus of horizontal velocity, m/s
 8 - Richardson number, n/d
   -0.000000   11.22465  0.0000E+00  0.1526E-03  0.7453E-04  0.5601E-04  0.1102E+00 -0.1781E-02
   -0.042497   11.24037  0.0000E+00  0.8218E-04  0.2334E-04  0.9217E-04  0.3022E-01 -0.1292E-01
   -0.084995   11.24331  0.0000E+00  0.5743E-04  0.1084E-04  0.8455E-04  0.2072E-01 -0.9985E-02
   -0.127493   11.24567  0.0000E+00  0.4146E-04  0.5202E-05  0.7963E-04  0.1592E-01 -0.1909E-01
   -0.169992   11.24776  0.0000E+00  0.3003E-04  0.2493E-05  0.7691E-04  0.1242E-01 -0.2908E-01
   -0.212491   11.24972  0.0000E+00  0.2168E-04  0.1203E-05  0.7504E-04  0.9626E-02 -0.3908E-01
   -0.254990   11.25158  0.0000E+00  0.1571E-04  0.5974E-06  0.7402E-04  0.7447E-02 -0.8477E-01
   -0.297489   11.25333  0.0000E+00  0.1163E-04  0.3204E-06  0.7407E-04  0.5811E-02 -0.1246E+00
   -0.339989   11.25498  0.0000E+00  0.8909E-05  0.1866E-06  0.7659E-04  0.4561E-02 -0.1738E+00
   -0.382489   11.25653  0.0000E+00  0.7027E-05  0.1140E-06  0.8620E-04  0.3586E-02  0.4216E+01
   -0.424989   11.25791  0.0000E+00  0.5744E-05  0.7268E-07  0.1134E-03  0.2851E-02  0.1336E+03
   -0.467490   11.25912  0.0000E+00  0.4839E-05  0.4813E-07  0.1342E-03  0.2256E-02  0.2592E+02
   -0.509990   11.26023  0.0000E+00  0.4182E-05  0.3303E-07  0.1544E-03  0.1771E-02  0.1292E+02
   -0.552491   11.26124  0.0000E+00  0.3697E-05  0.2349E-07  0.1811E-03  0.1377E-02  0.1136E+02
   -0.594992   11.26215  0.0000E+00  0.3334E-05  0.1732E-07  0.2099E-03  0.1058E-02  0.3755E+02
   -0.637493   11.26295  0.0000E+00  0.3058E-05  0.1320E-07  0.2409E-03  0.8068E-03  0.4972E+02
   -0.679994   11.26364  0.0000E+00  0.2856E-05  0.1044E-07  0.2724E-03  0.6207E-03  0.8896E+01
   -0.722495   11.26423  0.0000E+00  0.2709E-05  0.8566E-08  0.2988E-03  0.4825E-03  0.4250E+02
   -0.764997   11.26474  0.0000E+00  0.2605E-05  0.7260E-08  0.3233E-03  0.3821E-03  0.1157E+02
   -0.807498   11.26519  0.0000E+00  0.2535E-05  0.6339E-08  0.3483E-03  0.3102E-03  0.6887E+01
   -0.849999   11.26560  0.0000E+00  0.2492E-05  0.5697E-08  0.3711E-03  0.2570E-03  0.9177E+01
   -0.892501   11.26598  0.0000E+00  0.2468E-05  0.5239E-08  0.3925E-03  0.2166E-03  0.1063E+02
   -0.935002   11.26634  0.0000E+00  0.2459E-05  0.4913E-08  0.4116E-03  0.1855E-03  0.3820E+01
   -0.977503   11.26669  0.0000E+00  0.2461E-05  0.4675E-08  0.4285E-03  0.1603E-03  0.4054E+01
   -1.020005   11.26704  0.0000E+00  0.2469E-05  0.4502E-08  0.4435E-03  0.1397E-03  0.5183E+01
   -1.062506   11.26739  0.0000E+00  0.2482E-05  0.4377E-08  0.4565E-03  0.1220E-03  0.5659E+01
   -1.105007   11.26776  0.0000E+00  0.2497E-05  0.4290E-08  0.4674E-03  0.1067E-03  0.6811E+01
   -1.147508   11.26813  0.0000E+00  0.2513E-05  0.4236E-08  0.4759E-03  0.9274E-04  0.8168E+01
   -1.190009   11.26852  0.0000E+00  0.2528E-05  0.4210E-08  0.4818E-03  0.7982E-04  0.9576E+01
   -1.232509   11.26894  0.0000E+00  0.2542E-05  0.4209E-08  0.4852E-03  0.6792E-04  0.1145E+02
   -1.275010   11.26936  0.0000E+00  0.2555E-05  0.4232E-08  0.4857E-03  0.5755E-04  0.1518E+02
   -1.317510   11.26979  0.0000E+00  0.2565E-05  0.4284E-08  0.4828E-03  0.4853E-04  0.2073E+02
   -1.360010   11.27024  0.0000E+00  0.2574E-05  0.4370E-08  0.4754E-03  0.4077E-04  0.2884E+02
   -1.402510   11.27070  0.0000E+00  0.2579E-05  0.4505E-08  0.4627E-03  0.3423E-04  0.4358E+02
   -1.445009   11.27119  0.0000E+00  0.2581E-05  0.4689E-08  0.4453E-03  0.2849E-04  0.6705E+02
   -1.487508   11.27173  0.0000E+00  0.2577E-05  0.4938E-08  0.4222E-03  0.2310E-04  0.8660E+02
   -1.530007   11.27232  0.0000E+00  0.2564E-05  0.5346E-08  0.3867E-03  0.1808E-04  0.1074E+03
   -1.572506   11.27299  0.0000E+00  0.2529E-05  0.6255E-08  0.3331E-03  0.1371E-04  0.2102E+03
   -1.615004   11.27380  0.0000E+00  0.2404E-05  0.9738E-08  0.2249E-03  0.1073E-04 -0.4781E+07
   -1.657501   11.27545  0.0000E+00  0.1656E-05  0.3518E-07  0.2004E-04  0.7780E-05 -0.2952E+06
   -1.699999   11.29344  0.0000E+00  0.0000E+00  0.0000E+00  0.0000E+00  0.8087E-05  0.0000E+00
