 1 - depth, m
 2 - temperature, C
 3 - salinity, kg/kg
 4 - turbulent kinetic energy, m**2/s**2
 5 - dissipation rate, m**2/s**3
 6 - kinematic heat conductance, m**2/s
 7 - modulus of horizontal velocity, m/s
 8 - Richardson number, n/d
   -0.000000    0.00000  0.0000E+00  0.3189E-13  0.5207E-16  0.1000E-09  0.0000E+00  0.1673E+17
   -0.042497    0.25999  0.0000E+00  0.3189E-13  0.5207E-16  0.1000E-09  0.0000E+00  0.1584E+17
   -0.084995    0.52535  0.0000E+00  0.4207E-13  0.5207E-16  0.1000E-09  0.0000E+00  0.1477E+17
   -0.127493    0.79392  0.0000E+00  0.9764E-13  0.5207E-16  0.1000E-09  0.0000E+00  0.1328E+17
   -0.169991    1.05745  0.0000E+00  0.2745E-12  0.5497E-16  0.1000E-09  0.0000E+00  0.1180E+17
   -0.212490    1.31458  0.0000E+00  0.5902E-12  0.6861E-16  0.1000E-09  0.0000E+00  0.1038E+17
   -0.254989    1.56437  0.0000E+00  0.1085E-11  0.1019E-15  0.1000E-09  0.0000E+00  0.9028E+16
   -0.297488    1.80571  0.0000E+00  0.1850E-11  0.1588E-15  0.1000E-09  0.0000E+00  0.7726E+16
   -0.339987    2.03677  0.0000E+00  0.3016E-11  0.2481E-15  0.1000E-09  0.0000E+00  0.6494E+16
   -0.382487    2.25551  0.0000E+00  0.4809E-11  0.3862E-15  0.1000E-09  0.0000E+00  0.5378E+16
   -0.424987    2.46096  0.0000E+00  0.7560E-11  0.5969E-15  0.1000E-09  0.0000E+00  0.4375E+16
   -0.467488    2.65187  0.0000E+00  0.1178E-10  0.9174E-15  0.1000E-09  0.0000E+00  0.3503E+16
   -0.509988    2.82773  0.0000E+00  0.1827E-10  0.1406E-14  0.1000E-09  0.0000E+00  0.2802E+16
   -0.552489    2.99098  0.0000E+00  0.2830E-10  0.2151E-14  0.1000E-09  0.0000E+00  0.2208E+16
   -0.594989    3.14199  0.0000E+00  0.4378E-10  0.3290E-14  0.1000E-09  0.0000E+00  0.1712E+16
   -0.637490    3.28133  0.0000E+00  0.6823E-10  0.5069E-14  0.1000E-09  0.0000E+00  0.1305E+16
   -0.679991    3.41004  0.0000E+00  0.1069E-09  0.7849E-14  0.1000E-09  0.0000E+00  0.9641E+15
   -0.722492    3.52801  0.0000E+00  0.1682E-09  0.1222E-13  0.1000E-09  0.0000E+00  0.6850E+15
   -0.764994    3.63535  0.0000E+00  0.2664E-09  0.1913E-13  0.1308E-09  0.0000E+00  0.4590E+15
   -0.807495    3.73161  0.0000E+00  0.4229E-09  0.3003E-13  0.3346E-09  0.0000E+00  0.2815E+15
   -0.849996    3.81579  0.0000E+00  0.6667E-09  0.4684E-13  0.9759E-09  0.0000E+00  0.1509E+15
   -0.892497    3.88686  0.0000E+00  0.1049E-08  0.7286E-13  0.3566E-08  0.0000E+00  0.6642E+14
   -0.934998    3.94741  0.0000E+00  0.1614E-08  0.1112E-12  0.5955E-07  0.0000E+00  0.1282E+14
   -0.977499    3.99171  0.0000E+00  0.1899E-08  0.1316E-12  0.9066E-05  0.0000E+00 -0.7831E+11
   -1.020001    3.99258  0.0000E+00  0.2059E-08  0.1450E-12  0.9959E-05  0.0000E+00 -0.8259E+11
   -1.062502    3.99338  0.0000E+00  0.2210E-08  0.1597E-12  0.1057E-04  0.0000E+00 -0.8783E+11
   -1.105002    3.99414  0.0000E+00  0.2353E-08  0.1758E-12  0.1078E-04  0.0000E+00 -0.9371E+11
   -1.147503    3.99487  0.0000E+00  0.2487E-08  0.1938E-12  0.1065E-04  0.0000E+00 -0.1006E+12
   -1.190004    3.99560  0.0000E+00  0.2616E-08  0.2142E-12  0.1043E-04  0.0000E+00 -0.1100E+12
   -1.232504    3.99633  0.0000E+00  0.2747E-08  0.2393E-12  0.1043E-04  0.0000E+00 -0.1255E+12
   -1.275004    3.99710  0.0000E+00  0.2884E-08  0.2707E-12  0.1028E-04  0.0000E+00 -0.1470E+12
   -1.317505    3.99794  0.0000E+00  0.3027E-08  0.3112E-12  0.9986E-05  0.0000E+00 -0.1778E+12
   -1.360004    3.99888  0.0000E+00  0.3178E-08  0.3654E-12  0.9571E-05  0.0000E+00 -0.2248E+12
   -1.402504    3.99997  0.0000E+00  0.3341E-08  0.4418E-12  0.8505E-05  0.0000E+00 -0.2932E+12
   -1.445003    4.00128  0.0000E+00  0.3505E-08  0.5456E-12  0.7014E-05  0.0000E+00 -0.3889E+12
   -1.487502    4.00286  0.0000E+00  0.3688E-08  0.7005E-12  0.5666E-05  0.0000E+00 -0.5548E+12
   -1.530001    4.00487  0.0000E+00  0.3962E-08  0.9914E-12  0.4851E-05  0.0000E+00 -0.9939E+12
   -1.572499    4.00802  0.0000E+00  0.4438E-08  0.1685E-11  0.4525E-05  0.0000E+00 -0.2583E+13
   -1.614997    4.01460  0.0000E+00  0.5059E-08  0.3896E-11  0.2195E-05  0.0000E+00 -0.9842E+13
   -1.657495    4.03165  0.0000E+00  0.5156E-08  0.1047E-10  0.7221E-06  0.0000E+00 -0.6176E+14
   -1.699992    4.08606  0.0000E+00  0.0000E+00  0.0000E+00  0.0000E+00  0.0000E+00  0.0000E+00
