 1 - depth, m
 2 - temperature, C
 3 - salinity, kg/kg
 4 - turbulent kinetic energy, m**2/s**2
 5 - dissipation rate, m**2/s**3
 6 - kinematic heat conductance, m**2/s
 7 - modulus of horizontal velocity, m/s
 8 - Richardson number, n/d
   -0.000000   12.98465  0.0000E+00  0.7524E-04  0.1006E-03  0.4667E-04  0.6248E-01 -0.4535E-01
   -0.042497   13.01057  0.0000E+00  0.4289E-04  0.4605E-04  0.6194E-04  0.2023E-01 -0.4659E-01
   -0.084995   13.01732  0.0000E+00  0.3047E-04  0.2496E-04  0.6348E-04  0.1372E-01 -0.4463E-01
   -0.127493   13.02235  0.0000E+00  0.2227E-04  0.1197E-04  0.6663E-04  0.1015E-01 -0.6730E-01
   -0.169992   13.02655  0.0000E+00  0.1639E-04  0.4235E-05  0.7128E-04  0.7661E-02 -0.1174E+00
   -0.212490   13.03029  0.0000E+00  0.1215E-04  0.9755E-06  0.7916E-04  0.5779E-02  0.4862E+01
   -0.254989   13.03365  0.0000E+00  0.9272E-05  0.2579E-06  0.1010E-03  0.4375E-02  0.2426E+03
   -0.297489   13.03650  0.0000E+00  0.7344E-05  0.1276E-06  0.1274E-03  0.3374E-02  0.3830E+02
   -0.339989   13.03889  0.0000E+00  0.6063E-05  0.7731E-07  0.1549E-03  0.2653E-02  0.6865E+01
   -0.382489   13.04093  0.0000E+00  0.5205E-05  0.4997E-07  0.1866E-03  0.2099E-02  0.5414E+02
   -0.424989   13.04261  0.0000E+00  0.4647E-05  0.3433E-07  0.2329E-03  0.1686E-02  0.2446E+03
   -0.467489   13.04391  0.0000E+00  0.4291E-05  0.2519E-07  0.2869E-03  0.1368E-02  0.8266E+01
   -0.509990   13.04491  0.0000E+00  0.4062E-05  0.1961E-07  0.3228E-03  0.1124E-02  0.4729E+01
   -0.552490   13.04575  0.0000E+00  0.3907E-05  0.1597E-07  0.3553E-03  0.9211E-03  0.6276E+02
   -0.594991   13.04649  0.0000E+00  0.3804E-05  0.1350E-07  0.3867E-03  0.7489E-03  0.1728E+02
   -0.637492   13.04716  0.0000E+00  0.3734E-05  0.1174E-07  0.4184E-03  0.6055E-03  0.8317E+02
   -0.679994   13.04775  0.0000E+00  0.3690E-05  0.1048E-07  0.4487E-03  0.4921E-03  0.1895E+01
   -0.722495   13.04830  0.0000E+00  0.3663E-05  0.9534E-08  0.4783E-03  0.4025E-03  0.2424E+01
   -0.764996   13.04880  0.0000E+00  0.3651E-05  0.8830E-08  0.5063E-03  0.3343E-03  0.1383E+01
   -0.807497   13.04926  0.0000E+00  0.3648E-05  0.8291E-08  0.5312E-03  0.2837E-03  0.1513E+01
   -0.849999   13.04970  0.0000E+00  0.3652E-05  0.7883E-08  0.5538E-03  0.2444E-03  0.1714E+01
   -0.892500   13.05011  0.0000E+00  0.3661E-05  0.7569E-08  0.5744E-03  0.2131E-03  0.1974E+01
   -0.935001   13.05052  0.0000E+00  0.3674E-05  0.7332E-08  0.5923E-03  0.1880E-03  0.2348E+01
   -0.977503   13.05091  0.0000E+00  0.3689E-05  0.7156E-08  0.6079E-03  0.1668E-03  0.2757E+01
   -1.020004   13.05131  0.0000E+00  0.3705E-05  0.7030E-08  0.6209E-03  0.1488E-03  0.3298E+01
   -1.062505   13.05170  0.0000E+00  0.3721E-05  0.6945E-08  0.6310E-03  0.1330E-03  0.3859E+01
   -1.105006   13.05209  0.0000E+00  0.3737E-05  0.6898E-08  0.6381E-03  0.1189E-03  0.4537E+01
   -1.147507   13.05249  0.0000E+00  0.3751E-05  0.6886E-08  0.6418E-03  0.1059E-03  0.5336E+01
   -1.190008   13.05290  0.0000E+00  0.3762E-05  0.6906E-08  0.6419E-03  0.9359E-04  0.6143E+01
   -1.232508   13.05332  0.0000E+00  0.3769E-05  0.6961E-08  0.6383E-03  0.8204E-04  0.7224E+01
   -1.275009   13.05376  0.0000E+00  0.3773E-05  0.7057E-08  0.6303E-03  0.7166E-04  0.9374E+01
   -1.317509   13.05420  0.0000E+00  0.3773E-05  0.7204E-08  0.6170E-03  0.6230E-04  0.1256E+02
   -1.360009   13.05466  0.0000E+00  0.3768E-05  0.7424E-08  0.5971E-03  0.5395E-04  0.1719E+02
   -1.402508   13.05515  0.0000E+00  0.3756E-05  0.7753E-08  0.5690E-03  0.4659E-04  0.2570E+02
   -1.445008   13.05566  0.0000E+00  0.3738E-05  0.8194E-08  0.5339E-03  0.3985E-04  0.3940E+02
   -1.487507   13.05622  0.0000E+00  0.3712E-05  0.8801E-08  0.4972E-03  0.3329E-04  0.5141E+02
   -1.530006   13.05685  0.0000E+00  0.3671E-05  0.9832E-08  0.4218E-03  0.2698E-04  0.6734E+02
   -1.572504   13.05760  0.0000E+00  0.3588E-05  0.1219E-07  0.4461E-03  0.2096E-04  0.1054E+03
   -1.615002   13.05830  0.0000E+00  0.3255E-05  0.2439E-07  0.1769E-03  0.1749E-04 -0.6827E+07
   -1.657500   13.06236  0.0000E+00  0.2104E-05  0.8074E-07  0.4631E-04  0.1104E-04 -0.7868E+05
   -1.699997   13.07009  0.0000E+00  0.0000E+00  0.0000E+00  0.0000E+00  0.1281E-04  0.0000E+00
