 1 - depth, m
 2 - temperature, C
 3 - salinity, kg/kg
 4 - turbulent kinetic energy, m**2/s**2
 5 - dissipation rate, m**2/s**3
 6 - kinematic heat conductance, m**2/s
 7 - modulus of horizontal velocity, m/s
 8 - Richardson number, n/d
   -0.000000    0.00000  0.0000E+00  0.6518E-12  0.1901E-15  0.1000E-09  0.0000E+00  0.1719E+17
   -0.042498    0.26745  0.0000E+00  0.1139E-11  0.2320E-15  0.1000E-09  0.0000E+00  0.1475E+17
   -0.084996    0.51446  0.0000E+00  0.2257E-11  0.3923E-15  0.1000E-09  0.0000E+00  0.1288E+17
   -0.127494    0.74653  0.0000E+00  0.4470E-11  0.7305E-15  0.1000E-09  0.0000E+00  0.1133E+17
   -0.169993    0.96612  0.0000E+00  0.8748E-11  0.1386E-14  0.1000E-09  0.0000E+00  0.1005E+17
   -0.212492    1.17602  0.0000E+00  0.1698E-10  0.2632E-14  0.1000E-09  0.0000E+00  0.8888E+16
   -0.254991    1.37640  0.0000E+00  0.3284E-10  0.4990E-14  0.1000E-09  0.0000E+00  0.7816E+16
   -0.297491    1.56691  0.0000E+00  0.6324E-10  0.9433E-14  0.1000E-09  0.0000E+00  0.6938E+16
   -0.339991    1.75014  0.0000E+00  0.1202E-09  0.1760E-13  0.1000E-09  0.0000E+00  0.6263E+16
   -0.382491    1.93006  0.0000E+00  0.2267E-09  0.3259E-13  0.1000E-09  0.0000E+00  0.5606E+16
   -0.424991    2.10620  0.0000E+00  0.4234E-09  0.5976E-13  0.1000E-09  0.0000E+00  0.5094E+16
   -0.467492    2.28250  0.0000E+00  0.7843E-09  0.1087E-12  0.1095E-09  0.0000E+00  0.4580E+16
   -0.509993    2.45884  0.0000E+00  0.1444E-08  0.1964E-12  0.1595E-09  0.0000E+00  0.4161E+16
   -0.552494    2.63955  0.0000E+00  0.2648E-08  0.3534E-12  0.2948E-09  0.0000E+00  0.3757E+16
   -0.594995    2.82743  0.0000E+00  0.4829E-08  0.6327E-12  0.5899E-09  0.0000E+00  0.3338E+16
   -0.637496    3.02582  0.0000E+00  0.8848E-08  0.1138E-11  0.1222E-08  0.0000E+00  0.2885E+16
   -0.679998    3.24091  0.0000E+00  0.1620E-07  0.2045E-11  0.2747E-08  0.0000E+00  0.2350E+16
   -0.722499    3.48592  0.0000E+00  0.2950E-07  0.3659E-11  0.1032E-07  0.0000E+00  0.1496E+16
   -0.765001    3.76879  0.0000E+00  0.4309E-07  0.5297E-11  0.3455E-04  0.0000E+00  0.5235E+15
   -0.807502    3.97079  0.0000E+00  0.4842E-07  0.5937E-11  0.1024E-03  0.0000E+00  0.5671E+14
   -0.850004    4.02897  0.0000E+00  0.4902E-07  0.6023E-11  0.1344E-03  0.0000E+00 -0.2997E+12
   -0.892505    4.02942  0.0000E+00  0.4947E-07  0.6102E-11  0.1338E-03  0.0000E+00 -0.3073E+12
   -0.935007    4.02988  0.0000E+00  0.4991E-07  0.6188E-11  0.1342E-03  0.0000E+00 -0.3095E+12
   -0.977509    4.03034  0.0000E+00  0.5031E-07  0.6282E-11  0.1344E-03  0.0000E+00 -0.3125E+12
   -1.020010    4.03079  0.0000E+00  0.5069E-07  0.6385E-11  0.1342E-03  0.0000E+00 -0.3158E+12
   -1.062511    4.03125  0.0000E+00  0.5103E-07  0.6497E-11  0.1337E-03  0.0000E+00 -0.3198E+12
   -1.105013    4.03170  0.0000E+00  0.5134E-07  0.6619E-11  0.1330E-03  0.0000E+00 -0.3239E+12
   -1.147514    4.03216  0.0000E+00  0.5160E-07  0.6750E-11  0.1320E-03  0.0000E+00 -0.3280E+12
   -1.190015    4.03261  0.0000E+00  0.5183E-07  0.6890E-11  0.1306E-03  0.0000E+00 -0.3342E+12
   -1.232516    4.03307  0.0000E+00  0.5202E-07  0.7052E-11  0.1288E-03  0.0000E+00 -0.3446E+12
   -1.275016    4.03354  0.0000E+00  0.5218E-07  0.7245E-11  0.1264E-03  0.0000E+00 -0.3575E+12
   -1.317517    4.03402  0.0000E+00  0.5231E-07  0.7481E-11  0.1234E-03  0.0000E+00 -0.3730E+12
   -1.360017    4.03452  0.0000E+00  0.5241E-07  0.7779E-11  0.1194E-03  0.0000E+00 -0.3947E+12
   -1.402517    4.03504  0.0000E+00  0.5247E-07  0.8172E-11  0.1147E-03  0.0000E+00 -0.4185E+12
   -1.445017    4.03559  0.0000E+00  0.5248E-07  0.8647E-11  0.1094E-03  0.0000E+00 -0.4422E+12
   -1.487516    4.03616  0.0000E+00  0.5244E-07  0.9236E-11  0.1031E-03  0.0000E+00 -0.4748E+12
   -1.530015    4.03676  0.0000E+00  0.5231E-07  0.1013E-10  0.9433E-04  0.0000E+00 -0.5474E+12
   -1.572514    4.03745  0.0000E+00  0.5196E-07  0.1203E-10  0.8150E-04  0.0000E+00 -0.7461E+12
   -1.615012    4.03838  0.0000E+00  0.5034E-07  0.2004E-10  0.3589E-04  0.0000E+00 -0.1895E+13
   -1.657510    4.04067  0.0000E+00  0.3651E-07  0.9519E-10  0.2190E-05  0.0000E+00 -0.4056E+14
   -1.700008    4.07657  0.0000E+00  0.0000E+00  0.0000E+00  0.0000E+00  0.0000E+00  0.0000E+00
