 1 - depth, m
 2 - temperature, C
 3 - salinity, kg/kg
 4 - turbulent kinetic energy, m**2/s**2
 5 - dissipation rate, m**2/s**3
 6 - kinematic heat conductance, m**2/s
 7 - modulus of horizontal velocity, m/s
 8 - Richardson number, n/d
   -0.000000    0.00000  0.0000E+00  0.3189E-13  0.5206E-16  0.1000E-09  0.0000E+00  0.8322E+16
   -0.042497    0.12700  0.0000E+00  0.3189E-13  0.5206E-16  0.1000E-09  0.0000E+00  0.8366E+16
   -0.084995    0.25932  0.0000E+00  0.3189E-13  0.5206E-16  0.1000E-09  0.0000E+00  0.8354E+16
   -0.127493    0.39665  0.0000E+00  0.3189E-13  0.5206E-16  0.1000E-09  0.0000E+00  0.8031E+16
   -0.169992    0.53414  0.0000E+00  0.3189E-13  0.5206E-16  0.1000E-09  0.0000E+00  0.7707E+16
   -0.212491    0.67175  0.0000E+00  0.3189E-13  0.5206E-16  0.1000E-09  0.0000E+00  0.7384E+16
   -0.254990    0.80951  0.0000E+00  0.3189E-13  0.5206E-16  0.1000E-09  0.0000E+00  0.7059E+16
   -0.297490    0.94738  0.0000E+00  0.3189E-13  0.5206E-16  0.1000E-09  0.0000E+00  0.6723E+16
   -0.339990    1.08509  0.0000E+00  0.3189E-13  0.5206E-16  0.1000E-09  0.0000E+00  0.6375E+16
   -0.382490    1.22231  0.0000E+00  0.3189E-13  0.5206E-16  0.1000E-09  0.0000E+00  0.6025E+16
   -0.424990    1.35892  0.0000E+00  0.3189E-13  0.5206E-16  0.1000E-09  0.0000E+00  0.5668E+16
   -0.467490    1.49456  0.0000E+00  0.3189E-13  0.5206E-16  0.1000E-09  0.0000E+00  0.5314E+16
   -0.509991    1.62912  0.0000E+00  0.3189E-13  0.5206E-16  0.1000E-09  0.0000E+00  0.4979E+16
   -0.552492    1.76287  0.0000E+00  0.3189E-13  0.5206E-16  0.1000E-09  0.0000E+00  0.4649E+16
   -0.594993    1.89578  0.0000E+00  0.3189E-13  0.5206E-16  0.1000E-09  0.0000E+00  0.4331E+16
   -0.637494    2.02797  0.0000E+00  0.3189E-13  0.5206E-16  0.1000E-09  0.0000E+00  0.4027E+16
   -0.679996    2.15974  0.0000E+00  0.3189E-13  0.5206E-16  0.1000E-09  0.0000E+00  0.3724E+16
   -0.722497    2.29098  0.0000E+00  0.3419E-13  0.5206E-16  0.1000E-09  0.0000E+00  0.3428E+16
   -0.764998    2.42178  0.0000E+00  0.1460E-12  0.5308E-16  0.1000E-09  0.0000E+00  0.3133E+16
   -0.807500    2.55202  0.0000E+00  0.4037E-12  0.9310E-16  0.1000E-09  0.0000E+00  0.2830E+16
   -0.850001    2.68104  0.0000E+00  0.9145E-12  0.1867E-15  0.1000E-09  0.0000E+00  0.2526E+16
   -0.892503    2.80834  0.0000E+00  0.1938E-11  0.3782E-15  0.1000E-09  0.0000E+00  0.2245E+16
   -0.935004    2.93463  0.0000E+00  0.3971E-11  0.7545E-15  0.1000E-09  0.0000E+00  0.1973E+16
   -0.977506    3.05998  0.0000E+00  0.8022E-11  0.1491E-14  0.1000E-09  0.0000E+00  0.1706E+16
   -1.020007    3.18427  0.0000E+00  0.1603E-10  0.2920E-14  0.1000E-09  0.0000E+00  0.1437E+16
   -1.062508    3.30665  0.0000E+00  0.3177E-10  0.5673E-14  0.1000E-09  0.0000E+00  0.1178E+16
   -1.105009    3.42685  0.0000E+00  0.6253E-10  0.1095E-13  0.1000E-09  0.0000E+00  0.9261E+15
   -1.147510    3.54393  0.0000E+00  0.1213E-09  0.2084E-13  0.1002E-09  0.0000E+00  0.6885E+15
   -1.190011    3.65717  0.0000E+00  0.2336E-09  0.3936E-13  0.2618E-09  0.0000E+00  0.4721E+15
   -1.232512    3.76650  0.0000E+00  0.4581E-09  0.7570E-13  0.8561E-09  0.0000E+00  0.2774E+15
   -1.275012    3.87231  0.0000E+00  0.9072E-09  0.1471E-12  0.4568E-08  0.0000E+00  0.1006E+15
   -1.317513    3.97338  0.0000E+00  0.1623E-08  0.2616E-12  0.5945E-06  0.0000E+00  0.8065E+12
   -1.360013    3.99473  0.0000E+00  0.2294E-08  0.3855E-12  0.4967E-05  0.0000E+00 -0.4891E+12
   -1.402513    3.99788  0.0000E+00  0.2784E-08  0.4990E-12  0.5786E-05  0.0000E+00 -0.5639E+12
   -1.445012    4.00066  0.0000E+00  0.3200E-08  0.6256E-12  0.5913E-05  0.0000E+00 -0.6618E+12
   -1.487511    4.00336  0.0000E+00  0.3563E-08  0.7833E-12  0.5649E-05  0.0000E+00 -0.8219E+12
   -1.530010    4.00620  0.0000E+00  0.3938E-08  0.1035E-11  0.5375E-05  0.0000E+00 -0.1192E+13
   -1.572509    4.00972  0.0000E+00  0.4382E-08  0.1556E-11  0.5218E-05  0.0000E+00 -0.2334E+13
   -1.615007    4.01540  0.0000E+00  0.4731E-08  0.3051E-11  0.2592E-05  0.0000E+00 -0.7097E+13
   -1.657505    4.02817  0.0000E+00  0.4158E-08  0.7437E-11  0.6088E-06  0.0000E+00 -0.4492E+14
   -1.700002    4.07287  0.0000E+00  0.0000E+00  0.0000E+00  0.0000E+00  0.0000E+00  0.0000E+00
