 1 - depth, m
 2 - temperature, C
 3 - salinity, kg/kg
 4 - turbulent kinetic energy, m**2/s**2
 5 - dissipation rate, m**2/s**3
 6 - kinematic heat conductance, m**2/s
 7 - modulus of horizontal velocity, m/s
 8 - Richardson number, n/d
   -0.000000   10.82174  0.0000E+00  0.1975E-03  0.1096E-03  0.5722E-04  0.1243E+00 -0.2011E-02
   -0.042498   10.87915  0.0000E+00  0.1080E-03  0.3742E-04  0.1258E-03  0.3032E-01 -0.2500E-01
   -0.084996   10.89013  0.0000E+00  0.7783E-04  0.1910E-04  0.1157E-03  0.2051E-01 -0.7192E-01
   -0.127494   10.89861  0.0000E+00  0.5802E-04  0.9562E-05  0.1085E-03  0.1606E-01 -0.5076E-01
   -0.169993   10.90541  0.0000E+00  0.4356E-04  0.4908E-05  0.1062E-03  0.1280E-01 -0.8899E-01
   -0.212492   10.91151  0.0000E+00  0.3287E-04  0.2561E-05  0.1079E-03  0.1019E-01 -0.1797E+00
   -0.254991   10.91709  0.0000E+00  0.2497E-04  0.1342E-05  0.1147E-03  0.8158E-02  0.8268E+02
   -0.297491   10.92214  0.0000E+00  0.1943E-04  0.7450E-06  0.1359E-03  0.6618E-02  0.6560E+02
   -0.339991   10.92652  0.0000E+00  0.1563E-04  0.4502E-06  0.1673E-03  0.5411E-02  0.2393E+02
   -0.382491   10.93020  0.0000E+00  0.1293E-04  0.2905E-06  0.1858E-03  0.4450E-02  0.5907E+02
   -0.424991   10.93338  0.0000E+00  0.1100E-04  0.1977E-06  0.2124E-03  0.3705E-02  0.4927E+02
   -0.467492   10.93602  0.0000E+00  0.9594E-05  0.1396E-06  0.2431E-03  0.3086E-02  0.8342E+01
   -0.509993   10.93828  0.0000E+00  0.8522E-05  0.1013E-06  0.2766E-03  0.2566E-02  0.6260E+02
   -0.552494   10.94020  0.0000E+00  0.7691E-05  0.7524E-07  0.3144E-03  0.2126E-02  0.1100E+02
   -0.594995   10.94186  0.0000E+00  0.7037E-05  0.5721E-07  0.3536E-03  0.1746E-02  0.3740E+02
   -0.637496   10.94331  0.0000E+00  0.6508E-05  0.4438E-07  0.3925E-03  0.1425E-02  0.6446E+02
   -0.679997   10.94459  0.0000E+00  0.6078E-05  0.3511E-07  0.4294E-03  0.1163E-02  0.4505E+01
   -0.722499   10.94573  0.0000E+00  0.5730E-05  0.2837E-07  0.4649E-03  0.9498E-03  0.3415E+01
   -0.765000   10.94676  0.0000E+00  0.5450E-05  0.2344E-07  0.4979E-03  0.7814E-03  0.8460E+01
   -0.807502   10.94770  0.0000E+00  0.5227E-05  0.1980E-07  0.5277E-03  0.6524E-03  0.3285E+02
   -0.850003   10.94855  0.0000E+00  0.5054E-05  0.1716E-07  0.5537E-03  0.5511E-03  0.9816E+02
   -0.892505   10.94934  0.0000E+00  0.4920E-05  0.1521E-07  0.5757E-03  0.4706E-03  0.1480E+02
   -0.935007   10.95008  0.0000E+00  0.4818E-05  0.1379E-07  0.5951E-03  0.4064E-03  0.1345E+01
   -0.977508   10.95078  0.0000E+00  0.4737E-05  0.1272E-07  0.6098E-03  0.3536E-03  0.1390E+01
   -1.020010   10.95145  0.0000E+00  0.4671E-05  0.1188E-07  0.6218E-03  0.3094E-03  0.1558E+01
   -1.062511   10.95212  0.0000E+00  0.4616E-05  0.1124E-07  0.6313E-03  0.2712E-03  0.1707E+01
   -1.105012   10.95276  0.0000E+00  0.4569E-05  0.1074E-07  0.6384E-03  0.2379E-03  0.1898E+01
   -1.147513   10.95340  0.0000E+00  0.4529E-05  0.1038E-07  0.6423E-03  0.2078E-03  0.2105E+01
   -1.190014   10.95403  0.0000E+00  0.4493E-05  0.1012E-07  0.6427E-03  0.1798E-03  0.2310E+01
   -1.232515   10.95466  0.0000E+00  0.4459E-05  0.9964E-08  0.6390E-03  0.1542E-03  0.2577E+01
   -1.275016   10.95529  0.0000E+00  0.4426E-05  0.9892E-08  0.6311E-03  0.1323E-03  0.3208E+01
   -1.317516   10.95593  0.0000E+00  0.4392E-05  0.9911E-08  0.6183E-03  0.1137E-03  0.4147E+01
   -1.360016   10.95658  0.0000E+00  0.4355E-05  0.1003E-07  0.5992E-03  0.9786E-04  0.5525E+01
   -1.402516   10.95724  0.0000E+00  0.4310E-05  0.1029E-07  0.5721E-03  0.8425E-04  0.8021E+01
   -1.445016   10.95794  0.0000E+00  0.4262E-05  0.1072E-07  0.5374E-03  0.7186E-04  0.1198E+02
   -1.487515   10.95868  0.0000E+00  0.4210E-05  0.1137E-07  0.5019E-03  0.5991E-04  0.1524E+02
   -1.530014   10.95947  0.0000E+00  0.4144E-05  0.1258E-07  0.4240E-03  0.4843E-04  0.1997E+02
   -1.572513   10.96042  0.0000E+00  0.4030E-05  0.1547E-07  0.4606E-03  0.3760E-04  0.2780E+02
   -1.615011   10.96128  0.0000E+00  0.3598E-05  0.3078E-07  0.1758E-03  0.3137E-04 -0.3793E+07
   -1.657509   10.96679  0.0000E+00  0.2292E-05  0.9818E-07  0.5276E-04  0.1958E-04 -0.1379E+05
   -1.700007   10.97452  0.0000E+00  0.0000E+00  0.0000E+00  0.0000E+00  0.2314E-04  0.0000E+00
