 1 - depth, m
 2 - temperature, C
 3 - salinity, kg/kg
 4 - turbulent kinetic energy, m**2/s**2
 5 - dissipation rate, m**2/s**3
 6 - kinematic heat conductance, m**2/s
 7 - modulus of horizontal velocity, m/s
 8 - Richardson number, n/d
   -0.000000    0.00000  0.0000E+00  0.3189E-13  0.5206E-16  0.1000E-09  0.0000E+00  0.7214E+16
   -0.042498    0.10984  0.0000E+00  0.3189E-13  0.5206E-16  0.1000E-09  0.0000E+00  0.7429E+16
   -0.084996    0.22653  0.0000E+00  0.3189E-13  0.5206E-16  0.1000E-09  0.0000E+00  0.7586E+16
   -0.127494    0.34980  0.0000E+00  0.3189E-13  0.5206E-16  0.1000E-09  0.0000E+00  0.7401E+16
   -0.169993    0.47451  0.0000E+00  0.3189E-13  0.5206E-16  0.1000E-09  0.0000E+00  0.7198E+16
   -0.212492    0.60046  0.0000E+00  0.3189E-13  0.5206E-16  0.1000E-09  0.0000E+00  0.6977E+16
   -0.254991    0.72747  0.0000E+00  0.3189E-13  0.5206E-16  0.1000E-09  0.0000E+00  0.6740E+16
   -0.297491    0.85532  0.0000E+00  0.3189E-13  0.5206E-16  0.1000E-09  0.0000E+00  0.6487E+16
   -0.339991    0.98380  0.0000E+00  0.3189E-13  0.5206E-16  0.1000E-09  0.0000E+00  0.6223E+16
   -0.382491    1.11274  0.0000E+00  0.3189E-13  0.5206E-16  0.1000E-09  0.0000E+00  0.5950E+16
   -0.424992    1.24195  0.0000E+00  0.3189E-13  0.5206E-16  0.1000E-09  0.0000E+00  0.5668E+16
   -0.467493    1.37126  0.0000E+00  0.3189E-13  0.5206E-16  0.1000E-09  0.0000E+00  0.5382E+16
   -0.509993    1.50053  0.0000E+00  0.3189E-13  0.5206E-16  0.1000E-09  0.0000E+00  0.5098E+16
   -0.552495    1.62980  0.0000E+00  0.3189E-13  0.5206E-16  0.1000E-09  0.0000E+00  0.4813E+16
   -0.594996    1.75900  0.0000E+00  0.3189E-13  0.5206E-16  0.1000E-09  0.0000E+00  0.4528E+16
   -0.637497    1.88809  0.0000E+00  0.3189E-13  0.5206E-16  0.1000E-09  0.0000E+00  0.4245E+16
   -0.679999    2.01704  0.0000E+00  0.3189E-13  0.5206E-16  0.1000E-09  0.0000E+00  0.3958E+16
   -0.722500    2.14570  0.0000E+00  0.3189E-13  0.5206E-16  0.1000E-09  0.0000E+00  0.3671E+16
   -0.765002    2.27392  0.0000E+00  0.3189E-13  0.5206E-16  0.1000E-09  0.0000E+00  0.3381E+16
   -0.807503    2.40143  0.0000E+00  0.3189E-13  0.5206E-16  0.1000E-09  0.0000E+00  0.3086E+16
   -0.850005    2.52778  0.0000E+00  0.1481E-12  0.5811E-16  0.1000E-09  0.0000E+00  0.2790E+16
   -0.892507    2.65256  0.0000E+00  0.4218E-12  0.1197E-15  0.1000E-09  0.0000E+00  0.2518E+16
   -0.935008    2.77640  0.0000E+00  0.1014E-11  0.2650E-15  0.1000E-09  0.0000E+00  0.2256E+16
   -0.977510    2.89955  0.0000E+00  0.2312E-11  0.5824E-15  0.1000E-09  0.0000E+00  0.1997E+16
   -1.020011    3.02181  0.0000E+00  0.5148E-11  0.1262E-14  0.1000E-09  0.0000E+00  0.1735E+16
   -1.062513    3.14255  0.0000E+00  0.1131E-10  0.2704E-14  0.1000E-09  0.0000E+00  0.1479E+16
   -1.105014    3.26146  0.0000E+00  0.2458E-10  0.5741E-14  0.1000E-09  0.0000E+00  0.1229E+16
   -1.147515    3.37788  0.0000E+00  0.5250E-10  0.1198E-13  0.1000E-09  0.0000E+00  0.9889E+15
   -1.190016    3.49131  0.0000E+00  0.1111E-09  0.2475E-13  0.1018E-09  0.0000E+00  0.7656E+15
   -1.232517    3.60165  0.0000E+00  0.2392E-09  0.5209E-13  0.2929E-09  0.0000E+00  0.5584E+15
   -1.275018    3.70873  0.0000E+00  0.5199E-09  0.1106E-12  0.9350E-09  0.0000E+00  0.3712E+15
   -1.317519    3.81360  0.0000E+00  0.1134E-08  0.2360E-12  0.3679E-08  0.0000E+00  0.2009E+15
   -1.360019    3.92122  0.0000E+00  0.2434E-08  0.4973E-12  0.5103E-07  0.0000E+00  0.2978E+14
   -1.402519    4.00734  0.0000E+00  0.3640E-08  0.7512E-12  0.7375E-05  0.0000E+00 -0.7864E+12
   -1.445019    4.00961  0.0000E+00  0.4196E-08  0.9051E-12  0.7552E-05  0.0000E+00 -0.8329E+12
   -1.487518    4.01179  0.0000E+00  0.4637E-08  0.1083E-11  0.7260E-05  0.0000E+00 -0.9495E+12
   -1.530017    4.01406  0.0000E+00  0.5048E-08  0.1353E-11  0.6987E-05  0.0000E+00 -0.1260E+13
   -1.572516    4.01683  0.0000E+00  0.5476E-08  0.1889E-11  0.6860E-05  0.0000E+00 -0.2223E+13
   -1.615014    4.02117  0.0000E+00  0.5684E-08  0.3422E-11  0.3345E-05  0.0000E+00 -0.6194E+13
   -1.657512    4.03110  0.0000E+00  0.4702E-08  0.8286E-11  0.6632E-06  0.0000E+00 -0.4165E+14
   -1.700010    4.07192  0.0000E+00  0.0000E+00  0.0000E+00  0.0000E+00  0.0000E+00  0.0000E+00
