 1 - depth, m
 2 - temperature, C
 3 - salinity, kg/kg
 4 - turbulent kinetic energy, m**2/s**2
 5 - dissipation rate, m**2/s**3
 6 - kinematic heat conductance, m**2/s
 7 - modulus of horizontal velocity, m/s
 8 - Richardson number, n/d
   -0.000000    0.00000  0.0000E+00  0.3189E-13  0.5207E-16  0.1000E-09  0.0000E+00  0.8578E+16
   -0.042497    0.13098  0.0000E+00  0.3189E-13  0.5207E-16  0.1000E-09  0.0000E+00  0.8553E+16
   -0.084995    0.26648  0.0000E+00  0.3189E-13  0.5207E-16  0.1000E-09  0.0000E+00  0.8469E+16
   -0.127493    0.40603  0.0000E+00  0.3189E-13  0.5207E-16  0.1000E-09  0.0000E+00  0.8108E+16
   -0.169992    0.54526  0.0000E+00  0.3189E-13  0.5207E-16  0.1000E-09  0.0000E+00  0.7742E+16
   -0.212490    0.68401  0.0000E+00  0.3189E-13  0.5207E-16  0.1000E-09  0.0000E+00  0.7379E+16
   -0.254990    0.82224  0.0000E+00  0.3189E-13  0.5207E-16  0.1000E-09  0.0000E+00  0.7016E+16
   -0.297489    0.95986  0.0000E+00  0.3189E-13  0.5207E-16  0.1000E-09  0.0000E+00  0.6636E+16
   -0.339989    1.09636  0.0000E+00  0.3189E-13  0.5207E-16  0.1000E-09  0.0000E+00  0.6235E+16
   -0.382489    1.23108  0.0000E+00  0.3189E-13  0.5207E-16  0.1000E-09  0.0000E+00  0.5838E+16
   -0.424989    1.36378  0.0000E+00  0.3189E-13  0.5207E-16  0.1000E-09  0.0000E+00  0.5430E+16
   -0.467489    1.49385  0.0000E+00  0.3189E-13  0.5207E-16  0.1000E-09  0.0000E+00  0.5034E+16
   -0.509990    1.62108  0.0000E+00  0.3189E-13  0.5207E-16  0.1000E-09  0.0000E+00  0.4674E+16
   -0.552491    1.74594  0.0000E+00  0.3189E-13  0.5207E-16  0.1000E-09  0.0000E+00  0.4329E+16
   -0.594992    1.86839  0.0000E+00  0.3189E-13  0.5207E-16  0.1000E-09  0.0000E+00  0.4005E+16
   -0.637493    1.98860  0.0000E+00  0.3189E-13  0.5207E-16  0.1000E-09  0.0000E+00  0.3710E+16
   -0.679994    2.10704  0.0000E+00  0.3189E-13  0.5207E-16  0.1000E-09  0.0000E+00  0.3422E+16
   -0.722495    2.22354  0.0000E+00  0.3189E-13  0.5207E-16  0.1000E-09  0.0000E+00  0.3148E+16
   -0.764996    2.33820  0.0000E+00  0.3189E-13  0.5207E-16  0.1000E-09  0.0000E+00  0.2881E+16
   -0.807498    2.45083  0.0000E+00  0.3189E-13  0.5207E-16  0.1000E-09  0.0000E+00  0.2605E+16
   -0.849999    2.56053  0.0000E+00  0.3189E-13  0.5207E-16  0.1000E-09  0.0000E+00  0.2331E+16
   -0.892500    2.66659  0.0000E+00  0.3189E-13  0.5207E-16  0.1000E-09  0.0000E+00  0.2099E+16
   -0.935002    2.77018  0.0000E+00  0.3189E-13  0.5207E-16  0.1000E-09  0.0000E+00  0.1886E+16
   -0.977503    2.87158  0.0000E+00  0.3189E-13  0.5207E-16  0.1000E-09  0.0000E+00  0.1682E+16
   -1.020004    2.97068  0.0000E+00  0.3189E-13  0.5207E-16  0.1000E-09  0.0000E+00  0.1474E+16
   -1.062506    3.06640  0.0000E+00  0.3189E-13  0.5207E-16  0.1000E-09  0.0000E+00  0.1278E+16
   -1.105007    3.15849  0.0000E+00  0.3189E-13  0.5207E-16  0.1000E-09  0.0000E+00  0.1087E+16
   -1.147508    3.24589  0.0000E+00  0.3189E-13  0.5207E-16  0.1000E-09  0.0000E+00  0.9081E+15
   -1.190008    3.32785  0.0000E+00  0.3189E-13  0.5207E-16  0.1000E-09  0.0000E+00  0.7532E+15
   -1.232509    3.40464  0.0000E+00  0.8303E-13  0.7001E-16  0.1000E-09  0.0000E+00  0.6261E+15
   -1.275009    3.47730  0.0000E+00  0.3197E-12  0.2345E-15  0.1000E-09  0.0000E+00  0.5236E+15
   -1.317510    3.54728  0.0000E+00  0.1199E-11  0.8467E-15  0.1000E-09  0.0000E+00  0.4679E+15
   -1.360009    3.62108  0.0000E+00  0.4469E-11  0.3068E-14  0.1000E-09  0.0000E+00  0.4095E+15
   -1.402509    3.70103  0.0000E+00  0.1667E-10  0.1115E-13  0.1067E-09  0.0000E+00  0.3168E+15
   -1.445009    3.78358  0.0000E+00  0.5843E-10  0.3817E-13  0.5565E-09  0.0000E+00  0.2040E+15
   -1.487508    3.86332  0.0000E+00  0.2018E-09  0.1295E-12  0.3561E-08  0.0000E+00  0.1031E+15
   -1.530007    3.94185  0.0000E+00  0.7458E-09  0.4772E-12  0.7037E-07  0.0000E+00  0.1068E+14
   -1.572505    4.01125  0.0000E+00  0.2505E-08  0.1822E-11  0.1392E-05  0.0000E+00 -0.9624E+13
   -1.615003    4.02933  0.0000E+00  0.4159E-08  0.4227E-11  0.1485E-05  0.0000E+00 -0.1789E+14
   -1.657501    4.05063  0.0000E+00  0.4573E-08  0.9614E-11  0.6353E-06  0.0000E+00 -0.6749E+14
   -1.699998    4.09929  0.0000E+00  0.0000E+00  0.0000E+00  0.0000E+00  0.0000E+00  0.0000E+00
