 1 - depth, m
 2 - temperature, C
 3 - salinity, kg/kg
 4 - turbulent kinetic energy, m**2/s**2
 5 - dissipation rate, m**2/s**3
 6 - kinematic heat conductance, m**2/s
 7 - modulus of horizontal velocity, m/s
 8 - Richardson number, n/d
   -0.000000   15.12270  0.0000E+00  0.5230E-03  0.7502E-03  0.6979E-04  0.2380E+00  0.3925E-03
   -0.042497   15.18327  0.0000E+00  0.2424E-03  0.2259E-03  0.1921E-03  0.5264E-01 -0.5014E-01
   -0.084995   15.19530  0.0000E+00  0.1687E-03  0.1129E-03  0.1607E-03  0.3327E-01 -0.1358E+00
   -0.127493   15.20322  0.0000E+00  0.1263E-03  0.6332E-04  0.1352E-03  0.2677E-01 -0.1005E+00
   -0.169992   15.20951  0.0000E+00  0.9294E-04  0.3173E-04  0.1220E-03  0.2192E-01 -0.1225E+00
   -0.212490   15.21512  0.0000E+00  0.6849E-04  0.1659E-04  0.1191E-03  0.1776E-01  0.7188E+00
   -0.254989   15.22024  0.0000E+00  0.4982E-04  0.8132E-05  0.1226E-03  0.1448E-01 -0.4715E+00
   -0.297489   15.22492  0.0000E+00  0.3703E-04  0.4113E-05  0.1299E-03  0.1195E-01  0.7351E+02
   -0.339989   15.22904  0.0000E+00  0.2830E-04  0.2117E-05  0.1403E-03  0.9941E-02  0.1890E+03
   -0.382488   15.23272  0.0000E+00  0.2229E-04  0.1145E-05  0.1582E-03  0.8175E-02  0.4988E+02
   -0.424989   15.23586  0.0000E+00  0.1821E-04  0.6544E-06  0.1781E-03  0.6789E-02  0.2332E+02
   -0.467489   15.23865  0.0000E+00  0.1537E-04  0.3980E-06  0.2024E-03  0.5587E-02  0.2029E+02
   -0.509990   15.24105  0.0000E+00  0.1331E-04  0.2578E-06  0.2337E-03  0.4579E-02  0.8505E+02
   -0.552490   15.24319  0.0000E+00  0.1179E-04  0.1780E-06  0.2674E-03  0.3745E-02  0.1501E+03
   -0.594991   15.24501  0.0000E+00  0.1061E-04  0.1291E-06  0.3060E-03  0.3042E-02  0.4348E+02
   -0.637492   15.24661  0.0000E+00  0.9657E-05  0.9710E-07  0.3533E-03  0.2462E-02  0.1749E+02
   -0.679993   15.24794  0.0000E+00  0.8890E-05  0.7542E-07  0.4008E-03  0.2006E-02  0.9566E+02
   -0.722495   15.24908  0.0000E+00  0.8267E-05  0.6011E-07  0.4488E-03  0.1643E-02  0.3280E+02
   -0.764996   15.25003  0.0000E+00  0.7760E-05  0.4898E-07  0.4901E-03  0.1360E-02  0.5356E+02
   -0.807497   15.25086  0.0000E+00  0.7347E-05  0.4066E-07  0.5269E-03  0.1143E-02  0.7609E+01
   -0.849999   15.25160  0.0000E+00  0.7016E-05  0.3445E-07  0.5583E-03  0.9704E-03  0.8834E+01
   -0.892500   15.25228  0.0000E+00  0.6749E-05  0.2970E-07  0.5866E-03  0.8312E-03  0.1760E+01
   -0.935001   15.25292  0.0000E+00  0.6535E-05  0.2608E-07  0.6107E-03  0.7181E-03  0.1956E+01
   -0.977503   15.25353  0.0000E+00  0.6363E-05  0.2330E-07  0.6323E-03  0.6228E-03  0.1506E+01
   -1.020004   15.25411  0.0000E+00  0.6223E-05  0.2115E-07  0.6491E-03  0.5431E-03  0.3798E+01
   -1.062505   15.25468  0.0000E+00  0.6107E-05  0.1949E-07  0.6625E-03  0.4738E-03  0.3846E+01
   -1.105006   15.25525  0.0000E+00  0.6009E-05  0.1820E-07  0.6715E-03  0.4131E-03  0.1725E+01
   -1.147507   15.25582  0.0000E+00  0.5926E-05  0.1726E-07  0.6765E-03  0.3579E-03  0.1917E+01
   -1.190008   15.25640  0.0000E+00  0.5854E-05  0.1660E-07  0.6769E-03  0.3062E-03  0.2101E+01
   -1.232508   15.25699  0.0000E+00  0.5787E-05  0.1617E-07  0.6736E-03  0.2586E-03  0.2307E+01
   -1.275008   15.25759  0.0000E+00  0.5723E-05  0.1596E-07  0.6645E-03  0.2186E-03  0.2818E+01
   -1.317509   15.25820  0.0000E+00  0.5661E-05  0.1596E-07  0.6490E-03  0.1855E-03  0.3596E+01
   -1.360009   15.25884  0.0000E+00  0.5597E-05  0.1621E-07  0.6257E-03  0.1584E-03  0.4789E+01
   -1.402508   15.25950  0.0000E+00  0.5525E-05  0.1680E-07  0.5955E-03  0.1360E-03  0.7087E+01
   -1.445008   15.26021  0.0000E+00  0.5446E-05  0.1783E-07  0.5536E-03  0.1162E-03  0.1052E+02
   -1.487507   15.26100  0.0000E+00  0.5354E-05  0.1958E-07  0.5180E-03  0.9690E-04  0.1475E+02
   -1.530006   15.26190  0.0000E+00  0.5223E-05  0.2322E-07  0.4311E-03  0.7764E-04 -0.4064E+02
   -1.572504   15.26316  0.0000E+00  0.5007E-05  0.3167E-07  0.4583E-03  0.5820E-04  0.8154E+04
   -1.615002   15.26407  0.0000E+00  0.4330E-05  0.7208E-07  0.1877E-03  0.4735E-04 -0.3623E+08
   -1.657500   15.27080  0.0000E+00  0.2814E-05  0.2051E-06  0.6837E-04  0.2958E-04 -0.6473E+05
   -1.699997   15.27839  0.0000E+00  0.0000E+00  0.0000E+00  0.0000E+00  0.3935E-04  0.0000E+00
