 1 - depth, m
 2 - temperature, C
 3 - salinity, kg/kg
 4 - turbulent kinetic energy, m**2/s**2
 5 - dissipation rate, m**2/s**3
 6 - kinematic heat conductance, m**2/s
 7 - modulus of horizontal velocity, m/s
 8 - Richardson number, n/d
   -0.000000    0.00000  0.0000E+00  0.3189E-13  0.5207E-16  0.1000E-09  0.1170E-50  0.2375E+17
   -0.042496    0.37533  0.0000E+00  0.3189E-13  0.5207E-16  0.1000E-09  0.2527E-51  0.1602E+17
   -0.084992    0.65431  0.0000E+00  0.3189E-13  0.5207E-16  0.1000E-09  0.5216E-52  0.1093E+17
   -0.127489    0.86018  0.0000E+00  0.3189E-13  0.5207E-16  0.1000E-09  0.1027E-52  0.7557E+16
   -0.169986    1.01152  0.0000E+00  0.3189E-13  0.5207E-16  0.1000E-09  0.1923E-53  0.5293E+16
   -0.212484    1.12264  0.0000E+00  0.3189E-13  0.5207E-16  0.1000E-09  0.3202E-54  0.3518E+16
   -0.254981    1.19912  0.0000E+00  0.3189E-13  0.5207E-16  0.1000E-09  0.4971E-55  0.2086E+16
   -0.297479    1.24556  0.0000E+00  0.3189E-13  0.5207E-16  0.1000E-09  0.8720E-56  0.1421E+16
   -0.339978    1.27763  0.0000E+00  0.3189E-13  0.5207E-16  0.1000E-09  0.1931E-56  0.1633E+16
   -0.382476    1.31479  0.0000E+00  0.3200E-13  0.5207E-16  0.1000E-09  0.4303E-57  0.1935E+16
   -0.424975    1.35947  0.0000E+00  0.4404E-13  0.5341E-16  0.1000E-09  0.1348E-57  0.2896E+16
   -0.467474    1.42775  0.0000E+00  0.9050E-13  0.6565E-16  0.1000E-09  0.4060E-58  0.3735E+16
   -0.509973    1.51870  0.0000E+00  0.2266E-12  0.1099E-15  0.1000E-09  0.1096E-58  0.4469E+16
   -0.552473    1.63235  0.0000E+00  0.5974E-12  0.2344E-15  0.1000E-09  0.2748E-59  0.5000E+16
   -0.594972    1.76664  0.0000E+00  0.1566E-11  0.5604E-15  0.1000E-09  0.5254E-60  0.5050E+16
   -0.637472    1.91140  0.0000E+00  0.4099E-11  0.1402E-14  0.1000E-09  0.7208E-61  0.4490E+16
   -0.679972    2.04952  0.0000E+00  0.1063E-10  0.3523E-14  0.1000E-09  0.9167E-62  0.3850E+16
   -0.722472    2.17659  0.0000E+00  0.2735E-10  0.8822E-14  0.1000E-09  0.9785E-63  0.2947E+16
   -0.764972    2.28047  0.0000E+00  0.6987E-10  0.2196E-13  0.1039E-09  0.9534E-64  0.1971E+16
   -0.807472    2.35392  0.0000E+00  0.1765E-09  0.5410E-13  0.1630E-09  0.1078E-64  0.1450E+16
   -0.849972    2.41045  0.0000E+00  0.4365E-09  0.1306E-12  0.3475E-09  0.1296E-65  0.1172E+16
   -0.892472    2.45826  0.0000E+00  0.1068E-08  0.3121E-12  0.6289E-09  0.1597E-66  0.1351E+16
   -0.934972    2.51642  0.0000E+00  0.2564E-08  0.7319E-12  0.9339E-09  0.2353E-67  0.2109E+16
   -0.977472    2.61385  0.0000E+00  0.6079E-08  0.1696E-11  0.1563E-08  0.3261E-68  0.2908E+16
   -1.019971    2.76663  0.0000E+00  0.1419E-07  0.3876E-11  0.3086E-08  0.5377E-69  0.3646E+16
   -1.062471    3.00748  0.0000E+00  0.3222E-07  0.8639E-11  0.1646E-07  0.8494E-70  0.3498E+16
   -1.104971    3.34381  0.0000E+00  0.5033E-07  0.1386E-10  0.2806E-04  0.1708E-70  0.2745E+16
   -1.147470    3.64025  0.0000E+00  0.6565E-07  0.1855E-10  0.5385E-04  0.4108E-71  0.1762E+16
   -1.189970    3.88197  0.0000E+00  0.7725E-07  0.2228E-10  0.7468E-04  0.6640E-72  0.6549E+15
   -1.232469    4.04002  0.0000E+00  0.8227E-07  0.2408E-10  0.9296E-04  0.5571E-73  0.4263E+14
   -1.274968    4.07471  0.0000E+00  0.8400E-07  0.2490E-10  0.9901E-04  0.2173E-74 -0.1880E+13
   -1.317467    4.07607  0.0000E+00  0.8534E-07  0.2576E-10  0.9823E-04  0.1281E-74 -0.1941E+13
   -1.359965    4.07745  0.0000E+00  0.8651E-07  0.2679E-10  0.9698E-04  0.7309E-75 -0.2015E+13
   -1.402464    4.07886  0.0000E+00  0.8752E-07  0.2809E-10  0.9494E-04  0.4378E-75 -0.2098E+13
   -1.444962    4.08029  0.0000E+00  0.8825E-07  0.2961E-10  0.9227E-04  0.2641E-75 -0.2192E+13
   -1.487460    4.08177  0.0000E+00  0.8867E-07  0.3144E-10  0.8831E-04  0.1444E-75 -0.2334E+13
   -1.529957    4.08331  0.0000E+00  0.8876E-07  0.3419E-10  0.8204E-04  0.6287E-76 -0.2632E+13
   -1.572454    4.08502  0.0000E+00  0.8829E-07  0.3992E-10  0.7152E-04  0.2290E-76 -0.3439E+13
   -1.614951    4.08721  0.0000E+00  0.8531E-07  0.6211E-10  0.4006E-04  0.9214E-77 -0.6792E+13
   -1.657447    4.09145  0.0000E+00  0.6256E-07  0.2318E-09  0.3047E-05  0.2421E-77 -0.1175E+15
   -1.699943    4.14789  0.0000E+00  0.0000E+00  0.0000E+00  0.0000E+00  0.2909E-77  0.0000E+00
