 1 - depth, m
 2 - temperature, C
 3 - salinity, kg/kg
 4 - turbulent kinetic energy, m**2/s**2
 5 - dissipation rate, m**2/s**3
 6 - kinematic heat conductance, m**2/s
 7 - modulus of horizontal velocity, m/s
 8 - Richardson number, n/d
   -0.000000    0.00000  0.0000E+00  0.9410E-11  0.4122E-14  0.1000E-09  0.0000E+00  0.2035E+17
   -0.042497    0.31878  0.0000E+00  0.1945E-10  0.3400E-14  0.1000E-09  0.0000E+00  0.1894E+17
   -0.084995    0.64460  0.0000E+00  0.3814E-10  0.3972E-14  0.1000E-09  0.0000E+00  0.1733E+17
   -0.127493    0.97535  0.0000E+00  0.6713E-10  0.5483E-14  0.1000E-09  0.0000E+00  0.1506E+17
   -0.169991    1.29751  0.0000E+00  0.1105E-09  0.8048E-14  0.1000E-09  0.0000E+00  0.1290E+17
   -0.212489    1.60956  0.0000E+00  0.1750E-09  0.1203E-13  0.1000E-09  0.0000E+00  0.1085E+17
   -0.254988    1.90971  0.0000E+00  0.2718E-09  0.1808E-13  0.1000E-09  0.0000E+00  0.8948E+16
   -0.297488    2.19614  0.0000E+00  0.4174E-09  0.2717E-13  0.1000E-09  0.0000E+00  0.7228E+16
   -0.339987    2.46775  0.0000E+00  0.6326E-09  0.4052E-13  0.1000E-09  0.0000E+00  0.5709E+16
   -0.382487    2.72412  0.0000E+00  0.9517E-09  0.6016E-13  0.1000E-09  0.0000E+00  0.4377E+16
   -0.424987    2.96433  0.0000E+00  0.1422E-08  0.8883E-13  0.1053E-09  0.0000E+00  0.3248E+16
   -0.467487    3.18901  0.0000E+00  0.2114E-08  0.1306E-12  0.1805E-09  0.0000E+00  0.2286E+16
   -0.509988    3.39728  0.0000E+00  0.3134E-08  0.1917E-12  0.3979E-09  0.0000E+00  0.1522E+16
   -0.552488    3.59387  0.0000E+00  0.4642E-08  0.2813E-12  0.1027E-08  0.0000E+00  0.8644E+15
   -0.594989    3.77739  0.0000E+00  0.6866E-08  0.4125E-12  0.4311E-08  0.0000E+00  0.3178E+15
   -0.637490    3.94207  0.0000E+00  0.8670E-08  0.5258E-12  0.1659E-04  0.0000E+00  0.3198E+14
   -0.679991    3.99555  0.0000E+00  0.8911E-08  0.5421E-12  0.4916E-04  0.0000E+00 -0.5565E+11
   -0.722492    3.99606  0.0000E+00  0.9073E-08  0.5543E-12  0.5072E-04  0.0000E+00 -0.5960E+11
   -0.764993    3.99653  0.0000E+00  0.9237E-08  0.5681E-12  0.5269E-04  0.0000E+00 -0.6217E+11
   -0.807494    3.99698  0.0000E+00  0.9403E-08  0.5834E-12  0.5436E-04  0.0000E+00 -0.6448E+11
   -0.849995    3.99741  0.0000E+00  0.9566E-08  0.6001E-12  0.5568E-04  0.0000E+00 -0.6677E+11
   -0.892496    3.99783  0.0000E+00  0.9729E-08  0.6182E-12  0.5658E-04  0.0000E+00 -0.6971E+11
   -0.934997    3.99824  0.0000E+00  0.9887E-08  0.6378E-12  0.5701E-04  0.0000E+00 -0.7311E+11
   -0.977498    3.99866  0.0000E+00  0.1004E-07  0.6588E-12  0.5718E-04  0.0000E+00 -0.7701E+11
   -1.019999    3.99908  0.0000E+00  0.1019E-07  0.6815E-12  0.5708E-04  0.0000E+00 -0.8096E+11
   -1.062500    3.99950  0.0000E+00  0.1034E-07  0.7060E-12  0.5676E-04  0.0000E+00 -0.8537E+11
   -1.105001    3.99993  0.0000E+00  0.1047E-07  0.7323E-12  0.5628E-04  0.0000E+00 -0.8960E+11
   -1.147502    4.00037  0.0000E+00  0.1060E-07  0.7603E-12  0.5568E-04  0.0000E+00 -0.9373E+11
   -1.190003    4.00081  0.0000E+00  0.1072E-07  0.7901E-12  0.5489E-04  0.0000E+00 -0.9896E+11
   -1.232503    4.00126  0.0000E+00  0.1083E-07  0.8240E-12  0.5397E-04  0.0000E+00 -0.1072E+12
   -1.275003    4.00173  0.0000E+00  0.1094E-07  0.8637E-12  0.5280E-04  0.0000E+00 -0.1170E+12
   -1.317503    4.00223  0.0000E+00  0.1104E-07  0.9114E-12  0.5127E-04  0.0000E+00 -0.1283E+12
   -1.360003    4.00275  0.0000E+00  0.1114E-07  0.9711E-12  0.4929E-04  0.0000E+00 -0.1435E+12
   -1.402502    4.00332  0.0000E+00  0.1123E-07  0.1049E-11  0.4673E-04  0.0000E+00 -0.1607E+12
   -1.445002    4.00393  0.0000E+00  0.1131E-07  0.1143E-11  0.4377E-04  0.0000E+00 -0.1781E+12
   -1.487501    4.00458  0.0000E+00  0.1136E-07  0.1259E-11  0.4027E-04  0.0000E+00 -0.2036E+12
   -1.529999    4.00530  0.0000E+00  0.1140E-07  0.1439E-11  0.3598E-04  0.0000E+00 -0.2647E+12
   -1.572498    4.00619  0.0000E+00  0.1140E-07  0.1825E-11  0.3021E-04  0.0000E+00 -0.4611E+12
   -1.614995    4.00765  0.0000E+00  0.1111E-07  0.3538E-11  0.1122E-04  0.0000E+00 -0.1660E+13
   -1.657493    4.01223  0.0000E+00  0.8679E-08  0.1440E-10  0.1093E-05  0.0000E+00 -0.3075E+14
   -1.699990    4.05417  0.0000E+00  0.0000E+00  0.0000E+00  0.0000E+00  0.0000E+00  0.0000E+00
