 1 - depth, m
 2 - temperature, C
 3 - salinity, kg/kg
 4 - turbulent kinetic energy, m**2/s**2
 5 - dissipation rate, m**2/s**3
 6 - kinematic heat conductance, m**2/s
 7 - modulus of horizontal velocity, m/s
 8 - Richardson number, n/d
   -0.000000    0.00000  0.0000E+00  0.3189E-13  0.5206E-16  0.1000E-09  0.0000E+00  0.8887E+16
   -0.042497    0.13578  0.0000E+00  0.3189E-13  0.5206E-16  0.1000E-09  0.0000E+00  0.8917E+16
   -0.084995    0.27735  0.0000E+00  0.3189E-13  0.5206E-16  0.1000E-09  0.0000E+00  0.8878E+16
   -0.127494    0.42426  0.0000E+00  0.3189E-13  0.5206E-16  0.1000E-09  0.0000E+00  0.8499E+16
   -0.169992    0.57118  0.0000E+00  0.3189E-13  0.5206E-16  0.1000E-09  0.0000E+00  0.8116E+16
   -0.212491    0.71801  0.0000E+00  0.3189E-13  0.5206E-16  0.1000E-09  0.0000E+00  0.7732E+16
   -0.254990    0.86468  0.0000E+00  0.3189E-13  0.5206E-16  0.1000E-09  0.0000E+00  0.7346E+16
   -0.297490    1.01109  0.0000E+00  0.3189E-13  0.5206E-16  0.1000E-09  0.0000E+00  0.6950E+16
   -0.339990    1.15695  0.0000E+00  0.3189E-13  0.5206E-16  0.1000E-09  0.0000E+00  0.6544E+16
   -0.382490    1.30188  0.0000E+00  0.3189E-13  0.5206E-16  0.1000E-09  0.0000E+00  0.6141E+16
   -0.424990    1.44572  0.0000E+00  0.3189E-13  0.5206E-16  0.1000E-09  0.0000E+00  0.5733E+16
   -0.467491    1.58815  0.0000E+00  0.3189E-13  0.5206E-16  0.1000E-09  0.0000E+00  0.5333E+16
   -0.509991    1.72902  0.0000E+00  0.3189E-13  0.5206E-16  0.1000E-09  0.0000E+00  0.4959E+16
   -0.552492    1.86874  0.0000E+00  0.3189E-13  0.5206E-16  0.1000E-09  0.0000E+00  0.4594E+16
   -0.594993    2.00728  0.0000E+00  0.1207E-12  0.5206E-16  0.1000E-09  0.0000E+00  0.4242E+16
   -0.637495    2.14478  0.0000E+00  0.3458E-12  0.7681E-16  0.1000E-09  0.0000E+00  0.3907E+16
   -0.679996    2.28151  0.0000E+00  0.7807E-12  0.1435E-15  0.1000E-09  0.0000E+00  0.3576E+16
   -0.722497    2.41737  0.0000E+00  0.1617E-11  0.2784E-15  0.1000E-09  0.0000E+00  0.3253E+16
   -0.764999    2.55240  0.0000E+00  0.3247E-11  0.5409E-15  0.1000E-09  0.0000E+00  0.2933E+16
   -0.807500    2.68643  0.0000E+00  0.6427E-11  0.1045E-14  0.1000E-09  0.0000E+00  0.2608E+16
   -0.850002    2.81877  0.0000E+00  0.1249E-10  0.1989E-14  0.1000E-09  0.0000E+00  0.2287E+16
   -0.892503    2.94887  0.0000E+00  0.2412E-10  0.3763E-14  0.1000E-09  0.0000E+00  0.1993E+16
   -0.935004    3.07765  0.0000E+00  0.4596E-10  0.7030E-14  0.1000E-09  0.0000E+00  0.1712E+16
   -0.977506    3.20532  0.0000E+00  0.8690E-10  0.1303E-13  0.1000E-09  0.0000E+00  0.1438E+16
   -1.020007    3.33178  0.0000E+00  0.1629E-09  0.2397E-13  0.1000E-09  0.0000E+00  0.1165E+16
   -1.062509    3.45615  0.0000E+00  0.3032E-09  0.4375E-13  0.1523E-09  0.0000E+00  0.9033E+15
   -1.105010    3.57814  0.0000E+00  0.5607E-09  0.7936E-13  0.3830E-09  0.0000E+00  0.6517E+15
   -1.147511    3.69672  0.0000E+00  0.1022E-08  0.1420E-12  0.1070E-08  0.0000E+00  0.4174E+15
   -1.190012    3.81089  0.0000E+00  0.1847E-08  0.2519E-12  0.3834E-08  0.0000E+00  0.2064E+15
   -1.232512    3.91939  0.0000E+00  0.3333E-08  0.4472E-12  0.4239E-07  0.0000E+00  0.3289E+14
   -1.275013    4.00318  0.0000E+00  0.4126E-08  0.5575E-12  0.1238E-04  0.0000E+00 -0.3332E+12
   -1.317513    4.00439  0.0000E+00  0.4524E-08  0.6251E-12  0.1320E-04  0.0000E+00 -0.3474E+12
   -1.360013    4.00558  0.0000E+00  0.4887E-08  0.7017E-12  0.1373E-04  0.0000E+00 -0.3753E+12
   -1.402513    4.00679  0.0000E+00  0.5224E-08  0.7944E-12  0.1349E-04  0.0000E+00 -0.4160E+12
   -1.445013    4.00804  0.0000E+00  0.5507E-08  0.9023E-12  0.1247E-04  0.0000E+00 -0.4708E+12
   -1.487512    4.00939  0.0000E+00  0.5745E-08  0.1040E-11  0.1119E-04  0.0000E+00 -0.5600E+12
   -1.530011    4.01089  0.0000E+00  0.5975E-08  0.1259E-11  0.1024E-04  0.0000E+00 -0.7674E+12
   -1.572510    4.01280  0.0000E+00  0.6211E-08  0.1710E-11  0.9553E-05  0.0000E+00 -0.1404E+13
   -1.615008    4.01600  0.0000E+00  0.6199E-08  0.3186E-11  0.4127E-05  0.0000E+00 -0.4431E+13
   -1.657506    4.02435  0.0000E+00  0.4988E-08  0.8518E-11  0.6996E-06  0.0000E+00 -0.3777E+14
   -1.700003    4.06552  0.0000E+00  0.0000E+00  0.0000E+00  0.0000E+00  0.0000E+00  0.0000E+00
