 1 - depth, m
 2 - temperature, C
 3 - salinity, kg/kg
 4 - turbulent kinetic energy, m**2/s**2
 5 - dissipation rate, m**2/s**3
 6 - kinematic heat conductance, m**2/s
 7 - modulus of horizontal velocity, m/s
 8 - Richardson number, n/d
   -0.000000    0.00000  0.0000E+00  0.3189E-13  0.5206E-16  0.1000E-09  0.0000E+00  0.7767E+16
   -0.042498    0.11839  0.0000E+00  0.3189E-13  0.5206E-16  0.1000E-09  0.0000E+00  0.7867E+16
   -0.084995    0.24239  0.0000E+00  0.3189E-13  0.5206E-16  0.1000E-09  0.0000E+00  0.7917E+16
   -0.127494    0.37175  0.0000E+00  0.3189E-13  0.5206E-16  0.1000E-09  0.0000E+00  0.7658E+16
   -0.169992    0.50172  0.0000E+00  0.3189E-13  0.5206E-16  0.1000E-09  0.0000E+00  0.7394E+16
   -0.212491    0.63230  0.0000E+00  0.3189E-13  0.5206E-16  0.1000E-09  0.0000E+00  0.7128E+16
   -0.254991    0.76347  0.0000E+00  0.3189E-13  0.5206E-16  0.1000E-09  0.0000E+00  0.6856E+16
   -0.297490    0.89518  0.0000E+00  0.3189E-13  0.5206E-16  0.1000E-09  0.0000E+00  0.6571E+16
   -0.339990    1.02721  0.0000E+00  0.3189E-13  0.5206E-16  0.1000E-09  0.0000E+00  0.6272E+16
   -0.382490    1.15926  0.0000E+00  0.3189E-13  0.5206E-16  0.1000E-09  0.0000E+00  0.5967E+16
   -0.424991    1.29120  0.0000E+00  0.3189E-13  0.5206E-16  0.1000E-09  0.0000E+00  0.5652E+16
   -0.467491    1.42271  0.0000E+00  0.3189E-13  0.5206E-16  0.1000E-09  0.0000E+00  0.5335E+16
   -0.509992    1.55365  0.0000E+00  0.3189E-13  0.5206E-16  0.1000E-09  0.0000E+00  0.5028E+16
   -0.552493    1.68416  0.0000E+00  0.3189E-13  0.5206E-16  0.1000E-09  0.0000E+00  0.4723E+16
   -0.594994    1.81418  0.0000E+00  0.3189E-13  0.5206E-16  0.1000E-09  0.0000E+00  0.4425E+16
   -0.637495    1.94375  0.0000E+00  0.3189E-13  0.5206E-16  0.1000E-09  0.0000E+00  0.4136E+16
   -0.679997    2.07306  0.0000E+00  0.3189E-13  0.5206E-16  0.1000E-09  0.0000E+00  0.3846E+16
   -0.722498    2.20196  0.0000E+00  0.3189E-13  0.5206E-16  0.1000E-09  0.0000E+00  0.3559E+16
   -0.765000    2.33048  0.0000E+00  0.3189E-13  0.5206E-16  0.1000E-09  0.0000E+00  0.3273E+16
   -0.807501    2.45845  0.0000E+00  0.6474E-13  0.5206E-16  0.1000E-09  0.0000E+00  0.2978E+16
   -0.850003    2.58529  0.0000E+00  0.2305E-12  0.6894E-16  0.1000E-09  0.0000E+00  0.2683E+16
   -0.892504    2.71054  0.0000E+00  0.5837E-12  0.1363E-15  0.1000E-09  0.0000E+00  0.2410E+16
   -0.935006    2.83489  0.0000E+00  0.1299E-11  0.2821E-15  0.1000E-09  0.0000E+00  0.2146E+16
   -0.977507    2.95847  0.0000E+00  0.2764E-11  0.5800E-15  0.1000E-09  0.0000E+00  0.1887E+16
   -1.020009    3.08117  0.0000E+00  0.5759E-11  0.1178E-14  0.1000E-09  0.0000E+00  0.1624E+16
   -1.062510    3.20226  0.0000E+00  0.1185E-10  0.2371E-14  0.1000E-09  0.0000E+00  0.1369E+16
   -1.105011    3.32148  0.0000E+00  0.2416E-10  0.4731E-14  0.1000E-09  0.0000E+00  0.1118E+16
   -1.147512    3.43801  0.0000E+00  0.4851E-10  0.9298E-14  0.1000E-09  0.0000E+00  0.8789E+15
   -1.190013    3.55124  0.0000E+00  0.9655E-10  0.1812E-13  0.1000E-09  0.0000E+00  0.6588E+15
   -1.232514    3.66123  0.0000E+00  0.1957E-09  0.3597E-13  0.2467E-09  0.0000E+00  0.4580E+15
   -1.275015    3.76847  0.0000E+00  0.4011E-09  0.7220E-13  0.8293E-09  0.0000E+00  0.2732E+15
   -1.317515    3.87375  0.0000E+00  0.8261E-09  0.1458E-12  0.4604E-08  0.0000E+00  0.9903E+14
   -1.360015    3.98012  0.0000E+00  0.1492E-08  0.2621E-12  0.1161E-05  0.0000E+00 -0.3929E+11
   -1.402515    3.99338  0.0000E+00  0.2127E-08  0.4044E-12  0.3806E-05  0.0000E+00 -0.6062E+12
   -1.445015    3.99760  0.0000E+00  0.2611E-08  0.5451E-12  0.4397E-05  0.0000E+00 -0.7435E+12
   -1.487514    4.00122  0.0000E+00  0.3035E-08  0.7166E-12  0.4453E-05  0.0000E+00 -0.9440E+12
   -1.530013    4.00483  0.0000E+00  0.3474E-08  0.9867E-12  0.4387E-05  0.0000E+00 -0.1390E+13
   -1.572512    4.00912  0.0000E+00  0.3999E-08  0.1538E-11  0.4394E-05  0.0000E+00 -0.2736E+13
   -1.615010    4.01580  0.0000E+00  0.4461E-08  0.3041E-11  0.2334E-05  0.0000E+00 -0.7972E+13
   -1.657508    4.02976  0.0000E+00  0.4003E-08  0.7227E-11  0.5893E-06  0.0000E+00 -0.4635E+14
   -1.700006    4.07469  0.0000E+00  0.0000E+00  0.0000E+00  0.0000E+00  0.0000E+00  0.0000E+00
