 1 - depth, m
 2 - temperature, C
 3 - salinity, kg/kg
 4 - turbulent kinetic energy, m**2/s**2
 5 - dissipation rate, m**2/s**3
 6 - kinematic heat conductance, m**2/s
 7 - modulus of horizontal velocity, m/s
 8 - Richardson number, n/d
   -0.000000    0.00000  0.0000E+00  0.3189E-13  0.5206E-16  0.1000E-09  0.0000E+00  0.7224E+16
   -0.042497    0.10999  0.0000E+00  0.3189E-13  0.5206E-16  0.1000E-09  0.0000E+00  0.7255E+16
   -0.084995    0.22391  0.0000E+00  0.3189E-13  0.5206E-16  0.1000E-09  0.0000E+00  0.7243E+16
   -0.127493    0.34143  0.0000E+00  0.3189E-13  0.5206E-16  0.1000E-09  0.0000E+00  0.7009E+16
   -0.169992    0.45911  0.0000E+00  0.3189E-13  0.5206E-16  0.1000E-09  0.0000E+00  0.6771E+16
   -0.212491    0.57688  0.0000E+00  0.3189E-13  0.5206E-16  0.1000E-09  0.0000E+00  0.6536E+16
   -0.254990    0.69480  0.0000E+00  0.3189E-13  0.5206E-16  0.1000E-09  0.0000E+00  0.6301E+16
   -0.297489    0.81287  0.0000E+00  0.3189E-13  0.5206E-16  0.1000E-09  0.0000E+00  0.6044E+16
   -0.339989    0.93065  0.0000E+00  0.3189E-13  0.5206E-16  0.1000E-09  0.0000E+00  0.5760E+16
   -0.382489    1.04752  0.0000E+00  0.3189E-13  0.5206E-16  0.1000E-09  0.0000E+00  0.5474E+16
   -0.424989    1.16330  0.0000E+00  0.3189E-13  0.5206E-16  0.1000E-09  0.0000E+00  0.5168E+16
   -0.467490    1.27736  0.0000E+00  0.3189E-13  0.5206E-16  0.1000E-09  0.0000E+00  0.4867E+16
   -0.509991    1.38957  0.0000E+00  0.3189E-13  0.5206E-16  0.1000E-09  0.0000E+00  0.4590E+16
   -0.552491    1.50022  0.0000E+00  0.3189E-13  0.5206E-16  0.1000E-09  0.0000E+00  0.4321E+16
   -0.594992    1.60930  0.0000E+00  0.3189E-13  0.5206E-16  0.1000E-09  0.0000E+00  0.4071E+16
   -0.637493    1.71706  0.0000E+00  0.3189E-13  0.5206E-16  0.1000E-09  0.0000E+00  0.3849E+16
   -0.679995    1.82408  0.0000E+00  0.3189E-13  0.5206E-16  0.1000E-09  0.0000E+00  0.3631E+16
   -0.722496    1.93032  0.0000E+00  0.3189E-13  0.5206E-16  0.1000E-09  0.0000E+00  0.3426E+16
   -0.764997    2.03606  0.0000E+00  0.3189E-13  0.5206E-16  0.1000E-09  0.0000E+00  0.3226E+16
   -0.807499    2.14132  0.0000E+00  0.3189E-13  0.5206E-16  0.1000E-09  0.0000E+00  0.3003E+16
   -0.850000    2.24522  0.0000E+00  0.3189E-13  0.5206E-16  0.1000E-09  0.0000E+00  0.2772E+16
   -0.892502    2.34714  0.0000E+00  0.3189E-13  0.5206E-16  0.1000E-09  0.0000E+00  0.2571E+16
   -0.935003    2.44787  0.0000E+00  0.3189E-13  0.5206E-16  0.1000E-09  0.0000E+00  0.2375E+16
   -0.977504    2.54732  0.0000E+00  0.3189E-13  0.5206E-16  0.1000E-09  0.0000E+00  0.2184E+16
   -1.020006    2.64544  0.0000E+00  0.3189E-13  0.5206E-16  0.1000E-09  0.0000E+00  0.1979E+16
   -1.062507    2.74116  0.0000E+00  0.3189E-13  0.5206E-16  0.1000E-09  0.0000E+00  0.1782E+16
   -1.105008    2.83426  0.0000E+00  0.3189E-13  0.5206E-16  0.1000E-09  0.0000E+00  0.1578E+16
   -1.147509    2.92365  0.0000E+00  0.3189E-13  0.5206E-16  0.1000E-09  0.0000E+00  0.1379E+16
   -1.190010    3.00853  0.0000E+00  0.3189E-13  0.5206E-16  0.1000E-09  0.0000E+00  0.1204E+16
   -1.232510    3.08933  0.0000E+00  0.3189E-13  0.5206E-16  0.1000E-09  0.0000E+00  0.1068E+16
   -1.275011    3.16773  0.0000E+00  0.3189E-13  0.5206E-16  0.1000E-09  0.0000E+00  0.9558E+15
   -1.317511    3.24500  0.0000E+00  0.3189E-13  0.5206E-16  0.1000E-09  0.0000E+00  0.9017E+15
   -1.360011    3.32624  0.0000E+00  0.5520E-13  0.7499E-16  0.1000E-09  0.0000E+00  0.8528E+15
   -1.402511    3.41371  0.0000E+00  0.2818E-12  0.3633E-15  0.1000E-09  0.0000E+00  0.7512E+15
   -1.445010    3.50386  0.0000E+00  0.1443E-11  0.1818E-14  0.1000E-09  0.0000E+00  0.6068E+15
   -1.487510    3.59156  0.0000E+00  0.7325E-11  0.9067E-14  0.1000E-09  0.0000E+00  0.4867E+15
   -1.530008    3.67967  0.0000E+00  0.4117E-10  0.5032E-13  0.3309E-09  0.0000E+00  0.4368E+15
   -1.572507    3.79013  0.0000E+00  0.2659E-09  0.3219E-12  0.2962E-08  0.0000E+00  0.3020E+15
   -1.615005    3.98402  0.0000E+00  0.1726E-08  0.2107E-11  0.4449E-06  0.0000E+00 -0.2379E+14
   -1.657503    4.04153  0.0000E+00  0.3136E-08  0.6693E-11  0.4757E-06  0.0000E+00 -0.7416E+14
   -1.700000    4.09824  0.0000E+00  0.0000E+00  0.0000E+00  0.0000E+00  0.0000E+00  0.0000E+00
