 1 - depth, m
 2 - temperature, C
 3 - salinity, kg/kg
 4 - turbulent kinetic energy, m**2/s**2
 5 - dissipation rate, m**2/s**3
 6 - kinematic heat conductance, m**2/s
 7 - modulus of horizontal velocity, m/s
 8 - Richardson number, n/d
   -0.000000   15.88440  0.0000E+00  0.6052E-04  0.1399E-04  0.4028E-04  0.5551E-01  0.2427E-01
   -0.042498   15.93888  0.0000E+00  0.3439E-04  0.3885E-05  0.5706E-04  0.1817E-01 -0.3236E-01
   -0.084996   15.95235  0.0000E+00  0.2461E-04  0.1714E-05  0.6378E-04  0.1222E-01 -0.7633E-01
   -0.127494   15.96220  0.0000E+00  0.1847E-04  0.8595E-06  0.7373E-04  0.8877E-02 -0.1319E+00
   -0.169993   15.97022  0.0000E+00  0.1435E-04  0.4690E-06  0.8782E-04  0.6567E-02 -0.1952E+00
   -0.212492   15.97690  0.0000E+00  0.1152E-04  0.2719E-06  0.1164E-03  0.4896E-02  0.6488E+00
   -0.254992   15.98218  0.0000E+00  0.9637E-05  0.1671E-06  0.2008E-03  0.3723E-02  0.4189E+03
   -0.297491   15.98582  0.0000E+00  0.8438E-05  0.1090E-06  0.2599E-03  0.2976E-02  0.1112E+02
   -0.339991   15.98850  0.0000E+00  0.7688E-05  0.7572E-07  0.3090E-03  0.2457E-02  0.4325E+02
   -0.382492   15.99058  0.0000E+00  0.7230E-05  0.5602E-07  0.3573E-03  0.2060E-02  0.9958E+01
   -0.424992   15.99226  0.0000E+00  0.6955E-05  0.4375E-07  0.4058E-03  0.1752E-02  0.1314E+04
   -0.467493   15.99366  0.0000E+00  0.6795E-05  0.3567E-07  0.4570E-03  0.1488E-02  0.2709E+01
   -0.509994   15.99485  0.0000E+00  0.6712E-05  0.3019E-07  0.5108E-03  0.1258E-02  0.7363E+01
   -0.552495   15.99588  0.0000E+00  0.6675E-05  0.2632E-07  0.5637E-03  0.1056E-02  0.2534E+01
   -0.594996   15.99678  0.0000E+00  0.6665E-05  0.2348E-07  0.6171E-03  0.8783E-03  0.2892E+01
   -0.637498   15.99759  0.0000E+00  0.6667E-05  0.2133E-07  0.6719E-03  0.7259E-03  0.1611E+01
   -0.679999   15.99832  0.0000E+00  0.6675E-05  0.1967E-07  0.7256E-03  0.6013E-03  0.1506E+01
   -0.722501   15.99898  0.0000E+00  0.6684E-05  0.1838E-07  0.7753E-03  0.5009E-03  0.1387E+01
   -0.765002   15.99960  0.0000E+00  0.6691E-05  0.1739E-07  0.8165E-03  0.4229E-03  0.1279E+01
   -0.807504   16.00018  0.0000E+00  0.6694E-05  0.1661E-07  0.8490E-03  0.3639E-03  0.1218E+01
   -0.850006   16.00073  0.0000E+00  0.6693E-05  0.1602E-07  0.8741E-03  0.3178E-03  0.1167E+01
   -0.892507   16.00125  0.0000E+00  0.6687E-05  0.1557E-07  0.8930E-03  0.2813E-03  0.1114E+01
   -0.935009   16.00176  0.0000E+00  0.6677E-05  0.1524E-07  0.9058E-03  0.2519E-03  0.1089E+01
   -0.977511   16.00226  0.0000E+00  0.6663E-05  0.1499E-07  0.9131E-03  0.2276E-03  0.1074E+01
   -1.020012   16.00275  0.0000E+00  0.6644E-05  0.1482E-07  0.9163E-03  0.2070E-03  0.1138E+01
   -1.062514   16.00323  0.0000E+00  0.6621E-05  0.1471E-07  0.9152E-03  0.1888E-03  0.1222E+01
   -1.105015   16.00370  0.0000E+00  0.6594E-05  0.1468E-07  0.9098E-03  0.1723E-03  0.1346E+01
   -1.147516   16.00417  0.0000E+00  0.6562E-05  0.1471E-07  0.8998E-03  0.1568E-03  0.1496E+01
   -1.190017   16.00464  0.0000E+00  0.6526E-05  0.1481E-07  0.8849E-03  0.1418E-03  0.1656E+01
   -1.232518   16.00511  0.0000E+00  0.6483E-05  0.1501E-07  0.8640E-03  0.1275E-03  0.1884E+01
   -1.275019   16.00559  0.0000E+00  0.6432E-05  0.1533E-07  0.8351E-03  0.1142E-03  0.2401E+01
   -1.317520   16.00609  0.0000E+00  0.6369E-05  0.1582E-07  0.8003E-03  0.1018E-03  0.3199E+01
   -1.360020   16.00660  0.0000E+00  0.6290E-05  0.1659E-07  0.7490E-03  0.9031E-04  0.4528E+01
   -1.402520   16.00715  0.0000E+00  0.6187E-05  0.1783E-07  0.7024E-03  0.7969E-04  0.7260E+01
   -1.445020   16.00774  0.0000E+00  0.6064E-05  0.1979E-07  0.6229E-03  0.6968E-04  0.2026E+02
   -1.487519   16.00846  0.0000E+00  0.5912E-05  0.2290E-07  0.5880E-03  0.5879E-04  0.6062E+02
   -1.530018   16.00926  0.0000E+00  0.5685E-05  0.2965E-07  0.4592E-03  0.4809E-04 -0.5015E+04
   -1.572517   16.01086  0.0000E+00  0.5315E-05  0.4454E-07  0.5022E-03  0.3552E-04  0.4622E+06
   -1.615015   16.01126  0.0000E+00  0.4428E-05  0.1096E-06  0.2054E-03  0.2940E-04 -0.6099E+06
   -1.657514   16.01881  0.0000E+00  0.2902E-05  0.3109E-06  0.9434E-04  0.1844E-04 -0.7926E+05
   -1.700011   16.02299  0.0000E+00  0.0000E+00  0.0000E+00  0.0000E+00  0.2544E-04  0.0000E+00
