 1 - depth, m
 2 - temperature, C
 3 - salinity, kg/kg
 4 - turbulent kinetic energy, m**2/s**2
 5 - dissipation rate, m**2/s**3
 6 - kinematic heat conductance, m**2/s
 7 - modulus of horizontal velocity, m/s
 8 - Richardson number, n/d
   -0.000000    0.00000  0.0000E+00  0.2068E-07  0.6567E-10  0.2578E-08  0.0000E+00  0.7990E+17
   -0.042498    1.49184  0.0000E+00  0.1702E-06  0.5644E-10  0.4266E-08  0.0000E+00  0.4170E+17
   -0.084996    2.95948  0.0000E+00  0.4665E-06  0.8777E-10  0.3452E-07  0.0000E+00  0.8102E+16
   -0.127495    4.16567  0.0000E+00  0.4688E-06  0.8811E-10  0.7811E-03  0.0000E+00 -0.7780E+12
   -0.169994    4.16594  0.0000E+00  0.4698E-06  0.8830E-10  0.7722E-03  0.0000E+00 -0.7413E+12
   -0.212493    4.16620  0.0000E+00  0.4708E-06  0.8850E-10  0.7738E-03  0.0000E+00 -0.7273E+12
   -0.254993    4.16646  0.0000E+00  0.4717E-06  0.8873E-10  0.7749E-03  0.0000E+00 -0.7156E+12
   -0.297493    4.16672  0.0000E+00  0.4726E-06  0.8899E-10  0.7756E-03  0.0000E+00 -0.7045E+12
   -0.339993    4.16697  0.0000E+00  0.4733E-06  0.8928E-10  0.7758E-03  0.0000E+00 -0.6943E+12
   -0.382494    4.16721  0.0000E+00  0.4740E-06  0.8960E-10  0.7755E-03  0.0000E+00 -0.6858E+12
   -0.424995    4.16746  0.0000E+00  0.4746E-06  0.8994E-10  0.7747E-03  0.0000E+00 -0.6768E+12
   -0.467496    4.16770  0.0000E+00  0.4751E-06  0.9032E-10  0.7734E-03  0.0000E+00 -0.6698E+12
   -0.509997    4.16793  0.0000E+00  0.4755E-06  0.9073E-10  0.7715E-03  0.0000E+00 -0.6621E+12
   -0.552498    4.16817  0.0000E+00  0.4758E-06  0.9118E-10  0.7691E-03  0.0000E+00 -0.6560E+12
   -0.595000    4.16840  0.0000E+00  0.4761E-06  0.9167E-10  0.7661E-03  0.0000E+00 -0.6514E+12
   -0.637501    4.16863  0.0000E+00  0.4763E-06  0.9223E-10  0.7624E-03  0.0000E+00 -0.6492E+12
   -0.680003    4.16885  0.0000E+00  0.4765E-06  0.9287E-10  0.7580E-03  0.0000E+00 -0.6478E+12
   -0.722505    4.16908  0.0000E+00  0.4766E-06  0.9359E-10  0.7526E-03  0.0000E+00 -0.6495E+12
   -0.765007    4.16931  0.0000E+00  0.4766E-06  0.9444E-10  0.7463E-03  0.0000E+00 -0.6526E+12
   -0.807509    4.16954  0.0000E+00  0.4766E-06  0.9542E-10  0.7389E-03  0.0000E+00 -0.6564E+12
   -0.850011    4.16977  0.0000E+00  0.4765E-06  0.9653E-10  0.7307E-03  0.0000E+00 -0.6605E+12
   -0.892513    4.17000  0.0000E+00  0.4763E-06  0.9777E-10  0.7585E-03  0.0000E+00 -0.6103E+12
   -0.935015    4.17022  0.0000E+00  0.4761E-06  0.9915E-10  0.7010E-03  0.0000E+00 -0.7050E+12
   -0.977517    4.17046  0.0000E+00  0.4758E-06  0.1007E-09  0.7410E-03  0.0000E+00 -0.6202E+12
   -1.020018    4.17068  0.0000E+00  0.4755E-06  0.1024E-09  0.6745E-03  0.0000E+00 -0.7231E+12
   -1.062520    4.17093  0.0000E+00  0.4751E-06  0.1043E-09  0.7194E-03  0.0000E+00 -0.6329E+12
   -1.105022    4.17115  0.0000E+00  0.4746E-06  0.1064E-09  0.6446E-03  0.0000E+00 -0.7469E+12
   -1.147523    4.17140  0.0000E+00  0.4741E-06  0.1088E-09  0.6441E-03  0.0000E+00 -0.7209E+12
   -1.190025    4.17165  0.0000E+00  0.4735E-06  0.1114E-09  0.6297E-03  0.0000E+00 -0.7323E+12
   -1.232526    4.17191  0.0000E+00  0.4729E-06  0.1145E-09  0.6115E-03  0.0000E+00 -0.7513E+12
   -1.275027    4.17217  0.0000E+00  0.4721E-06  0.1182E-09  0.6461E-03  0.0000E+00 -0.6907E+12
   -1.317528    4.17241  0.0000E+00  0.4713E-06  0.1227E-09  0.5452E-03  0.0000E+00 -0.8612E+12
   -1.360028    4.17270  0.0000E+00  0.4703E-06  0.1283E-09  0.6038E-03  0.0000E+00 -0.7434E+12
   -1.402528    4.17296  0.0000E+00  0.4692E-06  0.1361E-09  0.4821E-03  0.0000E+00 -0.9738E+12
   -1.445028    4.17329  0.0000E+00  0.4679E-06  0.1453E-09  0.5393E-03  0.0000E+00 -0.8336E+12
   -1.487528    4.17358  0.0000E+00  0.4664E-06  0.1573E-09  0.4164E-03  0.0000E+00 -0.1109E+13
   -1.530028    4.17396  0.0000E+00  0.4646E-06  0.1756E-09  0.3927E-03  0.0000E+00 -0.1161E+13
   -1.572527    4.17435  0.0000E+00  0.4610E-06  0.2166E-09  0.3183E-03  0.0000E+00 -0.1485E+13
   -1.615025    4.17486  0.0000E+00  0.4496E-06  0.3658E-09  0.2202E-03  0.0000E+00 -0.2243E+13
   -1.657524    4.17562  0.0000E+00  0.3268E-06  0.2325E-08  0.5967E-05  0.0000E+00 -0.9109E+14
   -1.700022    4.20430  0.0000E+00  0.0000E+00  0.0000E+00  0.0000E+00  0.0000E+00  0.0000E+00
