 1 - depth, m
 2 - temperature, C
 3 - salinity, kg/kg
 4 - turbulent kinetic energy, m**2/s**2
 5 - dissipation rate, m**2/s**3
 6 - kinematic heat conductance, m**2/s
 7 - modulus of horizontal velocity, m/s
 8 - Richardson number, n/d
   -0.000000    0.00000  0.0000E+00  0.1439E-04  0.1086E-05  0.1826E-04  0.2148E-01  0.4054E-02
   -0.042496    0.00959  0.0000E+00  0.9685E-05  0.3437E-06  0.2699E-04  0.1161E-01  0.1357E-01
   -0.084993    0.01560  0.0000E+00  0.6695E-05  0.1508E-06  0.2918E-04  0.7518E-02  0.3708E-01
   -0.127490    0.02093  0.0000E+00  0.4620E-05  0.7459E-07  0.2765E-04  0.5036E-02  0.1195E+00
   -0.169987    0.02675  0.0000E+00  0.3131E-05  0.3879E-07  0.2390E-04  0.3370E-02  0.1639E+01
   -0.212485    0.03907  0.0000E+00  0.2042E-05  0.2015E-07  0.1920E-04  0.2204E-02  0.8677E+02
   -0.254983    0.06343  0.0000E+00  0.1261E-05  0.1014E-07  0.1416E-04  0.1424E-02  0.5530E+04
   -0.297482    0.09976  0.0000E+00  0.7281E-06  0.4872E-08  0.8990E-05  0.9320E-03  0.3605E+06
   -0.339980    0.15921  0.0000E+00  0.3746E-06  0.2163E-08  0.4261E-05  0.6098E-03  0.1708E+08
   -0.382479    0.27447  0.0000E+00  0.1447E-06  0.7460E-09  0.1044E-05  0.3570E-03  0.8428E+09
   -0.424978    0.49815  0.0000E+00  0.3599E-07  0.1362E-09  0.2658E-07  0.1741E-03  0.2094E+11
   -0.467478    0.90566  0.0000E+00  0.3080E-07  0.2051E-10  0.2533E-08  0.4186E-04  0.4424E+12
   -0.509977    1.46533  0.0000E+00  0.7275E-07  0.2169E-10  0.3064E-08  0.8132E-05  0.7723E+13
   -0.552477    2.19922  0.0000E+00  0.1683E-06  0.4327E-10  0.1721E-07  0.1495E-05  0.2839E+14
   -0.594977    3.08395  0.0000E+00  0.2641E-06  0.6685E-10  0.1277E-03  0.2245E-06 -0.1387E+12
   -0.637477    3.75068  0.0000E+00  0.3306E-06  0.8404E-10  0.2770E-03  0.2451E-07 -0.8717E+11
   -0.679977    4.09580  0.0000E+00  0.3434E-06  0.8763E-10  0.4043E-03  0.1561E-08 -0.8279E+11
   -0.722477    4.13058  0.0000E+00  0.3452E-06  0.8828E-10  0.4263E-03  0.6886E-09 -0.1053E+12
   -0.764977    4.13110  0.0000E+00  0.3468E-06  0.8900E-10  0.4267E-03  0.5969E-09 -0.9531E+11
   -0.807477    4.13165  0.0000E+00  0.3484E-06  0.8985E-10  0.4263E-03  0.5205E-09 -0.1074E+12
   -0.849978    4.13222  0.0000E+00  0.3500E-06  0.9082E-10  0.4246E-03  0.4557E-09 -0.1808E+12
   -0.892478    4.13280  0.0000E+00  0.3515E-06  0.9191E-10  0.4230E-03  0.3998E-09 -0.2236E+12
   -0.934978    4.13339  0.0000E+00  0.3528E-06  0.9312E-10  0.4208E-03  0.3517E-09 -0.2414E+12
   -0.977478    4.13399  0.0000E+00  0.3541E-06  0.9446E-10  0.4179E-03  0.3092E-09 -0.2636E+12
   -1.019979    4.13459  0.0000E+00  0.3552E-06  0.9594E-10  0.4142E-03  0.2721E-09 -0.2769E+12
   -1.062479    4.13519  0.0000E+00  0.3561E-06  0.9759E-10  0.4096E-03  0.2387E-09 -0.2955E+12
   -1.104979    4.13580  0.0000E+00  0.3569E-06  0.9940E-10  0.4042E-03  0.2087E-09 -0.3044E+12
   -1.147478    4.13641  0.0000E+00  0.3575E-06  0.1014E-09  0.3978E-03  0.1809E-09 -0.3169E+12
   -1.189978    4.13704  0.0000E+00  0.3580E-06  0.1035E-09  0.3902E-03  0.1544E-09 -0.3293E+12
   -1.232478    4.13767  0.0000E+00  0.3583E-06  0.1061E-09  0.3807E-03  0.1296E-09 -0.3557E+12
   -1.274977    4.13832  0.0000E+00  0.3584E-06  0.1091E-09  0.3702E-03  0.1077E-09 -0.3759E+12
   -1.317476    4.13900  0.0000E+00  0.3584E-06  0.1129E-09  0.3577E-03  0.8863E-10 -0.3869E+12
   -1.359975    4.13969  0.0000E+00  0.3581E-06  0.1177E-09  0.3428E-03  0.7229E-10 -0.3806E+12
   -1.402474    4.14041  0.0000E+00  0.3576E-06  0.1242E-09  0.3246E-03  0.5877E-10 -0.3294E+12
   -1.444972    4.14118  0.0000E+00  0.3568E-06  0.1321E-09  0.3152E-03  0.4706E-10 -0.3308E+12
   -1.487470    4.14196  0.0000E+00  0.3558E-06  0.1420E-09  0.2841E-03  0.3655E-10 -0.5872E+12
   -1.529968    4.14283  0.0000E+00  0.3542E-06  0.1573E-09  0.2568E-03  0.2665E-10 -0.6221E+12
   -1.572465    4.14380  0.0000E+00  0.3509E-06  0.1907E-09  0.2110E-03  0.1848E-10 -0.1573E+13
   -1.614962    4.14501  0.0000E+00  0.3401E-06  0.3107E-09  0.1417E-03  0.1310E-10 -0.3817E+13
   -1.657459    4.14688  0.0000E+00  0.2462E-06  0.1586E-08  0.5350E-05  0.8601E-11 -0.1402E+15
   -1.699955    4.19562  0.0000E+00  0.0000E+00  0.0000E+00  0.0000E+00  0.8629E-11  0.0000E+00
