 1 - depth, m
 2 - temperature, C
 3 - salinity, kg/kg
 4 - turbulent kinetic energy, m**2/s**2
 5 - dissipation rate, m**2/s**3
 6 - kinematic heat conductance, m**2/s
 7 - modulus of horizontal velocity, m/s
 8 - Richardson number, n/d
   -0.000000    0.00000  0.0000E+00  0.3189E-13  0.5206E-16  0.1000E-09  0.0000E+00  0.1088E+17
   -0.042497    0.16691  0.0000E+00  0.3189E-13  0.5206E-16  0.1000E-09  0.0000E+00  0.1085E+17
   -0.084995    0.34153  0.0000E+00  0.3189E-13  0.5206E-16  0.1000E-09  0.0000E+00  0.1073E+17
   -0.127494    0.52333  0.0000E+00  0.7916E-13  0.5206E-16  0.1000E-09  0.0000E+00  0.1012E+17
   -0.169992    0.70470  0.0000E+00  0.2580E-12  0.5259E-16  0.1000E-09  0.0000E+00  0.9516E+16
   -0.212491    0.88544  0.0000E+00  0.5772E-12  0.7825E-16  0.1000E-09  0.0000E+00  0.8904E+16
   -0.254990    1.06522  0.0000E+00  0.1111E-11  0.1301E-15  0.1000E-09  0.0000E+00  0.8287E+16
   -0.297490    1.24365  0.0000E+00  0.2006E-11  0.2208E-15  0.1000E-09  0.0000E+00  0.7672E+16
   -0.339990    1.42043  0.0000E+00  0.3484E-11  0.3712E-15  0.1000E-09  0.0000E+00  0.7068E+16
   -0.382490    1.59533  0.0000E+00  0.5942E-11  0.6190E-15  0.1000E-09  0.0000E+00  0.6470E+16
   -0.424990    1.76803  0.0000E+00  0.1000E-10  0.1022E-14  0.1000E-09  0.0000E+00  0.5892E+16
   -0.467491    1.93842  0.0000E+00  0.1668E-10  0.1675E-14  0.1000E-09  0.0000E+00  0.5328E+16
   -0.509991    2.10625  0.0000E+00  0.2767E-10  0.2731E-14  0.1000E-09  0.0000E+00  0.4819E+16
   -0.552492    2.27260  0.0000E+00  0.4574E-10  0.4439E-14  0.1000E-09  0.0000E+00  0.4327E+16
   -0.594993    2.43756  0.0000E+00  0.7535E-10  0.7190E-14  0.1000E-09  0.0000E+00  0.3849E+16
   -0.637495    2.60117  0.0000E+00  0.1248E-09  0.1171E-13  0.1000E-09  0.0000E+00  0.3388E+16
   -0.679996    2.76365  0.0000E+00  0.2072E-09  0.1912E-13  0.1000E-09  0.0000E+00  0.2937E+16
   -0.722497    2.92483  0.0000E+00  0.3450E-09  0.3131E-13  0.1000E-09  0.0000E+00  0.2497E+16
   -0.764999    3.08471  0.0000E+00  0.5758E-09  0.5140E-13  0.1000E-09  0.0000E+00  0.2067E+16
   -0.807500    3.24309  0.0000E+00  0.9606E-09  0.8438E-13  0.1615E-09  0.0000E+00  0.1645E+16
   -0.850002    3.39931  0.0000E+00  0.1587E-08  0.1372E-12  0.3491E-09  0.0000E+00  0.1237E+16
   -0.892503    3.55277  0.0000E+00  0.2610E-08  0.2221E-12  0.8149E-09  0.0000E+00  0.8579E+15
   -0.935005    3.70516  0.0000E+00  0.4247E-08  0.3559E-12  0.2294E-08  0.0000E+00  0.4885E+15
   -0.977506    3.85638  0.0000E+00  0.6835E-08  0.5643E-12  0.1355E-07  0.0000E+00  0.1315E+15
   -1.020007    3.99712  0.0000E+00  0.7305E-08  0.6051E-12  0.3410E-04  0.0000E+00 -0.1104E+12
   -1.062509    3.99775  0.0000E+00  0.7517E-08  0.6265E-12  0.3594E-04  0.0000E+00 -0.1101E+12
   -1.105010    3.99835  0.0000E+00  0.7696E-08  0.6474E-12  0.3630E-04  0.0000E+00 -0.1133E+12
   -1.147511    3.99894  0.0000E+00  0.7854E-08  0.6691E-12  0.3654E-04  0.0000E+00 -0.1159E+12
   -1.190012    3.99952  0.0000E+00  0.7995E-08  0.6922E-12  0.3657E-04  0.0000E+00 -0.1197E+12
   -1.232512    4.00008  0.0000E+00  0.8126E-08  0.7185E-12  0.3649E-04  0.0000E+00 -0.1264E+12
   -1.275013    4.00066  0.0000E+00  0.8250E-08  0.7491E-12  0.3618E-04  0.0000E+00 -0.1350E+12
   -1.317513    4.00125  0.0000E+00  0.8368E-08  0.7860E-12  0.3565E-04  0.0000E+00 -0.1465E+12
   -1.360013    4.00186  0.0000E+00  0.8480E-08  0.8318E-12  0.3480E-04  0.0000E+00 -0.1625E+12
   -1.402513    4.00252  0.0000E+00  0.8587E-08  0.8914E-12  0.3341E-04  0.0000E+00 -0.1797E+12
   -1.445013    4.00321  0.0000E+00  0.8682E-08  0.9690E-12  0.3141E-04  0.0000E+00 -0.1971E+12
   -1.487512    4.00394  0.0000E+00  0.8765E-08  0.1080E-11  0.2673E-04  0.0000E+00 -0.2427E+12
   -1.530011    4.00480  0.0000E+00  0.8832E-08  0.1261E-11  0.2263E-04  0.0000E+00 -0.3393E+12
   -1.572510    4.00594  0.0000E+00  0.8859E-08  0.1649E-11  0.1902E-04  0.0000E+00 -0.6183E+12
   -1.615008    4.00786  0.0000E+00  0.8538E-08  0.3178E-11  0.7125E-05  0.0000E+00 -0.2199E+13
   -1.657506    4.01361  0.0000E+00  0.6528E-08  0.1066E-10  0.8562E-06  0.0000E+00 -0.3051E+14
   -1.700003    4.05445  0.0000E+00  0.0000E+00  0.0000E+00  0.0000E+00  0.0000E+00  0.0000E+00
