 1 - depth, m
 2 - temperature, C
 3 - salinity, kg/kg
 4 - turbulent kinetic energy, m**2/s**2
 5 - dissipation rate, m**2/s**3
 6 - kinematic heat conductance, m**2/s
 7 - modulus of horizontal velocity, m/s
 8 - Richardson number, n/d
   -0.000000   13.84788  0.0000E+00  0.1463E-04  0.1081E-05  0.2167E-04  0.1912E-01 -0.8303E-02
   -0.042498   13.85483  0.0000E+00  0.1024E-04  0.3537E-06  0.3303E-04  0.1040E-01 -0.2417E-01
   -0.084996   13.85875  0.0000E+00  0.7541E-05  0.1625E-06  0.4026E-04  0.6757E-02 -0.5332E-01
   -0.127494   13.86169  0.0000E+00  0.5725E-05  0.8621E-07  0.4654E-04  0.4566E-02 -0.1111E+00
   -0.169993   13.86408  0.0000E+00  0.4464E-05  0.4972E-07  0.5393E-04  0.3131E-02 -0.2190E+00
   -0.212492   13.86604  0.0000E+00  0.3575E-05  0.3026E-07  0.6629E-04  0.2156E-02 -0.3492E+00
   -0.254991   13.86761  0.0000E+00  0.2969E-05  0.1936E-07  0.9300E-04  0.1506E-02  0.7030E+03
   -0.297491   13.86883  0.0000E+00  0.2579E-05  0.1307E-07  0.1154E-03  0.1086E-02  0.2093E+03
   -0.339991   13.86978  0.0000E+00  0.2346E-05  0.9427E-08  0.1620E-03  0.8050E-03  0.4265E+03
   -0.382491   13.87045  0.0000E+00  0.2220E-05  0.7392E-08  0.2317E-03  0.6160E-03  0.1652E+03
   -0.424992   13.87088  0.0000E+00  0.2161E-05  0.6278E-08  0.2683E-03  0.5044E-03  0.2190E+02
   -0.467492   13.87123  0.0000E+00  0.2134E-05  0.5551E-08  0.2903E-03  0.4288E-03  0.1545E+01
   -0.509993   13.87156  0.0000E+00  0.2122E-05  0.5000E-08  0.3125E-03  0.3634E-03  0.1651E+01
   -0.552494   13.87187  0.0000E+00  0.2120E-05  0.4576E-08  0.3350E-03  0.3063E-03  0.1789E+01
   -0.594996   13.87218  0.0000E+00  0.2126E-05  0.4249E-08  0.3575E-03  0.2567E-03  0.1920E+01
   -0.637497   13.87247  0.0000E+00  0.2137E-05  0.3993E-08  0.3799E-03  0.2146E-03  0.2072E+01
   -0.679998   13.87274  0.0000E+00  0.2151E-05  0.3792E-08  0.4016E-03  0.1805E-03  0.2344E+01
   -0.722500   13.87300  0.0000E+00  0.2168E-05  0.3635E-08  0.4226E-03  0.1530E-03  0.2730E+01
   -0.765001   13.87324  0.0000E+00  0.2188E-05  0.3510E-08  0.4430E-03  0.1312E-03  0.3297E+01
   -0.807503   13.87347  0.0000E+00  0.2211E-05  0.3411E-08  0.4630E-03  0.1139E-03  0.4164E+01
   -0.850005   13.87368  0.0000E+00  0.2236E-05  0.3334E-08  0.4820E-03  0.9974E-04  0.5224E+01
   -0.892506   13.87389  0.0000E+00  0.2263E-05  0.3276E-08  0.5000E-03  0.8778E-04  0.6536E+01
   -0.935008   13.87409  0.0000E+00  0.2291E-05  0.3236E-08  0.5165E-03  0.7768E-04  0.8264E+01
   -0.977510   13.87429  0.0000E+00  0.2321E-05  0.3212E-08  0.5314E-03  0.6886E-04  0.1022E+02
   -1.020011   13.87449  0.0000E+00  0.2350E-05  0.3202E-08  0.5443E-03  0.6121E-04  0.1272E+02
   -1.062513   13.87470  0.0000E+00  0.2380E-05  0.3206E-08  0.5551E-03  0.5437E-04  0.1544E+02
   -1.105014   13.87491  0.0000E+00  0.2408E-05  0.3222E-08  0.5634E-03  0.4826E-04  0.1870E+02
   -1.147515   13.87513  0.0000E+00  0.2435E-05  0.3249E-08  0.5691E-03  0.4261E-04  0.2261E+02
   -1.190016   13.87537  0.0000E+00  0.2458E-05  0.3286E-08  0.5719E-03  0.3729E-04  0.2654E+02
   -1.232517   13.87562  0.0000E+00  0.2479E-05  0.3334E-08  0.5721E-03  0.3230E-04  0.3174E+02
   -1.275018   13.87587  0.0000E+00  0.2498E-05  0.3398E-08  0.5690E-03  0.2787E-04  0.4162E+02
   -1.317518   13.87613  0.0000E+00  0.2514E-05  0.3480E-08  0.5622E-03  0.2392E-04  0.5626E+02
   -1.360018   13.87641  0.0000E+00  0.2527E-05  0.3589E-08  0.5505E-03  0.2046E-04  0.7705E+02
   -1.402518   13.87669  0.0000E+00  0.2538E-05  0.3738E-08  0.5330E-03  0.1746E-04  0.1148E+03
   -1.445018   13.87700  0.0000E+00  0.2544E-05  0.3922E-08  0.5107E-03  0.1478E-04  0.1736E+03
   -1.487518   13.87733  0.0000E+00  0.2544E-05  0.4155E-08  0.4825E-03  0.1223E-04  0.2211E+03
   -1.530017   13.87770  0.0000E+00  0.2536E-05  0.4516E-08  0.4437E-03  0.9812E-05  0.2686E+03
   -1.572515   13.87810  0.0000E+00  0.2508E-05  0.5291E-08  0.3649E-03  0.7686E-05  0.5213E+03
   -1.615014   13.87861  0.0000E+00  0.2414E-05  0.7859E-08  0.2755E-03  0.6092E-05  0.2705E+04
   -1.657512   13.87930  0.0000E+00  0.1686E-05  0.3143E-07  0.1552E-04  0.4910E-05 -0.6816E+06
   -1.700009   13.89234  0.0000E+00  0.0000E+00  0.0000E+00  0.0000E+00  0.4906E-05  0.0000E+00
