 1 - depth, m
 2 - temperature, C
 3 - salinity, kg/kg
 4 - turbulent kinetic energy, m**2/s**2
 5 - dissipation rate, m**2/s**3
 6 - kinematic heat conductance, m**2/s
 7 - modulus of horizontal velocity, m/s
 8 - Richardson number, n/d
   -0.000000   11.21700  0.0000E+00  0.1936E-03  0.1204E-03  0.5853E-04  0.1224E+00 -0.2819E-01
   -0.042497   11.32623  0.0000E+00  0.1072E-03  0.3994E-04  0.1297E-03  0.2915E-01 -0.4957E-01
   -0.084995   11.34649  0.0000E+00  0.7783E-04  0.1913E-04  0.1231E-03  0.1987E-01 -0.1070E+00
   -0.127493   11.36094  0.0000E+00  0.5873E-04  0.9585E-05  0.1190E-03  0.1562E-01 -0.6418E-01
   -0.169992   11.37237  0.0000E+00  0.4487E-04  0.4962E-05  0.1205E-03  0.1251E-01 -0.8270E-01
   -0.212491   11.38230  0.0000E+00  0.3461E-04  0.2671E-05  0.1286E-03  0.1004E-01  0.5252E+01
   -0.254990   11.39099  0.0000E+00  0.2700E-04  0.1467E-05  0.1458E-03  0.8145E-02  0.7929E+01
   -0.297490   11.39846  0.0000E+00  0.2153E-04  0.8350E-06  0.1786E-03  0.6735E-02  0.1361E+02
   -0.339989   11.40470  0.0000E+00  0.1770E-04  0.5051E-06  0.2196E-03  0.5643E-02  0.2278E+03
   -0.382489   11.40988  0.0000E+00  0.1497E-04  0.3242E-06  0.2605E-03  0.4742E-02  0.8099E+02
   -0.424990   11.41415  0.0000E+00  0.1305E-04  0.2203E-06  0.3022E-03  0.4022E-02  0.2293E+04
   -0.467490   11.41776  0.0000E+00  0.1166E-04  0.1570E-06  0.3461E-03  0.3408E-02  0.6406E+02
   -0.509991   11.42079  0.0000E+00  0.1063E-04  0.1159E-06  0.3886E-03  0.2880E-02  0.6465E+02
   -0.552492   11.42337  0.0000E+00  0.9853E-05  0.8838E-07  0.4314E-03  0.2419E-02  0.7183E+02
   -0.594993   11.42559  0.0000E+00  0.9265E-05  0.6964E-07  0.4753E-03  0.2013E-02  0.1660E+02
   -0.637494   11.42750  0.0000E+00  0.8798E-05  0.5627E-07  0.5226E-03  0.1661E-02  0.9639E+01
   -0.679995   11.42918  0.0000E+00  0.8425E-05  0.4656E-07  0.5704E-03  0.1370E-02  0.2173E+02
   -0.722496   11.43066  0.0000E+00  0.8128E-05  0.3944E-07  0.6214E-03  0.1129E-02  0.1221E+02
   -0.764998   11.43199  0.0000E+00  0.7888E-05  0.3414E-07  0.6692E-03  0.9386E-03  0.1945E+02
   -0.807499   11.43319  0.0000E+00  0.7691E-05  0.3007E-07  0.7070E-03  0.7917E-03  0.1239E+01
   -0.850001   11.43431  0.0000E+00  0.7529E-05  0.2696E-07  0.7377E-03  0.6747E-03  0.1191E+01
   -0.892502   11.43537  0.0000E+00  0.7392E-05  0.2455E-07  0.7632E-03  0.5806E-03  0.1280E+01
   -0.935004   11.43639  0.0000E+00  0.7277E-05  0.2270E-07  0.7830E-03  0.5045E-03  0.1123E+01
   -0.977505   11.43736  0.0000E+00  0.7177E-05  0.2128E-07  0.7979E-03  0.4411E-03  0.1104E+01
   -1.020006   11.43831  0.0000E+00  0.7089E-05  0.2020E-07  0.8080E-03  0.3884E-03  0.1128E+01
   -1.062508   11.43923  0.0000E+00  0.7008E-05  0.1938E-07  0.8135E-03  0.3431E-03  0.1156E+01
   -1.105009   11.44013  0.0000E+00  0.6932E-05  0.1878E-07  0.8143E-03  0.3038E-03  0.1211E+01
   -1.147510   11.44102  0.0000E+00  0.6860E-05  0.1838E-07  0.8103E-03  0.2683E-03  0.1289E+01
   -1.190011   11.44189  0.0000E+00  0.6792E-05  0.1816E-07  0.8006E-03  0.2355E-03  0.1355E+01
   -1.232511   11.44277  0.0000E+00  0.6722E-05  0.1810E-07  0.7849E-03  0.2054E-03  0.1458E+01
   -1.275012   11.44365  0.0000E+00  0.6649E-05  0.1822E-07  0.7629E-03  0.1796E-03  0.1751E+01
   -1.317512   11.44456  0.0000E+00  0.6570E-05  0.1855E-07  0.7362E-03  0.1573E-03  0.2262E+01
   -1.360012   11.44549  0.0000E+00  0.6477E-05  0.1916E-07  0.6955E-03  0.1380E-03  0.3094E+01
   -1.402512   11.44648  0.0000E+00  0.6363E-05  0.2024E-07  0.6570E-03  0.1208E-03  0.4759E+01
   -1.445011   11.44752  0.0000E+00  0.6233E-05  0.2203E-07  0.5903E-03  0.1050E-03  0.1092E+02
   -1.487511   11.44875  0.0000E+00  0.6078E-05  0.2496E-07  0.5578E-03  0.8818E-04  0.1764E+04
   -1.530009   11.45011  0.0000E+00  0.5854E-05  0.3132E-07  0.4476E-03  0.7171E-04 -0.3605E+03
   -1.572508   11.45263  0.0000E+00  0.5473E-05  0.4630E-07  0.4677E-03  0.5279E-04  0.1143E+06
   -1.615006   11.45375  0.0000E+00  0.4538E-05  0.1128E-06  0.1995E-03  0.4282E-04 -0.7457E+06
   -1.657504   11.46607  0.0000E+00  0.2980E-05  0.3174E-06  0.9029E-04  0.2704E-04 -0.1908E+06
   -1.700001   11.47427  0.0000E+00  0.0000E+00  0.0000E+00  0.0000E+00  0.3719E-04  0.0000E+00
