 1 - depth, m
 2 - temperature, C
 3 - salinity, kg/kg
 4 - turbulent kinetic energy, m**2/s**2
 5 - dissipation rate, m**2/s**3
 6 - kinematic heat conductance, m**2/s
 7 - modulus of horizontal velocity, m/s
 8 - Richardson number, n/d
   -0.000000   18.34956  0.0000E+00  0.8505E-04  0.2633E-04  0.4969E-04  0.7427E-01  0.4285E-01
   -0.042497   18.44716  0.0000E+00  0.4785E-04  0.7039E-05  0.6466E-04  0.2398E-01 -0.3417E+00
   -0.084995   18.47043  0.0000E+00  0.3419E-04  0.2888E-05  0.8031E-04  0.1612E-01  0.2302E+01
   -0.127493   18.48597  0.0000E+00  0.2611E-04  0.1377E-05  0.9919E-04  0.1198E-01  0.4381E+01
   -0.169991   18.49807  0.0000E+00  0.2080E-04  0.7198E-06  0.1282E-03  0.9122E-02  0.4763E+02
   -0.212490   18.50777  0.0000E+00  0.1724E-04  0.4087E-06  0.1823E-03  0.7042E-02  0.7289E+02
   -0.254989   18.51519  0.0000E+00  0.1491E-04  0.2533E-06  0.2717E-03  0.5576E-02  0.2245E+03
   -0.297488   18.52029  0.0000E+00  0.1348E-04  0.1727E-06  0.3642E-03  0.4590E-02  0.1117E+03
   -0.339988   18.52372  0.0000E+00  0.1265E-04  0.1280E-06  0.4250E-03  0.3894E-02  0.6102E+01
   -0.382488   18.52636  0.0000E+00  0.1219E-04  0.1007E-06  0.4807E-03  0.3332E-02  0.7002E+01
   -0.424988   18.52853  0.0000E+00  0.1195E-04  0.8297E-07  0.5283E-03  0.2876E-02  0.5054E+01
   -0.467488   18.53041  0.0000E+00  0.1184E-04  0.7062E-07  0.5704E-03  0.2473E-02  0.2236E+01
   -0.509989   18.53211  0.0000E+00  0.1181E-04  0.6152E-07  0.6105E-03  0.2111E-02  0.2248E+01
   -0.552489   18.53367  0.0000E+00  0.1182E-04  0.5458E-07  0.6517E-03  0.1785E-02  0.2248E+01
   -0.594990   18.53511  0.0000E+00  0.1183E-04  0.4921E-07  0.6990E-03  0.1491E-02  0.2141E+01
   -0.637491   18.53643  0.0000E+00  0.1184E-04  0.4495E-07  0.7597E-03  0.1233E-02  0.1922E+01
   -0.679992   18.53763  0.0000E+00  0.1184E-04  0.4161E-07  0.8307E-03  0.1020E-02  0.1754E+01
   -0.722493   18.53870  0.0000E+00  0.1183E-04  0.3902E-07  0.9165E-03  0.8452E-03  0.1581E+01
   -0.764994   18.53967  0.0000E+00  0.1179E-04  0.3704E-07  0.1013E-02  0.7088E-03  0.1435E+01
   -0.807496   18.54053  0.0000E+00  0.1174E-04  0.3557E-07  0.1097E-02  0.6054E-03  0.1354E+01
   -0.849997   18.54132  0.0000E+00  0.1168E-04  0.3452E-07  0.1157E-02  0.5249E-03  0.1288E+01
   -0.892498   18.54205  0.0000E+00  0.1160E-04  0.3380E-07  0.1188E-02  0.4613E-03  0.1222E+01
   -0.934999   18.54276  0.0000E+00  0.1151E-04  0.3337E-07  0.1193E-02  0.4104E-03  0.1180E+01
   -0.977501   18.54345  0.0000E+00  0.1142E-04  0.3317E-07  0.1181E-02  0.3686E-03  0.1122E+01
   -1.020002   18.54415  0.0000E+00  0.1131E-04  0.3317E-07  0.1159E-02  0.3338E-03  0.1088E+01
   -1.062503   18.54486  0.0000E+00  0.1120E-04  0.3336E-07  0.1131E-02  0.3041E-03  0.1053E+01
   -1.105004   18.54558  0.0000E+00  0.1109E-04  0.3374E-07  0.1099E-02  0.2783E-03  0.1066E+01
   -1.147504   18.54632  0.0000E+00  0.1097E-04  0.3432E-07  0.1064E-02  0.2549E-03  0.1131E+01
   -1.190005   18.54708  0.0000E+00  0.1083E-04  0.3515E-07  0.1020E-02  0.2327E-03  0.1237E+01
   -1.232506   18.54787  0.0000E+00  0.1068E-04  0.3635E-07  0.9755E-03  0.2115E-03  0.1430E+01
   -1.275006   18.54870  0.0000E+00  0.1050E-04  0.3816E-07  0.9087E-03  0.1917E-03  0.1947E+01
   -1.317506   18.54961  0.0000E+00  0.1027E-04  0.4089E-07  0.8579E-03  0.1727E-03  0.2848E+01
   -1.360006   18.55058  0.0000E+00  0.9979E-05  0.4538E-07  0.7662E-03  0.1549E-03  0.4463E+01
   -1.402505   18.55175  0.0000E+00  0.9573E-05  0.5308E-07  0.7125E-03  0.1372E-03 -0.6949E+02
   -1.445005   18.55312  0.0000E+00  0.9027E-05  0.6628E-07  0.6011E-03  0.1199E-03  0.1035E+05
   -1.487504   18.55548  0.0000E+00  0.8360E-05  0.8665E-07  0.5436E-03  0.9619E-04  0.9664E+04
   -1.530003   18.55787  0.0000E+00  0.7419E-05  0.1360E-06  0.3928E-03  0.7395E-04 -0.1694E+05
   -1.572501   18.56626  0.0000E+00  0.6415E-05  0.2390E-06  0.4277E-03  0.4532E-04  0.1114E+08
   -1.614999   18.56187  0.0000E+00  0.4983E-05  0.6758E-06  0.2042E-03  0.3717E-04 -0.6405E+09
   -1.657497   18.58830  0.0000E+00  0.3591E-05  0.1626E-05  0.2019E-03  0.2175E-04 -0.7494E+05
   -1.699994   18.58628  0.0000E+00  0.0000E+00  0.0000E+00  0.0000E+00  0.4489E-04  0.0000E+00
