 1 - depth, m
 2 - temperature, C
 3 - salinity, kg/kg
 4 - turbulent kinetic energy, m**2/s**2
 5 - dissipation rate, m**2/s**3
 6 - kinematic heat conductance, m**2/s
 7 - modulus of horizontal velocity, m/s
 8 - Richardson number, n/d
   -0.000000    0.00000  0.0000E+00  0.3189E-13  0.5207E-16  0.1000E-09  0.0000E+00  0.9929E+16
   -0.042497    0.15204  0.0000E+00  0.3189E-13  0.5207E-16  0.1000E-09  0.0000E+00  0.9813E+16
   -0.084995    0.30890  0.0000E+00  0.3189E-13  0.5207E-16  0.1000E-09  0.0000E+00  0.9628E+16
   -0.127493    0.47003  0.0000E+00  0.3189E-13  0.5207E-16  0.1000E-09  0.0000E+00  0.9118E+16
   -0.169991    0.63020  0.0000E+00  0.3189E-13  0.5207E-16  0.1000E-09  0.0000E+00  0.8610E+16
   -0.212490    0.78925  0.0000E+00  0.3189E-13  0.5207E-16  0.1000E-09  0.0000E+00  0.8113E+16
   -0.254989    0.94714  0.0000E+00  0.3189E-13  0.5207E-16  0.1000E-09  0.0000E+00  0.7620E+16
   -0.297489    1.10374  0.0000E+00  0.3189E-13  0.5207E-16  0.1000E-09  0.0000E+00  0.7118E+16
   -0.339988    1.25853  0.0000E+00  0.3189E-13  0.5207E-16  0.1000E-09  0.0000E+00  0.6604E+16
   -0.382488    1.41086  0.0000E+00  0.3189E-13  0.5207E-16  0.1000E-09  0.0000E+00  0.6100E+16
   -0.424988    1.56042  0.0000E+00  0.3189E-13  0.5207E-16  0.1000E-09  0.0000E+00  0.5596E+16
   -0.467489    1.70660  0.0000E+00  0.3189E-13  0.5207E-16  0.1000E-09  0.0000E+00  0.5109E+16
   -0.509989    1.84911  0.0000E+00  0.3189E-13  0.5207E-16  0.1000E-09  0.0000E+00  0.4666E+16
   -0.552490    1.98848  0.0000E+00  0.3189E-13  0.5207E-16  0.1000E-09  0.0000E+00  0.4244E+16
   -0.594991    2.12459  0.0000E+00  0.3189E-13  0.5207E-16  0.1000E-09  0.0000E+00  0.3846E+16
   -0.637492    2.25747  0.0000E+00  0.3189E-13  0.5207E-16  0.1000E-09  0.0000E+00  0.3476E+16
   -0.679993    2.38734  0.0000E+00  0.3189E-13  0.5207E-16  0.1000E-09  0.0000E+00  0.3119E+16
   -0.722494    2.51385  0.0000E+00  0.3189E-13  0.5207E-16  0.1000E-09  0.0000E+00  0.2780E+16
   -0.764995    2.63681  0.0000E+00  0.3189E-13  0.5207E-16  0.1000E-09  0.0000E+00  0.2453E+16
   -0.807496    2.75572  0.0000E+00  0.3189E-13  0.5207E-16  0.1000E-09  0.0000E+00  0.2134E+16
   -0.849998    2.86963  0.0000E+00  0.3189E-13  0.5207E-16  0.1000E-09  0.0000E+00  0.1830E+16
   -0.892499    2.97775  0.0000E+00  0.3189E-13  0.5207E-16  0.1000E-09  0.0000E+00  0.1584E+16
   -0.935000    3.08184  0.0000E+00  0.3189E-13  0.5207E-16  0.1000E-09  0.0000E+00  0.1368E+16
   -0.977502    3.18274  0.0000E+00  0.8235E-13  0.5207E-16  0.1000E-09  0.0000E+00  0.1167E+16
   -1.020003    3.28029  0.0000E+00  0.2648E-12  0.9799E-16  0.1000E-09  0.0000E+00  0.9724E+15
   -1.062504    3.37344  0.0000E+00  0.7006E-12  0.2309E-15  0.1000E-09  0.0000E+00  0.7951E+15
   -1.105005    3.46190  0.0000E+00  0.1733E-11  0.5477E-15  0.1000E-09  0.0000E+00  0.6312E+15
   -1.147506    3.54468  0.0000E+00  0.4143E-11  0.1272E-14  0.1000E-09  0.0000E+00  0.4860E+15
   -1.190006    3.62109  0.0000E+00  0.9756E-11  0.2920E-14  0.1000E-09  0.0000E+00  0.3648E+15
   -1.232507    3.69126  0.0000E+00  0.2338E-10  0.6821E-14  0.1000E-09  0.0000E+00  0.2665E+15
   -1.275007    3.75571  0.0000E+00  0.5638E-10  0.1606E-13  0.2633E-09  0.0000E+00  0.1899E+15
   -1.317507    3.81597  0.0000E+00  0.1364E-09  0.3794E-13  0.8545E-09  0.0000E+00  0.1378E+15
   -1.360007    3.87925  0.0000E+00  0.3313E-09  0.9019E-13  0.3575E-08  0.0000E+00  0.7765E+14
   -1.402507    3.94677  0.0000E+00  0.7949E-09  0.2126E-12  0.5301E-07  0.0000E+00  0.1110E+14
   -1.445006    3.99886  0.0000E+00  0.1533E-08  0.4173E-12  0.1807E-05  0.0000E+00 -0.1203E+13
   -1.487505    4.00395  0.0000E+00  0.2066E-08  0.6345E-12  0.2032E-05  0.0000E+00 -0.1475E+13
   -1.530004    4.00866  0.0000E+00  0.2703E-08  0.1026E-11  0.2242E-05  0.0000E+00 -0.2313E+13
   -1.572502    4.01450  0.0000E+00  0.3623E-08  0.1906E-11  0.2740E-05  0.0000E+00 -0.5002E+13
   -1.615001    4.02417  0.0000E+00  0.4661E-08  0.4116E-11  0.1845E-05  0.0000E+00 -0.1325E+14
   -1.657498    4.04222  0.0000E+00  0.4835E-08  0.9929E-11  0.6740E-06  0.0000E+00 -0.6347E+14
   -1.699995    4.09232  0.0000E+00  0.0000E+00  0.0000E+00  0.0000E+00  0.0000E+00  0.0000E+00
