 1 - depth, m
 2 - temperature, C
 3 - salinity, kg/kg
 4 - turbulent kinetic energy, m**2/s**2
 5 - dissipation rate, m**2/s**3
 6 - kinematic heat conductance, m**2/s
 7 - modulus of horizontal velocity, m/s
 8 - Richardson number, n/d
   -0.000000    0.00000  0.0000E+00  0.3533E-09  0.3928E-12  0.1000E-09  0.0000E+00  0.3021E+17
   -0.042499    0.48456  0.0000E+00  0.1330E-08  0.2988E-12  0.1000E-09  0.0000E+00  0.2711E+17
   -0.084998    0.98982  0.0000E+00  0.3108E-08  0.3555E-12  0.1000E-09  0.0000E+00  0.2326E+17
   -0.127498    1.50926  0.0000E+00  0.5886E-08  0.5112E-12  0.1009E-09  0.0000E+00  0.1881E+17
   -0.169998    2.03309  0.0000E+00  0.1013E-07  0.7820E-12  0.1742E-09  0.0000E+00  0.1411E+17
   -0.212498    2.55142  0.0000E+00  0.1665E-07  0.1215E-11  0.4021E-09  0.0000E+00  0.9517E+16
   -0.254999    3.05509  0.0000E+00  0.2675E-07  0.1892E-11  0.1137E-08  0.0000E+00  0.5326E+16
   -0.297500    3.53927  0.0000E+00  0.4237E-07  0.2939E-11  0.6171E-08  0.0000E+00  0.1605E+16
   -0.340001    4.00311  0.0000E+00  0.4273E-07  0.2965E-11  0.2045E-03  0.0000E+00 -0.9008E+11
   -0.382502    4.00345  0.0000E+00  0.4291E-07  0.2981E-11  0.2009E-03  0.0000E+00 -0.8925E+11
   -0.425004    4.00380  0.0000E+00  0.4309E-07  0.2997E-11  0.2013E-03  0.0000E+00 -0.8914E+11
   -0.467506    4.00413  0.0000E+00  0.4326E-07  0.3015E-11  0.2017E-03  0.0000E+00 -0.8918E+11
   -0.510008    4.00446  0.0000E+00  0.4343E-07  0.3035E-11  0.2019E-03  0.0000E+00 -0.8974E+11
   -0.552511    4.00479  0.0000E+00  0.4358E-07  0.3056E-11  0.2019E-03  0.0000E+00 -0.9048E+11
   -0.595013    4.00511  0.0000E+00  0.4374E-07  0.3079E-11  0.2018E-03  0.0000E+00 -0.9167E+11
   -0.637516    4.00543  0.0000E+00  0.4388E-07  0.3105E-11  0.2014E-03  0.0000E+00 -0.9337E+11
   -0.680018    4.00574  0.0000E+00  0.4403E-07  0.3133E-11  0.2008E-03  0.0000E+00 -0.9542E+11
   -0.722521    4.00607  0.0000E+00  0.4418E-07  0.3166E-11  0.2000E-03  0.0000E+00 -0.9814E+11
   -0.765024    4.00639  0.0000E+00  0.4433E-07  0.3202E-11  0.1989E-03  0.0000E+00 -0.1015E+12
   -0.807527    4.00672  0.0000E+00  0.4448E-07  0.3244E-11  0.1976E-03  0.0000E+00 -0.1048E+12
   -0.850030    4.00705  0.0000E+00  0.4462E-07  0.3291E-11  0.1961E-03  0.0000E+00 -0.1083E+12
   -0.892532    4.00739  0.0000E+00  0.4476E-07  0.3343E-11  0.1943E-03  0.0000E+00 -0.1114E+12
   -0.935035    4.00773  0.0000E+00  0.4490E-07  0.3400E-11  0.1924E-03  0.0000E+00 -0.1140E+12
   -0.977538    4.00808  0.0000E+00  0.4502E-07  0.3462E-11  0.1901E-03  0.0000E+00 -0.1169E+12
   -1.020041    4.00843  0.0000E+00  0.4514E-07  0.3531E-11  0.1876E-03  0.0000E+00 -0.1199E+12
   -1.062544    4.00878  0.0000E+00  0.4524E-07  0.3606E-11  0.1848E-03  0.0000E+00 -0.1231E+12
   -1.105046    4.00913  0.0000E+00  0.4533E-07  0.3687E-11  0.1818E-03  0.0000E+00 -0.1263E+12
   -1.147549    4.00949  0.0000E+00  0.4541E-07  0.3775E-11  0.1786E-03  0.0000E+00 -0.1295E+12
   -1.190051    4.00985  0.0000E+00  0.4547E-07  0.3870E-11  0.1751E-03  0.0000E+00 -0.1334E+12
   -1.232553    4.01022  0.0000E+00  0.4552E-07  0.3978E-11  0.1710E-03  0.0000E+00 -0.1391E+12
   -1.275055    4.01059  0.0000E+00  0.4556E-07  0.4107E-11  0.1664E-03  0.0000E+00 -0.1460E+12
   -1.317557    4.01098  0.0000E+00  0.4559E-07  0.4264E-11  0.1609E-03  0.0000E+00 -0.1544E+12
   -1.360058    4.01138  0.0000E+00  0.4560E-07  0.4463E-11  0.1543E-03  0.0000E+00 -0.1657E+12
   -1.402559    4.01180  0.0000E+00  0.4558E-07  0.4726E-11  0.1466E-03  0.0000E+00 -0.1781E+12
   -1.445060    4.01225  0.0000E+00  0.4555E-07  0.5044E-11  0.1385E-03  0.0000E+00 -0.1909E+12
   -1.487561    4.01273  0.0000E+00  0.4548E-07  0.5437E-11  0.1293E-03  0.0000E+00 -0.2077E+12
   -1.530061    4.01323  0.0000E+00  0.4537E-07  0.6037E-11  0.1169E-03  0.0000E+00 -0.2429E+12
   -1.572561    4.01380  0.0000E+00  0.4511E-07  0.7311E-11  0.1001E-03  0.0000E+00 -0.3335E+12
   -1.615061    4.01457  0.0000E+00  0.4392E-07  0.1298E-10  0.3973E-04  0.0000E+00 -0.9536E+12
   -1.657560    4.01668  0.0000E+00  0.3203E-07  0.7614E-10  0.2041E-05  0.0000E+00 -0.3015E+14
   -1.700059    4.05546  0.0000E+00  0.0000E+00  0.0000E+00  0.0000E+00  0.0000E+00  0.0000E+00
