 1 - depth, m
 2 - temperature, C
 3 - salinity, kg/kg
 4 - turbulent kinetic energy, m**2/s**2
 5 - dissipation rate, m**2/s**3
 6 - kinematic heat conductance, m**2/s
 7 - modulus of horizontal velocity, m/s
 8 - Richardson number, n/d
   -0.000000    0.00000  0.0000E+00  0.1650E-09  0.1557E-12  0.1000E-09  0.0000E+00  0.3231E+17
   -0.042497    0.52092  0.0000E+00  0.5426E-09  0.1187E-12  0.1000E-09  0.0000E+00  0.2698E+17
   -0.084995    1.03000  0.0000E+00  0.1216E-08  0.1368E-12  0.1000E-09  0.0000E+00  0.2185E+17
   -0.127492    1.52266  0.0000E+00  0.2227E-08  0.1876E-12  0.1000E-09  0.0000E+00  0.1695E+17
   -0.169991    1.99091  0.0000E+00  0.3696E-08  0.2724E-12  0.1060E-09  0.0000E+00  0.1268E+17
   -0.212489    2.43455  0.0000E+00  0.5820E-08  0.4003E-12  0.1660E-09  0.0000E+00  0.8996E+16
   -0.254988    2.85337  0.0000E+00  0.8908E-08  0.5879E-12  0.3304E-09  0.0000E+00  0.5824E+16
   -0.297487    3.24468  0.0000E+00  0.1340E-07  0.8592E-12  0.8869E-09  0.0000E+00  0.3147E+16
   -0.339987    3.60041  0.0000E+00  0.1974E-07  0.1237E-11  0.4641E-08  0.0000E+00  0.1068E+16
   -0.382487    3.90223  0.0000E+00  0.2103E-07  0.1296E-11  0.7983E-04  0.0000E+00  0.1430E+15
   -0.424987    3.98460  0.0000E+00  0.2147E-07  0.1318E-11  0.9350E-04  0.0000E+00  0.5211E+13
   -0.467487    3.99495  0.0000E+00  0.2162E-07  0.1328E-11  0.1026E-03  0.0000E+00 -0.4023E+11
   -0.509987    3.99534  0.0000E+00  0.2175E-07  0.1338E-11  0.1057E-03  0.0000E+00 -0.4140E+11
   -0.552488    3.99570  0.0000E+00  0.2188E-07  0.1349E-11  0.1087E-03  0.0000E+00 -0.4217E+11
   -0.594988    3.99604  0.0000E+00  0.2200E-07  0.1362E-11  0.1110E-03  0.0000E+00 -0.4321E+11
   -0.637489    3.99636  0.0000E+00  0.2211E-07  0.1375E-11  0.1132E-03  0.0000E+00 -0.4437E+11
   -0.679990    3.99667  0.0000E+00  0.2223E-07  0.1389E-11  0.1150E-03  0.0000E+00 -0.4578E+11
   -0.722491    3.99698  0.0000E+00  0.2234E-07  0.1406E-11  0.1165E-03  0.0000E+00 -0.4745E+11
   -0.764992    3.99728  0.0000E+00  0.2246E-07  0.1424E-11  0.1177E-03  0.0000E+00 -0.4971E+11
   -0.807493    3.99759  0.0000E+00  0.2257E-07  0.1444E-11  0.1182E-03  0.0000E+00 -0.5189E+11
   -0.849994    3.99790  0.0000E+00  0.2268E-07  0.1467E-11  0.1181E-03  0.0000E+00 -0.5445E+11
   -0.892495    3.99821  0.0000E+00  0.2279E-07  0.1492E-11  0.1178E-03  0.0000E+00 -0.5679E+11
   -0.934997    3.99853  0.0000E+00  0.2289E-07  0.1519E-11  0.1171E-03  0.0000E+00 -0.5900E+11
   -0.977498    3.99885  0.0000E+00  0.2299E-07  0.1548E-11  0.1162E-03  0.0000E+00 -0.6132E+11
   -1.019999    3.99917  0.0000E+00  0.2309E-07  0.1581E-11  0.1150E-03  0.0000E+00 -0.6368E+11
   -1.062499    3.99950  0.0000E+00  0.2318E-07  0.1616E-11  0.1136E-03  0.0000E+00 -0.6613E+11
   -1.105000    3.99983  0.0000E+00  0.2326E-07  0.1655E-11  0.1119E-03  0.0000E+00 -0.6852E+11
   -1.147501    4.00017  0.0000E+00  0.2333E-07  0.1696E-11  0.1103E-03  0.0000E+00 -0.7063E+11
   -1.190002    4.00050  0.0000E+00  0.2339E-07  0.1740E-11  0.1083E-03  0.0000E+00 -0.7357E+11
   -1.232502    4.00085  0.0000E+00  0.2344E-07  0.1791E-11  0.1060E-03  0.0000E+00 -0.7830E+11
   -1.275002    4.00120  0.0000E+00  0.2349E-07  0.1851E-11  0.1033E-03  0.0000E+00 -0.8412E+11
   -1.317502    4.00158  0.0000E+00  0.2353E-07  0.1924E-11  0.1000E-03  0.0000E+00 -0.9057E+11
   -1.360002    4.00197  0.0000E+00  0.2356E-07  0.2017E-11  0.9600E-04  0.0000E+00 -0.9954E+11
   -1.402501    4.00239  0.0000E+00  0.2358E-07  0.2140E-11  0.9121E-04  0.0000E+00 -0.1092E+12
   -1.445000    4.00284  0.0000E+00  0.2358E-07  0.2288E-11  0.8586E-04  0.0000E+00 -0.1191E+12
   -1.487499    4.00332  0.0000E+00  0.2357E-07  0.2475E-11  0.7910E-04  0.0000E+00 -0.1334E+12
   -1.529998    4.00384  0.0000E+00  0.2352E-07  0.2765E-11  0.7021E-04  0.0000E+00 -0.1679E+12
   -1.572496    4.00448  0.0000E+00  0.2339E-07  0.3398E-11  0.5809E-04  0.0000E+00 -0.2752E+12
   -1.614994    4.00549  0.0000E+00  0.2269E-07  0.6278E-11  0.2059E-04  0.0000E+00 -0.1001E+13
   -1.657491    4.00875  0.0000E+00  0.1677E-07  0.3293E-10  0.1437E-05  0.0000E+00 -0.2498E+14
   -1.699989    4.04709  0.0000E+00  0.0000E+00  0.0000E+00  0.0000E+00  0.0000E+00  0.0000E+00
