 1 - depth, m
 2 - temperature, C
 3 - salinity, kg/kg
 4 - turbulent kinetic energy, m**2/s**2
 5 - dissipation rate, m**2/s**3
 6 - kinematic heat conductance, m**2/s
 7 - modulus of horizontal velocity, m/s
 8 - Richardson number, n/d
   -0.000000    0.00000  0.0000E+00  0.3189E-13  0.5206E-16  0.1000E-09  0.0000E+00  0.6035E+16
   -0.042498    0.09167  0.0000E+00  0.3189E-13  0.5206E-16  0.1000E-09  0.0000E+00  0.6382E+16
   -0.084996    0.19117  0.0000E+00  0.3189E-13  0.5206E-16  0.1000E-09  0.0000E+00  0.6695E+16
   -0.127495    0.29863  0.0000E+00  0.3189E-13  0.5206E-16  0.1000E-09  0.0000E+00  0.6644E+16
   -0.169994    0.40866  0.0000E+00  0.3189E-13  0.5206E-16  0.1000E-09  0.0000E+00  0.6573E+16
   -0.212493    0.52116  0.0000E+00  0.3189E-13  0.5206E-16  0.1000E-09  0.0000E+00  0.6471E+16
   -0.254992    0.63583  0.0000E+00  0.3189E-13  0.5206E-16  0.1000E-09  0.0000E+00  0.6339E+16
   -0.297492    0.75233  0.0000E+00  0.3189E-13  0.5206E-16  0.1000E-09  0.0000E+00  0.6193E+16
   -0.339992    0.87061  0.0000E+00  0.3189E-13  0.5206E-16  0.1000E-09  0.0000E+00  0.6043E+16
   -0.382493    0.99074  0.0000E+00  0.3189E-13  0.5206E-16  0.1000E-09  0.0000E+00  0.5872E+16
   -0.424994    1.11254  0.0000E+00  0.3189E-13  0.5206E-16  0.1000E-09  0.0000E+00  0.5696E+16
   -0.467494    1.23610  0.0000E+00  0.3189E-13  0.5206E-16  0.1000E-09  0.0000E+00  0.5505E+16
   -0.509995    1.36130  0.0000E+00  0.3189E-13  0.5206E-16  0.1000E-09  0.0000E+00  0.5291E+16
   -0.552497    1.48780  0.0000E+00  0.3189E-13  0.5206E-16  0.1000E-09  0.0000E+00  0.5063E+16
   -0.594998    1.61543  0.0000E+00  0.3189E-13  0.5206E-16  0.1000E-09  0.0000E+00  0.4817E+16
   -0.637500    1.74388  0.0000E+00  0.3189E-13  0.5206E-16  0.1000E-09  0.0000E+00  0.4548E+16
   -0.680001    1.87259  0.0000E+00  0.3189E-13  0.5206E-16  0.1000E-09  0.0000E+00  0.4268E+16
   -0.722503    2.00123  0.0000E+00  0.3189E-13  0.5206E-16  0.1000E-09  0.0000E+00  0.3973E+16
   -0.765005    2.12923  0.0000E+00  0.3189E-13  0.5206E-16  0.1000E-09  0.0000E+00  0.3666E+16
   -0.807507    2.25601  0.0000E+00  0.3189E-13  0.5206E-16  0.1000E-09  0.0000E+00  0.3364E+16
   -0.850008    2.38141  0.0000E+00  0.3189E-13  0.5206E-16  0.1000E-09  0.0000E+00  0.3065E+16
   -0.892510    2.50513  0.0000E+00  0.3189E-13  0.5206E-16  0.1000E-09  0.0000E+00  0.2793E+16
   -0.935012    2.62790  0.0000E+00  0.1393E-12  0.6175E-16  0.1000E-09  0.0000E+00  0.2541E+16
   -0.977514    2.75039  0.0000E+00  0.4094E-12  0.1374E-15  0.1000E-09  0.0000E+00  0.2287E+16
   -1.020015    2.87236  0.0000E+00  0.1040E-11  0.3254E-15  0.1000E-09  0.0000E+00  0.2033E+16
   -1.062517    2.99351  0.0000E+00  0.2523E-11  0.7625E-15  0.1000E-09  0.0000E+00  0.1780E+16
   -1.105019    3.11352  0.0000E+00  0.5999E-11  0.1764E-14  0.1000E-09  0.0000E+00  0.1530E+16
   -1.147520    3.23207  0.0000E+00  0.1396E-10  0.3998E-14  0.1000E-09  0.0000E+00  0.1287E+16
   -1.190021    3.34886  0.0000E+00  0.3211E-10  0.8965E-14  0.1000E-09  0.0000E+00  0.1051E+16
   -1.232522    3.46343  0.0000E+00  0.7521E-10  0.2046E-13  0.1000E-09  0.0000E+00  0.8192E+15
   -1.275023    3.57450  0.0000E+00  0.1774E-09  0.4707E-13  0.2409E-09  0.0000E+00  0.6130E+15
   -1.317524    3.68336  0.0000E+00  0.4198E-09  0.1087E-12  0.7720E-09  0.0000E+00  0.4414E+15
   -1.360024    3.79750  0.0000E+00  0.9986E-09  0.2524E-12  0.3252E-08  0.0000E+00  0.2428E+15
   -1.402524    3.91763  0.0000E+00  0.2334E-08  0.5783E-12  0.5388E-07  0.0000E+00  0.3260E+14
   -1.445024    4.01017  0.0000E+00  0.3692E-08  0.9244E-12  0.6055E-05  0.0000E+00 -0.1149E+13
   -1.487524    4.01307  0.0000E+00  0.4313E-08  0.1147E-11  0.6190E-05  0.0000E+00 -0.1256E+13
   -1.530023    4.01592  0.0000E+00  0.4857E-08  0.1461E-11  0.6175E-05  0.0000E+00 -0.1609E+13
   -1.572522    4.01921  0.0000E+00  0.5399E-08  0.2055E-11  0.6201E-05  0.0000E+00 -0.2716E+13
   -1.615021    4.02411  0.0000E+00  0.5704E-08  0.3641E-11  0.3210E-05  0.0000E+00 -0.7014E+13
   -1.657519    4.03453  0.0000E+00  0.4741E-08  0.8472E-11  0.6634E-06  0.0000E+00 -0.4308E+14
   -1.700017    4.07480  0.0000E+00  0.0000E+00  0.0000E+00  0.0000E+00  0.0000E+00  0.0000E+00
