 1 - depth, m
 2 - temperature, C
 3 - salinity, kg/kg
 4 - turbulent kinetic energy, m**2/s**2
 5 - dissipation rate, m**2/s**3
 6 - kinematic heat conductance, m**2/s
 7 - modulus of horizontal velocity, m/s
 8 - Richardson number, n/d
   -0.000000   14.86954  0.0000E+00  0.1149E-03  0.3749E-04  0.6954E-04  0.8991E-01  0.4001E-02
   -0.042497   14.95983  0.0000E+00  0.6263E-04  0.1094E-04  0.8307E-04  0.2459E-01 -0.4477E-01
   -0.084995   14.97567  0.0000E+00  0.4406E-04  0.4887E-05  0.8159E-04  0.1682E-01 -0.1205E+00
   -0.127493   14.98790  0.0000E+00  0.3240E-04  0.2400E-05  0.8738E-04  0.1277E-01 -0.3179E-01
   -0.169992   14.99799  0.0000E+00  0.2445E-04  0.1254E-05  0.9807E-04  0.9873E-02  0.2280E+01
   -0.212490   15.00678  0.0000E+00  0.1887E-04  0.6860E-06  0.1173E-03  0.7635E-02  0.5906E+01
   -0.254989   15.01441  0.0000E+00  0.1498E-04  0.3928E-06  0.1509E-03  0.5952E-02  0.6750E+02
   -0.297489   15.02074  0.0000E+00  0.1236E-04  0.2379E-06  0.1992E-03  0.4737E-02  0.4889E+02
   -0.339988   15.02571  0.0000E+00  0.1067E-04  0.1539E-06  0.2562E-03  0.3855E-02  0.9387E+02
   -0.382488   15.02947  0.0000E+00  0.9586E-05  0.1063E-06  0.3126E-03  0.3191E-02  0.5346E+02
   -0.424989   15.03233  0.0000E+00  0.8899E-05  0.7823E-07  0.3618E-03  0.2690E-02  0.1534E+02
   -0.467489   15.03462  0.0000E+00  0.8458E-05  0.6075E-07  0.4096E-03  0.2271E-02  0.5333E+02
   -0.509989   15.03650  0.0000E+00  0.8172E-05  0.4927E-07  0.4558E-03  0.1911E-02  0.7446E+01
   -0.552490   15.03809  0.0000E+00  0.7985E-05  0.4138E-07  0.5004E-03  0.1598E-02  0.3926E+01
   -0.594991   15.03947  0.0000E+00  0.7859E-05  0.3576E-07  0.5445E-03  0.1323E-02  0.1651E+02
   -0.637492   15.04069  0.0000E+00  0.7768E-05  0.3154E-07  0.5943E-03  0.1087E-02  0.1850E+01
   -0.679993   15.04178  0.0000E+00  0.7698E-05  0.2830E-07  0.6468E-03  0.8925E-03  0.1669E+01
   -0.722494   15.04277  0.0000E+00  0.7641E-05  0.2578E-07  0.7034E-03  0.7348E-03  0.1507E+01
   -0.764996   15.04368  0.0000E+00  0.7590E-05  0.2382E-07  0.7563E-03  0.6119E-03  0.1369E+01
   -0.807497   15.04451  0.0000E+00  0.7542E-05  0.2227E-07  0.7977E-03  0.5191E-03  0.1299E+01
   -0.849998   15.04529  0.0000E+00  0.7494E-05  0.2109E-07  0.8291E-03  0.4469E-03  0.1242E+01
   -0.892500   15.04602  0.0000E+00  0.7444E-05  0.2016E-07  0.8518E-03  0.3899E-03  0.1188E+01
   -0.935001   15.04673  0.0000E+00  0.7391E-05  0.1944E-07  0.8668E-03  0.3443E-03  0.1167E+01
   -0.977502   15.04741  0.0000E+00  0.7335E-05  0.1889E-07  0.8749E-03  0.3067E-03  0.1133E+01
   -1.020003   15.04807  0.0000E+00  0.7275E-05  0.1848E-07  0.8777E-03  0.2754E-03  0.1137E+01
   -1.062505   15.04871  0.0000E+00  0.7211E-05  0.1819E-07  0.8753E-03  0.2485E-03  0.1144E+01
   -1.105006   15.04933  0.0000E+00  0.7144E-05  0.1801E-07  0.8684E-03  0.2249E-03  0.1191E+01
   -1.147506   15.04994  0.0000E+00  0.7073E-05  0.1793E-07  0.8567E-03  0.2033E-03  0.1267E+01
   -1.190007   15.05054  0.0000E+00  0.7000E-05  0.1796E-07  0.8396E-03  0.1830E-03  0.1357E+01
   -1.232508   15.05112  0.0000E+00  0.6919E-05  0.1813E-07  0.8167E-03  0.1637E-03  0.1521E+01
   -1.275008   15.05172  0.0000E+00  0.6828E-05  0.1847E-07  0.7842E-03  0.1462E-03  0.1941E+01
   -1.317508   15.05232  0.0000E+00  0.6721E-05  0.1906E-07  0.7491E-03  0.1299E-03  0.2652E+01
   -1.360008   15.05295  0.0000E+00  0.6591E-05  0.2006E-07  0.6904E-03  0.1149E-03  0.3905E+01
   -1.402508   15.05364  0.0000E+00  0.6426E-05  0.2176E-07  0.6501E-03  0.1010E-03  0.7240E+01
   -1.445007   15.05436  0.0000E+00  0.6227E-05  0.2477E-07  0.5621E-03  0.8817E-04  0.3037E+02
   -1.487506   15.05534  0.0000E+00  0.5976E-05  0.2984E-07  0.5309E-03  0.7294E-04  0.1120E+03
   -1.530005   15.05640  0.0000E+00  0.5602E-05  0.4114E-07  0.4068E-03  0.5812E-04 -0.1309E+05
   -1.572504   15.05904  0.0000E+00  0.5035E-05  0.6620E-07  0.4226E-03  0.3975E-04  0.1558E+07
   -1.615002   15.05893  0.0000E+00  0.4004E-05  0.1743E-06  0.1846E-03  0.3193E-04 -0.6453E+07
   -1.657499   15.07070  0.0000E+00  0.2679E-05  0.4675E-06  0.1152E-03  0.1930E-04 -0.6362E+06
   -1.699997   15.07473  0.0000E+00  0.0000E+00  0.0000E+00  0.0000E+00  0.3096E-04  0.0000E+00
