 1 - depth, m
 2 - temperature, C
 3 - salinity, kg/kg
 4 - turbulent kinetic energy, m**2/s**2
 5 - dissipation rate, m**2/s**3
 6 - kinematic heat conductance, m**2/s
 7 - modulus of horizontal velocity, m/s
 8 - Richardson number, n/d
   -0.000000   10.64196  0.0000E+00  0.2641E-02  0.3875E-01  0.1737E-03  0.7635E+00 -0.1460E-02
   -0.042498   10.69661  0.0000E+00  0.1277E-02  0.2429E-01  0.4869E-03  0.1550E+00 -0.7536E-02
   -0.084996   10.71232  0.0000E+00  0.8505E-03  0.7092E-02  0.5346E-03  0.8618E-01 -0.6139E-01
   -0.127495   10.71907  0.0000E+00  0.6483E-03  0.4687E-02  0.5040E-03  0.6635E-01  0.1720E-01
   -0.169994   10.72245  0.0000E+00  0.5138E-03  0.3220E-02  0.4361E-03  0.5445E-01 -0.9460E-03
   -0.212493   10.72588  0.0000E+00  0.4148E-03  0.2300E-02  0.4299E-03  0.4523E-01 -0.3058E-01
   -0.254993   10.72885  0.0000E+00  0.3407E-03  0.1814E-02  0.4054E-03  0.3864E-01 -0.5958E-01
   -0.297493   10.73151  0.0000E+00  0.2841E-03  0.1415E-02  0.3957E-03  0.3394E-01  0.1703E+01
   -0.339993   10.73349  0.0000E+00  0.2394E-03  0.1158E-02  0.3852E-03  0.3073E-01  0.1825E+02
   -0.382493   10.73516  0.0000E+00  0.2051E-03  0.9597E-03  0.3858E-03  0.2760E-01  0.5273E+01
   -0.424994   10.73647  0.0000E+00  0.1780E-03  0.7827E-03  0.3838E-03  0.2567E-01  0.3431E+02
   -0.467495   10.73791  0.0000E+00  0.1559E-03  0.6222E-03  0.3832E-03  0.2316E-01  0.1834E+03
   -0.509996   10.73929  0.0000E+00  0.1371E-03  0.4804E-03  0.3839E-03  0.2059E-01  0.2649E+00
   -0.552497   10.74069  0.0000E+00  0.1216E-03  0.3623E-03  0.3857E-03  0.1827E-01  0.9489E+01
   -0.594999   10.74209  0.0000E+00  0.1084E-03  0.2694E-03  0.3905E-03  0.1596E-01  0.5440E+01
   -0.637500   10.74347  0.0000E+00  0.9723E-04  0.1969E-03  0.4018E-03  0.1390E-01  0.5162E+03
   -0.680002   10.74465  0.0000E+00  0.8786E-04  0.1405E-03  0.4099E-03  0.1237E-01  0.5698E+01
   -0.722504   10.74578  0.0000E+00  0.7977E-04  0.9721E-04  0.4223E-03  0.1104E-01  0.8775E+01
   -0.765006   10.74677  0.0000E+00  0.7273E-04  0.6443E-04  0.4360E-03  0.9974E-02 -0.7994E+02
   -0.807507   10.74756  0.0000E+00  0.6657E-04  0.4044E-04  0.4469E-03  0.9159E-02  0.7214E+04
   -0.850009   10.74834  0.0000E+00  0.6117E-04  0.2428E-04  0.4601E-03  0.8431E-02  0.4246E+04
   -0.892511   10.74910  0.0000E+00  0.5638E-04  0.1408E-04  0.4744E-03  0.7781E-02  0.1966E+04
   -0.935013   10.74977  0.0000E+00  0.5221E-04  0.8116E-05  0.4838E-03  0.7227E-02  0.3999E+04
   -0.977515   10.75047  0.0000E+00  0.4855E-04  0.4792E-05  0.4961E-03  0.6689E-02 -0.9326E+04
   -1.020017   10.75112  0.0000E+00  0.4529E-04  0.2971E-05  0.5060E-03  0.6220E-02  0.1717E+05
   -1.062518   10.75176  0.0000E+00  0.4239E-04  0.1970E-05  0.5182E-03  0.5763E-02  0.3905E+04
   -1.105020   10.75238  0.0000E+00  0.3980E-04  0.1399E-05  0.5259E-03  0.5346E-02  0.2262E+03
   -1.147521   10.75300  0.0000E+00  0.3751E-04  0.1066E-05  0.5292E-03  0.4928E-02  0.2271E+03
   -1.190023   10.75364  0.0000E+00  0.3549E-04  0.8664E-06  0.5306E-03  0.4486E-02  0.2010E+03
   -1.232524   10.75429  0.0000E+00  0.3357E-04  0.7393E-06  0.5351E-03  0.4034E-02  0.3251E+03
   -1.275025   10.75491  0.0000E+00  0.3175E-04  0.6587E-06  0.5341E-03  0.3650E-02  0.6313E+03
   -1.317525   10.75551  0.0000E+00  0.2998E-04  0.6117E-06  0.5287E-03  0.3298E-02 -0.8608E+02
   -1.360026   10.75612  0.0000E+00  0.2822E-04  0.5943E-06  0.5175E-03  0.2976E-02 -0.5340E+04
   -1.402526   10.75671  0.0000E+00  0.2642E-04  0.6107E-06  0.4964E-03  0.2690E-02 -0.3086E+06
   -1.445026   10.75735  0.0000E+00  0.2472E-04  0.6688E-06  0.4656E-03  0.2415E-02 -0.5297E+04
   -1.487526   10.75805  0.0000E+00  0.2313E-04  0.7833E-06  0.4324E-03  0.2106E-02 -0.8024E+04
   -1.530025   10.75885  0.0000E+00  0.2145E-04  0.1005E-05  0.3862E-03  0.1737E-02 -0.9394E+07
   -1.572524   10.75981  0.0000E+00  0.1945E-04  0.1540E-05  0.3335E-03  0.1380E-02 -0.2818E+06
   -1.615023   10.76082  0.0000E+00  0.1595E-04  0.3291E-05  0.2180E-03  0.1164E-02 -0.2232E+06
   -1.657521   10.76300  0.0000E+00  0.1095E-04  0.7960E-05  0.7513E-04  0.9320E-03 -0.3010E+08
   -1.700019   10.77541  0.0000E+00  0.0000E+00  0.0000E+00  0.0000E+00  0.1446E-02  0.0000E+00
