 1 - depth, m
 2 - temperature, C
 3 - salinity, kg/kg
 4 - turbulent kinetic energy, m**2/s**2
 5 - dissipation rate, m**2/s**3
 6 - kinematic heat conductance, m**2/s
 7 - modulus of horizontal velocity, m/s
 8 - Richardson number, n/d
   -0.000000    0.00000  0.0000E+00  0.1934E-07  0.6033E-10  0.2387E-08  0.0000E+00  0.7930E+17
   -0.042498    1.47720  0.0000E+00  0.1575E-06  0.5097E-10  0.3852E-08  0.0000E+00  0.4170E+17
   -0.084997    2.92365  0.0000E+00  0.4290E-06  0.7741E-10  0.2814E-07  0.0000E+00  0.8744E+16
   -0.127496    4.14788  0.0000E+00  0.4311E-06  0.7770E-10  0.7499E-03  0.0000E+00 -0.7140E+12
   -0.169995    4.14815  0.0000E+00  0.4321E-06  0.7787E-10  0.7415E-03  0.0000E+00 -0.6796E+12
   -0.212495    4.14842  0.0000E+00  0.4330E-06  0.7805E-10  0.7430E-03  0.0000E+00 -0.6675E+12
   -0.254995    4.14869  0.0000E+00  0.4339E-06  0.7825E-10  0.7442E-03  0.0000E+00 -0.6573E+12
   -0.297495    4.14895  0.0000E+00  0.4347E-06  0.7848E-10  0.7450E-03  0.0000E+00 -0.6477E+12
   -0.339995    4.14920  0.0000E+00  0.4354E-06  0.7873E-10  0.7453E-03  0.0000E+00 -0.6385E+12
   -0.382496    4.14945  0.0000E+00  0.4360E-06  0.7900E-10  0.7451E-03  0.0000E+00 -0.6311E+12
   -0.424997    4.14970  0.0000E+00  0.4366E-06  0.7930E-10  0.7444E-03  0.0000E+00 -0.6226E+12
   -0.467498    4.14994  0.0000E+00  0.4371E-06  0.7963E-10  0.7433E-03  0.0000E+00 -0.6162E+12
   -0.510000    4.15019  0.0000E+00  0.4375E-06  0.7998E-10  0.7416E-03  0.0000E+00 -0.6086E+12
   -0.552501    4.15042  0.0000E+00  0.4378E-06  0.8038E-10  0.7395E-03  0.0000E+00 -0.6027E+12
   -0.595003    4.15066  0.0000E+00  0.4381E-06  0.8080E-10  0.7367E-03  0.0000E+00 -0.5980E+12
   -0.637505    4.15089  0.0000E+00  0.4383E-06  0.8129E-10  0.7333E-03  0.0000E+00 -0.5961E+12
   -0.680007    4.15112  0.0000E+00  0.4385E-06  0.8184E-10  0.7292E-03  0.0000E+00 -0.5945E+12
   -0.722509    4.15136  0.0000E+00  0.4386E-06  0.8247E-10  0.7242E-03  0.0000E+00 -0.5965E+12
   -0.765011    4.15159  0.0000E+00  0.4386E-06  0.8320E-10  0.7183E-03  0.0000E+00 -0.5993E+12
   -0.807513    4.15182  0.0000E+00  0.4386E-06  0.8404E-10  0.7114E-03  0.0000E+00 -0.6031E+12
   -0.850015    4.15205  0.0000E+00  0.4386E-06  0.8500E-10  0.7035E-03  0.0000E+00 -0.6074E+12
   -0.892518    4.15229  0.0000E+00  0.4384E-06  0.8610E-10  0.6946E-03  0.0000E+00 -0.6128E+12
   -0.935020    4.15252  0.0000E+00  0.4382E-06  0.8732E-10  0.6850E-03  0.0000E+00 -0.6164E+12
   -0.977522    4.15276  0.0000E+00  0.4380E-06  0.8867E-10  0.7131E-03  0.0000E+00 -0.5681E+12
   -1.020024    4.15299  0.0000E+00  0.4377E-06  0.9015E-10  0.6524E-03  0.0000E+00 -0.6615E+12
   -1.062526    4.15323  0.0000E+00  0.4373E-06  0.9179E-10  0.6921E-03  0.0000E+00 -0.5800E+12
   -1.105028    4.15346  0.0000E+00  0.4369E-06  0.9362E-10  0.6250E-03  0.0000E+00 -0.6793E+12
   -1.147529    4.15372  0.0000E+00  0.4365E-06  0.9561E-10  0.6668E-03  0.0000E+00 -0.5944E+12
   -1.190031    4.15395  0.0000E+00  0.4360E-06  0.9781E-10  0.5953E-03  0.0000E+00 -0.7014E+12
   -1.232532    4.15421  0.0000E+00  0.4354E-06  0.1004E-09  0.5911E-03  0.0000E+00 -0.6856E+12
   -1.275034    4.15447  0.0000E+00  0.4348E-06  0.1036E-09  0.5739E-03  0.0000E+00 -0.7048E+12
   -1.317535    4.15474  0.0000E+00  0.4340E-06  0.1076E-09  0.5523E-03  0.0000E+00 -0.7312E+12
   -1.360036    4.15501  0.0000E+00  0.4331E-06  0.1127E-09  0.5250E-03  0.0000E+00 -0.7720E+12
   -1.402536    4.15531  0.0000E+00  0.4320E-06  0.1194E-09  0.5575E-03  0.0000E+00 -0.7072E+12
   -1.445036    4.15558  0.0000E+00  0.4308E-06  0.1275E-09  0.4410E-03  0.0000E+00 -0.9301E+12
   -1.487536    4.15592  0.0000E+00  0.4295E-06  0.1377E-09  0.4267E-03  0.0000E+00 -0.9392E+12
   -1.530036    4.15628  0.0000E+00  0.4278E-06  0.1539E-09  0.3870E-03  0.0000E+00 -0.1033E+13
   -1.572535    4.15666  0.0000E+00  0.4246E-06  0.1890E-09  0.3146E-03  0.0000E+00 -0.1326E+13
   -1.615034    4.15715  0.0000E+00  0.4141E-06  0.3193E-09  0.2148E-03  0.0000E+00 -0.2033E+13
   -1.657533    4.15792  0.0000E+00  0.2996E-06  0.2045E-08  0.5691E-05  0.0000E+00 -0.8482E+14
   -1.700031    4.18703  0.0000E+00  0.0000E+00  0.0000E+00  0.0000E+00  0.0000E+00  0.0000E+00
