 1 - depth, m
 2 - temperature, C
 3 - salinity, kg/kg
 4 - turbulent kinetic energy, m**2/s**2
 5 - dissipation rate, m**2/s**3
 6 - kinematic heat conductance, m**2/s
 7 - modulus of horizontal velocity, m/s
 8 - Richardson number, n/d
   -0.000000    0.00180  0.0000E+00  0.2657E-03  0.3984E-03  0.8352E-04  0.1942E+00  0.5406E-02
   -0.042501    0.01356  0.0000E+00  0.1484E-03  0.1617E-03  0.1364E-03  0.5314E-01  0.2858E-01
   -0.085003    0.02182  0.0000E+00  0.1024E-03  0.7343E-04  0.1149E-03  0.3378E-01 -0.5025E-01
   -0.127504    0.02903  0.0000E+00  0.7605E-04  0.3547E-04  0.1099E-03  0.2611E-01  0.2684E-01
   -0.170007    0.03560  0.0000E+00  0.5709E-04  0.1498E-04  0.1049E-03  0.2091E-01  0.2488E-01
   -0.212509    0.04244  0.0000E+00  0.4255E-04  0.5994E-05  0.1000E-03  0.1672E-01  0.6031E-01
   -0.255012    0.05036  0.0000E+00  0.3198E-04  0.2555E-05  0.9468E-04  0.1346E-01  0.6040E+00
   -0.297515    0.05929  0.0000E+00  0.2432E-04  0.1103E-05  0.8712E-04  0.1118E-01  0.8516E+01
   -0.340019    0.06904  0.0000E+00  0.1882E-04  0.5853E-06  0.7773E-04  0.9478E-02  0.6822E+02
   -0.382522    0.08000  0.0000E+00  0.1470E-04  0.3752E-06  0.6821E-04  0.8034E-02  0.5055E+02
   -0.425026    0.09389  0.0000E+00  0.1159E-04  0.2533E-06  0.5712E-04  0.6942E-02  0.2108E+04
   -0.467530    0.11846  0.0000E+00  0.9104E-05  0.1750E-06  0.4664E-04  0.5851E-02  0.4773E+02
   -0.510035    0.30399  0.0000E+00  0.7126E-05  0.1226E-06  0.3803E-04  0.4628E-02  0.2687E+03
   -0.552539    0.74208  0.0000E+00  0.5546E-05  0.8684E-07  0.3025E-04  0.3542E-02  0.8466E+03
   -0.595044    1.25777  0.0000E+00  0.4246E-05  0.6129E-07  0.2458E-04  0.2550E-02  0.2149E+04
   -0.637549    1.71116  0.0000E+00  0.3145E-05  0.4228E-07  0.2366E-04  0.1746E-02  0.6246E+05
   -0.680053    2.13396  0.0000E+00  0.2281E-05  0.2877E-07  0.2340E-04  0.1194E-02  0.3076E+07
   -0.722558    2.47335  0.0000E+00  0.1575E-05  0.1882E-07  0.2325E-04  0.7977E-03  0.2258E+09
   -0.765063    2.80203  0.0000E+00  0.1024E-05  0.1157E-07  0.2475E-04  0.5151E-03  0.3599E+11
   -0.807569    3.08334  0.0000E+00  0.6141E-06  0.6585E-08  0.2666E-04  0.3353E-03  0.3741E+14
   -0.850074    3.31518  0.0000E+00  0.3132E-06  0.3120E-08  0.2798E-04  0.2036E-03  0.8185E+13
   -0.892579    3.51537  0.0000E+00  0.1246E-06  0.1035E-08  0.3402E-04  0.9630E-04  0.2471E+13
   -0.935084    3.73255  0.0000E+00  0.5477E-07  0.2141E-09  0.3912E-04  0.3081E-04  0.2045E+14
   -0.977589    3.92175  0.0000E+00  0.4528E-07  0.4548E-10  0.4486E-04  0.7004E-05  0.4705E+13
   -1.020094    4.03404  0.0000E+00  0.4693E-07  0.1997E-10  0.5311E-04  0.1518E-05 -0.1373E+11
   -1.062599    4.05003  0.0000E+00  0.4904E-07  0.1627E-10  0.5940E-04  0.3535E-06 -0.1378E+11
   -1.105103    4.05226  0.0000E+00  0.5072E-07  0.1547E-10  0.6391E-04  0.1276E-06 -0.8877E+10
   -1.147608    4.05391  0.0000E+00  0.5205E-07  0.1522E-10  0.6790E-04  0.6315E-07 -0.5525E+10
   -1.190113    4.05534  0.0000E+00  0.5306E-07  0.1515E-10  0.7029E-04  0.3315E-07 -0.3582E+10
   -1.232617    4.05666  0.0000E+00  0.5389E-07  0.1515E-10  0.7132E-04  0.1673E-07 -0.2871E+10
   -1.275121    4.05787  0.0000E+00  0.5460E-07  0.1524E-10  0.7178E-04  0.8574E-08 -0.2936E+10
   -1.317625    4.05900  0.0000E+00  0.5524E-07  0.1543E-10  0.7439E-04  0.4310E-08 -0.2422E+11
   -1.360129    4.06010  0.0000E+00  0.5581E-07  0.1575E-10  0.7500E-04  0.2231E-08 -0.4054E+11
   -1.402632    4.06121  0.0000E+00  0.5629E-07  0.1623E-10  0.7185E-04  0.1247E-08 -0.7105E+11
   -1.445135    4.06236  0.0000E+00  0.5663E-07  0.1686E-10  0.7031E-04  0.7265E-09 -0.1288E+12
   -1.487638    4.06355  0.0000E+00  0.5680E-07  0.1768E-10  0.6707E-04  0.3876E-09 -0.1966E+12
   -1.530141    4.06480  0.0000E+00  0.5677E-07  0.1898E-10  0.6268E-04  0.1711E-09 -0.3741E+12
   -1.572643    4.06619  0.0000E+00  0.5638E-07  0.2176E-10  0.5524E-04  0.6427E-10 -0.1073E+13
   -1.615145    4.06795  0.0000E+00  0.5418E-07  0.3291E-10  0.2641E-04  0.2735E-10 -0.3910E+13
   -1.657646    4.07184  0.0000E+00  0.3932E-07  0.1144E-09  0.2362E-05  0.7298E-11 -0.6774E+14
   -1.700147    4.11303  0.0000E+00  0.0000E+00  0.0000E+00  0.0000E+00  0.7308E-11  0.0000E+00
