 1 - depth, m
 2 - temperature, C
 3 - salinity, kg/kg
 4 - turbulent kinetic energy, m**2/s**2
 5 - dissipation rate, m**2/s**3
 6 - kinematic heat conductance, m**2/s
 7 - modulus of horizontal velocity, m/s
 8 - Richardson number, n/d
   -0.000000    0.00000  0.0000E+00  0.3189E-13  0.5206E-16  0.1000E-09  0.0000E+00  0.1056E+17
   -0.042497    0.16192  0.0000E+00  0.3189E-13  0.5206E-16  0.1000E-09  0.0000E+00  0.1049E+17
   -0.084995    0.33039  0.0000E+00  0.3189E-13  0.5206E-16  0.1000E-09  0.0000E+00  0.1033E+17
   -0.127493    0.50475  0.0000E+00  0.3189E-13  0.5206E-16  0.1000E-09  0.0000E+00  0.9760E+16
   -0.169992    0.67843  0.0000E+00  0.3189E-13  0.5206E-16  0.1000E-09  0.0000E+00  0.9186E+16
   -0.212491    0.85117  0.0000E+00  0.3189E-13  0.5206E-16  0.1000E-09  0.0000E+00  0.8614E+16
   -0.254990    1.02279  0.0000E+00  0.7083E-13  0.5206E-16  0.1000E-09  0.0000E+00  0.8043E+16
   -0.297490    1.19303  0.0000E+00  0.2426E-12  0.5402E-16  0.1000E-09  0.0000E+00  0.7470E+16
   -0.339989    1.36152  0.0000E+00  0.5551E-12  0.8428E-16  0.1000E-09  0.0000E+00  0.6899E+16
   -0.382489    1.52784  0.0000E+00  0.1090E-11  0.1453E-15  0.1000E-09  0.0000E+00  0.6339E+16
   -0.424990    1.69173  0.0000E+00  0.2000E-11  0.2529E-15  0.1000E-09  0.0000E+00  0.5792E+16
   -0.467490    1.85289  0.0000E+00  0.3557E-11  0.4367E-15  0.1000E-09  0.0000E+00  0.5263E+16
   -0.509991    2.01113  0.0000E+00  0.6237E-11  0.7492E-15  0.1000E-09  0.0000E+00  0.4784E+16
   -0.552492    2.16730  0.0000E+00  0.1086E-10  0.1279E-14  0.1000E-09  0.0000E+00  0.4326E+16
   -0.594993    2.32148  0.0000E+00  0.1880E-10  0.2175E-14  0.1000E-09  0.0000E+00  0.3889E+16
   -0.637494    2.47382  0.0000E+00  0.3271E-10  0.3718E-14  0.1000E-09  0.0000E+00  0.3475E+16
   -0.679995    2.62469  0.0000E+00  0.5701E-10  0.6367E-14  0.1000E-09  0.0000E+00  0.3072E+16
   -0.722496    2.77398  0.0000E+00  0.9957E-10  0.1093E-13  0.1000E-09  0.0000E+00  0.2684E+16
   -0.764998    2.92177  0.0000E+00  0.1743E-09  0.1880E-13  0.1000E-09  0.0000E+00  0.2306E+16
   -0.807499    3.06789  0.0000E+00  0.3048E-09  0.3232E-13  0.1000E-09  0.0000E+00  0.1932E+16
   -0.850001    3.21160  0.0000E+00  0.5271E-09  0.5497E-13  0.1101E-09  0.0000E+00  0.1570E+16
   -0.892502    3.35235  0.0000E+00  0.9079E-09  0.9312E-13  0.2360E-09  0.0000E+00  0.1242E+16
   -0.935004    3.49153  0.0000E+00  0.1547E-08  0.1561E-12  0.5299E-09  0.0000E+00  0.9270E+15
   -0.977505    3.62959  0.0000E+00  0.2619E-08  0.2600E-12  0.1320E-08  0.0000E+00  0.6198E+15
   -1.020006    3.76613  0.0000E+00  0.4398E-08  0.4297E-12  0.4228E-08  0.0000E+00  0.3199E+15
   -1.062507    3.89830  0.0000E+00  0.7229E-08  0.6966E-12  0.3772E-07  0.0000E+00  0.5820E+14
   -1.105009    4.00438  0.0000E+00  0.7775E-08  0.7520E-12  0.3381E-04  0.0000E+00 -0.1579E+12
   -1.147510    4.00493  0.0000E+00  0.8004E-08  0.7793E-12  0.3350E-04  0.0000E+00 -0.1609E+12
   -1.190010    4.00547  0.0000E+00  0.8188E-08  0.8055E-12  0.3367E-04  0.0000E+00 -0.1620E+12
   -1.232511    4.00600  0.0000E+00  0.8357E-08  0.8350E-12  0.3378E-04  0.0000E+00 -0.1666E+12
   -1.275012    4.00654  0.0000E+00  0.8514E-08  0.8694E-12  0.3366E-04  0.0000E+00 -0.1735E+12
   -1.317512    4.00708  0.0000E+00  0.8663E-08  0.9105E-12  0.3338E-04  0.0000E+00 -0.1855E+12
   -1.360012    4.00764  0.0000E+00  0.8802E-08  0.9614E-12  0.3280E-04  0.0000E+00 -0.2031E+12
   -1.402512    4.00824  0.0000E+00  0.8934E-08  0.1027E-11  0.3168E-04  0.0000E+00 -0.2211E+12
   -1.445011    4.00887  0.0000E+00  0.9052E-08  0.1114E-11  0.2961E-04  0.0000E+00 -0.2405E+12
   -1.487510    4.00954  0.0000E+00  0.9156E-08  0.1240E-11  0.2468E-04  0.0000E+00 -0.2986E+12
   -1.530009    4.01035  0.0000E+00  0.9244E-08  0.1442E-11  0.2135E-04  0.0000E+00 -0.4095E+12
   -1.572508    4.01141  0.0000E+00  0.9292E-08  0.1864E-11  0.1880E-04  0.0000E+00 -0.7262E+12
   -1.615006    4.01320  0.0000E+00  0.8964E-08  0.3447E-11  0.7402E-05  0.0000E+00 -0.2376E+13
   -1.657504    4.01835  0.0000E+00  0.6788E-08  0.1112E-10  0.8711E-06  0.0000E+00 -0.2992E+14
   -1.700001    4.05594  0.0000E+00  0.0000E+00  0.0000E+00  0.0000E+00  0.0000E+00  0.0000E+00
