 1 - depth, m
 2 - temperature, C
 3 - salinity, kg/kg
 4 - turbulent kinetic energy, m**2/s**2
 5 - dissipation rate, m**2/s**3
 6 - kinematic heat conductance, m**2/s
 7 - modulus of horizontal velocity, m/s
 8 - Richardson number, n/d
   -0.000000    0.00000  0.0000E+00  0.3189E-13  0.5207E-16  0.1000E-09  0.8648E-55  0.1132E+17
   -0.042496    0.17391  0.0000E+00  0.3189E-13  0.5207E-16  0.1000E-09  0.1869E-55  0.8520E+16
   -0.084992    0.31079  0.0000E+00  0.3189E-13  0.5207E-16  0.1000E-09  0.3863E-56  0.6685E+16
   -0.127489    0.42220  0.0000E+00  0.3189E-13  0.5207E-16  0.1000E-09  0.7615E-57  0.5189E+16
   -0.169986    0.51133  0.0000E+00  0.3189E-13  0.5207E-16  0.1000E-09  0.1426E-57  0.4179E+16
   -0.212484    0.58491  0.0000E+00  0.3189E-13  0.5207E-16  0.1000E-09  0.2378E-58  0.3346E+16
   -0.254982    0.64504  0.0000E+00  0.3189E-13  0.5207E-16  0.1000E-09  0.3695E-59  0.2649E+16
   -0.297480    0.69344  0.0000E+00  0.3189E-13  0.5207E-16  0.1000E-09  0.6487E-60  0.2411E+16
   -0.339978    0.73813  0.0000E+00  0.3189E-13  0.5207E-16  0.1000E-09  0.1438E-60  0.2729E+16
   -0.382477    0.78945  0.0000E+00  0.3274E-13  0.5207E-16  0.1000E-09  0.3207E-61  0.3087E+16
   -0.424976    0.84856  0.0000E+00  0.6348E-13  0.5339E-16  0.1000E-09  0.1005E-61  0.3870E+16
   -0.467475    0.92435  0.0000E+00  0.1651E-12  0.7405E-16  0.1000E-09  0.3029E-62  0.4577E+16
   -0.509974    1.01660  0.0000E+00  0.4384E-12  0.1388E-15  0.1000E-09  0.8185E-63  0.5337E+16
   -0.552473    1.12813  0.0000E+00  0.1081E-11  0.3047E-15  0.1000E-09  0.2054E-63  0.5984E+16
   -0.594973    1.25885  0.0000E+00  0.2553E-11  0.6886E-15  0.1000E-09  0.3931E-64  0.6342E+16
   -0.637473    1.40495  0.0000E+00  0.5969E-11  0.1563E-14  0.1000E-09  0.5398E-65  0.6320E+16
   -0.679973    1.55965  0.0000E+00  0.1385E-10  0.3530E-14  0.1000E-09  0.6873E-66  0.6179E+16
   -0.722473    1.72150  0.0000E+00  0.3197E-10  0.7941E-14  0.1000E-09  0.7344E-67  0.5823E+16
   -0.764973    1.88585  0.0000E+00  0.7352E-10  0.1779E-13  0.1000E-09  0.7164E-68  0.5355E+16
   -0.807473    2.04973  0.0000E+00  0.1677E-09  0.3954E-13  0.1000E-09  0.8107E-69  0.5010E+16
   -0.849973    2.21722  0.0000E+00  0.3751E-09  0.8624E-13  0.1061E-09  0.9762E-70  0.4687E+16
   -0.892473    2.39034  0.0000E+00  0.8314E-09  0.1864E-12  0.1563E-09  0.1204E-70  0.4498E+16
   -0.934973    2.57717  0.0000E+00  0.1810E-08  0.3957E-12  0.2925E-09  0.1776E-71  0.4378E+16
   -0.977473    2.78800  0.0000E+00  0.3893E-08  0.8305E-12  0.6484E-09  0.2463E-72  0.4087E+16
   -1.019973    3.02838  0.0000E+00  0.8260E-08  0.1720E-11  0.1582E-08  0.4065E-73  0.3547E+16
   -1.062472    3.30893  0.0000E+00  0.1725E-07  0.3511E-11  0.5816E-08  0.6428E-74  0.2506E+16
   -1.104972    3.63866  0.0000E+00  0.2958E-07  0.6025E-11  0.1152E-04  0.1294E-74  0.1108E+16
   -1.147472    3.90788  0.0000E+00  0.3674E-07  0.7512E-11  0.4470E-04  0.3098E-75  0.2219E+15
   -1.189971    4.03261  0.0000E+00  0.3814E-07  0.7847E-11  0.6764E-04  0.4111E-76 -0.3747E+12
   -1.232470    4.03526  0.0000E+00  0.3896E-07  0.8093E-11  0.6866E-04  0.4727E-77 -0.8071E+12
   -1.274969    4.03632  0.0000E+00  0.3970E-07  0.8369E-11  0.6889E-04  0.2690E-77 -0.8601E+12
   -1.317468    4.03743  0.0000E+00  0.4035E-07  0.8689E-11  0.6857E-04  0.1517E-77 -0.8924E+12
   -1.359967    4.03855  0.0000E+00  0.4094E-07  0.9078E-11  0.6754E-04  0.8516E-78 -0.9398E+12
   -1.402465    4.03970  0.0000E+00  0.4147E-07  0.9572E-11  0.6588E-04  0.4995E-78 -0.9941E+12
   -1.444963    4.04090  0.0000E+00  0.4186E-07  0.1015E-10  0.6371E-04  0.2996E-78 -0.1051E+13
   -1.487461    4.04213  0.0000E+00  0.4212E-07  0.1086E-10  0.6065E-04  0.1597E-78 -0.1136E+13
   -1.529959    4.04343  0.0000E+00  0.4224E-07  0.1192E-10  0.5600E-04  0.6711E-79 -0.1330E+13
   -1.572456    4.04491  0.0000E+00  0.4214E-07  0.1415E-10  0.4855E-04  0.2242E-79 -0.1903E+13
   -1.614953    4.04697  0.0000E+00  0.4090E-07  0.2308E-10  0.2331E-04  0.8505E-80 -0.4737E+13
   -1.657449    4.05186  0.0000E+00  0.3117E-07  0.8465E-10  0.2272E-05  0.1974E-80 -0.7411E+14
   -1.699945    4.10380  0.0000E+00  0.0000E+00  0.0000E+00  0.0000E+00  0.2169E-80  0.0000E+00
