 1 - depth, m
 2 - temperature, C
 3 - salinity, kg/kg
 4 - turbulent kinetic energy, m**2/s**2
 5 - dissipation rate, m**2/s**3
 6 - kinematic heat conductance, m**2/s
 7 - modulus of horizontal velocity, m/s
 8 - Richardson number, n/d
   -0.000000    0.00000  0.0000E+00  0.1114E-10  0.5144E-14  0.1000E-09  0.0000E+00  0.2127E+17
   -0.042497    0.33396  0.0000E+00  0.2362E-10  0.4318E-14  0.1000E-09  0.0000E+00  0.1889E+17
   -0.084994    0.66052  0.0000E+00  0.4696E-10  0.5210E-14  0.1000E-09  0.0000E+00  0.1662E+17
   -0.127491    0.97873  0.0000E+00  0.8359E-10  0.7388E-14  0.1000E-09  0.0000E+00  0.1429E+17
   -0.169989    1.28381  0.0000E+00  0.1390E-09  0.1105E-13  0.1000E-09  0.0000E+00  0.1221E+17
   -0.212487    1.57636  0.0000E+00  0.2227E-09  0.1672E-13  0.1000E-09  0.0000E+00  0.1037E+17
   -0.254986    1.85749  0.0000E+00  0.3492E-09  0.2530E-13  0.1000E-09  0.0000E+00  0.8730E+16
   -0.297485    2.12823  0.0000E+00  0.5408E-09  0.3813E-13  0.1000E-09  0.0000E+00  0.7252E+16
   -0.339984    2.38887  0.0000E+00  0.8243E-09  0.5681E-13  0.1000E-09  0.0000E+00  0.5918E+16
   -0.382483    2.63953  0.0000E+00  0.1243E-08  0.8390E-13  0.1004E-09  0.0000E+00  0.4736E+16
   -0.424983    2.88140  0.0000E+00  0.1856E-08  0.1227E-12  0.1279E-09  0.0000E+00  0.3668E+16
   -0.467483    3.11460  0.0000E+00  0.2746E-08  0.1779E-12  0.2089E-09  0.0000E+00  0.2704E+16
   -0.509983    3.33920  0.0000E+00  0.4036E-08  0.2563E-12  0.4284E-09  0.0000E+00  0.1844E+16
   -0.552483    3.55592  0.0000E+00  0.5901E-08  0.3674E-12  0.1077E-08  0.0000E+00  0.1050E+16
   -0.594983    3.76018  0.0000E+00  0.8568E-08  0.5232E-12  0.4973E-08  0.0000E+00  0.3679E+15
   -0.637484    3.94083  0.0000E+00  0.9587E-08  0.5769E-12  0.3409E-04  0.0000E+00  0.4136E+14
   -0.679984    3.99268  0.0000E+00  0.9791E-08  0.5895E-12  0.5302E-04  0.0000E+00 -0.4369E+11
   -0.722485    3.99315  0.0000E+00  0.9932E-08  0.5997E-12  0.5537E-04  0.0000E+00 -0.4598E+11
   -0.764985    3.99360  0.0000E+00  0.1007E-07  0.6111E-12  0.5673E-04  0.0000E+00 -0.4911E+11
   -0.807486    3.99404  0.0000E+00  0.1021E-07  0.6239E-12  0.5784E-04  0.0000E+00 -0.5202E+11
   -0.849987    3.99447  0.0000E+00  0.1035E-07  0.6380E-12  0.5873E-04  0.0000E+00 -0.5495E+11
   -0.892488    3.99490  0.0000E+00  0.1049E-07  0.6535E-12  0.5947E-04  0.0000E+00 -0.5780E+11
   -0.934988    3.99533  0.0000E+00  0.1063E-07  0.6702E-12  0.5994E-04  0.0000E+00 -0.6043E+11
   -0.977489    3.99575  0.0000E+00  0.1076E-07  0.6883E-12  0.6022E-04  0.0000E+00 -0.6326E+11
   -1.019990    3.99617  0.0000E+00  0.1088E-07  0.7078E-12  0.6018E-04  0.0000E+00 -0.6602E+11
   -1.062490    3.99659  0.0000E+00  0.1100E-07  0.7287E-12  0.5996E-04  0.0000E+00 -0.6897E+11
   -1.104991    3.99701  0.0000E+00  0.1111E-07  0.7513E-12  0.5949E-04  0.0000E+00 -0.7173E+11
   -1.147491    3.99743  0.0000E+00  0.1121E-07  0.7752E-12  0.5887E-04  0.0000E+00 -0.7425E+11
   -1.189991    3.99785  0.0000E+00  0.1130E-07  0.8007E-12  0.5804E-04  0.0000E+00 -0.7756E+11
   -1.232491    3.99827  0.0000E+00  0.1138E-07  0.8297E-12  0.5711E-04  0.0000E+00 -0.8309E+11
   -1.274991    3.99871  0.0000E+00  0.1146E-07  0.8638E-12  0.5588E-04  0.0000E+00 -0.8987E+11
   -1.317491    3.99916  0.0000E+00  0.1153E-07  0.9050E-12  0.5431E-04  0.0000E+00 -0.9811E+11
   -1.359990    3.99964  0.0000E+00  0.1160E-07  0.9568E-12  0.5226E-04  0.0000E+00 -0.1095E+12
   -1.402489    4.00015  0.0000E+00  0.1166E-07  0.1025E-11  0.4959E-04  0.0000E+00 -0.1221E+12
   -1.444988    4.00071  0.0000E+00  0.1171E-07  0.1108E-11  0.4622E-04  0.0000E+00 -0.1351E+12
   -1.487486    4.00130  0.0000E+00  0.1174E-07  0.1217E-11  0.4169E-04  0.0000E+00 -0.1566E+12
   -1.529985    4.00196  0.0000E+00  0.1175E-07  0.1393E-11  0.3635E-04  0.0000E+00 -0.2106E+12
   -1.572483    4.00281  0.0000E+00  0.1172E-07  0.1777E-11  0.3002E-04  0.0000E+00 -0.3840E+12
   -1.614980    4.00425  0.0000E+00  0.1133E-07  0.3454E-11  0.1073E-04  0.0000E+00 -0.1489E+13
   -1.657477    4.00898  0.0000E+00  0.8649E-08  0.1411E-10  0.1041E-05  0.0000E+00 -0.2744E+14
   -1.699974    4.04962  0.0000E+00  0.0000E+00  0.0000E+00  0.0000E+00  0.0000E+00  0.0000E+00
