 1 - depth, m
 2 - temperature, C
 3 - salinity, kg/kg
 4 - turbulent kinetic energy, m**2/s**2
 5 - dissipation rate, m**2/s**3
 6 - kinematic heat conductance, m**2/s
 7 - modulus of horizontal velocity, m/s
 8 - Richardson number, n/d
   -0.000000    0.00000  0.0000E+00  0.8487E-11  0.3612E-14  0.1000E-09  0.0000E+00  0.2014E+17
   -0.042497    0.31545  0.0000E+00  0.1738E-10  0.3091E-14  0.1000E-09  0.0000E+00  0.1868E+17
   -0.084994    0.63628  0.0000E+00  0.3433E-10  0.3819E-14  0.1000E-09  0.0000E+00  0.1706E+17
   -0.127492    0.96074  0.0000E+00  0.6160E-10  0.5573E-14  0.1000E-09  0.0000E+00  0.1485E+17
   -0.169991    1.27620  0.0000E+00  0.1042E-09  0.8598E-14  0.1000E-09  0.0000E+00  0.1275E+17
   -0.212489    1.58152  0.0000E+00  0.1708E-09  0.1346E-13  0.1000E-09  0.0000E+00  0.1078E+17
   -0.254988    1.87536  0.0000E+00  0.2754E-09  0.2113E-13  0.1000E-09  0.0000E+00  0.8947E+16
   -0.297487    2.15620  0.0000E+00  0.4403E-09  0.3314E-13  0.1000E-09  0.0000E+00  0.7283E+16
   -0.339986    2.42286  0.0000E+00  0.6950E-09  0.5149E-13  0.1000E-09  0.0000E+00  0.5799E+16
   -0.382486    2.67452  0.0000E+00  0.1089E-08  0.7954E-13  0.1000E-09  0.0000E+00  0.4487E+16
   -0.424986    2.90986  0.0000E+00  0.1694E-08  0.1220E-12  0.1140E-09  0.0000E+00  0.3368E+16
   -0.467486    3.12881  0.0000E+00  0.2618E-08  0.1860E-12  0.2421E-09  0.0000E+00  0.2418E+16
   -0.509986    3.33034  0.0000E+00  0.4030E-08  0.2824E-12  0.5298E-09  0.0000E+00  0.1679E+16
   -0.552487    3.51957  0.0000E+00  0.6186E-08  0.4276E-12  0.1273E-08  0.0000E+00  0.1060E+16
   -0.594988    3.69745  0.0000E+00  0.9462E-08  0.6454E-12  0.3792E-08  0.0000E+00  0.5388E+15
   -0.637488    3.86402  0.0000E+00  0.1441E-07  0.9711E-12  0.2700E-07  0.0000E+00  0.1154E+15
   -0.679989    4.00343  0.0000E+00  0.1473E-07  0.9935E-12  0.8068E-04  0.0000E+00 -0.7809E+11
   -0.722490    4.00372  0.0000E+00  0.1489E-07  0.1006E-11  0.7856E-04  0.0000E+00 -0.8233E+11
   -0.764991    4.00402  0.0000E+00  0.1505E-07  0.1021E-11  0.7883E-04  0.0000E+00 -0.8465E+11
   -0.807492    4.00432  0.0000E+00  0.1521E-07  0.1038E-11  0.7916E-04  0.0000E+00 -0.8655E+11
   -0.849993    4.00462  0.0000E+00  0.1537E-07  0.1056E-11  0.7937E-04  0.0000E+00 -0.8840E+11
   -0.892494    4.00493  0.0000E+00  0.1553E-07  0.1077E-11  0.7946E-04  0.0000E+00 -0.9070E+11
   -0.934995    4.00524  0.0000E+00  0.1568E-07  0.1099E-11  0.7941E-04  0.0000E+00 -0.9295E+11
   -0.977496    4.00555  0.0000E+00  0.1583E-07  0.1123E-11  0.7919E-04  0.0000E+00 -0.9557E+11
   -1.019997    4.00586  0.0000E+00  0.1597E-07  0.1149E-11  0.7879E-04  0.0000E+00 -0.9786E+11
   -1.062498    4.00618  0.0000E+00  0.1609E-07  0.1178E-11  0.7822E-04  0.0000E+00 -0.1004E+12
   -1.104999    4.00650  0.0000E+00  0.1621E-07  0.1208E-11  0.7750E-04  0.0000E+00 -0.1025E+12
   -1.147500    4.00682  0.0000E+00  0.1632E-07  0.1241E-11  0.7664E-04  0.0000E+00 -0.1042E+12
   -1.190000    4.00715  0.0000E+00  0.1641E-07  0.1276E-11  0.7552E-04  0.0000E+00 -0.1071E+12
   -1.232501    4.00747  0.0000E+00  0.1650E-07  0.1317E-11  0.7416E-04  0.0000E+00 -0.1134E+12
   -1.275001    4.00781  0.0000E+00  0.1657E-07  0.1364E-11  0.7248E-04  0.0000E+00 -0.1210E+12
   -1.317501    4.00817  0.0000E+00  0.1664E-07  0.1423E-11  0.7038E-04  0.0000E+00 -0.1297E+12
   -1.360000    4.00854  0.0000E+00  0.1670E-07  0.1496E-11  0.6773E-04  0.0000E+00 -0.1418E+12
   -1.402500    4.00895  0.0000E+00  0.1676E-07  0.1593E-11  0.6449E-04  0.0000E+00 -0.1545E+12
   -1.444999    4.00938  0.0000E+00  0.1679E-07  0.1710E-11  0.6087E-04  0.0000E+00 -0.1654E+12
   -1.487498    4.00983  0.0000E+00  0.1680E-07  0.1855E-11  0.5653E-04  0.0000E+00 -0.1820E+12
   -1.529996    4.01032  0.0000E+00  0.1679E-07  0.2079E-11  0.5091E-04  0.0000E+00 -0.2285E+12
   -1.572494    4.01092  0.0000E+00  0.1673E-07  0.2557E-11  0.4322E-04  0.0000E+00 -0.3819E+12
   -1.614992    4.01189  0.0000E+00  0.1625E-07  0.4647E-11  0.1692E-04  0.0000E+00 -0.1217E+13
   -1.657490    4.01477  0.0000E+00  0.1240E-07  0.2041E-10  0.1367E-05  0.0000E+00 -0.2395E+14
   -1.699987    4.04852  0.0000E+00  0.0000E+00  0.0000E+00  0.0000E+00  0.0000E+00  0.0000E+00
