 1 - depth, m
 2 - temperature, C
 3 - salinity, kg/kg
 4 - turbulent kinetic energy, m**2/s**2
 5 - dissipation rate, m**2/s**3
 6 - kinematic heat conductance, m**2/s
 7 - modulus of horizontal velocity, m/s
 8 - Richardson number, n/d
   -0.000000    0.00000  0.0000E+00  0.3189E-13  0.5206E-16  0.1000E-09  0.0000E+00  0.1178E+17
   -0.042497    0.18108  0.0000E+00  0.3189E-13  0.5206E-16  0.1000E-09  0.0000E+00  0.1160E+17
   -0.084995    0.36885  0.0000E+00  0.3189E-13  0.5206E-16  0.1000E-09  0.0000E+00  0.1130E+17
   -0.127493    0.56225  0.0000E+00  0.3189E-13  0.5206E-16  0.1000E-09  0.0000E+00  0.1057E+17
   -0.169992    0.75440  0.0000E+00  0.3189E-13  0.5206E-16  0.1000E-09  0.0000E+00  0.9841E+16
   -0.212491    0.94473  0.0000E+00  0.3189E-13  0.5206E-16  0.1000E-09  0.0000E+00  0.9108E+16
   -0.254990    1.13278  0.0000E+00  0.3189E-13  0.5206E-16  0.1000E-09  0.0000E+00  0.8377E+16
   -0.297489    1.31802  0.0000E+00  0.3189E-13  0.5206E-16  0.1000E-09  0.0000E+00  0.7641E+16
   -0.339989    1.49956  0.0000E+00  0.3189E-13  0.5206E-16  0.1000E-09  0.0000E+00  0.6907E+16
   -0.382489    1.67645  0.0000E+00  0.3189E-13  0.5206E-16  0.1000E-09  0.0000E+00  0.6198E+16
   -0.424989    1.84809  0.0000E+00  0.3189E-13  0.5206E-16  0.1000E-09  0.0000E+00  0.5513E+16
   -0.467490    2.01377  0.0000E+00  0.3189E-13  0.5206E-16  0.1000E-09  0.0000E+00  0.4867E+16
   -0.509991    2.17301  0.0000E+00  0.3189E-13  0.5206E-16  0.1000E-09  0.0000E+00  0.4301E+16
   -0.552491    2.32678  0.0000E+00  0.3189E-13  0.5206E-16  0.1000E-09  0.0000E+00  0.3776E+16
   -0.594992    2.47501  0.0000E+00  0.3189E-13  0.5206E-16  0.1000E-09  0.0000E+00  0.3293E+16
   -0.637493    2.61767  0.0000E+00  0.3189E-13  0.5206E-16  0.1000E-09  0.0000E+00  0.2854E+16
   -0.679995    2.75491  0.0000E+00  0.1075E-12  0.5206E-16  0.1000E-09  0.0000E+00  0.2444E+16
   -0.722496    2.88630  0.0000E+00  0.3204E-12  0.7143E-16  0.1000E-09  0.0000E+00  0.2067E+16
   -0.764997    3.01142  0.0000E+00  0.7351E-12  0.1307E-15  0.1000E-09  0.0000E+00  0.1719E+16
   -0.807499    3.12955  0.0000E+00  0.1524E-11  0.2512E-15  0.1000E-09  0.0000E+00  0.1402E+16
   -0.850000    3.23976  0.0000E+00  0.3006E-11  0.4786E-15  0.1000E-09  0.0000E+00  0.1118E+16
   -0.892502    3.34124  0.0000E+00  0.5824E-11  0.9059E-15  0.1000E-09  0.0000E+00  0.9026E+15
   -0.935003    3.43679  0.0000E+00  0.1110E-10  0.1692E-14  0.1000E-09  0.0000E+00  0.7272E+15
   -0.977504    3.52819  0.0000E+00  0.2097E-10  0.3137E-14  0.1000E-09  0.0000E+00  0.5698E+15
   -1.020006    3.61535  0.0000E+00  0.3931E-10  0.5771E-14  0.1000E-09  0.0000E+00  0.4254E+15
   -1.062507    3.69720  0.0000E+00  0.7317E-10  0.1054E-13  0.1101E-09  0.0000E+00  0.3010E+15
   -1.105008    3.77343  0.0000E+00  0.1354E-09  0.1915E-13  0.3093E-09  0.0000E+00  0.1945E+15
   -1.147509    3.84294  0.0000E+00  0.2470E-09  0.3433E-13  0.9877E-09  0.0000E+00  0.1093E+15
   -1.190010    3.90487  0.0000E+00  0.4467E-09  0.6102E-13  0.4185E-08  0.0000E+00  0.4616E+14
   -1.232510    3.95867  0.0000E+00  0.8041E-09  0.1083E-12  0.6289E-07  0.0000E+00  0.5797E+13
   -1.275011    3.99358  0.0000E+00  0.1219E-08  0.1654E-12  0.2853E-05  0.0000E+00 -0.2973E+12
   -1.317511    3.99584  0.0000E+00  0.1513E-08  0.2170E-12  0.3500E-05  0.0000E+00 -0.3408E+12
   -1.360011    3.99790  0.0000E+00  0.1803E-08  0.2819E-12  0.3969E-05  0.0000E+00 -0.4131E+12
   -1.402511    3.99999  0.0000E+00  0.2096E-08  0.3684E-12  0.4000E-05  0.0000E+00 -0.5147E+12
   -1.445010    4.00221  0.0000E+00  0.2375E-08  0.4823E-12  0.3602E-05  0.0000E+00 -0.6539E+12
   -1.487510    4.00465  0.0000E+00  0.2676E-08  0.6549E-12  0.3127E-05  0.0000E+00 -0.9035E+12
   -1.530008    4.00756  0.0000E+00  0.3110E-08  0.9922E-12  0.2946E-05  0.0000E+00 -0.1593E+13
   -1.572507    4.01190  0.0000E+00  0.3831E-08  0.1794E-11  0.3191E-05  0.0000E+00 -0.3924E+13
   -1.615005    4.02031  0.0000E+00  0.4725E-08  0.4020E-11  0.1900E-05  0.0000E+00 -0.1216E+14
   -1.657503    4.03836  0.0000E+00  0.4940E-08  0.1016E-10  0.6900E-06  0.0000E+00 -0.6382E+14
   -1.700000    4.09055  0.0000E+00  0.0000E+00  0.0000E+00  0.0000E+00  0.0000E+00  0.0000E+00
