 1 - depth, m
 2 - temperature, C
 3 - salinity, kg/kg
 4 - turbulent kinetic energy, m**2/s**2
 5 - dissipation rate, m**2/s**3
 6 - kinematic heat conductance, m**2/s
 7 - modulus of horizontal velocity, m/s
 8 - Richardson number, n/d
   -0.000000    8.19599  0.0000E+00  0.4463E-02  0.9155E-01  0.2350E-03  0.1163E+01  0.1450E-03
   -0.042498    8.32852  0.0000E+00  0.2253E-02  0.5682E-01  0.6217E-03  0.2363E+00  0.3748E+00
   -0.084997    8.39299  0.0000E+00  0.1459E-02  0.1683E-01  0.8555E-03  0.1295E+00  0.1831E+02
   -0.127496    8.41073  0.0000E+00  0.1108E-02  0.1051E-01  0.7751E-03  0.9945E-01 -0.1915E+00
   -0.169995    8.41938  0.0000E+00  0.8907E-03  0.7678E-02  0.7200E-03  0.8205E-01  0.1106E+00
   -0.212495    8.42689  0.0000E+00  0.7314E-03  0.5972E-02  0.6869E-03  0.6777E-01 -0.2254E+00
   -0.254995    8.43186  0.0000E+00  0.6077E-03  0.4834E-02  0.6702E-03  0.5745E-01 -0.2287E-01
   -0.297496    8.43504  0.0000E+00  0.5110E-03  0.3891E-02  0.6494E-03  0.5127E-01  0.9931E+00
   -0.339996    8.43726  0.0000E+00  0.4347E-03  0.3084E-02  0.6399E-03  0.4747E-01  0.3131E+02
   -0.382497    8.43969  0.0000E+00  0.3768E-03  0.2447E-02  0.6370E-03  0.4287E-01 -0.1155E+00
   -0.424998    8.44154  0.0000E+00  0.3303E-03  0.1906E-02  0.6227E-03  0.4021E-01 -0.1013E+01
   -0.467500    8.44367  0.0000E+00  0.2922E-03  0.1464E-02  0.6186E-03  0.3657E-01  0.4043E+01
   -0.510001    8.44559  0.0000E+00  0.2611E-03  0.1111E-02  0.6160E-03  0.3309E-01  0.2524E+01
   -0.552503    8.44744  0.0000E+00  0.2349E-03  0.8314E-03  0.6121E-03  0.2994E-01  0.2035E+02
   -0.595005    8.44929  0.0000E+00  0.2126E-03  0.6144E-03  0.6114E-03  0.2679E-01  0.4621E+01
   -0.637507    8.45130  0.0000E+00  0.1932E-03  0.4466E-03  0.6161E-03  0.2394E-01  0.7550E+02
   -0.680009    8.45286  0.0000E+00  0.1765E-03  0.3204E-03  0.6210E-03  0.2180E-01 -0.7439E+01
   -0.722511    8.45453  0.0000E+00  0.1617E-03  0.2286E-03  0.6263E-03  0.1989E-01 -0.4716E+00
   -0.765014    8.45604  0.0000E+00  0.1486E-03  0.1629E-03  0.6337E-03  0.1833E-01  0.8593E+03
   -0.807516    8.45704  0.0000E+00  0.1369E-03  0.1165E-03  0.6364E-03  0.1716E-01  0.4047E+03
   -0.850018    8.45818  0.0000E+00  0.1265E-03  0.8452E-04  0.6374E-03  0.1608E-01  0.6048E+04
   -0.892520    8.45937  0.0000E+00  0.1170E-03  0.6216E-04  0.6384E-03  0.1507E-01 -0.1896E+04
   -0.935023    8.46035  0.0000E+00  0.1085E-03  0.4663E-04  0.6384E-03  0.1421E-01  0.2265E+05
   -0.977525    8.46154  0.0000E+00  0.1010E-03  0.3563E-04  0.6376E-03  0.1332E-01 -0.4179E+05
   -1.020027    8.46261  0.0000E+00  0.9422E-04  0.2730E-04  0.6365E-03  0.1256E-01  0.2571E+05
   -1.062529    8.46375  0.0000E+00  0.8814E-04  0.2049E-04  0.6339E-03  0.1176E-01  0.4013E+03
   -1.105031    8.46478  0.0000E+00  0.8265E-04  0.1501E-04  0.6285E-03  0.1107E-01  0.2638E+04
   -1.147533    8.46592  0.0000E+00  0.7783E-04  0.1076E-04  0.6192E-03  0.1035E-01  0.2359E+03
   -1.190035    8.46725  0.0000E+00  0.7354E-04  0.7328E-05  0.6104E-03  0.9461E-02  0.1135E+03
   -1.232537    8.46881  0.0000E+00  0.6960E-04  0.4844E-05  0.6058E-03  0.8574E-02  0.8904E+02
   -1.275038    8.47004  0.0000E+00  0.6589E-04  0.3282E-05  0.5978E-03  0.7840E-02  0.1097E+04
   -1.317539    8.47138  0.0000E+00  0.6232E-04  0.2300E-05  0.5844E-03  0.7164E-02 -0.8660E+03
   -1.360040    8.47270  0.0000E+00  0.5881E-04  0.1729E-05  0.5657E-03  0.6543E-02 -0.7164E+05
   -1.402541    8.47395  0.0000E+00  0.5521E-04  0.1597E-05  0.5355E-03  0.6001E-02 -0.3998E+07
   -1.445041    8.47508  0.0000E+00  0.5178E-04  0.1713E-05  0.4975E-03  0.5481E-02 -0.6624E+06
   -1.487541    8.47657  0.0000E+00  0.4844E-04  0.2034E-05  0.4526E-03  0.4860E-02  0.4741E+08
   -1.530041    8.47837  0.0000E+00  0.4476E-04  0.2668E-05  0.4036E-03  0.4064E-02 -0.1413E+08
   -1.572540    8.48060  0.0000E+00  0.4033E-04  0.4185E-05  0.3513E-03  0.3314E-02  0.7830E+11
   -1.615039    8.48216  0.0000E+00  0.3249E-04  0.9430E-05  0.2187E-03  0.2844E-02 -0.3960E+11
   -1.657538    8.48552  0.0000E+00  0.2209E-04  0.2329E-04  0.1366E-03  0.2223E-02 -0.3545E+11
   -1.700036    8.50215  0.0000E+00  0.0000E+00  0.0000E+00  0.0000E+00  0.3362E-02  0.0000E+00
