 1 - depth, m
 2 - temperature, C
 3 - salinity, kg/kg
 4 - turbulent kinetic energy, m**2/s**2
 5 - dissipation rate, m**2/s**3
 6 - kinematic heat conductance, m**2/s
 7 - modulus of horizontal velocity, m/s
 8 - Richardson number, n/d
   -0.000000    0.00000  0.0000E+00  0.3189E-13  0.5207E-16  0.1000E-09  0.0000E+00  0.1240E+17
   -0.042497    0.19084  0.0000E+00  0.3189E-13  0.5207E-16  0.1000E-09  0.0000E+00  0.1213E+17
   -0.084995    0.38803  0.0000E+00  0.3189E-13  0.5207E-16  0.1000E-09  0.0000E+00  0.1174E+17
   -0.127493    0.59049  0.0000E+00  0.3189E-13  0.5207E-16  0.1000E-09  0.0000E+00  0.1070E+17
   -0.169991    0.78679  0.0000E+00  0.1219E-12  0.5207E-16  0.1000E-09  0.0000E+00  0.9706E+16
   -0.212490    0.97656  0.0000E+00  0.3460E-12  0.6387E-16  0.1000E-09  0.0000E+00  0.8743E+16
   -0.254989    1.15896  0.0000E+00  0.7432E-12  0.1041E-15  0.1000E-09  0.0000E+00  0.7819E+16
   -0.297488    1.33321  0.0000E+00  0.1427E-11  0.1810E-15  0.1000E-09  0.0000E+00  0.6993E+16
   -0.339988    1.49986  0.0000E+00  0.2587E-11  0.3145E-15  0.1000E-09  0.0000E+00  0.6285E+16
   -0.382488    1.66026  0.0000E+00  0.4576E-11  0.5426E-15  0.1000E-09  0.0000E+00  0.5629E+16
   -0.424988    1.81436  0.0000E+00  0.7971E-11  0.9274E-15  0.1000E-09  0.0000E+00  0.5084E+16
   -0.467488    1.96400  0.0000E+00  0.1375E-10  0.1573E-14  0.1000E-09  0.0000E+00  0.4578E+16
   -0.509989    2.10927  0.0000E+00  0.2360E-10  0.2657E-14  0.1000E-09  0.0000E+00  0.4219E+16
   -0.552489    2.25427  0.0000E+00  0.4040E-10  0.4477E-14  0.1000E-09  0.0000E+00  0.3889E+16
   -0.594990    2.40000  0.0000E+00  0.6895E-10  0.7524E-14  0.1000E-09  0.0000E+00  0.3567E+16
   -0.637491    2.54690  0.0000E+00  0.1185E-09  0.1273E-13  0.1000E-09  0.0000E+00  0.3248E+16
   -0.679992    2.69551  0.0000E+00  0.2041E-09  0.2160E-13  0.1000E-09  0.0000E+00  0.2928E+16
   -0.722493    2.84634  0.0000E+00  0.3529E-09  0.3679E-13  0.1000E-09  0.0000E+00  0.2604E+16
   -0.764994    3.00011  0.0000E+00  0.6122E-09  0.6287E-13  0.1008E-09  0.0000E+00  0.2270E+16
   -0.807496    3.15754  0.0000E+00  0.1062E-08  0.1075E-12  0.1772E-09  0.0000E+00  0.1912E+16
   -0.849997    3.31878  0.0000E+00  0.1825E-08  0.1820E-12  0.3763E-09  0.0000E+00  0.1527E+16
   -0.892498    3.48391  0.0000E+00  0.3125E-08  0.3072E-12  0.8654E-09  0.0000E+00  0.1124E+16
   -0.935000    3.65482  0.0000E+00  0.5296E-08  0.5135E-12  0.2423E-08  0.0000E+00  0.6740E+15
   -0.977501    3.83065  0.0000E+00  0.8875E-08  0.8493E-12  0.1454E-07  0.0000E+00  0.1894E+15
   -1.020002    3.99869  0.0000E+00  0.9495E-08  0.9119E-12  0.3652E-04  0.0000E+00 -0.1433E+12
   -1.062503    3.99944  0.0000E+00  0.9787E-08  0.9465E-12  0.3890E-04  0.0000E+00 -0.1448E+12
   -1.105004    4.00014  0.0000E+00  0.1005E-07  0.9818E-12  0.4005E-04  0.0000E+00 -0.1497E+12
   -1.147505    4.00083  0.0000E+00  0.1028E-07  0.1019E-11  0.4050E-04  0.0000E+00 -0.1562E+12
   -1.190005    4.00151  0.0000E+00  0.1049E-07  0.1058E-11  0.4069E-04  0.0000E+00 -0.1655E+12
   -1.232506    4.00219  0.0000E+00  0.1069E-07  0.1102E-11  0.4084E-04  0.0000E+00 -0.1818E+12
   -1.275006    4.00292  0.0000E+00  0.1088E-07  0.1154E-11  0.4075E-04  0.0000E+00 -0.2002E+12
   -1.317506    4.00368  0.0000E+00  0.1106E-07  0.1215E-11  0.4017E-04  0.0000E+00 -0.2172E+12
   -1.360006    4.00447  0.0000E+00  0.1124E-07  0.1291E-11  0.3921E-04  0.0000E+00 -0.2400E+12
   -1.402506    4.00530  0.0000E+00  0.1140E-07  0.1389E-11  0.3770E-04  0.0000E+00 -0.2657E+12
   -1.445005    4.00618  0.0000E+00  0.1154E-07  0.1504E-11  0.3574E-04  0.0000E+00 -0.2924E+12
   -1.487504    4.00710  0.0000E+00  0.1164E-07  0.1646E-11  0.3327E-04  0.0000E+00 -0.3311E+12
   -1.530003    4.00810  0.0000E+00  0.1172E-07  0.1865E-11  0.3009E-04  0.0000E+00 -0.4200E+12
   -1.572501    4.00931  0.0000E+00  0.1175E-07  0.2341E-11  0.2545E-04  0.0000E+00 -0.6975E+12
   -1.614999    4.01118  0.0000E+00  0.1144E-07  0.4345E-11  0.9790E-05  0.0000E+00 -0.2352E+13
   -1.657497    4.01665  0.0000E+00  0.8981E-08  0.1554E-10  0.1120E-05  0.0000E+00 -0.3468E+14
   -1.699994    4.05945  0.0000E+00  0.0000E+00  0.0000E+00  0.0000E+00  0.0000E+00  0.0000E+00
