 1 - depth, m
 2 - temperature, C
 3 - salinity, kg/kg
 4 - turbulent kinetic energy, m**2/s**2
 5 - dissipation rate, m**2/s**3
 6 - kinematic heat conductance, m**2/s
 7 - modulus of horizontal velocity, m/s
 8 - Richardson number, n/d
   -0.000000    0.00000  0.0000E+00  0.2820E-11  0.1063E-14  0.1000E-09  0.0000E+00  0.2400E+17
   -0.042497    0.37930  0.0000E+00  0.5488E-11  0.1199E-14  0.1000E-09  0.0000E+00  0.1939E+17
   -0.084995    0.71983  0.0000E+00  0.1136E-10  0.1974E-14  0.1000E-09  0.0000E+00  0.1570E+17
   -0.127492    1.02599  0.0000E+00  0.2264E-10  0.3624E-14  0.1000E-09  0.0000E+00  0.1273E+17
   -0.169991    1.30107  0.0000E+00  0.4400E-10  0.6782E-14  0.1000E-09  0.0000E+00  0.1033E+17
   -0.212489    1.54823  0.0000E+00  0.8440E-10  0.1269E-13  0.1000E-09  0.0000E+00  0.8339E+16
   -0.254988    1.76855  0.0000E+00  0.1609E-09  0.2370E-13  0.1000E-09  0.0000E+00  0.6694E+16
   -0.297487    1.96341  0.0000E+00  0.3053E-09  0.4410E-13  0.1000E-09  0.0000E+00  0.5486E+16
   -0.339987    2.13895  0.0000E+00  0.5715E-09  0.8098E-13  0.1001E-09  0.0000E+00  0.4684E+16
   -0.382487    2.30379  0.0000E+00  0.1062E-08  0.1476E-12  0.1269E-09  0.0000E+00  0.4056E+16
   -0.424987    2.46134  0.0000E+00  0.1953E-08  0.2664E-12  0.2264E-09  0.0000E+00  0.3699E+16
   -0.467487    2.62134  0.0000E+00  0.3562E-08  0.4767E-12  0.4389E-09  0.0000E+00  0.3409E+16
   -0.509987    2.78830  0.0000E+00  0.6457E-08  0.8482E-12  0.8056E-09  0.0000E+00  0.3310E+16
   -0.552488    2.97757  0.0000E+00  0.1165E-07  0.1502E-11  0.1521E-08  0.0000E+00  0.3125E+16
   -0.594988    3.19917  0.0000E+00  0.2089E-07  0.2645E-11  0.3224E-08  0.0000E+00  0.2677E+16
   -0.637489    3.46424  0.0000E+00  0.3740E-07  0.4653E-11  0.1244E-07  0.0000E+00  0.1711E+16
   -0.679990    3.77280  0.0000E+00  0.5368E-07  0.6649E-11  0.4584E-04  0.0000E+00  0.5542E+15
   -0.722491    3.98316  0.0000E+00  0.5914E-07  0.7331E-11  0.1294E-03  0.0000E+00  0.4002E+14
   -0.764992    4.02786  0.0000E+00  0.5975E-07  0.7422E-11  0.1601E-03  0.0000E+00 -0.2772E+12
   -0.807493    4.02829  0.0000E+00  0.6027E-07  0.7513E-11  0.1595E-03  0.0000E+00 -0.2950E+12
   -0.849994    4.02874  0.0000E+00  0.6078E-07  0.7615E-11  0.1597E-03  0.0000E+00 -0.3115E+12
   -0.892495    4.02921  0.0000E+00  0.6129E-07  0.7729E-11  0.1597E-03  0.0000E+00 -0.3224E+12
   -0.934997    4.02969  0.0000E+00  0.6177E-07  0.7853E-11  0.1596E-03  0.0000E+00 -0.3272E+12
   -0.977498    4.03017  0.0000E+00  0.6222E-07  0.7989E-11  0.1593E-03  0.0000E+00 -0.3330E+12
   -1.019999    4.03066  0.0000E+00  0.6265E-07  0.8137E-11  0.1586E-03  0.0000E+00 -0.3390E+12
   -1.062500    4.03115  0.0000E+00  0.6304E-07  0.8297E-11  0.1575E-03  0.0000E+00 -0.3460E+12
   -1.105000    4.03164  0.0000E+00  0.6340E-07  0.8472E-11  0.1562E-03  0.0000E+00 -0.3529E+12
   -1.147501    4.03213  0.0000E+00  0.6371E-07  0.8659E-11  0.1546E-03  0.0000E+00 -0.3597E+12
   -1.190002    4.03263  0.0000E+00  0.6398E-07  0.8860E-11  0.1526E-03  0.0000E+00 -0.3699E+12
   -1.232502    4.03314  0.0000E+00  0.6421E-07  0.9090E-11  0.1499E-03  0.0000E+00 -0.3876E+12
   -1.275002    4.03367  0.0000E+00  0.6441E-07  0.9363E-11  0.1468E-03  0.0000E+00 -0.4080E+12
   -1.317502    4.03422  0.0000E+00  0.6458E-07  0.9694E-11  0.1429E-03  0.0000E+00 -0.4268E+12
   -1.360002    4.03478  0.0000E+00  0.6470E-07  0.1011E-10  0.1379E-03  0.0000E+00 -0.4531E+12
   -1.402501    4.03538  0.0000E+00  0.6478E-07  0.1066E-10  0.1319E-03  0.0000E+00 -0.4825E+12
   -1.445001    4.03600  0.0000E+00  0.6480E-07  0.1133E-10  0.1255E-03  0.0000E+00 -0.5133E+12
   -1.487499    4.03666  0.0000E+00  0.6476E-07  0.1215E-10  0.1178E-03  0.0000E+00 -0.5555E+12
   -1.529998    4.03736  0.0000E+00  0.6461E-07  0.1340E-10  0.1073E-03  0.0000E+00 -0.6464E+12
   -1.572496    4.03816  0.0000E+00  0.6420E-07  0.1605E-10  0.9189E-04  0.0000E+00 -0.9001E+12
   -1.614994    4.03926  0.0000E+00  0.6230E-07  0.2717E-10  0.4419E-04  0.0000E+00 -0.2157E+13
   -1.657492    4.04182  0.0000E+00  0.4554E-07  0.1339E-09  0.2509E-05  0.0000E+00 -0.5816E+14
   -1.699989    4.08891  0.0000E+00  0.0000E+00  0.0000E+00  0.0000E+00  0.0000E+00  0.0000E+00
