 1 - depth, m
 2 - temperature, C
 3 - salinity, kg/kg
 4 - turbulent kinetic energy, m**2/s**2
 5 - dissipation rate, m**2/s**3
 6 - kinematic heat conductance, m**2/s
 7 - modulus of horizontal velocity, m/s
 8 - Richardson number, n/d
   -0.000000    0.00000  0.0000E+00  0.3189E-13  0.5206E-16  0.1000E-09  0.0000E+00  0.7288E+16
   -0.042497    0.11098  0.0000E+00  0.3189E-13  0.5206E-16  0.1000E-09  0.0000E+00  0.7431E+16
   -0.084995    0.22773  0.0000E+00  0.3189E-13  0.5206E-16  0.1000E-09  0.0000E+00  0.7511E+16
   -0.127494    0.34981  0.0000E+00  0.3189E-13  0.5206E-16  0.1000E-09  0.0000E+00  0.7241E+16
   -0.169992    0.47177  0.0000E+00  0.3189E-13  0.5206E-16  0.1000E-09  0.0000E+00  0.6965E+16
   -0.212491    0.59347  0.0000E+00  0.3189E-13  0.5206E-16  0.1000E-09  0.0000E+00  0.6681E+16
   -0.254990    0.71471  0.0000E+00  0.3189E-13  0.5206E-16  0.1000E-09  0.0000E+00  0.6392E+16
   -0.297490    0.83531  0.0000E+00  0.3189E-13  0.5206E-16  0.1000E-09  0.0000E+00  0.6106E+16
   -0.339990    0.95524  0.0000E+00  0.3189E-13  0.5206E-16  0.1000E-09  0.0000E+00  0.5829E+16
   -0.382490    1.07459  0.0000E+00  0.3189E-13  0.5206E-16  0.1000E-09  0.0000E+00  0.5552E+16
   -0.424990    1.19322  0.0000E+00  0.3189E-13  0.5206E-16  0.1000E-09  0.0000E+00  0.5285E+16
   -0.467491    1.31129  0.0000E+00  0.3189E-13  0.5206E-16  0.1000E-09  0.0000E+00  0.5019E+16
   -0.509991    1.42867  0.0000E+00  0.3189E-13  0.5206E-16  0.1000E-09  0.0000E+00  0.4760E+16
   -0.552492    1.54546  0.0000E+00  0.3189E-13  0.5206E-16  0.1000E-09  0.0000E+00  0.4504E+16
   -0.594993    1.66158  0.0000E+00  0.3189E-13  0.5206E-16  0.1000E-09  0.0000E+00  0.4244E+16
   -0.637495    1.77679  0.0000E+00  0.3189E-13  0.5206E-16  0.1000E-09  0.0000E+00  0.3976E+16
   -0.679996    1.89070  0.0000E+00  0.3189E-13  0.5206E-16  0.1000E-09  0.0000E+00  0.3709E+16
   -0.722497    2.00307  0.0000E+00  0.3189E-13  0.5206E-16  0.1000E-09  0.0000E+00  0.3438E+16
   -0.764999    2.11342  0.0000E+00  0.3189E-13  0.5206E-16  0.1000E-09  0.0000E+00  0.3165E+16
   -0.807500    2.22130  0.0000E+00  0.3189E-13  0.5206E-16  0.1000E-09  0.0000E+00  0.2907E+16
   -0.850002    2.32676  0.0000E+00  0.3189E-13  0.5206E-16  0.1000E-09  0.0000E+00  0.2659E+16
   -0.892503    2.42965  0.0000E+00  0.3189E-13  0.5206E-16  0.1000E-09  0.0000E+00  0.2439E+16
   -0.935005    2.53058  0.0000E+00  0.3189E-13  0.5206E-16  0.1000E-09  0.0000E+00  0.2244E+16
   -0.977506    2.63020  0.0000E+00  0.3189E-13  0.5206E-16  0.1000E-09  0.0000E+00  0.2052E+16
   -1.020007    2.72835  0.0000E+00  0.3189E-13  0.5206E-16  0.1000E-09  0.0000E+00  0.1868E+16
   -1.062509    2.82507  0.0000E+00  0.3189E-13  0.5206E-16  0.1000E-09  0.0000E+00  0.1689E+16
   -1.105010    2.92019  0.0000E+00  0.3189E-13  0.5206E-16  0.1000E-09  0.0000E+00  0.1520E+16
   -1.147511    3.01382  0.0000E+00  0.3189E-13  0.5206E-16  0.1000E-09  0.0000E+00  0.1358E+16
   -1.190012    3.10605  0.0000E+00  0.3189E-13  0.5206E-16  0.1000E-09  0.0000E+00  0.1197E+16
   -1.232513    3.19638  0.0000E+00  0.3189E-13  0.5206E-16  0.1000E-09  0.0000E+00  0.1028E+16
   -1.275013    3.28327  0.0000E+00  0.3189E-13  0.5206E-16  0.1000E-09  0.0000E+00  0.8772E+15
   -1.317513    3.36709  0.0000E+00  0.3189E-13  0.5206E-16  0.1000E-09  0.0000E+00  0.7631E+15
   -1.360014    3.45068  0.0000E+00  0.3189E-13  0.5206E-16  0.1000E-09  0.0000E+00  0.6509E+15
   -1.402513    3.53415  0.0000E+00  0.4807E-13  0.5648E-16  0.1000E-09  0.0000E+00  0.5389E+15
   -1.445013    3.61740  0.0000E+00  0.2075E-12  0.2233E-15  0.1000E-09  0.0000E+00  0.4273E+15
   -1.487512    3.70026  0.0000E+00  0.9491E-12  0.1001E-14  0.1000E-09  0.0000E+00  0.3178E+15
   -1.530011    3.78282  0.0000E+00  0.4804E-11  0.5017E-14  0.1000E-09  0.0000E+00  0.2109E+15
   -1.572510    3.86569  0.0000E+00  0.2787E-10  0.2924E-13  0.6865E-09  0.0000E+00  0.1040E+15
   -1.615008    3.95039  0.0000E+00  0.1717E-09  0.1873E-12  0.2068E-07  0.0000E+00 -0.2699E+13
   -1.657506    4.02678  0.0000E+00  0.6797E-09  0.1061E-11  0.1591E-06  0.0000E+00 -0.4240E+14
   -1.700003    4.07031  0.0000E+00  0.0000E+00  0.0000E+00  0.0000E+00  0.0000E+00  0.0000E+00
