 1 - depth, m
 2 - temperature, C
 3 - salinity, kg/kg
 4 - turbulent kinetic energy, m**2/s**2
 5 - dissipation rate, m**2/s**3
 6 - kinematic heat conductance, m**2/s
 7 - modulus of horizontal velocity, m/s
 8 - Richardson number, n/d
   -0.000000    0.00000  0.0000E+00  0.3189E-13  0.5206E-16  0.1000E-09  0.0000E+00  0.9394E+16
   -0.042497    0.14369  0.0000E+00  0.3189E-13  0.5206E-16  0.1000E-09  0.0000E+00  0.9427E+16
   -0.084995    0.29388  0.0000E+00  0.3189E-13  0.5206E-16  0.1000E-09  0.0000E+00  0.9364E+16
   -0.127493    0.44978  0.0000E+00  0.3189E-13  0.5206E-16  0.1000E-09  0.0000E+00  0.8867E+16
   -0.169992    0.60444  0.0000E+00  0.3189E-13  0.5206E-16  0.1000E-09  0.0000E+00  0.8367E+16
   -0.212491    0.75758  0.0000E+00  0.3189E-13  0.5206E-16  0.1000E-09  0.0000E+00  0.7863E+16
   -0.254990    0.90883  0.0000E+00  0.3189E-13  0.5206E-16  0.1000E-09  0.0000E+00  0.7360E+16
   -0.297489    1.05785  0.0000E+00  0.3189E-13  0.5206E-16  0.1000E-09  0.0000E+00  0.6870E+16
   -0.339989    1.20451  0.0000E+00  0.3189E-13  0.5206E-16  0.1000E-09  0.0000E+00  0.6402E+16
   -0.382489    1.34887  0.0000E+00  0.3189E-13  0.5206E-16  0.1000E-09  0.0000E+00  0.5943E+16
   -0.424990    1.49070  0.0000E+00  0.3189E-13  0.5206E-16  0.1000E-09  0.0000E+00  0.5513E+16
   -0.467490    1.63021  0.0000E+00  0.3189E-13  0.5206E-16  0.1000E-09  0.0000E+00  0.5094E+16
   -0.509991    1.76723  0.0000E+00  0.3189E-13  0.5206E-16  0.1000E-09  0.0000E+00  0.4715E+16
   -0.552492    1.90236  0.0000E+00  0.3189E-13  0.5206E-16  0.1000E-09  0.0000E+00  0.4349E+16
   -0.594993    2.03561  0.0000E+00  0.3189E-13  0.5206E-16  0.1000E-09  0.0000E+00  0.3991E+16
   -0.637494    2.16675  0.0000E+00  0.3189E-13  0.5206E-16  0.1000E-09  0.0000E+00  0.3638E+16
   -0.679995    2.29541  0.0000E+00  0.3189E-13  0.5206E-16  0.1000E-09  0.0000E+00  0.3295E+16
   -0.722496    2.42130  0.0000E+00  0.3189E-13  0.5206E-16  0.1000E-09  0.0000E+00  0.2958E+16
   -0.764998    2.54388  0.0000E+00  0.3189E-13  0.5206E-16  0.1000E-09  0.0000E+00  0.2629E+16
   -0.807499    2.66260  0.0000E+00  0.6426E-13  0.5206E-16  0.1000E-09  0.0000E+00  0.2324E+16
   -0.850000    2.77743  0.0000E+00  0.2294E-12  0.6259E-16  0.1000E-09  0.0000E+00  0.2038E+16
   -0.892502    2.88817  0.0000E+00  0.5659E-12  0.1147E-15  0.1000E-09  0.0000E+00  0.1789E+16
   -0.935003    2.99574  0.0000E+00  0.1210E-11  0.2242E-15  0.1000E-09  0.0000E+00  0.1571E+16
   -0.977505    3.10108  0.0000E+00  0.2453E-11  0.4374E-15  0.1000E-09  0.0000E+00  0.1362E+16
   -1.020006    3.20397  0.0000E+00  0.4857E-11  0.8437E-15  0.1000E-09  0.0000E+00  0.1165E+16
   -1.062507    3.30438  0.0000E+00  0.9484E-11  0.1612E-14  0.1000E-09  0.0000E+00  0.9791E+15
   -1.105008    3.40212  0.0000E+00  0.1836E-10  0.3055E-14  0.1000E-09  0.0000E+00  0.8070E+15
   -1.147509    3.49731  0.0000E+00  0.3500E-10  0.5707E-14  0.1000E-09  0.0000E+00  0.6474E+15
   -1.190010    3.59003  0.0000E+00  0.6619E-10  0.1058E-13  0.1000E-09  0.0000E+00  0.4964E+15
   -1.232511    3.67970  0.0000E+00  0.1274E-09  0.1994E-13  0.1782E-09  0.0000E+00  0.3518E+15
   -1.275011    3.76431  0.0000E+00  0.2480E-09  0.3805E-13  0.5232E-09  0.0000E+00  0.2286E+15
   -1.317511    3.84422  0.0000E+00  0.4862E-09  0.7316E-13  0.1813E-08  0.0000E+00  0.1268E+15
   -1.360011    3.92281  0.0000E+00  0.9567E-09  0.1414E-12  0.1424E-07  0.0000E+00  0.3107E+14
   -1.402511    3.99473  0.0000E+00  0.1492E-08  0.2212E-12  0.4093E-05  0.0000E+00 -0.4015E+12
   -1.445011    3.99739  0.0000E+00  0.1768E-08  0.2745E-12  0.4688E-05  0.0000E+00 -0.4425E+12
   -1.487510    3.99971  0.0000E+00  0.1969E-08  0.3301E-12  0.4809E-05  0.0000E+00 -0.5151E+12
   -1.530009    4.00198  0.0000E+00  0.2113E-08  0.4048E-12  0.4427E-05  0.0000E+00 -0.6671E+12
   -1.572507    4.00450  0.0000E+00  0.2204E-08  0.5538E-12  0.3375E-05  0.0000E+00 -0.1129E+13
   -1.615006    4.00811  0.0000E+00  0.2169E-08  0.1049E-11  0.1410E-05  0.0000E+00 -0.3757E+13
   -1.657503    4.01721  0.0000E+00  0.1825E-08  0.2567E-11  0.3294E-06  0.0000E+00 -0.2719E+14
   -1.700001    4.05285  0.0000E+00  0.0000E+00  0.0000E+00  0.0000E+00  0.0000E+00  0.0000E+00
