 1 - depth, m
 2 - temperature, C
 3 - salinity, kg/kg
 4 - turbulent kinetic energy, m**2/s**2
 5 - dissipation rate, m**2/s**3
 6 - kinematic heat conductance, m**2/s
 7 - modulus of horizontal velocity, m/s
 8 - Richardson number, n/d
   -0.000000   10.73143  0.0000E+00  0.1874E-03  0.1023E-03  0.6910E-04  0.1321E+00  0.9327E-03
   -0.042497   10.80195  0.0000E+00  0.1011E-03  0.3010E-04  0.1187E-03  0.3344E-01 -0.2262E-01
   -0.084995   10.81193  0.0000E+00  0.7132E-04  0.1417E-04  0.1069E-03  0.2253E-01 -0.5345E-01
   -0.127493   10.81968  0.0000E+00  0.5261E-04  0.7103E-05  0.1008E-03  0.1749E-01 -0.4223E-01
   -0.169991   10.82642  0.0000E+00  0.3913E-04  0.3526E-05  0.9895E-04  0.1386E-01  0.3213E+00
   -0.212490   10.83254  0.0000E+00  0.2922E-04  0.1762E-05  0.9988E-04  0.1096E-01  0.2797E+02
   -0.254989   10.83817  0.0000E+00  0.2204E-04  0.9127E-06  0.1037E-03  0.8677E-02  0.4252E+02
   -0.297488   10.84322  0.0000E+00  0.1701E-04  0.5106E-06  0.1098E-03  0.6952E-02  0.2504E+01
   -0.339988   10.84776  0.0000E+00  0.1355E-04  0.3101E-06  0.1202E-03  0.5619E-02  0.6176E+01
   -0.382488   10.85171  0.0000E+00  0.1111E-04  0.1994E-06  0.1383E-03  0.4550E-02  0.2739E+02
   -0.424988   10.85507  0.0000E+00  0.9402E-05  0.1333E-06  0.1677E-03  0.3737E-02  0.2730E+02
   -0.467488   10.85787  0.0000E+00  0.8172E-05  0.9218E-07  0.2096E-03  0.3066E-02  0.2468E+03
   -0.509989   10.86022  0.0000E+00  0.7275E-05  0.6607E-07  0.2478E-03  0.2508E-02  0.3570E+02
   -0.552490   10.86222  0.0000E+00  0.6606E-05  0.4897E-07  0.2884E-03  0.2040E-02  0.1875E+03
   -0.594991   10.86396  0.0000E+00  0.6105E-05  0.3761E-07  0.3323E-03  0.1642E-02  0.1566E+02
   -0.637491   10.86545  0.0000E+00  0.5721E-05  0.2978E-07  0.3742E-03  0.1313E-02  0.1703E+02
   -0.679993   10.86674  0.0000E+00  0.5433E-05  0.2434E-07  0.4161E-03  0.1050E-02  0.5076E+02
   -0.722494   10.86785  0.0000E+00  0.5217E-05  0.2049E-07  0.4550E-03  0.8432E-03  0.3201E+01
   -0.764995   10.86883  0.0000E+00  0.5057E-05  0.1770E-07  0.4903E-03  0.6848E-03  0.3247E+02
   -0.807496   10.86970  0.0000E+00  0.4942E-05  0.1566E-07  0.5224E-03  0.5672E-03  0.5444E+01
   -0.849997   10.87050  0.0000E+00  0.4865E-05  0.1420E-07  0.5519E-03  0.4771E-03  0.2164E+01
   -0.892499   10.87124  0.0000E+00  0.4814E-05  0.1312E-07  0.5779E-03  0.4072E-03  0.1869E+01
   -0.935000   10.87195  0.0000E+00  0.4784E-05  0.1233E-07  0.6003E-03  0.3523E-03  0.1953E+01
   -0.977501   10.87263  0.0000E+00  0.4768E-05  0.1175E-07  0.6192E-03  0.3077E-03  0.1873E+01
   -1.020002   10.87331  0.0000E+00  0.4761E-05  0.1133E-07  0.6346E-03  0.2709E-03  0.2121E+01
   -1.062504   10.87398  0.0000E+00  0.4761E-05  0.1103E-07  0.6469E-03  0.2395E-03  0.2379E+01
   -1.105004   10.87467  0.0000E+00  0.4764E-05  0.1082E-07  0.6558E-03  0.2123E-03  0.2714E+01
   -1.147505   10.87537  0.0000E+00  0.4769E-05  0.1071E-07  0.6612E-03  0.1877E-03  0.3120E+01
   -1.190006   10.87610  0.0000E+00  0.4773E-05  0.1066E-07  0.6624E-03  0.1648E-03  0.3532E+01
   -1.232507   10.87685  0.0000E+00  0.4775E-05  0.1069E-07  0.6599E-03  0.1437E-03  0.4090E+01
   -1.275007   10.87763  0.0000E+00  0.4774E-05  0.1078E-07  0.6524E-03  0.1252E-03  0.5427E+01
   -1.317507   10.87843  0.0000E+00  0.4768E-05  0.1096E-07  0.6929E-03  0.1088E-03  0.1433E+02
   -1.360007   10.87919  0.0000E+00  0.4756E-05  0.1126E-07  0.5935E-03  0.9537E-04  0.1554E+03
   -1.402506   10.88009  0.0000E+00  0.4736E-05  0.1172E-07  0.5884E-03  0.8241E-04  0.1562E+02
   -1.445006   10.88102  0.0000E+00  0.4708E-05  0.1237E-07  0.5550E-03  0.7057E-04  0.2129E+02
   -1.487505   10.88204  0.0000E+00  0.4671E-05  0.1328E-07  0.5189E-03  0.5913E-04  0.2757E+02
   -1.530004   10.88318  0.0000E+00  0.4612E-05  0.1487E-07  0.4363E-03  0.4811E-04  0.3549E+02
   -1.572502   10.88457  0.0000E+00  0.4496E-05  0.1855E-07  0.4713E-03  0.3759E-04  0.5533E+02
   -1.615000   10.88584  0.0000E+00  0.4034E-05  0.3745E-07  0.1917E-03  0.3143E-04 -0.3357E+07
   -1.657498   10.89356  0.0000E+00  0.2622E-05  0.1186E-06  0.5466E-04  0.2034E-04 -0.2211E+06
   -1.699995   10.90649  0.0000E+00  0.0000E+00  0.0000E+00  0.0000E+00  0.2344E-04  0.0000E+00
