 1 - depth, m
 2 - temperature, C
 3 - salinity, kg/kg
 4 - turbulent kinetic energy, m**2/s**2
 5 - dissipation rate, m**2/s**3
 6 - kinematic heat conductance, m**2/s
 7 - modulus of horizontal velocity, m/s
 8 - Richardson number, n/d
   -0.000000    0.00000  0.0000E+00  0.3189E-13  0.5207E-16  0.1000E-09  0.0000E+00  0.1140E+17
   -0.042497    0.17504  0.0000E+00  0.3189E-13  0.5207E-16  0.1000E-09  0.0000E+00  0.1125E+17
   -0.084995    0.35677  0.0000E+00  0.3189E-13  0.5207E-16  0.1000E-09  0.0000E+00  0.1100E+17
   -0.127493    0.54432  0.0000E+00  0.3189E-13  0.5207E-16  0.1000E-09  0.0000E+00  0.1022E+17
   -0.169991    0.72880  0.0000E+00  0.3189E-13  0.5207E-16  0.1000E-09  0.0000E+00  0.9461E+16
   -0.212490    0.90994  0.0000E+00  0.3189E-13  0.5207E-16  0.1000E-09  0.0000E+00  0.8712E+16
   -0.254989    1.08727  0.0000E+00  0.3189E-13  0.5207E-16  0.1000E-09  0.0000E+00  0.7979E+16
   -0.297488    1.26033  0.0000E+00  0.1251E-12  0.5207E-16  0.1000E-09  0.0000E+00  0.7291E+16
   -0.339988    1.42917  0.0000E+00  0.3506E-12  0.6009E-16  0.1000E-09  0.0000E+00  0.6657E+16
   -0.382488    1.59418  0.0000E+00  0.7343E-12  0.9242E-16  0.1000E-09  0.0000E+00  0.6049E+16
   -0.424988    1.75513  0.0000E+00  0.1358E-11  0.1524E-15  0.1000E-09  0.0000E+00  0.5498E+16
   -0.467488    1.91264  0.0000E+00  0.2373E-11  0.2532E-15  0.1000E-09  0.0000E+00  0.4970E+16
   -0.509989    2.06651  0.0000E+00  0.4042E-11  0.4189E-15  0.1000E-09  0.0000E+00  0.4512E+16
   -0.552489    2.21816  0.0000E+00  0.6798E-11  0.6898E-15  0.1000E-09  0.0000E+00  0.4076E+16
   -0.594990    2.36771  0.0000E+00  0.1135E-10  0.1131E-14  0.1000E-09  0.0000E+00  0.3651E+16
   -0.637491    2.51486  0.0000E+00  0.1903E-10  0.1863E-14  0.1000E-09  0.0000E+00  0.3233E+16
   -0.679992    2.65911  0.0000E+00  0.3195E-10  0.3076E-14  0.1000E-09  0.0000E+00  0.2832E+16
   -0.722493    2.80010  0.0000E+00  0.5377E-10  0.5091E-14  0.1000E-09  0.0000E+00  0.2442E+16
   -0.764994    2.93714  0.0000E+00  0.9073E-10  0.8450E-14  0.1000E-09  0.0000E+00  0.2071E+16
   -0.807496    3.06956  0.0000E+00  0.1530E-09  0.1402E-13  0.1000E-09  0.0000E+00  0.1731E+16
   -0.849997    3.19737  0.0000E+00  0.2555E-09  0.2305E-13  0.1000E-09  0.0000E+00  0.1418E+16
   -0.892498    3.32038  0.0000E+00  0.4250E-09  0.3773E-13  0.1035E-09  0.0000E+00  0.1151E+16
   -0.934999    3.44043  0.0000E+00  0.7000E-09  0.6119E-13  0.2113E-09  0.0000E+00  0.9112E+15
   -0.977501    3.55906  0.0000E+00  0.1146E-08  0.9863E-13  0.4564E-09  0.0000E+00  0.6799E+15
   -1.020002    3.67609  0.0000E+00  0.1864E-08  0.1580E-12  0.1088E-08  0.0000E+00  0.4570E+15
   -1.062503    3.79105  0.0000E+00  0.3011E-08  0.2514E-12  0.3236E-08  0.0000E+00  0.2444E+15
   -1.105004    3.90269  0.0000E+00  0.4800E-08  0.3952E-12  0.2324E-07  0.0000E+00  0.5350E+14
   -1.147505    3.99928  0.0000E+00  0.5211E-08  0.4307E-12  0.2705E-04  0.0000E+00 -0.1201E+12
   -1.190005    3.99986  0.0000E+00  0.5383E-08  0.4481E-12  0.2759E-04  0.0000E+00 -0.1224E+12
   -1.232506    4.00042  0.0000E+00  0.5523E-08  0.4650E-12  0.2783E-04  0.0000E+00 -0.1257E+12
   -1.275006    4.00098  0.0000E+00  0.5645E-08  0.4833E-12  0.2791E-04  0.0000E+00 -0.1296E+12
   -1.317506    4.00153  0.0000E+00  0.5754E-08  0.5043E-12  0.2778E-04  0.0000E+00 -0.1355E+12
   -1.360006    4.00209  0.0000E+00  0.5853E-08  0.5296E-12  0.2731E-04  0.0000E+00 -0.1435E+12
   -1.402506    4.00266  0.0000E+00  0.5945E-08  0.5633E-12  0.2646E-04  0.0000E+00 -0.1540E+12
   -1.445005    4.00325  0.0000E+00  0.6018E-08  0.6062E-12  0.2466E-04  0.0000E+00 -0.1719E+12
   -1.487504    4.00389  0.0000E+00  0.6062E-08  0.6621E-12  0.2153E-04  0.0000E+00 -0.2059E+12
   -1.530003    4.00462  0.0000E+00  0.6070E-08  0.7504E-12  0.1798E-04  0.0000E+00 -0.2641E+12
   -1.572501    4.00552  0.0000E+00  0.6001E-08  0.9527E-12  0.1297E-04  0.0000E+00 -0.4252E+12
   -1.614999    4.00689  0.0000E+00  0.5572E-08  0.1809E-11  0.4554E-05  0.0000E+00 -0.1504E+13
   -1.657497    4.01112  0.0000E+00  0.4000E-08  0.5732E-11  0.5608E-06  0.0000E+00 -0.2167E+14
   -1.699994    4.04448  0.0000E+00  0.0000E+00  0.0000E+00  0.0000E+00  0.0000E+00  0.0000E+00
