 1 - depth, m
 2 - temperature, C
 3 - salinity, kg/kg
 4 - turbulent kinetic energy, m**2/s**2
 5 - dissipation rate, m**2/s**3
 6 - kinematic heat conductance, m**2/s
 7 - modulus of horizontal velocity, m/s
 8 - Richardson number, n/d
   -0.000000   17.52289  0.0000E+00  0.2127E-04  0.3067E-05  0.2551E-04  0.2417E-01 -0.2057E-01
   -0.042497   17.54642  0.0000E+00  0.1407E-04  0.8673E-06  0.4042E-04  0.1132E-01 -0.5461E-01
   -0.084995   17.55616  0.0000E+00  0.1059E-04  0.3714E-06  0.5329E-04  0.7344E-02 -0.1088E+00
   -0.127493   17.56273  0.0000E+00  0.8404E-05  0.1876E-06  0.6876E-04  0.5044E-02 -0.1967E+00
   -0.169991   17.56758  0.0000E+00  0.6976E-05  0.1060E-06  0.9299E-04  0.3560E-02  0.6333E+00
   -0.212490   17.57111  0.0000E+00  0.6044E-05  0.6533E-07  0.1466E-03  0.2574E-02  0.3431E+02
   -0.254989   17.57351  0.0000E+00  0.5478E-05  0.4408E-07  0.2494E-03  0.1948E-02  0.7307E+03
   -0.297488   17.57491  0.0000E+00  0.5178E-05  0.3302E-07  0.3151E-03  0.1574E-02  0.9729E+01
   -0.339988   17.57583  0.0000E+00  0.5030E-05  0.2662E-07  0.3519E-03  0.1340E-02  0.1304E+02
   -0.382488   17.57661  0.0000E+00  0.4963E-05  0.2233E-07  0.3952E-03  0.1143E-02  0.1160E+01
   -0.424988   17.57727  0.0000E+00  0.4955E-05  0.1940E-07  0.4392E-03  0.9855E-03  0.2116E+01
   -0.467488   17.57787  0.0000E+00  0.4985E-05  0.1727E-07  0.4864E-03  0.8470E-03  0.1353E+01
   -0.509989   17.57843  0.0000E+00  0.5036E-05  0.1567E-07  0.5334E-03  0.7240E-03  0.1434E+01
   -0.552489   17.57895  0.0000E+00  0.5100E-05  0.1445E-07  0.5802E-03  0.6145E-03  0.1496E+01
   -0.594990   17.57944  0.0000E+00  0.5167E-05  0.1351E-07  0.6269E-03  0.5173E-03  0.1487E+01
   -0.637491   17.57991  0.0000E+00  0.5231E-05  0.1277E-07  0.6758E-03  0.4334E-03  0.1400E+01
   -0.679992   17.58034  0.0000E+00  0.5292E-05  0.1221E-07  0.7237E-03  0.3648E-03  0.1309E+01
   -0.722493   17.58073  0.0000E+00  0.5346E-05  0.1179E-07  0.7676E-03  0.3097E-03  0.1192E+01
   -0.764994   17.58110  0.0000E+00  0.5396E-05  0.1148E-07  0.8024E-03  0.2671E-03  0.1113E+01
   -0.807496   17.58143  0.0000E+00  0.5443E-05  0.1128E-07  0.8280E-03  0.2345E-03  0.1139E+01
   -0.849997   17.58175  0.0000E+00  0.5490E-05  0.1115E-07  0.8481E-03  0.2087E-03  0.1218E+01
   -0.892498   17.58207  0.0000E+00  0.5537E-05  0.1109E-07  0.8639E-03  0.1876E-03  0.1362E+01
   -0.934999   17.58238  0.0000E+00  0.5583E-05  0.1110E-07  0.8757E-03  0.1700E-03  0.1582E+01
   -0.977501   17.58270  0.0000E+00  0.5630E-05  0.1116E-07  0.8836E-03  0.1548E-03  0.1845E+01
   -1.020002   17.58303  0.0000E+00  0.5676E-05  0.1126E-07  0.8877E-03  0.1415E-03  0.2200E+01
   -1.062503   17.58337  0.0000E+00  0.5720E-05  0.1142E-07  0.8881E-03  0.1295E-03  0.2614E+01
   -1.105004   17.58373  0.0000E+00  0.5762E-05  0.1162E-07  0.8841E-03  0.1185E-03  0.3147E+01
   -1.147505   17.58411  0.0000E+00  0.5798E-05  0.1187E-07  0.8756E-03  0.1080E-03  0.3796E+01
   -1.190005   17.58452  0.0000E+00  0.5827E-05  0.1216E-07  0.8624E-03  0.9784E-04  0.4446E+01
   -1.232506   17.58497  0.0000E+00  0.5848E-05  0.1254E-07  0.8444E-03  0.8798E-04  0.5271E+01
   -1.275006   17.58543  0.0000E+00  0.5860E-05  0.1301E-07  0.8186E-03  0.7880E-04  0.6814E+01
   -1.317506   17.58593  0.0000E+00  0.5862E-05  0.1364E-07  0.7877E-03  0.7021E-04  0.9074E+01
   -1.360006   17.58646  0.0000E+00  0.5850E-05  0.1452E-07  0.7418E-03  0.6226E-04  0.1249E+02
   -1.402506   17.58704  0.0000E+00  0.5820E-05  0.1581E-07  0.6970E-03  0.5490E-04  0.1901E+02
   -1.445005   17.58768  0.0000E+00  0.5769E-05  0.1770E-07  0.6252E-03  0.4801E-04  0.3149E+02
   -1.487504   17.58848  0.0000E+00  0.5688E-05  0.2050E-07  0.5837E-03  0.4039E-04  0.3354E+03
   -1.530003   17.58939  0.0000E+00  0.5547E-05  0.2579E-07  0.4590E-03  0.3303E-04  0.2971E+03
   -1.572501   17.59099  0.0000E+00  0.5297E-05  0.3777E-07  0.5272E-03  0.2476E-04  0.1631E+06
   -1.614999   17.59163  0.0000E+00  0.4601E-05  0.9388E-07  0.1926E-03  0.2068E-04 -0.1522E+08
   -1.657497   17.59996  0.0000E+00  0.3049E-05  0.2688E-06  0.8232E-04  0.1286E-04 -0.2128E+06
   -1.699994   17.60718  0.0000E+00  0.0000E+00  0.0000E+00  0.0000E+00  0.1700E-04  0.0000E+00
