 1 - depth, m
 2 - temperature, C
 3 - salinity, kg/kg
 4 - turbulent kinetic energy, m**2/s**2
 5 - dissipation rate, m**2/s**3
 6 - kinematic heat conductance, m**2/s
 7 - modulus of horizontal velocity, m/s
 8 - Richardson number, n/d
   -0.000000   10.71954  0.0000E+00  0.2172E-03  0.1583E-03  0.7184E-04  0.1450E+00 -0.1664E-01
   -0.042497   10.81707  0.0000E+00  0.1167E-03  0.4719E-04  0.1117E-03  0.3803E-01 -0.1423E+00
   -0.084995   10.83469  0.0000E+00  0.8104E-04  0.2013E-04  0.1068E-03  0.2538E-01 -0.6985E-01
   -0.127493   10.84907  0.0000E+00  0.5980E-04  0.1001E-04  0.1065E-03  0.1964E-01 -0.7359E-01
   -0.169991   10.86108  0.0000E+00  0.4526E-04  0.5202E-05  0.1101E-03  0.1558E-01  0.1974E-02
   -0.212490   10.87154  0.0000E+00  0.3463E-04  0.2707E-05  0.1177E-03  0.1237E-01  0.8158E+01
   -0.254989   10.88098  0.0000E+00  0.2689E-04  0.1428E-05  0.1294E-03  0.9881E-02  0.9299E+01
   -0.297489   10.88938  0.0000E+00  0.2143E-04  0.7875E-06  0.1486E-03  0.8029E-02  0.4984E+02
   -0.339988   10.89649  0.0000E+00  0.1767E-04  0.4702E-06  0.1796E-03  0.6617E-02  0.2342E+02
   -0.382488   10.90251  0.0000E+00  0.1503E-04  0.3029E-06  0.2186E-03  0.5494E-02  0.2417E+02
   -0.424988   10.90727  0.0000E+00  0.1315E-04  0.2082E-06  0.2608E-03  0.4637E-02  0.1429E+03
   -0.467488   10.91128  0.0000E+00  0.1178E-04  0.1496E-06  0.3062E-03  0.3916E-02  0.1589E+02
   -0.509989   10.91458  0.0000E+00  0.1075E-04  0.1116E-06  0.3577E-03  0.3298E-02  0.5077E+02
   -0.552490   10.91732  0.0000E+00  0.9965E-05  0.8606E-07  0.4111E-03  0.2765E-02  0.2385E+03
   -0.594991   10.91957  0.0000E+00  0.9343E-05  0.6848E-07  0.4569E-03  0.2301E-02  0.4952E+02
   -0.637492   10.92149  0.0000E+00  0.8829E-05  0.5568E-07  0.4991E-03  0.1899E-02  0.1590E+02
   -0.679993   10.92318  0.0000E+00  0.8402E-05  0.4618E-07  0.5394E-03  0.1565E-02  0.2183E+02
   -0.722494   10.92469  0.0000E+00  0.8047E-05  0.3903E-07  0.5820E-03  0.1287E-02  0.7171E+01
   -0.764995   10.92605  0.0000E+00  0.7751E-05  0.3359E-07  0.6243E-03  0.1066E-02  0.2346E+02
   -0.807496   10.92729  0.0000E+00  0.7503E-05  0.2936E-07  0.6602E-03  0.8947E-03  0.1338E+01
   -0.849998   10.92845  0.0000E+00  0.7299E-05  0.2612E-07  0.6910E-03  0.7582E-03  0.1831E+01
   -0.892499   10.92953  0.0000E+00  0.7126E-05  0.2358E-07  0.7186E-03  0.6480E-03  0.1453E+02
   -0.935000   10.93055  0.0000E+00  0.6981E-05  0.2162E-07  0.7414E-03  0.5591E-03  0.1246E+01
   -0.977501   10.93153  0.0000E+00  0.6855E-05  0.2008E-07  0.7595E-03  0.4852E-03  0.1244E+01
   -1.020002   10.93247  0.0000E+00  0.6745E-05  0.1889E-07  0.7731E-03  0.4237E-03  0.1285E+01
   -1.062504   10.93337  0.0000E+00  0.6646E-05  0.1797E-07  0.7819E-03  0.3712E-03  0.1310E+01
   -1.105005   10.93425  0.0000E+00  0.6554E-05  0.1728E-07  0.7861E-03  0.3259E-03  0.1368E+01
   -1.147505   10.93510  0.0000E+00  0.6471E-05  0.1679E-07  0.7848E-03  0.2854E-03  0.1441E+01
   -1.190006   10.93594  0.0000E+00  0.6393E-05  0.1649E-07  0.7777E-03  0.2481E-03  0.1506E+01
   -1.232507   10.93677  0.0000E+00  0.6318E-05  0.1634E-07  0.7644E-03  0.2143E-03  0.1590E+01
   -1.275007   10.93760  0.0000E+00  0.6243E-05  0.1635E-07  0.7458E-03  0.1856E-03  0.1869E+01
   -1.317507   10.93844  0.0000E+00  0.6166E-05  0.1654E-07  0.7222E-03  0.1615E-03  0.2337E+01
   -1.360007   10.93930  0.0000E+00  0.6081E-05  0.1696E-07  0.6884E-03  0.1411E-03  0.3089E+01
   -1.402507   10.94020  0.0000E+00  0.5979E-05  0.1772E-07  0.6519E-03  0.1233E-03  0.4549E+01
   -1.445006   10.94114  0.0000E+00  0.5867E-05  0.1899E-07  0.5932E-03  0.1069E-03  0.2541E+01
   -1.487505   10.94219  0.0000E+00  0.5739E-05  0.2106E-07  0.5589E-03  0.9000E-04  0.8923E+03
   -1.530004   10.94333  0.0000E+00  0.5563E-05  0.2555E-07  0.4494E-03  0.7352E-04 -0.9652E+03
   -1.572502   10.94522  0.0000E+00  0.5272E-05  0.3598E-07  0.4932E-03  0.5538E-04  0.1185E+05
   -1.615000   10.94614  0.0000E+00  0.4462E-05  0.8323E-07  0.1969E-03  0.4591E-04 -0.4836E+06
   -1.657498   10.95555  0.0000E+00  0.2879E-05  0.2404E-06  0.8134E-04  0.2879E-04 -0.5305E+05
   -1.699995   10.96248  0.0000E+00  0.0000E+00  0.0000E+00  0.0000E+00  0.3813E-04  0.0000E+00
