 1 - depth, m
 2 - temperature, C
 3 - salinity, kg/kg
 4 - turbulent kinetic energy, m**2/s**2
 5 - dissipation rate, m**2/s**3
 6 - kinematic heat conductance, m**2/s
 7 - modulus of horizontal velocity, m/s
 8 - Richardson number, n/d
   -0.000000    0.00000  0.0000E+00  0.3643E-07  0.1379E-09  0.4780E-08  0.0000E+00  0.8788E+17
   -0.042498    1.70426  0.0000E+00  0.3091E-06  0.9959E-10  0.8581E-08  0.0000E+00  0.3828E+17
   -0.084997    3.43346  0.0000E+00  0.6048E-06  0.1376E-09  0.1603E-03  0.0000E+00  0.3407E+16
   -0.127496    4.20593  0.0000E+00  0.6076E-06  0.1380E-09  0.8463E-03  0.0000E+00 -0.1202E+13
   -0.169995    4.20630  0.0000E+00  0.6092E-06  0.1381E-09  0.8400E-03  0.0000E+00 -0.1090E+13
   -0.212495    4.20663  0.0000E+00  0.6106E-06  0.1383E-09  0.8424E-03  0.0000E+00 -0.1058E+13
   -0.254995    4.20695  0.0000E+00  0.6118E-06  0.1385E-09  0.8444E-03  0.0000E+00 -0.1037E+13
   -0.297495    4.20726  0.0000E+00  0.6130E-06  0.1388E-09  0.8460E-03  0.0000E+00 -0.1012E+13
   -0.339996    4.20757  0.0000E+00  0.6141E-06  0.1391E-09  0.8470E-03  0.0000E+00 -0.9956E+12
   -0.382497    4.20787  0.0000E+00  0.6150E-06  0.1394E-09  0.8475E-03  0.0000E+00 -0.9786E+12
   -0.424998    4.20817  0.0000E+00  0.6158E-06  0.1398E-09  0.8472E-03  0.0000E+00 -0.9634E+12
   -0.467499    4.20846  0.0000E+00  0.6164E-06  0.1402E-09  0.8465E-03  0.0000E+00 -0.9504E+12
   -0.510001    4.20874  0.0000E+00  0.6170E-06  0.1407E-09  0.8450E-03  0.0000E+00 -0.9383E+12
   -0.552502    4.20903  0.0000E+00  0.6175E-06  0.1412E-09  0.8431E-03  0.0000E+00 -0.9271E+12
   -0.595004    4.20930  0.0000E+00  0.6178E-06  0.1419E-09  0.8405E-03  0.0000E+00 -0.9217E+12
   -0.637506    4.20958  0.0000E+00  0.6181E-06  0.1426E-09  0.8352E-03  0.0000E+00 -0.9159E+12
   -0.680008    4.20985  0.0000E+00  0.6183E-06  0.1434E-09  0.8281E-03  0.0000E+00 -0.9119E+12
   -0.722510    4.21012  0.0000E+00  0.6184E-06  0.1444E-09  0.8207E-03  0.0000E+00 -0.9107E+12
   -0.765012    4.21039  0.0000E+00  0.6184E-06  0.1455E-09  0.8128E-03  0.0000E+00 -0.9101E+12
   -0.807514    4.21066  0.0000E+00  0.6183E-06  0.1469E-09  0.8039E-03  0.0000E+00 -0.9060E+12
   -0.850017    4.21093  0.0000E+00  0.6181E-06  0.1484E-09  0.7999E-03  0.0000E+00 -0.8888E+12
   -0.892519    4.21119  0.0000E+00  0.6179E-06  0.1502E-09  0.7856E-03  0.0000E+00 -0.9075E+12
   -0.935021    4.21145  0.0000E+00  0.6175E-06  0.1522E-09  0.7780E-03  0.0000E+00 -0.8792E+12
   -0.977523    4.21171  0.0000E+00  0.6171E-06  0.1545E-09  0.8017E-03  0.0000E+00 -0.7886E+12
   -1.020026    4.21196  0.0000E+00  0.6166E-06  0.1570E-09  0.7343E-03  0.0000E+00 -0.9935E+12
   -1.062528    4.21223  0.0000E+00  0.6160E-06  0.1598E-09  0.7767E-03  0.0000E+00 -0.8143E+12
   -1.105029    4.21249  0.0000E+00  0.6154E-06  0.1630E-09  0.7037E-03  0.0000E+00 -0.1001E+13
   -1.147531    4.21276  0.0000E+00  0.6146E-06  0.1664E-09  0.7480E-03  0.0000E+00 -0.8486E+12
   -1.190033    4.21302  0.0000E+00  0.6138E-06  0.1702E-09  0.6713E-03  0.0000E+00 -0.1027E+13
   -1.232534    4.21330  0.0000E+00  0.6129E-06  0.1747E-09  0.6645E-03  0.0000E+00 -0.1000E+13
   -1.275036    4.21358  0.0000E+00  0.6119E-06  0.1802E-09  0.6547E-03  0.0000E+00 -0.9423E+12
   -1.317537    4.21385  0.0000E+00  0.6107E-06  0.1871E-09  0.6167E-03  0.0000E+00 -0.1043E+13
   -1.360038    4.21414  0.0000E+00  0.6093E-06  0.1959E-09  0.6671E-03  0.0000E+00 -0.8900E+12
   -1.402538    4.21440  0.0000E+00  0.6076E-06  0.2077E-09  0.5161E-03  0.0000E+00 -0.1289E+13
   -1.445039    4.21475  0.0000E+00  0.6057E-06  0.2216E-09  0.5921E-03  0.0000E+00 -0.1071E+13
   -1.487539    4.21506  0.0000E+00  0.6037E-06  0.2396E-09  0.4466E-03  0.0000E+00 -0.1524E+13
   -1.530038    4.21548  0.0000E+00  0.6011E-06  0.2673E-09  0.4277E-03  0.0000E+00 -0.1574E+13
   -1.572538    4.21592  0.0000E+00  0.5962E-06  0.3289E-09  0.3449E-03  0.0000E+00 -0.1979E+13
   -1.615037    4.21647  0.0000E+00  0.5807E-06  0.5502E-09  0.2434E-03  0.0000E+00 -0.2815E+13
   -1.657535    4.21728  0.0000E+00  0.4196E-06  0.3420E-08  0.6721E-05  0.0000E+00 -0.1094E+15
   -1.700033    4.24621  0.0000E+00  0.0000E+00  0.0000E+00  0.0000E+00  0.0000E+00  0.0000E+00
