 1 - depth, m
 2 - temperature, C
 3 - salinity, kg/kg
 4 - turbulent kinetic energy, m**2/s**2
 5 - dissipation rate, m**2/s**3
 6 - kinematic heat conductance, m**2/s
 7 - modulus of horizontal velocity, m/s
 8 - Richardson number, n/d
   -0.000000    0.00000  0.0000E+00  0.3435E-09  0.3831E-12  0.1000E-09  0.0000E+00  0.3256E+17
   -0.042496    0.52519  0.0000E+00  0.1282E-08  0.3176E-12  0.1000E-09  0.0000E+00  0.2581E+17
   -0.084993    1.01121  0.0000E+00  0.3051E-08  0.4328E-12  0.1000E-09  0.0000E+00  0.2057E+17
   -0.127490    1.46866  0.0000E+00  0.5991E-08  0.6985E-12  0.1347E-09  0.0000E+00  0.1643E+17
   -0.169988    1.90882  0.0000E+00  0.1085E-07  0.1171E-11  0.2853E-09  0.0000E+00  0.1293E+17
   -0.212485    2.33961  0.0000E+00  0.1895E-07  0.1974E-11  0.6339E-09  0.0000E+00  0.9834E+16
   -0.254984    2.76871  0.0000E+00  0.3260E-07  0.3322E-11  0.1531E-08  0.0000E+00  0.6906E+16
   -0.297482    3.20320  0.0000E+00  0.5561E-07  0.5572E-11  0.4664E-08  0.0000E+00  0.3933E+16
   -0.339981    3.64582  0.0000E+00  0.9177E-07  0.9083E-11  0.4769E-07  0.0000E+00  0.9561E+15
   -0.382480    4.02626  0.0000E+00  0.9473E-07  0.9388E-11  0.2882E-03  0.0000E+00  0.7564E+13
   -0.424979    4.03949  0.0000E+00  0.9508E-07  0.9430E-11  0.3150E-03  0.0000E+00 -0.1839E+12
   -0.467478    4.03972  0.0000E+00  0.9537E-07  0.9471E-11  0.3171E-03  0.0000E+00 -0.1851E+12
   -0.509978    4.03994  0.0000E+00  0.9565E-07  0.9516E-11  0.3070E-03  0.0000E+00 -0.1909E+12
   -0.552478    4.04017  0.0000E+00  0.9592E-07  0.9567E-11  0.3059E-03  0.0000E+00 -0.1919E+12
   -0.594978    4.04039  0.0000E+00  0.9618E-07  0.9623E-11  0.3057E-03  0.0000E+00 -0.1914E+12
   -0.637478    4.04062  0.0000E+00  0.9642E-07  0.9685E-11  0.3053E-03  0.0000E+00 -0.1920E+12
   -0.679978    4.04085  0.0000E+00  0.9665E-07  0.9754E-11  0.3046E-03  0.0000E+00 -0.1938E+12
   -0.722478    4.04108  0.0000E+00  0.9688E-07  0.9834E-11  0.3036E-03  0.0000E+00 -0.1960E+12
   -0.764978    4.04131  0.0000E+00  0.9710E-07  0.9924E-11  0.3022E-03  0.0000E+00 -0.1995E+12
   -0.807479    4.04154  0.0000E+00  0.9731E-07  0.1003E-10  0.3004E-03  0.0000E+00 -0.2028E+12
   -0.849979    4.04177  0.0000E+00  0.9752E-07  0.1014E-10  0.2983E-03  0.0000E+00 -0.2073E+12
   -0.892479    4.04201  0.0000E+00  0.9771E-07  0.1028E-10  0.2958E-03  0.0000E+00 -0.2105E+12
   -0.934980    4.04225  0.0000E+00  0.9789E-07  0.1042E-10  0.2930E-03  0.0000E+00 -0.2138E+12
   -0.977480    4.04250  0.0000E+00  0.9805E-07  0.1058E-10  0.2897E-03  0.0000E+00 -0.2172E+12
   -1.019980    4.04275  0.0000E+00  0.9819E-07  0.1076E-10  0.2860E-03  0.0000E+00 -0.2216E+12
   -1.062480    4.04300  0.0000E+00  0.9831E-07  0.1095E-10  0.2819E-03  0.0000E+00 -0.2262E+12
   -1.104981    4.04325  0.0000E+00  0.9841E-07  0.1117E-10  0.2774E-03  0.0000E+00 -0.2317E+12
   -1.147480    4.04351  0.0000E+00  0.9849E-07  0.1140E-10  0.2726E-03  0.0000E+00 -0.2373E+12
   -1.189980    4.04378  0.0000E+00  0.9854E-07  0.1165E-10  0.2674E-03  0.0000E+00 -0.2446E+12
   -1.232480    4.04405  0.0000E+00  0.9856E-07  0.1194E-10  0.2614E-03  0.0000E+00 -0.2538E+12
   -1.274979    4.04433  0.0000E+00  0.9857E-07  0.1228E-10  0.2546E-03  0.0000E+00 -0.2645E+12
   -1.317478    4.04462  0.0000E+00  0.9854E-07  0.1270E-10  0.2467E-03  0.0000E+00 -0.2742E+12
   -1.359977    4.04492  0.0000E+00  0.9847E-07  0.1324E-10  0.2371E-03  0.0000E+00 -0.2875E+12
   -1.402476    4.04523  0.0000E+00  0.9836E-07  0.1395E-10  0.2258E-03  0.0000E+00 -0.3033E+12
   -1.444975    4.04556  0.0000E+00  0.9820E-07  0.1480E-10  0.2137E-03  0.0000E+00 -0.3235E+12
   -1.487473    4.04591  0.0000E+00  0.9800E-07  0.1586E-10  0.2002E-03  0.0000E+00 -0.3489E+12
   -1.529970    4.04628  0.0000E+00  0.9769E-07  0.1747E-10  0.1822E-03  0.0000E+00 -0.3902E+12
   -1.572468    4.04669  0.0000E+00  0.9708E-07  0.2086E-10  0.1599E-03  0.0000E+00 -0.4653E+12
   -1.614965    4.04718  0.0000E+00  0.9454E-07  0.3564E-10  0.6905E-04  0.0000E+00 -0.1130E+13
   -1.657462    4.04837  0.0000E+00  0.6690E-07  0.2238E-09  0.2744E-05  0.0000E+00 -0.3694E+14
   -1.699958    4.07891  0.0000E+00  0.0000E+00  0.0000E+00  0.0000E+00  0.0000E+00  0.0000E+00
