 1 - depth, m
 2 - temperature, C
 3 - salinity, kg/kg
 4 - turbulent kinetic energy, m**2/s**2
 5 - dissipation rate, m**2/s**3
 6 - kinematic heat conductance, m**2/s
 7 - modulus of horizontal velocity, m/s
 8 - Richardson number, n/d
   -0.000000    0.00000  0.0000E+00  0.3189E-13  0.5207E-16  0.1000E-09  0.0000E+00  0.1122E+17
   -0.042497    0.17228  0.0000E+00  0.3189E-13  0.5207E-16  0.1000E-09  0.0000E+00  0.1108E+17
   -0.084995    0.35096  0.0000E+00  0.3189E-13  0.5207E-16  0.1000E-09  0.0000E+00  0.1082E+17
   -0.127493    0.53494  0.0000E+00  0.3189E-13  0.5207E-16  0.1000E-09  0.0000E+00  0.1013E+17
   -0.169992    0.71715  0.0000E+00  0.3189E-13  0.5207E-16  0.1000E-09  0.0000E+00  0.9432E+16
   -0.212490    0.89701  0.0000E+00  0.3189E-13  0.5207E-16  0.1000E-09  0.0000E+00  0.8736E+16
   -0.254989    1.07402  0.0000E+00  0.3189E-13  0.5207E-16  0.1000E-09  0.0000E+00  0.8043E+16
   -0.297489    1.24762  0.0000E+00  0.3189E-13  0.5207E-16  0.1000E-09  0.0000E+00  0.7356E+16
   -0.339988    1.41713  0.0000E+00  0.3189E-13  0.5207E-16  0.1000E-09  0.0000E+00  0.6680E+16
   -0.382488    1.58187  0.0000E+00  0.3189E-13  0.5207E-16  0.1000E-09  0.0000E+00  0.6027E+16
   -0.424989    1.74130  0.0000E+00  0.3189E-13  0.5207E-16  0.1000E-09  0.0000E+00  0.5406E+16
   -0.467489    1.89501  0.0000E+00  0.3189E-13  0.5207E-16  0.1000E-09  0.0000E+00  0.4818E+16
   -0.509990    2.04260  0.0000E+00  0.3189E-13  0.5207E-16  0.1000E-09  0.0000E+00  0.4304E+16
   -0.552490    2.18498  0.0000E+00  0.3189E-13  0.5207E-16  0.1000E-09  0.0000E+00  0.3826E+16
   -0.594991    2.32209  0.0000E+00  0.3189E-13  0.5207E-16  0.1000E-09  0.0000E+00  0.3383E+16
   -0.637492    2.45379  0.0000E+00  0.3189E-13  0.5207E-16  0.1000E-09  0.0000E+00  0.2973E+16
   -0.679993    2.57995  0.0000E+00  0.3189E-13  0.5207E-16  0.1000E-09  0.0000E+00  0.2590E+16
   -0.722495    2.70016  0.0000E+00  0.3189E-13  0.5207E-16  0.1000E-09  0.0000E+00  0.2233E+16
   -0.764996    2.81388  0.0000E+00  0.3189E-13  0.5207E-16  0.1000E-09  0.0000E+00  0.1901E+16
   -0.807497    2.92040  0.0000E+00  0.3189E-13  0.5207E-16  0.1000E-09  0.0000E+00  0.1601E+16
   -0.849998    3.01934  0.0000E+00  0.3189E-13  0.5207E-16  0.1000E-09  0.0000E+00  0.1331E+16
   -0.892500    3.11021  0.0000E+00  0.3189E-13  0.5207E-16  0.1000E-09  0.0000E+00  0.1121E+16
   -0.935001    3.19488  0.0000E+00  0.3189E-13  0.5207E-16  0.1000E-09  0.0000E+00  0.9528E+15
   -0.977502    3.27485  0.0000E+00  0.3189E-13  0.5207E-16  0.1000E-09  0.0000E+00  0.8020E+15
   -1.020004    3.35002  0.0000E+00  0.3189E-13  0.5207E-16  0.1000E-09  0.0000E+00  0.6669E+15
   -1.062505    3.42016  0.0000E+00  0.3189E-13  0.5207E-16  0.1000E-09  0.0000E+00  0.5480E+15
   -1.105006    3.48515  0.0000E+00  0.3189E-13  0.5207E-16  0.1000E-09  0.0000E+00  0.4453E+15
   -1.147507    3.54501  0.0000E+00  0.3189E-13  0.5207E-16  0.1000E-09  0.0000E+00  0.3577E+15
   -1.190007    3.59982  0.0000E+00  0.3189E-13  0.5207E-16  0.1000E-09  0.0000E+00  0.2815E+15
   -1.232508    3.64919  0.0000E+00  0.3189E-13  0.5207E-16  0.1000E-09  0.0000E+00  0.2108E+15
   -1.275008    3.69157  0.0000E+00  0.3189E-13  0.5207E-16  0.1000E-09  0.0000E+00  0.1582E+15
   -1.317508    3.72791  0.0000E+00  0.5213E-13  0.5329E-16  0.1000E-09  0.0000E+00  0.1349E+15
   -1.360008    3.76357  0.0000E+00  0.2065E-12  0.1613E-15  0.1000E-09  0.0000E+00  0.1151E+15
   -1.402508    3.79930  0.0000E+00  0.8069E-12  0.6188E-15  0.1000E-09  0.0000E+00  0.9457E+14
   -1.445007    3.83487  0.0000E+00  0.2961E-11  0.2295E-14  0.1000E-09  0.0000E+00  0.7325E+14
   -1.487507    3.86966  0.0000E+00  0.1086E-10  0.8636E-14  0.3804E-09  0.0000E+00  0.5454E+14
   -1.530005    3.90472  0.0000E+00  0.4442E-10  0.3698E-13  0.2020E-08  0.0000E+00  0.3916E+14
   -1.572504    3.94550  0.0000E+00  0.2113E-09  0.1901E-12  0.1922E-07  0.0000E+00  0.1017E+14
   -1.615002    4.00568  0.0000E+00  0.1012E-08  0.1110E-11  0.2849E-06  0.0000E+00 -0.1910E+14
   -1.657500    4.03940  0.0000E+00  0.1902E-08  0.3585E-11  0.3331E-06  0.0000E+00 -0.5871E+14
   -1.699997    4.08791  0.0000E+00  0.0000E+00  0.0000E+00  0.0000E+00  0.0000E+00  0.0000E+00
