 1 - depth, m
 2 - temperature, C
 3 - salinity, kg/kg
 4 - turbulent kinetic energy, m**2/s**2
 5 - dissipation rate, m**2/s**3
 6 - kinematic heat conductance, m**2/s
 7 - modulus of horizontal velocity, m/s
 8 - Richardson number, n/d
   -0.000000   11.64900  0.0000E+00  0.1660E-03  0.9433E-04  0.5642E-04  0.1166E+00 -0.2978E-01
   -0.042497   11.69401  0.0000E+00  0.8735E-04  0.3069E-04  0.9609E-04  0.3057E-01 -0.4631E-01
   -0.084995   11.70273  0.0000E+00  0.6114E-04  0.1497E-04  0.8748E-04  0.2064E-01 -0.3536E-01
   -0.127493   11.71010  0.0000E+00  0.4460E-04  0.7373E-05  0.8324E-04  0.1581E-01 -0.4512E-01
   -0.169992   11.71621  0.0000E+00  0.3252E-04  0.3575E-05  0.8287E-04  0.1234E-01 -0.9817E-02
   -0.212491   11.72180  0.0000E+00  0.2375E-04  0.1763E-05  0.8517E-04  0.9580E-02  0.3448E+00
   -0.254990   11.72702  0.0000E+00  0.1742E-04  0.8600E-06  0.9046E-04  0.7449E-02  0.1546E+01
   -0.297490   11.73187  0.0000E+00  0.1316E-04  0.4434E-06  0.9928E-04  0.5853E-02  0.1786E+02
   -0.339990   11.73624  0.0000E+00  0.1038E-04  0.2487E-06  0.1144E-03  0.4629E-02  0.7995E+03
   -0.382490   11.73997  0.0000E+00  0.8524E-05  0.1492E-06  0.1520E-03  0.3669E-02  0.3601E+03
   -0.424990   11.74294  0.0000E+00  0.7299E-05  0.9677E-07  0.1952E-03  0.2963E-02  0.1971E+02
   -0.467490   11.74528  0.0000E+00  0.6475E-05  0.6756E-07  0.2291E-03  0.2406E-02  0.2569E+02
   -0.509991   11.74723  0.0000E+00  0.5894E-05  0.4963E-07  0.2682E-03  0.1952E-02  0.2123E+02
   -0.552492   11.74881  0.0000E+00  0.5465E-05  0.3776E-07  0.3090E-03  0.1583E-02  0.3105E+02
   -0.594993   11.75013  0.0000E+00  0.5139E-05  0.2958E-07  0.3478E-03  0.1277E-02  0.7302E+01
   -0.637494   11.75127  0.0000E+00  0.4885E-05  0.2378E-07  0.3828E-03  0.1025E-02  0.4547E+01
   -0.679995   11.75226  0.0000E+00  0.4689E-05  0.1963E-07  0.4174E-03  0.8245E-03  0.1961E+02
   -0.722497   11.75315  0.0000E+00  0.4538E-05  0.1663E-07  0.4512E-03  0.6661E-03  0.3543E+02
   -0.764998   11.75394  0.0000E+00  0.4424E-05  0.1445E-07  0.4837E-03  0.5456E-03  0.1642E+01
   -0.807500   11.75466  0.0000E+00  0.4338E-05  0.1284E-07  0.5104E-03  0.4569E-03  0.1524E+01
   -0.850001   11.75534  0.0000E+00  0.4273E-05  0.1164E-07  0.5341E-03  0.3883E-03  0.1350E+01
   -0.892503   11.75597  0.0000E+00  0.4224E-05  0.1073E-07  0.5549E-03  0.3344E-03  0.2067E+01
   -0.935004   11.75657  0.0000E+00  0.4186E-05  0.1003E-07  0.5737E-03  0.2913E-03  0.1616E+01
   -0.977505   11.75715  0.0000E+00  0.4157E-05  0.9498E-08  0.5899E-03  0.2557E-03  0.1585E+01
   -1.020007   11.75771  0.0000E+00  0.4134E-05  0.9083E-08  0.6038E-03  0.2259E-03  0.1729E+01
   -1.062508   11.75824  0.0000E+00  0.4115E-05  0.8761E-08  0.6151E-03  0.2001E-03  0.1898E+01
   -1.105009   11.75877  0.0000E+00  0.4097E-05  0.8515E-08  0.6234E-03  0.1773E-03  0.2124E+01
   -1.147510   11.75929  0.0000E+00  0.4081E-05  0.8335E-08  0.6288E-03  0.1565E-03  0.2370E+01
   -1.190011   11.75980  0.0000E+00  0.4066E-05  0.8217E-08  0.6307E-03  0.1369E-03  0.2617E+01
   -1.232512   11.76030  0.0000E+00  0.4049E-05  0.8151E-08  0.6289E-03  0.1188E-03  0.2951E+01
   -1.275012   11.76081  0.0000E+00  0.4031E-05  0.8139E-08  0.6231E-03  0.1028E-03  0.3706E+01
   -1.317512   11.76132  0.0000E+00  0.4011E-05  0.8189E-08  0.6124E-03  0.8876E-04  0.4801E+01
   -1.360013   11.76184  0.0000E+00  0.3986E-05  0.8314E-08  0.5956E-03  0.7645E-04  0.6367E+01
   -1.402512   11.76237  0.0000E+00  0.3955E-05  0.8545E-08  0.5714E-03  0.6583E-04  0.9160E+01
   -1.445012   11.76292  0.0000E+00  0.3920E-05  0.8896E-08  0.5407E-03  0.5617E-04  0.1351E+02
   -1.487511   11.76350  0.0000E+00  0.3881E-05  0.9415E-08  0.5076E-03  0.4693E-04  0.1689E+02
   -1.530010   11.76413  0.0000E+00  0.3830E-05  0.1034E-07  0.4412E-03  0.3806E-04  0.2124E+02
   -1.572509   11.76485  0.0000E+00  0.3740E-05  0.1252E-07  0.4446E-03  0.2990E-04  0.3128E+02
   -1.615007   11.76557  0.0000E+00  0.3416E-05  0.2335E-07  0.2159E-03  0.2469E-04 -0.2861E+07
   -1.657505   11.76906  0.0000E+00  0.2227E-05  0.7766E-07  0.4082E-04  0.1716E-04 -0.2148E+05
   -1.700002   11.77848  0.0000E+00  0.0000E+00  0.0000E+00  0.0000E+00  0.1895E-04  0.0000E+00
