 1 - depth, m
 2 - temperature, C
 3 - salinity, kg/kg
 4 - turbulent kinetic energy, m**2/s**2
 5 - dissipation rate, m**2/s**3
 6 - kinematic heat conductance, m**2/s
 7 - modulus of horizontal velocity, m/s
 8 - Richardson number, n/d
   -0.000000   10.87912  0.0000E+00  0.1391E-03  0.5355E-04  0.7555E-04  0.1033E+00 -0.1833E-01
   -0.042497   10.93350  0.0000E+00  0.7573E-04  0.1725E-04  0.9326E-04  0.2805E-01 -0.3447E-01
   -0.084995   10.94339  0.0000E+00  0.5318E-04  0.8084E-05  0.8603E-04  0.1925E-01 -0.5025E-01
   -0.127493   10.95137  0.0000E+00  0.3876E-04  0.4157E-05  0.8383E-04  0.1472E-01 -0.5264E-01
   -0.169992   10.95825  0.0000E+00  0.2868E-04  0.2218E-05  0.8472E-04  0.1146E-01  0.7678E-01
   -0.212491   10.96455  0.0000E+00  0.2138E-04  0.1174E-05  0.8846E-04  0.8911E-02  0.5619E+00
   -0.254990   10.97034  0.0000E+00  0.1613E-04  0.6183E-06  0.9662E-04  0.6961E-02  0.8730E+00
   -0.297489   10.97554  0.0000E+00  0.1246E-04  0.3324E-06  0.1143E-03  0.5518E-02  0.2982E+02
   -0.339989   10.97999  0.0000E+00  0.9967E-05  0.1899E-06  0.1422E-03  0.4425E-02  0.2067E+03
   -0.382489   10.98372  0.0000E+00  0.8262E-05  0.1176E-06  0.1707E-03  0.3563E-02  0.3017E+02
   -0.424989   10.98683  0.0000E+00  0.7100E-05  0.7761E-07  0.1999E-03  0.2905E-02  0.5778E+01
   -0.467490   10.98946  0.0000E+00  0.6289E-05  0.5394E-07  0.2326E-03  0.2359E-02  0.6939E+01
   -0.509990   10.99166  0.0000E+00  0.5713E-05  0.3927E-07  0.2716E-03  0.1906E-02  0.1080E+03
   -0.552491   10.99349  0.0000E+00  0.5299E-05  0.2990E-07  0.3141E-03  0.1533E-02  0.8800E+01
   -0.594992   10.99501  0.0000E+00  0.4997E-05  0.2374E-07  0.3555E-03  0.1223E-02  0.1469E+02
   -0.637493   10.99630  0.0000E+00  0.4772E-05  0.1949E-07  0.3935E-03  0.9709E-03  0.7826E+01
   -0.679994   10.99741  0.0000E+00  0.4605E-05  0.1651E-07  0.4306E-03  0.7733E-03  0.1335E+02
   -0.722495   10.99838  0.0000E+00  0.4481E-05  0.1440E-07  0.4647E-03  0.6203E-03  0.2255E+02
   -0.764997   10.99926  0.0000E+00  0.4390E-05  0.1286E-07  0.4940E-03  0.5058E-03  0.1757E+01
   -0.807498   11.00006  0.0000E+00  0.4321E-05  0.1170E-07  0.5195E-03  0.4221E-03  0.1861E+01
   -0.849999   11.00081  0.0000E+00  0.4270E-05  0.1084E-07  0.5423E-03  0.3585E-03  0.1757E+01
   -0.892501   11.00152  0.0000E+00  0.4230E-05  0.1018E-07  0.5616E-03  0.3096E-03  0.1169E+01
   -0.935002   11.00219  0.0000E+00  0.4197E-05  0.9658E-08  0.5777E-03  0.2710E-03  0.1259E+01
   -0.977504   11.00283  0.0000E+00  0.4169E-05  0.9241E-08  0.5917E-03  0.2391E-03  0.1366E+01
   -1.020005   11.00346  0.0000E+00  0.4144E-05  0.8904E-08  0.6035E-03  0.2123E-03  0.1541E+01
   -1.062506   11.00405  0.0000E+00  0.4120E-05  0.8633E-08  0.6131E-03  0.1889E-03  0.1703E+01
   -1.105007   11.00463  0.0000E+00  0.4096E-05  0.8418E-08  0.6201E-03  0.1681E-03  0.1895E+01
   -1.147508   11.00519  0.0000E+00  0.4073E-05  0.8258E-08  0.6244E-03  0.1490E-03  0.2105E+01
   -1.190009   11.00573  0.0000E+00  0.4050E-05  0.8150E-08  0.6250E-03  0.1310E-03  0.2314E+01
   -1.232509   11.00626  0.0000E+00  0.4026E-05  0.8090E-08  0.6220E-03  0.1141E-03  0.2618E+01
   -1.275010   11.00679  0.0000E+00  0.4000E-05  0.8079E-08  0.6148E-03  0.9909E-04  0.3305E+01
   -1.317510   11.00731  0.0000E+00  0.3970E-05  0.8128E-08  0.6027E-03  0.8565E-04  0.4324E+01
   -1.360010   11.00785  0.0000E+00  0.3936E-05  0.8255E-08  0.5841E-03  0.7374E-04  0.5768E+01
   -1.402510   11.00839  0.0000E+00  0.3895E-05  0.8494E-08  0.5582E-03  0.6336E-04  0.8371E+01
   -1.445009   11.00895  0.0000E+00  0.3850E-05  0.8861E-08  0.5252E-03  0.5394E-04  0.1239E+02
   -1.487508   11.00953  0.0000E+00  0.3803E-05  0.9414E-08  0.4918E-03  0.4487E-04  0.1560E+02
   -1.530007   11.01015  0.0000E+00  0.3744E-05  0.1042E-07  0.4190E-03  0.3619E-04  0.1990E+02
   -1.572506   11.01087  0.0000E+00  0.3646E-05  0.1281E-07  0.4456E-03  0.2806E-04  0.2913E+02
   -1.615004   11.01157  0.0000E+00  0.3280E-05  0.2527E-07  0.1800E-03  0.2328E-04 -0.8299E+07
   -1.657502   11.01576  0.0000E+00  0.2103E-05  0.8232E-07  0.4700E-04  0.1480E-04 -0.4673E+05
   -1.699999   11.02356  0.0000E+00  0.0000E+00  0.0000E+00  0.0000E+00  0.1719E-04  0.0000E+00
