 1 - depth, m
 2 - temperature, C
 3 - salinity, kg/kg
 4 - turbulent kinetic energy, m**2/s**2
 5 - dissipation rate, m**2/s**3
 6 - kinematic heat conductance, m**2/s
 7 - modulus of horizontal velocity, m/s
 8 - Richardson number, n/d
   -0.000000    2.80099  0.0000E+00  0.9620E-04  0.5900E-03  0.4357E-04  0.6995E-01  0.3258E-02
   -0.042497    2.85755  0.0000E+00  0.5391E-04  0.3884E-03  0.6876E-04  0.2183E-01  0.7538E-02
   -0.084995    2.87378  0.0000E+00  0.3864E-04  0.2804E-03  0.6174E-04  0.1501E-01  0.1777E-01
   -0.127493    2.88805  0.0000E+00  0.2763E-04  0.1663E-03  0.5586E-04  0.1129E-01  0.5944E-01
   -0.169992    2.90173  0.0000E+00  0.1884E-04  0.5888E-04  0.5019E-04  0.8604E-02  0.8103E-01
   -0.212491    2.91653  0.0000E+00  0.1210E-04  0.4982E-05  0.4383E-04  0.6483E-02  0.2124E+00
   -0.254990    2.93461  0.0000E+00  0.8036E-05  0.3721E-06  0.3655E-04  0.4850E-02  0.1122E+01
   -0.297489    2.96560  0.0000E+00  0.5323E-05  0.1508E-06  0.2890E-04  0.3670E-02  0.3188E+02
   -0.339989    3.07107  0.0000E+00  0.3524E-05  0.7711E-07  0.2224E-04  0.2772E-02  0.9928E+03
   -0.382489    3.20556  0.0000E+00  0.2339E-05  0.4077E-07  0.1801E-04  0.2050E-02  0.5953E+04
   -0.424989    3.37579  0.0000E+00  0.1592E-05  0.2228E-07  0.4757E-04  0.1522E-02  0.1693E+05
   -0.467490    3.57414  0.0000E+00  0.1125E-05  0.1249E-07  0.7656E-04  0.1070E-02  0.1705E+05
   -0.509990    3.69220  0.0000E+00  0.8136E-06  0.7114E-08  0.9567E-04  0.7371E-03  0.7504E+05
   -0.552491    3.77615  0.0000E+00  0.6007E-06  0.4067E-08  0.1146E-03  0.4856E-03  0.3192E+05
   -0.594992    3.85698  0.0000E+00  0.4602E-06  0.2298E-08  0.1304E-03  0.2857E-03  0.3237E+05
   -0.637493    3.93486  0.0000E+00  0.3679E-06  0.1277E-08  0.1457E-03  0.1518E-03  0.2342E+06
   -0.679994    3.98547  0.0000E+00  0.3112E-06  0.7070E-09  0.1571E-03  0.7854E-04  0.3886E+06
   -0.722496    4.03180  0.0000E+00  0.2851E-06  0.4092E-09  0.1669E-03  0.3552E-04  0.5957E+06
   -0.764997    4.06521  0.0000E+00  0.2786E-06  0.2693E-09  0.1772E-03  0.1615E-04  0.1172E+07
   -0.807498    4.08007  0.0000E+00  0.2788E-06  0.2026E-09  0.1877E-03  0.8786E-05  0.3764E+06
   -0.850000    4.08846  0.0000E+00  0.2819E-06  0.1705E-09  0.1965E-03  0.5029E-05  0.3113E+08
   -0.892501    4.09388  0.0000E+00  0.2866E-06  0.1553E-09  0.2041E-03  0.2985E-05  0.3965E+07
   -0.935003    4.09793  0.0000E+00  0.2919E-06  0.1485E-09  0.2106E-03  0.1898E-05  0.2215E+07
   -0.977504    4.10129  0.0000E+00  0.2973E-06  0.1458E-09  0.2162E-03  0.1284E-05  0.1382E+07
   -1.020005    4.10426  0.0000E+00  0.3025E-06  0.1452E-09  0.2207E-03  0.9360E-06  0.1479E+07
   -1.062506    4.10700  0.0000E+00  0.3072E-06  0.1455E-09  0.2279E-03  0.7096E-06  0.9859E+08
   -1.105007    4.10953  0.0000E+00  0.3115E-06  0.1466E-09  0.2331E-03  0.5521E-06  0.3011E+09
   -1.147508    4.11193  0.0000E+00  0.3152E-06  0.1481E-09  0.2328E-03  0.4352E-06  0.1811E+09
   -1.190009    4.11431  0.0000E+00  0.3184E-06  0.1501E-09  0.2345E-03  0.3342E-06  0.8033E+09
   -1.232510    4.11661  0.0000E+00  0.3211E-06  0.1525E-09  0.2380E-03  0.2516E-06  0.1247E+08
   -1.275010    4.11887  0.0000E+00  0.3234E-06  0.1556E-09  0.2362E-03  0.1878E-06  0.1887E+10
   -1.317510    4.12110  0.0000E+00  0.3254E-06  0.1596E-09  0.2217E-03  0.1396E-06  0.2390E+08
   -1.360010    4.12348  0.0000E+00  0.3270E-06  0.1647E-09  0.2282E-03  0.1015E-06  0.2965E+08
   -1.402510    4.12576  0.0000E+00  0.3282E-06  0.1716E-09  0.2170E-03  0.7557E-07  0.1354E+11
   -1.445010    4.12810  0.0000E+00  0.3287E-06  0.1802E-09  0.1998E-03  0.5601E-07  0.7667E+08
   -1.487509    4.13067  0.0000E+00  0.3286E-06  0.1913E-09  0.1884E-03  0.3875E-07  0.1094E+09
   -1.530008    4.13337  0.0000E+00  0.3274E-06  0.2085E-09  0.1730E-03  0.2443E-07  0.1478E+09
   -1.572506    4.13631  0.0000E+00  0.3241E-06  0.2458E-09  0.1454E-03  0.1425E-07  0.3062E+09
   -1.615004    4.13982  0.0000E+00  0.3121E-06  0.3765E-09  0.9883E-04  0.8745E-08  0.1275E+11
   -1.657502    4.14507  0.0000E+00  0.2269E-06  0.1518E-08  0.5511E-05  0.4709E-08 -0.6083E+13
   -1.700000    4.23338  0.0000E+00  0.0000E+00  0.0000E+00  0.0000E+00  0.4713E-08  0.0000E+00
