 1 - depth, m
 2 - temperature, C
 3 - salinity, kg/kg
 4 - turbulent kinetic energy, m**2/s**2
 5 - dissipation rate, m**2/s**3
 6 - kinematic heat conductance, m**2/s
 7 - modulus of horizontal velocity, m/s
 8 - Richardson number, n/d
   -0.000000    0.00000  0.0000E+00  0.3189E-13  0.5206E-16  0.1000E-09  0.0000E+00  0.9506E+16
   -0.042497    0.14544  0.0000E+00  0.3189E-13  0.5206E-16  0.1000E-09  0.0000E+00  0.9519E+16
   -0.084995    0.29721  0.0000E+00  0.3189E-13  0.5206E-16  0.1000E-09  0.0000E+00  0.9436E+16
   -0.127493    0.45449  0.0000E+00  0.3189E-13  0.5206E-16  0.1000E-09  0.0000E+00  0.8921E+16
   -0.169992    0.61036  0.0000E+00  0.3189E-13  0.5206E-16  0.1000E-09  0.0000E+00  0.8406E+16
   -0.212491    0.76454  0.0000E+00  0.3189E-13  0.5206E-16  0.1000E-09  0.0000E+00  0.7890E+16
   -0.254990    0.91667  0.0000E+00  0.3189E-13  0.5206E-16  0.1000E-09  0.0000E+00  0.7376E+16
   -0.297489    1.06645  0.0000E+00  0.3189E-13  0.5206E-16  0.1000E-09  0.0000E+00  0.6877E+16
   -0.339989    1.21376  0.0000E+00  0.3189E-13  0.5206E-16  0.1000E-09  0.0000E+00  0.6401E+16
   -0.382489    1.35862  0.0000E+00  0.3189E-13  0.5206E-16  0.1000E-09  0.0000E+00  0.5936E+16
   -0.424989    1.50086  0.0000E+00  0.3189E-13  0.5206E-16  0.1000E-09  0.0000E+00  0.5500E+16
   -0.467490    1.64065  0.0000E+00  0.3189E-13  0.5206E-16  0.1000E-09  0.0000E+00  0.5077E+16
   -0.509990    1.77786  0.0000E+00  0.3189E-13  0.5206E-16  0.1000E-09  0.0000E+00  0.4694E+16
   -0.552491    1.91310  0.0000E+00  0.3189E-13  0.5206E-16  0.1000E-09  0.0000E+00  0.4327E+16
   -0.594992    2.04640  0.0000E+00  0.3189E-13  0.5206E-16  0.1000E-09  0.0000E+00  0.3968E+16
   -0.637493    2.17754  0.0000E+00  0.3189E-13  0.5206E-16  0.1000E-09  0.0000E+00  0.3615E+16
   -0.679994    2.30620  0.0000E+00  0.3189E-13  0.5206E-16  0.1000E-09  0.0000E+00  0.3273E+16
   -0.722496    2.43208  0.0000E+00  0.3189E-13  0.5206E-16  0.1000E-09  0.0000E+00  0.2937E+16
   -0.764997    2.55469  0.0000E+00  0.3189E-13  0.5206E-16  0.1000E-09  0.0000E+00  0.2610E+16
   -0.807499    2.67347  0.0000E+00  0.9689E-13  0.5206E-16  0.1000E-09  0.0000E+00  0.2306E+16
   -0.850000    2.78841  0.0000E+00  0.2978E-12  0.7328E-16  0.1000E-09  0.0000E+00  0.2020E+16
   -0.892501    2.89927  0.0000E+00  0.7007E-12  0.1390E-15  0.1000E-09  0.0000E+00  0.1772E+16
   -0.935003    3.00696  0.0000E+00  0.1477E-11  0.2733E-15  0.1000E-09  0.0000E+00  0.1553E+16
   -0.977504    3.11239  0.0000E+00  0.2988E-11  0.5344E-15  0.1000E-09  0.0000E+00  0.1344E+16
   -1.020005    3.21532  0.0000E+00  0.5921E-11  0.1033E-14  0.1000E-09  0.0000E+00  0.1147E+16
   -1.062507    3.31573  0.0000E+00  0.1159E-10  0.1979E-14  0.1000E-09  0.0000E+00  0.9607E+15
   -1.105008    3.41340  0.0000E+00  0.2250E-10  0.3763E-14  0.1000E-09  0.0000E+00  0.7887E+15
   -1.147509    3.50843  0.0000E+00  0.4302E-10  0.7049E-14  0.1000E-09  0.0000E+00  0.6295E+15
   -1.190009    3.60090  0.0000E+00  0.8159E-10  0.1310E-13  0.1000E-09  0.0000E+00  0.4794E+15
   -1.232510    3.69023  0.0000E+00  0.1575E-09  0.2478E-13  0.2315E-09  0.0000E+00  0.3363E+15
   -1.275010    3.77440  0.0000E+00  0.3075E-09  0.4741E-13  0.6936E-09  0.0000E+00  0.2147E+15
   -1.317511    3.85374  0.0000E+00  0.6044E-09  0.9139E-13  0.2510E-08  0.0000E+00  0.1142E+15
   -1.360011    3.93137  0.0000E+00  0.1187E-08  0.1763E-12  0.2428E-07  0.0000E+00  0.2256E+14
   -1.402510    3.99832  0.0000E+00  0.1783E-08  0.2666E-12  0.5234E-05  0.0000E+00 -0.4205E+12
   -1.445010    4.00039  0.0000E+00  0.2068E-08  0.3217E-12  0.5657E-05  0.0000E+00 -0.4501E+12
   -1.487509    4.00230  0.0000E+00  0.2269E-08  0.3782E-12  0.5645E-05  0.0000E+00 -0.5117E+12
   -1.530008    4.00423  0.0000E+00  0.2407E-08  0.4538E-12  0.5134E-05  0.0000E+00 -0.6466E+12
   -1.572507    4.00640  0.0000E+00  0.2483E-08  0.6056E-12  0.3912E-05  0.0000E+00 -0.1062E+13
   -1.615005    4.00953  0.0000E+00  0.2405E-08  0.1121E-11  0.1606E-05  0.0000E+00 -0.3473E+13
   -1.657502    4.01766  0.0000E+00  0.1966E-08  0.2763E-11  0.3462E-06  0.0000E+00 -0.2653E+14
   -1.700000    4.05243  0.0000E+00  0.0000E+00  0.0000E+00  0.0000E+00  0.0000E+00  0.0000E+00
