 1 - depth, m
 2 - temperature, C
 3 - salinity, kg/kg
 4 - turbulent kinetic energy, m**2/s**2
 5 - dissipation rate, m**2/s**3
 6 - kinematic heat conductance, m**2/s
 7 - modulus of horizontal velocity, m/s
 8 - Richardson number, n/d
   -0.000000    0.00000  0.0000E+00  0.1676E-08  0.3153E-11  0.2241E-09  0.0000E+00  0.4632E+17
   -0.042500    0.78021  0.0000E+00  0.9532E-08  0.2716E-11  0.3292E-09  0.0000E+00  0.2518E+17
   -0.085000    1.31589  0.0000E+00  0.2471E-07  0.4087E-11  0.9033E-09  0.0000E+00  0.1322E+17
   -0.127501    1.65853  0.0000E+00  0.5109E-07  0.7277E-11  0.2775E-08  0.0000E+00  0.7743E+16
   -0.170002    1.89213  0.0000E+00  0.9704E-07  0.1345E-10  0.9314E-08  0.0000E+00  0.4527E+16
   -0.212503    2.04257  0.0000E+00  0.1738E-06  0.2458E-10  0.5840E-07  0.0000E+00  0.1681E+16
   -0.255005    2.09839  0.0000E+00  0.1797E-06  0.2656E-10  0.4276E-03  0.0000E+00  0.1515E+15
   -0.297507    2.10212  0.0000E+00  0.1839E-06  0.2815E-10  0.4387E-03  0.0000E+00  0.1802E+14
   -0.340009    2.10299  0.0000E+00  0.1913E-06  0.3050E-10  0.4353E-03  0.0000E+00  0.1703E+15
   -0.382512    2.11540  0.0000E+00  0.2157E-06  0.3879E-10  0.4342E-03  0.0000E+00  0.2646E+15
   -0.425015    2.14842  0.0000E+00  0.2420E-06  0.4811E-10  0.4278E-03  0.0000E+00  0.7312E+15
   -0.467518    2.20006  0.0000E+00  0.2678E-06  0.5841E-10  0.2217E-03  0.0000E+00  0.1753E+16
   -0.510021    2.28822  0.0000E+00  0.2700E-06  0.6822E-10  0.8945E-04  0.0000E+00  0.3287E+16
   -0.552524    2.43820  0.0000E+00  0.2663E-06  0.8036E-10  0.1259E-03  0.0000E+00  0.4523E+16
   -0.595028    2.64374  0.0000E+00  0.2757E-06  0.9152E-10  0.1642E-03  0.0000E+00  0.4718E+16
   -0.637531    2.87304  0.0000E+00  0.2918E-06  0.1009E-09  0.2025E-03  0.0000E+00  0.3714E+16
   -0.680035    3.07462  0.0000E+00  0.3097E-06  0.1089E-09  0.2347E-03  0.0000E+00  0.2890E+16
   -0.722539    3.24661  0.0000E+00  0.3259E-06  0.1156E-09  0.2602E-03  0.0000E+00  0.1855E+16
   -0.765043    3.36908  0.0000E+00  0.3402E-06  0.1217E-09  0.2777E-03  0.0000E+00  0.8566E+15
   -0.807547    3.43448  0.0000E+00  0.3543E-06  0.1281E-09  0.2888E-03  0.0000E+00  0.5114E+15
   -0.850051    3.47877  0.0000E+00  0.3692E-06  0.1351E-09  0.2968E-03  0.0000E+00  0.3493E+15
   -0.892555    3.51472  0.0000E+00  0.3849E-06  0.1429E-09  0.3052E-03  0.0000E+00  0.2741E+15
   -0.935059    3.55036  0.0000E+00  0.4017E-06  0.1517E-09  0.3115E-03  0.0000E+00  0.5219E+15
   -0.977562    3.60595  0.0000E+00  0.4217E-06  0.1626E-09  0.3157E-03  0.0000E+00  0.5457E+15
   -1.020066    3.66720  0.0000E+00  0.4421E-06  0.1743E-09  0.3235E-03  0.0000E+00  0.7107E+15
   -1.062570    3.74315  0.0000E+00  0.4627E-06  0.1868E-09  0.3378E-03  0.0000E+00  0.7361E+15
   -1.105074    3.82447  0.0000E+00  0.4827E-06  0.1997E-09  0.3448E-03  0.0000E+00  0.8454E+15
   -1.147577    3.91748  0.0000E+00  0.5009E-06  0.2123E-09  0.3480E-03  0.0000E+00  0.8526E+15
   -1.190080    4.01894  0.0000E+00  0.5150E-06  0.2233E-09  0.3533E-03  0.0000E+00  0.5604E+15
   -1.232584    4.10710  0.0000E+00  0.5240E-06  0.2325E-09  0.3604E-03  0.0000E+00  0.1754E+15
   -1.275087    4.15667  0.0000E+00  0.5281E-06  0.2403E-09  0.3516E-03  0.0000E+00  0.6149E+13
   -1.317589    4.16771  0.0000E+00  0.5301E-06  0.2489E-09  0.3444E-03  0.0000E+00 -0.4911E+13
   -1.360092    4.16951  0.0000E+00  0.5316E-06  0.2597E-09  0.3334E-03  0.0000E+00 -0.5071E+13
   -1.402594    4.17132  0.0000E+00  0.5325E-06  0.2742E-09  0.3165E-03  0.0000E+00 -0.5246E+13
   -1.445096    4.17319  0.0000E+00  0.5326E-06  0.2915E-09  0.2983E-03  0.0000E+00 -0.5753E+13
   -1.487598    4.17518  0.0000E+00  0.5319E-06  0.3131E-09  0.2807E-03  0.0000E+00 -0.6266E+13
   -1.530099    4.17732  0.0000E+00  0.5300E-06  0.3461E-09  0.2557E-03  0.0000E+00 -0.7042E+13
   -1.572600    4.17967  0.0000E+00  0.5250E-06  0.4171E-09  0.2079E-03  0.0000E+00 -0.8731E+13
   -1.615101    4.18253  0.0000E+00  0.5074E-06  0.6651E-09  0.1433E-03  0.0000E+00 -0.1336E+14
   -1.657601    4.18695  0.0000E+00  0.3648E-06  0.3184E-08  0.6669E-05  0.0000E+00 -0.3185E+15
   -1.700101    4.27156  0.0000E+00  0.0000E+00  0.0000E+00  0.0000E+00  0.0000E+00  0.0000E+00
