 1 - depth, m
 2 - temperature, C
 3 - salinity, kg/kg
 4 - turbulent kinetic energy, m**2/s**2
 5 - dissipation rate, m**2/s**3
 6 - kinematic heat conductance, m**2/s
 7 - modulus of horizontal velocity, m/s
 8 - Richardson number, n/d
   -0.000000    0.00000  0.0000E+00  0.3189E-13  0.5207E-16  0.1000E-09  0.0000E+00  0.1304E+17
   -0.042497    0.20107  0.0000E+00  0.3189E-13  0.5207E-16  0.1000E-09  0.0000E+00  0.1271E+17
   -0.084995    0.40857  0.0000E+00  0.3189E-13  0.5207E-16  0.1000E-09  0.0000E+00  0.1223E+17
   -0.127493    0.62116  0.0000E+00  0.3189E-13  0.5207E-16  0.1000E-09  0.0000E+00  0.1130E+17
   -0.169991    0.83099  0.0000E+00  0.3189E-13  0.5207E-16  0.1000E-09  0.0000E+00  0.1036E+17
   -0.212490    1.03720  0.0000E+00  0.3189E-13  0.5207E-16  0.1000E-09  0.0000E+00  0.9430E+16
   -0.254989    1.23904  0.0000E+00  0.3189E-13  0.5207E-16  0.1000E-09  0.0000E+00  0.8516E+16
   -0.297488    1.43567  0.0000E+00  0.3189E-13  0.5207E-16  0.1000E-09  0.0000E+00  0.7618E+16
   -0.339988    1.62605  0.0000E+00  0.3189E-13  0.5207E-16  0.1000E-09  0.0000E+00  0.6749E+16
   -0.382488    1.80914  0.0000E+00  0.3189E-13  0.5207E-16  0.1000E-09  0.0000E+00  0.5926E+16
   -0.424988    1.98420  0.0000E+00  0.3189E-13  0.5207E-16  0.1000E-09  0.0000E+00  0.5159E+16
   -0.467488    2.15064  0.0000E+00  0.3189E-13  0.5207E-16  0.1000E-09  0.0000E+00  0.4454E+16
   -0.509988    2.30798  0.0000E+00  0.3189E-13  0.5207E-16  0.1000E-09  0.0000E+00  0.3860E+16
   -0.552489    2.45776  0.0000E+00  0.3189E-13  0.5207E-16  0.1000E-09  0.0000E+00  0.3325E+16
   -0.594990    2.60005  0.0000E+00  0.3189E-13  0.5207E-16  0.1000E-09  0.0000E+00  0.2845E+16
   -0.637491    2.73488  0.0000E+00  0.3189E-13  0.5207E-16  0.1000E-09  0.0000E+00  0.2417E+16
   -0.679992    2.86237  0.0000E+00  0.3189E-13  0.5207E-16  0.1000E-09  0.0000E+00  0.2031E+16
   -0.722493    2.98219  0.0000E+00  0.3189E-13  0.5207E-16  0.1000E-09  0.0000E+00  0.1685E+16
   -0.764994    3.09392  0.0000E+00  0.3189E-13  0.5207E-16  0.1000E-09  0.0000E+00  0.1375E+16
   -0.807495    3.19690  0.0000E+00  0.3189E-13  0.5207E-16  0.1000E-09  0.0000E+00  0.1105E+16
   -0.849997    3.29075  0.0000E+00  0.3189E-13  0.5207E-16  0.1000E-09  0.0000E+00  0.8715E+15
   -0.892498    3.37500  0.0000E+00  0.3189E-13  0.5207E-16  0.1000E-09  0.0000E+00  0.6957E+15
   -0.934999    3.45182  0.0000E+00  0.3189E-13  0.5207E-16  0.1000E-09  0.0000E+00  0.5602E+15
   -0.977500    3.52291  0.0000E+00  0.3189E-13  0.5207E-16  0.1000E-09  0.0000E+00  0.4441E+15
   -1.020001    3.58827  0.0000E+00  0.3189E-13  0.5207E-16  0.1000E-09  0.0000E+00  0.3453E+15
   -1.062502    3.64777  0.0000E+00  0.3189E-13  0.5207E-16  0.1000E-09  0.0000E+00  0.2633E+15
   -1.105003    3.70140  0.0000E+00  0.3189E-13  0.5207E-16  0.1000E-09  0.0000E+00  0.1967E+15
   -1.147504    3.74930  0.0000E+00  0.3239E-13  0.5207E-16  0.1000E-09  0.0000E+00  0.1439E+15
   -1.190005    3.79169  0.0000E+00  0.1114E-12  0.5917E-16  0.1000E-09  0.0000E+00  0.1015E+15
   -1.232505    3.82832  0.0000E+00  0.3439E-12  0.1400E-15  0.1000E-09  0.0000E+00  0.6620E+14
   -1.275005    3.85771  0.0000E+00  0.9554E-12  0.3700E-15  0.1000E-09  0.0000E+00  0.4272E+14
   -1.317506    3.88094  0.0000E+00  0.2586E-11  0.9904E-15  0.1022E-09  0.0000E+00  0.3325E+14
   -1.360005    3.90342  0.0000E+00  0.7021E-11  0.2687E-14  0.2924E-09  0.0000E+00  0.2536E+14
   -1.402505    3.92596  0.0000E+00  0.1927E-10  0.7430E-14  0.1112E-08  0.0000E+00  0.1734E+14
   -1.445004    3.94841  0.0000E+00  0.5025E-10  0.1979E-13  0.4752E-08  0.0000E+00  0.9219E+13
   -1.487503    3.97003  0.0000E+00  0.1285E-09  0.5336E-13  0.2631E-07  0.0000E+00  0.2025E+13
   -1.530002    3.98981  0.0000E+00  0.3356E-09  0.1635E-12  0.1464E-06  0.0000E+00 -0.2687E+13
   -1.572500    4.00522  0.0000E+00  0.8022E-09  0.5246E-12  0.4008E-06  0.0000E+00 -0.7030E+13
   -1.614998    4.02175  0.0000E+00  0.1615E-08  0.1595E-11  0.5245E-06  0.0000E+00 -0.1587E+14
   -1.657496    4.04361  0.0000E+00  0.2358E-08  0.4478E-11  0.3927E-06  0.0000E+00 -0.5816E+14
   -1.699993    4.08983  0.0000E+00  0.0000E+00  0.0000E+00  0.0000E+00  0.0000E+00  0.0000E+00
