 1 - depth, m
 2 - temperature, C
 3 - salinity, kg/kg
 4 - turbulent kinetic energy, m**2/s**2
 5 - dissipation rate, m**2/s**3
 6 - kinematic heat conductance, m**2/s
 7 - modulus of horizontal velocity, m/s
 8 - Richardson number, n/d
   -0.000000    0.00000  0.0000E+00  0.3189E-13  0.5207E-16  0.1000E-09  0.0000E+00  0.1200E+17
   -0.042497    0.18455  0.0000E+00  0.3189E-13  0.5207E-16  0.1000E-09  0.0000E+00  0.1180E+17
   -0.084995    0.37593  0.0000E+00  0.3189E-13  0.5207E-16  0.1000E-09  0.0000E+00  0.1148E+17
   -0.127493    0.57297  0.0000E+00  0.3189E-13  0.5207E-16  0.1000E-09  0.0000E+00  0.1055E+17
   -0.169991    0.76541  0.0000E+00  0.3189E-13  0.5207E-16  0.1000E-09  0.0000E+00  0.9663E+16
   -0.212490    0.95290  0.0000E+00  0.3657E-13  0.5207E-16  0.1000E-09  0.0000E+00  0.8794E+16
   -0.254989    1.13481  0.0000E+00  0.1714E-12  0.5207E-16  0.1000E-09  0.0000E+00  0.7956E+16
   -0.297489    1.31056  0.0000E+00  0.4452E-12  0.6582E-16  0.1000E-09  0.0000E+00  0.7190E+16
   -0.339988    1.48047  0.0000E+00  0.8934E-12  0.1027E-15  0.1000E-09  0.0000E+00  0.6510E+16
   -0.382488    1.64539  0.0000E+00  0.1615E-11  0.1685E-15  0.1000E-09  0.0000E+00  0.5869E+16
   -0.424988    1.80517  0.0000E+00  0.2777E-11  0.2768E-15  0.1000E-09  0.0000E+00  0.5310E+16
   -0.467489    1.96100  0.0000E+00  0.4652E-11  0.4516E-15  0.1000E-09  0.0000E+00  0.4782E+16
   -0.509989    2.11276  0.0000E+00  0.7697E-11  0.7327E-15  0.1000E-09  0.0000E+00  0.4347E+16
   -0.552490    2.26267  0.0000E+00  0.1266E-10  0.1184E-14  0.1000E-09  0.0000E+00  0.3937E+16
   -0.594991    2.41108  0.0000E+00  0.2072E-10  0.1908E-14  0.1000E-09  0.0000E+00  0.3534E+16
   -0.637492    2.55774  0.0000E+00  0.3411E-10  0.3091E-14  0.1000E-09  0.0000E+00  0.3135E+16
   -0.679993    2.70211  0.0000E+00  0.5629E-10  0.5022E-14  0.1000E-09  0.0000E+00  0.2748E+16
   -0.722494    2.84393  0.0000E+00  0.9317E-10  0.8185E-14  0.1000E-09  0.0000E+00  0.2370E+16
   -0.764995    2.98256  0.0000E+00  0.1547E-09  0.1339E-13  0.1000E-09  0.0000E+00  0.2007E+16
   -0.807497    3.11738  0.0000E+00  0.2570E-09  0.2190E-13  0.1000E-09  0.0000E+00  0.1672E+16
   -0.849998    3.24858  0.0000E+00  0.4229E-09  0.3551E-13  0.1000E-09  0.0000E+00  0.1360E+16
   -0.892499    3.37606  0.0000E+00  0.6935E-09  0.5739E-13  0.1658E-09  0.0000E+00  0.1089E+16
   -0.935001    3.50196  0.0000E+00  0.1127E-08  0.9191E-13  0.3452E-09  0.0000E+00  0.8375E+15
   -0.977502    3.62802  0.0000E+00  0.1820E-08  0.1464E-12  0.7863E-09  0.0000E+00  0.5856E+15
   -1.020003    3.75400  0.0000E+00  0.2922E-08  0.2317E-12  0.2187E-08  0.0000E+00  0.3332E+15
   -1.062504    3.87886  0.0000E+00  0.4644E-08  0.3632E-12  0.1270E-07  0.0000E+00  0.8989E+14
   -1.105005    3.99525  0.0000E+00  0.5060E-08  0.3974E-12  0.2437E-04  0.0000E+00 -0.1065E+12
   -1.147506    3.99598  0.0000E+00  0.5257E-08  0.4162E-12  0.2676E-04  0.0000E+00 -0.1048E+12
   -1.190007    3.99665  0.0000E+00  0.5423E-08  0.4349E-12  0.2812E-04  0.0000E+00 -0.1071E+12
   -1.232507    3.99729  0.0000E+00  0.5565E-08  0.4540E-12  0.2846E-04  0.0000E+00 -0.1140E+12
   -1.275008    3.99793  0.0000E+00  0.5687E-08  0.4742E-12  0.2863E-04  0.0000E+00 -0.1216E+12
   -1.317508    3.99858  0.0000E+00  0.5795E-08  0.4967E-12  0.2848E-04  0.0000E+00 -0.1294E+12
   -1.360008    3.99924  0.0000E+00  0.5893E-08  0.5237E-12  0.2797E-04  0.0000E+00 -0.1394E+12
   -1.402507    3.99991  0.0000E+00  0.5985E-08  0.5589E-12  0.2706E-04  0.0000E+00 -0.1523E+12
   -1.445007    4.00061  0.0000E+00  0.6062E-08  0.6038E-12  0.2580E-04  0.0000E+00 -0.1686E+12
   -1.487506    4.00134  0.0000E+00  0.6114E-08  0.6636E-12  0.2278E-04  0.0000E+00 -0.2025E+12
   -1.530004    4.00218  0.0000E+00  0.6131E-08  0.7586E-12  0.1879E-04  0.0000E+00 -0.2664E+12
   -1.572503    4.00321  0.0000E+00  0.6075E-08  0.9770E-12  0.1330E-04  0.0000E+00 -0.4416E+12
   -1.615001    4.00481  0.0000E+00  0.5674E-08  0.1916E-11  0.4553E-05  0.0000E+00 -0.1652E+13
   -1.657499    4.00983  0.0000E+00  0.4181E-08  0.6176E-11  0.5960E-06  0.0000E+00 -0.2457E+14
   -1.699996    4.04706  0.0000E+00  0.0000E+00  0.0000E+00  0.0000E+00  0.0000E+00  0.0000E+00
