 1 - depth, m
 2 - temperature, C
 3 - salinity, kg/kg
 4 - turbulent kinetic energy, m**2/s**2
 5 - dissipation rate, m**2/s**3
 6 - kinematic heat conductance, m**2/s
 7 - modulus of horizontal velocity, m/s
 8 - Richardson number, n/d
   -0.000000   11.97042  0.0000E+00  0.6482E-03  0.9288E-03  0.7806E-04  0.2896E+00 -0.3110E-02
   -0.042498   12.02536  0.0000E+00  0.3328E-03  0.3031E-03  0.2885E-03  0.6182E-01 -0.2383E-01
   -0.084995   12.03653  0.0000E+00  0.2351E-03  0.1547E-03  0.2281E-03  0.3995E-01 -0.3969E-01
   -0.127494   12.04385  0.0000E+00  0.1761E-03  0.8029E-04  0.2051E-03  0.3253E-01 -0.3088E+00
   -0.169992   12.04943  0.0000E+00  0.1329E-03  0.3801E-04  0.1902E-03  0.2700E-01 -0.2953E-01
   -0.212491   12.05443  0.0000E+00  0.1015E-03  0.1987E-04  0.1831E-03  0.2230E-01 -0.2123E+01
   -0.254991   12.05897  0.0000E+00  0.7755E-04  0.9712E-05  0.1816E-03  0.1851E-01 -0.4954E+00
   -0.297490   12.06362  0.0000E+00  0.6092E-04  0.5268E-05  0.1826E-03  0.1552E-01  0.7291E+00
   -0.339990   12.06781  0.0000E+00  0.4931E-04  0.3145E-05  0.1860E-03  0.1315E-01  0.3246E+03
   -0.382491   12.07142  0.0000E+00  0.4091E-04  0.2026E-05  0.1927E-03  0.1112E-01  0.2802E+02
   -0.424991   12.07455  0.0000E+00  0.3464E-04  0.1368E-05  0.1999E-03  0.9538E-02  0.1180E+02
   -0.467492   12.07722  0.0000E+00  0.2976E-04  0.9478E-06  0.2104E-03  0.8163E-02  0.1832E+02
   -0.509992   12.07964  0.0000E+00  0.2589E-04  0.6703E-06  0.2233E-03  0.6974E-02  0.1101E+02
   -0.552493   12.08176  0.0000E+00  0.2272E-04  0.4824E-06  0.2382E-03  0.5942E-02  0.2508E+02
   -0.594994   12.08370  0.0000E+00  0.2008E-04  0.3567E-06  0.2590E-03  0.5022E-02  0.1744E+02
   -0.637496   12.08542  0.0000E+00  0.1782E-04  0.2709E-06  0.2866E-03  0.4222E-02  0.3376E+02
   -0.679997   12.08696  0.0000E+00  0.1589E-04  0.2099E-06  0.3174E-03  0.3557E-02  0.2111E+02
   -0.722498   12.08834  0.0000E+00  0.1423E-04  0.1650E-06  0.3528E-03  0.3001E-02  0.5599E+02
   -0.765000   12.08958  0.0000E+00  0.1281E-04  0.1309E-06  0.3904E-03  0.2550E-02  0.7570E+02
   -0.807502   12.09069  0.0000E+00  0.1157E-04  0.1045E-06  0.4321E-03  0.2190E-02  0.1573E+02
   -0.850003   12.09169  0.0000E+00  0.1053E-04  0.8426E-07  0.4658E-03  0.1892E-02  0.3165E+02
   -0.892505   12.09261  0.0000E+00  0.9627E-05  0.6845E-07  0.4941E-03  0.1640E-02  0.3105E+02
   -0.935006   12.09345  0.0000E+00  0.8865E-05  0.5623E-07  0.5195E-03  0.1428E-02  0.2207E+02
   -0.977508   12.09424  0.0000E+00  0.8219E-05  0.4672E-07  0.5434E-03  0.1243E-02  0.6252E+01
   -1.020009   12.09497  0.0000E+00  0.7671E-05  0.3931E-07  0.5616E-03  0.1085E-02  0.6573E+01
   -1.062510   12.09565  0.0000E+00  0.7206E-05  0.3353E-07  0.5753E-03  0.9436E-03  0.3126E+02
   -1.105012   12.09630  0.0000E+00  0.6809E-05  0.2900E-07  0.5857E-03  0.8187E-03  0.6694E+01
   -1.147513   12.09692  0.0000E+00  0.6477E-05  0.2554E-07  0.5909E-03  0.7040E-03  0.5708E+01
   -1.190014   12.09752  0.0000E+00  0.6197E-05  0.2293E-07  0.5921E-03  0.5952E-03  0.1002E+02
   -1.232515   12.09810  0.0000E+00  0.5953E-05  0.2093E-07  0.5930E-03  0.4941E-03  0.5826E+01
   -1.275015   12.09867  0.0000E+00  0.5737E-05  0.1943E-07  0.5891E-03  0.4087E-03  0.9633E+01
   -1.317516   12.09923  0.0000E+00  0.5547E-05  0.1836E-07  0.5793E-03  0.3382E-03  0.5792E+01
   -1.360016   12.09980  0.0000E+00  0.5374E-05  0.1767E-07  0.5636E-03  0.2812E-03  0.1584E+02
   -1.402516   12.10037  0.0000E+00  0.5210E-05  0.1738E-07  0.5429E-03  0.2363E-03  0.1002E+02
   -1.445015   12.10096  0.0000E+00  0.5062E-05  0.1764E-07  0.5122E-03  0.1987E-03  0.1785E+02
   -1.487515   12.10160  0.0000E+00  0.4919E-05  0.1865E-07  0.4820E-03  0.1631E-03  0.8091E+02
   -1.530014   12.10230  0.0000E+00  0.4749E-05  0.2136E-07  0.4195E-03  0.1288E-03  0.1686E+02
   -1.572512   12.10324  0.0000E+00  0.4501E-05  0.2819E-07  0.3924E-03  0.9500E-04  0.2185E+03
   -1.615011   12.10404  0.0000E+00  0.3881E-05  0.5953E-07  0.2168E-03  0.7530E-04 -0.1769E+06
   -1.657509   12.10770  0.0000E+00  0.2508E-05  0.1673E-06  0.5118E-04  0.5096E-04 -0.7642E+05
   -1.700006   12.11669  0.0000E+00  0.0000E+00  0.0000E+00  0.0000E+00  0.6588E-04  0.0000E+00
