 1 - depth, m
 2 - temperature, C
 3 - salinity, kg/kg
 4 - turbulent kinetic energy, m**2/s**2
 5 - dissipation rate, m**2/s**3
 6 - kinematic heat conductance, m**2/s
 7 - modulus of horizontal velocity, m/s
 8 - Richardson number, n/d
   -0.000000    0.00000  0.0000E+00  0.3189E-13  0.5206E-16  0.1000E-09  0.0000E+00  0.9634E+16
   -0.042497    0.14743  0.0000E+00  0.3189E-13  0.5206E-16  0.1000E-09  0.0000E+00  0.9690E+16
   -0.084995    0.30206  0.0000E+00  0.3189E-13  0.5206E-16  0.1000E-09  0.0000E+00  0.9646E+16
   -0.127493    0.46317  0.0000E+00  0.3189E-13  0.5206E-16  0.1000E-09  0.0000E+00  0.9120E+16
   -0.169992    0.62304  0.0000E+00  0.3189E-13  0.5206E-16  0.1000E-09  0.0000E+00  0.8595E+16
   -0.212491    0.78143  0.0000E+00  0.3189E-13  0.5206E-16  0.1000E-09  0.0000E+00  0.8065E+16
   -0.254990    0.93794  0.0000E+00  0.3189E-13  0.5206E-16  0.1000E-09  0.0000E+00  0.7533E+16
   -0.297490    1.09218  0.0000E+00  0.3189E-13  0.5206E-16  0.1000E-09  0.0000E+00  0.7024E+16
   -0.339989    1.24419  0.0000E+00  0.3189E-13  0.5206E-16  0.1000E-09  0.0000E+00  0.6545E+16
   -0.382489    1.39424  0.0000E+00  0.3189E-13  0.5206E-16  0.1000E-09  0.0000E+00  0.6075E+16
   -0.424990    1.54211  0.0000E+00  0.3189E-13  0.5206E-16  0.1000E-09  0.0000E+00  0.5638E+16
   -0.467490    1.68821  0.0000E+00  0.3189E-13  0.5206E-16  0.1000E-09  0.0000E+00  0.5209E+16
   -0.509991    1.83233  0.0000E+00  0.3189E-13  0.5206E-16  0.1000E-09  0.0000E+00  0.4815E+16
   -0.552492    1.97508  0.0000E+00  0.3189E-13  0.5206E-16  0.1000E-09  0.0000E+00  0.4432E+16
   -0.594993    2.11640  0.0000E+00  0.3189E-13  0.5206E-16  0.1000E-09  0.0000E+00  0.4049E+16
   -0.637494    2.25590  0.0000E+00  0.1265E-12  0.5206E-16  0.1000E-09  0.0000E+00  0.3663E+16
   -0.679995    2.39290  0.0000E+00  0.3589E-12  0.7147E-16  0.1000E-09  0.0000E+00  0.3284E+16
   -0.722497    2.52695  0.0000E+00  0.7925E-12  0.1263E-15  0.1000E-09  0.0000E+00  0.2910E+16
   -0.764998    2.65723  0.0000E+00  0.1591E-11  0.2345E-15  0.1000E-09  0.0000E+00  0.2544E+16
   -0.807499    2.78295  0.0000E+00  0.3072E-11  0.4361E-15  0.1000E-09  0.0000E+00  0.2209E+16
   -0.850001    2.90412  0.0000E+00  0.5768E-11  0.7993E-15  0.1000E-09  0.0000E+00  0.1897E+16
   -0.892502    3.02047  0.0000E+00  0.1072E-10  0.1455E-14  0.1000E-09  0.0000E+00  0.1629E+16
   -0.935004    3.13320  0.0000E+00  0.1965E-10  0.2617E-14  0.1000E-09  0.0000E+00  0.1397E+16
   -0.977505    3.24358  0.0000E+00  0.3573E-10  0.4670E-14  0.1000E-09  0.0000E+00  0.1175E+16
   -1.020006    3.35130  0.0000E+00  0.6446E-10  0.8274E-14  0.1000E-09  0.0000E+00  0.9676E+15
   -1.062508    3.45637  0.0000E+00  0.1155E-09  0.1456E-13  0.1000E-09  0.0000E+00  0.7722E+15
   -1.105009    3.55853  0.0000E+00  0.2057E-09  0.2546E-13  0.1352E-09  0.0000E+00  0.5923E+15
   -1.147510    3.65793  0.0000E+00  0.3617E-09  0.4398E-13  0.3248E-09  0.0000E+00  0.4260E+15
   -1.190011    3.75460  0.0000E+00  0.6314E-09  0.7544E-13  0.8767E-09  0.0000E+00  0.2706E+15
   -1.232511    3.84759  0.0000E+00  0.1120E-08  0.1314E-12  0.3201E-08  0.0000E+00  0.1291E+15
   -1.275012    3.93352  0.0000E+00  0.1982E-08  0.2290E-12  0.3519E-07  0.0000E+00  0.2046E+14
   -1.317512    3.99984  0.0000E+00  0.2521E-08  0.2934E-12  0.9868E-05  0.0000E+00 -0.2583E+12
   -1.360012    4.00101  0.0000E+00  0.2791E-08  0.3321E-12  0.1037E-04  0.0000E+00 -0.2672E+12
   -1.402512    4.00213  0.0000E+00  0.3030E-08  0.3750E-12  0.1047E-04  0.0000E+00 -0.2856E+12
   -1.445011    4.00324  0.0000E+00  0.3215E-08  0.4205E-12  0.1018E-04  0.0000E+00 -0.3150E+12
   -1.487511    4.00439  0.0000E+00  0.3343E-08  0.4721E-12  0.9518E-05  0.0000E+00 -0.3625E+12
   -1.530010    4.00563  0.0000E+00  0.3423E-08  0.5474E-12  0.8313E-05  0.0000E+00 -0.4583E+12
   -1.572508    4.00709  0.0000E+00  0.3437E-08  0.7099E-12  0.6182E-05  0.0000E+00 -0.7493E+12
   -1.615006    4.00927  0.0000E+00  0.3227E-08  0.1323E-11  0.2329E-05  0.0000E+00 -0.2596E+13
   -1.657504    4.01562  0.0000E+00  0.2491E-08  0.3521E-11  0.4092E-06  0.0000E+00 -0.2516E+14
   -1.700002    4.05013  0.0000E+00  0.0000E+00  0.0000E+00  0.0000E+00  0.0000E+00  0.0000E+00
