 1 - depth, m
 2 - temperature, C
 3 - salinity, kg/kg
 4 - turbulent kinetic energy, m**2/s**2
 5 - dissipation rate, m**2/s**3
 6 - kinematic heat conductance, m**2/s
 7 - modulus of horizontal velocity, m/s
 8 - Richardson number, n/d
   -0.000000    0.00000  0.0000E+00  0.2430E-11  0.7695E-15  0.1000E-09  0.0000E+00  0.2036E+17
   -0.042497    0.31907  0.0000E+00  0.4327E-11  0.7109E-15  0.1000E-09  0.0000E+00  0.1786E+17
   -0.084993    0.62552  0.0000E+00  0.8078E-11  0.9230E-15  0.1000E-09  0.0000E+00  0.1562E+17
   -0.127491    0.92011  0.0000E+00  0.1433E-10  0.1395E-14  0.1000E-09  0.0000E+00  0.1338E+17
   -0.169988    1.19847  0.0000E+00  0.2442E-10  0.2213E-14  0.1000E-09  0.0000E+00  0.1143E+17
   -0.212486    1.46155  0.0000E+00  0.4069E-10  0.3557E-14  0.1000E-09  0.0000E+00  0.9712E+16
   -0.254985    1.71002  0.0000E+00  0.6709E-10  0.5735E-14  0.1000E-09  0.0000E+00  0.8207E+16
   -0.297483    1.94438  0.0000E+00  0.1100E-09  0.9243E-14  0.1000E-09  0.0000E+00  0.6903E+16
   -0.339982    2.16557  0.0000E+00  0.1783E-09  0.1476E-13  0.1000E-09  0.0000E+00  0.5781E+16
   -0.382481    2.37479  0.0000E+00  0.2873E-09  0.2345E-13  0.1000E-09  0.0000E+00  0.4802E+16
   -0.424981    2.57263  0.0000E+00  0.4595E-09  0.3700E-13  0.1000E-09  0.0000E+00  0.3969E+16
   -0.467480    2.76064  0.0000E+00  0.7305E-09  0.5801E-13  0.1000E-09  0.0000E+00  0.3239E+16
   -0.509980    2.93936  0.0000E+00  0.1157E-08  0.9060E-13  0.1143E-09  0.0000E+00  0.2644E+16
   -0.552480    3.11244  0.0000E+00  0.1829E-08  0.1412E-12  0.2107E-09  0.0000E+00  0.2111E+16
   -0.594980    3.28102  0.0000E+00  0.2882E-08  0.2193E-12  0.4248E-09  0.0000E+00  0.1626E+16
   -0.637480    3.44615  0.0000E+00  0.4568E-08  0.3426E-12  0.9131E-09  0.0000E+00  0.1181E+16
   -0.679981    3.60958  0.0000E+00  0.7254E-08  0.5362E-12  0.2239E-08  0.0000E+00  0.7555E+15
   -0.722481    3.77323  0.0000E+00  0.1151E-07  0.8391E-12  0.8859E-08  0.0000E+00  0.3278E+15
   -0.764982    3.93521  0.0000E+00  0.1533E-07  0.1114E-11  0.2455E-04  0.0000E+00  0.3240E+14
   -0.807482    4.00604  0.0000E+00  0.1565E-07  0.1140E-11  0.7918E-04  0.0000E+00 -0.9812E+11
   -0.849983    4.00637  0.0000E+00  0.1584E-07  0.1157E-11  0.7750E-04  0.0000E+00 -0.1033E+12
   -0.892483    4.00670  0.0000E+00  0.1602E-07  0.1175E-11  0.7776E-04  0.0000E+00 -0.1053E+12
   -0.934984    4.00704  0.0000E+00  0.1619E-07  0.1195E-11  0.7807E-04  0.0000E+00 -0.1064E+12
   -0.977484    4.00737  0.0000E+00  0.1636E-07  0.1216E-11  0.7824E-04  0.0000E+00 -0.1077E+12
   -1.019985    4.00770  0.0000E+00  0.1651E-07  0.1239E-11  0.7824E-04  0.0000E+00 -0.1092E+12
   -1.062485    4.00803  0.0000E+00  0.1665E-07  0.1264E-11  0.7807E-04  0.0000E+00 -0.1109E+12
   -1.104985    4.00836  0.0000E+00  0.1678E-07  0.1290E-11  0.7800E-04  0.0000E+00 -0.1123E+12
   -1.147485    4.00869  0.0000E+00  0.1688E-07  0.1317E-11  0.8174E-04  0.0000E+00 -0.1080E+12
   -1.189985    4.00900  0.0000E+00  0.1697E-07  0.1346E-11  0.8187E-04  0.0000E+00 -0.1093E+12
   -1.232485    4.00932  0.0000E+00  0.1705E-07  0.1378E-11  0.7741E-04  0.0000E+00 -0.1184E+12
   -1.274985    4.00965  0.0000E+00  0.1712E-07  0.1418E-11  0.7589E-04  0.0000E+00 -0.1234E+12
   -1.317484    4.00998  0.0000E+00  0.1718E-07  0.1466E-11  0.7267E-04  0.0000E+00 -0.1302E+12
   -1.359983    4.01034  0.0000E+00  0.1722E-07  0.1525E-11  0.7030E-04  0.0000E+00 -0.1368E+12
   -1.402482    4.01070  0.0000E+00  0.1725E-07  0.1604E-11  0.6751E-04  0.0000E+00 -0.1449E+12
   -1.444981    4.01108  0.0000E+00  0.1726E-07  0.1697E-11  0.6445E-04  0.0000E+00 -0.1542E+12
   -1.487479    4.01148  0.0000E+00  0.1725E-07  0.1813E-11  0.6069E-04  0.0000E+00 -0.1671E+12
   -1.529977    4.01190  0.0000E+00  0.1720E-07  0.1991E-11  0.5550E-04  0.0000E+00 -0.1902E+12
   -1.572475    4.01238  0.0000E+00  0.1706E-07  0.2416E-11  0.4408E-04  0.0000E+00 -0.2660E+12
   -1.614972    4.01304  0.0000E+00  0.1631E-07  0.4458E-11  0.1429E-04  0.0000E+00 -0.9495E+12
   -1.657469    4.01525  0.0000E+00  0.1187E-07  0.1908E-10  0.1209E-05  0.0000E+00 -0.1819E+14
   -1.699965    4.04261  0.0000E+00  0.0000E+00  0.0000E+00  0.0000E+00  0.0000E+00  0.0000E+00
