 1 - depth, m
 2 - temperature, C
 3 - salinity, kg/kg
 4 - turbulent kinetic energy, m**2/s**2
 5 - dissipation rate, m**2/s**3
 6 - kinematic heat conductance, m**2/s
 7 - modulus of horizontal velocity, m/s
 8 - Richardson number, n/d
   -0.000000    0.00000  0.0000E+00  0.3189E-13  0.5207E-16  0.1000E-09  0.0000E+00  0.2065E+17
   -0.042496    0.32378  0.0000E+00  0.3189E-13  0.5207E-16  0.1000E-09  0.0000E+00  0.1821E+17
   -0.084993    0.63694  0.0000E+00  0.3189E-13  0.5207E-16  0.1000E-09  0.0000E+00  0.1591E+17
   -0.127490    0.93835  0.0000E+00  0.3189E-13  0.5207E-16  0.1000E-09  0.0000E+00  0.1355E+17
   -0.169987    1.22230  0.0000E+00  0.3189E-13  0.5207E-16  0.1000E-09  0.0000E+00  0.1147E+17
   -0.212485    1.48902  0.0000E+00  0.3189E-13  0.5207E-16  0.1000E-09  0.0000E+00  0.9661E+16
   -0.254983    1.73924  0.0000E+00  0.3189E-13  0.5207E-16  0.1000E-09  0.0000E+00  0.8086E+16
   -0.297481    1.97344  0.0000E+00  0.3189E-13  0.5207E-16  0.1000E-09  0.0000E+00  0.6691E+16
   -0.339980    2.19103  0.0000E+00  0.3189E-13  0.5207E-16  0.1000E-09  0.0000E+00  0.5462E+16
   -0.382479    2.39120  0.0000E+00  0.4919E-13  0.5207E-16  0.1000E-09  0.0000E+00  0.4418E+16
   -0.424978    2.57433  0.0000E+00  0.1222E-12  0.5207E-16  0.1000E-09  0.0000E+00  0.3531E+16
   -0.467477    2.74037  0.0000E+00  0.2914E-12  0.5658E-16  0.1000E-09  0.0000E+00  0.2795E+16
   -0.509977    2.88993  0.0000E+00  0.5937E-12  0.6975E-16  0.1000E-09  0.0000E+00  0.2234E+16
   -0.552476    3.02638  0.0000E+00  0.1061E-11  0.1014E-15  0.1000E-09  0.0000E+00  0.1775E+16
   -0.594976    3.15078  0.0000E+00  0.1769E-11  0.1551E-15  0.1000E-09  0.0000E+00  0.1402E+16
   -0.637476    3.26428  0.0000E+00  0.2871E-11  0.2414E-15  0.1000E-09  0.0000E+00  0.1105E+16
   -0.679976    3.36845  0.0000E+00  0.4601E-11  0.3775E-15  0.1000E-09  0.0000E+00  0.8580E+15
   -0.722476    3.46362  0.0000E+00  0.7341E-11  0.5921E-15  0.1000E-09  0.0000E+00  0.6570E+15
   -0.764977    3.55046  0.0000E+00  0.1172E-10  0.9320E-15  0.1000E-09  0.0000E+00  0.4921E+15
   -0.807477    3.62920  0.0000E+00  0.1871E-10  0.1469E-14  0.1000E-09  0.0000E+00  0.3560E+15
   -0.849977    3.69942  0.0000E+00  0.2961E-10  0.2298E-14  0.1000E-09  0.0000E+00  0.2480E+15
   -0.892477    3.76097  0.0000E+00  0.4675E-10  0.3588E-14  0.1007E-09  0.0000E+00  0.1695E+15
   -0.934978    3.81540  0.0000E+00  0.7326E-10  0.5561E-14  0.1594E-09  0.0000E+00  0.1111E+15
   -0.977478    3.86360  0.0000E+00  0.1143E-09  0.8585E-14  0.4074E-09  0.0000E+00  0.6737E+14
   -1.019978    3.90586  0.0000E+00  0.1776E-09  0.1320E-13  0.1209E-08  0.0000E+00  0.3538E+14
   -1.062478    3.94201  0.0000E+00  0.2744E-09  0.2020E-13  0.5193E-08  0.0000E+00  0.1383E+14
   -1.104978    3.97179  0.0000E+00  0.4106E-09  0.3010E-13  0.2126E-06  0.0000E+00  0.2047E+13
   -1.147478    3.98872  0.0000E+00  0.5467E-09  0.4060E-13  0.2057E-05  0.0000E+00 -0.8244E+11
   -1.189977    3.99035  0.0000E+00  0.6473E-09  0.5013E-13  0.2616E-05  0.0000E+00 -0.9645E+11
   -1.232477    3.99165  0.0000E+00  0.7432E-09  0.6124E-13  0.2946E-05  0.0000E+00 -0.1118E+12
   -1.274976    3.99285  0.0000E+00  0.8378E-09  0.7485E-13  0.3101E-05  0.0000E+00 -0.1323E+12
   -1.317475    3.99403  0.0000E+00  0.9332E-09  0.9232E-13  0.3121E-05  0.0000E+00 -0.1622E+12
   -1.359974    3.99527  0.0000E+00  0.1032E-08  0.1161E-12  0.3016E-05  0.0000E+00 -0.2087E+12
   -1.402473    3.99665  0.0000E+00  0.1139E-08  0.1506E-12  0.2739E-05  0.0000E+00 -0.2832E+12
   -1.444971    3.99827  0.0000E+00  0.1247E-08  0.1992E-12  0.2360E-05  0.0000E+00 -0.4006E+12
   -1.487469    4.00024  0.0000E+00  0.1364E-08  0.2744E-12  0.1954E-05  0.0000E+00 -0.6149E+12
   -1.529967    4.00282  0.0000E+00  0.1534E-08  0.4259E-12  0.1590E-05  0.0000E+00 -0.1168E+13
   -1.572464    4.00685  0.0000E+00  0.1864E-08  0.8314E-12  0.1376E-05  0.0000E+00 -0.3286E+13
   -1.614961    4.01531  0.0000E+00  0.2465E-08  0.2156E-11  0.8648E-06  0.0000E+00 -0.1211E+14
   -1.657458    4.03517  0.0000E+00  0.3124E-08  0.6099E-11  0.4901E-06  0.0000E+00 -0.6026E+14
   -1.699954    4.08676  0.0000E+00  0.0000E+00  0.0000E+00  0.0000E+00  0.0000E+00  0.0000E+00
