 1 - depth, m
 2 - temperature, C
 3 - salinity, kg/kg
 4 - turbulent kinetic energy, m**2/s**2
 5 - dissipation rate, m**2/s**3
 6 - kinematic heat conductance, m**2/s
 7 - modulus of horizontal velocity, m/s
 8 - Richardson number, n/d
   -0.000000    7.30031  0.0000E+00  0.1259E-03  0.5480E-04  0.5964E-04  0.1014E+00  0.4321E-02
   -0.042497    7.35637  0.0000E+00  0.6853E-04  0.1594E-04  0.7948E-04  0.2871E-01 -0.3451E-01
   -0.084995    7.36605  0.0000E+00  0.4728E-04  0.6610E-05  0.7379E-04  0.1954E-01 -0.1414E-01
   -0.127493    7.37460  0.0000E+00  0.3394E-04  0.3009E-05  0.7266E-04  0.1477E-01 -0.2300E-01
   -0.169992    7.38244  0.0000E+00  0.2474E-04  0.1477E-05  0.7275E-04  0.1135E-01 -0.3940E-01
   -0.212490    7.38992  0.0000E+00  0.1813E-04  0.7593E-06  0.7349E-04  0.8684E-02  0.1101E+00
   -0.254990    7.39715  0.0000E+00  0.1342E-04  0.4130E-06  0.7552E-04  0.6650E-02 -0.7383E-02
   -0.297489    7.40414  0.0000E+00  0.1017E-04  0.2402E-06  0.7910E-04  0.5142E-02  0.1636E+01
   -0.339989    7.41071  0.0000E+00  0.7996E-05  0.1481E-06  0.8542E-04  0.4012E-02  0.2644E+00
   -0.382489    7.41663  0.0000E+00  0.6499E-05  0.9511E-07  0.9752E-04  0.3136E-02  0.1856E+01
   -0.424989    7.42172  0.0000E+00  0.5476E-05  0.6357E-07  0.1189E-03  0.2479E-02  0.8712E+01
   -0.467489    7.42593  0.0000E+00  0.4762E-05  0.4418E-07  0.1556E-03  0.1953E-02  0.3074E+02
   -0.509990    7.42922  0.0000E+00  0.4257E-05  0.3190E-07  0.2007E-03  0.1544E-02  0.5855E+02
   -0.552491    7.43174  0.0000E+00  0.3891E-05  0.2394E-07  0.2360E-03  0.1232E-02  0.2763E+02
   -0.594991    7.43382  0.0000E+00  0.3616E-05  0.1859E-07  0.2658E-03  0.9811E-03  0.2131E+02
   -0.637492    7.43558  0.0000E+00  0.3404E-05  0.1485E-07  0.2951E-03  0.7790E-03  0.2028E+02
   -0.679994    7.43711  0.0000E+00  0.3240E-05  0.1221E-07  0.3194E-03  0.6230E-03  0.4235E+02
   -0.722495    7.43847  0.0000E+00  0.3112E-05  0.1030E-07  0.3431E-03  0.5012E-03  0.2500E+01
   -0.764996    7.43972  0.0000E+00  0.3014E-05  0.8904E-08  0.3645E-03  0.4094E-03  0.4020E+01
   -0.807497    7.44086  0.0000E+00  0.2938E-05  0.7858E-08  0.3843E-03  0.3411E-03  0.2123E+01
   -0.849999    7.44193  0.0000E+00  0.2880E-05  0.7072E-08  0.4024E-03  0.2880E-03  0.5392E+01
   -0.892500    7.44294  0.0000E+00  0.2835E-05  0.6464E-08  0.4200E-03  0.2457E-03  0.2326E+01
   -0.935001    7.44388  0.0000E+00  0.2800E-05  0.5993E-08  0.4362E-03  0.2118E-03  0.1416E+02
   -0.977503    7.44478  0.0000E+00  0.2773E-05  0.5622E-08  0.4512E-03  0.1836E-03  0.3307E+01
   -1.020004    7.44564  0.0000E+00  0.2751E-05  0.5325E-08  0.4647E-03  0.1600E-03  0.4332E+01
   -1.062505    7.44646  0.0000E+00  0.2732E-05  0.5088E-08  0.4765E-03  0.1398E-03  0.4328E+01
   -1.105006    7.44725  0.0000E+00  0.2717E-05  0.4899E-08  0.4863E-03  0.1222E-03  0.4914E+01
   -1.147507    7.44801  0.0000E+00  0.2702E-05  0.4751E-08  0.4939E-03  0.1064E-03  0.5526E+01
   -1.190008    7.44875  0.0000E+00  0.2690E-05  0.4642E-08  0.4990E-03  0.9166E-04  0.6166E+01
   -1.232508    7.44947  0.0000E+00  0.2677E-05  0.4562E-08  0.5014E-03  0.7815E-04  0.7042E+01
   -1.275009    7.45018  0.0000E+00  0.2664E-05  0.4510E-08  0.5012E-03  0.6640E-04  0.9042E+01
   -1.317509    7.45089  0.0000E+00  0.2650E-05  0.4486E-08  0.4979E-03  0.5625E-04  0.1196E+02
   -1.360009    7.45159  0.0000E+00  0.2635E-05  0.4495E-08  0.4904E-03  0.4751E-04  0.1610E+02
   -1.402509    7.45230  0.0000E+00  0.2617E-05  0.4546E-08  0.4783E-03  0.4013E-04  0.2334E+02
   -1.445008    7.45301  0.0000E+00  0.2597E-05  0.4644E-08  0.4623E-03  0.3360E-04  0.3430E+02
   -1.487507    7.45375  0.0000E+00  0.2577E-05  0.4807E-08  0.4408E-03  0.2751E-04  0.4202E+02
   -1.530006    7.45451  0.0000E+00  0.2552E-05  0.5105E-08  0.4097E-03  0.2181E-04  0.4942E+02
   -1.572504    7.45532  0.0000E+00  0.2509E-05  0.5809E-08  0.3454E-03  0.1689E-04  0.8905E+02
   -1.615003    7.45629  0.0000E+00  0.2392E-05  0.8214E-08  0.2652E-03  0.1331E-04  0.3564E+03
   -1.657500    7.45756  0.0000E+00  0.1649E-05  0.2989E-07  0.1435E-04  0.1064E-04 -0.1186E+06
   -1.699998    7.48060  0.0000E+00  0.0000E+00  0.0000E+00  0.0000E+00  0.1066E-04  0.0000E+00
