 1 - depth, m
 2 - temperature, C
 3 - salinity, kg/kg
 4 - turbulent kinetic energy, m**2/s**2
 5 - dissipation rate, m**2/s**3
 6 - kinematic heat conductance, m**2/s
 7 - modulus of horizontal velocity, m/s
 8 - Richardson number, n/d
   -0.000000   12.26157  0.0000E+00  0.7001E-03  0.1643E-02  0.9507E-04  0.3118E+00 -0.1460E-02
   -0.042497   12.34236  0.0000E+00  0.3408E-03  0.5400E-03  0.2592E-03  0.6708E-01 -0.1489E-01
   -0.084995   12.35692  0.0000E+00  0.2383E-03  0.2768E-03  0.2249E-03  0.4114E-01  0.1844E-01
   -0.127493   12.36596  0.0000E+00  0.1763E-03  0.1512E-03  0.1834E-03  0.3290E-01 -0.3614E-01
   -0.169992   12.37319  0.0000E+00  0.1298E-03  0.7430E-04  0.1629E-03  0.2687E-01 -0.1258E+00
   -0.212490   12.37962  0.0000E+00  0.9628E-04  0.3821E-04  0.1532E-03  0.2174E-01  0.1106E-01
   -0.254990   12.38592  0.0000E+00  0.7079E-04  0.1881E-04  0.1520E-03  0.1758E-01  0.9399E+01
   -0.297489   12.39207  0.0000E+00  0.5396E-04  0.9634E-05  0.1549E-03  0.1442E-01  0.1048E+02
   -0.339989   12.39730  0.0000E+00  0.4242E-04  0.5010E-05  0.1612E-03  0.1200E-01  0.3250E+02
   -0.382489   12.40169  0.0000E+00  0.3428E-04  0.2628E-05  0.1728E-03  0.9919E-02  0.3201E+03
   -0.424989   12.40541  0.0000E+00  0.2852E-04  0.1438E-05  0.1849E-03  0.8405E-02  0.1841E+02
   -0.467489   12.40859  0.0000E+00  0.2432E-04  0.8544E-06  0.2022E-03  0.7033E-02  0.4124E+03
   -0.509990   12.41162  0.0000E+00  0.2115E-04  0.5603E-06  0.2243E-03  0.5859E-02  0.1804E+03
   -0.552491   12.41411  0.0000E+00  0.1865E-04  0.3946E-06  0.2501E-03  0.4914E-02  0.4236E+02
   -0.594991   12.41635  0.0000E+00  0.1661E-04  0.2924E-06  0.2818E-03  0.4106E-02  0.1581E+03
   -0.637492   12.41823  0.0000E+00  0.1489E-04  0.2233E-06  0.3152E-03  0.3431E-02  0.3913E+02
   -0.679994   12.41989  0.0000E+00  0.1344E-04  0.1742E-06  0.3501E-03  0.2883E-02  0.2150E+02
   -0.722495   12.42132  0.0000E+00  0.1219E-04  0.1379E-06  0.3901E-03  0.2432E-02  0.3199E+01
   -0.764996   12.42259  0.0000E+00  0.1113E-04  0.1104E-06  0.4284E-03  0.2068E-02  0.5966E+02
   -0.807497   12.42369  0.0000E+00  0.1021E-04  0.8896E-07  0.4655E-03  0.1779E-02  0.1184E+03
   -0.849999   12.42469  0.0000E+00  0.9426E-05  0.7239E-07  0.5009E-03  0.1540E-02  0.4999E+03
   -0.892500   12.42560  0.0000E+00  0.8764E-05  0.5949E-07  0.5360E-03  0.1339E-02  0.6523E+03
   -0.935001   12.42643  0.0000E+00  0.8210E-05  0.4953E-07  0.5608E-03  0.1171E-02  0.2439E+02
   -0.977503   12.42722  0.0000E+00  0.7743E-05  0.4173E-07  0.5845E-03  0.1023E-02  0.1320E+02
   -1.020004   12.42796  0.0000E+00  0.7352E-05  0.3568E-07  0.6040E-03  0.8967E-03  0.1114E+02
   -1.062505   12.42868  0.0000E+00  0.7026E-05  0.3100E-07  0.6199E-03  0.7841E-03  0.1083E+02
   -1.105006   12.42938  0.0000E+00  0.6750E-05  0.2736E-07  0.6307E-03  0.6839E-03  0.5345E+01
   -1.147507   12.43007  0.0000E+00  0.6520E-05  0.2461E-07  0.6353E-03  0.5910E-03  0.4410E+01
   -1.190008   12.43077  0.0000E+00  0.6324E-05  0.2257E-07  0.6354E-03  0.5019E-03  0.5028E+01
   -1.232508   12.43148  0.0000E+00  0.6149E-05  0.2105E-07  0.6347E-03  0.4182E-03  0.5822E+01
   -1.275009   12.43220  0.0000E+00  0.5990E-05  0.1996E-07  0.6276E-03  0.3468E-03  0.6619E+01
   -1.317509   12.43294  0.0000E+00  0.5845E-05  0.1928E-07  0.6133E-03  0.2876E-03  0.8706E+01
   -1.360009   12.43369  0.0000E+00  0.5708E-05  0.1899E-07  0.5910E-03  0.2395E-03  0.1181E+02
   -1.402509   12.43448  0.0000E+00  0.5573E-05  0.1917E-07  0.5630E-03  0.2017E-03  0.1759E+02
   -1.445008   12.43532  0.0000E+00  0.5446E-05  0.2003E-07  0.5245E-03  0.1703E-03  0.2772E+02
   -1.487507   12.43627  0.0000E+00  0.5310E-05  0.2198E-07  0.4911E-03  0.1402E-03  0.3636E+02
   -1.530006   12.43737  0.0000E+00  0.5130E-05  0.2648E-07  0.4127E-03  0.1103E-03  0.3902E+02
   -1.572504   12.43892  0.0000E+00  0.4855E-05  0.3751E-07  0.4242E-03  0.7963E-04  0.6766E+03
   -1.615003   12.44004  0.0000E+00  0.4136E-05  0.9326E-07  0.1831E-03  0.6304E-04 -0.2410E+07
   -1.657500   12.44742  0.0000E+00  0.2690E-05  0.2450E-06  0.6789E-04  0.3920E-04 -0.1559E+07
   -1.699998   12.45652  0.0000E+00  0.0000E+00  0.0000E+00  0.0000E+00  0.5737E-04  0.0000E+00
