 1 - depth, m
 2 - temperature, C
 3 - salinity, kg/kg
 4 - turbulent kinetic energy, m**2/s**2
 5 - dissipation rate, m**2/s**3
 6 - kinematic heat conductance, m**2/s
 7 - modulus of horizontal velocity, m/s
 8 - Richardson number, n/d
   -0.000000   16.67960  0.0000E+00  0.5012E-04  0.1431E-04  0.3762E-04  0.4579E-01 -0.1044E+00
   -0.042497   16.73244  0.0000E+00  0.2783E-04  0.4072E-05  0.5886E-04  0.1490E-01  0.1064E+02
   -0.084995   16.74560  0.0000E+00  0.1987E-04  0.1819E-05  0.8016E-04  0.9914E-02  0.5427E+01
   -0.127493   16.75442  0.0000E+00  0.1494E-04  0.8813E-06  0.1018E-03  0.7185E-02  0.2405E+02
   -0.169992   16.76129  0.0000E+00  0.1165E-04  0.4467E-06  0.1290E-03  0.5309E-02  0.4389E+01
   -0.212490   16.76679  0.0000E+00  0.9414E-05  0.2363E-06  0.1710E-03  0.3948E-02  0.1067E+03
   -0.254990   16.77098  0.0000E+00  0.7958E-05  0.1318E-06  0.2307E-03  0.2995E-02  0.4330E+02
   -0.297489   16.77403  0.0000E+00  0.7074E-05  0.8066E-07  0.2826E-03  0.2367E-02  0.1005E+03
   -0.339989   16.77631  0.0000E+00  0.6561E-05  0.5500E-07  0.3335E-03  0.1929E-02  0.9532E+01
   -0.382489   16.77806  0.0000E+00  0.6265E-05  0.4074E-07  0.3818E-03  0.1603E-02  0.3132E+02
   -0.424989   16.77945  0.0000E+00  0.6110E-05  0.3233E-07  0.4300E-03  0.1355E-02  0.3669E+01
   -0.467489   16.78061  0.0000E+00  0.6038E-05  0.2702E-07  0.4801E-03  0.1150E-02  0.2598E+01
   -0.509990   16.78159  0.0000E+00  0.6014E-05  0.2343E-07  0.5313E-03  0.9737E-03  0.2453E+01
   -0.552491   16.78243  0.0000E+00  0.6017E-05  0.2087E-07  0.5822E-03  0.8204E-03  0.1761E+01
   -0.594991   16.78317  0.0000E+00  0.6033E-05  0.1896E-07  0.6312E-03  0.6862E-03  0.1635E+01
   -0.637492   16.78384  0.0000E+00  0.6054E-05  0.1747E-07  0.6805E-03  0.5704E-03  0.1508E+01
   -0.679994   16.78444  0.0000E+00  0.6076E-05  0.1631E-07  0.7268E-03  0.4758E-03  0.1425E+01
   -0.722495   16.78500  0.0000E+00  0.6096E-05  0.1541E-07  0.7690E-03  0.3997E-03  0.1329E+01
   -0.764996   16.78551  0.0000E+00  0.6114E-05  0.1471E-07  0.8049E-03  0.3406E-03  0.1258E+01
   -0.807497   16.78598  0.0000E+00  0.6129E-05  0.1416E-07  0.8342E-03  0.2956E-03  0.1236E+01
   -0.849999   16.78643  0.0000E+00  0.6141E-05  0.1375E-07  0.8576E-03  0.2604E-03  0.1253E+01
   -0.892500   16.78686  0.0000E+00  0.6149E-05  0.1344E-07  0.8762E-03  0.2322E-03  0.1277E+01
   -0.935002   16.78728  0.0000E+00  0.6155E-05  0.1321E-07  0.8899E-03  0.2091E-03  0.1366E+01
   -0.977503   16.78768  0.0000E+00  0.6158E-05  0.1305E-07  0.8992E-03  0.1896E-03  0.1438E+01
   -1.020004   16.78808  0.0000E+00  0.6158E-05  0.1294E-07  0.9044E-03  0.1728E-03  0.1594E+01
   -1.062505   16.78848  0.0000E+00  0.6155E-05  0.1290E-07  0.9057E-03  0.1579E-03  0.1736E+01
   -1.105006   16.78887  0.0000E+00  0.6149E-05  0.1290E-07  0.9028E-03  0.1442E-03  0.1957E+01
   -1.147507   16.78927  0.0000E+00  0.6139E-05  0.1296E-07  0.8956E-03  0.1313E-03  0.2177E+01
   -1.190008   16.78967  0.0000E+00  0.6124E-05  0.1308E-07  0.8837E-03  0.1188E-03  0.2424E+01
   -1.232509   16.79008  0.0000E+00  0.6105E-05  0.1327E-07  0.8664E-03  0.1069E-03  0.2722E+01
   -1.275009   16.79050  0.0000E+00  0.6079E-05  0.1356E-07  0.8423E-03  0.9572E-04  0.3430E+01
   -1.317509   16.79094  0.0000E+00  0.6045E-05  0.1398E-07  0.8112E-03  0.8537E-04  0.4426E+01
   -1.360009   16.79139  0.0000E+00  0.6000E-05  0.1460E-07  0.7673E-03  0.7576E-04  0.6010E+01
   -1.402509   16.79188  0.0000E+00  0.5939E-05  0.1556E-07  0.7203E-03  0.6695E-04  0.8923E+01
   -1.445008   16.79240  0.0000E+00  0.5867E-05  0.1693E-07  0.6500E-03  0.5861E-04  0.1619E+02
   -1.487507   16.79300  0.0000E+00  0.5780E-05  0.1896E-07  0.6098E-03  0.4994E-04  0.3156E+02
   -1.530006   16.79368  0.0000E+00  0.5653E-05  0.2294E-07  0.4842E-03  0.4146E-04  0.2039E+05
   -1.572505   16.79481  0.0000E+00  0.5427E-05  0.3210E-07  0.5389E-03  0.3211E-04  0.1088E+06
   -1.615003   16.79550  0.0000E+00  0.4721E-05  0.7422E-07  0.2102E-03  0.2697E-04 -0.7929E+07
   -1.657500   16.80271  0.0000E+00  0.3122E-05  0.2247E-06  0.7686E-04  0.1741E-04 -0.3207E+06
   -1.699998   16.81083  0.0000E+00  0.0000E+00  0.0000E+00  0.0000E+00  0.2167E-04  0.0000E+00
