 1 - depth, m
 2 - temperature, C
 3 - salinity, kg/kg
 4 - turbulent kinetic energy, m**2/s**2
 5 - dissipation rate, m**2/s**3
 6 - kinematic heat conductance, m**2/s
 7 - modulus of horizontal velocity, m/s
 8 - Richardson number, n/d
   -0.000000   15.89500  0.0000E+00  0.2001E-04  0.2824E-05  0.2234E-04  0.2249E-01 -0.9110E+00
   -0.042497   15.93165  0.0000E+00  0.1286E-04  0.7470E-06  0.6570E-04  0.9338E-02  0.9782E+02
   -0.084995   15.94312  0.0000E+00  0.9879E-05  0.3125E-06  0.1029E-03  0.6080E-02  0.1180E+03
   -0.127493   15.95067  0.0000E+00  0.8109E-05  0.1570E-06  0.1430E-03  0.4220E-02  0.8158E+02
   -0.169992   15.95629  0.0000E+00  0.7018E-05  0.8990E-07  0.1833E-03  0.3019E-02  0.9619E+01
   -0.212491   15.96059  0.0000E+00  0.6351E-05  0.5728E-07  0.2395E-03  0.2211E-02  0.4138E+02
   -0.254990   15.96360  0.0000E+00  0.6006E-05  0.4132E-07  0.3284E-03  0.1689E-02  0.5700E+02
   -0.297489   15.96546  0.0000E+00  0.5852E-05  0.3288E-07  0.3793E-03  0.1398E-02  0.8941E+01
   -0.339989   15.96690  0.0000E+00  0.5786E-05  0.2754E-07  0.4269E-03  0.1184E-02  0.4431E+01
   -0.382489   15.96812  0.0000E+00  0.5770E-05  0.2385E-07  0.4746E-03  0.1013E-02  0.4200E+01
   -0.424989   15.96918  0.0000E+00  0.5783E-05  0.2116E-07  0.5233E-03  0.8736E-03  0.4253E+01
   -0.467490   15.97010  0.0000E+00  0.5810E-05  0.1912E-07  0.5734E-03  0.7518E-03  0.4234E+01
   -0.509990   15.97091  0.0000E+00  0.5843E-05  0.1751E-07  0.6235E-03  0.6437E-03  0.4214E+01
   -0.552491   15.97162  0.0000E+00  0.5878E-05  0.1624E-07  0.6726E-03  0.5482E-03  0.4259E+01
   -0.594992   15.97226  0.0000E+00  0.5910E-05  0.1522E-07  0.7193E-03  0.4638E-03  0.4317E+01
   -0.637493   15.97284  0.0000E+00  0.5939E-05  0.1439E-07  0.7641E-03  0.3909E-03  0.4417E+01
   -0.679995   15.97337  0.0000E+00  0.5963E-05  0.1372E-07  0.8050E-03  0.3309E-03  0.4726E+01
   -0.722496   15.97386  0.0000E+00  0.5981E-05  0.1318E-07  0.8407E-03  0.2823E-03  0.5160E+01
   -0.764997   15.97433  0.0000E+00  0.5993E-05  0.1274E-07  0.8703E-03  0.2441E-03  0.5772E+01
   -0.807499   15.97477  0.0000E+00  0.5999E-05  0.1238E-07  0.8947E-03  0.2145E-03  0.6665E+01
   -0.850000   15.97520  0.0000E+00  0.5999E-05  0.1209E-07  0.9139E-03  0.1909E-03  0.7635E+01
   -0.892501   15.97561  0.0000E+00  0.5993E-05  0.1185E-07  0.9287E-03  0.1718E-03  0.8652E+01
   -0.935003   15.97601  0.0000E+00  0.5982E-05  0.1166E-07  0.9391E-03  0.1560E-03  0.9928E+01
   -0.977504   15.97639  0.0000E+00  0.5967E-05  0.1152E-07  0.9455E-03  0.1424E-03  0.1107E+02
   -1.020005   15.97677  0.0000E+00  0.5947E-05  0.1140E-07  0.9482E-03  0.1307E-03  0.1249E+02
   -1.062507   15.97713  0.0000E+00  0.5923E-05  0.1133E-07  0.9474E-03  0.1200E-03  0.1371E+02
   -1.105008   15.97748  0.0000E+00  0.5894E-05  0.1128E-07  0.9427E-03  0.1101E-03  0.1509E+02
   -1.147509   15.97783  0.0000E+00  0.5862E-05  0.1128E-07  0.9341E-03  0.1006E-03  0.1654E+02
   -1.190010   15.97816  0.0000E+00  0.5827E-05  0.1132E-07  0.9209E-03  0.9134E-04  0.1785E+02
   -1.232510   15.97848  0.0000E+00  0.5788E-05  0.1142E-07  0.9022E-03  0.8240E-04  0.1973E+02
   -1.275011   15.97880  0.0000E+00  0.5745E-05  0.1160E-07  0.8770E-03  0.7405E-04  0.2406E+02
   -1.317511   15.97913  0.0000E+00  0.5694E-05  0.1187E-07  0.8442E-03  0.6624E-04  0.3037E+02
   -1.360011   15.97946  0.0000E+00  0.5635E-05  0.1230E-07  0.8004E-03  0.5899E-04  0.3929E+02
   -1.402511   15.97980  0.0000E+00  0.5564E-05  0.1296E-07  0.7501E-03  0.5231E-04  0.5554E+02
   -1.445010   15.98016  0.0000E+00  0.5485E-05  0.1391E-07  0.6805E-03  0.4596E-04  0.8204E+02
   -1.487509   15.98055  0.0000E+00  0.5401E-05  0.1530E-07  0.6367E-03  0.3944E-04  0.1020E+03
   -1.530008   15.98096  0.0000E+00  0.5294E-05  0.1787E-07  0.4990E-03  0.3304E-04  0.1194E+03
   -1.572507   15.98153  0.0000E+00  0.5121E-05  0.2381E-07  0.5936E-03  0.2616E-04  0.1037E+05
   -1.615005   15.98198  0.0000E+00  0.4488E-05  0.5350E-07  0.2078E-03  0.2253E-04 -0.8821E+07
   -1.657503   15.98640  0.0000E+00  0.2910E-05  0.1688E-06  0.7326E-04  0.1432E-04 -0.7676E+05
   -1.700000   15.99114  0.0000E+00  0.0000E+00  0.0000E+00  0.0000E+00  0.1768E-04  0.0000E+00
