 1 - depth, m
 2 - temperature, C
 3 - salinity, kg/kg
 4 - turbulent kinetic energy, m**2/s**2
 5 - dissipation rate, m**2/s**3
 6 - kinematic heat conductance, m**2/s
 7 - modulus of horizontal velocity, m/s
 8 - Richardson number, n/d
   -0.000000    0.00000  0.0000E+00  0.3189E-13  0.5207E-16  0.1000E-09  0.0000E+00  0.9611E+16
   -0.042497    0.14707  0.0000E+00  0.3189E-13  0.5207E-16  0.1000E-09  0.0000E+00  0.9610E+16
   -0.084995    0.30038  0.0000E+00  0.3189E-13  0.5207E-16  0.1000E-09  0.0000E+00  0.9532E+16
   -0.127493    0.45946  0.0000E+00  0.3189E-13  0.5207E-16  0.1000E-09  0.0000E+00  0.9006E+16
   -0.169991    0.61709  0.0000E+00  0.3189E-13  0.5207E-16  0.1000E-09  0.0000E+00  0.8487E+16
   -0.212490    0.77312  0.0000E+00  0.3189E-13  0.5207E-16  0.1000E-09  0.0000E+00  0.7969E+16
   -0.254989    0.92727  0.0000E+00  0.3189E-13  0.5207E-16  0.1000E-09  0.0000E+00  0.7453E+16
   -0.297488    1.07923  0.0000E+00  0.3189E-13  0.5207E-16  0.1000E-09  0.0000E+00  0.6957E+16
   -0.339988    1.22901  0.0000E+00  0.3189E-13  0.5207E-16  0.1000E-09  0.0000E+00  0.6489E+16
   -0.382488    1.37683  0.0000E+00  0.3189E-13  0.5207E-16  0.1000E-09  0.0000E+00  0.6031E+16
   -0.424988    1.52252  0.0000E+00  0.3189E-13  0.5207E-16  0.1000E-09  0.0000E+00  0.5603E+16
   -0.467488    1.66640  0.0000E+00  0.3189E-13  0.5207E-16  0.1000E-09  0.0000E+00  0.5184E+16
   -0.509989    1.80831  0.0000E+00  0.3189E-13  0.5207E-16  0.1000E-09  0.0000E+00  0.4799E+16
   -0.552490    1.94881  0.0000E+00  0.3189E-13  0.5207E-16  0.1000E-09  0.0000E+00  0.4424E+16
   -0.594990    2.08784  0.0000E+00  0.3189E-13  0.5207E-16  0.1000E-09  0.0000E+00  0.4050E+16
   -0.637491    2.22504  0.0000E+00  0.3189E-13  0.5207E-16  0.1000E-09  0.0000E+00  0.3675E+16
   -0.679992    2.35983  0.0000E+00  0.3213E-13  0.5207E-16  0.1000E-09  0.0000E+00  0.3307E+16
   -0.722494    2.49177  0.0000E+00  0.1149E-12  0.5207E-16  0.1000E-09  0.0000E+00  0.2943E+16
   -0.764995    2.62016  0.0000E+00  0.3377E-12  0.7107E-16  0.1000E-09  0.0000E+00  0.2589E+16
   -0.807496    2.74426  0.0000E+00  0.7634E-12  0.1280E-15  0.1000E-09  0.0000E+00  0.2261E+16
   -0.849997    2.86410  0.0000E+00  0.1544E-11  0.2402E-15  0.1000E-09  0.0000E+00  0.1956E+16
   -0.892499    2.97945  0.0000E+00  0.2999E-11  0.4511E-15  0.1000E-09  0.0000E+00  0.1693E+16
   -0.935000    3.09142  0.0000E+00  0.5682E-11  0.8362E-15  0.1000E-09  0.0000E+00  0.1464E+16
   -0.977501    3.20118  0.0000E+00  0.1065E-10  0.1539E-14  0.1000E-09  0.0000E+00  0.1244E+16
   -1.020002    3.30846  0.0000E+00  0.1980E-10  0.2813E-14  0.1000E-09  0.0000E+00  0.1037E+16
   -1.062503    3.41326  0.0000E+00  0.3657E-10  0.5108E-14  0.1000E-09  0.0000E+00  0.8412E+15
   -1.105004    3.51528  0.0000E+00  0.6721E-10  0.9233E-14  0.1000E-09  0.0000E+00  0.6597E+15
   -1.147505    3.61456  0.0000E+00  0.1220E-09  0.1649E-13  0.1102E-09  0.0000E+00  0.4912E+15
   -1.190006    3.71100  0.0000E+00  0.2202E-09  0.2926E-13  0.2759E-09  0.0000E+00  0.3331E+15
   -1.232506    3.80351  0.0000E+00  0.4045E-09  0.5287E-13  0.8800E-09  0.0000E+00  0.1883E+15
   -1.275006    3.88923  0.0000E+00  0.7521E-09  0.9670E-13  0.4253E-08  0.0000E+00  0.7070E+14
   -1.317507    3.96695  0.0000E+00  0.1318E-08  0.1682E-12  0.3222E-06  0.0000E+00  0.2371E+13
   -1.360006    3.99691  0.0000E+00  0.1806E-08  0.2352E-12  0.6095E-05  0.0000E+00 -0.3162E+12
   -1.402506    3.99875  0.0000E+00  0.2103E-08  0.2849E-12  0.6665E-05  0.0000E+00 -0.3406E+12
   -1.445005    4.00043  0.0000E+00  0.2335E-08  0.3354E-12  0.6822E-05  0.0000E+00 -0.3805E+12
   -1.487504    4.00208  0.0000E+00  0.2505E-08  0.3906E-12  0.6590E-05  0.0000E+00 -0.4458E+12
   -1.530003    4.00381  0.0000E+00  0.2623E-08  0.4682E-12  0.5856E-05  0.0000E+00 -0.5784E+12
   -1.572502    4.00582  0.0000E+00  0.2686E-08  0.6298E-12  0.4379E-05  0.0000E+00 -0.9826E+12
   -1.615000    4.00883  0.0000E+00  0.2594E-08  0.1199E-11  0.1732E-05  0.0000E+00 -0.3417E+13
   -1.657497    4.01704  0.0000E+00  0.2129E-08  0.3049E-11  0.3693E-06  0.0000E+00 -0.2767E+14
   -1.699994    4.05324  0.0000E+00  0.0000E+00  0.0000E+00  0.0000E+00  0.0000E+00  0.0000E+00
