 1 - depth, m
 2 - temperature, C
 3 - salinity, kg/kg
 4 - turbulent kinetic energy, m**2/s**2
 5 - dissipation rate, m**2/s**3
 6 - kinematic heat conductance, m**2/s
 7 - modulus of horizontal velocity, m/s
 8 - Richardson number, n/d
   -0.000000    9.70488  0.0000E+00  0.1279E-02  0.7805E-02  0.1737E-03  0.5520E+00 -0.1814E-02
   -0.042497    9.80581  0.0000E+00  0.6521E-03  0.4246E-02  0.2505E-03  0.1235E+00 -0.5137E-02
   -0.084995    9.86576  0.0000E+00  0.4221E-03  0.1157E-02  0.3045E-03  0.6834E-01 -0.1181E+00
   -0.127493    9.88489  0.0000E+00  0.3110E-03  0.4929E-03  0.2759E-03  0.5223E-01  0.2387E-01
   -0.169992    9.89371  0.0000E+00  0.2413E-03  0.2701E-03  0.2556E-03  0.4219E-01 -0.2716E-01
   -0.212490    9.90142  0.0000E+00  0.1889E-03  0.1425E-03  0.2512E-03  0.3457E-01 -0.1553E+01
   -0.254990    9.91010  0.0000E+00  0.1496E-03  0.7713E-04  0.2567E-03  0.2863E-01  0.3841E+02
   -0.297489    9.91680  0.0000E+00  0.1218E-03  0.4287E-04  0.2658E-03  0.2492E-01  0.4113E+01
   -0.339989    9.92151  0.0000E+00  0.1014E-03  0.2350E-04  0.2728E-03  0.2214E-01  0.1230E+02
   -0.382489    9.92598  0.0000E+00  0.8619E-04  0.1288E-04  0.2821E-03  0.1942E-01 -0.2492E+02
   -0.424989    9.92967  0.0000E+00  0.7476E-04  0.7276E-05  0.2888E-03  0.1741E-01  0.1957E+03
   -0.467489    9.93319  0.0000E+00  0.6595E-04  0.4357E-05  0.2981E-03  0.1533E-01  0.1268E+03
   -0.509990    9.93649  0.0000E+00  0.5891E-04  0.2797E-05  0.3078E-03  0.1345E-01  0.3395E+02
   -0.552490    9.93948  0.0000E+00  0.5310E-04  0.1916E-05  0.3179E-03  0.1180E-01  0.4911E+03
   -0.594991    9.94228  0.0000E+00  0.4813E-04  0.1391E-05  0.3311E-03  0.1029E-01  0.4739E+02
   -0.637492    9.94484  0.0000E+00  0.4373E-04  0.1056E-05  0.3484E-03  0.8962E-02  0.9317E+02
   -0.679994    9.94708  0.0000E+00  0.3985E-04  0.8299E-06  0.3651E-03  0.7879E-02  0.2736E+03
   -0.722495    9.94923  0.0000E+00  0.3638E-04  0.6676E-06  0.3851E-03  0.6949E-02  0.2887E+02
   -0.764996    9.95114  0.0000E+00  0.3328E-04  0.5456E-06  0.4111E-03  0.6180E-02 -0.5866E+01
   -0.807497    9.95291  0.0000E+00  0.3050E-04  0.4506E-06  0.4382E-03  0.5551E-02  0.3189E+02
   -0.849999    9.95453  0.0000E+00  0.2803E-04  0.3753E-06  0.4692E-03  0.5006E-02  0.1249E+04
   -0.892500    9.95604  0.0000E+00  0.2582E-04  0.3147E-06  0.4992E-03  0.4526E-02 -0.4505E+01
   -0.935001    9.95743  0.0000E+00  0.2385E-04  0.2657E-06  0.5290E-03  0.4104E-02  0.7731E+03
   -0.977503    9.95873  0.0000E+00  0.2210E-04  0.2255E-06  0.5623E-03  0.3718E-02  0.4871E+04
   -1.020004    9.95993  0.0000E+00  0.2053E-04  0.1927E-06  0.5966E-03  0.3368E-02  0.1236E+03
   -1.062505    9.96104  0.0000E+00  0.1913E-04  0.1658E-06  0.6270E-03  0.3042E-02  0.5394E+03
   -1.105006    9.96206  0.0000E+00  0.1788E-04  0.1436E-06  0.6496E-03  0.2737E-02  0.9347E+02
   -1.147507    9.96302  0.0000E+00  0.1677E-04  0.1258E-06  0.6605E-03  0.2443E-02  0.9956E+02
   -1.190008    9.96393  0.0000E+00  0.1580E-04  0.1117E-06  0.6646E-03  0.2155E-02  0.1216E+03
   -1.232508    9.96481  0.0000E+00  0.1491E-04  0.1003E-06  0.6670E-03  0.1877E-02  0.1486E+03
   -1.275009    9.96566  0.0000E+00  0.1407E-04  0.9100E-07  0.6617E-03  0.1627E-02  0.2179E+03
   -1.317509    9.96649  0.0000E+00  0.1327E-04  0.8379E-07  0.6482E-03  0.1402E-02  0.2617E+03
   -1.360009    9.96732  0.0000E+00  0.1249E-04  0.7871E-07  0.6234E-03  0.1205E-02  0.3502E+03
   -1.402509    9.96818  0.0000E+00  0.1171E-04  0.7637E-07  0.5847E-03  0.1036E-02  0.4660E+03
   -1.445008    9.96908  0.0000E+00  0.1097E-04  0.7847E-07  0.5319E-03  0.8838E-03  0.7570E+03
   -1.487507    9.97010  0.0000E+00  0.1027E-04  0.8743E-07  0.4738E-03  0.7326E-03  0.1059E+04
   -1.530006    9.97130  0.0000E+00  0.9492E-05  0.1115E-06  0.3993E-03  0.5746E-03  0.3989E+04
   -1.572504    9.97289  0.0000E+00  0.8517E-05  0.1757E-06  0.3464E-03  0.4219E-03  0.4016E+04
   -1.615002    9.97431  0.0000E+00  0.6676E-05  0.4408E-06  0.2150E-03  0.3273E-03 -0.3381E+06
   -1.657500    9.97906  0.0000E+00  0.4398E-05  0.1027E-05  0.8512E-04  0.2305E-03 -0.5211E+08
   -1.699997    9.99069  0.0000E+00  0.0000E+00  0.0000E+00  0.0000E+00  0.3519E-03  0.0000E+00
