 1 - depth, m
 2 - temperature, C
 3 - salinity, kg/kg
 4 - turbulent kinetic energy, m**2/s**2
 5 - dissipation rate, m**2/s**3
 6 - kinematic heat conductance, m**2/s
 7 - modulus of horizontal velocity, m/s
 8 - Richardson number, n/d
   -0.000000    0.00000  0.0000E+00  0.2311E-11  0.7119E-15  0.1000E-09  0.0000E+00  0.2011E+17
   -0.042497    0.31487  0.0000E+00  0.4055E-11  0.6394E-15  0.1000E-09  0.0000E+00  0.1770E+17
   -0.084994    0.61788  0.0000E+00  0.7448E-11  0.7960E-15  0.1000E-09  0.0000E+00  0.1551E+17
   -0.127491    0.90944  0.0000E+00  0.1296E-10  0.1156E-14  0.1000E-09  0.0000E+00  0.1330E+17
   -0.169989    1.18484  0.0000E+00  0.2160E-10  0.1773E-14  0.1000E-09  0.0000E+00  0.1137E+17
   -0.212487    1.44507  0.0000E+00  0.3509E-10  0.2760E-14  0.1000E-09  0.0000E+00  0.9683E+16
   -0.254985    1.69089  0.0000E+00  0.5627E-10  0.4313E-14  0.1000E-09  0.0000E+00  0.8205E+16
   -0.297484    1.92294  0.0000E+00  0.8959E-10  0.6741E-14  0.1000E-09  0.0000E+00  0.6921E+16
   -0.339983    2.14211  0.0000E+00  0.1410E-09  0.1045E-13  0.1000E-09  0.0000E+00  0.5814E+16
   -0.382482    2.34948  0.0000E+00  0.2204E-09  0.1611E-13  0.1000E-09  0.0000E+00  0.4847E+16
   -0.424981    2.54566  0.0000E+00  0.3421E-09  0.2468E-13  0.1000E-09  0.0000E+00  0.4020E+16
   -0.467481    2.73207  0.0000E+00  0.5280E-09  0.3762E-13  0.1000E-09  0.0000E+00  0.3297E+16
   -0.509981    2.90929  0.0000E+00  0.8125E-09  0.5719E-13  0.1000E-09  0.0000E+00  0.2705E+16
   -0.552481    3.08078  0.0000E+00  0.1249E-08  0.8682E-13  0.1256E-09  0.0000E+00  0.2176E+16
   -0.594981    3.24756  0.0000E+00  0.1916E-08  0.1317E-12  0.2451E-09  0.0000E+00  0.1693E+16
   -0.637481    3.41020  0.0000E+00  0.2960E-08  0.2010E-12  0.5083E-09  0.0000E+00  0.1247E+16
   -0.679981    3.56925  0.0000E+00  0.4591E-08  0.3081E-12  0.1173E-08  0.0000E+00  0.8297E+15
   -0.722482    3.72439  0.0000E+00  0.7146E-08  0.4742E-12  0.3419E-08  0.0000E+00  0.4401E+15
   -0.764982    3.87402  0.0000E+00  0.1107E-07  0.7274E-12  0.2437E-07  0.0000E+00  0.9731E+14
   -0.807483    4.00210  0.0000E+00  0.1138E-07  0.7490E-12  0.6619E-04  0.0000E+00 -0.7800E+11
   -0.849984    4.00241  0.0000E+00  0.1154E-07  0.7612E-12  0.6439E-04  0.0000E+00 -0.8225E+11
   -0.892484    4.00274  0.0000E+00  0.1169E-07  0.7748E-12  0.6469E-04  0.0000E+00 -0.8387E+11
   -0.934985    4.00306  0.0000E+00  0.1184E-07  0.7895E-12  0.6504E-04  0.0000E+00 -0.8526E+11
   -0.977485    4.00338  0.0000E+00  0.1198E-07  0.8054E-12  0.6524E-04  0.0000E+00 -0.8692E+11
   -1.019986    4.00371  0.0000E+00  0.1211E-07  0.8226E-12  0.6530E-04  0.0000E+00 -0.8882E+11
   -1.062486    4.00403  0.0000E+00  0.1224E-07  0.8410E-12  0.6521E-04  0.0000E+00 -0.9104E+11
   -1.104986    4.00436  0.0000E+00  0.1235E-07  0.8609E-12  0.6532E-04  0.0000E+00 -0.9298E+11
   -1.147487    4.00469  0.0000E+00  0.1245E-07  0.8814E-12  0.6989E-04  0.0000E+00 -0.8879E+11
   -1.189987    4.00500  0.0000E+00  0.1253E-07  0.9025E-12  0.7006E-04  0.0000E+00 -0.9097E+11
   -1.232486    4.00531  0.0000E+00  0.1261E-07  0.9269E-12  0.6369E-04  0.0000E+00 -0.1028E+12
   -1.274986    4.00565  0.0000E+00  0.1268E-07  0.9562E-12  0.6215E-04  0.0000E+00 -0.1084E+12
   -1.317485    4.00601  0.0000E+00  0.1274E-07  0.9915E-12  0.6068E-04  0.0000E+00 -0.1135E+12
   -1.359985    4.00637  0.0000E+00  0.1279E-07  0.1036E-11  0.5872E-04  0.0000E+00 -0.1202E+12
   -1.402484    4.00675  0.0000E+00  0.1283E-07  0.1093E-11  0.5629E-04  0.0000E+00 -0.1287E+12
   -1.444982    4.00715  0.0000E+00  0.1285E-07  0.1162E-11  0.5361E-04  0.0000E+00 -0.1388E+12
   -1.487481    4.00757  0.0000E+00  0.1285E-07  0.1247E-11  0.5030E-04  0.0000E+00 -0.1527E+12
   -1.529979    4.00803  0.0000E+00  0.1282E-07  0.1376E-11  0.4579E-04  0.0000E+00 -0.1766E+12
   -1.572476    4.00854  0.0000E+00  0.1271E-07  0.1690E-11  0.3632E-04  0.0000E+00 -0.2527E+12
   -1.614974    4.00926  0.0000E+00  0.1211E-07  0.3257E-11  0.1123E-04  0.0000E+00 -0.9716E+12
   -1.657471    4.01184  0.0000E+00  0.8737E-08  0.1353E-10  0.9831E-06  0.0000E+00 -0.1967E+14
   -1.699967    4.04258  0.0000E+00  0.0000E+00  0.0000E+00  0.0000E+00  0.0000E+00  0.0000E+00
