 1 - depth, m
 2 - temperature, C
 3 - salinity, kg/kg
 4 - turbulent kinetic energy, m**2/s**2
 5 - dissipation rate, m**2/s**3
 6 - kinematic heat conductance, m**2/s
 7 - modulus of horizontal velocity, m/s
 8 - Richardson number, n/d
   -0.000000    0.00000  0.0000E+00  0.3189E-13  0.5207E-16  0.1000E-09  0.7574E-73  0.2277E+17
   -0.042496    0.35875  0.0000E+00  0.3189E-13  0.5207E-16  0.1000E-09  0.1635E-73  0.1695E+17
   -0.084993    0.65248  0.0000E+00  0.3189E-13  0.5207E-16  0.1000E-09  0.3376E-74  0.1249E+17
   -0.127489    0.88788  0.0000E+00  0.3189E-13  0.5207E-16  0.1000E-09  0.6648E-75  0.9052E+16
   -0.169987    1.07102  0.0000E+00  0.3189E-13  0.5207E-16  0.1000E-09  0.1244E-75  0.6555E+16
   -0.212484    1.21168  0.0000E+00  0.3189E-13  0.5207E-16  0.1000E-09  0.2071E-76  0.4663E+16
   -0.254982    1.31659  0.0000E+00  0.3189E-13  0.5207E-16  0.1000E-09  0.3214E-77  0.3260E+16
   -0.297480    1.39273  0.0000E+00  0.3757E-13  0.5207E-16  0.1000E-09  0.5637E-78  0.2530E+16
   -0.339979    1.45354  0.0000E+00  0.8865E-13  0.5547E-16  0.1000E-09  0.1248E-78  0.2467E+16
   -0.382477    1.51426  0.0000E+00  0.2483E-12  0.8263E-16  0.1000E-09  0.2781E-79  0.2591E+16
   -0.424976    1.57962  0.0000E+00  0.6104E-12  0.1625E-15  0.1000E-09  0.8708E-80  0.3120E+16
   -0.467476    1.66065  0.0000E+00  0.1407E-11  0.3471E-15  0.1000E-09  0.2623E-80  0.3576E+16
   -0.509975    1.75713  0.0000E+00  0.3134E-11  0.7480E-15  0.1000E-09  0.7079E-81  0.4007E+16
   -0.552474    1.87057  0.0000E+00  0.6870E-11  0.1600E-14  0.1000E-09  0.1774E-81  0.4249E+16
   -0.594974    1.99815  0.0000E+00  0.1490E-10  0.3391E-14  0.1000E-09  0.3392E-82  0.4180E+16
   -0.637474    2.13252  0.0000E+00  0.3239E-10  0.7208E-14  0.1000E-09  0.4652E-83  0.3782E+16
   -0.679974    2.26347  0.0000E+00  0.7018E-10  0.1527E-13  0.1000E-09  0.5915E-84  0.3313E+16
   -0.722474    2.38738  0.0000E+00  0.1516E-09  0.3229E-13  0.1000E-09  0.6312E-85  0.2760E+16
   -0.764974    2.49892  0.0000E+00  0.3269E-09  0.6812E-13  0.1073E-09  0.6148E-86  0.2258E+16
   -0.807474    2.59748  0.0000E+00  0.7001E-09  0.1429E-12  0.2170E-09  0.6950E-87  0.2056E+16
   -0.849974    2.69464  0.0000E+00  0.1474E-08  0.2947E-12  0.4469E-09  0.8358E-88  0.2088E+16
   -0.892474    2.80258  0.0000E+00  0.3082E-08  0.6034E-12  0.7759E-09  0.1030E-88  0.2463E+16
   -0.934974    2.94518  0.0000E+00  0.6339E-08  0.1216E-11  0.1311E-08  0.1519E-89  0.2953E+16
   -0.977474    3.14770  0.0000E+00  0.1290E-07  0.2428E-11  0.2690E-08  0.2108E-90  0.3012E+16
   -1.019974    3.42399  0.0000E+00  0.2586E-07  0.4775E-11  0.1048E-07  0.3482E-91  0.2162E+16
   -1.062474    3.76942  0.0000E+00  0.4286E-07  0.7993E-11  0.1994E-04  0.5511E-92  0.6182E+15
   -1.104974    4.02146  0.0000E+00  0.4589E-07  0.8666E-11  0.8408E-04  0.1050E-92  0.8867E+13
   -1.147474    4.03459  0.0000E+00  0.4670E-07  0.8864E-11  0.8823E-04  0.6189E-94 -0.5995E+12
   -1.189973    4.03538  0.0000E+00  0.4737E-07  0.9060E-11  0.8815E-04  0.4627E-94 -0.6318E+12
   -1.232472    4.03619  0.0000E+00  0.4799E-07  0.9284E-11  0.8810E-04  0.3224E-94 -0.6909E+12
   -1.274972    4.03706  0.0000E+00  0.4855E-07  0.9544E-11  0.8768E-04  0.2223E-94 -0.7502E+12
   -1.317471    4.03800  0.0000E+00  0.4904E-07  0.9848E-11  0.8665E-04  0.1483E-94 -0.7702E+12
   -1.359969    4.03894  0.0000E+00  0.4945E-07  0.1022E-10  0.8502E-04  0.9862E-95 -0.7979E+12
   -1.402468    4.03990  0.0000E+00  0.4980E-07  0.1069E-10  0.8274E-04  0.6609E-95 -0.8320E+12
   -1.444966    4.04088  0.0000E+00  0.5002E-07  0.1125E-10  0.8001E-04  0.4463E-95 -0.8711E+12
   -1.487464    4.04189  0.0000E+00  0.5012E-07  0.1194E-10  0.7628E-04  0.2731E-95 -0.9284E+12
   -1.529961    4.04295  0.0000E+00  0.5006E-07  0.1296E-10  0.7065E-04  0.1445E-95 -0.1036E+13
   -1.572459    4.04411  0.0000E+00  0.4970E-07  0.1512E-10  0.6159E-04  0.6521E-96 -0.1297E+13
   -1.614955    4.04552  0.0000E+00  0.4790E-07  0.2412E-10  0.2728E-04  0.3312E-96 -0.3260E+13
   -1.657452    4.04898  0.0000E+00  0.3502E-07  0.9593E-10  0.2247E-05  0.1091E-96 -0.5880E+14
   -1.699948    4.09328  0.0000E+00  0.0000E+00  0.0000E+00  0.0000E+00  0.1301E-96  0.0000E+00
