 1 - depth, m
 2 - temperature, C
 3 - salinity, kg/kg
 4 - turbulent kinetic energy, m**2/s**2
 5 - dissipation rate, m**2/s**3
 6 - kinematic heat conductance, m**2/s
 7 - modulus of horizontal velocity, m/s
 8 - Richardson number, n/d
   -0.000000    0.00000  0.0000E+00  0.3434E-08  0.6962E-11  0.4652E-09  0.0000E+00  0.4684E+17
   -0.042498    0.78479  0.0000E+00  0.2044E-07  0.5993E-11  0.5344E-09  0.0000E+00  0.3520E+17
   -0.084996    1.54732  0.0000E+00  0.5326E-07  0.9046E-11  0.1115E-08  0.0000E+00  0.2547E+17
   -0.127494    2.31611  0.0000E+00  0.1103E-06  0.1584E-10  0.3064E-08  0.0000E+00  0.1635E+17
   -0.169993    3.13169  0.0000E+00  0.2081E-06  0.2811E-10  0.1812E-07  0.0000E+00  0.5755E+16
   -0.212492    3.94446  0.0000E+00  0.2407E-06  0.3268E-10  0.4019E-03  0.0000E+00  0.2740E+15
   -0.254991    4.07809  0.0000E+00  0.2414E-06  0.3280E-10  0.5672E-03  0.0000E+00 -0.3442E+12
   -0.297491    4.07834  0.0000E+00  0.2420E-06  0.3290E-10  0.5608E-03  0.0000E+00 -0.3615E+12
   -0.339991    4.07859  0.0000E+00  0.2425E-06  0.3302E-10  0.5576E-03  0.0000E+00 -0.3668E+12
   -0.382491    4.07883  0.0000E+00  0.2430E-06  0.3314E-10  0.5577E-03  0.0000E+00 -0.3578E+12
   -0.424991    4.07908  0.0000E+00  0.2435E-06  0.3327E-10  0.5576E-03  0.0000E+00 -0.3574E+12
   -0.467492    4.07933  0.0000E+00  0.2439E-06  0.3342E-10  0.5572E-03  0.0000E+00 -0.3577E+12
   -0.509993    4.07958  0.0000E+00  0.2442E-06  0.3357E-10  0.5564E-03  0.0000E+00 -0.3548E+12
   -0.552494    4.07982  0.0000E+00  0.2446E-06  0.3374E-10  0.5553E-03  0.0000E+00 -0.3515E+12
   -0.594995    4.08007  0.0000E+00  0.2448E-06  0.3392E-10  0.5538E-03  0.0000E+00 -0.3503E+12
   -0.637497    4.08031  0.0000E+00  0.2451E-06  0.3413E-10  0.5518E-03  0.0000E+00 -0.3491E+12
   -0.679998    4.08054  0.0000E+00  0.2453E-06  0.3435E-10  0.5494E-03  0.0000E+00 -0.3491E+12
   -0.722499    4.08078  0.0000E+00  0.2455E-06  0.3461E-10  0.5463E-03  0.0000E+00 -0.3502E+12
   -0.765001    4.08102  0.0000E+00  0.2457E-06  0.3491E-10  0.5426E-03  0.0000E+00 -0.3527E+12
   -0.807503    4.08126  0.0000E+00  0.2458E-06  0.3525E-10  0.5382E-03  0.0000E+00 -0.3546E+12
   -0.850004    4.08150  0.0000E+00  0.2460E-06  0.3564E-10  0.5331E-03  0.0000E+00 -0.3584E+12
   -0.892506    4.08174  0.0000E+00  0.2460E-06  0.3608E-10  0.5273E-03  0.0000E+00 -0.3608E+12
   -0.935007    4.08198  0.0000E+00  0.2461E-06  0.3656E-10  0.5209E-03  0.0000E+00 -0.3640E+12
   -0.977509    4.08223  0.0000E+00  0.2461E-06  0.3710E-10  0.5138E-03  0.0000E+00 -0.3673E+12
   -1.020010    4.08247  0.0000E+00  0.2461E-06  0.3771E-10  0.5060E-03  0.0000E+00 -0.3718E+12
   -1.062512    4.08272  0.0000E+00  0.2460E-06  0.3837E-10  0.4973E-03  0.0000E+00 -0.3769E+12
   -1.105013    4.08297  0.0000E+00  0.2459E-06  0.3911E-10  0.4876E-03  0.0000E+00 -0.3826E+12
   -1.147514    4.08322  0.0000E+00  0.2458E-06  0.3992E-10  0.4776E-03  0.0000E+00 -0.3888E+12
   -1.190015    4.08348  0.0000E+00  0.2456E-06  0.4079E-10  0.4672E-03  0.0000E+00 -0.3976E+12
   -1.232516    4.08374  0.0000E+00  0.2454E-06  0.4181E-10  0.4555E-03  0.0000E+00 -0.4071E+12
   -1.275017    4.08401  0.0000E+00  0.2452E-06  0.4303E-10  0.4423E-03  0.0000E+00 -0.4193E+12
   -1.317517    4.08429  0.0000E+00  0.2449E-06  0.4453E-10  0.4372E-03  0.0000E+00 -0.4168E+12
   -1.360018    4.08456  0.0000E+00  0.2445E-06  0.4641E-10  0.4318E-03  0.0000E+00 -0.4291E+12
   -1.402518    4.08484  0.0000E+00  0.2441E-06  0.4886E-10  0.3963E-03  0.0000E+00 -0.4678E+12
   -1.445017    4.08515  0.0000E+00  0.2435E-06  0.5187E-10  0.3634E-03  0.0000E+00 -0.5148E+12
   -1.487517    4.08548  0.0000E+00  0.2429E-06  0.5569E-10  0.3423E-03  0.0000E+00 -0.5418E+12
   -1.530016    4.08583  0.0000E+00  0.2421E-06  0.6156E-10  0.3102E-03  0.0000E+00 -0.6025E+12
   -1.572514    4.08622  0.0000E+00  0.2405E-06  0.7403E-10  0.2704E-03  0.0000E+00 -0.7062E+12
   -1.615013    4.08667  0.0000E+00  0.2347E-06  0.1258E-09  0.1545E-03  0.0000E+00 -0.1249E+13
   -1.657511    4.08748  0.0000E+00  0.1656E-06  0.8564E-09  0.4174E-05  0.0000E+00 -0.5367E+14
   -1.700008    4.11723  0.0000E+00  0.0000E+00  0.0000E+00  0.0000E+00  0.0000E+00  0.0000E+00
