 1 - depth, m
 2 - temperature, C
 3 - salinity, kg/kg
 4 - turbulent kinetic energy, m**2/s**2
 5 - dissipation rate, m**2/s**3
 6 - kinematic heat conductance, m**2/s
 7 - modulus of horizontal velocity, m/s
 8 - Richardson number, n/d
   -0.000000    0.00000  0.0000E+00  0.3189E-13  0.5207E-16  0.1000E-09  0.0000E+00  0.9951E+16
   -0.042497    0.15239  0.0000E+00  0.3189E-13  0.5207E-16  0.1000E-09  0.0000E+00  0.9846E+16
   -0.084995    0.30981  0.0000E+00  0.3189E-13  0.5207E-16  0.1000E-09  0.0000E+00  0.9663E+16
   -0.127493    0.47159  0.0000E+00  0.3189E-13  0.5207E-16  0.1000E-09  0.0000E+00  0.9075E+16
   -0.169991    0.63106  0.0000E+00  0.3189E-13  0.5207E-16  0.1000E-09  0.0000E+00  0.8504E+16
   -0.212490    0.78815  0.0000E+00  0.3189E-13  0.5207E-16  0.1000E-09  0.0000E+00  0.7947E+16
   -0.254989    0.94268  0.0000E+00  0.3189E-13  0.5207E-16  0.1000E-09  0.0000E+00  0.7405E+16
   -0.297488    1.09449  0.0000E+00  0.3189E-13  0.5207E-16  0.1000E-09  0.0000E+00  0.6886E+16
   -0.339988    1.24355  0.0000E+00  0.3189E-13  0.5207E-16  0.1000E-09  0.0000E+00  0.6392E+16
   -0.382488    1.38995  0.0000E+00  0.3189E-13  0.5207E-16  0.1000E-09  0.0000E+00  0.5915E+16
   -0.424988    1.53355  0.0000E+00  0.3189E-13  0.5207E-16  0.1000E-09  0.0000E+00  0.5468E+16
   -0.467488    1.67456  0.0000E+00  0.3189E-13  0.5207E-16  0.1000E-09  0.0000E+00  0.5037E+16
   -0.509988    1.81288  0.0000E+00  0.3189E-13  0.5207E-16  0.1000E-09  0.0000E+00  0.4649E+16
   -0.552489    1.94916  0.0000E+00  0.3189E-13  0.5207E-16  0.1000E-09  0.0000E+00  0.4277E+16
   -0.594990    2.08343  0.0000E+00  0.3189E-13  0.5207E-16  0.1000E-09  0.0000E+00  0.3914E+16
   -0.637491    2.21553  0.0000E+00  0.3189E-13  0.5207E-16  0.1000E-09  0.0000E+00  0.3560E+16
   -0.679992    2.34517  0.0000E+00  0.3189E-13  0.5207E-16  0.1000E-09  0.0000E+00  0.3217E+16
   -0.722493    2.47209  0.0000E+00  0.3189E-13  0.5207E-16  0.1000E-09  0.0000E+00  0.2881E+16
   -0.764994    2.59584  0.0000E+00  0.1022E-12  0.5207E-16  0.1000E-09  0.0000E+00  0.2556E+16
   -0.807495    2.71591  0.0000E+00  0.3108E-12  0.6846E-16  0.1000E-09  0.0000E+00  0.2252E+16
   -0.849997    2.83221  0.0000E+00  0.7053E-12  0.1217E-15  0.1000E-09  0.0000E+00  0.1965E+16
   -0.892498    2.94450  0.0000E+00  0.1436E-11  0.2282E-15  0.1000E-09  0.0000E+00  0.1715E+16
   -0.934999    3.05370  0.0000E+00  0.2777E-11  0.4251E-15  0.1000E-09  0.0000E+00  0.1493E+16
   -0.977500    3.16061  0.0000E+00  0.5253E-11  0.7847E-15  0.1000E-09  0.0000E+00  0.1281E+16
   -1.020001    3.26504  0.0000E+00  0.9807E-11  0.1435E-14  0.1000E-09  0.0000E+00  0.1081E+16
   -1.062502    3.36690  0.0000E+00  0.1814E-10  0.2602E-14  0.1000E-09  0.0000E+00  0.8926E+15
   -1.105003    3.46599  0.0000E+00  0.3332E-10  0.4689E-14  0.1000E-09  0.0000E+00  0.7179E+15
   -1.147504    3.56232  0.0000E+00  0.6036E-10  0.8338E-14  0.1000E-09  0.0000E+00  0.5563E+15
   -1.190005    3.65590  0.0000E+00  0.1086E-09  0.1472E-13  0.1149E-09  0.0000E+00  0.4052E+15
   -1.232505    3.74617  0.0000E+00  0.1987E-09  0.2644E-13  0.3143E-09  0.0000E+00  0.2644E+15
   -1.275005    3.83135  0.0000E+00  0.3680E-09  0.4808E-13  0.1045E-08  0.0000E+00  0.1445E+15
   -1.317505    3.91151  0.0000E+00  0.6860E-09  0.8804E-13  0.6305E-08  0.0000E+00  0.4384E+14
   -1.360005    3.98760  0.0000E+00  0.1084E-08  0.1390E-12  0.2398E-05  0.0000E+00 -0.2404E+12
   -1.402505    3.99219  0.0000E+00  0.1382E-08  0.1874E-12  0.3802E-05  0.0000E+00 -0.3233E+12
   -1.445004    3.99503  0.0000E+00  0.1620E-08  0.2367E-12  0.4383E-05  0.0000E+00 -0.3854E+12
   -1.487503    3.99750  0.0000E+00  0.1803E-08  0.2908E-12  0.4486E-05  0.0000E+00 -0.4732E+12
   -1.530002    3.99994  0.0000E+00  0.1942E-08  0.3659E-12  0.4095E-05  0.0000E+00 -0.6432E+12
   -1.572500    4.00267  0.0000E+00  0.2040E-08  0.5187E-12  0.3077E-05  0.0000E+00 -0.1153E+13
   -1.614998    4.00668  0.0000E+00  0.2043E-08  0.1025E-11  0.1284E-05  0.0000E+00 -0.4053E+13
   -1.657496    4.01684  0.0000E+00  0.1779E-08  0.2538E-11  0.3256E-06  0.0000E+00 -0.2861E+14
   -1.699993    4.05404  0.0000E+00  0.0000E+00  0.0000E+00  0.0000E+00  0.0000E+00  0.0000E+00
