 1 - depth, m
 2 - temperature, C
 3 - salinity, kg/kg
 4 - turbulent kinetic energy, m**2/s**2
 5 - dissipation rate, m**2/s**3
 6 - kinematic heat conductance, m**2/s
 7 - modulus of horizontal velocity, m/s
 8 - Richardson number, n/d
   -0.000000    0.00000  0.0000E+00  0.3189E-13  0.5207E-16  0.1000E-09  0.0000E+00  0.2018E+17
   -0.042496    0.31600  0.0000E+00  0.3189E-13  0.5207E-16  0.1000E-09  0.0000E+00  0.1745E+17
   -0.084993    0.61476  0.0000E+00  0.3189E-13  0.5207E-16  0.1000E-09  0.0000E+00  0.1510E+17
   -0.127490    0.89796  0.0000E+00  0.3189E-13  0.5207E-16  0.1000E-09  0.0000E+00  0.1288E+17
   -0.169988    1.16313  0.0000E+00  0.3189E-13  0.5207E-16  0.1000E-09  0.0000E+00  0.1097E+17
   -0.212486    1.41144  0.0000E+00  0.4108E-13  0.5207E-16  0.1000E-09  0.0000E+00  0.9307E+16
   -0.254984    1.64368  0.0000E+00  0.8844E-13  0.5258E-16  0.1000E-09  0.0000E+00  0.7856E+16
   -0.297483    1.86021  0.0000E+00  0.2111E-12  0.5914E-16  0.1000E-09  0.0000E+00  0.6599E+16
   -0.339982    2.06154  0.0000E+00  0.4609E-12  0.7726E-16  0.1000E-09  0.0000E+00  0.5518E+16
   -0.382481    2.24832  0.0000E+00  0.9185E-12  0.1173E-15  0.1000E-09  0.0000E+00  0.4582E+16
   -0.424980    2.42079  0.0000E+00  0.1716E-11  0.1926E-15  0.1000E-09  0.0000E+00  0.3799E+16
   -0.467479    2.58019  0.0000E+00  0.3071E-11  0.3263E-15  0.1000E-09  0.0000E+00  0.3130E+16
   -0.509979    2.72698  0.0000E+00  0.5372E-11  0.5544E-15  0.1000E-09  0.0000E+00  0.2606E+16
   -0.552479    2.86407  0.0000E+00  0.9294E-11  0.9400E-15  0.1000E-09  0.0000E+00  0.2165E+16
   -0.594979    2.99252  0.0000E+00  0.1597E-10  0.1589E-14  0.1000E-09  0.0000E+00  0.1786E+16
   -0.637479    3.11282  0.0000E+00  0.2760E-10  0.2703E-14  0.1000E-09  0.0000E+00  0.1457E+16
   -0.679979    3.22518  0.0000E+00  0.4782E-10  0.4615E-14  0.1000E-09  0.0000E+00  0.1176E+16
   -0.722480    3.32996  0.0000E+00  0.8319E-10  0.7915E-14  0.1000E-09  0.0000E+00  0.9328E+15
   -0.764980    3.42699  0.0000E+00  0.1455E-09  0.1365E-13  0.1036E-09  0.0000E+00  0.7241E+15
   -0.807481    3.51606  0.0000E+00  0.2551E-09  0.2362E-13  0.1541E-09  0.0000E+00  0.5556E+15
   -0.849981    3.59815  0.0000E+00  0.4440E-09  0.4060E-13  0.3081E-09  0.0000E+00  0.4184E+15
   -0.892481    3.67406  0.0000E+00  0.7725E-09  0.6975E-13  0.6947E-09  0.0000E+00  0.3149E+15
   -0.934982    3.74682  0.0000E+00  0.1333E-08  0.1189E-12  0.1606E-08  0.0000E+00  0.2323E+15
   -0.977482    3.82055  0.0000E+00  0.2283E-08  0.2012E-12  0.4775E-08  0.0000E+00  0.1485E+15
   -1.019983    3.89882  0.0000E+00  0.3531E-08  0.3081E-12  0.1625E-05  0.0000E+00  0.6026E+14
   -1.062483    3.96724  0.0000E+00  0.4320E-08  0.3770E-12  0.1279E-04  0.0000E+00  0.1026E+14
   -1.104983    3.99760  0.0000E+00  0.4678E-08  0.4114E-12  0.2078E-04  0.0000E+00 -0.1218E+12
   -1.147483    3.99872  0.0000E+00  0.4904E-08  0.4372E-12  0.2207E-04  0.0000E+00 -0.1404E+12
   -1.189983    3.99946  0.0000E+00  0.5099E-08  0.4632E-12  0.2281E-04  0.0000E+00 -0.1466E+12
   -1.232483    4.00019  0.0000E+00  0.5278E-08  0.4916E-12  0.2330E-04  0.0000E+00 -0.1561E+12
   -1.274982    4.00091  0.0000E+00  0.5443E-08  0.5236E-12  0.2345E-04  0.0000E+00 -0.1682E+12
   -1.317481    4.00165  0.0000E+00  0.5596E-08  0.5611E-12  0.2305E-04  0.0000E+00 -0.1825E+12
   -1.359980    4.00241  0.0000E+00  0.5742E-08  0.6079E-12  0.2228E-04  0.0000E+00 -0.2027E+12
   -1.402479    4.00321  0.0000E+00  0.5884E-08  0.6700E-12  0.2090E-04  0.0000E+00 -0.2329E+12
   -1.444978    4.00409  0.0000E+00  0.6006E-08  0.7477E-12  0.1897E-04  0.0000E+00 -0.2766E+12
   -1.487476    4.00507  0.0000E+00  0.6103E-08  0.8504E-12  0.1661E-04  0.0000E+00 -0.3453E+12
   -1.529974    4.00623  0.0000E+00  0.6178E-08  0.1021E-11  0.1375E-04  0.0000E+00 -0.4881E+12
   -1.572472    4.00775  0.0000E+00  0.6226E-08  0.1423E-11  0.1011E-04  0.0000E+00 -0.9643E+12
   -1.614969    4.01047  0.0000E+00  0.6079E-08  0.3095E-11  0.3593E-05  0.0000E+00 -0.4314E+13
   -1.657466    4.01995  0.0000E+00  0.5321E-08  0.9650E-11  0.7606E-06  0.0000E+00 -0.4661E+14
   -1.699962    4.07044  0.0000E+00  0.0000E+00  0.0000E+00  0.0000E+00  0.0000E+00  0.0000E+00
