 1 - depth, m
 2 - temperature, C
 3 - salinity, kg/kg
 4 - turbulent kinetic energy, m**2/s**2
 5 - dissipation rate, m**2/s**3
 6 - kinematic heat conductance, m**2/s
 7 - modulus of horizontal velocity, m/s
 8 - Richardson number, n/d
   -0.000000   12.19187  0.0000E+00  0.6762E-04  0.1994E-04  0.4926E-04  0.5966E-01 -0.6962E-02
   -0.042497   12.23339  0.0000E+00  0.3707E-04  0.5643E-05  0.5942E-04  0.1842E-01 -0.3453E-01
   -0.084995   12.24258  0.0000E+00  0.2571E-04  0.2366E-05  0.5827E-04  0.1237E-01 -0.4692E-01
   -0.127493   12.24947  0.0000E+00  0.1844E-04  0.1123E-05  0.6153E-04  0.9028E-02  0.1479E+00
   -0.169992   12.25524  0.0000E+00  0.1347E-04  0.5672E-06  0.6765E-04  0.6698E-02  0.1494E+03
   -0.212490   12.26024  0.0000E+00  0.9987E-05  0.2958E-06  0.8221E-04  0.4962E-02  0.1838E+01
   -0.254990   12.26449  0.0000E+00  0.7579E-05  0.1587E-06  0.1073E-03  0.3688E-02  0.7920E+02
   -0.297489   12.26808  0.0000E+00  0.5989E-05  0.8886E-07  0.1292E-03  0.2790E-02  0.2010E+02
   -0.339989   12.27110  0.0000E+00  0.4993E-05  0.5306E-07  0.1630E-03  0.2138E-02  0.2450E+02
   -0.382489   12.27353  0.0000E+00  0.4382E-05  0.3413E-07  0.2090E-03  0.1656E-02  0.6054E+02
   -0.424989   12.27538  0.0000E+00  0.4025E-05  0.2398E-07  0.2504E-03  0.1320E-02  0.5575E+02
   -0.467489   12.27681  0.0000E+00  0.3821E-05  0.1829E-07  0.2895E-03  0.1068E-02  0.1727E+04
   -0.509990   12.27796  0.0000E+00  0.3709E-05  0.1490E-07  0.3285E-03  0.8716E-03  0.6707E+02
   -0.552491   12.27891  0.0000E+00  0.3650E-05  0.1273E-07  0.3640E-03  0.7160E-03  0.1732E+02
   -0.594992   12.27973  0.0000E+00  0.3622E-05  0.1124E-07  0.3986E-03  0.5865E-03  0.2848E+01
   -0.637493   12.28046  0.0000E+00  0.3611E-05  0.1016E-07  0.4319E-03  0.4796E-03  0.4598E+01
   -0.679994   12.28113  0.0000E+00  0.3610E-05  0.9340E-08  0.4632E-03  0.3949E-03  0.1255E+01
   -0.722495   12.28173  0.0000E+00  0.3616E-05  0.8716E-08  0.4920E-03  0.3283E-03  0.1153E+01
   -0.764996   12.28229  0.0000E+00  0.3627E-05  0.8234E-08  0.5176E-03  0.2777E-03  0.1141E+01
   -0.807498   12.28281  0.0000E+00  0.3641E-05  0.7858E-08  0.5416E-03  0.2396E-03  0.1257E+01
   -0.849999   12.28330  0.0000E+00  0.3658E-05  0.7567E-08  0.5637E-03  0.2094E-03  0.1432E+01
   -0.892500   12.28377  0.0000E+00  0.3677E-05  0.7340E-08  0.5838E-03  0.1850E-03  0.1651E+01
   -0.935002   12.28421  0.0000E+00  0.3698E-05  0.7166E-08  0.6017E-03  0.1647E-03  0.1973E+01
   -0.977503   12.28465  0.0000E+00  0.3718E-05  0.7035E-08  0.6173E-03  0.1472E-03  0.2309E+01
   -1.020004   12.28508  0.0000E+00  0.3739E-05  0.6942E-08  0.6304E-03  0.1320E-03  0.2756E+01
   -1.062505   12.28551  0.0000E+00  0.3759E-05  0.6884E-08  0.6406E-03  0.1184E-03  0.3194E+01
   -1.105006   12.28594  0.0000E+00  0.3778E-05  0.6857E-08  0.6477E-03  0.1061E-03  0.3736E+01
   -1.147507   12.28638  0.0000E+00  0.3794E-05  0.6861E-08  0.6513E-03  0.9465E-04  0.4348E+01
   -1.190008   12.28683  0.0000E+00  0.3807E-05  0.6894E-08  0.6512E-03  0.8376E-04  0.4980E+01
   -1.232509   12.28730  0.0000E+00  0.3815E-05  0.6959E-08  0.6473E-03  0.7351E-04  0.5795E+01
   -1.275009   12.28777  0.0000E+00  0.3820E-05  0.7065E-08  0.6389E-03  0.6422E-04  0.7471E+01
   -1.317509   12.28825  0.0000E+00  0.3820E-05  0.7222E-08  0.6251E-03  0.5587E-04  0.9896E+01
   -1.360009   12.28876  0.0000E+00  0.3815E-05  0.7451E-08  0.6046E-03  0.4839E-04  0.1346E+02
   -1.402509   12.28928  0.0000E+00  0.3803E-05  0.7789E-08  0.5758E-03  0.4180E-04  0.1994E+02
   -1.445008   12.28984  0.0000E+00  0.3785E-05  0.8241E-08  0.5398E-03  0.3575E-04  0.3048E+02
   -1.487508   12.29045  0.0000E+00  0.3759E-05  0.8859E-08  0.5024E-03  0.2988E-04  0.3949E+02
   -1.530006   12.29113  0.0000E+00  0.3716E-05  0.9904E-08  0.4250E-03  0.2421E-04  0.5163E+02
   -1.572505   12.29195  0.0000E+00  0.3631E-05  0.1229E-07  0.4541E-03  0.1882E-04  0.7450E+02
   -1.615003   12.29271  0.0000E+00  0.3291E-05  0.2468E-07  0.1776E-03  0.1570E-04 -0.5292E+07
   -1.657501   12.29714  0.0000E+00  0.2123E-05  0.8188E-07  0.4722E-04  0.9916E-05 -0.4263E+05
   -1.699998   12.30519  0.0000E+00  0.0000E+00  0.0000E+00  0.0000E+00  0.1150E-04  0.0000E+00
