 1 - depth, m
 2 - temperature, C
 3 - salinity, kg/kg
 4 - turbulent kinetic energy, m**2/s**2
 5 - dissipation rate, m**2/s**3
 6 - kinematic heat conductance, m**2/s
 7 - modulus of horizontal velocity, m/s
 8 - Richardson number, n/d
   -0.000000    6.44991  0.0000E+00  0.9405E-04  0.2886E-04  0.5400E-04  0.8333E-01 -0.1549E-01
   -0.042498    6.52494  0.0000E+00  0.5113E-04  0.7907E-05  0.6314E-04  0.2597E-01 -0.1127E-01
   -0.084996    6.54144  0.0000E+00  0.3519E-04  0.3251E-05  0.6287E-04  0.1776E-01  0.2478E-01
   -0.127494    6.55489  0.0000E+00  0.2512E-04  0.1497E-05  0.6504E-04  0.1325E-01 -0.2884E-01
   -0.169993    6.56695  0.0000E+00  0.1823E-04  0.7390E-06  0.6699E-04  0.1001E-01 -0.4669E-01
   -0.212493    6.57850  0.0000E+00  0.1333E-04  0.3823E-06  0.6896E-04  0.7514E-02  0.1071E+01
   -0.254992    6.58972  0.0000E+00  0.9850E-05  0.2052E-06  0.7186E-04  0.5622E-02 -0.1071E+00
   -0.297492    6.60046  0.0000E+00  0.7485E-05  0.1147E-06  0.7728E-04  0.4249E-02 -0.6696E-01
   -0.339992    6.61035  0.0000E+00  0.5939E-05  0.6787E-07  0.8739E-04  0.3241E-02  0.2583E+00
   -0.382492    6.61900  0.0000E+00  0.4921E-05  0.4255E-07  0.1083E-03  0.2473E-02  0.3225E+02
   -0.424993    6.62608  0.0000E+00  0.4269E-05  0.2860E-07  0.1489E-03  0.1913E-02  0.2286E+03
   -0.467494    6.63139  0.0000E+00  0.3858E-05  0.2079E-07  0.2100E-03  0.1491E-02  0.1105E+05
   -0.509995    6.63514  0.0000E+00  0.3597E-05  0.1622E-07  0.2534E-03  0.1189E-02  0.2884E+02
   -0.552496    6.63803  0.0000E+00  0.3421E-05  0.1330E-07  0.2876E-03  0.9561E-03  0.1010E+03
   -0.594997    6.64042  0.0000E+00  0.3298E-05  0.1131E-07  0.3152E-03  0.7673E-03  0.2252E+02
   -0.637499    6.64251  0.0000E+00  0.3209E-05  0.9855E-08  0.3404E-03  0.6134E-03  0.2160E+01
   -0.680001    6.64439  0.0000E+00  0.3144E-05  0.8774E-08  0.3643E-03  0.4936E-03  0.6870E+01
   -0.722502    6.64610  0.0000E+00  0.3097E-05  0.7958E-08  0.3881E-03  0.4007E-03  0.4049E+01
   -0.765004    6.64768  0.0000E+00  0.3063E-05  0.7330E-08  0.4094E-03  0.3315E-03  0.1926E+01
   -0.807506    6.64916  0.0000E+00  0.3038E-05  0.6833E-08  0.4292E-03  0.2808E-03  0.1266E+01
   -0.850007    6.65057  0.0000E+00  0.3020E-05  0.6435E-08  0.4476E-03  0.2415E-03  0.1434E+01
   -0.892509    6.65190  0.0000E+00  0.3004E-05  0.6105E-08  0.4649E-03  0.2101E-03  0.1660E+01
   -0.935011    6.65316  0.0000E+00  0.2991E-05  0.5829E-08  0.4811E-03  0.1845E-03  0.1987E+01
   -0.977513    6.65436  0.0000E+00  0.2980E-05  0.5596E-08  0.4960E-03  0.1626E-03  0.2288E+01
   -1.020014    6.65551  0.0000E+00  0.2968E-05  0.5398E-08  0.5093E-03  0.1438E-03  0.2682E+01
   -1.062516    6.65660  0.0000E+00  0.2957E-05  0.5231E-08  0.5208E-03  0.1272E-03  0.3002E+01
   -1.105017    6.65765  0.0000E+00  0.2945E-05  0.5092E-08  0.5304E-03  0.1125E-03  0.3355E+01
   -1.147519    6.65865  0.0000E+00  0.2933E-05  0.4983E-08  0.5377E-03  0.9894E-04  0.3711E+01
   -1.190020    6.65961  0.0000E+00  0.2921E-05  0.4902E-08  0.5422E-03  0.8623E-04  0.4064E+01
   -1.232521    6.66053  0.0000E+00  0.2908E-05  0.4844E-08  0.5439E-03  0.7442E-04  0.4569E+01
   -1.275022    6.66144  0.0000E+00  0.2894E-05  0.4810E-08  0.5428E-03  0.6396E-04  0.5761E+01
   -1.317522    6.66233  0.0000E+00  0.2878E-05  0.4802E-08  0.5382E-03  0.5473E-04  0.7494E+01
   -1.360023    6.66322  0.0000E+00  0.2861E-05  0.4827E-08  0.5293E-03  0.4666E-04  0.9886E+01
   -1.402523    6.66411  0.0000E+00  0.2839E-05  0.4895E-08  0.5154E-03  0.3973E-04  0.1403E+02
   -1.445023    6.66500  0.0000E+00  0.2817E-05  0.5012E-08  0.4975E-03  0.3355E-04  0.2007E+02
   -1.487522    6.66591  0.0000E+00  0.2794E-05  0.5198E-08  0.4740E-03  0.2773E-04  0.2399E+02
   -1.530022    6.66683  0.0000E+00  0.2766E-05  0.5532E-08  0.4405E-03  0.2225E-04  0.2766E+02
   -1.572521    6.66781  0.0000E+00  0.2720E-05  0.6311E-08  0.3695E-03  0.1746E-04  0.4883E+02
   -1.615019    6.66898  0.0000E+00  0.2595E-05  0.8948E-08  0.2861E-03  0.1392E-04  0.2374E+03
   -1.657517    6.67049  0.0000E+00  0.1787E-05  0.3337E-07  0.1468E-04  0.1130E-04 -0.5741E+05
   -1.700015    6.69905  0.0000E+00  0.0000E+00  0.0000E+00  0.0000E+00  0.1130E-04  0.0000E+00
