 1 - depth, m
 2 - temperature, C
 3 - salinity, kg/kg
 4 - turbulent kinetic energy, m**2/s**2
 5 - dissipation rate, m**2/s**3
 6 - kinematic heat conductance, m**2/s
 7 - modulus of horizontal velocity, m/s
 8 - Richardson number, n/d
   -0.000000    8.43267  0.0000E+00  0.6584E-03  0.1777E-02  0.1173E-03  0.3378E+00  0.2891E-02
   -0.042497    8.55092  0.0000E+00  0.3293E-03  0.6377E-03  0.2161E-03  0.7428E-01  0.1058E-01
   -0.084995    8.58258  0.0000E+00  0.2225E-03  0.2841E-03  0.2062E-03  0.4328E-01 -0.5934E-01
   -0.127493    8.60194  0.0000E+00  0.1653E-03  0.1568E-03  0.1825E-03  0.3433E-01 -0.3495E-01
   -0.169992    8.61585  0.0000E+00  0.1262E-03  0.9435E-04  0.1705E-03  0.2806E-01 -0.4916E-01
   -0.212490    8.62826  0.0000E+00  0.9663E-04  0.5795E-04  0.1679E-03  0.2281E-01  0.2841E+00
   -0.254990    8.64007  0.0000E+00  0.7479E-04  0.3611E-04  0.1740E-03  0.1875E-01  0.5679E+01
   -0.297489    8.64963  0.0000E+00  0.5886E-04  0.2203E-04  0.1795E-03  0.1590E-01  0.1330E+03
   -0.339989    8.65774  0.0000E+00  0.4743E-04  0.1312E-04  0.1858E-03  0.1371E-01  0.2256E+02
   -0.382489    8.66520  0.0000E+00  0.3908E-04  0.7643E-05  0.1956E-03  0.1166E-01  0.5834E+02
   -0.424989    8.67166  0.0000E+00  0.3312E-04  0.4434E-05  0.2063E-03  0.1011E-01  0.7745E+01
   -0.467489    8.67763  0.0000E+00  0.2865E-04  0.2608E-05  0.2200E-03  0.8607E-02  0.4886E+02
   -0.509990    8.68296  0.0000E+00  0.2520E-04  0.1571E-05  0.2384E-03  0.7280E-02  0.1162E+02
   -0.552491    8.68772  0.0000E+00  0.2244E-04  0.9721E-06  0.2623E-03  0.6152E-02  0.7583E+02
   -0.594992    8.69179  0.0000E+00  0.2016E-04  0.6198E-06  0.2891E-03  0.5168E-02  0.9830E+02
   -0.637493    8.69543  0.0000E+00  0.1819E-04  0.4078E-06  0.3242E-03  0.4337E-02  0.5086E+03
   -0.679994    8.69854  0.0000E+00  0.1651E-04  0.2826E-06  0.3617E-03  0.3678E-02  0.5025E+02
   -0.722495    8.70122  0.0000E+00  0.1506E-04  0.2058E-06  0.4031E-03  0.3132E-02  0.2313E+02
   -0.764996    8.70366  0.0000E+00  0.1378E-04  0.1563E-06  0.4510E-03  0.2689E-02  0.3204E+02
   -0.807498    8.70572  0.0000E+00  0.1267E-04  0.1239E-06  0.4890E-03  0.2338E-02  0.3132E+01
   -0.849999    8.70760  0.0000E+00  0.1170E-04  0.1004E-06  0.5220E-03  0.2043E-02  0.4500E+03
   -0.892500    8.70934  0.0000E+00  0.1085E-04  0.8234E-07  0.5522E-03  0.1791E-02  0.1810E+02
   -0.935002    8.71091  0.0000E+00  0.1011E-04  0.6848E-07  0.5780E-03  0.1577E-02  0.2252E+03
   -0.977503    8.71240  0.0000E+00  0.9469E-05  0.5775E-07  0.5982E-03  0.1387E-02  0.9726E+02
   -1.020004    8.71378  0.0000E+00  0.8908E-05  0.4931E-07  0.6153E-03  0.1223E-02  0.1523E+02
   -1.062505    8.71508  0.0000E+00  0.8416E-05  0.4262E-07  0.6262E-03  0.1075E-02  0.9356E+01
   -1.105006    8.71631  0.0000E+00  0.7981E-05  0.3725E-07  0.6331E-03  0.9415E-03  0.2274E+02
   -1.147507    8.71748  0.0000E+00  0.7603E-05  0.3307E-07  0.6365E-03  0.8167E-03  0.9510E+01
   -1.190008    8.71859  0.0000E+00  0.7275E-05  0.2987E-07  0.6365E-03  0.6976E-03  0.2332E+02
   -1.232509    8.71967  0.0000E+00  0.6978E-05  0.2737E-07  0.6351E-03  0.5860E-03  0.9063E+01
   -1.275009    8.72071  0.0000E+00  0.6705E-05  0.2547E-07  0.6290E-03  0.4901E-03  0.9586E+01
   -1.317509    8.72175  0.0000E+00  0.6454E-05  0.2414E-07  0.6148E-03  0.4096E-03  0.1622E+02
   -1.360009    8.72278  0.0000E+00  0.6218E-05  0.2337E-07  0.5926E-03  0.3434E-03  0.1698E+02
   -1.402509    8.72385  0.0000E+00  0.5984E-05  0.2329E-07  0.5650E-03  0.2907E-03  0.3432E+02
   -1.445008    8.72495  0.0000E+00  0.5757E-05  0.2438E-07  0.5195E-03  0.2460E-03  0.1558E+03
   -1.487507    8.72620  0.0000E+00  0.5522E-05  0.2712E-07  0.4858E-03  0.2007E-03  0.5435E+02
   -1.530006    8.72756  0.0000E+00  0.5236E-05  0.3396E-07  0.4137E-03  0.1554E-03  0.1264E+03
   -1.572505    8.72959  0.0000E+00  0.4853E-05  0.5120E-07  0.3917E-03  0.1089E-03  0.1299E+05
   -1.615003    8.73087  0.0000E+00  0.4033E-05  0.1279E-06  0.2132E-03  0.8452E-04  0.7791E+06
   -1.657501    8.73850  0.0000E+00  0.2637E-05  0.3222E-06  0.6652E-04  0.5504E-04 -0.8408E+07
   -1.699998    8.75142  0.0000E+00  0.0000E+00  0.0000E+00  0.0000E+00  0.8670E-04  0.0000E+00
