 1 - depth, m
 2 - temperature, C
 3 - salinity, kg/kg
 4 - turbulent kinetic energy, m**2/s**2
 5 - dissipation rate, m**2/s**3
 6 - kinematic heat conductance, m**2/s
 7 - modulus of horizontal velocity, m/s
 8 - Richardson number, n/d
   -0.000000   14.98048  0.0000E+00  0.4466E-02  0.9265E-01  0.2487E-03  0.1209E+01  0.5515E-02
   -0.042497   15.12549  0.0000E+00  0.2226E-02  0.6068E-01  0.5540E-03  0.2531E+00 -0.1879E+00
   -0.084995   15.20806  0.0000E+00  0.1383E-02  0.1685E-01  0.6703E-03  0.1349E+00 -0.9895E+00
   -0.127493   15.23447  0.0000E+00  0.1027E-02  0.1002E-01  0.6866E-03  0.1018E+00  0.5985E+00
   -0.169992   15.24470  0.0000E+00  0.8144E-03  0.6636E-02  0.6062E-03  0.8233E-01 -0.1137E+00
   -0.212491   15.25549  0.0000E+00  0.6614E-03  0.4891E-02  0.6025E-03  0.6653E-01 -0.4473E-01
   -0.254990   15.26404  0.0000E+00  0.5474E-03  0.3805E-02  0.5932E-03  0.5576E-01  0.6073E+01
   -0.297490   15.26845  0.0000E+00  0.4625E-03  0.2916E-02  0.5841E-03  0.4921E-01  0.7524E+00
   -0.339990   15.27193  0.0000E+00  0.3957E-03  0.2287E-02  0.5683E-03  0.4485E-01  0.8625E+01
   -0.382490   15.27492  0.0000E+00  0.3427E-03  0.1715E-02  0.5698E-03  0.4094E-01  0.4424E+02
   -0.424990   15.27745  0.0000E+00  0.2983E-03  0.1243E-02  0.5682E-03  0.3790E-01  0.3049E+02
   -0.467490   15.27961  0.0000E+00  0.2609E-03  0.8859E-03  0.5662E-03  0.3464E-01  0.3064E+03
   -0.509991   15.28176  0.0000E+00  0.2314E-03  0.6128E-03  0.5710E-03  0.3132E-01  0.1286E+02
   -0.552492   15.28389  0.0000E+00  0.2057E-03  0.4000E-03  0.5703E-03  0.2824E-01  0.4000E+03
   -0.594993   15.28617  0.0000E+00  0.1847E-03  0.2446E-03  0.5796E-03  0.2497E-01  0.2598E+03
   -0.637494   15.28838  0.0000E+00  0.1667E-03  0.1418E-03  0.5958E-03  0.2221E-01  0.1507E+03
   -0.679995   15.29007  0.0000E+00  0.1514E-03  0.7999E-04  0.6045E-03  0.2019E-01  0.1038E+02
   -0.722497   15.29183  0.0000E+00  0.1385E-03  0.4521E-04  0.6219E-03  0.1842E-01 -0.8989E-01
   -0.764998   15.29363  0.0000E+00  0.1272E-03  0.2619E-04  0.6424E-03  0.1685E-01  0.1015E+04
   -0.807500   15.29479  0.0000E+00  0.1172E-03  0.1568E-04  0.6652E-03  0.1572E-01  0.1428E+03
   -0.850001   15.29603  0.0000E+00  0.1081E-03  0.9880E-05  0.6754E-03  0.1468E-01  0.1807E+04
   -0.892503   15.29711  0.0000E+00  0.9996E-04  0.6530E-05  0.6808E-03  0.1372E-01  0.1093E+04
   -0.935004   15.29824  0.0000E+00  0.9285E-04  0.4531E-05  0.7008E-03  0.1288E-01  0.3329E+04
   -0.977505   15.29941  0.0000E+00  0.8666E-04  0.3290E-05  0.7175E-03  0.1204E-01  0.2654E+04
   -1.020007   15.30036  0.0000E+00  0.8111E-04  0.2495E-05  0.7288E-03  0.1129E-01  0.5589E+02
   -1.062508   15.30144  0.0000E+00  0.7615E-04  0.1971E-05  0.7411E-03  0.1055E-01 -0.5799E+02
   -1.105009   15.30229  0.0000E+00  0.7161E-04  0.1612E-05  0.7399E-03  0.9863E-02  0.1739E+04
   -1.147510   15.30335  0.0000E+00  0.6767E-04  0.1372E-05  0.7461E-03  0.9171E-02  0.2119E+03
   -1.190011   15.30425  0.0000E+00  0.6417E-04  0.1206E-05  0.7396E-03  0.8432E-02  0.1591E+03
   -1.232512   15.30537  0.0000E+00  0.6086E-04  0.1086E-05  0.7326E-03  0.7693E-02  0.1002E+03
   -1.275012   15.30624  0.0000E+00  0.5766E-04  0.1003E-05  0.7198E-03  0.7032E-02  0.4709E+03
   -1.317512   15.30719  0.0000E+00  0.5451E-04  0.9550E-06  0.6990E-03  0.6417E-02  0.3725E+03
   -1.360013   15.30809  0.0000E+00  0.5132E-04  0.9440E-06  0.6700E-03  0.5845E-02  0.2981E+04
   -1.402512   15.30902  0.0000E+00  0.4793E-04  0.9863E-06  0.6170E-03  0.5325E-02  0.8616E+07
   -1.445012   15.31001  0.0000E+00  0.4464E-04  0.1104E-05  0.5502E-03  0.4818E-02  0.3445E+05
   -1.487511   15.31114  0.0000E+00  0.4138E-04  0.1338E-05  0.4860E-03  0.4238E-02  0.2492E+05
   -1.530010   15.31248  0.0000E+00  0.3771E-04  0.1825E-05  0.4150E-03  0.3488E-02  0.4990E+05
   -1.572509   15.31425  0.0000E+00  0.3341E-04  0.3112E-05  0.3875E-03  0.2724E-02  0.1382E+05
   -1.615007   15.31566  0.0000E+00  0.2643E-04  0.7960E-05  0.2312E-03  0.2277E-02  0.3584E+06
   -1.657505   15.31968  0.0000E+00  0.1826E-04  0.1839E-04  0.1805E-03  0.1747E-02 -0.1671E+09
   -1.700002   15.32936  0.0000E+00  0.0000E+00  0.0000E+00  0.0000E+00  0.2805E-02  0.0000E+00
