 1 - depth, m
 2 - temperature, C
 3 - salinity, kg/kg
 4 - turbulent kinetic energy, m**2/s**2
 5 - dissipation rate, m**2/s**3
 6 - kinematic heat conductance, m**2/s
 7 - modulus of horizontal velocity, m/s
 8 - Richardson number, n/d
   -0.000000    0.00000  0.0000E+00  0.3189E-13  0.5206E-16  0.1000E-09  0.0000E+00  0.7290E+16
   -0.042497    0.11101  0.0000E+00  0.3189E-13  0.5206E-16  0.1000E-09  0.0000E+00  0.7419E+16
   -0.084995    0.22758  0.0000E+00  0.3189E-13  0.5206E-16  0.1000E-09  0.0000E+00  0.7490E+16
   -0.127493    0.34929  0.0000E+00  0.3189E-13  0.5206E-16  0.1000E-09  0.0000E+00  0.7216E+16
   -0.169992    0.47080  0.0000E+00  0.3189E-13  0.5206E-16  0.1000E-09  0.0000E+00  0.6939E+16
   -0.212491    0.59200  0.0000E+00  0.3189E-13  0.5206E-16  0.1000E-09  0.0000E+00  0.6657E+16
   -0.254990    0.71273  0.0000E+00  0.3189E-13  0.5206E-16  0.1000E-09  0.0000E+00  0.6369E+16
   -0.297490    0.83282  0.0000E+00  0.3189E-13  0.5206E-16  0.1000E-09  0.0000E+00  0.6087E+16
   -0.339989    0.95227  0.0000E+00  0.3189E-13  0.5206E-16  0.1000E-09  0.0000E+00  0.5813E+16
   -0.382489    1.07114  0.0000E+00  0.3189E-13  0.5206E-16  0.1000E-09  0.0000E+00  0.5539E+16
   -0.424990    1.18934  0.0000E+00  0.3189E-13  0.5206E-16  0.1000E-09  0.0000E+00  0.5275E+16
   -0.467490    1.30698  0.0000E+00  0.3189E-13  0.5206E-16  0.1000E-09  0.0000E+00  0.5011E+16
   -0.509991    1.42397  0.0000E+00  0.3189E-13  0.5206E-16  0.1000E-09  0.0000E+00  0.4755E+16
   -0.552492    1.54038  0.0000E+00  0.3189E-13  0.5206E-16  0.1000E-09  0.0000E+00  0.4500E+16
   -0.594993    1.65613  0.0000E+00  0.3189E-13  0.5206E-16  0.1000E-09  0.0000E+00  0.4241E+16
   -0.637494    1.77099  0.0000E+00  0.3189E-13  0.5206E-16  0.1000E-09  0.0000E+00  0.3976E+16
   -0.679995    1.88456  0.0000E+00  0.3189E-13  0.5206E-16  0.1000E-09  0.0000E+00  0.3711E+16
   -0.722496    1.99661  0.0000E+00  0.3189E-13  0.5206E-16  0.1000E-09  0.0000E+00  0.3441E+16
   -0.764998    2.10670  0.0000E+00  0.3189E-13  0.5206E-16  0.1000E-09  0.0000E+00  0.3171E+16
   -0.807499    2.21436  0.0000E+00  0.3189E-13  0.5206E-16  0.1000E-09  0.0000E+00  0.2914E+16
   -0.850000    2.31964  0.0000E+00  0.3189E-13  0.5206E-16  0.1000E-09  0.0000E+00  0.2668E+16
   -0.892502    2.42239  0.0000E+00  0.3189E-13  0.5206E-16  0.1000E-09  0.0000E+00  0.2449E+16
   -0.935003    2.52320  0.0000E+00  0.3189E-13  0.5206E-16  0.1000E-09  0.0000E+00  0.2254E+16
   -0.977505    2.62272  0.0000E+00  0.3189E-13  0.5206E-16  0.1000E-09  0.0000E+00  0.2062E+16
   -1.020006    2.72079  0.0000E+00  0.3189E-13  0.5206E-16  0.1000E-09  0.0000E+00  0.1879E+16
   -1.062507    2.81743  0.0000E+00  0.3189E-13  0.5206E-16  0.1000E-09  0.0000E+00  0.1700E+16
   -1.105008    2.91250  0.0000E+00  0.3189E-13  0.5206E-16  0.1000E-09  0.0000E+00  0.1530E+16
   -1.147509    3.00608  0.0000E+00  0.3189E-13  0.5206E-16  0.1000E-09  0.0000E+00  0.1369E+16
   -1.190010    3.09824  0.0000E+00  0.3189E-13  0.5206E-16  0.1000E-09  0.0000E+00  0.1208E+16
   -1.232511    3.18851  0.0000E+00  0.3189E-13  0.5206E-16  0.1000E-09  0.0000E+00  0.1039E+16
   -1.275011    3.27541  0.0000E+00  0.3189E-13  0.5206E-16  0.1000E-09  0.0000E+00  0.8884E+15
   -1.317512    3.35929  0.0000E+00  0.3189E-13  0.5206E-16  0.1000E-09  0.0000E+00  0.7741E+15
   -1.360012    3.44296  0.0000E+00  0.3189E-13  0.5206E-16  0.1000E-09  0.0000E+00  0.6617E+15
   -1.402511    3.52652  0.0000E+00  0.3510E-13  0.5207E-16  0.1000E-09  0.0000E+00  0.5494E+15
   -1.445011    3.60985  0.0000E+00  0.1630E-12  0.1831E-15  0.1000E-09  0.0000E+00  0.4374E+15
   -1.487510    3.69275  0.0000E+00  0.7668E-12  0.8357E-15  0.1000E-09  0.0000E+00  0.3275E+15
   -1.530009    3.77530  0.0000E+00  0.3960E-11  0.4278E-14  0.1000E-09  0.0000E+00  0.2208E+15
   -1.572507    3.85818  0.0000E+00  0.2344E-10  0.2547E-13  0.5473E-09  0.0000E+00  0.1142E+15
   -1.615006    3.94318  0.0000E+00  0.1476E-09  0.1666E-12  0.1402E-07  0.0000E+00  0.3908E+13
   -1.657503    4.02324  0.0000E+00  0.6371E-09  0.9852E-12  0.1515E-06  0.0000E+00 -0.4179E+14
   -1.700001    4.06819  0.0000E+00  0.0000E+00  0.0000E+00  0.0000E+00  0.0000E+00  0.0000E+00
