 1 - depth, m
 2 - temperature, C
 3 - salinity, kg/kg
 4 - turbulent kinetic energy, m**2/s**2
 5 - dissipation rate, m**2/s**3
 6 - kinematic heat conductance, m**2/s
 7 - modulus of horizontal velocity, m/s
 8 - Richardson number, n/d
   -0.000000   12.25602  0.0000E+00  0.3737E-03  0.4622E-03  0.5800E-04  0.1811E+00 -0.2661E-01
   -0.042497   12.38507  0.0000E+00  0.1840E-03  0.1292E-03  0.1729E-03  0.4002E-01  0.1900E-01
   -0.084995   12.41581  0.0000E+00  0.1314E-03  0.6589E-04  0.1672E-03  0.2548E-01 -0.9269E-01
   -0.127493   12.43387  0.0000E+00  0.1011E-03  0.3839E-04  0.1621E-03  0.2045E-01  0.2013E+02
   -0.169992   12.44622  0.0000E+00  0.7736E-04  0.2011E-04  0.1739E-03  0.1676E-01  0.1446E+02
   -0.212490   12.45633  0.0000E+00  0.6005E-04  0.1111E-04  0.1938E-03  0.1379E-01  0.1425E+02
   -0.254989   12.46451  0.0000E+00  0.4669E-04  0.5928E-05  0.2226E-03  0.1147E-01  0.1047E+02
   -0.297489   12.47165  0.0000E+00  0.3695E-04  0.3121E-05  0.2513E-03  0.9737E-02  0.9563E+01
   -0.339988   12.47793  0.0000E+00  0.3002E-04  0.1683E-05  0.2775E-03  0.8322E-02  0.6636E+01
   -0.382488   12.48354  0.0000E+00  0.2503E-04  0.9484E-06  0.3109E-03  0.7042E-02  0.1422E+02
   -0.424989   12.48858  0.0000E+00  0.2150E-04  0.5923E-06  0.3465E-03  0.6014E-02  0.9426E+02
   -0.467489   12.49267  0.0000E+00  0.1893E-04  0.4012E-06  0.3863E-03  0.5120E-02  0.8391E+02
   -0.509990   12.49642  0.0000E+00  0.1700E-04  0.2882E-06  0.4315E-03  0.4347E-02  0.3361E+04
   -0.552490   12.49945  0.0000E+00  0.1551E-04  0.2166E-06  0.4731E-03  0.3691E-02  0.2064E+02
   -0.594991   12.50213  0.0000E+00  0.1432E-04  0.1683E-06  0.5196E-03  0.3116E-02  0.2884E+02
   -0.637492   12.50434  0.0000E+00  0.1334E-04  0.1339E-06  0.5677E-03  0.2622E-02  0.2993E+02
   -0.679993   12.50625  0.0000E+00  0.1250E-04  0.1086E-06  0.6132E-03  0.2208E-02  0.8623E+01
   -0.722494   12.50791  0.0000E+00  0.1178E-04  0.8942E-07  0.6570E-03  0.1860E-02  0.1553E+02
   -0.764996   12.50940  0.0000E+00  0.1115E-04  0.7464E-07  0.6982E-03  0.1574E-02  0.1202E+02
   -0.807497   12.51075  0.0000E+00  0.1061E-04  0.6303E-07  0.7326E-03  0.1346E-02  0.4353E+01
   -0.849998   12.51200  0.0000E+00  0.1015E-04  0.5398E-07  0.7608E-03  0.1160E-02  0.2056E+01
   -0.892500   12.51316  0.0000E+00  0.9741E-05  0.4680E-07  0.7837E-03  0.1004E-02  0.2150E+02
   -0.935001   12.51427  0.0000E+00  0.9387E-05  0.4116E-07  0.8013E-03  0.8747E-03  0.2217E+01
   -0.977502   12.51533  0.0000E+00  0.9075E-05  0.3670E-07  0.8147E-03  0.7635E-03  0.1309E+01
   -1.020004   12.51634  0.0000E+00  0.8797E-05  0.3319E-07  0.8228E-03  0.6683E-03  0.1292E+01
   -1.062505   12.51732  0.0000E+00  0.8546E-05  0.3043E-07  0.8253E-03  0.5848E-03  0.1348E+01
   -1.105006   12.51829  0.0000E+00  0.8316E-05  0.2830E-07  0.8218E-03  0.5109E-03  0.1452E+01
   -1.147507   12.51922  0.0000E+00  0.8107E-05  0.2675E-07  0.8125E-03  0.4436E-03  0.1569E+01
   -1.190007   12.52015  0.0000E+00  0.7916E-05  0.2570E-07  0.7976E-03  0.3803E-03  0.1691E+01
   -1.232508   12.52107  0.0000E+00  0.7734E-05  0.2509E-07  0.7770E-03  0.3223E-03  0.1836E+01
   -1.275008   12.52200  0.0000E+00  0.7559E-05  0.2490E-07  0.7472E-03  0.2733E-03  0.2258E+01
   -1.317508   12.52295  0.0000E+00  0.7385E-05  0.2517E-07  0.7137E-03  0.2335E-03  0.2982E+01
   -1.360008   12.52393  0.0000E+00  0.7202E-05  0.2602E-07  0.6618E-03  0.2009E-03  0.4368E+01
   -1.402508   12.52499  0.0000E+00  0.6988E-05  0.2784E-07  0.6257E-03  0.1741E-03  0.7392E+01
   -1.445007   12.52614  0.0000E+00  0.6738E-05  0.3143E-07  0.5475E-03  0.1502E-03  0.1384E+02
   -1.487506   12.52765  0.0000E+00  0.6430E-05  0.3779E-07  0.5137E-03  0.1236E-03  0.4319E+02
   -1.530005   12.52938  0.0000E+00  0.5980E-05  0.5289E-07  0.4022E-03  0.9624E-04  0.4079E+04
   -1.572504   12.53343  0.0000E+00  0.5350E-05  0.8562E-07  0.4056E-03  0.6492E-04  0.5885E+06
   -1.615002   12.53322  0.0000E+00  0.4233E-05  0.2326E-06  0.1889E-03  0.5151E-04 -0.3110E+08
   -1.657499   12.54851  0.0000E+00  0.2835E-05  0.6007E-06  0.1195E-03  0.3110E-04 -0.9624E+05
   -1.699997   12.55279  0.0000E+00  0.0000E+00  0.0000E+00  0.0000E+00  0.5335E-04  0.0000E+00
