 1 - depth, m
 2 - temperature, C
 3 - salinity, kg/kg
 4 - turbulent kinetic energy, m**2/s**2
 5 - dissipation rate, m**2/s**3
 6 - kinematic heat conductance, m**2/s
 7 - modulus of horizontal velocity, m/s
 8 - Richardson number, n/d
   -0.000000   11.94402  0.0000E+00  0.9024E-05  0.4302E-06  0.1941E-04  0.1372E-01 -0.1355E-01
   -0.042497   11.95342  0.0000E+00  0.6462E-05  0.1555E-06  0.2903E-04  0.7509E-02 -0.3852E-01
   -0.084995   11.95915  0.0000E+00  0.4783E-05  0.7352E-07  0.3619E-04  0.4669E-02 -0.8527E-01
   -0.127493   11.96337  0.0000E+00  0.3683E-05  0.3959E-07  0.4419E-04  0.3008E-02 -0.1761E+00
   -0.169992   11.96663  0.0000E+00  0.2972E-05  0.2332E-07  0.5560E-04  0.1971E-02 -0.3393E+00
   -0.212491   11.96910  0.0000E+00  0.2518E-05  0.1475E-07  0.7866E-04  0.1308E-02 -0.4050E+00
   -0.254990   11.97083  0.0000E+00  0.2246E-05  0.1013E-07  0.1287E-03  0.8962E-03  0.1203E+04
   -0.297489   11.97195  0.0000E+00  0.2095E-05  0.7602E-08  0.1812E-03  0.6582E-03  0.8338E+04
   -0.339989   11.97270  0.0000E+00  0.2018E-05  0.6184E-08  0.2197E-03  0.5169E-03  0.1813E+03
   -0.382489   11.97326  0.0000E+00  0.1983E-05  0.5330E-08  0.2495E-03  0.4254E-03  0.6397E+02
   -0.424989   11.97372  0.0000E+00  0.1971E-05  0.4761E-08  0.2729E-03  0.3610E-03  0.1561E+01
   -0.467490   11.97414  0.0000E+00  0.1972E-05  0.4342E-08  0.2953E-03  0.3090E-03  0.1583E+01
   -0.509990   11.97454  0.0000E+00  0.1979E-05  0.4020E-08  0.3179E-03  0.2640E-03  0.1631E+01
   -0.552491   11.97491  0.0000E+00  0.1991E-05  0.3769E-08  0.3400E-03  0.2252E-03  0.1723E+01
   -0.594992   11.97527  0.0000E+00  0.2006E-05  0.3572E-08  0.3614E-03  0.1916E-03  0.1844E+01
   -0.637493   11.97561  0.0000E+00  0.2023E-05  0.3413E-08  0.3822E-03  0.1628E-03  0.2012E+01
   -0.679994   11.97592  0.0000E+00  0.2040E-05  0.3284E-08  0.4025E-03  0.1388E-03  0.2333E+01
   -0.722495   11.97622  0.0000E+00  0.2059E-05  0.3177E-08  0.4224E-03  0.1189E-03  0.2770E+01
   -0.764997   11.97650  0.0000E+00  0.2079E-05  0.3088E-08  0.4420E-03  0.1025E-03  0.3385E+01
   -0.807498   11.97677  0.0000E+00  0.2101E-05  0.3014E-08  0.4611E-03  0.8915E-04  0.4263E+01
   -0.850000   11.97701  0.0000E+00  0.2124E-05  0.2956E-08  0.4792E-03  0.7804E-04  0.5320E+01
   -0.892501   11.97725  0.0000E+00  0.2147E-05  0.2912E-08  0.4961E-03  0.6869E-04  0.6541E+01
   -0.935002   11.97748  0.0000E+00  0.2172E-05  0.2881E-08  0.5116E-03  0.6076E-04  0.8175E+01
   -0.977504   11.97771  0.0000E+00  0.2196E-05  0.2862E-08  0.5253E-03  0.5386E-04  0.9879E+01
   -1.020005   11.97794  0.0000E+00  0.2221E-05  0.2855E-08  0.5372E-03  0.4784E-04  0.1211E+02
   -1.062506   11.97817  0.0000E+00  0.2244E-05  0.2858E-08  0.5468E-03  0.4248E-04  0.1435E+02
   -1.105007   11.97841  0.0000E+00  0.2267E-05  0.2871E-08  0.5542E-03  0.3767E-04  0.1708E+02
   -1.147508   11.97865  0.0000E+00  0.2288E-05  0.2893E-08  0.5590E-03  0.3323E-04  0.2016E+02
   -1.190009   11.97890  0.0000E+00  0.2306E-05  0.2924E-08  0.5611E-03  0.2903E-04  0.2336E+02
   -1.232510   11.97917  0.0000E+00  0.2322E-05  0.2965E-08  0.5605E-03  0.2511E-04  0.2748E+02
   -1.275010   11.97944  0.0000E+00  0.2336E-05  0.3019E-08  0.5569E-03  0.2161E-04  0.3582E+02
   -1.317510   11.97972  0.0000E+00  0.2348E-05  0.3090E-08  0.5495E-03  0.1851E-04  0.4786E+02
   -1.360010   11.98001  0.0000E+00  0.2357E-05  0.3185E-08  0.5375E-03  0.1578E-04  0.6527E+02
   -1.402510   11.98031  0.0000E+00  0.2364E-05  0.3316E-08  0.5198E-03  0.1344E-04  0.9626E+02
   -1.445009   11.98063  0.0000E+00  0.2367E-05  0.3478E-08  0.4975E-03  0.1133E-04  0.1448E+03
   -1.487509   11.98098  0.0000E+00  0.2366E-05  0.3686E-08  0.4696E-03  0.9335E-05  0.1824E+03
   -1.530007   11.98137  0.0000E+00  0.2357E-05  0.4011E-08  0.4313E-03  0.7443E-05  0.2213E+03
   -1.572506   11.98181  0.0000E+00  0.2332E-05  0.4712E-08  0.3541E-03  0.5786E-05  0.4253E+03
   -1.615004   11.98237  0.0000E+00  0.2245E-05  0.7047E-08  0.2652E-03  0.4548E-05  0.2269E+04
   -1.657502   11.98317  0.0000E+00  0.1577E-05  0.2844E-07  0.1520E-04  0.3627E-05 -0.6288E+06
   -1.699999   11.99917  0.0000E+00  0.0000E+00  0.0000E+00  0.0000E+00  0.3629E-05  0.0000E+00
