 1 - depth, m
 2 - temperature, C
 3 - salinity, kg/kg
 4 - turbulent kinetic energy, m**2/s**2
 5 - dissipation rate, m**2/s**3
 6 - kinematic heat conductance, m**2/s
 7 - modulus of horizontal velocity, m/s
 8 - Richardson number, n/d
   -0.000000    2.25874  0.0000E+00  0.7498E-05  0.3032E-06  0.1809E-04  0.1273E-01  0.5569E-02
   -0.042497    2.27062  0.0000E+00  0.5028E-05  0.1114E-06  0.2230E-04  0.7306E-02  0.1687E-01
   -0.084995    2.27986  0.0000E+00  0.3280E-05  0.4901E-07  0.2152E-04  0.4602E-02  0.4408E-01
   -0.127493    2.28898  0.0000E+00  0.2061E-05  0.2279E-07  0.1793E-04  0.2929E-02  0.1165E+00
   -0.169992    2.29922  0.0000E+00  0.1215E-05  0.1059E-07  0.1257E-04  0.1818E-02  0.3790E+00
   -0.212491    2.31409  0.0000E+00  0.6207E-06  0.4550E-08  0.6710E-05  0.1049E-02  0.4485E+01
   -0.254990    2.38081  0.0000E+00  0.2571E-06  0.1675E-08  0.2469E-05  0.5194E-03  0.1974E+03
   -0.297490    2.57500  0.0000E+00  0.6994E-07  0.4332E-09  0.2975E-06  0.2241E-03  0.7934E+04
   -0.339990    2.88447  0.0000E+00  0.1251E-07  0.5375E-10  0.1663E-07  0.6717E-04  0.2155E+06
   -0.382490    3.25376  0.0000E+00  0.1707E-07  0.9515E-11  0.9045E-08  0.1166E-04  0.5854E+07
   -0.424990    3.59261  0.0000E+00  0.4175E-07  0.6469E-11  0.5273E-07  0.2310E-05  0.5586E+08
   -0.467490    3.87098  0.0000E+00  0.5555E-07  0.7091E-11  0.7586E-04  0.2439E-06  0.1019E+09
   -0.509991    4.00255  0.0000E+00  0.5939E-07  0.7283E-11  0.1519E-03  0.1087E-06  0.2228E+10
   -0.552492    4.02260  0.0000E+00  0.6000E-07  0.7286E-11  0.1720E-03  0.6747E-07  0.1106E+10
   -0.594993    4.02309  0.0000E+00  0.6051E-07  0.7297E-11  0.1729E-03  0.4898E-07  0.1296E+10
   -0.637494    4.02357  0.0000E+00  0.6099E-07  0.7319E-11  0.1742E-03  0.3517E-07  0.1759E+10
   -0.679995    4.02405  0.0000E+00  0.6146E-07  0.7351E-11  0.1753E-03  0.2531E-07  0.2647E+10
   -0.722497    4.02451  0.0000E+00  0.6193E-07  0.7393E-11  0.1762E-03  0.1819E-07  0.4114E+10
   -0.764998    4.02497  0.0000E+00  0.6238E-07  0.7446E-11  0.1768E-03  0.1321E-07  0.6707E+10
   -0.807500    4.02543  0.0000E+00  0.6283E-07  0.7512E-11  0.1773E-03  0.9827E-08  0.1151E+11
   -0.850001    4.02589  0.0000E+00  0.6327E-07  0.7588E-11  0.1774E-03  0.7425E-08  0.1935E+11
   -0.892502    4.02635  0.0000E+00  0.6370E-07  0.7677E-11  0.1773E-03  0.5681E-08  0.3014E+11
   -0.935004    4.02681  0.0000E+00  0.6410E-07  0.7777E-11  0.1769E-03  0.4417E-08  0.3586E+11
   -0.977505    4.02726  0.0000E+00  0.6448E-07  0.7890E-11  0.1762E-03  0.3449E-08  0.3183E+11
   -1.020007    4.02772  0.0000E+00  0.6484E-07  0.8016E-11  0.1752E-03  0.2724E-08  0.2048E+11
   -1.062508    4.02818  0.0000E+00  0.6516E-07  0.8156E-11  0.1737E-03  0.2152E-08  0.4609E+10
   -1.105009    4.02865  0.0000E+00  0.6546E-07  0.8310E-11  0.1720E-03  0.1706E-08 -0.4794E+10
   -1.147510    4.02912  0.0000E+00  0.6571E-07  0.8478E-11  0.1700E-03  0.1334E-08 -0.9739E+10
   -1.190011    4.02960  0.0000E+00  0.6593E-07  0.8659E-11  0.1675E-03  0.1009E-08 -0.1376E+11
   -1.232512    4.03009  0.0000E+00  0.6611E-07  0.8869E-11  0.1645E-03  0.7311E-09 -0.2053E+11
   -1.275012    4.03059  0.0000E+00  0.6626E-07  0.9120E-11  0.1609E-03  0.5216E-09 -0.2342E+11
   -1.317512    4.03110  0.0000E+00  0.6638E-07  0.9427E-11  0.1566E-03  0.3653E-09 -0.4196E+11
   -1.360012    4.03164  0.0000E+00  0.6646E-07  0.9815E-11  0.1511E-03  0.2529E-09 -0.8009E+11
   -1.402512    4.03219  0.0000E+00  0.6650E-07  0.1033E-10  0.1444E-03  0.1770E-09 -0.1452E+12
   -1.445012    4.03277  0.0000E+00  0.6648E-07  0.1095E-10  0.1372E-03  0.1228E-09 -0.1941E+12
   -1.487511    4.03338  0.0000E+00  0.6641E-07  0.1172E-10  0.1289E-03  0.7927E-10 -0.2331E+12
   -1.530010    4.03404  0.0000E+00  0.6623E-07  0.1290E-10  0.1176E-03  0.4505E-10 -0.3053E+12
   -1.572508    4.03478  0.0000E+00  0.6578E-07  0.1538E-10  0.1016E-03  0.2284E-10 -0.4499E+12
   -1.615007    4.03572  0.0000E+00  0.6382E-07  0.2608E-10  0.4555E-04  0.1261E-10 -0.1526E+13
   -1.657505    4.03803  0.0000E+00  0.4623E-07  0.1360E-09  0.2489E-05  0.4543E-11 -0.5431E+14
   -1.700002    4.08439  0.0000E+00  0.0000E+00  0.0000E+00  0.0000E+00  0.4518E-11  0.0000E+00
