 1 - depth, m
 2 - temperature, C
 3 - salinity, kg/kg
 4 - turbulent kinetic energy, m**2/s**2
 5 - dissipation rate, m**2/s**3
 6 - kinematic heat conductance, m**2/s
 7 - modulus of horizontal velocity, m/s
 8 - Richardson number, n/d
   -0.000000    1.05378  0.0000E+00  0.1636E-02  0.1924E-01  0.1520E-03  0.6267E+00  0.2209E-03
   -0.042497    1.08963  0.0000E+00  0.8363E-03  0.1233E-01  0.3073E-03  0.1356E+00  0.6407E-02
   -0.084995    1.10878  0.0000E+00  0.5366E-03  0.3608E-02  0.3658E-03  0.7588E-01  0.1049E-01
   -0.127493    1.11779  0.0000E+00  0.3905E-03  0.1473E-02  0.3180E-03  0.5721E-01  0.8072E-02
   -0.169992    1.12251  0.0000E+00  0.2959E-03  0.7789E-03  0.2834E-03  0.4552E-01  0.1476E-01
   -0.212490    1.12665  0.0000E+00  0.2280E-03  0.4517E-03  0.2662E-03  0.3649E-01  0.1933E-01
   -0.254990    1.13067  0.0000E+00  0.1789E-03  0.2788E-03  0.2592E-03  0.2954E-01  0.2649E+00
   -0.297489    1.13431  0.0000E+00  0.1445E-03  0.1902E-03  0.2507E-03  0.2523E-01  0.2239E+01
   -0.339989    1.13744  0.0000E+00  0.1184E-03  0.1328E-03  0.2464E-03  0.2231E-01  0.2733E+02
   -0.382489    1.14042  0.0000E+00  0.9871E-04  0.9285E-04  0.2447E-03  0.1943E-01  0.1248E+04
   -0.424989    1.14315  0.0000E+00  0.8423E-04  0.6442E-04  0.2430E-03  0.1727E-01  0.1583E+03
   -0.467489    1.14585  0.0000E+00  0.7324E-04  0.4396E-04  0.2406E-03  0.1507E-01  0.4527E+03
   -0.509990    1.14871  0.0000E+00  0.6395E-04  0.2934E-04  0.2368E-03  0.1313E-01  0.1801E+04
   -0.552491    1.15148  0.0000E+00  0.5678E-04  0.1915E-04  0.2353E-03  0.1137E-01  0.1413E+05
   -0.594992    1.15437  0.0000E+00  0.5065E-04  0.1227E-04  0.2326E-03  0.9830E-02  0.2391E+06
   -0.637493    1.15737  0.0000E+00  0.4531E-04  0.7706E-05  0.2326E-03  0.8485E-02  0.5641E+07
   -0.679994    1.15982  0.0000E+00  0.4065E-04  0.4771E-05  0.2317E-03  0.7428E-02  0.2506E+09
   -0.722495    1.16215  0.0000E+00  0.3648E-04  0.2931E-05  0.2308E-03  0.6527E-02  0.7732E+10
   -0.764996    1.16414  0.0000E+00  0.3273E-04  0.1800E-05  0.2310E-03  0.5784E-02 -0.4173E+11
   -0.807498    1.16581  0.0000E+00  0.2942E-04  0.1121E-05  0.2278E-03  0.5186E-02 -0.5010E+11
   -0.849999    1.16748  0.0000E+00  0.2647E-04  0.7292E-06  0.2230E-03  0.4661E-02  0.1040E+13
   -0.892500    1.16921  0.0000E+00  0.2381E-04  0.5030E-06  0.2179E-03  0.4200E-02 -0.7465E+10
   -0.935002    1.17084  0.0000E+00  0.2148E-04  0.3700E-06  0.2118E-03  0.3795E-02  0.1828E+12
   -0.977503    1.17265  0.0000E+00  0.1940E-04  0.2861E-06  0.2060E-03  0.3423E-02 -0.9653E+11
   -1.020004    1.17441  0.0000E+00  0.1756E-04  0.2293E-06  0.1982E-03  0.3088E-02 -0.1001E+12
   -1.062505    1.17641  0.0000E+00  0.1594E-04  0.1883E-06  0.1912E-03  0.2773E-02 -0.1204E+12
   -1.105006    1.17844  0.0000E+00  0.1451E-04  0.1570E-06  0.1818E-03  0.2485E-02 -0.7118E+11
   -1.147507    1.18084  0.0000E+00  0.1325E-04  0.1328E-06  0.1702E-03  0.2205E-02  0.1794E+13
   -1.190008    1.18481  0.0000E+00  0.1214E-04  0.1138E-06  0.1610E-03  0.1920E-02  0.1020E+14
   -1.232509    1.19184  0.0000E+00  0.1114E-04  0.9838E-07  0.1546E-03  0.1643E-02  0.1281E+14
   -1.275009    1.19737  0.0000E+00  0.1023E-04  0.8580E-07  0.1477E-03  0.1401E-02  0.1834E+14
   -1.317509    1.20220  0.0000E+00  0.9407E-05  0.7549E-07  0.1406E-03  0.1191E-02  0.1906E+14
   -1.360009    1.20755  0.0000E+00  0.8643E-05  0.6713E-07  0.1347E-03  0.1010E-02  0.3547E+13
   -1.402509    1.21098  0.0000E+00  0.7912E-05  0.6047E-07  0.1249E-03  0.8598E-03  0.2361E+14
   -1.445008    1.21554  0.0000E+00  0.7255E-05  0.5607E-07  0.1108E-03  0.7255E-03  0.2394E+15
   -1.487508    1.23073  0.0000E+00  0.6664E-05  0.5428E-07  0.9847E-04  0.5951E-03  0.1045E+16
   -1.530006    1.27718  0.0000E+00  0.6110E-05  0.5673E-07  0.8652E-04  0.4677E-03  0.1492E+16
   -1.572505    1.34628  0.0000E+00  0.5557E-05  0.7101E-07  0.7683E-04  0.3571E-03  0.4593E+15
   -1.615003    1.37410  0.0000E+00  0.4547E-05  0.1361E-06  0.4446E-04  0.2858E-03  0.6781E+15
   -1.657501    1.41728  0.0000E+00  0.2649E-05  0.3982E-06  0.8292E-05  0.2166E-03  0.5968E+15
   -1.699998    1.56172  0.0000E+00  0.0000E+00  0.0000E+00  0.0000E+00  0.2565E-03  0.0000E+00
