 1 - depth, m
 2 - temperature, C
 3 - salinity, kg/kg
 4 - turbulent kinetic energy, m**2/s**2
 5 - dissipation rate, m**2/s**3
 6 - kinematic heat conductance, m**2/s
 7 - modulus of horizontal velocity, m/s
 8 - Richardson number, n/d
   -0.000000   12.72932  0.0000E+00  0.6561E-04  0.5664E-03  0.3994E-04  0.4932E-01 -0.1017E-01
   -0.042498   12.78016  0.0000E+00  0.3895E-04  0.3800E-03  0.6086E-04  0.1705E-01 -0.4897E-01
   -0.084996   12.79520  0.0000E+00  0.2898E-04  0.2828E-03  0.7020E-04  0.1147E-01 -0.1089E+00
   -0.127494   12.80593  0.0000E+00  0.2235E-04  0.2009E-03  0.9150E-04  0.8389E-02  0.2549E+02
   -0.169993   12.81412  0.0000E+00  0.1747E-04  0.1314E-03  0.1180E-03  0.6303E-02  0.3990E+02
   -0.212492   12.82074  0.0000E+00  0.1365E-04  0.7258E-04  0.1550E-03  0.4792E-02  0.2720E+02
   -0.254991   12.82601  0.0000E+00  0.1071E-04  0.2911E-04  0.2208E-03  0.3709E-02  0.4996E+04
   -0.297491   12.83001  0.0000E+00  0.8668E-05  0.7082E-05  0.2715E-03  0.2976E-02  0.2232E+02
   -0.339991   12.83320  0.0000E+00  0.7523E-05  0.1047E-05  0.3191E-03  0.2435E-02  0.2409E+03
   -0.382491   12.83586  0.0000E+00  0.6926E-05  0.1464E-06  0.3677E-03  0.2012E-02  0.8768E+01
   -0.424992   12.83788  0.0000E+00  0.6591E-05  0.5034E-07  0.4172E-03  0.1693E-02  0.3331E+02
   -0.467493   12.83952  0.0000E+00  0.6389E-05  0.3435E-07  0.4674E-03  0.1431E-02  0.3554E+01
   -0.509994   12.84091  0.0000E+00  0.6268E-05  0.2798E-07  0.5157E-03  0.1206E-02  0.4067E+01
   -0.552495   12.84209  0.0000E+00  0.6196E-05  0.2391E-07  0.5657E-03  0.1009E-02  0.6515E+01
   -0.594996   12.84314  0.0000E+00  0.6153E-05  0.2105E-07  0.6137E-03  0.8375E-03  0.1171E+02
   -0.637497   12.84407  0.0000E+00  0.6127E-05  0.1892E-07  0.6629E-03  0.6906E-03  0.6793E+01
   -0.679999   12.84491  0.0000E+00  0.6111E-05  0.1731E-07  0.7105E-03  0.5709E-03  0.1535E+01
   -0.722500   12.84567  0.0000E+00  0.6101E-05  0.1609E-07  0.7546E-03  0.4747E-03  0.1363E+01
   -0.765002   12.84637  0.0000E+00  0.6094E-05  0.1513E-07  0.7919E-03  0.4001E-03  0.1256E+01
   -0.807503   12.84703  0.0000E+00  0.6086E-05  0.1438E-07  0.8226E-03  0.3434E-03  0.1204E+01
   -0.850005   12.84765  0.0000E+00  0.6077E-05  0.1380E-07  0.8466E-03  0.2993E-03  0.1159E+01
   -0.892507   12.84825  0.0000E+00  0.6067E-05  0.1335E-07  0.8657E-03  0.2642E-03  0.1129E+01
   -0.935008   12.84883  0.0000E+00  0.6054E-05  0.1301E-07  0.8794E-03  0.2360E-03  0.1142E+01
   -0.977510   12.84939  0.0000E+00  0.6038E-05  0.1274E-07  0.8891E-03  0.2124E-03  0.1177E+01
   -1.020011   12.84993  0.0000E+00  0.6020E-05  0.1254E-07  0.8947E-03  0.1923E-03  0.1257E+01
   -1.062513   12.85046  0.0000E+00  0.6000E-05  0.1241E-07  0.8966E-03  0.1747E-03  0.1344E+01
   -1.105014   12.85099  0.0000E+00  0.5976E-05  0.1232E-07  0.8943E-03  0.1588E-03  0.1460E+01
   -1.147516   12.85150  0.0000E+00  0.5950E-05  0.1230E-07  0.8883E-03  0.1440E-03  0.1604E+01
   -1.190017   12.85201  0.0000E+00  0.5921E-05  0.1232E-07  0.8776E-03  0.1299E-03  0.1738E+01
   -1.232517   12.85251  0.0000E+00  0.5888E-05  0.1242E-07  0.8617E-03  0.1165E-03  0.1940E+01
   -1.275018   12.85301  0.0000E+00  0.5850E-05  0.1260E-07  0.8394E-03  0.1041E-03  0.2387E+01
   -1.317519   12.85353  0.0000E+00  0.5804E-05  0.1289E-07  0.8099E-03  0.9269E-04  0.3057E+01
   -1.360019   12.85405  0.0000E+00  0.5749E-05  0.1335E-07  0.7691E-03  0.8214E-04  0.4011E+01
   -1.402519   12.85461  0.0000E+00  0.5680E-05  0.1406E-07  0.7228E-03  0.7249E-04  0.5788E+01
   -1.445019   12.85519  0.0000E+00  0.5602E-05  0.1510E-07  0.6562E-03  0.6339E-04  0.9295E+01
   -1.487518   12.85582  0.0000E+00  0.5514E-05  0.1664E-07  0.6156E-03  0.5406E-04  0.1652E+02
   -1.530017   12.85651  0.0000E+00  0.5397E-05  0.1955E-07  0.4870E-03  0.4494E-04  0.1670E+04
   -1.572516   12.85749  0.0000E+00  0.5199E-05  0.2631E-07  0.5673E-03  0.3511E-04  0.4196E+05
   -1.615014   12.85819  0.0000E+00  0.4519E-05  0.5934E-07  0.2093E-03  0.2990E-04 -0.1845E+06
   -1.657512   12.86395  0.0000E+00  0.2913E-05  0.1842E-06  0.7394E-04  0.1897E-04 -0.3507E+05
   -1.700010   12.86941  0.0000E+00  0.0000E+00  0.0000E+00  0.0000E+00  0.2364E-04  0.0000E+00
