 1 - depth, m
 2 - temperature, C
 3 - salinity, kg/kg
 4 - turbulent kinetic energy, m**2/s**2
 5 - dissipation rate, m**2/s**3
 6 - kinematic heat conductance, m**2/s
 7 - modulus of horizontal velocity, m/s
 8 - Richardson number, n/d
   -0.000000   14.60497  0.0000E+00  0.2106E-03  0.1575E-03  0.6864E-04  0.1497E+00  0.2039E-01
   -0.042497   14.68148  0.0000E+00  0.1126E-03  0.4555E-04  0.1167E-03  0.3691E-01 -0.3499E-01
   -0.084995   14.69446  0.0000E+00  0.7729E-04  0.1941E-04  0.1080E-03  0.2392E-01 -0.3931E-01
   -0.127493   14.70469  0.0000E+00  0.5684E-04  0.9559E-05  0.1054E-03  0.1839E-01 -0.1532E+00
   -0.169991   14.71319  0.0000E+00  0.4274E-04  0.4839E-05  0.1079E-03  0.1453E-01  0.5918E-01
   -0.212490   14.72053  0.0000E+00  0.3246E-04  0.2430E-05  0.1160E-03  0.1149E-01  0.2330E+02
   -0.254989   14.72696  0.0000E+00  0.2507E-04  0.1261E-05  0.1281E-03  0.9126E-02  0.1410E+03
   -0.297489   14.73250  0.0000E+00  0.1989E-04  0.6934E-06  0.1476E-03  0.7373E-02  0.6288E+02
   -0.339988   14.73714  0.0000E+00  0.1634E-04  0.4160E-06  0.1774E-03  0.6046E-02  0.2128E+02
   -0.382488   14.74101  0.0000E+00  0.1385E-04  0.2695E-06  0.2166E-03  0.4999E-02  0.8708E+02
   -0.424988   14.74415  0.0000E+00  0.1210E-04  0.1842E-06  0.2624E-03  0.4198E-02  0.2103E+03
   -0.467489   14.74677  0.0000E+00  0.1085E-04  0.1319E-06  0.3112E-03  0.3526E-02  0.2233E+03
   -0.509989   14.74891  0.0000E+00  0.9939E-05  0.9833E-07  0.3612E-03  0.2956E-02  0.5383E+02
   -0.552490   14.75073  0.0000E+00  0.9254E-05  0.7586E-07  0.4077E-03  0.2468E-02  0.4536E+02
   -0.594991   14.75225  0.0000E+00  0.8732E-05  0.6045E-07  0.4527E-03  0.2044E-02  0.3604E+02
   -0.637492   14.75357  0.0000E+00  0.8319E-05  0.4940E-07  0.4971E-03  0.1680E-02  0.2861E+02
   -0.679993   14.75472  0.0000E+00  0.7991E-05  0.4131E-07  0.5438E-03  0.1379E-02  0.2275E+02
   -0.722494   14.75574  0.0000E+00  0.7728E-05  0.3528E-07  0.5922E-03  0.1132E-02  0.3611E+01
   -0.764995   14.75665  0.0000E+00  0.7519E-05  0.3073E-07  0.6408E-03  0.9368E-03  0.7010E+02
   -0.807496   14.75747  0.0000E+00  0.7356E-05  0.2727E-07  0.6823E-03  0.7871E-03  0.4811E+01
   -0.849998   14.75823  0.0000E+00  0.7229E-05  0.2467E-07  0.7167E-03  0.6690E-03  0.1179E+01
   -0.892499   14.75894  0.0000E+00  0.7130E-05  0.2267E-07  0.7452E-03  0.5744E-03  0.1149E+01
   -0.935000   14.75962  0.0000E+00  0.7052E-05  0.2116E-07  0.7681E-03  0.4981E-03  0.1166E+01
   -0.977501   14.76028  0.0000E+00  0.6990E-05  0.2003E-07  0.7863E-03  0.4347E-03  0.1172E+01
   -1.020003   14.76092  0.0000E+00  0.6939E-05  0.1920E-07  0.7991E-03  0.3822E-03  0.1217E+01
   -1.062504   14.76156  0.0000E+00  0.6897E-05  0.1860E-07  0.8068E-03  0.3372E-03  0.1260E+01
   -1.105005   14.76220  0.0000E+00  0.6858E-05  0.1821E-07  0.8092E-03  0.2983E-03  0.1342E+01
   -1.147505   14.76284  0.0000E+00  0.6822E-05  0.1799E-07  0.8062E-03  0.2634E-03  0.1450E+01
   -1.190006   14.76351  0.0000E+00  0.6786E-05  0.1793E-07  0.7975E-03  0.2313E-03  0.1549E+01
   -1.232507   14.76419  0.0000E+00  0.6747E-05  0.1802E-07  0.7829E-03  0.2019E-03  0.1684E+01
   -1.275007   14.76488  0.0000E+00  0.6703E-05  0.1827E-07  0.7625E-03  0.1767E-03  0.2045E+01
   -1.317507   14.76561  0.0000E+00  0.6650E-05  0.1872E-07  0.7366E-03  0.1549E-03  0.2648E+01
   -1.360007   14.76636  0.0000E+00  0.6583E-05  0.1946E-07  0.6968E-03  0.1359E-03  0.3612E+01
   -1.402507   14.76717  0.0000E+00  0.6495E-05  0.2067E-07  0.6579E-03  0.1190E-03  0.5523E+01
   -1.445006   14.76804  0.0000E+00  0.6389E-05  0.2257E-07  0.5900E-03  0.1034E-03  0.7630E+01
   -1.487505   14.76907  0.0000E+00  0.6258E-05  0.2555E-07  0.5583E-03  0.8676E-04  0.7822E+03
   -1.530004   14.77023  0.0000E+00  0.6058E-05  0.3183E-07  0.4476E-03  0.7074E-04 -0.2126E+05
   -1.572502   14.77230  0.0000E+00  0.5703E-05  0.4667E-07  0.4688E-03  0.5248E-04  0.3635E+05
   -1.615000   14.77338  0.0000E+00  0.4766E-05  0.1124E-06  0.2018E-03  0.4265E-04 -0.6523E+07
   -1.657498   14.78331  0.0000E+00  0.3135E-05  0.3203E-06  0.8931E-04  0.2685E-04 -0.2566E+06
   -1.699995   14.79118  0.0000E+00  0.0000E+00  0.0000E+00  0.0000E+00  0.3618E-04  0.0000E+00
