 1 - depth, m
 2 - temperature, C
 3 - salinity, kg/kg
 4 - turbulent kinetic energy, m**2/s**2
 5 - dissipation rate, m**2/s**3
 6 - kinematic heat conductance, m**2/s
 7 - modulus of horizontal velocity, m/s
 8 - Richardson number, n/d
   -0.000000    0.00000  0.0000E+00  0.3189E-13  0.5206E-16  0.1000E-09  0.0000E+00  0.9289E+16
   -0.042497    0.14205  0.0000E+00  0.3189E-13  0.5206E-16  0.1000E-09  0.0000E+00  0.9338E+16
   -0.084995    0.29072  0.0000E+00  0.3189E-13  0.5206E-16  0.1000E-09  0.0000E+00  0.9292E+16
   -0.127493    0.44525  0.0000E+00  0.3189E-13  0.5206E-16  0.1000E-09  0.0000E+00  0.8810E+16
   -0.169992    0.59868  0.0000E+00  0.3189E-13  0.5206E-16  0.1000E-09  0.0000E+00  0.8324E+16
   -0.212491    0.75072  0.0000E+00  0.3189E-13  0.5206E-16  0.1000E-09  0.0000E+00  0.7832E+16
   -0.254990    0.90100  0.0000E+00  0.3189E-13  0.5206E-16  0.1000E-09  0.0000E+00  0.7339E+16
   -0.297490    1.04916  0.0000E+00  0.3189E-13  0.5206E-16  0.1000E-09  0.0000E+00  0.6859E+16
   -0.339989    1.19510  0.0000E+00  0.3189E-13  0.5206E-16  0.1000E-09  0.0000E+00  0.6399E+16
   -0.382489    1.33886  0.0000E+00  0.3189E-13  0.5206E-16  0.1000E-09  0.0000E+00  0.5948E+16
   -0.424990    1.48022  0.0000E+00  0.3189E-13  0.5206E-16  0.1000E-09  0.0000E+00  0.5524E+16
   -0.467490    1.61938  0.0000E+00  0.3189E-13  0.5206E-16  0.1000E-09  0.0000E+00  0.5111E+16
   -0.509991    1.75617  0.0000E+00  0.3189E-13  0.5206E-16  0.1000E-09  0.0000E+00  0.4734E+16
   -0.552492    1.89115  0.0000E+00  0.3189E-13  0.5206E-16  0.1000E-09  0.0000E+00  0.4372E+16
   -0.594993    2.02431  0.0000E+00  0.3189E-13  0.5206E-16  0.1000E-09  0.0000E+00  0.4015E+16
   -0.637494    2.15542  0.0000E+00  0.3189E-13  0.5206E-16  0.1000E-09  0.0000E+00  0.3662E+16
   -0.679995    2.28407  0.0000E+00  0.3189E-13  0.5206E-16  0.1000E-09  0.0000E+00  0.3319E+16
   -0.722496    2.40996  0.0000E+00  0.3189E-13  0.5206E-16  0.1000E-09  0.0000E+00  0.2980E+16
   -0.764998    2.53253  0.0000E+00  0.3189E-13  0.5206E-16  0.1000E-09  0.0000E+00  0.2651E+16
   -0.807499    2.65121  0.0000E+00  0.3300E-13  0.5206E-16  0.1000E-09  0.0000E+00  0.2344E+16
   -0.850001    2.76598  0.0000E+00  0.1252E-12  0.5235E-16  0.1000E-09  0.0000E+00  0.2057E+16
   -0.892502    2.87665  0.0000E+00  0.3557E-12  0.8074E-16  0.1000E-09  0.0000E+00  0.1808E+16
   -0.935003    2.98414  0.0000E+00  0.8001E-12  0.1536E-15  0.1000E-09  0.0000E+00  0.1590E+16
   -0.977505    3.08945  0.0000E+00  0.1652E-11  0.2993E-15  0.1000E-09  0.0000E+00  0.1381E+16
   -1.020006    3.19233  0.0000E+00  0.3291E-11  0.5781E-15  0.1000E-09  0.0000E+00  0.1184E+16
   -1.062507    3.29281  0.0000E+00  0.6440E-11  0.1105E-14  0.1000E-09  0.0000E+00  0.9982E+15
   -1.105008    3.39066  0.0000E+00  0.1248E-10  0.2096E-14  0.1000E-09  0.0000E+00  0.8258E+15
   -1.147509    3.48603  0.0000E+00  0.2379E-10  0.3917E-14  0.1000E-09  0.0000E+00  0.6657E+15
   -1.190010    3.57900  0.0000E+00  0.4500E-10  0.7261E-14  0.1000E-09  0.0000E+00  0.5136E+15
   -1.232511    3.66898  0.0000E+00  0.8663E-10  0.1370E-13  0.1186E-09  0.0000E+00  0.3675E+15
   -1.275011    3.75396  0.0000E+00  0.1687E-09  0.2615E-13  0.3391E-09  0.0000E+00  0.2427E+15
   -1.317512    3.83432  0.0000E+00  0.3311E-09  0.5034E-13  0.1133E-08  0.0000E+00  0.1398E+15
   -1.360012    3.91363  0.0000E+00  0.6543E-09  0.9764E-13  0.7440E-08  0.0000E+00  0.4137E+14
   -1.402512    3.98907  0.0000E+00  0.1096E-08  0.1634E-12  0.2350E-05  0.0000E+00 -0.3532E+12
   -1.445011    3.99381  0.0000E+00  0.1383E-08  0.2193E-12  0.3383E-05  0.0000E+00 -0.4505E+12
   -1.487510    3.99700  0.0000E+00  0.1600E-08  0.2779E-12  0.3723E-05  0.0000E+00 -0.5515E+12
   -1.530009    3.99990  0.0000E+00  0.1765E-08  0.3560E-12  0.3531E-05  0.0000E+00 -0.7428E+12
   -1.572508    4.00304  0.0000E+00  0.1886E-08  0.5080E-12  0.2722E-05  0.0000E+00 -0.1305E+13
   -1.615006    4.00744  0.0000E+00  0.1919E-08  0.9888E-12  0.1194E-05  0.0000E+00 -0.4323E+13
   -1.657504    4.01790  0.0000E+00  0.1686E-08  0.2390E-11  0.3120E-06  0.0000E+00 -0.2843E+14
   -1.700001    4.05435  0.0000E+00  0.0000E+00  0.0000E+00  0.0000E+00  0.0000E+00  0.0000E+00
