 1 - depth, m
 2 - temperature, C
 3 - salinity, kg/kg
 4 - turbulent kinetic energy, m**2/s**2
 5 - dissipation rate, m**2/s**3
 6 - kinematic heat conductance, m**2/s
 7 - modulus of horizontal velocity, m/s
 8 - Richardson number, n/d
   -0.000000    0.00000  0.0000E+00  0.8376E-13  0.5255E-16  0.1000E-09  0.0000E+00  0.2168E+17
   -0.042497    0.34081  0.0000E+00  0.1583E-12  0.5660E-16  0.1000E-09  0.0000E+00  0.1780E+17
   -0.084994    0.64828  0.0000E+00  0.3808E-12  0.7815E-16  0.1000E-09  0.0000E+00  0.1463E+17
   -0.127492    0.92540  0.0000E+00  0.8139E-12  0.1407E-15  0.1000E-09  0.0000E+00  0.1191E+17
   -0.169990    1.17223  0.0000E+00  0.1628E-11  0.2646E-15  0.1000E-09  0.0000E+00  0.9687E+16
   -0.212488    1.39111  0.0000E+00  0.3164E-11  0.4984E-15  0.1000E-09  0.0000E+00  0.7806E+16
   -0.254987    1.58263  0.0000E+00  0.6073E-11  0.9354E-15  0.1000E-09  0.0000E+00  0.6230E+16
   -0.297486    1.74771  0.0000E+00  0.1158E-10  0.1749E-14  0.1000E-09  0.0000E+00  0.5054E+16
   -0.339985    1.89157  0.0000E+00  0.2177E-10  0.3227E-14  0.1000E-09  0.0000E+00  0.4268E+16
   -0.382485    2.02154  0.0000E+00  0.4061E-10  0.5913E-14  0.1000E-09  0.0000E+00  0.3639E+16
   -0.424985    2.13982  0.0000E+00  0.7509E-10  0.1074E-13  0.1000E-09  0.0000E+00  0.3293E+16
   -0.467485    2.25406  0.0000E+00  0.1378E-09  0.1937E-13  0.1000E-09  0.0000E+00  0.3018E+16
   -0.509985    2.36600  0.0000E+00  0.2519E-09  0.3480E-13  0.1000E-09  0.0000E+00  0.2978E+16
   -0.552485    2.48487  0.0000E+00  0.4594E-09  0.6239E-13  0.1002E-09  0.0000E+00  0.2969E+16
   -0.594986    2.61386  0.0000E+00  0.8360E-09  0.1116E-12  0.1283E-09  0.0000E+00  0.2927E+16
   -0.637486    2.75457  0.0000E+00  0.1534E-08  0.2015E-12  0.2247E-09  0.0000E+00  0.2834E+16
   -0.679987    2.90860  0.0000E+00  0.2829E-08  0.3658E-12  0.4303E-09  0.0000E+00  0.2693E+16
   -0.722488    3.07957  0.0000E+00  0.5242E-08  0.6676E-12  0.8637E-09  0.0000E+00  0.2465E+16
   -0.764989    3.27196  0.0000E+00  0.9760E-08  0.1225E-11  0.1901E-08  0.0000E+00  0.2089E+16
   -0.807490    3.49216  0.0000E+00  0.1813E-07  0.2244E-11  0.5583E-08  0.0000E+00  0.1439E+16
   -0.849991    3.74638  0.0000E+00  0.3047E-07  0.3716E-11  0.5583E-05  0.0000E+00  0.5007E+15
   -0.892492    3.97699  0.0000E+00  0.3475E-07  0.4248E-11  0.7634E-04  0.0000E+00  0.3239E+14
   -0.934993    4.02183  0.0000E+00  0.3531E-07  0.4329E-11  0.1006E-03  0.0000E+00 -0.2751E+12
   -0.977493    4.02233  0.0000E+00  0.3574E-07  0.4402E-11  0.1002E-03  0.0000E+00 -0.2852E+12
   -1.019994    4.02284  0.0000E+00  0.3616E-07  0.4483E-11  0.1005E-03  0.0000E+00 -0.2915E+12
   -1.062495    4.02335  0.0000E+00  0.3655E-07  0.4571E-11  0.1006E-03  0.0000E+00 -0.2995E+12
   -1.104996    4.02387  0.0000E+00  0.3691E-07  0.4668E-11  0.1005E-03  0.0000E+00 -0.3072E+12
   -1.147496    4.02439  0.0000E+00  0.3723E-07  0.4772E-11  0.1001E-03  0.0000E+00 -0.3153E+12
   -1.189996    4.02492  0.0000E+00  0.3752E-07  0.4883E-11  0.9932E-04  0.0000E+00 -0.3273E+12
   -1.232497    4.02546  0.0000E+00  0.3778E-07  0.5011E-11  0.9816E-04  0.0000E+00 -0.3491E+12
   -1.274997    4.02603  0.0000E+00  0.3801E-07  0.5161E-11  0.9664E-04  0.0000E+00 -0.3722E+12
   -1.317496    4.02663  0.0000E+00  0.3821E-07  0.5340E-11  0.9459E-04  0.0000E+00 -0.3864E+12
   -1.359996    4.02724  0.0000E+00  0.3837E-07  0.5565E-11  0.9185E-04  0.0000E+00 -0.4057E+12
   -1.402495    4.02787  0.0000E+00  0.3850E-07  0.5859E-11  0.8841E-04  0.0000E+00 -0.4294E+12
   -1.444994    4.02852  0.0000E+00  0.3858E-07  0.6210E-11  0.8461E-04  0.0000E+00 -0.4575E+12
   -1.487493    4.02921  0.0000E+00  0.3859E-07  0.6643E-11  0.7988E-04  0.0000E+00 -0.4967E+12
   -1.529991    4.02995  0.0000E+00  0.3852E-07  0.7300E-11  0.7317E-04  0.0000E+00 -0.5689E+12
   -1.572489    4.03078  0.0000E+00  0.3827E-07  0.8691E-11  0.6295E-04  0.0000E+00 -0.7538E+12
   -1.614987    4.03185  0.0000E+00  0.3702E-07  0.1468E-10  0.2650E-04  0.0000E+00 -0.2098E+13
   -1.657484    4.03473  0.0000E+00  0.2747E-07  0.6511E-10  0.2034E-05  0.0000E+00 -0.4578E+14
   -1.699981    4.07689  0.0000E+00  0.0000E+00  0.0000E+00  0.0000E+00  0.0000E+00  0.0000E+00
