 1 - depth, m
 2 - temperature, C
 3 - salinity, kg/kg
 4 - turbulent kinetic energy, m**2/s**2
 5 - dissipation rate, m**2/s**3
 6 - kinematic heat conductance, m**2/s
 7 - modulus of horizontal velocity, m/s
 8 - Richardson number, n/d
   -0.000000   10.80159  0.0000E+00  0.1936E-03  0.1141E-03  0.6108E-04  0.1215E+00  0.5417E-02
   -0.042498   10.85526  0.0000E+00  0.1033E-03  0.3772E-04  0.1178E-03  0.3086E-01 -0.4540E-01
   -0.084996   10.86557  0.0000E+00  0.7377E-04  0.1921E-04  0.1067E-03  0.2094E-01 -0.4728E-01
   -0.127494   10.87379  0.0000E+00  0.5465E-04  0.9902E-05  0.1007E-03  0.1631E-01 -0.7449E-01
   -0.169993   10.88062  0.0000E+00  0.4059E-04  0.4841E-05  0.9929E-04  0.1293E-01 -0.5453E-01
   -0.212492   10.88682  0.0000E+00  0.3035E-04  0.2453E-05  0.1018E-03  0.1022E-01  0.2182E+01
   -0.254991   10.89249  0.0000E+00  0.2285E-04  0.1236E-05  0.1088E-03  0.8116E-02  0.1995E+01
   -0.297491   10.89766  0.0000E+00  0.1766E-04  0.6694E-06  0.1283E-03  0.6531E-02  0.7997E+03
   -0.339991   10.90207  0.0000E+00  0.1413E-04  0.3937E-06  0.1627E-03  0.5307E-02  0.3830E+02
   -0.382491   10.90576  0.0000E+00  0.1166E-04  0.2485E-06  0.1817E-03  0.4351E-02  0.1903E+02
   -0.424991   10.90885  0.0000E+00  0.9932E-05  0.1659E-06  0.2063E-03  0.3611E-02  0.4643E+01
   -0.467492   10.91156  0.0000E+00  0.8678E-05  0.1155E-06  0.2364E-03  0.2989E-02  0.1033E+02
   -0.509993   10.91387  0.0000E+00  0.7737E-05  0.8311E-07  0.2724E-03  0.2466E-02  0.3542E+02
   -0.552494   10.91585  0.0000E+00  0.7017E-05  0.6153E-07  0.3125E-03  0.2027E-02  0.2043E+02
   -0.594995   10.91753  0.0000E+00  0.6458E-05  0.4687E-07  0.3543E-03  0.1653E-02  0.3251E+02
   -0.637496   10.91898  0.0000E+00  0.6012E-05  0.3658E-07  0.3941E-03  0.1340E-02  0.2718E+02
   -0.679997   10.92023  0.0000E+00  0.5655E-05  0.2924E-07  0.4314E-03  0.1087E-02  0.8648E+02
   -0.722499   10.92134  0.0000E+00  0.5371E-05  0.2395E-07  0.4659E-03  0.8826E-03  0.3203E+02
   -0.765000   10.92234  0.0000E+00  0.5144E-05  0.2008E-07  0.4968E-03  0.7230E-03  0.1734E+02
   -0.807502   10.92325  0.0000E+00  0.4965E-05  0.1723E-07  0.5242E-03  0.6015E-03  0.3882E+01
   -0.850003   10.92409  0.0000E+00  0.4828E-05  0.1516E-07  0.5494E-03  0.5068E-03  0.2869E+01
   -0.892505   10.92486  0.0000E+00  0.4725E-05  0.1364E-07  0.5718E-03  0.4323E-03  0.5316E+01
   -0.935007   10.92559  0.0000E+00  0.4646E-05  0.1252E-07  0.5905E-03  0.3737E-03  0.1377E+01
   -0.977508   10.92628  0.0000E+00  0.4585E-05  0.1167E-07  0.6055E-03  0.3253E-03  0.1487E+01
   -1.020010   10.92695  0.0000E+00  0.4534E-05  0.1101E-07  0.6181E-03  0.2850E-03  0.1673E+01
   -1.062511   10.92760  0.0000E+00  0.4492E-05  0.1050E-07  0.6281E-03  0.2503E-03  0.1830E+01
   -1.105012   10.92824  0.0000E+00  0.4456E-05  0.1010E-07  0.6355E-03  0.2201E-03  0.2032E+01
   -1.147513   10.92887  0.0000E+00  0.4425E-05  0.9818E-08  0.6396E-03  0.1929E-03  0.2251E+01
   -1.190014   10.92949  0.0000E+00  0.4396E-05  0.9625E-08  0.6402E-03  0.1677E-03  0.2470E+01
   -1.232515   10.93011  0.0000E+00  0.4369E-05  0.9510E-08  0.6367E-03  0.1446E-03  0.2757E+01
   -1.275016   10.93073  0.0000E+00  0.4341E-05  0.9469E-08  0.6292E-03  0.1247E-03  0.3442E+01
   -1.317516   10.93136  0.0000E+00  0.4311E-05  0.9507E-08  0.6168E-03  0.1077E-03  0.4461E+01
   -1.360016   10.93200  0.0000E+00  0.4276E-05  0.9640E-08  0.5978E-03  0.9283E-04  0.5957E+01
   -1.402516   10.93265  0.0000E+00  0.4234E-05  0.9907E-08  0.5707E-03  0.7993E-04  0.8651E+01
   -1.445016   10.93334  0.0000E+00  0.4188E-05  0.1033E-07  0.5362E-03  0.6816E-04  0.1293E+02
   -1.487515   10.93407  0.0000E+00  0.4138E-05  0.1096E-07  0.5007E-03  0.5682E-04  0.1642E+02
   -1.530014   10.93485  0.0000E+00  0.4074E-05  0.1213E-07  0.4234E-03  0.4592E-04  0.2129E+02
   -1.572513   10.93578  0.0000E+00  0.3963E-05  0.1491E-07  0.4596E-03  0.3564E-04  0.2907E+02
   -1.615011   10.93663  0.0000E+00  0.3541E-05  0.2964E-07  0.1757E-03  0.2972E-04 -0.2188E+07
   -1.657509   10.94194  0.0000E+00  0.2256E-05  0.9499E-07  0.5204E-04  0.1856E-04 -0.1294E+05
   -1.700007   10.94958  0.0000E+00  0.0000E+00  0.0000E+00  0.0000E+00  0.2190E-04  0.0000E+00
