 1 - depth, m
 2 - temperature, C
 3 - salinity, kg/kg
 4 - turbulent kinetic energy, m**2/s**2
 5 - dissipation rate, m**2/s**3
 6 - kinematic heat conductance, m**2/s
 7 - modulus of horizontal velocity, m/s
 8 - Richardson number, n/d
   -0.000000   10.64051  0.0000E+00  0.1716E-03  0.2090E-03  0.5681E-04  0.1179E+00 -0.5459E-01
   -0.042497   10.67285  0.0000E+00  0.9146E-04  0.7200E-04  0.9262E-04  0.3216E-01 -0.5142E-01
   -0.084995   10.68061  0.0000E+00  0.6171E-04  0.2447E-04  0.8841E-04  0.2073E-01 -0.2710E-01
   -0.127493   10.68737  0.0000E+00  0.4421E-04  0.1033E-04  0.8170E-04  0.1552E-01 -0.3445E-01
   -0.169992   10.69323  0.0000E+00  0.3248E-04  0.4820E-05  0.8182E-04  0.1189E-01 -0.5629E-01
   -0.212491   10.69865  0.0000E+00  0.2400E-04  0.2228E-05  0.8465E-04  0.9078E-02 -0.1791E-01
   -0.254990   10.70371  0.0000E+00  0.1809E-04  0.1076E-05  0.9083E-04  0.6954E-02  0.4016E+02
   -0.297489   10.70809  0.0000E+00  0.1409E-04  0.5697E-06  0.1014E-03  0.5456E-02  0.2220E+02
   -0.339989   10.71170  0.0000E+00  0.1141E-04  0.3364E-06  0.1285E-03  0.4365E-02  0.1361E+03
   -0.382489   10.71472  0.0000E+00  0.9557E-05  0.2165E-06  0.1731E-03  0.3527E-02  0.3173E+03
   -0.424989   10.71698  0.0000E+00  0.8265E-05  0.1481E-06  0.2049E-03  0.2921E-02  0.4582E+02
   -0.467490   10.71891  0.0000E+00  0.7320E-05  0.1058E-06  0.2349E-03  0.2430E-02  0.1251E+04
   -0.509990   10.72053  0.0000E+00  0.6600E-05  0.7806E-07  0.2667E-03  0.2018E-02  0.1548E+03
   -0.552491   10.72194  0.0000E+00  0.6036E-05  0.5919E-07  0.2978E-03  0.1669E-02  0.1284E+02
   -0.594992   10.72318  0.0000E+00  0.5584E-05  0.4596E-07  0.3289E-03  0.1369E-02  0.4010E+02
   -0.637493   10.72429  0.0000E+00  0.5213E-05  0.3633E-07  0.3608E-03  0.1116E-02  0.6501E+01
   -0.679994   10.72528  0.0000E+00  0.4910E-05  0.2923E-07  0.3925E-03  0.9128E-03  0.1079E+02
   -0.722496   10.72617  0.0000E+00  0.4663E-05  0.2392E-07  0.4242E-03  0.7499E-03  0.4783E+01
   -0.764997   10.72695  0.0000E+00  0.4462E-05  0.1991E-07  0.4531E-03  0.6232E-03  0.1357E+02
   -0.807498   10.72766  0.0000E+00  0.4300E-05  0.1684E-07  0.4797E-03  0.5267E-03  0.2368E+02
   -0.850000   10.72831  0.0000E+00  0.4171E-05  0.1451E-07  0.5030E-03  0.4502E-03  0.2662E+01
   -0.892501   10.72892  0.0000E+00  0.4068E-05  0.1271E-07  0.5234E-03  0.3882E-03  0.1435E+02
   -0.935003   10.72951  0.0000E+00  0.3986E-05  0.1133E-07  0.5415E-03  0.3373E-03  0.2363E+01
   -0.977504   10.73007  0.0000E+00  0.3921E-05  0.1027E-07  0.5578E-03  0.2940E-03  0.4960E+01
   -1.020005   10.73062  0.0000E+00  0.3870E-05  0.9460E-08  0.5722E-03  0.2573E-03  0.3618E+01
   -1.062507   10.73116  0.0000E+00  0.3829E-05  0.8839E-08  0.5843E-03  0.2252E-03  0.3777E+01
   -1.105008   10.73169  0.0000E+00  0.3797E-05  0.8373E-08  0.5939E-03  0.1971E-03  0.3810E+01
   -1.147509   10.73221  0.0000E+00  0.3771E-05  0.8037E-08  0.5999E-03  0.1716E-03  0.4320E+01
   -1.190009   10.73274  0.0000E+00  0.3749E-05  0.7805E-08  0.6026E-03  0.1478E-03  0.4810E+01
   -1.232510   10.73327  0.0000E+00  0.3729E-05  0.7650E-08  0.6017E-03  0.1258E-03  0.5501E+01
   -1.275010   10.73381  0.0000E+00  0.3709E-05  0.7568E-08  0.5972E-03  0.1068E-03  0.6978E+01
   -1.317511   10.73436  0.0000E+00  0.3689E-05  0.7559E-08  0.5881E-03  0.9074E-04  0.9130E+01
   -1.360011   10.73492  0.0000E+00  0.3667E-05  0.7632E-08  0.5733E-03  0.7716E-04  0.1220E+02
   -1.402510   10.73549  0.0000E+00  0.3641E-05  0.7809E-08  0.5519E-03  0.6578E-04  0.1773E+02
   -1.445010   10.73609  0.0000E+00  0.3613E-05  0.8102E-08  0.5244E-03  0.5577E-04  0.2634E+02
   -1.487509   10.73674  0.0000E+00  0.3580E-05  0.8556E-08  0.4933E-03  0.4632E-04  0.3307E+02
   -1.530008   10.73744  0.0000E+00  0.3536E-05  0.9397E-08  0.4360E-03  0.3734E-04  0.4027E+02
   -1.572506   10.73826  0.0000E+00  0.3454E-05  0.1139E-07  0.4176E-03  0.2890E-04  0.5593E+02
   -1.615005   10.73909  0.0000E+00  0.3168E-05  0.2089E-07  0.2242E-03  0.2353E-04 -0.3046E+07
   -1.657502   10.74245  0.0000E+00  0.2087E-05  0.6913E-07  0.3554E-04  0.1589E-04 -0.5867E+05
   -1.700000   10.75500  0.0000E+00  0.0000E+00  0.0000E+00  0.0000E+00  0.1823E-04  0.0000E+00
