 1 - depth, m
 2 - temperature, C
 3 - salinity, kg/kg
 4 - turbulent kinetic energy, m**2/s**2
 5 - dissipation rate, m**2/s**3
 6 - kinematic heat conductance, m**2/s
 7 - modulus of horizontal velocity, m/s
 8 - Richardson number, n/d
   -0.000000   14.95826  0.0000E+00  0.7813E-04  0.2838E-04  0.4711E-04  0.6206E-01 -0.2389E-01
   -0.042497   15.01408  0.0000E+00  0.4306E-04  0.8147E-05  0.7513E-04  0.1781E-01 -0.4631E-01
   -0.084995   15.02610  0.0000E+00  0.3048E-04  0.3530E-05  0.9666E-04  0.1199E-01  0.3114E+03
   -0.127493   15.03430  0.0000E+00  0.2258E-04  0.1729E-05  0.1157E-03  0.9013E-02  0.5043E+02
   -0.169991   15.04081  0.0000E+00  0.1721E-04  0.8926E-06  0.1405E-03  0.6913E-02  0.2926E+02
   -0.212490   15.04631  0.0000E+00  0.1343E-04  0.4759E-06  0.1709E-03  0.5315E-02  0.1645E+02
   -0.254989   15.05102  0.0000E+00  0.1081E-04  0.2645E-06  0.2089E-03  0.4124E-02  0.1456E+03
   -0.297489   15.05495  0.0000E+00  0.9058E-05  0.1550E-06  0.2527E-03  0.3268E-02  0.5786E+02
   -0.339988   15.05816  0.0000E+00  0.7938E-05  0.9780E-07  0.3020E-03  0.2641E-02  0.1034E+03
   -0.382488   15.06071  0.0000E+00  0.7230E-05  0.6673E-07  0.3561E-03  0.2164E-02  0.2124E+03
   -0.424988   15.06270  0.0000E+00  0.6793E-05  0.4887E-07  0.4034E-03  0.1807E-02  0.1458E+02
   -0.467489   15.06430  0.0000E+00  0.6526E-05  0.3804E-07  0.4531E-03  0.1514E-02  0.2365E+02
   -0.509989   15.06560  0.0000E+00  0.6368E-05  0.3118E-07  0.5017E-03  0.1270E-02  0.2085E+02
   -0.552490   15.06669  0.0000E+00  0.6276E-05  0.2656E-07  0.5480E-03  0.1062E-02  0.5837E+01
   -0.594991   15.06764  0.0000E+00  0.6222E-05  0.2329E-07  0.5913E-03  0.8820E-03  0.1410E+02
   -0.637492   15.06849  0.0000E+00  0.6189E-05  0.2084E-07  0.6354E-03  0.7269E-03  0.1648E+01
   -0.679993   15.06926  0.0000E+00  0.6169E-05  0.1896E-07  0.6781E-03  0.6002E-03  0.1485E+01
   -0.722494   15.06996  0.0000E+00  0.6157E-05  0.1752E-07  0.7197E-03  0.4978E-03  0.1386E+01
   -0.764996   15.07061  0.0000E+00  0.6149E-05  0.1639E-07  0.7573E-03  0.4181E-03  0.1308E+01
   -0.807497   15.07122  0.0000E+00  0.6144E-05  0.1551E-07  0.7888E-03  0.3577E-03  0.1310E+01
   -0.849998   15.07180  0.0000E+00  0.6138E-05  0.1484E-07  0.8148E-03  0.3107E-03  0.1335E+01
   -0.892499   15.07235  0.0000E+00  0.6132E-05  0.1432E-07  0.8355E-03  0.2732E-03  0.1393E+01
   -0.935001   15.07287  0.0000E+00  0.6124E-05  0.1392E-07  0.8511E-03  0.2429E-03  0.1491E+01
   -0.977502   15.07338  0.0000E+00  0.6113E-05  0.1363E-07  0.8619E-03  0.2176E-03  0.1598E+01
   -1.020003   15.07388  0.0000E+00  0.6100E-05  0.1342E-07  0.8684E-03  0.1962E-03  0.1744E+01
   -1.062504   15.07437  0.0000E+00  0.6085E-05  0.1327E-07  0.8705E-03  0.1775E-03  0.1904E+01
   -1.105005   15.07485  0.0000E+00  0.6065E-05  0.1320E-07  0.8685E-03  0.1609E-03  0.2088E+01
   -1.147506   15.07533  0.0000E+00  0.6043E-05  0.1319E-07  0.8623E-03  0.1455E-03  0.2329E+01
   -1.190007   15.07581  0.0000E+00  0.6017E-05  0.1324E-07  0.8516E-03  0.1309E-03  0.2540E+01
   -1.232507   15.07629  0.0000E+00  0.5987E-05  0.1337E-07  0.8353E-03  0.1171E-03  0.2874E+01
   -1.275008   15.07678  0.0000E+00  0.5948E-05  0.1361E-07  0.8123E-03  0.1044E-03  0.3553E+01
   -1.317508   15.07727  0.0000E+00  0.5901E-05  0.1398E-07  0.7826E-03  0.9260E-04  0.4610E+01
   -1.360008   15.07779  0.0000E+00  0.5842E-05  0.1456E-07  0.7402E-03  0.8184E-04  0.6110E+01
   -1.402508   15.07833  0.0000E+00  0.5764E-05  0.1549E-07  0.6953E-03  0.7196E-04  0.9063E+01
   -1.445007   15.07891  0.0000E+00  0.5671E-05  0.1693E-07  0.6273E-03  0.6273E-04  0.1556E+02
   -1.487506   15.07958  0.0000E+00  0.5558E-05  0.1916E-07  0.5878E-03  0.5287E-04  0.1625E+02
   -1.530005   15.08032  0.0000E+00  0.5393E-05  0.2381E-07  0.4639E-03  0.4321E-04 -0.1975E+05
   -1.572503   15.08158  0.0000E+00  0.5122E-05  0.3421E-07  0.5243E-03  0.3228E-04  0.8969E+05
   -1.615001   15.08212  0.0000E+00  0.4377E-05  0.8114E-07  0.2007E-03  0.2689E-04 -0.4318E+06
   -1.657499   15.08856  0.0000E+00  0.2845E-05  0.2348E-06  0.8201E-04  0.1687E-04 -0.1275E+06
   -1.699996   15.09320  0.0000E+00  0.0000E+00  0.0000E+00  0.0000E+00  0.2256E-04  0.0000E+00
