 1 - depth, m
 2 - temperature, C
 3 - salinity, kg/kg
 4 - turbulent kinetic energy, m**2/s**2
 5 - dissipation rate, m**2/s**3
 6 - kinematic heat conductance, m**2/s
 7 - modulus of horizontal velocity, m/s
 8 - Richardson number, n/d
   -0.000000    0.00000  0.0000E+00  0.2409E-05  0.9315E-07  0.6090E-05  0.6839E-02  0.7997E+14
   -0.042496    0.00745  0.0000E+00  0.1371E-05  0.2608E-07  0.7055E-05  0.3237E-02  0.9842E+14
   -0.084993    0.01488  0.0000E+00  0.7447E-06  0.8976E-08  0.6030E-05  0.1689E-02  0.1543E+15
   -0.127490    0.02680  0.0000E+00  0.3828E-06  0.3241E-08  0.4333E-05  0.8736E-03  0.1886E+15
   -0.169987    0.04249  0.0000E+00  0.1806E-06  0.1144E-08  0.2574E-05  0.4269E-03  0.2367E+15
   -0.212485    0.06377  0.0000E+00  0.7324E-07  0.3645E-09  0.1173E-05  0.1832E-03  0.2725E+15
   -0.254983    0.09006  0.0000E+00  0.2302E-07  0.9468E-10  0.3392E-06  0.6517E-04  0.2889E+15
   -0.297482    0.11881  0.0000E+00  0.4512E-08  0.1675E-10  0.3539E-07  0.1875E-04  0.3359E+15
   -0.339980    0.15163  0.0000E+00  0.5469E-09  0.1976E-11  0.2297E-08  0.4010E-05  0.4556E+15
   -0.382479    0.19303  0.0000E+00  0.5749E-10  0.2067E-12  0.2802E-09  0.6976E-06  0.6179E+15
   -0.424978    0.24123  0.0000E+00  0.5838E-11  0.2116E-13  0.1045E-09  0.1518E-06  0.9847E+15
   -0.467478    0.30533  0.0000E+00  0.5979E-12  0.2167E-14  0.1000E-09  0.3217E-07  0.1562E+16
   -0.509977    0.38627  0.0000E+00  0.8042E-13  0.2513E-15  0.1000E-09  0.6321E-08  0.2512E+16
   -0.552477    0.49032  0.0000E+00  0.3370E-13  0.6614E-16  0.1000E-09  0.1182E-08  0.3724E+16
   -0.594977    0.61827  0.0000E+00  0.3189E-13  0.5225E-16  0.1000E-09  0.1800E-09  0.5246E+16
   -0.637477    0.76638  0.0000E+00  0.3189E-13  0.5207E-16  0.1000E-09  0.2095E-10  0.6913E+16
   -0.679977    0.92764  0.0000E+00  0.3189E-13  0.5207E-16  0.1000E-09  0.2288E-11  0.8330E+16
   -0.722477    1.09836  0.0000E+00  0.3189E-13  0.5207E-16  0.1000E-09  0.2149E-12  0.7978E+16
   -0.764977    1.27192  0.0000E+00  0.3189E-13  0.5207E-16  0.1000E-09  0.1864E-13  0.7350E+16
   -0.807478    1.44280  0.0000E+00  0.3189E-13  0.5207E-16  0.1000E-09  0.1841E-14  0.6754E+16
   -0.849978    1.61115  0.0000E+00  0.6445E-13  0.5287E-16  0.1000E-09  0.1916E-15  0.6141E+16
   -0.892478    1.77584  0.0000E+00  0.2124E-12  0.8663E-16  0.1000E-09  0.2036E-16  0.5698E+16
   -0.934978    1.94099  0.0000E+00  0.5899E-12  0.2023E-15  0.1000E-09  0.2514E-17  0.5417E+16
   -0.977479    2.11193  0.0000E+00  0.1506E-11  0.4904E-15  0.1000E-09  0.2946E-18  0.5065E+16
   -1.019979    2.28778  0.0000E+00  0.3720E-11  0.1174E-14  0.1000E-09  0.3985E-19  0.4691E+16
   -1.062479    2.46925  0.0000E+00  0.9031E-11  0.2774E-14  0.1000E-09  0.5195E-20  0.4258E+16
   -1.104979    2.65583  0.0000E+00  0.2167E-10  0.6484E-14  0.1000E-09  0.8200E-21  0.3789E+16
   -1.147479    2.84786  0.0000E+00  0.5097E-10  0.1487E-13  0.1000E-09  0.1488E-21  0.3267E+16
   -1.189979    3.04502  0.0000E+00  0.1186E-09  0.3373E-13  0.1000E-09  0.1979E-22  0.2673E+16
   -1.232478    3.24497  0.0000E+00  0.2811E-09  0.7795E-13  0.1383E-09  0.1500E-23  0.2015E+16
   -1.274977    3.44296  0.0000E+00  0.6710E-09  0.1815E-12  0.4324E-09  0.1018E-24  0.1376E+16
   -1.317477    3.63848  0.0000E+00  0.1606E-08  0.4237E-12  0.1850E-08  0.6012E-26  0.7724E+15
   -1.359975    3.83463  0.0000E+00  0.3807E-08  0.9828E-12  0.2346E-07  0.3045E-27  0.1818E+15
   -1.402474    4.00917  0.0000E+00  0.5737E-08  0.1494E-11  0.8789E-05  0.1694E-28 -0.1198E+13
   -1.444972    4.01295  0.0000E+00  0.6626E-08  0.1809E-11  0.9503E-05  0.2643E-29 -0.1334E+13
   -1.487471    4.01630  0.0000E+00  0.7317E-08  0.2171E-11  0.9441E-05  0.3844E-30 -0.1576E+13
   -1.529968    4.01971  0.0000E+00  0.7910E-08  0.2714E-11  0.8671E-05  0.3298E-31 -0.2112E+13
   -1.572466    4.02373  0.0000E+00  0.8524E-08  0.3889E-11  0.7190E-05  0.1866E-32 -0.3813E+13
   -1.614963    4.02995  0.0000E+00  0.9241E-08  0.7916E-11  0.3522E-05  0.1255E-33 -0.1234E+14
   -1.657459    4.04547  0.0000E+00  0.9329E-08  0.2164E-10  0.1142E-05  0.6049E-35 -0.8127E+14
   -1.699956    4.10415  0.0000E+00  0.0000E+00  0.0000E+00  0.0000E+00  0.6210E-35  0.0000E+00
