 1 - depth, m
 2 - temperature, C
 3 - salinity, kg/kg
 4 - turbulent kinetic energy, m**2/s**2
 5 - dissipation rate, m**2/s**3
 6 - kinematic heat conductance, m**2/s
 7 - modulus of horizontal velocity, m/s
 8 - Richardson number, n/d
   -0.000000    0.00000  0.0000E+00  0.1531E-07  0.4489E-10  0.1827E-08  0.0000E+00  0.7710E+17
   -0.042498    1.42393  0.0000E+00  0.1201E-06  0.3579E-10  0.2679E-08  0.0000E+00  0.4210E+17
   -0.084997    2.82198  0.0000E+00  0.3197E-06  0.4990E-10  0.1486E-07  0.0000E+00  0.1066E+17
   -0.127496    4.09571  0.0000E+00  0.3214E-06  0.5008E-10  0.6487E-03  0.0000E+00 -0.5394E+12
   -0.169995    4.09601  0.0000E+00  0.3222E-06  0.5018E-10  0.6414E-03  0.0000E+00 -0.5099E+12
   -0.212495    4.09631  0.0000E+00  0.3229E-06  0.5029E-10  0.6431E-03  0.0000E+00 -0.4994E+12
   -0.254994    4.09660  0.0000E+00  0.3236E-06  0.5042E-10  0.6444E-03  0.0000E+00 -0.4926E+12
   -0.297495    4.09689  0.0000E+00  0.3243E-06  0.5055E-10  0.6454E-03  0.0000E+00 -0.4840E+12
   -0.339995    4.09717  0.0000E+00  0.3248E-06  0.5071E-10  0.6460E-03  0.0000E+00 -0.4780E+12
   -0.382496    4.09745  0.0000E+00  0.3254E-06  0.5087E-10  0.6462E-03  0.0000E+00 -0.4714E+12
   -0.424997    4.09772  0.0000E+00  0.3258E-06  0.5106E-10  0.6460E-03  0.0000E+00 -0.4661E+12
   -0.467498    4.09799  0.0000E+00  0.3263E-06  0.5125E-10  0.6454E-03  0.0000E+00 -0.4604E+12
   -0.510000    4.09826  0.0000E+00  0.3266E-06  0.5147E-10  0.6443E-03  0.0000E+00 -0.4557E+12
   -0.552501    4.09852  0.0000E+00  0.3269E-06  0.5170E-10  0.6429E-03  0.0000E+00 -0.4502E+12
   -0.595003    4.09877  0.0000E+00  0.3272E-06  0.5196E-10  0.6409E-03  0.0000E+00 -0.4476E+12
   -0.637505    4.09903  0.0000E+00  0.3274E-06  0.5225E-10  0.6384E-03  0.0000E+00 -0.4447E+12
   -0.680007    4.09928  0.0000E+00  0.3276E-06  0.5258E-10  0.6353E-03  0.0000E+00 -0.4440E+12
   -0.722509    4.09953  0.0000E+00  0.3277E-06  0.5296E-10  0.6315E-03  0.0000E+00 -0.4437E+12
   -0.765011    4.09978  0.0000E+00  0.3278E-06  0.5340E-10  0.6269E-03  0.0000E+00 -0.4458E+12
   -0.807513    4.10004  0.0000E+00  0.3278E-06  0.5391E-10  0.6216E-03  0.0000E+00 -0.4468E+12
   -0.850015    4.10029  0.0000E+00  0.3278E-06  0.5448E-10  0.6154E-03  0.0000E+00 -0.4504E+12
   -0.892517    4.10054  0.0000E+00  0.3278E-06  0.5514E-10  0.6087E-03  0.0000E+00 -0.4514E+12
   -0.935020    4.10080  0.0000E+00  0.3277E-06  0.5585E-10  0.6297E-03  0.0000E+00 -0.4157E+12
   -0.977522    4.10104  0.0000E+00  0.3276E-06  0.5664E-10  0.5910E-03  0.0000E+00 -0.4793E+12
   -1.020024    4.10130  0.0000E+00  0.3275E-06  0.5751E-10  0.6153E-03  0.0000E+00 -0.4223E+12
   -1.062526    4.10154  0.0000E+00  0.3273E-06  0.5849E-10  0.5692E-03  0.0000E+00 -0.4914E+12
   -1.105028    4.10180  0.0000E+00  0.3270E-06  0.5960E-10  0.5621E-03  0.0000E+00 -0.4774E+12
   -1.147529    4.10207  0.0000E+00  0.3267E-06  0.6083E-10  0.5514E-03  0.0000E+00 -0.4818E+12
   -1.190031    4.10233  0.0000E+00  0.3264E-06  0.6217E-10  0.5393E-03  0.0000E+00 -0.4910E+12
   -1.232532    4.10260  0.0000E+00  0.3261E-06  0.6371E-10  0.5627E-03  0.0000E+00 -0.4523E+12
   -1.275033    4.10286  0.0000E+00  0.3257E-06  0.6552E-10  0.5031E-03  0.0000E+00 -0.5393E+12
   -1.317534    4.10315  0.0000E+00  0.3252E-06  0.6774E-10  0.5347E-03  0.0000E+00 -0.4770E+12
   -1.360035    4.10342  0.0000E+00  0.3246E-06  0.7061E-10  0.4600E-03  0.0000E+00 -0.5863E+12
   -1.402536    4.10373  0.0000E+00  0.3239E-06  0.7437E-10  0.4956E-03  0.0000E+00 -0.5138E+12
   -1.445036    4.10401  0.0000E+00  0.3232E-06  0.7901E-10  0.4094E-03  0.0000E+00 -0.6520E+12
   -1.487536    4.10436  0.0000E+00  0.3223E-06  0.8483E-10  0.3927E-03  0.0000E+00 -0.6663E+12
   -1.530036    4.10472  0.0000E+00  0.3212E-06  0.9396E-10  0.3571E-03  0.0000E+00 -0.7336E+12
   -1.572535    4.10511  0.0000E+00  0.3190E-06  0.1134E-09  0.3075E-03  0.0000E+00 -0.8702E+12
   -1.615034    4.10557  0.0000E+00  0.3113E-06  0.1920E-09  0.1923E-03  0.0000E+00 -0.1396E+13
   -1.657532    4.10633  0.0000E+00  0.2207E-06  0.1303E-08  0.4814E-05  0.0000E+00 -0.6347E+14
   -1.700030    4.13633  0.0000E+00  0.0000E+00  0.0000E+00  0.0000E+00  0.0000E+00  0.0000E+00
