 1 - depth, m
 2 - temperature, C
 3 - salinity, kg/kg
 4 - turbulent kinetic energy, m**2/s**2
 5 - dissipation rate, m**2/s**3
 6 - kinematic heat conductance, m**2/s
 7 - modulus of horizontal velocity, m/s
 8 - Richardson number, n/d
   -0.000000    0.00000  0.0000E+00  0.3189E-13  0.5207E-16  0.1000E-09  0.0000E+00  0.1335E+17
   -0.042497    0.20589  0.0000E+00  0.3189E-13  0.5207E-16  0.1000E-09  0.0000E+00  0.1261E+17
   -0.084995    0.41207  0.0000E+00  0.3189E-13  0.5207E-16  0.1000E-09  0.0000E+00  0.1185E+17
   -0.127493    0.61792  0.0000E+00  0.3189E-13  0.5207E-16  0.1000E-09  0.0000E+00  0.1082E+17
   -0.169991    0.81830  0.0000E+00  0.3189E-13  0.5207E-16  0.1000E-09  0.0000E+00  0.9848E+16
   -0.212489    1.01307  0.0000E+00  0.3189E-13  0.5207E-16  0.1000E-09  0.0000E+00  0.8932E+16
   -0.254988    1.20212  0.0000E+00  0.3189E-13  0.5207E-16  0.1000E-09  0.0000E+00  0.8070E+16
   -0.297487    1.38529  0.0000E+00  0.3189E-13  0.5207E-16  0.1000E-09  0.0000E+00  0.7261E+16
   -0.339987    1.56246  0.0000E+00  0.3189E-13  0.5207E-16  0.1000E-09  0.0000E+00  0.6508E+16
   -0.382487    1.73358  0.0000E+00  0.1037E-12  0.5207E-16  0.1000E-09  0.0000E+00  0.5809E+16
   -0.424987    1.89858  0.0000E+00  0.3051E-12  0.5440E-16  0.1000E-09  0.0000E+00  0.5169E+16
   -0.467487    2.05768  0.0000E+00  0.6447E-12  0.7928E-16  0.1000E-09  0.0000E+00  0.4578E+16
   -0.509987    2.21087  0.0000E+00  0.1188E-11  0.1271E-15  0.1000E-09  0.0000E+00  0.4062E+16
   -0.552488    2.35920  0.0000E+00  0.2059E-11  0.2074E-15  0.1000E-09  0.0000E+00  0.3588E+16
   -0.594988    2.50286  0.0000E+00  0.3469E-11  0.3383E-15  0.1000E-09  0.0000E+00  0.3149E+16
   -0.637489    2.64184  0.0000E+00  0.5810E-11  0.5540E-15  0.1000E-09  0.0000E+00  0.2740E+16
   -0.679990    2.77600  0.0000E+00  0.9705E-11  0.9085E-15  0.1000E-09  0.0000E+00  0.2360E+16
   -0.722491    2.90514  0.0000E+00  0.1622E-10  0.1493E-14  0.1000E-09  0.0000E+00  0.2007E+16
   -0.764992    3.02879  0.0000E+00  0.2716E-10  0.2459E-14  0.1000E-09  0.0000E+00  0.1680E+16
   -0.807493    3.14642  0.0000E+00  0.4545E-10  0.4051E-14  0.1000E-09  0.0000E+00  0.1388E+16
   -0.849995    3.25800  0.0000E+00  0.7530E-10  0.6610E-14  0.1000E-09  0.0000E+00  0.1127E+16
   -0.892496    3.36331  0.0000E+00  0.1243E-09  0.1075E-13  0.1000E-09  0.0000E+00  0.9125E+15
   -0.934997    3.46412  0.0000E+00  0.2033E-09  0.1731E-13  0.1000E-09  0.0000E+00  0.7306E+15
   -0.977498    3.56192  0.0000E+00  0.3304E-09  0.2771E-13  0.1550E-09  0.0000E+00  0.5626E+15
   -1.019999    3.65661  0.0000E+00  0.5339E-09  0.4411E-13  0.3398E-09  0.0000E+00  0.4085E+15
   -1.062500    3.74802  0.0000E+00  0.8576E-09  0.6982E-13  0.8181E-09  0.0000E+00  0.2686E+15
   -1.105001    3.83597  0.0000E+00  0.1371E-08  0.1099E-12  0.2423E-08  0.0000E+00  0.1428E+15
   -1.147501    3.91996  0.0000E+00  0.2154E-08  0.1704E-12  0.1576E-07  0.0000E+00  0.3401E+14
   -1.190002    3.99428  0.0000E+00  0.2480E-08  0.1972E-12  0.1278E-04  0.0000E+00 -0.1158E+12
   -1.232502    3.99516  0.0000E+00  0.2642E-08  0.2129E-12  0.1339E-04  0.0000E+00 -0.1188E+12
   -1.275002    3.99598  0.0000E+00  0.2787E-08  0.2298E-12  0.1366E-04  0.0000E+00 -0.1238E+12
   -1.317502    3.99677  0.0000E+00  0.2919E-08  0.2490E-12  0.1381E-04  0.0000E+00 -0.1324E+12
   -1.360002    3.99755  0.0000E+00  0.3041E-08  0.2718E-12  0.1362E-04  0.0000E+00 -0.1449E+12
   -1.402502    3.99835  0.0000E+00  0.3153E-08  0.3005E-12  0.1299E-04  0.0000E+00 -0.1635E+12
   -1.445001    3.99918  0.0000E+00  0.3242E-08  0.3344E-12  0.1204E-04  0.0000E+00 -0.1894E+12
   -1.487500    4.00009  0.0000E+00  0.3305E-08  0.3767E-12  0.1081E-04  0.0000E+00 -0.2285E+12
   -1.529998    4.00111  0.0000E+00  0.3340E-08  0.4437E-12  0.9099E-05  0.0000E+00 -0.3061E+12
   -1.572497    4.00238  0.0000E+00  0.3329E-08  0.5977E-12  0.6537E-05  0.0000E+00 -0.5521E+12
   -1.614995    4.00444  0.0000E+00  0.3110E-08  0.1220E-11  0.2244E-05  0.0000E+00 -0.2308E+13
   -1.657492    4.01128  0.0000E+00  0.2455E-08  0.3478E-11  0.4117E-06  0.0000E+00 -0.2591E+14
   -1.699989    4.04902  0.0000E+00  0.0000E+00  0.0000E+00  0.0000E+00  0.0000E+00  0.0000E+00
