 1 - depth, m
 2 - temperature, C
 3 - salinity, kg/kg
 4 - turbulent kinetic energy, m**2/s**2
 5 - dissipation rate, m**2/s**3
 6 - kinematic heat conductance, m**2/s
 7 - modulus of horizontal velocity, m/s
 8 - Richardson number, n/d
   -0.000000    0.00000  0.0000E+00  0.2425E-11  0.7544E-15  0.1000E-09  0.0000E+00  0.1849E+17
   -0.042497    0.28842  0.0000E+00  0.4274E-11  0.6732E-15  0.1000E-09  0.0000E+00  0.1685E+17
   -0.084994    0.57395  0.0000E+00  0.7861E-11  0.8316E-15  0.1000E-09  0.0000E+00  0.1525E+17
   -0.127492    0.85619  0.0000E+00  0.1366E-10  0.1199E-14  0.1000E-09  0.0000E+00  0.1342E+17
   -0.169990    1.12871  0.0000E+00  0.2271E-10  0.1827E-14  0.1000E-09  0.0000E+00  0.1172E+17
   -0.212488    1.39138  0.0000E+00  0.3676E-10  0.2828E-14  0.1000E-09  0.0000E+00  0.1016E+17
   -0.254987    1.64394  0.0000E+00  0.5868E-10  0.4394E-14  0.1000E-09  0.0000E+00  0.8728E+16
   -0.297486    1.88596  0.0000E+00  0.9296E-10  0.6825E-14  0.1000E-09  0.0000E+00  0.7420E+16
   -0.339985    2.11714  0.0000E+00  0.1455E-09  0.1051E-13  0.1000E-09  0.0000E+00  0.6241E+16
   -0.382485    2.33734  0.0000E+00  0.2261E-09  0.1609E-13  0.1000E-09  0.0000E+00  0.5182E+16
   -0.424984    2.54629  0.0000E+00  0.3487E-09  0.2448E-13  0.1000E-09  0.0000E+00  0.4251E+16
   -0.467484    2.74437  0.0000E+00  0.5347E-09  0.3702E-13  0.1000E-09  0.0000E+00  0.3429E+16
   -0.509984    2.93153  0.0000E+00  0.8169E-09  0.5580E-13  0.1000E-09  0.0000E+00  0.2746E+16
   -0.552485    3.11036  0.0000E+00  0.1246E-08  0.8394E-13  0.1231E-09  0.0000E+00  0.2145E+16
   -0.594985    3.28144  0.0000E+00  0.1896E-08  0.1261E-12  0.2460E-09  0.0000E+00  0.1612E+16
   -0.637486    3.44499  0.0000E+00  0.2902E-08  0.1904E-12  0.5246E-09  0.0000E+00  0.1142E+16
   -0.679986    3.60124  0.0000E+00  0.4458E-08  0.2887E-12  0.1249E-08  0.0000E+00  0.7274E+15
   -0.722487    3.74992  0.0000E+00  0.6867E-08  0.4389E-12  0.3781E-08  0.0000E+00  0.3653E+15
   -0.764988    3.88949  0.0000E+00  0.1051E-07  0.6639E-12  0.2928E-07  0.0000E+00  0.7134E+14
   -0.807489    4.00290  0.0000E+00  0.1080E-07  0.6831E-12  0.6566E-04  0.0000E+00 -0.7477E+11
   -0.849990    4.00319  0.0000E+00  0.1094E-07  0.6938E-12  0.6362E-04  0.0000E+00 -0.7708E+11
   -0.892491    4.00348  0.0000E+00  0.1108E-07  0.7055E-12  0.6387E-04  0.0000E+00 -0.7742E+11
   -0.934992    4.00376  0.0000E+00  0.1121E-07  0.7181E-12  0.6421E-04  0.0000E+00 -0.7823E+11
   -0.977492    4.00405  0.0000E+00  0.1133E-07  0.7317E-12  0.6440E-04  0.0000E+00 -0.7928E+11
   -1.019993    4.00433  0.0000E+00  0.1145E-07  0.7463E-12  0.6443E-04  0.0000E+00 -0.8049E+11
   -1.062494    4.00461  0.0000E+00  0.1156E-07  0.7619E-12  0.6430E-04  0.0000E+00 -0.8198E+11
   -1.104994    4.00490  0.0000E+00  0.1165E-07  0.7787E-12  0.6403E-04  0.0000E+00 -0.8362E+11
   -1.147495    4.00518  0.0000E+00  0.1174E-07  0.7965E-12  0.6364E-04  0.0000E+00 -0.8539E+11
   -1.189995    4.00547  0.0000E+00  0.1181E-07  0.8153E-12  0.6304E-04  0.0000E+00 -0.8770E+11
   -1.232495    4.00576  0.0000E+00  0.1188E-07  0.8367E-12  0.6220E-04  0.0000E+00 -0.9095E+11
   -1.274995    4.00605  0.0000E+00  0.1193E-07  0.8617E-12  0.6113E-04  0.0000E+00 -0.9473E+11
   -1.317495    4.00636  0.0000E+00  0.1198E-07  0.8919E-12  0.5970E-04  0.0000E+00 -0.9872E+11
   -1.359994    4.00667  0.0000E+00  0.1201E-07  0.9298E-12  0.5777E-04  0.0000E+00 -0.1041E+12
   -1.402494    4.00699  0.0000E+00  0.1204E-07  0.9796E-12  0.5536E-04  0.0000E+00 -0.1109E+12
   -1.444993    4.00733  0.0000E+00  0.1205E-07  0.1039E-11  0.5269E-04  0.0000E+00 -0.1189E+12
   -1.487491    4.00769  0.0000E+00  0.1205E-07  0.1113E-11  0.4942E-04  0.0000E+00 -0.1300E+12
   -1.529990    4.00807  0.0000E+00  0.1201E-07  0.1226E-11  0.4507E-04  0.0000E+00 -0.1497E+12
   -1.572488    4.00851  0.0000E+00  0.1191E-07  0.1506E-11  0.3320E-04  0.0000E+00 -0.2323E+12
   -1.614985    4.00917  0.0000E+00  0.1130E-07  0.2932E-11  0.1049E-04  0.0000E+00 -0.8775E+12
   -1.657483    4.01150  0.0000E+00  0.8035E-08  0.1215E-10  0.9026E-06  0.0000E+00 -0.1773E+14
   -1.699980    4.04015  0.0000E+00  0.0000E+00  0.0000E+00  0.0000E+00  0.0000E+00  0.0000E+00
