 1 - depth, m
 2 - temperature, C
 3 - salinity, kg/kg
 4 - turbulent kinetic energy, m**2/s**2
 5 - dissipation rate, m**2/s**3
 6 - kinematic heat conductance, m**2/s
 7 - modulus of horizontal velocity, m/s
 8 - Richardson number, n/d
   -0.000000    0.00000  0.0000E+00  0.3201E-09  0.3504E-12  0.1000E-09  0.0000E+00  0.3136E+17
   -0.042497    0.50432  0.0000E+00  0.1177E-08  0.2832E-12  0.1000E-09  0.0000E+00  0.2654E+17
   -0.084995    1.00136  0.0000E+00  0.2761E-08  0.3666E-12  0.1000E-09  0.0000E+00  0.2191E+17
   -0.127492    1.48946  0.0000E+00  0.5301E-08  0.5622E-12  0.1127E-09  0.0000E+00  0.1738E+17
   -0.169991    1.96290  0.0000E+00  0.9305E-08  0.8983E-12  0.2131E-09  0.0000E+00  0.1329E+17
   -0.212489    2.42236  0.0000E+00  0.1565E-07  0.1441E-11  0.4743E-09  0.0000E+00  0.9573E+16
   -0.254988    2.86843  0.0000E+00  0.2577E-07  0.2303E-11  0.1175E-08  0.0000E+00  0.6178E+16
   -0.297487    3.29931  0.0000E+00  0.4188E-07  0.3658E-11  0.3761E-08  0.0000E+00  0.3101E+16
   -0.339987    3.70603  0.0000E+00  0.6594E-07  0.5652E-11  0.3454E-07  0.0000E+00  0.6132E+15
   -0.382486    4.02558  0.0000E+00  0.6641E-07  0.5694E-11  0.2564E-03  0.0000E+00 -0.1279E+12
   -0.424986    4.02579  0.0000E+00  0.6663E-07  0.5716E-11  0.2526E-03  0.0000E+00 -0.1257E+12
   -0.467486    4.02601  0.0000E+00  0.6684E-07  0.5740E-11  0.2531E-03  0.0000E+00 -0.1233E+12
   -0.509987    4.02621  0.0000E+00  0.6703E-07  0.5766E-11  0.2536E-03  0.0000E+00 -0.1215E+12
   -0.552487    4.02642  0.0000E+00  0.6720E-07  0.5794E-11  0.2538E-03  0.0000E+00 -0.1204E+12
   -0.594988    4.02662  0.0000E+00  0.6736E-07  0.5824E-11  0.2538E-03  0.0000E+00 -0.1195E+12
   -0.637489    4.02681  0.0000E+00  0.6751E-07  0.5858E-11  0.2535E-03  0.0000E+00 -0.1200E+12
   -0.679990    4.02701  0.0000E+00  0.6766E-07  0.5896E-11  0.2530E-03  0.0000E+00 -0.1204E+12
   -0.722491    4.02721  0.0000E+00  0.6779E-07  0.5939E-11  0.2522E-03  0.0000E+00 -0.1222E+12
   -0.764992    4.02740  0.0000E+00  0.6792E-07  0.5988E-11  0.2511E-03  0.0000E+00 -0.1243E+12
   -0.807493    4.02760  0.0000E+00  0.6804E-07  0.6044E-11  0.2496E-03  0.0000E+00 -0.1265E+12
   -0.849994    4.02781  0.0000E+00  0.6816E-07  0.6107E-11  0.2480E-03  0.0000E+00 -0.1284E+12
   -0.892495    4.02801  0.0000E+00  0.6826E-07  0.6178E-11  0.2461E-03  0.0000E+00 -0.1303E+12
   -0.934996    4.02822  0.0000E+00  0.6835E-07  0.6256E-11  0.2439E-03  0.0000E+00 -0.1309E+12
   -0.977497    4.02843  0.0000E+00  0.6842E-07  0.6343E-11  0.2414E-03  0.0000E+00 -0.1323E+12
   -1.019998    4.02863  0.0000E+00  0.6848E-07  0.6438E-11  0.2386E-03  0.0000E+00 -0.1331E+12
   -1.062499    4.02884  0.0000E+00  0.6852E-07  0.6544E-11  0.2354E-03  0.0000E+00 -0.1347E+12
   -1.105000    4.02905  0.0000E+00  0.6855E-07  0.6660E-11  0.2320E-03  0.0000E+00 -0.1355E+12
   -1.147500    4.02926  0.0000E+00  0.6856E-07  0.6785E-11  0.2284E-03  0.0000E+00 -0.1365E+12
   -1.190001    4.02947  0.0000E+00  0.6856E-07  0.6921E-11  0.2244E-03  0.0000E+00 -0.1381E+12
   -1.232501    4.02968  0.0000E+00  0.6854E-07  0.7078E-11  0.2198E-03  0.0000E+00 -0.1421E+12
   -1.275001    4.02990  0.0000E+00  0.6851E-07  0.7267E-11  0.2145E-03  0.0000E+00 -0.1464E+12
   -1.317501    4.03012  0.0000E+00  0.6846E-07  0.7498E-11  0.2083E-03  0.0000E+00 -0.1507E+12
   -1.360001    4.03034  0.0000E+00  0.6838E-07  0.7792E-11  0.2007E-03  0.0000E+00 -0.1564E+12
   -1.402500    4.03057  0.0000E+00  0.6827E-07  0.8182E-11  0.1917E-03  0.0000E+00 -0.1634E+12
   -1.444999    4.03082  0.0000E+00  0.6814E-07  0.8652E-11  0.1822E-03  0.0000E+00 -0.1706E+12
   -1.487498    4.03107  0.0000E+00  0.6798E-07  0.9235E-11  0.1714E-03  0.0000E+00 -0.1809E+12
   -1.529997    4.03133  0.0000E+00  0.6776E-07  0.1012E-10  0.1568E-03  0.0000E+00 -0.2004E+12
   -1.572495    4.03162  0.0000E+00  0.6734E-07  0.1199E-10  0.1388E-03  0.0000E+00 -0.2417E+12
   -1.614993    4.03197  0.0000E+00  0.6555E-07  0.2051E-10  0.4563E-04  0.0000E+00 -0.7922E+12
   -1.657490    4.03314  0.0000E+00  0.4605E-07  0.1304E-09  0.2220E-05  0.0000E+00 -0.2186E+14
   -1.699987    4.05713  0.0000E+00  0.0000E+00  0.0000E+00  0.0000E+00  0.0000E+00  0.0000E+00
