 1 - depth, m
 2 - temperature, C
 3 - salinity, kg/kg
 4 - turbulent kinetic energy, m**2/s**2
 5 - dissipation rate, m**2/s**3
 6 - kinematic heat conductance, m**2/s
 7 - modulus of horizontal velocity, m/s
 8 - Richardson number, n/d
   -0.000000    8.79245  0.0000E+00  0.7186E-05  0.2811E-06  0.1801E-04  0.1155E-01 -0.2442E-01
   -0.042497    8.81720  0.0000E+00  0.5328E-05  0.1044E-06  0.2947E-04  0.6025E-02 -0.7193E-01
   -0.084995    8.83175  0.0000E+00  0.4174E-05  0.5092E-07  0.4215E-04  0.3551E-02 -0.1641E+00
   -0.127494    8.84156  0.0000E+00  0.3503E-05  0.2895E-07  0.6093E-04  0.2202E-02 -0.3289E+00
   -0.169992    8.84816  0.0000E+00  0.3133E-05  0.1854E-07  0.1076E-03  0.1426E-02  0.3661E+00
   -0.212491    8.85196  0.0000E+00  0.2963E-05  0.1389E-07  0.2161E-03  0.9826E-03  0.3596E+04
   -0.254990    8.85373  0.0000E+00  0.2896E-05  0.1155E-07  0.2426E-03  0.7866E-03  0.1100E+01
   -0.297490    8.85524  0.0000E+00  0.2870E-05  0.9971E-08  0.2705E-03  0.6585E-03  0.9900E+00
   -0.339990    8.85656  0.0000E+00  0.2869E-05  0.8834E-08  0.3014E-03  0.5604E-03  0.1017E+01
   -0.382490    8.85773  0.0000E+00  0.2884E-05  0.7991E-08  0.3328E-03  0.4823E-03  0.1018E+01
   -0.424990    8.85878  0.0000E+00  0.2909E-05  0.7349E-08  0.3644E-03  0.4190E-03  0.1070E+01
   -0.467491    8.85973  0.0000E+00  0.2939E-05  0.6849E-08  0.3964E-03  0.3643E-03  0.1111E+01
   -0.509992    8.86062  0.0000E+00  0.2972E-05  0.6453E-08  0.4284E-03  0.3163E-03  0.1140E+01
   -0.552492    8.86144  0.0000E+00  0.3006E-05  0.6137E-08  0.4594E-03  0.2741E-03  0.1163E+01
   -0.594993    8.86221  0.0000E+00  0.3038E-05  0.5886E-08  0.4886E-03  0.2371E-03  0.1160E+01
   -0.637495    8.86293  0.0000E+00  0.3069E-05  0.5684E-08  0.5152E-03  0.2054E-03  0.1148E+01
   -0.679996    8.86361  0.0000E+00  0.3098E-05  0.5521E-08  0.5387E-03  0.1793E-03  0.1229E+01
   -0.722497    8.86426  0.0000E+00  0.3126E-05  0.5387E-08  0.5608E-03  0.1575E-03  0.1401E+01
   -0.764999    8.86488  0.0000E+00  0.3153E-05  0.5274E-08  0.5821E-03  0.1392E-03  0.1676E+01
   -0.807500    8.86546  0.0000E+00  0.3181E-05  0.5178E-08  0.6029E-03  0.1239E-03  0.2066E+01
   -0.850002    8.86603  0.0000E+00  0.3208E-05  0.5101E-08  0.6220E-03  0.1107E-03  0.2514E+01
   -0.892503    8.86657  0.0000E+00  0.3235E-05  0.5041E-08  0.6394E-03  0.9934E-04  0.3014E+01
   -0.935005    8.86710  0.0000E+00  0.3260E-05  0.4997E-08  0.6546E-03  0.8944E-04  0.3655E+01
   -0.977506    8.86762  0.0000E+00  0.3284E-05  0.4969E-08  0.6676E-03  0.8062E-04  0.4295E+01
   -1.020008    8.86813  0.0000E+00  0.3307E-05  0.4957E-08  0.6779E-03  0.7276E-04  0.5103E+01
   -1.062509    8.86865  0.0000E+00  0.3327E-05  0.4961E-08  0.6855E-03  0.6561E-04  0.5878E+01
   -1.105010    8.86917  0.0000E+00  0.3346E-05  0.4980E-08  0.6901E-03  0.5906E-04  0.6797E+01
   -1.147511    8.86969  0.0000E+00  0.3361E-05  0.5014E-08  0.6915E-03  0.5293E-04  0.7825E+01
   -1.190012    8.87023  0.0000E+00  0.3373E-05  0.5063E-08  0.6894E-03  0.4705E-04  0.8840E+01
   -1.232513    8.87078  0.0000E+00  0.3382E-05  0.5133E-08  0.6838E-03  0.4148E-04  0.1017E+02
   -1.275013    8.87134  0.0000E+00  0.3388E-05  0.5228E-08  0.6740E-03  0.3640E-04  0.1291E+02
   -1.317514    8.87192  0.0000E+00  0.3390E-05  0.5358E-08  0.6591E-03  0.3180E-04  0.1685E+02
   -1.360014    8.87252  0.0000E+00  0.3387E-05  0.5538E-08  0.6378E-03  0.2766E-04  0.2245E+02
   -1.402514    8.87314  0.0000E+00  0.3380E-05  0.5794E-08  0.6088E-03  0.2399E-04  0.3255E+02
   -1.445013    8.87380  0.0000E+00  0.3367E-05  0.6125E-08  0.5735E-03  0.2060E-04  0.4840E+02
   -1.487512    8.87452  0.0000E+00  0.3349E-05  0.6567E-08  0.5355E-03  0.1731E-04  0.6104E+02
   -1.530011    8.87530  0.0000E+00  0.3318E-05  0.7294E-08  0.4663E-03  0.1413E-04  0.7715E+02
   -1.572510    8.87623  0.0000E+00  0.3257E-05  0.8926E-08  0.4545E-03  0.1118E-04  0.1156E+03
   -1.615008    8.87716  0.0000E+00  0.3021E-05  0.1678E-07  0.2322E-03  0.9253E-05 -0.3749E+07
   -1.657506    8.88122  0.0000E+00  0.1995E-05  0.6027E-07  0.3505E-04  0.6458E-05 -0.8358E+05
   -1.700003    8.89661  0.0000E+00  0.0000E+00  0.0000E+00  0.0000E+00  0.7072E-05  0.0000E+00
