 1 - depth, m
 2 - temperature, C
 3 - salinity, kg/kg
 4 - turbulent kinetic energy, m**2/s**2
 5 - dissipation rate, m**2/s**3
 6 - kinematic heat conductance, m**2/s
 7 - modulus of horizontal velocity, m/s
 8 - Richardson number, n/d
   -0.000000   17.02994  0.0000E+00  0.8343E-04  0.3132E-04  0.3156E-04  0.6296E-01 -0.2465E-01
   -0.042498   17.09720  0.0000E+00  0.4691E-04  0.9447E-05  0.7159E-04  0.1918E-01 -0.8008E-01
   -0.084996   17.11571  0.0000E+00  0.3417E-04  0.4459E-05  0.8225E-04  0.1270E-01 -0.8817E-01
   -0.127494   17.12806  0.0000E+00  0.2627E-04  0.2299E-05  0.9673E-04  0.9425E-02 -0.1704E+00
   -0.169993   17.13715  0.0000E+00  0.2078E-04  0.1256E-05  0.1239E-03  0.7211E-02  0.2768E+01
   -0.212492   17.14394  0.0000E+00  0.1692E-04  0.7145E-06  0.2263E-03  0.5619E-02  0.4161E+03
   -0.254991   17.14832  0.0000E+00  0.1422E-04  0.4257E-06  0.2806E-03  0.4575E-02  0.6421E+01
   -0.297491   17.15180  0.0000E+00  0.1235E-04  0.2681E-06  0.3222E-03  0.3802E-02  0.6452E+01
   -0.339991   17.15471  0.0000E+00  0.1108E-04  0.1795E-06  0.3688E-03  0.3198E-02  0.6624E+01
   -0.382491   17.15716  0.0000E+00  0.1020E-04  0.1257E-06  0.4198E-03  0.2707E-02  0.3581E+01
   -0.424992   17.15919  0.0000E+00  0.9604E-05  0.9230E-07  0.4735E-03  0.2314E-02  0.1091E+03
   -0.467493   17.16089  0.0000E+00  0.9202E-05  0.7102E-07  0.5287E-03  0.1975E-02  0.8799E+02
   -0.509994   17.16231  0.0000E+00  0.8916E-05  0.5664E-07  0.5784E-03  0.1679E-02  0.4219E+01
   -0.552495   17.16354  0.0000E+00  0.8710E-05  0.4669E-07  0.6237E-03  0.1418E-02  0.4185E+01
   -0.594996   17.16461  0.0000E+00  0.8558E-05  0.3970E-07  0.6730E-03  0.1186E-02  0.3389E+01
   -0.637497   17.16556  0.0000E+00  0.8434E-05  0.3452E-07  0.7344E-03  0.9845E-03  0.2889E+01
   -0.679999   17.16641  0.0000E+00  0.8330E-05  0.3063E-07  0.7963E-03  0.8176E-03  0.1771E+01
   -0.722500   17.16718  0.0000E+00  0.8239E-05  0.2769E-07  0.8476E-03  0.6809E-03  0.1473E+01
   -0.765002   17.16789  0.0000E+00  0.8154E-05  0.2542E-07  0.8872E-03  0.5730E-03  0.1334E+01
   -0.807503   17.16856  0.0000E+00  0.8073E-05  0.2365E-07  0.9165E-03  0.4901E-03  0.1268E+01
   -0.850005   17.16919  0.0000E+00  0.7994E-05  0.2228E-07  0.9376E-03  0.4249E-03  0.1209E+01
   -0.892507   17.16980  0.0000E+00  0.7915E-05  0.2122E-07  0.9517E-03  0.3725E-03  0.1150E+01
   -0.935008   17.17038  0.0000E+00  0.7837E-05  0.2041E-07  0.9586E-03  0.3305E-03  0.1114E+01
   -0.977510   17.17094  0.0000E+00  0.7757E-05  0.1979E-07  0.9602E-03  0.2954E-03  0.1068E+01
   -1.020011   17.17148  0.0000E+00  0.7676E-05  0.1933E-07  0.9567E-03  0.2663E-03  0.1091E+01
   -1.062513   17.17201  0.0000E+00  0.7591E-05  0.1901E-07  0.9479E-03  0.2408E-03  0.1142E+01
   -1.105014   17.17253  0.0000E+00  0.7502E-05  0.1882E-07  0.9333E-03  0.2182E-03  0.1233E+01
   -1.147516   17.17304  0.0000E+00  0.7409E-05  0.1875E-07  0.9135E-03  0.1973E-03  0.1357E+01
   -1.190017   17.17354  0.0000E+00  0.7315E-05  0.1881E-07  0.8875E-03  0.1775E-03  0.1488E+01
   -1.232517   17.17404  0.0000E+00  0.7212E-05  0.1904E-07  0.8558E-03  0.1587E-03  0.1700E+01
   -1.275018   17.17454  0.0000E+00  0.7098E-05  0.1949E-07  0.8120E-03  0.1416E-03  0.2209E+01
   -1.317519   17.17505  0.0000E+00  0.6966E-05  0.2024E-07  0.7707E-03  0.1260E-03  0.3088E+01
   -1.360019   17.17559  0.0000E+00  0.6806E-05  0.2151E-07  0.6982E-03  0.1118E-03  0.4765E+01
   -1.402519   17.17618  0.0000E+00  0.6602E-05  0.2367E-07  0.6595E-03  0.9842E-04  0.8770E+01
   -1.445019   17.17680  0.0000E+00  0.6348E-05  0.2765E-07  0.5546E-03  0.8618E-04  0.1018E+04
   -1.487518   17.17774  0.0000E+00  0.6019E-05  0.3438E-07  0.5245E-03  0.7047E-04  0.3321E+02
   -1.530017   17.17874  0.0000E+00  0.5534E-05  0.4906E-07  0.3934E-03  0.5529E-04  0.4607E+05
   -1.572516   17.18139  0.0000E+00  0.4841E-05  0.8131E-07  0.4037E-03  0.3630E-04  0.1439E+07
   -1.615014   17.18093  0.0000E+00  0.3733E-05  0.2166E-06  0.1834E-03  0.2896E-04 -0.5201E+09
   -1.657512   17.19052  0.0000E+00  0.2507E-05  0.5712E-06  0.1324E-03  0.1720E-04 -0.7981E+05
   -1.700010   17.19158  0.0000E+00  0.0000E+00  0.0000E+00  0.0000E+00  0.3058E-04  0.0000E+00
