 1 - depth, m
 2 - temperature, C
 3 - salinity, kg/kg
 4 - turbulent kinetic energy, m**2/s**2
 5 - dissipation rate, m**2/s**3
 6 - kinematic heat conductance, m**2/s
 7 - modulus of horizontal velocity, m/s
 8 - Richardson number, n/d
   -0.000000    9.16764  0.0000E+00  0.1712E-02  0.2356E-01  0.1894E-03  0.5115E+00  0.7718E-02
   -0.042497    9.23881  0.0000E+00  0.8393E-03  0.1522E-01  0.3112E-03  0.1088E+00 -0.5998E-02
   -0.084995    9.25990  0.0000E+00  0.5549E-03  0.3585E-02  0.3736E-03  0.6391E-01 -0.3163E+00
   -0.127493    9.26923  0.0000E+00  0.4151E-03  0.1738E-02  0.3286E-03  0.4998E-01 -0.2820E-01
   -0.169992    9.27517  0.0000E+00  0.3287E-03  0.9529E-03  0.3151E-03  0.4150E-01 -0.1914E-01
   -0.212491    9.28041  0.0000E+00  0.2614E-03  0.4382E-03  0.3058E-03  0.3508E-01  0.2002E-01
   -0.254990    9.28505  0.0000E+00  0.2129E-03  0.2635E-03  0.2989E-03  0.3007E-01 -0.1299E-01
   -0.297489    9.28908  0.0000E+00  0.1754E-03  0.1757E-03  0.2973E-03  0.2644E-01  0.7095E+00
   -0.339989    9.29263  0.0000E+00  0.1480E-03  0.1163E-03  0.2999E-03  0.2385E-01  0.4096E+01
   -0.382489    9.29596  0.0000E+00  0.1256E-03  0.7524E-04  0.3019E-03  0.2119E-01  0.3953E+02
   -0.424989    9.29871  0.0000E+00  0.1075E-03  0.4829E-04  0.3126E-03  0.1916E-01  0.5419E+02
   -0.467489    9.30123  0.0000E+00  0.9425E-04  0.3136E-04  0.3231E-03  0.1702E-01  0.1729E+01
   -0.509990    9.30347  0.0000E+00  0.8314E-04  0.2062E-04  0.3359E-03  0.1506E-01  0.1293E+02
   -0.552491    9.30548  0.0000E+00  0.7415E-04  0.1376E-04  0.3473E-03  0.1335E-01  0.1819E+02
   -0.594992    9.30743  0.0000E+00  0.6673E-04  0.9313E-05  0.3620E-03  0.1170E-01  0.1618E+02
   -0.637493    9.30930  0.0000E+00  0.6015E-04  0.6364E-05  0.3792E-03  0.1027E-01  0.2514E+02
   -0.679994    9.31092  0.0000E+00  0.5471E-04  0.4417E-05  0.3971E-03  0.9129E-02  0.3543E+02
   -0.722495    9.31248  0.0000E+00  0.4993E-04  0.3117E-05  0.4166E-03  0.8147E-02 -0.2218E+02
   -0.764997    9.31387  0.0000E+00  0.4572E-04  0.2242E-05  0.4360E-03  0.7338E-02 -0.3398E+03
   -0.807498    9.31510  0.0000E+00  0.4199E-04  0.1644E-05  0.4536E-03  0.6694E-02  0.6653E+02
   -0.849999    9.31627  0.0000E+00  0.3874E-04  0.1239E-05  0.4713E-03  0.6128E-02 -0.1453E+04
   -0.892501    9.31742  0.0000E+00  0.3585E-04  0.9573E-06  0.4883E-03  0.5624E-02  0.4528E+04
   -0.935002    9.31847  0.0000E+00  0.3331E-04  0.7591E-06  0.5060E-03  0.5186E-02  0.3713E+03
   -0.977503    9.31952  0.0000E+00  0.3106E-04  0.6171E-06  0.5246E-03  0.4772E-02 -0.1000E+04
   -1.020005    9.32050  0.0000E+00  0.2906E-04  0.5126E-06  0.5376E-03  0.4401E-02  0.1210E+03
   -1.062506    9.32146  0.0000E+00  0.2728E-04  0.4348E-06  0.5510E-03  0.4050E-02  0.1473E+03
   -1.105007    9.32238  0.0000E+00  0.2569E-04  0.3759E-06  0.5617E-03  0.3725E-02  0.4094E+02
   -1.147508    9.32327  0.0000E+00  0.2429E-04  0.3314E-06  0.5680E-03  0.3409E-02  0.5633E+02
   -1.190008    9.32417  0.0000E+00  0.2305E-04  0.2987E-06  0.5713E-03  0.3087E-02  0.3292E+02
   -1.232509    9.32504  0.0000E+00  0.2189E-04  0.2740E-06  0.5721E-03  0.2775E-02  0.3983E+02
   -1.275010    9.32591  0.0000E+00  0.2080E-04  0.2561E-06  0.5684E-03  0.2493E-02  0.5124E+03
   -1.317510    9.32674  0.0000E+00  0.1974E-04  0.2446E-06  0.5595E-03  0.2238E-02  0.2099E+03
   -1.360010    9.32759  0.0000E+00  0.1868E-04  0.2409E-06  0.5454E-03  0.2007E-02  0.5724E+03
   -1.402509    9.32844  0.0000E+00  0.1759E-04  0.2482E-06  0.5213E-03  0.1802E-02  0.1105E+03
   -1.445009    9.32933  0.0000E+00  0.1654E-04  0.2715E-06  0.4862E-03  0.1606E-02  0.1958E+03
   -1.487508    9.33030  0.0000E+00  0.1553E-04  0.3203E-06  0.4505E-03  0.1396E-02  0.1871E+05
   -1.530007    9.33140  0.0000E+00  0.1440E-04  0.4217E-06  0.3992E-03  0.1143E-02  0.5950E+04
   -1.572505    9.33279  0.0000E+00  0.1298E-04  0.6779E-06  0.3488E-03  0.8955E-03 -0.3701E+04
   -1.615003    9.33416  0.0000E+00  0.1043E-04  0.1589E-05  0.2239E-03  0.7410E-03  0.1383E+07
   -1.657501    9.33803  0.0000E+00  0.7051E-05  0.3790E-05  0.7743E-04  0.5622E-03 -0.1534E+08
   -1.699999    9.35230  0.0000E+00  0.0000E+00  0.0000E+00  0.0000E+00  0.8694E-03  0.0000E+00
