 1 - depth, m
 2 - temperature, C
 3 - salinity, kg/kg
 4 - turbulent kinetic energy, m**2/s**2
 5 - dissipation rate, m**2/s**3
 6 - kinematic heat conductance, m**2/s
 7 - modulus of horizontal velocity, m/s
 8 - Richardson number, n/d
   -0.000000    0.00000  0.0000E+00  0.3189E-13  0.5206E-16  0.1000E-09  0.0000E+00  0.7553E+16
   -0.042497    0.11508  0.0000E+00  0.3189E-13  0.5206E-16  0.1000E-09  0.0000E+00  0.7683E+16
   -0.084995    0.23601  0.0000E+00  0.3189E-13  0.5206E-16  0.1000E-09  0.0000E+00  0.7742E+16
   -0.127494    0.36220  0.0000E+00  0.3189E-13  0.5206E-16  0.1000E-09  0.0000E+00  0.7441E+16
   -0.169992    0.48806  0.0000E+00  0.3189E-13  0.5206E-16  0.1000E-09  0.0000E+00  0.7135E+16
   -0.212491    0.61342  0.0000E+00  0.3189E-13  0.5206E-16  0.1000E-09  0.0000E+00  0.6823E+16
   -0.254990    0.73809  0.0000E+00  0.3189E-13  0.5206E-16  0.1000E-09  0.0000E+00  0.6507E+16
   -0.297490    0.86189  0.0000E+00  0.3189E-13  0.5206E-16  0.1000E-09  0.0000E+00  0.6198E+16
   -0.339990    0.98480  0.0000E+00  0.3189E-13  0.5206E-16  0.1000E-09  0.0000E+00  0.5898E+16
   -0.382490    1.10688  0.0000E+00  0.3189E-13  0.5206E-16  0.1000E-09  0.0000E+00  0.5599E+16
   -0.424990    1.22803  0.0000E+00  0.3189E-13  0.5206E-16  0.1000E-09  0.0000E+00  0.5313E+16
   -0.467491    1.34838  0.0000E+00  0.3189E-13  0.5206E-16  0.1000E-09  0.0000E+00  0.5029E+16
   -0.509991    1.46781  0.0000E+00  0.3189E-13  0.5206E-16  0.1000E-09  0.0000E+00  0.4756E+16
   -0.552492    1.58647  0.0000E+00  0.3189E-13  0.5206E-16  0.1000E-09  0.0000E+00  0.4487E+16
   -0.594993    1.70429  0.0000E+00  0.3189E-13  0.5206E-16  0.1000E-09  0.0000E+00  0.4216E+16
   -0.637495    1.82107  0.0000E+00  0.3189E-13  0.5206E-16  0.1000E-09  0.0000E+00  0.3939E+16
   -0.679996    1.93642  0.0000E+00  0.3189E-13  0.5206E-16  0.1000E-09  0.0000E+00  0.3665E+16
   -0.722497    2.05011  0.0000E+00  0.3189E-13  0.5206E-16  0.1000E-09  0.0000E+00  0.3388E+16
   -0.764999    2.16170  0.0000E+00  0.3189E-13  0.5206E-16  0.1000E-09  0.0000E+00  0.3110E+16
   -0.807500    2.27074  0.0000E+00  0.3189E-13  0.5206E-16  0.1000E-09  0.0000E+00  0.2848E+16
   -0.850002    2.37725  0.0000E+00  0.3189E-13  0.5206E-16  0.1000E-09  0.0000E+00  0.2596E+16
   -0.892503    2.48106  0.0000E+00  0.3189E-13  0.5206E-16  0.1000E-09  0.0000E+00  0.2372E+16
   -0.935005    2.58279  0.0000E+00  0.3189E-13  0.5206E-16  0.1000E-09  0.0000E+00  0.2173E+16
   -0.977506    2.68310  0.0000E+00  0.3189E-13  0.5206E-16  0.1000E-09  0.0000E+00  0.1978E+16
   -1.020007    2.78180  0.0000E+00  0.3189E-13  0.5206E-16  0.1000E-09  0.0000E+00  0.1791E+16
   -1.062509    2.87891  0.0000E+00  0.3189E-13  0.5206E-16  0.1000E-09  0.0000E+00  0.1610E+16
   -1.105010    2.97426  0.0000E+00  0.3189E-13  0.5206E-16  0.1000E-09  0.0000E+00  0.1438E+16
   -1.147511    3.06795  0.0000E+00  0.3189E-13  0.5206E-16  0.1000E-09  0.0000E+00  0.1276E+16
   -1.190012    3.16004  0.0000E+00  0.3189E-13  0.5206E-16  0.1000E-09  0.0000E+00  0.1115E+16
   -1.232512    3.25006  0.0000E+00  0.3189E-13  0.5206E-16  0.1000E-09  0.0000E+00  0.9483E+15
   -1.275013    3.33645  0.0000E+00  0.3189E-13  0.5206E-16  0.1000E-09  0.0000E+00  0.7999E+15
   -1.317513    3.41960  0.0000E+00  0.3189E-13  0.5206E-16  0.1000E-09  0.0000E+00  0.6877E+15
   -1.360013    3.50248  0.0000E+00  0.6500E-13  0.6607E-16  0.1000E-09  0.0000E+00  0.5775E+15
   -1.402513    3.58521  0.0000E+00  0.2810E-12  0.2551E-15  0.1000E-09  0.0000E+00  0.4675E+15
   -1.445013    3.66767  0.0000E+00  0.1163E-11  0.1025E-14  0.1000E-09  0.0000E+00  0.3582E+15
   -1.487512    3.74967  0.0000E+00  0.4753E-11  0.4106E-14  0.1000E-09  0.0000E+00  0.2513E+15
   -1.530011    3.83134  0.0000E+00  0.2137E-10  0.1822E-13  0.3441E-09  0.0000E+00  0.1466E+15
   -1.572510    3.91328  0.0000E+00  0.1098E-09  0.9382E-13  0.4864E-08  0.0000E+00  0.4116E+14
   -1.615008    3.99534  0.0000E+00  0.5753E-09  0.5270E-12  0.2180E-06  0.0000E+00 -0.1425E+14
   -1.657506    4.02995  0.0000E+00  0.9308E-09  0.1430E-11  0.1987E-06  0.0000E+00 -0.3889E+14
   -1.700003    4.06922  0.0000E+00  0.0000E+00  0.0000E+00  0.0000E+00  0.0000E+00  0.0000E+00
