 1 - depth, m
 2 - temperature, C
 3 - salinity, kg/kg
 4 - turbulent kinetic energy, m**2/s**2
 5 - dissipation rate, m**2/s**3
 6 - kinematic heat conductance, m**2/s
 7 - modulus of horizontal velocity, m/s
 8 - Richardson number, n/d
   -0.000000   14.08551  0.0000E+00  0.4582E-04  0.1142E-04  0.3974E-04  0.4361E-01 -0.6332E-01
   -0.042498   14.12481  0.0000E+00  0.2505E-04  0.3114E-05  0.5692E-04  0.1388E-01 -0.5461E-01
   -0.084995   14.13460  0.0000E+00  0.1760E-04  0.1280E-05  0.7716E-04  0.9328E-02  0.1020E+03
   -0.127494   14.14153  0.0000E+00  0.1287E-04  0.5924E-06  0.9594E-04  0.6754E-02  0.7597E+01
   -0.169993   14.14721  0.0000E+00  0.9763E-05  0.2946E-06  0.1193E-03  0.4955E-02  0.7380E+01
   -0.212492   14.15206  0.0000E+00  0.7675E-05  0.1550E-06  0.1467E-03  0.3629E-02  0.7449E+01
   -0.254991   14.15616  0.0000E+00  0.6313E-05  0.8656E-07  0.1839E-03  0.2673E-02  0.1210E+03
   -0.297491   14.15945  0.0000E+00  0.5487E-05  0.5228E-07  0.2293E-03  0.2021E-02  0.4144E+02
   -0.339990   14.16192  0.0000E+00  0.5038E-05  0.3519E-07  0.2879E-03  0.1580E-02  0.3400E+03
   -0.382491   14.16366  0.0000E+00  0.4812E-05  0.2632E-07  0.3388E-03  0.1283E-02  0.3970E+02
   -0.424991   14.16496  0.0000E+00  0.4713E-05  0.2130E-07  0.3833E-03  0.1074E-02  0.2889E+02
   -0.467492   14.16603  0.0000E+00  0.4683E-05  0.1818E-07  0.4271E-03  0.9066E-03  0.5039E+01
   -0.509992   14.16695  0.0000E+00  0.4691E-05  0.1607E-07  0.4707E-03  0.7659E-03  0.5538E+01
   -0.552493   14.16776  0.0000E+00  0.4721E-05  0.1453E-07  0.5146E-03  0.6446E-03  0.1645E+01
   -0.594995   14.16849  0.0000E+00  0.4760E-05  0.1336E-07  0.5583E-03  0.5386E-03  0.1638E+01
   -0.637496   14.16915  0.0000E+00  0.4803E-05  0.1245E-07  0.6014E-03  0.4478E-03  0.1571E+01
   -0.679997   14.16976  0.0000E+00  0.4847E-05  0.1175E-07  0.6422E-03  0.3740E-03  0.1547E+01
   -0.722499   14.17032  0.0000E+00  0.4889E-05  0.1120E-07  0.6797E-03  0.3150E-03  0.1517E+01
   -0.765000   14.17084  0.0000E+00  0.4928E-05  0.1079E-07  0.7126E-03  0.2692E-03  0.1536E+01
   -0.807502   14.17133  0.0000E+00  0.4966E-05  0.1047E-07  0.7406E-03  0.2345E-03  0.1623E+01
   -0.850003   14.17179  0.0000E+00  0.5000E-05  0.1024E-07  0.7639E-03  0.2074E-03  0.1775E+01
   -0.892505   14.17224  0.0000E+00  0.5032E-05  0.1007E-07  0.7832E-03  0.1855E-03  0.1948E+01
   -0.935006   14.17267  0.0000E+00  0.5061E-05  0.9954E-08  0.7986E-03  0.1675E-03  0.2249E+01
   -0.977508   14.17310  0.0000E+00  0.5087E-05  0.9881E-08  0.8105E-03  0.1521E-03  0.2539E+01
   -1.020009   14.17352  0.0000E+00  0.5111E-05  0.9846E-08  0.8192E-03  0.1385E-03  0.2979E+01
   -1.062511   14.17395  0.0000E+00  0.5133E-05  0.9848E-08  0.8244E-03  0.1262E-03  0.3365E+01
   -1.105012   14.17437  0.0000E+00  0.5150E-05  0.9886E-08  0.8258E-03  0.1148E-03  0.3896E+01
   -1.147513   14.17481  0.0000E+00  0.5164E-05  0.9960E-08  0.8231E-03  0.1041E-03  0.4429E+01
   -1.190014   14.17525  0.0000E+00  0.5173E-05  0.1007E-07  0.8160E-03  0.9367E-04  0.5022E+01
   -1.232515   14.17571  0.0000E+00  0.5176E-05  0.1023E-07  0.8041E-03  0.8373E-04  0.5699E+01
   -1.275016   14.17618  0.0000E+00  0.5174E-05  0.1046E-07  0.7864E-03  0.7452E-04  0.7234E+01
   -1.317516   14.17667  0.0000E+00  0.5165E-05  0.1077E-07  0.7616E-03  0.6605E-04  0.9299E+01
   -1.360016   14.17717  0.0000E+00  0.5148E-05  0.1121E-07  0.7279E-03  0.5827E-04  0.1247E+02
   -1.402516   14.17770  0.0000E+00  0.5120E-05  0.1185E-07  0.6848E-03  0.5123E-04  0.1803E+02
   -1.445016   14.17828  0.0000E+00  0.5084E-05  0.1270E-07  0.6290E-03  0.4458E-04  0.2766E+02
   -1.487515   14.17892  0.0000E+00  0.5036E-05  0.1388E-07  0.5849E-03  0.3795E-04  0.3514E+02
   -1.530014   14.17962  0.0000E+00  0.4965E-05  0.1593E-07  0.4696E-03  0.3146E-04  0.4631E+02
   -1.572513   14.18054  0.0000E+00  0.4831E-05  0.2061E-07  0.5445E-03  0.2485E-04  0.5726E+04
   -1.615011   14.18130  0.0000E+00  0.4287E-05  0.4459E-07  0.1939E-03  0.2122E-04 -0.3502E+08
   -1.657509   14.18716  0.0000E+00  0.2772E-05  0.1418E-06  0.6492E-04  0.1343E-04 -0.2229E+05
   -1.700007   14.19377  0.0000E+00  0.0000E+00  0.0000E+00  0.0000E+00  0.1602E-04  0.0000E+00
