 1 - depth, m
 2 - temperature, C
 3 - salinity, kg/kg
 4 - turbulent kinetic energy, m**2/s**2
 5 - dissipation rate, m**2/s**3
 6 - kinematic heat conductance, m**2/s
 7 - modulus of horizontal velocity, m/s
 8 - Richardson number, n/d
   -0.000000   14.62761  0.0000E+00  0.1086E-03  0.6002E-03  0.4907E-04  0.7539E-01 -0.2428E-01
   -0.042497   14.68036  0.0000E+00  0.6192E-04  0.3424E-03  0.8419E-04  0.2066E-01 -0.4813E-01
   -0.084995   14.69232  0.0000E+00  0.4542E-04  0.2208E-03  0.8461E-04  0.1409E-01 -0.1056E+00
   -0.127493   14.70079  0.0000E+00  0.3415E-04  0.1355E-03  0.9593E-04  0.1068E-01  0.1592E+02
   -0.169992   14.70748  0.0000E+00  0.2594E-04  0.7877E-04  0.1163E-03  0.8276E-02  0.2040E+02
   -0.212491   14.71305  0.0000E+00  0.1985E-04  0.4293E-04  0.1388E-03  0.6432E-02  0.5094E+02
   -0.254990   14.71780  0.0000E+00  0.1536E-04  0.2167E-04  0.1705E-03  0.5051E-02  0.1258E+03
   -0.297489   14.72182  0.0000E+00  0.1221E-04  0.1007E-04  0.2071E-03  0.4049E-02  0.3208E+03
   -0.339989   14.72510  0.0000E+00  0.1008E-04  0.4383E-05  0.2442E-03  0.3314E-02  0.4285E+01
   -0.382489   14.72780  0.0000E+00  0.8627E-05  0.1795E-05  0.2869E-03  0.2732E-02  0.7746E+01
   -0.424989   14.72999  0.0000E+00  0.7649E-05  0.6668E-06  0.3329E-03  0.2292E-02  0.4512E+02
   -0.467490   14.73178  0.0000E+00  0.7000E-05  0.2283E-06  0.3773E-03  0.1916E-02  0.4799E+01
   -0.509990   14.73329  0.0000E+00  0.6574E-05  0.8370E-07  0.4238E-03  0.1593E-02  0.1637E+02
   -0.552491   14.73452  0.0000E+00  0.6292E-05  0.4202E-07  0.4691E-03  0.1318E-02  0.4006E+02
   -0.594992   14.73559  0.0000E+00  0.6099E-05  0.2969E-07  0.5117E-03  0.1082E-02  0.1017E+02
   -0.637493   14.73650  0.0000E+00  0.5961E-05  0.2418E-07  0.5562E-03  0.8839E-03  0.2022E+03
   -0.679994   14.73731  0.0000E+00  0.5863E-05  0.2103E-07  0.5988E-03  0.7251E-03  0.2918E+01
   -0.722495   14.73803  0.0000E+00  0.5790E-05  0.1876E-07  0.6372E-03  0.5976E-03  0.1567E+01
   -0.764997   14.73870  0.0000E+00  0.5735E-05  0.1702E-07  0.6725E-03  0.4977E-03  0.1204E+01
   -0.807498   14.73931  0.0000E+00  0.5691E-05  0.1569E-07  0.7017E-03  0.4221E-03  0.2387E+01
   -0.849999   14.73989  0.0000E+00  0.5657E-05  0.1468E-07  0.7267E-03  0.3631E-03  0.1217E+01
   -0.892501   14.74043  0.0000E+00  0.5628E-05  0.1389E-07  0.7478E-03  0.3163E-03  0.1198E+01
   -0.935002   14.74096  0.0000E+00  0.5604E-05  0.1328E-07  0.7650E-03  0.2787E-03  0.1269E+01
   -0.977504   14.74146  0.0000E+00  0.5582E-05  0.1281E-07  0.7789E-03  0.2472E-03  0.1355E+01
   -1.020005   14.74195  0.0000E+00  0.5561E-05  0.1244E-07  0.7894E-03  0.2207E-03  0.1480E+01
   -1.062506   14.74243  0.0000E+00  0.5541E-05  0.1218E-07  0.7960E-03  0.1975E-03  0.1603E+01
   -1.105007   14.74289  0.0000E+00  0.5520E-05  0.1198E-07  0.7987E-03  0.1772E-03  0.1748E+01
   -1.147508   14.74335  0.0000E+00  0.5499E-05  0.1187E-07  0.7975E-03  0.1585E-03  0.1931E+01
   -1.190009   14.74381  0.0000E+00  0.5476E-05  0.1183E-07  0.7918E-03  0.1411E-03  0.2093E+01
   -1.232509   14.74426  0.0000E+00  0.5451E-05  0.1186E-07  0.7814E-03  0.1249E-03  0.2344E+01
   -1.275010   14.74472  0.0000E+00  0.5421E-05  0.1196E-07  0.7655E-03  0.1104E-03  0.2889E+01
   -1.317510   14.74518  0.0000E+00  0.5387E-05  0.1217E-07  0.7430E-03  0.9730E-04  0.3729E+01
   -1.360010   14.74565  0.0000E+00  0.5345E-05  0.1252E-07  0.7115E-03  0.8554E-04  0.4904E+01
   -1.402510   14.74615  0.0000E+00  0.5292E-05  0.1308E-07  0.6710E-03  0.7491E-04  0.7115E+01
   -1.445009   14.74667  0.0000E+00  0.5232E-05  0.1389E-07  0.6179E-03  0.6501E-04  0.1044E+02
   -1.487508   14.74724  0.0000E+00  0.5164E-05  0.1508E-07  0.5756E-03  0.5510E-04  0.1363E+02
   -1.530007   14.74785  0.0000E+00  0.5075E-05  0.1727E-07  0.4630E-03  0.4549E-04  0.1097E+02
   -1.572506   14.74866  0.0000E+00  0.4924E-05  0.2236E-07  0.5359E-03  0.3565E-04  0.1242E+03
   -1.615004   14.74934  0.0000E+00  0.4345E-05  0.4847E-07  0.1895E-03  0.3033E-04 -0.2658E+08
   -1.657502   14.75512  0.0000E+00  0.2812E-05  0.1512E-06  0.6712E-04  0.1900E-04 -0.3728E+05
   -1.699999   14.76181  0.0000E+00  0.0000E+00  0.0000E+00  0.0000E+00  0.2306E-04  0.0000E+00
