 1 - depth, m
 2 - temperature, C
 3 - salinity, kg/kg
 4 - turbulent kinetic energy, m**2/s**2
 5 - dissipation rate, m**2/s**3
 6 - kinematic heat conductance, m**2/s
 7 - modulus of horizontal velocity, m/s
 8 - Richardson number, n/d
   -0.000000    0.00000  0.0000E+00  0.3189E-13  0.5206E-16  0.1000E-09  0.0000E+00  0.9692E+16
   -0.042497    0.14833  0.0000E+00  0.3189E-13  0.5206E-16  0.1000E-09  0.0000E+00  0.9763E+16
   -0.084995    0.30421  0.0000E+00  0.3189E-13  0.5206E-16  0.1000E-09  0.0000E+00  0.9733E+16
   -0.127494    0.46692  0.0000E+00  0.3189E-13  0.5206E-16  0.1000E-09  0.0000E+00  0.9207E+16
   -0.169992    0.62854  0.0000E+00  0.3189E-13  0.5206E-16  0.1000E-09  0.0000E+00  0.8680E+16
   -0.212491    0.78881  0.0000E+00  0.3189E-13  0.5206E-16  0.1000E-09  0.0000E+00  0.8144E+16
   -0.254990    0.94730  0.0000E+00  0.3189E-13  0.5206E-16  0.1000E-09  0.0000E+00  0.7604E+16
   -0.297490    1.10357  0.0000E+00  0.3189E-13  0.5206E-16  0.1000E-09  0.0000E+00  0.7086E+16
   -0.339990    1.25765  0.0000E+00  0.3189E-13  0.5206E-16  0.1000E-09  0.0000E+00  0.6599E+16
   -0.382490    1.40980  0.0000E+00  0.3189E-13  0.5206E-16  0.1000E-09  0.0000E+00  0.6119E+16
   -0.424990    1.55977  0.0000E+00  0.3189E-13  0.5206E-16  0.1000E-09  0.0000E+00  0.5672E+16
   -0.467491    1.70796  0.0000E+00  0.3189E-13  0.5206E-16  0.1000E-09  0.0000E+00  0.5232E+16
   -0.509991    1.85414  0.0000E+00  0.3189E-13  0.5206E-16  0.1000E-09  0.0000E+00  0.4828E+16
   -0.552492    1.99891  0.0000E+00  0.3710E-13  0.5206E-16  0.1000E-09  0.0000E+00  0.4434E+16
   -0.594993    2.14220  0.0000E+00  0.1246E-12  0.5206E-16  0.1000E-09  0.0000E+00  0.4040E+16
   -0.637494    2.28357  0.0000E+00  0.3438E-12  0.6387E-16  0.1000E-09  0.0000E+00  0.3643E+16
   -0.679996    2.42226  0.0000E+00  0.7336E-12  0.1027E-15  0.1000E-09  0.0000E+00  0.3254E+16
   -0.722497    2.55781  0.0000E+00  0.1406E-11  0.1779E-15  0.1000E-09  0.0000E+00  0.2869E+16
   -0.764998    2.68934  0.0000E+00  0.2581E-11  0.3121E-15  0.1000E-09  0.0000E+00  0.2496E+16
   -0.807500    2.81599  0.0000E+00  0.4641E-11  0.5464E-15  0.1000E-09  0.0000E+00  0.2155E+16
   -0.850001    2.93783  0.0000E+00  0.8181E-11  0.9440E-15  0.1000E-09  0.0000E+00  0.1840E+16
   -0.892503    3.05464  0.0000E+00  0.1431E-10  0.1622E-14  0.1000E-09  0.0000E+00  0.1574E+16
   -0.935004    3.16788  0.0000E+00  0.2474E-10  0.2757E-14  0.1000E-09  0.0000E+00  0.1345E+16
   -0.977506    3.27905  0.0000E+00  0.4246E-10  0.4657E-14  0.1000E-09  0.0000E+00  0.1125E+16
   -1.020007    3.38797  0.0000E+00  0.7240E-10  0.7813E-14  0.1000E-09  0.0000E+00  0.9189E+15
   -1.062508    3.49468  0.0000E+00  0.1227E-09  0.1303E-13  0.1000E-09  0.0000E+00  0.7230E+15
   -1.105009    3.59898  0.0000E+00  0.2070E-09  0.2165E-13  0.1287E-09  0.0000E+00  0.5402E+15
   -1.147510    3.70095  0.0000E+00  0.3451E-09  0.3557E-13  0.3041E-09  0.0000E+00  0.3687E+15
   -1.190011    3.80048  0.0000E+00  0.5721E-09  0.5811E-13  0.8847E-09  0.0000E+00  0.2073E+15
   -1.232512    3.89626  0.0000E+00  0.9629E-09  0.9641E-13  0.4915E-08  0.0000E+00  0.6309E+14
   -1.275012    3.98302  0.0000E+00  0.1360E-08  0.1368E-12  0.3001E-05  0.0000E+00  0.3952E+12
   -1.317513    3.99184  0.0000E+00  0.1643E-08  0.1711E-12  0.5862E-05  0.0000E+00 -0.1910E+12
   -1.360013    3.99380  0.0000E+00  0.1873E-08  0.2047E-12  0.6792E-05  0.0000E+00 -0.2168E+12
   -1.402513    3.99549  0.0000E+00  0.2089E-08  0.2440E-12  0.7212E-05  0.0000E+00 -0.2492E+12
   -1.445012    3.99711  0.0000E+00  0.2268E-08  0.2869E-12  0.7246E-05  0.0000E+00 -0.2927E+12
   -1.487511    3.99873  0.0000E+00  0.2404E-08  0.3363E-12  0.6907E-05  0.0000E+00 -0.3572E+12
   -1.530010    4.00045  0.0000E+00  0.2501E-08  0.4081E-12  0.6039E-05  0.0000E+00 -0.4818E+12
   -1.572509    4.00249  0.0000E+00  0.2553E-08  0.5618E-12  0.4374E-05  0.0000E+00 -0.8599E+12
   -1.615007    4.00559  0.0000E+00  0.2464E-08  0.1120E-11  0.1650E-05  0.0000E+00 -0.3265E+13
   -1.657505    4.01439  0.0000E+00  0.2053E-08  0.2926E-11  0.3622E-06  0.0000E+00 -0.2770E+14
   -1.700002    4.05209  0.0000E+00  0.0000E+00  0.0000E+00  0.0000E+00  0.0000E+00  0.0000E+00
