 1 - depth, m
 2 - temperature, C
 3 - salinity, kg/kg
 4 - turbulent kinetic energy, m**2/s**2
 5 - dissipation rate, m**2/s**3
 6 - kinematic heat conductance, m**2/s
 7 - modulus of horizontal velocity, m/s
 8 - Richardson number, n/d
   -0.000000    0.00000  0.0000E+00  0.8462E-12  0.1963E-15  0.1000E-09  0.0000E+00  0.1754E+17
   -0.042497    0.27314  0.0000E+00  0.1320E-11  0.1699E-15  0.1000E-09  0.0000E+00  0.1634E+17
   -0.084994    0.54830  0.0000E+00  0.2222E-11  0.1908E-15  0.1000E-09  0.0000E+00  0.1502E+17
   -0.127492    0.82358  0.0000E+00  0.3614E-11  0.2485E-15  0.1000E-09  0.0000E+00  0.1334E+17
   -0.169990    1.09118  0.0000E+00  0.5653E-11  0.3462E-15  0.1000E-09  0.0000E+00  0.1174E+17
   -0.212489    1.35040  0.0000E+00  0.8606E-11  0.4951E-15  0.1000E-09  0.0000E+00  0.1026E+17
   -0.254987    1.60094  0.0000E+00  0.1289E-10  0.7154E-15  0.1000E-09  0.0000E+00  0.8885E+16
   -0.297487    1.84244  0.0000E+00  0.1913E-10  0.1037E-14  0.1000E-09  0.0000E+00  0.7600E+16
   -0.339986    2.07398  0.0000E+00  0.2803E-10  0.1495E-14  0.1000E-09  0.0000E+00  0.6407E+16
   -0.382486    2.29447  0.0000E+00  0.4079E-10  0.2148E-14  0.1000E-09  0.0000E+00  0.5332E+16
   -0.424985    2.50351  0.0000E+00  0.5898E-10  0.3071E-14  0.1000E-09  0.0000E+00  0.4365E+16
   -0.467485    2.70042  0.0000E+00  0.8488E-10  0.4374E-14  0.1000E-09  0.0000E+00  0.3515E+16
   -0.509986    2.88486  0.0000E+00  0.1219E-09  0.6219E-14  0.1000E-09  0.0000E+00  0.2799E+16
   -0.552486    3.05815  0.0000E+00  0.1751E-09  0.8842E-14  0.1000E-09  0.0000E+00  0.2179E+16
   -0.594987    3.22018  0.0000E+00  0.2514E-09  0.1258E-13  0.1000E-09  0.0000E+00  0.1647E+16
   -0.637487    3.37072  0.0000E+00  0.3639E-09  0.1802E-13  0.1000E-09  0.0000E+00  0.1198E+16
   -0.679988    3.50954  0.0000E+00  0.5297E-09  0.2597E-13  0.1038E-09  0.0000E+00  0.8233E+15
   -0.722489    3.63580  0.0000E+00  0.7758E-09  0.3766E-13  0.2271E-09  0.0000E+00  0.5211E+15
   -0.764990    3.74830  0.0000E+00  0.1143E-08  0.5493E-13  0.5971E-09  0.0000E+00  0.2902E+15
   -0.807491    3.84564  0.0000E+00  0.1690E-08  0.8039E-13  0.1997E-08  0.0000E+00  0.1292E+15
   -0.849992    3.92753  0.0000E+00  0.2473E-08  0.1165E-12  0.1467E-07  0.0000E+00  0.2769E+14
   -0.892493    3.99149  0.0000E+00  0.2673E-08  0.1264E-12  0.2037E-04  0.0000E+00 -0.3795E+11
   -0.934994    3.99196  0.0000E+00  0.2777E-08  0.1323E-12  0.2204E-04  0.0000E+00 -0.3838E+11
   -0.977495    3.99239  0.0000E+00  0.2876E-08  0.1384E-12  0.2336E-04  0.0000E+00 -0.3914E+11
   -1.019996    3.99280  0.0000E+00  0.2968E-08  0.1447E-12  0.2421E-04  0.0000E+00 -0.4042E+11
   -1.062497    3.99319  0.0000E+00  0.3053E-08  0.1514E-12  0.2479E-04  0.0000E+00 -0.4203E+11
   -1.104997    3.99358  0.0000E+00  0.3131E-08  0.1583E-12  0.2511E-04  0.0000E+00 -0.4393E+11
   -1.147498    3.99396  0.0000E+00  0.3202E-08  0.1655E-12  0.2524E-04  0.0000E+00 -0.4609E+11
   -1.189998    3.99434  0.0000E+00  0.3264E-08  0.1731E-12  0.2521E-04  0.0000E+00 -0.4868E+11
   -1.232499    3.99472  0.0000E+00  0.3322E-08  0.1815E-12  0.2506E-04  0.0000E+00 -0.5214E+11
   -1.274999    3.99511  0.0000E+00  0.3374E-08  0.1912E-12  0.2467E-04  0.0000E+00 -0.5634E+11
   -1.317498    3.99551  0.0000E+00  0.3423E-08  0.2030E-12  0.2386E-04  0.0000E+00 -0.6135E+11
   -1.359998    3.99593  0.0000E+00  0.3469E-08  0.2183E-12  0.2251E-04  0.0000E+00 -0.6873E+11
   -1.402497    3.99638  0.0000E+00  0.3512E-08  0.2392E-12  0.2014E-04  0.0000E+00 -0.8128E+11
   -1.444997    3.99688  0.0000E+00  0.3544E-08  0.2654E-12  0.1765E-04  0.0000E+00 -0.9830E+11
   -1.487495    3.99746  0.0000E+00  0.3563E-08  0.2995E-12  0.1521E-04  0.0000E+00 -0.1225E+12
   -1.529994    3.99814  0.0000E+00  0.3564E-08  0.3554E-12  0.1238E-04  0.0000E+00 -0.1695E+12
   -1.572492    3.99902  0.0000E+00  0.3523E-08  0.4885E-12  0.8550E-05  0.0000E+00 -0.3233E+12
   -1.614990    4.00055  0.0000E+00  0.3253E-08  0.1079E-11  0.2599E-05  0.0000E+00 -0.1579E+13
   -1.657487    4.00641  0.0000E+00  0.2484E-08  0.3384E-11  0.4132E-06  0.0000E+00 -0.2285E+14
   -1.699984    4.04394  0.0000E+00  0.0000E+00  0.0000E+00  0.0000E+00  0.0000E+00  0.0000E+00
