 1 - depth, m
 2 - temperature, C
 3 - salinity, kg/kg
 4 - turbulent kinetic energy, m**2/s**2
 5 - dissipation rate, m**2/s**3
 6 - kinematic heat conductance, m**2/s
 7 - modulus of horizontal velocity, m/s
 8 - Richardson number, n/d
   -0.000000    0.00000  0.0000E+00  0.2829E-04  0.4041E-05  0.2445E-04  0.3404E-01  0.3010E-02
   -0.042497    0.00581  0.0000E+00  0.1746E-04  0.1073E-05  0.3568E-04  0.1607E-01  0.4706E-02
   -0.084995    0.00935  0.0000E+00  0.1201E-04  0.4255E-06  0.4026E-04  0.1084E-01  0.1071E-01
   -0.127494    0.01247  0.0000E+00  0.8389E-05  0.1956E-06  0.4067E-04  0.7628E-02  0.2093E-01
   -0.169992    0.01540  0.0000E+00  0.5838E-05  0.9711E-07  0.3789E-04  0.5391E-02  0.4012E-01
   -0.212491    0.01835  0.0000E+00  0.3943E-05  0.4933E-07  0.3295E-04  0.3757E-02  0.8637E-01
   -0.254991    0.02148  0.0000E+00  0.2547E-05  0.2484E-07  0.2649E-04  0.2590E-02  0.2302E+00
   -0.297490    0.02503  0.0000E+00  0.1564E-05  0.1227E-07  0.1871E-04  0.1803E-02  0.7607E+00
   -0.339990    0.02985  0.0000E+00  0.8833E-06  0.5850E-08  0.1041E-04  0.1263E-02  0.5582E+01
   -0.382490    0.05132  0.0000E+00  0.4056E-06  0.2416E-08  0.3570E-05  0.8254E-03  0.2432E+03
   -0.424991    0.15000  0.0000E+00  0.1048E-06  0.6329E-09  0.2046E-06  0.4961E-03  0.6353E+04
   -0.467491    0.48419  0.0000E+00  0.1041E-07  0.6158E-10  0.5050E-08  0.1597E-03  0.1475E+06
   -0.509992    1.06797  0.0000E+00  0.4304E-08  0.6521E-11  0.6272E-09  0.3188E-04  0.3611E+07
   -0.552493    1.76123  0.0000E+00  0.1364E-07  0.4008E-11  0.5521E-09  0.5919E-05  0.7844E+08
   -0.594994    2.51040  0.0000E+00  0.3347E-07  0.5245E-11  0.1235E-08  0.8971E-06  0.1982E+10
   -0.637495    3.27829  0.0000E+00  0.6786E-07  0.8500E-11  0.6830E-08  0.1033E-06  0.3759E+11
   -0.679996    4.02159  0.0000E+00  0.6888E-07  0.8616E-11  0.1833E-03  0.3425E-08  0.3066E+11
   -0.722498    4.02219  0.0000E+00  0.6937E-07  0.8680E-11  0.1801E-03  0.2696E-08  0.3041E+11
   -0.764999    4.02278  0.0000E+00  0.6985E-07  0.8753E-11  0.1809E-03  0.2114E-08  0.2895E+11
   -0.807501    4.02335  0.0000E+00  0.7032E-07  0.8834E-11  0.1818E-03  0.1679E-08  0.1897E+11
   -0.850002    4.02391  0.0000E+00  0.7076E-07  0.8925E-11  0.1823E-03  0.1343E-08  0.6000E+10
   -0.892504    4.02445  0.0000E+00  0.7118E-07  0.9027E-11  0.1825E-03  0.1082E-08 -0.2911E+10
   -0.935005    4.02498  0.0000E+00  0.7158E-07  0.9140E-11  0.1824E-03  0.8789E-09 -0.7820E+10
   -0.977507    4.02551  0.0000E+00  0.7195E-07  0.9264E-11  0.1818E-03  0.7149E-09 -0.1508E+11
   -1.020008    4.02604  0.0000E+00  0.7230E-07  0.9401E-11  0.1810E-03  0.5843E-09 -0.2035E+11
   -1.062510    4.02657  0.0000E+00  0.7261E-07  0.9551E-11  0.1798E-03  0.4767E-09 -0.2888E+11
   -1.105011    4.02711  0.0000E+00  0.7288E-07  0.9717E-11  0.1782E-03  0.3882E-09 -0.3440E+11
   -1.147512    4.02764  0.0000E+00  0.7312E-07  0.9895E-11  0.1764E-03  0.3119E-09 -0.3868E+11
   -1.190013    4.02818  0.0000E+00  0.7331E-07  0.1009E-10  0.1742E-03  0.2427E-09 -0.4389E+11
   -1.232514    4.02872  0.0000E+00  0.7346E-07  0.1031E-10  0.1714E-03  0.1821E-09 -0.5652E+11
   -1.275014    4.02928  0.0000E+00  0.7358E-07  0.1057E-10  0.1680E-03  0.1344E-09 -0.6538E+11
   -1.317515    4.02984  0.0000E+00  0.7366E-07  0.1090E-10  0.1639E-03  0.9751E-10 -0.7000E+11
   -1.360015    4.03042  0.0000E+00  0.7371E-07  0.1131E-10  0.1586E-03  0.6982E-10 -0.8899E+11
   -1.402515    4.03101  0.0000E+00  0.7370E-07  0.1185E-10  0.1521E-03  0.5036E-10 -0.1430E+12
   -1.445014    4.03163  0.0000E+00  0.7363E-07  0.1251E-10  0.1451E-03  0.3588E-10 -0.2110E+12
   -1.487513    4.03228  0.0000E+00  0.7350E-07  0.1332E-10  0.1369E-03  0.2390E-10 -0.2912E+12
   -1.530012    4.03296  0.0000E+00  0.7326E-07  0.1455E-10  0.1257E-03  0.1417E-10 -0.3846E+12
   -1.572511    4.03371  0.0000E+00  0.7273E-07  0.1714E-10  0.1104E-03  0.7590E-11 -0.5646E+12
   -1.615009    4.03457  0.0000E+00  0.7046E-07  0.2836E-10  0.4523E-04  0.4412E-11 -0.1646E+13
   -1.657507    4.03672  0.0000E+00  0.4999E-07  0.1486E-09  0.2458E-05  0.1657E-11 -0.4226E+14
   -1.700005    4.07548  0.0000E+00  0.0000E+00  0.0000E+00  0.0000E+00  0.1663E-11  0.0000E+00
