 1 - depth, m
 2 - temperature, C
 3 - salinity, kg/kg
 4 - turbulent kinetic energy, m**2/s**2
 5 - dissipation rate, m**2/s**3
 6 - kinematic heat conductance, m**2/s
 7 - modulus of horizontal velocity, m/s
 8 - Richardson number, n/d
   -0.000000    0.00000  0.0000E+00  0.3189E-13  0.5207E-16  0.1000E-09  0.0000E+00  0.1172E+17
   -0.042497    0.18017  0.0000E+00  0.3189E-13  0.5207E-16  0.1000E-09  0.0000E+00  0.1163E+17
   -0.084995    0.36843  0.0000E+00  0.3189E-13  0.5207E-16  0.1000E-09  0.0000E+00  0.1139E+17
   -0.127493    0.56346  0.0000E+00  0.3189E-13  0.5207E-16  0.1000E-09  0.0000E+00  0.1038E+17
   -0.169992    0.75208  0.0000E+00  0.3189E-13  0.5207E-16  0.1000E-09  0.0000E+00  0.9409E+16
   -0.212490    0.93365  0.0000E+00  0.3189E-13  0.5207E-16  0.1000E-09  0.0000E+00  0.8442E+16
   -0.254989    1.10680  0.0000E+00  0.3189E-13  0.5207E-16  0.1000E-09  0.0000E+00  0.7500E+16
   -0.297489    1.27035  0.0000E+00  0.3189E-13  0.5207E-16  0.1000E-09  0.0000E+00  0.6673E+16
   -0.339989    1.42507  0.0000E+00  0.3189E-13  0.5207E-16  0.1000E-09  0.0000E+00  0.5992E+16
   -0.382488    1.57281  0.0000E+00  0.3189E-13  0.5207E-16  0.1000E-09  0.0000E+00  0.5360E+16
   -0.424989    1.71345  0.0000E+00  0.3189E-13  0.5207E-16  0.1000E-09  0.0000E+00  0.4869E+16
   -0.467489    1.84952  0.0000E+00  0.9772E-13  0.5207E-16  0.1000E-09  0.0000E+00  0.4412E+16
   -0.509990    1.98106  0.0000E+00  0.2937E-12  0.6618E-16  0.1000E-09  0.0000E+00  0.4084E+16
   -0.552490    2.11133  0.0000E+00  0.6599E-12  0.1154E-15  0.1000E-09  0.0000E+00  0.3787E+16
   -0.594991    2.24107  0.0000E+00  0.1324E-11  0.2129E-15  0.1000E-09  0.0000E+00  0.3480E+16
   -0.637492    2.36972  0.0000E+00  0.2567E-11  0.3972E-15  0.1000E-09  0.0000E+00  0.3147E+16
   -0.679993    2.49588  0.0000E+00  0.4905E-11  0.7402E-15  0.1000E-09  0.0000E+00  0.2824E+16
   -0.722495    2.61922  0.0000E+00  0.9330E-11  0.1379E-14  0.1000E-09  0.0000E+00  0.2493E+16
   -0.764996    2.73845  0.0000E+00  0.1773E-10  0.2570E-14  0.1000E-09  0.0000E+00  0.2169E+16
   -0.807497    2.85253  0.0000E+00  0.3360E-10  0.4780E-14  0.1000E-09  0.0000E+00  0.1893E+16
   -0.849999    2.96264  0.0000E+00  0.6287E-10  0.8780E-14  0.1000E-09  0.0000E+00  0.1645E+16
   -0.892500    3.06921  0.0000E+00  0.1171E-09  0.1605E-13  0.1000E-09  0.0000E+00  0.1467E+16
   -0.935001    3.17619  0.0000E+00  0.2154E-09  0.2901E-13  0.1000E-09  0.0000E+00  0.1330E+16
   -0.977502    3.28740  0.0000E+00  0.3938E-09  0.5209E-13  0.1396E-09  0.0000E+00  0.1175E+16
   -1.020004    3.40318  0.0000E+00  0.7145E-09  0.9285E-13  0.2935E-09  0.0000E+00  0.9962E+15
   -1.062505    3.52382  0.0000E+00  0.1288E-08  0.1644E-12  0.6539E-09  0.0000E+00  0.7922E+15
   -1.105006    3.64957  0.0000E+00  0.2306E-08  0.2894E-12  0.1637E-08  0.0000E+00  0.5578E+15
   -1.147507    3.78021  0.0000E+00  0.4070E-08  0.5022E-12  0.5466E-08  0.0000E+00  0.2919E+15
   -1.190007    3.91374  0.0000E+00  0.6896E-08  0.8399E-12  0.8362E-07  0.0000E+00  0.3860E+14
   -1.232508    4.00896  0.0000E+00  0.7642E-08  0.9355E-12  0.2803E-04  0.0000E+00 -0.2733E+12
   -1.275008    4.00972  0.0000E+00  0.7967E-08  0.9848E-12  0.2824E-04  0.0000E+00 -0.2875E+12
   -1.317509    4.01049  0.0000E+00  0.8235E-08  0.1034E-11  0.2848E-04  0.0000E+00 -0.2954E+12
   -1.360008    4.01126  0.0000E+00  0.8472E-08  0.1090E-11  0.2838E-04  0.0000E+00 -0.3073E+12
   -1.402508    4.01204  0.0000E+00  0.8685E-08  0.1157E-11  0.2792E-04  0.0000E+00 -0.3238E+12
   -1.445008    4.01283  0.0000E+00  0.8849E-08  0.1234E-11  0.2708E-04  0.0000E+00 -0.3456E+12
   -1.487507    4.01365  0.0000E+00  0.8965E-08  0.1332E-11  0.2571E-04  0.0000E+00 -0.3784E+12
   -1.530005    4.01452  0.0000E+00  0.9024E-08  0.1490E-11  0.2200E-04  0.0000E+00 -0.4695E+12
   -1.572504    4.01556  0.0000E+00  0.8974E-08  0.1849E-11  0.1608E-04  0.0000E+00 -0.7358E+12
   -1.615002    4.01713  0.0000E+00  0.8470E-08  0.3303E-11  0.6212E-05  0.0000E+00 -0.2296E+13
   -1.657500    4.02157  0.0000E+00  0.6283E-08  0.1016E-10  0.8074E-06  0.0000E+00 -0.2897E+14
   -1.699997    4.05663  0.0000E+00  0.0000E+00  0.0000E+00  0.0000E+00  0.0000E+00  0.0000E+00
