 1 - depth, m
 2 - temperature, C
 3 - salinity, kg/kg
 4 - turbulent kinetic energy, m**2/s**2
 5 - dissipation rate, m**2/s**3
 6 - kinematic heat conductance, m**2/s
 7 - modulus of horizontal velocity, m/s
 8 - Richardson number, n/d
   -0.000000    0.00000  0.0000E+00  0.3189E-13  0.5206E-16  0.1000E-09  0.0000E+00  0.7148E+16
   -0.042497    0.10881  0.0000E+00  0.3189E-13  0.5206E-16  0.1000E-09  0.0000E+00  0.7306E+16
   -0.084995    0.22351  0.0000E+00  0.3189E-13  0.5206E-16  0.1000E-09  0.0000E+00  0.7400E+16
   -0.127494    0.34361  0.0000E+00  0.3189E-13  0.5206E-16  0.1000E-09  0.0000E+00  0.7143E+16
   -0.169992    0.46365  0.0000E+00  0.3189E-13  0.5206E-16  0.1000E-09  0.0000E+00  0.6879E+16
   -0.212491    0.58351  0.0000E+00  0.3189E-13  0.5206E-16  0.1000E-09  0.0000E+00  0.6605E+16
   -0.254991    0.70295  0.0000E+00  0.3189E-13  0.5206E-16  0.1000E-09  0.0000E+00  0.6324E+16
   -0.297490    0.82178  0.0000E+00  0.3189E-13  0.5206E-16  0.1000E-09  0.0000E+00  0.6048E+16
   -0.339990    0.93999  0.0000E+00  0.3189E-13  0.5206E-16  0.1000E-09  0.0000E+00  0.5780E+16
   -0.382490    1.05766  0.0000E+00  0.3189E-13  0.5206E-16  0.1000E-09  0.0000E+00  0.5511E+16
   -0.424991    1.17467  0.0000E+00  0.3189E-13  0.5206E-16  0.1000E-09  0.0000E+00  0.5254E+16
   -0.467491    1.29118  0.0000E+00  0.3189E-13  0.5206E-16  0.1000E-09  0.0000E+00  0.4996E+16
   -0.509992    1.40707  0.0000E+00  0.3189E-13  0.5206E-16  0.1000E-09  0.0000E+00  0.4746E+16
   -0.552493    1.52243  0.0000E+00  0.3189E-13  0.5206E-16  0.1000E-09  0.0000E+00  0.4497E+16
   -0.594994    1.63720  0.0000E+00  0.3189E-13  0.5206E-16  0.1000E-09  0.0000E+00  0.4245E+16
   -0.637495    1.75113  0.0000E+00  0.3189E-13  0.5206E-16  0.1000E-09  0.0000E+00  0.3984E+16
   -0.679996    1.86384  0.0000E+00  0.3189E-13  0.5206E-16  0.1000E-09  0.0000E+00  0.3724E+16
   -0.722498    1.97509  0.0000E+00  0.3189E-13  0.5206E-16  0.1000E-09  0.0000E+00  0.3458E+16
   -0.764999    2.08443  0.0000E+00  0.3189E-13  0.5206E-16  0.1000E-09  0.0000E+00  0.3191E+16
   -0.807501    2.19143  0.0000E+00  0.3189E-13  0.5206E-16  0.1000E-09  0.0000E+00  0.2938E+16
   -0.850002    2.29612  0.0000E+00  0.3189E-13  0.5206E-16  0.1000E-09  0.0000E+00  0.2695E+16
   -0.892504    2.39837  0.0000E+00  0.3189E-13  0.5206E-16  0.1000E-09  0.0000E+00  0.2478E+16
   -0.935005    2.49875  0.0000E+00  0.3189E-13  0.5206E-16  0.1000E-09  0.0000E+00  0.2286E+16
   -0.977507    2.59791  0.0000E+00  0.3189E-13  0.5206E-16  0.1000E-09  0.0000E+00  0.2096E+16
   -1.020008    2.69568  0.0000E+00  0.3189E-13  0.5206E-16  0.1000E-09  0.0000E+00  0.1914E+16
   -1.062510    2.79208  0.0000E+00  0.3189E-13  0.5206E-16  0.1000E-09  0.0000E+00  0.1736E+16
   -1.105011    2.88696  0.0000E+00  0.3189E-13  0.5206E-16  0.1000E-09  0.0000E+00  0.1567E+16
   -1.147512    2.98043  0.0000E+00  0.3189E-13  0.5206E-16  0.1000E-09  0.0000E+00  0.1407E+16
   -1.190013    3.07257  0.0000E+00  0.3189E-13  0.5206E-16  0.1000E-09  0.0000E+00  0.1246E+16
   -1.232513    3.16292  0.0000E+00  0.3189E-13  0.5206E-16  0.1000E-09  0.0000E+00  0.1077E+16
   -1.275014    3.24995  0.0000E+00  0.3189E-13  0.5206E-16  0.1000E-09  0.0000E+00  0.9245E+15
   -1.317514    3.33402  0.0000E+00  0.3189E-13  0.5206E-16  0.1000E-09  0.0000E+00  0.8098E+15
   -1.360015    3.41790  0.0000E+00  0.3189E-13  0.5206E-16  0.1000E-09  0.0000E+00  0.6968E+15
   -1.402514    3.50168  0.0000E+00  0.3189E-13  0.5206E-16  0.1000E-09  0.0000E+00  0.5841E+15
   -1.445014    3.58529  0.0000E+00  0.8826E-13  0.1080E-15  0.1000E-09  0.0000E+00  0.4717E+15
   -1.487513    3.66861  0.0000E+00  0.4225E-12  0.4963E-15  0.1000E-09  0.0000E+00  0.3612E+15
   -1.530012    3.75174  0.0000E+00  0.2284E-11  0.2661E-14  0.1000E-09  0.0000E+00  0.2533E+15
   -1.572511    3.83536  0.0000E+00  0.1418E-10  0.1663E-13  0.2851E-09  0.0000E+00  0.1458E+15
   -1.615009    3.92147  0.0000E+00  0.9386E-10  0.1138E-12  0.5229E-08  0.0000E+00  0.2936E+14
   -1.657507    4.00770  0.0000E+00  0.4712E-09  0.6872E-12  0.1214E-06  0.0000E+00 -0.3753E+14
   -1.700005    4.05879  0.0000E+00  0.0000E+00  0.0000E+00  0.0000E+00  0.0000E+00  0.0000E+00
