 1 - depth, m
 2 - temperature, C
 3 - salinity, kg/kg
 4 - turbulent kinetic energy, m**2/s**2
 5 - dissipation rate, m**2/s**3
 6 - kinematic heat conductance, m**2/s
 7 - modulus of horizontal velocity, m/s
 8 - Richardson number, n/d
   -0.000000    0.00000  0.0000E+00  0.1186E-11  0.3214E-15  0.1000E-09  0.0000E+00  0.1908E+17
   -0.042496    0.29817  0.0000E+00  0.1980E-11  0.3111E-15  0.1000E-09  0.0000E+00  0.1690E+17
   -0.084993    0.58543  0.0000E+00  0.3585E-11  0.4150E-15  0.1000E-09  0.0000E+00  0.1497E+17
   -0.127490    0.86321  0.0000E+00  0.6307E-11  0.6369E-15  0.1000E-09  0.0000E+00  0.1296E+17
   -0.169988    1.12669  0.0000E+00  0.1077E-10  0.1021E-14  0.1000E-09  0.0000E+00  0.1121E+17
   -0.212486    1.37699  0.0000E+00  0.1805E-10  0.1656E-14  0.1000E-09  0.0000E+00  0.9650E+16
   -0.254984    1.61459  0.0000E+00  0.2997E-10  0.2690E-14  0.1000E-09  0.0000E+00  0.8260E+16
   -0.297482    1.83966  0.0000E+00  0.4950E-10  0.4363E-14  0.1000E-09  0.0000E+00  0.7042E+16
   -0.339981    2.05291  0.0000E+00  0.8077E-10  0.7007E-14  0.1000E-09  0.0000E+00  0.5983E+16
   -0.382480    2.25532  0.0000E+00  0.1309E-09  0.1119E-13  0.1000E-09  0.0000E+00  0.5040E+16
   -0.424979    2.44701  0.0000E+00  0.2105E-09  0.1773E-13  0.1000E-09  0.0000E+00  0.4233E+16
   -0.467479    2.62932  0.0000E+00  0.3364E-09  0.2791E-13  0.1000E-09  0.0000E+00  0.3516E+16
   -0.509978    2.80245  0.0000E+00  0.5356E-09  0.4378E-13  0.1000E-09  0.0000E+00  0.2932E+16
   -0.552478    2.96960  0.0000E+00  0.8508E-09  0.6856E-13  0.1007E-09  0.0000E+00  0.2413E+16
   -0.594978    3.13181  0.0000E+00  0.1349E-08  0.1072E-12  0.1737E-09  0.0000E+00  0.1943E+16
   -0.637478    3.28980  0.0000E+00  0.2156E-08  0.1688E-12  0.3509E-09  0.0000E+00  0.1515E+16
   -0.679978    3.44456  0.0000E+00  0.3461E-08  0.2672E-12  0.7514E-09  0.0000E+00  0.1122E+16
   -0.722479    3.59753  0.0000E+00  0.5585E-08  0.4253E-12  0.1801E-08  0.0000E+00  0.7497E+15
   -0.764979    3.75008  0.0000E+00  0.9048E-08  0.6800E-12  0.5863E-08  0.0000E+00  0.3806E+15
   -0.807479    3.90247  0.0000E+00  0.1379E-07  0.1026E-11  0.2878E-05  0.0000E+00  0.5823E+14
   -0.849980    4.00698  0.0000E+00  0.1416E-07  0.1056E-11  0.7183E-04  0.0000E+00 -0.1047E+12
   -0.892480    4.00731  0.0000E+00  0.1435E-07  0.1073E-11  0.6987E-04  0.0000E+00 -0.1093E+12
   -0.934981    4.00765  0.0000E+00  0.1454E-07  0.1092E-11  0.7034E-04  0.0000E+00 -0.1104E+12
   -0.977481    4.00798  0.0000E+00  0.1471E-07  0.1112E-11  0.7072E-04  0.0000E+00 -0.1117E+12
   -1.019981    4.00831  0.0000E+00  0.1487E-07  0.1133E-11  0.7062E-04  0.0000E+00 -0.1136E+12
   -1.062481    4.00864  0.0000E+00  0.1502E-07  0.1156E-11  0.7049E-04  0.0000E+00 -0.1158E+12
   -1.104982    4.00897  0.0000E+00  0.1515E-07  0.1181E-11  0.7031E-04  0.0000E+00 -0.1179E+12
   -1.147482    4.00930  0.0000E+00  0.1527E-07  0.1207E-11  0.7034E-04  0.0000E+00 -0.1195E+12
   -1.189981    4.00964  0.0000E+00  0.1537E-07  0.1234E-11  0.7465E-04  0.0000E+00 -0.1142E+12
   -1.232481    4.00995  0.0000E+00  0.1546E-07  0.1263E-11  0.7527E-04  0.0000E+00 -0.1160E+12
   -1.274980    4.01027  0.0000E+00  0.1553E-07  0.1299E-11  0.6830E-04  0.0000E+00 -0.1305E+12
   -1.317480    4.01061  0.0000E+00  0.1559E-07  0.1343E-11  0.6635E-04  0.0000E+00 -0.1366E+12
   -1.359979    4.01097  0.0000E+00  0.1565E-07  0.1398E-11  0.6415E-04  0.0000E+00 -0.1438E+12
   -1.402477    4.01134  0.0000E+00  0.1568E-07  0.1470E-11  0.6161E-04  0.0000E+00 -0.1525E+12
   -1.444976    4.01173  0.0000E+00  0.1570E-07  0.1557E-11  0.5886E-04  0.0000E+00 -0.1626E+12
   -1.487474    4.01214  0.0000E+00  0.1570E-07  0.1664E-11  0.5538E-04  0.0000E+00 -0.1768E+12
   -1.529972    4.01258  0.0000E+00  0.1566E-07  0.1827E-11  0.5059E-04  0.0000E+00 -0.2021E+12
   -1.572469    4.01307  0.0000E+00  0.1552E-07  0.2219E-11  0.4123E-04  0.0000E+00 -0.2789E+12
   -1.614967    4.01373  0.0000E+00  0.1481E-07  0.4133E-11  0.1307E-04  0.0000E+00 -0.1027E+13
   -1.657463    4.01604  0.0000E+00  0.1075E-07  0.1714E-10  0.1135E-05  0.0000E+00 -0.1927E+14
   -1.699960    4.04416  0.0000E+00  0.0000E+00  0.0000E+00  0.0000E+00  0.0000E+00  0.0000E+00
