 1 - depth, m
 2 - temperature, C
 3 - salinity, kg/kg
 4 - turbulent kinetic energy, m**2/s**2
 5 - dissipation rate, m**2/s**3
 6 - kinematic heat conductance, m**2/s
 7 - modulus of horizontal velocity, m/s
 8 - Richardson number, n/d
   -0.000000    0.00000  0.0000E+00  0.3189E-13  0.5206E-16  0.1000E-09  0.0000E+00  0.7505E+16
   -0.042497    0.11433  0.0000E+00  0.3189E-13  0.5206E-16  0.1000E-09  0.0000E+00  0.7634E+16
   -0.084995    0.23444  0.0000E+00  0.3189E-13  0.5206E-16  0.1000E-09  0.0000E+00  0.7698E+16
   -0.127494    0.35985  0.0000E+00  0.3189E-13  0.5206E-16  0.1000E-09  0.0000E+00  0.7405E+16
   -0.169992    0.48499  0.0000E+00  0.3189E-13  0.5206E-16  0.1000E-09  0.0000E+00  0.7107E+16
   -0.212491    0.60973  0.0000E+00  0.3189E-13  0.5206E-16  0.1000E-09  0.0000E+00  0.6801E+16
   -0.254990    0.73384  0.0000E+00  0.3189E-13  0.5206E-16  0.1000E-09  0.0000E+00  0.6491E+16
   -0.297490    0.85714  0.0000E+00  0.3189E-13  0.5206E-16  0.1000E-09  0.0000E+00  0.6185E+16
   -0.339990    0.97959  0.0000E+00  0.3189E-13  0.5206E-16  0.1000E-09  0.0000E+00  0.5889E+16
   -0.382490    1.10126  0.0000E+00  0.3189E-13  0.5206E-16  0.1000E-09  0.0000E+00  0.5594E+16
   -0.424990    1.22202  0.0000E+00  0.3189E-13  0.5206E-16  0.1000E-09  0.0000E+00  0.5310E+16
   -0.467491    1.34201  0.0000E+00  0.3189E-13  0.5206E-16  0.1000E-09  0.0000E+00  0.5028E+16
   -0.509991    1.46112  0.0000E+00  0.3189E-13  0.5206E-16  0.1000E-09  0.0000E+00  0.4758E+16
   -0.552492    1.57949  0.0000E+00  0.3189E-13  0.5206E-16  0.1000E-09  0.0000E+00  0.4491E+16
   -0.594993    1.69705  0.0000E+00  0.3189E-13  0.5206E-16  0.1000E-09  0.0000E+00  0.4221E+16
   -0.637494    1.81359  0.0000E+00  0.3189E-13  0.5206E-16  0.1000E-09  0.0000E+00  0.3947E+16
   -0.679996    1.92872  0.0000E+00  0.3189E-13  0.5206E-16  0.1000E-09  0.0000E+00  0.3673E+16
   -0.722497    2.04221  0.0000E+00  0.3189E-13  0.5206E-16  0.1000E-09  0.0000E+00  0.3396E+16
   -0.764999    2.15360  0.0000E+00  0.3189E-13  0.5206E-16  0.1000E-09  0.0000E+00  0.3120E+16
   -0.807500    2.26244  0.0000E+00  0.3189E-13  0.5206E-16  0.1000E-09  0.0000E+00  0.2858E+16
   -0.850001    2.36876  0.0000E+00  0.3189E-13  0.5206E-16  0.1000E-09  0.0000E+00  0.2606E+16
   -0.892503    2.47240  0.0000E+00  0.3189E-13  0.5206E-16  0.1000E-09  0.0000E+00  0.2383E+16
   -0.935004    2.57398  0.0000E+00  0.3189E-13  0.5206E-16  0.1000E-09  0.0000E+00  0.2185E+16
   -0.977506    2.67416  0.0000E+00  0.3189E-13  0.5206E-16  0.1000E-09  0.0000E+00  0.1990E+16
   -1.020007    2.77276  0.0000E+00  0.3189E-13  0.5206E-16  0.1000E-09  0.0000E+00  0.1804E+16
   -1.062508    2.86979  0.0000E+00  0.3189E-13  0.5206E-16  0.1000E-09  0.0000E+00  0.1623E+16
   -1.105010    2.96510  0.0000E+00  0.3189E-13  0.5206E-16  0.1000E-09  0.0000E+00  0.1452E+16
   -1.147511    3.05879  0.0000E+00  0.3189E-13  0.5206E-16  0.1000E-09  0.0000E+00  0.1290E+16
   -1.190012    3.15093  0.0000E+00  0.3189E-13  0.5206E-16  0.1000E-09  0.0000E+00  0.1129E+16
   -1.232512    3.24102  0.0000E+00  0.3189E-13  0.5206E-16  0.1000E-09  0.0000E+00  0.9619E+15
   -1.275013    3.32752  0.0000E+00  0.3189E-13  0.5206E-16  0.1000E-09  0.0000E+00  0.8130E+15
   -1.317513    3.41079  0.0000E+00  0.3189E-13  0.5206E-16  0.1000E-09  0.0000E+00  0.7004E+15
   -1.360013    3.49381  0.0000E+00  0.4562E-13  0.5349E-16  0.1000E-09  0.0000E+00  0.5898E+15
   -1.402513    3.57669  0.0000E+00  0.2033E-12  0.1922E-15  0.1000E-09  0.0000E+00  0.4795E+15
   -1.445013    3.65932  0.0000E+00  0.8615E-12  0.7863E-15  0.1000E-09  0.0000E+00  0.3697E+15
   -1.487512    3.74151  0.0000E+00  0.3591E-11  0.3213E-14  0.1000E-09  0.0000E+00  0.2622E+15
   -1.530011    3.82335  0.0000E+00  0.1648E-10  0.1456E-13  0.2564E-09  0.0000E+00  0.1571E+15
   -1.572509    3.90546  0.0000E+00  0.8641E-10  0.7655E-13  0.3334E-08  0.0000E+00  0.5120E+14
   -1.615008    3.98826  0.0000E+00  0.4682E-09  0.4404E-12  0.1602E-06  0.0000E+00 -0.1440E+14
   -1.657505    4.02929  0.0000E+00  0.8630E-09  0.1328E-11  0.1886E-06  0.0000E+00 -0.3952E+14
   -1.700003    4.06936  0.0000E+00  0.0000E+00  0.0000E+00  0.0000E+00  0.0000E+00  0.0000E+00
