 1 - depth, m
 2 - temperature, C
 3 - salinity, kg/kg
 4 - turbulent kinetic energy, m**2/s**2
 5 - dissipation rate, m**2/s**3
 6 - kinematic heat conductance, m**2/s
 7 - modulus of horizontal velocity, m/s
 8 - Richardson number, n/d
   -0.000000    9.88940  0.0000E+00  0.1080E-04  0.1085E-05  0.1798E-04  0.1431E-01 -0.1332E+01
   -0.042497    9.91330  0.0000E+00  0.7254E-05  0.3020E-06  0.4547E-04  0.6635E-02  0.7037E+03
   -0.084995    9.92295  0.0000E+00  0.5510E-05  0.1291E-06  0.7115E-04  0.4163E-02  0.3703E+02
   -0.127493    9.92951  0.0000E+00  0.4439E-05  0.6545E-07  0.9854E-04  0.2759E-02  0.3043E+02
   -0.169992    9.93434  0.0000E+00  0.3767E-05  0.3728E-07  0.1307E-03  0.1880E-02  0.1012E+03
   -0.212491    9.93794  0.0000E+00  0.3343E-05  0.2332E-07  0.1773E-03  0.1310E-02  0.3707E+03
   -0.254990    9.94048  0.0000E+00  0.3101E-05  0.1616E-07  0.2317E-03  0.9530E-03  0.1786E+03
   -0.297489    9.94225  0.0000E+00  0.2977E-05  0.1235E-07  0.2710E-03  0.7471E-03  0.5665E+02
   -0.339989    9.94357  0.0000E+00  0.2923E-05  0.1021E-07  0.3090E-03  0.6134E-03  0.2664E+02
   -0.382489    9.94463  0.0000E+00  0.2905E-05  0.8860E-08  0.3411E-03  0.5192E-03  0.1624E+02
   -0.424989    9.94555  0.0000E+00  0.2907E-05  0.7907E-08  0.3720E-03  0.4457E-03  0.1668E+02
   -0.467490    9.94638  0.0000E+00  0.2919E-05  0.7197E-08  0.4029E-03  0.3828E-03  0.1815E+02
   -0.509990    9.94713  0.0000E+00  0.2938E-05  0.6653E-08  0.4336E-03  0.3279E-03  0.1742E+02
   -0.552491    9.94782  0.0000E+00  0.2960E-05  0.6227E-08  0.4635E-03  0.2802E-03  0.1830E+02
   -0.594992    9.94846  0.0000E+00  0.2983E-05  0.5890E-08  0.4922E-03  0.2385E-03  0.1947E+02
   -0.637493    9.94905  0.0000E+00  0.3007E-05  0.5620E-08  0.5195E-03  0.2027E-03  0.2111E+02
   -0.679994    9.94960  0.0000E+00  0.3030E-05  0.5402E-08  0.5448E-03  0.1734E-03  0.2406E+02
   -0.722495    9.95012  0.0000E+00  0.3053E-05  0.5226E-08  0.5682E-03  0.1496E-03  0.2798E+02
   -0.764997    9.95061  0.0000E+00  0.3076E-05  0.5082E-08  0.5900E-03  0.1305E-03  0.3331E+02
   -0.807498    9.95108  0.0000E+00  0.3098E-05  0.4962E-08  0.6103E-03  0.1153E-03  0.4075E+02
   -0.849999    9.95153  0.0000E+00  0.3119E-05  0.4863E-08  0.6291E-03  0.1027E-03  0.4924E+02
   -0.892501    9.95197  0.0000E+00  0.3139E-05  0.4780E-08  0.6465E-03  0.9191E-04  0.5862E+02
   -0.935002    9.95239  0.0000E+00  0.3158E-05  0.4712E-08  0.6622E-03  0.8257E-04  0.7047E+02
   -0.977504    9.95279  0.0000E+00  0.3176E-05  0.4658E-08  0.6758E-03  0.7428E-04  0.8208E+02
   -1.020005    9.95319  0.0000E+00  0.3192E-05  0.4617E-08  0.6871E-03  0.6692E-04  0.9647E+02
   -1.062506    9.95359  0.0000E+00  0.3205E-05  0.4591E-08  0.6959E-03  0.6024E-04  0.1100E+03
   -1.105007    9.95398  0.0000E+00  0.3217E-05  0.4577E-08  0.7022E-03  0.5415E-04  0.1257E+03
   -1.147508    9.95436  0.0000E+00  0.3226E-05  0.4577E-08  0.7055E-03  0.4847E-04  0.1431E+03
   -1.190009    9.95475  0.0000E+00  0.3233E-05  0.4590E-08  0.7057E-03  0.4305E-04  0.1593E+03
   -1.232509    9.95514  0.0000E+00  0.3238E-05  0.4620E-08  0.7027E-03  0.3794E-04  0.1803E+03
   -1.275010    9.95553  0.0000E+00  0.3240E-05  0.4668E-08  0.6961E-03  0.3329E-04  0.2233E+03
   -1.317510    9.95592  0.0000E+00  0.3239E-05  0.4741E-08  0.6851E-03  0.2910E-04  0.2830E+03
   -1.360010    9.95633  0.0000E+00  0.3236E-05  0.4848E-08  0.6686E-03  0.2533E-04  0.3635E+03
   -1.402510    9.95674  0.0000E+00  0.3228E-05  0.5004E-08  0.6454E-03  0.2201E-04  0.5046E+03
   -1.445009    9.95717  0.0000E+00  0.3218E-05  0.5210E-08  0.6173E-03  0.1896E-04  0.7123E+03
   -1.487508    9.95762  0.0000E+00  0.3204E-05  0.5483E-08  0.5826E-03  0.1604E-04  0.8479E+03
   -1.530007    9.95809  0.0000E+00  0.3183E-05  0.5926E-08  0.5368E-03  0.1323E-04  0.9677E+03
   -1.572506    9.95862  0.0000E+00  0.3140E-05  0.6904E-08  0.4388E-03  0.1073E-04  0.1750E+04
   -1.615004    9.95926  0.0000E+00  0.3016E-05  0.1017E-07  0.3396E-03  0.8760E-05  0.8090E+04
   -1.657502    9.96009  0.0000E+00  0.2084E-05  0.4208E-07  0.1648E-04  0.7305E-05 -0.2252E+07
   -1.699999    9.97736  0.0000E+00  0.0000E+00  0.0000E+00  0.0000E+00  0.7302E-05  0.0000E+00
