 1 - depth, m
 2 - temperature, C
 3 - salinity, kg/kg
 4 - turbulent kinetic energy, m**2/s**2
 5 - dissipation rate, m**2/s**3
 6 - kinematic heat conductance, m**2/s
 7 - modulus of horizontal velocity, m/s
 8 - Richardson number, n/d
   -0.000000   12.40714  0.0000E+00  0.4460E-03  0.7047E-03  0.1057E-03  0.2444E+00  0.2391E-01
   -0.042498   12.49595  0.0000E+00  0.2267E-03  0.2282E-03  0.2078E-03  0.5442E-01 -0.2362E-01
   -0.084996   12.51217  0.0000E+00  0.1568E-03  0.1061E-03  0.1719E-03  0.3413E-01  0.1083E+00
   -0.127495   12.52553  0.0000E+00  0.1163E-03  0.5416E-04  0.1559E-03  0.2687E-01 -0.1033E+00
   -0.169993   12.53597  0.0000E+00  0.8675E-04  0.2617E-04  0.1479E-03  0.2172E-01  0.2432E+00
   -0.212493   12.54498  0.0000E+00  0.6541E-04  0.1279E-04  0.1493E-03  0.1745E-01  0.5306E+02
   -0.254992   12.55369  0.0000E+00  0.4969E-04  0.5836E-05  0.1584E-03  0.1411E-01  0.2534E+02
   -0.297492   12.56141  0.0000E+00  0.3891E-04  0.2871E-05  0.1709E-03  0.1166E-01  0.1414E+04
   -0.339992   12.56785  0.0000E+00  0.3146E-04  0.1532E-05  0.1843E-03  0.9776E-02  0.9268E+01
   -0.382493   12.57324  0.0000E+00  0.2618E-04  0.8940E-06  0.2028E-03  0.8195E-02  0.3711E+02
   -0.424993   12.57794  0.0000E+00  0.2242E-04  0.5771E-06  0.2231E-03  0.6979E-02  0.1636E+02
   -0.467494   12.58184  0.0000E+00  0.1961E-04  0.3990E-06  0.2512E-03  0.5932E-02  0.1876E+03
   -0.509995   12.58535  0.0000E+00  0.1746E-04  0.2915E-06  0.2901E-03  0.5041E-02  0.3326E+02
   -0.552496   12.58824  0.0000E+00  0.1574E-04  0.2208E-06  0.3389E-03  0.4282E-02  0.4284E+02
   -0.594998   12.59073  0.0000E+00  0.1435E-04  0.1719E-06  0.3911E-03  0.3619E-02  0.1108E+03
   -0.637499   12.59278  0.0000E+00  0.1316E-04  0.1362E-06  0.4381E-03  0.3048E-02  0.2345E+02
   -0.680001   12.59451  0.0000E+00  0.1215E-04  0.1096E-06  0.4796E-03  0.2569E-02  0.3292E+03
   -0.722503   12.59602  0.0000E+00  0.1128E-04  0.8931E-07  0.5177E-03  0.2164E-02  0.1168E+02
   -0.765004   12.59738  0.0000E+00  0.1052E-04  0.7360E-07  0.5574E-03  0.1830E-02  0.1540E+02
   -0.807506   12.59860  0.0000E+00  0.9871E-05  0.6131E-07  0.5924E-03  0.1562E-02  0.4338E+02
   -0.850008   12.59971  0.0000E+00  0.9324E-05  0.5189E-07  0.6247E-03  0.1341E-02  0.8475E+02
   -0.892510   12.60073  0.0000E+00  0.8853E-05  0.4444E-07  0.6513E-03  0.1157E-02  0.9838E+02
   -0.935012   12.60170  0.0000E+00  0.8453E-05  0.3861E-07  0.6715E-03  0.1004E-02  0.3833E+01
   -0.977513   12.60261  0.0000E+00  0.8106E-05  0.3396E-07  0.6886E-03  0.8718E-03  0.2337E+01
   -1.020015   12.60349  0.0000E+00  0.7805E-05  0.3027E-07  0.7014E-03  0.7587E-03 -0.9909E+00
   -1.062517   12.60434  0.0000E+00  0.7541E-05  0.2736E-07  0.7110E-03  0.6597E-03  0.2593E+01
   -1.105018   12.60517  0.0000E+00  0.7307E-05  0.2507E-07  0.7156E-03  0.5724E-03 -0.3631E+00
   -1.147519   12.60597  0.0000E+00  0.7101E-05  0.2334E-07  0.7157E-03  0.4931E-03  0.2229E+01
   -1.190021   12.60677  0.0000E+00  0.6919E-05  0.2210E-07  0.7106E-03  0.4186E-03  0.5830E+00
   -1.232522   12.60755  0.0000E+00  0.6752E-05  0.2125E-07  0.7007E-03  0.3506E-03 -0.1043E+01
   -1.275023   12.60833  0.0000E+00  0.6598E-05  0.2075E-07  0.6837E-03  0.2938E-03 -0.1026E+02
   -1.317523   12.60912  0.0000E+00  0.6455E-05  0.2060E-07  0.6612E-03  0.2479E-03 -0.1018E+01
   -1.360024   12.60993  0.0000E+00  0.6314E-05  0.2083E-07  0.6291E-03  0.2112E-03 -0.9714E+00
   -1.402524   12.61078  0.0000E+00  0.6162E-05  0.2159E-07  0.6015E-03  0.1817E-03  0.1005E+02
   -1.445024   12.61167  0.0000E+00  0.5999E-05  0.2328E-07  0.5458E-03  0.1563E-03  0.1753E+02
   -1.487523   12.61274  0.0000E+00  0.5812E-05  0.2632E-07  0.5178E-03  0.1289E-03  0.1899E+02
   -1.530022   12.61386  0.0000E+00  0.5562E-05  0.3304E-07  0.4219E-03  0.1029E-03 -0.1222E+03
   -1.572521   12.61595  0.0000E+00  0.5175E-05  0.4929E-07  0.4364E-03  0.7325E-04  0.6892E+05
   -1.615020   12.61665  0.0000E+00  0.4297E-05  0.1215E-06  0.1932E-03  0.5878E-04 -0.5608E+06
   -1.657518   12.62563  0.0000E+00  0.2802E-05  0.3326E-06  0.8551E-04  0.3623E-04 -0.2291E+06
   -1.700016   12.63238  0.0000E+00  0.0000E+00  0.0000E+00  0.0000E+00  0.5400E-04  0.0000E+00
