 1 - depth, m
 2 - temperature, C
 3 - salinity, kg/kg
 4 - turbulent kinetic energy, m**2/s**2
 5 - dissipation rate, m**2/s**3
 6 - kinematic heat conductance, m**2/s
 7 - modulus of horizontal velocity, m/s
 8 - Richardson number, n/d
   -0.000000    9.19929  0.0000E+00  0.5679E-04  0.1337E-04  0.4229E-04  0.5681E-01 -0.2811E-01
   -0.042497    9.23278  0.0000E+00  0.3037E-04  0.3438E-05  0.4480E-04  0.1956E-01 -0.2644E+00
   -0.084995    9.24197  0.0000E+00  0.2044E-04  0.1300E-05  0.4746E-04  0.1330E-01 -0.2080E-01
   -0.127494    9.24895  0.0000E+00  0.1421E-04  0.5642E-06  0.5076E-04  0.9562E-02 -0.3274E-01
   -0.169992    9.25520  0.0000E+00  0.1010E-04  0.2669E-06  0.5300E-04  0.6893E-02  0.1759E+02
   -0.212491    9.26105  0.0000E+00  0.7287E-05  0.1332E-06  0.5536E-04  0.4887E-02  0.8187E+02
   -0.254990    9.26649  0.0000E+00  0.5402E-05  0.7002E-07  0.5997E-04  0.3427E-02 -0.1515E+00
   -0.297490    9.27131  0.0000E+00  0.4224E-05  0.3938E-07  0.6934E-04  0.2421E-02 -0.1042E+00
   -0.339990    9.27536  0.0000E+00  0.3541E-05  0.2416E-07  0.9001E-04  0.1734E-02  0.2121E+01
   -0.382490    9.27855  0.0000E+00  0.3165E-05  0.1632E-07  0.1437E-03  0.1258E-02  0.2332E+03
   -0.424990    9.28067  0.0000E+00  0.2990E-05  0.1251E-07  0.2339E-03  0.9583E-03  0.4664E+03
   -0.467491    9.28198  0.0000E+00  0.2912E-05  0.1047E-07  0.2690E-03  0.7851E-03  0.2537E+02
   -0.509991    9.28307  0.0000E+00  0.2879E-05  0.9126E-08  0.2980E-03  0.6530E-03  0.9908E+01
   -0.552492    9.28406  0.0000E+00  0.2870E-05  0.8163E-08  0.3275E-03  0.5427E-03  0.2502E+01
   -0.594993    9.28498  0.0000E+00  0.2877E-05  0.7443E-08  0.3573E-03  0.4486E-03  0.1297E+01
   -0.637494    9.28585  0.0000E+00  0.2892E-05  0.6890E-08  0.3876E-03  0.3694E-03  0.1228E+01
   -0.679996    9.28664  0.0000E+00  0.2913E-05  0.6467E-08  0.4168E-03  0.3064E-03  0.1172E+01
   -0.722497    9.28738  0.0000E+00  0.2936E-05  0.6147E-08  0.4438E-03  0.2572E-03  0.1128E+01
   -0.764998    9.28806  0.0000E+00  0.2963E-05  0.5902E-08  0.4680E-03  0.2197E-03  0.1172E+01
   -0.807500    9.28869  0.0000E+00  0.2992E-05  0.5712E-08  0.4905E-03  0.1912E-03  0.1376E+01
   -0.850001    9.28929  0.0000E+00  0.3024E-05  0.5567E-08  0.5122E-03  0.1681E-03  0.1670E+01
   -0.892503    9.28986  0.0000E+00  0.3058E-05  0.5456E-08  0.5330E-03  0.1487E-03  0.2023E+01
   -0.935004    9.29042  0.0000E+00  0.3094E-05  0.5378E-08  0.5521E-03  0.1322E-03  0.2488E+01
   -0.977506    9.29097  0.0000E+00  0.3131E-05  0.5330E-08  0.5690E-03  0.1178E-03  0.2973E+01
   -1.020007    9.29152  0.0000E+00  0.3168E-05  0.5307E-08  0.5836E-03  0.1052E-03  0.3599E+01
   -1.062508    9.29208  0.0000E+00  0.3204E-05  0.5310E-08  0.5954E-03  0.9396E-04  0.4231E+01
   -1.105010    9.29266  0.0000E+00  0.3239E-05  0.5335E-08  0.6042E-03  0.8382E-04  0.5001E+01
   -1.147511    9.29325  0.0000E+00  0.3270E-05  0.5380E-08  0.6096E-03  0.7444E-04  0.5888E+01
   -1.190012    9.29388  0.0000E+00  0.3297E-05  0.5445E-08  0.6115E-03  0.6553E-04  0.6794E+01
   -1.232512    9.29453  0.0000E+00  0.3321E-05  0.5532E-08  0.6100E-03  0.5717E-04  0.7975E+01
   -1.275013    9.29521  0.0000E+00  0.3340E-05  0.5649E-08  0.6043E-03  0.4965E-04  0.1034E+02
   -1.317513    9.29591  0.0000E+00  0.3355E-05  0.5804E-08  0.5938E-03  0.4293E-04  0.1380E+02
   -1.360013    9.29663  0.0000E+00  0.3366E-05  0.6014E-08  0.5772E-03  0.3696E-04  0.1884E+02
   -1.402513    9.29739  0.0000E+00  0.3371E-05  0.6307E-08  0.5531E-03  0.3175E-04  0.2805E+02
   -1.445013    9.29821  0.0000E+00  0.3369E-05  0.6680E-08  0.5228E-03  0.2700E-04  0.4291E+02
   -1.487512    9.29911  0.0000E+00  0.3359E-05  0.7169E-08  0.4885E-03  0.2244E-04  0.5555E+02
   -1.530011    9.30012  0.0000E+00  0.3333E-05  0.7960E-08  0.4256E-03  0.1806E-04  0.7137E+02
   -1.572509    9.30131  0.0000E+00  0.3272E-05  0.9723E-08  0.4206E-03  0.1404E-04  0.1104E+03
   -1.615008    9.30251  0.0000E+00  0.3027E-05  0.1832E-07  0.1986E-03  0.1150E-04 -0.1523E+07
   -1.657505    9.30777  0.0000E+00  0.1993E-05  0.6338E-07  0.3707E-04  0.7774E-05 -0.8158E+05
   -1.700003    9.32411  0.0000E+00  0.0000E+00  0.0000E+00  0.0000E+00  0.8532E-05  0.0000E+00
