 1 - depth, m
 2 - temperature, C
 3 - salinity, kg/kg
 4 - turbulent kinetic energy, m**2/s**2
 5 - dissipation rate, m**2/s**3
 6 - kinematic heat conductance, m**2/s
 7 - modulus of horizontal velocity, m/s
 8 - Richardson number, n/d
   -0.000000    0.00000  0.0000E+00  0.3445E-03  0.5683E-03  0.1117E-03  0.2425E+00  0.1383E-02
   -0.042495    0.00483  0.0000E+00  0.1876E-03  0.2171E-03  0.1551E-03  0.6032E-01  0.7811E-02
   -0.084991    0.00814  0.0000E+00  0.1265E-03  0.8622E-04  0.1340E-03  0.3643E-01  0.1533E-01
   -0.127487    0.01096  0.0000E+00  0.9377E-04  0.4065E-04  0.1243E-03  0.2829E-01  0.1174E-01
   -0.169983    0.01329  0.0000E+00  0.7089E-04  0.1890E-04  0.1186E-03  0.2267E-01  0.1053E-01
   -0.212480    0.01567  0.0000E+00  0.5381E-04  0.8756E-05  0.1152E-03  0.1799E-01  0.3594E-01
   -0.254977    0.01815  0.0000E+00  0.4132E-04  0.4102E-05  0.1137E-03  0.1435E-01  0.3497E+00
   -0.297474    0.02059  0.0000E+00  0.3254E-04  0.2075E-05  0.1120E-03  0.1186E-01  0.5465E+01
   -0.339972    0.02280  0.0000E+00  0.2623E-04  0.1156E-05  0.1097E-03  0.1008E-01  0.4851E+01
   -0.382470    0.02488  0.0000E+00  0.2155E-04  0.6954E-06  0.1084E-03  0.8561E-02  0.7396E+02
   -0.424968    0.02679  0.0000E+00  0.1805E-04  0.4506E-06  0.1054E-03  0.7380E-02  0.7031E+01
   -0.467466    0.02876  0.0000E+00  0.1531E-04  0.3094E-06  0.1021E-03  0.6269E-02  0.1977E+02
   -0.509964    0.03083  0.0000E+00  0.1310E-04  0.2219E-06  0.9842E-04  0.5264E-02  0.6101E+02
   -0.552463    0.03295  0.0000E+00  0.1123E-04  0.1637E-06  0.9349E-04  0.4370E-02  0.2885E+03
   -0.594962    0.03526  0.0000E+00  0.9607E-05  0.1227E-06  0.8833E-04  0.3556E-02  0.4207E+04
   -0.637461    0.03780  0.0000E+00  0.8146E-05  0.9221E-07  0.8371E-04  0.2845E-02  0.9590E+05
   -0.679960    0.04025  0.0000E+00  0.6857E-05  0.6938E-07  0.7756E-04  0.2266E-02  0.5966E+07
   -0.722459    0.04295  0.0000E+00  0.5721E-05  0.5207E-07  0.7132E-04  0.1790E-02  0.2634E+09
   -0.764958    0.04563  0.0000E+00  0.4735E-05  0.3894E-07  0.6504E-04  0.1415E-02 -0.4293E+10
   -0.807457    0.04801  0.0000E+00  0.3883E-05  0.2897E-07  0.5704E-04  0.1134E-02 -0.3138E+11
   -0.849956    0.05078  0.0000E+00  0.3160E-05  0.2150E-07  0.4887E-04  0.9114E-03  0.3541E+12
   -0.892456    0.05428  0.0000E+00  0.2544E-05  0.1586E-07  0.4109E-04  0.7328E-03 -0.4564E+12
   -0.934955    0.05853  0.0000E+00  0.2027E-05  0.1165E-07  0.3281E-04  0.5927E-03  0.5398E+13
   -0.977454    0.06420  0.0000E+00  0.1594E-05  0.8496E-08  0.2563E-04  0.4762E-03  0.4604E+13
   -1.019953    0.06880  0.0000E+00  0.1227E-05  0.6127E-08  0.1849E-04  0.3860E-03  0.1935E+14
   -1.062452    0.07672  0.0000E+00  0.9185E-06  0.4348E-08  0.1242E-04  0.3096E-03  0.5148E+14
   -1.104951    0.09096  0.0000E+00  0.6551E-06  0.2999E-08  0.6918E-05  0.2508E-03  0.2155E+15
   -1.147450    0.12912  0.0000E+00  0.4251E-06  0.1937E-08  0.2590E-05  0.1972E-03  0.3620E+15
   -1.189949    0.23358  0.0000E+00  0.2171E-06  0.1016E-08  0.2980E-06  0.1265E-03  0.9205E+15
   -1.232447    0.48062  0.0000E+00  0.5521E-07  0.2659E-09  0.2865E-07  0.3760E-04  0.1723E+16
   -1.274945    0.88772  0.0000E+00  0.7443E-08  0.3715E-10  0.5044E-08  0.4588E-05  0.2353E+16
   -1.317443    1.29385  0.0000E+00  0.7483E-09  0.3855E-11  0.7974E-09  0.3537E-06  0.3658E+16
   -1.359941    1.69769  0.0000E+00  0.6644E-10  0.3413E-12  0.1702E-09  0.1978E-07  0.5518E+16
   -1.402439    2.08115  0.0000E+00  0.1608E-10  0.3856E-13  0.1024E-09  0.1216E-08  0.7164E+16
   -1.444936    2.46589  0.0000E+00  0.5347E-10  0.5640E-13  0.1000E-09  0.9235E-10  0.7102E+16
   -1.487433    2.88572  0.0000E+00  0.2438E-09  0.2395E-12  0.2019E-09  0.5043E-11  0.6039E+16
   -1.529930    3.35011  0.0000E+00  0.1213E-08  0.1149E-11  0.3666E-08  0.1351E-12  0.2940E+16
   -1.572426    3.82126  0.0000E+00  0.4624E-08  0.4415E-11  0.2085E-05  0.2332E-14  0.5334E+15
   -1.614922    4.01011  0.0000E+00  0.8004E-08  0.9624E-11  0.2713E-05  0.5559E-16  0.4524E+14
   -1.657418    4.07279  0.0000E+00  0.7430E-08  0.1801E-10  0.8453E-06  0.1625E-17 -0.6421E+14
   -1.699913    4.10955  0.0000E+00  0.0000E+00  0.0000E+00  0.0000E+00  0.1628E-17  0.0000E+00
