 1 - depth, m
 2 - temperature, C
 3 - salinity, kg/kg
 4 - turbulent kinetic energy, m**2/s**2
 5 - dissipation rate, m**2/s**3
 6 - kinematic heat conductance, m**2/s
 7 - modulus of horizontal velocity, m/s
 8 - Richardson number, n/d
   -0.000000   17.09260  0.0000E+00  0.1602E-03  0.3116E-02  0.5640E-04  0.9241E-01 -0.8196E-02
   -0.042497   17.14950  0.0000E+00  0.9419E-04  0.2010E-02  0.1042E-03  0.2493E-01 -0.4818E-01
   -0.084995   17.16166  0.0000E+00  0.6989E-04  0.1418E-02  0.1034E-03  0.1692E-01 -0.5426E+00
   -0.127493   17.16987  0.0000E+00  0.5454E-04  0.9644E-03  0.1050E-03  0.1300E-01 -0.1017E+00
   -0.169991   17.17627  0.0000E+00  0.4290E-04  0.6360E-03  0.1117E-03  0.1021E-01 -0.7018E+00
   -0.212490   17.18156  0.0000E+00  0.3391E-04  0.4094E-03  0.1340E-03  0.8070E-02  0.1042E+04
   -0.254989   17.18583  0.0000E+00  0.2698E-04  0.2582E-03  0.1708E-03  0.6477E-02  0.2604E+02
   -0.297488   17.18924  0.0000E+00  0.2177E-04  0.1591E-03  0.2181E-03  0.5331E-02  0.7965E+02
   -0.339988   17.19195  0.0000E+00  0.1785E-04  0.9479E-04  0.2629E-03  0.4470E-02  0.5430E+02
   -0.382488   17.19423  0.0000E+00  0.1484E-04  0.5206E-04  0.3078E-03  0.3765E-02  0.7942E+02
   -0.424988   17.19609  0.0000E+00  0.1254E-04  0.2521E-04  0.3519E-03  0.3225E-02  0.2265E+02
   -0.467488   17.19771  0.0000E+00  0.1080E-04  0.1007E-04  0.3988E-03  0.2745E-02  0.2040E+02
   -0.509989   17.19911  0.0000E+00  0.9583E-05  0.3070E-05  0.4504E-03  0.2316E-02  0.3788E+02
   -0.552489   17.20065  0.0000E+00  0.8830E-05  0.8056E-06  0.5034E-03  0.1930E-02  0.4416E+01
   -0.594990   17.20175  0.0000E+00  0.8349E-05  0.2025E-06  0.5536E-03  0.1595E-02  0.5287E+01
   -0.637491   17.20273  0.0000E+00  0.8024E-05  0.6836E-07  0.6081E-03  0.1312E-02  0.2093E+02
   -0.679992   17.20354  0.0000E+00  0.7789E-05  0.4086E-07  0.6607E-03  0.1083E-02  0.6986E+01
   -0.722493   17.20428  0.0000E+00  0.7612E-05  0.3266E-07  0.7107E-03  0.8950E-03  0.9452E+01
   -0.764995   17.20494  0.0000E+00  0.7477E-05  0.2823E-07  0.7561E-03  0.7469E-03  0.1408E+01
   -0.807496   17.20554  0.0000E+00  0.7372E-05  0.2521E-07  0.7942E-03  0.6328E-03  0.4280E+01
   -0.849997   17.20609  0.0000E+00  0.7293E-05  0.2299E-07  0.8260E-03  0.5423E-03  0.1354E+01
   -0.892498   17.20662  0.0000E+00  0.7232E-05  0.2133E-07  0.8515E-03  0.4695E-03  0.1202E+01
   -0.935000   17.20713  0.0000E+00  0.7186E-05  0.2009E-07  0.8703E-03  0.4107E-03  0.1107E+01
   -0.977501   17.20763  0.0000E+00  0.7151E-05  0.1919E-07  0.8843E-03  0.3614E-03  0.1100E+01
   -1.020002   17.20812  0.0000E+00  0.7123E-05  0.1854E-07  0.8927E-03  0.3204E-03  0.1133E+01
   -1.062503   17.20861  0.0000E+00  0.7100E-05  0.1810E-07  0.8967E-03  0.2850E-03  0.1206E+01
   -1.105004   17.20911  0.0000E+00  0.7079E-05  0.1783E-07  0.8958E-03  0.2542E-03  0.1330E+01
   -1.147505   17.20962  0.0000E+00  0.7059E-05  0.1773E-07  0.8899E-03  0.2261E-03  0.1493E+01
   -1.190006   17.21015  0.0000E+00  0.7037E-05  0.1776E-07  0.8784E-03  0.1999E-03  0.1644E+01
   -1.232506   17.21070  0.0000E+00  0.7012E-05  0.1794E-07  0.8609E-03  0.1757E-03  0.1846E+01
   -1.275006   17.21127  0.0000E+00  0.6980E-05  0.1829E-07  0.8369E-03  0.1546E-03  0.2285E+01
   -1.317506   17.21187  0.0000E+00  0.6940E-05  0.1884E-07  0.8062E-03  0.1363E-03  0.2983E+01
   -1.360006   17.21250  0.0000E+00  0.6886E-05  0.1971E-07  0.7621E-03  0.1202E-03  0.4069E+01
   -1.402506   17.21317  0.0000E+00  0.6812E-05  0.2109E-07  0.7166E-03  0.1057E-03  0.1819E+01
   -1.445005   17.21391  0.0000E+00  0.6718E-05  0.2317E-07  0.6417E-03  0.9215E-04  0.1169E+02
   -1.487504   17.21480  0.0000E+00  0.6600E-05  0.2630E-07  0.6058E-03  0.7759E-04  0.1577E+02
   -1.530003   17.21578  0.0000E+00  0.6419E-05  0.3266E-07  0.4749E-03  0.6366E-04 -0.5610E+03
   -1.572501   17.21754  0.0000E+00  0.6107E-05  0.4760E-07  0.5406E-03  0.4766E-04  0.3364E+05
   -1.614999   17.21832  0.0000E+00  0.5206E-05  0.1143E-06  0.2093E-03  0.3955E-04 -0.3541E+06
   -1.657497   17.22732  0.0000E+00  0.3437E-05  0.3296E-06  0.9036E-04  0.2482E-04 -0.1271E+06
   -1.699994   17.23430  0.0000E+00  0.0000E+00  0.0000E+00  0.0000E+00  0.3323E-04  0.0000E+00
