 1 - depth, m
 2 - temperature, C
 3 - salinity, kg/kg
 4 - turbulent kinetic energy, m**2/s**2
 5 - dissipation rate, m**2/s**3
 6 - kinematic heat conductance, m**2/s
 7 - modulus of horizontal velocity, m/s
 8 - Richardson number, n/d
   -0.000000    7.01204  0.0000E+00  0.2430E-03  0.4541E-03  0.5199E-04  0.1217E+00 -0.1145E+01
   -0.042497    7.09123  0.0000E+00  0.1248E-03  0.2475E-03  0.1439E-03  0.2795E-01 -0.1063E+01
   -0.084995    7.10698  0.0000E+00  0.9007E-04  0.1873E-03  0.1314E-03  0.1814E-01  0.7303E+02
   -0.127493    7.11723  0.0000E+00  0.6560E-04  0.3666E-04  0.1305E-03  0.1423E-01  0.3824E+02
   -0.169991    7.12487  0.0000E+00  0.4956E-04  0.9096E-05  0.1341E-03  0.1148E-01  0.8618E+03
   -0.212490    7.13118  0.0000E+00  0.3815E-04  0.4777E-05  0.1407E-03  0.9351E-02  0.4502E+03
   -0.254989    7.13669  0.0000E+00  0.2943E-04  0.2569E-05  0.1510E-03  0.7694E-02  0.1319E+03
   -0.297489    7.14160  0.0000E+00  0.2306E-04  0.1431E-05  0.1639E-03  0.6430E-02  0.1809E+03
   -0.339988    7.14611  0.0000E+00  0.1856E-04  0.8528E-06  0.1796E-03  0.5403E-02  0.6876E+02
   -0.382488    7.15020  0.0000E+00  0.1524E-04  0.5343E-06  0.2001E-03  0.4531E-02  0.5127E+02
   -0.424988    7.15381  0.0000E+00  0.1282E-04  0.3526E-06  0.2258E-03  0.3841E-02  0.1235E+03
   -0.467489    7.15700  0.0000E+00  0.1102E-04  0.2438E-06  0.2466E-03  0.3243E-02  0.6831E+02
   -0.509989    7.15985  0.0000E+00  0.9629E-05  0.1745E-06  0.2685E-03  0.2726E-02  0.5275E+02
   -0.552490    7.16244  0.0000E+00  0.8530E-05  0.1285E-06  0.2931E-03  0.2277E-02  0.8285E+02
   -0.594991    7.16477  0.0000E+00  0.7645E-05  0.9696E-07  0.3190E-03  0.1887E-02  0.4743E+02
   -0.637492    7.16687  0.0000E+00  0.6907E-05  0.7447E-07  0.3451E-03  0.1555E-02  0.4079E+02
   -0.679993    7.16876  0.0000E+00  0.6293E-05  0.5811E-07  0.3732E-03  0.1284E-02  0.7796E+02
   -0.722494    7.17045  0.0000E+00  0.5780E-05  0.4597E-07  0.4044E-03  0.1063E-02  0.7970E+02
   -0.764995    7.17194  0.0000E+00  0.5353E-05  0.3681E-07  0.4326E-03  0.8884E-03  0.7498E+02
   -0.807497    7.17327  0.0000E+00  0.4998E-05  0.2981E-07  0.4593E-03  0.7522E-03  0.9078E+02
   -0.849998    7.17448  0.0000E+00  0.4707E-05  0.2447E-07  0.4841E-03  0.6422E-03  0.1075E+03
   -0.892499    7.17561  0.0000E+00  0.4468E-05  0.2035E-07  0.5068E-03  0.5518E-03  0.3352E+03
   -0.935001    7.17665  0.0000E+00  0.4275E-05  0.1721E-07  0.5258E-03  0.4776E-03  0.1652E+03
   -0.977502    7.17765  0.0000E+00  0.4119E-05  0.1480E-07  0.5418E-03  0.4144E-03  0.1950E+03
   -1.020003    7.17862  0.0000E+00  0.3993E-05  0.1294E-07  0.5558E-03  0.3609E-03  0.3814E+03
   -1.062504    7.17957  0.0000E+00  0.3890E-05  0.1151E-07  0.5674E-03  0.3141E-03  0.2800E+03
   -1.105005    7.18052  0.0000E+00  0.3806E-05  0.1041E-07  0.5763E-03  0.2729E-03  0.3376E+03
   -1.147506    7.18147  0.0000E+00  0.3738E-05  0.9586E-08  0.5824E-03  0.2352E-03  0.3944E+03
   -1.190007    7.18244  0.0000E+00  0.3683E-05  0.8987E-08  0.5852E-03  0.1998E-03  0.4557E+03
   -1.232507    7.18343  0.0000E+00  0.3635E-05  0.8552E-08  0.5853E-03  0.1671E-03  0.5355E+03
   -1.275007    7.18443  0.0000E+00  0.3593E-05  0.8251E-08  0.5816E-03  0.1394E-03  0.6911E+03
   -1.317508    7.18546  0.0000E+00  0.3555E-05  0.8076E-08  0.5735E-03  0.1162E-03  0.9153E+03
   -1.360008    7.18650  0.0000E+00  0.3519E-05  0.8022E-08  0.5593E-03  0.9728E-04  0.1232E+04
   -1.402507    7.18759  0.0000E+00  0.3482E-05  0.8101E-08  0.5393E-03  0.8196E-04  0.1799E+04
   -1.445007    7.18873  0.0000E+00  0.3445E-05  0.8355E-08  0.5122E-03  0.6894E-04  0.2671E+04
   -1.487506    7.18999  0.0000E+00  0.3405E-05  0.8843E-08  0.4822E-03  0.5645E-04  0.3331E+04
   -1.530004    7.19137  0.0000E+00  0.3349E-05  0.9882E-08  0.4317E-03  0.4471E-04  0.4493E+04
   -1.572503    7.19300  0.0000E+00  0.3253E-05  0.1237E-07  0.3870E-03  0.3341E-04  0.7432E+04
   -1.615001    7.19471  0.0000E+00  0.2972E-05  0.2325E-07  0.2377E-03  0.2668E-04 -0.1812E+06
   -1.657499    7.20008  0.0000E+00  0.1982E-05  0.7352E-07  0.3182E-04  0.1782E-04 -0.1077E+08
   -1.699996    7.23067  0.0000E+00  0.0000E+00  0.0000E+00  0.0000E+00  0.2210E-04  0.0000E+00
