 1 - depth, m
 2 - temperature, C
 3 - salinity, kg/kg
 4 - turbulent kinetic energy, m**2/s**2
 5 - dissipation rate, m**2/s**3
 6 - kinematic heat conductance, m**2/s
 7 - modulus of horizontal velocity, m/s
 8 - Richardson number, n/d
   -0.000000    6.38933  0.0000E+00  0.3301E-03  0.2822E-03  0.7976E-04  0.1967E+00 -0.6050E-03
   -0.042498    6.49668  0.0000E+00  0.1727E-03  0.8449E-04  0.1790E-03  0.4448E-01 -0.1817E-01
   -0.084996    6.51433  0.0000E+00  0.1212E-03  0.4014E-04  0.1487E-03  0.2895E-01 -0.6852E-01
   -0.127494    6.52945  0.0000E+00  0.9020E-04  0.1978E-04  0.1338E-03  0.2289E-01 -0.4768E-01
   -0.169993    6.54220  0.0000E+00  0.6801E-04  0.1046E-04  0.1255E-03  0.1855E-01 -0.5521E-01
   -0.212492    6.55381  0.0000E+00  0.5135E-04  0.5534E-05  0.1217E-03  0.1500E-01 -0.1301E+00
   -0.254991    6.56512  0.0000E+00  0.3911E-04  0.2980E-05  0.1218E-03  0.1215E-01  0.9554E+00
   -0.297491    6.57627  0.0000E+00  0.3033E-04  0.1671E-05  0.1247E-03  0.9995E-02  0.5094E+02
   -0.339991    6.58611  0.0000E+00  0.2416E-04  0.9937E-06  0.1297E-03  0.8325E-02  0.3223E+02
   -0.382491    6.59464  0.0000E+00  0.1964E-04  0.6220E-06  0.1380E-03  0.6937E-02  0.1979E+02
   -0.424992    6.60214  0.0000E+00  0.1634E-04  0.4094E-06  0.1476E-03  0.5850E-02  0.2554E+01
   -0.467492    6.60863  0.0000E+00  0.1386E-04  0.2806E-06  0.1608E-03  0.4900E-02  0.2109E+02
   -0.509993    6.61445  0.0000E+00  0.1192E-04  0.1978E-06  0.1797E-03  0.4070E-02  0.1480E+02
   -0.552494    6.61956  0.0000E+00  0.1037E-04  0.1427E-06  0.2031E-03  0.3353E-02  0.9155E+01
   -0.594996    6.62407  0.0000E+00  0.9115E-05  0.1051E-06  0.2298E-03  0.2731E-02  0.1901E+02
   -0.637497    6.62804  0.0000E+00  0.8066E-05  0.7845E-07  0.2601E-03  0.2204E-02  0.2364E+02
   -0.679998    6.63154  0.0000E+00  0.7200E-05  0.5959E-07  0.2888E-03  0.1779E-02  0.6930E+01
   -0.722500    6.63466  0.0000E+00  0.6483E-05  0.4594E-07  0.3185E-03  0.1436E-02  0.1141E+02
   -0.765002    6.63745  0.0000E+00  0.5889E-05  0.3594E-07  0.3480E-03  0.1167E-02  0.1315E+02
   -0.807503    6.63997  0.0000E+00  0.5401E-05  0.2857E-07  0.3772E-03  0.9617E-03  0.4454E+02
   -0.850005    6.64222  0.0000E+00  0.5009E-05  0.2318E-07  0.4024E-03  0.8010E-03  0.1626E+02
   -0.892506    6.64427  0.0000E+00  0.4689E-05  0.1916E-07  0.4238E-03  0.6733E-03  0.1273E+02
   -0.935008    6.64615  0.0000E+00  0.4430E-05  0.1616E-07  0.4420E-03  0.5712E-03  0.2490E+02
   -0.977510    6.64789  0.0000E+00  0.4219E-05  0.1391E-07  0.4592E-03  0.4867E-03  0.3493E+02
   -1.020011    6.64949  0.0000E+00  0.4046E-05  0.1220E-07  0.4736E-03  0.4177E-03  0.3913E+01
   -1.062513    6.65099  0.0000E+00  0.3904E-05  0.1090E-07  0.4858E-03  0.3593E-03  0.3076E+01
   -1.105014    6.65239  0.0000E+00  0.3785E-05  0.9887E-08  0.4958E-03  0.3095E-03  0.6835E+01
   -1.147515    6.65370  0.0000E+00  0.3687E-05  0.9116E-08  0.5038E-03  0.2652E-03  0.6835E+01
   -1.190016    6.65494  0.0000E+00  0.3605E-05  0.8537E-08  0.5089E-03  0.2246E-03  0.3481E+01
   -1.232517    6.65610  0.0000E+00  0.3535E-05  0.8094E-08  0.5120E-03  0.1878E-03  0.4077E+01
   -1.275018    6.65722  0.0000E+00  0.3473E-05  0.7760E-08  0.5126E-03  0.1570E-03  0.5187E+01
   -1.317518    6.65831  0.0000E+00  0.3417E-05  0.7517E-08  0.5100E-03  0.1315E-03  0.6466E+01
   -1.360019    6.65937  0.0000E+00  0.3364E-05  0.7355E-08  0.5034E-03  0.1103E-03  0.7797E+01
   -1.402519    6.66043  0.0000E+00  0.3312E-05  0.7272E-08  0.4924E-03  0.9286E-04  0.6011E+02
   -1.445018    6.66147  0.0000E+00  0.3263E-05  0.7290E-08  0.4776E-03  0.7772E-04  0.1610E+02
   -1.487518    6.66250  0.0000E+00  0.3220E-05  0.7428E-08  0.4576E-03  0.6380E-04  0.1947E+02
   -1.530017    6.66353  0.0000E+00  0.3174E-05  0.7784E-08  0.4266E-03  0.5087E-04  0.2276E+02
   -1.572516    6.66462  0.0000E+00  0.3107E-05  0.8731E-08  0.3669E-03  0.3969E-04  0.3835E+02
   -1.615014    6.66591  0.0000E+00  0.2933E-05  0.1227E-07  0.2736E-03  0.3169E-04 -0.3825E+03
   -1.657512    6.66785  0.0000E+00  0.1980E-05  0.4207E-07  0.1672E-04  0.2484E-04 -0.1517E+06
   -1.700010    6.69692  0.0000E+00  0.0000E+00  0.0000E+00  0.0000E+00  0.2530E-04  0.0000E+00
