 1 - depth, m
 2 - temperature, C
 3 - salinity, kg/kg
 4 - turbulent kinetic energy, m**2/s**2
 5 - dissipation rate, m**2/s**3
 6 - kinematic heat conductance, m**2/s
 7 - modulus of horizontal velocity, m/s
 8 - Richardson number, n/d
   -0.000000    0.00000  0.0000E+00  0.1969E-07  0.6168E-10  0.2453E-08  0.0000E+00  0.7889E+17
   -0.042498    1.46706  0.0000E+00  0.1608E-06  0.5201E-10  0.3905E-08  0.0000E+00  0.4198E+17
   -0.084996    2.91509  0.0000E+00  0.4386E-06  0.7886E-10  0.2816E-07  0.0000E+00  0.8880E+16
   -0.127495    4.15081  0.0000E+00  0.4407E-06  0.7915E-10  0.7686E-03  0.0000E+00 -0.7185E+12
   -0.169994    4.15108  0.0000E+00  0.4417E-06  0.7931E-10  0.7599E-03  0.0000E+00 -0.6831E+12
   -0.212494    4.15134  0.0000E+00  0.4426E-06  0.7949E-10  0.7615E-03  0.0000E+00 -0.6687E+12
   -0.254993    4.15160  0.0000E+00  0.4435E-06  0.7969E-10  0.7627E-03  0.0000E+00 -0.6583E+12
   -0.297493    4.15186  0.0000E+00  0.4443E-06  0.7991E-10  0.7635E-03  0.0000E+00 -0.6466E+12
   -0.339994    4.15211  0.0000E+00  0.4450E-06  0.8016E-10  0.7638E-03  0.0000E+00 -0.6379E+12
   -0.382494    4.15236  0.0000E+00  0.4456E-06  0.8043E-10  0.7636E-03  0.0000E+00 -0.6289E+12
   -0.424995    4.15260  0.0000E+00  0.4461E-06  0.8072E-10  0.7629E-03  0.0000E+00 -0.6214E+12
   -0.467496    4.15284  0.0000E+00  0.4466E-06  0.8104E-10  0.7618E-03  0.0000E+00 -0.6140E+12
   -0.509998    4.15307  0.0000E+00  0.4470E-06  0.8139E-10  0.7601E-03  0.0000E+00 -0.6074E+12
   -0.552499    4.15331  0.0000E+00  0.4473E-06  0.8178E-10  0.7579E-03  0.0000E+00 -0.6004E+12
   -0.595001    4.15354  0.0000E+00  0.4476E-06  0.8220E-10  0.7552E-03  0.0000E+00 -0.5965E+12
   -0.637502    4.15377  0.0000E+00  0.4478E-06  0.8267E-10  0.7517E-03  0.0000E+00 -0.5928E+12
   -0.680004    4.15399  0.0000E+00  0.4479E-06  0.8321E-10  0.7476E-03  0.0000E+00 -0.5912E+12
   -0.722506    4.15422  0.0000E+00  0.4480E-06  0.8383E-10  0.7427E-03  0.0000E+00 -0.5907E+12
   -0.765008    4.15444  0.0000E+00  0.4480E-06  0.8455E-10  0.7368E-03  0.0000E+00 -0.5927E+12
   -0.807510    4.15467  0.0000E+00  0.4480E-06  0.8538E-10  0.7298E-03  0.0000E+00 -0.5941E+12
   -0.850012    4.15490  0.0000E+00  0.4479E-06  0.8633E-10  0.7220E-03  0.0000E+00 -0.5984E+12
   -0.892514    4.15512  0.0000E+00  0.4478E-06  0.8741E-10  0.7130E-03  0.0000E+00 -0.6015E+12
   -0.935016    4.15535  0.0000E+00  0.4476E-06  0.8861E-10  0.7033E-03  0.0000E+00 -0.6056E+12
   -0.977518    4.15558  0.0000E+00  0.4473E-06  0.8994E-10  0.7324E-03  0.0000E+00 -0.5569E+12
   -1.020020    4.15580  0.0000E+00  0.4470E-06  0.9140E-10  0.6699E-03  0.0000E+00 -0.6488E+12
   -1.062521    4.15604  0.0000E+00  0.4466E-06  0.9301E-10  0.7114E-03  0.0000E+00 -0.5690E+12
   -1.105023    4.15626  0.0000E+00  0.4462E-06  0.9482E-10  0.6421E-03  0.0000E+00 -0.6677E+12
   -1.147525    4.15650  0.0000E+00  0.4457E-06  0.9678E-10  0.6860E-03  0.0000E+00 -0.5841E+12
   -1.190026    4.15673  0.0000E+00  0.4452E-06  0.9895E-10  0.6121E-03  0.0000E+00 -0.6917E+12
   -1.232527    4.15698  0.0000E+00  0.4447E-06  0.1015E-09  0.6089E-03  0.0000E+00 -0.6752E+12
   -1.275028    4.15723  0.0000E+00  0.4440E-06  0.1047E-09  0.5917E-03  0.0000E+00 -0.6911E+12
   -1.317529    4.15749  0.0000E+00  0.4433E-06  0.1086E-09  0.5688E-03  0.0000E+00 -0.7166E+12
   -1.360030    4.15776  0.0000E+00  0.4424E-06  0.1135E-09  0.6056E-03  0.0000E+00 -0.6537E+12
   -1.402530    4.15801  0.0000E+00  0.4413E-06  0.1200E-09  0.4864E-03  0.0000E+00 -0.8504E+12
   -1.445030    4.15832  0.0000E+00  0.4402E-06  0.1277E-09  0.5415E-03  0.0000E+00 -0.7323E+12
   -1.487530    4.15860  0.0000E+00  0.4389E-06  0.1376E-09  0.4234E-03  0.0000E+00 -0.9683E+12
   -1.530029    4.15895  0.0000E+00  0.4373E-06  0.1528E-09  0.3990E-03  0.0000E+00 -0.1016E+13
   -1.572529    4.15933  0.0000E+00  0.4342E-06  0.1864E-09  0.3353E-03  0.0000E+00 -0.1227E+13
   -1.615027    4.15978  0.0000E+00  0.4236E-06  0.3150E-09  0.2295E-03  0.0000E+00 -0.1806E+13
   -1.657526    4.16045  0.0000E+00  0.3037E-06  0.2088E-08  0.5679E-05  0.0000E+00 -0.7948E+14
   -1.700024    4.18756  0.0000E+00  0.0000E+00  0.0000E+00  0.0000E+00  0.0000E+00  0.0000E+00
