 1 - depth, m
 2 - temperature, C
 3 - salinity, kg/kg
 4 - turbulent kinetic energy, m**2/s**2
 5 - dissipation rate, m**2/s**3
 6 - kinematic heat conductance, m**2/s
 7 - modulus of horizontal velocity, m/s
 8 - Richardson number, n/d
   -0.000000    0.00000  0.0000E+00  0.3189E-13  0.5206E-16  0.1000E-09  0.0000E+00  0.8007E+16
   -0.042497    0.12211  0.0000E+00  0.3189E-13  0.5206E-16  0.1000E-09  0.0000E+00  0.8119E+16
   -0.084995    0.25028  0.0000E+00  0.3189E-13  0.5206E-16  0.1000E-09  0.0000E+00  0.8157E+16
   -0.127494    0.38394  0.0000E+00  0.3189E-13  0.5206E-16  0.1000E-09  0.0000E+00  0.7815E+16
   -0.169992    0.51713  0.0000E+00  0.3189E-13  0.5206E-16  0.1000E-09  0.0000E+00  0.7467E+16
   -0.212491    0.64966  0.0000E+00  0.3189E-13  0.5206E-16  0.1000E-09  0.0000E+00  0.7113E+16
   -0.254990    0.78129  0.0000E+00  0.3189E-13  0.5206E-16  0.1000E-09  0.0000E+00  0.6754E+16
   -0.297490    0.91179  0.0000E+00  0.3189E-13  0.5206E-16  0.1000E-09  0.0000E+00  0.6402E+16
   -0.339990    1.04111  0.0000E+00  0.3189E-13  0.5206E-16  0.1000E-09  0.0000E+00  0.6062E+16
   -0.382490    1.16932  0.0000E+00  0.3189E-13  0.5206E-16  0.1000E-09  0.0000E+00  0.5725E+16
   -0.424990    1.29627  0.0000E+00  0.3189E-13  0.5206E-16  0.1000E-09  0.0000E+00  0.5403E+16
   -0.467491    1.42210  0.0000E+00  0.3189E-13  0.5206E-16  0.1000E-09  0.0000E+00  0.5085E+16
   -0.509991    1.54671  0.0000E+00  0.3189E-13  0.5206E-16  0.1000E-09  0.0000E+00  0.4784E+16
   -0.552492    1.67031  0.0000E+00  0.3189E-13  0.5206E-16  0.1000E-09  0.0000E+00  0.4488E+16
   -0.594993    1.79285  0.0000E+00  0.3189E-13  0.5206E-16  0.1000E-09  0.0000E+00  0.4192E+16
   -0.637494    1.91409  0.0000E+00  0.3189E-13  0.5206E-16  0.1000E-09  0.0000E+00  0.3892E+16
   -0.679996    2.03364  0.0000E+00  0.3189E-13  0.5206E-16  0.1000E-09  0.0000E+00  0.3596E+16
   -0.722497    2.15122  0.0000E+00  0.3189E-13  0.5206E-16  0.1000E-09  0.0000E+00  0.3298E+16
   -0.764998    2.26636  0.0000E+00  0.3189E-13  0.5206E-16  0.1000E-09  0.0000E+00  0.3003E+16
   -0.807500    2.37854  0.0000E+00  0.3189E-13  0.5206E-16  0.1000E-09  0.0000E+00  0.2724E+16
   -0.850001    2.48777  0.0000E+00  0.3189E-13  0.5206E-16  0.1000E-09  0.0000E+00  0.2459E+16
   -0.892503    2.59390  0.0000E+00  0.3189E-13  0.5206E-16  0.1000E-09  0.0000E+00  0.2224E+16
   -0.935004    2.69758  0.0000E+00  0.3189E-13  0.5206E-16  0.1000E-09  0.0000E+00  0.2017E+16
   -0.977506    2.79956  0.0000E+00  0.3189E-13  0.5206E-16  0.1000E-09  0.0000E+00  0.1814E+16
   -1.020007    2.89962  0.0000E+00  0.3189E-13  0.5206E-16  0.1000E-09  0.0000E+00  0.1622E+16
   -1.062508    2.99778  0.0000E+00  0.3189E-13  0.5206E-16  0.1000E-09  0.0000E+00  0.1437E+16
   -1.105009    3.09385  0.0000E+00  0.3189E-13  0.5206E-16  0.1000E-09  0.0000E+00  0.1263E+16
   -1.147510    3.18793  0.0000E+00  0.3189E-13  0.5206E-16  0.1000E-09  0.0000E+00  0.1099E+16
   -1.190011    3.28011  0.0000E+00  0.3189E-13  0.5206E-16  0.1000E-09  0.0000E+00  0.9392E+15
   -1.232512    3.36982  0.0000E+00  0.4583E-13  0.5206E-16  0.1000E-09  0.0000E+00  0.7747E+15
   -1.275012    3.45524  0.0000E+00  0.1936E-12  0.1241E-15  0.1000E-09  0.0000E+00  0.6313E+15
   -1.317513    3.53680  0.0000E+00  0.6866E-12  0.4027E-15  0.1000E-09  0.0000E+00  0.5237E+15
   -1.360013    3.61803  0.0000E+00  0.2337E-11  0.1324E-14  0.1000E-09  0.0000E+00  0.4182E+15
   -1.402513    3.69907  0.0000E+00  0.7917E-11  0.4358E-14  0.1000E-09  0.0000E+00  0.3134E+15
   -1.445012    3.77978  0.0000E+00  0.2521E-10  0.1353E-13  0.1957E-09  0.0000E+00  0.2095E+15
   -1.487511    3.85991  0.0000E+00  0.7931E-10  0.4161E-13  0.1134E-08  0.0000E+00  0.1079E+15
   -1.530010    3.93915  0.0000E+00  0.2704E-09  0.1399E-12  0.2155E-07  0.0000E+00  0.1345E+14
   -1.572509    4.00892  0.0000E+00  0.9287E-09  0.5153E-12  0.7775E-06  0.0000E+00 -0.5914E+13
   -1.615007    4.02191  0.0000E+00  0.1445E-08  0.1088E-11  0.7144E-06  0.0000E+00 -0.9960E+13
   -1.657505    4.03670  0.0000E+00  0.1477E-08  0.2260E-11  0.2762E-06  0.0000E+00 -0.3536E+14
   -1.700002    4.07032  0.0000E+00  0.0000E+00  0.0000E+00  0.0000E+00  0.0000E+00  0.0000E+00
