 1 - depth, m
 2 - temperature, C
 3 - salinity, kg/kg
 4 - turbulent kinetic energy, m**2/s**2
 5 - dissipation rate, m**2/s**3
 6 - kinematic heat conductance, m**2/s
 7 - modulus of horizontal velocity, m/s
 8 - Richardson number, n/d
   -0.000000    0.00000  0.0000E+00  0.3189E-13  0.5207E-16  0.1000E-09  0.0000E+00  0.1200E+17
   -0.042497    0.18463  0.0000E+00  0.3189E-13  0.5207E-16  0.1000E-09  0.0000E+00  0.1180E+17
   -0.084995    0.37591  0.0000E+00  0.3189E-13  0.5207E-16  0.1000E-09  0.0000E+00  0.1147E+17
   -0.127493    0.57278  0.0000E+00  0.3189E-13  0.5207E-16  0.1000E-09  0.0000E+00  0.1054E+17
   -0.169991    0.76493  0.0000E+00  0.3189E-13  0.5207E-16  0.1000E-09  0.0000E+00  0.9646E+16
   -0.212490    0.95206  0.0000E+00  0.3193E-13  0.5207E-16  0.1000E-09  0.0000E+00  0.8776E+16
   -0.254989    1.13352  0.0000E+00  0.1550E-12  0.5207E-16  0.1000E-09  0.0000E+00  0.7937E+16
   -0.297488    1.30874  0.0000E+00  0.4163E-12  0.6344E-16  0.1000E-09  0.0000E+00  0.7172E+16
   -0.339988    1.47808  0.0000E+00  0.8458E-12  0.9778E-16  0.1000E-09  0.0000E+00  0.6495E+16
   -0.382488    1.64242  0.0000E+00  0.1536E-11  0.1597E-15  0.1000E-09  0.0000E+00  0.5856E+16
   -0.424988    1.80162  0.0000E+00  0.2644E-11  0.2620E-15  0.1000E-09  0.0000E+00  0.5302E+16
   -0.467488    1.95692  0.0000E+00  0.4429E-11  0.4269E-15  0.1000E-09  0.0000E+00  0.4778E+16
   -0.509988    2.10821  0.0000E+00  0.7323E-11  0.6916E-15  0.1000E-09  0.0000E+00  0.4348E+16
   -0.552489    2.25774  0.0000E+00  0.1203E-10  0.1117E-14  0.1000E-09  0.0000E+00  0.3942E+16
   -0.594990    2.40587  0.0000E+00  0.1966E-10  0.1796E-14  0.1000E-09  0.0000E+00  0.3542E+16
   -0.637491    2.55234  0.0000E+00  0.3233E-10  0.2907E-14  0.1000E-09  0.0000E+00  0.3145E+16
   -0.679992    2.69658  0.0000E+00  0.5328E-10  0.4718E-14  0.1000E-09  0.0000E+00  0.2760E+16
   -0.722493    2.83833  0.0000E+00  0.8807E-10  0.7680E-14  0.1000E-09  0.0000E+00  0.2383E+16
   -0.764994    2.97693  0.0000E+00  0.1461E-09  0.1255E-13  0.1000E-09  0.0000E+00  0.2020E+16
   -0.807495    3.11177  0.0000E+00  0.2424E-09  0.2051E-13  0.1000E-09  0.0000E+00  0.1685E+16
   -0.849997    3.24306  0.0000E+00  0.3984E-09  0.3322E-13  0.1000E-09  0.0000E+00  0.1373E+16
   -0.892498    3.37071  0.0000E+00  0.6526E-09  0.5364E-13  0.1531E-09  0.0000E+00  0.1102E+16
   -0.934999    3.49693  0.0000E+00  0.1059E-08  0.8582E-13  0.3175E-09  0.0000E+00  0.8505E+15
   -0.977500    3.62349  0.0000E+00  0.1710E-08  0.1366E-12  0.7195E-09  0.0000E+00  0.5972E+15
   -1.020001    3.75019  0.0000E+00  0.2743E-08  0.2160E-12  0.1985E-08  0.0000E+00  0.3424E+15
   -1.062502    3.87600  0.0000E+00  0.4358E-08  0.3387E-12  0.1122E-07  0.0000E+00  0.9491E+14
   -1.105003    3.99432  0.0000E+00  0.4773E-08  0.3725E-12  0.2243E-04  0.0000E+00 -0.1052E+12
   -1.147504    3.99512  0.0000E+00  0.4972E-08  0.3915E-12  0.2452E-04  0.0000E+00 -0.1057E+12
   -1.190005    3.99585  0.0000E+00  0.5144E-08  0.4106E-12  0.2652E-04  0.0000E+00 -0.1063E+12
   -1.232505    3.99654  0.0000E+00  0.5295E-08  0.4307E-12  0.2729E-04  0.0000E+00 -0.1123E+12
   -1.275006    3.99722  0.0000E+00  0.5426E-08  0.4520E-12  0.2747E-04  0.0000E+00 -0.1208E+12
   -1.317506    3.99790  0.0000E+00  0.5542E-08  0.4756E-12  0.2733E-04  0.0000E+00 -0.1293E+12
   -1.360005    3.99859  0.0000E+00  0.5647E-08  0.5039E-12  0.2683E-04  0.0000E+00 -0.1401E+12
   -1.402505    3.99930  0.0000E+00  0.5747E-08  0.5407E-12  0.2593E-04  0.0000E+00 -0.1540E+12
   -1.445004    4.00004  0.0000E+00  0.5831E-08  0.5871E-12  0.2454E-04  0.0000E+00 -0.1728E+12
   -1.487503    4.00082  0.0000E+00  0.5888E-08  0.6476E-12  0.2150E-04  0.0000E+00 -0.2104E+12
   -1.530002    4.00172  0.0000E+00  0.5909E-08  0.7427E-12  0.1785E-04  0.0000E+00 -0.2767E+12
   -1.572500    4.00282  0.0000E+00  0.5859E-08  0.9603E-12  0.1266E-04  0.0000E+00 -0.4605E+12
   -1.614998    4.00452  0.0000E+00  0.5476E-08  0.1892E-11  0.4331E-05  0.0000E+00 -0.1744E+13
   -1.657496    4.00985  0.0000E+00  0.4069E-08  0.6038E-11  0.5880E-06  0.0000E+00 -0.2536E+14
   -1.699993    4.04789  0.0000E+00  0.0000E+00  0.0000E+00  0.0000E+00  0.0000E+00  0.0000E+00
