 1 - depth, m
 2 - temperature, C
 3 - salinity, kg/kg
 4 - turbulent kinetic energy, m**2/s**2
 5 - dissipation rate, m**2/s**3
 6 - kinematic heat conductance, m**2/s
 7 - modulus of horizontal velocity, m/s
 8 - Richardson number, n/d
   -0.000000   17.13301  0.0000E+00  0.2064E-04  0.1649E-05  0.2525E-04  0.2419E-01 -0.1528E-01
   -0.042497   17.15890  0.0000E+00  0.1500E-04  0.5467E-06  0.4398E-04  0.1266E-01 -0.4918E-01
   -0.084995   17.17144  0.0000E+00  0.1176E-04  0.2626E-06  0.6046E-04  0.8266E-02 -0.9830E-01
   -0.127493   17.18015  0.0000E+00  0.9676E-05  0.1485E-06  0.7939E-04  0.5689E-02 -0.1755E+00
   -0.169991   17.18655  0.0000E+00  0.8301E-05  0.9273E-07  0.1087E-03  0.4045E-02 -0.2404E+00
   -0.212490   17.19108  0.0000E+00  0.7456E-05  0.6425E-07  0.2145E-03  0.2975E-02  0.2748E+04
   -0.254989   17.19343  0.0000E+00  0.7017E-05  0.4977E-07  0.3306E-03  0.2360E-02  0.5508E+03
   -0.297489   17.19482  0.0000E+00  0.6783E-05  0.4062E-07  0.3664E-03  0.1998E-02  0.1431E+01
   -0.339988   17.19603  0.0000E+00  0.6663E-05  0.3414E-07  0.4152E-03  0.1698E-02  0.1474E+01
   -0.382488   17.19708  0.0000E+00  0.6623E-05  0.2950E-07  0.4677E-03  0.1455E-02  0.1446E+01
   -0.424988   17.19801  0.0000E+00  0.6638E-05  0.2610E-07  0.5237E-03  0.1255E-02  0.1547E+01
   -0.467489   17.19883  0.0000E+00  0.6686E-05  0.2351E-07  0.5790E-03  0.1079E-02  0.1626E+01
   -0.509989   17.19957  0.0000E+00  0.6752E-05  0.2150E-07  0.6344E-03  0.9208E-03  0.1667E+01
   -0.552490   17.20026  0.0000E+00  0.6825E-05  0.1992E-07  0.6888E-03  0.7802E-03  0.1692E+01
   -0.594991   17.20089  0.0000E+00  0.6895E-05  0.1868E-07  0.7450E-03  0.6552E-03  0.1655E+01
   -0.637492   17.20148  0.0000E+00  0.6959E-05  0.1771E-07  0.8079E-03  0.5471E-03  0.1551E+01
   -0.679993   17.20202  0.0000E+00  0.7014E-05  0.1695E-07  0.8699E-03  0.4580E-03  0.1459E+01
   -0.722494   17.20252  0.0000E+00  0.7058E-05  0.1637E-07  0.9266E-03  0.3859E-03  0.1352E+01
   -0.764995   17.20297  0.0000E+00  0.7093E-05  0.1593E-07  0.9763E-03  0.3293E-03  0.1252E+01
   -0.807497   17.20340  0.0000E+00  0.7114E-05  0.1571E-07  0.9730E-03  0.2851E-03  0.1736E+01
   -0.849998   17.20383  0.0000E+00  0.7128E-05  0.1559E-07  0.1048E-02  0.2636E-03  0.3890E+01
   -0.892499   17.20422  0.0000E+00  0.7141E-05  0.1551E-07  0.9981E-03  0.2454E-03  0.1058E+01
   -0.935001   17.20464  0.0000E+00  0.7151E-05  0.1548E-07  0.1006E-02  0.2228E-03  0.1046E+01
   -0.977502   17.20505  0.0000E+00  0.7156E-05  0.1551E-07  0.1004E-02  0.2037E-03  0.1063E+01
   -1.020003   17.20547  0.0000E+00  0.7157E-05  0.1560E-07  0.9981E-03  0.1873E-03  0.1169E+01
   -1.062504   17.20590  0.0000E+00  0.7154E-05  0.1576E-07  0.9878E-03  0.1726E-03  0.1323E+01
   -1.105005   17.20635  0.0000E+00  0.7146E-05  0.1599E-07  0.9724E-03  0.1589E-03  0.1539E+01
   -1.147506   17.20681  0.0000E+00  0.7131E-05  0.1629E-07  0.9517E-03  0.1457E-03  0.1811E+01
   -1.190007   17.20730  0.0000E+00  0.7109E-05  0.1668E-07  0.9254E-03  0.1328E-03  0.2102E+01
   -1.232507   17.20781  0.0000E+00  0.7076E-05  0.1720E-07  0.8934E-03  0.1201E-03  0.2507E+01
   -1.275008   17.20835  0.0000E+00  0.7030E-05  0.1790E-07  0.8499E-03  0.1081E-03  0.3334E+01
   -1.317508   17.20893  0.0000E+00  0.6965E-05  0.1890E-07  0.8055E-03  0.9675E-04  0.4679E+01
   -1.360008   17.20955  0.0000E+00  0.6876E-05  0.2037E-07  0.7348E-03  0.8612E-04  0.7108E+01
   -1.402508   17.21025  0.0000E+00  0.6750E-05  0.2269E-07  0.6855E-03  0.7607E-04  0.1286E+02
   -1.445007   17.21102  0.0000E+00  0.6585E-05  0.2640E-07  0.5885E-03  0.6658E-04  0.2058E+04
   -1.487506   17.21209  0.0000E+00  0.6362E-05  0.3227E-07  0.5533E-03  0.5537E-04  0.6660E+05
   -1.530005   17.21334  0.0000E+00  0.6004E-05  0.4483E-07  0.4300E-03  0.4426E-04  0.2392E+06
   -1.572503   17.21625  0.0000E+00  0.5442E-05  0.7234E-07  0.4376E-03  0.3059E-04  0.9543E+06
   -1.615001   17.21662  0.0000E+00  0.4334E-05  0.1901E-06  0.1948E-03  0.2444E-04 -0.1602E+09
   -1.657499   17.22914  0.0000E+00  0.2927E-05  0.5101E-06  0.1198E-03  0.1483E-04 -0.5871E+06
   -1.699996   17.23365  0.0000E+00  0.0000E+00  0.0000E+00  0.0000E+00  0.2343E-04  0.0000E+00
