 1 - depth, m
 2 - temperature, C
 3 - salinity, kg/kg
 4 - turbulent kinetic energy, m**2/s**2
 5 - dissipation rate, m**2/s**3
 6 - kinematic heat conductance, m**2/s
 7 - modulus of horizontal velocity, m/s
 8 - Richardson number, n/d
   -0.000000   10.46618  0.0000E+00  0.1282E-02  0.7749E-02  0.9933E-04  0.4358E+00  0.1079E-01
   -0.042498   10.50436  0.0000E+00  0.6163E-03  0.3005E-02  0.2770E-03  0.9243E-01 -0.6784E-02
   -0.084996   10.51407  0.0000E+00  0.4251E-03  0.1436E-02  0.3203E-03  0.5412E-01 -0.2871E-01
   -0.127495   10.51957  0.0000E+00  0.3196E-03  0.8129E-03  0.2956E-03  0.4228E-01 -0.3231E-01
   -0.169994   10.52295  0.0000E+00  0.2440E-03  0.4666E-03  0.2527E-03  0.3499E-01 -0.2553E-01
   -0.212494   10.52545  0.0000E+00  0.1909E-03  0.3008E-03  0.2333E-03  0.2913E-01 -0.3019E-01
   -0.254993   10.52790  0.0000E+00  0.1484E-03  0.1883E-03  0.2244E-03  0.2421E-01 -0.2529E+00
   -0.297493   10.53010  0.0000E+00  0.1171E-03  0.1196E-03  0.2178E-03  0.2067E-01 -0.1546E+00
   -0.339994   10.53189  0.0000E+00  0.9533E-04  0.7485E-04  0.2168E-03  0.1813E-01  0.1294E+02
   -0.382494   10.53356  0.0000E+00  0.7838E-04  0.4467E-04  0.2224E-03  0.1570E-01  0.6149E+03
   -0.424995   10.53496  0.0000E+00  0.6502E-04  0.2549E-04  0.2307E-03  0.1403E-01  0.7044E+01
   -0.467496   10.53633  0.0000E+00  0.5526E-04  0.1426E-04  0.2375E-03  0.1215E-01  0.2355E+04
   -0.509997   10.53764  0.0000E+00  0.4771E-04  0.8013E-05  0.2441E-03  0.1042E-01  0.4975E+02
   -0.552499   10.53889  0.0000E+00  0.4169E-04  0.4593E-05  0.2516E-03  0.8944E-02  0.8255E+03
   -0.595000   10.54016  0.0000E+00  0.3683E-04  0.2709E-05  0.2626E-03  0.7589E-02  0.9420E+01
   -0.637502   10.54127  0.0000E+00  0.3264E-04  0.1638E-05  0.2744E-03  0.6440E-02  0.6842E+02
   -0.680004   10.54228  0.0000E+00  0.2911E-04  0.1041E-05  0.2861E-03  0.5549E-02  0.2144E+02
   -0.722506   10.54321  0.0000E+00  0.2608E-04  0.7106E-06  0.2980E-03  0.4803E-02  0.7713E+02
   -0.765007   10.54406  0.0000E+00  0.2347E-04  0.5195E-06  0.3103E-03  0.4204E-02  0.1240E+04
   -0.807509   10.54483  0.0000E+00  0.2119E-04  0.3984E-06  0.3214E-03  0.3733E-02 -0.2725E+03
   -0.850011   10.54556  0.0000E+00  0.1922E-04  0.3165E-06  0.3341E-03  0.3329E-02 -0.2118E+03
   -0.892513   10.54625  0.0000E+00  0.1750E-04  0.2567E-06  0.3498E-03  0.2976E-02  0.1538E+03
   -0.935015   10.54691  0.0000E+00  0.1601E-04  0.2113E-06  0.3634E-03  0.2675E-02  0.1426E+05
   -0.977517   10.54754  0.0000E+00  0.1471E-04  0.1760E-06  0.3766E-03  0.2399E-02  0.1930E+03
   -1.020019   10.54815  0.0000E+00  0.1358E-04  0.1479E-06  0.3888E-03  0.2156E-02  0.9291E+02
   -1.062521   10.54873  0.0000E+00  0.1258E-04  0.1254E-06  0.4011E-03  0.1932E-02  0.4792E+02
   -1.105023   10.54930  0.0000E+00  0.1170E-04  0.1070E-06  0.4125E-03  0.1728E-02  0.3305E+03
   -1.147524   10.54985  0.0000E+00  0.1094E-04  0.9239E-07  0.4234E-03  0.1535E-02  0.4084E+02
   -1.190025   10.55038  0.0000E+00  0.1028E-04  0.8091E-07  0.4320E-03  0.1349E-02  0.2653E+02
   -1.232527   10.55090  0.0000E+00  0.9699E-05  0.7163E-07  0.4391E-03  0.1172E-02  0.4281E+02
   -1.275028   10.55142  0.0000E+00  0.9166E-05  0.6409E-07  0.4444E-03  0.1017E-02  0.1103E+03
   -1.317528   10.55192  0.0000E+00  0.8677E-05  0.5810E-07  0.4457E-03  0.8791E-03  0.6274E+02
   -1.360029   10.55241  0.0000E+00  0.8218E-05  0.5349E-07  0.4429E-03  0.7586E-03  0.1277E+03
   -1.402529   10.55291  0.0000E+00  0.7768E-05  0.5028E-07  0.4338E-03  0.6552E-03  0.5939E+03
   -1.445029   10.55341  0.0000E+00  0.7366E-05  0.4920E-07  0.4175E-03  0.5611E-03  0.3136E+03
   -1.487529   10.55394  0.0000E+00  0.7014E-05  0.5111E-07  0.3961E-03  0.4697E-03  0.6736E+03
   -1.530029   10.55450  0.0000E+00  0.6665E-05  0.5874E-07  0.3622E-03  0.3791E-03  0.7834E+03
   -1.572528   10.55513  0.0000E+00  0.6222E-05  0.8320E-07  0.3102E-03  0.2948E-03  0.1150E+04
   -1.615026   10.55586  0.0000E+00  0.5305E-05  0.1816E-06  0.2158E-03  0.2365E-03  0.1896E+04
   -1.657525   10.55714  0.0000E+00  0.3402E-05  0.4685E-06  0.3035E-04  0.1806E-03 -0.1239E+08
   -1.700023   10.56922  0.0000E+00  0.0000E+00  0.0000E+00  0.0000E+00  0.2287E-03  0.0000E+00
