 1 - depth, m
 2 - temperature, C
 3 - salinity, kg/kg
 4 - turbulent kinetic energy, m**2/s**2
 5 - dissipation rate, m**2/s**3
 6 - kinematic heat conductance, m**2/s
 7 - modulus of horizontal velocity, m/s
 8 - Richardson number, n/d
   -0.000000    7.90896  0.0000E+00  0.2637E-04  0.2528E-05  0.2619E-04  0.3000E-01 -0.4528E-02
   -0.042497    7.94023  0.0000E+00  0.1831E-04  0.7911E-06  0.4316E-04  0.1581E-01 -0.1592E-01
   -0.084995    7.95602  0.0000E+00  0.1374E-04  0.3636E-06  0.5457E-04  0.1063E-01 -0.3310E-01
   -0.127493    7.96831  0.0000E+00  0.1069E-04  0.1962E-06  0.6351E-04  0.7476E-02 -0.6023E-01
   -0.169992    7.97868  0.0000E+00  0.8511E-05  0.1159E-06  0.7213E-04  0.5344E-02 -0.1045E+00
   -0.212491    7.98763  0.0000E+00  0.6917E-05  0.7240E-07  0.8285E-04  0.3845E-02 -0.1860E+00
   -0.254990    7.99528  0.0000E+00  0.5781E-05  0.4740E-07  0.9876E-04  0.2807E-02 -0.3234E+00
   -0.297489    8.00160  0.0000E+00  0.5012E-05  0.3258E-07  0.1433E-03  0.2106E-02  0.5795E+02
   -0.339989    8.00606  0.0000E+00  0.4573E-05  0.2467E-07  0.2587E-03  0.1635E-02  0.2847E+03
   -0.382489    8.00851  0.0000E+00  0.4329E-05  0.2029E-07  0.3077E-03  0.1370E-02  0.1126E+01
   -0.424989    8.01043  0.0000E+00  0.4167E-05  0.1720E-07  0.3302E-03  0.1177E-02  0.1226E+01
   -0.467490    8.01219  0.0000E+00  0.4053E-05  0.1483E-07  0.3581E-03  0.9994E-03  0.1354E+01
   -0.509990    8.01379  0.0000E+00  0.3975E-05  0.1303E-07  0.3882E-03  0.8436E-03  0.1420E+01
   -0.552491    8.01523  0.0000E+00  0.3923E-05  0.1162E-07  0.4204E-03  0.7066E-03  0.1471E+01
   -0.594992    8.01655  0.0000E+00  0.3888E-05  0.1052E-07  0.4536E-03  0.5861E-03  0.1451E+01
   -0.637493    8.01775  0.0000E+00  0.3865E-05  0.9649E-08  0.4870E-03  0.4830E-03  0.1353E+01
   -0.679994    8.01885  0.0000E+00  0.3851E-05  0.8955E-08  0.5194E-03  0.3994E-03  0.1276E+01
   -0.722496    8.01988  0.0000E+00  0.3842E-05  0.8407E-08  0.5497E-03  0.3329E-03  0.1181E+01
   -0.764997    8.02084  0.0000E+00  0.3836E-05  0.7973E-08  0.5768E-03  0.2818E-03  0.1089E+01
   -0.807498    8.02174  0.0000E+00  0.3833E-05  0.7628E-08  0.5999E-03  0.2435E-03  0.1039E+01
   -0.850000    8.02261  0.0000E+00  0.3830E-05  0.7357E-08  0.6187E-03  0.2141E-03  0.1028E+01
   -0.892501    8.02344  0.0000E+00  0.3828E-05  0.7137E-08  0.6345E-03  0.1908E-03  0.1090E+01
   -0.935003    8.02425  0.0000E+00  0.3825E-05  0.6954E-08  0.6488E-03  0.1716E-03  0.1278E+01
   -0.977504    8.02503  0.0000E+00  0.3822E-05  0.6800E-08  0.6619E-03  0.1545E-03  0.1469E+01
   -1.020005    8.02578  0.0000E+00  0.3817E-05  0.6672E-08  0.6727E-03  0.1394E-03  0.1705E+01
   -1.062506    8.02652  0.0000E+00  0.3811E-05  0.6569E-08  0.6809E-03  0.1256E-03  0.1908E+01
   -1.105008    8.02724  0.0000E+00  0.3803E-05  0.6491E-08  0.6864E-03  0.1130E-03  0.2135E+01
   -1.147508    8.02795  0.0000E+00  0.3794E-05  0.6440E-08  0.6889E-03  0.1012E-03  0.2376E+01
   -1.190009    8.02864  0.0000E+00  0.3784E-05  0.6417E-08  0.6880E-03  0.8996E-04  0.2602E+01
   -1.232510    8.02933  0.0000E+00  0.3771E-05  0.6421E-08  0.6834E-03  0.7929E-04  0.2918E+01
   -1.275010    8.03002  0.0000E+00  0.3756E-05  0.6459E-08  0.6747E-03  0.6959E-04  0.3621E+01
   -1.317511    8.03071  0.0000E+00  0.3738E-05  0.6538E-08  0.6612E-03  0.6081E-04  0.4632E+01
   -1.360011    8.03141  0.0000E+00  0.3716E-05  0.6674E-08  0.6413E-03  0.5291E-04  0.6025E+01
   -1.402510    8.03213  0.0000E+00  0.3688E-05  0.6894E-08  0.6139E-03  0.4591E-04  0.8501E+01
   -1.445010    8.03287  0.0000E+00  0.3657E-05  0.7205E-08  0.5804E-03  0.3946E-04  0.1223E+02
   -1.487509    8.03365  0.0000E+00  0.3623E-05  0.7647E-08  0.5442E-03  0.3322E-04  0.1495E+02
   -1.530008    8.03448  0.0000E+00  0.3578E-05  0.8413E-08  0.4769E-03  0.2719E-04  0.1844E+02
   -1.572506    8.03543  0.0000E+00  0.3502E-05  0.1019E-07  0.4633E-03  0.2155E-04  0.2679E+02
   -1.615005    8.03639  0.0000E+00  0.3231E-05  0.1875E-07  0.2450E-03  0.1793E-04 -0.3844E+06
   -1.657502    8.04066  0.0000E+00  0.2121E-05  0.6592E-07  0.3610E-04  0.1262E-04 -0.1744E+05
   -1.700000    8.05589  0.0000E+00  0.0000E+00  0.0000E+00  0.0000E+00  0.1389E-04  0.0000E+00
