 1 - depth, m
 2 - temperature, C
 3 - salinity, kg/kg
 4 - turbulent kinetic energy, m**2/s**2
 5 - dissipation rate, m**2/s**3
 6 - kinematic heat conductance, m**2/s
 7 - modulus of horizontal velocity, m/s
 8 - Richardson number, n/d
   -0.000000   13.83507  0.0000E+00  0.3407E-02  0.7469E-01  0.2357E-03  0.1053E+01  0.2870E-03
   -0.042497   14.00628  0.0000E+00  0.1678E-02  0.4865E-01  0.3789E-03  0.2322E+00 -0.4642E-01
   -0.084995   14.13027  0.0000E+00  0.1001E-02  0.1448E-01  0.5126E-03  0.1144E+00  0.1576E+00
   -0.127493   14.15932  0.0000E+00  0.7111E-03  0.9368E-02  0.5128E-03  0.8260E-01 -0.1138E+00
   -0.169991   14.17019  0.0000E+00  0.5450E-03  0.6004E-02  0.4423E-03  0.6368E-01 -0.2379E-01
   -0.212490   14.18365  0.0000E+00  0.4281E-03  0.4318E-02  0.4142E-03  0.4949E-01 -0.1033E+00
   -0.254989   14.19933  0.0000E+00  0.3496E-03  0.3274E-02  0.4221E-03  0.4050E-01  0.1787E+00
   -0.297489   14.20474  0.0000E+00  0.2926E-03  0.2461E-02  0.4218E-03  0.3580E-01  0.5712E+01
   -0.339988   14.20902  0.0000E+00  0.2471E-03  0.1811E-02  0.4111E-03  0.3263E-01  0.2945E+02
   -0.382488   14.21278  0.0000E+00  0.2095E-03  0.1288E-02  0.4165E-03  0.2936E-01  0.1243E+03
   -0.424988   14.21547  0.0000E+00  0.1800E-03  0.8818E-03  0.4204E-03  0.2728E-01  0.1104E+03
   -0.467488   14.21900  0.0000E+00  0.1561E-03  0.5751E-03  0.4238E-03  0.2457E-01  0.1983E+03
   -0.509989   14.22156  0.0000E+00  0.1367E-03  0.3584E-03  0.4368E-03  0.2181E-01  0.5189E+03
   -0.552490   14.22455  0.0000E+00  0.1214E-03  0.2175E-03  0.4363E-03  0.1946E-01  0.2354E+03
   -0.594991   14.22768  0.0000E+00  0.1083E-03  0.1291E-03  0.4569E-03  0.1709E-01  0.5297E+04
   -0.637492   14.23078  0.0000E+00  0.9717E-04  0.7556E-04  0.4694E-03  0.1491E-01  0.1966E+04
   -0.679993   14.23540  0.0000E+00  0.8752E-04  0.4389E-04  0.4939E-03  0.1302E-01  0.2833E+03
   -0.722494   14.23809  0.0000E+00  0.7948E-04  0.2526E-04  0.5184E-03  0.1165E-01  0.8323E+07
   -0.764995   14.24014  0.0000E+00  0.7261E-04  0.1458E-04  0.5400E-03  0.1054E-01  0.4745E+04
   -0.807496   14.24198  0.0000E+00  0.6659E-04  0.8435E-05  0.5622E-03  0.9700E-02  0.2385E+05
   -0.849998   14.24387  0.0000E+00  0.6136E-04  0.5056E-05  0.5853E-03  0.8944E-02  0.2394E+05
   -0.892499   14.24525  0.0000E+00  0.5678E-04  0.3208E-05  0.6059E-03  0.8278E-02  0.9350E+05
   -0.935000   14.24671  0.0000E+00  0.5273E-04  0.2163E-05  0.6375E-03  0.7703E-02  0.7596E+06
   -0.977501   14.24807  0.0000E+00  0.4912E-04  0.1558E-05  0.6645E-03  0.7134E-02  0.3954E+05
   -1.020003   14.24936  0.0000E+00  0.4587E-04  0.1159E-05  0.6886E-03  0.6636E-02  0.4775E+04
   -1.062504   14.25055  0.0000E+00  0.4294E-04  0.9038E-06  0.7126E-03  0.6132E-02  0.1896E+04
   -1.105005   14.25170  0.0000E+00  0.4031E-04  0.7365E-06  0.7245E-03  0.5675E-02  0.1969E+04
   -1.147505   14.25278  0.0000E+00  0.3798E-04  0.6213E-06  0.7276E-03  0.5215E-02  0.2391E+04
   -1.190006   14.25393  0.0000E+00  0.3593E-04  0.5445E-06  0.7249E-03  0.4720E-02  0.2570E+04
   -1.232507   14.25509  0.0000E+00  0.3400E-04  0.4903E-06  0.7269E-03  0.4235E-02  0.1666E+04
   -1.275007   14.25611  0.0000E+00  0.3215E-04  0.4516E-06  0.7175E-03  0.3813E-02  0.2207E+04
   -1.317507   14.25715  0.0000E+00  0.3032E-04  0.4280E-06  0.6989E-03  0.3423E-02  0.7932E+05
   -1.360007   14.25817  0.0000E+00  0.2848E-04  0.4209E-06  0.6537E-03  0.3070E-02  0.2524E+06
   -1.402507   14.25922  0.0000E+00  0.2654E-04  0.4372E-06  0.6100E-03  0.2758E-02  0.3572E+05
   -1.445006   14.26036  0.0000E+00  0.2464E-04  0.4880E-06  0.5327E-03  0.2458E-02  0.1787E+05
   -1.487505   14.26171  0.0000E+00  0.2278E-04  0.5928E-06  0.4797E-03  0.2128E-02  0.9720E+04
   -1.530004   14.26327  0.0000E+00  0.2069E-04  0.8169E-06  0.4102E-03  0.1714E-02  0.1018E+06
   -1.572502   14.26557  0.0000E+00  0.1841E-04  0.1393E-05  0.3824E-03  0.1303E-02  0.8639E+05
   -1.615000   14.26691  0.0000E+00  0.1464E-04  0.3593E-05  0.2176E-03  0.1079E-02 -0.1237E+08
   -1.657498   14.27307  0.0000E+00  0.9986E-05  0.8351E-05  0.1447E-03  0.8279E-03 -0.3263E+09
   -1.699995   14.28387  0.0000E+00  0.0000E+00  0.0000E+00  0.0000E+00  0.1362E-02  0.0000E+00
