 1 - depth, m
 2 - temperature, C
 3 - salinity, kg/kg
 4 - turbulent kinetic energy, m**2/s**2
 5 - dissipation rate, m**2/s**3
 6 - kinematic heat conductance, m**2/s
 7 - modulus of horizontal velocity, m/s
 8 - Richardson number, n/d
   -0.000000   11.29854  0.0000E+00  0.4066E-02  0.1147E+00  0.2548E-03  0.1201E+01 -0.1285E-03
   -0.042498   11.34847  0.0000E+00  0.1949E-02  0.7870E-01  0.4572E-03  0.2566E+00  0.2603E-02
   -0.084997   11.39677  0.0000E+00  0.1226E-02  0.3274E-01  0.6386E-03  0.1217E+00 -0.1562E+00
   -0.127496   11.40667  0.0000E+00  0.9134E-03  0.2283E-01  0.6274E-03  0.8997E-01 -0.3265E+00
   -0.169996   11.41021  0.0000E+00  0.7308E-03  0.1749E-01  0.5596E-03  0.7192E-01  0.5513E-01
   -0.212495   11.41329  0.0000E+00  0.5892E-03  0.1343E-01  0.5355E-03  0.5834E-01 -0.2222E-02
   -0.254995   11.41588  0.0000E+00  0.4840E-03  0.1055E-01  0.5198E-03  0.4886E-01  0.2442E+01
   -0.297496   11.41770  0.0000E+00  0.4043E-03  0.8199E-02  0.5155E-03  0.4319E-01  0.1234E+01
   -0.339997   11.41841  0.0000E+00  0.3419E-03  0.6360E-02  0.4957E-03  0.3960E-01  0.8293E+00
   -0.382498   11.41951  0.0000E+00  0.2913E-03  0.4856E-02  0.4951E-03  0.3597E-01  0.1977E+02
   -0.424999   11.42014  0.0000E+00  0.2518E-03  0.3637E-02  0.4890E-03  0.3388E-01  0.1438E+02
   -0.467500   11.42112  0.0000E+00  0.2199E-03  0.2667E-02  0.4837E-03  0.3088E-01  0.1076E+02
   -0.510002   11.42219  0.0000E+00  0.1936E-03  0.1911E-02  0.4840E-03  0.2757E-01  0.2732E+04
   -0.552503   11.42325  0.0000E+00  0.1722E-03  0.1337E-02  0.4826E-03  0.2472E-01  0.3982E+02
   -0.595005   11.42454  0.0000E+00  0.1542E-03  0.9179E-03  0.4862E-03  0.2174E-01  0.1143E+03
   -0.637507   11.42585  0.0000E+00  0.1388E-03  0.6177E-03  0.4943E-03  0.1907E-01  0.4273E+02
   -0.680009   11.42684  0.0000E+00  0.1258E-03  0.4102E-03  0.4991E-03  0.1717E-01 -0.8875E+00
   -0.722512   11.42792  0.0000E+00  0.1144E-03  0.2699E-03  0.5071E-03  0.1548E-01 -0.7419E+02
   -0.765014   11.42888  0.0000E+00  0.1046E-03  0.1755E-03  0.5139E-03  0.1414E-01  0.6978E+03
   -0.807516   11.42938  0.0000E+00  0.9580E-04  0.1117E-03  0.5193E-03  0.1312E-01  0.2565E+04
   -0.850019   11.43004  0.0000E+00  0.8818E-04  0.7025E-04  0.5233E-03  0.1220E-01 -0.2876E+03
   -0.892521   11.43070  0.0000E+00  0.8140E-04  0.4375E-04  0.5279E-03  0.1134E-01  0.1139E+05
   -0.935023   11.43126  0.0000E+00  0.7543E-04  0.2727E-04  0.5313E-03  0.1062E-01  0.1124E+06
   -0.977526   11.43198  0.0000E+00  0.7015E-04  0.1707E-04  0.5333E-03  0.9874E-02  0.1959E+06
   -1.020028   11.43260  0.0000E+00  0.6543E-04  0.1070E-04  0.5344E-03  0.9237E-02  0.6249E+04
   -1.062530   11.43330  0.0000E+00  0.6122E-04  0.6741E-05  0.5379E-03  0.8590E-02  0.1987E+04
   -1.105032   11.43396  0.0000E+00  0.5743E-04  0.4250E-05  0.5354E-03  0.8016E-02  0.7035E+05
   -1.147534   11.43467  0.0000E+00  0.5407E-04  0.2727E-05  0.5319E-03  0.7435E-02  0.1904E+04
   -1.190036   11.43549  0.0000E+00  0.5110E-04  0.1833E-05  0.5264E-03  0.6776E-02  0.2869E+04
   -1.232537   11.43660  0.0000E+00  0.4836E-04  0.1310E-05  0.5244E-03  0.6133E-02  0.1188E+04
   -1.275039   11.43734  0.0000E+00  0.4576E-04  0.9923E-06  0.5190E-03  0.5587E-02  0.9345E+03
   -1.317540   11.43816  0.0000E+00  0.4320E-04  0.8087E-06  0.5088E-03  0.5085E-02 -0.2927E+05
   -1.360041   11.43900  0.0000E+00  0.4066E-04  0.7265E-06  0.4957E-03  0.4619E-02 -0.7983E+08
   -1.402541   11.43965  0.0000E+00  0.3806E-04  0.6966E-06  0.4694E-03  0.4203E-02 -0.2990E+10
   -1.445042   11.44044  0.0000E+00  0.3554E-04  0.7309E-06  0.4364E-03  0.3793E-02 -0.1430E+08
   -1.487542   11.44134  0.0000E+00  0.3312E-04  0.8353E-06  0.4010E-03  0.3339E-02 -0.9603E+07
   -1.530042   11.44259  0.0000E+00  0.3048E-04  0.1078E-05  0.3606E-03  0.2791E-02  0.3791E+09
   -1.572541   11.44394  0.0000E+00  0.2728E-04  0.1733E-05  0.3081E-03  0.2240E-02 -0.3613E+11
   -1.615040   11.44506  0.0000E+00  0.2175E-04  0.4206E-05  0.1993E-03  0.1887E-02 -0.1957E+11
   -1.657539   11.44710  0.0000E+00  0.1458E-04  0.1089E-04  0.1072E-03  0.1469E-02 -0.8013E+10
   -1.700037   11.45908  0.0000E+00  0.0000E+00  0.0000E+00  0.0000E+00  0.2208E-02  0.0000E+00
