 1 - depth, m
 2 - temperature, C
 3 - salinity, kg/kg
 4 - turbulent kinetic energy, m**2/s**2
 5 - dissipation rate, m**2/s**3
 6 - kinematic heat conductance, m**2/s
 7 - modulus of horizontal velocity, m/s
 8 - Richardson number, n/d
   -0.000000    0.00000  0.0000E+00  0.1695E-07  0.5105E-10  0.2078E-08  0.0000E+00  0.7710E+17
   -0.042498    1.42380  0.0000E+00  0.1353E-06  0.4163E-10  0.3094E-08  0.0000E+00  0.4239E+17
   -0.084996    2.83744  0.0000E+00  0.3641E-06  0.6008E-10  0.1845E-07  0.0000E+00  0.1034E+17
   -0.127495    4.11450  0.0000E+00  0.3660E-06  0.6031E-10  0.6969E-03  0.0000E+00 -0.6059E+12
   -0.169994    4.11479  0.0000E+00  0.3668E-06  0.6043E-10  0.6891E-03  0.0000E+00 -0.5736E+12
   -0.212494    4.11508  0.0000E+00  0.3676E-06  0.6056E-10  0.6908E-03  0.0000E+00 -0.5616E+12
   -0.254994    4.11536  0.0000E+00  0.3684E-06  0.6071E-10  0.6920E-03  0.0000E+00 -0.5533E+12
   -0.297494    4.11563  0.0000E+00  0.3691E-06  0.6088E-10  0.6929E-03  0.0000E+00 -0.5435E+12
   -0.339994    4.11590  0.0000E+00  0.3697E-06  0.6107E-10  0.6934E-03  0.0000E+00 -0.5364E+12
   -0.382495    4.11617  0.0000E+00  0.3703E-06  0.6127E-10  0.6935E-03  0.0000E+00 -0.5290E+12
   -0.424996    4.11643  0.0000E+00  0.3708E-06  0.6149E-10  0.6931E-03  0.0000E+00 -0.5228E+12
   -0.467497    4.11669  0.0000E+00  0.3712E-06  0.6173E-10  0.6922E-03  0.0000E+00 -0.5167E+12
   -0.509998    4.11694  0.0000E+00  0.3716E-06  0.6199E-10  0.6909E-03  0.0000E+00 -0.5113E+12
   -0.552500    4.11719  0.0000E+00  0.3719E-06  0.6228E-10  0.6892E-03  0.0000E+00 -0.5056E+12
   -0.595001    4.11744  0.0000E+00  0.3721E-06  0.6260E-10  0.6869E-03  0.0000E+00 -0.5025E+12
   -0.637503    4.11769  0.0000E+00  0.3724E-06  0.6295E-10  0.6840E-03  0.0000E+00 -0.4995E+12
   -0.680005    4.11793  0.0000E+00  0.3725E-06  0.6336E-10  0.6805E-03  0.0000E+00 -0.4984E+12
   -0.722507    4.11817  0.0000E+00  0.3726E-06  0.6382E-10  0.6763E-03  0.0000E+00 -0.4981E+12
   -0.765009    4.11842  0.0000E+00  0.3727E-06  0.6435E-10  0.6712E-03  0.0000E+00 -0.5000E+12
   -0.807511    4.11866  0.0000E+00  0.3727E-06  0.6497E-10  0.6652E-03  0.0000E+00 -0.5012E+12
   -0.850013    4.11890  0.0000E+00  0.3727E-06  0.6568E-10  0.6583E-03  0.0000E+00 -0.5048E+12
   -0.892515    4.11914  0.0000E+00  0.3726E-06  0.6648E-10  0.6506E-03  0.0000E+00 -0.5075E+12
   -0.935017    4.11939  0.0000E+00  0.3725E-06  0.6738E-10  0.6422E-03  0.0000E+00 -0.5106E+12
   -0.977519    4.11964  0.0000E+00  0.3724E-06  0.6836E-10  0.6668E-03  0.0000E+00 -0.4692E+12
   -1.020021    4.11987  0.0000E+00  0.3722E-06  0.6944E-10  0.6168E-03  0.0000E+00 -0.5455E+12
   -1.062523    4.12012  0.0000E+00  0.3719E-06  0.7064E-10  0.6485E-03  0.0000E+00 -0.4795E+12
   -1.105025    4.12036  0.0000E+00  0.3716E-06  0.7197E-10  0.5925E-03  0.0000E+00 -0.5605E+12
   -1.147526    4.12062  0.0000E+00  0.3713E-06  0.7342E-10  0.6262E-03  0.0000E+00 -0.4922E+12
   -1.190028    4.12086  0.0000E+00  0.3709E-06  0.7501E-10  0.5658E-03  0.0000E+00 -0.5801E+12
   -1.232529    4.12113  0.0000E+00  0.3705E-06  0.7690E-10  0.5593E-03  0.0000E+00 -0.5681E+12
   -1.275030    4.12140  0.0000E+00  0.3700E-06  0.7922E-10  0.5438E-03  0.0000E+00 -0.5814E+12
   -1.317531    4.12168  0.0000E+00  0.3694E-06  0.8209E-10  0.5238E-03  0.0000E+00 -0.6017E+12
   -1.360032    4.12196  0.0000E+00  0.3687E-06  0.8569E-10  0.5535E-03  0.0000E+00 -0.5518E+12
   -1.402532    4.12223  0.0000E+00  0.3679E-06  0.9043E-10  0.4557E-03  0.0000E+00 -0.7046E+12
   -1.445032    4.12256  0.0000E+00  0.3670E-06  0.9608E-10  0.4975E-03  0.0000E+00 -0.6160E+12
   -1.487532    4.12285  0.0000E+00  0.3660E-06  0.1033E-09  0.3984E-03  0.0000E+00 -0.7992E+12
   -1.530031    4.12322  0.0000E+00  0.3647E-06  0.1144E-09  0.3721E-03  0.0000E+00 -0.8451E+12
   -1.572531    4.12362  0.0000E+00  0.3622E-06  0.1386E-09  0.3189E-03  0.0000E+00 -0.1001E+13
   -1.615029    4.12408  0.0000E+00  0.3535E-06  0.2346E-09  0.2139E-03  0.0000E+00 -0.1502E+13
   -1.657528    4.12479  0.0000E+00  0.2517E-06  0.1582E-08  0.5153E-05  0.0000E+00 -0.6958E+14
   -1.700026    4.15394  0.0000E+00  0.0000E+00  0.0000E+00  0.0000E+00  0.0000E+00  0.0000E+00
