 1 - depth, m
 2 - temperature, C
 3 - salinity, kg/kg
 4 - turbulent kinetic energy, m**2/s**2
 5 - dissipation rate, m**2/s**3
 6 - kinematic heat conductance, m**2/s
 7 - modulus of horizontal velocity, m/s
 8 - Richardson number, n/d
   -0.000000    0.00000  0.0000E+00  0.3189E-13  0.5207E-16  0.1000E-09  0.0000E+00  0.1193E+17
   -0.042497    0.18344  0.0000E+00  0.3189E-13  0.5207E-16  0.1000E-09  0.0000E+00  0.1174E+17
   -0.084995    0.37375  0.0000E+00  0.3189E-13  0.5207E-16  0.1000E-09  0.0000E+00  0.1143E+17
   -0.127493    0.56987  0.0000E+00  0.3189E-13  0.5207E-16  0.1000E-09  0.0000E+00  0.1051E+17
   -0.169991    0.76123  0.0000E+00  0.3189E-13  0.5207E-16  0.1000E-09  0.0000E+00  0.9616E+16
   -0.212490    0.94751  0.0000E+00  0.3189E-13  0.5207E-16  0.1000E-09  0.0000E+00  0.8745E+16
   -0.254989    1.12800  0.0000E+00  0.9786E-13  0.5207E-16  0.1000E-09  0.0000E+00  0.7904E+16
   -0.297488    1.30209  0.0000E+00  0.2989E-12  0.5397E-16  0.1000E-09  0.0000E+00  0.7140E+16
   -0.339988    1.47017  0.0000E+00  0.6430E-12  0.7843E-16  0.1000E-09  0.0000E+00  0.6468E+16
   -0.382488    1.63325  0.0000E+00  0.1198E-11  0.1262E-15  0.1000E-09  0.0000E+00  0.5836E+16
   -0.424988    1.79119  0.0000E+00  0.2085E-11  0.2063E-15  0.1000E-09  0.0000E+00  0.5291E+16
   -0.467488    1.94532  0.0000E+00  0.3510E-11  0.3360E-15  0.1000E-09  0.0000E+00  0.4775E+16
   -0.509989    2.09556  0.0000E+00  0.5814E-11  0.5443E-15  0.1000E-09  0.0000E+00  0.4355E+16
   -0.552489    2.24422  0.0000E+00  0.9554E-11  0.8783E-15  0.1000E-09  0.0000E+00  0.3958E+16
   -0.594990    2.39169  0.0000E+00  0.1562E-10  0.1412E-14  0.1000E-09  0.0000E+00  0.3565E+16
   -0.637491    2.53768  0.0000E+00  0.2566E-10  0.2284E-14  0.1000E-09  0.0000E+00  0.3172E+16
   -0.679992    2.68156  0.0000E+00  0.4227E-10  0.3704E-14  0.1000E-09  0.0000E+00  0.2790E+16
   -0.722493    2.82307  0.0000E+00  0.6983E-10  0.6026E-14  0.1000E-09  0.0000E+00  0.2414E+16
   -0.764994    2.96151  0.0000E+00  0.1157E-09  0.9837E-14  0.1000E-09  0.0000E+00  0.2052E+16
   -0.807496    3.09627  0.0000E+00  0.1919E-09  0.1607E-13  0.1000E-09  0.0000E+00  0.1719E+16
   -0.849997    3.22763  0.0000E+00  0.3151E-09  0.2600E-13  0.1000E-09  0.0000E+00  0.1408E+16
   -0.892498    3.35556  0.0000E+00  0.5159E-09  0.4195E-13  0.1160E-09  0.0000E+00  0.1138E+16
   -0.934999    3.48248  0.0000E+00  0.8367E-09  0.6707E-13  0.2380E-09  0.0000E+00  0.8870E+15
   -0.977500    3.61030  0.0000E+00  0.1349E-08  0.1066E-12  0.5319E-09  0.0000E+00  0.6310E+15
   -1.020002    3.73889  0.0000E+00  0.2164E-08  0.1686E-12  0.1435E-08  0.0000E+00  0.3698E+15
   -1.062503    3.86738  0.0000E+00  0.3441E-08  0.2645E-12  0.7519E-08  0.0000E+00  0.1107E+15
   -1.105004    3.99118  0.0000E+00  0.3856E-08  0.2979E-12  0.1605E-04  0.0000E+00 -0.9698E+11
   -1.147504    3.99232  0.0000E+00  0.4068E-08  0.3178E-12  0.1814E-04  0.0000E+00 -0.1037E+12
   -1.190005    3.99334  0.0000E+00  0.4257E-08  0.3385E-12  0.1985E-04  0.0000E+00 -0.1103E+12
   -1.232505    3.99428  0.0000E+00  0.4432E-08  0.3610E-12  0.2147E-04  0.0000E+00 -0.1169E+12
   -1.275006    3.99517  0.0000E+00  0.4594E-08  0.3859E-12  0.2285E-04  0.0000E+00 -0.1236E+12
   -1.317506    3.99602  0.0000E+00  0.4743E-08  0.4140E-12  0.2325E-04  0.0000E+00 -0.1330E+12
   -1.360006    3.99686  0.0000E+00  0.4881E-08  0.4472E-12  0.2289E-04  0.0000E+00 -0.1471E+12
   -1.402505    3.99771  0.0000E+00  0.5013E-08  0.4895E-12  0.2188E-04  0.0000E+00 -0.1670E+12
   -1.445005    3.99861  0.0000E+00  0.5122E-08  0.5400E-12  0.2000E-04  0.0000E+00 -0.1980E+12
   -1.487504    3.99960  0.0000E+00  0.5199E-08  0.6023E-12  0.1789E-04  0.0000E+00 -0.2409E+12
   -1.530002    4.00071  0.0000E+00  0.5239E-08  0.6984E-12  0.1513E-04  0.0000E+00 -0.3168E+12
   -1.572501    4.00205  0.0000E+00  0.5213E-08  0.9156E-12  0.1076E-04  0.0000E+00 -0.5358E+12
   -1.614999    4.00409  0.0000E+00  0.4893E-08  0.1830E-11  0.3688E-05  0.0000E+00 -0.2093E+13
   -1.657496    4.01046  0.0000E+00  0.3744E-08  0.5638E-11  0.5621E-06  0.0000E+00 -0.2779E+14
   -1.699994    4.05059  0.0000E+00  0.0000E+00  0.0000E+00  0.0000E+00  0.0000E+00  0.0000E+00
