 1 - depth, m
 2 - temperature, C
 3 - salinity, kg/kg
 4 - turbulent kinetic energy, m**2/s**2
 5 - dissipation rate, m**2/s**3
 6 - kinematic heat conductance, m**2/s
 7 - modulus of horizontal velocity, m/s
 8 - Richardson number, n/d
   -0.000000    0.00000  0.0000E+00  0.8509E-12  0.2021E-15  0.1000E-09  0.0000E+00  0.1763E+17
   -0.042497    0.27452  0.0000E+00  0.1345E-11  0.1833E-15  0.1000E-09  0.0000E+00  0.1621E+17
   -0.084994    0.54758  0.0000E+00  0.2309E-11  0.2206E-15  0.1000E-09  0.0000E+00  0.1479E+17
   -0.127491    0.81850  0.0000E+00  0.3856E-11  0.3074E-15  0.1000E-09  0.0000E+00  0.1303E+17
   -0.169989    1.07925  0.0000E+00  0.6228E-11  0.4541E-15  0.1000E-09  0.0000E+00  0.1142E+17
   -0.212487    1.32987  0.0000E+00  0.9835E-11  0.6834E-15  0.1000E-09  0.0000E+00  0.9957E+16
   -0.254985    1.57044  0.0000E+00  0.1533E-10  0.1034E-14  0.1000E-09  0.0000E+00  0.8616E+16
   -0.297484    1.80080  0.0000E+00  0.2371E-10  0.1565E-14  0.1000E-09  0.0000E+00  0.7392E+16
   -0.339983    2.02069  0.0000E+00  0.3622E-10  0.2348E-14  0.1000E-09  0.0000E+00  0.6282E+16
   -0.382482    2.22984  0.0000E+00  0.5490E-10  0.3504E-14  0.1000E-09  0.0000E+00  0.5286E+16
   -0.424982    2.42812  0.0000E+00  0.8258E-10  0.5190E-14  0.1000E-09  0.0000E+00  0.4405E+16
   -0.467481    2.61571  0.0000E+00  0.1234E-09  0.7640E-14  0.1000E-09  0.0000E+00  0.3625E+16
   -0.509981    2.79253  0.0000E+00  0.1836E-09  0.1120E-13  0.1000E-09  0.0000E+00  0.2979E+16
   -0.552481    2.96090  0.0000E+00  0.2724E-09  0.1638E-13  0.1000E-09  0.0000E+00  0.2408E+16
   -0.594981    3.12112  0.0000E+00  0.4032E-09  0.2389E-13  0.1000E-09  0.0000E+00  0.1904E+16
   -0.637482    3.27325  0.0000E+00  0.5998E-09  0.3501E-13  0.1000E-09  0.0000E+00  0.1462E+16
   -0.679982    3.41739  0.0000E+00  0.8950E-09  0.5147E-13  0.1509E-09  0.0000E+00  0.1074E+16
   -0.722483    3.55314  0.0000E+00  0.1340E-08  0.7591E-13  0.3237E-09  0.0000E+00  0.7390E+15
   -0.764983    3.67998  0.0000E+00  0.2012E-08  0.1123E-12  0.7766E-09  0.0000E+00  0.4564E+15
   -0.807484    3.79710  0.0000E+00  0.3022E-08  0.1663E-12  0.2313E-08  0.0000E+00  0.2275E+15
   -0.849984    3.90371  0.0000E+00  0.4480E-08  0.2432E-12  0.1473E-07  0.0000E+00  0.5316E+14
   -0.892485    3.99344  0.0000E+00  0.4733E-08  0.2575E-12  0.3227E-04  0.0000E+00 -0.4724E+11
   -0.934986    3.99387  0.0000E+00  0.4854E-08  0.2653E-12  0.3402E-04  0.0000E+00 -0.4740E+11
   -0.977486    3.99427  0.0000E+00  0.4963E-08  0.2730E-12  0.3514E-04  0.0000E+00 -0.4833E+11
   -1.019987    3.99466  0.0000E+00  0.5063E-08  0.2811E-12  0.3593E-04  0.0000E+00 -0.4954E+11
   -1.062487    3.99503  0.0000E+00  0.5154E-08  0.2895E-12  0.3641E-04  0.0000E+00 -0.5114E+11
   -1.104987    3.99541  0.0000E+00  0.5239E-08  0.2984E-12  0.3659E-04  0.0000E+00 -0.5302E+11
   -1.147488    3.99577  0.0000E+00  0.5313E-08  0.3075E-12  0.3658E-04  0.0000E+00 -0.5507E+11
   -1.189988    3.99614  0.0000E+00  0.5379E-08  0.3171E-12  0.3642E-04  0.0000E+00 -0.5757E+11
   -1.232487    3.99651  0.0000E+00  0.5438E-08  0.3278E-12  0.3613E-04  0.0000E+00 -0.6103E+11
   -1.274987    3.99689  0.0000E+00  0.5491E-08  0.3401E-12  0.3565E-04  0.0000E+00 -0.6502E+11
   -1.317487    3.99728  0.0000E+00  0.5538E-08  0.3548E-12  0.3484E-04  0.0000E+00 -0.6917E+11
   -1.359986    3.99768  0.0000E+00  0.5580E-08  0.3731E-12  0.3367E-04  0.0000E+00 -0.7466E+11
   -1.402485    3.99809  0.0000E+00  0.5617E-08  0.3977E-12  0.3203E-04  0.0000E+00 -0.8183E+11
   -1.444984    3.99853  0.0000E+00  0.5644E-08  0.4302E-12  0.2936E-04  0.0000E+00 -0.9328E+11
   -1.487482    3.99901  0.0000E+00  0.5657E-08  0.4753E-12  0.2485E-04  0.0000E+00 -0.1159E+12
   -1.529980    3.99959  0.0000E+00  0.5646E-08  0.5502E-12  0.1992E-04  0.0000E+00 -0.1578E+12
   -1.572478    4.00033  0.0000E+00  0.5576E-08  0.7277E-12  0.1390E-04  0.0000E+00 -0.2798E+12
   -1.614975    4.00156  0.0000E+00  0.5181E-08  0.1533E-11  0.4411E-05  0.0000E+00 -0.1204E+13
   -1.657472    4.00598  0.0000E+00  0.3760E-08  0.5307E-11  0.5438E-06  0.0000E+00 -0.2153E+14
   -1.699969    4.04232  0.0000E+00  0.0000E+00  0.0000E+00  0.0000E+00  0.0000E+00  0.0000E+00
