 1 - depth, m
 2 - temperature, C
 3 - salinity, kg/kg
 4 - turbulent kinetic energy, m**2/s**2
 5 - dissipation rate, m**2/s**3
 6 - kinematic heat conductance, m**2/s
 7 - modulus of horizontal velocity, m/s
 8 - Richardson number, n/d
   -0.000000    0.00000  0.0000E+00  0.3189E-13  0.5206E-16  0.1000E-09  0.0000E+00  0.7877E+16
   -0.042497    0.12010  0.0000E+00  0.3189E-13  0.5206E-16  0.1000E-09  0.0000E+00  0.7983E+16
   -0.084995    0.24601  0.0000E+00  0.3189E-13  0.5206E-16  0.1000E-09  0.0000E+00  0.8020E+16
   -0.127493    0.37722  0.0000E+00  0.3189E-13  0.5206E-16  0.1000E-09  0.0000E+00  0.7689E+16
   -0.169992    0.50795  0.0000E+00  0.3189E-13  0.5206E-16  0.1000E-09  0.0000E+00  0.7355E+16
   -0.212491    0.63806  0.0000E+00  0.3189E-13  0.5206E-16  0.1000E-09  0.0000E+00  0.7015E+16
   -0.254990    0.76736  0.0000E+00  0.3189E-13  0.5206E-16  0.1000E-09  0.0000E+00  0.6673E+16
   -0.297490    0.89563  0.0000E+00  0.3189E-13  0.5206E-16  0.1000E-09  0.0000E+00  0.6337E+16
   -0.339989    1.02287  0.0000E+00  0.3189E-13  0.5206E-16  0.1000E-09  0.0000E+00  0.6012E+16
   -0.382489    1.14912  0.0000E+00  0.3189E-13  0.5206E-16  0.1000E-09  0.0000E+00  0.5690E+16
   -0.424990    1.27428  0.0000E+00  0.3189E-13  0.5206E-16  0.1000E-09  0.0000E+00  0.5381E+16
   -0.467490    1.39847  0.0000E+00  0.3189E-13  0.5206E-16  0.1000E-09  0.0000E+00  0.5074E+16
   -0.509991    1.52157  0.0000E+00  0.3189E-13  0.5206E-16  0.1000E-09  0.0000E+00  0.4783E+16
   -0.552492    1.64377  0.0000E+00  0.3189E-13  0.5206E-16  0.1000E-09  0.0000E+00  0.4496E+16
   -0.594993    1.76500  0.0000E+00  0.3189E-13  0.5206E-16  0.1000E-09  0.0000E+00  0.4207E+16
   -0.637494    1.88502  0.0000E+00  0.3189E-13  0.5206E-16  0.1000E-09  0.0000E+00  0.3914E+16
   -0.679995    2.00343  0.0000E+00  0.3189E-13  0.5206E-16  0.1000E-09  0.0000E+00  0.3624E+16
   -0.722496    2.11997  0.0000E+00  0.3189E-13  0.5206E-16  0.1000E-09  0.0000E+00  0.3331E+16
   -0.764998    2.23415  0.0000E+00  0.3189E-13  0.5206E-16  0.1000E-09  0.0000E+00  0.3040E+16
   -0.807499    2.34549  0.0000E+00  0.3189E-13  0.5206E-16  0.1000E-09  0.0000E+00  0.2766E+16
   -0.850001    2.45398  0.0000E+00  0.3189E-13  0.5206E-16  0.1000E-09  0.0000E+00  0.2503E+16
   -0.892502    2.55947  0.0000E+00  0.3189E-13  0.5206E-16  0.1000E-09  0.0000E+00  0.2271E+16
   -0.935004    2.66261  0.0000E+00  0.3189E-13  0.5206E-16  0.1000E-09  0.0000E+00  0.2066E+16
   -0.977505    2.76413  0.0000E+00  0.3189E-13  0.5206E-16  0.1000E-09  0.0000E+00  0.1865E+16
   -1.020006    2.86383  0.0000E+00  0.3189E-13  0.5206E-16  0.1000E-09  0.0000E+00  0.1675E+16
   -1.062508    2.96172  0.0000E+00  0.3189E-13  0.5206E-16  0.1000E-09  0.0000E+00  0.1490E+16
   -1.105009    3.05764  0.0000E+00  0.3189E-13  0.5206E-16  0.1000E-09  0.0000E+00  0.1317E+16
   -1.147510    3.15168  0.0000E+00  0.3189E-13  0.5206E-16  0.1000E-09  0.0000E+00  0.1154E+16
   -1.190010    3.24393  0.0000E+00  0.3189E-13  0.5206E-16  0.1000E-09  0.0000E+00  0.9932E+15
   -1.232511    3.33384  0.0000E+00  0.3189E-13  0.5206E-16  0.1000E-09  0.0000E+00  0.8278E+15
   -1.275012    3.41971  0.0000E+00  0.5829E-13  0.5312E-16  0.1000E-09  0.0000E+00  0.6827E+15
   -1.317512    3.50196  0.0000E+00  0.2259E-12  0.1544E-15  0.1000E-09  0.0000E+00  0.5733E+15
   -1.360012    3.58392  0.0000E+00  0.8318E-12  0.5381E-15  0.1000E-09  0.0000E+00  0.4659E+15
   -1.402512    3.66574  0.0000E+00  0.3015E-11  0.1892E-14  0.1000E-09  0.0000E+00  0.3589E+15
   -1.445011    3.74726  0.0000E+00  0.1025E-10  0.6264E-14  0.1000E-09  0.0000E+00  0.2527E+15
   -1.487511    3.82825  0.0000E+00  0.3438E-10  0.2055E-13  0.4077E-09  0.0000E+00  0.1487E+15
   -1.530009    3.90866  0.0000E+00  0.1260E-09  0.7412E-13  0.4127E-08  0.0000E+00  0.4725E+14
   -1.572508    3.98746  0.0000E+00  0.5045E-09  0.3021E-12  0.3007E-06  0.0000E+00 -0.6167E+13
   -1.615006    4.01446  0.0000E+00  0.1083E-08  0.8711E-12  0.5079E-06  0.0000E+00 -0.1144E+14
   -1.657504    4.03377  0.0000E+00  0.1250E-08  0.1910E-11  0.2453E-06  0.0000E+00 -0.3643E+14
   -1.700001    4.06943  0.0000E+00  0.0000E+00  0.0000E+00  0.0000E+00  0.0000E+00  0.0000E+00
