 1 - depth, m
 2 - temperature, C
 3 - salinity, kg/kg
 4 - turbulent kinetic energy, m**2/s**2
 5 - dissipation rate, m**2/s**3
 6 - kinematic heat conductance, m**2/s
 7 - modulus of horizontal velocity, m/s
 8 - Richardson number, n/d
   -0.000000    9.69819  0.0000E+00  0.2231E-03  0.1249E-03  0.6351E-04  0.1356E+00  0.5962E-02
   -0.042497    9.76052  0.0000E+00  0.1205E-03  0.3982E-04  0.1340E-03  0.3267E-01  0.4379E-02
   -0.084995    9.77280  0.0000E+00  0.8685E-04  0.2022E-04  0.1227E-03  0.2211E-01 -0.3685E-01
   -0.127493    9.78237  0.0000E+00  0.6529E-04  0.1077E-04  0.1152E-03  0.1734E-01 -0.6919E-01
   -0.169992    9.79022  0.0000E+00  0.4959E-04  0.5564E-05  0.1124E-03  0.1390E-01  0.9809E+00
   -0.212491    9.79736  0.0000E+00  0.3789E-04  0.3030E-05  0.1129E-03  0.1115E-01  0.7161E+00
   -0.254990    9.80391  0.0000E+00  0.2916E-04  0.1650E-05  0.1182E-03  0.9006E-02  0.3903E+01
   -0.297489    9.80991  0.0000E+00  0.2291E-04  0.9658E-06  0.1340E-03  0.7375E-02  0.9132E+01
   -0.339989    9.81507  0.0000E+00  0.1849E-04  0.6014E-06  0.1507E-03  0.6117E-02  0.1054E+03
   -0.382489    9.81952  0.0000E+00  0.1527E-04  0.3945E-06  0.1727E-03  0.5091E-02  0.1928E+02
   -0.424989    9.82324  0.0000E+00  0.1294E-04  0.2699E-06  0.1990E-03  0.4285E-02  0.3247E+02
   -0.467489    9.82639  0.0000E+00  0.1120E-04  0.1905E-06  0.2283E-03  0.3599E-02  0.3445E+02
   -0.509990    9.82907  0.0000E+00  0.9862E-05  0.1380E-06  0.2591E-03  0.3010E-02  0.2139E+03
   -0.552491    9.83140  0.0000E+00  0.8813E-05  0.1024E-06  0.2894E-03  0.2502E-02  0.1468E+02
   -0.594992    9.83344  0.0000E+00  0.7974E-05  0.7757E-07  0.3246E-03  0.2059E-02  0.1264E+02
   -0.637493    9.83523  0.0000E+00  0.7286E-05  0.5981E-07  0.3613E-03  0.1681E-02  0.5438E+01
   -0.679994    9.83680  0.0000E+00  0.6723E-05  0.4695E-07  0.3996E-03  0.1375E-02  0.3054E+01
   -0.722495    9.83818  0.0000E+00  0.6259E-05  0.3749E-07  0.4334E-03  0.1127E-02  0.7954E+01
   -0.764997    9.83942  0.0000E+00  0.5879E-05  0.3047E-07  0.4679E-03  0.9306E-03  0.3688E+01
   -0.807498    9.84054  0.0000E+00  0.5566E-05  0.2519E-07  0.4946E-03  0.7807E-03  0.5089E+02
   -0.849999    9.84157  0.0000E+00  0.5312E-05  0.2124E-07  0.5191E-03  0.6609E-03  0.1408E+02
   -0.892501    9.84252  0.0000E+00  0.5104E-05  0.1825E-07  0.5417E-03  0.5644E-03  0.3084E+02
   -0.935002    9.84342  0.0000E+00  0.4937E-05  0.1602E-07  0.5612E-03  0.4867E-03  0.1491E+01
   -0.977503    9.84426  0.0000E+00  0.4801E-05  0.1432E-07  0.5777E-03  0.4216E-03  0.3672E+01
   -1.020005    9.84506  0.0000E+00  0.4689E-05  0.1302E-07  0.5924E-03  0.3670E-03  0.1701E+02
   -1.062506    9.84582  0.0000E+00  0.4596E-05  0.1202E-07  0.6045E-03  0.3200E-03  0.1864E+01
   -1.105007    9.84655  0.0000E+00  0.4517E-05  0.1126E-07  0.6134E-03  0.2793E-03  0.2431E+01
   -1.147508    9.84726  0.0000E+00  0.4450E-05  0.1068E-07  0.6190E-03  0.2425E-03  0.1891E+01
   -1.190009    9.84795  0.0000E+00  0.4391E-05  0.1026E-07  0.6207E-03  0.2082E-03  0.2041E+01
   -1.232509    9.84862  0.0000E+00  0.4338E-05  0.9947E-08  0.6192E-03  0.1767E-03  0.2239E+01
   -1.275010    9.84929  0.0000E+00  0.4289E-05  0.9743E-08  0.6138E-03  0.1499E-03  0.2737E+01
   -1.317510    9.84996  0.0000E+00  0.4241E-05  0.9640E-08  0.6040E-03  0.1274E-03  0.3471E+01
   -1.360010    9.85063  0.0000E+00  0.4193E-05  0.9640E-08  0.5888E-03  0.1085E-03  0.4514E+01
   -1.402510    9.85131  0.0000E+00  0.4140E-05  0.9767E-08  0.5673E-03  0.9281E-04  0.6378E+01
   -1.445009    9.85201  0.0000E+00  0.4087E-05  0.1005E-07  0.5393E-03  0.7891E-04  0.9216E+01
   -1.487508    9.85274  0.0000E+00  0.4033E-05  0.1055E-07  0.5088E-03  0.6567E-04  0.1100E+02
   -1.530007    9.85351  0.0000E+00  0.3967E-05  0.1155E-07  0.4491E-03  0.5301E-04 -0.3510E+02
   -1.572505    9.85440  0.0000E+00  0.3860E-05  0.1399E-07  0.4348E-03  0.4121E-04  0.2540E+02
   -1.615004    9.85528  0.0000E+00  0.3514E-05  0.2560E-07  0.2349E-03  0.3378E-04 -0.3664E+06
   -1.657501    9.85898  0.0000E+00  0.2293E-05  0.8317E-07  0.3908E-04  0.2336E-04 -0.1619E+05
   -1.699999    9.87119  0.0000E+00  0.0000E+00  0.0000E+00  0.0000E+00  0.2647E-04  0.0000E+00
