 1 - depth, m
 2 - temperature, C
 3 - salinity, kg/kg
 4 - turbulent kinetic energy, m**2/s**2
 5 - dissipation rate, m**2/s**3
 6 - kinematic heat conductance, m**2/s
 7 - modulus of horizontal velocity, m/s
 8 - Richardson number, n/d
   -0.000000    0.00000  0.0000E+00  0.2146E-05  0.1060E-06  0.4186E-05  0.4840E-02  0.4530E+16
   -0.042496    0.08170  0.0000E+00  0.1338E-05  0.3184E-07  0.5392E-05  0.2472E-02  0.2686E+16
   -0.084992    0.13066  0.0000E+00  0.8116E-06  0.1229E-07  0.5100E-05  0.1422E-02  0.1895E+16
   -0.127489    0.16795  0.0000E+00  0.4730E-06  0.5098E-08  0.4090E-05  0.8292E-03  0.1544E+16
   -0.169986    0.20095  0.0000E+00  0.2584E-06  0.2115E-08  0.2795E-05  0.4685E-03  0.1552E+16
   -0.212483    0.23713  0.0000E+00  0.1252E-06  0.8126E-09  0.1550E-05  0.2433E-03  0.1545E+16
   -0.254981    0.27680  0.0000E+00  0.4921E-07  0.2640E-09  0.5981E-06  0.1119E-03  0.1454E+16
   -0.297479    0.31908  0.0000E+00  0.1182E-07  0.5728E-10  0.7377E-07  0.4481E-04  0.1650E+16
   -0.339977    0.37421  0.0000E+00  0.1325E-08  0.6335E-11  0.2763E-08  0.1222E-04  0.2256E+16
   -0.382476    0.45515  0.0000E+00  0.1084E-09  0.5245E-12  0.2865E-09  0.2179E-05  0.2657E+16
   -0.424975    0.54655  0.0000E+00  0.8467E-11  0.4159E-13  0.1054E-09  0.4783E-06  0.3403E+16
   -0.467473    0.65813  0.0000E+00  0.6736E-12  0.3283E-14  0.1000E-09  0.1021E-06  0.3989E+16
   -0.509973    0.78473  0.0000E+00  0.7577E-13  0.2936E-15  0.1000E-09  0.2019E-07  0.4625E+16
   -0.552472    0.92984  0.0000E+00  0.3291E-13  0.6675E-16  0.1000E-09  0.3794E-08  0.5214E+16
   -0.594971    1.09247  0.0000E+00  0.3189E-13  0.5230E-16  0.1000E-09  0.5799E-09  0.5538E+16
   -0.637471    1.26235  0.0000E+00  0.3189E-13  0.5207E-16  0.1000E-09  0.6764E-10  0.5423E+16
   -0.679971    1.42143  0.0000E+00  0.3189E-13  0.5207E-16  0.1000E-09  0.7401E-11  0.5322E+16
   -0.722471    1.56526  0.0000E+00  0.3986E-13  0.5268E-16  0.1000E-09  0.6963E-12  0.4437E+16
   -0.764970    1.68052  0.0000E+00  0.7637E-13  0.6589E-16  0.1000E-09  0.6044E-13  0.2888E+16
   -0.807470    1.75893  0.0000E+00  0.2119E-12  0.1182E-15  0.1000E-09  0.5979E-14  0.2000E+16
   -0.849970    1.81500  0.0000E+00  0.6102E-12  0.2832E-15  0.1000E-09  0.6232E-15  0.1425E+16
   -0.892470    1.85595  0.0000E+00  0.1769E-11  0.7644E-15  0.1000E-09  0.6629E-16  0.1226E+16
   -0.934970    1.89199  0.0000E+00  0.5006E-11  0.2087E-14  0.1000E-09  0.8198E-17  0.1693E+16
   -0.977470    1.94290  0.0000E+00  0.1397E-10  0.5673E-14  0.1000E-09  0.9620E-18  0.2112E+16
   -1.019970    2.00836  0.0000E+00  0.3842E-10  0.1521E-13  0.1000E-09  0.1303E-18  0.2874E+16
   -1.062470    2.10116  0.0000E+00  0.1044E-09  0.4031E-13  0.1025E-09  0.1701E-19  0.3575E+16
   -1.104969    2.22374  0.0000E+00  0.2806E-09  0.1057E-12  0.1295E-09  0.2688E-20  0.4455E+16
   -1.147469    2.39024  0.0000E+00  0.7398E-09  0.2721E-12  0.2048E-09  0.4886E-21  0.5240E+16
   -1.189968    2.61313  0.0000E+00  0.1933E-08  0.6944E-12  0.4565E-09  0.6500E-22  0.5372E+16
   -1.232467    2.89211  0.0000E+00  0.5186E-08  0.1821E-11  0.1538E-08  0.4926E-23  0.4513E+16
   -1.274966    3.21478  0.0000E+00  0.1329E-07  0.4583E-11  0.1321E-06  0.3343E-24  0.3120E+16
   -1.317465    3.57542  0.0000E+00  0.2094E-07  0.7345E-11  0.1281E-04  0.1974E-25  0.1731E+16
   -1.359963    3.85903  0.0000E+00  0.2770E-07  0.1001E-10  0.2350E-04  0.1000E-26  0.5524E+15
   -1.402462    4.02974  0.0000E+00  0.3200E-07  0.1195E-10  0.3300E-04  0.5590E-28  0.2395E+14
   -1.444960    4.06034  0.0000E+00  0.3411E-07  0.1318E-10  0.3604E-04  0.6333E-29 -0.2888E+13
   -1.487457    4.06292  0.0000E+00  0.3537E-07  0.1431E-10  0.3538E-04  0.2121E-29 -0.3103E+13
   -1.529955    4.06557  0.0000E+00  0.3622E-07  0.1586E-10  0.3339E-04  0.5177E-30 -0.3542E+13
   -1.572452    4.06849  0.0000E+00  0.3671E-07  0.1897E-10  0.2913E-04  0.9535E-31 -0.4813E+13
   -1.614948    4.07231  0.0000E+00  0.3626E-07  0.3058E-10  0.1475E-04  0.1972E-31 -0.1189E+14
   -1.657445    4.08107  0.0000E+00  0.2974E-07  0.8982E-10  0.2346E-05  0.2678E-32 -0.1158E+15
   -1.699941    4.14101  0.0000E+00  0.0000E+00  0.0000E+00  0.0000E+00  0.2725E-32  0.0000E+00
