 1 - depth, m
 2 - temperature, C
 3 - salinity, kg/kg
 4 - turbulent kinetic energy, m**2/s**2
 5 - dissipation rate, m**2/s**3
 6 - kinematic heat conductance, m**2/s
 7 - modulus of horizontal velocity, m/s
 8 - Richardson number, n/d
   -0.000000    0.00000  0.0000E+00  0.3189E-13  0.5207E-16  0.1000E-09  0.0000E+00  0.1267E+17
   -0.042497    0.19523  0.0000E+00  0.3189E-13  0.5207E-16  0.1000E-09  0.0000E+00  0.1230E+17
   -0.084995    0.39545  0.0000E+00  0.3189E-13  0.5207E-16  0.1000E-09  0.0000E+00  0.1183E+17
   -0.127493    0.59999  0.0000E+00  0.3189E-13  0.5207E-16  0.1000E-09  0.0000E+00  0.1096E+17
   -0.169991    0.80183  0.0000E+00  0.3189E-13  0.5207E-16  0.1000E-09  0.0000E+00  0.1010E+17
   -0.212490    1.00059  0.0000E+00  0.3189E-13  0.5207E-16  0.1000E-09  0.0000E+00  0.9254E+16
   -0.254989    1.19578  0.0000E+00  0.3189E-13  0.5207E-16  0.1000E-09  0.0000E+00  0.8426E+16
   -0.297488    1.38687  0.0000E+00  0.3189E-13  0.5207E-16  0.1000E-09  0.0000E+00  0.7624E+16
   -0.339988    1.57338  0.0000E+00  0.3189E-13  0.5207E-16  0.1000E-09  0.0000E+00  0.6857E+16
   -0.382488    1.75497  0.0000E+00  0.1017E-12  0.5207E-16  0.1000E-09  0.0000E+00  0.6123E+16
   -0.424988    1.93117  0.0000E+00  0.3031E-12  0.5514E-16  0.1000E-09  0.0000E+00  0.5437E+16
   -0.467488    2.10189  0.0000E+00  0.6486E-12  0.7911E-16  0.1000E-09  0.0000E+00  0.4792E+16
   -0.509989    2.26682  0.0000E+00  0.1204E-11  0.1264E-15  0.1000E-09  0.0000E+00  0.4212E+16
   -0.552489    2.42655  0.0000E+00  0.2098E-11  0.2065E-15  0.1000E-09  0.0000E+00  0.3673E+16
   -0.594990    2.58101  0.0000E+00  0.3545E-11  0.3375E-15  0.1000E-09  0.0000E+00  0.3169E+16
   -0.637491    2.72981  0.0000E+00  0.5954E-11  0.5543E-15  0.1000E-09  0.0000E+00  0.2696E+16
   -0.679992    2.87230  0.0000E+00  0.9968E-11  0.9117E-15  0.1000E-09  0.0000E+00  0.2260E+16
   -0.722493    3.00790  0.0000E+00  0.1670E-10  0.1503E-14  0.1000E-09  0.0000E+00  0.1856E+16
   -0.764995    3.13558  0.0000E+00  0.2802E-10  0.2484E-14  0.1000E-09  0.0000E+00  0.1489E+16
   -0.807496    3.25418  0.0000E+00  0.4703E-10  0.4107E-14  0.1000E-09  0.0000E+00  0.1174E+16
   -0.849997    3.36363  0.0000E+00  0.7814E-10  0.6727E-14  0.1000E-09  0.0000E+00  0.9039E+15
   -0.892498    3.46347  0.0000E+00  0.1294E-09  0.1098E-13  0.1000E-09  0.0000E+00  0.6974E+15
   -0.935000    3.55620  0.0000E+00  0.2123E-09  0.1776E-13  0.1057E-09  0.0000E+00  0.5355E+15
   -0.977501    3.64419  0.0000E+00  0.3463E-09  0.2856E-13  0.2283E-09  0.0000E+00  0.3929E+15
   -1.020002    3.72722  0.0000E+00  0.5616E-09  0.4568E-13  0.5298E-09  0.0000E+00  0.2706E+15
   -1.062503    3.80546  0.0000E+00  0.9055E-09  0.7263E-13  0.1369E-08  0.0000E+00  0.1665E+15
   -1.105004    3.87903  0.0000E+00  0.1452E-08  0.1149E-12  0.4575E-08  0.0000E+00  0.7872E+14
   -1.147505    3.94791  0.0000E+00  0.2259E-08  0.1768E-12  0.5243E-07  0.0000E+00  0.1043E+14
   -1.190006    3.99829  0.0000E+00  0.2572E-08  0.2023E-12  0.1522E-04  0.0000E+00 -0.1189E+12
   -1.232506    3.99891  0.0000E+00  0.2719E-08  0.2164E-12  0.1506E-04  0.0000E+00 -0.1194E+12
   -1.275006    3.99950  0.0000E+00  0.2850E-08  0.2316E-12  0.1467E-04  0.0000E+00 -0.1220E+12
   -1.317506    4.00008  0.0000E+00  0.2969E-08  0.2488E-12  0.1459E-04  0.0000E+00 -0.1291E+12
   -1.360006    4.00066  0.0000E+00  0.3075E-08  0.2695E-12  0.1420E-04  0.0000E+00 -0.1400E+12
   -1.402506    4.00127  0.0000E+00  0.3173E-08  0.2957E-12  0.1341E-04  0.0000E+00 -0.1566E+12
   -1.445005    4.00193  0.0000E+00  0.3249E-08  0.3271E-12  0.1230E-04  0.0000E+00 -0.1803E+12
   -1.487504    4.00265  0.0000E+00  0.3300E-08  0.3670E-12  0.1094E-04  0.0000E+00 -0.2164E+12
   -1.530003    4.00347  0.0000E+00  0.3327E-08  0.4310E-12  0.9182E-05  0.0000E+00 -0.2894E+12
   -1.572501    4.00452  0.0000E+00  0.3311E-08  0.5791E-12  0.6687E-05  0.0000E+00 -0.5251E+12
   -1.614999    4.00627  0.0000E+00  0.3085E-08  0.1179E-11  0.2286E-05  0.0000E+00 -0.2193E+13
   -1.657497    4.01236  0.0000E+00  0.2410E-08  0.3367E-11  0.4048E-06  0.0000E+00 -0.2491E+14
   -1.699994    4.04844  0.0000E+00  0.0000E+00  0.0000E+00  0.0000E+00  0.0000E+00  0.0000E+00
