 1 - depth, m
 2 - temperature, C
 3 - salinity, kg/kg
 4 - turbulent kinetic energy, m**2/s**2
 5 - dissipation rate, m**2/s**3
 6 - kinematic heat conductance, m**2/s
 7 - modulus of horizontal velocity, m/s
 8 - Richardson number, n/d
   -0.000000   14.32832  0.0000E+00  0.1270E-03  0.5363E-04  0.5810E-04  0.1042E+00  0.1317E-01
   -0.042497   14.42931  0.0000E+00  0.6810E-04  0.1483E-04  0.8117E-04  0.2801E-01 -0.9837E-01
   -0.084995   14.44917  0.0000E+00  0.4723E-04  0.6261E-05  0.8355E-04  0.1855E-01 -0.1045E+00
   -0.127493   14.46408  0.0000E+00  0.3479E-04  0.3008E-05  0.9096E-04  0.1406E-01  0.1610E+01
   -0.169991   14.47583  0.0000E+00  0.2623E-04  0.1513E-05  0.1034E-03  0.1087E-01  0.1683E+02
   -0.212490   14.48578  0.0000E+00  0.2015E-04  0.7911E-06  0.1221E-03  0.8410E-02  0.1877E+02
   -0.254989   14.49425  0.0000E+00  0.1593E-04  0.4366E-06  0.1492E-03  0.6560E-02  0.6241E+01
   -0.297489   14.50132  0.0000E+00  0.1311E-04  0.2561E-06  0.1911E-03  0.5218E-02  0.2431E+02
   -0.339988   14.50706  0.0000E+00  0.1131E-04  0.1619E-06  0.2556E-03  0.4225E-02  0.7702E+03
   -0.382488   14.51140  0.0000E+00  0.1019E-04  0.1107E-06  0.3227E-03  0.3480E-02  0.1075E+02
   -0.424988   14.51463  0.0000E+00  0.9523E-05  0.8175E-07  0.3767E-03  0.2923E-02  0.1183E+02
   -0.467489   14.51716  0.0000E+00  0.9130E-05  0.6433E-07  0.4312E-03  0.2463E-02  0.6393E+02
   -0.509989   14.51919  0.0000E+00  0.8908E-05  0.5322E-07  0.4796E-03  0.2075E-02  0.1777E+02
   -0.552490   14.52092  0.0000E+00  0.8783E-05  0.4555E-07  0.5211E-03  0.1741E-02  0.2762E+01
   -0.594991   14.52248  0.0000E+00  0.8711E-05  0.3990E-07  0.5627E-03  0.1444E-02  0.2169E+01
   -0.637492   14.52390  0.0000E+00  0.8666E-05  0.3555E-07  0.6138E-03  0.1186E-02  0.1914E+01
   -0.679993   14.52520  0.0000E+00  0.8638E-05  0.3218E-07  0.6714E-03  0.9729E-03  0.1731E+01
   -0.722494   14.52637  0.0000E+00  0.8619E-05  0.2959E-07  0.7380E-03  0.8002E-03  0.1542E+01
   -0.764995   14.52742  0.0000E+00  0.8605E-05  0.2760E-07  0.8066E-03  0.6658E-03  0.1385E+01
   -0.807496   14.52837  0.0000E+00  0.8592E-05  0.2608E-07  0.8619E-03  0.5644E-03  0.1301E+01
   -0.849998   14.52924  0.0000E+00  0.8578E-05  0.2496E-07  0.9018E-03  0.4858E-03  0.1244E+01
   -0.892499   14.53007  0.0000E+00  0.8561E-05  0.2415E-07  0.9288E-03  0.4238E-03  0.1187E+01
   -0.935000   14.53087  0.0000E+00  0.8539E-05  0.2357E-07  0.9445E-03  0.3744E-03  0.1177E+01
   -0.977502   14.53166  0.0000E+00  0.8512E-05  0.2320E-07  0.9512E-03  0.3338E-03  0.1144E+01
   -1.020003   14.53244  0.0000E+00  0.8481E-05  0.2299E-07  0.9507E-03  0.3001E-03  0.1166E+01
   -1.062504   14.53321  0.0000E+00  0.8443E-05  0.2292E-07  0.9440E-03  0.2713E-03  0.1164E+01
   -1.105005   14.53400  0.0000E+00  0.8401E-05  0.2298E-07  0.9321E-03  0.2462E-03  0.1236E+01
   -1.147506   14.53479  0.0000E+00  0.8352E-05  0.2317E-07  0.9153E-03  0.2234E-03  0.1319E+01
   -1.190006   14.53561  0.0000E+00  0.8295E-05  0.2350E-07  0.8923E-03  0.2020E-03  0.1474E+01
   -1.232507   14.53646  0.0000E+00  0.8227E-05  0.2402E-07  0.8643E-03  0.1817E-03  0.1663E+01
   -1.275007   14.53733  0.0000E+00  0.8140E-05  0.2481E-07  0.8228E-03  0.1630E-03  0.2228E+01
   -1.317507   14.53826  0.0000E+00  0.8031E-05  0.2600E-07  0.7838E-03  0.1455E-03  0.3055E+01
   -1.360007   14.53924  0.0000E+00  0.7888E-05  0.2789E-07  0.7114E-03  0.1293E-03  0.4818E+01
   -1.402507   14.54035  0.0000E+00  0.7693E-05  0.3100E-07  0.6709E-03  0.1139E-03  0.8435E+01
   -1.445006   14.54155  0.0000E+00  0.7441E-05  0.3633E-07  0.5678E-03  0.9965E-04 -0.1955E+02
   -1.487505   14.54335  0.0000E+00  0.7111E-05  0.4483E-07  0.5398E-03  0.8171E-04  0.2688E+04
   -1.530004   14.54527  0.0000E+00  0.6612E-05  0.6321E-07  0.4143E-03  0.6491E-04  0.2640E+04
   -1.572502   14.55054  0.0000E+00  0.5882E-05  0.1051E-06  0.4235E-03  0.4330E-04  0.2630E+07
   -1.615000   14.55016  0.0000E+00  0.4598E-05  0.2851E-06  0.1897E-03  0.3445E-04 -0.1914E+08
   -1.657498   14.57031  0.0000E+00  0.3156E-05  0.7421E-06  0.1396E-03  0.2054E-04 -0.2722E+06
   -1.699995   14.57441  0.0000E+00  0.0000E+00  0.0000E+00  0.0000E+00  0.3489E-04  0.0000E+00
