 1 - depth, m
 2 - temperature, C
 3 - salinity, kg/kg
 4 - turbulent kinetic energy, m**2/s**2
 5 - dissipation rate, m**2/s**3
 6 - kinematic heat conductance, m**2/s
 7 - modulus of horizontal velocity, m/s
 8 - Richardson number, n/d
   -0.000000   11.60826  0.0000E+00  0.1162E-03  0.5155E-04  0.5494E-04  0.9357E-01 -0.4206E-02
   -0.042497   11.64217  0.0000E+00  0.6446E-04  0.1518E-04  0.8127E-04  0.2676E-01 -0.2705E-01
   -0.084995   11.64887  0.0000E+00  0.4489E-04  0.6260E-05  0.7805E-04  0.1803E-01 -0.1987E+01
   -0.127493   11.65426  0.0000E+00  0.3259E-04  0.2897E-05  0.7737E-04  0.1355E-01 -0.4224E-01
   -0.169992   11.65892  0.0000E+00  0.2405E-04  0.1442E-05  0.7833E-04  0.1039E-01 -0.5265E-02
   -0.212491   11.66313  0.0000E+00  0.1783E-04  0.7449E-06  0.8068E-04  0.7982E-02  0.4510E-01
   -0.254990   11.66705  0.0000E+00  0.1336E-04  0.4036E-06  0.8514E-04  0.6158E-02  0.6784E-02
   -0.297489   11.67066  0.0000E+00  0.1022E-04  0.2313E-06  0.9358E-04  0.4818E-02  0.4613E+02
   -0.339989   11.67389  0.0000E+00  0.8088E-05  0.1402E-06  0.1214E-03  0.3807E-02  0.2677E+02
   -0.382489   11.67656  0.0000E+00  0.6608E-05  0.8839E-07  0.1458E-03  0.3029E-02  0.1527E+03
   -0.424989   11.67879  0.0000E+00  0.5585E-05  0.5803E-07  0.1672E-03  0.2443E-02  0.1444E+02
   -0.467490   11.68067  0.0000E+00  0.4856E-05  0.3962E-07  0.1926E-03  0.1960E-02  0.6004E+03
   -0.509991   11.68226  0.0000E+00  0.4327E-05  0.2818E-07  0.2208E-03  0.1563E-02  0.2097E+02
   -0.552491   11.68358  0.0000E+00  0.3938E-05  0.2088E-07  0.2515E-03  0.1238E-02  0.6454E+02
   -0.594992   11.68469  0.0000E+00  0.3650E-05  0.1615E-07  0.2848E-03  0.9723E-03  0.5463E+02
   -0.637493   11.68561  0.0000E+00  0.3435E-05  0.1299E-07  0.3147E-03  0.7614E-03  0.1148E+03
   -0.679995   11.68639  0.0000E+00  0.3275E-05  0.1083E-07  0.3404E-03  0.6008E-03  0.7031E+01
   -0.722496   11.68708  0.0000E+00  0.3155E-05  0.9319E-08  0.3629E-03  0.4783E-03  0.1095E+03
   -0.764997   11.68770  0.0000E+00  0.3066E-05  0.8237E-08  0.3827E-03  0.3881E-03  0.1430E+02
   -0.807499   11.68827  0.0000E+00  0.2999E-05  0.7435E-08  0.4008E-03  0.3234E-03  0.4458E+01
   -0.850000   11.68879  0.0000E+00  0.2948E-05  0.6831E-08  0.4173E-03  0.2746E-03  0.1727E+01
   -0.892502   11.68928  0.0000E+00  0.2907E-05  0.6353E-08  0.4329E-03  0.2361E-03  0.5828E+01
   -0.935003   11.68974  0.0000E+00  0.2873E-05  0.5968E-08  0.4467E-03  0.2053E-03  0.2110E+01
   -0.977504   11.69018  0.0000E+00  0.2844E-05  0.5649E-08  0.4595E-03  0.1793E-03  0.2442E+01
   -1.020006   11.69060  0.0000E+00  0.2818E-05  0.5384E-08  0.4709E-03  0.1573E-03  0.2871E+01
   -1.062507   11.69100  0.0000E+00  0.2794E-05  0.5164E-08  0.4807E-03  0.1381E-03  0.3229E+01
   -1.105008   11.69138  0.0000E+00  0.2772E-05  0.4984E-08  0.4888E-03  0.1212E-03  0.3627E+01
   -1.147509   11.69174  0.0000E+00  0.2751E-05  0.4842E-08  0.4949E-03  0.1058E-03  0.4044E+01
   -1.190010   11.69208  0.0000E+00  0.2733E-05  0.4737E-08  0.4983E-03  0.9149E-04  0.4469E+01
   -1.232510   11.69241  0.0000E+00  0.2714E-05  0.4661E-08  0.4992E-03  0.7823E-04  0.5092E+01
   -1.275011   11.69274  0.0000E+00  0.2696E-05  0.4614E-08  0.4971E-03  0.6659E-04  0.6552E+01
   -1.317511   11.69306  0.0000E+00  0.2677E-05  0.4599E-08  0.4917E-03  0.5641E-04  0.8757E+01
   -1.360011   11.69338  0.0000E+00  0.2657E-05  0.4623E-08  0.4818E-03  0.4759E-04  0.1194E+02
   -1.402511   11.69371  0.0000E+00  0.2635E-05  0.4697E-08  0.4670E-03  0.4011E-04  0.1764E+02
   -1.445010   11.69404  0.0000E+00  0.2613E-05  0.4829E-08  0.4481E-03  0.3350E-04  0.2644E+02
   -1.487510   11.69439  0.0000E+00  0.2591E-05  0.5043E-08  0.4240E-03  0.2730E-04  0.3370E+02
   -1.530008   11.69475  0.0000E+00  0.2566E-05  0.5435E-08  0.3848E-03  0.2149E-04  0.4408E+02
   -1.572507   11.69517  0.0000E+00  0.2525E-05  0.6368E-08  0.3356E-03  0.1641E-04  0.9152E+02
   -1.615005   11.69579  0.0000E+00  0.2395E-05  0.1015E-07  0.2122E-03  0.1285E-04  0.9123E+03
   -1.657503   11.69738  0.0000E+00  0.1657E-05  0.3675E-07  0.2183E-04  0.9512E-05 -0.1780E+07
   -1.700000   11.71585  0.0000E+00  0.0000E+00  0.0000E+00  0.0000E+00  0.9777E-05  0.0000E+00
