 1 - depth, m
 2 - temperature, C
 3 - salinity, kg/kg
 4 - turbulent kinetic energy, m**2/s**2
 5 - dissipation rate, m**2/s**3
 6 - kinematic heat conductance, m**2/s
 7 - modulus of horizontal velocity, m/s
 8 - Richardson number, n/d
   -0.000000    0.00000  0.0000E+00  0.3189E-13  0.5207E-16  0.1000E-09  0.0000E+00  0.1477E+17
   -0.042497    0.22861  0.0000E+00  0.3189E-13  0.5207E-16  0.1000E-09  0.0000E+00  0.1388E+17
   -0.084994    0.45783  0.0000E+00  0.3189E-13  0.5207E-16  0.1000E-09  0.0000E+00  0.1295E+17
   -0.127492    0.68690  0.0000E+00  0.5878E-13  0.5207E-16  0.1000E-09  0.0000E+00  0.1171E+17
   -0.169990    0.90956  0.0000E+00  0.2160E-12  0.5207E-16  0.1000E-09  0.0000E+00  0.1055E+17
   -0.212489    1.12575  0.0000E+00  0.5107E-12  0.6510E-16  0.1000E-09  0.0000E+00  0.9466E+16
   -0.254987    1.33547  0.0000E+00  0.9852E-12  0.9823E-16  0.1000E-09  0.0000E+00  0.8453E+16
   -0.297486    1.53862  0.0000E+00  0.1735E-11  0.1562E-15  0.1000E-09  0.0000E+00  0.7507E+16
   -0.339986    1.73502  0.0000E+00  0.2902E-11  0.2487E-15  0.1000E-09  0.0000E+00  0.6627E+16
   -0.382485    1.92452  0.0000E+00  0.4730E-11  0.3939E-15  0.1000E-09  0.0000E+00  0.5814E+16
   -0.424985    2.10700  0.0000E+00  0.7582E-11  0.6183E-15  0.1000E-09  0.0000E+00  0.5070E+16
   -0.467485    2.28254  0.0000E+00  0.1202E-10  0.9631E-15  0.1000E-09  0.0000E+00  0.4387E+16
   -0.509986    2.45103  0.0000E+00  0.1895E-10  0.1493E-14  0.1000E-09  0.0000E+00  0.3788E+16
   -0.552486    2.61350  0.0000E+00  0.2975E-10  0.2306E-14  0.1000E-09  0.0000E+00  0.3240E+16
   -0.594987    2.77000  0.0000E+00  0.4657E-10  0.3553E-14  0.1000E-09  0.0000E+00  0.2736E+16
   -0.637487    2.92031  0.0000E+00  0.7328E-10  0.5503E-14  0.1000E-09  0.0000E+00  0.2275E+16
   -0.679988    3.06409  0.0000E+00  0.1156E-09  0.8547E-14  0.1000E-09  0.0000E+00  0.1854E+16
   -0.722489    3.20086  0.0000E+00  0.1830E-09  0.1331E-13  0.1000E-09  0.0000E+00  0.1474E+16
   -0.764990    3.32990  0.0000E+00  0.2905E-09  0.2081E-13  0.1000E-09  0.0000E+00  0.1136E+16
   -0.807491    3.45039  0.0000E+00  0.4613E-09  0.3255E-13  0.1209E-09  0.0000E+00  0.8477E+15
   -0.849992    3.56229  0.0000E+00  0.7261E-09  0.5046E-13  0.2629E-09  0.0000E+00  0.6043E+15
   -0.892493    3.66523  0.0000E+00  0.1139E-08  0.7794E-13  0.5930E-09  0.0000E+00  0.4139E+15
   -0.934994    3.76166  0.0000E+00  0.1768E-08  0.1193E-12  0.1462E-08  0.0000E+00  0.2572E+15
   -0.977495    3.85320  0.0000E+00  0.2727E-08  0.1813E-12  0.4766E-08  0.0000E+00  0.1206E+15
   -1.019996    3.93802  0.0000E+00  0.4101E-08  0.2693E-12  0.5379E-07  0.0000E+00  0.1745E+14
   -1.062496    3.99827  0.0000E+00  0.4396E-08  0.2897E-12  0.2870E-04  0.0000E+00 -0.7531E+11
   -1.104997    3.99867  0.0000E+00  0.4525E-08  0.2998E-12  0.2880E-04  0.0000E+00 -0.7685E+11
   -1.147498    3.99906  0.0000E+00  0.4628E-08  0.3091E-12  0.2905E-04  0.0000E+00 -0.7789E+11
   -1.189998    3.99944  0.0000E+00  0.4714E-08  0.3186E-12  0.2916E-04  0.0000E+00 -0.7918E+11
   -1.232498    3.99982  0.0000E+00  0.4791E-08  0.3290E-12  0.2904E-04  0.0000E+00 -0.8083E+11
   -1.274998    4.00020  0.0000E+00  0.4861E-08  0.3412E-12  0.2872E-04  0.0000E+00 -0.8322E+11
   -1.317498    4.00058  0.0000E+00  0.4925E-08  0.3562E-12  0.2817E-04  0.0000E+00 -0.8747E+11
   -1.359998    4.00096  0.0000E+00  0.4983E-08  0.3757E-12  0.2709E-04  0.0000E+00 -0.9415E+11
   -1.402497    4.00137  0.0000E+00  0.5035E-08  0.4027E-12  0.2477E-04  0.0000E+00 -0.1066E+12
   -1.444996    4.00182  0.0000E+00  0.5072E-08  0.4369E-12  0.2169E-04  0.0000E+00 -0.1260E+12
   -1.487495    4.00233  0.0000E+00  0.5090E-08  0.4814E-12  0.1886E-04  0.0000E+00 -0.1516E+12
   -1.529993    4.00292  0.0000E+00  0.5082E-08  0.5538E-12  0.1574E-04  0.0000E+00 -0.1983E+12
   -1.572491    4.00367  0.0000E+00  0.5015E-08  0.7227E-12  0.1144E-04  0.0000E+00 -0.3422E+12
   -1.614989    4.00488  0.0000E+00  0.4634E-08  0.1454E-11  0.3823E-05  0.0000E+00 -0.1376E+13
   -1.657487    4.00913  0.0000E+00  0.3356E-08  0.4671E-11  0.4975E-06  0.0000E+00 -0.2120E+14
   -1.699984    4.04313  0.0000E+00  0.0000E+00  0.0000E+00  0.0000E+00  0.0000E+00  0.0000E+00
