 1 - depth, m
 2 - temperature, C
 3 - salinity, kg/kg
 4 - turbulent kinetic energy, m**2/s**2
 5 - dissipation rate, m**2/s**3
 6 - kinematic heat conductance, m**2/s
 7 - modulus of horizontal velocity, m/s
 8 - Richardson number, n/d
   -0.000000   12.44244  0.0000E+00  0.2079E-04  0.3214E-05  0.2511E-04  0.2425E-01 -0.1845E-01
   -0.042498   12.46802  0.0000E+00  0.1308E-04  0.9062E-06  0.3798E-04  0.1061E-01 -0.5855E-01
   -0.084996   12.47909  0.0000E+00  0.9604E-05  0.3820E-06  0.4964E-04  0.6837E-02 -0.1216E+00
   -0.127495   12.48685  0.0000E+00  0.7376E-05  0.1816E-06  0.6543E-04  0.4666E-02 -0.2233E+00
   -0.169993   12.49263  0.0000E+00  0.5917E-05  0.9498E-07  0.1130E-03  0.3260E-02  0.7127E+03
   -0.212493   12.49655  0.0000E+00  0.4958E-05  0.5427E-07  0.1575E-03  0.2334E-02  0.1515E+03
   -0.254992   12.49953  0.0000E+00  0.4337E-05  0.3397E-07  0.1913E-03  0.1736E-02  0.3237E+02
   -0.297492   12.50189  0.0000E+00  0.3950E-05  0.2338E-07  0.2309E-03  0.1336E-02  0.1627E+03
   -0.339992   12.50369  0.0000E+00  0.3726E-05  0.1776E-07  0.2715E-03  0.1069E-02  0.4972E+01
   -0.382493   12.50506  0.0000E+00  0.3594E-05  0.1450E-07  0.3019E-03  0.8868E-03  0.5024E+01
   -0.424994   12.50618  0.0000E+00  0.3510E-05  0.1237E-07  0.3304E-03  0.7506E-03  0.7040E+01
   -0.467494   12.50713  0.0000E+00  0.3453E-05  0.1085E-07  0.3591E-03  0.6375E-03  0.1741E+01
   -0.509995   12.50795  0.0000E+00  0.3411E-05  0.9717E-08  0.3873E-03  0.5407E-03  0.1344E+01
   -0.552497   12.50867  0.0000E+00  0.3379E-05  0.8834E-08  0.4146E-03  0.4572E-03  0.1387E+01
   -0.594998   12.50931  0.0000E+00  0.3354E-05  0.8137E-08  0.4410E-03  0.3846E-03  0.1262E+01
   -0.637500   12.50989  0.0000E+00  0.3333E-05  0.7575E-08  0.4654E-03  0.3231E-03  0.1181E+01
   -0.680001   12.51042  0.0000E+00  0.3315E-05  0.7122E-08  0.4873E-03  0.2734E-03  0.1162E+01
   -0.722503   12.51091  0.0000E+00  0.3299E-05  0.6753E-08  0.5065E-03  0.2336E-03  0.1196E+01
   -0.765005   12.51137  0.0000E+00  0.3283E-05  0.6443E-08  0.5235E-03  0.2022E-03  0.1324E+01
   -0.807506   12.51182  0.0000E+00  0.3267E-05  0.6172E-08  0.5391E-03  0.1775E-03  0.1596E+01
   -0.850008   12.51223  0.0000E+00  0.3250E-05  0.5934E-08  0.5536E-03  0.1570E-03  0.1931E+01
   -0.892510   12.51263  0.0000E+00  0.3230E-05  0.5719E-08  0.5667E-03  0.1396E-03  0.2294E+01
   -0.935012   12.51301  0.0000E+00  0.3209E-05  0.5527E-08  0.5784E-03  0.1245E-03  0.2759E+01
   -0.977514   12.51336  0.0000E+00  0.3185E-05  0.5355E-08  0.5879E-03  0.1113E-03  0.3166E+01
   -1.020015   12.51370  0.0000E+00  0.3159E-05  0.5204E-08  0.5956E-03  0.9955E-04  0.3670E+01
   -1.062517   12.51402  0.0000E+00  0.3132E-05  0.5072E-08  0.6008E-03  0.8897E-04  0.4064E+01
   -1.105019   12.51431  0.0000E+00  0.3104E-05  0.4961E-08  0.6040E-03  0.7939E-04  0.4482E+01
   -1.147520   12.51459  0.0000E+00  0.3075E-05  0.4874E-08  0.6051E-03  0.7046E-04  0.5101E+01
   -1.190021   12.51485  0.0000E+00  0.3048E-05  0.4814E-08  0.6291E-03  0.6197E-04  0.1538E+02
   -1.232522   12.51508  0.0000E+00  0.3021E-05  0.4779E-08  0.6062E-03  0.5437E-04  0.6103E+02
   -1.275023   12.51530  0.0000E+00  0.2993E-05  0.4771E-08  0.5887E-03  0.4744E-04  0.8252E+01
   -1.317524   12.51552  0.0000E+00  0.2964E-05  0.4799E-08  0.5762E-03  0.4098E-04  0.9638E+01
   -1.360024   12.51574  0.0000E+00  0.2934E-05  0.4872E-08  0.5572E-03  0.3525E-04  0.1297E+02
   -1.402524   12.51597  0.0000E+00  0.2900E-05  0.5012E-08  0.5321E-03  0.3024E-04  0.1898E+02
   -1.445024   12.51620  0.0000E+00  0.2867E-05  0.5227E-08  0.5027E-03  0.2569E-04  0.2820E+02
   -1.487524   12.51643  0.0000E+00  0.2837E-05  0.5553E-08  0.4706E-03  0.2132E-04  0.3645E+02
   -1.530023   12.51667  0.0000E+00  0.2804E-05  0.6157E-08  0.4085E-03  0.1715E-04  0.5350E+02
   -1.572522   12.51698  0.0000E+00  0.2755E-05  0.7644E-08  0.3559E-03  0.1320E-04 -0.5739E+03
   -1.615021   12.51760  0.0000E+00  0.2586E-05  0.1405E-07  0.1927E-03  0.1043E-04 -0.1258E+06
   -1.657519   12.51991  0.0000E+00  0.1789E-05  0.5041E-07  0.3063E-04  0.7278E-05 -0.1949E+07
   -1.700017   12.53754  0.0000E+00  0.0000E+00  0.0000E+00  0.0000E+00  0.7872E-05  0.0000E+00
