 1 - depth, m
 2 - temperature, C
 3 - salinity, kg/kg
 4 - turbulent kinetic energy, m**2/s**2
 5 - dissipation rate, m**2/s**3
 6 - kinematic heat conductance, m**2/s
 7 - modulus of horizontal velocity, m/s
 8 - Richardson number, n/d
   -0.000000   11.44205  0.0000E+00  0.3659E-04  0.9486E-05  0.2887E-04  0.3545E-01 -0.1511E-01
   -0.042497   11.48003  0.0000E+00  0.2228E-04  0.2599E-05  0.4822E-04  0.1417E-01 -0.4433E-01
   -0.084995   11.49513  0.0000E+00  0.1626E-04  0.1091E-05  0.5967E-04  0.9323E-02 -0.9711E-01
   -0.127493   11.50606  0.0000E+00  0.1245E-04  0.5357E-06  0.7457E-04  0.6587E-02 -0.1727E+00
   -0.169992   11.51448  0.0000E+00  0.9877E-05  0.2823E-06  0.1080E-03  0.4772E-02  0.2869E+00
   -0.212491   11.52071  0.0000E+00  0.8128E-05  0.1573E-06  0.1753E-03  0.3524E-02  0.9005E+02
   -0.254990   11.52517  0.0000E+00  0.6968E-05  0.9326E-07  0.2253E-03  0.2710E-02  0.7920E+03
   -0.297490   11.52857  0.0000E+00  0.6236E-05  0.5998E-07  0.2824E-03  0.2157E-02  0.1554E+03
   -0.339990   11.53111  0.0000E+00  0.5787E-05  0.4190E-07  0.3247E-03  0.1775E-02  0.4337E+01
   -0.382490   11.53319  0.0000E+00  0.5506E-05  0.3134E-07  0.3656E-03  0.1479E-02  0.6477E+01
   -0.424990   11.53493  0.0000E+00  0.5337E-05  0.2492E-07  0.4076E-03  0.1249E-02  0.1494E+02
   -0.467490   11.53641  0.0000E+00  0.5237E-05  0.2079E-07  0.4519E-03  0.1054E-02  0.3728E+01
   -0.509991   11.53767  0.0000E+00  0.5181E-05  0.1797E-07  0.4978E-03  0.8872E-03  0.1828E+01
   -0.552492   11.53876  0.0000E+00  0.5151E-05  0.1596E-07  0.5436E-03  0.7434E-03  0.1972E+01
   -0.594993   11.53971  0.0000E+00  0.5138E-05  0.1448E-07  0.5891E-03  0.6187E-03  0.2708E+01
   -0.637494   11.54056  0.0000E+00  0.5132E-05  0.1334E-07  0.6323E-03  0.5130E-03  0.1471E+01
   -0.679996   11.54133  0.0000E+00  0.5130E-05  0.1245E-07  0.6718E-03  0.4273E-03  0.1371E+01
   -0.722497   11.54204  0.0000E+00  0.5130E-05  0.1175E-07  0.7071E-03  0.3586E-03  0.1277E+01
   -0.764998   11.54271  0.0000E+00  0.5128E-05  0.1120E-07  0.7375E-03  0.3053E-03  0.1190E+01
   -0.807500   11.54334  0.0000E+00  0.5125E-05  0.1076E-07  0.7626E-03  0.2649E-03  0.1144E+01
   -0.850001   11.54395  0.0000E+00  0.5120E-05  0.1041E-07  0.7826E-03  0.2334E-03  0.1103E+01
   -0.892503   11.54453  0.0000E+00  0.5112E-05  0.1013E-07  0.7978E-03  0.2084E-03  0.1088E+01
   -0.935004   11.54509  0.0000E+00  0.5101E-05  0.9904E-08  0.8097E-03  0.1881E-03  0.1167E+01
   -0.977506   11.54563  0.0000E+00  0.5088E-05  0.9723E-08  0.8187E-03  0.1707E-03  0.1269E+01
   -1.020007   11.54615  0.0000E+00  0.5072E-05  0.9577E-08  0.8251E-03  0.1553E-03  0.1427E+01
   -1.062508   11.54666  0.0000E+00  0.5053E-05  0.9466E-08  0.8281E-03  0.1414E-03  0.1567E+01
   -1.105009   11.54716  0.0000E+00  0.5032E-05  0.9388E-08  0.8277E-03  0.1286E-03  0.1734E+01
   -1.147510   11.54764  0.0000E+00  0.5007E-05  0.9348E-08  0.8238E-03  0.1164E-03  0.1908E+01
   -1.190011   11.54811  0.0000E+00  0.4981E-05  0.9347E-08  0.8159E-03  0.1047E-03  0.2072E+01
   -1.232512   11.54857  0.0000E+00  0.4952E-05  0.9391E-08  0.8030E-03  0.9349E-04  0.2301E+01
   -1.275012   11.54902  0.0000E+00  0.4918E-05  0.9493E-08  0.7848E-03  0.8314E-04  0.2834E+01
   -1.317513   11.54948  0.0000E+00  0.4880E-05  0.9669E-08  0.7597E-03  0.7362E-04  0.3604E+01
   -1.360013   11.54995  0.0000E+00  0.4834E-05  0.9953E-08  0.7261E-03  0.6489E-04  0.4695E+01
   -1.402513   11.55043  0.0000E+00  0.4779E-05  0.1040E-07  0.6839E-03  0.5699E-04  0.6663E+01
   -1.445012   11.55093  0.0000E+00  0.4719E-05  0.1103E-07  0.6296E-03  0.4957E-04  0.9790E+01
   -1.487511   11.55146  0.0000E+00  0.4654E-05  0.1195E-07  0.5877E-03  0.4219E-04  0.1355E+02
   -1.530010   11.55202  0.0000E+00  0.4572E-05  0.1360E-07  0.4761E-03  0.3499E-04  0.1163E+02
   -1.572509   11.55272  0.0000E+00  0.4437E-05  0.1748E-07  0.5419E-03  0.2769E-04 -0.4389E+03
   -1.615007   11.55331  0.0000E+00  0.3922E-05  0.3745E-07  0.2024E-03  0.2360E-04 -0.1620E+07
   -1.657505   11.55762  0.0000E+00  0.2502E-05  0.1212E-06  0.6155E-04  0.1504E-04 -0.4564E+05
   -1.700002   11.56252  0.0000E+00  0.0000E+00  0.0000E+00  0.0000E+00  0.1815E-04  0.0000E+00
