 1 - depth, m
 2 - temperature, C
 3 - salinity, kg/kg
 4 - turbulent kinetic energy, m**2/s**2
 5 - dissipation rate, m**2/s**3
 6 - kinematic heat conductance, m**2/s
 7 - modulus of horizontal velocity, m/s
 8 - Richardson number, n/d
   -0.000000    0.00000  0.0000E+00  0.1512E-09  0.1353E-12  0.1000E-09  0.0000E+00  0.3051E+17
   -0.042497    0.48972  0.0000E+00  0.4805E-09  0.1039E-12  0.1000E-09  0.0000E+00  0.2545E+17
   -0.084993    0.96216  0.0000E+00  0.1074E-08  0.1215E-12  0.1000E-09  0.0000E+00  0.2088E+17
   -0.127491    1.41762  0.0000E+00  0.1980E-08  0.1699E-12  0.1000E-09  0.0000E+00  0.1660E+17
   -0.169988    1.85150  0.0000E+00  0.3323E-08  0.2517E-12  0.1000E-09  0.0000E+00  0.1288E+17
   -0.212486    2.26489  0.0000E+00  0.5312E-08  0.3776E-12  0.1325E-09  0.0000E+00  0.9639E+16
   -0.254985    2.65875  0.0000E+00  0.8277E-08  0.5664E-12  0.2617E-09  0.0000E+00  0.6809E+16
   -0.297483    3.03301  0.0000E+00  0.1270E-07  0.8464E-12  0.6127E-09  0.0000E+00  0.4348E+16
   -0.339982    3.38586  0.0000E+00  0.1916E-07  0.1249E-11  0.1754E-08  0.0000E+00  0.2256E+16
   -0.382481    3.71347  0.0000E+00  0.2845E-07  0.1820E-11  0.1041E-07  0.0000E+00  0.5839E+15
   -0.424981    4.00015  0.0000E+00  0.2875E-07  0.1840E-11  0.1450E-03  0.0000E+00 -0.9868E+10
   -0.467480    4.00092  0.0000E+00  0.2890E-07  0.1850E-11  0.1459E-03  0.0000E+00 -0.5682E+11
   -0.509980    4.00125  0.0000E+00  0.2903E-07  0.1860E-11  0.1479E-03  0.0000E+00 -0.5728E+11
   -0.552480    4.00155  0.0000E+00  0.2915E-07  0.1872E-11  0.1497E-03  0.0000E+00 -0.5771E+11
   -0.594980    4.00184  0.0000E+00  0.2927E-07  0.1884E-11  0.1513E-03  0.0000E+00 -0.5800E+11
   -0.637480    4.00212  0.0000E+00  0.2938E-07  0.1898E-11  0.1527E-03  0.0000E+00 -0.5868E+11
   -0.679981    4.00239  0.0000E+00  0.2949E-07  0.1913E-11  0.1535E-03  0.0000E+00 -0.5945E+11
   -0.722481    4.00265  0.0000E+00  0.2959E-07  0.1930E-11  0.1534E-03  0.0000E+00 -0.6096E+11
   -0.764982    4.00291  0.0000E+00  0.2969E-07  0.1949E-11  0.1529E-03  0.0000E+00 -0.6272E+11
   -0.807482    4.00317  0.0000E+00  0.2980E-07  0.1971E-11  0.1521E-03  0.0000E+00 -0.6457E+11
   -0.849983    4.00344  0.0000E+00  0.2989E-07  0.1995E-11  0.1513E-03  0.0000E+00 -0.6637E+11
   -0.892483    4.00371  0.0000E+00  0.2999E-07  0.2022E-11  0.1503E-03  0.0000E+00 -0.6813E+11
   -0.934984    4.00399  0.0000E+00  0.3008E-07  0.2051E-11  0.1491E-03  0.0000E+00 -0.6944E+11
   -0.977484    4.00426  0.0000E+00  0.3016E-07  0.2084E-11  0.1477E-03  0.0000E+00 -0.7109E+11
   -1.019985    4.00453  0.0000E+00  0.3024E-07  0.2119E-11  0.1462E-03  0.0000E+00 -0.7258E+11
   -1.062485    4.00481  0.0000E+00  0.3031E-07  0.2158E-11  0.1443E-03  0.0000E+00 -0.7441E+11
   -1.104985    4.00509  0.0000E+00  0.3037E-07  0.2200E-11  0.1424E-03  0.0000E+00 -0.7603E+11
   -1.147485    4.00537  0.0000E+00  0.3041E-07  0.2246E-11  0.1402E-03  0.0000E+00 -0.7779E+11
   -1.189985    4.00565  0.0000E+00  0.3045E-07  0.2295E-11  0.1379E-03  0.0000E+00 -0.7992E+11
   -1.232485    4.00594  0.0000E+00  0.3048E-07  0.2351E-11  0.1351E-03  0.0000E+00 -0.8329E+11
   -1.274985    4.00623  0.0000E+00  0.3050E-07  0.2418E-11  0.1319E-03  0.0000E+00 -0.8699E+11
   -1.317484    4.00653  0.0000E+00  0.3051E-07  0.2500E-11  0.1281E-03  0.0000E+00 -0.9078E+11
   -1.359983    4.00684  0.0000E+00  0.3050E-07  0.2603E-11  0.1234E-03  0.0000E+00 -0.9568E+11
   -1.402482    4.00716  0.0000E+00  0.3048E-07  0.2740E-11  0.1178E-03  0.0000E+00 -0.1015E+12
   -1.444981    4.00749  0.0000E+00  0.3045E-07  0.2904E-11  0.1120E-03  0.0000E+00 -0.1081E+12
   -1.487479    4.00784  0.0000E+00  0.3039E-07  0.3107E-11  0.1051E-03  0.0000E+00 -0.1170E+12
   -1.529977    4.00821  0.0000E+00  0.3030E-07  0.3416E-11  0.9612E-04  0.0000E+00 -0.1322E+12
   -1.572475    4.00862  0.0000E+00  0.3010E-07  0.4107E-11  0.8051E-04  0.0000E+00 -0.1725E+12
   -1.614972    4.00915  0.0000E+00  0.2912E-07  0.7474E-11  0.2384E-04  0.0000E+00 -0.6705E+12
   -1.657469    4.01112  0.0000E+00  0.2093E-07  0.4159E-10  0.1562E-05  0.0000E+00 -0.1733E+14
   -1.699966    4.03975  0.0000E+00  0.0000E+00  0.0000E+00  0.0000E+00  0.0000E+00  0.0000E+00
