 1 - depth, m
 2 - temperature, C
 3 - salinity, kg/kg
 4 - turbulent kinetic energy, m**2/s**2
 5 - dissipation rate, m**2/s**3
 6 - kinematic heat conductance, m**2/s
 7 - modulus of horizontal velocity, m/s
 8 - Richardson number, n/d
   -0.000000    0.00000  0.0000E+00  0.3189E-13  0.5207E-16  0.1000E-09  0.0000E+00  0.1387E+17
   -0.042497    0.21419  0.0000E+00  0.3189E-13  0.5207E-16  0.1000E-09  0.0000E+00  0.1288E+17
   -0.084994    0.42540  0.0000E+00  0.3189E-13  0.5207E-16  0.1000E-09  0.0000E+00  0.1194E+17
   -0.127492    0.63375  0.0000E+00  0.3189E-13  0.5207E-16  0.1000E-09  0.0000E+00  0.1081E+17
   -0.169990    0.83505  0.0000E+00  0.3189E-13  0.5207E-16  0.1000E-09  0.0000E+00  0.9784E+16
   -0.212488    1.02967  0.0000E+00  0.3189E-13  0.5207E-16  0.1000E-09  0.0000E+00  0.8838E+16
   -0.254987    1.21783  0.0000E+00  0.3189E-13  0.5207E-16  0.1000E-09  0.0000E+00  0.7963E+16
   -0.297486    1.39963  0.0000E+00  0.3189E-13  0.5207E-16  0.1000E-09  0.0000E+00  0.7159E+16
   -0.339985    1.57530  0.0000E+00  0.1152E-12  0.5207E-16  0.1000E-09  0.0000E+00  0.6426E+16
   -0.382485    1.74517  0.0000E+00  0.3312E-12  0.5602E-16  0.1000E-09  0.0000E+00  0.5747E+16
   -0.424984    1.90929  0.0000E+00  0.6926E-12  0.8215E-16  0.1000E-09  0.0000E+00  0.5132E+16
   -0.467484    2.06813  0.0000E+00  0.1267E-11  0.1313E-15  0.1000E-09  0.0000E+00  0.4563E+16
   -0.509985    2.22172  0.0000E+00  0.2181E-11  0.2128E-15  0.1000E-09  0.0000E+00  0.4059E+16
   -0.552485    2.37094  0.0000E+00  0.3649E-11  0.3443E-15  0.1000E-09  0.0000E+00  0.3591E+16
   -0.594985    2.51591  0.0000E+00  0.6009E-11  0.5536E-15  0.1000E-09  0.0000E+00  0.3152E+16
   -0.637486    2.65646  0.0000E+00  0.9892E-11  0.8928E-15  0.1000E-09  0.0000E+00  0.2737E+16
   -0.679987    2.79213  0.0000E+00  0.1626E-10  0.1440E-14  0.1000E-09  0.0000E+00  0.2350E+16
   -0.722487    2.92265  0.0000E+00  0.2674E-10  0.2325E-14  0.1000E-09  0.0000E+00  0.1988E+16
   -0.764988    3.04740  0.0000E+00  0.4402E-10  0.3757E-14  0.1000E-09  0.0000E+00  0.1655E+16
   -0.807489    3.16580  0.0000E+00  0.7234E-10  0.6065E-14  0.1000E-09  0.0000E+00  0.1362E+16
   -0.849990    3.27820  0.0000E+00  0.1176E-09  0.9685E-14  0.1000E-09  0.0000E+00  0.1105E+16
   -0.892491    3.38478  0.0000E+00  0.1902E-09  0.1539E-13  0.1000E-09  0.0000E+00  0.8968E+15
   -0.934992    3.48798  0.0000E+00  0.3044E-09  0.2422E-13  0.1075E-09  0.0000E+00  0.7209E+15
   -0.977493    3.59016  0.0000E+00  0.4840E-09  0.3786E-13  0.2153E-09  0.0000E+00  0.5526E+15
   -1.019994    3.69175  0.0000E+00  0.7644E-09  0.5880E-13  0.4752E-09  0.0000E+00  0.3884E+15
   -1.062494    3.79297  0.0000E+00  0.1199E-08  0.9080E-13  0.1262E-08  0.0000E+00  0.2257E+15
   -1.104995    3.89328  0.0000E+00  0.1869E-08  0.1393E-12  0.6437E-08  0.0000E+00  0.6786E+14
   -1.147495    3.98864  0.0000E+00  0.2204E-08  0.1650E-12  0.8152E-05  0.0000E+00 -0.8246E+11
   -1.189996    3.99031  0.0000E+00  0.2386E-08  0.1817E-12  0.1031E-04  0.0000E+00 -0.9569E+11
   -1.232496    3.99162  0.0000E+00  0.2553E-08  0.1996E-12  0.1175E-04  0.0000E+00 -0.1059E+12
   -1.274996    3.99277  0.0000E+00  0.2709E-08  0.2196E-12  0.1265E-04  0.0000E+00 -0.1165E+12
   -1.317495    3.99383  0.0000E+00  0.2856E-08  0.2423E-12  0.1312E-04  0.0000E+00 -0.1294E+12
   -1.359995    3.99486  0.0000E+00  0.2996E-08  0.2695E-12  0.1315E-04  0.0000E+00 -0.1463E+12
   -1.402494    3.99589  0.0000E+00  0.3131E-08  0.3036E-12  0.1270E-04  0.0000E+00 -0.1698E+12
   -1.444993    3.99696  0.0000E+00  0.3242E-08  0.3435E-12  0.1190E-04  0.0000E+00 -0.2017E+12
   -1.487492    3.99811  0.0000E+00  0.3325E-08  0.3925E-12  0.1078E-04  0.0000E+00 -0.2486E+12
   -1.529990    3.99938  0.0000E+00  0.3378E-08  0.4683E-12  0.9098E-05  0.0000E+00 -0.3393E+12
   -1.572488    4.00094  0.0000E+00  0.3386E-08  0.6409E-12  0.6433E-05  0.0000E+00 -0.6218E+12
   -1.614986    4.00344  0.0000E+00  0.3201E-08  0.1335E-11  0.2213E-05  0.0000E+00 -0.2651E+13
   -1.657483    4.01144  0.0000E+00  0.2597E-08  0.3809E-11  0.4330E-06  0.0000E+00 -0.2858E+14
   -1.699980    4.05175  0.0000E+00  0.0000E+00  0.0000E+00  0.0000E+00  0.0000E+00  0.0000E+00
