 1 - depth, m
 2 - temperature, C
 3 - salinity, kg/kg
 4 - turbulent kinetic energy, m**2/s**2
 5 - dissipation rate, m**2/s**3
 6 - kinematic heat conductance, m**2/s
 7 - modulus of horizontal velocity, m/s
 8 - Richardson number, n/d
   -0.000000    0.00000  0.0000E+00  0.3188E-13  0.5206E-16  0.1000E-09  0.0000E+00  0.2865E+17
   -0.042499    0.45831  0.0000E+00  0.3188E-13  0.5206E-16  0.1000E-09  0.0000E+00  0.1963E+17
   -0.084998    0.81374  0.0000E+00  0.3188E-13  0.5206E-16  0.1000E-09  0.0000E+00  0.1348E+17
   -0.127497    1.08461  0.0000E+00  0.3188E-13  0.5206E-16  0.1000E-09  0.0000E+00  0.9935E+16
   -0.169997    1.30287  0.0000E+00  0.3188E-13  0.5206E-16  0.1000E-09  0.0000E+00  0.7329E+16
   -0.212497    1.47668  0.0000E+00  0.3188E-13  0.5206E-16  0.1000E-09  0.0000E+00  0.5046E+16
   -0.254997    1.60398  0.0000E+00  0.3188E-13  0.5206E-16  0.1000E-09  0.0000E+00  0.2965E+16
   -0.297498    1.68204  0.0000E+00  0.3188E-13  0.5206E-16  0.1000E-09  0.0000E+00  0.1584E+16
   -0.339999    1.72466  0.0000E+00  0.3188E-13  0.5206E-16  0.1000E-09  0.0000E+00  0.1100E+16
   -0.382501    1.75462  0.0000E+00  0.3188E-13  0.5206E-16  0.1000E-09  0.0000E+00  0.6883E+15
   -0.425002    1.77338  0.0000E+00  0.3188E-13  0.5206E-16  0.1000E-09  0.0000E+00  0.1134E+16
   -0.467504    1.80504  0.0000E+00  0.3188E-13  0.5206E-16  0.1000E-09  0.0000E+00  0.1673E+16
   -0.510006    1.85286  0.0000E+00  0.3188E-13  0.5206E-16  0.1000E-09  0.0000E+00  0.2269E+16
   -0.552508    1.91976  0.0000E+00  0.3307E-13  0.5242E-16  0.1000E-09  0.0000E+00  0.2946E+16
   -0.595010    2.01034  0.0000E+00  0.4074E-13  0.5622E-16  0.1000E-09  0.0000E+00  0.3318E+16
   -0.637512    2.11795  0.0000E+00  0.7649E-13  0.7460E-16  0.1000E-09  0.0000E+00  0.3059E+16
   -0.680015    2.22315  0.0000E+00  0.2300E-12  0.1517E-15  0.1000E-09  0.0000E+00  0.2788E+16
   -0.722517    2.32495  0.0000E+00  0.8584E-12  0.4595E-15  0.1000E-09  0.0000E+00  0.2150E+16
   -0.765020    2.40783  0.0000E+00  0.3295E-11  0.1617E-14  0.1019E-09  0.0000E+00  0.1294E+16
   -0.807523    2.45936  0.0000E+00  0.1227E-10  0.5732E-14  0.1325E-09  0.0000E+00  0.8834E+15
   -0.850025    2.49510  0.0000E+00  0.4313E-10  0.1939E-13  0.5280E-09  0.0000E+00  0.6212E+15
   -0.892528    2.52022  0.0000E+00  0.1076E-09  0.4841E-13  0.1442E-06  0.0000E+00  0.3755E+15
   -0.935031    2.53517  0.0000E+00  0.5998E-10  0.2727E-13  0.6556E-09  0.0000E+00  0.4989E+15
   -0.977533    2.55593  0.0000E+00  0.6389E-10  0.2954E-13  0.4557E-09  0.0000E+00  0.4762E+15
   -1.020036    2.57617  0.0000E+00  0.1586E-09  0.7171E-13  0.4509E-09  0.0000E+00  0.7640E+15
   -1.062538    2.61007  0.0000E+00  0.4696E-09  0.2062E-12  0.7285E-09  0.0000E+00  0.1006E+16
   -1.105041    2.65677  0.0000E+00  0.1390E-08  0.5924E-12  0.1058E-08  0.0000E+00  0.1637E+16
   -1.147543    2.73818  0.0000E+00  0.3993E-08  0.1652E-11  0.1668E-08  0.0000E+00  0.2566E+16
   -1.190045    2.88361  0.0000E+00  0.1107E-07  0.4452E-11  0.5058E-08  0.0000E+00  0.2992E+16
   -1.232547    3.11180  0.0000E+00  0.1977E-07  0.7926E-11  0.6108E-05  0.0000E+00  0.2237E+16
   -1.275049    3.33178  0.0000E+00  0.2683E-07  0.1088E-10  0.1591E-04  0.0000E+00  0.1634E+16
   -1.317550    3.51693  0.0000E+00  0.3295E-07  0.1364E-10  0.2311E-04  0.0000E+00  0.1277E+16
   -1.360051    3.68362  0.0000E+00  0.3841E-07  0.1638E-10  0.2906E-04  0.0000E+00  0.8968E+15
   -1.402552    3.82344  0.0000E+00  0.4342E-07  0.1928E-10  0.3376E-04  0.0000E+00  0.6229E+15
   -1.445053    3.94488  0.0000E+00  0.4772E-07  0.2225E-10  0.3720E-04  0.0000E+00  0.3224E+15
   -1.487554    4.04559  0.0000E+00  0.5120E-07  0.2535E-10  0.3937E-04  0.0000E+00  0.3143E+14
   -1.530054    4.08478  0.0000E+00  0.5364E-07  0.2897E-10  0.3875E-04  0.0000E+00 -0.6501E+13
   -1.572554    4.08923  0.0000E+00  0.5476E-07  0.3474E-10  0.3403E-04  0.0000E+00 -0.8524E+13
   -1.615053    4.09471  0.0000E+00  0.5442E-07  0.5465E-10  0.1925E-04  0.0000E+00 -0.1827E+14
   -1.657552    4.10548  0.0000E+00  0.4383E-07  0.1645E-09  0.2747E-05  0.0000E+00 -0.1618E+15
   -1.700051    4.17362  0.0000E+00  0.0000E+00  0.0000E+00  0.0000E+00  0.0000E+00  0.0000E+00
