 1 - depth, m
 2 - temperature, C
 3 - salinity, kg/kg
 4 - turbulent kinetic energy, m**2/s**2
 5 - dissipation rate, m**2/s**3
 6 - kinematic heat conductance, m**2/s
 7 - modulus of horizontal velocity, m/s
 8 - Richardson number, n/d
   -0.000000    0.00000  0.0000E+00  0.3189E-13  0.5206E-16  0.1000E-09  0.0000E+00  0.9855E+16
   -0.042498    0.15089  0.0000E+00  0.3189E-13  0.5206E-16  0.1000E-09  0.0000E+00  0.1003E+17
   -0.084996    0.31132  0.0000E+00  0.3189E-13  0.5206E-16  0.1000E-09  0.0000E+00  0.1004E+17
   -0.127494    0.47973  0.0000E+00  0.3189E-13  0.5206E-16  0.1000E-09  0.0000E+00  0.9495E+16
   -0.169993    0.64720  0.0000E+00  0.3189E-13  0.5206E-16  0.1000E-09  0.0000E+00  0.8923E+16
   -0.212493    0.81313  0.0000E+00  0.3189E-13  0.5206E-16  0.1000E-09  0.0000E+00  0.8334E+16
   -0.254992    0.97680  0.0000E+00  0.3189E-13  0.5206E-16  0.1000E-09  0.0000E+00  0.7739E+16
   -0.297492    1.13764  0.0000E+00  0.3189E-13  0.5206E-16  0.1000E-09  0.0000E+00  0.7168E+16
   -0.339992    1.29562  0.0000E+00  0.3189E-13  0.5206E-16  0.1000E-09  0.0000E+00  0.6635E+16
   -0.382492    1.45101  0.0000E+00  0.3189E-13  0.5206E-16  0.1000E-09  0.0000E+00  0.6112E+16
   -0.424993    1.60351  0.0000E+00  0.3189E-13  0.5206E-16  0.1000E-09  0.0000E+00  0.5632E+16
   -0.467494    1.75362  0.0000E+00  0.3189E-13  0.5206E-16  0.1000E-09  0.0000E+00  0.5164E+16
   -0.509995    1.90109  0.0000E+00  0.3189E-13  0.5206E-16  0.1000E-09  0.0000E+00  0.4743E+16
   -0.552496    2.04678  0.0000E+00  0.1445E-12  0.5206E-16  0.1000E-09  0.0000E+00  0.4339E+16
   -0.594997    2.19072  0.0000E+00  0.3899E-12  0.7092E-16  0.1000E-09  0.0000E+00  0.3939E+16
   -0.637499    2.33254  0.0000E+00  0.8301E-12  0.1214E-15  0.1000E-09  0.0000E+00  0.3539E+16
   -0.680000    2.47157  0.0000E+00  0.1610E-11  0.2174E-15  0.1000E-09  0.0000E+00  0.3151E+16
   -0.722502    2.60743  0.0000E+00  0.3012E-11  0.3916E-15  0.1000E-09  0.0000E+00  0.2769E+16
   -0.765004    2.73928  0.0000E+00  0.5560E-11  0.7053E-15  0.1000E-09  0.0000E+00  0.2399E+16
   -0.807506    2.86626  0.0000E+00  0.1018E-10  0.1266E-14  0.1000E-09  0.0000E+00  0.2061E+16
   -0.850007    2.98844  0.0000E+00  0.1839E-10  0.2244E-14  0.1000E-09  0.0000E+00  0.1748E+16
   -0.892509    3.10551  0.0000E+00  0.3302E-10  0.3958E-14  0.1000E-09  0.0000E+00  0.1482E+16
   -0.935011    3.21883  0.0000E+00  0.5862E-10  0.6904E-14  0.1000E-09  0.0000E+00  0.1252E+16
   -0.977513    3.32984  0.0000E+00  0.1034E-09  0.1196E-13  0.1000E-09  0.0000E+00  0.1032E+16
   -1.020014    3.43819  0.0000E+00  0.1810E-09  0.2059E-13  0.1000E-09  0.0000E+00  0.8262E+15
   -1.062516    3.54385  0.0000E+00  0.3148E-09  0.3520E-13  0.1752E-09  0.0000E+00  0.6328E+15
   -1.105017    3.64647  0.0000E+00  0.5447E-09  0.5989E-13  0.4146E-09  0.0000E+00  0.4550E+15
   -1.147519    3.74616  0.0000E+00  0.9306E-09  0.1006E-12  0.1089E-08  0.0000E+00  0.2916E+15
   -1.190020    3.84288  0.0000E+00  0.1577E-08  0.1678E-12  0.3777E-08  0.0000E+00  0.1408E+15
   -1.232521    3.93488  0.0000E+00  0.2665E-08  0.2794E-12  0.4890E-07  0.0000E+00  0.1922E+14
   -1.275022    4.00158  0.0000E+00  0.3182E-08  0.3358E-12  0.1384E-04  0.0000E+00 -0.2131E+12
   -1.317522    4.00245  0.0000E+00  0.3432E-08  0.3681E-12  0.1432E-04  0.0000E+00 -0.2180E+12
   -1.360023    4.00329  0.0000E+00  0.3651E-08  0.4028E-12  0.1443E-04  0.0000E+00 -0.2286E+12
   -1.402523    4.00413  0.0000E+00  0.3847E-08  0.4432E-12  0.1412E-04  0.0000E+00 -0.2464E+12
   -1.445023    4.00499  0.0000E+00  0.3997E-08  0.4876E-12  0.1342E-04  0.0000E+00 -0.2728E+12
   -1.487522    4.00590  0.0000E+00  0.4099E-08  0.5398E-12  0.1234E-04  0.0000E+00 -0.3136E+12
   -1.530022    4.00690  0.0000E+00  0.4154E-08  0.6180E-12  0.1068E-04  0.0000E+00 -0.3937E+12
   -1.572520    4.00808  0.0000E+00  0.4140E-08  0.7902E-12  0.7911E-05  0.0000E+00 -0.6342E+12
   -1.615019    4.00987  0.0000E+00  0.3855E-08  0.1466E-11  0.2915E-05  0.0000E+00 -0.2190E+13
   -1.657517    4.01520  0.0000E+00  0.2884E-08  0.4080E-11  0.4510E-06  0.0000E+00 -0.2393E+14
   -1.700015    4.04869  0.0000E+00  0.0000E+00  0.0000E+00  0.0000E+00  0.0000E+00  0.0000E+00
