 1 - depth, m
 2 - temperature, C
 3 - salinity, kg/kg
 4 - turbulent kinetic energy, m**2/s**2
 5 - dissipation rate, m**2/s**3
 6 - kinematic heat conductance, m**2/s
 7 - modulus of horizontal velocity, m/s
 8 - Richardson number, n/d
   -0.000000    9.18322  0.0000E+00  0.1221E-02  0.5224E-02  0.1127E-03  0.4264E+00  0.3062E-03
   -0.042498    9.20819  0.0000E+00  0.5814E-03  0.1903E-02  0.3179E-03  0.8732E-01 -0.3440E-02
   -0.084997    9.21314  0.0000E+00  0.4048E-03  0.9950E-03  0.3337E-03  0.5294E-01 -0.3344E-01
   -0.127495    9.21640  0.0000E+00  0.3078E-03  0.6351E-03  0.2912E-03  0.4294E-01 -0.2639E-01
   -0.169995    9.21875  0.0000E+00  0.2367E-03  0.3633E-03  0.2573E-03  0.3594E-01 -0.1414E-01
   -0.212494    9.22060  0.0000E+00  0.1847E-03  0.2475E-03  0.2392E-03  0.3013E-01 -0.2088E-01
   -0.254994    9.22226  0.0000E+00  0.1415E-03  0.1552E-03  0.2281E-03  0.2541E-01 -0.2139E+00
   -0.297494    9.22391  0.0000E+00  0.1115E-03  0.1054E-03  0.2224E-03  0.2173E-01  0.7614E-01
   -0.339995    9.22536  0.0000E+00  0.8974E-04  0.7118E-04  0.2182E-03  0.1911E-01  0.1038E+00
   -0.382496    9.22679  0.0000E+00  0.7352E-04  0.4653E-04  0.2181E-03  0.1650E-01  0.7917E+00
   -0.424997    9.22807  0.0000E+00  0.6150E-04  0.2893E-04  0.2170E-03  0.1456E-01  0.9676E+00
   -0.467498    9.22936  0.0000E+00  0.5230E-04  0.1691E-04  0.2177E-03  0.1251E-01  0.1033E+02
   -0.509999    9.23063  0.0000E+00  0.4512E-04  0.9303E-05  0.2205E-03  0.1066E-01  0.1517E+02
   -0.552501    9.23184  0.0000E+00  0.3940E-04  0.4944E-05  0.2232E-03  0.9076E-02  0.4228E+01
   -0.595002    9.23300  0.0000E+00  0.3472E-04  0.2668E-05  0.2286E-03  0.7659E-02  0.5114E+01
   -0.637504    9.23408  0.0000E+00  0.3075E-04  0.1517E-05  0.2379E-03  0.6454E-02  0.5764E+01
   -0.680006    9.23504  0.0000E+00  0.2739E-04  0.9343E-06  0.2465E-03  0.5505E-02  0.2233E+03
   -0.722508    9.23594  0.0000E+00  0.2448E-04  0.6266E-06  0.2555E-03  0.4715E-02  0.1597E+02
   -0.765010    9.23676  0.0000E+00  0.2194E-04  0.4520E-06  0.2662E-03  0.4083E-02  0.1079E+03
   -0.807512    9.23750  0.0000E+00  0.1972E-04  0.3436E-06  0.2773E-03  0.3587E-02  0.1517E+02
   -0.850014    9.23820  0.0000E+00  0.1781E-04  0.2718E-06  0.2894E-03  0.3169E-02  0.2246E+05
   -0.892517    9.23885  0.0000E+00  0.1614E-04  0.2201E-06  0.3028E-03  0.2812E-02  0.9129E+04
   -0.935019    9.23946  0.0000E+00  0.1469E-04  0.1807E-06  0.3133E-03  0.2507E-02 -0.4129E+04
   -0.977521    9.24005  0.0000E+00  0.1340E-04  0.1496E-06  0.3248E-03  0.2234E-02  0.3481E+04
   -1.020023    9.24060  0.0000E+00  0.1228E-04  0.1245E-06  0.3363E-03  0.1994E-02  0.4429E+04
   -1.062525    9.24113  0.0000E+00  0.1129E-04  0.1042E-06  0.3477E-03  0.1775E-02  0.3563E+02
   -1.105027    9.24164  0.0000E+00  0.1043E-04  0.8736E-07  0.3586E-03  0.1576E-02  0.1564E+03
   -1.147528    9.24213  0.0000E+00  0.9670E-05  0.7390E-07  0.3663E-03  0.1388E-02  0.4157E+03
   -1.190030    9.24261  0.0000E+00  0.9033E-05  0.6343E-07  0.3737E-03  0.1207E-02  0.3128E+03
   -1.232531    9.24309  0.0000E+00  0.8466E-05  0.5499E-07  0.3798E-03  0.1037E-02  0.1754E+03
   -1.275032    9.24357  0.0000E+00  0.7962E-05  0.4822E-07  0.3837E-03  0.8872E-03  0.5758E+04
   -1.317533    9.24403  0.0000E+00  0.7508E-05  0.4279E-07  0.3853E-03  0.7561E-03  0.2814E+03
   -1.360034    9.24449  0.0000E+00  0.7093E-05  0.3848E-07  0.3837E-03  0.6431E-03  0.9717E+03
   -1.402535    9.24496  0.0000E+00  0.6700E-05  0.3510E-07  0.3771E-03  0.5475E-03  0.4881E+03
   -1.445035    9.24543  0.0000E+00  0.6359E-05  0.3297E-07  0.3661E-03  0.4621E-03  0.6491E+03
   -1.487535    9.24592  0.0000E+00  0.6074E-05  0.3233E-07  0.3505E-03  0.3810E-03  0.1185E+04
   -1.530034    9.24644  0.0000E+00  0.5810E-05  0.3394E-07  0.3249E-03  0.3042E-03  0.1212E+04
   -1.572534    9.24701  0.0000E+00  0.5484E-05  0.4139E-07  0.2797E-03  0.2362E-03  0.2570E+04
   -1.615032    9.24767  0.0000E+00  0.4754E-05  0.7426E-07  0.1913E-03  0.1877E-03  0.1856E+05
   -1.657531    9.24876  0.0000E+00  0.2976E-05  0.2081E-06  0.2224E-04  0.1419E-03 -0.2803E+08
   -1.700029    9.26057  0.0000E+00  0.0000E+00  0.0000E+00  0.0000E+00  0.1640E-03  0.0000E+00
