 1 - depth, m
 2 - temperature, C
 3 - salinity, kg/kg
 4 - turbulent kinetic energy, m**2/s**2
 5 - dissipation rate, m**2/s**3
 6 - kinematic heat conductance, m**2/s
 7 - modulus of horizontal velocity, m/s
 8 - Richardson number, n/d
   -0.000000    0.00000  0.0000E+00  0.1316E-11  0.3609E-15  0.1000E-09  0.0000E+00  0.2198E+17
   -0.042496    0.34569  0.0000E+00  0.2165E-11  0.3169E-15  0.1000E-09  0.0000E+00  0.1911E+17
   -0.084993    0.67737  0.0000E+00  0.3768E-11  0.3681E-15  0.1000E-09  0.0000E+00  0.1645E+17
   -0.127490    0.99398  0.0000E+00  0.6235E-11  0.4926E-15  0.1000E-09  0.0000E+00  0.1385E+17
   -0.169987    1.29096  0.0000E+00  0.9845E-11  0.6966E-15  0.1000E-09  0.0000E+00  0.1160E+17
   -0.212485    1.56887  0.0000E+00  0.1506E-10  0.1002E-14  0.1000E-09  0.0000E+00  0.9668E+16
   -0.254983    1.82893  0.0000E+00  0.2260E-10  0.1447E-14  0.1000E-09  0.0000E+00  0.8018E+16
   -0.297481    2.07226  0.0000E+00  0.3352E-10  0.2087E-14  0.1000E-09  0.0000E+00  0.6592E+16
   -0.339980    2.29933  0.0000E+00  0.4898E-10  0.2983E-14  0.1000E-09  0.0000E+00  0.5364E+16
   -0.382479    2.51045  0.0000E+00  0.7093E-10  0.4237E-14  0.1000E-09  0.0000E+00  0.4333E+16
   -0.424978    2.70688  0.0000E+00  0.1018E-09  0.5975E-14  0.1000E-09  0.0000E+00  0.3459E+16
   -0.467477    2.88922  0.0000E+00  0.1451E-09  0.8375E-14  0.1000E-09  0.0000E+00  0.2724E+16
   -0.509977    3.05819  0.0000E+00  0.2059E-09  0.1169E-13  0.1000E-09  0.0000E+00  0.2151E+16
   -0.552477    3.21792  0.0000E+00  0.2913E-09  0.1628E-13  0.1000E-09  0.0000E+00  0.1651E+16
   -0.594976    3.36837  0.0000E+00  0.4111E-09  0.2262E-13  0.1019E-09  0.0000E+00  0.1216E+16
   -0.637476    3.50902  0.0000E+00  0.5827E-09  0.3157E-13  0.1420E-09  0.0000E+00  0.8447E+15
   -0.679977    3.63933  0.0000E+00  0.8281E-09  0.4418E-13  0.2768E-09  0.0000E+00  0.5277E+15
   -0.722477    3.75612  0.0000E+00  0.1180E-08  0.6199E-13  0.7687E-09  0.0000E+00  0.2821E+15
   -0.764977    3.85707  0.0000E+00  0.1682E-08  0.8704E-13  0.3945E-08  0.0000E+00  0.1107E+15
   -0.807477    3.93910  0.0000E+00  0.2014E-08  0.1033E-12  0.5023E-05  0.0000E+00  0.2657E+14
   -0.849977    3.97526  0.0000E+00  0.2248E-08  0.1152E-12  0.8288E-05  0.0000E+00  0.3549E+13
   -0.892478    3.98864  0.0000E+00  0.2403E-08  0.1241E-12  0.1169E-04  0.0000E+00 -0.3049E+11
   -0.934978    3.98950  0.0000E+00  0.2528E-08  0.1325E-12  0.1332E-04  0.0000E+00 -0.3626E+11
   -0.977478    3.99021  0.0000E+00  0.2649E-08  0.1416E-12  0.1466E-04  0.0000E+00 -0.4021E+11
   -1.019978    3.99085  0.0000E+00  0.2765E-08  0.1515E-12  0.1562E-04  0.0000E+00 -0.4398E+11
   -1.062478    3.99145  0.0000E+00  0.2877E-08  0.1621E-12  0.1632E-04  0.0000E+00 -0.4811E+11
   -1.104978    3.99203  0.0000E+00  0.2984E-08  0.1737E-12  0.1673E-04  0.0000E+00 -0.5258E+11
   -1.147478    3.99260  0.0000E+00  0.3083E-08  0.1861E-12  0.1692E-04  0.0000E+00 -0.5753E+11
   -1.189978    3.99316  0.0000E+00  0.3176E-08  0.1996E-12  0.1702E-04  0.0000E+00 -0.6363E+11
   -1.232477    3.99374  0.0000E+00  0.3264E-08  0.2151E-12  0.1726E-04  0.0000E+00 -0.7226E+11
   -1.274977    3.99434  0.0000E+00  0.3347E-08  0.2333E-12  0.1720E-04  0.0000E+00 -0.8303E+11
   -1.317476    3.99498  0.0000E+00  0.3427E-08  0.2556E-12  0.1645E-04  0.0000E+00 -0.9575E+11
   -1.359975    3.99567  0.0000E+00  0.3506E-08  0.2850E-12  0.1533E-04  0.0000E+00 -0.1144E+12
   -1.402473    3.99642  0.0000E+00  0.3585E-08  0.3261E-12  0.1360E-04  0.0000E+00 -0.1439E+12
   -1.444972    3.99730  0.0000E+00  0.3654E-08  0.3799E-12  0.1168E-04  0.0000E+00 -0.1876E+12
   -1.487470    3.99834  0.0000E+00  0.3714E-08  0.4545E-12  0.9783E-05  0.0000E+00 -0.2593E+12
   -1.529968    3.99964  0.0000E+00  0.3772E-08  0.5859E-12  0.7772E-05  0.0000E+00 -0.4239E+12
   -1.572465    4.00152  0.0000E+00  0.3845E-08  0.9177E-12  0.5475E-05  0.0000E+00 -0.1064E+13
   -1.614962    4.00540  0.0000E+00  0.3884E-08  0.2281E-11  0.1918E-05  0.0000E+00 -0.5711E+13
   -1.657459    4.01911  0.0000E+00  0.3843E-08  0.7004E-11  0.5906E-06  0.0000E+00 -0.4995E+14
   -1.699955    4.07264  0.0000E+00  0.0000E+00  0.0000E+00  0.0000E+00  0.0000E+00  0.0000E+00
