 1 - depth, m
 2 - temperature, C
 3 - salinity, kg/kg
 4 - turbulent kinetic energy, m**2/s**2
 5 - dissipation rate, m**2/s**3
 6 - kinematic heat conductance, m**2/s
 7 - modulus of horizontal velocity, m/s
 8 - Richardson number, n/d
   -0.000000   12.88414  0.0000E+00  0.4392E-03  0.5358E-03  0.7237E-04  0.2096E+00  0.1526E-01
   -0.042497   12.93608  0.0000E+00  0.2160E-03  0.1662E-03  0.1981E-03  0.4561E-01  0.3487E+00
   -0.084995   12.94529  0.0000E+00  0.1545E-03  0.9034E-04  0.1711E-03  0.2963E-01 -0.1148E+00
   -0.127494   12.95227  0.0000E+00  0.1170E-03  0.4994E-04  0.1458E-03  0.2387E-01 -0.3281E-02
   -0.169992   12.95758  0.0000E+00  0.8721E-04  0.2601E-04  0.1331E-03  0.1945E-01 -0.2002E+00
   -0.212491   12.96250  0.0000E+00  0.6558E-04  0.1489E-04  0.1273E-03  0.1585E-01 -0.1551E+00
   -0.254990   12.96713  0.0000E+00  0.4891E-04  0.8398E-05  0.1268E-03  0.1299E-01  0.3240E+01
   -0.297490   12.97153  0.0000E+00  0.3714E-04  0.4926E-05  0.1297E-03  0.1082E-01  0.3685E+00
   -0.339990   12.97567  0.0000E+00  0.2904E-04  0.2994E-05  0.1346E-03  0.9045E-02  0.6817E+00
   -0.382490   12.97950  0.0000E+00  0.2327E-04  0.1845E-05  0.1456E-03  0.7489E-02  0.1365E+02
   -0.424990   12.98270  0.0000E+00  0.1914E-04  0.1132E-05  0.1607E-03  0.6296E-02  0.4060E+03
   -0.467491   12.98557  0.0000E+00  0.1611E-04  0.6910E-06  0.1846E-03  0.5235E-02  0.1301E+03
   -0.509991   12.98803  0.0000E+00  0.1384E-04  0.4228E-06  0.2111E-03  0.4330E-02  0.2970E+02
   -0.552492   12.99016  0.0000E+00  0.1211E-04  0.2645E-06  0.2424E-03  0.3569E-02  0.2282E+02
   -0.594993   12.99200  0.0000E+00  0.1075E-04  0.1744E-06  0.2757E-03  0.2915E-02  0.2792E+02
   -0.637495   12.99360  0.0000E+00  0.9650E-05  0.1213E-06  0.3115E-03  0.2372E-02  0.1322E+02
   -0.679996   12.99499  0.0000E+00  0.8761E-05  0.9158E-07  0.3495E-03  0.1944E-02  0.4127E+02
   -0.722497   12.99616  0.0000E+00  0.8029E-05  0.7120E-07  0.3868E-03  0.1603E-02  0.3113E+03
   -0.764999   12.99723  0.0000E+00  0.7420E-05  0.5638E-07  0.4222E-03  0.1335E-02  0.4207E+02
   -0.807500   12.99815  0.0000E+00  0.6912E-05  0.4548E-07  0.4555E-03  0.1130E-02  0.6434E+01
   -0.850002   12.99900  0.0000E+00  0.6495E-05  0.3740E-07  0.4849E-03  0.9649E-03  0.1367E+02
   -0.892503   12.99976  0.0000E+00  0.6151E-05  0.3127E-07  0.5103E-03  0.8310E-03  0.1120E+03
   -0.935005   13.00047  0.0000E+00  0.5865E-05  0.2659E-07  0.5316E-03  0.7209E-03  0.1247E+02
   -0.977506   13.00113  0.0000E+00  0.5626E-05  0.2296E-07  0.5499E-03  0.6269E-03  0.3438E+02
   -1.020007   13.00176  0.0000E+00  0.5425E-05  0.2015E-07  0.5657E-03  0.5470E-03  0.7159E+01
   -1.062509   13.00236  0.0000E+00  0.5256E-05  0.1797E-07  0.5786E-03  0.4769E-03  0.1699E+04
   -1.105010   13.00294  0.0000E+00  0.5112E-05  0.1628E-07  0.5873E-03  0.4152E-03  0.3352E+01
   -1.147511   13.00351  0.0000E+00  0.4989E-05  0.1499E-07  0.5924E-03  0.3586E-03  0.3204E+01
   -1.190012   13.00407  0.0000E+00  0.4883E-05  0.1403E-07  0.5940E-03  0.3052E-03  0.3852E+01
   -1.232513   13.00461  0.0000E+00  0.4788E-05  0.1332E-07  0.5930E-03  0.2558E-03  0.3869E+01
   -1.275013   13.00516  0.0000E+00  0.4702E-05  0.1283E-07  0.5876E-03  0.2139E-03  0.4857E+01
   -1.317513   13.00571  0.0000E+00  0.4621E-05  0.1254E-07  0.5763E-03  0.1790E-03  0.6373E+01
   -1.360013   13.00627  0.0000E+00  0.4543E-05  0.1244E-07  0.5588E-03  0.1505E-03  0.8570E+01
   -1.402513   13.00684  0.0000E+00  0.4462E-05  0.1258E-07  0.5352E-03  0.1276E-03  0.1259E+02
   -1.445013   13.00743  0.0000E+00  0.4383E-05  0.1302E-07  0.5038E-03  0.1079E-03  0.1897E+02
   -1.487512   13.00807  0.0000E+00  0.4299E-05  0.1391E-07  0.4713E-03  0.8912E-04  0.2713E+02
   -1.530011   13.00877  0.0000E+00  0.4191E-05  0.1592E-07  0.4038E-03  0.7063E-04  0.1647E+02
   -1.572510   13.00966  0.0000E+00  0.4014E-05  0.2092E-07  0.4140E-03  0.5208E-04  0.5686E+02
   -1.615008   13.01044  0.0000E+00  0.3482E-05  0.4626E-07  0.1732E-03  0.4139E-04 -0.3175E+07
   -1.657506   13.01485  0.0000E+00  0.2231E-05  0.1324E-06  0.5523E-04  0.2552E-04 -0.9463E+05
   -1.700003   13.02123  0.0000E+00  0.0000E+00  0.0000E+00  0.0000E+00  0.3477E-04  0.0000E+00
