 1 - depth, m
 2 - temperature, C
 3 - salinity, kg/kg
 4 - turbulent kinetic energy, m**2/s**2
 5 - dissipation rate, m**2/s**3
 6 - kinematic heat conductance, m**2/s
 7 - modulus of horizontal velocity, m/s
 8 - Richardson number, n/d
   -0.000000   15.78306  0.0000E+00  0.3097E-04  0.4105E-05  0.2555E-04  0.3478E-01 -0.1468E-01
   -0.042497   15.81781  0.0000E+00  0.1955E-04  0.1105E-05  0.4199E-04  0.1552E-01 -0.3650E-01
   -0.084995   15.83086  0.0000E+00  0.1436E-04  0.4669E-06  0.5494E-04  0.1030E-01 -0.7189E-01
   -0.127493   15.83995  0.0000E+00  0.1113E-04  0.2361E-06  0.6780E-04  0.7181E-02 -0.1250E+00
   -0.169992   15.84702  0.0000E+00  0.8987E-05  0.1336E-06  0.8383E-04  0.5095E-02 -0.1970E+00
   -0.212490   15.85252  0.0000E+00  0.7548E-05  0.8237E-07  0.1232E-03  0.3659E-02  0.4129E+02
   -0.254989   15.85640  0.0000E+00  0.6644E-05  0.5544E-07  0.1945E-03  0.2716E-02  0.6900E+03
   -0.297489   15.85889  0.0000E+00  0.6133E-05  0.4094E-07  0.2715E-03  0.2132E-02  0.1712E+03
   -0.339989   15.86044  0.0000E+00  0.5875E-05  0.3292E-07  0.3447E-03  0.1761E-02  0.1134E+02
   -0.382488   15.86155  0.0000E+00  0.5744E-05  0.2773E-07  0.3837E-03  0.1506E-02  0.1281E+02
   -0.424989   15.86250  0.0000E+00  0.5689E-05  0.2398E-07  0.4286E-03  0.1292E-02  0.1420E+01
   -0.467489   15.86336  0.0000E+00  0.5684E-05  0.2119E-07  0.4780E-03  0.1106E-02  0.1529E+01
   -0.509990   15.86414  0.0000E+00  0.5710E-05  0.1907E-07  0.5314E-03  0.9400E-03  0.1604E+01
   -0.552490   15.86484  0.0000E+00  0.5754E-05  0.1743E-07  0.5858E-03  0.7931E-03  0.1658E+01
   -0.594991   15.86549  0.0000E+00  0.5806E-05  0.1615E-07  0.6397E-03  0.6628E-03  0.1633E+01
   -0.637492   15.86608  0.0000E+00  0.5859E-05  0.1513E-07  0.6965E-03  0.5505E-03  0.1519E+01
   -0.679993   15.86662  0.0000E+00  0.5911E-05  0.1434E-07  0.7497E-03  0.4589E-03  0.1413E+01
   -0.722495   15.86711  0.0000E+00  0.5959E-05  0.1374E-07  0.7974E-03  0.3855E-03  0.1285E+01
   -0.764996   15.86757  0.0000E+00  0.6003E-05  0.1330E-07  0.8367E-03  0.3288E-03  0.1164E+01
   -0.807497   15.86799  0.0000E+00  0.6045E-05  0.1297E-07  0.8682E-03  0.2860E-03  0.1093E+01
   -0.849999   15.86839  0.0000E+00  0.6084E-05  0.1276E-07  0.8928E-03  0.2526E-03  0.1040E+01
   -0.892500   15.86877  0.0000E+00  0.6120E-05  0.1262E-07  0.9113E-03  0.2261E-03  0.9958E+00
   -0.935001   15.86915  0.0000E+00  0.6153E-05  0.1256E-07  0.9235E-03  0.2046E-03  0.9984E+00
   -0.977503   15.86953  0.0000E+00  0.6185E-05  0.1255E-07  0.9312E-03  0.1866E-03  0.1054E+01
   -1.020004   15.86992  0.0000E+00  0.6215E-05  0.1259E-07  0.9356E-03  0.1710E-03  0.1172E+01
   -1.062505   15.87031  0.0000E+00  0.6244E-05  0.1269E-07  0.9363E-03  0.1569E-03  0.1335E+01
   -1.105006   15.87072  0.0000E+00  0.6270E-05  0.1283E-07  0.9328E-03  0.1439E-03  0.1553E+01
   -1.147507   15.87115  0.0000E+00  0.6292E-05  0.1303E-07  0.9247E-03  0.1314E-03  0.1817E+01
   -1.190008   15.87160  0.0000E+00  0.6308E-05  0.1327E-07  0.9121E-03  0.1193E-03  0.2075E+01
   -1.232508   15.87209  0.0000E+00  0.6319E-05  0.1359E-07  0.8940E-03  0.1076E-03  0.2412E+01
   -1.275009   15.87259  0.0000E+00  0.6322E-05  0.1401E-07  0.8693E-03  0.9659E-04  0.3066E+01
   -1.317509   15.87312  0.0000E+00  0.6316E-05  0.1457E-07  0.8367E-03  0.8633E-04  0.4038E+01
   -1.360009   15.87369  0.0000E+00  0.6300E-05  0.1535E-07  0.7924E-03  0.7682E-04  0.5506E+01
   -1.402508   15.87430  0.0000E+00  0.6271E-05  0.1647E-07  0.7420E-03  0.6804E-04  0.8344E+01
   -1.445008   15.87497  0.0000E+00  0.6228E-05  0.1798E-07  0.6699E-03  0.5970E-04  0.1473E+02
   -1.487507   15.87575  0.0000E+00  0.6167E-05  0.2011E-07  0.6264E-03  0.5111E-04  0.1998E+02
   -1.530006   15.87665  0.0000E+00  0.6067E-05  0.2398E-07  0.4905E-03  0.4269E-04 -0.9597E+03
   -1.572504   15.87802  0.0000E+00  0.5877E-05  0.3267E-07  0.5763E-03  0.3372E-04  0.1387E+07
   -1.615002   15.87900  0.0000E+00  0.5173E-05  0.7464E-07  0.2062E-03  0.2877E-04 -0.1127E+07
   -1.657500   15.88834  0.0000E+00  0.3437E-05  0.2303E-06  0.7805E-04  0.1835E-04 -0.8801E+05
   -1.699997   15.89900  0.0000E+00  0.0000E+00  0.0000E+00  0.0000E+00  0.2210E-04  0.0000E+00
