 1 - depth, m
 2 - temperature, C
 3 - salinity, kg/kg
 4 - turbulent kinetic energy, m**2/s**2
 5 - dissipation rate, m**2/s**3
 6 - kinematic heat conductance, m**2/s
 7 - modulus of horizontal velocity, m/s
 8 - Richardson number, n/d
   -0.000000    0.00000  0.0000E+00  0.3189E-13  0.5207E-16  0.1000E-09  0.0000E+00  0.1965E+17
   -0.042496    0.30740  0.0000E+00  0.3189E-13  0.5207E-16  0.1000E-09  0.0000E+00  0.1729E+17
   -0.084993    0.60237  0.0000E+00  0.3189E-13  0.5207E-16  0.1000E-09  0.0000E+00  0.1513E+17
   -0.127490    0.88489  0.0000E+00  0.3189E-13  0.5207E-16  0.1000E-09  0.0000E+00  0.1297E+17
   -0.169987    1.15060  0.0000E+00  0.3189E-13  0.5207E-16  0.1000E-09  0.0000E+00  0.1107E+17
   -0.212484    1.40009  0.0000E+00  0.3189E-13  0.5207E-16  0.1000E-09  0.0000E+00  0.9425E+16
   -0.254982    1.63425  0.0000E+00  0.3189E-13  0.5207E-16  0.1000E-09  0.0000E+00  0.7991E+16
   -0.297481    1.85367  0.0000E+00  0.3189E-13  0.5207E-16  0.1000E-09  0.0000E+00  0.6722E+16
   -0.339979    2.05822  0.0000E+00  0.3343E-13  0.5207E-16  0.1000E-09  0.0000E+00  0.5602E+16
   -0.382478    2.24763  0.0000E+00  0.5479E-13  0.5207E-16  0.1000E-09  0.0000E+00  0.4642E+16
   -0.424977    2.42242  0.0000E+00  0.1471E-12  0.5274E-16  0.1000E-09  0.0000E+00  0.3819E+16
   -0.467476    2.58291  0.0000E+00  0.3634E-12  0.5699E-16  0.1000E-09  0.0000E+00  0.3125E+16
   -0.509975    2.72975  0.0000E+00  0.7135E-12  0.7922E-16  0.1000E-09  0.0000E+00  0.2587E+16
   -0.552475    2.86610  0.0000E+00  0.1252E-11  0.1215E-15  0.1000E-09  0.0000E+00  0.2135E+16
   -0.594975    2.99294  0.0000E+00  0.2082E-11  0.1905E-15  0.1000E-09  0.0000E+00  0.1757E+16
   -0.637475    3.11125  0.0000E+00  0.3403E-11  0.3021E-15  0.1000E-09  0.0000E+00  0.1444E+16
   -0.679975    3.22230  0.0000E+00  0.5524E-11  0.4809E-15  0.1000E-09  0.0000E+00  0.1174E+16
   -0.722475    3.32638  0.0000E+00  0.8961E-11  0.7685E-15  0.1000E-09  0.0000E+00  0.9433E+15
   -0.764975    3.42396  0.0000E+00  0.1458E-10  0.1234E-14  0.1000E-09  0.0000E+00  0.7440E+15
   -0.807475    3.51512  0.0000E+00  0.2376E-10  0.1986E-14  0.1000E-09  0.0000E+00  0.5690E+15
   -0.849975    3.59919  0.0000E+00  0.3843E-10  0.3173E-14  0.1000E-09  0.0000E+00  0.4203E+15
   -0.892475    3.67568  0.0000E+00  0.6209E-10  0.5064E-14  0.1000E-09  0.0000E+00  0.3031E+15
   -0.934975    3.74558  0.0000E+00  0.9959E-10  0.8025E-14  0.1209E-09  0.0000E+00  0.2087E+15
   -0.977475    3.80915  0.0000E+00  0.1592E-09  0.1267E-13  0.2997E-09  0.0000E+00  0.1329E+15
   -1.019975    3.86608  0.0000E+00  0.2534E-09  0.1993E-13  0.8439E-09  0.0000E+00  0.7440E+14
   -1.062475    3.91576  0.0000E+00  0.4016E-09  0.3120E-13  0.3030E-08  0.0000E+00  0.3296E+14
   -1.104975    3.95804  0.0000E+00  0.6291E-09  0.4835E-13  0.2651E-07  0.0000E+00  0.6357E+13
   -1.147475    3.98997  0.0000E+00  0.8277E-09  0.6386E-13  0.3450E-05  0.0000E+00 -0.9670E+11
   -1.189974    3.99139  0.0000E+00  0.9503E-09  0.7556E-13  0.4101E-05  0.0000E+00 -0.1066E+12
   -1.232474    3.99259  0.0000E+00  0.1064E-08  0.8879E-13  0.4473E-05  0.0000E+00 -0.1188E+12
   -1.274973    3.99370  0.0000E+00  0.1173E-08  0.1046E-12  0.4624E-05  0.0000E+00 -0.1358E+12
   -1.317472    3.99479  0.0000E+00  0.1281E-08  0.1244E-12  0.4614E-05  0.0000E+00 -0.1608E+12
   -1.359971    3.99593  0.0000E+00  0.1389E-08  0.1505E-12  0.4433E-05  0.0000E+00 -0.1991E+12
   -1.402469    3.99717  0.0000E+00  0.1502E-08  0.1876E-12  0.4025E-05  0.0000E+00 -0.2597E+12
   -1.444968    3.99860  0.0000E+00  0.1611E-08  0.2379E-12  0.3481E-05  0.0000E+00 -0.3534E+12
   -1.487465    4.00032  0.0000E+00  0.1721E-08  0.3124E-12  0.2887E-05  0.0000E+00 -0.5195E+12
   -1.529963    4.00251  0.0000E+00  0.1865E-08  0.4554E-12  0.2299E-05  0.0000E+00 -0.9336E+12
   -1.572460    4.00584  0.0000E+00  0.2122E-08  0.8280E-12  0.1816E-05  0.0000E+00 -0.2535E+13
   -1.614957    4.01286  0.0000E+00  0.2580E-08  0.2086E-11  0.9726E-06  0.0000E+00 -0.1031E+14
   -1.657454    4.03127  0.0000E+00  0.3085E-08  0.5879E-11  0.4890E-06  0.0000E+00 -0.5686E+14
   -1.699950    4.08268  0.0000E+00  0.0000E+00  0.0000E+00  0.0000E+00  0.0000E+00  0.0000E+00
