 1 - depth, m
 2 - temperature, C
 3 - salinity, kg/kg
 4 - turbulent kinetic energy, m**2/s**2
 5 - dissipation rate, m**2/s**3
 6 - kinematic heat conductance, m**2/s
 7 - modulus of horizontal velocity, m/s
 8 - Richardson number, n/d
   -0.000000    0.00000  0.0000E+00  0.3189E-13  0.5207E-16  0.1000E-09  0.0000E+00  0.1186E+17
   -0.042497    0.18236  0.0000E+00  0.3189E-13  0.5207E-16  0.1000E-09  0.0000E+00  0.1173E+17
   -0.084995    0.37234  0.0000E+00  0.3189E-13  0.5207E-16  0.1000E-09  0.0000E+00  0.1145E+17
   -0.127493    0.56859  0.0000E+00  0.3189E-13  0.5207E-16  0.1000E-09  0.0000E+00  0.1043E+17
   -0.169991    0.75844  0.0000E+00  0.3189E-13  0.5207E-16  0.1000E-09  0.0000E+00  0.9457E+16
   -0.212490    0.94136  0.0000E+00  0.3189E-13  0.5207E-16  0.1000E-09  0.0000E+00  0.8499E+16
   -0.254989    1.11623  0.0000E+00  0.3189E-13  0.5207E-16  0.1000E-09  0.0000E+00  0.7574E+16
   -0.297489    1.28205  0.0000E+00  0.3189E-13  0.5207E-16  0.1000E-09  0.0000E+00  0.6760E+16
   -0.339988    1.43960  0.0000E+00  0.3189E-13  0.5207E-16  0.1000E-09  0.0000E+00  0.6084E+16
   -0.382488    1.59063  0.0000E+00  0.5500E-13  0.5207E-16  0.1000E-09  0.0000E+00  0.5456E+16
   -0.424988    1.73505  0.0000E+00  0.2033E-12  0.5336E-16  0.1000E-09  0.0000E+00  0.4958E+16
   -0.467489    1.87514  0.0000E+00  0.4889E-12  0.7899E-16  0.1000E-09  0.0000E+00  0.4491E+16
   -0.509989    2.01091  0.0000E+00  0.9812E-12  0.1352E-15  0.1000E-09  0.0000E+00  0.4144E+16
   -0.552490    2.14537  0.0000E+00  0.1830E-11  0.2370E-15  0.1000E-09  0.0000E+00  0.3824E+16
   -0.594991    2.27911  0.0000E+00  0.3305E-11  0.4148E-15  0.1000E-09  0.0000E+00  0.3495E+16
   -0.637492    2.41157  0.0000E+00  0.5937E-11  0.7288E-15  0.1000E-09  0.0000E+00  0.3147E+16
   -0.679993    2.54146  0.0000E+00  0.1063E-10  0.1281E-14  0.1000E-09  0.0000E+00  0.2809E+16
   -0.722494    2.66844  0.0000E+00  0.1906E-10  0.2257E-14  0.1000E-09  0.0000E+00  0.2468E+16
   -0.764995    2.79135  0.0000E+00  0.3421E-10  0.3984E-14  0.1000E-09  0.0000E+00  0.2137E+16
   -0.807497    2.90929  0.0000E+00  0.6134E-10  0.7027E-14  0.1000E-09  0.0000E+00  0.1853E+16
   -0.849998    3.02339  0.0000E+00  0.1088E-09  0.1226E-13  0.1000E-09  0.0000E+00  0.1598E+16
   -0.892499    3.13420  0.0000E+00  0.1922E-09  0.2132E-13  0.1000E-09  0.0000E+00  0.1409E+16
   -0.935001    3.24574  0.0000E+00  0.3360E-09  0.3670E-13  0.1028E-09  0.0000E+00  0.1254E+16
   -0.977502    3.36178  0.0000E+00  0.5841E-09  0.6280E-13  0.1838E-09  0.0000E+00  0.1078E+16
   -1.020003    3.48271  0.0000E+00  0.1009E-08  0.1068E-12  0.3856E-09  0.0000E+00  0.8751E+15
   -1.062504    3.60858  0.0000E+00  0.1732E-08  0.1806E-12  0.8896E-09  0.0000E+00  0.6426E+15
   -1.105005    3.73919  0.0000E+00  0.2958E-08  0.3038E-12  0.2548E-08  0.0000E+00  0.3790E+15
   -1.147506    3.87294  0.0000E+00  0.4959E-08  0.5023E-12  0.1635E-07  0.0000E+00  0.9991E+14
   -1.190007    3.99866  0.0000E+00  0.5535E-08  0.5633E-12  0.2182E-04  0.0000E+00 -0.1828E+12
   -1.232507    3.99960  0.0000E+00  0.5808E-08  0.5979E-12  0.2379E-04  0.0000E+00 -0.1868E+12
   -1.275008    4.00049  0.0000E+00  0.6044E-08  0.6334E-12  0.2480E-04  0.0000E+00 -0.1970E+12
   -1.317508    4.00136  0.0000E+00  0.6250E-08  0.6716E-12  0.2510E-04  0.0000E+00 -0.2078E+12
   -1.360008    4.00223  0.0000E+00  0.6437E-08  0.7159E-12  0.2495E-04  0.0000E+00 -0.2227E+12
   -1.402507    4.00311  0.0000E+00  0.6612E-08  0.7710E-12  0.2438E-04  0.0000E+00 -0.2427E+12
   -1.445007    4.00402  0.0000E+00  0.6755E-08  0.8370E-12  0.2325E-04  0.0000E+00 -0.2712E+12
   -1.487506    4.00498  0.0000E+00  0.6859E-08  0.9203E-12  0.2126E-04  0.0000E+00 -0.3174E+12
   -1.530004    4.00605  0.0000E+00  0.6914E-08  0.1050E-11  0.1794E-04  0.0000E+00 -0.4094E+12
   -1.572503    4.00734  0.0000E+00  0.6884E-08  0.1340E-11  0.1302E-04  0.0000E+00 -0.6644E+12
   -1.615001    4.00928  0.0000E+00  0.6494E-08  0.2536E-11  0.4765E-05  0.0000E+00 -0.2322E+13
   -1.657499    4.01503  0.0000E+00  0.4931E-08  0.7809E-11  0.6876E-06  0.0000E+00 -0.2999E+14
   -1.699996    4.05454  0.0000E+00  0.0000E+00  0.0000E+00  0.0000E+00  0.0000E+00  0.0000E+00
