 1 - depth, m
 2 - temperature, C
 3 - salinity, kg/kg
 4 - turbulent kinetic energy, m**2/s**2
 5 - dissipation rate, m**2/s**3
 6 - kinematic heat conductance, m**2/s
 7 - modulus of horizontal velocity, m/s
 8 - Richardson number, n/d
   -0.000000   12.48516  0.0000E+00  0.8706E-03  0.3411E-02  0.1165E-03  0.4120E+00 -0.2590E-02
   -0.042497   12.51295  0.0000E+00  0.4461E-03  0.1591E-02  0.2529E-03  0.9191E-01 -0.3247E-01
   -0.084995   12.52176  0.0000E+00  0.2996E-03  0.7306E-03  0.2496E-03  0.5402E-01 -0.1553E-01
   -0.127493   12.52663  0.0000E+00  0.2223E-03  0.3970E-03  0.2150E-03  0.4188E-01 -0.9177E-02
   -0.169992   12.52950  0.0000E+00  0.1686E-03  0.2081E-03  0.2045E-03  0.3404E-01 -0.1597E-01
   -0.212491   12.53180  0.0000E+00  0.1295E-03  0.1190E-03  0.1965E-03  0.2783E-01 -0.2060E-02
   -0.254990   12.53441  0.0000E+00  0.1009E-03  0.6612E-04  0.1987E-03  0.2289E-01 -0.1164E+01
   -0.297490   12.53663  0.0000E+00  0.8043E-04  0.3724E-04  0.2027E-03  0.1943E-01  0.6427E+01
   -0.339990   12.53838  0.0000E+00  0.6636E-04  0.2163E-04  0.2083E-03  0.1687E-01  0.9839E+01
   -0.382490   12.53987  0.0000E+00  0.5598E-04  0.1238E-04  0.2160E-03  0.1461E-01  0.4988E+02
   -0.424990   12.54100  0.0000E+00  0.4832E-04  0.6951E-05  0.2218E-03  0.1291E-01  0.4649E+02
   -0.467490   12.54211  0.0000E+00  0.4235E-04  0.3896E-05  0.2275E-03  0.1127E-01  0.1368E+02
   -0.509991   12.54310  0.0000E+00  0.3756E-04  0.2243E-05  0.2349E-03  0.9793E-02  0.8979E+02
   -0.552492   12.54406  0.0000E+00  0.3357E-04  0.1366E-05  0.2425E-03  0.8493E-02  0.5610E+03
   -0.594993   12.54496  0.0000E+00  0.3015E-04  0.8956E-06  0.2516E-03  0.7312E-02  0.4842E+04
   -0.637494   12.54579  0.0000E+00  0.2711E-04  0.6265E-06  0.2635E-03  0.6271E-02  0.1025E+02
   -0.679995   12.54656  0.0000E+00  0.2442E-04  0.4618E-06  0.2749E-03  0.5407E-02  0.2878E+02
   -0.722497   12.54728  0.0000E+00  0.2202E-04  0.3538E-06  0.2872E-03  0.4669E-02  0.1036E+02
   -0.764998   12.54795  0.0000E+00  0.1988E-04  0.2781E-06  0.2993E-03  0.4062E-02  0.1612E+01
   -0.807500   12.54857  0.0000E+00  0.1798E-04  0.2222E-06  0.3126E-03  0.3570E-02  0.2277E+02
   -0.850001   12.54917  0.0000E+00  0.1630E-04  0.1801E-06  0.3255E-03  0.3152E-02 -0.1092E+03
   -0.892503   12.54973  0.0000E+00  0.1482E-04  0.1474E-06  0.3400E-03  0.2791E-02 -0.1250E+02
   -0.935004   12.55027  0.0000E+00  0.1353E-04  0.1218E-06  0.3573E-03  0.2480E-02  0.7300E+04
   -0.977505   12.55079  0.0000E+00  0.1239E-04  0.1015E-06  0.3771E-03  0.2202E-02  0.2959E+03
   -1.020007   12.55128  0.0000E+00  0.1140E-04  0.8538E-07  0.3953E-03  0.1957E-02  0.1459E+03
   -1.062508   12.55174  0.0000E+00  0.1054E-04  0.7246E-07  0.4133E-03  0.1734E-02  0.1082E+03
   -1.105009   12.55218  0.0000E+00  0.9793E-05  0.6207E-07  0.4271E-03  0.1532E-02  0.1144E+03
   -1.147510   12.55259  0.0000E+00  0.9152E-05  0.5389E-07  0.4388E-03  0.1343E-02  0.2174E+03
   -1.190011   12.55299  0.0000E+00  0.8609E-05  0.4753E-07  0.4502E-03  0.1162E-02  0.8538E+02
   -1.232512   12.55338  0.0000E+00  0.8129E-05  0.4244E-07  0.4606E-03  0.9933E-03  0.1709E+03
   -1.275012   12.55375  0.0000E+00  0.7698E-05  0.3837E-07  0.4681E-03  0.8455E-03  0.1493E+04
   -1.317513   12.55411  0.0000E+00  0.7308E-05  0.3518E-07  0.4721E-03  0.7177E-03  0.5143E+03
   -1.360013   12.55447  0.0000E+00  0.6947E-05  0.3279E-07  0.4728E-03  0.6085E-03  0.3894E+03
   -1.402512   12.55482  0.0000E+00  0.6599E-05  0.3124E-07  0.4653E-03  0.5174E-03  0.4643E+03
   -1.445012   12.55518  0.0000E+00  0.6294E-05  0.3093E-07  0.4472E-03  0.4374E-03  0.8069E+03
   -1.487511   12.55554  0.0000E+00  0.6024E-05  0.3239E-07  0.4230E-03  0.3612E-03  0.1068E+04
   -1.530010   12.55594  0.0000E+00  0.5743E-05  0.3742E-07  0.3764E-03  0.2869E-03  0.1492E+04
   -1.572509   12.55642  0.0000E+00  0.5373E-05  0.5286E-07  0.3289E-03  0.2174E-03  0.2797E+04
   -1.615007   12.55701  0.0000E+00  0.4605E-05  0.1146E-06  0.2077E-03  0.1707E-03  0.1764E+05
   -1.657505   12.55851  0.0000E+00  0.2958E-05  0.2769E-06  0.3614E-04  0.1245E-03 -0.3281E+08
   -1.700002   12.57006  0.0000E+00  0.0000E+00  0.0000E+00  0.0000E+00  0.1583E-03  0.0000E+00
