 1 - depth, m
 2 - temperature, C
 3 - salinity, kg/kg
 4 - turbulent kinetic energy, m**2/s**2
 5 - dissipation rate, m**2/s**3
 6 - kinematic heat conductance, m**2/s
 7 - modulus of horizontal velocity, m/s
 8 - Richardson number, n/d
   -0.000000    0.00000  0.0000E+00  0.3189E-13  0.5206E-16  0.1000E-09  0.0000E+00  0.1172E+17
   -0.042497    0.18012  0.0000E+00  0.3189E-13  0.5206E-16  0.1000E-09  0.0000E+00  0.1169E+17
   -0.084995    0.36931  0.0000E+00  0.3189E-13  0.5206E-16  0.1000E-09  0.0000E+00  0.1148E+17
   -0.127493    0.56591  0.0000E+00  0.3189E-13  0.5206E-16  0.1000E-09  0.0000E+00  0.1045E+17
   -0.169992    0.75585  0.0000E+00  0.3189E-13  0.5206E-16  0.1000E-09  0.0000E+00  0.9432E+16
   -0.212491    0.93811  0.0000E+00  0.3189E-13  0.5206E-16  0.1000E-09  0.0000E+00  0.8413E+16
   -0.254990    1.11094  0.0000E+00  0.3189E-13  0.5206E-16  0.1000E-09  0.0000E+00  0.7415E+16
   -0.297490    1.27285  0.0000E+00  0.3189E-13  0.5206E-16  0.1000E-09  0.0000E+00  0.6541E+16
   -0.339990    1.42455  0.0000E+00  0.3189E-13  0.5206E-16  0.1000E-09  0.0000E+00  0.5827E+16
   -0.382490    1.56807  0.0000E+00  0.3189E-13  0.5206E-16  0.1000E-09  0.0000E+00  0.5171E+16
   -0.424990    1.70329  0.0000E+00  0.3189E-13  0.5206E-16  0.1000E-09  0.0000E+00  0.4676E+16
   -0.467490    1.83315  0.0000E+00  0.3633E-13  0.5206E-16  0.1000E-09  0.0000E+00  0.4224E+16
   -0.509991    1.95785  0.0000E+00  0.1446E-12  0.5215E-16  0.1000E-09  0.0000E+00  0.3922E+16
   -0.552492    2.08119  0.0000E+00  0.3872E-12  0.7286E-16  0.1000E-09  0.0000E+00  0.3659E+16
   -0.594993    2.20422  0.0000E+00  0.8221E-12  0.1266E-15  0.1000E-09  0.0000E+00  0.3390E+16
   -0.637494    2.32657  0.0000E+00  0.1610E-11  0.2303E-15  0.1000E-09  0.0000E+00  0.3094E+16
   -0.679995    2.44694  0.0000E+00  0.3049E-11  0.4210E-15  0.1000E-09  0.0000E+00  0.2808E+16
   -0.722497    2.56521  0.0000E+00  0.5704E-11  0.7692E-15  0.1000E-09  0.0000E+00  0.2510E+16
   -0.764998    2.68017  0.0000E+00  0.1063E-10  0.1406E-14  0.1000E-09  0.0000E+00  0.2213E+16
   -0.807500    2.79089  0.0000E+00  0.1975E-10  0.2563E-14  0.1000E-09  0.0000E+00  0.1962E+16
   -0.850001    2.89865  0.0000E+00  0.3621E-10  0.4617E-14  0.1000E-09  0.0000E+00  0.1735E+16
   -0.892503    3.00391  0.0000E+00  0.6610E-10  0.8280E-14  0.1000E-09  0.0000E+00  0.1577E+16
   -0.935004    3.11067  0.0000E+00  0.1193E-09  0.1469E-13  0.1000E-09  0.0000E+00  0.1457E+16
   -0.977505    3.22270  0.0000E+00  0.2139E-09  0.2589E-13  0.1000E-09  0.0000E+00  0.1312E+16
   -1.020007    3.34019  0.0000E+00  0.3810E-09  0.4534E-13  0.1262E-09  0.0000E+00  0.1137E+16
   -1.062508    3.46316  0.0000E+00  0.6741E-09  0.7889E-13  0.2679E-09  0.0000E+00  0.9298E+15
   -1.105009    3.59153  0.0000E+00  0.1187E-08  0.1366E-12  0.6269E-09  0.0000E+00  0.6886E+15
   -1.147510    3.72475  0.0000E+00  0.2062E-08  0.2335E-12  0.1780E-08  0.0000E+00  0.4156E+15
   -1.190011    3.86166  0.0000E+00  0.3546E-08  0.3953E-12  0.1044E-07  0.0000E+00  0.1214E+15
   -1.232512    3.99549  0.0000E+00  0.4190E-08  0.4699E-12  0.1438E-04  0.0000E+00 -0.2231E+12
   -1.275012    3.99698  0.0000E+00  0.4519E-08  0.5156E-12  0.1612E-04  0.0000E+00 -0.2366E+12
   -1.317513    3.99835  0.0000E+00  0.4818E-08  0.5655E-12  0.1706E-04  0.0000E+00 -0.2523E+12
   -1.360013    3.99964  0.0000E+00  0.5095E-08  0.6227E-12  0.1743E-04  0.0000E+00 -0.2745E+12
   -1.402513    4.00091  0.0000E+00  0.5356E-08  0.6923E-12  0.1720E-04  0.0000E+00 -0.3066E+12
   -1.445012    4.00221  0.0000E+00  0.5569E-08  0.7710E-12  0.1647E-04  0.0000E+00 -0.3509E+12
   -1.487511    4.00357  0.0000E+00  0.5726E-08  0.8642E-12  0.1527E-04  0.0000E+00 -0.4154E+12
   -1.530010    4.00505  0.0000E+00  0.5827E-08  0.1003E-11  0.1328E-04  0.0000E+00 -0.5358E+12
   -1.572509    4.00680  0.0000E+00  0.5851E-08  0.1309E-11  0.9816E-05  0.0000E+00 -0.8870E+12
   -1.615007    4.00941  0.0000E+00  0.5585E-08  0.2519E-11  0.3689E-05  0.0000E+00 -0.3178E+13
   -1.657505    4.01697  0.0000E+00  0.4466E-08  0.7334E-11  0.6507E-06  0.0000E+00 -0.3513E+14
   -1.700002    4.05997  0.0000E+00  0.0000E+00  0.0000E+00  0.0000E+00  0.0000E+00  0.0000E+00
