 1 - depth, m
 2 - temperature, C
 3 - salinity, kg/kg
 4 - turbulent kinetic energy, m**2/s**2
 5 - dissipation rate, m**2/s**3
 6 - kinematic heat conductance, m**2/s
 7 - modulus of horizontal velocity, m/s
 8 - Richardson number, n/d
   -0.000000    0.00000  0.0000E+00  0.3189E-13  0.5207E-16  0.1000E-09  0.0000E+00  0.1476E+17
   -0.042497    0.22843  0.0000E+00  0.3189E-13  0.5207E-16  0.1000E-09  0.0000E+00  0.1390E+17
   -0.084994    0.45794  0.0000E+00  0.3189E-13  0.5207E-16  0.1000E-09  0.0000E+00  0.1300E+17
   -0.127492    0.68788  0.0000E+00  0.6626E-13  0.5207E-16  0.1000E-09  0.0000E+00  0.1177E+17
   -0.169990    0.91171  0.0000E+00  0.2103E-12  0.5209E-16  0.1000E-09  0.0000E+00  0.1061E+17
   -0.212489    1.12936  0.0000E+00  0.4874E-12  0.5929E-16  0.1000E-09  0.0000E+00  0.9523E+16
   -0.254988    1.34070  0.0000E+00  0.9232E-12  0.8375E-16  0.1000E-09  0.0000E+00  0.8503E+16
   -0.297487    1.54554  0.0000E+00  0.1588E-11  0.1273E-15  0.1000E-09  0.0000E+00  0.7548E+16
   -0.339986    1.74370  0.0000E+00  0.2583E-11  0.1957E-15  0.1000E-09  0.0000E+00  0.6661E+16
   -0.382486    1.93503  0.0000E+00  0.4086E-11  0.3007E-15  0.1000E-09  0.0000E+00  0.5838E+16
   -0.424985    2.11936  0.0000E+00  0.6357E-11  0.4593E-15  0.1000E-09  0.0000E+00  0.5086E+16
   -0.467485    2.29680  0.0000E+00  0.9788E-11  0.6978E-15  0.1000E-09  0.0000E+00  0.4394E+16
   -0.509986    2.46720  0.0000E+00  0.1500E-10  0.1057E-14  0.1000E-09  0.0000E+00  0.3787E+16
   -0.552486    2.63162  0.0000E+00  0.2295E-10  0.1601E-14  0.1000E-09  0.0000E+00  0.3232E+16
   -0.594987    2.79011  0.0000E+00  0.3509E-10  0.2425E-14  0.1000E-09  0.0000E+00  0.2720E+16
   -0.637487    2.94242  0.0000E+00  0.5405E-10  0.3700E-14  0.1000E-09  0.0000E+00  0.2251E+16
   -0.679988    3.08813  0.0000E+00  0.8372E-10  0.5680E-14  0.1000E-09  0.0000E+00  0.1824E+16
   -0.722489    3.22674  0.0000E+00  0.1304E-09  0.8772E-14  0.1000E-09  0.0000E+00  0.1437E+16
   -0.764990    3.35740  0.0000E+00  0.2045E-09  0.1363E-13  0.1000E-09  0.0000E+00  0.1093E+16
   -0.807491    3.47911  0.0000E+00  0.3218E-09  0.2127E-13  0.1034E-09  0.0000E+00  0.8004E+15
   -0.849992    3.59163  0.0000E+00  0.5033E-09  0.3300E-13  0.1871E-09  0.0000E+00  0.5546E+15
   -0.892493    3.69419  0.0000E+00  0.7867E-09  0.5118E-13  0.4411E-09  0.0000E+00  0.3638E+15
   -0.934994    3.78876  0.0000E+00  0.1222E-08  0.7886E-13  0.1161E-08  0.0000E+00  0.2111E+15
   -0.977495    3.87644  0.0000E+00  0.1889E-08  0.1210E-12  0.4337E-08  0.0000E+00  0.8601E+14
   -1.019996    3.95459  0.0000E+00  0.2780E-08  0.1780E-12  0.8427E-06  0.0000E+00  0.9253E+13
   -1.062497    3.99523  0.0000E+00  0.3041E-08  0.1958E-12  0.1943E-04  0.0000E+00 -0.6994E+11
   -1.104997    3.99584  0.0000E+00  0.3177E-08  0.2064E-12  0.2022E-04  0.0000E+00 -0.7356E+11
   -1.147498    3.99641  0.0000E+00  0.3292E-08  0.2167E-12  0.2093E-04  0.0000E+00 -0.7672E+11
   -1.189998    3.99694  0.0000E+00  0.3393E-08  0.2272E-12  0.2138E-04  0.0000E+00 -0.8009E+11
   -1.232499    3.99746  0.0000E+00  0.3484E-08  0.2386E-12  0.2143E-04  0.0000E+00 -0.8373E+11
   -1.274999    3.99797  0.0000E+00  0.3569E-08  0.2519E-12  0.2125E-04  0.0000E+00 -0.8851E+11
   -1.317499    3.99848  0.0000E+00  0.3650E-08  0.2679E-12  0.2090E-04  0.0000E+00 -0.9580E+11
   -1.359998    3.99901  0.0000E+00  0.3727E-08  0.2880E-12  0.2016E-04  0.0000E+00 -0.1061E+12
   -1.402498    3.99956  0.0000E+00  0.3800E-08  0.3151E-12  0.1879E-04  0.0000E+00 -0.1218E+12
   -1.444997    4.00017  0.0000E+00  0.3860E-08  0.3488E-12  0.1673E-04  0.0000E+00 -0.1460E+12
   -1.487495    4.00085  0.0000E+00  0.3900E-08  0.3921E-12  0.1461E-04  0.0000E+00 -0.1805E+12
   -1.529994    4.00165  0.0000E+00  0.3918E-08  0.4616E-12  0.1209E-04  0.0000E+00 -0.2463E+12
   -1.572492    4.00268  0.0000E+00  0.3891E-08  0.6238E-12  0.8602E-05  0.0000E+00 -0.4550E+12
   -1.614990    4.00440  0.0000E+00  0.3633E-08  0.1310E-11  0.2816E-05  0.0000E+00 -0.2018E+13
   -1.657487    4.01055  0.0000E+00  0.2805E-08  0.3991E-11  0.4524E-06  0.0000E+00 -0.2542E+14
   -1.699984    4.04821  0.0000E+00  0.0000E+00  0.0000E+00  0.0000E+00  0.0000E+00  0.0000E+00
