 1 - depth, m
 2 - temperature, C
 3 - salinity, kg/kg
 4 - turbulent kinetic energy, m**2/s**2
 5 - dissipation rate, m**2/s**3
 6 - kinematic heat conductance, m**2/s
 7 - modulus of horizontal velocity, m/s
 8 - Richardson number, n/d
   -0.000000   16.20002  0.0000E+00  0.1530E-04  0.1023E-05  0.2365E-04  0.1869E-01 -0.3127E-01
   -0.042497   16.23488  0.0000E+00  0.1159E-04  0.3515E-06  0.4433E-04  0.9583E-02 -0.9547E-01
   -0.084995   16.25146  0.0000E+00  0.9502E-05  0.1738E-06  0.6811E-04  0.6052E-02 -0.1957E+00
   -0.127493   16.26183  0.0000E+00  0.8269E-05  0.1018E-06  0.1093E-03  0.4109E-02 -0.2440E+00
   -0.169992   16.26819  0.0000E+00  0.7623E-05  0.7062E-07  0.2584E-03  0.2969E-02  0.8659E+03
   -0.212490   16.27087  0.0000E+00  0.7334E-05  0.5522E-07  0.3200E-03  0.2412E-02  0.2107E+01
   -0.254990   16.27286  0.0000E+00  0.7197E-05  0.4502E-07  0.3701E-03  0.2001E-02  0.1746E+01
   -0.297489   16.27453  0.0000E+00  0.7161E-05  0.3788E-07  0.4285E-03  0.1682E-02  0.1597E+01
   -0.339989   16.27593  0.0000E+00  0.7191E-05  0.3286E-07  0.4916E-03  0.1438E-02  0.1574E+01
   -0.382489   16.27712  0.0000E+00  0.7261E-05  0.2918E-07  0.5587E-03  0.1238E-02  0.1529E+01
   -0.424989   16.27815  0.0000E+00  0.7354E-05  0.2640E-07  0.6271E-03  0.1073E-02  0.1586E+01
   -0.467489   16.27906  0.0000E+00  0.7457E-05  0.2425E-07  0.6928E-03  0.9274E-03  0.1621E+01
   -0.509990   16.27988  0.0000E+00  0.7560E-05  0.2256E-07  0.7542E-03  0.7973E-03  0.1629E+01
   -0.552491   16.28062  0.0000E+00  0.7656E-05  0.2122E-07  0.8125E-03  0.6815E-03  0.1627E+01
   -0.594991   16.28131  0.0000E+00  0.7739E-05  0.2017E-07  0.8740E-03  0.5788E-03  0.1584E+01
   -0.637492   16.28195  0.0000E+00  0.7808E-05  0.1933E-07  0.9418E-03  0.4901E-03  0.1494E+01
   -0.679994   16.28253  0.0000E+00  0.7862E-05  0.1869E-07  0.1001E-02  0.4169E-03  0.1414E+01
   -0.722495   16.28308  0.0000E+00  0.7901E-05  0.1821E-07  0.1046E-02  0.3578E-03  0.1317E+01
   -0.764996   16.28359  0.0000E+00  0.7927E-05  0.1786E-07  0.1073E-02  0.3114E-03  0.1221E+01
   -0.807497   16.28408  0.0000E+00  0.7943E-05  0.1762E-07  0.1090E-02  0.2756E-03  0.1160E+01
   -0.849999   16.28455  0.0000E+00  0.7951E-05  0.1748E-07  0.1099E-02  0.2474E-03  0.1105E+01
   -0.892500   16.28503  0.0000E+00  0.7951E-05  0.1741E-07  0.1101E-02  0.2246E-03  0.1053E+01
   -0.935002   16.28549  0.0000E+00  0.7946E-05  0.1741E-07  0.1099E-02  0.2060E-03  0.1052E+01
   -0.977503   16.28596  0.0000E+00  0.7935E-05  0.1747E-07  0.1092E-02  0.1902E-03  0.1107E+01
   -1.020004   16.28644  0.0000E+00  0.7919E-05  0.1760E-07  0.1081E-02  0.1763E-03  0.1256E+01
   -1.062505   16.28692  0.0000E+00  0.7897E-05  0.1780E-07  0.1064E-02  0.1634E-03  0.1440E+01
   -1.105006   16.28742  0.0000E+00  0.7868E-05  0.1808E-07  0.1041E-02  0.1512E-03  0.1680E+01
   -1.147507   16.28793  0.0000E+00  0.7832E-05  0.1845E-07  0.1013E-02  0.1392E-03  0.1977E+01
   -1.190008   16.28847  0.0000E+00  0.7787E-05  0.1891E-07  0.9786E-03  0.1274E-03  0.2295E+01
   -1.232508   16.28903  0.0000E+00  0.7730E-05  0.1955E-07  0.9394E-03  0.1157E-03  0.2749E+01
   -1.275009   16.28962  0.0000E+00  0.7656E-05  0.2042E-07  0.8853E-03  0.1046E-03  0.3700E+01
   -1.317509   16.29026  0.0000E+00  0.7560E-05  0.2166E-07  0.8350E-03  0.9399E-04  0.5290E+01
   -1.360009   16.29095  0.0000E+00  0.7433E-05  0.2354E-07  0.7518E-03  0.8399E-04  0.8360E+01
   -1.402509   16.29174  0.0000E+00  0.7257E-05  0.2655E-07  0.7008E-03  0.7439E-04  0.1378E+02
   -1.445008   16.29261  0.0000E+00  0.7027E-05  0.3159E-07  0.5971E-03  0.6534E-04  0.5823E+03
   -1.487507   16.29393  0.0000E+00  0.6717E-05  0.3962E-07  0.5509E-03  0.5389E-04  0.2107E+04
   -1.530006   16.29546  0.0000E+00  0.6230E-05  0.5728E-07  0.4212E-03  0.4265E-04 -0.5287E+05
   -1.572505   16.29951  0.0000E+00  0.5541E-05  0.9473E-07  0.4360E-03  0.2848E-04  0.4238E+07
   -1.615003   16.29907  0.0000E+00  0.4339E-05  0.2578E-06  0.1876E-03  0.2285E-04 -0.2193E+09
   -1.657500   16.31611  0.0000E+00  0.2994E-05  0.6699E-06  0.1407E-03  0.1363E-04 -0.7314E+06
   -1.699998   16.31957  0.0000E+00  0.0000E+00  0.0000E+00  0.0000E+00  0.2326E-04  0.0000E+00
