 1 - depth, m
 2 - temperature, C
 3 - salinity, kg/kg
 4 - turbulent kinetic energy, m**2/s**2
 5 - dissipation rate, m**2/s**3
 6 - kinematic heat conductance, m**2/s
 7 - modulus of horizontal velocity, m/s
 8 - Richardson number, n/d
   -0.000000    0.00000  0.0000E+00  0.3189E-13  0.5206E-16  0.1000E-09  0.0000E+00  0.7471E+16
   -0.042497    0.11381  0.0000E+00  0.3189E-13  0.5206E-16  0.1000E-09  0.0000E+00  0.7601E+16
   -0.084995    0.23339  0.0000E+00  0.3189E-13  0.5206E-16  0.1000E-09  0.0000E+00  0.7665E+16
   -0.127494    0.35822  0.0000E+00  0.3189E-13  0.5206E-16  0.1000E-09  0.0000E+00  0.7375E+16
   -0.169992    0.48279  0.0000E+00  0.3189E-13  0.5206E-16  0.1000E-09  0.0000E+00  0.7080E+16
   -0.212491    0.60695  0.0000E+00  0.3189E-13  0.5206E-16  0.1000E-09  0.0000E+00  0.6778E+16
   -0.254990    0.73051  0.0000E+00  0.3189E-13  0.5206E-16  0.1000E-09  0.0000E+00  0.6471E+16
   -0.297490    0.85329  0.0000E+00  0.3189E-13  0.5206E-16  0.1000E-09  0.0000E+00  0.6169E+16
   -0.339990    0.97525  0.0000E+00  0.3189E-13  0.5206E-16  0.1000E-09  0.0000E+00  0.5877E+16
   -0.382490    1.09647  0.0000E+00  0.3189E-13  0.5206E-16  0.1000E-09  0.0000E+00  0.5585E+16
   -0.424990    1.21682  0.0000E+00  0.3189E-13  0.5206E-16  0.1000E-09  0.0000E+00  0.5305E+16
   -0.467491    1.33644  0.0000E+00  0.3189E-13  0.5206E-16  0.1000E-09  0.0000E+00  0.5026E+16
   -0.509991    1.45521  0.0000E+00  0.3189E-13  0.5206E-16  0.1000E-09  0.0000E+00  0.4757E+16
   -0.552492    1.57327  0.0000E+00  0.3189E-13  0.5206E-16  0.1000E-09  0.0000E+00  0.4492E+16
   -0.594993    1.69053  0.0000E+00  0.3189E-13  0.5206E-16  0.1000E-09  0.0000E+00  0.4224E+16
   -0.637495    1.80679  0.0000E+00  0.3189E-13  0.5206E-16  0.1000E-09  0.0000E+00  0.3951E+16
   -0.679996    1.92166  0.0000E+00  0.3189E-13  0.5206E-16  0.1000E-09  0.0000E+00  0.3679E+16
   -0.722497    2.03490  0.0000E+00  0.3189E-13  0.5206E-16  0.1000E-09  0.0000E+00  0.3403E+16
   -0.764999    2.14607  0.0000E+00  0.3189E-13  0.5206E-16  0.1000E-09  0.0000E+00  0.3128E+16
   -0.807500    2.25471  0.0000E+00  0.3189E-13  0.5206E-16  0.1000E-09  0.0000E+00  0.2867E+16
   -0.850002    2.36084  0.0000E+00  0.3189E-13  0.5206E-16  0.1000E-09  0.0000E+00  0.2616E+16
   -0.892503    2.46433  0.0000E+00  0.3189E-13  0.5206E-16  0.1000E-09  0.0000E+00  0.2393E+16
   -0.935005    2.56577  0.0000E+00  0.3189E-13  0.5206E-16  0.1000E-09  0.0000E+00  0.2196E+16
   -0.977506    2.66584  0.0000E+00  0.3189E-13  0.5206E-16  0.1000E-09  0.0000E+00  0.2002E+16
   -1.020007    2.76434  0.0000E+00  0.3189E-13  0.5206E-16  0.1000E-09  0.0000E+00  0.1816E+16
   -1.062509    2.86130  0.0000E+00  0.3189E-13  0.5206E-16  0.1000E-09  0.0000E+00  0.1636E+16
   -1.105010    2.95657  0.0000E+00  0.3189E-13  0.5206E-16  0.1000E-09  0.0000E+00  0.1465E+16
   -1.147511    3.05023  0.0000E+00  0.3189E-13  0.5206E-16  0.1000E-09  0.0000E+00  0.1303E+16
   -1.190012    3.14236  0.0000E+00  0.3189E-13  0.5206E-16  0.1000E-09  0.0000E+00  0.1142E+16
   -1.232512    3.23248  0.0000E+00  0.3189E-13  0.5206E-16  0.1000E-09  0.0000E+00  0.9744E+15
   -1.275013    3.31905  0.0000E+00  0.3189E-13  0.5206E-16  0.1000E-09  0.0000E+00  0.8252E+15
   -1.317513    3.40243  0.0000E+00  0.3189E-13  0.5206E-16  0.1000E-09  0.0000E+00  0.7123E+15
   -1.360013    3.48556  0.0000E+00  0.3189E-13  0.5206E-16  0.1000E-09  0.0000E+00  0.6014E+15
   -1.402513    3.56854  0.0000E+00  0.1406E-12  0.1414E-15  0.1000E-09  0.0000E+00  0.4907E+15
   -1.445013    3.65127  0.0000E+00  0.6162E-12  0.5855E-15  0.1000E-09  0.0000E+00  0.3805E+15
   -1.487512    3.73353  0.0000E+00  0.2630E-11  0.2449E-14  0.1000E-09  0.0000E+00  0.2727E+15
   -1.530011    3.81541  0.0000E+00  0.1235E-10  0.1136E-13  0.1875E-09  0.0000E+00  0.1674E+15
   -1.572510    3.89754  0.0000E+00  0.6633E-10  0.6125E-13  0.2282E-08  0.0000E+00  0.6152E+14
   -1.615008    3.98063  0.0000E+00  0.3716E-09  0.3622E-12  0.1096E-06  0.0000E+00 -0.1436E+14
   -1.657506    4.02956  0.0000E+00  0.8077E-09  0.1249E-11  0.1800E-06  0.0000E+00 -0.4046E+14
   -1.700003    4.07022  0.0000E+00  0.0000E+00  0.0000E+00  0.0000E+00  0.0000E+00  0.0000E+00
