 1 - depth, m
 2 - temperature, C
 3 - salinity, kg/kg
 4 - turbulent kinetic energy, m**2/s**2
 5 - dissipation rate, m**2/s**3
 6 - kinematic heat conductance, m**2/s
 7 - modulus of horizontal velocity, m/s
 8 - Richardson number, n/d
   -0.000000    0.00000  0.0000E+00  0.1219E-03  0.4396E-04  0.5894E-04  0.1065E+00  0.9141E-02
   -0.042497    0.00381  0.0000E+00  0.7151E-04  0.1236E-04  0.7565E-04  0.3497E-01  0.2590E-02
   -0.084994    0.00608  0.0000E+00  0.5111E-04  0.5118E-05  0.8014E-04  0.2430E-01  0.3323E-02
   -0.127492    0.00797  0.0000E+00  0.3819E-04  0.2440E-05  0.8434E-04  0.1868E-01  0.6705E-02
   -0.169990    0.00964  0.0000E+00  0.2888E-04  0.1268E-05  0.8598E-04  0.1469E-01  0.8241E-02
   -0.212488    0.01127  0.0000E+00  0.2180E-04  0.6983E-06  0.8507E-04  0.1159E-01  0.1450E-01
   -0.254987    0.01293  0.0000E+00  0.1638E-04  0.3996E-06  0.8229E-04  0.9215E-02  0.3150E-01
   -0.297486    0.01466  0.0000E+00  0.1235E-04  0.2362E-06  0.7750E-04  0.7449E-02  0.8470E-01
   -0.339985    0.01650  0.0000E+00  0.9417E-05  0.1444E-06  0.7117E-04  0.6099E-02  0.1985E+00
   -0.382485    0.01848  0.0000E+00  0.7222E-05  0.9052E-07  0.6494E-04  0.4984E-02  0.4688E+01
   -0.424984    0.02065  0.0000E+00  0.5615E-05  0.5881E-07  0.5717E-04  0.4104E-02  0.1225E+01
   -0.467484    0.02314  0.0000E+00  0.4383E-05  0.3924E-07  0.4905E-04  0.3319E-02  0.7458E+00
   -0.509984    0.02608  0.0000E+00  0.3402E-05  0.2664E-07  0.4056E-04  0.2619E-02  0.1401E+01
   -0.552485    0.02980  0.0000E+00  0.2599E-05  0.1823E-07  0.3132E-04  0.2007E-02  0.3521E+01
   -0.594985    0.03563  0.0000E+00  0.1897E-05  0.1224E-07  0.2217E-04  0.1453E-02  0.4635E+02
   -0.637486    0.06943  0.0000E+00  0.1303E-05  0.7853E-08  0.1499E-04  0.9328E-03  0.4404E+04
   -0.679987    0.17846  0.0000E+00  0.8465E-06  0.4831E-08  0.8458E-05  0.5791E-03  0.1952E+06
   -0.722487    0.30978  0.0000E+00  0.4817E-06  0.2654E-08  0.3412E-05  0.3298E-03  0.1121E+08
   -0.764988    0.46538  0.0000E+00  0.2057E-06  0.1123E-08  0.4644E-06  0.1549E-03  0.9111E+09
   -0.807489    0.68705  0.0000E+00  0.4668E-07  0.2598E-09  0.2420E-07  0.5121E-04  0.5568E+11
   -0.849990    0.99533  0.0000E+00  0.5447E-08  0.3104E-10  0.4589E-08  0.8301E-05  0.2632E+13
   -0.892491    1.24581  0.0000E+00  0.4733E-09  0.2684E-11  0.9388E-09  0.1043E-05  0.1187E+15
   -0.934992    1.41537  0.0000E+00  0.3563E-10  0.1966E-12  0.1884E-09  0.1323E-06  0.7832E+15
   -0.977493    1.54461  0.0000E+00  0.2704E-11  0.1433E-13  0.1042E-09  0.1531E-07  0.1532E+16
   -1.019993    1.65258  0.0000E+00  0.2271E-12  0.1096E-14  0.1000E-09  0.2028E-08  0.2156E+16
   -1.062494    1.75948  0.0000E+00  0.4298E-13  0.1239E-15  0.1000E-09  0.2592E-09  0.2706E+16
   -1.104995    1.87383  0.0000E+00  0.3214E-13  0.5558E-16  0.1000E-09  0.3990E-10  0.3771E+16
   -1.147495    2.00652  0.0000E+00  0.3189E-13  0.5212E-16  0.1000E-09  0.7034E-11  0.4623E+16
   -1.189996    2.16429  0.0000E+00  0.3745E-13  0.5361E-16  0.1000E-09  0.9171E-12  0.4956E+16
   -1.232496    2.34228  0.0000E+00  0.1174E-12  0.1140E-15  0.1000E-09  0.6886E-13  0.4461E+16
   -1.274996    2.52075  0.0000E+00  0.5072E-12  0.4595E-15  0.1000E-09  0.4638E-14  0.3997E+16
   -1.317495    2.70193  0.0000E+00  0.2177E-11  0.1906E-14  0.1000E-09  0.2721E-15  0.3844E+16
   -1.359995    2.90514  0.0000E+00  0.9298E-11  0.7889E-14  0.1000E-09  0.1370E-16  0.3458E+16
   -1.402494    3.12889  0.0000E+00  0.3960E-10  0.3257E-13  0.1000E-09  0.8006E-18  0.2861E+16
   -1.444993    3.37377  0.0000E+00  0.1577E-09  0.1258E-12  0.1994E-09  0.5887E-19  0.2021E+16
   -1.487492    3.63983  0.0000E+00  0.6183E-09  0.4784E-12  0.1705E-08  0.3175E-20  0.9161E+15
   -1.529990    3.92295  0.0000E+00  0.2468E-08  0.1879E-11  0.3957E-06  0.8486E-22  0.1396E+14
   -1.572488    4.04152  0.0000E+00  0.6913E-08  0.6269E-11  0.3260E-05  0.1576E-23 -0.1515E+14
   -1.614986    4.05739  0.0000E+00  0.1011E-07  0.1284E-10  0.2798E-05  0.8020E-25 -0.2745E+14
   -1.657483    4.07919  0.0000E+00  0.1147E-07  0.3048E-10  0.1281E-05  0.3993E-26 -0.1093E+15
   -1.699980    4.13688  0.0000E+00  0.0000E+00  0.0000E+00  0.0000E+00  0.3994E-26  0.0000E+00
