 1 - depth, m
 2 - temperature, C
 3 - salinity, kg/kg
 4 - turbulent kinetic energy, m**2/s**2
 5 - dissipation rate, m**2/s**3
 6 - kinematic heat conductance, m**2/s
 7 - modulus of horizontal velocity, m/s
 8 - Richardson number, n/d
   -0.000000    0.00000  0.0000E+00  0.3721E-11  0.1261E-14  0.1000E-09  0.0000E+00  0.1875E+17
   -0.042497    0.29271  0.0000E+00  0.6811E-11  0.1061E-14  0.1000E-09  0.0000E+00  0.1749E+17
   -0.084995    0.58989  0.0000E+00  0.1264E-10  0.1230E-14  0.1000E-09  0.0000E+00  0.1608E+17
   -0.127493    0.88982  0.0000E+00  0.2177E-10  0.1680E-14  0.1000E-09  0.0000E+00  0.1410E+17
   -0.169991    1.18050  0.0000E+00  0.3547E-10  0.2448E-14  0.1000E-09  0.0000E+00  0.1223E+17
   -0.212490    1.46103  0.0000E+00  0.5592E-10  0.3645E-14  0.1000E-09  0.0000E+00  0.1048E+17
   -0.254989    1.73020  0.0000E+00  0.8661E-10  0.5459E-14  0.1000E-09  0.0000E+00  0.8846E+16
   -0.297488    1.98666  0.0000E+00  0.1328E-09  0.8183E-14  0.1000E-09  0.0000E+00  0.7372E+16
   -0.339987    2.22980  0.0000E+00  0.2009E-09  0.1217E-13  0.1000E-09  0.0000E+00  0.6064E+16
   -0.382487    2.45951  0.0000E+00  0.3015E-09  0.1799E-13  0.1000E-09  0.0000E+00  0.4898E+16
   -0.424987    2.67491  0.0000E+00  0.4492E-09  0.2644E-13  0.1000E-09  0.0000E+00  0.3901E+16
   -0.467488    2.87673  0.0000E+00  0.6650E-09  0.3862E-13  0.1000E-09  0.0000E+00  0.3036E+16
   -0.509988    3.06448  0.0000E+00  0.9807E-09  0.5621E-13  0.1000E-09  0.0000E+00  0.2352E+16
   -0.552489    3.24238  0.0000E+00  0.1443E-08  0.8166E-13  0.1459E-09  0.0000E+00  0.1763E+16
   -0.594989    3.41123  0.0000E+00  0.2120E-08  0.1184E-12  0.2983E-09  0.0000E+00  0.1251E+16
   -0.637490    3.57129  0.0000E+00  0.3130E-08  0.1725E-12  0.6720E-09  0.0000E+00  0.8101E+15
   -0.679991    3.72286  0.0000E+00  0.4637E-08  0.2523E-12  0.1848E-08  0.0000E+00  0.4315E+15
   -0.722492    3.86580  0.0000E+00  0.6870E-08  0.3691E-12  0.1033E-07  0.0000E+00  0.1135E+15
   -0.764993    3.99446  0.0000E+00  0.7087E-08  0.3814E-12  0.5150E-04  0.0000E+00 -0.4739E+11
   -0.807495    3.99482  0.0000E+00  0.7199E-08  0.3885E-12  0.5082E-04  0.0000E+00 -0.4894E+11
   -0.849996    3.99518  0.0000E+00  0.7308E-08  0.3961E-12  0.5113E-04  0.0000E+00 -0.4942E+11
   -0.892497    3.99554  0.0000E+00  0.7416E-08  0.4046E-12  0.5151E-04  0.0000E+00 -0.5044E+11
   -0.934998    3.99588  0.0000E+00  0.7521E-08  0.4138E-12  0.5185E-04  0.0000E+00 -0.5207E+11
   -0.977499    3.99622  0.0000E+00  0.7623E-08  0.4237E-12  0.5203E-04  0.0000E+00 -0.5389E+11
   -1.020000    3.99656  0.0000E+00  0.7720E-08  0.4344E-12  0.5209E-04  0.0000E+00 -0.5578E+11
   -1.062501    3.99691  0.0000E+00  0.7812E-08  0.4459E-12  0.5200E-04  0.0000E+00 -0.5790E+11
   -1.105002    3.99725  0.0000E+00  0.7899E-08  0.4583E-12  0.5178E-04  0.0000E+00 -0.6008E+11
   -1.147503    3.99760  0.0000E+00  0.7976E-08  0.4712E-12  0.5146E-04  0.0000E+00 -0.6236E+11
   -1.190004    3.99795  0.0000E+00  0.8044E-08  0.4849E-12  0.5095E-04  0.0000E+00 -0.6513E+11
   -1.232504    3.99830  0.0000E+00  0.8105E-08  0.5003E-12  0.5029E-04  0.0000E+00 -0.6893E+11
   -1.275004    3.99866  0.0000E+00  0.8161E-08  0.5182E-12  0.4941E-04  0.0000E+00 -0.7324E+11
   -1.317504    3.99903  0.0000E+00  0.8210E-08  0.5396E-12  0.4817E-04  0.0000E+00 -0.7757E+11
   -1.360004    3.99942  0.0000E+00  0.8252E-08  0.5662E-12  0.4649E-04  0.0000E+00 -0.8320E+11
   -1.402504    3.99982  0.0000E+00  0.8287E-08  0.6008E-12  0.4438E-04  0.0000E+00 -0.9020E+11
   -1.445003    4.00024  0.0000E+00  0.8309E-08  0.6422E-12  0.4202E-04  0.0000E+00 -0.9852E+11
   -1.487502    4.00068  0.0000E+00  0.8316E-08  0.6938E-12  0.3914E-04  0.0000E+00 -0.1099E+12
   -1.530001    4.00116  0.0000E+00  0.8299E-08  0.7806E-12  0.3437E-04  0.0000E+00 -0.1338E+12
   -1.572499    4.00173  0.0000E+00  0.8214E-08  0.1004E-11  0.2284E-04  0.0000E+00 -0.2371E+12
   -1.614997    4.00268  0.0000E+00  0.7737E-08  0.2080E-11  0.7113E-05  0.0000E+00 -0.9687E+12
   -1.657495    4.00611  0.0000E+00  0.5549E-08  0.8132E-11  0.7147E-06  0.0000E+00 -0.2053E+14
   -1.699992    4.04121  0.0000E+00  0.0000E+00  0.0000E+00  0.0000E+00  0.0000E+00  0.0000E+00
