 1 - depth, m
 2 - temperature, C
 3 - salinity, kg/kg
 4 - turbulent kinetic energy, m**2/s**2
 5 - dissipation rate, m**2/s**3
 6 - kinematic heat conductance, m**2/s
 7 - modulus of horizontal velocity, m/s
 8 - Richardson number, n/d
   -0.000000    4.36945  0.0000E+00  0.7897E-04  0.2615E-04  0.4943E-04  0.7667E-01 -0.1228E-02
   -0.042497    4.43098  0.0000E+00  0.4218E-04  0.7301E-05  0.5339E-04  0.2405E-01 -0.3681E-02
   -0.084995    4.44600  0.0000E+00  0.2827E-04  0.2679E-05  0.5144E-04  0.1627E-01 -0.2740E-02
   -0.127493    4.45882  0.0000E+00  0.1935E-04  0.1096E-05  0.5173E-04  0.1191E-01 -0.6265E-02
   -0.169992    4.47085  0.0000E+00  0.1337E-04  0.4884E-06  0.5094E-04  0.8802E-02 -0.1192E-01
   -0.212491    4.48298  0.0000E+00  0.9203E-05  0.2291E-06  0.4907E-04  0.6417E-02 -0.2869E-01
   -0.254990    4.49569  0.0000E+00  0.6321E-05  0.1124E-06  0.4691E-04  0.4629E-02  0.8042E+00
   -0.297489    4.50903  0.0000E+00  0.4405E-05  0.5735E-07  0.4526E-04  0.3371E-02  0.5762E+01
   -0.339989    4.52242  0.0000E+00  0.3172E-05  0.3076E-07  0.4505E-04  0.2482E-02  0.1447E+03
   -0.382489    4.53545  0.0000E+00  0.2365E-05  0.1730E-07  0.4780E-04  0.1812E-02  0.5064E+02
   -0.424989    4.54774  0.0000E+00  0.1850E-05  0.1038E-07  0.5334E-04  0.1333E-02  0.4782E+03
   -0.467489    4.55896  0.0000E+00  0.1516E-05  0.6636E-08  0.6181E-04  0.9609E-03  0.3815E+02
   -0.509990    4.56875  0.0000E+00  0.1297E-05  0.4519E-08  0.7443E-04  0.6792E-03  0.1372E+03
   -0.552491    4.57694  0.0000E+00  0.1154E-05  0.3280E-08  0.9403E-04  0.4734E-03  0.2058E+03
   -0.594992    4.58349  0.0000E+00  0.1063E-05  0.2541E-08  0.1200E-03  0.3260E-03  0.3480E+04
   -0.637493    4.58856  0.0000E+00  0.1005E-05  0.2087E-08  0.1464E-03  0.2269E-03  0.1047E+04
   -0.679994    4.59244  0.0000E+00  0.9705E-06  0.1803E-08  0.1730E-03  0.1639E-03  0.1532E+03
   -0.722495    4.59545  0.0000E+00  0.9499E-06  0.1616E-08  0.1910E-03  0.1235E-03  0.1614E+03
   -0.764997    4.59804  0.0000E+00  0.9366E-06  0.1477E-08  0.2029E-03  0.9669E-04  0.4920E+04
   -0.807498    4.60044  0.0000E+00  0.9271E-06  0.1364E-08  0.2133E-03  0.7756E-04  0.2293E+02
   -0.849999    4.60270  0.0000E+00  0.9203E-06  0.1271E-08  0.2235E-03  0.6301E-04  0.3152E+02
   -0.892501    4.60484  0.0000E+00  0.9153E-06  0.1194E-08  0.2337E-03  0.5174E-04  0.4198E+02
   -0.935002    4.60687  0.0000E+00  0.9115E-06  0.1130E-08  0.2433E-03  0.4295E-04  0.5750E+02
   -0.977503    4.60878  0.0000E+00  0.9085E-06  0.1076E-08  0.2524E-03  0.3583E-04  0.7294E+02
   -1.020005    4.61059  0.0000E+00  0.9058E-06  0.1031E-08  0.2607E-03  0.3010E-04  0.9537E+02
   -1.062506    4.61232  0.0000E+00  0.9034E-06  0.9940E-09  0.2681E-03  0.2531E-04  0.1159E+03
   -1.105007    4.61396  0.0000E+00  0.9009E-06  0.9632E-09  0.2744E-03  0.2130E-04  0.1405E+03
   -1.147508    4.61553  0.0000E+00  0.8984E-06  0.9390E-09  0.2795E-03  0.1779E-04  0.1677E+03
   -1.190009    4.61702  0.0000E+00  0.8958E-06  0.9208E-09  0.2830E-03  0.1461E-04  0.1991E+03
   -1.232509    4.61846  0.0000E+00  0.8929E-06  0.9076E-09  0.2850E-03  0.1176E-04  0.2441E+03
   -1.275010    4.61986  0.0000E+00  0.8896E-06  0.8991E-09  0.2855E-03  0.9403E-05  0.3529E+03
   -1.317510    4.62124  0.0000E+00  0.8858E-06  0.8957E-09  0.2842E-03  0.7462E-05  0.5346E+03
   -1.360010    4.62260  0.0000E+00  0.8812E-06  0.8984E-09  0.2805E-03  0.5889E-05  0.8272E+03
   -1.402510    4.62397  0.0000E+00  0.8756E-06  0.9088E-09  0.2744E-03  0.4660E-05  0.1402E+04
   -1.445009    4.62534  0.0000E+00  0.8694E-06  0.9283E-09  0.2663E-03  0.3650E-05  0.2407E+04
   -1.487508    4.62672  0.0000E+00  0.8628E-06  0.9601E-09  0.2550E-03  0.2753E-05  0.3322E+04
   -1.530007    4.62812  0.0000E+00  0.8545E-06  0.1018E-08  0.2378E-03  0.1958E-05  0.4239E+04
   -1.572505    4.62960  0.0000E+00  0.8405E-06  0.1155E-08  0.2055E-03  0.1330E-05  0.8195E+04
   -1.615004    4.63131  0.0000E+00  0.8010E-06  0.1633E-08  0.1497E-03  0.9326E-06  0.1050E+06
   -1.657501    4.63366  0.0000E+00  0.5600E-06  0.5791E-08  0.7990E-05  0.6393E-06 -0.2344E+08
   -1.699999    4.67649  0.0000E+00  0.0000E+00  0.0000E+00  0.0000E+00  0.6400E-06  0.0000E+00
