 1 - depth, m
 2 - temperature, C
 3 - salinity, kg/kg
 4 - turbulent kinetic energy, m**2/s**2
 5 - dissipation rate, m**2/s**3
 6 - kinematic heat conductance, m**2/s
 7 - modulus of horizontal velocity, m/s
 8 - Richardson number, n/d
   -0.000000    1.75401  0.0000E+00  0.4639E-03  0.9585E-03  0.8120E-04  0.2355E+00  0.5678E-02
   -0.042497    1.82840  0.0000E+00  0.2349E-03  0.2796E-03  0.1806E-03  0.5580E-01  0.5228E-02
   -0.084995    1.84283  0.0000E+00  0.1597E-03  0.1266E-03  0.1484E-03  0.3524E-01  0.1427E-01
   -0.127493    1.85575  0.0000E+00  0.1162E-03  0.6763E-04  0.1290E-03  0.2776E-01  0.4578E-01
   -0.169992    1.86736  0.0000E+00  0.8557E-04  0.3167E-04  0.1157E-03  0.2236E-01  0.8162E-01
   -0.212490    1.87877  0.0000E+00  0.6304E-04  0.1512E-04  0.1060E-03  0.1792E-01  0.7980E-01
   -0.254990    1.89145  0.0000E+00  0.4639E-04  0.6778E-05  0.9777E-04  0.1432E-01  0.8726E+00
   -0.297489    1.90639  0.0000E+00  0.3496E-04  0.3162E-05  0.8959E-04  0.1166E-01  0.4038E+01
   -0.339989    1.92482  0.0000E+00  0.2715E-04  0.1699E-05  0.8108E-04  0.9685E-02  0.1003E+02
   -0.382489    1.95477  0.0000E+00  0.2153E-04  0.1027E-05  0.7392E-04  0.8013E-02  0.2410E+03
   -0.424989    2.11770  0.0000E+00  0.1755E-04  0.6734E-06  0.6806E-04  0.6678E-02  0.3118E+02
   -0.467489    2.41348  0.0000E+00  0.1458E-04  0.4619E-06  0.6346E-04  0.5469E-02  0.9749E+01
   -0.509990    2.58660  0.0000E+00  0.1225E-04  0.3288E-06  0.6359E-04  0.4456E-02  0.1797E+01
   -0.552491    2.71143  0.0000E+00  0.1038E-04  0.2418E-06  0.6330E-04  0.3601E-02  0.2676E+01
   -0.594992    2.83214  0.0000E+00  0.8822E-05  0.1827E-06  0.6547E-04  0.2851E-02  0.3475E+03
   -0.637493    2.92562  0.0000E+00  0.7470E-05  0.1397E-06  0.6718E-04  0.2246E-02  0.2466E+06
   -0.679994    3.00309  0.0000E+00  0.6305E-05  0.1074E-06  0.6783E-04  0.1791E-02  0.1328E+07
   -0.722495    3.09751  0.0000E+00  0.5292E-05  0.8271E-07  0.6786E-04  0.1430E-02  0.8268E+08
   -0.764996    3.18589  0.0000E+00  0.4415E-05  0.6351E-07  0.6918E-04  0.1161E-02  0.1024E+11
   -0.807498    3.27372  0.0000E+00  0.3654E-05  0.4836E-07  0.6961E-04  0.9636E-03  0.5254E+12
   -0.849999    3.37070  0.0000E+00  0.3008E-05  0.3660E-07  0.7108E-04  0.8030E-03  0.4309E+13
   -0.892500    3.45576  0.0000E+00  0.2457E-05  0.2748E-07  0.7529E-04  0.6732E-03  0.2076E+13
   -0.935002    3.50508  0.0000E+00  0.1991E-05  0.2053E-07  0.7895E-04  0.5679E-03  0.3761E+11
   -0.977503    3.55501  0.0000E+00  0.1602E-05  0.1525E-07  0.8046E-04  0.4719E-03 -0.2219E+11
   -1.020004    3.60811  0.0000E+00  0.1283E-05  0.1128E-07  0.8209E-04  0.3958E-03 -0.1113E+11
   -1.062505    3.65955  0.0000E+00  0.1020E-05  0.8302E-08  0.8300E-04  0.3277E-03 -0.8442E+10
   -1.105006    3.70653  0.0000E+00  0.8003E-06  0.6040E-08  0.8465E-04  0.2718E-03 -0.2691E+10
   -1.147507    3.74850  0.0000E+00  0.6195E-06  0.4332E-08  0.8600E-04  0.2160E-03  0.1749E+10
   -1.190008    3.80164  0.0000E+00  0.4751E-06  0.3041E-08  0.8730E-04  0.1502E-03 -0.2817E+10
   -1.232509    3.85640  0.0000E+00  0.3573E-06  0.2027E-08  0.8817E-04  0.9107E-04 -0.1754E+11
   -1.275009    3.91011  0.0000E+00  0.2664E-06  0.1273E-08  0.8897E-04  0.5262E-04  0.2009E+12
   -1.317509    3.96826  0.0000E+00  0.1993E-06  0.7213E-09  0.9033E-04  0.2641E-04  0.1821E+14
   -1.360009    4.02138  0.0000E+00  0.1629E-06  0.4084E-09  0.9492E-04  0.1113E-04  0.8931E+13
   -1.402509    4.05431  0.0000E+00  0.1442E-06  0.2445E-09  0.9848E-04  0.5397E-05 -0.5140E+12
   -1.445008    4.06485  0.0000E+00  0.1353E-06  0.1649E-09  0.9601E-04  0.2763E-05 -0.5839E+12
   -1.487507    4.07194  0.0000E+00  0.1309E-06  0.1282E-09  0.9383E-04  0.1291E-05 -0.7215E+12
   -1.530006    4.07755  0.0000E+00  0.1283E-06  0.1119E-09  0.8402E-04  0.5110E-06 -0.9347E+12
   -1.572505    4.08261  0.0000E+00  0.1256E-06  0.1090E-09  0.7402E-04  0.1798E-06 -0.1594E+13
   -1.615003    4.08729  0.0000E+00  0.1187E-06  0.1336E-09  0.4200E-04  0.7234E-07 -0.3982E+13
   -1.657501    4.09499  0.0000E+00  0.8457E-07  0.3936E-09  0.3434E-05  0.2820E-07 -0.8532E+14
   -1.699998    4.16649  0.0000E+00  0.0000E+00  0.0000E+00  0.0000E+00  0.3270E-07  0.0000E+00
