 1 - depth, m
 2 - temperature, C
 3 - salinity, kg/kg
 4 - turbulent kinetic energy, m**2/s**2
 5 - dissipation rate, m**2/s**3
 6 - kinematic heat conductance, m**2/s
 7 - modulus of horizontal velocity, m/s
 8 - Richardson number, n/d
   -0.000000    7.11257  0.0000E+00  0.1586E-04  0.1295E-05  0.2265E-04  0.1995E-01 -0.1040E-01
   -0.042497    7.14295  0.0000E+00  0.1112E-04  0.4083E-06  0.3570E-04  0.1065E-01 -0.3170E-01
   -0.084995    7.16066  0.0000E+00  0.8345E-05  0.1868E-06  0.4568E-04  0.6895E-02 -0.7046E-01
   -0.127493    7.17427  0.0000E+00  0.6520E-05  0.1002E-06  0.5593E-04  0.4660E-02 -0.1396E+00
   -0.169992    7.18514  0.0000E+00  0.5278E-05  0.5898E-07  0.6933E-04  0.3210E-02 -0.2577E+00
   -0.212490    7.19378  0.0000E+00  0.4418E-05  0.3696E-07  0.9719E-04  0.2240E-02 -0.2866E+00
   -0.254990    7.20012  0.0000E+00  0.3872E-05  0.2517E-07  0.1788E-03  0.1605E-02  0.5218E+02
   -0.297489    7.20418  0.0000E+00  0.3533E-05  0.1852E-07  0.2105E-03  0.1250E-02  0.1151E+03
   -0.339989    7.20738  0.0000E+00  0.3325E-05  0.1454E-07  0.2464E-03  0.1007E-02  0.3489E+02
   -0.382489    7.20989  0.0000E+00  0.3200E-05  0.1207E-07  0.2830E-03  0.8349E-03  0.1469E+03
   -0.424989    7.21189  0.0000E+00  0.3129E-05  0.1045E-07  0.3146E-03  0.7099E-03  0.1156E+01
   -0.467489    7.21361  0.0000E+00  0.3084E-05  0.9250E-08  0.3400E-03  0.6082E-03  0.1167E+01
   -0.509990    7.21518  0.0000E+00  0.3056E-05  0.8313E-08  0.3669E-03  0.5170E-03  0.1210E+01
   -0.552491    7.21660  0.0000E+00  0.3039E-05  0.7581E-08  0.3940E-03  0.4373E-03  0.1237E+01
   -0.594992    7.21791  0.0000E+00  0.3030E-05  0.7006E-08  0.4206E-03  0.3677E-03  0.1220E+01
   -0.637493    7.21911  0.0000E+00  0.3026E-05  0.6547E-08  0.4459E-03  0.3084E-03  0.1167E+01
   -0.679994    7.22023  0.0000E+00  0.3025E-05  0.6181E-08  0.4689E-03  0.2604E-03  0.1177E+01
   -0.722495    7.22128  0.0000E+00  0.3027E-05  0.5887E-08  0.4901E-03  0.2219E-03  0.1258E+01
   -0.764996    7.22228  0.0000E+00  0.3030E-05  0.5644E-08  0.5100E-03  0.1913E-03  0.1433E+01
   -0.807498    7.22324  0.0000E+00  0.3034E-05  0.5440E-08  0.5288E-03  0.1672E-03  0.1728E+01
   -0.849999    7.22415  0.0000E+00  0.3038E-05  0.5270E-08  0.5459E-03  0.1476E-03  0.2083E+01
   -0.892501    7.22503  0.0000E+00  0.3042E-05  0.5123E-08  0.5617E-03  0.1311E-03  0.2492E+01
   -0.935002    7.22587  0.0000E+00  0.3044E-05  0.5000E-08  0.5757E-03  0.1170E-03  0.3023E+01
   -0.977503    7.22669  0.0000E+00  0.3046E-05  0.4895E-08  0.5879E-03  0.1046E-03  0.3532E+01
   -1.020004    7.22748  0.0000E+00  0.3045E-05  0.4809E-08  0.5979E-03  0.9368E-04  0.4164E+01
   -1.062506    7.22825  0.0000E+00  0.3044E-05  0.4740E-08  0.6053E-03  0.8381E-04  0.4732E+01
   -1.105007    7.22899  0.0000E+00  0.3040E-05  0.4689E-08  0.6102E-03  0.7488E-04  0.5366E+01
   -1.147508    7.22973  0.0000E+00  0.3035E-05  0.4657E-08  0.6124E-03  0.6656E-04  0.6054E+01
   -1.190008    7.23045  0.0000E+00  0.3028E-05  0.4645E-08  0.6114E-03  0.5865E-04  0.6727E+01
   -1.232509    7.23116  0.0000E+00  0.3019E-05  0.4652E-08  0.6070E-03  0.5119E-04  0.7678E+01
   -1.275009    7.23187  0.0000E+00  0.3008E-05  0.4684E-08  0.5988E-03  0.4447E-04  0.9749E+01
   -1.317510    7.23258  0.0000E+00  0.2994E-05  0.4747E-08  0.5861E-03  0.3844E-04  0.1282E+02
   -1.360009    7.23330  0.0000E+00  0.2976E-05  0.4851E-08  0.5675E-03  0.3307E-04  0.1716E+02
   -1.402509    7.23404  0.0000E+00  0.2953E-05  0.5018E-08  0.5420E-03  0.2838E-04  0.2501E+02
   -1.445009    7.23481  0.0000E+00  0.2928E-05  0.5251E-08  0.5111E-03  0.2411E-04  0.3709E+02
   -1.487508    7.23561  0.0000E+00  0.2899E-05  0.5582E-08  0.4771E-03  0.2000E-04  0.4678E+02
   -1.530007    7.23646  0.0000E+00  0.2862E-05  0.6153E-08  0.4129E-03  0.1606E-04  0.5909E+02
   -1.572505    7.23744  0.0000E+00  0.2798E-05  0.7475E-08  0.4265E-03  0.1242E-04  0.8336E+02
   -1.615003    7.23839  0.0000E+00  0.2556E-05  0.1435E-07  0.1727E-03  0.1024E-04 -0.3156E+08
   -1.657501    7.24346  0.0000E+00  0.1632E-05  0.5041E-07  0.3776E-04  0.6477E-05 -0.4332E+05
   -1.699998    7.25420  0.0000E+00  0.0000E+00  0.0000E+00  0.0000E+00  0.7441E-05  0.0000E+00
