 1 - depth, m
 2 - temperature, C
 3 - salinity, kg/kg
 4 - turbulent kinetic energy, m**2/s**2
 5 - dissipation rate, m**2/s**3
 6 - kinematic heat conductance, m**2/s
 7 - modulus of horizontal velocity, m/s
 8 - Richardson number, n/d
   -0.000000    5.08415  0.0000E+00  0.5112E-03  0.8538E-03  0.5753E-04  0.2303E+00  0.1071E-01
   -0.042497    5.11626  0.0000E+00  0.2541E-03  0.2587E-03  0.1928E-03  0.5064E-01 -0.6648E-02
   -0.084995    5.12306  0.0000E+00  0.1773E-03  0.1343E-03  0.1737E-03  0.3185E-01 -0.1929E-01
   -0.127493    5.12735  0.0000E+00  0.1308E-03  0.6727E-04  0.1457E-03  0.2538E-01 -0.3410E-01
   -0.169992    5.13055  0.0000E+00  0.9696E-04  0.3263E-04  0.1332E-03  0.2073E-01 -0.5117E-01
   -0.212491    5.13330  0.0000E+00  0.7230E-04  0.1705E-04  0.1285E-03  0.1685E-01  0.7383E+02
   -0.254990    5.13553  0.0000E+00  0.5366E-04  0.8615E-05  0.1279E-03  0.1374E-01  0.8564E+03
   -0.297489    5.13738  0.0000E+00  0.4087E-04  0.4525E-05  0.1291E-03  0.1132E-01  0.1174E+02
   -0.339989    5.13891  0.0000E+00  0.3210E-04  0.2468E-05  0.1323E-03  0.9450E-02  0.7464E+01
   -0.382489    5.14048  0.0000E+00  0.2587E-04  0.1409E-05  0.1385E-03  0.7849E-02  0.1234E+03
   -0.424989    5.14190  0.0000E+00  0.2144E-04  0.8562E-06  0.1449E-03  0.6628E-02  0.1517E+02
   -0.467490    5.14345  0.0000E+00  0.1816E-04  0.5624E-06  0.1523E-03  0.5542E-02  0.6958E+02
   -0.509990    5.14507  0.0000E+00  0.1562E-04  0.3964E-06  0.1604E-03  0.4614E-02  0.4408E+02
   -0.552491    5.14671  0.0000E+00  0.1358E-04  0.2929E-06  0.1678E-03  0.3830E-02  0.3084E+01
   -0.594992    5.14839  0.0000E+00  0.1188E-04  0.2231E-06  0.1759E-03  0.3151E-02  0.4137E+01
   -0.637493    5.15004  0.0000E+00  0.1042E-04  0.1724E-06  0.1850E-03  0.2581E-02  0.6181E+01
   -0.679994    5.15158  0.0000E+00  0.9165E-05  0.1345E-06  0.1938E-03  0.2128E-02  0.3369E+02
   -0.722495    5.15303  0.0000E+00  0.8083E-05  0.1056E-06  0.2028E-03  0.1760E-02  0.1149E+02
   -0.764997    5.15437  0.0000E+00  0.7143E-05  0.8305E-07  0.2121E-03  0.1470E-02  0.1876E+02
   -0.807498    5.15558  0.0000E+00  0.6329E-05  0.6541E-07  0.2225E-03  0.1245E-02  0.1804E+03
   -0.850000    5.15673  0.0000E+00  0.5632E-05  0.5165E-07  0.2332E-03  0.1062E-02  0.2221E+03
   -0.892501    5.15786  0.0000E+00  0.5030E-05  0.4077E-07  0.2440E-03  0.9096E-03  0.4729E+03
   -0.935002    5.15896  0.0000E+00  0.4517E-05  0.3229E-07  0.2546E-03  0.7826E-03  0.3598E+04
   -0.977504    5.16008  0.0000E+00  0.4079E-05  0.2564E-07  0.2661E-03  0.6724E-03  0.2140E+04
   -1.020005    5.16121  0.0000E+00  0.3707E-05  0.2046E-07  0.2780E-03  0.5780E-03  0.2576E+03
   -1.062506    5.16236  0.0000E+00  0.3393E-05  0.1645E-07  0.2878E-03  0.4945E-03  0.6284E+03
   -1.105007    5.16355  0.0000E+00  0.3128E-05  0.1333E-07  0.2970E-03  0.4212E-03  0.4977E+02
   -1.147508    5.16480  0.0000E+00  0.2909E-05  0.1097E-07  0.3037E-03  0.3541E-03  0.1875E+02
   -1.190009    5.16613  0.0000E+00  0.2731E-05  0.9191E-08  0.3089E-03  0.2909E-03  0.1851E+02
   -1.232510    5.16754  0.0000E+00  0.2580E-05  0.7827E-08  0.3125E-03  0.2333E-03  0.3157E+04
   -1.275010    5.16897  0.0000E+00  0.2451E-05  0.6771E-08  0.3147E-03  0.1852E-03 -0.3375E+02
   -1.317510    5.17044  0.0000E+00  0.2341E-05  0.5958E-08  0.3150E-03  0.1457E-03  0.3894E+03
   -1.360010    5.17194  0.0000E+00  0.2246E-05  0.5334E-08  0.3132E-03  0.1139E-03 -0.1966E+03
   -1.402510    5.17347  0.0000E+00  0.2161E-05  0.4855E-08  0.3080E-03  0.8940E-04  0.5561E+03
   -1.445009    5.17508  0.0000E+00  0.2091E-05  0.4545E-08  0.3000E-03  0.6953E-04  0.4605E+03
   -1.487508    5.17682  0.0000E+00  0.2037E-05  0.4398E-08  0.2878E-03  0.5223E-04  0.3531E+03
   -1.530007    5.17872  0.0000E+00  0.1988E-05  0.4426E-08  0.2680E-03  0.3739E-04  0.7239E+05
   -1.572506    5.18081  0.0000E+00  0.1929E-05  0.4780E-08  0.2273E-03  0.2591E-04 -0.1103E+05
   -1.615004    5.18325  0.0000E+00  0.1792E-05  0.6374E-08  0.1608E-03  0.1870E-04 -0.8476E+05
   -1.657502    5.18698  0.0000E+00  0.1177E-05  0.1998E-07  0.1132E-04  0.1308E-04 -0.1807E+09
   -1.699999    5.23682  0.0000E+00  0.0000E+00  0.0000E+00  0.0000E+00  0.1328E-04  0.0000E+00
