 1 - depth, m
 2 - temperature, C
 3 - salinity, kg/kg
 4 - turbulent kinetic energy, m**2/s**2
 5 - dissipation rate, m**2/s**3
 6 - kinematic heat conductance, m**2/s
 7 - modulus of horizontal velocity, m/s
 8 - Richardson number, n/d
   -0.000000   12.19426  0.0000E+00  0.3688E-03  0.7532E-03  0.9362E-04  0.2243E+00  0.5946E-01
   -0.042497   12.32734  0.0000E+00  0.1882E-03  0.2914E-03  0.1627E-03  0.5184E-01 -0.2771E-01
   -0.084995   12.36037  0.0000E+00  0.1249E-03  0.1119E-03  0.1332E-03  0.3120E-01 -0.1289E+00
   -0.127493   12.38315  0.0000E+00  0.8979E-04  0.5219E-04  0.1279E-03  0.2384E-01  0.1126E+00
   -0.169991   12.40026  0.0000E+00  0.6608E-04  0.2388E-04  0.1295E-03  0.1885E-01  0.1048E+02
   -0.212490   12.41611  0.0000E+00  0.4904E-04  0.1023E-04  0.1438E-03  0.1478E-01  0.9555E+02
   -0.254989   12.43054  0.0000E+00  0.3736E-04  0.4262E-05  0.1657E-03  0.1172E-01  0.1050E+03
   -0.297488   12.44191  0.0000E+00  0.2940E-04  0.2008E-05  0.1893E-03  0.9520E-02  0.7805E+02
   -0.339988   12.45090  0.0000E+00  0.2400E-04  0.1086E-05  0.2161E-03  0.7898E-02  0.1974E+03
   -0.382488   12.45869  0.0000E+00  0.2027E-04  0.6491E-06  0.2537E-03  0.6561E-02  0.1229E+03
   -0.424988   12.46450  0.0000E+00  0.1768E-04  0.4198E-06  0.2964E-03  0.5551E-02  0.2415E+03
   -0.467488   12.46943  0.0000E+00  0.1583E-04  0.2887E-06  0.3464E-03  0.4694E-02  0.4238E+02
   -0.509989   12.47349  0.0000E+00  0.1448E-04  0.2095E-06  0.3951E-03  0.3976E-02  0.1199E+03
   -0.552490   12.47685  0.0000E+00  0.1345E-04  0.1582E-06  0.4358E-03  0.3361E-02  0.5411E+02
   -0.594990   12.47969  0.0000E+00  0.1265E-04  0.1243E-06  0.4834E-03  0.2822E-02  0.9730E+02
   -0.637491   12.48212  0.0000E+00  0.1199E-04  0.1004E-06  0.5266E-03  0.2359E-02  0.2054E+02
   -0.679992   12.48425  0.0000E+00  0.1145E-04  0.8289E-07  0.5724E-03  0.1968E-02  0.9940E+01
   -0.722494   12.48612  0.0000E+00  0.1098E-04  0.6969E-07  0.6227E-03  0.1639E-02  0.9665E+01
   -0.764995   12.48780  0.0000E+00  0.1058E-04  0.5947E-07  0.6723E-03  0.1373E-02  0.7264E+01
   -0.807496   12.48931  0.0000E+00  0.1023E-04  0.5133E-07  0.7151E-03  0.1162E-02  0.5389E+01
   -0.849997   12.49073  0.0000E+00  0.9927E-05  0.4494E-07  0.7450E-03  0.9884E-03  0.1455E+03
   -0.892499   12.49206  0.0000E+00  0.9711E-05  0.4069E-07  0.8101E-03  0.8422E-03  0.7356E+01
   -0.935000   12.49328  0.0000E+00  0.9550E-05  0.3770E-07  0.8495E-03  0.7563E-03  0.4713E+01
   -0.977501   12.49442  0.0000E+00  0.9386E-05  0.3507E-07  0.8257E-03  0.6824E-03  0.4899E+01
   -1.020002   12.49559  0.0000E+00  0.9203E-05  0.3263E-07  0.8464E-03  0.5952E-03  0.3962E+01
   -1.062503   12.49671  0.0000E+00  0.9038E-05  0.3081E-07  0.8518E-03  0.5216E-03  0.4385E+01
   -1.105004   12.49781  0.0000E+00  0.8884E-05  0.2947E-07  0.8511E-03  0.4573E-03  0.5947E+01
   -1.147505   12.49890  0.0000E+00  0.8740E-05  0.2858E-07  0.8438E-03  0.3991E-03  0.5578E+01
   -1.190006   12.50000  0.0000E+00  0.8604E-05  0.2808E-07  0.8293E-03  0.3452E-03  0.6217E+01
   -1.232506   12.50111  0.0000E+00  0.8468E-05  0.2795E-07  0.8079E-03  0.2960E-03  0.7081E+01
   -1.275007   12.50225  0.0000E+00  0.8331E-05  0.2820E-07  0.7780E-03  0.2545E-03  0.8988E+01
   -1.317507   12.50343  0.0000E+00  0.8186E-05  0.2893E-07  0.7478E-03  0.2203E-03  0.1190E+02
   -1.360007   12.50466  0.0000E+00  0.8020E-05  0.3039E-07  0.6962E-03  0.1918E-03  0.1639E+02
   -1.402506   12.50600  0.0000E+00  0.7813E-05  0.3307E-07  0.6596E-03  0.1672E-03  0.2528E+02
   -1.445006   12.50746  0.0000E+00  0.7560E-05  0.3802E-07  0.5764E-03  0.1451E-03  0.6515E+02
   -1.487505   12.50946  0.0000E+00  0.7253E-05  0.4600E-07  0.5463E-03  0.1191E-03  0.4160E+03
   -1.530003   12.51154  0.0000E+00  0.6812E-05  0.6448E-07  0.4297E-03  0.9461E-04  0.1567E+05
   -1.572502   12.51670  0.0000E+00  0.6191E-05  0.1071E-06  0.4429E-03  0.6465E-04  0.7837E+06
   -1.615000   12.51647  0.0000E+00  0.4987E-05  0.2940E-06  0.2028E-03  0.5211E-04 -0.6939E+08
   -1.657497   12.53632  0.0000E+00  0.3367E-05  0.7369E-06  0.1240E-03  0.3172E-04 -0.8896E+07
   -1.699995   12.54292  0.0000E+00  0.0000E+00  0.0000E+00  0.0000E+00  0.5230E-04  0.0000E+00
