 1 - depth, m
 2 - temperature, C
 3 - salinity, kg/kg
 4 - turbulent kinetic energy, m**2/s**2
 5 - dissipation rate, m**2/s**3
 6 - kinematic heat conductance, m**2/s
 7 - modulus of horizontal velocity, m/s
 8 - Richardson number, n/d
   -0.000000    0.00000  0.0000E+00  0.3189E-13  0.5206E-16  0.1000E-09  0.0000E+00  0.1237E+17
   -0.042497    0.19038  0.0000E+00  0.3189E-13  0.5206E-16  0.1000E-09  0.0000E+00  0.1218E+17
   -0.084995    0.38834  0.0000E+00  0.3189E-13  0.5206E-16  0.1000E-09  0.0000E+00  0.1179E+17
   -0.127493    0.59165  0.0000E+00  0.3189E-13  0.5206E-16  0.1000E-09  0.0000E+00  0.1059E+17
   -0.169992    0.78594  0.0000E+00  0.3189E-13  0.5206E-16  0.1000E-09  0.0000E+00  0.9422E+16
   -0.212491    0.96992  0.0000E+00  0.3189E-13  0.5206E-16  0.1000E-09  0.0000E+00  0.8269E+16
   -0.254990    1.14169  0.0000E+00  0.3189E-13  0.5206E-16  0.1000E-09  0.0000E+00  0.7159E+16
   -0.297490    1.29969  0.0000E+00  0.3189E-13  0.5206E-16  0.1000E-09  0.0000E+00  0.6203E+16
   -0.339989    1.44491  0.0000E+00  0.3189E-13  0.5206E-16  0.1000E-09  0.0000E+00  0.5442E+16
   -0.382489    1.57986  0.0000E+00  0.3189E-13  0.5206E-16  0.1000E-09  0.0000E+00  0.4764E+16
   -0.424990    1.70481  0.0000E+00  0.3189E-13  0.5206E-16  0.1000E-09  0.0000E+00  0.4280E+16
   -0.467490    1.82344  0.0000E+00  0.3189E-13  0.5206E-16  0.1000E-09  0.0000E+00  0.3857E+16
   -0.509991    1.93644  0.0000E+00  0.5090E-13  0.5206E-16  0.1000E-09  0.0000E+00  0.3609E+16
   -0.552492    2.04835  0.0000E+00  0.1986E-12  0.5278E-16  0.1000E-09  0.0000E+00  0.3413E+16
   -0.594993    2.16071  0.0000E+00  0.4817E-12  0.8270E-16  0.1000E-09  0.0000E+00  0.3214E+16
   -0.637494    2.27345  0.0000E+00  0.9910E-12  0.1478E-15  0.1000E-09  0.0000E+00  0.2985E+16
   -0.679995    2.38546  0.0000E+00  0.1911E-11  0.2697E-15  0.1000E-09  0.0000E+00  0.2765E+16
   -0.722496    2.49691  0.0000E+00  0.3597E-11  0.4925E-15  0.1000E-09  0.0000E+00  0.2527E+16
   -0.764998    2.60683  0.0000E+00  0.6713E-11  0.8989E-15  0.1000E-09  0.0000E+00  0.2284E+16
   -0.807499    2.71450  0.0000E+00  0.1246E-10  0.1636E-14  0.1000E-09  0.0000E+00  0.2080E+16
   -0.850001    2.82138  0.0000E+00  0.2281E-10  0.2940E-14  0.1000E-09  0.0000E+00  0.1889E+16
   -0.892502    2.92796  0.0000E+00  0.4155E-10  0.5258E-14  0.1000E-09  0.0000E+00  0.1764E+16
   -0.935004    3.03840  0.0000E+00  0.7481E-10  0.9300E-14  0.1000E-09  0.0000E+00  0.1665E+16
   -0.977505    3.15628  0.0000E+00  0.1338E-09  0.1634E-13  0.1000E-09  0.0000E+00  0.1524E+16
   -1.020006    3.28149  0.0000E+00  0.2376E-09  0.2851E-13  0.1000E-09  0.0000E+00  0.1334E+16
   -1.062508    3.41336  0.0000E+00  0.4192E-09  0.4943E-13  0.1418E-09  0.0000E+00  0.1099E+16
   -1.105009    3.55140  0.0000E+00  0.7357E-09  0.8525E-13  0.3282E-09  0.0000E+00  0.8185E+15
   -1.147510    3.69429  0.0000E+00  0.1275E-08  0.1452E-12  0.9086E-09  0.0000E+00  0.5034E+15
   -1.190011    3.84056  0.0000E+00  0.2190E-08  0.2453E-12  0.4637E-08  0.0000E+00  0.1667E+15
   -1.232511    3.98727  0.0000E+00  0.2837E-08  0.3194E-12  0.5953E-05  0.0000E+00 -0.1595E+12
   -1.275012    3.99102  0.0000E+00  0.3238E-08  0.3758E-12  0.9398E-05  0.0000E+00 -0.2251E+12
   -1.317512    3.99345  0.0000E+00  0.3599E-08  0.4359E-12  0.1127E-04  0.0000E+00 -0.2602E+12
   -1.360012    3.99549  0.0000E+00  0.3940E-08  0.5040E-12  0.1232E-04  0.0000E+00 -0.2971E+12
   -1.402512    3.99736  0.0000E+00  0.4269E-08  0.5854E-12  0.1267E-04  0.0000E+00 -0.3438E+12
   -1.445011    3.99919  0.0000E+00  0.4546E-08  0.6756E-12  0.1249E-04  0.0000E+00 -0.4045E+12
   -1.487511    4.00106  0.0000E+00  0.4758E-08  0.7801E-12  0.1180E-04  0.0000E+00 -0.4912E+12
   -1.530010    4.00305  0.0000E+00  0.4915E-08  0.9324E-12  0.1035E-04  0.0000E+00 -0.6532E+12
   -1.572508    4.00538  0.0000E+00  0.5005E-08  0.1260E-11  0.7613E-05  0.0000E+00 -0.1129E+13
   -1.615006    4.00884  0.0000E+00  0.4889E-08  0.2514E-11  0.2920E-05  0.0000E+00 -0.4185E+13
   -1.657504    4.01859  0.0000E+00  0.4152E-08  0.7077E-11  0.6217E-06  0.0000E+00 -0.4009E+14
   -1.700002    4.06482  0.0000E+00  0.0000E+00  0.0000E+00  0.0000E+00  0.0000E+00  0.0000E+00
