 1 - depth, m
 2 - temperature, C
 3 - salinity, kg/kg
 4 - turbulent kinetic energy, m**2/s**2
 5 - dissipation rate, m**2/s**3
 6 - kinematic heat conductance, m**2/s
 7 - modulus of horizontal velocity, m/s
 8 - Richardson number, n/d
   -0.000000    9.63184  0.0000E+00  0.1443E-03  0.7319E-04  0.6064E-04  0.1131E+00  0.2578E-02
   -0.042497    9.67301  0.0000E+00  0.7803E-04  0.2200E-04  0.8443E-04  0.3185E-01 -0.3510E-01
   -0.084995    9.68050  0.0000E+00  0.5384E-04  0.8933E-05  0.8018E-04  0.2159E-01 -0.1979E-01
   -0.127493    9.68682  0.0000E+00  0.3888E-04  0.3969E-05  0.7937E-04  0.1639E-01 -0.2321E-01
   -0.169992    9.69244  0.0000E+00  0.2856E-04  0.1910E-05  0.7996E-04  0.1266E-01 -0.3738E-01
   -0.212490    9.69775  0.0000E+00  0.2113E-04  0.9537E-06  0.8158E-04  0.9744E-02  0.9310E+00
   -0.254990    9.70297  0.0000E+00  0.1584E-04  0.5106E-06  0.8459E-04  0.7492E-02  0.1435E+02
   -0.297489    9.70770  0.0000E+00  0.1219E-04  0.2937E-06  0.8935E-04  0.5850E-02  0.5890E+01
   -0.339989    9.71205  0.0000E+00  0.9722E-05  0.1815E-06  0.9780E-04  0.4627E-02  0.2083E+01
   -0.382489    9.71592  0.0000E+00  0.8012E-05  0.1181E-06  0.1120E-03  0.3672E-02  0.2130E+01
   -0.424989    9.71929  0.0000E+00  0.6830E-05  0.8042E-07  0.1360E-03  0.2948E-02  0.3026E+02
   -0.467489    9.72213  0.0000E+00  0.5991E-05  0.5695E-07  0.1755E-03  0.2362E-02  0.5015E+03
   -0.509990    9.72442  0.0000E+00  0.5387E-05  0.4187E-07  0.2285E-03  0.1896E-02  0.3788E+03
   -0.552491    9.72621  0.0000E+00  0.4943E-05  0.3189E-07  0.2722E-03  0.1533E-02  0.2499E+02
   -0.594992    9.72769  0.0000E+00  0.4608E-05  0.2507E-07  0.3116E-03  0.1235E-02  0.1364E+02
   -0.637493    9.72894  0.0000E+00  0.4346E-05  0.2021E-07  0.3476E-03  0.9908E-03  0.2025E+02
   -0.679994    9.73003  0.0000E+00  0.4142E-05  0.1670E-07  0.3778E-03  0.7980E-03  0.6990E+02
   -0.722495    9.73101  0.0000E+00  0.3981E-05  0.1412E-07  0.4049E-03  0.6444E-03  0.2610E+01
   -0.764996    9.73190  0.0000E+00  0.3857E-05  0.1222E-07  0.4298E-03  0.5263E-03  0.2439E+01
   -0.807498    9.73273  0.0000E+00  0.3762E-05  0.1079E-07  0.4527E-03  0.4381E-03  0.3287E+01
   -0.849999    9.73350  0.0000E+00  0.3692E-05  0.9737E-08  0.4742E-03  0.3699E-03  0.1668E+01
   -0.892500    9.73423  0.0000E+00  0.3641E-05  0.8950E-08  0.4945E-03  0.3165E-03  0.3140E+01
   -0.935002    9.73492  0.0000E+00  0.3605E-05  0.8363E-08  0.5124E-03  0.2742E-03  0.4746E+01
   -0.977503    9.73558  0.0000E+00  0.3579E-05  0.7911E-08  0.5279E-03  0.2394E-03  0.1994E+01
   -1.020004    9.73622  0.0000E+00  0.3560E-05  0.7557E-08  0.5412E-03  0.2103E-03  0.2324E+01
   -1.062505    9.73685  0.0000E+00  0.3545E-05  0.7284E-08  0.5524E-03  0.1852E-03  0.2625E+01
   -1.105006    9.73747  0.0000E+00  0.3533E-05  0.7075E-08  0.5610E-03  0.1632E-03  0.2994E+01
   -1.147507    9.73809  0.0000E+00  0.3522E-05  0.6926E-08  0.5669E-03  0.1432E-03  0.3403E+01
   -1.190008    9.73871  0.0000E+00  0.3513E-05  0.6829E-08  0.5695E-03  0.1247E-03  0.3829E+01
   -1.232509    9.73933  0.0000E+00  0.3502E-05  0.6777E-08  0.5688E-03  0.1075E-03  0.4401E+01
   -1.275009    9.73995  0.0000E+00  0.3490E-05  0.6769E-08  0.5644E-03  0.9253E-04  0.5662E+01
   -1.317509    9.74058  0.0000E+00  0.3476E-05  0.6812E-08  0.5556E-03  0.7939E-04  0.7509E+01
   -1.360009    9.74123  0.0000E+00  0.3458E-05  0.6918E-08  0.5409E-03  0.6787E-04  0.1021E+02
   -1.402509    9.74189  0.0000E+00  0.3434E-05  0.7112E-08  0.5193E-03  0.5793E-04  0.1508E+02
   -1.445008    9.74258  0.0000E+00  0.3406E-05  0.7405E-08  0.4918E-03  0.4896E-04  0.2285E+02
   -1.487507    9.74332  0.0000E+00  0.3374E-05  0.7837E-08  0.4604E-03  0.4040E-04  0.2927E+02
   -1.530006    9.74412  0.0000E+00  0.3330E-05  0.8604E-08  0.3995E-03  0.3224E-04  0.3735E+02
   -1.572505    9.74506  0.0000E+00  0.3250E-05  0.1041E-07  0.4124E-03  0.2476E-04  0.5546E+02
   -1.615003    9.74595  0.0000E+00  0.2948E-05  0.1979E-07  0.1685E-03  0.2032E-04 -0.3627E+07
   -1.657501    9.75063  0.0000E+00  0.1887E-05  0.6566E-07  0.4179E-04  0.1276E-04 -0.3540E+05
   -1.699998    9.75998  0.0000E+00  0.0000E+00  0.0000E+00  0.0000E+00  0.1471E-04  0.0000E+00
