 1 - depth, m
 2 - temperature, C
 3 - salinity, kg/kg
 4 - turbulent kinetic energy, m**2/s**2
 5 - dissipation rate, m**2/s**3
 6 - kinematic heat conductance, m**2/s
 7 - modulus of horizontal velocity, m/s
 8 - Richardson number, n/d
   -0.000000    0.00000  0.0000E+00  0.1972E-11  0.5834E-15  0.1000E-09  0.0000E+00  0.1808E+17
   -0.042497    0.28177  0.0000E+00  0.3414E-11  0.5260E-15  0.1000E-09  0.0000E+00  0.1652E+17
   -0.084994    0.56091  0.0000E+00  0.6236E-11  0.6557E-15  0.1000E-09  0.0000E+00  0.1502E+17
   -0.127492    0.83743  0.0000E+00  0.1085E-10  0.9535E-15  0.1000E-09  0.0000E+00  0.1318E+17
   -0.169989    1.10309  0.0000E+00  0.1810E-10  0.1464E-14  0.1000E-09  0.0000E+00  0.1151E+17
   -0.212488    1.35820  0.0000E+00  0.2948E-10  0.2281E-14  0.1000E-09  0.0000E+00  0.9990E+16
   -0.254986    1.60259  0.0000E+00  0.4738E-10  0.3565E-14  0.1000E-09  0.0000E+00  0.8592E+16
   -0.297485    1.83586  0.0000E+00  0.7555E-10  0.5568E-14  0.1000E-09  0.0000E+00  0.7341E+16
   -0.339984    2.05825  0.0000E+00  0.1189E-09  0.8612E-14  0.1000E-09  0.0000E+00  0.6234E+16
   -0.382484    2.27039  0.0000E+00  0.1858E-09  0.1323E-13  0.1000E-09  0.0000E+00  0.5235E+16
   -0.424983    2.47202  0.0000E+00  0.2880E-09  0.2018E-13  0.1000E-09  0.0000E+00  0.4368E+16
   -0.467483    2.66424  0.0000E+00  0.4430E-09  0.3056E-13  0.1000E-09  0.0000E+00  0.3592E+16
   -0.509983    2.84696  0.0000E+00  0.6783E-09  0.4605E-13  0.1000E-09  0.0000E+00  0.2960E+16
   -0.552484    3.02375  0.0000E+00  0.1035E-08  0.6917E-13  0.1035E-09  0.0000E+00  0.2392E+16
   -0.594984    3.19554  0.0000E+00  0.1574E-08  0.1035E-12  0.1739E-09  0.0000E+00  0.1875E+16
   -0.637484    3.36290  0.0000E+00  0.2404E-08  0.1556E-12  0.3494E-09  0.0000E+00  0.1401E+16
   -0.679985    3.52666  0.0000E+00  0.3675E-08  0.2339E-12  0.7624E-09  0.0000E+00  0.9621E+15
   -0.722486    3.68772  0.0000E+00  0.5617E-08  0.3514E-12  0.2000E-08  0.0000E+00  0.5473E+15
   -0.764987    3.84636  0.0000E+00  0.8548E-08  0.5255E-12  0.1061E-07  0.0000E+00  0.1535E+15
   -0.807487    3.99507  0.0000E+00  0.8810E-08  0.5422E-12  0.5541E-04  0.0000E+00 -0.5543E+11
   -0.849988    3.99547  0.0000E+00  0.8941E-08  0.5516E-12  0.5457E-04  0.0000E+00 -0.5796E+11
   -0.892489    3.99586  0.0000E+00  0.9071E-08  0.5620E-12  0.5501E-04  0.0000E+00 -0.5958E+11
   -0.934990    3.99625  0.0000E+00  0.9197E-08  0.5733E-12  0.5543E-04  0.0000E+00 -0.6145E+11
   -0.977490    3.99664  0.0000E+00  0.9319E-08  0.5856E-12  0.5573E-04  0.0000E+00 -0.6344E+11
   -1.019991    3.99703  0.0000E+00  0.9435E-08  0.5987E-12  0.5607E-04  0.0000E+00 -0.6528E+11
   -1.062492    3.99741  0.0000E+00  0.9546E-08  0.6131E-12  0.5920E-04  0.0000E+00 -0.6380E+11
   -1.104992    3.99777  0.0000E+00  0.9656E-08  0.6296E-12  0.5856E-04  0.0000E+00 -0.6671E+11
   -1.147493    3.99814  0.0000E+00  0.9751E-08  0.6465E-12  0.5574E-04  0.0000E+00 -0.7209E+11
   -1.189993    3.99852  0.0000E+00  0.9830E-08  0.6633E-12  0.5498E-04  0.0000E+00 -0.7538E+11
   -1.232493    3.99891  0.0000E+00  0.9900E-08  0.6822E-12  0.5429E-04  0.0000E+00 -0.7944E+11
   -1.274993    3.99930  0.0000E+00  0.9964E-08  0.7043E-12  0.5342E-04  0.0000E+00 -0.8395E+11
   -1.317492    3.99971  0.0000E+00  0.1002E-07  0.7306E-12  0.5218E-04  0.0000E+00 -0.8867E+11
   -1.359992    4.00013  0.0000E+00  0.1007E-07  0.7634E-12  0.5052E-04  0.0000E+00 -0.9470E+11
   -1.402491    4.00056  0.0000E+00  0.1010E-07  0.8060E-12  0.4839E-04  0.0000E+00 -0.1022E+12
   -1.444990    4.00101  0.0000E+00  0.1013E-07  0.8569E-12  0.4603E-04  0.0000E+00 -0.1109E+12
   -1.487489    4.00149  0.0000E+00  0.1013E-07  0.9203E-12  0.4311E-04  0.0000E+00 -0.1228E+12
   -1.529987    4.00199  0.0000E+00  0.1011E-07  0.1027E-11  0.3784E-04  0.0000E+00 -0.1481E+12
   -1.572485    4.00259  0.0000E+00  0.1000E-07  0.1301E-11  0.2510E-04  0.0000E+00 -0.2574E+12
   -1.614982    4.00357  0.0000E+00  0.9435E-08  0.2600E-11  0.8167E-05  0.0000E+00 -0.9860E+12
   -1.657479    4.00690  0.0000E+00  0.6745E-08  0.1019E-10  0.8085E-06  0.0000E+00 -0.2024E+14
   -1.699976    4.04116  0.0000E+00  0.0000E+00  0.0000E+00  0.0000E+00  0.0000E+00  0.0000E+00
