 1 - depth, m
 2 - temperature, C
 3 - salinity, kg/kg
 4 - turbulent kinetic energy, m**2/s**2
 5 - dissipation rate, m**2/s**3
 6 - kinematic heat conductance, m**2/s
 7 - modulus of horizontal velocity, m/s
 8 - Richardson number, n/d
   -0.000000   18.47562  0.0000E+00  0.6522E-04  0.3378E-04  0.3676E-04  0.5715E-01 -0.1461E-01
   -0.042497   18.50521  0.0000E+00  0.3680E-04  0.1059E-04  0.5906E-04  0.1833E-01 -0.4524E-01
   -0.084995   18.51424  0.0000E+00  0.2601E-04  0.4327E-05  0.6559E-04  0.1203E-01 -0.1889E+00
   -0.127493   18.52030  0.0000E+00  0.1909E-04  0.1923E-05  0.7617E-04  0.8741E-02 -0.1261E+00
   -0.169991   18.52481  0.0000E+00  0.1442E-04  0.9327E-06  0.1136E-03  0.6493E-02  0.5817E+03
   -0.212490   18.52797  0.0000E+00  0.1110E-04  0.4515E-06  0.1419E-03  0.4878E-02  0.4336E+02
   -0.254989   18.53044  0.0000E+00  0.8847E-05  0.2299E-06  0.1724E-03  0.3693E-02  0.7497E+02
   -0.297489   18.53237  0.0000E+00  0.7388E-05  0.1270E-06  0.2066E-03  0.2852E-02  0.6433E+01
   -0.339988   18.53384  0.0000E+00  0.6477E-05  0.7672E-07  0.2493E-03  0.2256E-02  0.6932E+02
   -0.382488   18.53506  0.0000E+00  0.5915E-05  0.5115E-07  0.3084E-03  0.1810E-02  0.9753E+02
   -0.424989   18.53599  0.0000E+00  0.5578E-05  0.3695E-07  0.3610E-03  0.1487E-02  0.1623E+02
   -0.467489   18.53680  0.0000E+00  0.5378E-05  0.2842E-07  0.4129E-03  0.1231E-02  0.2660E+02
   -0.509989   18.53748  0.0000E+00  0.5265E-05  0.2298E-07  0.4626E-03  0.1024E-02  0.4602E+01
   -0.552490   18.53808  0.0000E+00  0.5207E-05  0.1936E-07  0.5110E-03  0.8510E-03  0.4078E+01
   -0.594991   18.53862  0.0000E+00  0.5182E-05  0.1687E-07  0.5595E-03  0.7032E-03  0.2668E+01
   -0.637492   18.53912  0.0000E+00  0.5176E-05  0.1508E-07  0.6094E-03  0.5782E-03  0.1938E+01
   -0.679993   18.53957  0.0000E+00  0.5181E-05  0.1379E-07  0.6562E-03  0.4775E-03  0.2804E+01
   -0.722494   18.53998  0.0000E+00  0.5195E-05  0.1286E-07  0.6963E-03  0.3976E-03  0.1891E+01
   -0.764996   18.54034  0.0000E+00  0.5215E-05  0.1219E-07  0.7303E-03  0.3362E-03  0.1135E+01
   -0.807497   18.54067  0.0000E+00  0.5242E-05  0.1171E-07  0.7574E-03  0.2902E-03  0.1269E+01
   -0.849998   18.54098  0.0000E+00  0.5273E-05  0.1138E-07  0.7788E-03  0.2545E-03  0.1088E+01
   -0.892500   18.54128  0.0000E+00  0.5309E-05  0.1117E-07  0.7956E-03  0.2261E-03  0.1171E+01
   -0.935001   18.54157  0.0000E+00  0.5349E-05  0.1106E-07  0.8096E-03  0.2027E-03  0.1345E+01
   -0.977502   18.54188  0.0000E+00  0.5394E-05  0.1102E-07  0.8207E-03  0.1828E-03  0.1569E+01
   -1.020003   18.54218  0.0000E+00  0.5441E-05  0.1105E-07  0.8286E-03  0.1655E-03  0.1890E+01
   -1.062505   18.54251  0.0000E+00  0.5489E-05  0.1114E-07  0.8328E-03  0.1500E-03  0.2259E+01
   -1.105006   18.54285  0.0000E+00  0.5537E-05  0.1129E-07  0.8329E-03  0.1359E-03  0.2738E+01
   -1.147506   18.54321  0.0000E+00  0.5581E-05  0.1149E-07  0.8285E-03  0.1228E-03  0.3312E+01
   -1.190007   18.54361  0.0000E+00  0.5618E-05  0.1175E-07  0.8197E-03  0.1102E-03  0.3896E+01
   -1.232508   18.54404  0.0000E+00  0.5649E-05  0.1207E-07  0.8064E-03  0.9819E-04  0.4622E+01
   -1.275008   18.54449  0.0000E+00  0.5672E-05  0.1248E-07  0.7861E-03  0.8720E-04  0.6001E+01
   -1.317508   18.54497  0.0000E+00  0.5687E-05  0.1303E-07  0.7603E-03  0.7718E-04  0.7999E+01
   -1.360008   18.54548  0.0000E+00  0.5691E-05  0.1377E-07  0.7219E-03  0.6802E-04  0.1103E+02
   -1.402508   18.54603  0.0000E+00  0.5682E-05  0.1484E-07  0.6809E-03  0.5973E-04  0.1673E+02
   -1.445007   18.54663  0.0000E+00  0.5656E-05  0.1633E-07  0.6183E-03  0.5197E-04  0.3065E+02
   -1.487506   18.54736  0.0000E+00  0.5606E-05  0.1846E-07  0.5773E-03  0.4392E-04  0.3278E+02
   -1.530005   18.54818  0.0000E+00  0.5512E-05  0.2227E-07  0.4603E-03  0.3612E-04 -0.2365E+01
   -1.572504   18.54942  0.0000E+00  0.5328E-05  0.3087E-07  0.5236E-03  0.2802E-04  0.7120E+05
   -1.615002   18.55023  0.0000E+00  0.4717E-05  0.7163E-07  0.1945E-03  0.2355E-04 -0.3051E+07
   -1.657499   18.55762  0.0000E+00  0.3137E-05  0.2148E-06  0.7335E-04  0.1492E-04 -0.2631E+06
   -1.699997   18.56679  0.0000E+00  0.0000E+00  0.0000E+00  0.0000E+00  0.1821E-04  0.0000E+00
