 1 - depth, m
 2 - temperature, C
 3 - salinity, kg/kg
 4 - turbulent kinetic energy, m**2/s**2
 5 - dissipation rate, m**2/s**3
 6 - kinematic heat conductance, m**2/s
 7 - modulus of horizontal velocity, m/s
 8 - Richardson number, n/d
   -0.000000    0.00000  0.0000E+00  0.3189E-13  0.5207E-16  0.1000E-09  0.1705E-55  0.1101E+17
   -0.042496    0.16910  0.0000E+00  0.3189E-13  0.5207E-16  0.1000E-09  0.3684E-56  0.8294E+16
   -0.084992    0.30210  0.0000E+00  0.3189E-13  0.5207E-16  0.1000E-09  0.7614E-57  0.6507E+16
   -0.127489    0.41019  0.0000E+00  0.3189E-13  0.5207E-16  0.1000E-09  0.1501E-57  0.5015E+16
   -0.169986    0.49598  0.0000E+00  0.3189E-13  0.5207E-16  0.1000E-09  0.2812E-58  0.3998E+16
   -0.212484    0.56600  0.0000E+00  0.3189E-13  0.5207E-16  0.1000E-09  0.4687E-59  0.3145E+16
   -0.254982    0.62214  0.0000E+00  0.3189E-13  0.5207E-16  0.1000E-09  0.7284E-60  0.2419E+16
   -0.297480    0.66599  0.0000E+00  0.3189E-13  0.5207E-16  0.1000E-09  0.1279E-60  0.2158E+16
   -0.339978    0.70560  0.0000E+00  0.3189E-13  0.5207E-16  0.1000E-09  0.2834E-61  0.2467E+16
   -0.382477    0.75146  0.0000E+00  0.3189E-13  0.5207E-16  0.1000E-09  0.6321E-62  0.2819E+16
   -0.424976    0.80472  0.0000E+00  0.3189E-13  0.5207E-16  0.1000E-09  0.1981E-62  0.3618E+16
   -0.467475    0.87445  0.0000E+00  0.3189E-13  0.5207E-16  0.1000E-09  0.5971E-63  0.4345E+16
   -0.509974    0.96044  0.0000E+00  0.3189E-13  0.5207E-16  0.1000E-09  0.1613E-63  0.5103E+16
   -0.552473    1.06483  0.0000E+00  0.3545E-13  0.5207E-16  0.1000E-09  0.4048E-64  0.5754E+16
   -0.594973    1.18743  0.0000E+00  0.5858E-13  0.5564E-16  0.1000E-09  0.7748E-65  0.6104E+16
   -0.637473    1.32394  0.0000E+00  0.1515E-12  0.7449E-16  0.1000E-09  0.1064E-65  0.6047E+16
   -0.679973    1.46677  0.0000E+00  0.3979E-12  0.1394E-15  0.1000E-09  0.1355E-66  0.5875E+16
   -0.722473    1.61410  0.0000E+00  0.1031E-11  0.3122E-15  0.1000E-09  0.1448E-67  0.5469E+16
   -0.764973    1.76031  0.0000E+00  0.2586E-11  0.7406E-15  0.1000E-09  0.1412E-68  0.4937E+16
   -0.807473    1.90138  0.0000E+00  0.6344E-11  0.1760E-14  0.1000E-09  0.1598E-69  0.4565E+16
   -0.849973    2.04122  0.0000E+00  0.1517E-10  0.4097E-14  0.1000E-09  0.1924E-70  0.4223E+16
   -0.892473    2.18047  0.0000E+00  0.3587E-10  0.9438E-14  0.1000E-09  0.2373E-71  0.4008E+16
   -0.934973    2.32376  0.0000E+00  0.8312E-10  0.2133E-13  0.1000E-09  0.3500E-72  0.3926E+16
   -0.977473    2.47774  0.0000E+00  0.1903E-09  0.4766E-13  0.1005E-09  0.4855E-73  0.3734E+16
   -1.019973    2.64102  0.0000E+00  0.4297E-09  0.1051E-12  0.1303E-09  0.8011E-74  0.3519E+16
   -1.062472    2.81633  0.0000E+00  0.9586E-09  0.2290E-12  0.2424E-09  0.1266E-74  0.3234E+16
   -1.104972    3.00599  0.0000E+00  0.2115E-08  0.4939E-12  0.5389E-09  0.2548E-75  0.2902E+16
   -1.147472    3.21747  0.0000E+00  0.4575E-08  0.1045E-11  0.1407E-08  0.6128E-76  0.2417E+16
   -1.189971    3.46092  0.0000E+00  0.9740E-08  0.2179E-11  0.6257E-08  0.9896E-77  0.1578E+16
   -1.232470    3.74046  0.0000E+00  0.1587E-07  0.3616E-11  0.1030E-04  0.8298E-78  0.6326E+15
   -1.274970    3.93797  0.0000E+00  0.1963E-07  0.4526E-11  0.2665E-04  0.6169E-79  0.1210E+15
   -1.317468    4.02804  0.0000E+00  0.2110E-07  0.4930E-11  0.3687E-04  0.3396E-80 -0.9855E+12
   -1.359967    4.03000  0.0000E+00  0.2202E-07  0.5255E-11  0.3738E-04  0.6160E-81 -0.1063E+13
   -1.402465    4.03160  0.0000E+00  0.2285E-07  0.5632E-11  0.3733E-04  0.2310E-81 -0.1117E+13
   -1.444964    4.03320  0.0000E+00  0.2350E-07  0.6048E-11  0.3673E-04  0.9967E-82 -0.1192E+13
   -1.487461    4.03485  0.0000E+00  0.2396E-07  0.6533E-11  0.3527E-04  0.3782E-82 -0.1310E+13
   -1.529959    4.03659  0.0000E+00  0.2427E-07  0.7244E-11  0.3258E-04  0.1007E-82 -0.1542E+13
   -1.572456    4.03857  0.0000E+00  0.2439E-07  0.8777E-11  0.2747E-04  0.1907E-83 -0.2227E+13
   -1.614953    4.04130  0.0000E+00  0.2384E-07  0.1489E-10  0.1222E-04  0.4094E-84 -0.6386E+13
   -1.657449    4.04846  0.0000E+00  0.1948E-07  0.4640E-10  0.1895E-05  0.5319E-85 -0.7014E+14
   -1.699945    4.09974  0.0000E+00  0.0000E+00  0.0000E+00  0.0000E+00  0.5998E-85  0.0000E+00
