 1 - depth, m
 2 - temperature, C
 3 - salinity, kg/kg
 4 - turbulent kinetic energy, m**2/s**2
 5 - dissipation rate, m**2/s**3
 6 - kinematic heat conductance, m**2/s
 7 - modulus of horizontal velocity, m/s
 8 - Richardson number, n/d
   -0.000000   15.65746  0.0000E+00  0.1333E-03  0.5522E-04  0.6121E-04  0.1062E+00 -0.1507E+01
   -0.042497   15.73243  0.0000E+00  0.7335E-04  0.1558E-04  0.8502E-04  0.2986E-01 -0.3342E+00
   -0.084995   15.74780  0.0000E+00  0.5141E-04  0.6445E-05  0.8748E-04  0.2018E-01 -0.1457E+00
   -0.127493   15.75905  0.0000E+00  0.3816E-04  0.3070E-05  0.9382E-04  0.1535E-01 -0.7523E-01
   -0.169992   15.76812  0.0000E+00  0.2911E-04  0.1592E-05  0.1025E-03  0.1191E-01  0.1666E+02
   -0.212490   15.77600  0.0000E+00  0.2261E-04  0.8748E-06  0.1172E-03  0.9275E-02  0.4312E+02
   -0.254990   15.78286  0.0000E+00  0.1796E-04  0.5063E-06  0.1386E-03  0.7296E-02  0.4092E+02
   -0.297489   15.78876  0.0000E+00  0.1475E-04  0.3102E-06  0.1760E-03  0.5855E-02  0.7577E+02
   -0.339989   15.79357  0.0000E+00  0.1258E-04  0.2012E-06  0.2296E-03  0.4796E-02  0.3241E+02
   -0.382489   15.79734  0.0000E+00  0.1110E-04  0.1376E-06  0.2990E-03  0.3985E-02  0.3178E+03
   -0.424989   15.80017  0.0000E+00  0.1012E-04  0.9975E-07  0.3585E-03  0.3372E-02  0.2478E+03
   -0.467489   15.80236  0.0000E+00  0.9441E-05  0.7604E-07  0.4056E-03  0.2859E-02  0.1282E+02
   -0.509990   15.80415  0.0000E+00  0.8962E-05  0.6042E-07  0.4459E-03  0.2410E-02  0.5840E+01
   -0.552491   15.80568  0.0000E+00  0.8617E-05  0.4973E-07  0.4831E-03  0.2016E-02  0.1685E+02
   -0.594992   15.80702  0.0000E+00  0.8362E-05  0.4216E-07  0.5199E-03  0.1669E-02  0.6403E+01
   -0.637493   15.80820  0.0000E+00  0.8160E-05  0.3650E-07  0.5629E-03  0.1368E-02  0.6126E+01
   -0.679994   15.80926  0.0000E+00  0.7996E-05  0.3216E-07  0.6081E-03  0.1121E-02  0.4938E+01
   -0.722495   15.81023  0.0000E+00  0.7858E-05  0.2877E-07  0.6600E-03  0.9183E-03  0.1588E+01
   -0.764996   15.81112  0.0000E+00  0.7740E-05  0.2611E-07  0.7126E-03  0.7591E-03  0.1409E+01
   -0.807498   15.81193  0.0000E+00  0.7636E-05  0.2402E-07  0.7553E-03  0.6382E-03  0.1327E+01
   -0.849999   15.81269  0.0000E+00  0.7543E-05  0.2239E-07  0.7899E-03  0.5439E-03  0.1269E+01
   -0.892500   15.81340  0.0000E+00  0.7455E-05  0.2112E-07  0.8172E-03  0.4693E-03  0.1216E+01
   -0.935002   15.81407  0.0000E+00  0.7371E-05  0.2013E-07  0.8361E-03  0.4099E-03  0.1199E+01
   -0.977503   15.81472  0.0000E+00  0.7288E-05  0.1937E-07  0.8470E-03  0.3610E-03  0.1163E+01
   -1.020004   15.81534  0.0000E+00  0.7206E-05  0.1879E-07  0.8509E-03  0.3207E-03  0.1158E+01
   -1.062505   15.81594  0.0000E+00  0.7123E-05  0.1838E-07  0.8487E-03  0.2864E-03  0.1144E+01
   -1.105006   15.81653  0.0000E+00  0.7040E-05  0.1809E-07  0.8416E-03  0.2568E-03  0.1162E+01
   -1.147507   15.81711  0.0000E+00  0.6958E-05  0.1794E-07  0.8301E-03  0.2303E-03  0.1207E+01
   -1.190008   15.81767  0.0000E+00  0.6875E-05  0.1792E-07  0.8135E-03  0.2058E-03  0.1269E+01
   -1.232509   15.81823  0.0000E+00  0.6788E-05  0.1804E-07  0.7910E-03  0.1829E-03  0.1392E+01
   -1.275009   15.81880  0.0000E+00  0.6692E-05  0.1833E-07  0.7610E-03  0.1625E-03  0.1751E+01
   -1.317509   15.81937  0.0000E+00  0.6582E-05  0.1886E-07  0.7269E-03  0.1440E-03  0.2367E+01
   -1.360009   15.81997  0.0000E+00  0.6449E-05  0.1980E-07  0.6714E-03  0.1271E-03  0.3434E+01
   -1.402509   15.82061  0.0000E+00  0.6281E-05  0.2141E-07  0.6317E-03  0.1115E-03  0.5679E+01
   -1.445008   15.82129  0.0000E+00  0.6080E-05  0.2430E-07  0.5480E-03  0.9706E-04  0.2355E+02
   -1.487507   15.82220  0.0000E+00  0.5826E-05  0.2928E-07  0.5151E-03  0.8001E-04  0.4323E+02
   -1.530006   15.82321  0.0000E+00  0.5443E-05  0.4057E-07  0.3981E-03  0.6310E-04 -0.8487E+04
   -1.572505   15.82562  0.0000E+00  0.4857E-05  0.6546E-07  0.4075E-03  0.4233E-04  0.2297E+06
   -1.615003   15.82558  0.0000E+00  0.3819E-05  0.1724E-06  0.1824E-03  0.3369E-04 -0.4358E+07
   -1.657501   15.83501  0.0000E+00  0.2531E-05  0.4589E-06  0.1151E-03  0.2016E-04 -0.6523E+05
   -1.699998   15.83727  0.0000E+00  0.0000E+00  0.0000E+00  0.0000E+00  0.3363E-04  0.0000E+00
