 1 - depth, m
 2 - temperature, C
 3 - salinity, kg/kg
 4 - turbulent kinetic energy, m**2/s**2
 5 - dissipation rate, m**2/s**3
 6 - kinematic heat conductance, m**2/s
 7 - modulus of horizontal velocity, m/s
 8 - Richardson number, n/d
   -0.000000    9.75892  0.0000E+00  0.9686E-04  0.2810E-04  0.5567E-04  0.7348E-01  0.6363E-02
   -0.042498    9.80396  0.0000E+00  0.5468E-04  0.8520E-05  0.7995E-04  0.2153E-01 -0.8748E-01
   -0.084995    9.81457  0.0000E+00  0.3904E-04  0.4043E-05  0.7734E-04  0.1488E-01 -0.1669E+00
   -0.127494    9.82259  0.0000E+00  0.2871E-04  0.2079E-05  0.7889E-04  0.1129E-01 -0.8064E-01
   -0.169992    9.82928  0.0000E+00  0.2140E-04  0.1110E-05  0.8439E-04  0.8721E-02 -0.1711E+00
   -0.212491    9.83516  0.0000E+00  0.1610E-04  0.6117E-06  0.1044E-03  0.6741E-02  0.5963E+02
   -0.254991    9.84028  0.0000E+00  0.1229E-04  0.3463E-06  0.1234E-03  0.5246E-02  0.4035E+02
   -0.297490    9.84487  0.0000E+00  0.9614E-05  0.2018E-06  0.1417E-03  0.4145E-02  0.3149E+01
   -0.339990    9.84899  0.0000E+00  0.7796E-05  0.1232E-06  0.1650E-03  0.3311E-02  0.3047E+01
   -0.382491    9.85258  0.0000E+00  0.6553E-05  0.7853E-07  0.1965E-03  0.2649E-02  0.7663E+02
   -0.424991    9.85560  0.0000E+00  0.5722E-05  0.5266E-07  0.2323E-03  0.2143E-02  0.5960E+02
   -0.467492    9.85808  0.0000E+00  0.5161E-05  0.3719E-07  0.2721E-03  0.1734E-02  0.2284E+02
   -0.509992    9.86011  0.0000E+00  0.4778E-05  0.2764E-07  0.3112E-03  0.1406E-02  0.5484E+02
   -0.552493    9.86178  0.0000E+00  0.4515E-05  0.2157E-07  0.3512E-03  0.1138E-02  0.1951E+03
   -0.594994    9.86319  0.0000E+00  0.4333E-05  0.1758E-07  0.3888E-03  0.9162E-03  0.7252E+02
   -0.637496    9.86441  0.0000E+00  0.4202E-05  0.1483E-07  0.4244E-03  0.7346E-03  0.6504E+01
   -0.679997    9.86548  0.0000E+00  0.4111E-05  0.1289E-07  0.4577E-03  0.5920E-03  0.2240E+01
   -0.722499    9.86643  0.0000E+00  0.4048E-05  0.1149E-07  0.4890E-03  0.4807E-03  0.2155E+02
   -0.765000    9.86730  0.0000E+00  0.4005E-05  0.1048E-07  0.5165E-03  0.3971E-03  0.1589E+01
   -0.807502    9.86810  0.0000E+00  0.3976E-05  0.9713E-08  0.5398E-03  0.3360E-03  0.1103E+01
   -0.850003    9.86885  0.0000E+00  0.3957E-05  0.9133E-08  0.5603E-03  0.2891E-03  0.1133E+01
   -0.892505    9.86957  0.0000E+00  0.3944E-05  0.8678E-08  0.5788E-03  0.2521E-03  0.1228E+01
   -0.935006    9.87027  0.0000E+00  0.3935E-05  0.8321E-08  0.5954E-03  0.2223E-03  0.1409E+01
   -0.977508    9.87094  0.0000E+00  0.3930E-05  0.8039E-08  0.6099E-03  0.1971E-03  0.1592E+01
   -1.020009    9.87159  0.0000E+00  0.3926E-05  0.7817E-08  0.6222E-03  0.1756E-03  0.1851E+01
   -1.062511    9.87223  0.0000E+00  0.3922E-05  0.7646E-08  0.6319E-03  0.1566E-03  0.2081E+01
   -1.105012    9.87285  0.0000E+00  0.3918E-05  0.7520E-08  0.6387E-03  0.1396E-03  0.2362E+01
   -1.147513    9.87347  0.0000E+00  0.3913E-05  0.7437E-08  0.6423E-03  0.1240E-03  0.2661E+01
   -1.190014    9.87409  0.0000E+00  0.3906E-05  0.7396E-08  0.6424E-03  0.1092E-03  0.2971E+01
   -1.232515    9.87471  0.0000E+00  0.3898E-05  0.7395E-08  0.6386E-03  0.9538E-04  0.3379E+01
   -1.275015    9.87533  0.0000E+00  0.3886E-05  0.7437E-08  0.6306E-03  0.8298E-04  0.4288E+01
   -1.317516    9.87596  0.0000E+00  0.3870E-05  0.7533E-08  0.6173E-03  0.7189E-04  0.5593E+01
   -1.360016    9.87660  0.0000E+00  0.3849E-05  0.7703E-08  0.5974E-03  0.6201E-04  0.7491E+01
   -1.402516    9.87727  0.0000E+00  0.3822E-05  0.7979E-08  0.5695E-03  0.5337E-04  0.1088E+02
   -1.445016    9.87797  0.0000E+00  0.3790E-05  0.8372E-08  0.5348E-03  0.4549E-04  0.1629E+02
   -1.487515    9.87871  0.0000E+00  0.3752E-05  0.8934E-08  0.4986E-03  0.3788E-04  0.2070E+02
   -1.530014    9.87952  0.0000E+00  0.3701E-05  0.9919E-08  0.4227E-03  0.3057E-04  0.2695E+02
   -1.572513    9.88048  0.0000E+00  0.3609E-05  0.1221E-07  0.4549E-03  0.2369E-04  0.3617E+02
   -1.615011    9.88136  0.0000E+00  0.3253E-05  0.2430E-07  0.1757E-03  0.1971E-04 -0.7139E+07
   -1.657509    9.88673  0.0000E+00  0.2078E-05  0.8021E-07  0.4774E-04  0.1236E-04 -0.1408E+05
   -1.700006    9.89524  0.0000E+00  0.0000E+00  0.0000E+00  0.0000E+00  0.1441E-04  0.0000E+00
