 1 - depth, m
 2 - temperature, C
 3 - salinity, kg/kg
 4 - turbulent kinetic energy, m**2/s**2
 5 - dissipation rate, m**2/s**3
 6 - kinematic heat conductance, m**2/s
 7 - modulus of horizontal velocity, m/s
 8 - Richardson number, n/d
   -0.000000    0.00000  0.0000E+00  0.3189E-13  0.5206E-16  0.1000E-09  0.0000E+00  0.8773E+16
   -0.042497    0.13401  0.0000E+00  0.3189E-13  0.5206E-16  0.1000E-09  0.0000E+00  0.8843E+16
   -0.084995    0.27432  0.0000E+00  0.3189E-13  0.5206E-16  0.1000E-09  0.0000E+00  0.8830E+16
   -0.127493    0.42028  0.0000E+00  0.3189E-13  0.5206E-16  0.1000E-09  0.0000E+00  0.8405E+16
   -0.169992    0.56536  0.0000E+00  0.3189E-13  0.5206E-16  0.1000E-09  0.0000E+00  0.7978E+16
   -0.212491    0.70936  0.0000E+00  0.3189E-13  0.5206E-16  0.1000E-09  0.0000E+00  0.7546E+16
   -0.254990    0.85200  0.0000E+00  0.3189E-13  0.5206E-16  0.1000E-09  0.0000E+00  0.7113E+16
   -0.297490    0.99302  0.0000E+00  0.3189E-13  0.5206E-16  0.1000E-09  0.0000E+00  0.6691E+16
   -0.339989    1.13235  0.0000E+00  0.3189E-13  0.5206E-16  0.1000E-09  0.0000E+00  0.6286E+16
   -0.382489    1.27009  0.0000E+00  0.3189E-13  0.5206E-16  0.1000E-09  0.0000E+00  0.5887E+16
   -0.424990    1.40606  0.0000E+00  0.3189E-13  0.5206E-16  0.1000E-09  0.0000E+00  0.5509E+16
   -0.467490    1.54045  0.0000E+00  0.3189E-13  0.5206E-16  0.1000E-09  0.0000E+00  0.5138E+16
   -0.509991    1.67311  0.0000E+00  0.3189E-13  0.5206E-16  0.1000E-09  0.0000E+00  0.4793E+16
   -0.552492    1.80440  0.0000E+00  0.3189E-13  0.5206E-16  0.1000E-09  0.0000E+00  0.4456E+16
   -0.594993    1.93428  0.0000E+00  0.3189E-13  0.5206E-16  0.1000E-09  0.0000E+00  0.4122E+16
   -0.637494    2.06249  0.0000E+00  0.3189E-13  0.5206E-16  0.1000E-09  0.0000E+00  0.3787E+16
   -0.679995    2.18858  0.0000E+00  0.3189E-13  0.5206E-16  0.1000E-09  0.0000E+00  0.3457E+16
   -0.722496    2.31224  0.0000E+00  0.3189E-13  0.5206E-16  0.1000E-09  0.0000E+00  0.3130E+16
   -0.764998    2.43290  0.0000E+00  0.3189E-13  0.5206E-16  0.1000E-09  0.0000E+00  0.2808E+16
   -0.807499    2.54998  0.0000E+00  0.3189E-13  0.5206E-16  0.1000E-09  0.0000E+00  0.2508E+16
   -0.850001    2.66349  0.0000E+00  0.3189E-13  0.5206E-16  0.1000E-09  0.0000E+00  0.2224E+16
   -0.892502    2.77321  0.0000E+00  0.3189E-13  0.5206E-16  0.1000E-09  0.0000E+00  0.1976E+16
   -0.935003    2.88000  0.0000E+00  0.3189E-13  0.5206E-16  0.1000E-09  0.0000E+00  0.1758E+16
   -0.977505    2.98472  0.0000E+00  0.4164E-13  0.5206E-16  0.1000E-09  0.0000E+00  0.1548E+16
   -1.020006    3.08717  0.0000E+00  0.1801E-12  0.6712E-16  0.1000E-09  0.0000E+00  0.1350E+16
   -1.062507    3.18733  0.0000E+00  0.4932E-12  0.1420E-15  0.1000E-09  0.0000E+00  0.1161E+16
   -1.105008    3.28498  0.0000E+00  0.1177E-11  0.3164E-15  0.1000E-09  0.0000E+00  0.9855E+15
   -1.147509    3.38022  0.0000E+00  0.2662E-11  0.6922E-15  0.1000E-09  0.0000E+00  0.8216E+15
   -1.190010    3.47312  0.0000E+00  0.5904E-11  0.1496E-14  0.1000E-09  0.0000E+00  0.6642E+15
   -1.232511    3.56300  0.0000E+00  0.1331E-10  0.3292E-14  0.1000E-09  0.0000E+00  0.5089E+15
   -1.275011    3.64777  0.0000E+00  0.3024E-10  0.7307E-14  0.1000E-09  0.0000E+00  0.3764E+15
   -1.317512    3.72788  0.0000E+00  0.6903E-10  0.1630E-13  0.1870E-09  0.0000E+00  0.2728E+15
   -1.360012    3.80721  0.0000E+00  0.1588E-09  0.3669E-13  0.6648E-09  0.0000E+00  0.1721E+15
   -1.402512    3.88554  0.0000E+00  0.3683E-09  0.8331E-13  0.3443E-08  0.0000E+00  0.7476E+14
   -1.445011    3.96144  0.0000E+00  0.7864E-09  0.1753E-12  0.1304E-06  0.0000E+00  0.3096E+13
   -1.487510    4.00154  0.0000E+00  0.1351E-08  0.3127E-12  0.2705E-05  0.0000E+00 -0.1027E+13
   -1.530009    4.00537  0.0000E+00  0.1653E-08  0.4245E-12  0.2816E-05  0.0000E+00 -0.1240E+13
   -1.572508    4.00915  0.0000E+00  0.1864E-08  0.6046E-12  0.2357E-05  0.0000E+00 -0.1930E+13
   -1.615006    4.01403  0.0000E+00  0.1970E-08  0.1104E-11  0.1177E-05  0.0000E+00 -0.5231E+13
   -1.657504    4.02421  0.0000E+00  0.1730E-08  0.2502E-11  0.3148E-06  0.0000E+00 -0.2959E+14
   -1.700001    4.05854  0.0000E+00  0.0000E+00  0.0000E+00  0.0000E+00  0.0000E+00  0.0000E+00
