 1 - depth, m
 2 - temperature, C
 3 - salinity, kg/kg
 4 - turbulent kinetic energy, m**2/s**2
 5 - dissipation rate, m**2/s**3
 6 - kinematic heat conductance, m**2/s
 7 - modulus of horizontal velocity, m/s
 8 - Richardson number, n/d
   -0.000000    0.00000  0.0000E+00  0.3189E-13  0.5206E-16  0.1000E-09  0.0000E+00  0.1148E+17
   -0.042497    0.17634  0.0000E+00  0.3189E-13  0.5206E-16  0.1000E-09  0.0000E+00  0.1148E+17
   -0.084995    0.36180  0.0000E+00  0.3189E-13  0.5206E-16  0.1000E-09  0.0000E+00  0.1132E+17
   -0.127493    0.55519  0.0000E+00  0.3189E-13  0.5206E-16  0.1000E-09  0.0000E+00  0.1045E+17
   -0.169992    0.74451  0.0000E+00  0.3189E-13  0.5206E-16  0.1000E-09  0.0000E+00  0.9585E+16
   -0.212491    0.92911  0.0000E+00  0.3189E-13  0.5206E-16  0.1000E-09  0.0000E+00  0.8717E+16
   -0.254990    1.10780  0.0000E+00  0.3189E-13  0.5206E-16  0.1000E-09  0.0000E+00  0.7860E+16
   -0.297490    1.27952  0.0000E+00  0.7610E-13  0.5206E-16  0.1000E-09  0.0000E+00  0.7084E+16
   -0.339990    1.44469  0.0000E+00  0.2510E-12  0.5503E-16  0.1000E-09  0.0000E+00  0.6414E+16
   -0.382490    1.60455  0.0000E+00  0.5696E-12  0.8645E-16  0.1000E-09  0.0000E+00  0.5781E+16
   -0.424990    1.75885  0.0000E+00  0.1112E-11  0.1490E-15  0.1000E-09  0.0000E+00  0.5252E+16
   -0.467490    1.90933  0.0000E+00  0.2037E-11  0.2593E-15  0.1000E-09  0.0000E+00  0.4750E+16
   -0.509991    2.05587  0.0000E+00  0.3629E-11  0.4490E-15  0.1000E-09  0.0000E+00  0.4353E+16
   -0.552492    2.20105  0.0000E+00  0.6386E-11  0.7734E-15  0.1000E-09  0.0000E+00  0.3980E+16
   -0.594993    2.34536  0.0000E+00  0.1115E-10  0.1326E-14  0.1000E-09  0.0000E+00  0.3604E+16
   -0.637494    2.48832  0.0000E+00  0.1957E-10  0.2285E-14  0.1000E-09  0.0000E+00  0.3217E+16
   -0.679995    2.62891  0.0000E+00  0.3438E-10  0.3945E-14  0.1000E-09  0.0000E+00  0.2840E+16
   -0.722497    2.76676  0.0000E+00  0.6053E-10  0.6827E-14  0.1000E-09  0.0000E+00  0.2466E+16
   -0.764998    2.90086  0.0000E+00  0.1068E-09  0.1184E-13  0.1000E-09  0.0000E+00  0.2104E+16
   -0.807500    3.03034  0.0000E+00  0.1883E-09  0.2053E-13  0.1000E-09  0.0000E+00  0.1782E+16
   -0.850001    3.15588  0.0000E+00  0.3283E-09  0.3522E-13  0.1000E-09  0.0000E+00  0.1486E+16
   -0.892502    3.27768  0.0000E+00  0.5702E-09  0.6018E-13  0.1522E-09  0.0000E+00  0.1244E+16
   -0.935004    3.39895  0.0000E+00  0.9801E-09  0.1018E-12  0.3119E-09  0.0000E+00  0.1027E+16
   -0.977505    3.52261  0.0000E+00  0.1674E-08  0.1711E-12  0.6752E-09  0.0000E+00  0.7972E+15
   -1.020007    3.64884  0.0000E+00  0.2840E-08  0.2857E-12  0.1628E-08  0.0000E+00  0.5521E+15
   -1.062508    3.77726  0.0000E+00  0.4779E-08  0.4734E-12  0.5098E-08  0.0000E+00  0.2923E+15
   -1.105009    3.90584  0.0000E+00  0.7845E-08  0.7670E-12  0.5082E-07  0.0000E+00  0.4777E+14
   -1.147510    4.00612  0.0000E+00  0.8342E-08  0.8184E-12  0.3596E-04  0.0000E+00 -0.1686E+12
   -1.190011    4.00665  0.0000E+00  0.8560E-08  0.8449E-12  0.3564E-04  0.0000E+00 -0.1765E+12
   -1.232512    4.00720  0.0000E+00  0.8752E-08  0.8728E-12  0.3603E-04  0.0000E+00 -0.1831E+12
   -1.275012    4.00775  0.0000E+00  0.8924E-08  0.9038E-12  0.3623E-04  0.0000E+00 -0.1905E+12
   -1.317512    4.00831  0.0000E+00  0.9077E-08  0.9392E-12  0.3601E-04  0.0000E+00 -0.1974E+12
   -1.360012    4.00888  0.0000E+00  0.9212E-08  0.9815E-12  0.3540E-04  0.0000E+00 -0.2070E+12
   -1.402512    4.00945  0.0000E+00  0.9332E-08  0.1035E-11  0.3442E-04  0.0000E+00 -0.2196E+12
   -1.445012    4.01005  0.0000E+00  0.9419E-08  0.1096E-11  0.3314E-04  0.0000E+00 -0.2351E+12
   -1.487511    4.01068  0.0000E+00  0.9469E-08  0.1171E-11  0.3136E-04  0.0000E+00 -0.2572E+12
   -1.530010    4.01134  0.0000E+00  0.9478E-08  0.1297E-11  0.2820E-04  0.0000E+00 -0.3014E+12
   -1.572509    4.01210  0.0000E+00  0.9388E-08  0.1610E-11  0.1956E-04  0.0000E+00 -0.4903E+12
   -1.615007    4.01329  0.0000E+00  0.8827E-08  0.2943E-11  0.7108E-05  0.0000E+00 -0.1600E+13
   -1.657505    4.01684  0.0000E+00  0.6364E-08  0.9845E-11  0.7905E-06  0.0000E+00 -0.2357E+14
   -1.700002    4.04910  0.0000E+00  0.0000E+00  0.0000E+00  0.0000E+00  0.0000E+00  0.0000E+00
