 1 - depth, m
 2 - temperature, C
 3 - salinity, kg/kg
 4 - turbulent kinetic energy, m**2/s**2
 5 - dissipation rate, m**2/s**3
 6 - kinematic heat conductance, m**2/s
 7 - modulus of horizontal velocity, m/s
 8 - Richardson number, n/d
   -0.000000   14.18683  0.0000E+00  0.1978E-04  0.2307E-05  0.2384E-04  0.2280E-01 -0.3877E-01
   -0.042497   14.22566  0.0000E+00  0.1352E-04  0.6459E-06  0.4472E-04  0.1057E-01 -0.1166E+00
   -0.084995   14.24195  0.0000E+00  0.1059E-04  0.2810E-06  0.7939E-04  0.6827E-02  0.4535E+02
   -0.127493   14.25214  0.0000E+00  0.8853E-05  0.1493E-06  0.1272E-03  0.4731E-02  0.2646E+03
   -0.169992   14.25911  0.0000E+00  0.7792E-05  0.9118E-07  0.1849E-03  0.3436E-02  0.5543E+02
   -0.212490   14.26393  0.0000E+00  0.7169E-05  0.6251E-07  0.2634E-03  0.2602E-02  0.1386E+03
   -0.254990   14.26703  0.0000E+00  0.6847E-05  0.4759E-07  0.3405E-03  0.2079E-02  0.5443E+02
   -0.297489   14.26909  0.0000E+00  0.6697E-05  0.3876E-07  0.3940E-03  0.1744E-02  0.9742E+01
   -0.339989   14.27076  0.0000E+00  0.6636E-05  0.3279E-07  0.4467E-03  0.1487E-02  0.1569E+01
   -0.382489   14.27219  0.0000E+00  0.6630E-05  0.2852E-07  0.5019E-03  0.1277E-02  0.1525E+01
   -0.424989   14.27344  0.0000E+00  0.6657E-05  0.2535E-07  0.5594E-03  0.1104E-02  0.1591E+01
   -0.467489   14.27453  0.0000E+00  0.6701E-05  0.2292E-07  0.6183E-03  0.9518E-03  0.1630E+01
   -0.509990   14.27549  0.0000E+00  0.6751E-05  0.2102E-07  0.6736E-03  0.8157E-03  0.1635E+01
   -0.552491   14.27636  0.0000E+00  0.6802E-05  0.1950E-07  0.7236E-03  0.6950E-03  0.1627E+01
   -0.594992   14.27715  0.0000E+00  0.6847E-05  0.1831E-07  0.7738E-03  0.5878E-03  0.1578E+01
   -0.637493   14.27787  0.0000E+00  0.6884E-05  0.1734E-07  0.8280E-03  0.4952E-03  0.1481E+01
   -0.679994   14.27854  0.0000E+00  0.6912E-05  0.1658E-07  0.8806E-03  0.4189E-03  0.1405E+01
   -0.722495   14.27916  0.0000E+00  0.6930E-05  0.1598E-07  0.9229E-03  0.3572E-03  0.1314E+01
   -0.764996   14.27973  0.0000E+00  0.6938E-05  0.1552E-07  0.9536E-03  0.3088E-03  0.1226E+01
   -0.807498   14.28029  0.0000E+00  0.6939E-05  0.1516E-07  0.9730E-03  0.2717E-03  0.1170E+01
   -0.849999   14.28083  0.0000E+00  0.6932E-05  0.1490E-07  0.9854E-03  0.2426E-03  0.1163E+01
   -0.892500   14.28135  0.0000E+00  0.6918E-05  0.1471E-07  0.9923E-03  0.2190E-03  0.1185E+01
   -0.935002   14.28187  0.0000E+00  0.6898E-05  0.1459E-07  0.9942E-03  0.1994E-03  0.1260E+01
   -0.977503   14.28237  0.0000E+00  0.6873E-05  0.1452E-07  0.9914E-03  0.1827E-03  0.1341E+01
   -1.020004   14.28288  0.0000E+00  0.6843E-05  0.1450E-07  0.9842E-03  0.1681E-03  0.1505E+01
   -1.062505   14.28338  0.0000E+00  0.6806E-05  0.1454E-07  0.9722E-03  0.1548E-03  0.1678E+01
   -1.105006   14.28389  0.0000E+00  0.6763E-05  0.1463E-07  0.9552E-03  0.1425E-03  0.1918E+01
   -1.147507   14.28439  0.0000E+00  0.6714E-05  0.1480E-07  0.9331E-03  0.1306E-03  0.2198E+01
   -1.190008   14.28490  0.0000E+00  0.6659E-05  0.1504E-07  0.9057E-03  0.1189E-03  0.2516E+01
   -1.232509   14.28542  0.0000E+00  0.6595E-05  0.1540E-07  0.8719E-03  0.1075E-03  0.2977E+01
   -1.275009   14.28596  0.0000E+00  0.6519E-05  0.1592E-07  0.8268E-03  0.9667E-04  0.4010E+01
   -1.317509   14.28653  0.0000E+00  0.6425E-05  0.1670E-07  0.7811E-03  0.8644E-04  0.5756E+01
   -1.360009   14.28713  0.0000E+00  0.6307E-05  0.1790E-07  0.7057E-03  0.7686E-04  0.9196E+01
   -1.402509   14.28781  0.0000E+00  0.6151E-05  0.1984E-07  0.6620E-03  0.6782E-04  0.1658E+02
   -1.445008   14.28853  0.0000E+00  0.5959E-05  0.2318E-07  0.5570E-03  0.5942E-04  0.2790E+03
   -1.487507   14.28958  0.0000E+00  0.5703E-05  0.2873E-07  0.5271E-03  0.4908E-04  0.1501E+02
   -1.530006   14.29080  0.0000E+00  0.5307E-05  0.4082E-07  0.3931E-03  0.3891E-04 -0.1240E+04
   -1.572505   14.29427  0.0000E+00  0.4679E-05  0.6752E-07  0.4077E-03  0.2597E-04  0.1461E+07
   -1.615003   14.29370  0.0000E+00  0.3675E-05  0.1801E-06  0.1817E-03  0.2073E-04 -0.2620E+07
   -1.657501   14.30809  0.0000E+00  0.2478E-05  0.4829E-06  0.1226E-03  0.1245E-04 -0.2708E+06
   -1.699998   14.31214  0.0000E+00  0.0000E+00  0.0000E+00  0.0000E+00  0.2066E-04  0.0000E+00
