 1 - depth, m
 2 - temperature, C
 3 - salinity, kg/kg
 4 - turbulent kinetic energy, m**2/s**2
 5 - dissipation rate, m**2/s**3
 6 - kinematic heat conductance, m**2/s
 7 - modulus of horizontal velocity, m/s
 8 - Richardson number, n/d
   -0.000000   17.20895  0.0000E+00  0.5245E-03  0.7311E-03  0.7108E-04  0.2478E+00 -0.2933E-02
   -0.042497   17.26846  0.0000E+00  0.2627E-03  0.2318E-03  0.2489E-03  0.5280E-01 -0.1087E+01
   -0.084995   17.27912  0.0000E+00  0.1870E-03  0.1172E-03  0.2087E-03  0.3443E-01 -0.6537E+00
   -0.127493   17.28708  0.0000E+00  0.1410E-03  0.6309E-04  0.1804E-03  0.2780E-01 -0.9816E-01
   -0.169992   17.29333  0.0000E+00  0.1056E-03  0.3079E-04  0.1670E-03  0.2281E-01  0.3478E+00
   -0.212491   17.29897  0.0000E+00  0.8019E-04  0.1661E-04  0.1631E-03  0.1866E-01  0.2312E+01
   -0.254990   17.30370  0.0000E+00  0.6055E-04  0.8411E-05  0.1652E-03  0.1540E-01  0.1316E+02
   -0.297489   17.30813  0.0000E+00  0.4696E-04  0.4500E-05  0.1710E-03  0.1291E-01  0.1668E+02
   -0.339989   17.31208  0.0000E+00  0.3749E-04  0.2539E-05  0.1786E-03  0.1088E-01  0.7221E+01
   -0.382489   17.31564  0.0000E+00  0.3065E-04  0.1491E-05  0.1923E-03  0.9112E-02  0.2545E+01
   -0.424989   17.31862  0.0000E+00  0.2573E-04  0.9183E-06  0.2087E-03  0.7763E-02  0.7609E+02
   -0.467489   17.32120  0.0000E+00  0.2207E-04  0.5911E-06  0.2306E-03  0.6568E-02  0.2195E+02
   -0.509990   17.32345  0.0000E+00  0.1926E-04  0.4006E-06  0.2548E-03  0.5538E-02  0.4290E+02
   -0.552491   17.32536  0.0000E+00  0.1706E-04  0.2887E-06  0.2824E-03  0.4658E-02  0.2786E+03
   -0.594992   17.32706  0.0000E+00  0.1529E-04  0.2174E-06  0.3191E-03  0.3889E-02  0.1516E+02
   -0.637493   17.32850  0.0000E+00  0.1380E-04  0.1684E-06  0.3636E-03  0.3235E-02  0.2237E+02
   -0.679994   17.32973  0.0000E+00  0.1256E-04  0.1329E-06  0.4066E-03  0.2707E-02  0.5317E+02
   -0.722495   17.33079  0.0000E+00  0.1149E-04  0.1064E-06  0.4490E-03  0.2271E-02  0.1880E+02
   -0.764997   17.33171  0.0000E+00  0.1058E-04  0.8611E-07  0.4928E-03  0.1919E-02  0.1380E+03
   -0.807498   17.33253  0.0000E+00  0.9798E-05  0.7032E-07  0.5270E-03  0.1639E-02  0.4589E+02
   -0.849999   17.33326  0.0000E+00  0.9133E-05  0.5814E-07  0.5574E-03  0.1409E-02  0.1180E+03
   -0.892501   17.33394  0.0000E+00  0.8565E-05  0.4860E-07  0.5843E-03  0.1218E-02  0.3455E+02
   -0.935002   17.33457  0.0000E+00  0.8084E-05  0.4120E-07  0.6067E-03  0.1058E-02  0.9218E+01
   -0.977503   17.33516  0.0000E+00  0.7676E-05  0.3542E-07  0.6263E-03  0.9206E-03  0.4082E+01
   -1.020005   17.33571  0.0000E+00  0.7327E-05  0.3092E-07  0.6409E-03  0.8030E-03  0.4324E+01
   -1.062506   17.33624  0.0000E+00  0.7029E-05  0.2741E-07  0.6516E-03  0.6993E-03  0.1566E+02
   -1.105007   17.33674  0.0000E+00  0.6769E-05  0.2463E-07  0.6577E-03  0.6078E-03  0.1291E+02
   -1.147508   17.33722  0.0000E+00  0.6544E-05  0.2251E-07  0.6591E-03  0.5237E-03  0.2574E+01
   -1.190008   17.33770  0.0000E+00  0.6350E-05  0.2094E-07  0.6565E-03  0.4445E-03  0.2938E+01
   -1.232509   17.33816  0.0000E+00  0.6175E-05  0.1977E-07  0.6508E-03  0.3713E-03  0.2925E+01
   -1.275010   17.33862  0.0000E+00  0.6015E-05  0.1896E-07  0.6399E-03  0.3099E-03  0.3623E+01
   -1.317510   17.33908  0.0000E+00  0.5868E-05  0.1848E-07  0.6233E-03  0.2596E-03  0.1348E+02
   -1.360010   17.33954  0.0000E+00  0.5728E-05  0.1834E-07  0.5991E-03  0.2192E-03  0.6410E+01
   -1.402509   17.34002  0.0000E+00  0.5585E-05  0.1859E-07  0.5735E-03  0.1869E-03  0.8884E+01
   -1.445009   17.34051  0.0000E+00  0.5442E-05  0.1948E-07  0.5317E-03  0.1596E-03  0.6207E+02
   -1.487508   17.34106  0.0000E+00  0.5289E-05  0.2136E-07  0.5004E-03  0.1319E-03  0.6351E+02
   -1.530007   17.34166  0.0000E+00  0.5088E-05  0.2576E-07  0.4211E-03  0.1048E-03  0.1531E+02
   -1.572505   17.34255  0.0000E+00  0.4787E-05  0.3604E-07  0.4239E-03  0.7608E-04  0.1025E+05
   -1.615003   17.34309  0.0000E+00  0.4039E-05  0.8325E-07  0.1981E-03  0.6102E-04 -0.3677E+06
   -1.657501   17.34707  0.0000E+00  0.2612E-05  0.2322E-06  0.6954E-04  0.3830E-04 -0.2303E+06
   -1.699999   17.35186  0.0000E+00  0.0000E+00  0.0000E+00  0.0000E+00  0.5481E-04  0.0000E+00
