 1 - depth, m
 2 - temperature, C
 3 - salinity, kg/kg
 4 - turbulent kinetic energy, m**2/s**2
 5 - dissipation rate, m**2/s**3
 6 - kinematic heat conductance, m**2/s
 7 - modulus of horizontal velocity, m/s
 8 - Richardson number, n/d
   -0.000000    0.00000  0.0000E+00  0.3189E-13  0.5206E-16  0.1000E-09  0.0000E+00  0.7789E+16
   -0.042497    0.11873  0.0000E+00  0.3189E-13  0.5206E-16  0.1000E-09  0.0000E+00  0.7898E+16
   -0.084995    0.24322  0.0000E+00  0.3189E-13  0.5206E-16  0.1000E-09  0.0000E+00  0.7938E+16
   -0.127493    0.37296  0.0000E+00  0.3189E-13  0.5206E-16  0.1000E-09  0.0000E+00  0.7615E+16
   -0.169992    0.50224  0.0000E+00  0.3189E-13  0.5206E-16  0.1000E-09  0.0000E+00  0.7288E+16
   -0.212491    0.63092  0.0000E+00  0.3189E-13  0.5206E-16  0.1000E-09  0.0000E+00  0.6957E+16
   -0.254990    0.75882  0.0000E+00  0.3189E-13  0.5206E-16  0.1000E-09  0.0000E+00  0.6622E+16
   -0.297490    0.88573  0.0000E+00  0.3189E-13  0.5206E-16  0.1000E-09  0.0000E+00  0.6294E+16
   -0.339989    1.01164  0.0000E+00  0.3189E-13  0.5206E-16  0.1000E-09  0.0000E+00  0.5977E+16
   -0.382490    1.13662  0.0000E+00  0.3189E-13  0.5206E-16  0.1000E-09  0.0000E+00  0.5661E+16
   -0.424990    1.26053  0.0000E+00  0.3189E-13  0.5206E-16  0.1000E-09  0.0000E+00  0.5359E+16
   -0.467490    1.38352  0.0000E+00  0.3189E-13  0.5206E-16  0.1000E-09  0.0000E+00  0.5059E+16
   -0.509991    1.50547  0.0000E+00  0.3189E-13  0.5206E-16  0.1000E-09  0.0000E+00  0.4773E+16
   -0.552492    1.62656  0.0000E+00  0.3189E-13  0.5206E-16  0.1000E-09  0.0000E+00  0.4492E+16
   -0.594993    1.74671  0.0000E+00  0.3189E-13  0.5206E-16  0.1000E-09  0.0000E+00  0.4208E+16
   -0.637494    1.86569  0.0000E+00  0.3189E-13  0.5206E-16  0.1000E-09  0.0000E+00  0.3921E+16
   -0.679995    1.98314  0.0000E+00  0.3189E-13  0.5206E-16  0.1000E-09  0.0000E+00  0.3636E+16
   -0.722497    2.09878  0.0000E+00  0.3189E-13  0.5206E-16  0.1000E-09  0.0000E+00  0.3348E+16
   -0.764998    2.21215  0.0000E+00  0.3189E-13  0.5206E-16  0.1000E-09  0.0000E+00  0.3062E+16
   -0.807499    2.32277  0.0000E+00  0.3189E-13  0.5206E-16  0.1000E-09  0.0000E+00  0.2791E+16
   -0.850001    2.43066  0.0000E+00  0.3189E-13  0.5206E-16  0.1000E-09  0.0000E+00  0.2532E+16
   -0.892502    2.53565  0.0000E+00  0.3189E-13  0.5206E-16  0.1000E-09  0.0000E+00  0.2303E+16
   -0.935004    2.63839  0.0000E+00  0.3189E-13  0.5206E-16  0.1000E-09  0.0000E+00  0.2099E+16
   -0.977505    2.73956  0.0000E+00  0.3189E-13  0.5206E-16  0.1000E-09  0.0000E+00  0.1900E+16
   -1.020006    2.83898  0.0000E+00  0.3189E-13  0.5206E-16  0.1000E-09  0.0000E+00  0.1711E+16
   -1.062508    2.93667  0.0000E+00  0.3189E-13  0.5206E-16  0.1000E-09  0.0000E+00  0.1527E+16
   -1.105009    3.03244  0.0000E+00  0.3189E-13  0.5206E-16  0.1000E-09  0.0000E+00  0.1354E+16
   -1.147510    3.12640  0.0000E+00  0.3189E-13  0.5206E-16  0.1000E-09  0.0000E+00  0.1191E+16
   -1.190011    3.21862  0.0000E+00  0.3189E-13  0.5206E-16  0.1000E-09  0.0000E+00  0.1030E+16
   -1.232511    3.30858  0.0000E+00  0.3189E-13  0.5206E-16  0.1000E-09  0.0000E+00  0.8642E+15
   -1.275012    3.39462  0.0000E+00  0.3189E-13  0.5206E-16  0.1000E-09  0.0000E+00  0.7179E+15
   -1.317512    3.47716  0.0000E+00  0.9506E-13  0.7794E-16  0.1000E-09  0.0000E+00  0.6075E+15
   -1.360012    3.55940  0.0000E+00  0.3753E-12  0.2693E-15  0.1000E-09  0.0000E+00  0.4991E+15
   -1.402512    3.64147  0.0000E+00  0.1439E-11  0.9949E-15  0.1000E-09  0.0000E+00  0.3911E+15
   -1.445012    3.72321  0.0000E+00  0.5146E-11  0.3464E-14  0.1000E-09  0.0000E+00  0.2840E+15
   -1.487511    3.80439  0.0000E+00  0.1816E-10  0.1195E-13  0.1964E-09  0.0000E+00  0.1793E+15
   -1.530010    3.88505  0.0000E+00  0.7020E-10  0.4542E-13  0.1618E-08  0.0000E+00  0.7690E+14
   -1.572508    3.96521  0.0000E+00  0.3049E-09  0.1984E-12  0.8700E-07  0.0000E+00 -0.3850E+13
   -1.615006    4.01698  0.0000E+00  0.1017E-08  0.8622E-12  0.4696E-06  0.0000E+00 -0.1293E+14
   -1.657504    4.03723  0.0000E+00  0.1227E-08  0.1899E-11  0.2413E-06  0.0000E+00 -0.3772E+14
   -1.700002    4.07241  0.0000E+00  0.0000E+00  0.0000E+00  0.0000E+00  0.0000E+00  0.0000E+00
