 1 - depth, m
 2 - temperature, C
 3 - salinity, kg/kg
 4 - turbulent kinetic energy, m**2/s**2
 5 - dissipation rate, m**2/s**3
 6 - kinematic heat conductance, m**2/s
 7 - modulus of horizontal velocity, m/s
 8 - Richardson number, n/d
   -0.000000   12.74164  0.0000E+00  0.5687E-03  0.1547E-02  0.8119E-04  0.3123E+00 -0.9756E-02
   -0.042497   12.83485  0.0000E+00  0.2927E-03  0.6632E-03  0.2144E-03  0.6897E-01 -0.1469E+00
   -0.084995   12.86253  0.0000E+00  0.1958E-03  0.2671E-03  0.1954E-03  0.4063E-01 -0.1761E+00
   -0.127493   12.87908  0.0000E+00  0.1440E-03  0.1405E-03  0.1722E-03  0.3169E-01 -0.2255E+00
   -0.169992   12.89025  0.0000E+00  0.1094E-03  0.7985E-04  0.1646E-03  0.2559E-01 -0.2912E+00
   -0.212491   12.90103  0.0000E+00  0.8358E-04  0.4474E-04  0.1679E-03  0.2059E-01  0.5919E+02
   -0.254990   12.91030  0.0000E+00  0.6515E-04  0.2535E-04  0.1792E-03  0.1679E-01  0.3300E+02
   -0.297490   12.91819  0.0000E+00  0.5201E-04  0.1388E-04  0.1917E-03  0.1414E-01  0.2064E+02
   -0.339989   12.92429  0.0000E+00  0.4249E-04  0.7303E-05  0.2046E-03  0.1217E-01  0.8363E+02
   -0.382489   12.92975  0.0000E+00  0.3543E-04  0.3747E-05  0.2220E-03  0.1041E-01  0.1813E+02
   -0.424990   12.93453  0.0000E+00  0.3025E-04  0.1966E-05  0.2434E-03  0.9009E-02  0.8093E+02
   -0.467490   12.93871  0.0000E+00  0.2635E-04  0.1112E-05  0.2658E-03  0.7719E-02  0.9342E+02
   -0.509991   12.94236  0.0000E+00  0.2331E-04  0.6817E-06  0.2979E-03  0.6591E-02  0.1341E+03
   -0.552492   12.94562  0.0000E+00  0.2089E-04  0.4564E-06  0.3351E-03  0.5614E-02  0.6737E+02
   -0.594993   12.94832  0.0000E+00  0.1890E-04  0.3242E-06  0.3760E-03  0.4755E-02  0.1029E+03
   -0.637494   12.95082  0.0000E+00  0.1719E-04  0.2427E-06  0.4209E-03  0.4010E-02  0.1845E+02
   -0.679995   12.95281  0.0000E+00  0.1573E-04  0.1880E-06  0.4661E-03  0.3399E-02  0.1872E+02
   -0.722496   12.95470  0.0000E+00  0.1448E-04  0.1486E-06  0.5167E-03  0.2881E-02  0.2764E+02
   -0.764998   12.95622  0.0000E+00  0.1340E-04  0.1198E-06  0.5643E-03  0.2460E-02  0.4938E+01
   -0.807499   12.95763  0.0000E+00  0.1246E-04  0.9796E-07  0.6021E-03  0.2119E-02 -0.8795E+00
   -0.850000   12.95887  0.0000E+00  0.1166E-04  0.8145E-07  0.6348E-03  0.1835E-02 -0.9771E+01
   -0.892502   12.96003  0.0000E+00  0.1096E-04  0.6863E-07  0.6653E-03  0.1597E-02  0.9571E+02
   -0.935003   12.96109  0.0000E+00  0.1037E-04  0.5856E-07  0.6813E-03  0.1397E-02  0.6346E+01
   -0.977505   12.96210  0.0000E+00  0.9843E-05  0.5054E-07  0.7014E-03  0.1220E-02 -0.1283E+01
   -1.020006   12.96306  0.0000E+00  0.9387E-05  0.4419E-07  0.7148E-03  0.1067E-02  0.5412E+01
   -1.062507   12.96398  0.0000E+00  0.8985E-05  0.3915E-07  0.7251E-03  0.9317E-03  0.3522E+01
   -1.105008   12.96486  0.0000E+00  0.8627E-05  0.3514E-07  0.7297E-03  0.8113E-03  0.3709E+01
   -1.147509   12.96572  0.0000E+00  0.8312E-05  0.3206E-07  0.7290E-03  0.6998E-03  0.3153E+01
   -1.190010   12.96657  0.0000E+00  0.8032E-05  0.2976E-07  0.7231E-03  0.5941E-03  0.2622E+01
   -1.232511   12.96740  0.0000E+00  0.7773E-05  0.2807E-07  0.7150E-03  0.4959E-03  0.2821E+01
   -1.275011   12.96823  0.0000E+00  0.7531E-05  0.2694E-07  0.6990E-03  0.4129E-03  0.3374E+01
   -1.317512   12.96906  0.0000E+00  0.7307E-05  0.2636E-07  0.6741E-03  0.3450E-03  0.4260E+01
   -1.360012   12.96992  0.0000E+00  0.7091E-05  0.2637E-07  0.6396E-03  0.2907E-03  0.5630E+01
   -1.402511   12.97083  0.0000E+00  0.6867E-05  0.2722E-07  0.6052E-03  0.2480E-03  0.1899E+02
   -1.445011   12.97178  0.0000E+00  0.6633E-05  0.2954E-07  0.5501E-03  0.2115E-03  0.2797E+02
   -1.487510   12.97292  0.0000E+00  0.6370E-05  0.3437E-07  0.5129E-03  0.1739E-03  0.2604E+02
   -1.530009   12.97423  0.0000E+00  0.6015E-05  0.4543E-07  0.4181E-03  0.1350E-03  0.7359E+04
   -1.572508   12.97654  0.0000E+00  0.5531E-05  0.6985E-07  0.4227E-03  0.9353E-04  0.2536E+05
   -1.615006   12.97734  0.0000E+00  0.4454E-05  0.1859E-06  0.1883E-03  0.7392E-04 -0.4449E+06
   -1.657504   12.98745  0.0000E+00  0.2928E-05  0.4790E-06  0.9839E-04  0.4478E-04 -0.5107E+06
   -1.700001   12.99317  0.0000E+00  0.0000E+00  0.0000E+00  0.0000E+00  0.7389E-04  0.0000E+00
