 1 - depth, m
 2 - temperature, C
 3 - salinity, kg/kg
 4 - turbulent kinetic energy, m**2/s**2
 5 - dissipation rate, m**2/s**3
 6 - kinematic heat conductance, m**2/s
 7 - modulus of horizontal velocity, m/s
 8 - Richardson number, n/d
   -0.000000    0.00000  0.0000E+00  0.3189E-13  0.5206E-16  0.1000E-09  0.0000E+00  0.1150E+17
   -0.042497    0.17675  0.0000E+00  0.3189E-13  0.5206E-16  0.1000E-09  0.0000E+00  0.1147E+17
   -0.084995    0.36220  0.0000E+00  0.3189E-13  0.5206E-16  0.1000E-09  0.0000E+00  0.1130E+17
   -0.127493    0.55517  0.0000E+00  0.3189E-13  0.5206E-16  0.1000E-09  0.0000E+00  0.1042E+17
   -0.169992    0.74396  0.0000E+00  0.3189E-13  0.5206E-16  0.1000E-09  0.0000E+00  0.9561E+16
   -0.212491    0.92804  0.0000E+00  0.3189E-13  0.5206E-16  0.1000E-09  0.0000E+00  0.8702E+16
   -0.254990    1.10635  0.0000E+00  0.3189E-13  0.5206E-16  0.1000E-09  0.0000E+00  0.7859E+16
   -0.297490    1.27796  0.0000E+00  0.7789E-13  0.5206E-16  0.1000E-09  0.0000E+00  0.7095E+16
   -0.339989    1.44329  0.0000E+00  0.2546E-12  0.5571E-16  0.1000E-09  0.0000E+00  0.6434E+16
   -0.382489    1.60357  0.0000E+00  0.5768E-12  0.8810E-16  0.1000E-09  0.0000E+00  0.5807E+16
   -0.424990    1.75853  0.0000E+00  0.1127E-11  0.1524E-15  0.1000E-09  0.0000E+00  0.5281E+16
   -0.467490    1.90984  0.0000E+00  0.2068E-11  0.2660E-15  0.1000E-09  0.0000E+00  0.4779E+16
   -0.509991    2.05735  0.0000E+00  0.3693E-11  0.4616E-15  0.1000E-09  0.0000E+00  0.4378E+16
   -0.552492    2.20355  0.0000E+00  0.6514E-11  0.7971E-15  0.1000E-09  0.0000E+00  0.4000E+16
   -0.594993    2.34885  0.0000E+00  0.1141E-10  0.1370E-14  0.1000E-09  0.0000E+00  0.3619E+16
   -0.637494    2.49278  0.0000E+00  0.2006E-10  0.2366E-14  0.1000E-09  0.0000E+00  0.3227E+16
   -0.679995    2.63434  0.0000E+00  0.3533E-10  0.4093E-14  0.1000E-09  0.0000E+00  0.2847E+16
   -0.722496    2.77317  0.0000E+00  0.6234E-10  0.7096E-14  0.1000E-09  0.0000E+00  0.2469E+16
   -0.764998    2.90827  0.0000E+00  0.1102E-09  0.1233E-13  0.1000E-09  0.0000E+00  0.2105E+16
   -0.807499    3.03881  0.0000E+00  0.1947E-09  0.2142E-13  0.1000E-09  0.0000E+00  0.1778E+16
   -0.850001    3.16541  0.0000E+00  0.3401E-09  0.3679E-13  0.1000E-09  0.0000E+00  0.1479E+16
   -0.892502    3.28827  0.0000E+00  0.5917E-09  0.6295E-13  0.1607E-09  0.0000E+00  0.1232E+16
   -0.935004    3.41051  0.0000E+00  0.1018E-08  0.1066E-12  0.3322E-09  0.0000E+00  0.1010E+16
   -0.977505    3.53498  0.0000E+00  0.1742E-08  0.1794E-12  0.7276E-09  0.0000E+00  0.7755E+15
   -1.020006    3.66181  0.0000E+00  0.2958E-08  0.2998E-12  0.1790E-08  0.0000E+00  0.5269E+15
   -1.062507    3.79058  0.0000E+00  0.4982E-08  0.4970E-12  0.5902E-08  0.0000E+00  0.2650E+15
   -1.105009    3.91885  0.0000E+00  0.8099E-08  0.7983E-12  0.7812E-07  0.0000E+00  0.3244E+14
   -1.147510    4.00699  0.0000E+00  0.8586E-08  0.8490E-12  0.3670E-04  0.0000E+00 -0.1725E+12
   -1.190010    4.00751  0.0000E+00  0.8804E-08  0.8757E-12  0.3632E-04  0.0000E+00 -0.1803E+12
   -1.232511    4.00805  0.0000E+00  0.8999E-08  0.9042E-12  0.3669E-04  0.0000E+00 -0.1867E+12
   -1.275012    4.00859  0.0000E+00  0.9173E-08  0.9358E-12  0.3687E-04  0.0000E+00 -0.1939E+12
   -1.317512    4.00914  0.0000E+00  0.9328E-08  0.9719E-12  0.3664E-04  0.0000E+00 -0.2006E+12
   -1.360012    4.00969  0.0000E+00  0.9464E-08  0.1015E-11  0.3602E-04  0.0000E+00 -0.2100E+12
   -1.402512    4.01026  0.0000E+00  0.9584E-08  0.1069E-11  0.3502E-04  0.0000E+00 -0.2222E+12
   -1.445011    4.01084  0.0000E+00  0.9670E-08  0.1132E-11  0.3373E-04  0.0000E+00 -0.2374E+12
   -1.487510    4.01145  0.0000E+00  0.9719E-08  0.1208E-11  0.3193E-04  0.0000E+00 -0.2589E+12
   -1.530009    4.01210  0.0000E+00  0.9726E-08  0.1334E-11  0.2896E-04  0.0000E+00 -0.3001E+12
   -1.572508    4.01283  0.0000E+00  0.9632E-08  0.1651E-11  0.2004E-04  0.0000E+00 -0.4880E+12
   -1.615006    4.01398  0.0000E+00  0.9058E-08  0.3006E-11  0.7298E-05  0.0000E+00 -0.1579E+13
   -1.657504    4.01741  0.0000E+00  0.6513E-08  0.1008E-10  0.8003E-06  0.0000E+00 -0.2319E+14
   -1.700001    4.04899  0.0000E+00  0.0000E+00  0.0000E+00  0.0000E+00  0.0000E+00  0.0000E+00
