 1 - depth, m
 2 - temperature, C
 3 - salinity, kg/kg
 4 - turbulent kinetic energy, m**2/s**2
 5 - dissipation rate, m**2/s**3
 6 - kinematic heat conductance, m**2/s
 7 - modulus of horizontal velocity, m/s
 8 - Richardson number, n/d
   -0.000000   12.61223  0.0000E+00  0.7774E-03  0.2331E-02  0.1067E-03  0.3867E+00 -0.3753E-01
   -0.042498   12.70556  0.0000E+00  0.4030E-03  0.8820E-03  0.2199E-03  0.8616E-01  0.1860E-01
   -0.084997   12.73443  0.0000E+00  0.2686E-03  0.3390E-03  0.2301E-03  0.4995E-01 -0.1834E+00
   -0.127496   12.74949  0.0000E+00  0.1998E-03  0.1761E-03  0.2152E-03  0.3943E-01 -0.3155E-01
   -0.169996   12.75931  0.0000E+00  0.1548E-03  0.9682E-04  0.2045E-03  0.3231E-01 -0.8019E-01
   -0.212495   12.76707  0.0000E+00  0.1204E-03  0.5428E-04  0.2026E-03  0.2645E-01  0.1304E+01
   -0.254995   12.77407  0.0000E+00  0.9476E-04  0.2981E-04  0.2099E-03  0.2190E-01  0.1011E+02
   -0.297496   12.77986  0.0000E+00  0.7656E-04  0.1732E-04  0.2192E-03  0.1866E-01  0.3186E+02
   -0.339996   12.78466  0.0000E+00  0.6341E-04  0.1024E-04  0.2306E-03  0.1621E-01  0.2919E+02
   -0.382497   12.78908  0.0000E+00  0.5360E-04  0.6072E-05  0.2474E-03  0.1403E-01  0.3881E+02
   -0.424999   12.79268  0.0000E+00  0.4628E-04  0.3609E-05  0.2616E-03  0.1236E-01  0.2564E+02
   -0.467500   12.79595  0.0000E+00  0.4064E-04  0.2169E-05  0.2777E-03  0.1077E-01  0.1485E+03
   -0.510002   12.79911  0.0000E+00  0.3617E-04  0.1355E-05  0.2989E-03  0.9346E-02  0.1821E+02
   -0.552503   12.80188  0.0000E+00  0.3252E-04  0.8992E-06  0.3225E-03  0.8111E-02  0.1992E+02
   -0.595005   12.80457  0.0000E+00  0.2944E-04  0.6388E-06  0.3578E-03  0.6997E-02  0.2968E+02
   -0.637507   12.80689  0.0000E+00  0.2675E-04  0.4736E-06  0.4007E-03  0.6032E-02  0.1223E+03
   -0.680009   12.80903  0.0000E+00  0.2440E-04  0.3698E-06  0.4519E-03  0.5223E-02  0.5160E+02
   -0.722511   12.81079  0.0000E+00  0.2234E-04  0.2953E-06  0.5089E-03  0.4538E-02  0.7358E+02
   -0.765014   12.81240  0.0000E+00  0.2052E-04  0.2389E-06  0.5582E-03  0.3966E-02  0.5470E+02
   -0.807516   12.81372  0.0000E+00  0.1888E-04  0.1952E-06  0.6083E-03  0.3497E-02  0.2172E+02
   -0.850018   12.81499  0.0000E+00  0.1745E-04  0.1614E-06  0.6450E-03  0.3091E-02  0.5359E+02
   -0.892521   12.81610  0.0000E+00  0.1618E-04  0.1345E-06  0.6803E-03  0.2738E-02  0.2134E+02
   -0.935023   12.81716  0.0000E+00  0.1508E-04  0.1131E-06  0.7050E-03  0.2430E-02  0.1781E+02
   -0.977525   12.81816  0.0000E+00  0.1410E-04  0.9599E-07  0.7250E-03  0.2153E-02  0.1381E+02
   -1.020028   12.81913  0.0000E+00  0.1325E-04  0.8227E-07  0.7386E-03  0.1908E-02  0.2099E+02
   -1.062530   12.82008  0.0000E+00  0.1250E-04  0.7130E-07  0.7483E-03  0.1684E-02  0.5249E+01
   -1.105032   12.82100  0.0000E+00  0.1183E-04  0.6251E-07  0.7496E-03  0.1479E-02  0.1127E+02
   -1.147534   12.82193  0.0000E+00  0.1124E-04  0.5567E-07  0.7453E-03  0.1286E-02  0.1499E+02
   -1.190035   12.82287  0.0000E+00  0.1073E-04  0.5047E-07  0.7368E-03  0.1097E-02  0.5650E+01
   -1.232537   12.82383  0.0000E+00  0.1024E-04  0.4648E-07  0.7305E-03  0.9187E-03  0.4846E+01
   -1.275038   12.82480  0.0000E+00  0.9784E-05  0.4358E-07  0.7184E-03  0.7641E-03  0.5099E+01
   -1.317539   12.82579  0.0000E+00  0.9353E-05  0.4177E-07  0.6950E-03  0.6342E-03  0.9877E+01
   -1.360040   12.82681  0.0000E+00  0.8945E-05  0.4112E-07  0.6575E-03  0.5287E-03  0.8107E+01
   -1.402541   12.82791  0.0000E+00  0.8535E-05  0.4216E-07  0.6204E-03  0.4460E-03  0.1251E+02
   -1.445041   12.82911  0.0000E+00  0.8125E-05  0.4638E-07  0.5565E-03  0.3771E-03  0.4339E+02
   -1.487541   12.83067  0.0000E+00  0.7670E-05  0.5598E-07  0.5136E-03  0.3062E-03  0.7362E+02
   -1.530041   12.83251  0.0000E+00  0.7072E-05  0.7933E-07  0.4142E-03  0.2328E-03  0.4573E+03
   -1.572541   12.83624  0.0000E+00  0.6364E-05  0.1326E-06  0.4159E-03  0.1541E-03  0.1797E+05
   -1.615040   12.83676  0.0000E+00  0.5049E-05  0.3847E-06  0.1905E-03  0.1211E-03 -0.2699E+07
   -1.657538   12.85187  0.0000E+00  0.3414E-05  0.9050E-06  0.1200E-03  0.7326E-04 -0.3795E+06
   -1.700037   12.85867  0.0000E+00  0.0000E+00  0.0000E+00  0.0000E+00  0.1353E-03  0.0000E+00
