 1 - depth, m
 2 - temperature, C
 3 - salinity, kg/kg
 4 - turbulent kinetic energy, m**2/s**2
 5 - dissipation rate, m**2/s**3
 6 - kinematic heat conductance, m**2/s
 7 - modulus of horizontal velocity, m/s
 8 - Richardson number, n/d
   -0.000000    0.00000  0.0000E+00  0.4345E-04  0.5743E-05  0.3059E-04  0.4354E-01  0.4660E-03
   -0.042497    0.00363  0.0000E+00  0.2973E-04  0.1705E-05  0.5116E-04  0.2303E-01  0.1337E-02
   -0.084994    0.00556  0.0000E+00  0.2219E-04  0.7736E-06  0.6332E-04  0.1621E-01  0.2770E-02
   -0.127491    0.00713  0.0000E+00  0.1699E-04  0.4137E-06  0.6929E-04  0.1200E-01  0.4807E-02
   -0.169989    0.00851  0.0000E+00  0.1306E-04  0.2394E-06  0.7067E-04  0.9045E-02  0.7993E-02
   -0.212487    0.00981  0.0000E+00  0.9906E-05  0.1427E-06  0.6901E-04  0.6848E-02  0.1406E-01
   -0.254985    0.01107  0.0000E+00  0.7393E-05  0.8571E-07  0.6541E-04  0.5225E-02  0.2710E-01
   -0.297484    0.01233  0.0000E+00  0.5477E-05  0.5198E-07  0.5981E-04  0.4062E-02  0.5133E-01
   -0.339983    0.01361  0.0000E+00  0.4058E-05  0.3204E-07  0.5267E-04  0.3205E-02  0.8743E-01
   -0.382482    0.01499  0.0000E+00  0.2983E-05  0.1984E-07  0.4543E-04  0.2523E-02  0.1667E+00
   -0.424982    0.01650  0.0000E+00  0.2184E-05  0.1243E-07  0.3695E-04  0.2004E-02  0.2626E+00
   -0.467481    0.01827  0.0000E+00  0.1569E-05  0.7770E-08  0.2823E-04  0.1554E-02  0.4408E+00
   -0.509981    0.02047  0.0000E+00  0.1085E-05  0.4767E-08  0.1927E-04  0.1161E-02  0.8925E+00
   -0.552481    0.02361  0.0000E+00  0.6948E-06  0.2790E-08  0.1010E-04  0.8254E-03  0.2342E+01
   -0.594981    0.03035  0.0000E+00  0.3458E-06  0.1340E-08  0.2743E-05  0.5166E-03  0.2904E+02
   -0.637482    0.10034  0.0000E+00  0.9242E-07  0.3596E-09  0.8491E-07  0.2010E-03  0.1942E+04
   -0.679982    0.31312  0.0000E+00  0.1007E-07  0.4033E-10  0.6277E-08  0.2911E-04  0.1554E+06
   -0.722483    0.58849  0.0000E+00  0.9167E-09  0.3810E-11  0.7889E-09  0.2775E-05  0.1652E+08
   -0.764983    0.83547  0.0000E+00  0.8059E-10  0.3455E-12  0.1466E-09  0.2385E-06  0.2061E+10
   -0.807484    1.04564  0.0000E+00  0.6860E-11  0.3015E-13  0.1000E-09  0.2321E-07  0.1998E+12
   -0.849984    1.23301  0.0000E+00  0.5821E-12  0.2600E-14  0.1000E-09  0.2377E-08  0.1705E+14
   -0.892485    1.40273  0.0000E+00  0.6669E-13  0.2472E-15  0.1000E-09  0.2484E-09  0.1481E+16
   -0.934986    1.56673  0.0000E+00  0.6908E-13  0.8267E-16  0.1000E-09  0.3007E-10  0.4690E+16
   -0.977486    1.73861  0.0000E+00  0.2399E-12  0.1314E-15  0.1000E-09  0.3459E-11  0.6133E+16
   -1.019987    1.91344  0.0000E+00  0.7365E-12  0.3323E-15  0.1000E-09  0.4575E-12  0.5764E+16
   -1.062487    2.09307  0.0000E+00  0.2124E-11  0.9099E-15  0.1000E-09  0.5839E-13  0.5300E+16
   -1.104987    2.27549  0.0000E+00  0.5938E-11  0.2470E-14  0.1000E-09  0.8972E-14  0.4937E+16
   -1.147488    2.46564  0.0000E+00  0.1615E-10  0.6545E-14  0.1000E-09  0.1579E-14  0.4604E+16
   -1.189988    2.66821  0.0000E+00  0.4325E-10  0.1710E-13  0.1000E-09  0.2055E-15  0.4087E+16
   -1.232488    2.87952  0.0000E+00  0.1178E-09  0.4547E-13  0.1001E-09  0.1541E-16  0.3256E+16
   -1.274987    3.08381  0.0000E+00  0.3219E-09  0.1214E-12  0.1645E-09  0.1037E-17  0.2574E+16
   -1.317487    3.28791  0.0000E+00  0.8800E-09  0.3244E-12  0.5131E-09  0.6077E-19  0.2083E+16
   -1.359986    3.51640  0.0000E+00  0.2412E-08  0.8700E-12  0.2398E-08  0.3060E-20  0.1352E+16
   -1.402485    3.77719  0.0000E+00  0.6034E-08  0.2178E-11  0.7379E-06  0.1781E-21  0.4423E+15
   -1.444984    3.98579  0.0000E+00  0.9408E-08  0.3524E-11  0.8995E-05  0.1189E-22  0.2386E+14
   -1.487482    4.02956  0.0000E+00  0.1137E-07  0.4530E-11  0.1170E-04  0.2761E-23 -0.2865E+13
   -1.529980    4.03398  0.0000E+00  0.1254E-07  0.5550E-11  0.1124E-04  0.4246E-24 -0.3499E+13
   -1.572478    4.03877  0.0000E+00  0.1358E-07  0.7526E-11  0.9722E-05  0.4578E-25 -0.5547E+13
   -1.614975    4.04550  0.0000E+00  0.1463E-07  0.1389E-10  0.5167E-05  0.5859E-26 -0.1519E+14
   -1.657472    4.06062  0.0000E+00  0.1433E-07  0.3603E-10  0.1590E-05  0.4959E-27 -0.9400E+14
   -1.699969    4.11906  0.0000E+00  0.0000E+00  0.0000E+00  0.0000E+00  0.4958E-27  0.0000E+00
