 1 - depth, m
 2 - temperature, C
 3 - salinity, kg/kg
 4 - turbulent kinetic energy, m**2/s**2
 5 - dissipation rate, m**2/s**3
 6 - kinematic heat conductance, m**2/s
 7 - modulus of horizontal velocity, m/s
 8 - Richardson number, n/d
   -0.000000   13.16580  0.0000E+00  0.2262E-03  0.1472E-03  0.5936E-04  0.1286E+00  0.2094E-03
   -0.042497   13.18167  0.0000E+00  0.1211E-03  0.5021E-04  0.1348E-03  0.3022E-01 -0.1448E-01
   -0.084995   13.18505  0.0000E+00  0.8746E-04  0.2761E-04  0.1178E-03  0.2034E-01 -0.2986E-01
   -0.127493   13.18767  0.0000E+00  0.6530E-04  0.1501E-04  0.1056E-03  0.1607E-01 -0.4661E-01
   -0.169992   13.18981  0.0000E+00  0.4840E-04  0.7649E-05  0.9921E-04  0.1292E-01 -0.5481E-01
   -0.212491   13.19173  0.0000E+00  0.3592E-04  0.4031E-05  0.9659E-04  0.1037E-01 -0.1085E+00
   -0.254990   13.19350  0.0000E+00  0.2653E-04  0.2025E-05  0.9757E-04  0.8362E-02 -0.3153E+00
   -0.297489   13.19514  0.0000E+00  0.2004E-04  0.1058E-05  0.1059E-03  0.6815E-02  0.6277E+03
   -0.339989   13.19666  0.0000E+00  0.1565E-04  0.5923E-06  0.1185E-03  0.5568E-02  0.6824E+02
   -0.382489   13.19805  0.0000E+00  0.1258E-04  0.3565E-06  0.1326E-03  0.4531E-02  0.2580E+02
   -0.424989   13.19929  0.0000E+00  0.1042E-04  0.2310E-06  0.1493E-03  0.3733E-02  0.2794E+02
   -0.467490   13.20039  0.0000E+00  0.8840E-05  0.1587E-06  0.1681E-03  0.3066E-02  0.2203E+02
   -0.509990   13.20136  0.0000E+00  0.7631E-05  0.1131E-06  0.1882E-03  0.2514E-02  0.1020E+03
   -0.552491   13.20223  0.0000E+00  0.6678E-05  0.8257E-07  0.2080E-03  0.2058E-02  0.4098E+01
   -0.594992   13.20301  0.0000E+00  0.5913E-05  0.6151E-07  0.2305E-03  0.1668E-02  0.3296E+02
   -0.637493   13.20372  0.0000E+00  0.5281E-05  0.4642E-07  0.2540E-03  0.1342E-02  0.8216E+01
   -0.679994   13.20436  0.0000E+00  0.4759E-05  0.3550E-07  0.2777E-03  0.1083E-02  0.1636E+02
   -0.722496   13.20493  0.0000E+00  0.4330E-05  0.2751E-07  0.3022E-03  0.8736E-03  0.2580E+02
   -0.764997   13.20544  0.0000E+00  0.3978E-05  0.2159E-07  0.3266E-03  0.7107E-03  0.1862E+02
   -0.807498   13.20591  0.0000E+00  0.3692E-05  0.1717E-07  0.3507E-03  0.5862E-03  0.1123E+02
   -0.850000   13.20633  0.0000E+00  0.3465E-05  0.1392E-07  0.3742E-03  0.4873E-03  0.3121E+02
   -0.892501   13.20673  0.0000E+00  0.3288E-05  0.1152E-07  0.3964E-03  0.4080E-03  0.3053E+02
   -0.935003   13.20710  0.0000E+00  0.3153E-05  0.9761E-08  0.4189E-03  0.3445E-03  0.9860E+01
   -0.977504   13.20745  0.0000E+00  0.3054E-05  0.8479E-08  0.4399E-03  0.2924E-03  0.1466E+02
   -1.020005   13.20778  0.0000E+00  0.2982E-05  0.7549E-08  0.4581E-03  0.2504E-03  0.1779E+02
   -1.062506   13.20810  0.0000E+00  0.2931E-05  0.6874E-08  0.4727E-03  0.2154E-03  0.7368E+01
   -1.105008   13.20841  0.0000E+00  0.2896E-05  0.6379E-08  0.4839E-03  0.1859E-03  0.1013E+02
   -1.147508   13.20873  0.0000E+00  0.2871E-05  0.6023E-08  0.4923E-03  0.1597E-03  0.9740E+01
   -1.190009   13.20906  0.0000E+00  0.2853E-05  0.5768E-08  0.4977E-03  0.1356E-03  0.1123E+02
   -1.232510   13.20939  0.0000E+00  0.2838E-05  0.5584E-08  0.5003E-03  0.1134E-03  0.1335E+02
   -1.275010   13.20973  0.0000E+00  0.2826E-05  0.5462E-08  0.5002E-03  0.9474E-04  0.1739E+02
   -1.317511   13.21008  0.0000E+00  0.2816E-05  0.5396E-08  0.4970E-03  0.7911E-04  0.2359E+02
   -1.360011   13.21043  0.0000E+00  0.2806E-05  0.5387E-08  0.4895E-03  0.6618E-04  0.3218E+02
   -1.402510   13.21079  0.0000E+00  0.2795E-05  0.5440E-08  0.4773E-03  0.5554E-04  0.4824E+02
   -1.445010   13.21117  0.0000E+00  0.2782E-05  0.5565E-08  0.4603E-03  0.4640E-04  0.7274E+02
   -1.487509   13.21159  0.0000E+00  0.2766E-05  0.5779E-08  0.4382E-03  0.3784E-04  0.9258E+02
   -1.530008   13.21203  0.0000E+00  0.2743E-05  0.6189E-08  0.4052E-03  0.2991E-04  0.1103E+03
   -1.572506   13.21253  0.0000E+00  0.2696E-05  0.7170E-08  0.3407E-03  0.2288E-04  0.2077E+03
   -1.615005   13.21312  0.0000E+00  0.2562E-05  0.1061E-07  0.2583E-03  0.1793E-04  0.1037E+04
   -1.657502   13.21395  0.0000E+00  0.1769E-05  0.3723E-07  0.1641E-04  0.1407E-04 -0.2808E+06
   -1.700000   13.22746  0.0000E+00  0.0000E+00  0.0000E+00  0.0000E+00  0.1455E-04  0.0000E+00
