 1 - depth, m
 2 - temperature, C
 3 - salinity, kg/kg
 4 - turbulent kinetic energy, m**2/s**2
 5 - dissipation rate, m**2/s**3
 6 - kinematic heat conductance, m**2/s
 7 - modulus of horizontal velocity, m/s
 8 - Richardson number, n/d
   -0.000000    0.00000  0.0000E+00  0.3189E-13  0.5207E-16  0.1000E-09  0.0000E+00  0.1227E+17
   -0.042497    0.18879  0.0000E+00  0.3189E-13  0.5207E-16  0.1000E-09  0.0000E+00  0.1198E+17
   -0.084995    0.38340  0.0000E+00  0.3189E-13  0.5207E-16  0.1000E-09  0.0000E+00  0.1158E+17
   -0.127493    0.58265  0.0000E+00  0.3189E-13  0.5207E-16  0.1000E-09  0.0000E+00  0.1074E+17
   -0.169991    0.77929  0.0000E+00  0.3189E-13  0.5207E-16  0.1000E-09  0.0000E+00  0.9911E+16
   -0.212490    0.97269  0.0000E+00  0.3189E-13  0.5207E-16  0.1000E-09  0.0000E+00  0.9092E+16
   -0.254989    1.16237  0.0000E+00  0.3189E-13  0.5207E-16  0.1000E-09  0.0000E+00  0.8288E+16
   -0.297488    1.34770  0.0000E+00  0.3189E-13  0.5207E-16  0.1000E-09  0.0000E+00  0.7496E+16
   -0.339988    1.52789  0.0000E+00  0.3189E-13  0.5207E-16  0.1000E-09  0.0000E+00  0.6723E+16
   -0.382487    1.70210  0.0000E+00  0.3189E-13  0.5207E-16  0.1000E-09  0.0000E+00  0.5986E+16
   -0.424987    1.86975  0.0000E+00  0.3189E-13  0.5207E-16  0.1000E-09  0.0000E+00  0.5292E+16
   -0.467488    2.03031  0.0000E+00  0.3189E-13  0.5207E-16  0.1000E-09  0.0000E+00  0.4644E+16
   -0.509988    2.18335  0.0000E+00  0.3189E-13  0.5207E-16  0.1000E-09  0.0000E+00  0.4086E+16
   -0.552489    2.33004  0.0000E+00  0.3189E-13  0.5207E-16  0.1000E-09  0.0000E+00  0.3576E+16
   -0.594990    2.47037  0.0000E+00  0.3189E-13  0.5207E-16  0.1000E-09  0.0000E+00  0.3110E+16
   -0.637490    2.60425  0.0000E+00  0.3189E-13  0.5207E-16  0.1000E-09  0.0000E+00  0.2688E+16
   -0.679991    2.73169  0.0000E+00  0.3189E-13  0.5207E-16  0.1000E-09  0.0000E+00  0.2299E+16
   -0.722493    2.85228  0.0000E+00  0.3189E-13  0.5207E-16  0.1000E-09  0.0000E+00  0.1944E+16
   -0.764994    2.96553  0.0000E+00  0.3189E-13  0.5207E-16  0.1000E-09  0.0000E+00  0.1621E+16
   -0.807495    3.07075  0.0000E+00  0.3189E-13  0.5207E-16  0.1000E-09  0.0000E+00  0.1333E+16
   -0.849996    3.16752  0.0000E+00  0.3189E-13  0.5207E-16  0.1000E-09  0.0000E+00  0.1080E+16
   -0.892497    3.25537  0.0000E+00  0.3189E-13  0.5207E-16  0.1000E-09  0.0000E+00  0.8853E+15
   -0.934999    3.33633  0.0000E+00  0.3189E-13  0.5207E-16  0.1000E-09  0.0000E+00  0.7328E+15
   -0.977500    3.41201  0.0000E+00  0.3189E-13  0.5207E-16  0.1000E-09  0.0000E+00  0.5993E+15
   -1.020001    3.48237  0.0000E+00  0.3189E-13  0.5207E-16  0.1000E-09  0.0000E+00  0.4826E+15
   -1.062502    3.54720  0.0000E+00  0.3189E-13  0.5207E-16  0.1000E-09  0.0000E+00  0.3828E+15
   -1.105003    3.60648  0.0000E+00  0.3189E-13  0.5207E-16  0.1000E-09  0.0000E+00  0.2991E+15
   -1.147503    3.66027  0.0000E+00  0.3189E-13  0.5207E-16  0.1000E-09  0.0000E+00  0.2301E+15
   -1.190004    3.70869  0.0000E+00  0.3189E-13  0.5207E-16  0.1000E-09  0.0000E+00  0.1724E+15
   -1.232505    3.75144  0.0000E+00  0.3380E-13  0.5207E-16  0.1000E-09  0.0000E+00  0.1216E+15
   -1.275005    3.78707  0.0000E+00  0.1294E-12  0.8133E-16  0.1000E-09  0.0000E+00  0.8567E+14
   -1.317505    3.81661  0.0000E+00  0.4410E-12  0.2435E-15  0.1000E-09  0.0000E+00  0.7036E+14
   -1.360005    3.84544  0.0000E+00  0.1426E-11  0.7756E-15  0.1000E-09  0.0000E+00  0.5747E+14
   -1.402504    3.87439  0.0000E+00  0.4610E-11  0.2515E-14  0.1527E-09  0.0000E+00  0.4415E+14
   -1.445004    3.90323  0.0000E+00  0.1415E-10  0.7830E-14  0.6419E-09  0.0000E+00  0.3043E+14
   -1.487503    3.93131  0.0000E+00  0.4322E-10  0.2470E-13  0.2928E-08  0.0000E+00  0.1808E+14
   -1.530001    3.95943  0.0000E+00  0.1443E-09  0.8835E-13  0.1839E-07  0.0000E+00  0.5549E+13
   -1.572500    3.99082  0.0000E+00  0.5233E-09  0.3815E-12  0.1957E-06  0.0000E+00 -0.7718E+13
   -1.614998    4.01812  0.0000E+00  0.1387E-08  0.1429E-11  0.4338E-06  0.0000E+00 -0.1732E+14
   -1.657495    4.04309  0.0000E+00  0.2184E-08  0.4138E-11  0.3699E-06  0.0000E+00 -0.5837E+14
   -1.699992    4.08968  0.0000E+00  0.0000E+00  0.0000E+00  0.0000E+00  0.0000E+00  0.0000E+00
