 1 - depth, m
 2 - temperature, C
 3 - salinity, kg/kg
 4 - turbulent kinetic energy, m**2/s**2
 5 - dissipation rate, m**2/s**3
 6 - kinematic heat conductance, m**2/s
 7 - modulus of horizontal velocity, m/s
 8 - Richardson number, n/d
   -0.000000    5.12794  0.0000E+00  0.2224E-03  0.1166E-03  0.6808E-04  0.1404E+00  0.2290E-02
   -0.042498    5.20313  0.0000E+00  0.1202E-03  0.3767E-04  0.1371E-03  0.3350E-01 -0.1432E-01
   -0.084996    5.21652  0.0000E+00  0.8577E-04  0.1867E-04  0.1196E-03  0.2302E-01 -0.2492E-01
   -0.127494    5.22754  0.0000E+00  0.6323E-04  0.9581E-05  0.1071E-03  0.1817E-01 -0.2008E-01
   -0.169993    5.23681  0.0000E+00  0.4677E-04  0.4913E-05  0.9988E-04  0.1458E-01 -0.2058E-01
   -0.212492    5.24552  0.0000E+00  0.3451E-04  0.2541E-05  0.9498E-04  0.1168E-01 -0.4166E-01
   -0.254992    5.25426  0.0000E+00  0.2536E-04  0.1305E-05  0.9178E-04  0.9363E-02 -0.9303E-01
   -0.297492    5.26320  0.0000E+00  0.1896E-04  0.7095E-06  0.8913E-04  0.7573E-02 -0.1299E+00
   -0.339992    5.27227  0.0000E+00  0.1454E-04  0.4150E-06  0.8747E-04  0.6150E-02 -0.1557E+00
   -0.382492    5.28107  0.0000E+00  0.1141E-04  0.2577E-06  0.8905E-04  0.4980E-02  0.9904E-01
   -0.424993    5.28910  0.0000E+00  0.9191E-05  0.1677E-06  0.9239E-04  0.4078E-02  0.1726E+01
   -0.467494    5.29639  0.0000E+00  0.7563E-05  0.1127E-06  0.9876E-04  0.3308E-02  0.1159E+01
   -0.509995    5.30294  0.0000E+00  0.6332E-05  0.7777E-07  0.1092E-03  0.2652E-02  0.2736E+01
   -0.552496    5.30871  0.0000E+00  0.5380E-05  0.5483E-07  0.1246E-03  0.2101E-02  0.2252E+02
   -0.594997    5.31372  0.0000E+00  0.4629E-05  0.3945E-07  0.1437E-03  0.1636E-02  0.2024E+03
   -0.637498    5.31803  0.0000E+00  0.4021E-05  0.2878E-07  0.1629E-03  0.1260E-02  0.2673E+02
   -0.680000    5.32179  0.0000E+00  0.3533E-05  0.2133E-07  0.1827E-03  0.9713E-03  0.2030E+02
   -0.722502    5.32511  0.0000E+00  0.3140E-05  0.1607E-07  0.2045E-03  0.7485E-03  0.9122E+02
   -0.765003    5.32804  0.0000E+00  0.2826E-05  0.1233E-07  0.2249E-03  0.5825E-03  0.4083E+03
   -0.807505    5.33068  0.0000E+00  0.2575E-05  0.9639E-08  0.2425E-03  0.4621E-03  0.1727E+03
   -0.850007    5.33309  0.0000E+00  0.2378E-05  0.7723E-08  0.2614E-03  0.3703E-03  0.8954E+01
   -0.892509    5.33528  0.0000E+00  0.2223E-05  0.6343E-08  0.2785E-03  0.2999E-03  0.2567E+03
   -0.935010    5.33728  0.0000E+00  0.2104E-05  0.5354E-08  0.2947E-03  0.2462E-03  0.2485E+02
   -0.977512    5.33911  0.0000E+00  0.2011E-05  0.4635E-08  0.3086E-03  0.2037E-03  0.6504E+02
   -1.020014    5.34079  0.0000E+00  0.1939E-05  0.4106E-08  0.3213E-03  0.1704E-03  0.5657E+04
   -1.062515    5.34235  0.0000E+00  0.1883E-05  0.3716E-08  0.3327E-03  0.1433E-03  0.1077E+03
   -1.105017    5.34380  0.0000E+00  0.1838E-05  0.3421E-08  0.3412E-03  0.1213E-03  0.4831E+02
   -1.147518    5.34518  0.0000E+00  0.1801E-05  0.3199E-08  0.3478E-03  0.1024E-03  0.1754E+02
   -1.190019    5.34648  0.0000E+00  0.1772E-05  0.3031E-08  0.3524E-03  0.8532E-04  0.1813E+02
   -1.232520    5.34773  0.0000E+00  0.1746E-05  0.2902E-08  0.3552E-03  0.7012E-04  0.1941E+02
   -1.275021    5.34894  0.0000E+00  0.1724E-05  0.2803E-08  0.3561E-03  0.5740E-04  0.2607E+02
   -1.317521    5.35013  0.0000E+00  0.1702E-05  0.2730E-08  0.3549E-03  0.4685E-04  0.3668E+02
   -1.360022    5.35130  0.0000E+00  0.1681E-05  0.2680E-08  0.3509E-03  0.3809E-04  0.5294E+02
   -1.402522    5.35247  0.0000E+00  0.1659E-05  0.2655E-08  0.3441E-03  0.3104E-04  0.8254E+02
   -1.445022    5.35364  0.0000E+00  0.1638E-05  0.2663E-08  0.3347E-03  0.2505E-04  0.1305E+03
   -1.487521    5.35481  0.0000E+00  0.1619E-05  0.2712E-08  0.3214E-03  0.1964E-04  0.1693E+03
   -1.530020    5.35599  0.0000E+00  0.1598E-05  0.2835E-08  0.3008E-03  0.1475E-04  0.2085E+03
   -1.572519    5.35724  0.0000E+00  0.1567E-05  0.3155E-08  0.2603E-03  0.1074E-04  0.3876E+03
   -1.615018    5.35869  0.0000E+00  0.1486E-05  0.4306E-08  0.1939E-03  0.8074E-05  0.2264E+04
   -1.657516    5.36061  0.0000E+00  0.1022E-05  0.1443E-07  0.1074E-04  0.5964E-05 -0.7673E+06
   -1.700014    5.39429  0.0000E+00  0.0000E+00  0.0000E+00  0.0000E+00  0.5969E-05  0.0000E+00
