 1 - depth, m
 2 - temperature, C
 3 - salinity, kg/kg
 4 - turbulent kinetic energy, m**2/s**2
 5 - dissipation rate, m**2/s**3
 6 - kinematic heat conductance, m**2/s
 7 - modulus of horizontal velocity, m/s
 8 - Richardson number, n/d
   -0.000000    0.15853  0.0000E+00  0.7206E-03  0.2788E-02  0.1218E-03  0.3768E+00  0.2591E-02
   -0.042497    0.22512  0.0000E+00  0.3753E-03  0.1071E-02  0.2169E-03  0.9029E-01 -0.1699E-01
   -0.084995    0.24518  0.0000E+00  0.2468E-03  0.3933E-03  0.2045E-03  0.5201E-01 -0.8338E-01
   -0.127494    0.25853  0.0000E+00  0.1804E-03  0.2044E-03  0.1886E-03  0.4001E-01  0.2918E-01
   -0.169992    0.26784  0.0000E+00  0.1383E-03  0.1254E-03  0.1742E-03  0.3220E-01  0.1577E-01
   -0.212491    0.27645  0.0000E+00  0.1071E-03  0.7844E-04  0.1688E-03  0.2607E-01  0.3883E-01
   -0.254990    0.28512  0.0000E+00  0.8443E-04  0.4970E-04  0.1665E-03  0.2142E-01  0.9652E+00
   -0.297490    0.29292  0.0000E+00  0.6783E-04  0.3051E-04  0.1648E-03  0.1825E-01  0.4865E+02
   -0.339990    0.30015  0.0000E+00  0.5562E-04  0.1745E-04  0.1623E-03  0.1595E-01  0.2342E+02
   -0.382490    0.30731  0.0000E+00  0.4641E-04  0.9129E-05  0.1618E-03  0.1383E-01  0.7534E+02
   -0.424990    0.31352  0.0000E+00  0.3950E-04  0.4271E-05  0.1587E-03  0.1218E-01  0.4989E+01
   -0.467491    0.32018  0.0000E+00  0.3413E-04  0.1858E-05  0.1555E-03  0.1053E-01  0.1465E+01
   -0.509992    0.32734  0.0000E+00  0.2985E-04  0.9797E-06  0.1519E-03  0.9024E-02  0.2508E+01
   -0.552492    0.33465  0.0000E+00  0.2626E-04  0.6570E-06  0.1462E-03  0.7701E-02  0.6390E+01
   -0.594994    0.34212  0.0000E+00  0.2310E-04  0.4889E-06  0.1406E-03  0.6498E-02  0.6571E+02
   -0.637495    0.35031  0.0000E+00  0.2024E-04  0.3760E-06  0.1361E-03  0.5447E-02  0.2038E+04
   -0.679996    0.35856  0.0000E+00  0.1768E-04  0.2940E-06  0.1296E-03  0.4588E-02  0.9791E+05
   -0.722497    0.36750  0.0000E+00  0.1536E-04  0.2318E-06  0.1242E-03  0.3862E-02  0.3328E+07
   -0.764999    0.37457  0.0000E+00  0.1329E-04  0.1835E-06  0.1212E-03  0.3273E-02  0.6264E+08
   -0.807500    0.37996  0.0000E+00  0.1146E-04  0.1456E-06  0.1131E-03  0.2807E-02  0.3073E+10
   -0.850002    0.38570  0.0000E+00  0.9849E-05  0.1160E-06  0.1041E-03  0.2415E-02  0.6129E+11
   -0.892503    0.39151  0.0000E+00  0.8432E-05  0.9243E-07  0.9531E-04  0.2083E-02  0.3049E+12
   -0.935005    0.39684  0.0000E+00  0.7186E-05  0.7360E-07  0.8394E-04  0.1804E-02  0.8674E+12
   -0.977506    0.40310  0.0000E+00  0.6090E-05  0.5844E-07  0.7526E-04  0.1554E-02 -0.9804E+11
   -1.020008    0.40942  0.0000E+00  0.5134E-05  0.4632E-07  0.6422E-04  0.1342E-02 -0.1047E+12
   -1.062509    0.41870  0.0000E+00  0.4304E-05  0.3664E-07  0.5564E-04  0.1148E-02 -0.1268E+12
   -1.105010    0.43067  0.0000E+00  0.3589E-05  0.2898E-07  0.4569E-04  0.9816E-03 -0.8543E+11
   -1.147511    0.44918  0.0000E+00  0.2965E-05  0.2287E-07  0.3105E-04  0.8229E-03  0.9585E+13
   -1.190012    0.50106  0.0000E+00  0.2406E-05  0.1789E-07  0.2509E-04  0.6343E-03  0.4867E+14
   -1.232513    0.65609  0.0000E+00  0.1938E-05  0.1386E-07  0.2149E-04  0.4298E-03  0.1203E+15
   -1.275013    0.85710  0.0000E+00  0.1602E-05  0.1091E-07  0.1842E-04  0.3023E-03  0.5731E+15
   -1.317514    1.03896  0.0000E+00  0.1351E-05  0.8735E-08  0.1525E-04  0.2251E-03  0.1360E+16
   -1.360014    1.21968  0.0000E+00  0.1136E-05  0.6992E-08  0.1463E-04  0.1689E-03  0.1880E+16
   -1.402514    1.38461  0.0000E+00  0.9384E-06  0.5528E-08  0.1138E-04  0.1289E-03  0.3686E+16
   -1.445013    1.61041  0.0000E+00  0.7624E-06  0.4344E-08  0.6129E-05  0.9761E-04  0.7273E+16
   -1.487512    2.03013  0.0000E+00  0.6005E-06  0.3337E-08  0.3776E-05  0.6690E-04  0.8802E+16
   -1.530011    2.64784  0.0000E+00  0.4366E-06  0.2366E-08  0.7457E-05  0.3481E-04  0.5501E+16
   -1.572510    3.16495  0.0000E+00  0.3091E-06  0.1620E-08  0.9185E-05  0.1281E-04  0.2405E+16
   -1.615008    3.40371  0.0000E+00  0.1737E-06  0.1039E-08  0.6684E-05  0.4795E-05  0.1725E+16
   -1.657506    3.67160  0.0000E+00  0.8257E-07  0.1286E-08  0.2088E-05  0.1375E-05  0.2336E+15
   -1.700004    4.03543  0.0000E+00  0.0000E+00  0.0000E+00  0.0000E+00  0.1530E-05  0.0000E+00
