 1 - depth, m
 2 - temperature, C
 3 - salinity, kg/kg
 4 - turbulent kinetic energy, m**2/s**2
 5 - dissipation rate, m**2/s**3
 6 - kinematic heat conductance, m**2/s
 7 - modulus of horizontal velocity, m/s
 8 - Richardson number, n/d
   -0.000000    0.00000  0.0000E+00  0.1030E-09  0.8597E-13  0.1000E-09  0.0000E+00  0.3028E+17
   -0.042497    0.48566  0.0000E+00  0.3112E-09  0.6525E-13  0.1000E-09  0.0000E+00  0.2557E+17
   -0.084995    0.96003  0.0000E+00  0.6817E-09  0.7346E-13  0.1000E-09  0.0000E+00  0.2101E+17
   -0.127492    1.41834  0.0000E+00  0.1233E-08  0.9838E-13  0.1000E-09  0.0000E+00  0.1660E+17
   -0.169991    1.85235  0.0000E+00  0.2024E-08  0.1399E-12  0.1000E-09  0.0000E+00  0.1278E+17
   -0.212489    2.26227  0.0000E+00  0.3150E-08  0.2020E-12  0.1072E-09  0.0000E+00  0.9504E+16
   -0.254988    2.64906  0.0000E+00  0.4761E-08  0.2918E-12  0.1661E-09  0.0000E+00  0.6696E+16
   -0.297487    3.01229  0.0000E+00  0.7065E-08  0.4196E-12  0.3253E-09  0.0000E+00  0.4289E+16
   -0.339987    3.34821  0.0000E+00  0.1029E-07  0.5962E-12  0.8447E-09  0.0000E+00  0.2295E+16
   -0.382486    3.64914  0.0000E+00  0.1475E-07  0.8371E-12  0.4326E-08  0.0000E+00  0.7910E+15
   -0.424986    3.90032  0.0000E+00  0.1564E-07  0.8720E-12  0.6501E-04  0.0000E+00  0.1286E+15
   -0.467487    3.96997  0.0000E+00  0.1616E-07  0.8928E-12  0.7101E-04  0.0000E+00  0.1461E+14
   -0.509987    3.99326  0.0000E+00  0.1629E-07  0.9000E-12  0.8568E-04  0.0000E+00 -0.3027E+11
   -0.552487    3.99363  0.0000E+00  0.1639E-07  0.9069E-12  0.8745E-04  0.0000E+00 -0.3183E+11
   -0.594988    3.99397  0.0000E+00  0.1649E-07  0.9144E-12  0.8900E-04  0.0000E+00 -0.3307E+11
   -0.637489    3.99429  0.0000E+00  0.1658E-07  0.9226E-12  0.9034E-04  0.0000E+00 -0.3441E+11
   -0.679990    3.99460  0.0000E+00  0.1668E-07  0.9318E-12  0.9159E-04  0.0000E+00 -0.3564E+11
   -0.722491    3.99491  0.0000E+00  0.1677E-07  0.9420E-12  0.9264E-04  0.0000E+00 -0.3712E+11
   -0.764992    3.99521  0.0000E+00  0.1686E-07  0.9536E-12  0.9371E-04  0.0000E+00 -0.3861E+11
   -0.807493    3.99551  0.0000E+00  0.1696E-07  0.9665E-12  0.9490E-04  0.0000E+00 -0.4000E+11
   -0.849994    3.99580  0.0000E+00  0.1705E-07  0.9807E-12  0.9633E-04  0.0000E+00 -0.4123E+11
   -0.892495    3.99609  0.0000E+00  0.1713E-07  0.9962E-12  0.9731E-04  0.0000E+00 -0.4248E+11
   -0.934996    3.99637  0.0000E+00  0.1722E-07  0.1013E-11  0.9738E-04  0.0000E+00 -0.4366E+11
   -0.977497    3.99666  0.0000E+00  0.1729E-07  0.1031E-11  0.9703E-04  0.0000E+00 -0.4513E+11
   -1.019998    3.99694  0.0000E+00  0.1736E-07  0.1051E-11  0.9640E-04  0.0000E+00 -0.4659E+11
   -1.062499    3.99722  0.0000E+00  0.1743E-07  0.1072E-11  0.9551E-04  0.0000E+00 -0.4833E+11
   -1.105000    3.99751  0.0000E+00  0.1749E-07  0.1096E-11  0.9447E-04  0.0000E+00 -0.5001E+11
   -1.147501    3.99780  0.0000E+00  0.1754E-07  0.1120E-11  0.9325E-04  0.0000E+00 -0.5185E+11
   -1.190001    3.99810  0.0000E+00  0.1758E-07  0.1147E-11  0.9183E-04  0.0000E+00 -0.5399E+11
   -1.232502    3.99839  0.0000E+00  0.1762E-07  0.1177E-11  0.9010E-04  0.0000E+00 -0.5706E+11
   -1.275002    3.99870  0.0000E+00  0.1765E-07  0.1213E-11  0.8806E-04  0.0000E+00 -0.6047E+11
   -1.317502    3.99902  0.0000E+00  0.1767E-07  0.1257E-11  0.8543E-04  0.0000E+00 -0.6402E+11
   -1.360002    3.99935  0.0000E+00  0.1768E-07  0.1312E-11  0.8215E-04  0.0000E+00 -0.6854E+11
   -1.402501    3.99969  0.0000E+00  0.1768E-07  0.1385E-11  0.7806E-04  0.0000E+00 -0.7427E+11
   -1.445000    4.00005  0.0000E+00  0.1767E-07  0.1474E-11  0.7324E-04  0.0000E+00 -0.8133E+11
   -1.487499    4.00044  0.0000E+00  0.1764E-07  0.1588E-11  0.6674E-04  0.0000E+00 -0.9206E+11
   -1.529998    4.00087  0.0000E+00  0.1758E-07  0.1770E-11  0.5741E-04  0.0000E+00 -0.1133E+12
   -1.572496    4.00140  0.0000E+00  0.1742E-07  0.2189E-11  0.4465E-04  0.0000E+00 -0.1744E+12
   -1.614994    4.00219  0.0000E+00  0.1669E-07  0.4183E-11  0.1389E-04  0.0000E+00 -0.6989E+12
   -1.657491    4.00496  0.0000E+00  0.1197E-07  0.2079E-10  0.1086E-05  0.0000E+00 -0.1722E+14
   -1.699988    4.03676  0.0000E+00  0.0000E+00  0.0000E+00  0.0000E+00  0.0000E+00  0.0000E+00
