 1 - depth, m
 2 - temperature, C
 3 - salinity, kg/kg
 4 - turbulent kinetic energy, m**2/s**2
 5 - dissipation rate, m**2/s**3
 6 - kinematic heat conductance, m**2/s
 7 - modulus of horizontal velocity, m/s
 8 - Richardson number, n/d
   -0.000000   13.30673  0.0000E+00  0.5322E-04  0.1415E-04  0.4552E-04  0.4858E-01 -0.1912E-01
   -0.042498   13.32739  0.0000E+00  0.2893E-04  0.4105E-05  0.4944E-04  0.1555E-01 -0.5552E-01
   -0.084996   13.33317  0.0000E+00  0.2003E-04  0.1766E-05  0.5172E-04  0.1053E-01 -0.1231E+00
   -0.127495   13.33707  0.0000E+00  0.1416E-04  0.7979E-06  0.6150E-04  0.7683E-02 -0.1367E+00
   -0.169994   13.34012  0.0000E+00  0.1020E-04  0.3810E-06  0.8015E-04  0.5677E-02  0.2332E+02
   -0.212494   13.34268  0.0000E+00  0.7454E-05  0.1886E-06  0.9458E-04  0.4168E-02  0.2760E+02
   -0.254993   13.34491  0.0000E+00  0.5594E-05  0.9769E-07  0.1091E-03  0.3043E-02  0.1390E+02
   -0.297493   13.34686  0.0000E+00  0.4401E-05  0.5371E-07  0.1239E-03  0.2240E-02  0.4756E+02
   -0.339994   13.34855  0.0000E+00  0.3681E-05  0.3181E-07  0.1452E-03  0.1665E-02  0.6134E+01
   -0.382494   13.34999  0.0000E+00  0.3254E-05  0.2035E-07  0.1838E-03  0.1244E-02  0.2924E+03
   -0.424995   13.35113  0.0000E+00  0.3021E-05  0.1428E-07  0.2399E-03  0.9519E-03  0.1266E+02
   -0.467496   13.35198  0.0000E+00  0.2904E-05  0.1105E-07  0.2899E-03  0.7497E-03  0.1420E+03
   -0.509997   13.35263  0.0000E+00  0.2852E-05  0.9191E-08  0.3245E-03  0.6105E-03  0.4340E+01
   -0.552499   13.35320  0.0000E+00  0.2837E-05  0.8019E-08  0.3575E-03  0.5011E-03  0.7410E+01
   -0.595000   13.35371  0.0000E+00  0.2843E-05  0.7231E-08  0.3881E-03  0.4117E-03  0.2319E+01
   -0.637502   13.35419  0.0000E+00  0.2860E-05  0.6661E-08  0.4175E-03  0.3382E-03  0.2226E+01
   -0.680004   13.35462  0.0000E+00  0.2884E-05  0.6240E-08  0.4460E-03  0.2798E-03  0.1082E+02
   -0.722506   13.35503  0.0000E+00  0.2912E-05  0.5929E-08  0.4730E-03  0.2339E-03  0.1717E+01
   -0.765008   13.35540  0.0000E+00  0.2944E-05  0.5699E-08  0.4978E-03  0.1989E-03  0.1897E+01
   -0.807510   13.35574  0.0000E+00  0.2980E-05  0.5531E-08  0.5207E-03  0.1724E-03  0.2254E+01
   -0.850012   13.35606  0.0000E+00  0.3020E-05  0.5414E-08  0.5418E-03  0.1514E-03  0.2746E+01
   -0.892514   13.35637  0.0000E+00  0.3062E-05  0.5337E-08  0.5615E-03  0.1340E-03  0.3393E+01
   -0.935016   13.35667  0.0000E+00  0.3108E-05  0.5295E-08  0.5794E-03  0.1194E-03  0.4270E+01
   -0.977518   13.35698  0.0000E+00  0.3156E-05  0.5284E-08  0.5951E-03  0.1066E-03  0.5288E+01
   -1.020019   13.35730  0.0000E+00  0.3204E-05  0.5302E-08  0.6083E-03  0.9538E-04  0.6615E+01
   -1.062521   13.35762  0.0000E+00  0.3252E-05  0.5346E-08  0.6187E-03  0.8533E-04  0.8095E+01
   -1.105023   13.35796  0.0000E+00  0.3300E-05  0.5414E-08  0.6260E-03  0.7627E-04  0.9941E+01
   -1.147524   13.35832  0.0000E+00  0.3343E-05  0.5502E-08  0.6299E-03  0.6785E-04  0.1216E+02
   -1.190026   13.35872  0.0000E+00  0.3382E-05  0.5609E-08  0.6302E-03  0.5985E-04  0.1443E+02
   -1.232527   13.35914  0.0000E+00  0.3415E-05  0.5741E-08  0.6269E-03  0.5232E-04  0.1734E+02
   -1.275028   13.35957  0.0000E+00  0.3445E-05  0.5905E-08  0.6193E-03  0.4554E-04  0.2285E+02
   -1.317529   13.36003  0.0000E+00  0.3469E-05  0.6112E-08  0.6065E-03  0.3945E-04  0.3095E+02
   -1.360030   13.36051  0.0000E+00  0.3489E-05  0.6383E-08  0.5872E-03  0.3403E-04  0.4293E+02
   -1.402530   13.36102  0.0000E+00  0.3503E-05  0.6753E-08  0.5599E-03  0.2928E-04  0.6517E+02
   -1.445030   13.36157  0.0000E+00  0.3508E-05  0.7215E-08  0.5259E-03  0.2494E-04  0.1018E+03
   -1.487530   13.36220  0.0000E+00  0.3502E-05  0.7810E-08  0.4888E-03  0.2074E-04  0.1344E+03
   -1.530029   13.36291  0.0000E+00  0.3478E-05  0.8765E-08  0.4175E-03  0.1670E-04  0.1757E+03
   -1.572528   13.36376  0.0000E+00  0.3413E-05  0.1088E-07  0.4290E-03  0.1291E-04  0.2904E+03
   -1.615027   13.36459  0.0000E+00  0.3137E-05  0.2149E-07  0.1787E-03  0.1066E-04 -0.1248E+07
   -1.657525   13.36866  0.0000E+00  0.2054E-05  0.7278E-07  0.4242E-04  0.6821E-05 -0.1009E+08
   -1.700023   13.37837  0.0000E+00  0.0000E+00  0.0000E+00  0.0000E+00  0.7710E-05  0.0000E+00
