 1 - depth, m
 2 - temperature, C
 3 - salinity, kg/kg
 4 - turbulent kinetic energy, m**2/s**2
 5 - dissipation rate, m**2/s**3
 6 - kinematic heat conductance, m**2/s
 7 - modulus of horizontal velocity, m/s
 8 - Richardson number, n/d
   -0.000000   10.84006  0.0000E+00  0.3260E-03  0.9687E-03  0.6581E-04  0.1715E+00  0.2041E-01
   -0.042498   10.97857  0.0000E+00  0.1695E-03  0.3980E-03  0.1496E-03  0.3962E-01 -0.8327E-01
   -0.084996   11.00128  0.0000E+00  0.1207E-03  0.2086E-03  0.1371E-03  0.2619E-01 -0.8086E-01
   -0.127494   11.01934  0.0000E+00  0.8945E-04  0.9431E-04  0.1257E-03  0.2079E-01 -0.2114E+00
   -0.169993   11.03351  0.0000E+00  0.6556E-04  0.2467E-04  0.1243E-03  0.1676E-01  0.5439E+00
   -0.212492   11.04656  0.0000E+00  0.4854E-04  0.8677E-05  0.1306E-03  0.1344E-01  0.1692E+02
   -0.254991   11.05771  0.0000E+00  0.3626E-04  0.4186E-05  0.1431E-03  0.1088E-01  0.2018E+02
   -0.297491   11.06740  0.0000E+00  0.2762E-04  0.2117E-05  0.1595E-03  0.8976E-02  0.1015E+02
   -0.339991   11.07603  0.0000E+00  0.2182E-04  0.1129E-05  0.1806E-03  0.7456E-02  0.6358E+02
   -0.382491   11.08352  0.0000E+00  0.1791E-04  0.6558E-06  0.2155E-03  0.6152E-02  0.4735E+02
   -0.424992   11.08986  0.0000E+00  0.1524E-04  0.3995E-06  0.2583E-03  0.5138E-02  0.3339E+02
   -0.467492   11.09510  0.0000E+00  0.1337E-04  0.2602E-06  0.3066E-03  0.4282E-02  0.1056E+03
   -0.509993   11.09934  0.0000E+00  0.1202E-04  0.1770E-06  0.3505E-03  0.3568E-02  0.6839E+02
   -0.552494   11.10287  0.0000E+00  0.1102E-04  0.1264E-06  0.3916E-03  0.2968E-02  0.2071E+03
   -0.594996   11.10576  0.0000E+00  0.1026E-04  0.9440E-07  0.4331E-03  0.2453E-02  0.1717E+02
   -0.637497   11.10829  0.0000E+00  0.9664E-05  0.7362E-07  0.4774E-03  0.2013E-02  0.1204E+02
   -0.679998   11.11044  0.0000E+00  0.9195E-05  0.5945E-07  0.5215E-03  0.1653E-02  0.8302E+02
   -0.722500   11.11236  0.0000E+00  0.8820E-05  0.4936E-07  0.5704E-03  0.1355E-02  0.3261E+01
   -0.765001   11.11406  0.0000E+00  0.8518E-05  0.4204E-07  0.6196E-03  0.1120E-02  0.6334E+01
   -0.807503   11.11559  0.0000E+00  0.8271E-05  0.3654E-07  0.6623E-03  0.9394E-03  0.1449E+01
   -0.850005   11.11700  0.0000E+00  0.8068E-05  0.3239E-07  0.6973E-03  0.7964E-03  0.1606E+01
   -0.892506   11.11832  0.0000E+00  0.7896E-05  0.2918E-07  0.7279E-03  0.6815E-03  0.1695E+01
   -0.935008   11.11956  0.0000E+00  0.7751E-05  0.2671E-07  0.7515E-03  0.5893E-03  0.1412E+01
   -0.977510   11.12075  0.0000E+00  0.7623E-05  0.2480E-07  0.7699E-03  0.5124E-03  0.1408E+01
   -1.020011   11.12189  0.0000E+00  0.7507E-05  0.2334E-07  0.7823E-03  0.4487E-03  0.1454E+01
   -1.062512   11.12299  0.0000E+00  0.7401E-05  0.2222E-07  0.7888E-03  0.3941E-03  0.1496E+01
   -1.105014   11.12407  0.0000E+00  0.7301E-05  0.2140E-07  0.7897E-03  0.3471E-03  0.1564E+01
   -1.147515   11.12512  0.0000E+00  0.7207E-05  0.2084E-07  0.7852E-03  0.3049E-03  0.1663E+01
   -1.190016   11.12616  0.0000E+00  0.7118E-05  0.2052E-07  0.7750E-03  0.2662E-03  0.1748E+01
   -1.232517   11.12719  0.0000E+00  0.7028E-05  0.2041E-07  0.7589E-03  0.2309E-03  0.1889E+01
   -1.275018   11.12823  0.0000E+00  0.6935E-05  0.2052E-07  0.7360E-03  0.2009E-03  0.2284E+01
   -1.317518   11.12929  0.0000E+00  0.6835E-05  0.2089E-07  0.7103E-03  0.1754E-03  0.2974E+01
   -1.360018   11.13038  0.0000E+00  0.6719E-05  0.2163E-07  0.6678E-03  0.1534E-03  0.4090E+01
   -1.402518   11.13155  0.0000E+00  0.6576E-05  0.2299E-07  0.6329E-03  0.1339E-03  0.6357E+01
   -1.445018   11.13277  0.0000E+00  0.6407E-05  0.2542E-07  0.5623E-03  0.1162E-03  0.2094E+02
   -1.487517   11.13430  0.0000E+00  0.6200E-05  0.2949E-07  0.5339E-03  0.9645E-04  0.8446E+02
   -1.530017   11.13595  0.0000E+00  0.5896E-05  0.3871E-07  0.4268E-03  0.7731E-04  0.1518E+03
   -1.572515   11.13938  0.0000E+00  0.5416E-05  0.5989E-07  0.4307E-03  0.5447E-04  0.3623E+06
   -1.615014   11.14023  0.0000E+00  0.4391E-05  0.1514E-06  0.1993E-03  0.4348E-04 -0.9937E+06
   -1.657512   11.15461  0.0000E+00  0.2901E-05  0.4134E-06  0.9970E-04  0.2698E-04 -0.9946E+05
   -1.700009   11.16213  0.0000E+00  0.0000E+00  0.0000E+00  0.0000E+00  0.4057E-04  0.0000E+00
