 1 - depth, m
 2 - temperature, C
 3 - salinity, kg/kg
 4 - turbulent kinetic energy, m**2/s**2
 5 - dissipation rate, m**2/s**3
 6 - kinematic heat conductance, m**2/s
 7 - modulus of horizontal velocity, m/s
 8 - Richardson number, n/d
   -0.000000    0.00000  0.0000E+00  0.2645E-10  0.1472E-13  0.1000E-09  0.0000E+00  0.2690E+17
   -0.042497    0.42789  0.0000E+00  0.6247E-10  0.1093E-13  0.1000E-09  0.0000E+00  0.2400E+17
   -0.084995    0.86210  0.0000E+00  0.1267E-09  0.1128E-13  0.1000E-09  0.0000E+00  0.2070E+17
   -0.127493    1.29572  0.0000E+00  0.2210E-09  0.1388E-13  0.1000E-09  0.0000E+00  0.1685E+17
   -0.169991    1.71207  0.0000E+00  0.3530E-09  0.1854E-13  0.1000E-09  0.0000E+00  0.1326E+17
   -0.212490    2.10641  0.0000E+00  0.5360E-09  0.2560E-13  0.1000E-09  0.0000E+00  0.1004E+17
   -0.254989    2.47437  0.0000E+00  0.7906E-09  0.3580E-13  0.1000E-09  0.0000E+00  0.7237E+16
   -0.297489    2.81117  0.0000E+00  0.1146E-08  0.5025E-13  0.1000E-09  0.0000E+00  0.4903E+16
   -0.339988    3.11190  0.0000E+00  0.1634E-08  0.7012E-13  0.1005E-09  0.0000E+00  0.3074E+16
   -0.382488    3.37262  0.0000E+00  0.2304E-08  0.9740E-13  0.1823E-09  0.0000E+00  0.1744E+16
   -0.424989    3.59129  0.0000E+00  0.3219E-08  0.1344E-12  0.5326E-09  0.0000E+00  0.8648E+15
   -0.467489    3.76976  0.0000E+00  0.4461E-08  0.1844E-12  0.2377E-08  0.0000E+00  0.3298E+15
   -0.509989    3.91060  0.0000E+00  0.5667E-08  0.2334E-12  0.8893E-05  0.0000E+00  0.6765E+14
   -0.552490    3.98990  0.0000E+00  0.5826E-08  0.2404E-12  0.4240E-04  0.0000E+00 -0.1048E+11
   -0.594991    3.99053  0.0000E+00  0.5916E-08  0.2449E-12  0.4532E-04  0.0000E+00 -0.2328E+11
   -0.637492    3.99093  0.0000E+00  0.6004E-08  0.2497E-12  0.4759E-04  0.0000E+00 -0.2492E+11
   -0.679993    3.99130  0.0000E+00  0.6091E-08  0.2549E-12  0.4957E-04  0.0000E+00 -0.2634E+11
   -0.722494    3.99165  0.0000E+00  0.6179E-08  0.2607E-12  0.5129E-04  0.0000E+00 -0.2780E+11
   -0.764996    3.99199  0.0000E+00  0.6268E-08  0.2671E-12  0.5278E-04  0.0000E+00 -0.2938E+11
   -0.807497    3.99232  0.0000E+00  0.6359E-08  0.2741E-12  0.5394E-04  0.0000E+00 -0.3102E+11
   -0.849998    3.99265  0.0000E+00  0.6448E-08  0.2817E-12  0.5479E-04  0.0000E+00 -0.3284E+11
   -0.892500    3.99298  0.0000E+00  0.6538E-08  0.2899E-12  0.5524E-04  0.0000E+00 -0.3470E+11
   -0.935001    3.99330  0.0000E+00  0.6626E-08  0.2986E-12  0.5534E-04  0.0000E+00 -0.3655E+11
   -0.977502    3.99363  0.0000E+00  0.6712E-08  0.3080E-12  0.5517E-04  0.0000E+00 -0.3863E+11
   -1.020003    3.99396  0.0000E+00  0.6796E-08  0.3181E-12  0.5487E-04  0.0000E+00 -0.4081E+11
   -1.062504    3.99430  0.0000E+00  0.6876E-08  0.3288E-12  0.5444E-04  0.0000E+00 -0.4320E+11
   -1.105005    3.99464  0.0000E+00  0.6952E-08  0.3404E-12  0.5392E-04  0.0000E+00 -0.4566E+11
   -1.147506    3.99498  0.0000E+00  0.7022E-08  0.3525E-12  0.5332E-04  0.0000E+00 -0.4823E+11
   -1.190007    3.99533  0.0000E+00  0.7084E-08  0.3652E-12  0.5257E-04  0.0000E+00 -0.5123E+11
   -1.232508    3.99569  0.0000E+00  0.7142E-08  0.3795E-12  0.5168E-04  0.0000E+00 -0.5518E+11
   -1.275008    3.99606  0.0000E+00  0.7195E-08  0.3960E-12  0.5058E-04  0.0000E+00 -0.5961E+11
   -1.317508    3.99644  0.0000E+00  0.7244E-08  0.4156E-12  0.4907E-04  0.0000E+00 -0.6407E+11
   -1.360008    3.99684  0.0000E+00  0.7287E-08  0.4399E-12  0.4709E-04  0.0000E+00 -0.6977E+11
   -1.402508    3.99726  0.0000E+00  0.7325E-08  0.4716E-12  0.4466E-04  0.0000E+00 -0.7688E+11
   -1.445007    3.99770  0.0000E+00  0.7352E-08  0.5093E-12  0.4201E-04  0.0000E+00 -0.8541E+11
   -1.487506    3.99817  0.0000E+00  0.7364E-08  0.5558E-12  0.3884E-04  0.0000E+00 -0.9706E+11
   -1.530005    3.99868  0.0000E+00  0.7357E-08  0.6295E-12  0.3442E-04  0.0000E+00 -0.1180E+12
   -1.572503    3.99928  0.0000E+00  0.7297E-08  0.8177E-12  0.2375E-04  0.0000E+00 -0.2024E+12
   -1.615002    4.00024  0.0000E+00  0.6901E-08  0.1798E-11  0.6731E-05  0.0000E+00 -0.9359E+12
   -1.657499    4.00403  0.0000E+00  0.5032E-08  0.7311E-11  0.6826E-06  0.0000E+00 -0.2166E+14
   -1.699997    4.04181  0.0000E+00  0.0000E+00  0.0000E+00  0.0000E+00  0.0000E+00  0.0000E+00
