 1 - depth, m
 2 - temperature, C
 3 - salinity, kg/kg
 4 - turbulent kinetic energy, m**2/s**2
 5 - dissipation rate, m**2/s**3
 6 - kinematic heat conductance, m**2/s
 7 - modulus of horizontal velocity, m/s
 8 - Richardson number, n/d
   -0.000000   15.39861  0.0000E+00  0.4575E-04  0.8734E-05  0.3751E-04  0.4599E-01 -0.3724E-01
   -0.042497   15.46908  0.0000E+00  0.2643E-04  0.2333E-05  0.4932E-04  0.1634E-01 -0.4875E-01
   -0.084995   15.48901  0.0000E+00  0.1917E-04  0.9894E-06  0.6269E-04  0.1088E-01 -0.1092E+00
   -0.127493   15.50295  0.0000E+00  0.1479E-04  0.4882E-06  0.8027E-04  0.7738E-02 -0.1830E+00
   -0.169992   15.51371  0.0000E+00  0.1199E-04  0.2659E-06  0.1093E-03  0.5631E-02  0.1743E+02
   -0.212491   15.52195  0.0000E+00  0.1025E-04  0.1592E-06  0.1992E-03  0.4181E-02  0.2245E+03
   -0.254990   15.52724  0.0000E+00  0.9229E-05  0.1057E-06  0.2893E-03  0.3272E-02  0.9556E+02
   -0.297489   15.53068  0.0000E+00  0.8654E-05  0.7668E-07  0.3434E-03  0.2700E-02  0.4480E+02
   -0.339989   15.53328  0.0000E+00  0.8352E-05  0.5976E-07  0.3977E-03  0.2277E-02  0.4065E+01
   -0.382489   15.53537  0.0000E+00  0.8216E-05  0.4915E-07  0.4547E-03  0.1943E-02  0.3718E+01
   -0.424989   15.53712  0.0000E+00  0.8179E-05  0.4198E-07  0.5144E-03  0.1672E-02  0.2130E+01
   -0.467489   15.53863  0.0000E+00  0.8198E-05  0.3679E-07  0.5725E-03  0.1435E-02  0.1807E+01
   -0.509990   15.53994  0.0000E+00  0.8245E-05  0.3288E-07  0.6239E-03  0.1222E-02  0.1816E+01
   -0.552491   15.54113  0.0000E+00  0.8302E-05  0.2986E-07  0.6742E-03  0.1034E-02  0.1818E+01
   -0.594992   15.54220  0.0000E+00  0.8359E-05  0.2751E-07  0.7289E-03  0.8666E-03  0.1758E+01
   -0.637493   15.54317  0.0000E+00  0.8407E-05  0.2565E-07  0.7964E-03  0.7219E-03  0.1634E+01
   -0.679994   15.54405  0.0000E+00  0.8444E-05  0.2420E-07  0.8723E-03  0.6030E-03  0.1538E+01
   -0.722495   15.54485  0.0000E+00  0.8467E-05  0.2308E-07  0.9435E-03  0.5071E-03  0.1429E+01
   -0.764997   15.54557  0.0000E+00  0.8477E-05  0.2222E-07  0.9914E-03  0.4324E-03  0.1322E+01
   -0.807498   15.54625  0.0000E+00  0.8474E-05  0.2157E-07  0.1019E-02  0.3756E-03  0.1257E+01
   -0.849999   15.54690  0.0000E+00  0.8459E-05  0.2110E-07  0.1035E-02  0.3313E-03  0.1198E+01
   -0.892501   15.54754  0.0000E+00  0.8435E-05  0.2078E-07  0.1043E-02  0.2959E-03  0.1137E+01
   -0.935002   15.54816  0.0000E+00  0.8404E-05  0.2057E-07  0.1043E-02  0.2674E-03  0.1097E+01
   -0.977503   15.54878  0.0000E+00  0.8365E-05  0.2046E-07  0.1037E-02  0.2437E-03  0.1055E+01
   -1.020005   15.54939  0.0000E+00  0.8319E-05  0.2043E-07  0.1028E-02  0.2237E-03  0.1088E+01
   -1.062506   15.55001  0.0000E+00  0.8267E-05  0.2050E-07  0.1013E-02  0.2060E-03  0.1168E+01
   -1.105007   15.55062  0.0000E+00  0.8205E-05  0.2066E-07  0.9930E-03  0.1899E-03  0.1310E+01
   -1.147508   15.55124  0.0000E+00  0.8136E-05  0.2092E-07  0.9668E-03  0.1744E-03  0.1499E+01
   -1.190009   15.55188  0.0000E+00  0.8059E-05  0.2132E-07  0.9337E-03  0.1591E-03  0.1712E+01
   -1.232509   15.55253  0.0000E+00  0.7967E-05  0.2190E-07  0.8955E-03  0.1442E-03  0.2031E+01
   -1.275010   15.55320  0.0000E+00  0.7856E-05  0.2277E-07  0.8414E-03  0.1300E-03  0.2741E+01
   -1.317510   15.55392  0.0000E+00  0.7720E-05  0.2407E-07  0.7925E-03  0.1165E-03  0.3950E+01
   -1.360010   15.55469  0.0000E+00  0.7545E-05  0.2613E-07  0.7086E-03  0.1038E-03  0.6349E+01
   -1.402510   15.55557  0.0000E+00  0.7311E-05  0.2956E-07  0.6646E-03  0.9165E-04  0.1480E+02
   -1.445009   15.55654  0.0000E+00  0.7004E-05  0.3567E-07  0.5520E-03  0.8027E-04  0.1665E+03
   -1.487508   15.55810  0.0000E+00  0.6599E-05  0.4553E-07  0.5170E-03  0.6505E-04  0.3283E+04
   -1.530007   15.55981  0.0000E+00  0.5990E-05  0.6673E-07  0.3861E-03  0.5053E-04 -0.4960E+04
   -1.572505   15.56484  0.0000E+00  0.5176E-05  0.1135E-06  0.3943E-03  0.3178E-04  0.1702E+07
   -1.615004   15.56334  0.0000E+00  0.3960E-05  0.3138E-06  0.1771E-03  0.2537E-04 -0.2628E+08
   -1.657501   15.58258  0.0000E+00  0.2753E-05  0.8001E-06  0.1543E-03  0.1466E-04 -0.3367E+06
   -1.699999   15.58362  0.0000E+00  0.0000E+00  0.0000E+00  0.0000E+00  0.2807E-04  0.0000E+00
