 1 - depth, m
 2 - temperature, C
 3 - salinity, kg/kg
 4 - turbulent kinetic energy, m**2/s**2
 5 - dissipation rate, m**2/s**3
 6 - kinematic heat conductance, m**2/s
 7 - modulus of horizontal velocity, m/s
 8 - Richardson number, n/d
   -0.000000    7.74821  0.0000E+00  0.6759E-03  0.1495E-02  0.1054E-03  0.2776E+00 -0.2807E-01
   -0.042497    7.86574  0.0000E+00  0.3284E-03  0.4789E-03  0.2571E-03  0.6081E-01 -0.4830E-01
   -0.084995    7.88467  0.0000E+00  0.2330E-03  0.2449E-03  0.2197E-03  0.3823E-01 -0.5676E-01
   -0.127493    7.89859  0.0000E+00  0.1752E-03  0.1312E-03  0.1845E-03  0.3059E-01  0.7544E+00
   -0.169992    7.90819  0.0000E+00  0.1292E-03  0.5996E-04  0.1673E-03  0.2501E-01  0.2112E+04
   -0.212491    7.91732  0.0000E+00  0.9759E-04  0.3295E-04  0.1558E-03  0.2046E-01  0.1143E+02
   -0.254990    7.92585  0.0000E+00  0.7212E-04  0.1619E-04  0.1527E-03  0.1679E-01  0.1745E+01
   -0.297489    7.93460  0.0000E+00  0.5579E-04  0.9115E-05  0.1541E-03  0.1385E-01  0.4068E+01
   -0.339989    7.94237  0.0000E+00  0.4452E-04  0.5388E-05  0.1615E-03  0.1171E-01  0.4115E+02
   -0.382489    7.94858  0.0000E+00  0.3619E-04  0.3158E-05  0.1724E-03  0.9920E-02  0.2902E+02
   -0.424989    7.95393  0.0000E+00  0.3002E-04  0.1826E-05  0.1842E-03  0.8568E-02  0.1669E+03
   -0.467489    7.95867  0.0000E+00  0.2539E-04  0.1081E-05  0.1971E-03  0.7243E-02  0.1301E+02
   -0.509990    7.96291  0.0000E+00  0.2184E-04  0.6844E-06  0.2122E-03  0.6070E-02  0.7492E+01
   -0.552491    7.96673  0.0000E+00  0.1908E-04  0.4670E-06  0.2293E-03  0.5066E-02  0.9406E+02
   -0.594992    7.97013  0.0000E+00  0.1684E-04  0.3384E-06  0.2481E-03  0.4203E-02  0.3144E+03
   -0.637493    7.97314  0.0000E+00  0.1495E-04  0.2548E-06  0.2699E-03  0.3489E-02  0.1281E+02
   -0.679994    7.97582  0.0000E+00  0.1337E-04  0.1970E-06  0.2954E-03  0.2921E-02  0.2359E+02
   -0.722495    7.97821  0.0000E+00  0.1202E-04  0.1552E-06  0.3244E-03  0.2458E-02  0.4806E+02
   -0.764997    7.98032  0.0000E+00  0.1087E-04  0.1235E-06  0.3576E-03  0.2089E-02  0.2484E+02
   -0.807498    7.98222  0.0000E+00  0.9870E-05  0.9892E-07  0.3896E-03  0.1799E-02  0.1554E+03
   -0.849999    7.98393  0.0000E+00  0.9019E-05  0.7999E-07  0.4175E-03  0.1561E-02  0.1950E+02
   -0.892501    7.98549  0.0000E+00  0.8282E-05  0.6503E-07  0.4455E-03  0.1360E-02  0.4745E+02
   -0.935002    7.98691  0.0000E+00  0.7652E-05  0.5332E-07  0.4700E-03  0.1191E-02  0.6630E+02
   -0.977503    7.98821  0.0000E+00  0.7114E-05  0.4418E-07  0.4928E-03  0.1043E-02  0.2589E+02
   -1.020005    7.98940  0.0000E+00  0.6651E-05  0.3697E-07  0.5102E-03  0.9157E-03  0.1255E+02
   -1.062506    7.99052  0.0000E+00  0.6253E-05  0.3127E-07  0.5227E-03  0.8019E-03  0.4194E+02
   -1.105007    7.99157  0.0000E+00  0.5908E-05  0.2675E-07  0.5319E-03  0.7000E-03  0.9628E+01
   -1.147508    7.99257  0.0000E+00  0.5617E-05  0.2326E-07  0.5384E-03  0.6052E-03  0.3632E+02
   -1.190009    7.99352  0.0000E+00  0.5371E-05  0.2059E-07  0.5426E-03  0.5149E-03  0.1060E+02
   -1.232509    7.99442  0.0000E+00  0.5156E-05  0.1849E-07  0.5471E-03  0.4305E-03  0.1457E+02
   -1.275010    7.99528  0.0000E+00  0.4966E-05  0.1687E-07  0.5488E-03  0.3581E-03  0.1972E+02
   -1.317510    7.99612  0.0000E+00  0.4797E-05  0.1562E-07  0.5471E-03  0.2970E-03  0.2439E+02
   -1.360010    7.99694  0.0000E+00  0.4645E-05  0.1471E-07  0.5399E-03  0.2464E-03  0.8219E+02
   -1.402510    7.99775  0.0000E+00  0.4502E-05  0.1410E-07  0.5264E-03  0.2057E-03  0.4099E+02
   -1.445009    7.99856  0.0000E+00  0.4381E-05  0.1388E-07  0.5047E-03  0.1716E-03  0.7889E+02
   -1.487508    7.99938  0.0000E+00  0.4276E-05  0.1412E-07  0.4794E-03  0.1406E-03  0.1108E+03
   -1.530007    8.00023  0.0000E+00  0.4165E-05  0.1518E-07  0.4327E-03  0.1118E-03  0.7972E+02
   -1.572506    8.00122  0.0000E+00  0.4010E-05  0.1814E-07  0.3718E-03  0.8524E-04  0.1006E+04
   -1.615004    8.00233  0.0000E+00  0.3626E-05  0.3078E-07  0.2581E-03  0.6805E-04  0.1466E+03
   -1.657501    8.00468  0.0000E+00  0.2372E-05  0.9281E-07  0.2597E-04  0.5075E-04 -0.2493E+07
   -1.699999    8.02546  0.0000E+00  0.0000E+00  0.0000E+00  0.0000E+00  0.5713E-04  0.0000E+00
