 1 - depth, m
 2 - temperature, C
 3 - salinity, kg/kg
 4 - turbulent kinetic energy, m**2/s**2
 5 - dissipation rate, m**2/s**3
 6 - kinematic heat conductance, m**2/s
 7 - modulus of horizontal velocity, m/s
 8 - Richardson number, n/d
   -0.000000    9.08673  0.0000E+00  0.1001E-02  0.5162E-02  0.1137E-03  0.4646E+00 -0.2659E-03
   -0.042497    9.18981  0.0000E+00  0.5164E-03  0.2761E-02  0.2578E-03  0.1045E+00 -0.7560E-02
   -0.084995    9.23336  0.0000E+00  0.3333E-03  0.9104E-03  0.2695E-03  0.5995E-01 -0.4224E-01
   -0.127493    9.24824  0.0000E+00  0.2424E-03  0.4641E-03  0.2313E-03  0.4601E-01 -0.3035E-01
   -0.169991    9.25818  0.0000E+00  0.1845E-03  0.2865E-03  0.2088E-03  0.3678E-01 -0.6012E-01
   -0.212490    9.26824  0.0000E+00  0.1407E-03  0.1805E-03  0.2035E-03  0.2957E-01  0.5947E+01
   -0.254989    9.27890  0.0000E+00  0.1103E-03  0.1198E-03  0.2093E-03  0.2397E-01  0.5469E+01
   -0.297489    9.28618  0.0000E+00  0.8775E-04  0.6813E-04  0.2202E-03  0.2029E-01  0.1759E+01
   -0.339988    9.29208  0.0000E+00  0.7231E-04  0.4149E-04  0.2283E-03  0.1760E-01  0.3690E+02
   -0.382488    9.29696  0.0000E+00  0.6111E-04  0.2564E-04  0.2406E-03  0.1522E-01  0.3187E+02
   -0.424988    9.30093  0.0000E+00  0.5278E-04  0.1520E-04  0.2522E-03  0.1348E-01  0.1006E+03
   -0.467489    9.30445  0.0000E+00  0.4634E-04  0.8623E-05  0.2644E-03  0.1177E-01  0.3536E+02
   -0.509989    9.30792  0.0000E+00  0.4123E-04  0.4754E-05  0.2802E-03  0.1024E-01  0.3407E+02
   -0.552490    9.31100  0.0000E+00  0.3705E-04  0.2628E-05  0.2982E-03  0.8896E-02  0.3790E+03
   -0.594991    9.31388  0.0000E+00  0.3351E-04  0.1525E-05  0.3153E-03  0.7686E-02  0.1107E+03
   -0.637492    9.31647  0.0000E+00  0.3039E-04  0.9508E-06  0.3390E-03  0.6636E-02  0.2089E+02
   -0.679993    9.31876  0.0000E+00  0.2765E-04  0.6421E-06  0.3607E-03  0.5773E-02  0.1145E+02
   -0.722494    9.32085  0.0000E+00  0.2522E-04  0.4646E-06  0.3850E-03  0.5039E-02  0.6215E+02
   -0.764995    9.32273  0.0000E+00  0.2304E-04  0.3516E-06  0.4124E-03  0.4432E-02  0.1560E+02
   -0.807496    9.32444  0.0000E+00  0.2110E-04  0.2841E-06  0.4370E-03  0.3935E-02  0.3269E+02
   -0.849998    9.32595  0.0000E+00  0.1939E-04  0.2329E-06  0.4643E-03  0.3511E-02  0.1460E+03
   -0.892499    9.32752  0.0000E+00  0.1787E-04  0.1887E-06  0.5024E-03  0.3141E-02  0.4216E+02
   -0.935000    9.32874  0.0000E+00  0.1654E-04  0.1561E-06  0.5331E-03  0.2823E-02  0.7991E+03
   -0.977501    9.33008  0.0000E+00  0.1535E-04  0.1315E-06  0.5674E-03  0.2532E-02  0.7185E+02
   -1.020003    9.33118  0.0000E+00  0.1431E-04  0.1122E-06  0.5971E-03  0.2275E-02  0.2509E+03
   -1.062504    9.33232  0.0000E+00  0.1339E-04  0.9670E-07  0.6283E-03  0.2037E-02  0.7950E+02
   -1.105005    9.33335  0.0000E+00  0.1257E-04  0.8410E-07  0.6473E-03  0.1819E-02  0.1450E+03
   -1.147506    9.33437  0.0000E+00  0.1184E-04  0.7406E-07  0.6543E-03  0.1609E-02  0.6467E+02
   -1.190006    9.33536  0.0000E+00  0.1121E-04  0.6623E-07  0.6551E-03  0.1403E-02  0.6483E+02
   -1.232507    9.33635  0.0000E+00  0.1063E-04  0.5998E-07  0.6548E-03  0.1206E-02  0.7128E+02
   -1.275007    9.33734  0.0000E+00  0.1008E-04  0.5503E-07  0.6481E-03  0.1031E-02  0.1495E+03
   -1.317507    9.33833  0.0000E+00  0.9566E-05  0.5136E-07  0.6330E-03  0.8768E-03  0.9970E+03
   -1.360007    9.33934  0.0000E+00  0.9065E-05  0.4906E-07  0.6062E-03  0.7453E-03  0.1073E+03
   -1.402507    9.34039  0.0000E+00  0.8560E-05  0.4862E-07  0.5686E-03  0.6365E-03  0.1550E+03
   -1.445006    9.34156  0.0000E+00  0.8074E-05  0.5119E-07  0.5149E-03  0.5409E-03  0.2318E+04
   -1.487505    9.34297  0.0000E+00  0.7580E-05  0.5861E-07  0.4682E-03  0.4447E-03  0.2688E+03
   -1.530004    9.34466  0.0000E+00  0.6983E-05  0.7814E-07  0.3919E-03  0.3435E-03  0.7842E+03
   -1.572502    9.34733  0.0000E+00  0.6258E-05  0.1276E-06  0.3738E-03  0.2406E-03  0.5921E+05
   -1.615000    9.34868  0.0000E+00  0.4967E-05  0.3491E-06  0.1898E-03  0.1858E-03 -0.9254E+06
   -1.657498    9.35845  0.0000E+00  0.3301E-05  0.8042E-06  0.9136E-04  0.1237E-03 -0.2268E+08
   -1.699995    9.37056  0.0000E+00  0.0000E+00  0.0000E+00  0.0000E+00  0.2114E-03  0.0000E+00
