 1 - depth, m
 2 - temperature, C
 3 - salinity, kg/kg
 4 - turbulent kinetic energy, m**2/s**2
 5 - dissipation rate, m**2/s**3
 6 - kinematic heat conductance, m**2/s
 7 - modulus of horizontal velocity, m/s
 8 - Richardson number, n/d
   -0.000000    0.00000  0.0000E+00  0.3189E-13  0.5207E-16  0.1000E-09  0.0000E+00  0.1143E+17
   -0.042497    0.17564  0.0000E+00  0.3189E-13  0.5207E-16  0.1000E-09  0.0000E+00  0.1127E+17
   -0.084995    0.35764  0.0000E+00  0.3189E-13  0.5207E-16  0.1000E-09  0.0000E+00  0.1099E+17
   -0.127493    0.54501  0.0000E+00  0.3189E-13  0.5207E-16  0.1000E-09  0.0000E+00  0.1020E+17
   -0.169991    0.72911  0.0000E+00  0.3189E-13  0.5207E-16  0.1000E-09  0.0000E+00  0.9432E+16
   -0.212490    0.90970  0.0000E+00  0.3189E-13  0.5207E-16  0.1000E-09  0.0000E+00  0.8680E+16
   -0.254989    1.08635  0.0000E+00  0.3189E-13  0.5207E-16  0.1000E-09  0.0000E+00  0.7950E+16
   -0.297489    1.25867  0.0000E+00  0.3706E-13  0.5207E-16  0.1000E-09  0.0000E+00  0.7263E+16
   -0.339988    1.42673  0.0000E+00  0.1450E-12  0.5207E-16  0.1000E-09  0.0000E+00  0.6629E+16
   -0.382488    1.59084  0.0000E+00  0.3838E-12  0.5919E-16  0.1000E-09  0.0000E+00  0.6023E+16
   -0.424988    1.75081  0.0000E+00  0.7718E-12  0.8706E-16  0.1000E-09  0.0000E+00  0.5471E+16
   -0.467489    1.90719  0.0000E+00  0.1378E-11  0.1376E-15  0.1000E-09  0.0000E+00  0.4945E+16
   -0.509989    2.05981  0.0000E+00  0.2330E-11  0.2203E-15  0.1000E-09  0.0000E+00  0.4488E+16
   -0.552490    2.21005  0.0000E+00  0.3839E-11  0.3521E-15  0.1000E-09  0.0000E+00  0.4055E+16
   -0.594991    2.35805  0.0000E+00  0.6241E-11  0.5602E-15  0.1000E-09  0.0000E+00  0.3635E+16
   -0.637492    2.50358  0.0000E+00  0.1016E-10  0.8951E-15  0.1000E-09  0.0000E+00  0.3226E+16
   -0.679993    2.64625  0.0000E+00  0.1653E-10  0.1433E-14  0.1000E-09  0.0000E+00  0.2833E+16
   -0.722494    2.78576  0.0000E+00  0.2696E-10  0.2300E-14  0.1000E-09  0.0000E+00  0.2453E+16
   -0.764995    2.92151  0.0000E+00  0.4407E-10  0.3701E-14  0.1000E-09  0.0000E+00  0.2089E+16
   -0.807497    3.05291  0.0000E+00  0.7205E-10  0.5959E-14  0.1000E-09  0.0000E+00  0.1755E+16
   -0.849998    3.17990  0.0000E+00  0.1166E-09  0.9505E-14  0.1000E-09  0.0000E+00  0.1445E+16
   -0.892499    3.30226  0.0000E+00  0.1882E-09  0.1511E-13  0.1000E-09  0.0000E+00  0.1179E+16
   -0.935000    3.42164  0.0000E+00  0.3006E-09  0.2379E-13  0.1000E-09  0.0000E+00  0.9409E+15
   -0.977502    3.53945  0.0000E+00  0.4775E-09  0.3725E-13  0.1649E-09  0.0000E+00  0.7113E+15
   -1.020003    3.65550  0.0000E+00  0.7539E-09  0.5799E-13  0.3720E-09  0.0000E+00  0.4909E+15
   -1.062504    3.76944  0.0000E+00  0.1183E-08  0.8976E-13  0.1005E-08  0.0000E+00  0.2817E+15
   -1.105005    3.88065  0.0000E+00  0.1846E-08  0.1381E-12  0.5022E-08  0.0000E+00  0.8738E+14
   -1.147506    3.98589  0.0000E+00  0.2219E-08  0.1669E-12  0.6621E-05  0.0000E+00  0.9280E+11
   -1.190006    3.98999  0.0000E+00  0.2430E-08  0.1861E-12  0.1026E-04  0.0000E+00 -0.9556E+11
   -1.232507    3.99142  0.0000E+00  0.2609E-08  0.2053E-12  0.1196E-04  0.0000E+00 -0.1073E+12
   -1.275007    3.99264  0.0000E+00  0.2778E-08  0.2266E-12  0.1303E-04  0.0000E+00 -0.1186E+12
   -1.317508    3.99375  0.0000E+00  0.2937E-08  0.2506E-12  0.1366E-04  0.0000E+00 -0.1320E+12
   -1.360007    3.99481  0.0000E+00  0.3088E-08  0.2790E-12  0.1381E-04  0.0000E+00 -0.1491E+12
   -1.402507    3.99587  0.0000E+00  0.3234E-08  0.3142E-12  0.1345E-04  0.0000E+00 -0.1726E+12
   -1.445006    3.99696  0.0000E+00  0.3355E-08  0.3548E-12  0.1274E-04  0.0000E+00 -0.2040E+12
   -1.487505    3.99812  0.0000E+00  0.3444E-08  0.4037E-12  0.1166E-04  0.0000E+00 -0.2494E+12
   -1.530004    3.99940  0.0000E+00  0.3500E-08  0.4777E-12  0.9929E-05  0.0000E+00 -0.3346E+12
   -1.572503    4.00094  0.0000E+00  0.3504E-08  0.6432E-12  0.7001E-05  0.0000E+00 -0.5909E+12
   -1.615001    4.00332  0.0000E+00  0.3297E-08  0.1310E-11  0.2401E-05  0.0000E+00 -0.2411E+13
   -1.657498    4.01074  0.0000E+00  0.2604E-08  0.3740E-11  0.4303E-06  0.0000E+00 -0.2663E+14
   -1.699996    4.04954  0.0000E+00  0.0000E+00  0.0000E+00  0.0000E+00  0.0000E+00  0.0000E+00
