 1 - depth, m
 2 - temperature, C
 3 - salinity, kg/kg
 4 - turbulent kinetic energy, m**2/s**2
 5 - dissipation rate, m**2/s**3
 6 - kinematic heat conductance, m**2/s
 7 - modulus of horizontal velocity, m/s
 8 - Richardson number, n/d
   -0.000000    0.00000  0.0000E+00  0.3189E-13  0.5207E-16  0.1000E-09  0.0000E+00  0.2084E+17
   -0.042497    0.32683  0.0000E+00  0.3190E-13  0.5207E-16  0.1000E-09  0.0000E+00  0.1714E+17
   -0.084994    0.62109  0.0000E+00  0.5617E-13  0.5207E-16  0.1000E-09  0.0000E+00  0.1410E+17
   -0.127492    0.88519  0.0000E+00  0.1830E-12  0.5841E-16  0.1000E-09  0.0000E+00  0.1146E+17
   -0.169990    1.11873  0.0000E+00  0.4659E-12  0.9243E-16  0.1000E-09  0.0000E+00  0.9302E+16
   -0.212488    1.32413  0.0000E+00  0.1003E-11  0.1727E-15  0.1000E-09  0.0000E+00  0.7482E+16
   -0.254987    1.50224  0.0000E+00  0.2020E-11  0.3298E-15  0.1000E-09  0.0000E+00  0.5961E+16
   -0.297485    1.65430  0.0000E+00  0.3960E-11  0.6275E-15  0.1000E-09  0.0000E+00  0.4841E+16
   -0.339985    1.78583  0.0000E+00  0.7588E-11  0.1176E-14  0.1000E-09  0.0000E+00  0.4114E+16
   -0.382484    1.90438  0.0000E+00  0.1438E-10  0.2184E-14  0.1000E-09  0.0000E+00  0.3543E+16
   -0.424984    2.01240  0.0000E+00  0.2697E-10  0.4015E-14  0.1000E-09  0.0000E+00  0.3260E+16
   -0.467484    2.11748  0.0000E+00  0.5011E-10  0.7321E-14  0.1000E-09  0.0000E+00  0.3042E+16
   -0.509984    2.22136  0.0000E+00  0.9260E-10  0.1327E-13  0.1000E-09  0.0000E+00  0.3046E+16
   -0.552484    2.33209  0.0000E+00  0.1704E-09  0.2397E-13  0.1000E-09  0.0000E+00  0.3077E+16
   -0.594985    2.45226  0.0000E+00  0.3121E-09  0.4311E-13  0.1000E-09  0.0000E+00  0.3068E+16
   -0.637485    2.58255  0.0000E+00  0.5750E-09  0.7795E-13  0.1050E-09  0.0000E+00  0.2999E+16
   -0.679986    2.72320  0.0000E+00  0.1060E-08  0.1411E-12  0.1558E-09  0.0000E+00  0.2900E+16
   -0.722486    2.87646  0.0000E+00  0.1957E-08  0.2560E-12  0.2961E-09  0.0000E+00  0.2744E+16
   -0.764987    3.04476  0.0000E+00  0.3619E-08  0.4650E-12  0.5894E-09  0.0000E+00  0.2513E+16
   -0.807488    3.23192  0.0000E+00  0.6678E-08  0.8432E-12  0.1259E-08  0.0000E+00  0.2152E+16
   -0.849989    3.44252  0.0000E+00  0.1216E-07  0.1510E-11  0.3192E-08  0.0000E+00  0.1574E+16
   -0.892490    3.67972  0.0000E+00  0.2184E-07  0.2670E-11  0.1787E-07  0.0000E+00  0.7086E+15
   -0.934991    3.92603  0.0000E+00  0.2795E-07  0.3425E-11  0.4397E-04  0.0000E+00  0.8749E+14
   -0.977491    4.01763  0.0000E+00  0.2858E-07  0.3513E-11  0.8409E-04  0.0000E+00 -0.2534E+12
   -1.019992    4.01815  0.0000E+00  0.2900E-07  0.3580E-11  0.8324E-04  0.0000E+00 -0.2667E+12
   -1.062493    4.01868  0.0000E+00  0.2939E-07  0.3656E-11  0.8352E-04  0.0000E+00 -0.2769E+12
   -1.104993    4.01923  0.0000E+00  0.2977E-07  0.3739E-11  0.8369E-04  0.0000E+00 -0.2863E+12
   -1.147494    4.01978  0.0000E+00  0.3011E-07  0.3828E-11  0.8363E-04  0.0000E+00 -0.2962E+12
   -1.189994    4.02034  0.0000E+00  0.3042E-07  0.3925E-11  0.8320E-04  0.0000E+00 -0.3108E+12
   -1.232494    4.02093  0.0000E+00  0.3070E-07  0.4035E-11  0.8247E-04  0.0000E+00 -0.3371E+12
   -1.274994    4.02154  0.0000E+00  0.3096E-07  0.4164E-11  0.8142E-04  0.0000E+00 -0.3646E+12
   -1.317494    4.02220  0.0000E+00  0.3119E-07  0.4318E-11  0.7982E-04  0.0000E+00 -0.3801E+12
   -1.359993    4.02288  0.0000E+00  0.3139E-07  0.4509E-11  0.7764E-04  0.0000E+00 -0.4005E+12
   -1.402492    4.02357  0.0000E+00  0.3156E-07  0.4757E-11  0.7485E-04  0.0000E+00 -0.4258E+12
   -1.444991    4.02430  0.0000E+00  0.3167E-07  0.5052E-11  0.7173E-04  0.0000E+00 -0.4562E+12
   -1.487490    4.02506  0.0000E+00  0.3172E-07  0.5414E-11  0.6774E-04  0.0000E+00 -0.4987E+12
   -1.529988    4.02588  0.0000E+00  0.3169E-07  0.5963E-11  0.6201E-04  0.0000E+00 -0.5761E+12
   -1.572486    4.02680  0.0000E+00  0.3151E-07  0.7124E-11  0.5313E-04  0.0000E+00 -0.7769E+12
   -1.614984    4.02801  0.0000E+00  0.3048E-07  0.1214E-10  0.2204E-04  0.0000E+00 -0.2237E+13
   -1.657481    4.03133  0.0000E+00  0.2301E-07  0.5104E-10  0.1922E-05  0.0000E+00 -0.4508E+14
   -1.699978    4.07460  0.0000E+00  0.0000E+00  0.0000E+00  0.0000E+00  0.0000E+00  0.0000E+00
