 1 - depth, m
 2 - temperature, C
 3 - salinity, kg/kg
 4 - turbulent kinetic energy, m**2/s**2
 5 - dissipation rate, m**2/s**3
 6 - kinematic heat conductance, m**2/s
 7 - modulus of horizontal velocity, m/s
 8 - Richardson number, n/d
   -0.000000   15.92753  0.0000E+00  0.1762E-03  0.1115E-03  0.5729E-04  0.1056E+00 -0.6591E+00
   -0.042497   15.98472  0.0000E+00  0.9598E-04  0.3641E-04  0.1274E-03  0.2559E-01  0.2368E+04
   -0.084995   15.99520  0.0000E+00  0.6902E-04  0.1737E-04  0.1272E-03  0.1722E-01  0.1014E+02
   -0.127493   16.00243  0.0000E+00  0.5149E-04  0.9119E-05  0.1333E-03  0.1344E-01  0.2556E+02
   -0.169992   16.00803  0.0000E+00  0.3886E-04  0.4892E-05  0.1453E-03  0.1078E-01  0.2626E+03
   -0.212490   16.01263  0.0000E+00  0.2959E-04  0.2623E-05  0.1629E-03  0.8679E-02  0.4239E+02
   -0.254989   16.01678  0.0000E+00  0.2277E-04  0.1399E-05  0.1843E-03  0.7047E-02  0.1626E+02
   -0.297489   16.02039  0.0000E+00  0.1791E-04  0.7546E-06  0.2092E-03  0.5811E-02  0.1749E+02
   -0.339988   16.02368  0.0000E+00  0.1454E-04  0.4276E-06  0.2360E-03  0.4819E-02  0.1699E+02
   -0.382488   16.02653  0.0000E+00  0.1218E-04  0.2652E-06  0.2636E-03  0.3984E-02  0.8438E+02
   -0.424989   16.02899  0.0000E+00  0.1052E-04  0.1752E-06  0.2957E-03  0.3326E-02  0.3604E+02
   -0.467489   16.03109  0.0000E+00  0.9327E-05  0.1226E-06  0.3325E-03  0.2772E-02  0.2452E+02
   -0.509990   16.03277  0.0000E+00  0.8442E-05  0.8939E-07  0.3711E-03  0.2312E-02  0.6564E+02
   -0.552490   16.03422  0.0000E+00  0.7769E-05  0.6728E-07  0.4100E-03  0.1924E-02  0.1175E+03
   -0.594991   16.03541  0.0000E+00  0.7245E-05  0.5229E-07  0.4465E-03  0.1589E-02  0.1554E+02
   -0.637492   16.03644  0.0000E+00  0.6824E-05  0.4169E-07  0.4833E-03  0.1302E-02  0.9952E+02
   -0.679993   16.03732  0.0000E+00  0.6483E-05  0.3406E-07  0.5183E-03  0.1068E-02  0.1360E+02
   -0.722494   16.03810  0.0000E+00  0.6207E-05  0.2846E-07  0.5532E-03  0.8759E-03  0.1091E+02
   -0.764996   16.03880  0.0000E+00  0.5983E-05  0.2430E-07  0.5864E-03  0.7242E-03  0.1386E+02
   -0.807497   16.03944  0.0000E+00  0.5801E-05  0.2115E-07  0.6145E-03  0.6079E-03  0.1105E+02
   -0.849998   16.04002  0.0000E+00  0.5652E-05  0.1877E-07  0.6381E-03  0.5161E-03  0.1257E+02
   -0.892500   16.04057  0.0000E+00  0.5527E-05  0.1693E-07  0.6579E-03  0.4423E-03  0.1486E+02
   -0.935001   16.04109  0.0000E+00  0.5421E-05  0.1549E-07  0.6743E-03  0.3829E-03  0.1714E+02
   -0.977502   16.04159  0.0000E+00  0.5329E-05  0.1435E-07  0.6881E-03  0.3329E-03  0.1987E+02
   -1.020003   16.04207  0.0000E+00  0.5247E-05  0.1346E-07  0.6990E-03  0.2914E-03  0.2242E+02
   -1.062505   16.04252  0.0000E+00  0.5174E-05  0.1276E-07  0.7065E-03  0.2557E-03  0.2551E+02
   -1.105006   16.04295  0.0000E+00  0.5105E-05  0.1220E-07  0.7107E-03  0.2247E-03  0.2803E+02
   -1.147506   16.04337  0.0000E+00  0.5042E-05  0.1179E-07  0.7115E-03  0.1968E-03  0.3184E+02
   -1.190007   16.04377  0.0000E+00  0.4984E-05  0.1150E-07  0.7081E-03  0.1711E-03  0.3436E+02
   -1.232508   16.04415  0.0000E+00  0.4929E-05  0.1131E-07  0.7001E-03  0.1476E-03  0.3924E+02
   -1.275008   16.04453  0.0000E+00  0.4874E-05  0.1122E-07  0.6877E-03  0.1276E-03  0.4782E+02
   -1.317508   16.04491  0.0000E+00  0.4818E-05  0.1124E-07  0.6706E-03  0.1105E-03  0.6227E+02
   -1.360008   16.04528  0.0000E+00  0.4757E-05  0.1138E-07  0.6457E-03  0.9595E-04  0.8038E+02
   -1.402508   16.04567  0.0000E+00  0.4686E-05  0.1171E-07  0.6139E-03  0.8321E-04  0.1167E+03
   -1.445007   16.04606  0.0000E+00  0.4611E-05  0.1227E-07  0.5704E-03  0.7159E-04  0.1698E+03
   -1.487506   16.04648  0.0000E+00  0.4532E-05  0.1320E-07  0.5339E-03  0.5997E-04  0.2163E+03
   -1.530005   16.04690  0.0000E+00  0.4433E-05  0.1509E-07  0.4430E-03  0.4883E-04  0.1961E+03
   -1.572504   16.04745  0.0000E+00  0.4276E-05  0.1963E-07  0.4867E-03  0.3751E-04  0.9274E+03
   -1.615002   16.04789  0.0000E+00  0.3741E-05  0.4206E-07  0.1860E-03  0.3120E-04 -0.5750E+07
   -1.657499   16.05097  0.0000E+00  0.2378E-05  0.1284E-06  0.6037E-04  0.1954E-04 -0.9675E+05
   -1.699997   16.05441  0.0000E+00  0.0000E+00  0.0000E+00  0.0000E+00  0.2453E-04  0.0000E+00
