 1 - depth, m
 2 - temperature, C
 3 - salinity, kg/kg
 4 - turbulent kinetic energy, m**2/s**2
 5 - dissipation rate, m**2/s**3
 6 - kinematic heat conductance, m**2/s
 7 - modulus of horizontal velocity, m/s
 8 - Richardson number, n/d
   -0.000000   12.09812  0.0000E+00  0.3057E-02  0.5190E-01  0.2316E-03  0.9257E+00  0.2750E-01
   -0.042498   12.24380  0.0000E+00  0.1532E-02  0.3180E-01  0.4006E-03  0.2011E+00  0.3731E+00
   -0.084997   12.32372  0.0000E+00  0.9379E-03  0.9673E-02  0.5211E-03  0.1065E+00  0.7223E+00
   -0.127495   12.35242  0.0000E+00  0.6737E-03  0.4832E-02  0.4825E-03  0.7994E-01 -0.5411E+00
   -0.169995   12.36527  0.0000E+00  0.5131E-03  0.2615E-02  0.4200E-03  0.6298E-01  0.1752E+00
   -0.212494   12.37478  0.0000E+00  0.4023E-03  0.1629E-02  0.3935E-03  0.5051E-01 -0.3015E+00
   -0.254994   12.38214  0.0000E+00  0.3209E-03  0.9939E-03  0.3846E-03  0.4133E-01  0.2229E+00
   -0.297494   12.38854  0.0000E+00  0.2599E-03  0.6357E-03  0.3937E-03  0.3551E-01  0.2405E+03
   -0.339995   12.39241  0.0000E+00  0.2133E-03  0.4032E-03  0.3881E-03  0.3178E-01  0.3056E+01
   -0.382495   12.39605  0.0000E+00  0.1796E-03  0.2500E-03  0.3941E-03  0.2794E-01  0.9559E+02
   -0.424996   12.39903  0.0000E+00  0.1543E-03  0.1505E-03  0.3985E-03  0.2548E-01  0.1114E+02
   -0.467498   12.40201  0.0000E+00  0.1345E-03  0.8751E-04  0.4082E-03  0.2261E-01  0.9673E+02
   -0.509999   12.40497  0.0000E+00  0.1189E-03  0.4948E-04  0.4190E-03  0.1995E-01  0.4450E+02
   -0.552500   12.40769  0.0000E+00  0.1065E-03  0.2751E-04  0.4267E-03  0.1765E-01  0.1850E+03
   -0.595002   12.41049  0.0000E+00  0.9620E-04  0.1550E-04  0.4445E-03  0.1548E-01  0.1534E+03
   -0.637504   12.41304  0.0000E+00  0.8745E-04  0.8998E-05  0.4651E-03  0.1363E-01  0.7390E+01
   -0.680006   12.41509  0.0000E+00  0.7996E-04  0.5446E-05  0.4844E-03  0.1222E-01  0.1568E+02
   -0.722508   12.41715  0.0000E+00  0.7344E-04  0.3695E-05  0.5039E-03  0.1102E-01  0.7892E+01
   -0.765010   12.41873  0.0000E+00  0.6765E-04  0.2647E-05  0.5319E-03  0.1005E-01 -0.2300E+03
   -0.807512   12.42046  0.0000E+00  0.6245E-04  0.1941E-05  0.5541E-03  0.9260E-02  0.7406E+03
   -0.850014   12.42157  0.0000E+00  0.5784E-04  0.1493E-05  0.5754E-03  0.8567E-02  0.2690E+03
   -0.892516   12.42323  0.0000E+00  0.5367E-04  0.1188E-05  0.5970E-03  0.7926E-02  0.2999E+04
   -0.935018   12.42421  0.0000E+00  0.4997E-04  0.9780E-06  0.6184E-03  0.7369E-02  0.4264E+03
   -0.977520   12.42563  0.0000E+00  0.4665E-04  0.8242E-06  0.6418E-03  0.6828E-02 -0.2794E+04
   -1.020022   12.42659  0.0000E+00  0.4364E-04  0.7067E-06  0.6629E-03  0.6340E-02  0.7943E+02
   -1.062524   12.42774  0.0000E+00  0.4094E-04  0.6146E-06  0.6767E-03  0.5862E-02  0.9403E+02
   -1.105026   12.42869  0.0000E+00  0.3849E-04  0.5410E-06  0.6825E-03  0.5417E-02  0.1498E+03
   -1.147528   12.42969  0.0000E+00  0.3631E-04  0.4829E-06  0.6891E-03  0.4974E-02  0.9778E+02
   -1.190029   12.43063  0.0000E+00  0.3438E-04  0.4385E-06  0.6865E-03  0.4527E-02  0.5160E+03
   -1.232531   12.43155  0.0000E+00  0.3257E-04  0.4040E-06  0.6829E-03  0.4092E-02  0.1821E+03
   -1.275032   12.43245  0.0000E+00  0.3082E-04  0.3781E-06  0.6741E-03  0.3691E-02  0.2162E+03
   -1.317533   12.43334  0.0000E+00  0.2910E-04  0.3619E-06  0.6557E-03  0.3321E-02  0.1369E+06
   -1.360034   12.43423  0.0000E+00  0.2736E-04  0.3585E-06  0.6258E-03  0.2982E-02  0.2251E+03
   -1.402534   12.43516  0.0000E+00  0.2550E-04  0.3753E-06  0.5784E-03  0.2676E-02  0.2671E+03
   -1.445034   12.43614  0.0000E+00  0.2371E-04  0.4230E-06  0.5252E-03  0.2382E-02  0.1982E+04
   -1.487534   12.43729  0.0000E+00  0.2198E-04  0.5198E-06  0.4774E-03  0.2061E-02  0.6631E+03
   -1.530034   12.43857  0.0000E+00  0.2011E-04  0.7257E-06  0.4063E-03  0.1670E-02  0.1139E+05
   -1.572533   12.44037  0.0000E+00  0.1795E-04  0.1275E-05  0.3725E-03  0.1291E-02  0.9318E+04
   -1.615032   12.44178  0.0000E+00  0.1422E-04  0.3252E-05  0.2174E-03  0.1068E-02 -0.2986E+05
   -1.657530   12.44660  0.0000E+00  0.9622E-05  0.7388E-05  0.1373E-03  0.8119E-03 -0.9138E+07
   -1.700028   12.45706  0.0000E+00  0.0000E+00  0.0000E+00  0.0000E+00  0.1319E-02  0.0000E+00
