 1 - depth, m
 2 - temperature, C
 3 - salinity, kg/kg
 4 - turbulent kinetic energy, m**2/s**2
 5 - dissipation rate, m**2/s**3
 6 - kinematic heat conductance, m**2/s
 7 - modulus of horizontal velocity, m/s
 8 - Richardson number, n/d
   -0.000000   15.33536  0.0000E+00  0.5555E-03  0.6884E-03  0.8103E-04  0.2542E+00  0.1595E+00
   -0.042498   15.37729  0.0000E+00  0.2777E-03  0.2203E-03  0.2624E-03  0.5473E-01 -0.5088E-01
   -0.084996   15.38449  0.0000E+00  0.1996E-03  0.1189E-03  0.2108E-03  0.3567E-01 -0.1097E+01
   -0.127494   15.38949  0.0000E+00  0.1516E-03  0.6645E-04  0.1823E-03  0.2904E-01 -0.8016E-01
   -0.169993   15.39360  0.0000E+00  0.1140E-03  0.3432E-04  0.1658E-03  0.2404E-01 -0.1692E+00
   -0.212492   15.39735  0.0000E+00  0.8652E-04  0.1890E-04  0.1568E-03  0.1976E-01 -0.1619E+00
   -0.254991   15.40086  0.0000E+00  0.6502E-04  0.9977E-05  0.1535E-03  0.1633E-01 -0.1033E+01
   -0.297491   15.40448  0.0000E+00  0.5008E-04  0.5331E-05  0.1538E-03  0.1363E-01 -0.1177E+01
   -0.339991   15.40786  0.0000E+00  0.3972E-04  0.3051E-05  0.1555E-03  0.1139E-01  0.2568E+02
   -0.382491   15.41090  0.0000E+00  0.3215E-04  0.1774E-05  0.1622E-03  0.9540E-02  0.1649E+02
   -0.424991   15.41331  0.0000E+00  0.2664E-04  0.1061E-05  0.1702E-03  0.8139E-02  0.2704E+02
   -0.467492   15.41544  0.0000E+00  0.2250E-04  0.6676E-06  0.1805E-03  0.6881E-02  0.2636E+03
   -0.509993   15.41736  0.0000E+00  0.1932E-04  0.4475E-06  0.1935E-03  0.5780E-02  0.9891E+01
   -0.552494   15.41899  0.0000E+00  0.1680E-04  0.3146E-06  0.2100E-03  0.4843E-02  0.4732E+02
   -0.594995   15.42047  0.0000E+00  0.1475E-04  0.2302E-06  0.2323E-03  0.4020E-02  0.9408E+02
   -0.637497   15.42177  0.0000E+00  0.1303E-04  0.1725E-06  0.2627E-03  0.3317E-02  0.3241E+02
   -0.679998   15.42293  0.0000E+00  0.1159E-04  0.1321E-06  0.2938E-03  0.2744E-02  0.2204E+02
   -0.722499   15.42396  0.0000E+00  0.1037E-04  0.1026E-06  0.3288E-03  0.2273E-02  0.4617E+02
   -0.765001   15.42487  0.0000E+00  0.9339E-05  0.8059E-07  0.3675E-03  0.1896E-02  0.3592E+02
   -0.807503   15.42567  0.0000E+00  0.8465E-05  0.6392E-07  0.4029E-03  0.1601E-02  0.3342E+02
   -0.850004   15.42638  0.0000E+00  0.7738E-05  0.5138E-07  0.4337E-03  0.1362E-02  0.3113E+02
   -0.892506   15.42703  0.0000E+00  0.7125E-05  0.4177E-07  0.4601E-03  0.1165E-02  0.4862E+01
   -0.935007   15.42761  0.0000E+00  0.6619E-05  0.3449E-07  0.4844E-03  0.1002E-02  0.3018E+02
   -0.977509   15.42815  0.0000E+00  0.6200E-05  0.2894E-07  0.5060E-03  0.8637E-03  0.6555E+02
   -1.020011   15.42865  0.0000E+00  0.5851E-05  0.2467E-07  0.5242E-03  0.7471E-03  0.7648E+01
   -1.062512   15.42912  0.0000E+00  0.5559E-05  0.2139E-07  0.5378E-03  0.6457E-03  0.1977E+02
   -1.105013   15.42956  0.0000E+00  0.5313E-05  0.1883E-07  0.5476E-03  0.5572E-03  0.1151E+02
   -1.147514   15.42998  0.0000E+00  0.5108E-05  0.1689E-07  0.5547E-03  0.4767E-03  0.5754E+01
   -1.190015   15.43038  0.0000E+00  0.4939E-05  0.1543E-07  0.5583E-03  0.4015E-03  0.6049E+01
   -1.232516   15.43077  0.0000E+00  0.4792E-05  0.1433E-07  0.5597E-03  0.3327E-03  0.1366E+02
   -1.275017   15.43116  0.0000E+00  0.4664E-05  0.1350E-07  0.5571E-03  0.2749E-03  0.6312E+01
   -1.317517   15.43154  0.0000E+00  0.4550E-05  0.1292E-07  0.5498E-03  0.2278E-03  0.8199E+01
   -1.360018   15.43192  0.0000E+00  0.4447E-05  0.1256E-07  0.5373E-03  0.1898E-03  0.1107E+02
   -1.402518   15.43230  0.0000E+00  0.4348E-05  0.1240E-07  0.5209E-03  0.1596E-03  0.1613E+02
   -1.445017   15.43269  0.0000E+00  0.4258E-05  0.1253E-07  0.4977E-03  0.1343E-03  0.2427E+02
   -1.487517   15.43310  0.0000E+00  0.4174E-05  0.1303E-07  0.4729E-03  0.1107E-03  0.3408E+02
   -1.530016   15.43353  0.0000E+00  0.4075E-05  0.1439E-07  0.4240E-03  0.8846E-04  0.2523E+02
   -1.572515   15.43405  0.0000E+00  0.3926E-05  0.1779E-07  0.3874E-03  0.6707E-04  0.6404E+03
   -1.615013   15.43456  0.0000E+00  0.3532E-05  0.3267E-07  0.2392E-03  0.5368E-04 -0.1545E+06
   -1.657511   15.43627  0.0000E+00  0.2316E-05  0.9860E-07  0.3591E-04  0.3790E-04 -0.8941E+06
   -1.700008   15.44391  0.0000E+00  0.0000E+00  0.0000E+00  0.0000E+00  0.4451E-04  0.0000E+00
