 1 - depth, m
 2 - temperature, C
 3 - salinity, kg/kg
 4 - turbulent kinetic energy, m**2/s**2
 5 - dissipation rate, m**2/s**3
 6 - kinematic heat conductance, m**2/s
 7 - modulus of horizontal velocity, m/s
 8 - Richardson number, n/d
   -0.000000   11.10952  0.0000E+00  0.1537E-03  0.7286E-04  0.6436E-04  0.1161E+00 -0.3895E-02
   -0.042497   11.15387  0.0000E+00  0.8385E-04  0.2191E-04  0.9923E-04  0.3103E-01 -0.2364E-01
   -0.084995   11.16102  0.0000E+00  0.5865E-04  0.9632E-05  0.9018E-04  0.2103E-01 -0.2925E-01
   -0.127493   11.16686  0.0000E+00  0.4282E-04  0.4492E-05  0.8709E-04  0.1613E-01 -0.3134E-01
   -0.169992   11.17185  0.0000E+00  0.3166E-04  0.2222E-05  0.8630E-04  0.1258E-01 -0.5793E-01
   -0.212490   11.17642  0.0000E+00  0.2353E-04  0.1146E-05  0.8721E-04  0.9789E-02 -0.6296E-01
   -0.254990   11.18071  0.0000E+00  0.1771E-04  0.6241E-06  0.9025E-04  0.7628E-02  0.4207E+01
   -0.297489   11.18465  0.0000E+00  0.1366E-04  0.3627E-06  0.9568E-04  0.6023E-02  0.7191E+00
   -0.339989   11.18820  0.0000E+00  0.1088E-04  0.2229E-06  0.1056E-03  0.4817E-02  0.6094E+00
   -0.382489   11.19132  0.0000E+00  0.8936E-05  0.1428E-06  0.1278E-03  0.3871E-02  0.3811E+03
   -0.424989   11.19395  0.0000E+00  0.7593E-05  0.9525E-07  0.1695E-03  0.3148E-02  0.3958E+02
   -0.467489   11.19616  0.0000E+00  0.6640E-05  0.6606E-07  0.2026E-03  0.2563E-02  0.6019E+02
   -0.509990   11.19808  0.0000E+00  0.5946E-05  0.4750E-07  0.2404E-03  0.2076E-02  0.8070E+02
   -0.552491   11.19972  0.0000E+00  0.5437E-05  0.3546E-07  0.2838E-03  0.1676E-02  0.4786E+02
   -0.594992   11.20112  0.0000E+00  0.5062E-05  0.2749E-07  0.3303E-03  0.1344E-02  0.3552E+02
   -0.637493   11.20230  0.0000E+00  0.4779E-05  0.2201E-07  0.3716E-03  0.1074E-02  0.1472E+02
   -0.679994   11.20331  0.0000E+00  0.4567E-05  0.1818E-07  0.4072E-03  0.8595E-03  0.9162E+01
   -0.722495   11.20421  0.0000E+00  0.4408E-05  0.1545E-07  0.4404E-03  0.6902E-03  0.1071E+03
   -0.764996   11.20501  0.0000E+00  0.4294E-05  0.1348E-07  0.4717E-03  0.5611E-03  0.1225E+03
   -0.807498   11.20572  0.0000E+00  0.4215E-05  0.1206E-07  0.4997E-03  0.4662E-03  0.9190E+01
   -0.849999   11.20638  0.0000E+00  0.4164E-05  0.1105E-07  0.5248E-03  0.3941E-03  0.2702E+01
   -0.892500   11.20699  0.0000E+00  0.4133E-05  0.1030E-07  0.5471E-03  0.3383E-03  0.1160E+01
   -0.935002   11.20758  0.0000E+00  0.4116E-05  0.9736E-08  0.5659E-03  0.2945E-03  0.1286E+01
   -0.977503   11.20817  0.0000E+00  0.4109E-05  0.9314E-08  0.5827E-03  0.2581E-03  0.1435E+01
   -1.020004   11.20874  0.0000E+00  0.4109E-05  0.9001E-08  0.5972E-03  0.2278E-03  0.1650E+01
   -1.062505   11.20931  0.0000E+00  0.4114E-05  0.8775E-08  0.6091E-03  0.2015E-03  0.1876E+01
   -1.105006   11.20989  0.0000E+00  0.4121E-05  0.8621E-08  0.6181E-03  0.1787E-03  0.2155E+01
   -1.147507   11.21048  0.0000E+00  0.4129E-05  0.8532E-08  0.6237E-03  0.1578E-03  0.2491E+01
   -1.190008   11.21109  0.0000E+00  0.4136E-05  0.8499E-08  0.6255E-03  0.1385E-03  0.2820E+01
   -1.232509   11.21172  0.0000E+00  0.4140E-05  0.8518E-08  0.6237E-03  0.1205E-03  0.3270E+01
   -1.275009   11.21236  0.0000E+00  0.4142E-05  0.8591E-08  0.6177E-03  0.1046E-03  0.4190E+01
   -1.317509   11.21302  0.0000E+00  0.4139E-05  0.8731E-08  0.6063E-03  0.9052E-04  0.5563E+01
   -1.360009   11.21370  0.0000E+00  0.4131E-05  0.8958E-08  0.5883E-03  0.7802E-04  0.7531E+01
   -1.402509   11.21442  0.0000E+00  0.4116E-05  0.9315E-08  0.5621E-03  0.6709E-04  0.1119E+02
   -1.445008   11.21518  0.0000E+00  0.4094E-05  0.9808E-08  0.5284E-03  0.5715E-04  0.1705E+02
   -1.487508   11.21601  0.0000E+00  0.4064E-05  0.1050E-07  0.4928E-03  0.4754E-04  0.2216E+02
   -1.530006   11.21694  0.0000E+00  0.4015E-05  0.1168E-07  0.4180E-03  0.3833E-04  0.2897E+02
   -1.572505   11.21805  0.0000E+00  0.3919E-05  0.1442E-07  0.4485E-03  0.2965E-04  0.4127E+02
   -1.615003   11.21909  0.0000E+00  0.3534E-05  0.2869E-07  0.1746E-03  0.2464E-04 -0.2223E+08
   -1.657501   11.22522  0.0000E+00  0.2277E-05  0.9287E-07  0.4993E-04  0.1546E-04 -0.2113E+05
   -1.699998   11.23526  0.0000E+00  0.0000E+00  0.0000E+00  0.0000E+00  0.1794E-04  0.0000E+00
