 1 - depth, m
 2 - temperature, C
 3 - salinity, kg/kg
 4 - turbulent kinetic energy, m**2/s**2
 5 - dissipation rate, m**2/s**3
 6 - kinematic heat conductance, m**2/s
 7 - modulus of horizontal velocity, m/s
 8 - Richardson number, n/d
   -0.000000    0.00000  0.0000E+00  0.2821E-09  0.3020E-12  0.1000E-09  0.0000E+00  0.3174E+17
   -0.042497    0.51099  0.0000E+00  0.1028E-08  0.2467E-12  0.1000E-09  0.0000E+00  0.2647E+17
   -0.084995    1.00794  0.0000E+00  0.2432E-08  0.3297E-12  0.1000E-09  0.0000E+00  0.2169E+17
   -0.127493    1.49202  0.0000E+00  0.4756E-08  0.5264E-12  0.1205E-09  0.0000E+00  0.1705E+17
   -0.169991    1.95590  0.0000E+00  0.8578E-08  0.8788E-12  0.2201E-09  0.0000E+00  0.1292E+17
   -0.212490    2.39861  0.0000E+00  0.1493E-07  0.1478E-11  0.4977E-09  0.0000E+00  0.9280E+16
   -0.254989    2.81955  0.0000E+00  0.2559E-07  0.2485E-11  0.1251E-08  0.0000E+00  0.6157E+16
   -0.297488    3.22125  0.0000E+00  0.4349E-07  0.4166E-11  0.3783E-08  0.0000E+00  0.3467E+16
   -0.339987    3.61098  0.0000E+00  0.7195E-07  0.6820E-11  0.2940E-07  0.0000E+00  0.1072E+16
   -0.382487    3.95465  0.0000E+00  0.8037E-07  0.7517E-11  0.1918E-03  0.0000E+00  0.8368E+14
   -0.424987    4.03886  0.0000E+00  0.8076E-07  0.7559E-11  0.2785E-03  0.0000E+00 -0.1773E+12
   -0.467487    4.03907  0.0000E+00  0.8104E-07  0.7594E-11  0.2774E-03  0.0000E+00 -0.1759E+12
   -0.509988    4.03929  0.0000E+00  0.8130E-07  0.7633E-11  0.2778E-03  0.0000E+00 -0.1742E+12
   -0.552488    4.03950  0.0000E+00  0.8154E-07  0.7674E-11  0.2780E-03  0.0000E+00 -0.1742E+12
   -0.594989    4.03971  0.0000E+00  0.8177E-07  0.7720E-11  0.2779E-03  0.0000E+00 -0.1750E+12
   -0.637490    4.03992  0.0000E+00  0.8199E-07  0.7770E-11  0.2776E-03  0.0000E+00 -0.1756E+12
   -0.679991    4.04013  0.0000E+00  0.8220E-07  0.7827E-11  0.2770E-03  0.0000E+00 -0.1770E+12
   -0.722492    4.04034  0.0000E+00  0.8241E-07  0.7892E-11  0.2762E-03  0.0000E+00 -0.1785E+12
   -0.764993    4.04056  0.0000E+00  0.8261E-07  0.7966E-11  0.2750E-03  0.0000E+00 -0.1809E+12
   -0.807494    4.04077  0.0000E+00  0.8281E-07  0.8051E-11  0.2734E-03  0.0000E+00 -0.1835E+12
   -0.849995    4.04099  0.0000E+00  0.8300E-07  0.8146E-11  0.2715E-03  0.0000E+00 -0.1871E+12
   -0.892497    4.04121  0.0000E+00  0.8317E-07  0.8253E-11  0.2693E-03  0.0000E+00 -0.1900E+12
   -0.934998    4.04143  0.0000E+00  0.8334E-07  0.8371E-11  0.2667E-03  0.0000E+00 -0.1932E+12
   -0.977499    4.04165  0.0000E+00  0.8349E-07  0.8502E-11  0.2638E-03  0.0000E+00 -0.1966E+12
   -1.020000    4.04188  0.0000E+00  0.8363E-07  0.8647E-11  0.2604E-03  0.0000E+00 -0.2010E+12
   -1.062501    4.04211  0.0000E+00  0.8375E-07  0.8806E-11  0.2566E-03  0.0000E+00 -0.2058E+12
   -1.105002    4.04235  0.0000E+00  0.8386E-07  0.8981E-11  0.2525E-03  0.0000E+00 -0.2115E+12
   -1.147503    4.04260  0.0000E+00  0.8394E-07  0.9171E-11  0.2481E-03  0.0000E+00 -0.2175E+12
   -1.190003    4.04284  0.0000E+00  0.8400E-07  0.9375E-11  0.2433E-03  0.0000E+00 -0.2250E+12
   -1.232504    4.04310  0.0000E+00  0.8404E-07  0.9611E-11  0.2379E-03  0.0000E+00 -0.2336E+12
   -1.275004    4.04337  0.0000E+00  0.8405E-07  0.9893E-11  0.2316E-03  0.0000E+00 -0.2437E+12
   -1.317504    4.04364  0.0000E+00  0.8404E-07  0.1024E-10  0.2244E-03  0.0000E+00 -0.2532E+12
   -1.360004    4.04393  0.0000E+00  0.8400E-07  0.1067E-10  0.2156E-03  0.0000E+00 -0.2660E+12
   -1.402503    4.04423  0.0000E+00  0.8392E-07  0.1125E-10  0.2052E-03  0.0000E+00 -0.2817E+12
   -1.445002    4.04454  0.0000E+00  0.8380E-07  0.1195E-10  0.1941E-03  0.0000E+00 -0.3018E+12
   -1.487501    4.04488  0.0000E+00  0.8364E-07  0.1281E-10  0.1818E-03  0.0000E+00 -0.3270E+12
   -1.530000    4.04524  0.0000E+00  0.8338E-07  0.1412E-10  0.1653E-03  0.0000E+00 -0.3672E+12
   -1.572498    4.04564  0.0000E+00  0.8286E-07  0.1688E-10  0.1446E-03  0.0000E+00 -0.4421E+12
   -1.614996    4.04612  0.0000E+00  0.8069E-07  0.2898E-10  0.6188E-04  0.0000E+00 -0.1091E+13
   -1.657494    4.04730  0.0000E+00  0.5732E-07  0.1808E-09  0.2556E-05  0.0000E+00 -0.3429E+14
   -1.699991    4.07645  0.0000E+00  0.0000E+00  0.0000E+00  0.0000E+00  0.0000E+00  0.0000E+00
