 1 - depth, m
 2 - temperature, C
 3 - salinity, kg/kg
 4 - turbulent kinetic energy, m**2/s**2
 5 - dissipation rate, m**2/s**3
 6 - kinematic heat conductance, m**2/s
 7 - modulus of horizontal velocity, m/s
 8 - Richardson number, n/d
   -0.000000   19.54036  0.0000E+00  0.6347E-04  0.2113E-04  0.4409E-04  0.5130E-01 -0.1110E+00
   -0.042497   19.59460  0.0000E+00  0.3659E-04  0.6486E-05  0.6406E-04  0.1624E-01 -0.9438E-01
   -0.084995   19.60767  0.0000E+00  0.2677E-04  0.3090E-05  0.7262E-04  0.1074E-01 -0.1053E+00
   -0.127493   19.61662  0.0000E+00  0.2052E-04  0.1629E-05  0.8631E-04  0.7829E-02  0.2949E+00
   -0.169991   19.62336  0.0000E+00  0.1625E-04  0.9078E-06  0.1079E-03  0.5884E-02  0.3996E+01
   -0.212490   19.62849  0.0000E+00  0.1327E-04  0.5149E-06  0.1757E-03  0.4503E-02  0.3302E+03
   -0.254989   19.63201  0.0000E+00  0.1123E-04  0.3016E-06  0.2697E-03  0.3575E-02  0.1520E+03
   -0.297488   19.63453  0.0000E+00  0.9851E-05  0.1879E-06  0.3070E-03  0.2972E-02  0.2635E+02
   -0.339988   19.63658  0.0000E+00  0.8920E-05  0.1236E-06  0.3537E-03  0.2498E-02  0.5327E+01
   -0.382488   19.63827  0.0000E+00  0.8318E-05  0.8766E-07  0.4030E-03  0.2117E-02  0.4291E+01
   -0.424988   19.63962  0.0000E+00  0.7941E-05  0.6592E-07  0.4541E-03  0.1815E-02  0.1223E+02
   -0.467488   19.64077  0.0000E+00  0.7705E-05  0.5176E-07  0.5092E-03  0.1554E-02  0.3428E+01
   -0.509989   19.64174  0.0000E+00  0.7568E-05  0.4239E-07  0.5656E-03  0.1325E-02  0.2138E+02
   -0.552489   19.64259  0.0000E+00  0.7493E-05  0.3590E-07  0.6211E-03  0.1122E-02  0.1952E+01
   -0.594990   19.64334  0.0000E+00  0.7452E-05  0.3126E-07  0.6752E-03  0.9414E-03  0.1779E+01
   -0.637491   19.64402  0.0000E+00  0.7429E-05  0.2778E-07  0.7310E-03  0.7840E-03  0.1593E+01
   -0.679992   19.64464  0.0000E+00  0.7415E-05  0.2514E-07  0.7842E-03  0.6537E-03  0.1497E+01
   -0.722493   19.64521  0.0000E+00  0.7405E-05  0.2310E-07  0.8334E-03  0.5474E-03  0.1387E+01
   -0.764994   19.64573  0.0000E+00  0.7396E-05  0.2152E-07  0.8772E-03  0.4637E-03  0.1225E+01
   -0.807496   19.64621  0.0000E+00  0.7388E-05  0.2030E-07  0.9113E-03  0.3996E-03  0.1154E+01
   -0.849997   19.64667  0.0000E+00  0.7380E-05  0.1938E-07  0.9371E-03  0.3491E-03  0.1103E+01
   -0.892498   19.64710  0.0000E+00  0.7370E-05  0.1869E-07  0.9553E-03  0.3087E-03  0.1055E+01
   -0.934999   19.64752  0.0000E+00  0.7359E-05  0.1819E-07  0.9666E-03  0.2760E-03  0.1064E+01
   -0.977500   19.64794  0.0000E+00  0.7347E-05  0.1784E-07  0.9725E-03  0.2486E-03  0.1112E+01
   -1.020002   19.64835  0.0000E+00  0.7334E-05  0.1762E-07  0.9740E-03  0.2252E-03  0.1233E+01
   -1.062503   19.64876  0.0000E+00  0.7319E-05  0.1752E-07  0.9704E-03  0.2045E-03  0.1370E+01
   -1.105004   19.64918  0.0000E+00  0.7301E-05  0.1752E-07  0.9618E-03  0.1859E-03  0.1562E+01
   -1.147504   19.64961  0.0000E+00  0.7279E-05  0.1763E-07  0.9480E-03  0.1686E-03  0.1786E+01
   -1.190005   19.65005  0.0000E+00  0.7253E-05  0.1785E-07  0.9291E-03  0.1521E-03  0.2018E+01
   -1.232506   19.65051  0.0000E+00  0.7220E-05  0.1821E-07  0.9046E-03  0.1366E-03  0.2321E+01
   -1.275006   19.65099  0.0000E+00  0.7176E-05  0.1875E-07  0.8714E-03  0.1223E-03  0.2964E+01
   -1.317506   19.65150  0.0000E+00  0.7119E-05  0.1954E-07  0.8344E-03  0.1092E-03  0.3936E+01
   -1.360006   19.65202  0.0000E+00  0.7041E-05  0.2079E-07  0.7773E-03  0.9718E-04  0.5577E+01
   -1.402505   19.65261  0.0000E+00  0.6932E-05  0.2276E-07  0.7285E-03  0.8587E-04  0.9465E+01
   -1.445005   19.65324  0.0000E+00  0.6791E-05  0.2593E-07  0.6405E-03  0.7524E-04  0.8352E+02
   -1.487504   19.65409  0.0000E+00  0.6607E-05  0.3088E-07  0.6035E-03  0.6278E-04  0.3068E+02
   -1.530002   19.65501  0.0000E+00  0.6333E-05  0.4111E-07  0.4667E-03  0.5082E-04  0.3071E+04
   -1.572501   19.65695  0.0000E+00  0.5918E-05  0.6418E-07  0.5247E-03  0.3668E-04  0.5541E+06
   -1.614999   19.65719  0.0000E+00  0.4943E-05  0.1667E-06  0.2046E-03  0.3034E-04 -0.3321E+07
   -1.657496   19.66613  0.0000E+00  0.3296E-05  0.4495E-06  0.1056E-03  0.1873E-04 -0.1437E+06
   -1.699994   19.67057  0.0000E+00  0.0000E+00  0.0000E+00  0.0000E+00  0.2759E-04  0.0000E+00
