 1 - depth, m
 2 - temperature, C
 3 - salinity, kg/kg
 4 - turbulent kinetic energy, m**2/s**2
 5 - dissipation rate, m**2/s**3
 6 - kinematic heat conductance, m**2/s
 7 - modulus of horizontal velocity, m/s
 8 - Richardson number, n/d
   -0.000000    0.00000  0.0000E+00  0.3189E-13  0.5206E-16  0.1000E-09  0.0000E+00  0.8708E+16
   -0.042497    0.13300  0.0000E+00  0.3189E-13  0.5206E-16  0.1000E-09  0.0000E+00  0.8777E+16
   -0.084995    0.27220  0.0000E+00  0.3189E-13  0.5206E-16  0.1000E-09  0.0000E+00  0.8764E+16
   -0.127493    0.41696  0.0000E+00  0.3189E-13  0.5206E-16  0.1000E-09  0.0000E+00  0.8374E+16
   -0.169992    0.56135  0.0000E+00  0.3189E-13  0.5206E-16  0.1000E-09  0.0000E+00  0.7974E+16
   -0.212490    0.70510  0.0000E+00  0.3189E-13  0.5206E-16  0.1000E-09  0.0000E+00  0.7566E+16
   -0.254990    0.84793  0.0000E+00  0.3189E-13  0.5206E-16  0.1000E-09  0.0000E+00  0.7151E+16
   -0.297489    0.98953  0.0000E+00  0.3189E-13  0.5206E-16  0.1000E-09  0.0000E+00  0.6732E+16
   -0.339989    1.12957  0.0000E+00  0.3189E-13  0.5206E-16  0.1000E-09  0.0000E+00  0.6313E+16
   -0.382489    1.26777  0.0000E+00  0.3189E-13  0.5206E-16  0.1000E-09  0.0000E+00  0.5895E+16
   -0.424989    1.40379  0.0000E+00  0.3189E-13  0.5206E-16  0.1000E-09  0.0000E+00  0.5484E+16
   -0.467489    1.53741  0.0000E+00  0.3189E-13  0.5206E-16  0.1000E-09  0.0000E+00  0.5079E+16
   -0.509990    1.66832  0.0000E+00  0.3189E-13  0.5206E-16  0.1000E-09  0.0000E+00  0.4703E+16
   -0.552491    1.79679  0.0000E+00  0.3189E-13  0.5206E-16  0.1000E-09  0.0000E+00  0.4337E+16
   -0.594992    1.92261  0.0000E+00  0.3189E-13  0.5206E-16  0.1000E-09  0.0000E+00  0.3980E+16
   -0.637493    2.04550  0.0000E+00  0.3189E-13  0.5206E-16  0.1000E-09  0.0000E+00  0.3631E+16
   -0.679994    2.16509  0.0000E+00  0.3189E-13  0.5206E-16  0.1000E-09  0.0000E+00  0.3291E+16
   -0.722495    2.28091  0.0000E+00  0.3189E-13  0.5206E-16  0.1000E-09  0.0000E+00  0.2957E+16
   -0.764996    2.39237  0.0000E+00  0.3189E-13  0.5206E-16  0.1000E-09  0.0000E+00  0.2631E+16
   -0.807498    2.49873  0.0000E+00  0.3189E-13  0.5206E-16  0.1000E-09  0.0000E+00  0.2326E+16
   -0.849999    2.59970  0.0000E+00  0.3189E-13  0.5206E-16  0.1000E-09  0.0000E+00  0.2039E+16
   -0.892500    2.69486  0.0000E+00  0.3189E-13  0.5206E-16  0.1000E-09  0.0000E+00  0.1806E+16
   -0.935002    2.78559  0.0000E+00  0.3189E-13  0.5206E-16  0.1000E-09  0.0000E+00  0.1615E+16
   -0.977503    2.87306  0.0000E+00  0.3189E-13  0.5206E-16  0.1000E-09  0.0000E+00  0.1434E+16
   -1.020004    2.95707  0.0000E+00  0.3189E-13  0.5206E-16  0.1000E-09  0.0000E+00  0.1264E+16
   -1.062506    3.03741  0.0000E+00  0.3189E-13  0.5206E-16  0.1000E-09  0.0000E+00  0.1107E+16
   -1.105007    3.11387  0.0000E+00  0.3189E-13  0.5206E-16  0.1000E-09  0.0000E+00  0.9628E+15
   -1.147507    3.18640  0.0000E+00  0.3189E-13  0.5206E-16  0.1000E-09  0.0000E+00  0.8325E+15
   -1.190008    3.25498  0.0000E+00  0.3189E-13  0.5206E-16  0.1000E-09  0.0000E+00  0.7103E+15
   -1.232509    3.31911  0.0000E+00  0.3189E-13  0.5206E-16  0.1000E-09  0.0000E+00  0.5864E+15
   -1.275009    3.37718  0.0000E+00  0.3189E-13  0.5206E-16  0.1000E-09  0.0000E+00  0.4863E+15
   -1.317509    3.42996  0.0000E+00  0.3189E-13  0.5206E-16  0.1000E-09  0.0000E+00  0.4377E+15
   -1.360009    3.48221  0.0000E+00  0.3189E-13  0.5206E-16  0.1000E-09  0.0000E+00  0.3947E+15
   -1.402509    3.53453  0.0000E+00  0.3189E-13  0.5206E-16  0.1000E-09  0.0000E+00  0.3497E+15
   -1.445009    3.58661  0.0000E+00  0.3189E-13  0.5206E-16  0.1000E-09  0.0000E+00  0.3017E+15
   -1.487508    3.63779  0.0000E+00  0.4451E-13  0.5669E-16  0.1000E-09  0.0000E+00  0.2596E+15
   -1.530007    3.68884  0.0000E+00  0.1605E-12  0.1435E-15  0.1000E-09  0.0000E+00  0.2361E+15
   -1.572505    3.74449  0.0000E+00  0.7996E-12  0.6529E-15  0.1000E-09  0.0000E+00  0.2449E+15
   -1.615003    3.82108  0.0000E+00  0.4406E-11  0.3530E-14  0.1099E-09  0.0000E+00  0.1823E+15
   -1.657501    3.92254  0.0000E+00  0.2004E-10  0.1606E-13  0.1126E-07  0.0000E+00 -0.8356E+13
   -1.699998    4.05820  0.0000E+00  0.0000E+00  0.0000E+00  0.0000E+00  0.0000E+00  0.0000E+00
