 1 - depth, m
 2 - temperature, C
 3 - salinity, kg/kg
 4 - turbulent kinetic energy, m**2/s**2
 5 - dissipation rate, m**2/s**3
 6 - kinematic heat conductance, m**2/s
 7 - modulus of horizontal velocity, m/s
 8 - Richardson number, n/d
   -0.000000   18.88639  0.0000E+00  0.1204E-04  0.6354E-06  0.2313E-04  0.1583E-01 -0.3153E-01
   -0.042497   18.90514  0.0000E+00  0.9102E-05  0.2363E-06  0.3933E-04  0.8625E-02 -0.8251E-01
   -0.084995   18.91430  0.0000E+00  0.7226E-05  0.1181E-06  0.5515E-04  0.5480E-02 -0.1563E+00
   -0.127493   18.91982  0.0000E+00  0.6010E-05  0.6812E-07  0.8096E-04  0.3668E-02 -0.1537E+00
   -0.169991   18.92330  0.0000E+00  0.5253E-05  0.4439E-07  0.1391E-03  0.2551E-02  0.7193E+01
   -0.212490   18.92534  0.0000E+00  0.4806E-05  0.3185E-07  0.1778E-03  0.1883E-02  0.1376E+03
   -0.254989   18.92667  0.0000E+00  0.4560E-05  0.2438E-07  0.2255E-03  0.1438E-02  0.7352E+02
   -0.297489   18.92753  0.0000E+00  0.4457E-05  0.1981E-07  0.2795E-03  0.1147E-02  0.5170E+03
   -0.339988   18.92813  0.0000E+00  0.4446E-05  0.1694E-07  0.3497E-03  0.9480E-03  0.6815E+03
   -0.382488   18.92860  0.0000E+00  0.4485E-05  0.1507E-07  0.4435E-03  0.8049E-03  0.9807E+00
   -0.424988   18.92899  0.0000E+00  0.4554E-05  0.1376E-07  0.4854E-03  0.7003E-03  0.1006E+01
   -0.467489   18.92937  0.0000E+00  0.4645E-05  0.1278E-07  0.5356E-03  0.6075E-03  0.1145E+01
   -0.509989   18.92975  0.0000E+00  0.4749E-05  0.1204E-07  0.5878E-03  0.5242E-03  0.1267E+01
   -0.552490   18.93011  0.0000E+00  0.4858E-05  0.1149E-07  0.6398E-03  0.4496E-03  0.1365E+01
   -0.594991   18.93048  0.0000E+00  0.4965E-05  0.1108E-07  0.6911E-03  0.3832E-03  0.1386E+01
   -0.637492   18.93083  0.0000E+00  0.5065E-05  0.1077E-07  0.7409E-03  0.3259E-03  0.1321E+01
   -0.679993   18.93116  0.0000E+00  0.5157E-05  0.1056E-07  0.7835E-03  0.2789E-03  0.1230E+01
   -0.722494   18.93148  0.0000E+00  0.5239E-05  0.1043E-07  0.8185E-03  0.2414E-03  0.1115E+01
   -0.764995   18.93176  0.0000E+00  0.5315E-05  0.1037E-07  0.8467E-03  0.2122E-03  0.1047E+01
   -0.807497   18.93203  0.0000E+00  0.5390E-05  0.1037E-07  0.8683E-03  0.1897E-03  0.1057E+01
   -0.849998   18.93228  0.0000E+00  0.5465E-05  0.1042E-07  0.8848E-03  0.1716E-03  0.1164E+01
   -0.892499   18.93254  0.0000E+00  0.5543E-05  0.1053E-07  0.8985E-03  0.1565E-03  0.1354E+01
   -0.935000   18.93280  0.0000E+00  0.5624E-05  0.1069E-07  0.9087E-03  0.1434E-03  0.1650E+01
   -0.977502   18.93307  0.0000E+00  0.5708E-05  0.1090E-07  0.9161E-03  0.1318E-03  0.2036E+01
   -1.020003   18.93335  0.0000E+00  0.5794E-05  0.1116E-07  0.9197E-03  0.1212E-03  0.2552E+01
   -1.062504   18.93367  0.0000E+00  0.5880E-05  0.1147E-07  0.9194E-03  0.1114E-03  0.3160E+01
   -1.105005   18.93401  0.0000E+00  0.5964E-05  0.1183E-07  0.9146E-03  0.1021E-03  0.3945E+01
   -1.147506   18.93439  0.0000E+00  0.6041E-05  0.1223E-07  0.9052E-03  0.9329E-04  0.4892E+01
   -1.190007   18.93482  0.0000E+00  0.6109E-05  0.1268E-07  0.8914E-03  0.8462E-04  0.5855E+01
   -1.232507   18.93529  0.0000E+00  0.6168E-05  0.1320E-07  0.8728E-03  0.7623E-04  0.7027E+01
   -1.275007   18.93580  0.0000E+00  0.6216E-05  0.1384E-07  0.8468E-03  0.6837E-04  0.9160E+01
   -1.317508   18.93635  0.0000E+00  0.6254E-05  0.1463E-07  0.8142E-03  0.6104E-04  0.1224E+02
   -1.360007   18.93694  0.0000E+00  0.6278E-05  0.1567E-07  0.7685E-03  0.5422E-04  0.1691E+02
   -1.402507   18.93758  0.0000E+00  0.6287E-05  0.1714E-07  0.7196E-03  0.4793E-04  0.2586E+02
   -1.445006   18.93830  0.0000E+00  0.6273E-05  0.1912E-07  0.6469E-03  0.4197E-04  0.5677E+02
   -1.487506   18.93919  0.0000E+00  0.6228E-05  0.2188E-07  0.6038E-03  0.3564E-04  0.4951E+02
   -1.530004   18.94021  0.0000E+00  0.6125E-05  0.2686E-07  0.4713E-03  0.2947E-04 -0.4721E+03
   -1.572503   18.94182  0.0000E+00  0.5912E-05  0.3789E-07  0.5531E-03  0.2285E-04  0.1396E+06
   -1.615001   18.94274  0.0000E+00  0.5181E-05  0.8958E-07  0.1965E-03  0.1920E-04 -0.1550E+07
   -1.657498   18.95205  0.0000E+00  0.3452E-05  0.2655E-06  0.8284E-04  0.1205E-04 -0.1081E+06
   -1.699996   18.96099  0.0000E+00  0.0000E+00  0.0000E+00  0.0000E+00  0.1504E-04  0.0000E+00
