 1 - depth, m
 2 - temperature, C
 3 - salinity, kg/kg
 4 - turbulent kinetic energy, m**2/s**2
 5 - dissipation rate, m**2/s**3
 6 - kinematic heat conductance, m**2/s
 7 - modulus of horizontal velocity, m/s
 8 - Richardson number, n/d
   -0.000000    0.00000  0.0000E+00  0.4595E-12  0.9215E-16  0.1000E-09  0.0000E+00  0.1646E+17
   -0.042497    0.25564  0.0000E+00  0.6851E-12  0.8326E-16  0.1000E-09  0.0000E+00  0.1553E+17
   -0.084995    0.51528  0.0000E+00  0.1125E-11  0.9707E-16  0.1000E-09  0.0000E+00  0.1448E+17
   -0.127492    0.77733  0.0000E+00  0.1823E-11  0.1306E-15  0.1000E-09  0.0000E+00  0.1300E+17
   -0.169991    1.03359  0.0000E+00  0.2875E-11  0.1871E-15  0.1000E-09  0.0000E+00  0.1158E+17
   -0.212489    1.28325  0.0000E+00  0.4441E-11  0.2744E-15  0.1000E-09  0.0000E+00  0.1022E+17
   -0.254988    1.52571  0.0000E+00  0.6773E-11  0.4054E-15  0.1000E-09  0.0000E+00  0.8940E+16
   -0.297487    1.76024  0.0000E+00  0.1025E-10  0.6000E-15  0.1000E-09  0.0000E+00  0.7723E+16
   -0.339987    1.98576  0.0000E+00  0.1531E-10  0.8810E-15  0.1000E-09  0.0000E+00  0.6582E+16
   -0.382486    2.20109  0.0000E+00  0.2270E-10  0.1286E-14  0.1000E-09  0.0000E+00  0.5538E+16
   -0.424986    2.40559  0.0000E+00  0.3339E-10  0.1865E-14  0.1000E-09  0.0000E+00  0.4596E+16
   -0.467486    2.59864  0.0000E+00  0.4877E-10  0.2687E-14  0.1000E-09  0.0000E+00  0.3759E+16
   -0.509987    2.77988  0.0000E+00  0.7092E-10  0.3855E-14  0.1000E-09  0.0000E+00  0.3053E+16
   -0.552487    2.95063  0.0000E+00  0.1028E-09  0.5514E-14  0.1000E-09  0.0000E+00  0.2437E+16
   -0.594988    3.11096  0.0000E+00  0.1486E-09  0.7865E-14  0.1000E-09  0.0000E+00  0.1903E+16
   -0.637489    3.26077  0.0000E+00  0.2159E-09  0.1127E-13  0.1000E-09  0.0000E+00  0.1445E+16
   -0.679990    3.39993  0.0000E+00  0.3144E-09  0.1618E-13  0.1000E-09  0.0000E+00  0.1057E+16
   -0.722490    3.52800  0.0000E+00  0.4591E-09  0.2332E-13  0.1120E-09  0.0000E+00  0.7340E+15
   -0.764992    3.64432  0.0000E+00  0.6727E-09  0.3370E-13  0.2273E-09  0.0000E+00  0.4741E+15
   -0.807493    3.74811  0.0000E+00  0.9864E-09  0.4876E-13  0.5666E-09  0.0000E+00  0.2772E+15
   -0.849994    3.83971  0.0000E+00  0.1435E-08  0.7001E-13  0.1715E-08  0.0000E+00  0.1332E+15
   -0.892495    3.91892  0.0000E+00  0.2072E-08  0.9985E-13  0.9835E-08  0.0000E+00  0.3550E+14
   -0.934996    3.98598  0.0000E+00  0.2312E-08  0.1116E-12  0.1268E-04  0.0000E+00  0.4401E+12
   -0.977497    3.99029  0.0000E+00  0.2434E-08  0.1184E-12  0.1612E-04  0.0000E+00 -0.3698E+11
   -1.019998    3.99091  0.0000E+00  0.2538E-08  0.1249E-12  0.1759E-04  0.0000E+00 -0.3935E+11
   -1.062499    3.99147  0.0000E+00  0.2635E-08  0.1318E-12  0.1872E-04  0.0000E+00 -0.4151E+11
   -1.105000    3.99198  0.0000E+00  0.2725E-08  0.1390E-12  0.1950E-04  0.0000E+00 -0.4386E+11
   -1.147500    3.99247  0.0000E+00  0.2807E-08  0.1465E-12  0.1998E-04  0.0000E+00 -0.4650E+11
   -1.190001    3.99295  0.0000E+00  0.2879E-08  0.1544E-12  0.2025E-04  0.0000E+00 -0.4954E+11
   -1.232501    3.99342  0.0000E+00  0.2945E-08  0.1631E-12  0.2031E-04  0.0000E+00 -0.5333E+11
   -1.275001    3.99389  0.0000E+00  0.3006E-08  0.1732E-12  0.2008E-04  0.0000E+00 -0.5809E+11
   -1.317501    3.99438  0.0000E+00  0.3063E-08  0.1855E-12  0.1941E-04  0.0000E+00 -0.6436E+11
   -1.360001    3.99488  0.0000E+00  0.3116E-08  0.2008E-12  0.1832E-04  0.0000E+00 -0.7318E+11
   -1.402500    3.99541  0.0000E+00  0.3166E-08  0.2214E-12  0.1675E-04  0.0000E+00 -0.8600E+11
   -1.444999    3.99600  0.0000E+00  0.3204E-08  0.2468E-12  0.1498E-04  0.0000E+00 -0.1036E+12
   -1.487498    3.99666  0.0000E+00  0.3227E-08  0.2799E-12  0.1303E-04  0.0000E+00 -0.1298E+12
   -1.529997    3.99744  0.0000E+00  0.3233E-08  0.3339E-12  0.1064E-04  0.0000E+00 -0.1817E+12
   -1.572495    3.99844  0.0000E+00  0.3199E-08  0.4628E-12  0.7346E-05  0.0000E+00 -0.3535E+12
   -1.614993    4.00018  0.0000E+00  0.2956E-08  0.1024E-11  0.2270E-05  0.0000E+00 -0.1749E+13
   -1.657490    4.00668  0.0000E+00  0.2297E-08  0.3127E-11  0.3911E-06  0.0000E+00 -0.2340E+14
   -1.699987    4.04463  0.0000E+00  0.0000E+00  0.0000E+00  0.0000E+00  0.0000E+00  0.0000E+00
