 1 - depth, m
 2 - temperature, C
 3 - salinity, kg/kg
 4 - turbulent kinetic energy, m**2/s**2
 5 - dissipation rate, m**2/s**3
 6 - kinematic heat conductance, m**2/s
 7 - modulus of horizontal velocity, m/s
 8 - Richardson number, n/d
   -0.000000   10.95873  0.0000E+00  0.2974E-03  0.3813E-03  0.9450E-04  0.1926E+00  0.3646E-02
   -0.042498   11.04370  0.0000E+00  0.1548E-03  0.1235E-03  0.1512E-03  0.4657E-01 -0.1758E-01
   -0.084996   11.06241  0.0000E+00  0.1049E-03  0.5044E-04  0.1262E-03  0.2929E-01 -0.8559E-01
   -0.127495   11.07609  0.0000E+00  0.7678E-04  0.2447E-04  0.1197E-03  0.2270E-01 -0.9978E-01
   -0.169994   11.08666  0.0000E+00  0.5754E-04  0.1274E-04  0.1189E-03  0.1817E-01  0.4486E+01
   -0.212493   11.09601  0.0000E+00  0.4326E-04  0.6259E-05  0.1237E-03  0.1448E-01  0.1599E+03
   -0.254993   11.10503  0.0000E+00  0.3314E-04  0.3010E-05  0.1344E-03  0.1157E-01 -0.7125E+01
   -0.297493   11.11292  0.0000E+00  0.2605E-04  0.1480E-05  0.1451E-03  0.9434E-02  0.8186E+02
   -0.339993   11.11960  0.0000E+00  0.2111E-04  0.7627E-06  0.1584E-03  0.7814E-02  0.2590E+02
   -0.382494   11.12558  0.0000E+00  0.1763E-04  0.4452E-06  0.1796E-03  0.6474E-02  0.6738E+01
   -0.424995   11.13039  0.0000E+00  0.1515E-04  0.2861E-06  0.2089E-03  0.5446E-02  0.8502E+02
   -0.467496   11.13482  0.0000E+00  0.1335E-04  0.1994E-06  0.2499E-03  0.4560E-02  0.2069E+03
   -0.509997   11.13819  0.0000E+00  0.1197E-04  0.1463E-06  0.2948E-03  0.3821E-02  0.1167E+03
   -0.552498   11.14124  0.0000E+00  0.1091E-04  0.1114E-06  0.3425E-03  0.3192E-02  0.5570E+02
   -0.595000   11.14361  0.0000E+00  0.1005E-04  0.8737E-07  0.3895E-03  0.2651E-02  0.5188E+02
   -0.637501   11.14566  0.0000E+00  0.9345E-05  0.7000E-07  0.4368E-03  0.2188E-02  0.1232E+03
   -0.680003   11.14736  0.0000E+00  0.8755E-05  0.5716E-07  0.4770E-03  0.1809E-02  0.4184E+02
   -0.722505   11.14885  0.0000E+00  0.8258E-05  0.4746E-07  0.5176E-03  0.1495E-02  0.1316E+02
   -0.765007   11.15017  0.0000E+00  0.7837E-05  0.4000E-07  0.5546E-03  0.1242E-02  0.5875E+01
   -0.807509   11.15138  0.0000E+00  0.7479E-05  0.3415E-07  0.5869E-03  0.1045E-02  0.2434E+01
   -0.850011   11.15251  0.0000E+00  0.7181E-05  0.2964E-07  0.6161E-03  0.8859E-03  0.2026E+01
   -0.892513   11.15356  0.0000E+00  0.6929E-05  0.2608E-07  0.6415E-03  0.7569E-03  0.1985E+01
   -0.935015   11.15456  0.0000E+00  0.6715E-05  0.2330E-07  0.6625E-03  0.6518E-03  0.2133E+01
   -0.977516   11.15550  0.0000E+00  0.6531E-05  0.2110E-07  0.6809E-03  0.5633E-03  0.2246E+01
   -1.020018   11.15640  0.0000E+00  0.6371E-05  0.1937E-07  0.6958E-03  0.4895E-03  0.2281E+01
   -1.062520   11.15726  0.0000E+00  0.6232E-05  0.1801E-07  0.7067E-03  0.4261E-03  0.2378E+01
   -1.105022   11.15809  0.0000E+00  0.6107E-05  0.1695E-07  0.7131E-03  0.3714E-03  0.2523E+01
   -1.147523   11.15888  0.0000E+00  0.5996E-05  0.1616E-07  0.7155E-03  0.3223E-03  0.2697E+01
   -1.190024   11.15964  0.0000E+00  0.5897E-05  0.1559E-07  0.7130E-03  0.2772E-03  0.2868E+01
   -1.232526   11.16038  0.0000E+00  0.5805E-05  0.1522E-07  0.7052E-03  0.2362E-03  0.3115E+01
   -1.275027   11.16112  0.0000E+00  0.5719E-05  0.1501E-07  0.6922E-03  0.2018E-03  0.3788E+01
   -1.317527   11.16185  0.0000E+00  0.5636E-05  0.1497E-07  0.6743E-03  0.1734E-03  0.4831E+01
   -1.360028   11.16259  0.0000E+00  0.5552E-05  0.1512E-07  0.6497E-03  0.1498E-03  0.6366E+01
   -1.402528   11.16335  0.0000E+00  0.5457E-05  0.1551E-07  0.6191E-03  0.1300E-03  0.9199E+01
   -1.445028   11.16413  0.0000E+00  0.5359E-05  0.1625E-07  0.5754E-03  0.1121E-03  0.1361E+02
   -1.487528   11.16495  0.0000E+00  0.5256E-05  0.1750E-07  0.5400E-03  0.9435E-04  0.2247E+02
   -1.530027   11.16581  0.0000E+00  0.5125E-05  0.2013E-07  0.4482E-03  0.7692E-04 -0.1645E+03
   -1.572526   11.16697  0.0000E+00  0.4914E-05  0.2647E-07  0.4835E-03  0.5895E-04  0.1099E+03
   -1.615025   11.16786  0.0000E+00  0.4233E-05  0.5688E-07  0.1961E-03  0.4893E-04 -0.4712E+06
   -1.657523   11.17409  0.0000E+00  0.2708E-05  0.1687E-06  0.6751E-04  0.3077E-04 -0.5127E+06
   -1.700021   11.18073  0.0000E+00  0.0000E+00  0.0000E+00  0.0000E+00  0.3949E-04  0.0000E+00
