 1 - depth, m
 2 - temperature, C
 3 - salinity, kg/kg
 4 - turbulent kinetic energy, m**2/s**2
 5 - dissipation rate, m**2/s**3
 6 - kinematic heat conductance, m**2/s
 7 - modulus of horizontal velocity, m/s
 8 - Richardson number, n/d
   -0.000000   13.94091  0.0000E+00  0.1181E-04  0.7551E-06  0.1919E-04  0.1704E-01 -0.1889E-01
   -0.042497   13.95306  0.0000E+00  0.8252E-05  0.2496E-06  0.3026E-04  0.9083E-02 -0.5367E-01
   -0.084995   13.95890  0.0000E+00  0.6039E-05  0.1141E-06  0.3799E-04  0.5775E-02 -0.1113E+00
   -0.127493   13.96250  0.0000E+00  0.4560E-05  0.5991E-07  0.4655E-04  0.3825E-02 -0.2001E+00
   -0.169992   13.96502  0.0000E+00  0.3545E-05  0.3426E-07  0.6091E-04  0.2573E-02  0.1171E+03
   -0.212490   13.96676  0.0000E+00  0.2840E-05  0.2074E-07  0.7122E-04  0.1741E-02  0.3187E+02
   -0.254990   13.96783  0.0000E+00  0.2383E-05  0.1350E-07  0.9748E-04  0.1191E-02  0.6644E+02
   -0.297489   13.96808  0.0000E+00  0.2130E-05  0.9550E-08  0.1142E-03  0.8474E-03  0.1234E+02
   -0.339989   13.96764  0.0000E+00  0.2044E-05  0.7347E-08  0.1378E-03  0.6182E-03  0.3374E+02
   -0.382489   13.96690  0.0000E+00  0.2063E-05  0.6083E-08  0.1691E-03  0.4629E-03  0.1275E+03
   -0.424989   13.96635  0.0000E+00  0.2104E-05  0.5347E-08  0.2297E-03  0.3619E-03  0.3353E+03
   -0.467489   13.96652  0.0000E+00  0.2141E-05  0.4875E-08  0.3342E-03  0.3007E-03  0.1350E+04
   -0.509990   13.96675  0.0000E+00  0.2176E-05  0.4536E-08  0.3910E-03  0.2555E-03  0.4581E+01
   -0.552491   13.96698  0.0000E+00  0.2215E-05  0.4283E-08  0.4116E-03  0.2178E-03  0.5812E+01
   -0.594992   13.96723  0.0000E+00  0.2257E-05  0.4095E-08  0.4362E-03  0.1846E-03  0.7355E+01
   -0.637493   13.96749  0.0000E+00  0.2301E-05  0.3954E-08  0.4609E-03  0.1561E-03  0.8916E+01
   -0.679994   13.96773  0.0000E+00  0.2345E-05  0.3854E-08  0.4847E-03  0.1327E-03  0.1058E+02
   -0.722495   13.96796  0.0000E+00  0.2390E-05  0.3788E-08  0.5074E-03  0.1138E-03  0.1240E+02
   -0.764996   13.96817  0.0000E+00  0.2437E-05  0.3753E-08  0.5292E-03  0.9874E-04  0.1482E+02
   -0.807498   13.96835  0.0000E+00  0.2489E-05  0.3747E-08  0.5487E-03  0.8686E-04  0.1868E+02
   -0.849999   13.96852  0.0000E+00  0.2545E-05  0.3768E-08  0.5659E-03  0.7719E-04  0.2502E+02
   -0.892500   13.96869  0.0000E+00  0.2606E-05  0.3814E-08  0.5808E-03  0.6906E-04  0.3530E+02
   -0.935002   13.96887  0.0000E+00  0.2671E-05  0.3884E-08  0.5939E-03  0.6214E-04  0.5042E+02
   -0.977503   13.96906  0.0000E+00  0.2740E-05  0.3975E-08  0.6054E-03  0.5594E-04  0.7200E+02
   -1.020004   13.96927  0.0000E+00  0.2811E-05  0.4089E-08  0.6149E-03  0.5046E-04  0.1015E+03
   -1.062505   13.96950  0.0000E+00  0.2884E-05  0.4222E-08  0.6221E-03  0.4544E-04  0.1394E+03
   -1.105006   13.96976  0.0000E+00  0.2956E-05  0.4375E-08  0.6268E-03  0.4089E-04  0.1892E+03
   -1.147507   13.97006  0.0000E+00  0.3025E-05  0.4542E-08  0.6283E-03  0.3659E-04  0.2517E+03
   -1.190008   13.97040  0.0000E+00  0.3087E-05  0.4721E-08  0.6269E-03  0.3251E-04  0.3184E+03
   -1.232509   13.97078  0.0000E+00  0.3144E-05  0.4921E-08  0.6223E-03  0.2861E-04  0.4026E+03
   -1.275009   13.97120  0.0000E+00  0.3197E-05  0.5152E-08  0.6135E-03  0.2508E-04  0.5551E+03
   -1.317509   13.97164  0.0000E+00  0.3245E-05  0.5427E-08  0.5996E-03  0.2187E-04  0.7844E+03
   -1.360009   13.97211  0.0000E+00  0.3289E-05  0.5768E-08  0.5796E-03  0.1901E-04  0.1137E+04
   -1.402509   13.97262  0.0000E+00  0.3329E-05  0.6212E-08  0.5517E-03  0.1645E-04  0.1807E+04
   -1.445008   13.97319  0.0000E+00  0.3359E-05  0.6747E-08  0.5176E-03  0.1411E-04  0.2951E+04
   -1.487507   13.97384  0.0000E+00  0.3376E-05  0.7411E-08  0.4798E-03  0.1181E-04  0.4060E+04
   -1.530006   13.97461  0.0000E+00  0.3374E-05  0.8438E-08  0.4147E-03  0.9587E-05  0.5473E+04
   -1.572505   13.97556  0.0000E+00  0.3336E-05  0.1069E-07  0.3773E-03  0.7476E-05  0.1158E+05
   -1.615003   13.97674  0.0000E+00  0.3147E-05  0.2034E-07  0.1973E-03  0.6132E-05  0.1050E+06
   -1.657501   13.98035  0.0000E+00  0.2179E-05  0.7044E-07  0.3514E-04  0.4133E-05 -0.2290E+08
   -1.699998   14.00011  0.0000E+00  0.0000E+00  0.0000E+00  0.0000E+00  0.4544E-05  0.0000E+00
