 1 - depth, m
 2 - temperature, C
 3 - salinity, kg/kg
 4 - turbulent kinetic energy, m**2/s**2
 5 - dissipation rate, m**2/s**3
 6 - kinematic heat conductance, m**2/s
 7 - modulus of horizontal velocity, m/s
 8 - Richardson number, n/d
   -0.000000    0.66112  0.0000E+00  0.9732E-03  0.3470E-02  0.1253E-03  0.3890E+00  0.2922E-02
   -0.042497    0.67647  0.0000E+00  0.4982E-03  0.1535E-02  0.2926E-03  0.8380E-01  0.4502E-02
   -0.084995    0.68310  0.0000E+00  0.3465E-03  0.7059E-03  0.2817E-03  0.5174E-01 -0.3047E-01
   -0.127493    0.68811  0.0000E+00  0.2618E-03  0.4272E-03  0.2380E-03  0.4131E-01  0.1113E-01
   -0.169992    0.69280  0.0000E+00  0.2007E-03  0.2492E-03  0.2126E-03  0.3443E-01  0.1331E-01
   -0.212491    0.69758  0.0000E+00  0.1544E-03  0.1604E-03  0.1950E-03  0.2852E-01  0.4641E-01
   -0.254990    0.70301  0.0000E+00  0.1188E-03  0.9886E-04  0.1864E-03  0.2399E-01  0.2523E+01
   -0.297490    0.70939  0.0000E+00  0.9308E-04  0.6033E-04  0.1762E-03  0.2059E-01  0.1217E+02
   -0.339989    0.71682  0.0000E+00  0.7503E-04  0.3657E-04  0.1822E-03  0.1791E-01  0.6181E+01
   -0.382489    0.72548  0.0000E+00  0.6106E-04  0.2148E-04  0.1615E-03  0.1546E-01  0.6385E+02
   -0.424990    0.73598  0.0000E+00  0.5057E-04  0.1209E-04  0.1527E-03  0.1370E-01  0.5671E+03
   -0.467490    0.75150  0.0000E+00  0.4275E-04  0.6604E-05  0.1446E-03  0.1186E-01  0.1315E+03
   -0.509991    0.79387  0.0000E+00  0.3612E-04  0.3618E-05  0.1381E-03  0.1011E-01  0.2720E+04
   -0.552492    0.96101  0.0000E+00  0.3106E-04  0.2054E-05  0.1318E-03  0.8456E-02  0.2629E+05
   -0.594993    1.29835  0.0000E+00  0.2690E-04  0.1232E-05  0.1265E-03  0.6906E-02  0.2501E+06
   -0.637494    1.68037  0.0000E+00  0.2335E-04  0.7898E-06  0.1225E-03  0.5666E-02  0.2026E+07
   -0.679995    2.00327  0.0000E+00  0.2030E-04  0.5427E-06  0.1498E-03  0.4740E-02  0.1951E+08
   -0.722497    2.13947  0.0000E+00  0.1764E-04  0.3937E-06  0.1451E-03  0.3968E-02  0.7778E+07
   -0.764998    2.27352  0.0000E+00  0.1535E-04  0.2973E-06  0.1437E-03  0.3376E-02  0.1434E+08
   -0.807499    2.31934  0.0000E+00  0.1335E-04  0.2305E-06  0.1388E-03  0.2938E-02  0.7773E+08
   -0.850001    2.34530  0.0000E+00  0.1159E-04  0.1817E-06  0.1335E-03  0.2567E-02 -0.3254E+08
   -0.892502    2.37824  0.0000E+00  0.1002E-04  0.1441E-06  0.1276E-03  0.2241E-02 -0.6963E+08
   -0.935004    2.42459  0.0000E+00  0.8657E-05  0.1146E-06  0.1218E-03  0.1968E-02 -0.2412E+08
   -0.977505    2.48400  0.0000E+00  0.7464E-05  0.9119E-07  0.1164E-03  0.1720E-02  0.9037E+09
   -1.020006    2.55481  0.0000E+00  0.6420E-05  0.7256E-07  0.1110E-03  0.1509E-02  0.2380E+10
   -1.062508    2.64371  0.0000E+00  0.5520E-05  0.5768E-07  0.1060E-03  0.1305E-02  0.7907E+10
   -1.105009    2.73990  0.0000E+00  0.4756E-05  0.4603E-07  0.1010E-03  0.1137E-02  0.1042E+11
   -1.147510    2.83875  0.0000E+00  0.4113E-05  0.3705E-07  0.9680E-04  0.9728E-03  0.1162E+11
   -1.190011    2.92965  0.0000E+00  0.3561E-05  0.3003E-07  0.9295E-04  0.7833E-03  0.1128E+11
   -1.232511    3.00699  0.0000E+00  0.3064E-05  0.2427E-07  0.8954E-04  0.6021E-03  0.2079E+11
   -1.275012    3.06335  0.0000E+00  0.2615E-05  0.1950E-07  0.8528E-04  0.4620E-03  0.3168E+12
   -1.317512    3.12075  0.0000E+00  0.2218E-05  0.1557E-07  0.8178E-04  0.3491E-03  0.6346E+13
   -1.360012    3.18697  0.0000E+00  0.1869E-05  0.1235E-07  0.7836E-04  0.2621E-03  0.3034E+13
   -1.402512    3.25526  0.0000E+00  0.1557E-05  0.9672E-08  0.7531E-04  0.1993E-03  0.9184E+14
   -1.445011    3.32455  0.0000E+00  0.1295E-05  0.7569E-08  0.7154E-04  0.1497E-03  0.8278E+14
   -1.487511    3.39168  0.0000E+00  0.1085E-05  0.5998E-08  0.6815E-04  0.1029E-03  0.1951E+15
   -1.530010    3.46355  0.0000E+00  0.9179E-06  0.4904E-08  0.6308E-04  0.6345E-04  0.3563E+15
   -1.572508    3.54684  0.0000E+00  0.7880E-06  0.4322E-08  0.5521E-04  0.3801E-04  0.1602E+15
   -1.615006    3.59751  0.0000E+00  0.6008E-06  0.4355E-08  0.2674E-04  0.2564E-04  0.1550E+14
   -1.657504    3.65988  0.0000E+00  0.3140E-06  0.9869E-08  0.2680E-05  0.1650E-04 -0.4468E+14
   -1.700002    3.79752  0.0000E+00  0.0000E+00  0.0000E+00  0.0000E+00  0.1666E-04  0.0000E+00
