 1 - depth, m
 2 - temperature, C
 3 - salinity, kg/kg
 4 - turbulent kinetic energy, m**2/s**2
 5 - dissipation rate, m**2/s**3
 6 - kinematic heat conductance, m**2/s
 7 - modulus of horizontal velocity, m/s
 8 - Richardson number, n/d
   -0.000000    9.11987  0.0000E+00  0.5843E-03  0.8946E-03  0.6863E-04  0.2582E+00 -0.1384E-03
   -0.042497    9.21164  0.0000E+00  0.2930E-03  0.2337E-03  0.2382E-03  0.5435E-01  0.2329E+03
   -0.084995    9.23184  0.0000E+00  0.2106E-03  0.1269E-03  0.2263E-03  0.3433E-01 -0.9480E-01
   -0.127493    9.24503  0.0000E+00  0.1606E-03  0.7401E-04  0.1965E-03  0.2766E-01 -0.9722E-01
   -0.169992    9.25393  0.0000E+00  0.1231E-03  0.4040E-04  0.1800E-03  0.2293E-01 -0.9906E-01
   -0.212491    9.26127  0.0000E+00  0.9450E-04  0.2207E-04  0.1713E-03  0.1894E-01 -0.2319E+00
   -0.254990    9.26819  0.0000E+00  0.7280E-04  0.1258E-04  0.1701E-03  0.1583E-01  0.6843E+01
   -0.297489    9.27454  0.0000E+00  0.5652E-04  0.6942E-05  0.1726E-03  0.1350E-01  0.7459E+01
   -0.339989    9.28025  0.0000E+00  0.4506E-04  0.3843E-05  0.1790E-03  0.1161E-01  0.1048E+02
   -0.382489    9.28547  0.0000E+00  0.3665E-04  0.2156E-05  0.1899E-03  0.9843E-02  0.3625E+01
   -0.424989    9.29015  0.0000E+00  0.3066E-04  0.1278E-05  0.2020E-03  0.8413E-02  0.1768E+02
   -0.467489    9.29432  0.0000E+00  0.2619E-04  0.8188E-06  0.2192E-03  0.7114E-02  0.9006E+01
   -0.509990    9.29800  0.0000E+00  0.2277E-04  0.5714E-06  0.2356E-03  0.6016E-02  0.1371E+02
   -0.552491    9.30099  0.0000E+00  0.2005E-04  0.4177E-06  0.2563E-03  0.5095E-02  0.5903E+02
   -0.594992    9.30385  0.0000E+00  0.1783E-04  0.3162E-06  0.2806E-03  0.4288E-02  0.6264E+02
   -0.637493    9.30618  0.0000E+00  0.1594E-04  0.2450E-06  0.3066E-03  0.3600E-02  0.2314E+02
   -0.679994    9.30839  0.0000E+00  0.1433E-04  0.1931E-06  0.3358E-03  0.3034E-02  0.3474E+03
   -0.722495    9.31030  0.0000E+00  0.1295E-04  0.1541E-06  0.3709E-03  0.2568E-02  0.2164E+02
   -0.764996    9.31204  0.0000E+00  0.1176E-04  0.1239E-06  0.4065E-03  0.2192E-02  0.3159E+02
   -0.807498    9.31359  0.0000E+00  0.1071E-04  0.1000E-06  0.4374E-03  0.1894E-02  0.8236E+02
   -0.849999    9.31499  0.0000E+00  0.9812E-05  0.8140E-07  0.4685E-03  0.1646E-02  0.4489E+02
   -0.892501    9.31627  0.0000E+00  0.9034E-05  0.6665E-07  0.4939E-03  0.1438E-02  0.1562E+03
   -0.935002    9.31746  0.0000E+00  0.8364E-05  0.5503E-07  0.5150E-03  0.1261E-02  0.8980E+02
   -0.977503    9.31856  0.0000E+00  0.7787E-05  0.4585E-07  0.5338E-03  0.1107E-02  0.2649E+02
   -1.020004    9.31960  0.0000E+00  0.7290E-05  0.3857E-07  0.5509E-03  0.9717E-03  0.9472E+02
   -1.062506    9.32058  0.0000E+00  0.6863E-05  0.3285E-07  0.5657E-03  0.8509E-03  0.2041E+02
   -1.105007    9.32149  0.0000E+00  0.6495E-05  0.2832E-07  0.5756E-03  0.7428E-03  0.8134E+02
   -1.147508    9.32236  0.0000E+00  0.6184E-05  0.2482E-07  0.5821E-03  0.6425E-03  0.2402E+02
   -1.190008    9.32317  0.0000E+00  0.5921E-05  0.2217E-07  0.5849E-03  0.5468E-03  0.1294E+02
   -1.232509    9.32396  0.0000E+00  0.5690E-05  0.2011E-07  0.5873E-03  0.4574E-03  0.1221E+02
   -1.275009    9.32471  0.0000E+00  0.5483E-05  0.1853E-07  0.5845E-03  0.3806E-03  0.9554E+01
   -1.317510    9.32545  0.0000E+00  0.5298E-05  0.1736E-07  0.5774E-03  0.3160E-03  0.8044E+01
   -1.360010    9.32617  0.0000E+00  0.5129E-05  0.1657E-07  0.5635E-03  0.2627E-03  0.8471E+01
   -1.402509    9.32691  0.0000E+00  0.4967E-05  0.1614E-07  0.5437E-03  0.2200E-03  0.1322E+02
   -1.445009    9.32765  0.0000E+00  0.4824E-05  0.1622E-07  0.5119E-03  0.1844E-03  0.2092E+02
   -1.487508    9.32843  0.0000E+00  0.4692E-05  0.1696E-07  0.4808E-03  0.1511E-03  0.3076E+02
   -1.530007    9.32925  0.0000E+00  0.4541E-05  0.1914E-07  0.4158E-03  0.1196E-03  0.4527E+02
   -1.572505    9.33032  0.0000E+00  0.4323E-05  0.2464E-07  0.3981E-03  0.8882E-04  0.9141E+02
   -1.615003    9.33133  0.0000E+00  0.3757E-05  0.4948E-07  0.2069E-03  0.7042E-04 -0.1374E+07
   -1.657501    9.33564  0.0000E+00  0.2406E-05  0.1426E-06  0.4673E-04  0.4830E-04 -0.8887E+06
   -1.699998    9.34739  0.0000E+00  0.0000E+00  0.0000E+00  0.0000E+00  0.6043E-04  0.0000E+00
