 1 - depth, m
 2 - temperature, C
 3 - salinity, kg/kg
 4 - turbulent kinetic energy, m**2/s**2
 5 - dissipation rate, m**2/s**3
 6 - kinematic heat conductance, m**2/s
 7 - modulus of horizontal velocity, m/s
 8 - Richardson number, n/d
   -0.000000    7.52311  0.0000E+00  0.7584E-05  0.3541E-06  0.1787E-04  0.1196E-01 -0.2219E-01
   -0.042497    7.54933  0.0000E+00  0.5492E-05  0.1232E-06  0.2871E-04  0.6225E-02 -0.6810E-01
   -0.084995    7.56509  0.0000E+00  0.4219E-05  0.5806E-07  0.4042E-04  0.3728E-02 -0.1626E+00
   -0.127493    7.57608  0.0000E+00  0.3457E-05  0.3195E-07  0.5798E-04  0.2344E-02 -0.3295E+00
   -0.169992    7.58372  0.0000E+00  0.3010E-05  0.1979E-07  0.1078E-03  0.1526E-02  0.2065E+03
   -0.212491    7.58839  0.0000E+00  0.2762E-05  0.1382E-07  0.1676E-03  0.1046E-02  0.8035E+03
   -0.254990    7.59135  0.0000E+00  0.2637E-05  0.1074E-07  0.2156E-03  0.7849E-03  0.1802E+03
   -0.297489    7.59345  0.0000E+00  0.2578E-05  0.8942E-08  0.2476E-03  0.6326E-03  0.7422E+02
   -0.339989    7.59514  0.0000E+00  0.2557E-05  0.7809E-08  0.2783E-03  0.5307E-03  0.1251E+01
   -0.382489    7.59659  0.0000E+00  0.2555E-05  0.7000E-08  0.3054E-03  0.4553E-03  0.1146E+01
   -0.424989    7.59789  0.0000E+00  0.2564E-05  0.6385E-08  0.3331E-03  0.3939E-03  0.1189E+01
   -0.467490    7.59907  0.0000E+00  0.2579E-05  0.5908E-08  0.3608E-03  0.3412E-03  0.1206E+01
   -0.509990    7.60016  0.0000E+00  0.2597E-05  0.5533E-08  0.3881E-03  0.2953E-03  0.1225E+01
   -0.552491    7.60116  0.0000E+00  0.2618E-05  0.5233E-08  0.4145E-03  0.2553E-03  0.1258E+01
   -0.594992    7.60210  0.0000E+00  0.2639E-05  0.4994E-08  0.4392E-03  0.2203E-03  0.1300E+01
   -0.637493    7.60297  0.0000E+00  0.2660E-05  0.4797E-08  0.4626E-03  0.1902E-03  0.1389E+01
   -0.679994    7.60380  0.0000E+00  0.2681E-05  0.4633E-08  0.4851E-03  0.1647E-03  0.1581E+01
   -0.722495    7.60458  0.0000E+00  0.2701E-05  0.4495E-08  0.5065E-03  0.1433E-03  0.1849E+01
   -0.764997    7.60532  0.0000E+00  0.2722E-05  0.4376E-08  0.5271E-03  0.1255E-03  0.2233E+01
   -0.807498    7.60602  0.0000E+00  0.2743E-05  0.4272E-08  0.5471E-03  0.1107E-03  0.2775E+01
   -0.849999    7.60670  0.0000E+00  0.2762E-05  0.4184E-08  0.5658E-03  0.9823E-04  0.3397E+01
   -0.892501    7.60735  0.0000E+00  0.2781E-05  0.4109E-08  0.5831E-03  0.8753E-04  0.4076E+01
   -0.935002    7.60798  0.0000E+00  0.2799E-05  0.4048E-08  0.5988E-03  0.7828E-04  0.4948E+01
   -0.977504    7.60859  0.0000E+00  0.2815E-05  0.3999E-08  0.6124E-03  0.7012E-04  0.5780E+01
   -1.020005    7.60919  0.0000E+00  0.2829E-05  0.3961E-08  0.6240E-03  0.6291E-04  0.6832E+01
   -1.062506    7.60978  0.0000E+00  0.2842E-05  0.3936E-08  0.6332E-03  0.5640E-04  0.7781E+01
   -1.105007    7.61036  0.0000E+00  0.2853E-05  0.3922E-08  0.6399E-03  0.5048E-04  0.8882E+01
   -1.147508    7.61093  0.0000E+00  0.2861E-05  0.3919E-08  0.6439E-03  0.4498E-04  0.1006E+02
   -1.190009    7.61150  0.0000E+00  0.2868E-05  0.3929E-08  0.6450E-03  0.3974E-04  0.1122E+02
   -1.232509    7.61208  0.0000E+00  0.2872E-05  0.3952E-08  0.6430E-03  0.3482E-04  0.1274E+02
   -1.275010    7.61265  0.0000E+00  0.2874E-05  0.3991E-08  0.6377E-03  0.3036E-04  0.1600E+02
   -1.317510    7.61324  0.0000E+00  0.2873E-05  0.4052E-08  0.6283E-03  0.2637E-04  0.2061E+02
   -1.360010    7.61383  0.0000E+00  0.2870E-05  0.4141E-08  0.6138E-03  0.2280E-04  0.2694E+02
   -1.402510    7.61443  0.0000E+00  0.2864E-05  0.4273E-08  0.5932E-03  0.1968E-04  0.3801E+02
   -1.445009    7.61506  0.0000E+00  0.2854E-05  0.4446E-08  0.5680E-03  0.1683E-04  0.5442E+02
   -1.487508    7.61573  0.0000E+00  0.2842E-05  0.4677E-08  0.5367E-03  0.1411E-04  0.6551E+02
   -1.530007    7.61643  0.0000E+00  0.2823E-05  0.5053E-08  0.4946E-03  0.1151E-04  0.7599E+02
   -1.572506    7.61720  0.0000E+00  0.2785E-05  0.5884E-08  0.4062E-03  0.9201E-05  0.1385E+03
   -1.615004    7.61816  0.0000E+00  0.2674E-05  0.8662E-08  0.3119E-03  0.7429E-05  0.6711E+03
   -1.657502    7.61944  0.0000E+00  0.1855E-05  0.3534E-07  0.1562E-04  0.6109E-05 -0.1796E+06
   -1.699999    7.64612  0.0000E+00  0.0000E+00  0.0000E+00  0.0000E+00  0.6109E-05  0.0000E+00
