 1 - depth, m
 2 - temperature, C
 3 - salinity, kg/kg
 4 - turbulent kinetic energy, m**2/s**2
 5 - dissipation rate, m**2/s**3
 6 - kinematic heat conductance, m**2/s
 7 - modulus of horizontal velocity, m/s
 8 - Richardson number, n/d
   -0.000000    0.00000  0.0000E+00  0.3189E-13  0.5207E-16  0.1000E-09  0.0000E+00  0.1036E+17
   -0.042497    0.15877  0.0000E+00  0.3189E-13  0.5207E-16  0.1000E-09  0.0000E+00  0.1034E+17
   -0.084995    0.32464  0.0000E+00  0.3189E-13  0.5207E-16  0.1000E-09  0.0000E+00  0.1022E+17
   -0.127493    0.49684  0.0000E+00  0.3189E-13  0.5207E-16  0.1000E-09  0.0000E+00  0.9607E+16
   -0.169992    0.66727  0.0000E+00  0.3189E-13  0.5207E-16  0.1000E-09  0.0000E+00  0.8994E+16
   -0.212491    0.83566  0.0000E+00  0.3189E-13  0.5207E-16  0.1000E-09  0.0000E+00  0.8379E+16
   -0.254990    1.00156  0.0000E+00  0.3189E-13  0.5207E-16  0.1000E-09  0.0000E+00  0.7768E+16
   -0.297489    1.16450  0.0000E+00  0.3189E-13  0.5207E-16  0.1000E-09  0.0000E+00  0.7182E+16
   -0.339989    1.32448  0.0000E+00  0.3189E-13  0.5207E-16  0.1000E-09  0.0000E+00  0.6632E+16
   -0.382489    1.48168  0.0000E+00  0.3189E-13  0.5207E-16  0.1000E-09  0.0000E+00  0.6097E+16
   -0.424989    1.63587  0.0000E+00  0.3189E-13  0.5207E-16  0.1000E-09  0.0000E+00  0.5602E+16
   -0.467490    1.78744  0.0000E+00  0.1009E-12  0.5207E-16  0.1000E-09  0.0000E+00  0.5122E+16
   -0.509990    1.93618  0.0000E+00  0.2990E-12  0.5695E-16  0.1000E-09  0.0000E+00  0.4692E+16
   -0.552491    2.08296  0.0000E+00  0.6423E-12  0.8687E-16  0.1000E-09  0.0000E+00  0.4277E+16
   -0.594992    2.22779  0.0000E+00  0.1209E-11  0.1445E-15  0.1000E-09  0.0000E+00  0.3870E+16
   -0.637493    2.37030  0.0000E+00  0.2169E-11  0.2456E-15  0.1000E-09  0.0000E+00  0.3466E+16
   -0.679994    2.50991  0.0000E+00  0.3809E-11  0.4182E-15  0.1000E-09  0.0000E+00  0.3075E+16
   -0.722495    2.64621  0.0000E+00  0.6633E-11  0.7124E-15  0.1000E-09  0.0000E+00  0.2693E+16
   -0.764997    2.77843  0.0000E+00  0.1153E-10  0.1215E-14  0.1000E-09  0.0000E+00  0.2325E+16
   -0.807498    2.90581  0.0000E+00  0.1997E-10  0.2067E-14  0.1000E-09  0.0000E+00  0.1989E+16
   -0.849999    3.02838  0.0000E+00  0.3420E-10  0.3481E-14  0.1000E-09  0.0000E+00  0.1679E+16
   -0.892501    3.14589  0.0000E+00  0.5831E-10  0.5834E-14  0.1000E-09  0.0000E+00  0.1417E+16
   -0.935002    3.25996  0.0000E+00  0.9836E-10  0.9679E-14  0.1000E-09  0.0000E+00  0.1190E+16
   -0.977504    3.37212  0.0000E+00  0.1648E-09  0.1596E-13  0.1000E-09  0.0000E+00  0.9730E+15
   -1.020005    3.48224  0.0000E+00  0.2745E-09  0.2613E-13  0.1100E-09  0.0000E+00  0.7670E+15
   -1.062506    3.59025  0.0000E+00  0.4541E-09  0.4254E-13  0.2344E-09  0.0000E+00  0.5714E+15
   -1.105007    3.69594  0.0000E+00  0.7475E-09  0.6891E-13  0.5597E-09  0.0000E+00  0.3878E+15
   -1.147508    3.79924  0.0000E+00  0.1216E-08  0.1103E-12  0.1611E-08  0.0000E+00  0.2158E+15
   -1.190009    3.89969  0.0000E+00  0.1957E-08  0.1749E-12  0.9476E-08  0.0000E+00  0.5853E+14
   -1.232509    3.99258  0.0000E+00  0.2349E-08  0.2109E-12  0.1007E-04  0.0000E+00 -0.1430E+12
   -1.275010    3.99394  0.0000E+00  0.2555E-08  0.2335E-12  0.1106E-04  0.0000E+00 -0.1505E+12
   -1.317510    3.99512  0.0000E+00  0.2742E-08  0.2582E-12  0.1179E-04  0.0000E+00 -0.1615E+12
   -1.360010    3.99624  0.0000E+00  0.2914E-08  0.2864E-12  0.1209E-04  0.0000E+00 -0.1767E+12
   -1.402510    3.99732  0.0000E+00  0.3074E-08  0.3206E-12  0.1194E-04  0.0000E+00 -0.1984E+12
   -1.445009    3.99842  0.0000E+00  0.3203E-08  0.3592E-12  0.1141E-04  0.0000E+00 -0.2282E+12
   -1.487508    3.99958  0.0000E+00  0.3296E-08  0.4052E-12  0.1051E-04  0.0000E+00 -0.2724E+12
   -1.530007    4.00083  0.0000E+00  0.3351E-08  0.4745E-12  0.9032E-05  0.0000E+00 -0.3573E+12
   -1.572506    4.00233  0.0000E+00  0.3351E-08  0.6285E-12  0.6497E-05  0.0000E+00 -0.6132E+12
   -1.615004    4.00461  0.0000E+00  0.3138E-08  0.1234E-11  0.2301E-05  0.0000E+00 -0.2361E+13
   -1.657502    4.01154  0.0000E+00  0.2441E-08  0.3427E-11  0.4060E-06  0.0000E+00 -0.2502E+14
   -1.699999    4.04821  0.0000E+00  0.0000E+00  0.0000E+00  0.0000E+00  0.0000E+00  0.0000E+00
