 1 - depth, m
 2 - temperature, C
 3 - salinity, kg/kg
 4 - turbulent kinetic energy, m**2/s**2
 5 - dissipation rate, m**2/s**3
 6 - kinematic heat conductance, m**2/s
 7 - modulus of horizontal velocity, m/s
 8 - Richardson number, n/d
   -0.000000    7.02447  0.0000E+00  0.6496E-03  0.1052E-02  0.5896E-04  0.2676E+00  0.4831E-01
   -0.042498    7.12178  0.0000E+00  0.3167E-03  0.3245E-03  0.2398E-03  0.5656E-01 -0.2941E-01
   -0.084996    7.13957  0.0000E+00  0.2267E-03  0.1772E-03  0.2243E-03  0.3679E-01 -0.1202E+00
   -0.127494    7.15242  0.0000E+00  0.1724E-03  0.9685E-04  0.1880E-03  0.3001E-01 -0.4659E-01
   -0.169993    7.16276  0.0000E+00  0.1291E-03  0.4860E-04  0.1668E-03  0.2481E-01 -0.8731E-01
   -0.212492    7.17242  0.0000E+00  0.9788E-04  0.2781E-04  0.1549E-03  0.2042E-01 -0.6052E-01
   -0.254991    7.18119  0.0000E+00  0.7328E-04  0.1448E-04  0.1506E-03  0.1692E-01 -0.3501E+00
   -0.297491    7.18993  0.0000E+00  0.5565E-04  0.8001E-05  0.1500E-03  0.1418E-01  0.1254E+01
   -0.339991    7.19774  0.0000E+00  0.4364E-04  0.4589E-05  0.1533E-03  0.1197E-01  0.8216E+01
   -0.382491    7.20473  0.0000E+00  0.3515E-04  0.2663E-05  0.1641E-03  0.1003E-01  0.1019E+03
   -0.424992    7.21085  0.0000E+00  0.2902E-04  0.1573E-05  0.1734E-03  0.8564E-02  0.5971E+02
   -0.467492    7.21636  0.0000E+00  0.2453E-04  0.9696E-06  0.1872E-03  0.7203E-02  0.3034E+02
   -0.509993    7.22132  0.0000E+00  0.2114E-04  0.6333E-06  0.2029E-03  0.6015E-02  0.9666E+01
   -0.552494    7.22582  0.0000E+00  0.1850E-04  0.4399E-06  0.2209E-03  0.5003E-02  0.2944E+02
   -0.594995    7.22989  0.0000E+00  0.1637E-04  0.3230E-06  0.2428E-03  0.4128E-02  0.7629E+02
   -0.637497    7.23353  0.0000E+00  0.1458E-04  0.2466E-06  0.2698E-03  0.3403E-02  0.9787E+02
   -0.679998    7.23670  0.0000E+00  0.1308E-04  0.1935E-06  0.2990E-03  0.2833E-02  0.1525E+02
   -0.722500    7.23948  0.0000E+00  0.1181E-04  0.1549E-06  0.3307E-03  0.2374E-02  0.1727E+02
   -0.765001    7.24193  0.0000E+00  0.1073E-04  0.1254E-06  0.3617E-03  0.2012E-02  0.1751E+02
   -0.807503    7.24411  0.0000E+00  0.9790E-05  0.1020E-06  0.3922E-03  0.1729E-02  0.2633E+03
   -0.850004    7.24608  0.0000E+00  0.8992E-05  0.8362E-07  0.4211E-03  0.1498E-02  0.1536E+02
   -0.892506    7.24788  0.0000E+00  0.8309E-05  0.6909E-07  0.4486E-03  0.1306E-02  0.7063E+02
   -0.935008    7.24952  0.0000E+00  0.7729E-05  0.5756E-07  0.4749E-03  0.1145E-02  0.1391E+02
   -0.977509    7.25104  0.0000E+00  0.7235E-05  0.4836E-07  0.4980E-03  0.1007E-02  0.7513E+01
   -1.020011    7.25247  0.0000E+00  0.6811E-05  0.4100E-07  0.5175E-03  0.8880E-03  0.6820E+01
   -1.062512    7.25383  0.0000E+00  0.6446E-05  0.3507E-07  0.5339E-03  0.7819E-03  0.3178E+02
   -1.105013    7.25515  0.0000E+00  0.6134E-05  0.3033E-07  0.5468E-03  0.6872E-03  0.2506E+02
   -1.147515    7.25643  0.0000E+00  0.5869E-05  0.2661E-07  0.5557E-03  0.5992E-03  0.5530E+01
   -1.190016    7.25770  0.0000E+00  0.5645E-05  0.2375E-07  0.5609E-03  0.5147E-03  0.5491E+01
   -1.232516    7.25895  0.0000E+00  0.5446E-05  0.2151E-07  0.5642E-03  0.4352E-03  0.7856E+02
   -1.275017    7.26019  0.0000E+00  0.5268E-05  0.1978E-07  0.5636E-03  0.3662E-03  0.2770E+02
   -1.317518    7.26144  0.0000E+00  0.5105E-05  0.1850E-07  0.5570E-03  0.3076E-03  0.6361E+01
   -1.360018    7.26269  0.0000E+00  0.4954E-05  0.1765E-07  0.5445E-03  0.2587E-03  0.7648E+01
   -1.402518    7.26398  0.0000E+00  0.4805E-05  0.1727E-07  0.5242E-03  0.2189E-03  0.1910E+02
   -1.445018    7.26534  0.0000E+00  0.4666E-05  0.1755E-07  0.4983E-03  0.1843E-03  0.1688E+02
   -1.487517    7.26681  0.0000E+00  0.4531E-05  0.1882E-07  0.4688E-03  0.1512E-03  0.1963E+02
   -1.530016    7.26844  0.0000E+00  0.4370E-05  0.2237E-07  0.4211E-03  0.1181E-03  0.2012E+02
   -1.572515    7.27048  0.0000E+00  0.4147E-05  0.3147E-07  0.3759E-03  0.8620E-04  0.1033E+03
   -1.615013    7.27241  0.0000E+00  0.3658E-05  0.7221E-07  0.2421E-03  0.6699E-04 -0.1393E+07
   -1.657511    7.27894  0.0000E+00  0.2439E-05  0.1852E-06  0.4053E-04  0.4674E-04 -0.4741E+06
   -1.700009    7.30759  0.0000E+00  0.0000E+00  0.0000E+00  0.0000E+00  0.6527E-04  0.0000E+00
