 1 - depth, m
 2 - temperature, C
 3 - salinity, kg/kg
 4 - turbulent kinetic energy, m**2/s**2
 5 - dissipation rate, m**2/s**3
 6 - kinematic heat conductance, m**2/s
 7 - modulus of horizontal velocity, m/s
 8 - Richardson number, n/d
   -0.000000   13.79003  0.0000E+00  0.3078E-03  0.2627E-03  0.7229E-04  0.1730E+00 -0.4979E-01
   -0.042497   13.91525  0.0000E+00  0.1583E-03  0.8242E-04  0.1659E-03  0.3925E-01 -0.7688E-01
   -0.084995   13.93893  0.0000E+00  0.1116E-03  0.4024E-04  0.1434E-03  0.2583E-01 -0.1113E+00
   -0.127493   13.95626  0.0000E+00  0.8255E-04  0.1934E-04  0.1358E-03  0.2037E-01  0.6611E+00
   -0.169992   13.96948  0.0000E+00  0.6183E-04  0.9844E-05  0.1380E-03  0.1644E-01  0.2230E+01
   -0.212491   13.98028  0.0000E+00  0.4679E-04  0.5100E-05  0.1497E-03  0.1324E-01  0.3630E+02
   -0.254990   13.98973  0.0000E+00  0.3578E-04  0.2621E-05  0.1681E-03  0.1077E-01  0.6083E+02
   -0.297490   13.99794  0.0000E+00  0.2808E-04  0.1412E-05  0.1902E-03  0.8901E-02  0.1921E+02
   -0.339989   14.00519  0.0000E+00  0.2280E-04  0.8073E-06  0.2186E-03  0.7397E-02  0.1353E+03
   -0.382489   14.01161  0.0000E+00  0.1914E-04  0.5007E-06  0.2581E-03  0.6122E-02  0.1873E+03
   -0.424990   14.01672  0.0000E+00  0.1660E-04  0.3322E-06  0.2998E-03  0.5149E-02  0.2140E+02
   -0.467490   14.02103  0.0000E+00  0.1480E-04  0.2337E-06  0.3429E-03  0.4344E-02  0.3020E+02
   -0.509991   14.02441  0.0000E+00  0.1350E-04  0.1726E-06  0.3878E-03  0.3669E-02  0.5409E+02
   -0.552492   14.02723  0.0000E+00  0.1253E-04  0.1324E-06  0.4321E-03  0.3094E-02  0.5237E+03
   -0.594993   14.02952  0.0000E+00  0.1176E-04  0.1049E-06  0.4750E-03  0.2591E-02  0.1391E+02
   -0.637494   14.03148  0.0000E+00  0.1115E-04  0.8514E-07  0.5209E-03  0.2155E-02  0.7578E+02
   -0.679995   14.03318  0.0000E+00  0.1064E-04  0.7060E-07  0.5650E-03  0.1790E-02  0.8023E+01
   -0.722496   14.03471  0.0000E+00  0.1022E-04  0.5966E-07  0.6130E-03  0.1485E-02  0.3282E+01
   -0.764998   14.03608  0.0000E+00  0.9866E-05  0.5124E-07  0.6624E-03  0.1240E-02  0.2638E+01
   -0.807499   14.03734  0.0000E+00  0.9563E-05  0.4463E-07  0.7059E-03  0.1048E-02  0.1653E+01
   -0.850000   14.03851  0.0000E+00  0.9307E-05  0.3953E-07  0.7450E-03  0.8931E-03  0.1357E+01
   -0.892502   14.03960  0.0000E+00  0.9085E-05  0.3554E-07  0.7791E-03  0.7677E-03  0.1330E+01
   -0.935003   14.04062  0.0000E+00  0.8891E-05  0.3244E-07  0.8054E-03  0.6655E-03  0.1359E+01
   -0.977505   14.04160  0.0000E+00  0.8719E-05  0.3004E-07  0.8257E-03  0.5795E-03  0.1372E+01
   -1.020006   14.04253  0.0000E+00  0.8562E-05  0.2819E-07  0.8383E-03  0.5076E-03  0.1423E+01
   -1.062507   14.04343  0.0000E+00  0.8418E-05  0.2680E-07  0.8443E-03  0.4457E-03  0.1459E+01
   -1.105008   14.04431  0.0000E+00  0.8281E-05  0.2578E-07  0.8435E-03  0.3921E-03  0.1523E+01
   -1.147509   14.04518  0.0000E+00  0.8153E-05  0.2510E-07  0.8362E-03  0.3441E-03  0.1610E+01
   -1.190010   14.04603  0.0000E+00  0.8033E-05  0.2473E-07  0.8220E-03  0.3000E-03  0.1682E+01
   -1.232511   14.04688  0.0000E+00  0.7913E-05  0.2465E-07  0.8010E-03  0.2599E-03  0.1797E+01
   -1.275011   14.04774  0.0000E+00  0.7791E-05  0.2485E-07  0.7729E-03  0.2259E-03  0.2149E+01
   -1.317512   14.04862  0.0000E+00  0.7662E-05  0.2542E-07  0.7424E-03  0.1974E-03  0.2771E+01
   -1.360012   14.04954  0.0000E+00  0.7513E-05  0.2652E-07  0.6950E-03  0.1730E-03  0.3821E+01
   -1.402511   14.05053  0.0000E+00  0.7328E-05  0.2854E-07  0.6564E-03  0.1516E-03  0.6126E+01
   -1.445011   14.05159  0.0000E+00  0.7106E-05  0.3214E-07  0.5813E-03  0.1319E-03 -0.9536E+02
   -1.487510   14.05298  0.0000E+00  0.6837E-05  0.3813E-07  0.5482E-03  0.1094E-03  0.5854E+03
   -1.530009   14.05449  0.0000E+00  0.6449E-05  0.5176E-07  0.4344E-03  0.8731E-04 -0.1460E+04
   -1.572507   14.05786  0.0000E+00  0.5893E-05  0.8247E-07  0.4472E-03  0.6089E-04  0.1349E+07
   -1.615006   14.05809  0.0000E+00  0.4760E-05  0.2188E-06  0.1987E-03  0.4895E-04 -0.6015E+08
   -1.657503   14.07214  0.0000E+00  0.3187E-05  0.5750E-06  0.1137E-03  0.3003E-04 -0.5880E+05
   -1.700001   14.07793  0.0000E+00  0.0000E+00  0.0000E+00  0.0000E+00  0.4720E-04  0.0000E+00
