 1 - depth, m
 2 - temperature, C
 3 - salinity, kg/kg
 4 - turbulent kinetic energy, m**2/s**2
 5 - dissipation rate, m**2/s**3
 6 - kinematic heat conductance, m**2/s
 7 - modulus of horizontal velocity, m/s
 8 - Richardson number, n/d
   -0.000000    0.00000  0.0000E+00  0.1940E-07  0.6085E-10  0.2542E-08  0.0000E+00  0.7516E+17
   -0.042498    1.38014  0.0000E+00  0.1581E-06  0.5202E-10  0.3807E-08  0.0000E+00  0.4296E+17
   -0.084996    2.77966  0.0000E+00  0.4365E-06  0.8109E-10  0.2398E-07  0.0000E+00  0.1150E+17
   -0.127495    4.08367  0.0000E+00  0.4629E-06  0.8537E-10  0.7033E-03  0.0000E+00  0.1377E+15
   -0.169994    4.14815  0.0000E+00  0.4641E-06  0.8559E-10  0.7787E-03  0.0000E+00 -0.7417E+12
   -0.212494    4.14845  0.0000E+00  0.4650E-06  0.8578E-10  0.7802E-03  0.0000E+00 -0.7038E+12
   -0.254994    4.14872  0.0000E+00  0.4659E-06  0.8599E-10  0.7812E-03  0.0000E+00 -0.6898E+12
   -0.297494    4.14900  0.0000E+00  0.4667E-06  0.8623E-10  0.7819E-03  0.0000E+00 -0.6754E+12
   -0.339994    4.14926  0.0000E+00  0.4674E-06  0.8649E-10  0.7822E-03  0.0000E+00 -0.6666E+12
   -0.382495    4.14953  0.0000E+00  0.4680E-06  0.8679E-10  0.7819E-03  0.0000E+00 -0.6581E+12
   -0.424996    4.14979  0.0000E+00  0.4686E-06  0.8711E-10  0.7812E-03  0.0000E+00 -0.6509E+12
   -0.467497    4.15004  0.0000E+00  0.4691E-06  0.8745E-10  0.7799E-03  0.0000E+00 -0.6451E+12
   -0.509998    4.15030  0.0000E+00  0.4695E-06  0.8783E-10  0.7782E-03  0.0000E+00 -0.6388E+12
   -0.552499    4.15055  0.0000E+00  0.4699E-06  0.8825E-10  0.7759E-03  0.0000E+00 -0.6329E+12
   -0.595001    4.15080  0.0000E+00  0.4701E-06  0.8871E-10  0.7730E-03  0.0000E+00 -0.6307E+12
   -0.637503    4.15104  0.0000E+00  0.4703E-06  0.8923E-10  0.7694E-03  0.0000E+00 -0.6278E+12
   -0.680005    4.15129  0.0000E+00  0.4705E-06  0.8981E-10  0.7652E-03  0.0000E+00 -0.6264E+12
   -0.722506    4.15153  0.0000E+00  0.4706E-06  0.9049E-10  0.7601E-03  0.0000E+00 -0.6271E+12
   -0.765008    4.15177  0.0000E+00  0.4706E-06  0.9127E-10  0.7541E-03  0.0000E+00 -0.6288E+12
   -0.807510    4.15202  0.0000E+00  0.4706E-06  0.9218E-10  0.7472E-03  0.0000E+00 -0.6294E+12
   -0.850012    4.15226  0.0000E+00  0.4705E-06  0.9321E-10  0.7364E-03  0.0000E+00 -0.6342E+12
   -0.892514    4.15251  0.0000E+00  0.4704E-06  0.9439E-10  0.7238E-03  0.0000E+00 -0.6367E+12
   -0.935016    4.15275  0.0000E+00  0.4701E-06  0.9572E-10  0.7126E-03  0.0000E+00 -0.6405E+12
   -0.977518    4.15300  0.0000E+00  0.4699E-06  0.9719E-10  0.7362E-03  0.0000E+00 -0.5927E+12
   -1.020020    4.15323  0.0000E+00  0.4695E-06  0.9882E-10  0.6770E-03  0.0000E+00 -0.6828E+12
   -1.062522    4.15349  0.0000E+00  0.4692E-06  0.1006E-09  0.7129E-03  0.0000E+00 -0.6011E+12
   -1.105024    4.15373  0.0000E+00  0.4687E-06  0.1027E-09  0.6480E-03  0.0000E+00 -0.6972E+12
   -1.147525    4.15398  0.0000E+00  0.4683E-06  0.1049E-09  0.6858E-03  0.0000E+00 -0.6187E+12
   -1.190027    4.15423  0.0000E+00  0.4678E-06  0.1073E-09  0.6168E-03  0.0000E+00 -0.7295E+12
   -1.232528    4.15450  0.0000E+00  0.4672E-06  0.1102E-09  0.6124E-03  0.0000E+00 -0.7071E+12
   -1.275029    4.15477  0.0000E+00  0.4665E-06  0.1137E-09  0.5940E-03  0.0000E+00 -0.7245E+12
   -1.317530    4.15504  0.0000E+00  0.4657E-06  0.1181E-09  0.5710E-03  0.0000E+00 -0.7270E+12
   -1.360031    4.15531  0.0000E+00  0.4647E-06  0.1237E-09  0.6005E-03  0.0000E+00 -0.6359E+12
   -1.402531    4.15555  0.0000E+00  0.4635E-06  0.1310E-09  0.4894E-03  0.0000E+00 -0.8678E+12
   -1.445031    4.15586  0.0000E+00  0.4623E-06  0.1398E-09  0.5351E-03  0.0000E+00 -0.7682E+12
   -1.487531    4.15615  0.0000E+00  0.4609E-06  0.1510E-09  0.4248E-03  0.0000E+00 -0.1039E+13
   -1.530031    4.15653  0.0000E+00  0.4591E-06  0.1682E-09  0.3984E-03  0.0000E+00 -0.1119E+13
   -1.572530    4.15694  0.0000E+00  0.4557E-06  0.2061E-09  0.3297E-03  0.0000E+00 -0.1364E+13
   -1.615028    4.15745  0.0000E+00  0.4443E-06  0.3486E-09  0.2261E-03  0.0000E+00 -0.2011E+13
   -1.657527    4.15819  0.0000E+00  0.3194E-06  0.2264E-08  0.5843E-05  0.0000E+00 -0.8593E+14
   -1.700025    4.18776  0.0000E+00  0.0000E+00  0.0000E+00  0.0000E+00  0.0000E+00  0.0000E+00
