 1 - depth, m
 2 - temperature, C
 3 - salinity, kg/kg
 4 - turbulent kinetic energy, m**2/s**2
 5 - dissipation rate, m**2/s**3
 6 - kinematic heat conductance, m**2/s
 7 - modulus of horizontal velocity, m/s
 8 - Richardson number, n/d
   -0.000000    0.00000  0.0000E+00  0.3189E-13  0.5206E-16  0.1000E-09  0.0000E+00  0.8129E+16
   -0.042497    0.12401  0.0000E+00  0.3189E-13  0.5206E-16  0.1000E-09  0.0000E+00  0.8221E+16
   -0.084995    0.25389  0.0000E+00  0.3189E-13  0.5206E-16  0.1000E-09  0.0000E+00  0.8240E+16
   -0.127493    0.38909  0.0000E+00  0.3189E-13  0.5206E-16  0.1000E-09  0.0000E+00  0.7882E+16
   -0.169992    0.52367  0.0000E+00  0.3189E-13  0.5206E-16  0.1000E-09  0.0000E+00  0.7522E+16
   -0.212491    0.65746  0.0000E+00  0.3189E-13  0.5206E-16  0.1000E-09  0.0000E+00  0.7156E+16
   -0.254990    0.79025  0.0000E+00  0.3189E-13  0.5206E-16  0.1000E-09  0.0000E+00  0.6788E+16
   -0.297490    0.92182  0.0000E+00  0.3189E-13  0.5206E-16  0.1000E-09  0.0000E+00  0.6427E+16
   -0.339989    1.05212  0.0000E+00  0.3189E-13  0.5206E-16  0.1000E-09  0.0000E+00  0.6080E+16
   -0.382489    1.18122  0.0000E+00  0.3189E-13  0.5206E-16  0.1000E-09  0.0000E+00  0.5735E+16
   -0.424990    1.30899  0.0000E+00  0.3189E-13  0.5206E-16  0.1000E-09  0.0000E+00  0.5406E+16
   -0.467490    1.43556  0.0000E+00  0.3189E-13  0.5206E-16  0.1000E-09  0.0000E+00  0.5082E+16
   -0.509991    1.56083  0.0000E+00  0.3189E-13  0.5206E-16  0.1000E-09  0.0000E+00  0.4776E+16
   -0.552492    1.68502  0.0000E+00  0.3189E-13  0.5206E-16  0.1000E-09  0.0000E+00  0.4477E+16
   -0.594993    1.80809  0.0000E+00  0.3189E-13  0.5206E-16  0.1000E-09  0.0000E+00  0.4177E+16
   -0.637494    1.92982  0.0000E+00  0.3189E-13  0.5206E-16  0.1000E-09  0.0000E+00  0.3875E+16
   -0.679995    2.04983  0.0000E+00  0.3189E-13  0.5206E-16  0.1000E-09  0.0000E+00  0.3577E+16
   -0.722496    2.16784  0.0000E+00  0.3189E-13  0.5206E-16  0.1000E-09  0.0000E+00  0.3278E+16
   -0.764998    2.28339  0.0000E+00  0.3189E-13  0.5206E-16  0.1000E-09  0.0000E+00  0.2982E+16
   -0.807499    2.39598  0.0000E+00  0.3189E-13  0.5206E-16  0.1000E-09  0.0000E+00  0.2702E+16
   -0.850000    2.50560  0.0000E+00  0.3189E-13  0.5206E-16  0.1000E-09  0.0000E+00  0.2436E+16
   -0.892502    2.61209  0.0000E+00  0.3189E-13  0.5206E-16  0.1000E-09  0.0000E+00  0.2200E+16
   -0.935003    2.71610  0.0000E+00  0.3189E-13  0.5206E-16  0.1000E-09  0.0000E+00  0.1991E+16
   -0.977505    2.81837  0.0000E+00  0.3189E-13  0.5206E-16  0.1000E-09  0.0000E+00  0.1788E+16
   -1.020006    2.91869  0.0000E+00  0.3189E-13  0.5206E-16  0.1000E-09  0.0000E+00  0.1595E+16
   -1.062507    3.01706  0.0000E+00  0.3189E-13  0.5206E-16  0.1000E-09  0.0000E+00  0.1409E+16
   -1.105008    3.11327  0.0000E+00  0.3189E-13  0.5206E-16  0.1000E-09  0.0000E+00  0.1234E+16
   -1.147509    3.20743  0.0000E+00  0.3189E-13  0.5206E-16  0.1000E-09  0.0000E+00  0.1070E+16
   -1.190010    3.29961  0.0000E+00  0.3189E-13  0.5206E-16  0.1000E-09  0.0000E+00  0.9103E+15
   -1.232511    3.38922  0.0000E+00  0.1002E-12  0.6625E-16  0.1000E-09  0.0000E+00  0.7470E+15
   -1.275011    3.47447  0.0000E+00  0.3477E-12  0.1894E-15  0.1000E-09  0.0000E+00  0.6048E+15
   -1.317512    3.55580  0.0000E+00  0.1126E-11  0.5845E-15  0.1000E-09  0.0000E+00  0.4976E+15
   -1.360012    3.63675  0.0000E+00  0.3597E-11  0.1811E-14  0.1000E-09  0.0000E+00  0.3927E+15
   -1.402511    3.71743  0.0000E+00  0.1150E-10  0.5634E-14  0.1000E-09  0.0000E+00  0.2886E+15
   -1.445011    3.79767  0.0000E+00  0.3464E-10  0.1656E-13  0.2712E-09  0.0000E+00  0.1857E+15
   -1.487510    3.87709  0.0000E+00  0.1031E-09  0.4821E-13  0.1650E-08  0.0000E+00  0.8592E+14
   -1.530009    3.95513  0.0000E+00  0.3302E-09  0.1525E-12  0.5807E-07  0.0000E+00  0.2778E+13
   -1.572508    4.01126  0.0000E+00  0.9945E-09  0.5327E-12  0.8793E-06  0.0000E+00 -0.5549E+13
   -1.615006    4.02279  0.0000E+00  0.1492E-08  0.1105E-11  0.7486E-06  0.0000E+00 -0.9626E+13
   -1.657504    4.03691  0.0000E+00  0.1502E-08  0.2293E-11  0.2798E-06  0.0000E+00 -0.3501E+14
   -1.700001    4.07019  0.0000E+00  0.0000E+00  0.0000E+00  0.0000E+00  0.0000E+00  0.0000E+00
