 1 - depth, m
 2 - temperature, C
 3 - salinity, kg/kg
 4 - turbulent kinetic energy, m**2/s**2
 5 - dissipation rate, m**2/s**3
 6 - kinematic heat conductance, m**2/s
 7 - modulus of horizontal velocity, m/s
 8 - Richardson number, n/d
   -0.000000    0.00000  0.0000E+00  0.1812E-11  0.5287E-15  0.1000E-09  0.0000E+00  0.1962E+17
   -0.042496    0.30694  0.0000E+00  0.3107E-11  0.4806E-15  0.1000E-09  0.0000E+00  0.1730E+17
   -0.084993    0.60212  0.0000E+00  0.5640E-11  0.6012E-15  0.1000E-09  0.0000E+00  0.1521E+17
   -0.127490    0.88615  0.0000E+00  0.9765E-11  0.8739E-15  0.1000E-09  0.0000E+00  0.1307E+17
   -0.169988    1.15424  0.0000E+00  0.1623E-10  0.1338E-14  0.1000E-09  0.0000E+00  0.1122E+17
   -0.212486    1.40754  0.0000E+00  0.2632E-10  0.2076E-14  0.1000E-09  0.0000E+00  0.9599E+16
   -0.254984    1.64705  0.0000E+00  0.4208E-10  0.3228E-14  0.1000E-09  0.0000E+00  0.8184E+16
   -0.297483    1.87348  0.0000E+00  0.6672E-10  0.5012E-14  0.1000E-09  0.0000E+00  0.6950E+16
   -0.339981    2.08769  0.0000E+00  0.1043E-09  0.7700E-14  0.1000E-09  0.0000E+00  0.5880E+16
   -0.382480    2.29062  0.0000E+00  0.1618E-09  0.1175E-13  0.1000E-09  0.0000E+00  0.4945E+16
   -0.424980    2.48298  0.0000E+00  0.2488E-09  0.1777E-13  0.1000E-09  0.0000E+00  0.4142E+16
   -0.467479    2.66608  0.0000E+00  0.3794E-09  0.2666E-13  0.1000E-09  0.0000E+00  0.3439E+16
   -0.509979    2.84067  0.0000E+00  0.5754E-09  0.3979E-13  0.1000E-09  0.0000E+00  0.2870E+16
   -0.552479    3.01052  0.0000E+00  0.8692E-09  0.5912E-13  0.1087E-09  0.0000E+00  0.2360E+16
   -0.594979    3.17693  0.0000E+00  0.1307E-08  0.8742E-13  0.1556E-09  0.0000E+00  0.1891E+16
   -0.637479    3.34105  0.0000E+00  0.1970E-08  0.1295E-12  0.2766E-09  0.0000E+00  0.1454E+16
   -0.679979    3.50422  0.0000E+00  0.2966E-08  0.1915E-12  0.5709E-09  0.0000E+00  0.1027E+16
   -0.722479    3.66652  0.0000E+00  0.4458E-08  0.2822E-12  0.1399E-08  0.0000E+00  0.6040E+15
   -0.764980    3.82657  0.0000E+00  0.6668E-08  0.4135E-12  0.6508E-08  0.0000E+00  0.1943E+15
   -0.807480    3.97491  0.0000E+00  0.7365E-08  0.4541E-12  0.2832E-04  0.0000E+00  0.6080E+13
   -0.849980    3.99340  0.0000E+00  0.7560E-08  0.4669E-12  0.4132E-04  0.0000E+00 -0.4967E+11
   -0.892481    3.99395  0.0000E+00  0.7710E-08  0.4781E-12  0.4331E-04  0.0000E+00 -0.5249E+11
   -0.934981    3.99445  0.0000E+00  0.7853E-08  0.4900E-12  0.4528E-04  0.0000E+00 -0.5433E+11
   -0.977482    3.99492  0.0000E+00  0.7992E-08  0.5029E-12  0.4631E-04  0.0000E+00 -0.5678E+11
   -1.019982    3.99537  0.0000E+00  0.8121E-08  0.5165E-12  0.4761E-04  0.0000E+00 -0.5865E+11
   -1.062482    3.99580  0.0000E+00  0.8242E-08  0.5307E-12  0.4850E-04  0.0000E+00 -0.6078E+11
   -1.104982    3.99622  0.0000E+00  0.8352E-08  0.5456E-12  0.4892E-04  0.0000E+00 -0.6345E+11
   -1.147482    3.99664  0.0000E+00  0.8450E-08  0.5609E-12  0.4901E-04  0.0000E+00 -0.6652E+11
   -1.189982    3.99706  0.0000E+00  0.8534E-08  0.5768E-12  0.4877E-04  0.0000E+00 -0.7024E+11
   -1.232482    3.99748  0.0000E+00  0.8611E-08  0.5945E-12  0.4834E-04  0.0000E+00 -0.7469E+11
   -1.274981    3.99791  0.0000E+00  0.8681E-08  0.6150E-12  0.4764E-04  0.0000E+00 -0.7981E+11
   -1.317481    3.99835  0.0000E+00  0.8744E-08  0.6394E-12  0.4662E-04  0.0000E+00 -0.8521E+11
   -1.359980    3.99881  0.0000E+00  0.8800E-08  0.6696E-12  0.4512E-04  0.0000E+00 -0.9220E+11
   -1.402478    3.99928  0.0000E+00  0.8848E-08  0.7087E-12  0.4324E-04  0.0000E+00 -0.1009E+12
   -1.444977    3.99977  0.0000E+00  0.8882E-08  0.7554E-12  0.4109E-04  0.0000E+00 -0.1116E+12
   -1.487475    4.00030  0.0000E+00  0.8897E-08  0.8175E-12  0.3828E-04  0.0000E+00 -0.1266E+12
   -1.529973    4.00088  0.0000E+00  0.8882E-08  0.9255E-12  0.3051E-04  0.0000E+00 -0.1684E+12
   -1.572470    4.00161  0.0000E+00  0.8789E-08  0.1188E-11  0.2074E-04  0.0000E+00 -0.2896E+12
   -1.614968    4.00280  0.0000E+00  0.8273E-08  0.2403E-11  0.6819E-05  0.0000E+00 -0.1165E+13
   -1.657464    4.00685  0.0000E+00  0.5971E-08  0.9048E-11  0.7410E-06  0.0000E+00 -0.2199E+14
   -1.699961    4.04304  0.0000E+00  0.0000E+00  0.0000E+00  0.0000E+00  0.0000E+00  0.0000E+00
