 1 - depth, m
 2 - temperature, C
 3 - salinity, kg/kg
 4 - turbulent kinetic energy, m**2/s**2
 5 - dissipation rate, m**2/s**3
 6 - kinematic heat conductance, m**2/s
 7 - modulus of horizontal velocity, m/s
 8 - Richardson number, n/d
   -0.000000    0.00000  0.0000E+00  0.3189E-13  0.5207E-16  0.1000E-09  0.0000E+00  0.1481E+17
   -0.042497    0.22922  0.0000E+00  0.3189E-13  0.5207E-16  0.1000E-09  0.0000E+00  0.1390E+17
   -0.084994    0.45871  0.0000E+00  0.3189E-13  0.5207E-16  0.1000E-09  0.0000E+00  0.1296E+17
   -0.127492    0.68806  0.0000E+00  0.4945E-13  0.5207E-16  0.1000E-09  0.0000E+00  0.1173E+17
   -0.169990    0.91113  0.0000E+00  0.1966E-12  0.5207E-16  0.1000E-09  0.0000E+00  0.1057E+17
   -0.212489    1.12791  0.0000E+00  0.4816E-12  0.6381E-16  0.1000E-09  0.0000E+00  0.9487E+16
   -0.254987    1.33831  0.0000E+00  0.9443E-12  0.9615E-16  0.1000E-09  0.0000E+00  0.8470E+16
   -0.297486    1.54213  0.0000E+00  0.1679E-11  0.1536E-15  0.1000E-09  0.0000E+00  0.7521E+16
   -0.339986    1.73921  0.0000E+00  0.2828E-11  0.2463E-15  0.1000E-09  0.0000E+00  0.6640E+16
   -0.382485    1.92949  0.0000E+00  0.4639E-11  0.3930E-15  0.1000E-09  0.0000E+00  0.5823E+16
   -0.424985    2.11278  0.0000E+00  0.7485E-11  0.6220E-15  0.1000E-09  0.0000E+00  0.5078E+16
   -0.467485    2.28924  0.0000E+00  0.1195E-10  0.9776E-15  0.1000E-09  0.0000E+00  0.4393E+16
   -0.509985    2.45875  0.0000E+00  0.1898E-10  0.1530E-14  0.1000E-09  0.0000E+00  0.3791E+16
   -0.552486    2.62232  0.0000E+00  0.3004E-10  0.2389E-14  0.1000E-09  0.0000E+00  0.3240E+16
   -0.594986    2.78000  0.0000E+00  0.4745E-10  0.3721E-14  0.1000E-09  0.0000E+00  0.2732E+16
   -0.637487    2.93151  0.0000E+00  0.7541E-10  0.5833E-14  0.1000E-09  0.0000E+00  0.2263E+16
   -0.679988    3.07631  0.0000E+00  0.1202E-09  0.9175E-14  0.1000E-09  0.0000E+00  0.1837E+16
   -0.722489    3.21387  0.0000E+00  0.1924E-09  0.1448E-13  0.1000E-09  0.0000E+00  0.1450E+16
   -0.764990    3.34323  0.0000E+00  0.3092E-09  0.2296E-13  0.1000E-09  0.0000E+00  0.1107E+16
   -0.807491    3.46333  0.0000E+00  0.4972E-09  0.3642E-13  0.1400E-09  0.0000E+00  0.8180E+15
   -0.849992    3.57419  0.0000E+00  0.7927E-09  0.5731E-13  0.3121E-09  0.0000E+00  0.5773E+15
   -0.892493    3.67556  0.0000E+00  0.1260E-08  0.8989E-13  0.7193E-09  0.0000E+00  0.3928E+15
   -0.934993    3.77037  0.0000E+00  0.1984E-08  0.1397E-12  0.1803E-08  0.0000E+00  0.2435E+15
   -0.977494    3.86132  0.0000E+00  0.3101E-08  0.2157E-12  0.6129E-08  0.0000E+00  0.1106E+15
   -1.019995    3.94735  0.0000E+00  0.4660E-08  0.3212E-12  0.9828E-07  0.0000E+00  0.1053E+14
   -1.062496    3.99982  0.0000E+00  0.4970E-08  0.3437E-12  0.3116E-04  0.0000E+00 -0.8454E+11
   -1.104997    4.00021  0.0000E+00  0.5108E-08  0.3552E-12  0.3092E-04  0.0000E+00 -0.8718E+11
   -1.147497    4.00061  0.0000E+00  0.5221E-08  0.3660E-12  0.3120E-04  0.0000E+00 -0.8841E+11
   -1.189998    4.00100  0.0000E+00  0.5316E-08  0.3770E-12  0.3131E-04  0.0000E+00 -0.8996E+11
   -1.232498    4.00138  0.0000E+00  0.5400E-08  0.3890E-12  0.3120E-04  0.0000E+00 -0.9188E+11
   -1.274998    4.00177  0.0000E+00  0.5475E-08  0.4027E-12  0.3089E-04  0.0000E+00 -0.9459E+11
   -1.317498    4.00215  0.0000E+00  0.5542E-08  0.4188E-12  0.3040E-04  0.0000E+00 -0.9897E+11
   -1.359997    4.00254  0.0000E+00  0.5601E-08  0.4389E-12  0.2958E-04  0.0000E+00 -0.1051E+12
   -1.402497    4.00295  0.0000E+00  0.5655E-08  0.4669E-12  0.2836E-04  0.0000E+00 -0.1133E+12
   -1.444996    4.00338  0.0000E+00  0.5697E-08  0.5042E-12  0.2544E-04  0.0000E+00 -0.1305E+12
   -1.487494    4.00386  0.0000E+00  0.5719E-08  0.5542E-12  0.2171E-04  0.0000E+00 -0.1595E+12
   -1.529993    4.00443  0.0000E+00  0.5713E-08  0.6354E-12  0.1793E-04  0.0000E+00 -0.2095E+12
   -1.572491    4.00516  0.0000E+00  0.5643E-08  0.8244E-12  0.1300E-04  0.0000E+00 -0.3564E+12
   -1.614989    4.00633  0.0000E+00  0.5241E-08  0.1644E-11  0.4384E-05  0.0000E+00 -0.1391E+13
   -1.657486    4.01036  0.0000E+00  0.3792E-08  0.5387E-11  0.5456E-06  0.0000E+00 -0.2181E+14
   -1.699983    4.04431  0.0000E+00  0.0000E+00  0.0000E+00  0.0000E+00  0.0000E+00  0.0000E+00
