 1 - depth, m
 2 - temperature, C
 3 - salinity, kg/kg
 4 - turbulent kinetic energy, m**2/s**2
 5 - dissipation rate, m**2/s**3
 6 - kinematic heat conductance, m**2/s
 7 - modulus of horizontal velocity, m/s
 8 - Richardson number, n/d
   -0.000000    0.00000  0.0000E+00  0.2510E-11  0.7728E-15  0.1000E-09  0.0000E+00  0.1896E+17
   -0.042497    0.29608  0.0000E+00  0.4389E-11  0.6537E-15  0.1000E-09  0.0000E+00  0.1733E+17
   -0.084994    0.59082  0.0000E+00  0.7931E-11  0.7481E-15  0.1000E-09  0.0000E+00  0.1568E+17
   -0.127492    0.88306  0.0000E+00  0.1343E-10  0.1005E-14  0.1000E-09  0.0000E+00  0.1376E+17
   -0.169990    1.16574  0.0000E+00  0.2158E-10  0.1443E-14  0.1000E-09  0.0000E+00  0.1197E+17
   -0.212489    1.43836  0.0000E+00  0.3361E-10  0.2124E-14  0.1000E-09  0.0000E+00  0.1032E+17
   -0.254988    1.70051  0.0000E+00  0.5147E-10  0.3154E-14  0.1000E-09  0.0000E+00  0.8798E+16
   -0.297487    1.95163  0.0000E+00  0.7809E-10  0.4701E-14  0.1000E-09  0.0000E+00  0.7408E+16
   -0.339986    2.19112  0.0000E+00  0.1171E-09  0.6970E-14  0.1000E-09  0.0000E+00  0.6151E+16
   -0.382486    2.41844  0.0000E+00  0.1747E-09  0.1031E-13  0.1000E-09  0.0000E+00  0.5029E+16
   -0.424986    2.63320  0.0000E+00  0.2592E-09  0.1520E-13  0.1000E-09  0.0000E+00  0.4047E+16
   -0.467486    2.83547  0.0000E+00  0.3833E-09  0.2236E-13  0.1000E-09  0.0000E+00  0.3190E+16
   -0.509986    3.02507  0.0000E+00  0.5663E-09  0.3288E-13  0.1000E-09  0.0000E+00  0.2483E+16
   -0.552486    3.20442  0.0000E+00  0.8378E-09  0.4843E-13  0.1040E-09  0.0000E+00  0.1870E+16
   -0.594987    3.37378  0.0000E+00  0.1241E-08  0.7147E-13  0.1675E-09  0.0000E+00  0.1339E+16
   -0.637488    3.53285  0.0000E+00  0.1856E-08  0.1065E-12  0.3762E-09  0.0000E+00  0.8844E+15
   -0.679989    3.68087  0.0000E+00  0.2796E-08  0.1598E-12  0.9788E-09  0.0000E+00  0.5042E+15
   -0.722490    3.81603  0.0000E+00  0.4239E-08  0.2413E-12  0.3584E-08  0.0000E+00  0.2046E+15
   -0.764990    3.93447  0.0000E+00  0.6193E-08  0.3541E-12  0.1798E-05  0.0000E+00  0.2522E+14
   -0.807492    3.99823  0.0000E+00  0.6431E-08  0.3687E-12  0.4267E-04  0.0000E+00 -0.5700E+11
   -0.849993    3.99864  0.0000E+00  0.6565E-08  0.3777E-12  0.4224E-04  0.0000E+00 -0.5949E+11
   -0.892494    3.99902  0.0000E+00  0.6698E-08  0.3877E-12  0.4305E-04  0.0000E+00 -0.6061E+11
   -0.934995    3.99938  0.0000E+00  0.6828E-08  0.3984E-12  0.4405E-04  0.0000E+00 -0.6217E+11
   -0.977496    3.99973  0.0000E+00  0.6952E-08  0.4099E-12  0.4500E-04  0.0000E+00 -0.6370E+11
   -1.019996    4.00006  0.0000E+00  0.7071E-08  0.4222E-12  0.4578E-04  0.0000E+00 -0.6545E+11
   -1.062497    4.00039  0.0000E+00  0.7183E-08  0.4351E-12  0.4609E-04  0.0000E+00 -0.6781E+11
   -1.104998    4.00072  0.0000E+00  0.7285E-08  0.4488E-12  0.4622E-04  0.0000E+00 -0.7053E+11
   -1.147499    4.00106  0.0000E+00  0.7378E-08  0.4630E-12  0.4622E-04  0.0000E+00 -0.7360E+11
   -1.189999    4.00140  0.0000E+00  0.7459E-08  0.4779E-12  0.4596E-04  0.0000E+00 -0.7726E+11
   -1.232499    4.00174  0.0000E+00  0.7533E-08  0.4945E-12  0.4546E-04  0.0000E+00 -0.8173E+11
   -1.274999    4.00210  0.0000E+00  0.7601E-08  0.5137E-12  0.4475E-04  0.0000E+00 -0.8681E+11
   -1.317499    4.00247  0.0000E+00  0.7662E-08  0.5365E-12  0.4366E-04  0.0000E+00 -0.9227E+11
   -1.359999    4.00285  0.0000E+00  0.7717E-08  0.5649E-12  0.4212E-04  0.0000E+00 -0.9936E+11
   -1.402498    4.00325  0.0000E+00  0.7766E-08  0.6017E-12  0.4016E-04  0.0000E+00 -0.1086E+12
   -1.444997    4.00368  0.0000E+00  0.7801E-08  0.6459E-12  0.3799E-04  0.0000E+00 -0.1201E+12
   -1.487496    4.00414  0.0000E+00  0.7820E-08  0.7014E-12  0.3522E-04  0.0000E+00 -0.1364E+12
   -1.529995    4.00465  0.0000E+00  0.7816E-08  0.7889E-12  0.3094E-04  0.0000E+00 -0.1691E+12
   -1.572493    4.00527  0.0000E+00  0.7754E-08  0.1003E-11  0.2270E-04  0.0000E+00 -0.2798E+12
   -1.614991    4.00626  0.0000E+00  0.7337E-08  0.2060E-11  0.6953E-05  0.0000E+00 -0.1193E+13
   -1.657488    4.00993  0.0000E+00  0.5349E-08  0.7909E-11  0.7029E-06  0.0000E+00 -0.2222E+14
   -1.699985    4.04462  0.0000E+00  0.0000E+00  0.0000E+00  0.0000E+00  0.0000E+00  0.0000E+00
