 1 - depth, m
 2 - temperature, C
 3 - salinity, kg/kg
 4 - turbulent kinetic energy, m**2/s**2
 5 - dissipation rate, m**2/s**3
 6 - kinematic heat conductance, m**2/s
 7 - modulus of horizontal velocity, m/s
 8 - Richardson number, n/d
   -0.000000    0.00000  0.0000E+00  0.2430E-11  0.7572E-15  0.1000E-09  0.0000E+00  0.1849E+17
   -0.042497    0.28842  0.0000E+00  0.4287E-11  0.6764E-15  0.1000E-09  0.0000E+00  0.1692E+17
   -0.084994    0.57518  0.0000E+00  0.7891E-11  0.8366E-15  0.1000E-09  0.0000E+00  0.1536E+17
   -0.127492    0.85954  0.0000E+00  0.1372E-10  0.1208E-14  0.1000E-09  0.0000E+00  0.1352E+17
   -0.169990    1.13464  0.0000E+00  0.2282E-10  0.1843E-14  0.1000E-09  0.0000E+00  0.1182E+17
   -0.212489    1.40013  0.0000E+00  0.3698E-10  0.2855E-14  0.1000E-09  0.0000E+00  0.1024E+17
   -0.254987    1.65558  0.0000E+00  0.5908E-10  0.4439E-14  0.1000E-09  0.0000E+00  0.8776E+16
   -0.297486    1.90042  0.0000E+00  0.9367E-10  0.6902E-14  0.1000E-09  0.0000E+00  0.7442E+16
   -0.339986    2.13419  0.0000E+00  0.1467E-09  0.1063E-13  0.1000E-09  0.0000E+00  0.6236E+16
   -0.382485    2.35655  0.0000E+00  0.2282E-09  0.1630E-13  0.1000E-09  0.0000E+00  0.5152E+16
   -0.424985    2.56711  0.0000E+00  0.3523E-09  0.2481E-13  0.1000E-09  0.0000E+00  0.4202E+16
   -0.467485    2.76612  0.0000E+00  0.5405E-09  0.3755E-13  0.1000E-09  0.0000E+00  0.3365E+16
   -0.509985    2.95343  0.0000E+00  0.8264E-09  0.5663E-13  0.1000E-09  0.0000E+00  0.2675E+16
   -0.552486    3.13168  0.0000E+00  0.1261E-08  0.8524E-13  0.1295E-09  0.0000E+00  0.2072E+16
   -0.594986    3.30144  0.0000E+00  0.1920E-08  0.1281E-12  0.2612E-09  0.0000E+00  0.1543E+16
   -0.637487    3.46295  0.0000E+00  0.2941E-08  0.1935E-12  0.5630E-09  0.0000E+00  0.1082E+16
   -0.679988    3.61654  0.0000E+00  0.4520E-08  0.2935E-12  0.1359E-08  0.0000E+00  0.6801E+15
   -0.722489    3.76199  0.0000E+00  0.6964E-08  0.4462E-12  0.4214E-08  0.0000E+00  0.3335E+15
   -0.764989    3.89766  0.0000E+00  0.1063E-07  0.6735E-12  0.3590E-07  0.0000E+00  0.5927E+14
   -0.807490    4.00378  0.0000E+00  0.1092E-07  0.6929E-12  0.6620E-04  0.0000E+00 -0.7580E+11
   -0.849991    4.00405  0.0000E+00  0.1106E-07  0.7036E-12  0.6411E-04  0.0000E+00 -0.7793E+11
   -0.892492    4.00433  0.0000E+00  0.1120E-07  0.7153E-12  0.6435E-04  0.0000E+00 -0.7811E+11
   -0.934993    4.00461  0.0000E+00  0.1133E-07  0.7280E-12  0.6469E-04  0.0000E+00 -0.7882E+11
   -0.977494    4.00488  0.0000E+00  0.1146E-07  0.7415E-12  0.6487E-04  0.0000E+00 -0.7977E+11
   -1.019995    4.00515  0.0000E+00  0.1157E-07  0.7561E-12  0.6491E-04  0.0000E+00 -0.8088E+11
   -1.062496    4.00542  0.0000E+00  0.1168E-07  0.7717E-12  0.6477E-04  0.0000E+00 -0.8226E+11
   -1.104997    4.00570  0.0000E+00  0.1178E-07  0.7885E-12  0.6449E-04  0.0000E+00 -0.8377E+11
   -1.147497    4.00597  0.0000E+00  0.1186E-07  0.8062E-12  0.6410E-04  0.0000E+00 -0.8540E+11
   -1.189997    4.00624  0.0000E+00  0.1193E-07  0.8251E-12  0.6349E-04  0.0000E+00 -0.8758E+11
   -1.232498    4.00652  0.0000E+00  0.1200E-07  0.8464E-12  0.6265E-04  0.0000E+00 -0.9075E+11
   -1.274998    4.00681  0.0000E+00  0.1205E-07  0.8715E-12  0.6157E-04  0.0000E+00 -0.9443E+11
   -1.317498    4.00710  0.0000E+00  0.1209E-07  0.9017E-12  0.6013E-04  0.0000E+00 -0.9829E+11
   -1.359997    4.00740  0.0000E+00  0.1213E-07  0.9397E-12  0.5818E-04  0.0000E+00 -0.1035E+12
   -1.402496    4.00771  0.0000E+00  0.1215E-07  0.9896E-12  0.5576E-04  0.0000E+00 -0.1101E+12
   -1.444995    4.00804  0.0000E+00  0.1216E-07  0.1049E-11  0.5308E-04  0.0000E+00 -0.1179E+12
   -1.487494    4.00838  0.0000E+00  0.1216E-07  0.1124E-11  0.4978E-04  0.0000E+00 -0.1287E+12
   -1.529993    4.00875  0.0000E+00  0.1212E-07  0.1237E-11  0.4542E-04  0.0000E+00 -0.1481E+12
   -1.572491    4.00917  0.0000E+00  0.1201E-07  0.1518E-11  0.3336E-04  0.0000E+00 -0.2314E+12
   -1.614988    4.00980  0.0000E+00  0.1140E-07  0.2952E-11  0.1058E-04  0.0000E+00 -0.8714E+12
   -1.657486    4.01206  0.0000E+00  0.8102E-08  0.1225E-10  0.9052E-06  0.0000E+00 -0.1749E+14
   -1.699983    4.04014  0.0000E+00  0.0000E+00  0.0000E+00  0.0000E+00  0.0000E+00  0.0000E+00
