 1 - depth, m
 2 - temperature, C
 3 - salinity, kg/kg
 4 - turbulent kinetic energy, m**2/s**2
 5 - dissipation rate, m**2/s**3
 6 - kinematic heat conductance, m**2/s
 7 - modulus of horizontal velocity, m/s
 8 - Richardson number, n/d
   -0.000000   12.85167  0.0000E+00  0.1951E-03  0.1072E-03  0.5842E-04  0.1277E+00  0.3094E-01
   -0.042497   12.92531  0.0000E+00  0.1040E-03  0.3340E-04  0.1228E-03  0.3068E-01 -0.4148E-01
   -0.084995   12.93819  0.0000E+00  0.7378E-04  0.1612E-04  0.1099E-03  0.2083E-01 -0.2999E-01
   -0.127493   12.94719  0.0000E+00  0.5443E-04  0.8166E-05  0.1036E-03  0.1627E-01 -0.1984E+00
   -0.169991   12.95425  0.0000E+00  0.4068E-04  0.4267E-05  0.1024E-03  0.1295E-01 -0.1708E+00
   -0.212490   12.96042  0.0000E+00  0.3056E-04  0.2241E-05  0.1054E-03  0.1029E-01  0.2919E+01
   -0.254989   12.96602  0.0000E+00  0.2318E-04  0.1190E-05  0.1123E-03  0.8212E-02  0.1044E+03
   -0.297489   12.97110  0.0000E+00  0.1797E-04  0.6582E-06  0.1231E-03  0.6637E-02  0.5183E+01
   -0.339988   12.97569  0.0000E+00  0.1440E-04  0.3913E-06  0.1395E-03  0.5393E-02  0.1872E+02
   -0.382488   12.97970  0.0000E+00  0.1192E-04  0.2496E-06  0.1677E-03  0.4384E-02  0.2159E+02
   -0.424988   12.98302  0.0000E+00  0.1020E-04  0.1685E-06  0.2085E-03  0.3614E-02  0.2152E+02
   -0.467489   12.98571  0.0000E+00  0.8976E-05  0.1181E-06  0.2535E-03  0.2988E-02  0.3622E+02
   -0.509989   12.98792  0.0000E+00  0.8087E-05  0.8571E-07  0.2980E-03  0.2474E-02  0.1665E+03
   -0.552490   12.98973  0.0000E+00  0.7429E-05  0.6431E-07  0.3390E-03  0.2045E-02  0.3825E+02
   -0.594991   12.99125  0.0000E+00  0.6933E-05  0.4995E-07  0.3787E-03  0.1678E-02  0.1039E+02
   -0.637492   12.99256  0.0000E+00  0.6544E-05  0.3983E-07  0.4181E-03  0.1367E-02  0.5299E+02
   -0.679993   12.99371  0.0000E+00  0.6239E-05  0.3257E-07  0.4562E-03  0.1115E-02  0.2662E+02
   -0.722494   12.99473  0.0000E+00  0.6001E-05  0.2731E-07  0.4945E-03  0.9107E-03  0.2734E+01
   -0.764995   12.99565  0.0000E+00  0.5816E-05  0.2345E-07  0.5313E-03  0.7509E-03  0.2661E+02
   -0.807497   12.99647  0.0000E+00  0.5672E-05  0.2057E-07  0.5649E-03  0.6299E-03  0.2472E+01
   -0.849998   12.99722  0.0000E+00  0.5562E-05  0.1844E-07  0.5933E-03  0.5355E-03  0.1123E+01
   -0.892499   12.99792  0.0000E+00  0.5475E-05  0.1680E-07  0.6171E-03  0.4606E-03  0.1105E+01
   -0.935001   12.99860  0.0000E+00  0.5406E-05  0.1553E-07  0.6373E-03  0.4005E-03  0.1156E+01
   -0.977502   12.99924  0.0000E+00  0.5350E-05  0.1455E-07  0.6546E-03  0.3503E-03  0.1213E+01
   -1.020003   12.99987  0.0000E+00  0.5303E-05  0.1379E-07  0.6690E-03  0.3085E-03  0.1323E+01
   -1.062504   13.00048  0.0000E+00  0.5264E-05  0.1321E-07  0.6801E-03  0.2723E-03  0.1440E+01
   -1.105005   13.00108  0.0000E+00  0.5228E-05  0.1277E-07  0.6877E-03  0.2408E-03  0.1590E+01
   -1.147506   13.00167  0.0000E+00  0.5196E-05  0.1246E-07  0.6915E-03  0.2121E-03  0.1771E+01
   -1.190007   13.00226  0.0000E+00  0.5166E-05  0.1226E-07  0.6908E-03  0.1854E-03  0.1940E+01
   -1.232507   13.00285  0.0000E+00  0.5135E-05  0.1217E-07  0.6853E-03  0.1608E-03  0.2172E+01
   -1.275008   13.00345  0.0000E+00  0.5102E-05  0.1218E-07  0.6750E-03  0.1395E-03  0.2693E+01
   -1.317508   13.00406  0.0000E+00  0.5067E-05  0.1230E-07  0.6597E-03  0.1211E-03  0.3484E+01
   -1.360008   13.00468  0.0000E+00  0.5025E-05  0.1256E-07  0.6366E-03  0.1052E-03  0.4647E+01
   -1.402507   13.00532  0.0000E+00  0.4973E-05  0.1304E-07  0.6059E-03  0.9129E-04  0.6851E+01
   -1.445007   13.00599  0.0000E+00  0.4914E-05  0.1378E-07  0.5639E-03  0.7856E-04  0.1019E+02
   -1.487506   13.00673  0.0000E+00  0.4845E-05  0.1492E-07  0.5269E-03  0.6586E-04  0.1245E+03
   -1.530005   13.00754  0.0000E+00  0.4750E-05  0.1720E-07  0.4370E-03  0.5359E-04 -0.2006E+01
   -1.572503   13.00860  0.0000E+00  0.4590E-05  0.2246E-07  0.4816E-03  0.4124E-04  0.7558E+04
   -1.615001   13.00940  0.0000E+00  0.4036E-05  0.4812E-07  0.1841E-03  0.3452E-04 -0.3523E+07
   -1.657499   13.01535  0.0000E+00  0.2592E-05  0.1458E-06  0.6257E-04  0.2166E-04 -0.1006E+06
   -1.699996   13.02215  0.0000E+00  0.0000E+00  0.0000E+00  0.0000E+00  0.2673E-04  0.0000E+00
