 1 - depth, m
 2 - temperature, C
 3 - salinity, kg/kg
 4 - turbulent kinetic energy, m**2/s**2
 5 - dissipation rate, m**2/s**3
 6 - kinematic heat conductance, m**2/s
 7 - modulus of horizontal velocity, m/s
 8 - Richardson number, n/d
   -0.000000    5.83986  0.0000E+00  0.3720E-03  0.3840E-03  0.6484E-04  0.2046E+00  0.3630E-03
   -0.042497    5.88333  0.0000E+00  0.1907E-03  0.1210E-03  0.1825E-03  0.4673E-01 -0.3932E-02
   -0.084995    5.89150  0.0000E+00  0.1319E-03  0.5923E-04  0.1426E-03  0.3095E-01 -0.1185E-01
   -0.127493    5.89868  0.0000E+00  0.9599E-04  0.2917E-04  0.1252E-03  0.2453E-01 -0.1828E-01
   -0.169992    5.90495  0.0000E+00  0.6992E-04  0.1318E-04  0.1153E-03  0.1974E-01 -0.1333E-01
   -0.212491    5.91088  0.0000E+00  0.5088E-04  0.6197E-05  0.1094E-03  0.1577E-01 -0.2367E-01
   -0.254990    5.91689  0.0000E+00  0.3701E-04  0.2706E-05  0.1063E-03  0.1258E-01 -0.5334E-01
   -0.297489    5.92336  0.0000E+00  0.2788E-04  0.1330E-05  0.1042E-03  0.1007E-01 -0.1044E+00
   -0.339989    5.92986  0.0000E+00  0.2185E-04  0.7797E-06  0.1036E-03  0.8141E-02 -0.1013E+00
   -0.382489    5.93583  0.0000E+00  0.1757E-04  0.4967E-06  0.1064E-03  0.6647E-02  0.1098E+02
   -0.424989    5.94079  0.0000E+00  0.1451E-04  0.3352E-06  0.1106E-03  0.5535E-02  0.5577E+01
   -0.467490    5.94514  0.0000E+00  0.1220E-04  0.2348E-06  0.1183E-03  0.4584E-02  0.4149E+02
   -0.509990    5.94893  0.0000E+00  0.1040E-04  0.1687E-06  0.1281E-03  0.3771E-02  0.4015E+01
   -0.552491    5.95227  0.0000E+00  0.8942E-05  0.1235E-06  0.1400E-03  0.3079E-02  0.1806E+02
   -0.594992    5.95523  0.0000E+00  0.7739E-05  0.9168E-07  0.1542E-03  0.2482E-02  0.9228E+02
   -0.637493    5.95785  0.0000E+00  0.6720E-05  0.6863E-07  0.1708E-03  0.1981E-02  0.1737E+03
   -0.679994    5.96017  0.0000E+00  0.5862E-05  0.5178E-07  0.1868E-03  0.1583E-02  0.3223E+03
   -0.722495    5.96226  0.0000E+00  0.5139E-05  0.3932E-07  0.2022E-03  0.1264E-02  0.5439E+02
   -0.764997    5.96418  0.0000E+00  0.4529E-05  0.3003E-07  0.2167E-03  0.1015E-02  0.7642E+01
   -0.807498    5.96594  0.0000E+00  0.4017E-05  0.2305E-07  0.2317E-03  0.8264E-03  0.3663E+02
   -0.850000    5.96757  0.0000E+00  0.3595E-05  0.1789E-07  0.2457E-03  0.6770E-03  0.1098E+03
   -0.892501    5.96908  0.0000E+00  0.3245E-05  0.1402E-07  0.2598E-03  0.5575E-03  0.2875E+02
   -0.935002    5.97050  0.0000E+00  0.2958E-05  0.1116E-07  0.2726E-03  0.4617E-03  0.6146E+02
   -0.977504    5.97183  0.0000E+00  0.2723E-05  0.9025E-08  0.2862E-03  0.3822E-03  0.1407E+03
   -1.020005    5.97307  0.0000E+00  0.2532E-05  0.7435E-08  0.2999E-03  0.3174E-03  0.1248E+03
   -1.062506    5.97423  0.0000E+00  0.2377E-05  0.6253E-08  0.3133E-03  0.2631E-03  0.5329E+02
   -1.105007    5.97531  0.0000E+00  0.2252E-05  0.5370E-08  0.3239E-03  0.2183E-03  0.6358E+02
   -1.147508    5.97632  0.0000E+00  0.2153E-05  0.4725E-08  0.3331E-03  0.1797E-03  0.4210E+02
   -1.190009    5.97727  0.0000E+00  0.2076E-05  0.4259E-08  0.3408E-03  0.1455E-03  0.4931E+02
   -1.232510    5.97816  0.0000E+00  0.2013E-05  0.3912E-08  0.3474E-03  0.1158E-03  0.2791E+03
   -1.275010    5.97901  0.0000E+00  0.1960E-05  0.3652E-08  0.3519E-03  0.9201E-04  0.8177E+02
   -1.317510    5.97983  0.0000E+00  0.1915E-05  0.3458E-08  0.3537E-03  0.7310E-04  0.2027E+03
   -1.360010    5.98063  0.0000E+00  0.1875E-05  0.3318E-08  0.3522E-03  0.5822E-04  0.1624E+03
   -1.402510    5.98142  0.0000E+00  0.1838E-05  0.3223E-08  0.3474E-03  0.4673E-04  0.8288E+03
   -1.445009    5.98220  0.0000E+00  0.1806E-05  0.3184E-08  0.3395E-03  0.3737E-04  0.4288E+03
   -1.487509    5.98298  0.0000E+00  0.1778E-05  0.3204E-08  0.3271E-03  0.2910E-04  0.5160E+03
   -1.530007    5.98377  0.0000E+00  0.1751E-05  0.3313E-08  0.3068E-03  0.2178E-04  0.9611E+03
   -1.572506    5.98461  0.0000E+00  0.1714E-05  0.3640E-08  0.2683E-03  0.1583E-04  0.1450E+04
   -1.615004    5.98557  0.0000E+00  0.1618E-05  0.4894E-08  0.1897E-03  0.1194E-04  0.1383E+05
   -1.657502    5.98695  0.0000E+00  0.1091E-05  0.1613E-07  0.1089E-04  0.8582E-05 -0.3330E+07
   -1.699999    6.01014  0.0000E+00  0.0000E+00  0.0000E+00  0.0000E+00  0.8593E-05  0.0000E+00
