 1 - depth, m
 2 - temperature, C
 3 - salinity, kg/kg
 4 - turbulent kinetic energy, m**2/s**2
 5 - dissipation rate, m**2/s**3
 6 - kinematic heat conductance, m**2/s
 7 - modulus of horizontal velocity, m/s
 8 - Richardson number, n/d
   -0.000000   12.31380  0.0000E+00  0.6640E-03  0.1179E-02  0.9851E-04  0.2870E+00 -0.8386E-02
   -0.042497   12.45752  0.0000E+00  0.3252E-03  0.3641E-03  0.2642E-03  0.6007E-01 -0.1646E+00
   -0.084995   12.48351  0.0000E+00  0.2317E-03  0.1846E-03  0.2388E-03  0.3768E-01 -0.8634E+00
   -0.127493   12.50049  0.0000E+00  0.1765E-03  0.1046E-03  0.2058E-03  0.3045E-01  0.1431E+01
   -0.169991   12.51324  0.0000E+00  0.1337E-03  0.5632E-04  0.1899E-03  0.2521E-01  0.3065E-02
   -0.212490   12.52430  0.0000E+00  0.1022E-03  0.3161E-04  0.1874E-03  0.2076E-01  0.6301E+02
   -0.254989   12.53413  0.0000E+00  0.7768E-04  0.1643E-04  0.1940E-03  0.1731E-01  0.6812E+02
   -0.297489   12.54294  0.0000E+00  0.6010E-04  0.8790E-05  0.2030E-03  0.1475E-01  0.2079E+02
   -0.339988   12.55100  0.0000E+00  0.4764E-04  0.4628E-05  0.2141E-03  0.1261E-01  0.2937E+02
   -0.382488   12.55845  0.0000E+00  0.3882E-04  0.2459E-05  0.2319E-03  0.1058E-01  0.1973E+02
   -0.424988   12.56484  0.0000E+00  0.3265E-04  0.1425E-05  0.2475E-03  0.8981E-02  0.4680E+02
   -0.467489   12.57054  0.0000E+00  0.2814E-04  0.8949E-06  0.2745E-03  0.7561E-02  0.1271E+03
   -0.509989   12.57522  0.0000E+00  0.2475E-04  0.6181E-06  0.3054E-03  0.6389E-02  0.2233E+03
   -0.552490   12.57908  0.0000E+00  0.2210E-04  0.4509E-06  0.3421E-03  0.5420E-02  0.8480E+02
   -0.594991   12.58250  0.0000E+00  0.1995E-04  0.3406E-06  0.3856E-03  0.4584E-02  0.3486E+02
   -0.637492   12.58523  0.0000E+00  0.1815E-04  0.2650E-06  0.4303E-03  0.3878E-02  0.3319E+02
   -0.679993   12.58765  0.0000E+00  0.1663E-04  0.2105E-06  0.4746E-03  0.3294E-02  0.3403E+02
   -0.722494   12.58963  0.0000E+00  0.1531E-04  0.1697E-06  0.5193E-03  0.2806E-02  0.1163E+02
   -0.764995   12.59141  0.0000E+00  0.1417E-04  0.1382E-06  0.5617E-03  0.2404E-02  0.1883E+02
   -0.807496   12.59298  0.0000E+00  0.1317E-04  0.1135E-06  0.5985E-03  0.2080E-02  0.3655E+02
   -0.849998   12.59441  0.0000E+00  0.1230E-04  0.9412E-07  0.6300E-03  0.1809E-02  0.1013E+02
   -0.892499   12.59573  0.0000E+00  0.1154E-04  0.7875E-07  0.6592E-03  0.1580E-02  0.5174E+01
   -0.935000   12.59696  0.0000E+00  0.1089E-04  0.6667E-07  0.6828E-03  0.1386E-02  0.9397E+01
   -0.977502   12.59811  0.0000E+00  0.1031E-04  0.5707E-07  0.7016E-03  0.1216E-02  0.6653E+01
   -1.020003   12.59921  0.0000E+00  0.9808E-05  0.4944E-07  0.7161E-03  0.1068E-02  0.3232E+01
   -1.062504   12.60025  0.0000E+00  0.9362E-05  0.4341E-07  0.7256E-03  0.9354E-03  0.1040E+02
   -1.105005   12.60125  0.0000E+00  0.8963E-05  0.3863E-07  0.7290E-03  0.8171E-03  0.7030E+01
   -1.147506   12.60220  0.0000E+00  0.8610E-05  0.3495E-07  0.7279E-03  0.7072E-03  0.5032E+01
   -1.190006   12.60311  0.0000E+00  0.8299E-05  0.3223E-07  0.7226E-03  0.6025E-03  0.3946E+01
   -1.232507   12.60399  0.0000E+00  0.8012E-05  0.3022E-07  0.7161E-03  0.5051E-03  0.3701E+01
   -1.275007   12.60486  0.0000E+00  0.7745E-05  0.2885E-07  0.7017E-03  0.4224E-03  0.4595E+01
   -1.317507   12.60572  0.0000E+00  0.7497E-05  0.2809E-07  0.6777E-03  0.3540E-03  0.5686E+01
   -1.360007   12.60660  0.0000E+00  0.7257E-05  0.2797E-07  0.6426E-03  0.2988E-03  0.3713E+01
   -1.402507   12.60751  0.0000E+00  0.7006E-05  0.2876E-07  0.6109E-03  0.2550E-03  0.1356E+02
   -1.445006   12.60847  0.0000E+00  0.6742E-05  0.3127E-07  0.5501E-03  0.2178E-03  0.2654E+02
   -1.487505   12.60965  0.0000E+00  0.6448E-05  0.3606E-07  0.5184E-03  0.1775E-03 -0.7550E+01
   -1.530004   12.61088  0.0000E+00  0.6064E-05  0.4764E-07  0.4205E-03  0.1384E-03  0.3291E+05
   -1.572502   12.61323  0.0000E+00  0.5562E-05  0.7501E-07  0.4263E-03  0.9488E-04  0.3631E+05
   -1.615000   12.61376  0.0000E+00  0.4516E-05  0.1971E-06  0.1978E-03  0.7551E-04 -0.3144E+07
   -1.657498   12.62362  0.0000E+00  0.2977E-05  0.5064E-06  0.9744E-04  0.4635E-04 -0.1556E+07
   -1.699995   12.63011  0.0000E+00  0.0000E+00  0.0000E+00  0.0000E+00  0.7826E-04  0.0000E+00
