 1 - depth, m
 2 - temperature, C
 3 - salinity, kg/kg
 4 - turbulent kinetic energy, m**2/s**2
 5 - dissipation rate, m**2/s**3
 6 - kinematic heat conductance, m**2/s
 7 - modulus of horizontal velocity, m/s
 8 - Richardson number, n/d
   -0.000000   12.00455  0.0000E+00  0.5735E-02  0.1677E+00  0.3553E-03  0.1490E+01  0.1722E-03
   -0.042498   12.06356  0.0000E+00  0.2802E-02  0.1155E+00  0.5708E-03  0.3188E+00 -0.1742E+00
   -0.084996   12.09570  0.0000E+00  0.1760E-02  0.3622E-01  0.8159E-03  0.1620E+00 -0.1400E+00
   -0.127494   12.10606  0.0000E+00  0.1318E-02  0.2258E-01  0.8172E-03  0.1185E+00  0.2140E+00
   -0.169993   12.10982  0.0000E+00  0.1044E-02  0.1518E-01  0.7145E-03  0.9518E-01  0.3555E+00
   -0.212492   12.11306  0.0000E+00  0.8520E-03  0.9184E-02  0.7155E-03  0.7741E-01  0.7198E-01
   -0.254991   12.11538  0.0000E+00  0.7078E-03  0.6852E-02  0.6826E-03  0.6508E-01  0.5604E+01
   -0.297491   12.11639  0.0000E+00  0.5982E-03  0.4874E-02  0.6634E-03  0.5802E-01  0.2938E+01
   -0.339991   12.11690  0.0000E+00  0.5054E-03  0.3069E-02  0.6535E-03  0.5280E-01  0.1043E+01
   -0.382491   12.11757  0.0000E+00  0.4359E-03  0.2250E-02  0.6380E-03  0.4803E-01  0.3269E+02
   -0.424991   12.11775  0.0000E+00  0.3792E-03  0.1652E-02  0.6319E-03  0.4543E-01  0.8173E+00
   -0.467492   12.11845  0.0000E+00  0.3356E-03  0.1207E-02  0.6275E-03  0.4153E-01  0.5456E+01
   -0.509993   12.11944  0.0000E+00  0.2993E-03  0.8694E-03  0.6258E-03  0.3740E-01  0.1204E+02
   -0.552494   12.12031  0.0000E+00  0.2689E-03  0.6121E-03  0.6263E-03  0.3378E-01  0.5897E+02
   -0.594995   12.12152  0.0000E+00  0.2422E-03  0.4230E-03  0.6226E-03  0.3008E-01  0.1657E+02
   -0.637496   12.12296  0.0000E+00  0.2193E-03  0.2884E-03  0.6316E-03  0.2673E-01 -0.1985E+01
   -0.679998   12.12392  0.0000E+00  0.1998E-03  0.1962E-03  0.6387E-03  0.2431E-01  0.2237E+01
   -0.722499   12.12509  0.0000E+00  0.1825E-03  0.1344E-03  0.6426E-03  0.2215E-01  0.5648E+02
   -0.765001   12.12605  0.0000E+00  0.1672E-03  0.9286E-04  0.6480E-03  0.2041E-01  0.5109E+03
   -0.807503   12.12636  0.0000E+00  0.1538E-03  0.6437E-04  0.6554E-03  0.1915E-01  0.5323E+03
   -0.850004   12.12689  0.0000E+00  0.1419E-03  0.4503E-04  0.6560E-03  0.1800E-01  0.3481E+03
   -0.892506   12.12750  0.0000E+00  0.1312E-03  0.3166E-04  0.6591E-03  0.1691E-01 -0.4814E+04
   -0.935007   12.12800  0.0000E+00  0.1217E-03  0.2244E-04  0.6618E-03  0.1598E-01  0.1017E+04
   -0.977509   12.12872  0.0000E+00  0.1132E-03  0.1605E-04  0.6638E-03  0.1501E-01  0.2744E+05
   -1.020010   12.12936  0.0000E+00  0.1058E-03  0.1161E-04  0.6651E-03  0.1418E-01 -0.7343E+03
   -1.062512   12.13011  0.0000E+00  0.9902E-04  0.8507E-05  0.6660E-03  0.1331E-01  0.7194E+03
   -1.105013   12.13086  0.0000E+00  0.9305E-04  0.6325E-05  0.6631E-03  0.1252E-01  0.7200E+02
   -1.147514   12.13163  0.0000E+00  0.8769E-04  0.4811E-05  0.6546E-03  0.1169E-01  0.2355E+03
   -1.190015   12.13271  0.0000E+00  0.8293E-04  0.3786E-05  0.6477E-03  0.1073E-01  0.9833E+02
   -1.232516   12.13394  0.0000E+00  0.7847E-04  0.3061E-05  0.6441E-03  0.9786E-02  0.8293E+02
   -1.275017   12.13508  0.0000E+00  0.7414E-04  0.2555E-05  0.6351E-03  0.8974E-02  0.6280E+03
   -1.317517   12.13603  0.0000E+00  0.6995E-04  0.2223E-05  0.6213E-03  0.8221E-02 -0.2426E+04
   -1.360017   12.13728  0.0000E+00  0.6578E-04  0.2044E-05  0.6003E-03  0.7526E-02 -0.5615E+05
   -1.402517   12.13811  0.0000E+00  0.6143E-04  0.2016E-05  0.5635E-03  0.6919E-02 -0.1836E+07
   -1.445017   12.13936  0.0000E+00  0.5729E-04  0.2171E-05  0.5214E-03  0.6325E-02 -0.7542E+05
   -1.487517   12.14063  0.0000E+00  0.5316E-04  0.2554E-05  0.4716E-03  0.5585E-02 -0.1033E+07
   -1.530016   12.14271  0.0000E+00  0.4871E-04  0.3407E-05  0.4222E-03  0.4541E-02 -0.7256E+06
   -1.572514   12.14505  0.0000E+00  0.4363E-04  0.5558E-05  0.3801E-03  0.3631E-02  0.8070E+08
   -1.615013   12.14675  0.0000E+00  0.3530E-04  0.1370E-04  0.2269E-03  0.3123E-02 -0.3555E+10
   -1.657511   12.15072  0.0000E+00  0.2452E-04  0.3245E-04  0.1756E-03  0.2442E-02 -0.2765E+09
   -1.700008   12.16698  0.0000E+00  0.0000E+00  0.0000E+00  0.0000E+00  0.3877E-02  0.0000E+00
