 1 - depth, m
 2 - temperature, C
 3 - salinity, kg/kg
 4 - turbulent kinetic energy, m**2/s**2
 5 - dissipation rate, m**2/s**3
 6 - kinematic heat conductance, m**2/s
 7 - modulus of horizontal velocity, m/s
 8 - Richardson number, n/d
   -0.000000   11.95020  0.0000E+00  0.2409E-03  0.1815E-03  0.7519E-04  0.1609E+00  0.3953E-02
   -0.042497   12.02196  0.0000E+00  0.1295E-03  0.5356E-04  0.1275E-03  0.4025E-01 -0.2768E-01
   -0.084995   12.03525  0.0000E+00  0.8945E-04  0.2280E-04  0.1161E-03  0.2650E-01 -0.9386E-01
   -0.127493   12.04597  0.0000E+00  0.6573E-04  0.1133E-04  0.1126E-03  0.2059E-01 -0.7390E-01
   -0.169992   12.05469  0.0000E+00  0.4952E-04  0.5909E-05  0.1138E-03  0.1640E-01  0.1044E+00
   -0.212490   12.06232  0.0000E+00  0.3760E-04  0.3066E-05  0.1181E-03  0.1308E-01  0.6995E+01
   -0.254990   12.06937  0.0000E+00  0.2899E-04  0.1650E-05  0.1266E-03  0.1048E-01  0.1177E+02
   -0.297489   12.07564  0.0000E+00  0.2290E-04  0.9200E-06  0.1374E-03  0.8544E-02  0.6211E+01
   -0.339989   12.08127  0.0000E+00  0.1864E-04  0.5407E-06  0.1520E-03  0.7045E-02  0.6749E+01
   -0.382489   12.08613  0.0000E+00  0.1561E-04  0.3442E-06  0.1745E-03  0.5822E-02  0.2641E+02
   -0.424989   12.09024  0.0000E+00  0.1344E-04  0.2305E-06  0.2100E-03  0.4869E-02  0.7592E+02
   -0.467489   12.09369  0.0000E+00  0.1185E-04  0.1617E-06  0.2590E-03  0.4071E-02  0.3121E+02
   -0.509990   12.09642  0.0000E+00  0.1064E-04  0.1185E-06  0.3046E-03  0.3407E-02  0.1251E+03
   -0.552491   12.09874  0.0000E+00  0.9714E-05  0.8987E-07  0.3511E-03  0.2839E-02  0.1449E+03
   -0.594991   12.10066  0.0000E+00  0.8981E-05  0.7027E-07  0.3965E-03  0.2348E-02  0.3497E+02
   -0.637492   12.10230  0.0000E+00  0.8382E-05  0.5621E-07  0.4409E-03  0.1929E-02  0.1812E+02
   -0.679994   12.10371  0.0000E+00  0.7891E-05  0.4592E-07  0.4822E-03  0.1585E-02  0.5212E+01
   -0.722495   12.10495  0.0000E+00  0.7486E-05  0.3823E-07  0.5208E-03  0.1301E-02  0.3271E+01
   -0.764996   12.10606  0.0000E+00  0.7150E-05  0.3240E-07  0.5603E-03  0.1074E-02  0.3460E+02
   -0.807497   12.10707  0.0000E+00  0.6875E-05  0.2796E-07  0.5948E-03  0.9000E-03  0.2115E+01
   -0.849999   12.10799  0.0000E+00  0.6653E-05  0.2459E-07  0.6249E-03  0.7617E-03  0.5481E+01
   -0.892500   12.10885  0.0000E+00  0.6469E-05  0.2199E-07  0.6501E-03  0.6507E-03  0.1436E+01
   -0.935002   12.10967  0.0000E+00  0.6317E-05  0.1996E-07  0.6704E-03  0.5613E-03  0.1340E+01
   -0.977503   12.11045  0.0000E+00  0.6188E-05  0.1838E-07  0.6880E-03  0.4864E-03  0.1370E+01
   -1.020004   12.11120  0.0000E+00  0.6078E-05  0.1713E-07  0.7021E-03  0.4241E-03  0.1444E+01
   -1.062505   12.11192  0.0000E+00  0.5983E-05  0.1617E-07  0.7127E-03  0.3708E-03  0.1501E+01
   -1.105006   12.11262  0.0000E+00  0.5898E-05  0.1542E-07  0.7194E-03  0.3247E-03  0.1589E+01
   -1.147507   12.11331  0.0000E+00  0.5822E-05  0.1488E-07  0.7221E-03  0.2834E-03  0.1697E+01
   -1.190008   12.11398  0.0000E+00  0.5755E-05  0.1451E-07  0.7198E-03  0.2455E-03  0.1791E+01
   -1.232508   12.11464  0.0000E+00  0.5691E-05  0.1428E-07  0.7127E-03  0.2109E-03  0.1919E+01
   -1.275009   12.11530  0.0000E+00  0.5629E-05  0.1419E-07  0.7006E-03  0.1817E-03  0.2295E+01
   -1.317509   12.11597  0.0000E+00  0.5566E-05  0.1424E-07  0.6831E-03  0.1571E-03  0.2899E+01
   -1.360009   12.11664  0.0000E+00  0.5500E-05  0.1446E-07  0.6581E-03  0.1363E-03  0.3794E+01
   -1.402509   12.11734  0.0000E+00  0.5423E-05  0.1490E-07  0.6256E-03  0.1185E-03  0.5468E+01
   -1.445008   12.11806  0.0000E+00  0.5341E-05  0.1564E-07  0.5809E-03  0.1022E-03  0.8191E+01
   -1.487507   12.11884  0.0000E+00  0.5254E-05  0.1681E-07  0.5446E-03  0.8616E-04  0.9927E+01
   -1.530006   12.11967  0.0000E+00  0.5142E-05  0.1914E-07  0.4479E-03  0.7057E-04  0.3030E+03
   -1.572504   12.12076  0.0000E+00  0.4957E-05  0.2476E-07  0.4982E-03  0.5470E-04  0.7601E+02
   -1.615003   12.12162  0.0000E+00  0.4314E-05  0.5262E-07  0.1896E-03  0.4587E-04 -0.9892E+06
   -1.657500   12.12791  0.0000E+00  0.2757E-05  0.1594E-06  0.6735E-04  0.2893E-04 -0.1520E+05
   -1.699998   12.13446  0.0000E+00  0.0000E+00  0.0000E+00  0.0000E+00  0.3575E-04  0.0000E+00
