 1 - depth, m
 2 - temperature, C
 3 - salinity, kg/kg
 4 - turbulent kinetic energy, m**2/s**2
 5 - dissipation rate, m**2/s**3
 6 - kinematic heat conductance, m**2/s
 7 - modulus of horizontal velocity, m/s
 8 - Richardson number, n/d
   -0.000000    0.00000  0.0000E+00  0.3189E-13  0.5206E-16  0.1000E-09  0.0000E+00  0.8671E+16
   -0.042497    0.13242  0.0000E+00  0.3189E-13  0.5206E-16  0.1000E-09  0.0000E+00  0.8748E+16
   -0.084995    0.27113  0.0000E+00  0.3189E-13  0.5206E-16  0.1000E-09  0.0000E+00  0.8744E+16
   -0.127493    0.41551  0.0000E+00  0.3189E-13  0.5206E-16  0.1000E-09  0.0000E+00  0.8332E+16
   -0.169992    0.55909  0.0000E+00  0.3189E-13  0.5206E-16  0.1000E-09  0.0000E+00  0.7916E+16
   -0.212491    0.70167  0.0000E+00  0.3189E-13  0.5206E-16  0.1000E-09  0.0000E+00  0.7496E+16
   -0.254990    0.84298  0.0000E+00  0.3189E-13  0.5206E-16  0.1000E-09  0.0000E+00  0.7073E+16
   -0.297490    0.98275  0.0000E+00  0.3189E-13  0.5206E-16  0.1000E-09  0.0000E+00  0.6661E+16
   -0.339989    1.12093  0.0000E+00  0.3189E-13  0.5206E-16  0.1000E-09  0.0000E+00  0.6265E+16
   -0.382489    1.25760  0.0000E+00  0.3189E-13  0.5206E-16  0.1000E-09  0.0000E+00  0.5875E+16
   -0.424990    1.39258  0.0000E+00  0.3189E-13  0.5206E-16  0.1000E-09  0.0000E+00  0.5504E+16
   -0.467490    1.52607  0.0000E+00  0.3189E-13  0.5206E-16  0.1000E-09  0.0000E+00  0.5139E+16
   -0.509991    1.65791  0.0000E+00  0.3189E-13  0.5206E-16  0.1000E-09  0.0000E+00  0.4799E+16
   -0.552492    1.78845  0.0000E+00  0.3189E-13  0.5206E-16  0.1000E-09  0.0000E+00  0.4468E+16
   -0.594993    1.91764  0.0000E+00  0.3189E-13  0.5206E-16  0.1000E-09  0.0000E+00  0.4137E+16
   -0.637494    2.04521  0.0000E+00  0.3189E-13  0.5206E-16  0.1000E-09  0.0000E+00  0.3806E+16
   -0.679995    2.17071  0.0000E+00  0.3189E-13  0.5206E-16  0.1000E-09  0.0000E+00  0.3479E+16
   -0.722496    2.29384  0.0000E+00  0.3189E-13  0.5206E-16  0.1000E-09  0.0000E+00  0.3154E+16
   -0.764998    2.41402  0.0000E+00  0.3189E-13  0.5206E-16  0.1000E-09  0.0000E+00  0.2834E+16
   -0.807499    2.53068  0.0000E+00  0.3189E-13  0.5206E-16  0.1000E-09  0.0000E+00  0.2536E+16
   -0.850001    2.64382  0.0000E+00  0.3189E-13  0.5206E-16  0.1000E-09  0.0000E+00  0.2253E+16
   -0.892502    2.75323  0.0000E+00  0.3189E-13  0.5206E-16  0.1000E-09  0.0000E+00  0.2006E+16
   -0.935003    2.85973  0.0000E+00  0.3189E-13  0.5206E-16  0.1000E-09  0.0000E+00  0.1788E+16
   -0.977505    2.96419  0.0000E+00  0.3189E-13  0.5206E-16  0.1000E-09  0.0000E+00  0.1579E+16
   -1.020006    3.06638  0.0000E+00  0.1428E-12  0.5935E-16  0.1000E-09  0.0000E+00  0.1381E+16
   -1.062507    3.16629  0.0000E+00  0.4077E-12  0.1256E-15  0.1000E-09  0.0000E+00  0.1192E+16
   -1.105008    3.26371  0.0000E+00  0.9999E-12  0.2854E-15  0.1000E-09  0.0000E+00  0.1016E+16
   -1.147509    3.35875  0.0000E+00  0.2314E-11  0.6376E-15  0.1000E-09  0.0000E+00  0.8522E+15
   -1.190010    3.45149  0.0000E+00  0.5243E-11  0.1407E-14  0.1000E-09  0.0000E+00  0.6945E+15
   -1.232511    3.54128  0.0000E+00  0.1207E-10  0.3156E-14  0.1000E-09  0.0000E+00  0.5381E+15
   -1.275011    3.62606  0.0000E+00  0.2797E-10  0.7139E-14  0.1000E-09  0.0000E+00  0.4045E+15
   -1.317512    3.70631  0.0000E+00  0.6509E-10  0.1622E-13  0.1687E-09  0.0000E+00  0.3009E+15
   -1.360012    3.78598  0.0000E+00  0.1525E-09  0.3713E-13  0.5809E-09  0.0000E+00  0.1996E+15
   -1.402511    3.86498  0.0000E+00  0.3602E-09  0.8574E-13  0.2653E-08  0.0000E+00  0.1003E+15
   -1.445011    3.94229  0.0000E+00  0.7970E-09  0.1863E-12  0.4083E-07  0.0000E+00  0.1309E+14
   -1.487510    4.00281  0.0000E+00  0.1428E-08  0.3374E-12  0.2816E-05  0.0000E+00 -0.1073E+13
   -1.530009    4.00654  0.0000E+00  0.1739E-08  0.4510E-12  0.2938E-05  0.0000E+00 -0.1265E+13
   -1.572508    4.01020  0.0000E+00  0.1949E-08  0.6315E-12  0.2469E-05  0.0000E+00 -0.1925E+13
   -1.615006    4.01489  0.0000E+00  0.2042E-08  0.1132E-11  0.1231E-05  0.0000E+00 -0.5119E+13
   -1.657504    4.02466  0.0000E+00  0.1768E-08  0.2551E-11  0.3188E-06  0.0000E+00 -0.2923E+14
   -1.700001    4.05845  0.0000E+00  0.0000E+00  0.0000E+00  0.0000E+00  0.0000E+00  0.0000E+00
