 1 - depth, m
 2 - temperature, C
 3 - salinity, kg/kg
 4 - turbulent kinetic energy, m**2/s**2
 5 - dissipation rate, m**2/s**3
 6 - kinematic heat conductance, m**2/s
 7 - modulus of horizontal velocity, m/s
 8 - Richardson number, n/d
   -0.000000    7.95109  0.0000E+00  0.9426E-04  0.8764E-04  0.4681E-04  0.6949E-01  0.5057E-04
   -0.042497    7.95183  0.0000E+00  0.4869E-04  0.2884E-04  0.6272E-04  0.2042E-01  0.7082E-03
   -0.084995    7.95124  0.0000E+00  0.3338E-04  0.1428E-04  0.5315E-04  0.1345E-01 -0.7222E-03
   -0.127493    7.95018  0.0000E+00  0.2318E-04  0.5983E-05  0.4773E-04  0.9941E-02  0.1696E-01
   -0.169992    7.94898  0.0000E+00  0.1596E-04  0.2593E-05  0.4356E-04  0.7462E-02  0.6557E-01
   -0.212490    7.94729  0.0000E+00  0.1064E-04  0.1014E-05  0.4024E-04  0.5528E-02  0.5140E+00
   -0.254990    7.94461  0.0000E+00  0.7086E-05  0.3742E-06  0.3706E-04  0.4053E-02  0.4896E+01
   -0.297489    7.93897  0.0000E+00  0.4917E-05  0.1630E-06  0.3482E-04  0.2964E-02  0.2424E+02
   -0.339989    7.92818  0.0000E+00  0.3567E-05  0.8681E-07  0.3955E-04  0.2209E-02  0.1273E+03
   -0.382489    7.91839  0.0000E+00  0.2654E-05  0.5063E-07  0.5857E-04  0.1652E-02  0.4884E+03
   -0.424989    7.90579  0.0000E+00  0.2043E-05  0.3043E-07  0.9988E-04  0.1262E-02  0.1018E+06
   -0.467489    7.88718  0.0000E+00  0.1664E-05  0.1858E-07  0.1788E-03  0.9151E-03  0.1523E+04
   -0.509990    7.86333  0.0000E+00  0.1435E-05  0.1162E-07  0.2044E-03  0.6340E-03  0.2678E+03
   -0.552491    7.84941  0.0000E+00  0.1270E-05  0.7493E-08  0.2356E-03  0.4327E-03  0.5943E+03
   -0.594992    7.84269  0.0000E+00  0.1152E-05  0.4968E-08  0.2705E-03  0.2895E-03  0.2942E+05
   -0.637493    7.83710  0.0000E+00  0.1072E-05  0.3389E-08  0.2863E-03  0.1876E-03 -0.3712E+03
   -0.679994    7.83235  0.0000E+00  0.1029E-05  0.2414E-08  0.2968E-03  0.1224E-03  0.4147E+05
   -0.722495    7.82850  0.0000E+00  0.1018E-05  0.1813E-08  0.3057E-03  0.7675E-04  0.9815E+07
   -0.764996    7.81824  0.0000E+00  0.1066E-05  0.1476E-08  0.3090E-03  0.4975E-04  0.7652E+09
   -0.807498    7.81057  0.0000E+00  0.1122E-05  0.1288E-08  0.3229E-03  0.3546E-04  0.1223E+11
   -0.849999    7.80964  0.0000E+00  0.1162E-05  0.1182E-08  0.3493E-03  0.2592E-04  0.5307E+11
   -0.892501    7.80944  0.0000E+00  0.1203E-05  0.1133E-08  0.3791E-03  0.1852E-04  0.6590E+11
   -0.935002    7.80918  0.0000E+00  0.1247E-05  0.1128E-08  0.4220E-03  0.1268E-04  0.9830E+11
   -0.977503    7.80879  0.0000E+00  0.1298E-05  0.1162E-08  0.4647E-03  0.8096E-05  0.4026E+11
   -1.020004    7.80868  0.0000E+00  0.1352E-05  0.1220E-08  0.4702E-03  0.5871E-05  0.3963E+11
   -1.062506    7.80890  0.0000E+00  0.1408E-05  0.1290E-08  0.4771E-03  0.4847E-05  0.6990E+11
   -1.105007    7.80919  0.0000E+00  0.1463E-05  0.1368E-08  0.4850E-03  0.4135E-05  0.1031E+12
   -1.147508    7.80956  0.0000E+00  0.1516E-05  0.1450E-08  0.4890E-03  0.3566E-05  0.1483E+12
   -1.190008    7.80999  0.0000E+00  0.1565E-05  0.1533E-08  0.4906E-03  0.3068E-05  0.1984E+12
   -1.232509    7.81051  0.0000E+00  0.1610E-05  0.1620E-08  0.4903E-03  0.2604E-05  0.2629E+12
   -1.275009    7.81106  0.0000E+00  0.1653E-05  0.1716E-08  0.4872E-03  0.2203E-05  0.3827E+12
   -1.317510    7.81166  0.0000E+00  0.1693E-05  0.1824E-08  0.4807E-03  0.1850E-05  0.5717E+12
   -1.360010    7.81230  0.0000E+00  0.1731E-05  0.1949E-08  0.4701E-03  0.1550E-05  0.6394E+12
   -1.402509    7.81298  0.0000E+00  0.1767E-05  0.2102E-08  0.4541E-03  0.1296E-05  0.3561E+12
   -1.445009    7.81373  0.0000E+00  0.1796E-05  0.2273E-08  0.4338E-03  0.1075E-05  0.8150E+11
   -1.487508    7.81461  0.0000E+00  0.1816E-05  0.2470E-08  0.4081E-03  0.8654E-06 -0.1941E+12
   -1.530007    7.81562  0.0000E+00  0.1826E-05  0.2746E-08  0.3728E-03  0.6711E-06 -0.6263E+12
   -1.572505    7.81678  0.0000E+00  0.1818E-05  0.3301E-08  0.3046E-03  0.5063E-06 -0.1487E+13
   -1.615003    7.81819  0.0000E+00  0.1764E-05  0.5110E-08  0.2221E-03  0.3834E-06 -0.3348E+13
   -1.657501    7.82021  0.0000E+00  0.1260E-05  0.2096E-07  0.1421E-04  0.2947E-06 -0.1030E+15
   -1.699998    7.85424  0.0000E+00  0.0000E+00  0.0000E+00  0.0000E+00  0.2954E-06  0.0000E+00
