 1 - depth, m
 2 - temperature, C
 3 - salinity, kg/kg
 4 - turbulent kinetic energy, m**2/s**2
 5 - dissipation rate, m**2/s**3
 6 - kinematic heat conductance, m**2/s
 7 - modulus of horizontal velocity, m/s
 8 - Richardson number, n/d
   -0.000000    0.00000  0.0000E+00  0.1561E-08  0.2574E-11  0.1841E-09  0.0000E+00  0.4388E+17
   -0.042496    0.72897  0.0000E+00  0.7827E-08  0.2110E-11  0.2048E-09  0.0000E+00  0.3242E+17
   -0.084993    1.40562  0.0000E+00  0.1955E-07  0.2934E-11  0.3912E-09  0.0000E+00  0.2360E+17
   -0.127490    2.04980  0.0000E+00  0.3900E-07  0.4804E-11  0.9101E-09  0.0000E+00  0.1655E+17
   -0.169988    2.68825  0.0000E+00  0.7111E-07  0.8112E-11  0.2552E-08  0.0000E+00  0.9947E+16
   -0.212486    3.33077  0.0000E+00  0.1240E-06  0.1363E-10  0.1406E-07  0.0000E+00  0.3382E+16
   -0.254984    3.94610  0.0000E+00  0.1437E-06  0.1595E-10  0.3203E-03  0.0000E+00  0.1501E+15
   -0.297483    4.04591  0.0000E+00  0.1442E-06  0.1601E-10  0.4230E-03  0.0000E+00 -0.2278E+12
   -0.339981    4.04615  0.0000E+00  0.1446E-06  0.1607E-10  0.4135E-03  0.0000E+00 -0.2278E+12
   -0.382480    4.04639  0.0000E+00  0.1449E-06  0.1613E-10  0.4138E-03  0.0000E+00 -0.2255E+12
   -0.424980    4.04663  0.0000E+00  0.1453E-06  0.1620E-10  0.4140E-03  0.0000E+00 -0.2250E+12
   -0.467479    4.04688  0.0000E+00  0.1456E-06  0.1627E-10  0.4140E-03  0.0000E+00 -0.2257E+12
   -0.509979    4.04712  0.0000E+00  0.1459E-06  0.1634E-10  0.4138E-03  0.0000E+00 -0.2236E+12
   -0.552479    4.04735  0.0000E+00  0.1461E-06  0.1643E-10  0.4134E-03  0.0000E+00 -0.2221E+12
   -0.594979    4.04759  0.0000E+00  0.1464E-06  0.1652E-10  0.4126E-03  0.0000E+00 -0.2211E+12
   -0.637479    4.04782  0.0000E+00  0.1466E-06  0.1662E-10  0.4114E-03  0.0000E+00 -0.2216E+12
   -0.679979    4.04805  0.0000E+00  0.1468E-06  0.1673E-10  0.4099E-03  0.0000E+00 -0.2220E+12
   -0.722479    4.04828  0.0000E+00  0.1470E-06  0.1685E-10  0.4080E-03  0.0000E+00 -0.2243E+12
   -0.764980    4.04852  0.0000E+00  0.1471E-06  0.1700E-10  0.4055E-03  0.0000E+00 -0.2269E+12
   -0.807480    4.04875  0.0000E+00  0.1473E-06  0.1716E-10  0.4026E-03  0.0000E+00 -0.2298E+12
   -0.849981    4.04899  0.0000E+00  0.1474E-06  0.1735E-10  0.3992E-03  0.0000E+00 -0.2327E+12
   -0.892481    4.04923  0.0000E+00  0.1476E-06  0.1756E-10  0.3953E-03  0.0000E+00 -0.2356E+12
   -0.934982    4.04947  0.0000E+00  0.1476E-06  0.1779E-10  0.3910E-03  0.0000E+00 -0.2374E+12
   -0.977482    4.04971  0.0000E+00  0.1477E-06  0.1805E-10  0.3861E-03  0.0000E+00 -0.2403E+12
   -1.019982    4.04995  0.0000E+00  0.1478E-06  0.1834E-10  0.3808E-03  0.0000E+00 -0.2427E+12
   -1.062483    4.05020  0.0000E+00  0.1478E-06  0.1865E-10  0.3749E-03  0.0000E+00 -0.2464E+12
   -1.104983    4.05045  0.0000E+00  0.1478E-06  0.1900E-10  0.3685E-03  0.0000E+00 -0.2492E+12
   -1.147483    4.05070  0.0000E+00  0.1478E-06  0.1938E-10  0.3619E-03  0.0000E+00 -0.2530E+12
   -1.189983    4.05095  0.0000E+00  0.1477E-06  0.1979E-10  0.3547E-03  0.0000E+00 -0.2576E+12
   -1.232482    4.05120  0.0000E+00  0.1476E-06  0.2026E-10  0.3466E-03  0.0000E+00 -0.2652E+12
   -1.274982    4.05147  0.0000E+00  0.1475E-06  0.2083E-10  0.3374E-03  0.0000E+00 -0.2735E+12
   -1.317481    4.05174  0.0000E+00  0.1474E-06  0.2153E-10  0.3268E-03  0.0000E+00 -0.2825E+12
   -1.359980    4.05201  0.0000E+00  0.1472E-06  0.2241E-10  0.3140E-03  0.0000E+00 -0.2945E+12
   -1.402479    4.05230  0.0000E+00  0.1470E-06  0.2359E-10  0.2988E-03  0.0000E+00 -0.3086E+12
   -1.444977    4.05260  0.0000E+00  0.1467E-06  0.2501E-10  0.2828E-03  0.0000E+00 -0.3254E+12
   -1.487476    4.05292  0.0000E+00  0.1463E-06  0.2678E-10  0.2650E-03  0.0000E+00 -0.3478E+12
   -1.529974    4.05325  0.0000E+00  0.1459E-06  0.2945E-10  0.2410E-03  0.0000E+00 -0.3856E+12
   -1.572471    4.05362  0.0000E+00  0.1450E-06  0.3509E-10  0.2140E-03  0.0000E+00 -0.4520E+12
   -1.614968    4.05405  0.0000E+00  0.1414E-06  0.5965E-10  0.9284E-04  0.0000E+00 -0.1072E+13
   -1.657465    4.05509  0.0000E+00  0.9908E-07  0.4042E-09  0.3232E-05  0.0000E+00 -0.3865E+14
   -1.699961    4.08484  0.0000E+00  0.0000E+00  0.0000E+00  0.0000E+00  0.0000E+00  0.0000E+00
