 1 - depth, m
 2 - temperature, C
 3 - salinity, kg/kg
 4 - turbulent kinetic energy, m**2/s**2
 5 - dissipation rate, m**2/s**3
 6 - kinematic heat conductance, m**2/s
 7 - modulus of horizontal velocity, m/s
 8 - Richardson number, n/d
   -0.000000    0.00000  0.0000E+00  0.8076E-10  0.6541E-13  0.1000E-09  0.0000E+00  0.2737E+17
   -0.042497    0.43602  0.0000E+00  0.2433E-09  0.6251E-13  0.1000E-09  0.0000E+00  0.2144E+17
   -0.084995    0.82217  0.0000E+00  0.5732E-09  0.9798E-13  0.1000E-09  0.0000E+00  0.1697E+17
   -0.127493    1.16731  0.0000E+00  0.1175E-08  0.1763E-12  0.1000E-09  0.0000E+00  0.1393E+17
   -0.169992    1.48776  0.0000E+00  0.2273E-08  0.3241E-12  0.1174E-09  0.0000E+00  0.1152E+17
   -0.212491    1.78953  0.0000E+00  0.4292E-08  0.5957E-12  0.2027E-09  0.0000E+00  0.9554E+16
   -0.254990    2.07740  0.0000E+00  0.8030E-08  0.1092E-11  0.4257E-09  0.0000E+00  0.7988E+16
   -0.297489    2.35868  0.0000E+00  0.1496E-07  0.1999E-11  0.9046E-09  0.0000E+00  0.6839E+16
   -0.339989    2.64864  0.0000E+00  0.2756E-07  0.3624E-11  0.1903E-08  0.0000E+00  0.5911E+16
   -0.382489    2.97009  0.0000E+00  0.5066E-07  0.6561E-11  0.4680E-08  0.0000E+00  0.4675E+16
   -0.424989    3.34740  0.0000E+00  0.8808E-07  0.1126E-10  0.3137E-05  0.0000E+00  0.2662E+16
   -0.467490    3.74278  0.0000E+00  0.1120E-06  0.1416E-10  0.1385E-03  0.0000E+00  0.9519E+15
   -0.509990    3.97759  0.0000E+00  0.1219E-06  0.1530E-10  0.2452E-03  0.0000E+00  0.1090E+15
   -0.552491    4.05483  0.0000E+00  0.1225E-06  0.1539E-10  0.3111E-03  0.0000E+00 -0.3199E+12
   -0.594992    4.05513  0.0000E+00  0.1230E-06  0.1548E-10  0.3105E-03  0.0000E+00 -0.3150E+12
   -0.637493    4.05542  0.0000E+00  0.1234E-06  0.1557E-10  0.3106E-03  0.0000E+00 -0.3174E+12
   -0.679995    4.05572  0.0000E+00  0.1238E-06  0.1568E-10  0.3106E-03  0.0000E+00 -0.3200E+12
   -0.722496    4.05602  0.0000E+00  0.1242E-06  0.1580E-10  0.3101E-03  0.0000E+00 -0.3256E+12
   -0.764997    4.05632  0.0000E+00  0.1246E-06  0.1594E-10  0.3093E-03  0.0000E+00 -0.3316E+12
   -0.807499    4.05663  0.0000E+00  0.1250E-06  0.1611E-10  0.3080E-03  0.0000E+00 -0.3392E+12
   -0.850000    4.05694  0.0000E+00  0.1254E-06  0.1629E-10  0.3065E-03  0.0000E+00 -0.3469E+12
   -0.892501    4.05725  0.0000E+00  0.1258E-06  0.1649E-10  0.3044E-03  0.0000E+00 -0.3529E+12
   -0.935003    4.05757  0.0000E+00  0.1261E-06  0.1672E-10  0.3022E-03  0.0000E+00 -0.3554E+12
   -0.977504    4.05789  0.0000E+00  0.1264E-06  0.1696E-10  0.2993E-03  0.0000E+00 -0.3604E+12
   -1.020005    4.05821  0.0000E+00  0.1266E-06  0.1724E-10  0.2961E-03  0.0000E+00 -0.3647E+12
   -1.062507    4.05854  0.0000E+00  0.1269E-06  0.1754E-10  0.2922E-03  0.0000E+00 -0.3720E+12
   -1.105008    4.05887  0.0000E+00  0.1271E-06  0.1787E-10  0.2880E-03  0.0000E+00 -0.3782E+12
   -1.147509    4.05921  0.0000E+00  0.1272E-06  0.1822E-10  0.2834E-03  0.0000E+00 -0.3875E+12
   -1.190009    4.05955  0.0000E+00  0.1273E-06  0.1861E-10  0.2784E-03  0.0000E+00 -0.3968E+12
   -1.232510    4.05989  0.0000E+00  0.1274E-06  0.1906E-10  0.2725E-03  0.0000E+00 -0.4092E+12
   -1.275011    4.06025  0.0000E+00  0.1274E-06  0.1959E-10  0.2657E-03  0.0000E+00 -0.4222E+12
   -1.317511    4.06061  0.0000E+00  0.1274E-06  0.2024E-10  0.2577E-03  0.0000E+00 -0.4377E+12
   -1.360011    4.06099  0.0000E+00  0.1273E-06  0.2107E-10  0.2480E-03  0.0000E+00 -0.4570E+12
   -1.402511    4.06138  0.0000E+00  0.1272E-06  0.2217E-10  0.2363E-03  0.0000E+00 -0.4818E+12
   -1.445010    4.06179  0.0000E+00  0.1270E-06  0.2350E-10  0.2238E-03  0.0000E+00 -0.5125E+12
   -1.487509    4.06223  0.0000E+00  0.1267E-06  0.2515E-10  0.2097E-03  0.0000E+00 -0.5525E+12
   -1.530008    4.06269  0.0000E+00  0.1263E-06  0.2766E-10  0.1911E-03  0.0000E+00 -0.6138E+12
   -1.572507    4.06321  0.0000E+00  0.1254E-06  0.3296E-10  0.1671E-03  0.0000E+00 -0.7227E+12
   -1.615005    4.06381  0.0000E+00  0.1219E-06  0.5536E-10  0.8228E-04  0.0000E+00 -0.1512E+13
   -1.657503    4.06507  0.0000E+00  0.8627E-07  0.3310E-09  0.3113E-05  0.0000E+00 -0.4889E+14
   -1.700000    4.09798  0.0000E+00  0.0000E+00  0.0000E+00  0.0000E+00  0.0000E+00  0.0000E+00
