 1 - depth, m
 2 - temperature, C
 3 - salinity, kg/kg
 4 - turbulent kinetic energy, m**2/s**2
 5 - dissipation rate, m**2/s**3
 6 - kinematic heat conductance, m**2/s
 7 - modulus of horizontal velocity, m/s
 8 - Richardson number, n/d
   -0.000000   15.46598  0.0000E+00  0.2827E-04  0.3115E-05  0.2670E-04  0.3103E-01 -0.2037E-01
   -0.042497   15.49900  0.0000E+00  0.1944E-04  0.9235E-06  0.4602E-04  0.1531E-01 -0.4139E-01
   -0.084995   15.51368  0.0000E+00  0.1491E-04  0.4187E-06  0.6258E-04  0.1019E-01 -0.8337E-01
   -0.127493   15.52407  0.0000E+00  0.1202E-04  0.2273E-06  0.8017E-04  0.7150E-02 -0.1468E+00
   -0.169992   15.53199  0.0000E+00  0.1007E-04  0.1373E-06  0.1057E-03  0.5155E-02 -0.1975E+00
   -0.212490   15.53792  0.0000E+00  0.8786E-05  0.9077E-07  0.1912E-03  0.3809E-02  0.3705E+03
   -0.254989   15.54162  0.0000E+00  0.8000E-05  0.6577E-07  0.2765E-03  0.2977E-02  0.1236E+03
   -0.297489   15.54398  0.0000E+00  0.7556E-05  0.5151E-07  0.3592E-03  0.2446E-02  0.1102E+03
   -0.339988   15.54558  0.0000E+00  0.7309E-05  0.4243E-07  0.4052E-03  0.2085E-02  0.1582E+01
   -0.382488   15.54696  0.0000E+00  0.7169E-05  0.3593E-07  0.4532E-03  0.1785E-02  0.1563E+01
   -0.424989   15.54817  0.0000E+00  0.7104E-05  0.3118E-07  0.5058E-03  0.1537E-02  0.1680E+01
   -0.467489   15.54924  0.0000E+00  0.7086E-05  0.2760E-07  0.5626E-03  0.1318E-02  0.1768E+01
   -0.509990   15.55019  0.0000E+00  0.7095E-05  0.2483E-07  0.6126E-03  0.1121E-02  0.1802E+01
   -0.552490   15.55105  0.0000E+00  0.7118E-05  0.2266E-07  0.6555E-03  0.9471E-03  0.1813E+01
   -0.594991   15.55185  0.0000E+00  0.7145E-05  0.2095E-07  0.7041E-03  0.7920E-03  0.1754E+01
   -0.637492   15.55258  0.0000E+00  0.7170E-05  0.1959E-07  0.7687E-03  0.6580E-03  0.1623E+01
   -0.679993   15.55325  0.0000E+00  0.7190E-05  0.1852E-07  0.8400E-03  0.5481E-03  0.1519E+01
   -0.722494   15.55385  0.0000E+00  0.7203E-05  0.1769E-07  0.8970E-03  0.4596E-03  0.1397E+01
   -0.764996   15.55441  0.0000E+00  0.7210E-05  0.1706E-07  0.9322E-03  0.3909E-03  0.1280E+01
   -0.807497   15.55494  0.0000E+00  0.7210E-05  0.1659E-07  0.9568E-03  0.3389E-03  0.1211E+01
   -0.849998   15.55544  0.0000E+00  0.7204E-05  0.1626E-07  0.9731E-03  0.2984E-03  0.1152E+01
   -0.892500   15.55594  0.0000E+00  0.7193E-05  0.1603E-07  0.9822E-03  0.2663E-03  0.1093E+01
   -0.935001   15.55643  0.0000E+00  0.7178E-05  0.1589E-07  0.9849E-03  0.2403E-03  0.1057E+01
   -0.977502   15.55692  0.0000E+00  0.7159E-05  0.1583E-07  0.9829E-03  0.2189E-03  0.1020E+01
   -1.020004   15.55740  0.0000E+00  0.7135E-05  0.1584E-07  0.9768E-03  0.2008E-03  0.1075E+01
   -1.062505   15.55790  0.0000E+00  0.7106E-05  0.1590E-07  0.9656E-03  0.1847E-03  0.1177E+01
   -1.105006   15.55839  0.0000E+00  0.7071E-05  0.1604E-07  0.9492E-03  0.1699E-03  0.1342E+01
   -1.147507   15.55890  0.0000E+00  0.7030E-05  0.1626E-07  0.9274E-03  0.1556E-03  0.1554E+01
   -1.190007   15.55942  0.0000E+00  0.6983E-05  0.1657E-07  0.9000E-03  0.1416E-03  0.1789E+01
   -1.232508   15.55997  0.0000E+00  0.6925E-05  0.1701E-07  0.8666E-03  0.1279E-03  0.2126E+01
   -1.275008   15.56053  0.0000E+00  0.6853E-05  0.1764E-07  0.8212E-03  0.1149E-03  0.2857E+01
   -1.317508   15.56114  0.0000E+00  0.6762E-05  0.1856E-07  0.7761E-03  0.1026E-03  0.4074E+01
   -1.360008   15.56178  0.0000E+00  0.6644E-05  0.1997E-07  0.7005E-03  0.9118E-04  0.6420E+01
   -1.402508   15.56251  0.0000E+00  0.6486E-05  0.2225E-07  0.6571E-03  0.8033E-04  0.1150E+02
   -1.445007   15.56330  0.0000E+00  0.6285E-05  0.2612E-07  0.5523E-03  0.7030E-04  0.1285E+04
   -1.487506   15.56447  0.0000E+00  0.6013E-05  0.3251E-07  0.5218E-03  0.5781E-04  0.1486E+04
   -1.530005   15.56583  0.0000E+00  0.5587E-05  0.4643E-07  0.3927E-03  0.4563E-04 -0.9921E+04
   -1.572504   15.56951  0.0000E+00  0.4932E-05  0.7665E-07  0.4048E-03  0.3015E-04  0.1537E+07
   -1.615002   15.56906  0.0000E+00  0.3862E-05  0.2042E-06  0.1787E-03  0.2399E-04 -0.2031E+09
   -1.657499   15.58426  0.0000E+00  0.2620E-05  0.5454E-06  0.1271E-03  0.1424E-04 -0.1816E+06
   -1.699997   15.58811  0.0000E+00  0.0000E+00  0.0000E+00  0.0000E+00  0.2402E-04  0.0000E+00
