 1 - depth, m
 2 - temperature, C
 3 - salinity, kg/kg
 4 - turbulent kinetic energy, m**2/s**2
 5 - dissipation rate, m**2/s**3
 6 - kinematic heat conductance, m**2/s
 7 - modulus of horizontal velocity, m/s
 8 - Richardson number, n/d
   -0.000000    0.00000  0.0000E+00  0.3712E-11  0.1256E-14  0.1000E-09  0.0000E+00  0.1933E+17
   -0.042497    0.30220  0.0000E+00  0.6782E-11  0.1051E-14  0.1000E-09  0.0000E+00  0.1761E+17
   -0.084994    0.60244  0.0000E+00  0.1255E-10  0.1208E-14  0.1000E-09  0.0000E+00  0.1587E+17
   -0.127492    0.89946  0.0000E+00  0.2153E-10  0.1635E-14  0.1000E-09  0.0000E+00  0.1387E+17
   -0.169990    1.18629  0.0000E+00  0.3492E-10  0.2363E-14  0.1000E-09  0.0000E+00  0.1202E+17
   -0.212489    1.46248  0.0000E+00  0.5475E-10  0.3488E-14  0.1000E-09  0.0000E+00  0.1033E+17
   -0.254987    1.72776  0.0000E+00  0.8423E-10  0.5179E-14  0.1000E-09  0.0000E+00  0.8777E+16
   -0.297486    1.98175  0.0000E+00  0.1282E-09  0.7693E-14  0.1000E-09  0.0000E+00  0.7362E+16
   -0.339986    2.22386  0.0000E+00  0.1923E-09  0.1133E-13  0.1000E-09  0.0000E+00  0.6084E+16
   -0.382485    2.45346  0.0000E+00  0.2861E-09  0.1658E-13  0.1000E-09  0.0000E+00  0.4947E+16
   -0.424985    2.67017  0.0000E+00  0.4222E-09  0.2410E-13  0.1000E-09  0.0000E+00  0.3949E+16
   -0.467485    2.87381  0.0000E+00  0.6186E-09  0.3480E-13  0.1000E-09  0.0000E+00  0.3081E+16
   -0.509985    3.06406  0.0000E+00  0.9024E-09  0.5003E-13  0.1000E-09  0.0000E+00  0.2372E+16
   -0.552486    3.24354  0.0000E+00  0.1312E-08  0.7174E-13  0.1297E-09  0.0000E+00  0.1762E+16
   -0.594986    3.41268  0.0000E+00  0.1904E-08  0.1026E-12  0.2614E-09  0.0000E+00  0.1242E+16
   -0.637487    3.57191  0.0000E+00  0.2774E-08  0.1473E-12  0.5826E-09  0.0000E+00  0.8029E+15
   -0.679988    3.72210  0.0000E+00  0.4053E-08  0.2121E-12  0.1574E-08  0.0000E+00  0.4300E+15
   -0.722489    3.86337  0.0000E+00  0.5921E-08  0.3055E-12  0.8385E-08  0.0000E+00  0.1186E+15
   -0.764990    3.99195  0.0000E+00  0.6152E-08  0.3179E-12  0.4192E-04  0.0000E+00 -0.3971E+11
   -0.807491    3.99244  0.0000E+00  0.6272E-08  0.3251E-12  0.4367E-04  0.0000E+00 -0.4122E+11
   -0.849992    3.99290  0.0000E+00  0.6386E-08  0.3327E-12  0.4520E-04  0.0000E+00 -0.4244E+11
   -0.892493    3.99332  0.0000E+00  0.6496E-08  0.3408E-12  0.4647E-04  0.0000E+00 -0.4370E+11
   -0.934994    3.99372  0.0000E+00  0.6601E-08  0.3494E-12  0.4739E-04  0.0000E+00 -0.4516E+11
   -0.977495    3.99411  0.0000E+00  0.6700E-08  0.3585E-12  0.4787E-04  0.0000E+00 -0.4695E+11
   -1.019995    3.99450  0.0000E+00  0.6794E-08  0.3681E-12  0.4799E-04  0.0000E+00 -0.4901E+11
   -1.062496    3.99488  0.0000E+00  0.6882E-08  0.3783E-12  0.4797E-04  0.0000E+00 -0.5120E+11
   -1.104997    3.99526  0.0000E+00  0.6964E-08  0.3893E-12  0.4782E-04  0.0000E+00 -0.5347E+11
   -1.147497    3.99564  0.0000E+00  0.7039E-08  0.4008E-12  0.4758E-04  0.0000E+00 -0.5579E+11
   -1.189998    3.99602  0.0000E+00  0.7104E-08  0.4128E-12  0.4715E-04  0.0000E+00 -0.5850E+11
   -1.232498    3.99641  0.0000E+00  0.7163E-08  0.4264E-12  0.4656E-04  0.0000E+00 -0.6196E+11
   -1.274998    3.99680  0.0000E+00  0.7217E-08  0.4421E-12  0.4575E-04  0.0000E+00 -0.6592E+11
   -1.317498    3.99720  0.0000E+00  0.7265E-08  0.4609E-12  0.4462E-04  0.0000E+00 -0.7021E+11
   -1.359997    3.99761  0.0000E+00  0.7307E-08  0.4841E-12  0.4306E-04  0.0000E+00 -0.7576E+11
   -1.402497    3.99803  0.0000E+00  0.7343E-08  0.5144E-12  0.4108E-04  0.0000E+00 -0.8263E+11
   -1.444996    3.99848  0.0000E+00  0.7366E-08  0.5505E-12  0.3886E-04  0.0000E+00 -0.9084E+11
   -1.487495    3.99895  0.0000E+00  0.7375E-08  0.5966E-12  0.3614E-04  0.0000E+00 -0.1021E+12
   -1.529993    3.99946  0.0000E+00  0.7360E-08  0.6767E-12  0.3056E-04  0.0000E+00 -0.1305E+12
   -1.572491    4.00009  0.0000E+00  0.7280E-08  0.8830E-12  0.1983E-04  0.0000E+00 -0.2374E+12
   -1.614989    4.00116  0.0000E+00  0.6830E-08  0.1857E-11  0.6162E-05  0.0000E+00 -0.9968E+12
   -1.657486    4.00498  0.0000E+00  0.4899E-08  0.7071E-11  0.6515E-06  0.0000E+00 -0.2056E+14
   -1.699983    4.04083  0.0000E+00  0.0000E+00  0.0000E+00  0.0000E+00  0.0000E+00  0.0000E+00
