 1 - depth, m
 2 - temperature, C
 3 - salinity, kg/kg
 4 - turbulent kinetic energy, m**2/s**2
 5 - dissipation rate, m**2/s**3
 6 - kinematic heat conductance, m**2/s
 7 - modulus of horizontal velocity, m/s
 8 - Richardson number, n/d
   -0.000000   11.98193  0.0000E+00  0.3320E-02  0.1040E+00  0.2840E-03  0.1023E+01 -0.7499E-03
   -0.042497   12.08409  0.0000E+00  0.1561E-02  0.7358E-01  0.3246E-03  0.2260E+00 -0.7994E-02
   -0.084995   12.15533  0.0000E+00  0.9326E-03  0.2219E-01  0.4377E-03  0.1074E+00 -0.1924E-01
   -0.127493   12.17778  0.0000E+00  0.6552E-03  0.1229E-01  0.4821E-03  0.7670E-01  0.1254E+01
   -0.169991   12.18851  0.0000E+00  0.4927E-03  0.8484E-02  0.3722E-03  0.5883E-01 -0.1941E-01
   -0.212490   12.19640  0.0000E+00  0.3839E-03  0.6138E-02  0.3603E-03  0.4571E-01  0.4943E+00
   -0.254989   12.20294  0.0000E+00  0.3102E-03  0.4673E-02  0.3515E-03  0.3693E-01  0.5078E+01
   -0.297489   12.20690  0.0000E+00  0.2537E-03  0.3538E-02  0.3533E-03  0.3210E-01  0.6145E+01
   -0.339988   12.21024  0.0000E+00  0.2117E-03  0.2696E-02  0.3449E-03  0.2879E-01  0.1214E+02
   -0.382488   12.21335  0.0000E+00  0.1786E-03  0.2055E-02  0.3479E-03  0.2551E-01  0.9325E+01
   -0.424988   12.21551  0.0000E+00  0.1507E-03  0.1566E-02  0.3481E-03  0.2386E-01  0.6601E+00
   -0.467489   12.21848  0.0000E+00  0.1300E-03  0.1199E-02  0.3536E-03  0.2118E-01  0.7585E+02
   -0.509989   12.22180  0.0000E+00  0.1125E-03  0.9213E-03  0.3691E-03  0.1843E-01  0.2748E+02
   -0.552490   12.22442  0.0000E+00  0.9931E-04  0.7121E-03  0.3795E-03  0.1614E-01  0.9030E+02
   -0.594991   12.22710  0.0000E+00  0.8828E-04  0.5548E-03  0.3978E-03  0.1387E-01  0.7104E+02
   -0.637492   12.22995  0.0000E+00  0.7886E-04  0.4317E-03  0.4203E-03  0.1190E-01  0.1361E+01
   -0.679993   12.23181  0.0000E+00  0.7106E-04  0.3352E-03  0.4396E-03  0.1054E-01  0.1899E+03
   -0.722494   12.23377  0.0000E+00  0.6431E-04  0.2596E-03  0.4594E-03  0.9351E-02  0.7361E+02
   -0.764995   12.23545  0.0000E+00  0.5847E-04  0.1991E-03  0.4785E-03  0.8421E-02  0.3318E+03
   -0.807497   12.23658  0.0000E+00  0.5334E-04  0.1507E-03  0.4986E-03  0.7756E-02  0.7174E+04
   -0.849998   12.23800  0.0000E+00  0.4887E-04  0.1132E-03  0.5130E-03  0.7141E-02  0.3262E+04
   -0.892499   12.23913  0.0000E+00  0.4495E-04  0.8407E-04  0.5269E-03  0.6580E-02 -0.4638E+03
   -0.935001   12.24030  0.0000E+00  0.4158E-04  0.6192E-04  0.5427E-03  0.6109E-02  0.3435E+04
   -0.977502   12.24142  0.0000E+00  0.3866E-04  0.4531E-04  0.5545E-03  0.5630E-02  0.4715E+05
   -1.020003   12.24257  0.0000E+00  0.3609E-04  0.3292E-04  0.5695E-03  0.5235E-02  0.9975E+03
   -1.062504   12.24368  0.0000E+00  0.3381E-04  0.2379E-04  0.5859E-03  0.4823E-02  0.3133E+03
   -1.105005   12.24455  0.0000E+00  0.3181E-04  0.1703E-04  0.5928E-03  0.4489E-02  0.1118E+04
   -1.147506   12.24553  0.0000E+00  0.3007E-04  0.1209E-04  0.5984E-03  0.4147E-02  0.1511E+04
   -1.190007   12.24675  0.0000E+00  0.2853E-04  0.8661E-05  0.5949E-03  0.3737E-02  0.8539E+03
   -1.232507   12.24781  0.0000E+00  0.2710E-04  0.6212E-05  0.5930E-03  0.3335E-02  0.2620E+04
   -1.275008   12.24902  0.0000E+00  0.2575E-04  0.4502E-05  0.5890E-03  0.3014E-02  0.2701E+04
   -1.317508   12.24979  0.0000E+00  0.2444E-04  0.3259E-05  0.5812E-03  0.2726E-02 -0.9175E+03
   -1.360008   12.25110  0.0000E+00  0.2312E-04  0.2332E-05  0.5667E-03  0.2462E-02  0.2271E+09
   -1.402507   12.25178  0.0000E+00  0.2174E-04  0.1640E-05  0.5358E-03  0.2233E-02 -0.4327E+08
   -1.445007   12.25296  0.0000E+00  0.2039E-04  0.1215E-05  0.4949E-03  0.2012E-02  0.2502E+08
   -1.487506   12.25402  0.0000E+00  0.1903E-04  0.9960E-06  0.4585E-03  0.1757E-02 -0.1179E+09
   -1.530005   12.25613  0.0000E+00  0.1755E-04  0.1027E-05  0.3980E-03  0.1430E-02 -0.5132E+13
   -1.572503   12.25839  0.0000E+00  0.1578E-04  0.1330E-05  0.3770E-03  0.1127E-02  0.3221E+07
   -1.615001   12.25958  0.0000E+00  0.1263E-04  0.2752E-05  0.2086E-03  0.9465E-03 -0.1575E+08
   -1.657499   12.26400  0.0000E+00  0.8548E-05  0.5979E-05  0.1067E-03  0.7256E-03 -0.6889E+09
   -1.699996   12.27804  0.0000E+00  0.0000E+00  0.0000E+00  0.0000E+00  0.1133E-02  0.0000E+00
