 1 - depth, m
 2 - temperature, C
 3 - salinity, kg/kg
 4 - turbulent kinetic energy, m**2/s**2
 5 - dissipation rate, m**2/s**3
 6 - kinematic heat conductance, m**2/s
 7 - modulus of horizontal velocity, m/s
 8 - Richardson number, n/d
   -0.000000    0.41587  0.0000E+00  0.1166E-03  0.4962E-04  0.5692E-04  0.9981E-01  0.1343E-02
   -0.042497    0.43043  0.0000E+00  0.6359E-04  0.1527E-04  0.7498E-04  0.2910E-01  0.1115E-01
   -0.084995    0.43327  0.0000E+00  0.4359E-04  0.6334E-05  0.6856E-04  0.1980E-01  0.2034E-01
   -0.127493    0.43579  0.0000E+00  0.3069E-04  0.2733E-05  0.6510E-04  0.1489E-01  0.1237E-01
   -0.169992    0.43801  0.0000E+00  0.2169E-04  0.1252E-05  0.6193E-04  0.1137E-01  0.3883E-01
   -0.212491    0.44012  0.0000E+00  0.1519E-04  0.5954E-06  0.5791E-04  0.8617E-02  0.1246E+00
   -0.254990    0.44219  0.0000E+00  0.1056E-04  0.2995E-06  0.5310E-04  0.6524E-02  0.2045E+00
   -0.297489    0.44419  0.0000E+00  0.7344E-05  0.1577E-06  0.4741E-04  0.5013E-02  0.9170E+01
   -0.339989    0.44619  0.0000E+00  0.5156E-05  0.8612E-07  0.4122E-04  0.3900E-02  0.4459E+01
   -0.382489    0.44833  0.0000E+00  0.3623E-05  0.4794E-07  0.3551E-04  0.3015E-02  0.3370E+02
   -0.424989    0.45057  0.0000E+00  0.2569E-05  0.2735E-07  0.2914E-04  0.2360E-02  0.2630E+01
   -0.467490    0.45337  0.0000E+00  0.1814E-05  0.1584E-07  0.2298E-04  0.1794E-02  0.3255E+01
   -0.509990    0.45757  0.0000E+00  0.1258E-05  0.9210E-08  0.1716E-04  0.1307E-02  0.1558E+02
   -0.552491    0.46605  0.0000E+00  0.8458E-06  0.5319E-08  0.1167E-04  0.9068E-03  0.4248E+03
   -0.594992    0.48714  0.0000E+00  0.5331E-06  0.2964E-08  0.6735E-05  0.5738E-03  0.1847E+05
   -0.637493    0.51881  0.0000E+00  0.2889E-06  0.1475E-08  0.2759E-05  0.3193E-03  0.1373E+07
   -0.679994    0.56952  0.0000E+00  0.1026E-06  0.5210E-09  0.2744E-06  0.1532E-03  0.1334E+09
   -0.722496    0.69228  0.0000E+00  0.1573E-07  0.8228E-10  0.1851E-07  0.3454E-04  0.1648E+11
   -0.764997    0.89717  0.0000E+00  0.1401E-08  0.7864E-11  0.2283E-08  0.3714E-05  0.1735E+13
   -0.807499    1.06643  0.0000E+00  0.9133E-10  0.1271E-11  0.2874E-09  0.3756E-06  0.1264E+15
   -0.850000    1.19220  0.0000E+00  0.4997E-11  0.1000E-11  0.1018E-09  0.3865E-07  0.5319E+15
   -0.892501    1.27624  0.0000E+00  0.4419E-11  0.1000E-11  0.1000E-09  0.4044E-08  0.7255E+15
   -0.935003    1.33516  0.0000E+00  0.4419E-11  0.1000E-11  0.1000E-09  0.4902E-09  0.1155E+16
   -0.977504    1.40237  0.0000E+00  0.4419E-11  0.1000E-11  0.1000E-09  0.5647E-10  0.2034E+16
   -1.020005    1.47590  0.0000E+00  0.4419E-11  0.1000E-11  0.1000E-09  0.7484E-11  0.3767E+16
   -1.062507    1.57554  0.0000E+00  0.4419E-11  0.1000E-11  0.1000E-09  0.9572E-12  0.4877E+16
   -1.105008    1.70453  0.0000E+00  0.1179E-10  0.1000E-11  0.1166E-09  0.1476E-12  0.6421E+16
   -1.147509    1.88726  0.0000E+00  0.3431E-09  0.1016E-11  0.1764E-09  0.2610E-13  0.8126E+16
   -1.190009    2.14656  0.0000E+00  0.1567E-08  0.1350E-11  0.3624E-09  0.3414E-14  0.8701E+16
   -1.232510    2.47973  0.0000E+00  0.5181E-08  0.2686E-11  0.1178E-08  0.2569E-15  0.7240E+16
   -1.275010    2.85115  0.0000E+00  0.1527E-07  0.6610E-11  0.1272E-07  0.1734E-16  0.5262E+16
   -1.317511    3.26229  0.0000E+00  0.2570E-07  0.1111E-10  0.1222E-04  0.1020E-17  0.3607E+16
   -1.360011    3.59783  0.0000E+00  0.3430E-07  0.1523E-10  0.2348E-04  0.5020E-19  0.2102E+16
   -1.402510    3.85236  0.0000E+00  0.4186E-07  0.1927E-10  0.3068E-04  0.4153E-20  0.7691E+15
   -1.445010    4.02873  0.0000E+00  0.4720E-07  0.2266E-10  0.3745E-04  0.1157E-20  0.4354E+14
   -1.487509    4.07091  0.0000E+00  0.5009E-07  0.2522E-10  0.4008E-04  0.5091E-21 -0.5163E+13
   -1.530008    4.07496  0.0000E+00  0.5162E-07  0.2797E-10  0.3825E-04  0.1819E-21 -0.5815E+13
   -1.572507    4.07926  0.0000E+00  0.5247E-07  0.3318E-10  0.3368E-04  0.5242E-22 -0.7575E+13
   -1.615005    4.08456  0.0000E+00  0.5193E-07  0.5194E-10  0.1823E-04  0.1738E-22 -0.1692E+14
   -1.657502    4.09541  0.0000E+00  0.4208E-07  0.1521E-09  0.2755E-05  0.3458E-23 -0.1632E+15
   -1.700000    4.16776  0.0000E+00  0.0000E+00  0.0000E+00  0.0000E+00  0.3459E-23  0.0000E+00
