 1 - depth, m
 2 - temperature, C
 3 - salinity, kg/kg
 4 - turbulent kinetic energy, m**2/s**2
 5 - dissipation rate, m**2/s**3
 6 - kinematic heat conductance, m**2/s
 7 - modulus of horizontal velocity, m/s
 8 - Richardson number, n/d
   -0.000000   10.79288  0.0000E+00  0.2172E-03  0.1428E-03  0.6506E-04  0.1279E+00  0.1543E-01
   -0.042498   10.84243  0.0000E+00  0.1209E-03  0.4675E-04  0.1393E-03  0.3217E-01 -0.1058E-01
   -0.084995   10.85083  0.0000E+00  0.8753E-04  0.2332E-04  0.1287E-03  0.2184E-01 -0.1147E+00
   -0.127494   10.85760  0.0000E+00  0.6594E-04  0.1146E-04  0.1221E-03  0.1717E-01 -0.4556E-01
   -0.169993   10.86315  0.0000E+00  0.5026E-04  0.5716E-05  0.1196E-03  0.1379E-01 -0.7256E-01
   -0.212492   10.86812  0.0000E+00  0.3863E-04  0.3013E-05  0.1207E-03  0.1111E-01 -0.1115E+00
   -0.254991   10.87264  0.0000E+00  0.2995E-04  0.1631E-05  0.1257E-03  0.9025E-02  0.2753E+00
   -0.297491   10.87676  0.0000E+00  0.2370E-04  0.9405E-06  0.1418E-03  0.7450E-02  0.5277E+03
   -0.339990   10.88034  0.0000E+00  0.1928E-04  0.5896E-06  0.1728E-03  0.6219E-02  0.2013E+02
   -0.382491   10.88339  0.0000E+00  0.1605E-04  0.3933E-06  0.1968E-03  0.5215E-02  0.1203E+03
   -0.424991   10.88600  0.0000E+00  0.1369E-04  0.2748E-06  0.2217E-03  0.4421E-02  0.1693E+02
   -0.467492   10.88824  0.0000E+00  0.1190E-04  0.1976E-06  0.2436E-03  0.3741E-02  0.1351E+02
   -0.509993   10.89022  0.0000E+00  0.1049E-04  0.1455E-06  0.2689E-03  0.3148E-02  0.2745E+02
   -0.552494   10.89197  0.0000E+00  0.9366E-05  0.1092E-06  0.2952E-03  0.2632E-02  0.4326E+02
   -0.594995   10.89354  0.0000E+00  0.8445E-05  0.8344E-07  0.3247E-03  0.2177E-02  0.1833E+02
   -0.637496   10.89494  0.0000E+00  0.7674E-05  0.6462E-07  0.3590E-03  0.1787E-02  0.1012E+02
   -0.679997   10.89617  0.0000E+00  0.7031E-05  0.5077E-07  0.3928E-03  0.1469E-02  0.1140E+03
   -0.722499   10.89728  0.0000E+00  0.6493E-05  0.4045E-07  0.4276E-03  0.1209E-02  0.2982E+02
   -0.765000   10.89827  0.0000E+00  0.6041E-05  0.3267E-07  0.4600E-03  0.1002E-02  0.2221E+02
   -0.807502   10.89917  0.0000E+00  0.5663E-05  0.2675E-07  0.4891E-03  0.8422E-03  0.3597E+01
   -0.850003   10.89999  0.0000E+00  0.5353E-05  0.2231E-07  0.5137E-03  0.7134E-03  0.2055E+02
   -0.892505   10.90076  0.0000E+00  0.5097E-05  0.1894E-07  0.5337E-03  0.6087E-03  0.1125E+02
   -0.935007   10.90147  0.0000E+00  0.4888E-05  0.1639E-07  0.5511E-03  0.5236E-03  0.8962E+01
   -0.977508   10.90214  0.0000E+00  0.4718E-05  0.1445E-07  0.5669E-03  0.4519E-03  0.1399E+02
   -1.020010   10.90277  0.0000E+00  0.4577E-05  0.1298E-07  0.5804E-03  0.3923E-03  0.2199E+02
   -1.062511   10.90337  0.0000E+00  0.4460E-05  0.1185E-07  0.5904E-03  0.3409E-03  0.3599E+01
   -1.105012   10.90395  0.0000E+00  0.4362E-05  0.1097E-07  0.5977E-03  0.2964E-03  0.2194E+01
   -1.147513   10.90451  0.0000E+00  0.4278E-05  0.1031E-07  0.6016E-03  0.2562E-03  0.2172E+01
   -1.190014   10.90505  0.0000E+00  0.4207E-05  0.9822E-08  0.6021E-03  0.2187E-03  0.2481E+01
   -1.232515   10.90559  0.0000E+00  0.4144E-05  0.9465E-08  0.5995E-03  0.1843E-03  0.2630E+01
   -1.275016   10.90612  0.0000E+00  0.4086E-05  0.9223E-08  0.5931E-03  0.1552E-03  0.3273E+01
   -1.317516   10.90665  0.0000E+00  0.4033E-05  0.9088E-08  0.5822E-03  0.1310E-03  0.4262E+01
   -1.360016   10.90718  0.0000E+00  0.3980E-05  0.9058E-08  0.5658E-03  0.1111E-03  0.5677E+01
   -1.402516   10.90772  0.0000E+00  0.3924E-05  0.9153E-08  0.5432E-03  0.9451E-04  0.8289E+01
   -1.445016   10.90828  0.0000E+00  0.3869E-05  0.9395E-08  0.5142E-03  0.8003E-04  0.1234E+02
   -1.487515   10.90886  0.0000E+00  0.3814E-05  0.9839E-08  0.4835E-03  0.6629E-04  0.1573E+02
   -1.530014   10.90947  0.0000E+00  0.3749E-05  0.1074E-07  0.4193E-03  0.5331E-04  0.1951E+02
   -1.572513   10.91019  0.0000E+00  0.3644E-05  0.1300E-07  0.4289E-03  0.4115E-04  0.2715E+02
   -1.615011   10.91088  0.0000E+00  0.3284E-05  0.2437E-07  0.1932E-03  0.3360E-04 -0.5256E+06
   -1.657509   10.91441  0.0000E+00  0.2103E-05  0.7894E-07  0.4315E-04  0.2255E-04 -0.2519E+05
   -1.700007   10.92210  0.0000E+00  0.0000E+00  0.0000E+00  0.0000E+00  0.2579E-04  0.0000E+00
