 1 - depth, m
 2 - temperature, C
 3 - salinity, kg/kg
 4 - turbulent kinetic energy, m**2/s**2
 5 - dissipation rate, m**2/s**3
 6 - kinematic heat conductance, m**2/s
 7 - modulus of horizontal velocity, m/s
 8 - Richardson number, n/d
   -0.000000    0.00000  0.0000E+00  0.1408E-11  0.3873E-15  0.1000E-09  0.0000E+00  0.1742E+17
   -0.042497    0.27116  0.0000E+00  0.2357E-11  0.3576E-15  0.1000E-09  0.0000E+00  0.1618E+17
   -0.084994    0.54342  0.0000E+00  0.4227E-11  0.4511E-15  0.1000E-09  0.0000E+00  0.1493E+17
   -0.127492    0.81665  0.0000E+00  0.7294E-11  0.6600E-15  0.1000E-09  0.0000E+00  0.1323E+17
   -0.169990    1.08131  0.0000E+00  0.1214E-10  0.1018E-14  0.1000E-09  0.0000E+00  0.1164E+17
   -0.212488    1.33723  0.0000E+00  0.1977E-10  0.1593E-14  0.1000E-09  0.0000E+00  0.1016E+17
   -0.254987    1.58367  0.0000E+00  0.3183E-10  0.2506E-14  0.1000E-09  0.0000E+00  0.8766E+16
   -0.297485    1.81975  0.0000E+00  0.5094E-10  0.3943E-14  0.1000E-09  0.0000E+00  0.7500E+16
   -0.339985    2.04531  0.0000E+00  0.8063E-10  0.6155E-14  0.1000E-09  0.0000E+00  0.6368E+16
   -0.382484    2.26063  0.0000E+00  0.1269E-09  0.9563E-14  0.1000E-09  0.0000E+00  0.5336E+16
   -0.424984    2.46508  0.0000E+00  0.1984E-09  0.1477E-13  0.1000E-09  0.0000E+00  0.4437E+16
   -0.467484    2.65952  0.0000E+00  0.3086E-09  0.2271E-13  0.1000E-09  0.0000E+00  0.3630E+16
   -0.509984    2.84354  0.0000E+00  0.4787E-09  0.3482E-13  0.1000E-09  0.0000E+00  0.2967E+16
   -0.552484    3.02015  0.0000E+00  0.7419E-09  0.5336E-13  0.1000E-09  0.0000E+00  0.2375E+16
   -0.594984    3.18980  0.0000E+00  0.1149E-08  0.8171E-13  0.1395E-09  0.0000E+00  0.1841E+16
   -0.637485    3.35229  0.0000E+00  0.1794E-08  0.1261E-12  0.2909E-09  0.0000E+00  0.1363E+16
   -0.679986    3.50718  0.0000E+00  0.2816E-08  0.1958E-12  0.6535E-09  0.0000E+00  0.9413E+15
   -0.722486    3.65442  0.0000E+00  0.4451E-08  0.3061E-12  0.1674E-08  0.0000E+00  0.5742E+15
   -0.764987    3.79364  0.0000E+00  0.7076E-08  0.4816E-12  0.5864E-08  0.0000E+00  0.2596E+15
   -0.807488    3.92421  0.0000E+00  0.1065E-07  0.7194E-12  0.1692E-05  0.0000E+00  0.2921E+14
   -0.849989    4.00513  0.0000E+00  0.1097E-07  0.7423E-12  0.6313E-04  0.0000E+00 -0.8731E+11
   -0.892490    4.00543  0.0000E+00  0.1113E-07  0.7555E-12  0.6121E-04  0.0000E+00 -0.9027E+11
   -0.934990    4.00573  0.0000E+00  0.1128E-07  0.7697E-12  0.6155E-04  0.0000E+00 -0.9144E+11
   -0.977491    4.00603  0.0000E+00  0.1143E-07  0.7850E-12  0.6185E-04  0.0000E+00 -0.9272E+11
   -1.019992    4.00633  0.0000E+00  0.1157E-07  0.8013E-12  0.6205E-04  0.0000E+00 -0.9406E+11
   -1.062493    4.00663  0.0000E+00  0.1170E-07  0.8187E-12  0.6214E-04  0.0000E+00 -0.9566E+11
   -1.104993    4.00693  0.0000E+00  0.1181E-07  0.8374E-12  0.6202E-04  0.0000E+00 -0.9747E+11
   -1.147494    4.00723  0.0000E+00  0.1192E-07  0.8571E-12  0.6162E-04  0.0000E+00 -0.9966E+11
   -1.189994    4.00754  0.0000E+00  0.1200E-07  0.8779E-12  0.6106E-04  0.0000E+00 -0.1025E+12
   -1.232494    4.00784  0.0000E+00  0.1208E-07  0.9015E-12  0.6025E-04  0.0000E+00 -0.1067E+12
   -1.274994    4.00816  0.0000E+00  0.1215E-07  0.9290E-12  0.5925E-04  0.0000E+00 -0.1115E+12
   -1.317493    4.00848  0.0000E+00  0.1221E-07  0.9621E-12  0.5792E-04  0.0000E+00 -0.1161E+12
   -1.359993    4.00882  0.0000E+00  0.1225E-07  0.1004E-11  0.5609E-04  0.0000E+00 -0.1223E+12
   -1.402492    4.00916  0.0000E+00  0.1229E-07  0.1058E-11  0.5381E-04  0.0000E+00 -0.1301E+12
   -1.444991    4.00952  0.0000E+00  0.1231E-07  0.1123E-11  0.5126E-04  0.0000E+00 -0.1392E+12
   -1.487490    4.00990  0.0000E+00  0.1231E-07  0.1203E-11  0.4809E-04  0.0000E+00 -0.1521E+12
   -1.529988    4.01031  0.0000E+00  0.1228E-07  0.1326E-11  0.4382E-04  0.0000E+00 -0.1755E+12
   -1.572486    4.01077  0.0000E+00  0.1217E-07  0.1625E-11  0.3384E-04  0.0000E+00 -0.2610E+12
   -1.614983    4.01145  0.0000E+00  0.1157E-07  0.3121E-11  0.1075E-04  0.0000E+00 -0.9820E+12
   -1.657481    4.01383  0.0000E+00  0.8302E-08  0.1273E-10  0.9398E-06  0.0000E+00 -0.1912E+14
   -1.699978    4.04288  0.0000E+00  0.0000E+00  0.0000E+00  0.0000E+00  0.0000E+00  0.0000E+00
