 1 - depth, m
 2 - temperature, C
 3 - salinity, kg/kg
 4 - turbulent kinetic energy, m**2/s**2
 5 - dissipation rate, m**2/s**3
 6 - kinematic heat conductance, m**2/s
 7 - modulus of horizontal velocity, m/s
 8 - Richardson number, n/d
   -0.000000   10.35533  0.0000E+00  0.1043E-04  0.4967E-06  0.2180E-04  0.1436E-01 -0.2340E-01
   -0.042497   10.37862  0.0000E+00  0.7854E-05  0.1872E-06  0.3609E-04  0.7798E-02 -0.6807E-01
   -0.084995   10.39216  0.0000E+00  0.6208E-05  0.9341E-07  0.5083E-04  0.4862E-02 -0.1494E+00
   -0.127493   10.40157  0.0000E+00  0.5160E-05  0.5372E-07  0.7331E-04  0.3187E-02 -0.2177E+00
   -0.169992   10.40814  0.0000E+00  0.4506E-05  0.3438E-07  0.1223E-03  0.2167E-02  0.6911E+03
   -0.212491   10.41240  0.0000E+00  0.4127E-05  0.2457E-07  0.1991E-03  0.1551E-02  0.1822E+03
   -0.254990   10.41489  0.0000E+00  0.3942E-05  0.1963E-07  0.2663E-03  0.1207E-02  0.2943E+01
   -0.297490   10.41655  0.0000E+00  0.3845E-05  0.1652E-07  0.2929E-03  0.1014E-02  0.1189E+01
   -0.339990   10.41804  0.0000E+00  0.3791E-05  0.1425E-07  0.3257E-03  0.8589E-03  0.1226E+01
   -0.382490   10.41935  0.0000E+00  0.3766E-05  0.1258E-07  0.3593E-03  0.7352E-03  0.1208E+01
   -0.424990   10.42051  0.0000E+00  0.3759E-05  0.1131E-07  0.3940E-03  0.6346E-03  0.1266E+01
   -0.467490   10.42155  0.0000E+00  0.3763E-05  0.1032E-07  0.4300E-03  0.5472E-03  0.1300E+01
   -0.509991   10.42247  0.0000E+00  0.3773E-05  0.9524E-08  0.4663E-03  0.4700E-03  0.1312E+01
   -0.552492   10.42330  0.0000E+00  0.3786E-05  0.8883E-08  0.5021E-03  0.4022E-03  0.1317E+01
   -0.594993   10.42406  0.0000E+00  0.3801E-05  0.8368E-08  0.5363E-03  0.3425E-03  0.1291E+01
   -0.637494   10.42475  0.0000E+00  0.3814E-05  0.7948E-08  0.5685E-03  0.2914E-03  0.1226E+01
   -0.679995   10.42539  0.0000E+00  0.3827E-05  0.7608E-08  0.5975E-03  0.2494E-03  0.1175E+01
   -0.722497   10.42599  0.0000E+00  0.3837E-05  0.7335E-08  0.6225E-03  0.2157E-03  0.1107E+01
   -0.764998   10.42656  0.0000E+00  0.3845E-05  0.7114E-08  0.6419E-03  0.1894E-03  0.1080E+01
   -0.807500   10.42711  0.0000E+00  0.3851E-05  0.6928E-08  0.6582E-03  0.1692E-03  0.1240E+01
   -0.850001   10.42765  0.0000E+00  0.3855E-05  0.6765E-08  0.6743E-03  0.1522E-03  0.1489E+01
   -0.892503   10.42816  0.0000E+00  0.3856E-05  0.6622E-08  0.6891E-03  0.1373E-03  0.1757E+01
   -0.935004   10.42866  0.0000E+00  0.3855E-05  0.6498E-08  0.7018E-03  0.1242E-03  0.2092E+01
   -0.977505   10.42913  0.0000E+00  0.3852E-05  0.6392E-08  0.7119E-03  0.1124E-03  0.2396E+01
   -1.020007   10.42960  0.0000E+00  0.3845E-05  0.6305E-08  0.7195E-03  0.1018E-03  0.2770E+01
   -1.062508   10.43005  0.0000E+00  0.3836E-05  0.6238E-08  0.7241E-03  0.9216E-04  0.3086E+01
   -1.105009   10.43049  0.0000E+00  0.3824E-05  0.6190E-08  0.7257E-03  0.8326E-04  0.3438E+01
   -1.147510   10.43091  0.0000E+00  0.3810E-05  0.6164E-08  0.7242E-03  0.7487E-04  0.3803E+01
   -1.190011   10.43133  0.0000E+00  0.3795E-05  0.6163E-08  0.7193E-03  0.6681E-04  0.4150E+01
   -1.232512   10.43174  0.0000E+00  0.3777E-05  0.6189E-08  0.7103E-03  0.5914E-04  0.4643E+01
   -1.275012   10.43214  0.0000E+00  0.3757E-05  0.6249E-08  0.6967E-03  0.5211E-04  0.5769E+01
   -1.317513   10.43255  0.0000E+00  0.3732E-05  0.6353E-08  0.6776E-03  0.4570E-04  0.7415E+01
   -1.360013   10.43296  0.0000E+00  0.3703E-05  0.6521E-08  0.6514E-03  0.3989E-04  0.9726E+01
   -1.402513   10.43338  0.0000E+00  0.3668E-05  0.6783E-08  0.6169E-03  0.3470E-04  0.1388E+02
   -1.445012   10.43382  0.0000E+00  0.3629E-05  0.7148E-08  0.5754E-03  0.2989E-04  0.2024E+02
   -1.487511   10.43428  0.0000E+00  0.3587E-05  0.7666E-08  0.5350E-03  0.2518E-04  0.2524E+02
   -1.530010   10.43476  0.0000E+00  0.3535E-05  0.8569E-08  0.4474E-03  0.2060E-04  0.3295E+02
   -1.572509   10.43534  0.0000E+00  0.3447E-05  0.1067E-07  0.4900E-03  0.1619E-04  0.4230E+02
   -1.615007   10.43588  0.0000E+00  0.3113E-05  0.2184E-07  0.1845E-03  0.1364E-04 -0.7122E+06
   -1.657505   10.43953  0.0000E+00  0.1985E-05  0.7452E-07  0.4770E-04  0.8623E-05 -0.1512E+05
   -1.700002   10.44540  0.0000E+00  0.0000E+00  0.0000E+00  0.0000E+00  0.1015E-04  0.0000E+00
