 1 - depth, m
 2 - temperature, C
 3 - salinity, kg/kg
 4 - turbulent kinetic energy, m**2/s**2
 5 - dissipation rate, m**2/s**3
 6 - kinematic heat conductance, m**2/s
 7 - modulus of horizontal velocity, m/s
 8 - Richardson number, n/d
   -0.000000   10.30265  0.0000E+00  0.2032E-02  0.1704E-01  0.1828E-03  0.6602E+00 -0.5749E-04
   -0.042497   10.36156  0.0000E+00  0.9756E-03  0.8610E-02  0.3752E-03  0.1386E+00  0.2809E-02
   -0.084995   10.37828  0.0000E+00  0.6465E-03  0.3529E-02  0.4321E-03  0.7789E-01  0.1534E-02
   -0.127493   10.38563  0.0000E+00  0.4759E-03  0.2021E-02  0.3606E-03  0.6162E-01 -0.5728E-02
   -0.169992   10.39042  0.0000E+00  0.3650E-03  0.1155E-02  0.3116E-03  0.4999E-01 -0.4171E-01
   -0.212491   10.39504  0.0000E+00  0.2836E-03  0.7530E-03  0.2899E-03  0.4066E-01 -0.2413E-01
   -0.254990   10.39884  0.0000E+00  0.2198E-03  0.4893E-03  0.2849E-03  0.3372E-01 -0.6643E+00
   -0.297489   10.40162  0.0000E+00  0.1749E-03  0.3289E-03  0.2786E-03  0.2870E-01  0.2514E+01
   -0.339989   10.40403  0.0000E+00  0.1415E-03  0.2182E-03  0.2751E-03  0.2526E-01  0.2994E+01
   -0.382489   10.40627  0.0000E+00  0.1166E-03  0.1394E-03  0.2784E-03  0.2199E-01  0.1083E+02
   -0.424989   10.40802  0.0000E+00  0.9794E-04  0.8505E-04  0.2816E-03  0.1960E-01  0.4150E+01
   -0.467489   10.40982  0.0000E+00  0.8407E-04  0.4918E-04  0.2856E-03  0.1703E-01  0.4699E+02
   -0.509990   10.41161  0.0000E+00  0.7306E-04  0.2690E-04  0.2925E-03  0.1463E-01  0.1390E+02
   -0.552491   10.41324  0.0000E+00  0.6435E-04  0.1398E-04  0.2977E-03  0.1266E-01  0.1687E+02
   -0.594992   10.41517  0.0000E+00  0.5721E-04  0.7157E-05  0.3096E-03  0.1086E-01  0.6290E+02
   -0.637493   10.41673  0.0000E+00  0.5118E-04  0.3812E-05  0.3233E-03  0.9345E-02  0.3746E+02
   -0.679994   10.41807  0.0000E+00  0.4608E-04  0.2222E-05  0.3351E-03  0.8179E-02  0.6484E+01
   -0.722495   10.41935  0.0000E+00  0.4171E-04  0.1441E-05  0.3497E-03  0.7193E-02  0.7385E+02
   -0.764996   10.42050  0.0000E+00  0.3793E-04  0.1023E-05  0.3667E-03  0.6394E-02 -0.8957E+03
   -0.807498   10.42146  0.0000E+00  0.3460E-04  0.7723E-06  0.3840E-03  0.5755E-02  0.8172E+01
   -0.849999   10.42239  0.0000E+00  0.3171E-04  0.6106E-06  0.4020E-03  0.5203E-02  0.1571E+04
   -0.892501   10.42327  0.0000E+00  0.2915E-04  0.4971E-06  0.4188E-03  0.4725E-02  0.6003E+04
   -0.935002   10.42407  0.0000E+00  0.2692E-04  0.4131E-06  0.4345E-03  0.4306E-02 -0.2439E+04
   -0.977503   10.42492  0.0000E+00  0.2493E-04  0.3492E-06  0.4512E-03  0.3924E-02  0.3485E+03
   -1.020005   10.42566  0.0000E+00  0.2318E-04  0.2985E-06  0.4660E-03  0.3582E-02  0.3418E+03
   -1.062506   10.42647  0.0000E+00  0.2161E-04  0.2576E-06  0.4819E-03  0.3261E-02  0.1831E+03
   -1.105007   10.42720  0.0000E+00  0.2022E-04  0.2244E-06  0.4959E-03  0.2965E-02  0.1961E+03
   -1.147508   10.42796  0.0000E+00  0.1900E-04  0.1980E-06  0.5060E-03  0.2680E-02  0.2661E+03
   -1.190008   10.42871  0.0000E+00  0.1794E-04  0.1772E-06  0.5150E-03  0.2400E-02  0.2360E+03
   -1.232509   10.42945  0.0000E+00  0.1697E-04  0.1605E-06  0.5280E-03  0.2131E-02  0.4048E+03
   -1.275009   10.43018  0.0000E+00  0.1606E-04  0.1472E-06  0.5335E-03  0.1888E-02  0.2732E+03
   -1.317510   10.43090  0.0000E+00  0.1520E-04  0.1370E-06  0.5311E-03  0.1668E-02  0.5422E+03
   -1.360010   10.43163  0.0000E+00  0.1436E-04  0.1303E-06  0.5196E-03  0.1471E-02  0.6645E+03
   -1.402509   10.43237  0.0000E+00  0.1350E-04  0.1282E-06  0.4975E-03  0.1297E-02  0.8994E+03
   -1.445009   10.43315  0.0000E+00  0.1268E-04  0.1331E-06  0.4670E-03  0.1134E-02  0.1287E+04
   -1.487508   10.43401  0.0000E+00  0.1190E-04  0.1491E-06  0.4341E-03  0.9666E-03  0.1697E+04
   -1.530007   10.43500  0.0000E+00  0.1106E-04  0.1893E-06  0.3848E-03  0.7865E-03  0.2684E+04
   -1.572505   10.43623  0.0000E+00  0.9986E-05  0.3045E-06  0.3349E-03  0.6061E-03  0.3920E+04
   -1.615003   10.43752  0.0000E+00  0.8016E-05  0.7460E-06  0.2182E-03  0.4879E-03  0.2485E+05
   -1.657501   10.44064  0.0000E+00  0.5311E-05  0.1728E-05  0.6659E-04  0.3618E-03 -0.1490E+08
   -1.699998   10.45514  0.0000E+00  0.0000E+00  0.0000E+00  0.0000E+00  0.5334E-03  0.0000E+00
