 1 - depth, m
 2 - temperature, C
 3 - salinity, kg/kg
 4 - turbulent kinetic energy, m**2/s**2
 5 - dissipation rate, m**2/s**3
 6 - kinematic heat conductance, m**2/s
 7 - modulus of horizontal velocity, m/s
 8 - Richardson number, n/d
   -0.000000   13.93606  0.0000E+00  0.3622E-04  0.8323E-05  0.3258E-04  0.3685E-01 -0.2846E-02
   -0.042497   13.96219  0.0000E+00  0.2067E-04  0.2289E-05  0.4062E-04  0.1356E-01 -0.4113E-01
   -0.084995   13.96944  0.0000E+00  0.1445E-04  0.9651E-06  0.4494E-04  0.8941E-02 -0.6564E-01
   -0.127493   13.97447  0.0000E+00  0.1048E-04  0.4560E-06  0.5035E-04  0.6296E-02 -0.1324E+00
   -0.169991   13.97851  0.0000E+00  0.7813E-05  0.2335E-06  0.5768E-04  0.4498E-02 -0.2356E+00
   -0.212490   13.98191  0.0000E+00  0.5968E-05  0.1266E-06  0.7379E-04  0.3207E-02  0.3756E+03
   -0.254989   13.98471  0.0000E+00  0.4720E-05  0.7226E-07  0.9344E-04  0.2304E-02  0.9228E+02
   -0.297489   13.98695  0.0000E+00  0.3925E-05  0.4370E-07  0.1159E-03  0.1697E-02  0.5205E+01
   -0.339988   13.98864  0.0000E+00  0.3453E-05  0.2845E-07  0.1507E-03  0.1286E-02  0.2904E+03
   -0.382488   13.98987  0.0000E+00  0.3186E-05  0.2005E-07  0.1980E-03  0.1005E-02  0.2712E+03
   -0.424989   13.99074  0.0000E+00  0.3043E-05  0.1530E-07  0.2530E-03  0.8168E-03  0.2937E+03
   -0.467489   13.99144  0.0000E+00  0.2967E-05  0.1241E-07  0.3063E-03  0.6784E-03  0.6041E+02
   -0.509989   13.99204  0.0000E+00  0.2931E-05  0.1052E-07  0.3329E-03  0.5688E-03  0.2705E+01
   -0.552490   13.99257  0.0000E+00  0.2919E-05  0.9217E-08  0.3622E-03  0.4749E-03  0.2793E+01
   -0.594991   13.99305  0.0000E+00  0.2922E-05  0.8278E-08  0.3913E-03  0.3943E-03  0.2269E+01
   -0.637492   13.99349  0.0000E+00  0.2933E-05  0.7561E-08  0.4204E-03  0.3258E-03  0.2416E+01
   -0.679993   13.99390  0.0000E+00  0.2950E-05  0.7006E-08  0.4493E-03  0.2701E-03  0.2661E+01
   -0.722494   13.99428  0.0000E+00  0.2969E-05  0.6580E-08  0.4774E-03  0.2255E-03  0.2986E+01
   -0.764996   13.99462  0.0000E+00  0.2992E-05  0.6251E-08  0.5037E-03  0.1908E-03  0.3453E+01
   -0.807497   13.99493  0.0000E+00  0.3018E-05  0.6000E-08  0.5274E-03  0.1644E-03  0.4224E+01
   -0.849998   13.99523  0.0000E+00  0.3045E-05  0.5812E-08  0.5488E-03  0.1436E-03  0.5240E+01
   -0.892500   13.99552  0.0000E+00  0.3075E-05  0.5673E-08  0.5681E-03  0.1267E-03  0.6629E+01
   -0.935001   13.99579  0.0000E+00  0.3106E-05  0.5575E-08  0.5851E-03  0.1128E-03  0.8526E+01
   -0.977502   13.99607  0.0000E+00  0.3139E-05  0.5511E-08  0.5998E-03  0.1008E-03  0.1088E+02
   -1.020003   13.99634  0.0000E+00  0.3171E-05  0.5476E-08  0.6121E-03  0.9051E-04  0.1395E+02
   -1.062505   13.99662  0.0000E+00  0.3203E-05  0.5466E-08  0.6217E-03  0.8132E-04  0.1757E+02
   -1.105006   13.99691  0.0000E+00  0.3234E-05  0.5481E-08  0.6285E-03  0.7310E-04  0.2203E+02
   -1.147506   13.99722  0.0000E+00  0.3263E-05  0.5518E-08  0.6321E-03  0.6543E-04  0.2755E+02
   -1.190007   13.99754  0.0000E+00  0.3287E-05  0.5575E-08  0.6326E-03  0.5818E-04  0.3313E+02
   -1.232508   13.99787  0.0000E+00  0.3308E-05  0.5658E-08  0.6296E-03  0.5129E-04  0.4039E+02
   -1.275008   13.99822  0.0000E+00  0.3325E-05  0.5773E-08  0.6226E-03  0.4507E-04  0.5369E+02
   -1.317508   13.99858  0.0000E+00  0.3338E-05  0.5930E-08  0.6106E-03  0.3941E-04  0.7350E+02
   -1.360008   13.99896  0.0000E+00  0.3346E-05  0.6149E-08  0.5925E-03  0.3434E-04  0.1021E+03
   -1.402508   13.99935  0.0000E+00  0.3349E-05  0.6462E-08  0.5672E-03  0.2981E-04  0.1550E+03
   -1.445007   13.99977  0.0000E+00  0.3346E-05  0.6870E-08  0.5346E-03  0.2566E-04  0.2392E+03
   -1.487506   14.00025  0.0000E+00  0.3334E-05  0.7421E-08  0.5011E-03  0.2157E-04  0.3104E+03
   -1.530005   14.00077  0.0000E+00  0.3308E-05  0.8357E-08  0.4374E-03  0.1763E-04  0.4895E+03
   -1.572504   14.00142  0.0000E+00  0.3247E-05  0.1048E-07  0.4121E-03  0.1380E-04  0.9263E+03
   -1.615002   14.00210  0.0000E+00  0.3002E-05  0.2039E-07  0.2273E-03  0.1150E-04 -0.1417E+07
   -1.657499   14.00473  0.0000E+00  0.2028E-05  0.6916E-07  0.3407E-04  0.7570E-05 -0.1093E+07
   -1.699997   14.01808  0.0000E+00  0.0000E+00  0.0000E+00  0.0000E+00  0.8728E-05  0.0000E+00
