 1 - depth, m
 2 - temperature, C
 3 - salinity, kg/kg
 4 - turbulent kinetic energy, m**2/s**2
 5 - dissipation rate, m**2/s**3
 6 - kinematic heat conductance, m**2/s
 7 - modulus of horizontal velocity, m/s
 8 - Richardson number, n/d
   -0.000000    6.49799  0.0000E+00  0.3241E-03  0.2129E-03  0.7206E-04  0.1888E+00  0.1818E-02
   -0.042497    6.54839  0.0000E+00  0.1778E-03  0.6744E-04  0.1844E-03  0.4371E-01 -0.4520E-02
   -0.084995    6.55564  0.0000E+00  0.1268E-03  0.3178E-04  0.1590E-03  0.2948E-01 -0.9688E-02
   -0.127493    6.56210  0.0000E+00  0.9431E-04  0.1548E-04  0.1434E-03  0.2343E-01 -0.1638E-01
   -0.169992    6.56742  0.0000E+00  0.7103E-04  0.7914E-05  0.1344E-03  0.1907E-01 -0.1714E-01
   -0.212491    6.57221  0.0000E+00  0.5363E-04  0.4165E-05  0.1286E-03  0.1556E-01 -0.3034E-01
   -0.254990    6.57691  0.0000E+00  0.4074E-04  0.2261E-05  0.1257E-03  0.1274E-01 -0.1840E-01
   -0.297489    6.58167  0.0000E+00  0.3158E-04  0.1325E-05  0.1238E-03  0.1055E-01 -0.1060E+00
   -0.339989    6.58625  0.0000E+00  0.2509E-04  0.8357E-06  0.1231E-03  0.8815E-02  0.5361E+00
   -0.382489    6.59051  0.0000E+00  0.2030E-04  0.5482E-06  0.1252E-03  0.7395E-02  0.6819E+00
   -0.424989    6.59427  0.0000E+00  0.1671E-04  0.3695E-06  0.1275E-03  0.6273E-02  0.1644E+02
   -0.467490    6.59775  0.0000E+00  0.1397E-04  0.2549E-06  0.1319E-03  0.5277E-02  0.2786E+01
   -0.509990    6.60096  0.0000E+00  0.1180E-04  0.1793E-06  0.1382E-03  0.4391E-02  0.1597E+02
   -0.552491    6.60393  0.0000E+00  0.1005E-04  0.1281E-06  0.1458E-03  0.3609E-02  0.5351E+01
   -0.594992    6.60671  0.0000E+00  0.8623E-05  0.9293E-07  0.1548E-03  0.2914E-02  0.5071E+02
   -0.637493    6.60931  0.0000E+00  0.7418E-05  0.6798E-07  0.1668E-03  0.2318E-02  0.8365E+01
   -0.679994    6.61173  0.0000E+00  0.6412E-05  0.5019E-07  0.1798E-03  0.1835E-02  0.5729E+01
   -0.722496    6.61397  0.0000E+00  0.5574E-05  0.3740E-07  0.1973E-03  0.1445E-02  0.2773E+03
   -0.764997    6.61604  0.0000E+00  0.4882E-05  0.2816E-07  0.2217E-03  0.1140E-02  0.2781E+03
   -0.807498    6.61791  0.0000E+00  0.4313E-05  0.2145E-07  0.2449E-03  0.9123E-03  0.6948E+02
   -0.850000    6.61961  0.0000E+00  0.3859E-05  0.1666E-07  0.2694E-03  0.7343E-03  0.1560E+03
   -0.892501    6.62114  0.0000E+00  0.3497E-05  0.1320E-07  0.2925E-03  0.5957E-03  0.1411E+02
   -0.935003    6.62253  0.0000E+00  0.3213E-05  0.1072E-07  0.3114E-03  0.4882E-03  0.3036E+02
   -0.977504    6.62380  0.0000E+00  0.2990E-05  0.8938E-08  0.3288E-03  0.4020E-03  0.9881E+02
   -1.020005    6.62495  0.0000E+00  0.2816E-05  0.7640E-08  0.3449E-03  0.3341E-03  0.1130E+03
   -1.062506    6.62600  0.0000E+00  0.2680E-05  0.6692E-08  0.3599E-03  0.2790E-03  0.7481E+02
   -1.105007    6.62696  0.0000E+00  0.2575E-05  0.5998E-08  0.3733E-03  0.2346E-03  0.1875E+02
   -1.147508    6.62785  0.0000E+00  0.2495E-05  0.5495E-08  0.3823E-03  0.1974E-03  0.2204E+02
   -1.190009    6.62868  0.0000E+00  0.2432E-05  0.5129E-08  0.3894E-03  0.1646E-03  0.1745E+02
   -1.232510    6.62947  0.0000E+00  0.2381E-05  0.4853E-08  0.3929E-03  0.1360E-03  0.1317E+02
   -1.275010    6.63025  0.0000E+00  0.2336E-05  0.4639E-08  0.3936E-03  0.1124E-03  0.1763E+02
   -1.317510    6.63101  0.0000E+00  0.2296E-05  0.4474E-08  0.3923E-03  0.9268E-04  0.2503E+02
   -1.360010    6.63177  0.0000E+00  0.2258E-05  0.4352E-08  0.3880E-03  0.7621E-04  0.3633E+02
   -1.402510    6.63252  0.0000E+00  0.2219E-05  0.4274E-08  0.3808E-03  0.6272E-04  0.5742E+02
   -1.445010    6.63328  0.0000E+00  0.2185E-05  0.4255E-08  0.3708E-03  0.5118E-04  0.9222E+02
   -1.487509    6.63405  0.0000E+00  0.2154E-05  0.4307E-08  0.3565E-03  0.4066E-04  0.1225E+03
   -1.530008    6.63483  0.0000E+00  0.2123E-05  0.4475E-08  0.3344E-03  0.3108E-04  0.1536E+03
   -1.572506    6.63566  0.0000E+00  0.2078E-05  0.4946E-08  0.2903E-03  0.2310E-04  0.2950E+03
   -1.615004    6.63662  0.0000E+00  0.1965E-05  0.6665E-08  0.2199E-03  0.1766E-04  0.1721E+04
   -1.657502    6.63789  0.0000E+00  0.1341E-05  0.2189E-07  0.1234E-04  0.1345E-04 -0.8150E+06
   -1.699999    6.66015  0.0000E+00  0.0000E+00  0.0000E+00  0.0000E+00  0.1347E-04  0.0000E+00
