 1 - depth, m
 2 - temperature, C
 3 - salinity, kg/kg
 4 - turbulent kinetic energy, m**2/s**2
 5 - dissipation rate, m**2/s**3
 6 - kinematic heat conductance, m**2/s
 7 - modulus of horizontal velocity, m/s
 8 - Richardson number, n/d
   -0.000000    0.00000  0.0000E+00  0.3189E-13  0.5207E-16  0.1000E-09  0.9036E-24  0.1081E+17
   -0.042496    0.16602  0.0000E+00  0.3189E-13  0.5207E-16  0.1000E-09  0.1952E-24  0.8006E+16
   -0.084993    0.29439  0.0000E+00  0.3189E-13  0.5207E-16  0.1000E-09  0.4033E-25  0.6391E+16
   -0.127490    0.40052  0.0000E+00  0.3189E-13  0.5207E-16  0.1000E-09  0.7948E-26  0.5057E+16
   -0.169987    0.48695  0.0000E+00  0.3189E-13  0.5207E-16  0.1000E-09  0.1488E-26  0.4275E+16
   -0.212485    0.56172  0.0000E+00  0.3189E-13  0.5207E-16  0.1000E-09  0.2480E-27  0.3608E+16
   -0.254983    0.62606  0.0000E+00  0.3189E-13  0.5207E-16  0.1000E-09  0.3852E-28  0.2976E+16
   -0.297481    0.68003  0.0000E+00  0.3189E-13  0.5207E-16  0.1000E-09  0.6761E-29  0.2762E+16
   -0.339980    0.73089  0.0000E+00  0.3189E-13  0.5207E-16  0.1000E-09  0.1498E-29  0.3083E+16
   -0.382478    0.78865  0.0000E+00  0.3189E-13  0.5207E-16  0.1000E-09  0.3340E-30  0.3331E+16
   -0.424977    0.85233  0.0000E+00  0.3189E-13  0.5207E-16  0.1000E-09  0.1046E-30  0.4019E+16
   -0.467477    0.93109  0.0000E+00  0.3189E-13  0.5207E-16  0.1000E-09  0.3154E-31  0.4572E+16
   -0.509976    1.02343  0.0000E+00  0.3189E-13  0.5207E-16  0.1000E-09  0.8518E-32  0.4981E+16
   -0.552476    1.12763  0.0000E+00  0.3189E-13  0.5207E-16  0.1000E-09  0.2136E-32  0.5280E+16
   -0.594976    1.24263  0.0000E+00  0.3189E-13  0.5207E-16  0.1000E-09  0.4088E-33  0.5232E+16
   -0.637476    1.36181  0.0000E+00  0.3189E-13  0.5207E-16  0.1000E-09  0.5612E-34  0.4671E+16
   -0.679976    1.47322  0.0000E+00  0.3189E-13  0.5207E-16  0.1000E-09  0.7141E-35  0.4079E+16
   -0.722476    1.57492  0.0000E+00  0.3261E-13  0.5207E-16  0.1000E-09  0.7628E-36  0.3225E+16
   -0.764976    1.65865  0.0000E+00  0.6653E-13  0.5506E-16  0.1000E-09  0.7437E-37  0.2276E+16
   -0.807476    1.71973  0.0000E+00  0.1846E-12  0.9349E-16  0.1000E-09  0.8413E-38  0.1812E+16
   -0.849976    1.76965  0.0000E+00  0.5421E-12  0.2141E-15  0.1000E-09  0.1013E-38  0.1592E+16
   -0.892476    1.81451  0.0000E+00  0.1503E-11  0.5592E-15  0.1000E-09  0.1248E-39  0.1791E+16
   -0.934977    1.86616  0.0000E+00  0.4010E-11  0.1443E-14  0.1000E-09  0.1841E-40  0.2517E+16
   -0.977477    1.94094  0.0000E+00  0.1052E-10  0.3673E-14  0.1000E-09  0.2552E-41  0.3153E+16
   -1.019977    2.03876  0.0000E+00  0.2712E-10  0.9202E-14  0.1000E-09  0.4209E-42  0.3865E+16
   -1.062477    2.16602  0.0000E+00  0.6893E-10  0.2272E-13  0.1000E-09  0.6652E-43  0.4400E+16
   -1.104977    2.32309  0.0000E+00  0.1728E-09  0.5537E-13  0.1013E-09  0.1338E-43  0.4833E+16
   -1.147477    2.51543  0.0000E+00  0.4236E-09  0.1320E-12  0.1232E-09  0.3217E-44  0.5011E+16
   -1.189976    2.74694  0.0000E+00  0.1024E-08  0.3104E-12  0.2359E-09  0.5192E-45  0.4709E+16
   -1.232476    3.01524  0.0000E+00  0.2512E-08  0.7414E-12  0.6747E-09  0.4348E-46  0.3843E+16
   -1.274975    3.31324  0.0000E+00  0.6172E-08  0.1776E-11  0.2982E-08  0.3223E-47  0.2579E+16
   -1.317474    3.64747  0.0000E+00  0.1266E-07  0.3652E-11  0.3084E-05  0.2050E-48  0.1054E+16
   -1.359973    3.93152  0.0000E+00  0.1758E-07  0.5169E-11  0.1824E-04  0.1105E-49  0.1433E+15
   -1.402471    4.03690  0.0000E+00  0.1974E-07  0.5922E-11  0.2821E-04  0.5697E-51 -0.1677E+13
   -1.444970    4.03909  0.0000E+00  0.2088E-07  0.6452E-11  0.2844E-04  0.1946E-51 -0.1761E+13
   -1.487468    4.04127  0.0000E+00  0.2167E-07  0.7011E-11  0.2791E-04  0.5653E-52 -0.1900E+13
   -1.529965    4.04353  0.0000E+00  0.2220E-07  0.7779E-11  0.2623E-04  0.1037E-52 -0.2183E+13
   -1.572463    4.04602  0.0000E+00  0.2249E-07  0.9380E-11  0.2217E-04  0.1298E-53 -0.3033E+13
   -1.614960    4.04932  0.0000E+00  0.2210E-07  0.1542E-10  0.1034E-04  0.1846E-54 -0.7991E+13
   -1.657456    4.05723  0.0000E+00  0.1825E-07  0.4307E-10  0.1837E-05  0.1638E-55 -0.7098E+14
   -1.699952    4.10540  0.0000E+00  0.0000E+00  0.0000E+00  0.0000E+00  0.2194E-55  0.0000E+00
