 1 - depth, m
 2 - temperature, C
 3 - salinity, kg/kg
 4 - turbulent kinetic energy, m**2/s**2
 5 - dissipation rate, m**2/s**3
 6 - kinematic heat conductance, m**2/s
 7 - modulus of horizontal velocity, m/s
 8 - Richardson number, n/d
   -0.000000    0.00000  0.0000E+00  0.3189E-13  0.5207E-16  0.1000E-09  0.0000E+00  0.1306E+17
   -0.042497    0.20128  0.0000E+00  0.3189E-13  0.5207E-16  0.1000E-09  0.0000E+00  0.1239E+17
   -0.084994    0.40335  0.0000E+00  0.3189E-13  0.5207E-16  0.1000E-09  0.0000E+00  0.1169E+17
   -0.127492    0.60590  0.0000E+00  0.3189E-13  0.5207E-16  0.1000E-09  0.0000E+00  0.1071E+17
   -0.169990    0.80340  0.0000E+00  0.3189E-13  0.5207E-16  0.1000E-09  0.0000E+00  0.9788E+16
   -0.212489    0.99594  0.0000E+00  0.3189E-13  0.5207E-16  0.1000E-09  0.0000E+00  0.8920E+16
   -0.254988    1.18352  0.0000E+00  0.3189E-13  0.5207E-16  0.1000E-09  0.0000E+00  0.8102E+16
   -0.297487    1.36608  0.0000E+00  0.3189E-13  0.5207E-16  0.1000E-09  0.0000E+00  0.7334E+16
   -0.339986    1.54362  0.0000E+00  0.3189E-13  0.5207E-16  0.1000E-09  0.0000E+00  0.6619E+16
   -0.382486    1.71626  0.0000E+00  0.1414E-12  0.5207E-16  0.1000E-09  0.0000E+00  0.5947E+16
   -0.424986    1.88390  0.0000E+00  0.3821E-12  0.6199E-16  0.1000E-09  0.0000E+00  0.5326E+16
   -0.467486    2.04675  0.0000E+00  0.7814E-12  0.9537E-16  0.1000E-09  0.0000E+00  0.4743E+16
   -0.509986    2.20471  0.0000E+00  0.1427E-11  0.1563E-15  0.1000E-09  0.0000E+00  0.4217E+16
   -0.552487    2.35836  0.0000E+00  0.2478E-11  0.2585E-15  0.1000E-09  0.0000E+00  0.3724E+16
   -0.594987    2.50765  0.0000E+00  0.4202E-11  0.4260E-15  0.1000E-09  0.0000E+00  0.3257E+16
   -0.637488    2.65220  0.0000E+00  0.7101E-11  0.7047E-15  0.1000E-09  0.0000E+00  0.2813E+16
   -0.679989    2.79138  0.0000E+00  0.1198E-10  0.1167E-14  0.1000E-09  0.0000E+00  0.2399E+16
   -0.722490    2.92470  0.0000E+00  0.2022E-10  0.1935E-14  0.1000E-09  0.0000E+00  0.2011E+16
   -0.764991    3.05126  0.0000E+00  0.3418E-10  0.3218E-14  0.1000E-09  0.0000E+00  0.1654E+16
   -0.807492    3.17020  0.0000E+00  0.5775E-10  0.5347E-14  0.1000E-09  0.0000E+00  0.1343E+16
   -0.849993    3.28163  0.0000E+00  0.9657E-10  0.8797E-14  0.1000E-09  0.0000E+00  0.1073E+16
   -0.892494    3.38544  0.0000E+00  0.1608E-09  0.1442E-13  0.1000E-09  0.0000E+00  0.8604E+15
   -0.934995    3.48416  0.0000E+00  0.2651E-09  0.2340E-13  0.1074E-09  0.0000E+00  0.6875E+15
   -0.977496    3.58010  0.0000E+00  0.4345E-09  0.3774E-13  0.2250E-09  0.0000E+00  0.5277E+15
   -1.019997    3.67323  0.0000E+00  0.7075E-09  0.6050E-13  0.5001E-09  0.0000E+00  0.3805E+15
   -1.062497    3.76349  0.0000E+00  0.1145E-08  0.9640E-13  0.1236E-08  0.0000E+00  0.2452E+15
   -1.104998    3.85054  0.0000E+00  0.1842E-08  0.1527E-12  0.3921E-08  0.0000E+00  0.1225E+15
   -1.147499    3.93319  0.0000E+00  0.2891E-08  0.2366E-12  0.3563E-07  0.0000E+00  0.2093E+14
   -1.189999    3.99867  0.0000E+00  0.3247E-08  0.2670E-12  0.1742E-04  0.0000E+00 -0.1273E+12
   -1.232500    3.99931  0.0000E+00  0.3415E-08  0.2838E-12  0.1757E-04  0.0000E+00 -0.1286E+12
   -1.275000    3.99993  0.0000E+00  0.3564E-08  0.3018E-12  0.1744E-04  0.0000E+00 -0.1319E+12
   -1.317500    4.00054  0.0000E+00  0.3697E-08  0.3221E-12  0.1734E-04  0.0000E+00 -0.1389E+12
   -1.359999    4.00115  0.0000E+00  0.3816E-08  0.3462E-12  0.1691E-04  0.0000E+00 -0.1496E+12
   -1.402499    4.00178  0.0000E+00  0.3923E-08  0.3767E-12  0.1602E-04  0.0000E+00 -0.1658E+12
   -1.444998    4.00245  0.0000E+00  0.4005E-08  0.4129E-12  0.1478E-04  0.0000E+00 -0.1886E+12
   -1.487496    4.00318  0.0000E+00  0.4059E-08  0.4584E-12  0.1323E-04  0.0000E+00 -0.2230E+12
   -1.529995    4.00400  0.0000E+00  0.4082E-08  0.5306E-12  0.1120E-04  0.0000E+00 -0.2909E+12
   -1.572493    4.00502  0.0000E+00  0.4050E-08  0.6966E-12  0.8208E-05  0.0000E+00 -0.5035E+12
   -1.614991    4.00667  0.0000E+00  0.3761E-08  0.1377E-11  0.2852E-05  0.0000E+00 -0.1983E+13
   -1.657488    4.01215  0.0000E+00  0.2849E-08  0.4032E-11  0.4524E-06  0.0000E+00 -0.2439E+14
   -1.699985    4.04782  0.0000E+00  0.0000E+00  0.0000E+00  0.0000E+00  0.0000E+00  0.0000E+00
