 1 - depth, m
 2 - temperature, C
 3 - salinity, kg/kg
 4 - turbulent kinetic energy, m**2/s**2
 5 - dissipation rate, m**2/s**3
 6 - kinematic heat conductance, m**2/s
 7 - modulus of horizontal velocity, m/s
 8 - Richardson number, n/d
   -0.000000    7.42484  0.0000E+00  0.3800E-03  0.5433E-03  0.9702E-04  0.2193E+00  0.1471E-03
   -0.042497    7.42849  0.0000E+00  0.1966E-03  0.1807E-03  0.1831E-03  0.5166E-01 -0.9685E-03
   -0.084995    7.42888  0.0000E+00  0.1343E-03  0.7787E-04  0.1415E-03  0.3324E-01 -0.1184E-02
   -0.127493    7.42913  0.0000E+00  0.9702E-04  0.3528E-04  0.1256E-03  0.2600E-01 -0.3023E-02
   -0.169992    7.42933  0.0000E+00  0.7070E-04  0.1623E-04  0.1167E-03  0.2086E-01 -0.3107E-01
   -0.212491    7.42952  0.0000E+00  0.5166E-04  0.7427E-05  0.1113E-03  0.1664E-01 -0.1114E+00
   -0.254990    7.42962  0.0000E+00  0.3804E-04  0.3261E-05  0.1081E-03  0.1318E-01  0.3847E-01
   -0.297490    7.42953  0.0000E+00  0.2904E-04  0.1562E-05  0.1053E-03  0.1054E-01 -0.1537E-01
   -0.339989    7.42932  0.0000E+00  0.2300E-04  0.8675E-06  0.1034E-03  0.8616E-02 -0.2350E-01
   -0.382489    7.42929  0.0000E+00  0.1868E-04  0.5496E-06  0.1037E-03  0.7110E-02  0.1012E+00
   -0.424990    7.42938  0.0000E+00  0.1552E-04  0.3731E-06  0.1050E-03  0.5991E-02  0.8701E+01
   -0.467490    7.42962  0.0000E+00  0.1307E-04  0.2617E-06  0.1085E-03  0.5025E-02  0.3635E+02
   -0.509991    7.42994  0.0000E+00  0.1113E-04  0.1878E-06  0.1132E-03  0.4178E-02  0.9753E+01
   -0.552492    7.43030  0.0000E+00  0.9533E-05  0.1372E-06  0.1176E-03  0.3437E-02  0.1062E+02
   -0.594993    7.43070  0.0000E+00  0.8193E-05  0.1017E-06  0.1225E-03  0.2781E-02  0.2283E+02
   -0.637494    7.43112  0.0000E+00  0.7038E-05  0.7593E-07  0.1276E-03  0.2220E-02  0.5018E+03
   -0.679995    7.43152  0.0000E+00  0.6051E-05  0.5702E-07  0.1328E-03  0.1768E-02  0.1206E+02
   -0.722496    7.43190  0.0000E+00  0.5208E-05  0.4297E-07  0.1386E-03  0.1402E-02  0.1393E+03
   -0.764998    7.43223  0.0000E+00  0.4491E-05  0.3244E-07  0.1445E-03  0.1117E-02  0.7104E+02
   -0.807499    7.43253  0.0000E+00  0.3885E-05  0.2451E-07  0.1530E-03  0.9015E-03  0.1784E+03
   -0.850000    7.43278  0.0000E+00  0.3384E-05  0.1862E-07  0.1634E-03  0.7308E-03  0.3305E+03
   -0.892502    7.43302  0.0000E+00  0.2968E-05  0.1422E-07  0.1754E-03  0.5948E-03  0.1319E+04
   -0.935003    7.43325  0.0000E+00  0.2629E-05  0.1096E-07  0.1885E-03  0.4867E-03  0.5813E+04
   -0.977505    7.43349  0.0000E+00  0.2352E-05  0.8540E-08  0.2018E-03  0.3971E-03  0.1855E+04
   -1.020006    7.43374  0.0000E+00  0.2128E-05  0.6749E-08  0.2146E-03  0.3245E-03  0.1520E+03
   -1.062507    7.43402  0.0000E+00  0.1948E-05  0.5429E-08  0.2265E-03  0.2637E-03  0.2358E+03
   -1.105008    7.43432  0.0000E+00  0.1806E-05  0.4456E-08  0.2395E-03  0.2135E-03  0.2867E+03
   -1.147509    7.43465  0.0000E+00  0.1698E-05  0.3762E-08  0.2517E-03  0.1705E-03  0.2315E+03
   -1.190010    7.43502  0.0000E+00  0.1617E-05  0.3276E-08  0.2637E-03  0.1328E-03  0.3925E+03
   -1.232511    7.43541  0.0000E+00  0.1555E-05  0.2926E-08  0.2734E-03  0.1010E-03  0.3537E+03
   -1.275011    7.43581  0.0000E+00  0.1506E-05  0.2672E-08  0.2813E-03  0.7651E-04  0.5177E+03
   -1.317512    7.43621  0.0000E+00  0.1467E-05  0.2492E-08  0.2872E-03  0.5783E-04  0.8216E+03
   -1.360012    7.43663  0.0000E+00  0.1435E-05  0.2368E-08  0.2896E-03  0.4388E-04  0.1297E+04
   -1.402511    7.43705  0.0000E+00  0.1409E-05  0.2292E-08  0.2884E-03  0.3377E-04  0.2457E+04
   -1.445011    7.43750  0.0000E+00  0.1389E-05  0.2268E-08  0.2844E-03  0.2604E-04  0.3475E+04
   -1.487510    7.43798  0.0000E+00  0.1374E-05  0.2294E-08  0.2753E-03  0.1961E-04  0.4983E+04
   -1.530009    7.43853  0.0000E+00  0.1357E-05  0.2387E-08  0.2579E-03  0.1420E-04  0.6633E+04
   -1.572508    7.43913  0.0000E+00  0.1332E-05  0.2645E-08  0.2234E-03  0.9974E-05  0.1354E+05
   -1.615006    7.43984  0.0000E+00  0.1261E-05  0.3603E-08  0.1595E-03  0.7298E-05  0.9138E+05
   -1.657504    7.44088  0.0000E+00  0.8676E-06  0.1175E-07  0.1029E-04  0.5103E-05 -0.1164E+09
   -1.700001    7.45800  0.0000E+00  0.0000E+00  0.0000E+00  0.0000E+00  0.5100E-05  0.0000E+00
