 1 - depth, m
 2 - temperature, C
 3 - salinity, kg/kg
 4 - turbulent kinetic energy, m**2/s**2
 5 - dissipation rate, m**2/s**3
 6 - kinematic heat conductance, m**2/s
 7 - modulus of horizontal velocity, m/s
 8 - Richardson number, n/d
   -0.000000   17.26537  0.0000E+00  0.4539E-04  0.8882E-05  0.3166E-04  0.4551E-01 -0.9018E-01
   -0.042497   17.33128  0.0000E+00  0.2756E-04  0.2359E-05  0.4963E-04  0.1796E-01 -0.4814E-01
   -0.084995   17.35192  0.0000E+00  0.2035E-04  0.9756E-06  0.6731E-04  0.1193E-01 -0.1029E+00
   -0.127493   17.36603  0.0000E+00  0.1606E-04  0.4813E-06  0.8851E-04  0.8510E-02  0.1795E+00
   -0.169992   17.37677  0.0000E+00  0.1331E-04  0.2670E-06  0.1218E-03  0.6240E-02  0.2372E+01
   -0.212491   17.38482  0.0000E+00  0.1160E-04  0.1659E-06  0.2349E-03  0.4693E-02  0.1065E+04
   -0.254990   17.38967  0.0000E+00  0.1063E-04  0.1155E-06  0.3365E-03  0.3750E-02  0.6166E+03
   -0.297489   17.39271  0.0000E+00  0.1008E-04  0.8757E-07  0.3908E-03  0.3142E-02  0.9081E+01
   -0.339989   17.39506  0.0000E+00  0.9794E-05  0.7018E-07  0.4464E-03  0.2671E-02  0.2256E+01
   -0.382489   17.39704  0.0000E+00  0.9656E-05  0.5850E-07  0.5067E-03  0.2287E-02  0.1044E+02
   -0.424989   17.39872  0.0000E+00  0.9615E-05  0.5027E-07  0.5596E-03  0.1971E-02  0.2150E+01
   -0.467490   17.40019  0.0000E+00  0.9626E-05  0.4415E-07  0.6022E-03  0.1691E-02  0.1972E+01
   -0.509990   17.40152  0.0000E+00  0.9664E-05  0.3946E-07  0.6440E-03  0.1440E-02  0.1971E+01
   -0.552491   17.40273  0.0000E+00  0.9709E-05  0.3578E-07  0.6874E-03  0.1216E-02  0.1957E+01
   -0.594992   17.40385  0.0000E+00  0.9748E-05  0.3289E-07  0.7377E-03  0.1016E-02  0.1880E+01
   -0.637493   17.40486  0.0000E+00  0.9774E-05  0.3056E-07  0.8024E-03  0.8425E-03  0.1735E+01
   -0.679994   17.40577  0.0000E+00  0.9784E-05  0.2871E-07  0.8783E-03  0.6986E-03  0.1629E+01
   -0.722495   17.40660  0.0000E+00  0.9775E-05  0.2725E-07  0.9715E-03  0.5811E-03  0.1523E+01
   -0.764997   17.40734  0.0000E+00  0.9747E-05  0.2606E-07  0.1048E-02  0.4883E-03  0.1434E+01
   -0.807498   17.40802  0.0000E+00  0.9717E-05  0.2549E-07  0.1132E-02  0.4128E-03  0.1273E+01
   -0.850000   17.40864  0.0000E+00  0.9688E-05  0.2515E-07  0.1174E-02  0.3856E-03  0.3012E+01
   -0.892501   17.40922  0.0000E+00  0.9640E-05  0.2483E-07  0.1130E-02  0.3621E-03  0.1164E+01
   -0.935002   17.40983  0.0000E+00  0.9561E-05  0.2452E-07  0.1126E-02  0.3244E-03  0.1152E+01
   -0.977504   17.41043  0.0000E+00  0.9477E-05  0.2434E-07  0.1111E-02  0.2931E-03  0.1087E+01
   -1.020005   17.41102  0.0000E+00  0.9386E-05  0.2430E-07  0.1092E-02  0.2671E-03  0.1039E+01
   -1.062506   17.41162  0.0000E+00  0.9292E-05  0.2436E-07  0.1070E-02  0.2447E-03  0.1003E+01
   -1.105007   17.41221  0.0000E+00  0.9191E-05  0.2455E-07  0.1044E-02  0.2252E-03  0.1039E+01
   -1.147508   17.41281  0.0000E+00  0.9083E-05  0.2486E-07  0.1013E-02  0.2070E-03  0.1140E+01
   -1.190009   17.41341  0.0000E+00  0.8966E-05  0.2535E-07  0.9731E-03  0.1895E-03  0.1278E+01
   -1.232510   17.41403  0.0000E+00  0.8833E-05  0.2608E-07  0.9292E-03  0.1722E-03  0.1511E+01
   -1.275010   17.41467  0.0000E+00  0.8676E-05  0.2720E-07  0.8657E-03  0.1558E-03  0.2056E+01
   -1.317510   17.41535  0.0000E+00  0.8486E-05  0.2892E-07  0.8124E-03  0.1400E-03  0.3012E+01
   -1.360010   17.41608  0.0000E+00  0.8247E-05  0.3171E-07  0.7238E-03  0.1252E-03  0.5016E+01
   -1.402510   17.41692  0.0000E+00  0.7923E-05  0.3659E-07  0.6742E-03  0.1108E-03  0.1034E+02
   -1.445009   17.41790  0.0000E+00  0.7489E-05  0.4534E-07  0.5613E-03  0.9684E-04  0.3149E+04
   -1.487509   17.41957  0.0000E+00  0.6935E-05  0.5899E-07  0.5114E-03  0.7750E-04  0.4337E+04
   -1.530007   17.42126  0.0000E+00  0.6143E-05  0.8910E-07  0.3713E-03  0.5930E-04  0.2703E+05
   -1.572506   17.42686  0.0000E+00  0.5207E-05  0.1556E-06  0.3872E-03  0.3575E-04  0.4334E+07
   -1.615004   17.42412  0.0000E+00  0.3955E-05  0.4357E-06  0.1839E-03  0.2892E-04 -0.4011E+09
   -1.657502   17.44215  0.0000E+00  0.2786E-05  0.1085E-05  0.1787E-03  0.1649E-04 -0.9972E+05
   -1.699999   17.44118  0.0000E+00  0.0000E+00  0.0000E+00  0.0000E+00  0.3507E-04  0.0000E+00
