 1 - depth, m
 2 - temperature, C
 3 - salinity, kg/kg
 4 - turbulent kinetic energy, m**2/s**2
 5 - dissipation rate, m**2/s**3
 6 - kinematic heat conductance, m**2/s
 7 - modulus of horizontal velocity, m/s
 8 - Richardson number, n/d
   -0.000000    1.51834  0.0000E+00  0.2552E-02  0.3909E-01  0.1791E-03  0.8144E+00 -0.2463E-04
   -0.042497    1.60016  0.0000E+00  0.1269E-02  0.2457E-01  0.3557E-03  0.1700E+00 -0.1993E-01
   -0.084995    1.64357  0.0000E+00  0.8258E-03  0.7352E-02  0.4998E-03  0.9479E-01  0.8160E+01
   -0.127493    1.66070  0.0000E+00  0.6168E-03  0.4502E-02  0.4272E-03  0.7171E-01  0.4688E-01
   -0.169992    1.66977  0.0000E+00  0.4774E-03  0.3043E-02  0.3806E-03  0.5864E-01  0.1559E-01
   -0.212490    1.67795  0.0000E+00  0.3757E-03  0.2202E-02  0.3500E-03  0.4761E-01  0.3277E-01
   -0.254990    1.68600  0.0000E+00  0.3039E-03  0.1558E-02  0.3406E-03  0.4006E-01  0.2700E+00
   -0.297489    1.69223  0.0000E+00  0.2497E-03  0.1114E-02  0.3335E-03  0.3533E-01 -0.1378E+01
   -0.339989    1.69622  0.0000E+00  0.2067E-03  0.7679E-03  0.3238E-03  0.3231E-01 -0.7708E+01
   -0.382489    1.69992  0.0000E+00  0.1727E-03  0.5021E-03  0.3236E-03  0.2885E-01 -0.3495E+02
   -0.424989    1.70312  0.0000E+00  0.1461E-03  0.3117E-03  0.3218E-03  0.2640E-01  0.5495E+02
   -0.467489    1.70648  0.0000E+00  0.1253E-03  0.1934E-03  0.3214E-03  0.2338E-01  0.3392E+03
   -0.509990    1.70991  0.0000E+00  0.1099E-03  0.1243E-03  0.3199E-03  0.2042E-01  0.1408E+04
   -0.552491    1.71328  0.0000E+00  0.9769E-04  0.8003E-04  0.3186E-03  0.1789E-01  0.5603E+04
   -0.594991    1.71717  0.0000E+00  0.8727E-04  0.5123E-04  0.3134E-03  0.1549E-01  0.5297E+05
   -0.637492    1.72158  0.0000E+00  0.7795E-04  0.3236E-04  0.3157E-03  0.1347E-01  0.7725E+06
   -0.679994    1.72531  0.0000E+00  0.7002E-04  0.2017E-04  0.3141E-03  0.1195E-01  0.2446E+08
   -0.722495    1.72958  0.0000E+00  0.6304E-04  0.1242E-04  0.3154E-03  0.1062E-01  0.1124E+09
   -0.764996    1.73322  0.0000E+00  0.5700E-04  0.7560E-05  0.3170E-03  0.9451E-02 -0.3477E+11
   -0.807497    1.73552  0.0000E+00  0.5160E-04  0.4556E-05  0.3135E-03  0.8611E-02 -0.5612E+11
   -0.849999    1.73807  0.0000E+00  0.4699E-04  0.2786E-05  0.3102E-03  0.7824E-02 -0.6965E+10
   -0.892500    1.74099  0.0000E+00  0.4286E-04  0.1755E-05  0.3068E-03  0.7156E-02  0.1455E+10
   -0.935001    1.74360  0.0000E+00  0.3919E-04  0.1167E-05  0.2990E-03  0.6573E-02 -0.4264E+10
   -0.977503    1.74694  0.0000E+00  0.3601E-04  0.8289E-06  0.2942E-03  0.6004E-02 -0.5592E+10
   -1.020004    1.74979  0.0000E+00  0.3315E-04  0.6254E-06  0.2864E-03  0.5513E-02 -0.1698E+10
   -1.062505    1.75333  0.0000E+00  0.3063E-04  0.4978E-06  0.2784E-03  0.5038E-02  0.2811E+10
   -1.105006    1.75632  0.0000E+00  0.2837E-04  0.4112E-06  0.2682E-03  0.4602E-02 -0.3039E+10
   -1.147507    1.76014  0.0000E+00  0.2639E-04  0.3511E-06  0.2555E-03  0.4168E-02  0.7828E+12
   -1.190008    1.76797  0.0000E+00  0.2464E-04  0.3075E-06  0.2444E-03  0.3714E-02  0.2371E+11
   -1.232508    1.78175  0.0000E+00  0.2303E-04  0.2739E-06  0.2372E-03  0.3271E-02  0.8727E+12
   -1.275009    1.79182  0.0000E+00  0.2153E-04  0.2473E-06  0.2281E-03  0.2886E-02  0.9413E+13
   -1.317509    1.80230  0.0000E+00  0.2012E-04  0.2262E-06  0.2187E-03  0.2541E-02  0.5213E+14
   -1.360009    1.81451  0.0000E+00  0.1877E-04  0.2101E-06  0.2109E-03  0.2236E-02  0.7559E+13
   -1.402509    1.82169  0.0000E+00  0.1745E-04  0.1995E-06  0.1960E-03  0.1975E-02  0.1607E+14
   -1.445008    1.82965  0.0000E+00  0.1622E-04  0.1963E-06  0.1754E-03  0.1730E-02  0.3646E+15
   -1.487507    1.85785  0.0000E+00  0.1509E-04  0.2032E-06  0.1570E-03  0.1480E-02  0.1173E+16
   -1.530006    1.93630  0.0000E+00  0.1396E-04  0.2287E-06  0.1389E-03  0.1224E-02  0.1511E+16
   -1.572504    2.03938  0.0000E+00  0.1272E-04  0.3094E-06  0.1235E-03  0.9858E-03  0.1744E+15
   -1.615003    2.05858  0.0000E+00  0.1041E-04  0.6289E-06  0.7247E-04  0.8260E-03  0.2360E+15
   -1.657500    2.10118  0.0000E+00  0.6363E-05  0.1879E-05  0.1488E-04  0.6540E-03  0.4720E+15
   -1.699998    2.33886  0.0000E+00  0.0000E+00  0.0000E+00  0.0000E+00  0.8138E-03  0.0000E+00
