 1 - depth, m
 2 - temperature, C
 3 - salinity, kg/kg
 4 - turbulent kinetic energy, m**2/s**2
 5 - dissipation rate, m**2/s**3
 6 - kinematic heat conductance, m**2/s
 7 - modulus of horizontal velocity, m/s
 8 - Richardson number, n/d
   -0.000000    0.00000  0.0000E+00  0.8224E-04  0.2525E-04  0.4957E-04  0.7905E-01  0.2440E-02
   -0.042497    0.00309  0.0000E+00  0.4695E-04  0.6927E-05  0.5738E-04  0.2741E-01  0.1068E-02
   -0.084994    0.00494  0.0000E+00  0.3266E-04  0.2695E-05  0.6083E-04  0.1882E-01  0.2971E-02
   -0.127492    0.00649  0.0000E+00  0.2344E-04  0.1198E-05  0.6356E-04  0.1403E-01  0.5141E-02
   -0.169990    0.00787  0.0000E+00  0.1702E-04  0.5851E-06  0.6348E-04  0.1064E-01  0.8138E-02
   -0.212489    0.00921  0.0000E+00  0.1229E-04  0.3030E-06  0.6105E-04  0.8037E-02  0.1483E-01
   -0.254987    0.01053  0.0000E+00  0.8782E-05  0.1625E-06  0.5712E-04  0.6079E-02  0.3525E-01
   -0.297486    0.01186  0.0000E+00  0.6266E-05  0.8943E-07  0.5186E-04  0.4673E-02  0.1741E+00
   -0.339986    0.01322  0.0000E+00  0.4509E-05  0.5084E-07  0.4573E-04  0.3641E-02  0.4853E+00
   -0.382485    0.01467  0.0000E+00  0.3247E-05  0.2948E-07  0.3987E-04  0.2824E-02  0.1350E+02
   -0.424985    0.01621  0.0000E+00  0.2360E-05  0.1765E-07  0.3319E-04  0.2214E-02  0.9395E+00
   -0.467485    0.01797  0.0000E+00  0.1707E-05  0.1078E-07  0.2648E-04  0.1692E-02  0.8864E+00
   -0.509986    0.02006  0.0000E+00  0.1212E-05  0.6627E-08  0.1974E-04  0.1245E-02  0.1751E+01
   -0.552486    0.02276  0.0000E+00  0.8264E-06  0.4036E-08  0.1293E-04  0.8736E-03  0.4748E+01
   -0.594987    0.02748  0.0000E+00  0.5173E-06  0.2340E-08  0.7270E-05  0.5508E-03  0.7367E+02
   -0.637487    0.05086  0.0000E+00  0.2898E-06  0.1245E-08  0.3320E-05  0.2896E-03  0.8278E+04
   -0.679988    0.10488  0.0000E+00  0.1336E-06  0.5612E-09  0.9031E-06  0.1374E-03  0.8549E+06
   -0.722489    0.21802  0.0000E+00  0.4030E-07  0.1691E-09  0.5248E-07  0.4723E-04  0.9529E+08
   -0.764990    0.40874  0.0000E+00  0.5607E-08  0.2405E-10  0.4415E-08  0.7602E-05  0.1172E+11
   -0.807491    0.64590  0.0000E+00  0.5299E-09  0.2362E-11  0.5138E-09  0.8714E-06  0.9987E+12
   -0.849992    0.88971  0.0000E+00  0.4494E-10  0.2079E-12  0.1284E-09  0.9441E-07  0.7210E+14
   -0.892493    1.12203  0.0000E+00  0.3629E-11  0.1729E-13  0.1001E-09  0.1013E-07  0.1805E+16
   -0.934994    1.34071  0.0000E+00  0.3012E-12  0.1414E-14  0.1000E-09  0.1244E-08  0.3706E+16
   -0.977495    1.55031  0.0000E+00  0.4752E-13  0.1499E-15  0.1000E-09  0.1440E-09  0.5127E+16
   -1.019996    1.74213  0.0000E+00  0.3196E-13  0.5695E-16  0.1000E-09  0.1914E-10  0.5531E+16
   -1.062496    1.92042  0.0000E+00  0.5110E-13  0.5821E-16  0.1000E-09  0.2450E-11  0.5303E+16
   -1.104997    2.08825  0.0000E+00  0.1341E-12  0.1018E-15  0.1000E-09  0.3777E-12  0.4934E+16
   -1.147498    2.25733  0.0000E+00  0.4279E-12  0.2641E-15  0.1000E-09  0.6668E-13  0.4743E+16
   -1.189998    2.43768  0.0000E+00  0.1407E-11  0.8246E-15  0.1000E-09  0.8698E-14  0.4406E+16
   -1.232498    2.62700  0.0000E+00  0.4689E-11  0.2677E-14  0.1000E-09  0.6530E-15  0.3615E+16
   -1.274998    2.80532  0.0000E+00  0.1563E-10  0.8715E-14  0.1000E-09  0.4397E-16  0.3005E+16
   -1.317498    2.97779  0.0000E+00  0.5209E-10  0.2839E-13  0.1009E-09  0.2578E-17  0.2772E+16
   -1.359998    3.16908  0.0000E+00  0.1742E-09  0.9287E-13  0.1598E-09  0.1298E-18  0.2374E+16
   -1.402497    3.38020  0.0000E+00  0.5852E-09  0.3055E-12  0.6146E-09  0.7578E-20  0.1815E+16
   -1.444996    3.61789  0.0000E+00  0.1845E-08  0.9447E-12  0.5541E-08  0.5571E-21  0.9727E+15
   -1.487495    3.88441  0.0000E+00  0.4413E-08  0.2331E-11  0.2159E-05  0.3004E-22  0.1617E+15
   -1.529993    4.02981  0.0000E+00  0.7728E-08  0.4530E-11  0.5542E-05  0.7998E-24 -0.6398E+13
   -1.572491    4.03918  0.0000E+00  0.9693E-08  0.6982E-11  0.5474E-05  0.3233E-25 -0.9550E+13
   -1.614989    4.05020  0.0000E+00  0.1187E-07  0.1351E-10  0.3580E-05  0.1992E-26 -0.2204E+14
   -1.657487    4.06982  0.0000E+00  0.1274E-07  0.3345E-10  0.1416E-05  0.1077E-27 -0.1057E+15
   -1.699984    4.12971  0.0000E+00  0.0000E+00  0.0000E+00  0.0000E+00  0.1076E-27  0.0000E+00
