 1 - depth, m
 2 - temperature, C
 3 - salinity, kg/kg
 4 - turbulent kinetic energy, m**2/s**2
 5 - dissipation rate, m**2/s**3
 6 - kinematic heat conductance, m**2/s
 7 - modulus of horizontal velocity, m/s
 8 - Richardson number, n/d
   -0.000000   10.67599  0.0000E+00  0.3261E-03  0.4083E-03  0.8535E-04  0.1965E+00  0.2454E-02
   -0.042497   10.72648  0.0000E+00  0.1726E-03  0.1371E-03  0.1527E-03  0.4640E-01 -0.8919E-02
   -0.084995   10.73459  0.0000E+00  0.1196E-03  0.6115E-04  0.1366E-03  0.3008E-01 -0.1981E-01
   -0.127494   10.74105  0.0000E+00  0.8726E-04  0.3094E-04  0.1228E-03  0.2365E-01 -0.3744E-01
   -0.169992   10.74651  0.0000E+00  0.6491E-04  0.1585E-04  0.1159E-03  0.1900E-01 -0.3522E-01
   -0.212491   10.75148  0.0000E+00  0.4809E-04  0.7981E-05  0.1129E-03  0.1515E-01 -0.6343E+00
   -0.254990   10.75664  0.0000E+00  0.3608E-04  0.3862E-05  0.1141E-03  0.1207E-01  0.1451E+01
   -0.297490   10.76128  0.0000E+00  0.2759E-04  0.1854E-05  0.1170E-03  0.9811E-02  0.4250E+02
   -0.339990   10.76553  0.0000E+00  0.2180E-04  0.9591E-06  0.1219E-03  0.8084E-02  0.3515E+02
   -0.382490   10.76931  0.0000E+00  0.1767E-04  0.5386E-06  0.1308E-03  0.6639E-02  0.1250E+03
   -0.424990   10.77261  0.0000E+00  0.1477E-04  0.3338E-06  0.1422E-03  0.5531E-02  0.1587E+02
   -0.467491   10.77558  0.0000E+00  0.1264E-04  0.2280E-06  0.1598E-03  0.4567E-02  0.1763E+03
   -0.509991   10.77812  0.0000E+00  0.1103E-04  0.1648E-06  0.1863E-03  0.3751E-02  0.1103E+04
   -0.552492   10.78033  0.0000E+00  0.9759E-05  0.1231E-06  0.2157E-03  0.3074E-02  0.3324E+02
   -0.594993   10.78217  0.0000E+00  0.8729E-05  0.9408E-07  0.2474E-03  0.2507E-02  0.6126E+02
   -0.637494   10.78376  0.0000E+00  0.7865E-05  0.7297E-07  0.2826E-03  0.2035E-02  0.8519E+02
   -0.679996   10.78512  0.0000E+00  0.7147E-05  0.5745E-07  0.3180E-03  0.1658E-02  0.2137E+02
   -0.722497   10.78630  0.0000E+00  0.6544E-05  0.4579E-07  0.3527E-03  0.1356E-02  0.5140E+02
   -0.764998   10.78732  0.0000E+00  0.6041E-05  0.3695E-07  0.3873E-03  0.1119E-02  0.1541E+02
   -0.807500   10.78823  0.0000E+00  0.5620E-05  0.3015E-07  0.4151E-03  0.9380E-03  0.8052E+01
   -0.850001   10.78906  0.0000E+00  0.5275E-05  0.2499E-07  0.4401E-03  0.7935E-03  0.2290E+03
   -0.892503   10.78981  0.0000E+00  0.4988E-05  0.2100E-07  0.4617E-03  0.6773E-03  0.4353E+01
   -0.935004   10.79052  0.0000E+00  0.4752E-05  0.1793E-07  0.4801E-03  0.5827E-03  0.4338E+01
   -0.977506   10.79118  0.0000E+00  0.4556E-05  0.1555E-07  0.4969E-03  0.5029E-03  0.2398E+02
   -1.020007   10.79182  0.0000E+00  0.4393E-05  0.1371E-07  0.5123E-03  0.4358E-03  0.6445E+01
   -1.062508   10.79242  0.0000E+00  0.4257E-05  0.1227E-07  0.5256E-03  0.3778E-03  0.7039E+01
   -1.105009   10.79300  0.0000E+00  0.4143E-05  0.1116E-07  0.5369E-03  0.3273E-03  0.7510E+01
   -1.147510   10.79356  0.0000E+00  0.4049E-05  0.1031E-07  0.5458E-03  0.2818E-03  0.8113E+01
   -1.190011   10.79410  0.0000E+00  0.3971E-05  0.9683E-08  0.5515E-03  0.2395E-03  0.1013E+02
   -1.232512   10.79462  0.0000E+00  0.3904E-05  0.9210E-08  0.5546E-03  0.2008E-03  0.1017E+02
   -1.275013   10.79513  0.0000E+00  0.3845E-05  0.8866E-08  0.5547E-03  0.1682E-03  0.1309E+02
   -1.317513   10.79564  0.0000E+00  0.3792E-05  0.8632E-08  0.5510E-03  0.1411E-03  0.1703E+02
   -1.360013   10.79615  0.0000E+00  0.3742E-05  0.8499E-08  0.5423E-03  0.1187E-03  0.2812E+02
   -1.402513   10.79666  0.0000E+00  0.3692E-05  0.8469E-08  0.5289E-03  0.1005E-03  0.3389E+02
   -1.445012   10.79717  0.0000E+00  0.3645E-05  0.8562E-08  0.5104E-03  0.8475E-04  0.5095E+02
   -1.487512   10.79771  0.0000E+00  0.3601E-05  0.8812E-08  0.4873E-03  0.7016E-04  0.6345E+02
   -1.530010   10.79826  0.0000E+00  0.3550E-05  0.9394E-08  0.4500E-03  0.5648E-04  0.6360E+02
   -1.572509   10.79887  0.0000E+00  0.3470E-05  0.1088E-07  0.3836E-03  0.4398E-04  0.1385E+03
   -1.615007   10.79958  0.0000E+00  0.3256E-05  0.1640E-07  0.2879E-03  0.3515E-04  0.1434E+02
   -1.657505   10.80075  0.0000E+00  0.2203E-05  0.5551E-07  0.2013E-04  0.2737E-04 -0.2968E+06
   -1.700003   10.81599  0.0000E+00  0.0000E+00  0.0000E+00  0.0000E+00  0.2898E-04  0.0000E+00
