 1 - depth, m
 2 - temperature, C
 3 - salinity, kg/kg
 4 - turbulent kinetic energy, m**2/s**2
 5 - dissipation rate, m**2/s**3
 6 - kinematic heat conductance, m**2/s
 7 - modulus of horizontal velocity, m/s
 8 - Richardson number, n/d
   -0.000000    0.00000  0.0000E+00  0.3189E-13  0.5206E-16  0.1000E-09  0.0000E+00  0.6926E+16
   -0.042497    0.10538  0.0000E+00  0.3189E-13  0.5206E-16  0.1000E-09  0.0000E+00  0.7081E+16
   -0.084995    0.21639  0.0000E+00  0.3189E-13  0.5206E-16  0.1000E-09  0.0000E+00  0.7179E+16
   -0.127494    0.33259  0.0000E+00  0.3189E-13  0.5206E-16  0.1000E-09  0.0000E+00  0.6941E+16
   -0.169992    0.44880  0.0000E+00  0.3189E-13  0.5206E-16  0.1000E-09  0.0000E+00  0.6697E+16
   -0.212491    0.56489  0.0000E+00  0.3189E-13  0.5206E-16  0.1000E-09  0.0000E+00  0.6444E+16
   -0.254990    0.68068  0.0000E+00  0.3189E-13  0.5206E-16  0.1000E-09  0.0000E+00  0.6185E+16
   -0.297490    0.79600  0.0000E+00  0.3189E-13  0.5206E-16  0.1000E-09  0.0000E+00  0.5930E+16
   -0.339990    0.91083  0.0000E+00  0.3189E-13  0.5206E-16  0.1000E-09  0.0000E+00  0.5682E+16
   -0.382490    1.02526  0.0000E+00  0.3189E-13  0.5206E-16  0.1000E-09  0.0000E+00  0.5433E+16
   -0.424990    1.13920  0.0000E+00  0.3189E-13  0.5206E-16  0.1000E-09  0.0000E+00  0.5193E+16
   -0.467491    1.25276  0.0000E+00  0.3189E-13  0.5206E-16  0.1000E-09  0.0000E+00  0.4953E+16
   -0.509991    1.36587  0.0000E+00  0.3189E-13  0.5206E-16  0.1000E-09  0.0000E+00  0.4717E+16
   -0.552492    1.47855  0.0000E+00  0.3189E-13  0.5206E-16  0.1000E-09  0.0000E+00  0.4483E+16
   -0.594993    1.59075  0.0000E+00  0.3189E-13  0.5206E-16  0.1000E-09  0.0000E+00  0.4243E+16
   -0.637494    1.70224  0.0000E+00  0.3189E-13  0.5206E-16  0.1000E-09  0.0000E+00  0.3995E+16
   -0.679996    1.81264  0.0000E+00  0.3189E-13  0.5206E-16  0.1000E-09  0.0000E+00  0.3747E+16
   -0.722497    1.92174  0.0000E+00  0.3189E-13  0.5206E-16  0.1000E-09  0.0000E+00  0.3493E+16
   -0.764998    2.02910  0.0000E+00  0.3189E-13  0.5206E-16  0.1000E-09  0.0000E+00  0.3237E+16
   -0.807500    2.13432  0.0000E+00  0.3189E-13  0.5206E-16  0.1000E-09  0.0000E+00  0.2993E+16
   -0.850001    2.23743  0.0000E+00  0.3189E-13  0.5206E-16  0.1000E-09  0.0000E+00  0.2758E+16
   -0.892503    2.33833  0.0000E+00  0.3189E-13  0.5206E-16  0.1000E-09  0.0000E+00  0.2548E+16
   -0.935004    2.43754  0.0000E+00  0.3189E-13  0.5206E-16  0.1000E-09  0.0000E+00  0.2361E+16
   -0.977506    2.53566  0.0000E+00  0.3189E-13  0.5206E-16  0.1000E-09  0.0000E+00  0.2176E+16
   -1.020007    2.63253  0.0000E+00  0.3189E-13  0.5206E-16  0.1000E-09  0.0000E+00  0.1998E+16
   -1.062508    2.72819  0.0000E+00  0.3189E-13  0.5206E-16  0.1000E-09  0.0000E+00  0.1824E+16
   -1.105010    2.82249  0.0000E+00  0.3189E-13  0.5206E-16  0.1000E-09  0.0000E+00  0.1658E+16
   -1.147511    2.91554  0.0000E+00  0.3189E-13  0.5206E-16  0.1000E-09  0.0000E+00  0.1499E+16
   -1.190011    3.00740  0.0000E+00  0.3189E-13  0.5206E-16  0.1000E-09  0.0000E+00  0.1340E+16
   -1.232512    3.09763  0.0000E+00  0.3189E-13  0.5206E-16  0.1000E-09  0.0000E+00  0.1170E+16
   -1.275013    3.18485  0.0000E+00  0.3189E-13  0.5206E-16  0.1000E-09  0.0000E+00  0.1017E+16
   -1.317513    3.26937  0.0000E+00  0.3189E-13  0.5206E-16  0.1000E-09  0.0000E+00  0.9013E+15
   -1.360013    3.35373  0.0000E+00  0.3189E-13  0.5206E-16  0.1000E-09  0.0000E+00  0.7870E+15
   -1.402513    3.43803  0.0000E+00  0.3189E-13  0.5206E-16  0.1000E-09  0.0000E+00  0.6727E+15
   -1.445013    3.52219  0.0000E+00  0.3189E-13  0.5206E-16  0.1000E-09  0.0000E+00  0.5584E+15
   -1.487512    3.60605  0.0000E+00  0.3540E-13  0.5207E-16  0.1000E-09  0.0000E+00  0.4459E+15
   -1.530011    3.68971  0.0000E+00  0.1451E-12  0.1143E-15  0.1000E-09  0.0000E+00  0.3365E+15
   -1.572509    3.77377  0.0000E+00  0.7202E-12  0.5130E-15  0.1000E-09  0.0000E+00  0.2297E+15
   -1.615008    3.86012  0.0000E+00  0.3771E-11  0.2626E-14  0.1028E-09  0.0000E+00  0.1140E+15
   -1.657505    3.94910  0.0000E+00  0.1603E-10  0.1116E-13  0.1074E-07  0.0000E+00 -0.8594E+13
   -1.700003    4.03618  0.0000E+00  0.0000E+00  0.0000E+00  0.0000E+00  0.0000E+00  0.0000E+00
