 1 - depth, m
 2 - temperature, C
 3 - salinity, kg/kg
 4 - turbulent kinetic energy, m**2/s**2
 5 - dissipation rate, m**2/s**3
 6 - kinematic heat conductance, m**2/s
 7 - modulus of horizontal velocity, m/s
 8 - Richardson number, n/d
   -0.000000    0.00000  0.0000E+00  0.3189E-13  0.5207E-16  0.1000E-09  0.0000E+00  0.1182E+17
   -0.042497    0.18175  0.0000E+00  0.3189E-13  0.5207E-16  0.1000E-09  0.0000E+00  0.1169E+17
   -0.084995    0.37114  0.0000E+00  0.3189E-13  0.5207E-16  0.1000E-09  0.0000E+00  0.1142E+17
   -0.127493    0.56684  0.0000E+00  0.3189E-13  0.5207E-16  0.1000E-09  0.0000E+00  0.1040E+17
   -0.169992    0.75599  0.0000E+00  0.3189E-13  0.5207E-16  0.1000E-09  0.0000E+00  0.9423E+16
   -0.212490    0.93808  0.0000E+00  0.3189E-13  0.5207E-16  0.1000E-09  0.0000E+00  0.8461E+16
   -0.254989    1.11192  0.0000E+00  0.3189E-13  0.5207E-16  0.1000E-09  0.0000E+00  0.7530E+16
   -0.297489    1.27647  0.0000E+00  0.3189E-13  0.5207E-16  0.1000E-09  0.0000E+00  0.6713E+16
   -0.339989    1.43252  0.0000E+00  0.3189E-13  0.5207E-16  0.1000E-09  0.0000E+00  0.6038E+16
   -0.382488    1.58191  0.0000E+00  0.3189E-13  0.5207E-16  0.1000E-09  0.0000E+00  0.5411E+16
   -0.424989    1.72449  0.0000E+00  0.9581E-13  0.5207E-16  0.1000E-09  0.0000E+00  0.4918E+16
   -0.467489    1.86271  0.0000E+00  0.2817E-12  0.6069E-16  0.1000E-09  0.0000E+00  0.4457E+16
   -0.509990    1.99654  0.0000E+00  0.6265E-12  0.9642E-16  0.1000E-09  0.0000E+00  0.4119E+16
   -0.552490    2.12910  0.0000E+00  0.1228E-11  0.1690E-15  0.1000E-09  0.0000E+00  0.3809E+16
   -0.594991    2.26102  0.0000E+00  0.2281E-11  0.2993E-15  0.1000E-09  0.0000E+00  0.3490E+16
   -0.637492    2.39171  0.0000E+00  0.4173E-11  0.5327E-15  0.1000E-09  0.0000E+00  0.3148E+16
   -0.679993    2.51982  0.0000E+00  0.7579E-11  0.9472E-15  0.1000E-09  0.0000E+00  0.2815E+16
   -0.722495    2.64498  0.0000E+00  0.1374E-10  0.1684E-14  0.1000E-09  0.0000E+00  0.2477E+16
   -0.764996    2.76594  0.0000E+00  0.2490E-10  0.2996E-14  0.1000E-09  0.0000E+00  0.2147E+16
   -0.807497    2.88170  0.0000E+00  0.4500E-10  0.5316E-14  0.1000E-09  0.0000E+00  0.1866E+16
   -0.849998    2.99340  0.0000E+00  0.8032E-10  0.9318E-14  0.1000E-09  0.0000E+00  0.1615E+16
   -0.892500    3.10158  0.0000E+00  0.1426E-09  0.1625E-13  0.1000E-09  0.0000E+00  0.1434E+16
   -0.935001    3.21042  0.0000E+00  0.2502E-09  0.2799E-13  0.1000E-09  0.0000E+00  0.1295E+16
   -0.977502    3.32406  0.0000E+00  0.4358E-09  0.4785E-13  0.1323E-09  0.0000E+00  0.1137E+16
   -1.020004    3.44341  0.0000E+00  0.7530E-09  0.8117E-13  0.2674E-09  0.0000E+00  0.9538E+15
   -1.062505    3.56936  0.0000E+00  0.1291E-08  0.1366E-12  0.5809E-09  0.0000E+00  0.7370E+15
   -1.105006    3.70302  0.0000E+00  0.2199E-08  0.2284E-12  0.1503E-08  0.0000E+00  0.4733E+15
   -1.147507    3.84455  0.0000E+00  0.3684E-08  0.3757E-12  0.7394E-08  0.0000E+00  0.1585E+15
   -1.190007    3.98929  0.0000E+00  0.4366E-08  0.4483E-12  0.1209E-04  0.0000E+00  0.1899E+12
   -1.232508    3.99373  0.0000E+00  0.4692E-08  0.4887E-12  0.1615E-04  0.0000E+00 -0.1808E+12
   -1.275008    3.99519  0.0000E+00  0.4975E-08  0.5300E-12  0.1794E-04  0.0000E+00 -0.1973E+12
   -1.317509    3.99653  0.0000E+00  0.5236E-08  0.5755E-12  0.1888E-04  0.0000E+00 -0.2138E+12
   -1.360008    3.99781  0.0000E+00  0.5478E-08  0.6282E-12  0.1924E-04  0.0000E+00 -0.2351E+12
   -1.402508    3.99906  0.0000E+00  0.5707E-08  0.6923E-12  0.1897E-04  0.0000E+00 -0.2639E+12
   -1.445008    4.00033  0.0000E+00  0.5893E-08  0.7650E-12  0.1819E-04  0.0000E+00 -0.3020E+12
   -1.487507    4.00166  0.0000E+00  0.6027E-08  0.8514E-12  0.1690E-04  0.0000E+00 -0.3566E+12
   -1.530005    4.00309  0.0000E+00  0.6108E-08  0.9812E-12  0.1468E-04  0.0000E+00 -0.4587E+12
   -1.572504    4.00477  0.0000E+00  0.6106E-08  0.1268E-11  0.1074E-04  0.0000E+00 -0.7547E+12
   -1.615002    4.00724  0.0000E+00  0.5787E-08  0.2424E-11  0.3981E-05  0.0000E+00 -0.2718E+13
   -1.657500    4.01435  0.0000E+00  0.4503E-08  0.7214E-11  0.6442E-06  0.0000E+00 -0.3209E+14
   -1.699997    4.05619  0.0000E+00  0.0000E+00  0.0000E+00  0.0000E+00  0.0000E+00  0.0000E+00
