 1 - depth, m
 2 - temperature, C
 3 - salinity, kg/kg
 4 - turbulent kinetic energy, m**2/s**2
 5 - dissipation rate, m**2/s**3
 6 - kinematic heat conductance, m**2/s
 7 - modulus of horizontal velocity, m/s
 8 - Richardson number, n/d
   -0.000000    0.00000  0.0000E+00  0.3189E-13  0.5206E-16  0.1000E-09  0.0000E+00  0.1199E+17
   -0.042498    0.18438  0.0000E+00  0.3189E-13  0.5206E-16  0.1000E-09  0.0000E+00  0.1192E+17
   -0.084995    0.37768  0.0000E+00  0.3189E-13  0.5206E-16  0.1000E-09  0.0000E+00  0.1163E+17
   -0.127494    0.57759  0.0000E+00  0.3189E-13  0.5206E-16  0.1000E-09  0.0000E+00  0.1052E+17
   -0.169992    0.76972  0.0000E+00  0.3189E-13  0.5206E-16  0.1000E-09  0.0000E+00  0.9434E+16
   -0.212491    0.95290  0.0000E+00  0.3189E-13  0.5206E-16  0.1000E-09  0.0000E+00  0.8353E+16
   -0.254991    1.12538  0.0000E+00  0.3189E-13  0.5206E-16  0.1000E-09  0.0000E+00  0.7306E+16
   -0.297490    1.28572  0.0000E+00  0.3189E-13  0.5206E-16  0.1000E-09  0.0000E+00  0.6396E+16
   -0.339990    1.43474  0.0000E+00  0.3189E-13  0.5206E-16  0.1000E-09  0.0000E+00  0.5661E+16
   -0.382490    1.57466  0.0000E+00  0.3189E-13  0.5206E-16  0.1000E-09  0.0000E+00  0.4995E+16
   -0.424991    1.70554  0.0000E+00  0.3189E-13  0.5206E-16  0.1000E-09  0.0000E+00  0.4502E+16
   -0.467491    1.83056  0.0000E+00  0.3189E-13  0.5206E-16  0.1000E-09  0.0000E+00  0.4060E+16
   -0.509992    1.95012  0.0000E+00  0.7435E-13  0.5206E-16  0.1000E-09  0.0000E+00  0.3780E+16
   -0.552493    2.06837  0.0000E+00  0.2470E-12  0.5683E-16  0.1000E-09  0.0000E+00  0.3545E+16
   -0.594994    2.18653  0.0000E+00  0.5672E-12  0.9243E-16  0.1000E-09  0.0000E+00  0.3305E+16
   -0.637495    2.30440  0.0000E+00  0.1142E-11  0.1658E-15  0.1000E-09  0.0000E+00  0.3039E+16
   -0.679997    2.42081  0.0000E+00  0.2182E-11  0.3018E-15  0.1000E-09  0.0000E+00  0.2782E+16
   -0.722498    2.53577  0.0000E+00  0.4084E-11  0.5492E-15  0.1000E-09  0.0000E+00  0.2511E+16
   -0.765000    2.64821  0.0000E+00  0.7594E-11  0.9993E-15  0.1000E-09  0.0000E+00  0.2239E+16
   -0.807501    2.75732  0.0000E+00  0.1405E-10  0.1813E-14  0.1000E-09  0.0000E+00  0.2009E+16
   -0.850003    2.86443  0.0000E+00  0.2564E-10  0.3249E-14  0.1000E-09  0.0000E+00  0.1798E+16
   -0.892504    2.96999  0.0000E+00  0.4656E-10  0.5795E-14  0.1000E-09  0.0000E+00  0.1654E+16
   -0.935006    3.07807  0.0000E+00  0.8360E-10  0.1022E-13  0.1000E-09  0.0000E+00  0.1544E+16
   -0.977507    3.19232  0.0000E+00  0.1491E-09  0.1791E-13  0.1000E-09  0.0000E+00  0.1402E+16
   -1.020009    3.31284  0.0000E+00  0.2641E-09  0.3117E-13  0.1000E-09  0.0000E+00  0.1221E+16
   -1.062510    3.43933  0.0000E+00  0.4646E-09  0.5390E-13  0.1693E-09  0.0000E+00  0.1004E+16
   -1.105011    3.57154  0.0000E+00  0.8132E-09  0.9274E-13  0.3911E-09  0.0000E+00  0.7472E+15
   -1.147512    3.70851  0.0000E+00  0.1405E-08  0.1576E-12  0.1083E-08  0.0000E+00  0.4584E+15
   -1.190013    3.84899  0.0000E+00  0.2408E-08  0.2656E-12  0.5659E-08  0.0000E+00  0.1478E+15
   -1.232514    3.98947  0.0000E+00  0.3028E-08  0.3359E-12  0.7933E-05  0.0000E+00 -0.1865E+12
   -1.275015    3.99217  0.0000E+00  0.3388E-08  0.3857E-12  0.1061E-04  0.0000E+00 -0.2229E+12
   -1.317515    3.99425  0.0000E+00  0.3719E-08  0.4400E-12  0.1218E-04  0.0000E+00 -0.2507E+12
   -1.360015    3.99606  0.0000E+00  0.4031E-08  0.5020E-12  0.1305E-04  0.0000E+00 -0.2825E+12
   -1.402515    3.99776  0.0000E+00  0.4332E-08  0.5767E-12  0.1327E-04  0.0000E+00 -0.3244E+12
   -1.445015    3.99945  0.0000E+00  0.4583E-08  0.6599E-12  0.1298E-04  0.0000E+00 -0.3795E+12
   -1.487514    4.00118  0.0000E+00  0.4775E-08  0.7570E-12  0.1221E-04  0.0000E+00 -0.4589E+12
   -1.530013    4.00303  0.0000E+00  0.4913E-08  0.8997E-12  0.1067E-04  0.0000E+00 -0.6074E+12
   -1.572512    4.00521  0.0000E+00  0.4985E-08  0.1208E-11  0.7833E-05  0.0000E+00 -0.1045E+13
   -1.615010    4.00846  0.0000E+00  0.4838E-08  0.2402E-11  0.2970E-05  0.0000E+00 -0.3885E+13
   -1.657508    4.01772  0.0000E+00  0.4056E-08  0.6800E-11  0.6101E-06  0.0000E+00 -0.3841E+14
   -1.700006    4.06308  0.0000E+00  0.0000E+00  0.0000E+00  0.0000E+00  0.0000E+00  0.0000E+00
