 1 - depth, m
 2 - temperature, C
 3 - salinity, kg/kg
 4 - turbulent kinetic energy, m**2/s**2
 5 - dissipation rate, m**2/s**3
 6 - kinematic heat conductance, m**2/s
 7 - modulus of horizontal velocity, m/s
 8 - Richardson number, n/d
   -0.000000    0.00000  0.0000E+00  0.6658E-08  0.1610E-10  0.8158E-09  0.0000E+00  0.6118E+17
   -0.042498    1.06938  0.0000E+00  0.4563E-07  0.1362E-10  0.1044E-08  0.0000E+00  0.4087E+17
   -0.084996    2.11907  0.0000E+00  0.1216E-06  0.2069E-10  0.2978E-08  0.0000E+00  0.2244E+17
   -0.127495    3.16262  0.0000E+00  0.2500E-06  0.3636E-10  0.2930E-07  0.0000E+00  0.5373E+16
   -0.169995    4.08998  0.0000E+00  0.2513E-06  0.3654E-10  0.5643E-03  0.0000E+00 -0.4343E+12
   -0.212494    4.09027  0.0000E+00  0.2519E-06  0.3664E-10  0.5586E-03  0.0000E+00 -0.4150E+12
   -0.254994    4.09055  0.0000E+00  0.2525E-06  0.3675E-10  0.5598E-03  0.0000E+00 -0.4033E+12
   -0.297494    4.09082  0.0000E+00  0.2531E-06  0.3688E-10  0.5604E-03  0.0000E+00 -0.3980E+12
   -0.339994    4.09109  0.0000E+00  0.2536E-06  0.3702E-10  0.5609E-03  0.0000E+00 -0.3915E+12
   -0.382495    4.09136  0.0000E+00  0.2541E-06  0.3717E-10  0.5608E-03  0.0000E+00 -0.3905E+12
   -0.424996    4.09162  0.0000E+00  0.2545E-06  0.3734E-10  0.5605E-03  0.0000E+00 -0.3876E+12
   -0.467497    4.09188  0.0000E+00  0.2549E-06  0.3752E-10  0.5596E-03  0.0000E+00 -0.3901E+12
   -0.509998    4.09214  0.0000E+00  0.2553E-06  0.3772E-10  0.5585E-03  0.0000E+00 -0.3882E+12
   -0.552500    4.09240  0.0000E+00  0.2556E-06  0.3793E-10  0.5568E-03  0.0000E+00 -0.3912E+12
   -0.595002    4.09266  0.0000E+00  0.2559E-06  0.3817E-10  0.5549E-03  0.0000E+00 -0.3902E+12
   -0.637503    4.09292  0.0000E+00  0.2562E-06  0.3843E-10  0.5523E-03  0.0000E+00 -0.3923E+12
   -0.680005    4.09317  0.0000E+00  0.2564E-06  0.3873E-10  0.5494E-03  0.0000E+00 -0.3906E+12
   -0.722507    4.09343  0.0000E+00  0.2566E-06  0.3906E-10  0.5458E-03  0.0000E+00 -0.3931E+12
   -0.765009    4.09369  0.0000E+00  0.2568E-06  0.3945E-10  0.5416E-03  0.0000E+00 -0.3916E+12
   -0.807511    4.09395  0.0000E+00  0.2570E-06  0.3990E-10  0.5364E-03  0.0000E+00 -0.3964E+12
   -0.850013    4.09420  0.0000E+00  0.2571E-06  0.4041E-10  0.5307E-03  0.0000E+00 -0.3993E+12
   -0.892515    4.09446  0.0000E+00  0.2573E-06  0.4098E-10  0.5241E-03  0.0000E+00 -0.4067E+12
   -0.935017    4.09473  0.0000E+00  0.2574E-06  0.4162E-10  0.5168E-03  0.0000E+00 -0.4126E+12
   -0.977519    4.09500  0.0000E+00  0.2574E-06  0.4234E-10  0.5086E-03  0.0000E+00 -0.4234E+12
   -1.020021    4.09527  0.0000E+00  0.2575E-06  0.4314E-10  0.4999E-03  0.0000E+00 -0.4329E+12
   -1.062523    4.09555  0.0000E+00  0.2575E-06  0.4402E-10  0.4902E-03  0.0000E+00 -0.4481E+12
   -1.105025    4.09583  0.0000E+00  0.2575E-06  0.4501E-10  0.4799E-03  0.0000E+00 -0.4617E+12
   -1.147527    4.09613  0.0000E+00  0.2574E-06  0.4608E-10  0.4690E-03  0.0000E+00 -0.4820E+12
   -1.190028    4.09643  0.0000E+00  0.2573E-06  0.4725E-10  0.4577E-03  0.0000E+00 -0.5002E+12
   -1.232529    4.09675  0.0000E+00  0.2572E-06  0.4860E-10  0.4450E-03  0.0000E+00 -0.5209E+12
   -1.275031    4.09708  0.0000E+00  0.2570E-06  0.5023E-10  0.4308E-03  0.0000E+00 -0.5415E+12
   -1.317532    4.09742  0.0000E+00  0.2567E-06  0.5225E-10  0.4144E-03  0.0000E+00 -0.5692E+12
   -1.360032    4.09777  0.0000E+00  0.2564E-06  0.5482E-10  0.3950E-03  0.0000E+00 -0.6009E+12
   -1.402533    4.09814  0.0000E+00  0.2559E-06  0.5827E-10  0.3720E-03  0.0000E+00 -0.6449E+12
   -1.445033    4.09854  0.0000E+00  0.2553E-06  0.6247E-10  0.3479E-03  0.0000E+00 -0.7006E+12
   -1.487533    4.09897  0.0000E+00  0.2547E-06  0.6775E-10  0.3215E-03  0.0000E+00 -0.7743E+12
   -1.530032    4.09945  0.0000E+00  0.2537E-06  0.7587E-10  0.2884E-03  0.0000E+00 -0.8735E+12
   -1.572531    4.09998  0.0000E+00  0.2519E-06  0.9345E-10  0.2372E-03  0.0000E+00 -0.1087E+13
   -1.615030    4.10062  0.0000E+00  0.2456E-06  0.1595E-09  0.1527E-03  0.0000E+00 -0.1716E+13
   -1.657529    4.10168  0.0000E+00  0.1784E-06  0.1008E-08  0.4386E-05  0.0000E+00 -0.7198E+14
   -1.700027    4.13817  0.0000E+00  0.0000E+00  0.0000E+00  0.0000E+00  0.0000E+00  0.0000E+00
