 1 - depth, m
 2 - temperature, C
 3 - salinity, kg/kg
 4 - turbulent kinetic energy, m**2/s**2
 5 - dissipation rate, m**2/s**3
 6 - kinematic heat conductance, m**2/s
 7 - modulus of horizontal velocity, m/s
 8 - Richardson number, n/d
   -0.000000    0.00000  0.0000E+00  0.3189E-13  0.5206E-16  0.1000E-09  0.0000E+00  0.6944E+16
   -0.042497    0.10567  0.0000E+00  0.3189E-13  0.5206E-16  0.1000E-09  0.0000E+00  0.7081E+16
   -0.084995    0.21667  0.0000E+00  0.3189E-13  0.5206E-16  0.1000E-09  0.0000E+00  0.7164E+16
   -0.127493    0.33264  0.0000E+00  0.3189E-13  0.5206E-16  0.1000E-09  0.0000E+00  0.6919E+16
   -0.169992    0.44848  0.0000E+00  0.3189E-13  0.5206E-16  0.1000E-09  0.0000E+00  0.6673E+16
   -0.212491    0.56414  0.0000E+00  0.3189E-13  0.5206E-16  0.1000E-09  0.0000E+00  0.6420E+16
   -0.254990    0.67946  0.0000E+00  0.3189E-13  0.5206E-16  0.1000E-09  0.0000E+00  0.6164E+16
   -0.297490    0.79432  0.0000E+00  0.3189E-13  0.5206E-16  0.1000E-09  0.0000E+00  0.5911E+16
   -0.339990    0.90873  0.0000E+00  0.3189E-13  0.5206E-16  0.1000E-09  0.0000E+00  0.5666E+16
   -0.382490    1.02275  0.0000E+00  0.3189E-13  0.5206E-16  0.1000E-09  0.0000E+00  0.5420E+16
   -0.424990    1.13630  0.0000E+00  0.3189E-13  0.5206E-16  0.1000E-09  0.0000E+00  0.5182E+16
   -0.467490    1.24949  0.0000E+00  0.3189E-13  0.5206E-16  0.1000E-09  0.0000E+00  0.4944E+16
   -0.509991    1.36224  0.0000E+00  0.3189E-13  0.5206E-16  0.1000E-09  0.0000E+00  0.4710E+16
   -0.552492    1.47458  0.0000E+00  0.3189E-13  0.5206E-16  0.1000E-09  0.0000E+00  0.4476E+16
   -0.594993    1.58643  0.0000E+00  0.3189E-13  0.5206E-16  0.1000E-09  0.0000E+00  0.4238E+16
   -0.637494    1.69756  0.0000E+00  0.3189E-13  0.5206E-16  0.1000E-09  0.0000E+00  0.3992E+16
   -0.679995    1.80763  0.0000E+00  0.3189E-13  0.5206E-16  0.1000E-09  0.0000E+00  0.3746E+16
   -0.722497    1.91641  0.0000E+00  0.3189E-13  0.5206E-16  0.1000E-09  0.0000E+00  0.3494E+16
   -0.764998    2.02350  0.0000E+00  0.3189E-13  0.5206E-16  0.1000E-09  0.0000E+00  0.3240E+16
   -0.807500    2.12849  0.0000E+00  0.3189E-13  0.5206E-16  0.1000E-09  0.0000E+00  0.2998E+16
   -0.850001    2.23141  0.0000E+00  0.3189E-13  0.5206E-16  0.1000E-09  0.0000E+00  0.2764E+16
   -0.892503    2.33215  0.0000E+00  0.3189E-13  0.5206E-16  0.1000E-09  0.0000E+00  0.2555E+16
   -0.935004    2.43122  0.0000E+00  0.3189E-13  0.5206E-16  0.1000E-09  0.0000E+00  0.2368E+16
   -0.977505    2.52921  0.0000E+00  0.3189E-13  0.5206E-16  0.1000E-09  0.0000E+00  0.2184E+16
   -1.020007    2.62598  0.0000E+00  0.3189E-13  0.5206E-16  0.1000E-09  0.0000E+00  0.2006E+16
   -1.062508    2.72153  0.0000E+00  0.3189E-13  0.5206E-16  0.1000E-09  0.0000E+00  0.1832E+16
   -1.105009    2.81574  0.0000E+00  0.3189E-13  0.5206E-16  0.1000E-09  0.0000E+00  0.1666E+16
   -1.147510    2.90870  0.0000E+00  0.3189E-13  0.5206E-16  0.1000E-09  0.0000E+00  0.1507E+16
   -1.190011    3.00044  0.0000E+00  0.3189E-13  0.5206E-16  0.1000E-09  0.0000E+00  0.1348E+16
   -1.232512    3.09056  0.0000E+00  0.3189E-13  0.5206E-16  0.1000E-09  0.0000E+00  0.1180E+16
   -1.275012    3.17773  0.0000E+00  0.3189E-13  0.5206E-16  0.1000E-09  0.0000E+00  0.1027E+16
   -1.317513    3.26226  0.0000E+00  0.3189E-13  0.5206E-16  0.1000E-09  0.0000E+00  0.9111E+15
   -1.360013    3.34664  0.0000E+00  0.3189E-13  0.5206E-16  0.1000E-09  0.0000E+00  0.7968E+15
   -1.402512    3.43097  0.0000E+00  0.3189E-13  0.5206E-16  0.1000E-09  0.0000E+00  0.6821E+15
   -1.445012    3.51512  0.0000E+00  0.3189E-13  0.5206E-16  0.1000E-09  0.0000E+00  0.5672E+15
   -1.487511    3.59889  0.0000E+00  0.3189E-13  0.5206E-16  0.1000E-09  0.0000E+00  0.4545E+15
   -1.530010    3.68237  0.0000E+00  0.3413E-13  0.5206E-16  0.1000E-09  0.0000E+00  0.3455E+15
   -1.572509    3.76620  0.0000E+00  0.8443E-13  0.7049E-16  0.1000E-09  0.0000E+00  0.2398E+15
   -1.615007    3.85243  0.0000E+00  0.3378E-12  0.1881E-15  0.1000E-09  0.0000E+00  0.1247E+15
   -1.657505    3.94136  0.0000E+00  0.1184E-11  0.5875E-15  0.1312E-08  0.0000E+00 -0.2254E+13
   -1.700002    4.03439  0.0000E+00  0.0000E+00  0.0000E+00  0.0000E+00  0.0000E+00  0.0000E+00
