 1 - depth, m
 2 - temperature, C
 3 - salinity, kg/kg
 4 - turbulent kinetic energy, m**2/s**2
 5 - dissipation rate, m**2/s**3
 6 - kinematic heat conductance, m**2/s
 7 - modulus of horizontal velocity, m/s
 8 - Richardson number, n/d
   -0.000000    0.00000  0.0000E+00  0.3189E-13  0.5207E-16  0.1000E-09  0.0000E+00  0.1149E+17
   -0.042497    0.17647  0.0000E+00  0.3189E-13  0.5207E-16  0.1000E-09  0.0000E+00  0.1139E+17
   -0.084995    0.36048  0.0000E+00  0.3189E-13  0.5207E-16  0.1000E-09  0.0000E+00  0.1116E+17
   -0.127493    0.55097  0.0000E+00  0.3189E-13  0.5207E-16  0.1000E-09  0.0000E+00  0.1036E+17
   -0.169992    0.73848  0.0000E+00  0.3189E-13  0.5207E-16  0.1000E-09  0.0000E+00  0.9581E+16
   -0.212491    0.92261  0.0000E+00  0.3189E-13  0.5207E-16  0.1000E-09  0.0000E+00  0.8804E+16
   -0.254990    1.10271  0.0000E+00  0.3189E-13  0.5207E-16  0.1000E-09  0.0000E+00  0.8041E+16
   -0.297489    1.27818  0.0000E+00  0.1224E-12  0.5207E-16  0.1000E-09  0.0000E+00  0.7325E+16
   -0.339989    1.44907  0.0000E+00  0.3453E-12  0.6135E-16  0.1000E-09  0.0000E+00  0.6668E+16
   -0.382489    1.61580  0.0000E+00  0.7295E-12  0.9641E-16  0.1000E-09  0.0000E+00  0.6039E+16
   -0.424989    1.77810  0.0000E+00  0.1364E-11  0.1618E-15  0.1000E-09  0.0000E+00  0.5473E+16
   -0.467489    1.93670  0.0000E+00  0.2414E-11  0.2732E-15  0.1000E-09  0.0000E+00  0.4933E+16
   -0.509990    2.09139  0.0000E+00  0.4168E-11  0.4588E-15  0.1000E-09  0.0000E+00  0.4470E+16
   -0.552491    2.24379  0.0000E+00  0.7114E-11  0.7671E-15  0.1000E-09  0.0000E+00  0.4032E+16
   -0.594992    2.39408  0.0000E+00  0.1206E-10  0.1277E-14  0.1000E-09  0.0000E+00  0.3604E+16
   -0.637493    2.54197  0.0000E+00  0.2053E-10  0.2137E-14  0.1000E-09  0.0000E+00  0.3184E+16
   -0.679994    2.68692  0.0000E+00  0.3501E-10  0.3583E-14  0.1000E-09  0.0000E+00  0.2780E+16
   -0.722495    2.82856  0.0000E+00  0.5985E-10  0.6024E-14  0.1000E-09  0.0000E+00  0.2388E+16
   -0.764996    2.96616  0.0000E+00  0.1026E-09  0.1016E-13  0.1000E-09  0.0000E+00  0.2015E+16
   -0.807498    3.09899  0.0000E+00  0.1757E-09  0.1712E-13  0.1000E-09  0.0000E+00  0.1674E+16
   -0.849999    3.22707  0.0000E+00  0.2979E-09  0.2857E-13  0.1000E-09  0.0000E+00  0.1360E+16
   -0.892501    3.35016  0.0000E+00  0.5033E-09  0.4751E-13  0.1368E-09  0.0000E+00  0.1093E+16
   -0.935002    3.47015  0.0000E+00  0.8416E-09  0.7823E-13  0.2881E-09  0.0000E+00  0.8543E+15
   -0.977503    3.58864  0.0000E+00  0.1399E-08  0.1281E-12  0.6455E-09  0.0000E+00  0.6240E+15
   -1.020005    3.70542  0.0000E+00  0.2310E-08  0.2083E-12  0.1627E-08  0.0000E+00  0.4026E+15
   -1.062506    3.81992  0.0000E+00  0.3786E-08  0.3363E-12  0.5499E-08  0.0000E+00  0.1923E+15
   -1.105007    3.92992  0.0000E+00  0.6006E-08  0.5273E-12  0.7363E-07  0.0000E+00  0.2248E+14
   -1.147508    4.00404  0.0000E+00  0.6431E-08  0.5667E-12  0.3183E-04  0.0000E+00 -0.1396E+12
   -1.190008    4.00454  0.0000E+00  0.6611E-08  0.5861E-12  0.3155E-04  0.0000E+00 -0.1444E+12
   -1.232509    4.00503  0.0000E+00  0.6762E-08  0.6057E-12  0.3173E-04  0.0000E+00 -0.1470E+12
   -1.275009    4.00553  0.0000E+00  0.6896E-08  0.6274E-12  0.3174E-04  0.0000E+00 -0.1504E+12
   -1.317510    4.00602  0.0000E+00  0.7016E-08  0.6521E-12  0.3154E-04  0.0000E+00 -0.1558E+12
   -1.360010    4.00652  0.0000E+00  0.7120E-08  0.6816E-12  0.3099E-04  0.0000E+00 -0.1635E+12
   -1.402509    4.00703  0.0000E+00  0.7212E-08  0.7187E-12  0.3008E-04  0.0000E+00 -0.1737E+12
   -1.445009    4.00756  0.0000E+00  0.7281E-08  0.7642E-12  0.2885E-04  0.0000E+00 -0.1866E+12
   -1.487508    4.00811  0.0000E+00  0.7324E-08  0.8260E-12  0.2648E-04  0.0000E+00 -0.2104E+12
   -1.530007    4.00872  0.0000E+00  0.7327E-08  0.9287E-12  0.2169E-04  0.0000E+00 -0.2719E+12
   -1.572505    4.00948  0.0000E+00  0.7245E-08  0.1165E-11  0.1554E-04  0.0000E+00 -0.4353E+12
   -1.615003    4.01065  0.0000E+00  0.6756E-08  0.2166E-11  0.5580E-05  0.0000E+00 -0.1464E+13
   -1.657501    4.01423  0.0000E+00  0.4808E-08  0.7040E-11  0.6350E-06  0.0000E+00 -0.2134E+14
   -1.699998    4.04551  0.0000E+00  0.0000E+00  0.0000E+00  0.0000E+00  0.0000E+00  0.0000E+00
