 1 - depth, m
 2 - temperature, C
 3 - salinity, kg/kg
 4 - turbulent kinetic energy, m**2/s**2
 5 - dissipation rate, m**2/s**3
 6 - kinematic heat conductance, m**2/s
 7 - modulus of horizontal velocity, m/s
 8 - Richardson number, n/d
   -0.000000   11.19541  0.0000E+00  0.5825E-03  0.1289E-02  0.9755E-04  0.2476E+00  0.7904E-01
   -0.042499   11.24138  0.0000E+00  0.2826E-03  0.4493E-03  0.2214E-03  0.5262E-01 -0.8216E-01
   -0.084999   11.25015  0.0000E+00  0.2005E-03  0.2193E-03  0.2057E-03  0.3375E-01  0.1010E+01
   -0.127500   11.25638  0.0000E+00  0.1528E-03  0.1378E-03  0.1716E-03  0.2748E-01 -0.5906E-01
   -0.170000   11.26102  0.0000E+00  0.1162E-03  0.8473E-04  0.1558E-03  0.2288E-01 -0.5045E-01
   -0.212501   11.26519  0.0000E+00  0.8843E-04  0.5266E-04  0.1462E-03  0.1897E-01 -0.8600E+00
   -0.255003   11.26901  0.0000E+00  0.6642E-04  0.3120E-04  0.1429E-03  0.1585E-01 -0.2532E+00
   -0.297504   11.27272  0.0000E+00  0.5031E-04  0.1684E-04  0.1424E-03  0.1339E-01 -0.1659E+00
   -0.340006   11.27628  0.0000E+00  0.3960E-04  0.1045E-04  0.1443E-03  0.1142E-01  0.2158E+02
   -0.382508   11.27957  0.0000E+00  0.3178E-04  0.6344E-05  0.1498E-03  0.9635E-02  0.1435E+03
   -0.425011   11.28245  0.0000E+00  0.2608E-04  0.3767E-05  0.1564E-03  0.8257E-02  0.7572E+01
   -0.467513   11.28515  0.0000E+00  0.2188E-04  0.2209E-05  0.1676E-03  0.6923E-02  0.2627E+01
   -0.510016   11.28763  0.0000E+00  0.1868E-04  0.1292E-05  0.1840E-03  0.5746E-02  0.1252E+02
   -0.552519   11.28985  0.0000E+00  0.1617E-04  0.7650E-06  0.2047E-03  0.4745E-02  0.3688E+02
   -0.595022   11.29188  0.0000E+00  0.1415E-04  0.4690E-06  0.2320E-03  0.3872E-02  0.6042E+01
   -0.637525   11.29369  0.0000E+00  0.1250E-04  0.3021E-06  0.2628E-03  0.3145E-02  0.5812E+02
   -0.680028   11.29528  0.0000E+00  0.1113E-04  0.2062E-06  0.2977E-03  0.2577E-02  0.2030E+03
   -0.722532   11.29668  0.0000E+00  0.9991E-05  0.1484E-06  0.3300E-03  0.2121E-02  0.1549E+02
   -0.765035   11.29791  0.0000E+00  0.9031E-05  0.1114E-06  0.3632E-03  0.1765E-02  0.3047E+02
   -0.807539   11.29898  0.0000E+00  0.8224E-05  0.8606E-07  0.3933E-03  0.1493E-02  0.9275E+01
   -0.850042   11.29994  0.0000E+00  0.7560E-05  0.6835E-07  0.4193E-03  0.1275E-02  0.5908E+01
   -0.892546   11.30081  0.0000E+00  0.7006E-05  0.5525E-07  0.4429E-03  0.1096E-02  0.2567E+03
   -0.935049   11.30161  0.0000E+00  0.6548E-05  0.4526E-07  0.4661E-03  0.9503E-03  0.6269E+02
   -0.977553   11.30235  0.0000E+00  0.6168E-05  0.3755E-07  0.4857E-03  0.8265E-03  0.1912E+02
   -1.020056   11.30305  0.0000E+00  0.5849E-05  0.3153E-07  0.5018E-03  0.7225E-03  0.5969E+01
   -1.062560   11.30373  0.0000E+00  0.5584E-05  0.2685E-07  0.5143E-03  0.6313E-03  0.5038E+01
   -1.105063   11.30438  0.0000E+00  0.5357E-05  0.2313E-07  0.5249E-03  0.5511E-03  0.2590E+02
   -1.147566   11.30503  0.0000E+00  0.5168E-05  0.2026E-07  0.5325E-03  0.4772E-03  0.5102E+02
   -1.190069   11.30566  0.0000E+00  0.5010E-05  0.1813E-07  0.5383E-03  0.4078E-03  0.8226E+01
   -1.232572   11.30629  0.0000E+00  0.4873E-05  0.1648E-07  0.5417E-03  0.3435E-03  0.2284E+02
   -1.275074   11.30692  0.0000E+00  0.4750E-05  0.1523E-07  0.5424E-03  0.2886E-03  0.6789E+01
   -1.317577   11.30755  0.0000E+00  0.4641E-05  0.1432E-07  0.5378E-03  0.2421E-03  0.1723E+02
   -1.360079   11.30818  0.0000E+00  0.4538E-05  0.1369E-07  0.5268E-03  0.2034E-03  0.1746E+02
   -1.402581   11.30882  0.0000E+00  0.4437E-05  0.1334E-07  0.5085E-03  0.1714E-03  0.1920E+02
   -1.445082   11.30948  0.0000E+00  0.4344E-05  0.1333E-07  0.4817E-03  0.1437E-03  0.3462E+02
   -1.487583   11.31019  0.0000E+00  0.4256E-05  0.1376E-07  0.4521E-03  0.1175E-03  0.3752E+02
   -1.530084   11.31096  0.0000E+00  0.4155E-05  0.1504E-07  0.3940E-03  0.9258E-04  0.3612E+02
   -1.572585   11.31187  0.0000E+00  0.4002E-05  0.1845E-07  0.3961E-03  0.6956E-04  0.7472E+02
   -1.615085   11.31274  0.0000E+00  0.3543E-05  0.3491E-07  0.1795E-03  0.5553E-04 -0.6632E+06
   -1.657585   11.31696  0.0000E+00  0.2259E-05  0.1034E-06  0.4531E-04  0.3716E-04 -0.2964E+07
   -1.700085   11.32577  0.0000E+00  0.0000E+00  0.0000E+00  0.0000E+00  0.4456E-04  0.0000E+00
