 1 - depth, m
 2 - temperature, C
 3 - salinity, kg/kg
 4 - turbulent kinetic energy, m**2/s**2
 5 - dissipation rate, m**2/s**3
 6 - kinematic heat conductance, m**2/s
 7 - modulus of horizontal velocity, m/s
 8 - Richardson number, n/d
   -0.000000    0.00000  0.0000E+00  0.3189E-13  0.5207E-16  0.1000E-09  0.0000E+00  0.9891E+16
   -0.042497    0.15145  0.0000E+00  0.3189E-13  0.5207E-16  0.1000E-09  0.0000E+00  0.9813E+16
   -0.084995    0.30827  0.0000E+00  0.3189E-13  0.5207E-16  0.1000E-09  0.0000E+00  0.9648E+16
   -0.127493    0.46973  0.0000E+00  0.3189E-13  0.5207E-16  0.1000E-09  0.0000E+00  0.9071E+16
   -0.169991    0.62904  0.0000E+00  0.3189E-13  0.5207E-16  0.1000E-09  0.0000E+00  0.8506E+16
   -0.212490    0.78605  0.0000E+00  0.3189E-13  0.5207E-16  0.1000E-09  0.0000E+00  0.7952E+16
   -0.254989    0.94055  0.0000E+00  0.3189E-13  0.5207E-16  0.1000E-09  0.0000E+00  0.7409E+16
   -0.297488    1.09233  0.0000E+00  0.3189E-13  0.5207E-16  0.1000E-09  0.0000E+00  0.6889E+16
   -0.339988    1.24134  0.0000E+00  0.3189E-13  0.5207E-16  0.1000E-09  0.0000E+00  0.6393E+16
   -0.382488    1.38764  0.0000E+00  0.3189E-13  0.5207E-16  0.1000E-09  0.0000E+00  0.5915E+16
   -0.424988    1.53111  0.0000E+00  0.3189E-13  0.5207E-16  0.1000E-09  0.0000E+00  0.5467E+16
   -0.467488    1.67195  0.0000E+00  0.3189E-13  0.5207E-16  0.1000E-09  0.0000E+00  0.5036E+16
   -0.509989    1.81004  0.0000E+00  0.3189E-13  0.5207E-16  0.1000E-09  0.0000E+00  0.4647E+16
   -0.552489    1.94606  0.0000E+00  0.3189E-13  0.5207E-16  0.1000E-09  0.0000E+00  0.4275E+16
   -0.594990    2.08005  0.0000E+00  0.3189E-13  0.5207E-16  0.1000E-09  0.0000E+00  0.3913E+16
   -0.637491    2.21185  0.0000E+00  0.3189E-13  0.5207E-16  0.1000E-09  0.0000E+00  0.3560E+16
   -0.679992    2.34118  0.0000E+00  0.3189E-13  0.5207E-16  0.1000E-09  0.0000E+00  0.3217E+16
   -0.722493    2.46778  0.0000E+00  0.3189E-13  0.5207E-16  0.1000E-09  0.0000E+00  0.2883E+16
   -0.764994    2.59120  0.0000E+00  0.3918E-13  0.5207E-16  0.1000E-09  0.0000E+00  0.2558E+16
   -0.807496    2.71094  0.0000E+00  0.1621E-12  0.5290E-16  0.1000E-09  0.0000E+00  0.2255E+16
   -0.849997    2.82693  0.0000E+00  0.4260E-12  0.8396E-16  0.1000E-09  0.0000E+00  0.1970E+16
   -0.892498    2.93893  0.0000E+00  0.9216E-12  0.1567E-15  0.1000E-09  0.0000E+00  0.1721E+16
   -0.934999    3.04783  0.0000E+00  0.1836E-11  0.2958E-15  0.1000E-09  0.0000E+00  0.1500E+16
   -0.977500    3.15447  0.0000E+00  0.3543E-11  0.5546E-15  0.1000E-09  0.0000E+00  0.1288E+16
   -1.020002    3.25864  0.0000E+00  0.6721E-11  0.1030E-14  0.1000E-09  0.0000E+00  0.1089E+16
   -1.062503    3.36025  0.0000E+00  0.1262E-10  0.1898E-14  0.1000E-09  0.0000E+00  0.9009E+15
   -1.105004    3.45908  0.0000E+00  0.2354E-10  0.3478E-14  0.1000E-09  0.0000E+00  0.7267E+15
   -1.147504    3.55515  0.0000E+00  0.4333E-10  0.6290E-14  0.1000E-09  0.0000E+00  0.5654E+15
   -1.190005    3.64845  0.0000E+00  0.7922E-10  0.1130E-13  0.1000E-09  0.0000E+00  0.4145E+15
   -1.232506    3.73837  0.0000E+00  0.1475E-09  0.2068E-13  0.2374E-09  0.0000E+00  0.2735E+15
   -1.275006    3.82302  0.0000E+00  0.2783E-09  0.3835E-13  0.7807E-09  0.0000E+00  0.1540E+15
   -1.317506    3.90244  0.0000E+00  0.5292E-09  0.7172E-13  0.4105E-08  0.0000E+00  0.5461E+14
   -1.360006    3.97832  0.0000E+00  0.9262E-09  0.1249E-12  0.7003E-06  0.0000E+00  0.2394E+12
   -1.402505    3.99305  0.0000E+00  0.1323E-08  0.1885E-12  0.3645E-05  0.0000E+00 -0.3643E+12
   -1.445005    3.99593  0.0000E+00  0.1588E-08  0.2425E-12  0.4232E-05  0.0000E+00 -0.4253E+12
   -1.487504    3.99844  0.0000E+00  0.1789E-08  0.3002E-12  0.4360E-05  0.0000E+00 -0.5155E+12
   -1.530002    4.00091  0.0000E+00  0.1941E-08  0.3788E-12  0.4003E-05  0.0000E+00 -0.6931E+12
   -1.572501    4.00369  0.0000E+00  0.2049E-08  0.5360E-12  0.3033E-05  0.0000E+00 -0.1226E+13
   -1.614999    4.00772  0.0000E+00  0.2061E-08  0.1049E-11  0.1287E-05  0.0000E+00 -0.4192E+13
   -1.657496    4.01784  0.0000E+00  0.1798E-08  0.2576E-11  0.3278E-06  0.0000E+00 -0.2894E+14
   -1.699994    4.05480  0.0000E+00  0.0000E+00  0.0000E+00  0.0000E+00  0.0000E+00  0.0000E+00
