 1 - depth, m
 2 - temperature, C
 3 - salinity, kg/kg
 4 - turbulent kinetic energy, m**2/s**2
 5 - dissipation rate, m**2/s**3
 6 - kinematic heat conductance, m**2/s
 7 - modulus of horizontal velocity, m/s
 8 - Richardson number, n/d
   -0.000000    0.00000  0.0000E+00  0.1328E-09  0.1140E-12  0.1000E-09  0.0000E+00  0.3152E+17
   -0.042498    0.50707  0.0000E+00  0.4132E-09  0.8378E-13  0.1000E-09  0.0000E+00  0.2761E+17
   -0.084995    1.02681  0.0000E+00  0.9117E-09  0.9039E-13  0.1000E-09  0.0000E+00  0.2306E+17
   -0.127494    1.54932  0.0000E+00  0.1654E-08  0.1174E-12  0.1000E-09  0.0000E+00  0.1782E+17
   -0.169992    2.05234  0.0000E+00  0.2721E-08  0.1646E-12  0.1000E-09  0.0000E+00  0.1291E+17
   -0.212491    2.52540  0.0000E+00  0.4252E-08  0.2376E-12  0.1029E-09  0.0000E+00  0.8600E+16
   -0.254991    2.95856  0.0000E+00  0.6478E-08  0.3474E-12  0.2194E-09  0.0000E+00  0.5085E+16
   -0.297490    3.34181  0.0000E+00  0.9748E-08  0.5112E-12  0.6887E-09  0.0000E+00  0.2487E+16
   -0.339990    3.66683  0.0000E+00  0.1447E-07  0.7504E-12  0.4075E-08  0.0000E+00  0.7915E+15
   -0.382490    3.92932  0.0000E+00  0.1725E-07  0.9071E-12  0.6081E-04  0.0000E+00  0.7656E+14
   -0.424991    3.99834  0.0000E+00  0.1743E-07  0.9177E-12  0.1083E-03  0.0000E+00 -0.4974E+11
   -0.467491    3.99865  0.0000E+00  0.1755E-07  0.9257E-12  0.1086E-03  0.0000E+00 -0.5003E+11
   -0.509992    3.99895  0.0000E+00  0.1767E-07  0.9345E-12  0.1099E-03  0.0000E+00 -0.5129E+11
   -0.552493    3.99923  0.0000E+00  0.1779E-07  0.9441E-12  0.1112E-03  0.0000E+00 -0.5266E+11
   -0.594994    3.99951  0.0000E+00  0.1790E-07  0.9546E-12  0.1124E-03  0.0000E+00 -0.5421E+11
   -0.637495    3.99979  0.0000E+00  0.1802E-07  0.9661E-12  0.1134E-03  0.0000E+00 -0.5563E+11
   -0.679997    4.00006  0.0000E+00  0.1813E-07  0.9789E-12  0.1141E-03  0.0000E+00 -0.5742E+11
   -0.722498    4.00034  0.0000E+00  0.1825E-07  0.9932E-12  0.1143E-03  0.0000E+00 -0.5937E+11
   -0.765000    4.00061  0.0000E+00  0.1838E-07  0.1009E-11  0.1139E-03  0.0000E+00 -0.6193E+11
   -0.807501    4.00090  0.0000E+00  0.1850E-07  0.1028E-11  0.1134E-03  0.0000E+00 -0.6465E+11
   -0.850003    4.00119  0.0000E+00  0.1863E-07  0.1048E-11  0.1127E-03  0.0000E+00 -0.6792E+11
   -0.892504    4.00149  0.0000E+00  0.1877E-07  0.1071E-11  0.1119E-03  0.0000E+00 -0.7078E+11
   -0.935006    4.00179  0.0000E+00  0.1890E-07  0.1096E-11  0.1109E-03  0.0000E+00 -0.7373E+11
   -0.977507    4.00210  0.0000E+00  0.1902E-07  0.1123E-11  0.1098E-03  0.0000E+00 -0.7681E+11
   -1.020009    4.00241  0.0000E+00  0.1915E-07  0.1152E-11  0.1085E-03  0.0000E+00 -0.8049E+11
   -1.062510    4.00274  0.0000E+00  0.1927E-07  0.1184E-11  0.1070E-03  0.0000E+00 -0.8442E+11
   -1.105011    4.00307  0.0000E+00  0.1938E-07  0.1218E-11  0.1054E-03  0.0000E+00 -0.8898E+11
   -1.147512    4.00341  0.0000E+00  0.1949E-07  0.1255E-11  0.1037E-03  0.0000E+00 -0.9378E+11
   -1.190013    4.00376  0.0000E+00  0.1958E-07  0.1294E-11  0.1017E-03  0.0000E+00 -0.9952E+11
   -1.232514    4.00412  0.0000E+00  0.1966E-07  0.1338E-11  0.9946E-04  0.0000E+00 -0.1062E+12
   -1.275015    4.00450  0.0000E+00  0.1974E-07  0.1389E-11  0.9685E-04  0.0000E+00 -0.1138E+12
   -1.317515    4.00490  0.0000E+00  0.1981E-07  0.1451E-11  0.9382E-04  0.0000E+00 -0.1208E+12
   -1.360015    4.00531  0.0000E+00  0.1986E-07  0.1528E-11  0.9003E-04  0.0000E+00 -0.1298E+12
   -1.402515    4.00575  0.0000E+00  0.1991E-07  0.1629E-11  0.8563E-04  0.0000E+00 -0.1408E+12
   -1.445015    4.00621  0.0000E+00  0.1994E-07  0.1750E-11  0.8101E-04  0.0000E+00 -0.1545E+12
   -1.487514    4.00669  0.0000E+00  0.1994E-07  0.1899E-11  0.7565E-04  0.0000E+00 -0.1721E+12
   -1.530013    4.00723  0.0000E+00  0.1991E-07  0.2123E-11  0.6841E-04  0.0000E+00 -0.2002E+12
   -1.572511    4.00783  0.0000E+00  0.1979E-07  0.2609E-11  0.5723E-04  0.0000E+00 -0.2628E+12
   -1.615010    4.00859  0.0000E+00  0.1918E-07  0.4867E-11  0.2043E-04  0.0000E+00 -0.8379E+12
   -1.657508    4.01096  0.0000E+00  0.1440E-07  0.2475E-10  0.1436E-05  0.0000E+00 -0.2204E+14
   -1.700005    4.04483  0.0000E+00  0.0000E+00  0.0000E+00  0.0000E+00  0.0000E+00  0.0000E+00
