 1 - depth, m
 2 - temperature, C
 3 - salinity, kg/kg
 4 - turbulent kinetic energy, m**2/s**2
 5 - dissipation rate, m**2/s**3
 6 - kinematic heat conductance, m**2/s
 7 - modulus of horizontal velocity, m/s
 8 - Richardson number, n/d
   -0.000000   13.34353  0.0000E+00  0.9265E-04  0.2831E-04  0.5293E-04  0.7672E-01  0.5719E-01
   -0.042497   13.39029  0.0000E+00  0.5109E-04  0.8215E-05  0.7159E-04  0.2235E-01 -0.8138E-01
   -0.084995   13.40032  0.0000E+00  0.3590E-04  0.3568E-05  0.7026E-04  0.1520E-01 -0.5479E-01
   -0.127493   13.40801  0.0000E+00  0.2620E-04  0.1744E-05  0.7285E-04  0.1134E-01  0.3217E-01
   -0.169992   13.41450  0.0000E+00  0.1949E-04  0.9161E-06  0.7730E-04  0.8598E-02  0.3012E+01
   -0.212491   13.42032  0.0000E+00  0.1472E-04  0.5049E-06  0.8461E-04  0.6503E-02  0.3249E+02
   -0.254990   13.42553  0.0000E+00  0.1135E-04  0.2896E-06  0.9673E-04  0.4939E-02  0.8765E+00
   -0.297489   13.43004  0.0000E+00  0.9052E-05  0.1732E-06  0.1228E-03  0.3814E-02  0.7067E+02
   -0.339989   13.43368  0.0000E+00  0.7563E-05  0.1094E-06  0.1849E-03  0.3004E-02  0.3648E+03
   -0.382489   13.43632  0.0000E+00  0.6591E-05  0.7293E-07  0.2284E-03  0.2427E-02  0.2721E+02
   -0.424989   13.43839  0.0000E+00  0.5952E-05  0.5134E-07  0.2661E-03  0.2001E-02  0.3527E+02
   -0.467490   13.44009  0.0000E+00  0.5526E-05  0.3802E-07  0.3072E-03  0.1653E-02  0.4739E+02
   -0.509991   13.44148  0.0000E+00  0.5241E-05  0.2952E-07  0.3483E-03  0.1367E-02  0.9534E+01
   -0.552491   13.44265  0.0000E+00  0.5049E-05  0.2388E-07  0.3884E-03  0.1127E-02  0.3367E+01
   -0.594992   13.44366  0.0000E+00  0.4916E-05  0.1999E-07  0.4287E-03  0.9214E-03  0.9323E+01
   -0.637493   13.44455  0.0000E+00  0.4823E-05  0.1721E-07  0.4694E-03  0.7486E-03  0.2293E+01
   -0.679995   13.44533  0.0000E+00  0.4759E-05  0.1519E-07  0.5078E-03  0.6106E-03  0.1257E+02
   -0.722496   13.44604  0.0000E+00  0.4713E-05  0.1369E-07  0.5437E-03  0.5009E-03  0.2385E+01
   -0.764997   13.44668  0.0000E+00  0.4682E-05  0.1256E-07  0.5763E-03  0.4167E-03  0.1344E+01
   -0.807499   13.44728  0.0000E+00  0.4661E-05  0.1171E-07  0.6044E-03  0.3541E-03  0.1135E+01
   -0.850000   13.44785  0.0000E+00  0.4646E-05  0.1106E-07  0.6280E-03  0.3059E-03  0.1121E+01
   -0.892502   13.44838  0.0000E+00  0.4635E-05  0.1055E-07  0.6482E-03  0.2678E-03  0.1151E+01
   -0.935003   13.44890  0.0000E+00  0.4626E-05  0.1015E-07  0.6654E-03  0.2371E-03  0.1254E+01
   -0.977504   13.44940  0.0000E+00  0.4619E-05  0.9841E-08  0.6799E-03  0.2113E-03  0.1368E+01
   -1.020006   13.44988  0.0000E+00  0.4612E-05  0.9596E-08  0.6918E-03  0.1893E-03  0.1551E+01
   -1.062507   13.45035  0.0000E+00  0.4605E-05  0.9409E-08  0.7007E-03  0.1699E-03  0.1721E+01
   -1.105008   13.45081  0.0000E+00  0.4596E-05  0.9274E-08  0.7063E-03  0.1525E-03  0.1933E+01
   -1.147509   13.45127  0.0000E+00  0.4586E-05  0.9189E-08  0.7085E-03  0.1363E-03  0.2165E+01
   -1.190010   13.45172  0.0000E+00  0.4575E-05  0.9152E-08  0.7066E-03  0.1210E-03  0.2395E+01
   -1.232510   13.45217  0.0000E+00  0.4560E-05  0.9165E-08  0.7005E-03  0.1066E-03  0.2706E+01
   -1.275011   13.45262  0.0000E+00  0.4541E-05  0.9233E-08  0.6895E-03  0.9363E-04  0.3396E+01
   -1.317511   13.45308  0.0000E+00  0.4518E-05  0.9371E-08  0.6726E-03  0.8191E-04  0.4397E+01
   -1.360011   13.45354  0.0000E+00  0.4488E-05  0.9606E-08  0.6481E-03  0.7134E-04  0.5835E+01
   -1.402511   13.45403  0.0000E+00  0.4450E-05  0.9983E-08  0.6149E-03  0.6197E-04  0.8435E+01
   -1.445010   13.45454  0.0000E+00  0.4406E-05  0.1052E-07  0.5730E-03  0.5330E-04  0.1257E+02
   -1.487509   13.45508  0.0000E+00  0.4357E-05  0.1129E-07  0.5336E-03  0.4483E-04  0.1597E+02
   -1.530008   13.45566  0.0000E+00  0.4291E-05  0.1265E-07  0.4421E-03  0.3663E-04  0.2115E+02
   -1.572507   13.45638  0.0000E+00  0.4175E-05  0.1583E-07  0.4944E-03  0.2867E-04  0.2725E+02
   -1.615005   13.45701  0.0000E+00  0.3723E-05  0.3263E-07  0.1817E-03  0.2418E-04 -0.3439E+07
   -1.657503   13.46132  0.0000E+00  0.2376E-05  0.1052E-06  0.5623E-04  0.1514E-04 -0.8457E+04
   -1.700000   13.46683  0.0000E+00  0.0000E+00  0.0000E+00  0.0000E+00  0.1798E-04  0.0000E+00
