 1 - depth, m
 2 - temperature, C
 3 - salinity, kg/kg
 4 - turbulent kinetic energy, m**2/s**2
 5 - dissipation rate, m**2/s**3
 6 - kinematic heat conductance, m**2/s
 7 - modulus of horizontal velocity, m/s
 8 - Richardson number, n/d
   -0.000000    0.00000  0.0000E+00  0.7853E-12  0.2005E-15  0.1000E-09  0.0000E+00  0.2240E+17
   -0.042497    0.35258  0.0000E+00  0.1292E-11  0.2031E-15  0.1000E-09  0.0000E+00  0.1907E+17
   -0.084994    0.68442  0.0000E+00  0.2350E-11  0.2849E-15  0.1000E-09  0.0000E+00  0.1624E+17
   -0.127491    0.99769  0.0000E+00  0.4214E-11  0.4578E-15  0.1000E-09  0.0000E+00  0.1365E+17
   -0.169989    1.29048  0.0000E+00  0.7401E-11  0.7666E-15  0.1000E-09  0.0000E+00  0.1143E+17
   -0.212487    1.56413  0.0000E+00  0.1284E-10  0.1297E-14  0.1000E-09  0.0000E+00  0.9509E+16
   -0.254986    1.81906  0.0000E+00  0.2216E-10  0.2200E-14  0.1000E-09  0.0000E+00  0.7836E+16
   -0.297485    2.05525  0.0000E+00  0.3812E-10  0.3732E-14  0.1000E-09  0.0000E+00  0.6415E+16
   -0.339984    2.27353  0.0000E+00  0.6491E-10  0.6270E-14  0.1000E-09  0.0000E+00  0.5226E+16
   -0.382483    2.47520  0.0000E+00  0.1099E-09  0.1048E-13  0.1000E-09  0.0000E+00  0.4202E+16
   -0.424983    2.66005  0.0000E+00  0.1848E-09  0.1739E-13  0.1000E-09  0.0000E+00  0.3371E+16
   -0.467483    2.83002  0.0000E+00  0.3090E-09  0.2869E-13  0.1000E-09  0.0000E+00  0.2668E+16
   -0.509983    2.98521  0.0000E+00  0.5147E-09  0.4715E-13  0.1071E-09  0.0000E+00  0.2150E+16
   -0.552483    3.13091  0.0000E+00  0.8556E-09  0.7733E-13  0.1558E-09  0.0000E+00  0.1721E+16
   -0.594983    3.26891  0.0000E+00  0.1419E-08  0.1265E-12  0.2934E-09  0.0000E+00  0.1359E+16
   -0.637484    3.40078  0.0000E+00  0.2368E-08  0.2082E-12  0.6112E-09  0.0000E+00  0.1054E+16
   -0.679984    3.52903  0.0000E+00  0.3961E-08  0.3437E-12  0.1342E-08  0.0000E+00  0.7904E+15
   -0.722485    3.65759  0.0000E+00  0.6639E-08  0.5683E-12  0.3360E-08  0.0000E+00  0.5375E+15
   -0.764986    3.79156  0.0000E+00  0.1105E-07  0.9345E-12  0.1820E-07  0.0000E+00  0.2549E+15
   -0.807486    3.92727  0.0000E+00  0.1380E-07  0.1161E-11  0.3149E-04  0.0000E+00  0.5999E+14
   -0.849987    3.99406  0.0000E+00  0.1465E-07  0.1232E-11  0.5765E-04  0.0000E+00  0.3142E+13
   -0.892488    4.00650  0.0000E+00  0.1493E-07  0.1261E-11  0.6559E-04  0.0000E+00 -0.1293E+12
   -0.934989    4.00691  0.0000E+00  0.1516E-07  0.1289E-11  0.6596E-04  0.0000E+00 -0.1329E+12
   -0.977489    4.00732  0.0000E+00  0.1539E-07  0.1319E-11  0.6853E-04  0.0000E+00 -0.1328E+12
   -1.019990    4.00773  0.0000E+00  0.1561E-07  0.1351E-11  0.6897E-04  0.0000E+00 -0.1366E+12
   -1.062490    4.00813  0.0000E+00  0.1581E-07  0.1386E-11  0.6651E-04  0.0000E+00 -0.1453E+12
   -1.104991    4.00856  0.0000E+00  0.1601E-07  0.1425E-11  0.6609E-04  0.0000E+00 -0.1511E+12
   -1.147491    4.00899  0.0000E+00  0.1618E-07  0.1465E-11  0.6593E-04  0.0000E+00 -0.1563E+12
   -1.189991    4.00943  0.0000E+00  0.1634E-07  0.1509E-11  0.6738E-04  0.0000E+00 -0.1581E+12
   -1.232491    4.00987  0.0000E+00  0.1648E-07  0.1557E-11  0.6743E-04  0.0000E+00 -0.1659E+12
   -1.274991    4.01031  0.0000E+00  0.1661E-07  0.1613E-11  0.6585E-04  0.0000E+00 -0.1790E+12
   -1.317491    4.01079  0.0000E+00  0.1673E-07  0.1681E-11  0.6482E-04  0.0000E+00 -0.1880E+12
   -1.359990    4.01128  0.0000E+00  0.1683E-07  0.1765E-11  0.6015E-04  0.0000E+00 -0.2073E+12
   -1.402489    4.01181  0.0000E+00  0.1693E-07  0.1877E-11  0.5724E-04  0.0000E+00 -0.2252E+12
   -1.444988    4.01237  0.0000E+00  0.1699E-07  0.2012E-11  0.5432E-04  0.0000E+00 -0.2459E+12
   -1.487487    4.01297  0.0000E+00  0.1703E-07  0.2178E-11  0.5069E-04  0.0000E+00 -0.2754E+12
   -1.529985    4.01362  0.0000E+00  0.1703E-07  0.2432E-11  0.4582E-04  0.0000E+00 -0.3310E+12
   -1.572483    4.01439  0.0000E+00  0.1695E-07  0.2996E-11  0.3812E-04  0.0000E+00 -0.4957E+12
   -1.614980    4.01550  0.0000E+00  0.1640E-07  0.5584E-11  0.1393E-04  0.0000E+00 -0.1798E+13
   -1.657477    4.01923  0.0000E+00  0.1281E-07  0.2293E-10  0.1447E-05  0.0000E+00 -0.3438E+14
   -1.699974    4.06028  0.0000E+00  0.0000E+00  0.0000E+00  0.0000E+00  0.0000E+00  0.0000E+00
