 1 - depth, m
 2 - temperature, C
 3 - salinity, kg/kg
 4 - turbulent kinetic energy, m**2/s**2
 5 - dissipation rate, m**2/s**3
 6 - kinematic heat conductance, m**2/s
 7 - modulus of horizontal velocity, m/s
 8 - Richardson number, n/d
   -0.000000    2.49751  0.0000E+00  0.9013E-03  0.2302E-02  0.1369E-03  0.3620E+00  0.8701E-02
   -0.042497    2.50915  0.0000E+00  0.4173E-03  0.7077E-03  0.2551E-03  0.7857E-01 -0.3871E-03
   -0.084995    2.51521  0.0000E+00  0.2851E-03  0.3595E-03  0.2290E-03  0.4793E-01  0.3886E+00
   -0.127493    2.52072  0.0000E+00  0.2097E-03  0.1907E-03  0.1823E-03  0.3840E-01  0.1091E-01
   -0.169992    2.52642  0.0000E+00  0.1534E-03  0.1007E-03  0.1518E-03  0.3159E-01  0.1867E-01
   -0.212491    2.53279  0.0000E+00  0.1119E-03  0.5565E-04  0.1344E-03  0.2572E-01  0.7080E-01
   -0.254990    2.54091  0.0000E+00  0.7989E-04  0.3061E-04  0.1223E-03  0.2100E-01  0.4505E+01
   -0.297489    2.55030  0.0000E+00  0.5733E-04  0.1654E-04  0.1124E-03  0.1738E-01  0.1226E+02
   -0.339989    2.56270  0.0000E+00  0.4315E-04  0.9718E-05  0.1038E-03  0.1449E-01  0.2116E+03
   -0.382489    2.58348  0.0000E+00  0.3337E-04  0.5935E-05  0.9702E-04  0.1182E-01  0.1354E+03
   -0.424989    2.64796  0.0000E+00  0.2646E-04  0.3636E-05  0.9112E-04  0.1002E-01  0.1395E+03
   -0.467490    2.90019  0.0000E+00  0.2146E-04  0.2234E-05  0.8764E-04  0.8061E-02  0.1301E+03
   -0.509990    3.08486  0.0000E+00  0.1766E-04  0.1376E-05  0.8723E-04  0.6388E-02  0.3248E+03
   -0.552491    3.24275  0.0000E+00  0.1477E-04  0.8591E-06  0.8566E-04  0.5001E-02  0.2448E+03
   -0.594992    3.39852  0.0000E+00  0.1246E-04  0.5442E-06  0.9704E-04  0.3848E-02  0.4435E+04
   -0.637493    3.45268  0.0000E+00  0.1050E-04  0.3474E-06  0.9768E-04  0.2971E-02  0.9379E+04
   -0.679994    3.52001  0.0000E+00  0.8896E-05  0.2252E-06  0.9777E-04  0.2343E-02  0.3664E+05
   -0.722495    3.58065  0.0000E+00  0.7558E-05  0.1503E-06  0.1035E-03  0.1871E-02  0.1715E+07
   -0.764997    3.60782  0.0000E+00  0.6436E-05  0.1044E-06  0.1045E-03  0.1521E-02  0.2167E+10
   -0.807498    3.63468  0.0000E+00  0.5494E-05  0.7534E-07  0.1045E-03  0.1264E-02  0.5219E+11
   -0.850000    3.67067  0.0000E+00  0.4711E-05  0.5627E-07  0.1043E-03  0.1056E-02  0.1494E+13
   -0.892501    3.72259  0.0000E+00  0.4056E-05  0.4286E-07  0.1068E-03  0.8857E-03  0.3218E+13
   -0.935002    3.78096  0.0000E+00  0.3517E-05  0.3310E-07  0.1104E-03  0.7491E-03  0.9479E+12
   -0.977504    3.84780  0.0000E+00  0.3066E-05  0.2580E-07  0.1206E-03  0.6339E-03  0.1587E+13
   -1.020005    3.87907  0.0000E+00  0.2684E-05  0.2025E-07  0.1262E-03  0.5409E-03 -0.6477E+11
   -1.062506    3.89480  0.0000E+00  0.2361E-05  0.1601E-07  0.1289E-03  0.4597E-03 -0.7540E+11
   -1.105007    3.90536  0.0000E+00  0.2087E-05  0.1273E-07  0.1327E-03  0.3901E-03 -0.1054E+12
   -1.147508    3.91544  0.0000E+00  0.1856E-05  0.1021E-07  0.1347E-03  0.3259E-03 -0.1151E+12
   -1.190009    3.92753  0.0000E+00  0.1663E-05  0.8293E-08  0.1323E-03  0.2629E-03 -0.1309E+12
   -1.232509    3.94314  0.0000E+00  0.1497E-05  0.6778E-08  0.1327E-03  0.2040E-03 -0.1572E+12
   -1.275010    3.95971  0.0000E+00  0.1354E-05  0.5572E-08  0.1328E-03  0.1569E-03 -0.1880E+12
   -1.317510    3.98057  0.0000E+00  0.1234E-05  0.4624E-08  0.1323E-03  0.1193E-03 -0.5188E+11
   -1.360010    4.00598  0.0000E+00  0.1134E-05  0.3884E-08  0.1321E-03  0.9085E-04  0.1925E+12
   -1.402510    4.02204  0.0000E+00  0.1046E-05  0.3293E-08  0.1306E-03  0.7021E-04  0.1865E+12
   -1.445009    4.03508  0.0000E+00  0.9754E-06  0.2869E-08  0.1278E-03  0.5381E-04  0.1235E+12
   -1.487508    4.04919  0.0000E+00  0.9205E-06  0.2598E-08  0.1232E-03  0.3957E-04 -0.5478E+12
   -1.530007    4.06333  0.0000E+00  0.8759E-06  0.2465E-08  0.1157E-03  0.2756E-04 -0.2454E+13
   -1.572506    4.07470  0.0000E+00  0.8309E-06  0.2520E-08  0.1007E-03  0.1869E-04 -0.3914E+13
   -1.615004    4.08433  0.0000E+00  0.7438E-06  0.3154E-08  0.6637E-04  0.1340E-04 -0.7779E+13
   -1.657502    4.09925  0.0000E+00  0.4671E-06  0.8533E-08  0.6329E-05  0.9368E-05 -0.8452E+14
   -1.699999    4.20920  0.0000E+00  0.0000E+00  0.0000E+00  0.0000E+00  0.9735E-05  0.0000E+00
