 1 - depth, m
 2 - temperature, C
 3 - salinity, kg/kg
 4 - turbulent kinetic energy, m**2/s**2
 5 - dissipation rate, m**2/s**3
 6 - kinematic heat conductance, m**2/s
 7 - modulus of horizontal velocity, m/s
 8 - Richardson number, n/d
   -0.000000    9.73792  0.0000E+00  0.6493E-03  0.2095E-02  0.6811E-04  0.2424E+00 -0.1291E+01
   -0.042497    9.86339  0.0000E+00  0.3043E-03  0.8032E-03  0.2042E-03  0.5354E-01  0.2459E+02
   -0.084995    9.89421  0.0000E+00  0.2089E-03  0.3538E-03  0.2125E-03  0.3264E-01  0.9523E+01
   -0.127493    9.91293  0.0000E+00  0.1574E-03  0.1864E-03  0.2055E-03  0.2587E-01  0.5143E+01
   -0.169992    9.92357  0.0000E+00  0.1167E-03  0.9563E-04  0.2032E-03  0.2115E-01  0.1124E+01
   -0.212491    9.93373  0.0000E+00  0.8699E-04  0.4911E-04  0.2128E-03  0.1725E-01  0.1422E+02
   -0.254990    9.94316  0.0000E+00  0.6512E-04  0.2608E-04  0.2327E-03  0.1417E-01  0.3223E+01
   -0.297489    9.95051  0.0000E+00  0.4996E-04  0.1399E-04  0.2568E-03  0.1188E-01  0.2315E+01
   -0.339989    9.95637  0.0000E+00  0.3985E-04  0.7682E-05  0.2794E-03  0.1006E-01  0.2972E+01
   -0.382489    9.96204  0.0000E+00  0.3272E-04  0.4208E-05  0.3081E-03  0.8441E-02  0.1213E+03
   -0.424989    9.96655  0.0000E+00  0.2764E-04  0.2331E-05  0.3369E-03  0.7252E-02  0.1215E+02
   -0.467489    9.97074  0.0000E+00  0.2394E-04  0.1344E-05  0.3695E-03  0.6153E-02  0.2345E+02
   -0.509990    9.97482  0.0000E+00  0.2116E-04  0.8260E-06  0.4059E-03  0.5196E-02  0.1958E+02
   -0.552491    9.97816  0.0000E+00  0.1901E-04  0.5453E-06  0.4444E-03  0.4398E-02  0.5186E+02
   -0.594992    9.98113  0.0000E+00  0.1727E-04  0.3871E-06  0.4837E-03  0.3714E-02  0.2013E+02
   -0.637493    9.98380  0.0000E+00  0.1581E-04  0.2857E-06  0.5262E-03  0.3135E-02  0.1527E+02
   -0.679994    9.98625  0.0000E+00  0.1458E-04  0.2193E-06  0.5665E-03  0.2666E-02  0.3535E+02
   -0.722495    9.98821  0.0000E+00  0.1353E-04  0.1733E-06  0.6110E-03  0.2280E-02  0.1620E+02
   -0.764997    9.99015  0.0000E+00  0.1262E-04  0.1402E-06  0.6528E-03  0.1967E-02  0.7866E+02
   -0.807498    9.99166  0.0000E+00  0.1184E-04  0.1150E-06  0.6896E-03  0.1719E-02  0.1223E+02
   -0.849999    9.99314  0.0000E+00  0.1116E-04  0.9575E-07  0.7206E-03  0.1512E-02  0.8667E+01
   -0.892501    9.99443  0.0000E+00  0.1058E-04  0.8069E-07  0.7489E-03  0.1336E-02  0.4160E+01
   -0.935002    9.99567  0.0000E+00  0.1009E-04  0.6889E-07  0.7679E-03  0.1187E-02  0.6034E+01
   -0.977503    9.99684  0.0000E+00  0.9659E-05  0.5940E-07  0.7851E-03  0.1055E-02  0.1013E+02
   -1.020005    9.99797  0.0000E+00  0.9289E-05  0.5188E-07  0.7971E-03  0.9389E-03  0.5401E+01
   -1.062506    9.99907  0.0000E+00  0.8966E-05  0.4584E-07  0.8044E-03  0.8343E-03  0.5419E+01
   -1.105007   10.00017  0.0000E+00  0.8678E-05  0.4095E-07  0.8064E-03  0.7391E-03  0.5101E+01
   -1.147508   10.00126  0.0000E+00  0.8428E-05  0.3720E-07  0.8039E-03  0.6492E-03  0.6130E+01
   -1.190008   10.00238  0.0000E+00  0.8206E-05  0.3436E-07  0.7960E-03  0.5623E-03  0.1071E+02
   -1.232509   10.00352  0.0000E+00  0.7998E-05  0.3222E-07  0.7865E-03  0.4795E-03  0.6483E+01
   -1.275010   10.00468  0.0000E+00  0.7799E-05  0.3071E-07  0.7702E-03  0.4078E-03  0.9678E+01
   -1.317510   10.00587  0.0000E+00  0.7607E-05  0.2983E-07  0.7461E-03  0.3468E-03  0.1133E+02
   -1.360010   10.00710  0.0000E+00  0.7417E-05  0.2966E-07  0.7099E-03  0.2960E-03  0.1238E+02
   -1.402509   10.00840  0.0000E+00  0.7217E-05  0.3051E-07  0.6689E-03  0.2546E-03  0.1807E+02
   -1.445009   10.00981  0.0000E+00  0.7009E-05  0.3298E-07  0.6055E-03  0.2186E-03  0.2991E+02
   -1.487508   10.01150  0.0000E+00  0.6779E-05  0.3795E-07  0.5646E-03  0.1813E-03  0.1139E+03
   -1.530007   10.01343  0.0000E+00  0.6478E-05  0.4984E-07  0.4521E-03  0.1427E-03 -0.1362E+04
   -1.572505   10.01669  0.0000E+00  0.6072E-05  0.7730E-07  0.4990E-03  0.1017E-03  0.5722E+05
   -1.615003   10.01801  0.0000E+00  0.5103E-05  0.2016E-06  0.1994E-03  0.8126E-04 -0.4434E+06
   -1.657501   10.03325  0.0000E+00  0.3374E-05  0.5075E-06  0.9086E-04  0.5265E-04 -0.3498E+06
   -1.699999   10.04496  0.0000E+00  0.0000E+00  0.0000E+00  0.0000E+00  0.8561E-04  0.0000E+00
