 1 - depth, m
 2 - temperature, C
 3 - salinity, kg/kg
 4 - turbulent kinetic energy, m**2/s**2
 5 - dissipation rate, m**2/s**3
 6 - kinematic heat conductance, m**2/s
 7 - modulus of horizontal velocity, m/s
 8 - Richardson number, n/d
   -0.000000    0.00000  0.0000E+00  0.3684E-11  0.1242E-14  0.1000E-09  0.0000E+00  0.1887E+17
   -0.042497    0.29467  0.0000E+00  0.6741E-11  0.1044E-14  0.1000E-09  0.0000E+00  0.1766E+17
   -0.084994    0.59511  0.0000E+00  0.1253E-10  0.1214E-14  0.1000E-09  0.0000E+00  0.1628E+17
   -0.127492    0.89951  0.0000E+00  0.2162E-10  0.1666E-14  0.1000E-09  0.0000E+00  0.1428E+17
   -0.169990    1.19518  0.0000E+00  0.3536E-10  0.2445E-14  0.1000E-09  0.0000E+00  0.1237E+17
   -0.212489    1.48096  0.0000E+00  0.5603E-10  0.3669E-14  0.1000E-09  0.0000E+00  0.1058E+17
   -0.254988    1.75541  0.0000E+00  0.8732E-10  0.5545E-14  0.1000E-09  0.0000E+00  0.8902E+16
   -0.297487    2.01705  0.0000E+00  0.1348E-09  0.8392E-14  0.1000E-09  0.0000E+00  0.7383E+16
   -0.339986    2.26503  0.0000E+00  0.2056E-09  0.1261E-13  0.1000E-09  0.0000E+00  0.6033E+16
   -0.382486    2.49902  0.0000E+00  0.3113E-09  0.1885E-13  0.1000E-09  0.0000E+00  0.4832E+16
   -0.424986    2.71806  0.0000E+00  0.4681E-09  0.2800E-13  0.1000E-09  0.0000E+00  0.3806E+16
   -0.467486    2.92259  0.0000E+00  0.6999E-09  0.4137E-13  0.1000E-09  0.0000E+00  0.2918E+16
   -0.509986    3.11185  0.0000E+00  0.1043E-08  0.6093E-13  0.1000E-09  0.0000E+00  0.2217E+16
   -0.552487    3.28977  0.0000E+00  0.1551E-08  0.8958E-13  0.1743E-09  0.0000E+00  0.1617E+16
   -0.594988    3.45649  0.0000E+00  0.2302E-08  0.1314E-12  0.3738E-09  0.0000E+00  0.1107E+16
   -0.637488    3.61162  0.0000E+00  0.3438E-08  0.1939E-12  0.8938E-09  0.0000E+00  0.6848E+15
   -0.679989    3.75508  0.0000E+00  0.5147E-08  0.2869E-12  0.2657E-08  0.0000E+00  0.3426E+15
   -0.722490    3.88664  0.0000E+00  0.7688E-08  0.4237E-12  0.1775E-07  0.0000E+00  0.7727E+14
   -0.764991    3.99819  0.0000E+00  0.7912E-08  0.4368E-12  0.5677E-04  0.0000E+00 -0.5613E+11
   -0.807492    3.99849  0.0000E+00  0.8026E-08  0.4443E-12  0.5503E-04  0.0000E+00 -0.5761E+11
   -0.849993    3.99878  0.0000E+00  0.8139E-08  0.4524E-12  0.5519E-04  0.0000E+00 -0.5705E+11
   -0.892494    3.99907  0.0000E+00  0.8249E-08  0.4613E-12  0.5551E-04  0.0000E+00 -0.5733E+11
   -0.934995    3.99936  0.0000E+00  0.8355E-08  0.4709E-12  0.5579E-04  0.0000E+00 -0.5854E+11
   -0.977496    3.99964  0.0000E+00  0.8457E-08  0.4813E-12  0.5593E-04  0.0000E+00 -0.5997E+11
   -1.019997    3.99993  0.0000E+00  0.8554E-08  0.4925E-12  0.5592E-04  0.0000E+00 -0.6149E+11
   -1.062498    4.00022  0.0000E+00  0.8644E-08  0.5044E-12  0.5577E-04  0.0000E+00 -0.6325E+11
   -1.104999    4.00050  0.0000E+00  0.8728E-08  0.5173E-12  0.5548E-04  0.0000E+00 -0.6506E+11
   -1.147500    4.00079  0.0000E+00  0.8802E-08  0.5308E-12  0.5510E-04  0.0000E+00 -0.6695E+11
   -1.190000    4.00109  0.0000E+00  0.8867E-08  0.5452E-12  0.5452E-04  0.0000E+00 -0.6939E+11
   -1.232500    4.00138  0.0000E+00  0.8924E-08  0.5613E-12  0.5379E-04  0.0000E+00 -0.7301E+11
   -1.275001    4.00169  0.0000E+00  0.8976E-08  0.5802E-12  0.5283E-04  0.0000E+00 -0.7710E+11
   -1.317500    4.00201  0.0000E+00  0.9020E-08  0.6028E-12  0.5149E-04  0.0000E+00 -0.8102E+11
   -1.360000    4.00233  0.0000E+00  0.9057E-08  0.6311E-12  0.4970E-04  0.0000E+00 -0.8624E+11
   -1.402500    4.00268  0.0000E+00  0.9086E-08  0.6680E-12  0.4747E-04  0.0000E+00 -0.9275E+11
   -1.444999    4.00303  0.0000E+00  0.9103E-08  0.7123E-12  0.4498E-04  0.0000E+00 -0.1004E+12
   -1.487498    4.00341  0.0000E+00  0.9104E-08  0.7670E-12  0.4198E-04  0.0000E+00 -0.1111E+12
   -1.529996    4.00382  0.0000E+00  0.9082E-08  0.8575E-12  0.3774E-04  0.0000E+00 -0.1313E+12
   -1.572494    4.00430  0.0000E+00  0.8990E-08  0.1091E-11  0.2536E-04  0.0000E+00 -0.2302E+12
   -1.614992    4.00510  0.0000E+00  0.8484E-08  0.2223E-11  0.7974E-05  0.0000E+00 -0.9173E+12
   -1.657489    4.00800  0.0000E+00  0.6043E-08  0.8868E-11  0.7505E-06  0.0000E+00 -0.1934E+14
   -1.699987    4.04054  0.0000E+00  0.0000E+00  0.0000E+00  0.0000E+00  0.0000E+00  0.0000E+00
