 1 - depth, m
 2 - temperature, C
 3 - salinity, kg/kg
 4 - turbulent kinetic energy, m**2/s**2
 5 - dissipation rate, m**2/s**3
 6 - kinematic heat conductance, m**2/s
 7 - modulus of horizontal velocity, m/s
 8 - Richardson number, n/d
   -0.000000    0.00000  0.0000E+00  0.2213E-11  0.7086E-15  0.1000E-09  0.0000E+00  0.2270E+17
   -0.042497    0.35767  0.0000E+00  0.3972E-11  0.6860E-15  0.1000E-09  0.0000E+00  0.1938E+17
   -0.084994    0.69558  0.0000E+00  0.7542E-11  0.9423E-15  0.1000E-09  0.0000E+00  0.1645E+17
   -0.127491    1.01440  0.0000E+00  0.1368E-10  0.1491E-14  0.1000E-09  0.0000E+00  0.1375E+17
   -0.169989    1.31141  0.0000E+00  0.2396E-10  0.2455E-14  0.1000E-09  0.0000E+00  0.1143E+17
   -0.212487    1.58755  0.0000E+00  0.4111E-10  0.4074E-14  0.1000E-09  0.0000E+00  0.9431E+16
   -0.254985    1.84312  0.0000E+00  0.6984E-10  0.6762E-14  0.1000E-09  0.0000E+00  0.7710E+16
   -0.297484    2.07831  0.0000E+00  0.1179E-09  0.1120E-13  0.1000E-09  0.0000E+00  0.6277E+16
   -0.339983    2.29461  0.0000E+00  0.1966E-09  0.1835E-13  0.1000E-09  0.0000E+00  0.5106E+16
   -0.382482    2.49423  0.0000E+00  0.3254E-09  0.2985E-13  0.1000E-09  0.0000E+00  0.4119E+16
   -0.424982    2.67787  0.0000E+00  0.5340E-09  0.4818E-13  0.1000E-09  0.0000E+00  0.3335E+16
   -0.467482    2.84858  0.0000E+00  0.8698E-09  0.7721E-13  0.1029E-09  0.0000E+00  0.2680E+16
   -0.509981    3.00755  0.0000E+00  0.1410E-08  0.1232E-12  0.1749E-09  0.0000E+00  0.2214E+16
   -0.552482    3.16215  0.0000E+00  0.2279E-08  0.1958E-12  0.3386E-09  0.0000E+00  0.1818E+16
   -0.594982    3.31572  0.0000E+00  0.3670E-08  0.3103E-12  0.6687E-09  0.0000E+00  0.1458E+16
   -0.637482    3.47160  0.0000E+00  0.5938E-08  0.4941E-12  0.1402E-08  0.0000E+00  0.1106E+16
   -0.679983    3.63395  0.0000E+00  0.9619E-08  0.7877E-12  0.3478E-08  0.0000E+00  0.7150E+15
   -0.722483    3.80546  0.0000E+00  0.1551E-07  0.1252E-11  0.1779E-07  0.0000E+00  0.2559E+15
   -0.764984    3.97645  0.0000E+00  0.1775E-07  0.1444E-11  0.5838E-04  0.0000E+00  0.1234E+14
   -0.807484    4.00510  0.0000E+00  0.1805E-07  0.1471E-11  0.8025E-04  0.0000E+00 -0.1122E+12
   -0.849985    4.00548  0.0000E+00  0.1828E-07  0.1495E-11  0.7980E-04  0.0000E+00 -0.1198E+12
   -0.892486    4.00587  0.0000E+00  0.1850E-07  0.1522E-11  0.8016E-04  0.0000E+00 -0.1239E+12
   -0.934986    4.00628  0.0000E+00  0.1872E-07  0.1551E-11  0.8056E-04  0.0000E+00 -0.1258E+12
   -0.977487    4.00668  0.0000E+00  0.1892E-07  0.1581E-11  0.8276E-04  0.0000E+00 -0.1245E+12
   -1.019987    4.00707  0.0000E+00  0.1911E-07  0.1614E-11  0.8743E-04  0.0000E+00 -0.1199E+12
   -1.062488    4.00744  0.0000E+00  0.1928E-07  0.1649E-11  0.8513E-04  0.0000E+00 -0.1277E+12
   -1.104988    4.00782  0.0000E+00  0.1945E-07  0.1687E-11  0.8011E-04  0.0000E+00 -0.1371E+12
   -1.147488    4.00822  0.0000E+00  0.1959E-07  0.1729E-11  0.7924E-04  0.0000E+00 -0.1410E+12
   -1.189989    4.00863  0.0000E+00  0.1972E-07  0.1773E-11  0.7837E-04  0.0000E+00 -0.1457E+12
   -1.232488    4.00905  0.0000E+00  0.1984E-07  0.1824E-11  0.7732E-04  0.0000E+00 -0.1531E+12
   -1.274988    4.00947  0.0000E+00  0.1994E-07  0.1882E-11  0.7745E-04  0.0000E+00 -0.1579E+12
   -1.317488    4.00991  0.0000E+00  0.2002E-07  0.1953E-11  0.7653E-04  0.0000E+00 -0.1633E+12
   -1.359987    4.01035  0.0000E+00  0.2010E-07  0.2041E-11  0.7191E-04  0.0000E+00 -0.1787E+12
   -1.402486    4.01082  0.0000E+00  0.2015E-07  0.2159E-11  0.6846E-04  0.0000E+00 -0.1924E+12
   -1.444985    4.01132  0.0000E+00  0.2019E-07  0.2300E-11  0.6503E-04  0.0000E+00 -0.2074E+12
   -1.487483    4.01185  0.0000E+00  0.2019E-07  0.2476E-11  0.6093E-04  0.0000E+00 -0.2283E+12
   -1.529981    4.01241  0.0000E+00  0.2016E-07  0.2744E-11  0.5533E-04  0.0000E+00 -0.2693E+12
   -1.572479    4.01306  0.0000E+00  0.2004E-07  0.3347E-11  0.4628E-04  0.0000E+00 -0.3895E+12
   -1.614976    4.01398  0.0000E+00  0.1934E-07  0.6157E-11  0.1624E-04  0.0000E+00 -0.1404E+13
   -1.657473    4.01709  0.0000E+00  0.1477E-07  0.2651E-10  0.1540E-05  0.0000E+00 -0.2992E+14
   -1.699970    4.05543  0.0000E+00  0.0000E+00  0.0000E+00  0.0000E+00  0.0000E+00  0.0000E+00
