 1 - depth, m
 2 - temperature, C
 3 - salinity, kg/kg
 4 - turbulent kinetic energy, m**2/s**2
 5 - dissipation rate, m**2/s**3
 6 - kinematic heat conductance, m**2/s
 7 - modulus of horizontal velocity, m/s
 8 - Richardson number, n/d
   -0.000000   16.03721  0.0000E+00  0.7737E-05  0.3224E-06  0.1876E-04  0.1199E-01 -0.3938E-01
   -0.042497   16.05596  0.0000E+00  0.5849E-05  0.1192E-06  0.3277E-04  0.6226E-02 -0.1046E+00
   -0.084995   16.06516  0.0000E+00  0.4683E-05  0.5891E-07  0.4879E-04  0.3715E-02 -0.2075E+00
   -0.127493   16.07045  0.0000E+00  0.4002E-05  0.3419E-07  0.8243E-04  0.2354E-02  0.6883E+00
   -0.169992   16.07352  0.0000E+00  0.3639E-05  0.2290E-07  0.1370E-03  0.1579E-02  0.1924E+04
   -0.212490   16.07524  0.0000E+00  0.3464E-05  0.1711E-07  0.1864E-03  0.1147E-02  0.1541E+05
   -0.254990   16.07629  0.0000E+00  0.3399E-05  0.1383E-07  0.2666E-03  0.8806E-03  0.7353E+03
   -0.297489   16.07691  0.0000E+00  0.3398E-05  0.1191E-07  0.3234E-03  0.7224E-03  0.8351E+00
   -0.339989   16.07737  0.0000E+00  0.3434E-05  0.1064E-07  0.3610E-03  0.6205E-03  0.7832E+00
   -0.382489   16.07778  0.0000E+00  0.3495E-05  0.9736E-08  0.4040E-03  0.5371E-03  0.8173E+00
   -0.424989   16.07814  0.0000E+00  0.3575E-05  0.9082E-08  0.4461E-03  0.4691E-03  0.9191E+00
   -0.467489   16.07850  0.0000E+00  0.3666E-05  0.8602E-08  0.4899E-03  0.4096E-03  0.1042E+01
   -0.509990   16.07886  0.0000E+00  0.3764E-05  0.8249E-08  0.5346E-03  0.3564E-03  0.1151E+01
   -0.552491   16.07922  0.0000E+00  0.3863E-05  0.7991E-08  0.5788E-03  0.3090E-03  0.1241E+01
   -0.594991   16.07958  0.0000E+00  0.3957E-05  0.7807E-08  0.6210E-03  0.2671E-03  0.1266E+01
   -0.637493   16.07994  0.0000E+00  0.4046E-05  0.7679E-08  0.6605E-03  0.2309E-03  0.1219E+01
   -0.679994   16.08028  0.0000E+00  0.4126E-05  0.7599E-08  0.6944E-03  0.2012E-03  0.1144E+01
   -0.722495   16.08060  0.0000E+00  0.4200E-05  0.7557E-08  0.7214E-03  0.1775E-03  0.1084E+01
   -0.764996   16.08091  0.0000E+00  0.4271E-05  0.7553E-08  0.7445E-03  0.1587E-03  0.1150E+01
   -0.807498   16.08118  0.0000E+00  0.4346E-05  0.7585E-08  0.7658E-03  0.1433E-03  0.1330E+01
   -0.849999   16.08145  0.0000E+00  0.4423E-05  0.7652E-08  0.7849E-03  0.1302E-03  0.1613E+01
   -0.892500   16.08172  0.0000E+00  0.4504E-05  0.7756E-08  0.8022E-03  0.1186E-03  0.1982E+01
   -0.935002   16.08198  0.0000E+00  0.4588E-05  0.7896E-08  0.8162E-03  0.1083E-03  0.2476E+01
   -0.977503   16.08227  0.0000E+00  0.4676E-05  0.8072E-08  0.8273E-03  0.9893E-04  0.3069E+01
   -1.020004   16.08257  0.0000E+00  0.4764E-05  0.8285E-08  0.8348E-03  0.9044E-04  0.3836E+01
   -1.062505   16.08289  0.0000E+00  0.4853E-05  0.8532E-08  0.8389E-03  0.8259E-04  0.4721E+01
   -1.105006   16.08324  0.0000E+00  0.4939E-05  0.8815E-08  0.8388E-03  0.7528E-04  0.5845E+01
   -1.147507   16.08363  0.0000E+00  0.5020E-05  0.9126E-08  0.8346E-03  0.6832E-04  0.7204E+01
   -1.190008   16.08407  0.0000E+00  0.5091E-05  0.9462E-08  0.8262E-03  0.6157E-04  0.8570E+01
   -1.232509   16.08456  0.0000E+00  0.5155E-05  0.9844E-08  0.8134E-03  0.5508E-04  0.1025E+02
   -1.275009   16.08508  0.0000E+00  0.5211E-05  0.1029E-07  0.7946E-03  0.4907E-04  0.1331E+02
   -1.317509   16.08563  0.0000E+00  0.5259E-05  0.1084E-07  0.7685E-03  0.4352E-04  0.1771E+02
   -1.360009   16.08622  0.0000E+00  0.5298E-05  0.1153E-07  0.7337E-03  0.3841E-04  0.2420E+02
   -1.402509   16.08686  0.0000E+00  0.5327E-05  0.1246E-07  0.6886E-03  0.3377E-04  0.3635E+02
   -1.445008   16.08758  0.0000E+00  0.5342E-05  0.1361E-07  0.6311E-03  0.2939E-04  0.5692E+02
   -1.487507   16.08841  0.0000E+00  0.5335E-05  0.1509E-07  0.5847E-03  0.2501E-04  0.7533E+02
   -1.530006   16.08937  0.0000E+00  0.5296E-05  0.1749E-07  0.4657E-03  0.2071E-04  0.1059E+03
   -1.572505   16.09064  0.0000E+00  0.5184E-05  0.2275E-07  0.5444E-03  0.1646E-04  0.1389E+03
   -1.615003   16.09171  0.0000E+00  0.4654E-05  0.4984E-07  0.1896E-03  0.1395E-04 -0.1817E+08
   -1.657500   16.09971  0.0000E+00  0.3070E-05  0.1581E-06  0.6603E-04  0.8787E-05 -0.5685E+05
   -1.699998   16.10984  0.0000E+00  0.0000E+00  0.0000E+00  0.0000E+00  0.1027E-04  0.0000E+00
