 1 - depth, m
 2 - temperature, C
 3 - salinity, kg/kg
 4 - turbulent kinetic energy, m**2/s**2
 5 - dissipation rate, m**2/s**3
 6 - kinematic heat conductance, m**2/s
 7 - modulus of horizontal velocity, m/s
 8 - Richardson number, n/d
   -0.000000    0.00000  0.0000E+00  0.3189E-13  0.5206E-16  0.1000E-09  0.0000E+00  0.8505E+16
   -0.042497    0.12985  0.0000E+00  0.3189E-13  0.5206E-16  0.1000E-09  0.0000E+00  0.8600E+16
   -0.084995    0.26606  0.0000E+00  0.3189E-13  0.5206E-16  0.1000E-09  0.0000E+00  0.8614E+16
   -0.127493    0.40802  0.0000E+00  0.3189E-13  0.5206E-16  0.1000E-09  0.0000E+00  0.8221E+16
   -0.169992    0.54933  0.0000E+00  0.3189E-13  0.5206E-16  0.1000E-09  0.0000E+00  0.7825E+16
   -0.212491    0.68978  0.0000E+00  0.3189E-13  0.5206E-16  0.1000E-09  0.0000E+00  0.7421E+16
   -0.254990    0.82910  0.0000E+00  0.3189E-13  0.5206E-16  0.1000E-09  0.0000E+00  0.7014E+16
   -0.297490    0.96699  0.0000E+00  0.3189E-13  0.5206E-16  0.1000E-09  0.0000E+00  0.6616E+16
   -0.339989    1.10341  0.0000E+00  0.3189E-13  0.5206E-16  0.1000E-09  0.0000E+00  0.6233E+16
   -0.382490    1.23845  0.0000E+00  0.3189E-13  0.5206E-16  0.1000E-09  0.0000E+00  0.5855E+16
   -0.424990    1.37193  0.0000E+00  0.3189E-13  0.5206E-16  0.1000E-09  0.0000E+00  0.5496E+16
   -0.467490    1.50405  0.0000E+00  0.3189E-13  0.5206E-16  0.1000E-09  0.0000E+00  0.5141E+16
   -0.509991    1.63466  0.0000E+00  0.3189E-13  0.5206E-16  0.1000E-09  0.0000E+00  0.4810E+16
   -0.552492    1.76407  0.0000E+00  0.3189E-13  0.5206E-16  0.1000E-09  0.0000E+00  0.4485E+16
   -0.594993    1.89222  0.0000E+00  0.3189E-13  0.5206E-16  0.1000E-09  0.0000E+00  0.4161E+16
   -0.637494    2.01883  0.0000E+00  0.3189E-13  0.5206E-16  0.1000E-09  0.0000E+00  0.3835E+16
   -0.679995    2.14346  0.0000E+00  0.3189E-13  0.5206E-16  0.1000E-09  0.0000E+00  0.3513E+16
   -0.722497    2.26578  0.0000E+00  0.3189E-13  0.5206E-16  0.1000E-09  0.0000E+00  0.3191E+16
   -0.764998    2.38523  0.0000E+00  0.3189E-13  0.5206E-16  0.1000E-09  0.0000E+00  0.2874E+16
   -0.807499    2.50123  0.0000E+00  0.3189E-13  0.5206E-16  0.1000E-09  0.0000E+00  0.2577E+16
   -0.850001    2.61378  0.0000E+00  0.3189E-13  0.5206E-16  0.1000E-09  0.0000E+00  0.2297E+16
   -0.892502    2.72270  0.0000E+00  0.3189E-13  0.5206E-16  0.1000E-09  0.0000E+00  0.2051E+16
   -0.935004    2.82877  0.0000E+00  0.3189E-13  0.5206E-16  0.1000E-09  0.0000E+00  0.1835E+16
   -0.977505    2.93288  0.0000E+00  0.3189E-13  0.5206E-16  0.1000E-09  0.0000E+00  0.1626E+16
   -1.020006    3.03479  0.0000E+00  0.3828E-13  0.5206E-16  0.1000E-09  0.0000E+00  0.1429E+16
   -1.062508    3.13452  0.0000E+00  0.1616E-12  0.6542E-16  0.1000E-09  0.0000E+00  0.1240E+16
   -1.105009    3.23186  0.0000E+00  0.4533E-12  0.1419E-15  0.1000E-09  0.0000E+00  0.1065E+16
   -1.147510    3.32696  0.0000E+00  0.1101E-11  0.3222E-15  0.1000E-09  0.0000E+00  0.9010E+15
   -1.190011    3.41990  0.0000E+00  0.2557E-11  0.7240E-15  0.1000E-09  0.0000E+00  0.7423E+15
   -1.232511    3.51005  0.0000E+00  0.5997E-11  0.1653E-14  0.1000E-09  0.0000E+00  0.5836E+15
   -1.275012    3.59538  0.0000E+00  0.1414E-10  0.3801E-14  0.1000E-09  0.0000E+00  0.4472E+15
   -1.317512    3.67639  0.0000E+00  0.3344E-10  0.8774E-14  0.1000E-09  0.0000E+00  0.3419E+15
   -1.360012    3.75700  0.0000E+00  0.7964E-10  0.2041E-13  0.2675E-09  0.0000E+00  0.2386E+15
   -1.402512    3.83727  0.0000E+00  0.1913E-09  0.4790E-13  0.1095E-08  0.0000E+00  0.1362E+15
   -1.445012    3.91666  0.0000E+00  0.4357E-09  0.1069E-12  0.8619E-08  0.0000E+00  0.3783E+14
   -1.487511    3.99147  0.0000E+00  0.8732E-09  0.2134E-12  0.1347E-05  0.0000E+00 -0.1052E+13
   -1.530010    3.99910  0.0000E+00  0.1190E-08  0.3289E-12  0.1823E-05  0.0000E+00 -0.1421E+13
   -1.572508    4.00490  0.0000E+00  0.1443E-08  0.5128E-12  0.1665E-05  0.0000E+00 -0.2321E+13
   -1.615007    4.01165  0.0000E+00  0.1638E-08  0.9861E-12  0.9284E-06  0.0000E+00 -0.6105E+13
   -1.657504    4.02401  0.0000E+00  0.1528E-08  0.2215E-11  0.2879E-06  0.0000E+00 -0.3066E+14
   -1.700002    4.05938  0.0000E+00  0.0000E+00  0.0000E+00  0.0000E+00  0.0000E+00  0.0000E+00
