 1 - depth, m
 2 - temperature, C
 3 - salinity, kg/kg
 4 - turbulent kinetic energy, m**2/s**2
 5 - dissipation rate, m**2/s**3
 6 - kinematic heat conductance, m**2/s
 7 - modulus of horizontal velocity, m/s
 8 - Richardson number, n/d
   -0.000000    9.97652  0.0000E+00  0.3646E-03  0.4344E-03  0.8744E-04  0.2167E+00  0.1899E-02
   -0.042498   10.01985  0.0000E+00  0.1879E-03  0.1356E-03  0.1758E-03  0.5026E-01 -0.1335E-01
   -0.084996   10.02844  0.0000E+00  0.1284E-03  0.5695E-04  0.1408E-03  0.3215E-01 -0.6013E-01
   -0.127495   10.03567  0.0000E+00  0.9365E-04  0.2617E-04  0.1273E-03  0.2508E-01 -0.1832E-01
   -0.169994   10.04146  0.0000E+00  0.6894E-04  0.1217E-04  0.1203E-03  0.2005E-01 -0.3567E-01
   -0.212493   10.04694  0.0000E+00  0.5101E-04  0.5689E-05  0.1182E-03  0.1598E-01 -0.2939E-01
   -0.254992   10.05216  0.0000E+00  0.3819E-04  0.2733E-05  0.1203E-03  0.1272E-01  0.8322E+02
   -0.297492   10.05700  0.0000E+00  0.2950E-04  0.1444E-05  0.1242E-03  0.1028E-01  0.6523E+02
   -0.339993   10.06116  0.0000E+00  0.2359E-04  0.8526E-06  0.1308E-03  0.8453E-02  0.1541E+03
   -0.382493   10.06466  0.0000E+00  0.1935E-04  0.5434E-06  0.1406E-03  0.7012E-02  0.1014E+04
   -0.424994   10.06771  0.0000E+00  0.1627E-04  0.3650E-06  0.1526E-03  0.5903E-02  0.4169E+02
   -0.467495   10.07043  0.0000E+00  0.1394E-04  0.2548E-06  0.1669E-03  0.4946E-02  0.4130E+02
   -0.509996   10.07288  0.0000E+00  0.1212E-04  0.1832E-06  0.1852E-03  0.4119E-02  0.4268E+03
   -0.552497   10.07509  0.0000E+00  0.1065E-04  0.1349E-06  0.2067E-03  0.3407E-02  0.3488E+03
   -0.594998   10.07708  0.0000E+00  0.9438E-05  0.1013E-06  0.2323E-03  0.2789E-02  0.8495E+01
   -0.637500   10.07887  0.0000E+00  0.8417E-05  0.7718E-07  0.2620E-03  0.2265E-02  0.4018E+02
   -0.680002   10.08046  0.0000E+00  0.7566E-05  0.5961E-07  0.2994E-03  0.1842E-02  0.1438E+02
   -0.722503   10.08185  0.0000E+00  0.6857E-05  0.4671E-07  0.3423E-03  0.1501E-02  0.1321E+02
   -0.765005   10.08305  0.0000E+00  0.6269E-05  0.3711E-07  0.3853E-03  0.1233E-02  0.5589E+02
   -0.807507   10.08409  0.0000E+00  0.5780E-05  0.2989E-07  0.4165E-03  0.1027E-02  0.9064E+01
   -0.850009   10.08503  0.0000E+00  0.5383E-05  0.2451E-07  0.4413E-03  0.8614E-03  0.8669E+01
   -0.892511   10.08590  0.0000E+00  0.5059E-05  0.2045E-07  0.4642E-03  0.7272E-03  0.1462E+02
   -0.935012   10.08670  0.0000E+00  0.4800E-05  0.1743E-07  0.4843E-03  0.6189E-03  0.6004E+01
   -0.977514   10.08744  0.0000E+00  0.4593E-05  0.1515E-07  0.5013E-03  0.5289E-03  0.3579E+02
   -1.020016   10.08815  0.0000E+00  0.4427E-05  0.1344E-07  0.5165E-03  0.4545E-03  0.8072E+01
   -1.062518   10.08883  0.0000E+00  0.4294E-05  0.1214E-07  0.5288E-03  0.3914E-03  0.8172E+01
   -1.105019   10.08949  0.0000E+00  0.4186E-05  0.1114E-07  0.5388E-03  0.3373E-03  0.1393E+02
   -1.147520   10.09013  0.0000E+00  0.4099E-05  0.1041E-07  0.5457E-03  0.2892E-03  0.9106E+01
   -1.190022   10.09076  0.0000E+00  0.4028E-05  0.9868E-08  0.5488E-03  0.2449E-03  0.1317E+02
   -1.232523   10.09140  0.0000E+00  0.3967E-05  0.9474E-08  0.5487E-03  0.2046E-03  0.1185E+02
   -1.275024   10.09204  0.0000E+00  0.3914E-05  0.9203E-08  0.5452E-03  0.1712E-03  0.1528E+02
   -1.317524   10.09268  0.0000E+00  0.3866E-05  0.9042E-08  0.5382E-03  0.1438E-03  0.2038E+02
   -1.360025   10.09333  0.0000E+00  0.3820E-05  0.8986E-08  0.5265E-03  0.1214E-03  0.2785E+02
   -1.402525   10.09399  0.0000E+00  0.3772E-05  0.9047E-08  0.5089E-03  0.1030E-03  0.4142E+02
   -1.445025   10.09468  0.0000E+00  0.3725E-05  0.9247E-08  0.4859E-03  0.8682E-04  0.6309E+02
   -1.487525   10.09541  0.0000E+00  0.3678E-05  0.9630E-08  0.4588E-03  0.7170E-04  0.8081E+02
   -1.530024   10.09619  0.0000E+00  0.3622E-05  0.1041E-07  0.4073E-03  0.5740E-04  0.1001E+03
   -1.572523   10.09709  0.0000E+00  0.3528E-05  0.1237E-07  0.3958E-03  0.4445E-04  0.1754E+03
   -1.615021   10.09800  0.0000E+00  0.3211E-05  0.2199E-07  0.2038E-03  0.3614E-04 -0.3857E+06
   -1.657520   10.10185  0.0000E+00  0.2088E-05  0.7083E-07  0.3708E-04  0.2478E-04 -0.1467E+07
   -1.700017   10.11361  0.0000E+00  0.0000E+00  0.0000E+00  0.0000E+00  0.2765E-04  0.0000E+00
