 1 - depth, m
 2 - temperature, C
 3 - salinity, kg/kg
 4 - turbulent kinetic energy, m**2/s**2
 5 - dissipation rate, m**2/s**3
 6 - kinematic heat conductance, m**2/s
 7 - modulus of horizontal velocity, m/s
 8 - Richardson number, n/d
   -0.000000    0.00000  0.0000E+00  0.1696E-08  0.3595E-11  0.2732E-09  0.0000E+00  0.4999E+17
   -0.042499    0.84461  0.0000E+00  0.1060E-07  0.3640E-11  0.3897E-09  0.0000E+00  0.3170E+17
   -0.084998    1.53698  0.0000E+00  0.2967E-07  0.6779E-11  0.1012E-08  0.0000E+00  0.1968E+17
   -0.127498    2.10070  0.0000E+00  0.6804E-07  0.1401E-10  0.2887E-08  0.0000E+00  0.1305E+17
   -0.169998    2.62798  0.0000E+00  0.1429E-06  0.2837E-10  0.1841E-07  0.0000E+00  0.7226E+16
   -0.212499    3.13403  0.0000E+00  0.1921E-06  0.3800E-10  0.1550E-03  0.0000E+00  0.3342E+16
   -0.255000    3.42199  0.0000E+00  0.2246E-06  0.4452E-10  0.2583E-03  0.0000E+00  0.1498E+16
   -0.297501    3.57716  0.0000E+00  0.2499E-06  0.4978E-10  0.3203E-03  0.0000E+00  0.6922E+15
   -0.340002    3.66434  0.0000E+00  0.2726E-06  0.5464E-10  0.3621E-03  0.0000E+00  0.4231E+15
   -0.382504    3.72749  0.0000E+00  0.2946E-06  0.5950E-10  0.3967E-03  0.0000E+00  0.3035E+15
   -0.425006    3.78026  0.0000E+00  0.3167E-06  0.6452E-10  0.4271E-03  0.0000E+00  0.3947E+15
   -0.467508    3.84237  0.0000E+00  0.3396E-06  0.6980E-10  0.4608E-03  0.0000E+00  0.4719E+15
   -0.510010    3.91389  0.0000E+00  0.3621E-06  0.7510E-10  0.4910E-03  0.0000E+00  0.5084E+15
   -0.552513    3.99299  0.0000E+00  0.3821E-06  0.7992E-10  0.5232E-03  0.0000E+00  0.4063E+15
   -0.595016    4.06836  0.0000E+00  0.3956E-06  0.8330E-10  0.5557E-03  0.0000E+00  0.1405E+15
   -0.637518    4.11707  0.0000E+00  0.3971E-06  0.8399E-10  0.5871E-03  0.0000E+00 -0.3454E+12
   -0.680021    4.11865  0.0000E+00  0.3981E-06  0.8462E-10  0.5871E-03  0.0000E+00 -0.8570E+12
   -0.722524    4.11910  0.0000E+00  0.3990E-06  0.8535E-10  0.5852E-03  0.0000E+00 -0.8919E+12
   -0.765027    4.11955  0.0000E+00  0.3999E-06  0.8618E-10  0.5806E-03  0.0000E+00 -0.9129E+12
   -0.807530    4.12001  0.0000E+00  0.4008E-06  0.8715E-10  0.5767E-03  0.0000E+00 -0.9203E+12
   -0.850033    4.12048  0.0000E+00  0.4016E-06  0.8824E-10  0.5720E-03  0.0000E+00 -0.9468E+12
   -0.892536    4.12096  0.0000E+00  0.4024E-06  0.8947E-10  0.5657E-03  0.0000E+00 -0.9602E+12
   -0.935039    4.12144  0.0000E+00  0.4031E-06  0.9083E-10  0.5577E-03  0.0000E+00 -0.9757E+12
   -0.977542    4.12193  0.0000E+00  0.4037E-06  0.9236E-10  0.5495E-03  0.0000E+00 -0.9919E+12
   -1.020045    4.12242  0.0000E+00  0.4043E-06  0.9404E-10  0.5484E-03  0.0000E+00 -0.9973E+12
   -1.062548    4.12292  0.0000E+00  0.4047E-06  0.9590E-10  0.5285E-03  0.0000E+00 -0.1048E+13
   -1.105051    4.12342  0.0000E+00  0.4051E-06  0.9796E-10  0.5281E-03  0.0000E+00 -0.1043E+13
   -1.147554    4.12394  0.0000E+00  0.4054E-06  0.1002E-09  0.5061E-03  0.0000E+00 -0.1101E+13
   -1.190056    4.12447  0.0000E+00  0.4055E-06  0.1026E-09  0.5052E-03  0.0000E+00 -0.1116E+13
   -1.232558    4.12500  0.0000E+00  0.4055E-06  0.1055E-09  0.4798E-03  0.0000E+00 -0.1199E+13
   -1.275061    4.12557  0.0000E+00  0.4055E-06  0.1089E-09  0.4675E-03  0.0000E+00 -0.1239E+13
   -1.317562    4.12615  0.0000E+00  0.4052E-06  0.1132E-09  0.4569E-03  0.0000E+00 -0.1262E+13
   -1.360064    4.12675  0.0000E+00  0.4048E-06  0.1186E-09  0.4277E-03  0.0000E+00 -0.1362E+13
   -1.402566    4.12738  0.0000E+00  0.4041E-06  0.1258E-09  0.4094E-03  0.0000E+00 -0.1403E+13
   -1.445067    4.12804  0.0000E+00  0.4032E-06  0.1347E-09  0.3761E-03  0.0000E+00 -0.1558E+13
   -1.487568    4.12876  0.0000E+00  0.4020E-06  0.1459E-09  0.3479E-03  0.0000E+00 -0.1722E+13
   -1.530068    4.12954  0.0000E+00  0.4004E-06  0.1631E-09  0.3131E-03  0.0000E+00 -0.1936E+13
   -1.572568    4.13042  0.0000E+00  0.3970E-06  0.2008E-09  0.2508E-03  0.0000E+00 -0.2487E+13
   -1.615068    4.13153  0.0000E+00  0.3859E-06  0.3361E-09  0.1691E-03  0.0000E+00 -0.3837E+13
   -1.657567    4.13326  0.0000E+00  0.2805E-06  0.1912E-08  0.5692E-05  0.0000E+00 -0.1389E+15
   -1.700067    4.18525  0.0000E+00  0.0000E+00  0.0000E+00  0.0000E+00  0.0000E+00  0.0000E+00
