 1 - depth, m
 2 - temperature, C
 3 - salinity, kg/kg
 4 - turbulent kinetic energy, m**2/s**2
 5 - dissipation rate, m**2/s**3
 6 - kinematic heat conductance, m**2/s
 7 - modulus of horizontal velocity, m/s
 8 - Richardson number, n/d
   -0.000000   30.45312  0.8871E-14  0.4808E-05  0.2978E-06  0.5051E-04  0.1638E-02  0.4823E+04
   -0.049997   30.48319  0.8871E-14  0.8202E-05  0.1329E-06  0.1752E-03  0.9380E-03  0.3755E+04
   -0.099994   30.49489  0.8871E-14  0.9950E-05  0.9126E-07  0.3959E-03  0.6855E-03  0.1835E+02
   -0.149992   30.49814  0.8871E-14  0.1104E-04  0.7652E-07  0.4758E-03  0.6051E-03  0.8964E+01
   -0.199991   30.50072  0.8871E-14  0.1189E-04  0.6787E-07  0.6363E-03  0.5400E-03  0.5743E+01
   -0.249989   30.50259  0.8871E-14  0.1256E-04  0.6220E-07  0.7610E-03  0.4913E-03  0.4235E+01
   -0.299989   30.50412  0.8871E-14  0.1311E-04  0.5815E-07  0.8852E-03  0.4508E-03  0.3361E+01
   -0.349988   30.50539  0.8871E-14  0.1356E-04  0.5511E-07  0.9979E-03  0.4161E-03  0.2873E+01
   -0.399988   30.50649  0.8871E-14  0.1394E-04  0.5274E-07  0.1101E-02  0.3855E-03  0.2554E+01
   -0.449988   30.50747  0.8871E-14  0.1427E-04  0.5080E-07  0.1197E-02  0.3585E-03  0.2399E+01
   -0.499988   30.50835  0.8871E-14  0.1455E-04  0.4920E-07  0.1285E-02  0.3347E-03  0.2328E+01
   -0.549989   30.50915  0.8871E-14  0.1479E-04  0.4785E-07  0.1365E-02  0.3133E-03  0.2298E+01
   -0.599990   30.50989  0.8871E-14  0.1500E-04  0.4670E-07  0.1439E-02  0.2940E-03  0.2292E+01
   -0.649991   30.51059  0.8871E-14  0.1517E-04  0.4573E-07  0.1504E-02  0.2764E-03  0.2321E+01
   -0.699992   30.51124  0.8871E-14  0.1532E-04  0.4490E-07  0.1563E-02  0.2603E-03  0.2365E+01
   -0.749993   30.51186  0.8871E-14  0.1545E-04  0.4420E-07  0.1614E-02  0.2454E-03  0.2443E+01
   -0.799995   30.51245  0.8871E-14  0.1554E-04  0.4361E-07  0.1657E-02  0.2315E-03  0.2535E+01
   -0.849996   30.51301  0.8871E-14  0.1562E-04  0.4312E-07  0.1693E-02  0.2186E-03  0.2663E+01
   -0.899998   30.51356  0.8871E-14  0.1567E-04  0.4273E-07  0.1721E-02  0.2064E-03  0.2811E+01
   -0.950000   30.51409  0.8871E-14  0.1571E-04  0.4243E-07  0.1740E-02  0.1950E-03  0.3005E+01
   -1.000001   30.51461  0.8871E-14  0.1572E-04  0.4223E-07  0.1752E-02  0.1842E-03  0.3227E+01
   -1.050003   30.51512  0.8871E-14  0.1571E-04  0.4213E-07  0.1755E-02  0.1739E-03  0.3650E+01
   -1.100005   30.51563  0.8871E-14  0.1568E-04  0.4214E-07  0.1837E-02  0.1641E-03  0.1212E+02
   -1.150006   30.51611  0.8871E-14  0.1563E-04  0.4227E-07  0.1679E-02  0.1554E-03  0.2685E+02
   -1.200008   30.51663  0.8871E-14  0.1555E-04  0.4252E-07  0.1702E-02  0.1464E-03  0.5196E+01
   -1.250010   30.51713  0.8871E-14  0.1545E-04  0.4293E-07  0.1673E-02  0.1378E-03  0.5503E+01
   -1.300011   30.51764  0.8871E-14  0.1532E-04  0.4353E-07  0.1626E-02  0.1295E-03  0.6406E+01
   -1.350012   30.51817  0.8871E-14  0.1517E-04  0.4437E-07  0.1569E-02  0.1214E-03  0.7600E+01
   -1.400013   30.51870  0.8871E-14  0.1498E-04  0.4552E-07  0.1495E-02  0.1136E-03  0.9312E+01
   -1.450014   30.51926  0.8871E-14  0.1475E-04  0.4710E-07  0.1419E-02  0.1059E-03  0.1172E+02
   -1.500015   30.51985  0.8871E-14  0.1447E-04  0.4930E-07  0.1310E-02  0.9838E-04  0.1570E+02
   -1.550015   30.52050  0.8871E-14  0.1413E-04  0.5241E-07  0.1227E-02  0.9084E-04  0.2185E+02
   -1.600015   30.52118  0.8871E-14  0.1371E-04  0.5714E-07  0.1081E-02  0.8347E-04  0.3836E+02
   -1.650015   30.52200  0.8871E-14  0.1319E-04  0.6438E-07  0.1006E-02  0.7562E-04  0.1506E+03
   -1.700014   30.52290  0.8871E-14  0.1248E-04  0.7751E-07  0.8225E-03  0.6807E-04  0.3047E+03
   -1.750013   30.52448  0.8871E-14  0.1151E-04  0.9937E-07  0.7449E-03  0.5806E-04  0.3700E+05
   -1.800012   30.52589  0.8871E-14  0.1018E-04  0.1459E-06  0.5275E-03  0.4994E-04  0.3928E+06
   -1.850010   30.53096  0.8871E-14  0.8650E-05  0.2309E-06  0.4741E-03  0.3632E-04  0.3685E+07
   -1.900008   30.53053  0.8871E-14  0.6809E-05  0.4782E-06  0.2152E-03  0.2933E-04 -0.2319E+05
   -1.950006   30.54723  0.8871E-14  0.4726E-05  0.1220E-05  0.1806E-03  0.1590E-04 -0.5742E+06
   -2.000003   30.54954  0.8871E-14  0.0000E+00  0.0000E+00  0.0000E+00  0.2847E-04  0.0000E+00
