 1 - depth, m
 2 - temperature, C
 3 - salinity, kg/kg
 4 - turbulent kinetic energy, m**2/s**2
 5 - dissipation rate, m**2/s**3
 6 - kinematic heat conductance, m**2/s
 7 - modulus of horizontal velocity, m/s
 8 - Richardson number, n/d
   -0.000000   30.56342  0.2766E-14  0.4838E-05  0.3000E-06  0.4997E-04  0.1340E-02  0.1136E+05
   -0.049997   30.59437  0.2766E-14  0.8321E-05  0.1340E-06  0.1798E-03  0.7594E-03  0.1344E+03
   -0.099994   30.60598  0.2766E-14  0.1008E-04  0.9266E-07  0.3985E-03  0.5598E-03  0.2634E+02
   -0.149992   30.60925  0.2766E-14  0.1120E-04  0.7778E-07  0.4818E-03  0.4942E-03  0.1295E+02
   -0.199991   30.61185  0.2766E-14  0.1206E-04  0.6907E-07  0.6431E-03  0.4414E-03  0.8302E+01
   -0.249989   30.61373  0.2766E-14  0.1275E-04  0.6336E-07  0.7688E-03  0.4019E-03  0.6129E+01
   -0.299988   30.61526  0.2766E-14  0.1330E-04  0.5929E-07  0.8940E-03  0.3690E-03  0.4874E+01
   -0.349988   30.61655  0.2766E-14  0.1377E-04  0.5624E-07  0.1007E-02  0.3408E-03  0.4169E+01
   -0.399988   30.61766  0.2766E-14  0.1415E-04  0.5386E-07  0.1111E-02  0.3159E-03  0.3713E+01
   -0.449988   30.61865  0.2766E-14  0.1449E-04  0.5193E-07  0.1207E-02  0.2940E-03  0.3487E+01
   -0.499988   30.61954  0.2766E-14  0.1478E-04  0.5033E-07  0.1295E-02  0.2746E-03  0.3390E+01
   -0.549989   30.62035  0.2766E-14  0.1503E-04  0.4899E-07  0.1376E-02  0.2572E-03  0.3347E+01
   -0.599989   30.62110  0.2766E-14  0.1524E-04  0.4786E-07  0.1449E-02  0.2415E-03  0.3345E+01
   -0.649991   30.62181  0.2766E-14  0.1542E-04  0.4690E-07  0.1515E-02  0.2272E-03  0.3390E+01
   -0.699992   30.62247  0.2766E-14  0.1558E-04  0.4610E-07  0.1573E-02  0.2140E-03  0.3463E+01
   -0.749993   30.62310  0.2766E-14  0.1571E-04  0.4542E-07  0.1623E-02  0.2018E-03  0.3581E+01
   -0.799995   30.62370  0.2766E-14  0.1581E-04  0.4486E-07  0.1666E-02  0.1905E-03  0.3727E+01
   -0.849996   30.62428  0.2766E-14  0.1589E-04  0.4440E-07  0.1701E-02  0.1799E-03  0.3924E+01
   -0.899998   30.62484  0.2766E-14  0.1595E-04  0.4405E-07  0.1727E-02  0.1700E-03  0.4157E+01
   -0.949999   30.62538  0.2766E-14  0.1598E-04  0.4380E-07  0.1746E-02  0.1606E-03  0.4457E+01
   -1.000001   30.62592  0.2766E-14  0.1600E-04  0.4366E-07  0.1756E-02  0.1518E-03  0.4809E+01
   -1.050003   30.62645  0.2766E-14  0.1599E-04  0.4361E-07  0.1756E-02  0.1434E-03  0.5459E+01
   -1.100005   30.62697  0.2766E-14  0.1596E-04  0.4368E-07  0.1846E-02  0.1354E-03  0.1798E+02
   -1.150006   30.62746  0.2766E-14  0.1591E-04  0.4389E-07  0.1667E-02  0.1282E-03  0.4162E+02
   -1.200008   30.62801  0.2766E-14  0.1583E-04  0.4423E-07  0.1695E-02  0.1208E-03  0.7939E+01
   -1.250009   30.62854  0.2766E-14  0.1573E-04  0.4475E-07  0.1665E-02  0.1137E-03  0.8451E+01
   -1.300011   30.62907  0.2766E-14  0.1560E-04  0.4548E-07  0.1614E-02  0.1068E-03  0.9934E+01
   -1.350012   30.62962  0.2766E-14  0.1543E-04  0.4649E-07  0.1555E-02  0.1002E-03  0.1192E+02
   -1.400013   30.63019  0.2766E-14  0.1523E-04  0.4785E-07  0.1476E-02  0.9373E-04  0.1484E+02
   -1.450014   30.63079  0.2766E-14  0.1499E-04  0.4972E-07  0.1400E-02  0.8737E-04  0.1903E+02
   -1.500014   30.63143  0.2766E-14  0.1469E-04  0.5234E-07  0.1285E-02  0.8113E-04  0.2630E+02
   -1.550015   30.63213  0.2766E-14  0.1432E-04  0.5606E-07  0.1208E-02  0.7483E-04  0.3816E+02
   -1.600015   30.63288  0.2766E-14  0.1386E-04  0.6193E-07  0.1057E-02  0.6871E-04  0.8912E+02
   -1.650014   30.63383  0.2766E-14  0.1327E-04  0.7099E-07  0.9863E-03  0.6194E-04  0.3466E+04
   -1.700014   30.63487  0.2766E-14  0.1246E-04  0.8718E-07  0.7947E-03  0.5550E-04  0.3032E+05
   -1.750013   30.63685  0.2766E-14  0.1140E-04  0.1136E-06  0.7279E-03  0.4657E-04  0.1002E+06
   -1.800012   30.63821  0.2766E-14  0.1005E-04  0.1705E-06  0.5013E-03  0.4021E-04  0.3474E+05
   -1.850010   30.64494  0.2766E-14  0.8541E-05  0.2782E-06  0.4690E-03  0.2842E-04  0.3883E+08
   -1.900008   30.64311  0.2766E-14  0.6815E-05  0.5793E-06  0.2168E-03  0.2337E-04  0.5947E+06
   -1.950005   30.66241  0.2766E-14  0.4768E-05  0.1434E-05  0.1921E-03  0.1261E-04 -0.5488E+06
   -2.000002   30.66509  0.2766E-14  0.0000E+00  0.0000E+00  0.0000E+00  0.2343E-04  0.0000E+00
