 1 - depth, m
 2 - temperature, C
 3 - salinity, kg/kg
 4 - turbulent kinetic energy, m**2/s**2
 5 - dissipation rate, m**2/s**3
 6 - kinematic heat conductance, m**2/s
 7 - modulus of horizontal velocity, m/s
 8 - Richardson number, n/d
   -0.000000   30.29112  0.7484E-13  0.4602E-05  0.2788E-06  0.4912E-04  0.1189E-02  0.4869E+04
   -0.049997   30.32073  0.7484E-13  0.7950E-05  0.1242E-06  0.1736E-03  0.6750E-03  0.9125E+02
   -0.099994   30.33209  0.7484E-13  0.9634E-05  0.8564E-07  0.3948E-03  0.4931E-03  0.3797E+02
   -0.149992   30.33521  0.7484E-13  0.1068E-04  0.7204E-07  0.4729E-03  0.4353E-03  0.1843E+02
   -0.199991   30.33770  0.7484E-13  0.1149E-04  0.6402E-07  0.6303E-03  0.3885E-03  0.1190E+02
   -0.249989   30.33951  0.7484E-13  0.1214E-04  0.5873E-07  0.7532E-03  0.3533E-03  0.8811E+01
   -0.299989   30.34098  0.7484E-13  0.1266E-04  0.5493E-07  0.8747E-03  0.3241E-03  0.7002E+01
   -0.349988   30.34222  0.7484E-13  0.1309E-04  0.5207E-07  0.9851E-03  0.2990E-03  0.6003E+01
   -0.399988   30.34328  0.7484E-13  0.1345E-04  0.4984E-07  0.1086E-02  0.2768E-03  0.5334E+01
   -0.449988   30.34423  0.7484E-13  0.1376E-04  0.4801E-07  0.1180E-02  0.2573E-03  0.5023E+01
   -0.499988   30.34508  0.7484E-13  0.1403E-04  0.4649E-07  0.1266E-02  0.2400E-03  0.4870E+01
   -0.549989   30.34585  0.7484E-13  0.1426E-04  0.4521E-07  0.1345E-02  0.2246E-03  0.4821E+01
   -0.599990   30.34657  0.7484E-13  0.1446E-04  0.4413E-07  0.1416E-02  0.2106E-03  0.4801E+01
   -0.649991   30.34724  0.7484E-13  0.1462E-04  0.4320E-07  0.1481E-02  0.1979E-03  0.4876E+01
   -0.699992   30.34787  0.7484E-13  0.1477E-04  0.4241E-07  0.1538E-02  0.1862E-03  0.4959E+01
   -0.749993   30.34847  0.7484E-13  0.1488E-04  0.4174E-07  0.1587E-02  0.1754E-03  0.5139E+01
   -0.799995   30.34903  0.7484E-13  0.1497E-04  0.4118E-07  0.1630E-02  0.1654E-03  0.5319E+01
   -0.849996   30.34958  0.7484E-13  0.1504E-04  0.4071E-07  0.1665E-02  0.1561E-03  0.5610E+01
   -0.899998   30.35011  0.7484E-13  0.1509E-04  0.4033E-07  0.1692E-02  0.1473E-03  0.5904E+01
   -0.950000   30.35062  0.7484E-13  0.1512E-04  0.4005E-07  0.1711E-02  0.1390E-03  0.6338E+01
   -1.000001   30.35112  0.7484E-13  0.1513E-04  0.3985E-07  0.1723E-02  0.1312E-03  0.6786E+01
   -1.050003   30.35161  0.7484E-13  0.1512E-04  0.3975E-07  0.1725E-02  0.1238E-03  0.7706E+01
   -1.100005   30.35210  0.7484E-13  0.1509E-04  0.3975E-07  0.1806E-02  0.1168E-03  0.2551E+02
   -1.150007   30.35256  0.7484E-13  0.1504E-04  0.3986E-07  0.1653E-02  0.1105E-03  0.5664E+02
   -1.200008   30.35306  0.7484E-13  0.1497E-04  0.4009E-07  0.1675E-02  0.1040E-03  0.1099E+02
   -1.250010   30.35354  0.7484E-13  0.1487E-04  0.4047E-07  0.1646E-02  0.9782E-04  0.1160E+02
   -1.300011   30.35404  0.7484E-13  0.1475E-04  0.4102E-07  0.1600E-02  0.9184E-04  0.1355E+02
   -1.350012   30.35454  0.7484E-13  0.1460E-04  0.4180E-07  0.1544E-02  0.8607E-04  0.1602E+02
   -1.400013   30.35505  0.7484E-13  0.1442E-04  0.4286E-07  0.1472E-02  0.8045E-04  0.1968E+02
   -1.450014   30.35559  0.7484E-13  0.1420E-04  0.4432E-07  0.1396E-02  0.7496E-04  0.2470E+02
   -1.500015   30.35616  0.7484E-13  0.1393E-04  0.4635E-07  0.1291E-02  0.6956E-04  0.3304E+02
   -1.550015   30.35677  0.7484E-13  0.1361E-04  0.4922E-07  0.1203E-02  0.6419E-04  0.4587E+02
   -1.600015   30.35743  0.7484E-13  0.1321E-04  0.5351E-07  0.1065E-02  0.5890E-04  0.7527E+02
   -1.650015   30.35820  0.7484E-13  0.1272E-04  0.6013E-07  0.9824E-03  0.5339E-04  0.2320E+03
   -1.700014   30.35907  0.7484E-13  0.1204E-04  0.7203E-07  0.8103E-03  0.4795E-04 -0.1646E+04
   -1.750013   30.36051  0.7484E-13  0.1112E-04  0.9193E-07  0.7273E-03  0.4108E-04  0.3882E+05
   -1.800012   30.36192  0.7484E-13  0.9824E-05  0.1344E-06  0.5136E-03  0.3515E-04  0.2867E+06
   -1.850011   30.36660  0.7484E-13  0.8316E-05  0.2119E-06  0.4602E-03  0.2559E-04  0.8867E+08
   -1.900008   30.36642  0.7484E-13  0.6478E-05  0.4422E-06  0.2019E-03  0.2047E-04  0.2789E+07
   -1.950006   30.38255  0.7484E-13  0.4494E-05  0.1130E-05  0.1771E-03  0.1089E-04 -0.1943E+07
   -2.000003   30.38474  0.7484E-13  0.0000E+00  0.0000E+00  0.0000E+00  0.1976E-04  0.0000E+00
