 1 - depth, m
 2 - temperature, C
 3 - salinity, kg/kg
 4 - turbulent kinetic energy, m**2/s**2
 5 - dissipation rate, m**2/s**3
 6 - kinematic heat conductance, m**2/s
 7 - modulus of horizontal velocity, m/s
 8 - Richardson number, n/d
   -0.000000   31.70031  0.3118E-13  0.5243E-05  0.3389E-06  0.5106E-04  0.4953E-03  0.3523E+05
   -0.049997   31.73511  0.3118E-13  0.9227E-05  0.1506E-06  0.1946E-03  0.2794E-03  0.1047E+06
   -0.099994   31.74672  0.3118E-13  0.1113E-04  0.1047E-06  0.4290E-03  0.2061E-03  0.2075E+03
   -0.149992   31.75014  0.3118E-13  0.1233E-04  0.8840E-07  0.5078E-03  0.1830E-03  0.1036E+03
   -0.199990   31.75289  0.3118E-13  0.1326E-04  0.7873E-07  0.6793E-03  0.1640E-03  0.6777E+02
   -0.249989   31.75488  0.3118E-13  0.1400E-04  0.7237E-07  0.8094E-03  0.1497E-03  0.5043E+02
   -0.299988   31.75651  0.3118E-13  0.1461E-04  0.6781E-07  0.9393E-03  0.1378E-03  0.4039E+02
   -0.349988   31.75788  0.3118E-13  0.1511E-04  0.6439E-07  0.1057E-02  0.1276E-03  0.3452E+02
   -0.399987   31.75906  0.3118E-13  0.1553E-04  0.6172E-07  0.1164E-02  0.1186E-03  0.3086E+02
   -0.449987   31.76012  0.3118E-13  0.1589E-04  0.5955E-07  0.1262E-02  0.1106E-03  0.2886E+02
   -0.499988   31.76107  0.3118E-13  0.1620E-04  0.5776E-07  0.1353E-02  0.1035E-03  0.2814E+02
   -0.549988   31.76194  0.3118E-13  0.1646E-04  0.5626E-07  0.1436E-02  0.9719E-04  0.2763E+02
   -0.599989   31.76275  0.3118E-13  0.1669E-04  0.5500E-07  0.1510E-02  0.9143E-04  0.2773E+02
   -0.649990   31.76350  0.3118E-13  0.1689E-04  0.5393E-07  0.1576E-02  0.8617E-04  0.2793E+02
   -0.699991   31.76421  0.3118E-13  0.1705E-04  0.5304E-07  0.1634E-02  0.8132E-04  0.2867E+02
   -0.749992   31.76489  0.3118E-13  0.1718E-04  0.5230E-07  0.1684E-02  0.7684E-04  0.2946E+02
   -0.799994   31.76553  0.3118E-13  0.1729E-04  0.5169E-07  0.1726E-02  0.7265E-04  0.3084E+02
   -0.849995   31.76616  0.3118E-13  0.1737E-04  0.5121E-07  0.1759E-02  0.6874E-04  0.3229E+02
   -0.899997   31.76677  0.3118E-13  0.1743E-04  0.5085E-07  0.1784E-02  0.6506E-04  0.3442E+02
   -0.949998   31.76736  0.3118E-13  0.1746E-04  0.5061E-07  0.1799E-02  0.6158E-04  0.3673E+02
   -1.000000   31.76794  0.3118E-13  0.1747E-04  0.5049E-07  0.1806E-02  0.5828E-04  0.3992E+02
   -1.050002   31.76851  0.3118E-13  0.1745E-04  0.5051E-07  0.1802E-02  0.5514E-04  0.4507E+02
   -1.100003   31.76909  0.3118E-13  0.1740E-04  0.5066E-07  0.1915E-02  0.5214E-04  0.1462E+03
   -1.150005   31.76962  0.3118E-13  0.1733E-04  0.5099E-07  0.1674E-02  0.4950E-04  0.3609E+03
   -1.200007   31.77023  0.3118E-13  0.1724E-04  0.5149E-07  0.1721E-02  0.4665E-04  0.6677E+02
   -1.250008   31.77082  0.3118E-13  0.1711E-04  0.5221E-07  0.1687E-02  0.4396E-04  0.7165E+02
   -1.300009   31.77142  0.3118E-13  0.1694E-04  0.5321E-07  0.1628E-02  0.4137E-04  0.8444E+02
   -1.350010   31.77203  0.3118E-13  0.1674E-04  0.5458E-07  0.1562E-02  0.3884E-04  0.1030E+03
   -1.400011   31.77268  0.3118E-13  0.1649E-04  0.5644E-07  0.1472E-02  0.3637E-04  0.1297E+03
   -1.450012   31.77336  0.3118E-13  0.1619E-04  0.5900E-07  0.1391E-02  0.3393E-04  0.1700E+03
   -1.500013   31.77409  0.3118E-13  0.1582E-04  0.6261E-07  0.1266E-02  0.3152E-04  0.2410E+03
   -1.550013   31.77491  0.3118E-13  0.1537E-04  0.6780E-07  0.1186E-02  0.2906E-04  0.3668E+03
   -1.600013   31.77580  0.3118E-13  0.1480E-04  0.7614E-07  0.1034E-02  0.2667E-04 -0.4939E+05
   -1.650013   31.77700  0.3118E-13  0.1405E-04  0.8923E-07  0.9568E-03  0.2396E-04  0.9801E+04
   -1.700012   31.77831  0.3118E-13  0.1300E-04  0.1134E-06  0.7683E-03  0.2132E-04  0.7964E+06
   -1.750011   31.78093  0.3118E-13  0.1170E-04  0.1518E-06  0.6946E-03  0.1758E-04  0.1809E+07
   -1.800010   31.78264  0.3118E-13  0.1005E-04  0.2405E-06  0.4692E-03  0.1502E-04  0.1308E+06
   -1.850008   31.79241  0.3118E-13  0.8422E-05  0.3985E-06  0.4503E-03  0.1009E-04  0.1686E+10
   -1.900006   31.78832  0.3118E-13  0.6688E-05  0.8384E-06  0.2119E-03  0.8350E-05 -0.1217E+07
   -1.950003   31.81426  0.3118E-13  0.4842E-05  0.1987E-05  0.2255E-03  0.4291E-05 -0.5583E+07
   -2.000000   31.81304  0.3118E-13  0.0000E+00  0.0000E+00  0.0000E+00  0.9052E-05  0.0000E+00
