 1 - depth, m
 2 - temperature, C
 3 - salinity, kg/kg
 4 - turbulent kinetic energy, m**2/s**2
 5 - dissipation rate, m**2/s**3
 6 - kinematic heat conductance, m**2/s
 7 - modulus of horizontal velocity, m/s
 8 - Richardson number, n/d
   -0.000000   31.27732  0.5786E-14  0.5331E-05  0.3536E-06  0.5257E-04  0.1002E-02  0.6837E+04
   -0.049997   31.31165  0.5786E-14  0.9217E-05  0.1569E-06  0.1896E-03  0.5705E-03  0.1126E+05
   -0.099994   31.32449  0.5786E-14  0.1118E-04  0.1080E-06  0.4237E-03  0.4187E-03  0.6794E+02
   -0.149992   31.32802  0.5786E-14  0.1241E-04  0.9067E-07  0.5041E-03  0.3709E-03  0.3386E+02
   -0.199990   31.33085  0.5786E-14  0.1337E-04  0.8053E-07  0.6770E-03  0.3318E-03  0.2185E+02
   -0.249989   31.33290  0.5786E-14  0.1413E-04  0.7390E-07  0.8072E-03  0.3026E-03  0.1635E+02
   -0.299988   31.33457  0.5786E-14  0.1475E-04  0.6918E-07  0.9394E-03  0.2784E-03  0.1299E+02
   -0.349988   31.33597  0.5786E-14  0.1527E-04  0.6565E-07  0.1058E-02  0.2576E-03  0.1121E+02
   -0.399987   31.33718  0.5786E-14  0.1570E-04  0.6290E-07  0.1167E-02  0.2392E-03  0.9928E+01
   -0.449987   31.33826  0.5786E-14  0.1607E-04  0.6068E-07  0.1267E-02  0.2230E-03  0.9398E+01
   -0.499988   31.33923  0.5786E-14  0.1639E-04  0.5884E-07  0.1360E-02  0.2087E-03  0.9057E+01
   -0.549988   31.34012  0.5786E-14  0.1667E-04  0.5730E-07  0.1444E-02  0.1958E-03  0.9016E+01
   -0.599989   31.34094  0.5786E-14  0.1691E-04  0.5601E-07  0.1520E-02  0.1842E-03  0.8924E+01
   -0.649990   31.34171  0.5786E-14  0.1711E-04  0.5492E-07  0.1588E-02  0.1735E-03  0.9124E+01
   -0.699991   31.34244  0.5786E-14  0.1728E-04  0.5401E-07  0.1648E-02  0.1638E-03  0.9225E+01
   -0.749992   31.34313  0.5786E-14  0.1742E-04  0.5325E-07  0.1700E-02  0.1547E-03  0.9628E+01
   -0.799994   31.34379  0.5786E-14  0.1754E-04  0.5263E-07  0.1743E-02  0.1463E-03  0.9917E+01
   -0.849995   31.34442  0.5786E-14  0.1763E-04  0.5214E-07  0.1778E-02  0.1384E-03  0.1054E+02
   -0.899997   31.34504  0.5786E-14  0.1769E-04  0.5177E-07  0.1805E-02  0.1310E-03  0.1105E+02
   -0.949998   31.34564  0.5786E-14  0.1773E-04  0.5152E-07  0.1822E-02  0.1239E-03  0.1197E+02
   -1.000000   31.34623  0.5786E-14  0.1774E-04  0.5140E-07  0.1831E-02  0.1173E-03  0.1279E+02
   -1.050002   31.34682  0.5786E-14  0.1773E-04  0.5140E-07  0.1829E-02  0.1110E-03  0.1465E+02
   -1.100003   31.34740  0.5786E-14  0.1770E-04  0.5154E-07  0.1935E-02  0.1050E-03  0.4705E+02
   -1.150005   31.34794  0.5786E-14  0.1764E-04  0.5187E-07  0.1715E-02  0.9963E-04  0.1142E+03
   -1.200006   31.34855  0.5786E-14  0.1755E-04  0.5234E-07  0.1755E-02  0.9394E-04  0.2152E+02
   -1.250008   31.34915  0.5786E-14  0.1743E-04  0.5305E-07  0.1722E-02  0.8856E-04  0.2275E+02
   -1.300009   31.34975  0.5786E-14  0.1728E-04  0.5403E-07  0.1666E-02  0.8336E-04  0.2707E+02
   -1.350010   31.35038  0.5786E-14  0.1708E-04  0.5536E-07  0.1600E-02  0.7831E-04  0.3254E+02
   -1.400011   31.35102  0.5786E-14  0.1685E-04  0.5717E-07  0.1516E-02  0.7335E-04  0.4111E+02
   -1.450012   31.35171  0.5786E-14  0.1656E-04  0.5965E-07  0.1431E-02  0.6848E-04  0.5351E+02
   -1.500013   31.35244  0.5786E-14  0.1621E-04  0.6313E-07  0.1315E-02  0.6366E-04  0.7517E+02
   -1.550013   31.35325  0.5786E-14  0.1578E-04  0.6818E-07  0.1226E-02  0.5880E-04  0.1187E+03
   -1.600013   31.35415  0.5786E-14  0.1523E-04  0.7602E-07  0.1082E-02  0.5397E-04  0.5175E+03
   -1.650013   31.35528  0.5786E-14  0.1451E-04  0.8847E-07  0.9928E-03  0.4872E-04  0.2417E+04
   -1.700012   31.35667  0.5786E-14  0.1352E-04  0.1111E-06  0.8111E-03  0.4333E-04  0.4363E+05
   -1.750011   31.35900  0.5786E-14  0.1232E-04  0.1456E-06  0.7304E-03  0.3633E-04  0.1093E+07
   -1.800010   31.36058  0.5786E-14  0.1077E-04  0.2208E-06  0.4992E-03  0.3133E-04 -0.1235E+05
   -1.850008   31.36964  0.5786E-14  0.9156E-05  0.3659E-06  0.4742E-03  0.2184E-04  0.4794E+08
   -1.900006   31.36647  0.5786E-14  0.7315E-05  0.7597E-06  0.2177E-03  0.1802E-04 -0.1234E+07
   -1.950003   31.39079  0.5786E-14  0.5218E-05  0.1835E-05  0.2129E-03  0.9658E-05 -0.4504E+07
   -2.000000   31.39152  0.5786E-14  0.0000E+00  0.0000E+00  0.0000E+00  0.1851E-04  0.0000E+00
