 1 - depth, m
 2 - temperature, C
 3 - salinity, kg/kg
 4 - turbulent kinetic energy, m**2/s**2
 5 - dissipation rate, m**2/s**3
 6 - kinematic heat conductance, m**2/s
 7 - modulus of horizontal velocity, m/s
 8 - Richardson number, n/d
   -0.000000   31.25903  0.1184E-13  0.5312E-05  0.3514E-06  0.5250E-04  0.1003E-02  0.7055E+04
   -0.049997   31.29326  0.1184E-13  0.9184E-05  0.1560E-06  0.1889E-03  0.5710E-03  0.2841E+03
   -0.099994   31.30607  0.1184E-13  0.1114E-04  0.1074E-06  0.4225E-03  0.4193E-03  0.6796E+02
   -0.149992   31.30959  0.1184E-13  0.1237E-04  0.9022E-07  0.5028E-03  0.3713E-03  0.3384E+02
   -0.199990   31.31242  0.1184E-13  0.1332E-04  0.8013E-07  0.6752E-03  0.3321E-03  0.2186E+02
   -0.249989   31.31447  0.1184E-13  0.1408E-04  0.7353E-07  0.8052E-03  0.3029E-03  0.1636E+02
   -0.299988   31.31613  0.1184E-13  0.1470E-04  0.6883E-07  0.9370E-03  0.2786E-03  0.1300E+02
   -0.349988   31.31753  0.1184E-13  0.1521E-04  0.6532E-07  0.1055E-02  0.2578E-03  0.1122E+02
   -0.399987   31.31874  0.1184E-13  0.1564E-04  0.6259E-07  0.1164E-02  0.2394E-03  0.9936E+01
   -0.449987   31.31982  0.1184E-13  0.1601E-04  0.6037E-07  0.1264E-02  0.2232E-03  0.9411E+01
   -0.499988   31.32079  0.1184E-13  0.1633E-04  0.5854E-07  0.1356E-02  0.2088E-03  0.9068E+01
   -0.549988   31.32168  0.1184E-13  0.1660E-04  0.5701E-07  0.1440E-02  0.1959E-03  0.9033E+01
   -0.599989   31.32250  0.1184E-13  0.1684E-04  0.5572E-07  0.1516E-02  0.1843E-03  0.8940E+01
   -0.649990   31.32327  0.1184E-13  0.1704E-04  0.5464E-07  0.1584E-02  0.1736E-03  0.9148E+01
   -0.699991   31.32399  0.1184E-13  0.1721E-04  0.5373E-07  0.1643E-02  0.1638E-03  0.9246E+01
   -0.749992   31.32468  0.1184E-13  0.1735E-04  0.5298E-07  0.1695E-02  0.1547E-03  0.9661E+01
   -0.799994   31.32534  0.1184E-13  0.1746E-04  0.5236E-07  0.1738E-02  0.1463E-03  0.9944E+01
   -0.849995   31.32597  0.1184E-13  0.1755E-04  0.5187E-07  0.1772E-02  0.1384E-03  0.1059E+02
   -0.899997   31.32659  0.1184E-13  0.1761E-04  0.5151E-07  0.1799E-02  0.1310E-03  0.1109E+02
   -0.949998   31.32719  0.1184E-13  0.1765E-04  0.5126E-07  0.1816E-02  0.1239E-03  0.1203E+02
   -1.000000   31.32778  0.1184E-13  0.1767E-04  0.5114E-07  0.1824E-02  0.1173E-03  0.1284E+02
   -1.050002   31.32837  0.1184E-13  0.1766E-04  0.5115E-07  0.1821E-02  0.1109E-03  0.1472E+02
   -1.100003   31.32895  0.1184E-13  0.1762E-04  0.5129E-07  0.1929E-02  0.1049E-03  0.4723E+02
   -1.150005   31.32949  0.1184E-13  0.1756E-04  0.5162E-07  0.1705E-02  0.9957E-04  0.1146E+03
   -1.200006   31.33010  0.1184E-13  0.1747E-04  0.5210E-07  0.1747E-02  0.9386E-04  0.2165E+02
   -1.250008   31.33070  0.1184E-13  0.1735E-04  0.5281E-07  0.1714E-02  0.8848E-04  0.2282E+02
   -1.300009   31.33130  0.1184E-13  0.1719E-04  0.5379E-07  0.1657E-02  0.8326E-04  0.2722E+02
   -1.350010   31.33193  0.1184E-13  0.1700E-04  0.5513E-07  0.1592E-02  0.7821E-04  0.3254E+02
   -1.400011   31.33257  0.1184E-13  0.1676E-04  0.5695E-07  0.1505E-02  0.7324E-04  0.4132E+02
   -1.450012   31.33326  0.1184E-13  0.1647E-04  0.5944E-07  0.1423E-02  0.6836E-04  0.5308E+02
   -1.500013   31.33399  0.1184E-13  0.1611E-04  0.6294E-07  0.1302E-02  0.6353E-04  0.7549E+02
   -1.550013   31.33481  0.1184E-13  0.1568E-04  0.6797E-07  0.1219E-02  0.5865E-04  0.1124E+03
   -1.600013   31.33569  0.1184E-13  0.1513E-04  0.7604E-07  0.1069E-02  0.5385E-04  0.1287E+05
   -1.650013   31.33686  0.1184E-13  0.1440E-04  0.8863E-07  0.9836E-03  0.4847E-04  0.1677E+04
   -1.700012   31.33817  0.1184E-13  0.1342E-04  0.1107E-06  0.8024E-03  0.4315E-04 -0.1026E+06
   -1.750011   31.34059  0.1184E-13  0.1219E-04  0.1468E-06  0.7213E-03  0.3609E-04  0.8644E+06
   -1.800010   31.34230  0.1184E-13  0.1060E-04  0.2290E-06  0.4968E-03  0.3091E-04  0.5097E+06
   -1.850008   31.35119  0.1184E-13  0.8983E-05  0.3769E-06  0.4663E-03  0.2144E-04  0.7524E+09
   -1.900006   31.34812  0.1184E-13  0.7130E-05  0.7919E-06  0.2143E-03  0.1761E-04  0.5555E+04
   -1.950003   31.37280  0.1184E-13  0.5105E-05  0.1886E-05  0.2179E-03  0.9256E-05 -0.7210E+06
   -2.000000   31.37330  0.1184E-13  0.0000E+00  0.0000E+00  0.0000E+00  0.1844E-04  0.0000E+00
