 1 - depth, m
 2 - temperature, C
 3 - salinity, kg/kg
 4 - turbulent kinetic energy, m**2/s**2
 5 - dissipation rate, m**2/s**3
 6 - kinematic heat conductance, m**2/s
 7 - modulus of horizontal velocity, m/s
 8 - Richardson number, n/d
   -0.000000   22.63071  0.1370E-12  0.2536E-05  0.8187E-07  0.4944E-05  0.3322E-01  0.1616E+00
   -0.049997   22.56798  0.1370E-12  0.1863E-06  0.1081E-07  0.7416E-07  0.2677E-01  0.7872E+00
   -0.099995   21.08546  0.1389E-12  0.1405E-08  0.8073E-10  0.5004E-09  0.1242E-01  0.4578E+01
   -0.149993   18.85458  0.1497E-12  0.7054E-11  0.1007E-11  0.1000E-09  0.5442E-02  0.2029E+02
   -0.199991   16.70459  0.1524E-12  0.4419E-11  0.1000E-11  0.1000E-09  0.2378E-02  0.8373E+02
   -0.249990   14.76166  0.1528E-12  0.4419E-11  0.1000E-11  0.1000E-09  0.1035E-02  0.3223E+03
   -0.299989   13.10602  0.1529E-12  0.4419E-11  0.1000E-11  0.1000E-09  0.4443E-03  0.1118E+04
   -0.349989   11.77230  0.1529E-12  0.6456E-11  0.1000E-11  0.1000E-09  0.1775E-03  0.2827E+04
   -0.399989   10.75964  0.1529E-12  0.9708E-09  0.1176E-11  0.1047E-09  0.3957E-04  0.3460E+05
   -0.449989   10.00260  0.1529E-12  0.5356E-08  0.3736E-11  0.3593E-09  0.7317E-05  0.6587E+06
   -0.499990    9.45706  0.1529E-12  0.2222E-07  0.1462E-10  0.2357E-08  0.1323E-05  0.1227E+08
   -0.549990    9.09799  0.1529E-12  0.8645E-07  0.5488E-10  0.1476E-07  0.2335E-06  0.2485E+09
   -0.599991    8.85727  0.1529E-12  0.2922E-06  0.1818E-09  0.1439E-06  0.3918E-07  0.3970E+10
   -0.649993    8.73725  0.1529E-12  0.5428E-06  0.3407E-09  0.3510E-05  0.5292E-08  0.3730E+11
   -0.699994    8.71254  0.1529E-12  0.6448E-06  0.4075E-09  0.3130E-04  0.1316E-08  0.2673E+12
   -0.749995    8.71128  0.1529E-12  0.6990E-06  0.4452E-09  0.7691E-04  0.8625E-09  0.5386E+12
   -0.799997    8.71113  0.1529E-12  0.7470E-06  0.4819E-09  0.1280E-03  0.6496E-09  0.3494E+12
   -0.849999    8.71111  0.1529E-12  0.7919E-06  0.5200E-09  0.2519E-03  0.5051E-09  0.8168E+12
   -0.900001    8.71114  0.1529E-12  0.8259E-06  0.5517E-09  0.4211E-03  0.4132E-09  0.7226E+12
   -0.950002    8.71118  0.1529E-12  0.8561E-06  0.5822E-09  0.4155E-03  0.3632E-09  0.7912E+12
   -1.000004    8.71124  0.1529E-12  0.8893E-06  0.6178E-09  0.4159E-03  0.3182E-09  0.1218E+13
   -1.050006    8.71132  0.1529E-12  0.9251E-06  0.6589E-09  0.4176E-03  0.2780E-09  0.1825E+13
   -1.100008    8.71143  0.1529E-12  0.9629E-06  0.7052E-09  0.4199E-03  0.2421E-09  0.2550E+13
   -1.150010    8.71157  0.1529E-12  0.1001E-05  0.7552E-09  0.4416E-03  0.2103E-09 -0.9421E+12
   -1.200012    8.71172  0.1529E-12  0.1039E-05  0.8100E-09  0.4376E-03  0.1835E-09  0.1936E+13
   -1.250013    8.71191  0.1529E-12  0.1079E-05  0.8717E-09  0.4210E-03  0.1594E-09  0.3494E+13
   -1.300015    8.71213  0.1529E-12  0.1120E-05  0.9405E-09  0.4188E-03  0.1372E-09  0.2863E+13
   -1.350016    8.71238  0.1529E-12  0.1160E-05  0.1016E-08  0.4151E-03  0.1174E-09  0.1888E+13
   -1.400017    8.71266  0.1529E-12  0.1199E-05  0.1099E-08  0.4095E-03  0.1001E-09  0.5405E+12
   -1.450018    8.71299  0.1529E-12  0.1237E-05  0.1192E-08  0.4015E-03  0.8471E-10 -0.1084E+13
   -1.500019    8.71335  0.1529E-12  0.1272E-05  0.1295E-08  0.3908E-03  0.7121E-10 -0.2498E+13
   -1.550019    8.71376  0.1529E-12  0.1305E-05  0.1413E-08  0.3772E-03  0.5930E-10 -0.2688E+13
   -1.600020    8.71423  0.1529E-12  0.1334E-05  0.1549E-08  0.3602E-03  0.4887E-10 -0.1773E+13
   -1.650020    8.71476  0.1529E-12  0.1359E-05  0.1711E-08  0.3392E-03  0.3971E-10 -0.1689E+13
   -1.700019    8.71537  0.1529E-12  0.1379E-05  0.1912E-08  0.3137E-03  0.3171E-10 -0.7250E+13
   -1.750018    8.71609  0.1529E-12  0.1390E-05  0.2173E-08  0.2828E-03  0.2474E-10 -0.2462E+14
   -1.800017    8.71695  0.1529E-12  0.1391E-05  0.2542E-08  0.2455E-03  0.1871E-10 -0.5369E+14
   -1.850016    8.71803  0.1529E-12  0.1376E-05  0.3129E-08  0.1988E-03  0.1350E-10 -0.9114E+14
   -1.900014    8.71950  0.1529E-12  0.1327E-05  0.4293E-08  0.1492E-03  0.9074E-11 -0.1533E+15
   -1.950012    8.72174  0.1529E-12  0.9643E-06  0.1325E-07  0.1406E-04  0.5658E-11 -0.2067E+16
   -2.000009    8.75164  0.1529E-12  0.0000E+00  0.0000E+00  0.0000E+00  0.5668E-11  0.0000E+00
