 1 - depth, m
 2 - temperature, C
 3 - salinity, kg/kg
 4 - turbulent kinetic energy, m**2/s**2
 5 - dissipation rate, m**2/s**3
 6 - kinematic heat conductance, m**2/s
 7 - modulus of horizontal velocity, m/s
 8 - Richardson number, n/d
   -0.000000   30.39706  0.2210E-14  0.4923E-05  0.2957E-06  0.5072E-04  0.2287E-02  0.3162E+04
   -0.049997   30.42644  0.2210E-14  0.8267E-05  0.1309E-06  0.1835E-03  0.1267E-02  0.8722E+02
   -0.099994   30.43685  0.2210E-14  0.9936E-05  0.9092E-07  0.3902E-03  0.9509E-03  0.8992E+01
   -0.149992   30.44006  0.2210E-14  0.1101E-04  0.7617E-07  0.4792E-03  0.8386E-03  0.4490E+01
   -0.199991   30.44256  0.2210E-14  0.1184E-04  0.6757E-07  0.6348E-03  0.7495E-03  0.2892E+01
   -0.249989   30.44439  0.2210E-14  0.1251E-04  0.6194E-07  0.7598E-03  0.6823E-03  0.2138E+01
   -0.299988   30.44588  0.2210E-14  0.1306E-04  0.5795E-07  0.8826E-03  0.6265E-03  0.1703E+01
   -0.349988   30.44714  0.2210E-14  0.1352E-04  0.5496E-07  0.9930E-03  0.5786E-03  0.1463E+01
   -0.399988   30.44823  0.2210E-14  0.1390E-04  0.5263E-07  0.1094E-02  0.5362E-03  0.1326E+01
   -0.449988   30.44920  0.2210E-14  0.1424E-04  0.5073E-07  0.1190E-02  0.4985E-03  0.1280E+01
   -0.499988   30.45008  0.2210E-14  0.1454E-04  0.4914E-07  0.1282E-02  0.4647E-03  0.1267E+01
   -0.549989   30.45088  0.2210E-14  0.1480E-04  0.4781E-07  0.1367E-02  0.4342E-03  0.1262E+01
   -0.599989   30.45161  0.2210E-14  0.1502E-04  0.4670E-07  0.1444E-02  0.4066E-03  0.1260E+01
   -0.649991   30.45230  0.2210E-14  0.1521E-04  0.4577E-07  0.1513E-02  0.3814E-03  0.1266E+01
   -0.699992   30.45294  0.2210E-14  0.1538E-04  0.4499E-07  0.1573E-02  0.3585E-03  0.1276E+01
   -0.749993   30.45356  0.2210E-14  0.1551E-04  0.4435E-07  0.1624E-02  0.3375E-03  0.1299E+01
   -0.799995   30.45415  0.2210E-14  0.1562E-04  0.4383E-07  0.1666E-02  0.3182E-03  0.1333E+01
   -0.849996   30.45471  0.2210E-14  0.1571E-04  0.4343E-07  0.1700E-02  0.3004E-03  0.1392E+01
   -0.899998   30.45526  0.2210E-14  0.1577E-04  0.4312E-07  0.1726E-02  0.2837E-03  0.1471E+01
   -0.949999   30.45580  0.2210E-14  0.1581E-04  0.4292E-07  0.1744E-02  0.2681E-03  0.1579E+01
   -1.000001   30.45633  0.2210E-14  0.1583E-04  0.4282E-07  0.1754E-02  0.2533E-03  0.1705E+01
   -1.050003   30.45685  0.2210E-14  0.1583E-04  0.4282E-07  0.1754E-02  0.2392E-03  0.1942E+01
   -1.100005   30.45737  0.2210E-14  0.1581E-04  0.4293E-07  0.1844E-02  0.2258E-03  0.6412E+01
   -1.150006   30.45786  0.2210E-14  0.1577E-04  0.4318E-07  0.1666E-02  0.2139E-03  0.1476E+02
   -1.200008   30.45840  0.2210E-14  0.1570E-04  0.4355E-07  0.1693E-02  0.2014E-03  0.2833E+01
   -1.250009   30.45892  0.2210E-14  0.1561E-04  0.4411E-07  0.1662E-02  0.1896E-03  0.3022E+01
   -1.300011   30.45946  0.2210E-14  0.1549E-04  0.4487E-07  0.1612E-02  0.1781E-03  0.3559E+01
   -1.350012   30.46001  0.2210E-14  0.1533E-04  0.4590E-07  0.1552E-02  0.1670E-03  0.4268E+01
   -1.400013   30.46059  0.2210E-14  0.1514E-04  0.4728E-07  0.1474E-02  0.1562E-03  0.5317E+01
   -1.450014   30.46119  0.2210E-14  0.1491E-04  0.4916E-07  0.1396E-02  0.1456E-03  0.6804E+01
   -1.500014   30.46183  0.2210E-14  0.1462E-04  0.5176E-07  0.1284E-02  0.1352E-03  0.9353E+01
   -1.550015   30.46253  0.2210E-14  0.1427E-04  0.5543E-07  0.1201E-02  0.1247E-03  0.1348E+02
   -1.600015   30.46329  0.2210E-14  0.1383E-04  0.6111E-07  0.1056E-02  0.1144E-03  0.2927E+02
   -1.650014   30.46424  0.2210E-14  0.1326E-04  0.6991E-07  0.9773E-03  0.1033E-03  0.3374E+02
   -1.700014   30.46530  0.2210E-14  0.1248E-04  0.8559E-07  0.7959E-03  0.9241E-04  0.2002E+04
   -1.750013   30.46722  0.2210E-14  0.1144E-04  0.1113E-06  0.7178E-03  0.7801E-04 -0.3231E+04
   -1.800012   30.46881  0.2210E-14  0.1007E-04  0.1647E-06  0.5012E-03  0.6677E-04  0.2415E+05
   -1.850010   30.47532  0.2210E-14  0.8533E-05  0.2664E-06  0.4605E-03  0.4752E-04  0.4516E+08
   -1.900008   30.47394  0.2210E-14  0.6771E-05  0.5630E-06  0.2112E-03  0.3857E-04 -0.6351E+06
   -1.950005   30.49383  0.2210E-14  0.4751E-05  0.1399E-05  0.1893E-03  0.2066E-04 -0.8291E+06
   -2.000002   30.49615  0.2210E-14  0.0000E+00  0.0000E+00  0.0000E+00  0.3848E-04  0.0000E+00
