 1 - depth, m
 2 - temperature, C
 3 - salinity, kg/kg
 4 - turbulent kinetic energy, m**2/s**2
 5 - dissipation rate, m**2/s**3
 6 - kinematic heat conductance, m**2/s
 7 - modulus of horizontal velocity, m/s
 8 - Richardson number, n/d
   -0.000000   30.59559  0.1544E-14  0.4728E-05  0.2925E-06  0.4915E-04  0.8676E-03  0.1109E+04
   -0.049997   30.62605  0.1544E-14  0.8256E-05  0.1298E-06  0.1822E-03  0.4874E-03  0.2535E+03
   -0.099994   30.63729  0.1545E-14  0.1001E-04  0.8987E-07  0.4066E-03  0.3575E-03  0.6035E+02
   -0.149992   30.64039  0.1545E-14  0.1111E-04  0.7571E-07  0.4878E-03  0.3162E-03  0.2969E+02
   -0.199991   30.64288  0.1545E-14  0.1197E-04  0.6738E-07  0.6510E-03  0.2826E-03  0.1917E+02
   -0.249989   30.64469  0.1545E-14  0.1266E-04  0.6193E-07  0.7768E-03  0.2574E-03  0.1422E+02
   -0.299988   30.64616  0.1545E-14  0.1322E-04  0.5804E-07  0.9029E-03  0.2365E-03  0.1135E+02
   -0.349988   30.64740  0.1545E-14  0.1369E-04  0.5513E-07  0.1017E-02  0.2185E-03  0.9732E+01
   -0.399988   30.64848  0.1545E-14  0.1408E-04  0.5287E-07  0.1121E-02  0.2026E-03  0.8683E+01
   -0.449988   30.64944  0.1545E-14  0.1442E-04  0.5104E-07  0.1218E-02  0.1886E-03  0.8156E+01
   -0.499988   30.65030  0.1545E-14  0.1472E-04  0.4953E-07  0.1307E-02  0.1762E-03  0.7933E+01
   -0.549989   30.65109  0.1545E-14  0.1498E-04  0.4827E-07  0.1388E-02  0.1651E-03  0.7830E+01
   -0.599989   30.65183  0.1545E-14  0.1520E-04  0.4721E-07  0.1462E-02  0.1551E-03  0.7833E+01
   -0.649990   30.65251  0.1545E-14  0.1539E-04  0.4633E-07  0.1529E-02  0.1459E-03  0.7934E+01
   -0.699992   30.65316  0.1545E-14  0.1556E-04  0.4559E-07  0.1587E-02  0.1375E-03  0.8114E+01
   -0.749993   30.65377  0.1545E-14  0.1570E-04  0.4497E-07  0.1638E-02  0.1297E-03  0.8386E+01
   -0.799994   30.65436  0.1545E-14  0.1582E-04  0.4447E-07  0.1682E-02  0.1225E-03  0.8738E+01
   -0.849996   30.65493  0.1545E-14  0.1591E-04  0.4408E-07  0.1718E-02  0.1157E-03  0.9194E+01
   -0.899998   30.65548  0.1545E-14  0.1598E-04  0.4379E-07  0.1745E-02  0.1093E-03  0.9749E+01
   -0.949999   30.65602  0.1545E-14  0.1603E-04  0.4359E-07  0.1764E-02  0.1033E-03  0.1044E+02
   -1.000001   30.65655  0.1545E-14  0.1606E-04  0.4350E-07  0.1776E-02  0.9767E-04  0.1128E+02
   -1.050003   30.65707  0.1545E-14  0.1607E-04  0.4351E-07  0.1777E-02  0.9229E-04  0.1279E+02
   -1.100005   30.65759  0.1545E-14  0.1606E-04  0.4363E-07  0.1862E-02  0.8715E-04  0.4261E+02
   -1.150006   30.65808  0.1545E-14  0.1602E-04  0.4389E-07  0.1698E-02  0.8257E-04  0.9506E+02
   -1.200008   30.65861  0.1545E-14  0.1596E-04  0.4428E-07  0.1721E-02  0.7781E-04  0.1842E+02
   -1.250009   30.65914  0.1545E-14  0.1588E-04  0.4484E-07  0.1691E-02  0.7327E-04  0.1968E+02
   -1.300011   30.65968  0.1545E-14  0.1576E-04  0.4561E-07  0.1643E-02  0.6889E-04  0.2301E+02
   -1.350012   30.66023  0.1545E-14  0.1562E-04  0.4664E-07  0.1584E-02  0.6464E-04  0.2752E+02
   -1.400013   30.66080  0.1545E-14  0.1544E-04  0.4802E-07  0.1508E-02  0.6050E-04  0.3394E+02
   -1.450014   30.66140  0.1545E-14  0.1522E-04  0.4988E-07  0.1432E-02  0.5643E-04  0.4317E+02
   -1.500014   30.66203  0.1545E-14  0.1495E-04  0.5244E-07  0.1320E-02  0.5244E-04  0.5852E+02
   -1.550015   30.66273  0.1545E-14  0.1461E-04  0.5602E-07  0.1238E-02  0.4842E-04  0.8360E+02
   -1.600015   30.66348  0.1545E-14  0.1419E-04  0.6151E-07  0.1091E-02  0.4450E-04  0.1686E+03
   -1.650014   30.66441  0.1545E-14  0.1365E-04  0.6986E-07  0.1014E-02  0.4026E-04  0.2432E+03
   -1.700014   30.66542  0.1545E-14  0.1291E-04  0.8469E-07  0.8276E-03  0.3620E-04 -0.5994E+04
   -1.750013   30.66725  0.1545E-14  0.1192E-04  0.1091E-06  0.7492E-03  0.3073E-04  0.6960E+06
   -1.800012   30.66872  0.1545E-14  0.1061E-04  0.1602E-06  0.5326E-03  0.2651E-04  0.1744E+05
   -1.850010   30.67468  0.1545E-14  0.9115E-05  0.2565E-06  0.4797E-03  0.1929E-04  0.1670E+08
   -1.900008   30.67379  0.1545E-14  0.7270E-05  0.5341E-06  0.2249E-03  0.1570E-04 -0.2207E+06
   -1.950005   30.69263  0.1545E-14  0.5064E-05  0.1336E-05  0.1838E-03  0.8662E-05 -0.1826E+07
   -2.000002   30.69572  0.1545E-14  0.0000E+00  0.0000E+00  0.0000E+00  0.1526E-04  0.0000E+00
