 1 - depth, m
 2 - temperature, C
 3 - salinity, kg/kg
 4 - turbulent kinetic energy, m**2/s**2
 5 - dissipation rate, m**2/s**3
 6 - kinematic heat conductance, m**2/s
 7 - modulus of horizontal velocity, m/s
 8 - Richardson number, n/d
   -0.000000   30.55681  0.9166E-14  0.5000E-05  0.3136E-06  0.4926E-04  0.1255E-02  0.4510E+04
   -0.049997   30.59025  0.9166E-14  0.8608E-05  0.1396E-06  0.1873E-03  0.7032E-03  0.1471E+05
   -0.099994   30.60199  0.9166E-14  0.1040E-04  0.9696E-07  0.4016E-03  0.5229E-03  0.3155E+02
   -0.149992   30.60543  0.9166E-14  0.1153E-04  0.8141E-07  0.4891E-03  0.4620E-03  0.1560E+02
   -0.199991   30.60813  0.9166E-14  0.1241E-04  0.7226E-07  0.6504E-03  0.4131E-03  0.9998E+01
   -0.249989   30.61010  0.9166E-14  0.1310E-04  0.6625E-07  0.7762E-03  0.3764E-03  0.7381E+01
   -0.299988   30.61169  0.9166E-14  0.1367E-04  0.6195E-07  0.9022E-03  0.3458E-03  0.5868E+01
   -0.349988   30.61303  0.9166E-14  0.1413E-04  0.5871E-07  0.1016E-02  0.3195E-03  0.5009E+01
   -0.399988   30.61419  0.9166E-14  0.1452E-04  0.5618E-07  0.1120E-02  0.2963E-03  0.4462E+01
   -0.449988   30.61522  0.9166E-14  0.1485E-04  0.5412E-07  0.1216E-02  0.2759E-03  0.4180E+01
   -0.499988   30.61614  0.9166E-14  0.1514E-04  0.5240E-07  0.1305E-02  0.2578E-03  0.4067E+01
   -0.549989   30.61699  0.9166E-14  0.1538E-04  0.5095E-07  0.1385E-02  0.2416E-03  0.4003E+01
   -0.599989   30.61777  0.9166E-14  0.1559E-04  0.4972E-07  0.1459E-02  0.2269E-03  0.4003E+01
   -0.649990   30.61850  0.9166E-14  0.1577E-04  0.4868E-07  0.1524E-02  0.2135E-03  0.4041E+01
   -0.699992   30.61918  0.9166E-14  0.1591E-04  0.4778E-07  0.1582E-02  0.2012E-03  0.4129E+01
   -0.749993   30.61983  0.9166E-14  0.1603E-04  0.4702E-07  0.1632E-02  0.1898E-03  0.4251E+01
   -0.799994   30.62045  0.9166E-14  0.1612E-04  0.4638E-07  0.1674E-02  0.1792E-03  0.4424E+01
   -0.849996   30.62105  0.9166E-14  0.1619E-04  0.4584E-07  0.1709E-02  0.1693E-03  0.4635E+01
   -0.899998   30.62162  0.9166E-14  0.1623E-04  0.4542E-07  0.1735E-02  0.1600E-03  0.4909E+01
   -0.949999   30.62218  0.9166E-14  0.1626E-04  0.4510E-07  0.1753E-02  0.1513E-03  0.5234E+01
   -1.000001   30.62273  0.9166E-14  0.1626E-04  0.4488E-07  0.1763E-02  0.1430E-03  0.5645E+01
   -1.050003   30.62327  0.9166E-14  0.1623E-04  0.4476E-07  0.1763E-02  0.1351E-03  0.6365E+01
   -1.100004   30.62380  0.9166E-14  0.1619E-04  0.4477E-07  0.1858E-02  0.1276E-03  0.2094E+02
   -1.150006   30.62429  0.9166E-14  0.1612E-04  0.4491E-07  0.1666E-02  0.1209E-03  0.4838E+02
   -1.200008   30.62485  0.9166E-14  0.1602E-04  0.4519E-07  0.1699E-02  0.1139E-03  0.9173E+01
   -1.250009   30.62538  0.9166E-14  0.1590E-04  0.4565E-07  0.1668E-02  0.1072E-03  0.9746E+01
   -1.300011   30.62592  0.9166E-14  0.1575E-04  0.4632E-07  0.1617E-02  0.1008E-03  0.1137E+02
   -1.350012   30.62647  0.9166E-14  0.1557E-04  0.4726E-07  0.1555E-02  0.9457E-04  0.1362E+02
   -1.400013   30.62704  0.9166E-14  0.1535E-04  0.4858E-07  0.1476E-02  0.8850E-04  0.1680E+02
   -1.450014   30.62764  0.9166E-14  0.1508E-04  0.5040E-07  0.1395E-02  0.8251E-04  0.2148E+02
   -1.500014   30.62827  0.9166E-14  0.1476E-04  0.5296E-07  0.1282E-02  0.7664E-04  0.2916E+02
   -1.550014   30.62896  0.9166E-14  0.1437E-04  0.5665E-07  0.1195E-02  0.7072E-04  0.4213E+02
   -1.600015   30.62970  0.9166E-14  0.1389E-04  0.6239E-07  0.1052E-02  0.6490E-04  0.8150E+02
   -1.650014   30.63061  0.9166E-14  0.1327E-04  0.7150E-07  0.9700E-03  0.5864E-04  0.5076E+03
   -1.700014   30.63168  0.9166E-14  0.1242E-04  0.8772E-07  0.7933E-03  0.5235E-04  0.3496E+05
   -1.750013   30.63350  0.9166E-14  0.1132E-04  0.1143E-06  0.7100E-03  0.4415E-04  0.5852E+06
   -1.800012   30.63509  0.9166E-14  0.9831E-05  0.1720E-06  0.4893E-03  0.3765E-04  0.4470E+05
   -1.850010   30.64152  0.9166E-14  0.8233E-05  0.2789E-06  0.4538E-03  0.2631E-04  0.3370E+09
   -1.900008   30.64001  0.9166E-14  0.6432E-05  0.5847E-06  0.2021E-03  0.2138E-04  0.2096E+07
   -1.950005   30.65955  0.9166E-14  0.4549E-05  0.1449E-05  0.1992E-03  0.1112E-04 -0.3274E+06
   -2.000002   30.66006  0.9166E-14  0.0000E+00  0.0000E+00  0.0000E+00  0.2197E-04  0.0000E+00
