 1 - depth, m
 2 - temperature, C
 3 - salinity, kg/kg
 4 - turbulent kinetic energy, m**2/s**2
 5 - dissipation rate, m**2/s**3
 6 - kinematic heat conductance, m**2/s
 7 - modulus of horizontal velocity, m/s
 8 - Richardson number, n/d
   -0.000000   30.51395  0.3149E-14  0.4678E-05  0.2899E-06  0.4995E-04  0.7261E-03  0.2307E+05
   -0.049997   30.54381  0.3149E-14  0.8196E-05  0.1285E-06  0.1769E-03  0.4147E-03  0.5152E+02
   -0.099994   30.55541  0.3149E-14  0.9952E-05  0.8844E-07  0.4113E-03  0.2995E-03  0.9727E+02
   -0.149992   30.55847  0.3149E-14  0.1104E-04  0.7463E-07  0.4849E-03  0.2653E-03  0.4767E+02
   -0.199991   30.56096  0.3149E-14  0.1188E-04  0.6647E-07  0.6488E-03  0.2370E-03  0.3103E+02
   -0.249989   30.56277  0.3149E-14  0.1256E-04  0.6109E-07  0.7741E-03  0.2158E-03  0.2314E+02
   -0.299988   30.56425  0.3149E-14  0.1310E-04  0.5725E-07  0.8988E-03  0.1982E-03  0.1845E+02
   -0.349988   30.56549  0.3149E-14  0.1356E-04  0.5436E-07  0.1012E-02  0.1831E-03  0.1587E+02
   -0.399988   30.56656  0.3149E-14  0.1395E-04  0.5211E-07  0.1115E-02  0.1697E-03  0.1411E+02
   -0.449988   30.56752  0.3149E-14  0.1428E-04  0.5028E-07  0.1211E-02  0.1580E-03  0.1332E+02
   -0.499988   30.56838  0.3149E-14  0.1456E-04  0.4876E-07  0.1299E-02  0.1475E-03  0.1290E+02
   -0.549989   30.56917  0.3149E-14  0.1481E-04  0.4749E-07  0.1380E-02  0.1382E-03  0.1280E+02
   -0.599990   30.56990  0.3149E-14  0.1503E-04  0.4642E-07  0.1453E-02  0.1298E-03  0.1273E+02
   -0.649991   30.57058  0.3149E-14  0.1521E-04  0.4552E-07  0.1519E-02  0.1220E-03  0.1296E+02
   -0.699992   30.57122  0.3149E-14  0.1537E-04  0.4475E-07  0.1577E-02  0.1150E-03  0.1317E+02
   -0.749993   30.57183  0.3149E-14  0.1550E-04  0.4412E-07  0.1628E-02  0.1084E-03  0.1368E+02
   -0.799995   30.57242  0.3149E-14  0.1561E-04  0.4359E-07  0.1671E-02  0.1023E-03  0.1414E+02
   -0.849996   30.57298  0.3149E-14  0.1569E-04  0.4316E-07  0.1707E-02  0.9662E-04  0.1495E+02
   -0.899998   30.57352  0.3149E-14  0.1576E-04  0.4283E-07  0.1734E-02  0.9129E-04  0.1572E+02
   -0.950000   30.57406  0.3149E-14  0.1580E-04  0.4260E-07  0.1754E-02  0.8625E-04  0.1692E+02
   -1.000001   30.57458  0.3149E-14  0.1582E-04  0.4247E-07  0.1765E-02  0.8149E-04  0.1810E+02
   -1.050003   30.57509  0.3149E-14  0.1582E-04  0.4243E-07  0.1767E-02  0.7697E-04  0.2060E+02
   -1.100005   30.57560  0.3149E-14  0.1580E-04  0.4250E-07  0.1851E-02  0.7266E-04  0.6810E+02
   -1.150006   30.57608  0.3149E-14  0.1576E-04  0.4270E-07  0.1689E-02  0.6881E-04  0.1509E+03
   -1.200008   30.57660  0.3149E-14  0.1569E-04  0.4303E-07  0.1713E-02  0.6483E-04  0.2941E+02
   -1.250009   30.57712  0.3149E-14  0.1560E-04  0.4351E-07  0.1683E-02  0.6103E-04  0.3107E+02
   -1.300011   30.57764  0.3149E-14  0.1548E-04  0.4420E-07  0.1635E-02  0.5735E-04  0.3640E+02
   -1.350012   30.57817  0.3149E-14  0.1534E-04  0.4513E-07  0.1578E-02  0.5380E-04  0.4302E+02
   -1.400013   30.57872  0.3149E-14  0.1515E-04  0.4638E-07  0.1503E-02  0.5033E-04  0.5302E+02
   -1.450014   30.57930  0.3149E-14  0.1493E-04  0.4809E-07  0.1426E-02  0.4694E-04  0.6650E+02
   -1.500014   30.57991  0.3149E-14  0.1466E-04  0.5043E-07  0.1317E-02  0.4361E-04  0.8943E+02
   -1.550015   30.58057  0.3149E-14  0.1433E-04  0.5373E-07  0.1232E-02  0.4027E-04  0.1244E+03
   -1.600015   30.58129  0.3149E-14  0.1392E-04  0.5873E-07  0.1089E-02  0.3699E-04  0.2257E+03
   -1.650015   30.58215  0.3149E-14  0.1339E-04  0.6641E-07  0.1008E-02  0.3350E-04  0.6485E+05
   -1.700014   30.58311  0.3149E-14  0.1267E-04  0.8001E-07  0.8265E-03  0.3010E-04  0.2438E+05
   -1.750013   30.58474  0.3149E-14  0.1171E-04  0.1024E-06  0.7464E-03  0.2568E-04  0.3265E+06
   -1.800012   30.58618  0.3149E-14  0.1040E-04  0.1507E-06  0.5287E-03  0.2214E-04  0.1192E+06
   -1.850010   30.59153  0.3149E-14  0.8873E-05  0.2402E-06  0.4754E-03  0.1612E-04  0.1893E+08
   -1.900008   30.59111  0.3149E-14  0.6996E-05  0.5018E-06  0.2178E-03  0.1303E-04  0.2300E+06
   -1.950006   30.60838  0.3149E-14  0.4864E-05  0.1269E-05  0.1812E-03  0.7091E-05 -0.6554E+07
   -2.000003   30.61160  0.3149E-14  0.0000E+00  0.0000E+00  0.0000E+00  0.1260E-04  0.0000E+00
