 1 - depth, m
 2 - temperature, C
 3 - salinity, kg/kg
 4 - turbulent kinetic energy, m**2/s**2
 5 - dissipation rate, m**2/s**3
 6 - kinematic heat conductance, m**2/s
 7 - modulus of horizontal velocity, m/s
 8 - Richardson number, n/d
   -0.000000   30.48095  0.3928E-13  0.4929E-05  0.3061E-06  0.4897E-04  0.1259E-02  0.4656E+04
   -0.049997   30.51394  0.3928E-13  0.8485E-05  0.1364E-06  0.1855E-03  0.7054E-03  0.4855E+02
   -0.099994   30.52555  0.3928E-13  0.1025E-04  0.9476E-07  0.3988E-03  0.5243E-03  0.3137E+02
   -0.149992   30.52895  0.3928E-13  0.1136E-04  0.7957E-07  0.4857E-03  0.4630E-03  0.1548E+02
   -0.199991   30.53162  0.3928E-13  0.1222E-04  0.7064E-07  0.6454E-03  0.4139E-03  0.9928E+01
   -0.249989   30.53357  0.3928E-13  0.1291E-04  0.6476E-07  0.7705E-03  0.3770E-03  0.7325E+01
   -0.299988   30.53515  0.3928E-13  0.1346E-04  0.6054E-07  0.8953E-03  0.3462E-03  0.5823E+01
   -0.349988   30.53647  0.3928E-13  0.1391E-04  0.5737E-07  0.1008E-02  0.3199E-03  0.4970E+01
   -0.399988   30.53761  0.3928E-13  0.1430E-04  0.5489E-07  0.1111E-02  0.2965E-03  0.4426E+01
   -0.449988   30.53862  0.3928E-13  0.1462E-04  0.5286E-07  0.1207E-02  0.2760E-03  0.4148E+01
   -0.499988   30.53954  0.3928E-13  0.1490E-04  0.5118E-07  0.1294E-02  0.2578E-03  0.4035E+01
   -0.549989   30.54037  0.3928E-13  0.1514E-04  0.4976E-07  0.1375E-02  0.2415E-03  0.3972E+01
   -0.599989   30.54114  0.3928E-13  0.1534E-04  0.4855E-07  0.1447E-02  0.2268E-03  0.3972E+01
   -0.649990   30.54186  0.3928E-13  0.1551E-04  0.4751E-07  0.1512E-02  0.2133E-03  0.4009E+01
   -0.699992   30.54253  0.3928E-13  0.1566E-04  0.4663E-07  0.1570E-02  0.2010E-03  0.4097E+01
   -0.749993   30.54317  0.3928E-13  0.1577E-04  0.4588E-07  0.1620E-02  0.1896E-03  0.4218E+01
   -0.799995   30.54378  0.3928E-13  0.1586E-04  0.4524E-07  0.1662E-02  0.1789E-03  0.4390E+01
   -0.849996   30.54437  0.3928E-13  0.1593E-04  0.4472E-07  0.1696E-02  0.1690E-03  0.4600E+01
   -0.899998   30.54494  0.3928E-13  0.1597E-04  0.4429E-07  0.1723E-02  0.1597E-03  0.4872E+01
   -0.949999   30.54549  0.3928E-13  0.1599E-04  0.4397E-07  0.1741E-02  0.1509E-03  0.5196E+01
   -1.000001   30.54603  0.3928E-13  0.1599E-04  0.4374E-07  0.1751E-02  0.1426E-03  0.5603E+01
   -1.050003   30.54655  0.3928E-13  0.1597E-04  0.4362E-07  0.1751E-02  0.1347E-03  0.6320E+01
   -1.100005   30.54708  0.3928E-13  0.1592E-04  0.4362E-07  0.1844E-02  0.1271E-03  0.2081E+02
   -1.150006   30.54757  0.3928E-13  0.1586E-04  0.4375E-07  0.1657E-02  0.1204E-03  0.4794E+02
   -1.200008   30.54811  0.3928E-13  0.1576E-04  0.4400E-07  0.1689E-02  0.1134E-03  0.9106E+01
   -1.250009   30.54863  0.3928E-13  0.1565E-04  0.4443E-07  0.1658E-02  0.1068E-03  0.9669E+01
   -1.300011   30.54916  0.3928E-13  0.1550E-04  0.4507E-07  0.1608E-02  0.1003E-03  0.1128E+02
   -1.350012   30.54970  0.3928E-13  0.1532E-04  0.4596E-07  0.1547E-02  0.9410E-04  0.1350E+02
   -1.400013   30.55026  0.3928E-13  0.1510E-04  0.4721E-07  0.1469E-02  0.8803E-04  0.1665E+02
   -1.450014   30.55084  0.3928E-13  0.1484E-04  0.4894E-07  0.1389E-02  0.8206E-04  0.2123E+02
   -1.500014   30.55146  0.3928E-13  0.1453E-04  0.5137E-07  0.1276E-02  0.7619E-04  0.2880E+02
   -1.550015   30.55213  0.3928E-13  0.1415E-04  0.5486E-07  0.1189E-02  0.7030E-04  0.4110E+02
   -1.600015   30.55286  0.3928E-13  0.1369E-04  0.6024E-07  0.1046E-02  0.6450E-04  0.7524E+02
   -1.650014   30.55374  0.3928E-13  0.1309E-04  0.6872E-07  0.9654E-03  0.5832E-04  0.2196E+03
   -1.700014   30.55474  0.3928E-13  0.1228E-04  0.8409E-07  0.7878E-03  0.5217E-04  0.6767E+04
   -1.750013   30.55652  0.3928E-13  0.1119E-04  0.1096E-06  0.7045E-03  0.4405E-04  0.5872E+05
   -1.800012   30.55807  0.3928E-13  0.9720E-05  0.1648E-06  0.4857E-03  0.3754E-04  0.1898E+06
   -1.850010   30.56428  0.3928E-13  0.8126E-05  0.2659E-06  0.4448E-03  0.2636E-04  0.1719E+08
   -1.900008   30.56289  0.3928E-13  0.6336E-05  0.5581E-06  0.2013E-03  0.2132E-04  0.7768E+06
   -1.950005   30.58195  0.3928E-13  0.4478E-05  0.1380E-05  0.1969E-03  0.1109E-04 -0.2584E+07
   -2.000002   30.58188  0.3928E-13  0.0000E+00  0.0000E+00  0.0000E+00  0.2172E-04  0.0000E+00
