 1 - depth, m
 2 - temperature, C
 3 - salinity, kg/kg
 4 - turbulent kinetic energy, m**2/s**2
 5 - dissipation rate, m**2/s**3
 6 - kinematic heat conductance, m**2/s
 7 - modulus of horizontal velocity, m/s
 8 - Richardson number, n/d
   -0.000000   30.54711  0.3979E-14  0.4809E-05  0.2986E-06  0.4946E-04  0.1032E-02  0.5271E+04
   -0.049997   30.57831  0.3979E-14  0.8347E-05  0.1328E-06  0.1823E-03  0.5826E-03  0.4742E+04
   -0.099994   30.58978  0.3979E-14  0.1011E-04  0.9192E-07  0.4042E-03  0.4292E-03  0.5060E+02
   -0.149992   30.59299  0.3979E-14  0.1122E-04  0.7733E-07  0.4864E-03  0.3795E-03  0.2483E+02
   -0.199991   30.59556  0.3979E-14  0.1208E-04  0.6876E-07  0.6488E-03  0.3392E-03  0.1604E+02
   -0.249989   30.59742  0.3979E-14  0.1277E-04  0.6313E-07  0.7745E-03  0.3091E-03  0.1186E+02
   -0.299988   30.59894  0.3979E-14  0.1333E-04  0.5911E-07  0.9001E-03  0.2839E-03  0.9467E+01
   -0.349988   30.60022  0.3979E-14  0.1379E-04  0.5609E-07  0.1014E-02  0.2624E-03  0.8084E+01
   -0.399988   30.60132  0.3979E-14  0.1418E-04  0.5374E-07  0.1118E-02  0.2433E-03  0.7221E+01
   -0.449988   30.60230  0.3979E-14  0.1451E-04  0.5183E-07  0.1214E-02  0.2265E-03  0.6759E+01
   -0.499988   30.60319  0.3979E-14  0.1480E-04  0.5024E-07  0.1303E-02  0.2116E-03  0.6592E+01
   -0.549989   30.60400  0.3979E-14  0.1505E-04  0.4892E-07  0.1384E-02  0.1983E-03  0.6479E+01
   -0.599990   30.60475  0.3979E-14  0.1527E-04  0.4780E-07  0.1457E-02  0.1863E-03  0.6501E+01
   -0.649991   30.60545  0.3979E-14  0.1545E-04  0.4685E-07  0.1523E-02  0.1753E-03  0.6553E+01
   -0.699992   30.60611  0.3979E-14  0.1561E-04  0.4605E-07  0.1581E-02  0.1652E-03  0.6722E+01
   -0.749993   30.60673  0.3979E-14  0.1574E-04  0.4538E-07  0.1632E-02  0.1558E-03  0.6910E+01
   -0.799995   30.60733  0.3979E-14  0.1585E-04  0.4482E-07  0.1675E-02  0.1471E-03  0.7223E+01
   -0.849996   30.60791  0.3979E-14  0.1593E-04  0.4437E-07  0.1710E-02  0.1390E-03  0.7558E+01
   -0.899998   30.60846  0.3979E-14  0.1599E-04  0.4402E-07  0.1737E-02  0.1314E-03  0.8040E+01
   -0.950000   30.60901  0.3979E-14  0.1603E-04  0.4377E-07  0.1756E-02  0.1242E-03  0.8563E+01
   -1.000001   30.60954  0.3979E-14  0.1604E-04  0.4362E-07  0.1767E-02  0.1174E-03  0.9277E+01
   -1.050003   30.61006  0.3979E-14  0.1604E-04  0.4357E-07  0.1768E-02  0.1109E-03  0.1046E+02
   -1.100005   30.61058  0.3979E-14  0.1601E-04  0.4364E-07  0.1856E-02  0.1048E-03  0.3472E+02
   -1.150006   30.61108  0.3979E-14  0.1596E-04  0.4384E-07  0.1683E-02  0.9925E-04  0.7928E+02
   -1.200008   30.61161  0.3979E-14  0.1589E-04  0.4417E-07  0.1710E-02  0.9354E-04  0.1511E+02
   -1.250009   30.61214  0.3979E-14  0.1579E-04  0.4467E-07  0.1680E-02  0.8806E-04  0.1615E+02
   -1.300011   30.61267  0.3979E-14  0.1566E-04  0.4538E-07  0.1630E-02  0.8281E-04  0.1883E+02
   -1.350012   30.61322  0.3979E-14  0.1550E-04  0.4635E-07  0.1571E-02  0.7770E-04  0.2265E+02
   -1.400013   30.61378  0.3979E-14  0.1531E-04  0.4767E-07  0.1494E-02  0.7273E-04  0.2793E+02
   -1.450014   30.61438  0.3979E-14  0.1507E-04  0.4946E-07  0.1416E-02  0.6784E-04  0.3581E+02
   -1.500014   30.61500  0.3979E-14  0.1478E-04  0.5196E-07  0.1305E-02  0.6305E-04  0.4879E+02
   -1.550015   30.61569  0.3979E-14  0.1443E-04  0.5550E-07  0.1220E-02  0.5821E-04  0.7059E+02
   -1.600015   30.61643  0.3979E-14  0.1399E-04  0.6097E-07  0.1077E-02  0.5350E-04  0.1439E+03
   -1.650015   30.61734  0.3979E-14  0.1342E-04  0.6942E-07  0.9944E-03  0.4840E-04  0.1703E+05
   -1.700014   30.61836  0.3979E-14  0.1265E-04  0.8449E-07  0.8137E-03  0.4344E-04  0.1134E+04
   -1.750013   30.62016  0.3979E-14  0.1163E-04  0.1093E-06  0.7368E-03  0.3690E-04  0.1317E+06
   -1.800012   30.62166  0.3979E-14  0.1026E-04  0.1625E-06  0.5120E-03  0.3171E-04  0.1473E+06
   -1.850010   30.62772  0.3979E-14  0.8738E-05  0.2610E-06  0.4721E-03  0.2294E-04  0.8241E+07
   -1.900008   30.62655  0.3979E-14  0.6924E-05  0.5443E-06  0.2143E-03  0.1865E-04  0.1932E+05
   -1.950006   30.64525  0.3979E-14  0.4828E-05  0.1358E-05  0.1888E-03  0.1009E-04 -0.7351E+06
   -2.000002   30.64737  0.3979E-14  0.0000E+00  0.0000E+00  0.0000E+00  0.1830E-04  0.0000E+00
