 1 - depth, m
 2 - temperature, C
 3 - salinity, kg/kg
 4 - turbulent kinetic energy, m**2/s**2
 5 - dissipation rate, m**2/s**3
 6 - kinematic heat conductance, m**2/s
 7 - modulus of horizontal velocity, m/s
 8 - Richardson number, n/d
   -0.000000   29.79151  0.1804E-13  0.4540E-05  0.2715E-06  0.4900E-04  0.1674E-02  0.3379E+04
   -0.049997   29.81992  0.1804E-13  0.7760E-05  0.1210E-06  0.1715E-03  0.9545E-03  0.3414E+04
   -0.099994   29.83092  0.1804E-13  0.9412E-05  0.8322E-07  0.3885E-03  0.6966E-03  0.1655E+02
   -0.149992   29.83397  0.1804E-13  0.1044E-04  0.6988E-07  0.4680E-03  0.6145E-03  0.8037E+01
   -0.199991   29.83640  0.1804E-13  0.1125E-04  0.6206E-07  0.6240E-03  0.5481E-03  0.5169E+01
   -0.249989   29.83817  0.1804E-13  0.1189E-04  0.5694E-07  0.7464E-03  0.4984E-03  0.3811E+01
   -0.299989   29.83961  0.1804E-13  0.1241E-04  0.5328E-07  0.8676E-03  0.4570E-03  0.3032E+01
   -0.349988   29.84081  0.1804E-13  0.1284E-04  0.5054E-07  0.9777E-03  0.4215E-03  0.2593E+01
   -0.399988   29.84186  0.1804E-13  0.1321E-04  0.4840E-07  0.1079E-02  0.3902E-03  0.2312E+01
   -0.449988   29.84279  0.1804E-13  0.1352E-04  0.4667E-07  0.1172E-02  0.3627E-03  0.2172E+01
   -0.499988   29.84363  0.1804E-13  0.1380E-04  0.4524E-07  0.1258E-02  0.3383E-03  0.2114E+01
   -0.549989   29.84440  0.1804E-13  0.1403E-04  0.4404E-07  0.1337E-02  0.3165E-03  0.2088E+01
   -0.599990   29.84511  0.1804E-13  0.1424E-04  0.4302E-07  0.1409E-02  0.2968E-03  0.2090E+01
   -0.649991   29.84577  0.1804E-13  0.1441E-04  0.4217E-07  0.1473E-02  0.2789E-03  0.2118E+01
   -0.699992   29.84639  0.1804E-13  0.1456E-04  0.4145E-07  0.1531E-02  0.2624E-03  0.2167E+01
   -0.749993   29.84699  0.1804E-13  0.1469E-04  0.4084E-07  0.1580E-02  0.2472E-03  0.2239E+01
   -0.799995   29.84755  0.1804E-13  0.1479E-04  0.4034E-07  0.1623E-02  0.2331E-03  0.2334E+01
   -0.849996   29.84810  0.1804E-13  0.1487E-04  0.3994E-07  0.1658E-02  0.2199E-03  0.2455E+01
   -0.899998   29.84863  0.1804E-13  0.1493E-04  0.3962E-07  0.1685E-02  0.2075E-03  0.2604E+01
   -0.950000   29.84914  0.1804E-13  0.1497E-04  0.3940E-07  0.1705E-02  0.1959E-03  0.2786E+01
   -1.000002   29.84965  0.1804E-13  0.1499E-04  0.3926E-07  0.1717E-02  0.1849E-03  0.3009E+01
   -1.050003   29.85014  0.1804E-13  0.1499E-04  0.3922E-07  0.1719E-02  0.1745E-03  0.3410E+01
   -1.100005   29.85064  0.1804E-13  0.1498E-04  0.3928E-07  0.1797E-02  0.1645E-03  0.1139E+02
   -1.150007   29.85110  0.1804E-13  0.1494E-04  0.3945E-07  0.1650E-02  0.1557E-03  0.2528E+02
   -1.200008   29.85161  0.1804E-13  0.1488E-04  0.3974E-07  0.1668E-02  0.1465E-03  0.4899E+01
   -1.250010   29.85211  0.1804E-13  0.1479E-04  0.4017E-07  0.1640E-02  0.1378E-03  0.5221E+01
   -1.300011   29.85261  0.1804E-13  0.1468E-04  0.4079E-07  0.1594E-02  0.1294E-03  0.6089E+01
   -1.350012   29.85313  0.1804E-13  0.1454E-04  0.4163E-07  0.1538E-02  0.1212E-03  0.7265E+01
   -1.400013   29.85366  0.1804E-13  0.1437E-04  0.4277E-07  0.1465E-02  0.1133E-03  0.8921E+01
   -1.450014   29.85422  0.1804E-13  0.1416E-04  0.4430E-07  0.1391E-02  0.1055E-03  0.1129E+02
   -1.500015   29.85480  0.1804E-13  0.1391E-04  0.4642E-07  0.1284E-02  0.9794E-04  0.1516E+02
   -1.550015   29.85544  0.1804E-13  0.1359E-04  0.4940E-07  0.1203E-02  0.9033E-04  0.2122E+02
   -1.600015   29.85613  0.1804E-13  0.1321E-04  0.5389E-07  0.1059E-02  0.8290E-04  0.3763E+02
   -1.650015   29.85696  0.1804E-13  0.1271E-04  0.6074E-07  0.9851E-03  0.7499E-04  0.2214E+03
   -1.700015   29.85786  0.1804E-13  0.1204E-04  0.7315E-07  0.8030E-03  0.6743E-04 -0.1460E+03
   -1.750014   29.85946  0.1804E-13  0.1112E-04  0.9369E-07  0.7277E-03  0.5739E-04  0.4920E+05
   -1.800012   29.86083  0.1804E-13  0.9867E-05  0.1357E-06  0.5112E-03  0.4938E-04  0.7247E+05
   -1.850011   29.86598  0.1804E-13  0.8384E-05  0.2162E-06  0.4629E-03  0.3579E-04  0.4500E+07
   -1.900009   29.86558  0.1804E-13  0.6619E-05  0.4480E-06  0.2092E-03  0.2884E-04  0.1411E+07
   -1.950006   29.88244  0.1804E-13  0.4579E-05  0.1142E-05  0.1763E-03  0.1559E-04 -0.3066E+07
   -2.000003   29.88520  0.1804E-13  0.0000E+00  0.0000E+00  0.0000E+00  0.2775E-04  0.0000E+00
