 1 - depth, m
 2 - temperature, C
 3 - salinity, kg/kg
 4 - turbulent kinetic energy, m**2/s**2
 5 - dissipation rate, m**2/s**3
 6 - kinematic heat conductance, m**2/s
 7 - modulus of horizontal velocity, m/s
 8 - Richardson number, n/d
   -0.000000   30.46265  0.5706E-14  0.5196E-05  0.3037E-06  0.5157E-04  0.2833E-02  0.1424E+04
   -0.049997   30.49271  0.5706E-14  0.8576E-05  0.1327E-06  0.1971E-03  0.1531E-02  0.3123E+02
   -0.099994   30.50235  0.5706E-14  0.1018E-04  0.9345E-07  0.3911E-03  0.1180E-02  0.6030E+01
   -0.149992   30.50562  0.5706E-14  0.1123E-04  0.7853E-07  0.4869E-03  0.1045E-02  0.3100E+01
   -0.199991   30.50814  0.5706E-14  0.1206E-04  0.6980E-07  0.6353E-03  0.9395E-03  0.2027E+01
   -0.249989   30.51001  0.5706E-14  0.1272E-04  0.6410E-07  0.7556E-03  0.8588E-03  0.1522E+01
   -0.299988   30.51154  0.5706E-14  0.1327E-04  0.6004E-07  0.8669E-03  0.7914E-03  0.1274E+01
   -0.349988   30.51285  0.5706E-14  0.1375E-04  0.5692E-07  0.9737E-03  0.7320E-03  0.1236E+01
   -0.399988   30.51399  0.5706E-14  0.1417E-04  0.5436E-07  0.1088E-02  0.6761E-03  0.1243E+01
   -0.449988   30.51498  0.5706E-14  0.1456E-04  0.5221E-07  0.1203E-02  0.6242E-03  0.1255E+01
   -0.499988   30.51586  0.5706E-14  0.1490E-04  0.5041E-07  0.1311E-02  0.5771E-03  0.1263E+01
   -0.549989   30.51666  0.5706E-14  0.1521E-04  0.4891E-07  0.1410E-02  0.5346E-03  0.1263E+01
   -0.599989   30.51739  0.5706E-14  0.1546E-04  0.4765E-07  0.1500E-02  0.4962E-03  0.1258E+01
   -0.649990   30.51806  0.5706E-14  0.1568E-04  0.4662E-07  0.1580E-02  0.4615E-03  0.1249E+01
   -0.699992   30.51869  0.5706E-14  0.1587E-04  0.4577E-07  0.1648E-02  0.4302E-03  0.1235E+01
   -0.749993   30.51929  0.5706E-14  0.1601E-04  0.4509E-07  0.1705E-02  0.4018E-03  0.1220E+01
   -0.799994   30.51986  0.5706E-14  0.1613E-04  0.4456E-07  0.1751E-02  0.3761E-03  0.1203E+01
   -0.849996   30.52041  0.5706E-14  0.1621E-04  0.4416E-07  0.1785E-02  0.3529E-03  0.1190E+01
   -0.899998   30.52094  0.5706E-14  0.1627E-04  0.4388E-07  0.1808E-02  0.3319E-03  0.1184E+01
   -0.949999   30.52146  0.5706E-14  0.1630E-04  0.4371E-07  0.1822E-02  0.3127E-03  0.1196E+01
   -1.000001   30.52198  0.5706E-14  0.1631E-04  0.4365E-07  0.1826E-02  0.2952E-03  0.1237E+01
   -1.050003   30.52248  0.5706E-14  0.1630E-04  0.4370E-07  0.1820E-02  0.2789E-03  0.1368E+01
   -1.100005   30.52299  0.5706E-14  0.1626E-04  0.4386E-07  0.1932E-02  0.2636E-03  0.4404E+01
   -1.150006   30.52346  0.5706E-14  0.1620E-04  0.4416E-07  0.1696E-02  0.2502E-03  0.1062E+02
   -1.200008   30.52400  0.5706E-14  0.1612E-04  0.4459E-07  0.1743E-02  0.2358E-03  0.1995E+01
   -1.250009   30.52452  0.5706E-14  0.1601E-04  0.4521E-07  0.1709E-02  0.2222E-03  0.2129E+01
   -1.300011   30.52505  0.5706E-14  0.1588E-04  0.4605E-07  0.1653E-02  0.2091E-03  0.2510E+01
   -1.350012   30.52559  0.5706E-14  0.1571E-04  0.4717E-07  0.1589E-02  0.1963E-03  0.3027E+01
   -1.400013   30.52616  0.5706E-14  0.1550E-04  0.4868E-07  0.1504E-02  0.1839E-03  0.3786E+01
   -1.450014   30.52676  0.5706E-14  0.1524E-04  0.5073E-07  0.1423E-02  0.1716E-03  0.4886E+01
   -1.500014   30.52740  0.5706E-14  0.1494E-04  0.5358E-07  0.1305E-02  0.1595E-03  0.6784E+01
   -1.550015   30.52810  0.5706E-14  0.1456E-04  0.5761E-07  0.1219E-02  0.1472E-03  0.9976E+01
   -1.600015   30.52886  0.5706E-14  0.1408E-04  0.6394E-07  0.1071E-02  0.1352E-03  0.2409E+02
   -1.650014   30.52984  0.5706E-14  0.1347E-04  0.7381E-07  0.9861E-03  0.1220E-03  0.2918E+03
   -1.700014   30.53094  0.5706E-14  0.1262E-04  0.9109E-07  0.8041E-03  0.1091E-03  0.3780E+04
   -1.750013   30.53293  0.5706E-14  0.1154E-04  0.1193E-06  0.7234E-03  0.9184E-04  0.2010E+06
   -1.800012   30.53449  0.5706E-14  0.1012E-04  0.1794E-06  0.5033E-03  0.7875E-04  0.4099E+05
   -1.850010   30.54138  0.5706E-14  0.8576E-05  0.2926E-06  0.4643E-03  0.5577E-04  0.1625E+08
   -1.900008   30.53963  0.5706E-14  0.6790E-05  0.6239E-06  0.2124E-03  0.4539E-04  0.9293E+05
   -1.950005   30.56010  0.5706E-14  0.4789E-05  0.1518E-05  0.1997E-03  0.2421E-04 -0.1121E+06
   -2.000002   30.56146  0.5706E-14  0.0000E+00  0.0000E+00  0.0000E+00  0.4607E-04  0.0000E+00
