 1 - depth, m
 2 - temperature, C
 3 - salinity, kg/kg
 4 - turbulent kinetic energy, m**2/s**2
 5 - dissipation rate, m**2/s**3
 6 - kinematic heat conductance, m**2/s
 7 - modulus of horizontal velocity, m/s
 8 - Richardson number, n/d
   -0.000000   30.43502  0.6553E-13  0.5274E-05  0.2960E-06  0.5146E-04  0.3429E-02  0.4888E+03
   -0.049997   30.46452  0.6553E-13  0.8514E-05  0.1281E-06  0.2016E-03  0.1843E-02  0.5806E+02
   -0.099994   30.47341  0.6553E-13  0.1001E-04  0.9100E-07  0.3836E-03  0.1448E-02  0.4500E+01
   -0.149992   30.47663  0.6553E-13  0.1101E-04  0.7672E-07  0.4801E-03  0.1290E-02  0.2335E+01
   -0.199991   30.47909  0.6553E-13  0.1180E-04  0.6839E-07  0.6150E-03  0.1167E-02  0.1574E+01
   -0.249989   30.48096  0.6553E-13  0.1244E-04  0.6291E-07  0.7230E-03  0.1071E-02  0.1290E+01
   -0.299988   30.48250  0.6553E-13  0.1301E-04  0.5885E-07  0.8346E-03  0.9877E-03  0.1269E+01
   -0.349988   30.48381  0.6553E-13  0.1353E-04  0.5557E-07  0.9607E-03  0.9083E-03  0.1340E+01
   -0.399988   30.48492  0.6553E-13  0.1402E-04  0.5285E-07  0.1094E-02  0.8310E-03  0.1364E+01
   -0.449988   30.48588  0.6553E-13  0.1446E-04  0.5058E-07  0.1225E-02  0.7595E-03  0.1371E+01
   -0.499988   30.48672  0.6553E-13  0.1484E-04  0.4870E-07  0.1347E-02  0.6951E-03  0.1373E+01
   -0.549989   30.48746  0.6553E-13  0.1518E-04  0.4716E-07  0.1459E-02  0.6376E-03  0.1365E+01
   -0.599989   30.48814  0.6553E-13  0.1547E-04  0.4590E-07  0.1560E-02  0.5860E-03  0.1354E+01
   -0.649990   30.48877  0.6553E-13  0.1570E-04  0.4488E-07  0.1647E-02  0.5398E-03  0.1338E+01
   -0.699992   30.48935  0.6553E-13  0.1590E-04  0.4406E-07  0.1721E-02  0.4984E-03  0.1319E+01
   -0.749993   30.48990  0.6553E-13  0.1605E-04  0.4342E-07  0.1782E-02  0.4613E-03  0.1295E+01
   -0.799994   30.49043  0.6553E-13  0.1617E-04  0.4294E-07  0.1828E-02  0.4281E-03  0.1271E+01
   -0.849996   30.49094  0.6553E-13  0.1625E-04  0.4261E-07  0.1860E-02  0.3982E-03  0.1242E+01
   -0.899998   30.49143  0.6553E-13  0.1630E-04  0.4241E-07  0.1879E-02  0.3714E-03  0.1212E+01
   -0.949999   30.49191  0.6553E-13  0.1632E-04  0.4233E-07  0.1886E-02  0.3474E-03  0.1181E+01
   -1.000001   30.49239  0.6553E-13  0.1632E-04  0.4236E-07  0.1883E-02  0.3259E-03  0.1156E+01
   -1.050003   30.49287  0.6553E-13  0.1630E-04  0.4249E-07  0.1868E-02  0.3065E-03  0.1171E+01
   -1.100005   30.49335  0.6553E-13  0.1625E-04  0.4273E-07  0.2008E-02  0.2891E-03  0.3367E+01
   -1.150006   30.49379  0.6553E-13  0.1618E-04  0.4310E-07  0.1706E-02  0.2749E-03  0.8505E+01
   -1.200008   30.49431  0.6553E-13  0.1609E-04  0.4360E-07  0.1775E-02  0.2591E-03  0.1562E+01
   -1.250009   30.49480  0.6553E-13  0.1598E-04  0.4429E-07  0.1738E-02  0.2444E-03  0.1669E+01
   -1.300011   30.49531  0.6553E-13  0.1583E-04  0.4521E-07  0.1677E-02  0.2302E-03  0.1972E+01
   -1.350012   30.49583  0.6553E-13  0.1565E-04  0.4642E-07  0.1607E-02  0.2163E-03  0.2398E+01
   -1.400013   30.49638  0.6553E-13  0.1543E-04  0.4804E-07  0.1516E-02  0.2027E-03  0.3014E+01
   -1.450014   30.49696  0.6553E-13  0.1517E-04  0.5022E-07  0.1431E-02  0.1893E-03  0.3935E+01
   -1.500014   30.49759  0.6553E-13  0.1485E-04  0.5324E-07  0.1307E-02  0.1760E-03  0.5522E+01
   -1.550014   30.49828  0.6553E-13  0.1446E-04  0.5753E-07  0.1221E-02  0.1625E-03  0.8282E+01
   -1.600015   30.49904  0.6553E-13  0.1397E-04  0.6421E-07  0.1069E-02  0.1493E-03  0.1897E+02
   -1.650014   30.50001  0.6553E-13  0.1333E-04  0.7470E-07  0.9840E-03  0.1347E-03  0.1044E+03
   -1.700014   30.50115  0.6553E-13  0.1244E-04  0.9295E-07  0.7952E-03  0.1200E-03  0.1134E+05
   -1.750013   30.50323  0.6553E-13  0.1132E-04  0.1223E-06  0.7215E-03  0.1004E-03  0.2754E+06
   -1.800012   30.50469  0.6553E-13  0.9880E-05  0.1881E-06  0.4877E-03  0.8626E-04  0.7413E+05
   -1.850010   30.51234  0.6553E-13  0.8352E-05  0.3090E-06  0.4612E-03  0.5992E-04  0.9178E+07
   -1.900008   30.50972  0.6553E-13  0.6618E-05  0.6473E-06  0.2077E-03  0.4940E-04  0.1967E+05
   -1.950005   30.53151  0.6553E-13  0.4686E-05  0.1575E-05  0.2050E-03  0.2598E-04 -0.1401E+06
   -2.000002   30.53260  0.6553E-13  0.0000E+00  0.0000E+00  0.0000E+00  0.5075E-04  0.0000E+00
