 1 - depth, m
 2 - temperature, C
 3 - salinity, kg/kg
 4 - turbulent kinetic energy, m**2/s**2
 5 - dissipation rate, m**2/s**3
 6 - kinematic heat conductance, m**2/s
 7 - modulus of horizontal velocity, m/s
 8 - Richardson number, n/d
   -0.000000   30.48265  0.7935E-14  0.5312E-05  0.3245E-06  0.5246E-04  0.2594E-02  0.3054E+04
   -0.049997   30.51445  0.7935E-14  0.8807E-05  0.1427E-06  0.1931E-03  0.1426E-02  0.7872E+03
   -0.099994   30.52534  0.7935E-14  0.1052E-04  0.9952E-07  0.3964E-03  0.1088E-02  0.8496E+01
   -0.149992   30.52882  0.7935E-14  0.1163E-04  0.8345E-07  0.4880E-03  0.9637E-03  0.4276E+01
   -0.199991   30.53152  0.7935E-14  0.1249E-04  0.7405E-07  0.6421E-03  0.8655E-03  0.2758E+01
   -0.249989   30.53351  0.7935E-14  0.1318E-04  0.6791E-07  0.7644E-03  0.7908E-03  0.2058E+01
   -0.299988   30.53514  0.7935E-14  0.1375E-04  0.6352E-07  0.8805E-03  0.7285E-03  0.1684E+01
   -0.349988   30.53651  0.7935E-14  0.1423E-04  0.6015E-07  0.9917E-03  0.6736E-03  0.1555E+01
   -0.399988   30.53771  0.7935E-14  0.1466E-04  0.5743E-07  0.1105E-02  0.6225E-03  0.1477E+01
   -0.449988   30.53875  0.7935E-14  0.1503E-04  0.5515E-07  0.1216E-02  0.5755E-03  0.1449E+01
   -0.499988   30.53968  0.7935E-14  0.1536E-04  0.5325E-07  0.1319E-02  0.5332E-03  0.1434E+01
   -0.549989   30.54052  0.7935E-14  0.1565E-04  0.5165E-07  0.1413E-02  0.4951E-03  0.1431E+01
   -0.599989   30.54130  0.7935E-14  0.1589E-04  0.5031E-07  0.1499E-02  0.4606E-03  0.1422E+01
   -0.649990   30.54201  0.7935E-14  0.1610E-04  0.4918E-07  0.1575E-02  0.4294E-03  0.1427E+01
   -0.699992   30.54268  0.7935E-14  0.1627E-04  0.4824E-07  0.1641E-02  0.4011E-03  0.1425E+01
   -0.749993   30.54332  0.7935E-14  0.1640E-04  0.4747E-07  0.1696E-02  0.3753E-03  0.1437E+01
   -0.799994   30.54392  0.7935E-14  0.1650E-04  0.4685E-07  0.1740E-02  0.3519E-03  0.1443E+01
   -0.849996   30.54450  0.7935E-14  0.1657E-04  0.4635E-07  0.1774E-02  0.3306E-03  0.1469E+01
   -0.899998   30.54507  0.7935E-14  0.1662E-04  0.4599E-07  0.1797E-02  0.3111E-03  0.1491E+01
   -0.949999   30.54562  0.7935E-14  0.1664E-04  0.4573E-07  0.1811E-02  0.2933E-03  0.1546E+01
   -1.000001   30.54616  0.7935E-14  0.1663E-04  0.4559E-07  0.1817E-02  0.2769E-03  0.1616E+01
   -1.050003   30.54669  0.7935E-14  0.1661E-04  0.4557E-07  0.1811E-02  0.2616E-03  0.1806E+01
   -1.100005   30.54722  0.7935E-14  0.1656E-04  0.4566E-07  0.1925E-02  0.2473E-03  0.5797E+01
   -1.150006   30.54771  0.7935E-14  0.1648E-04  0.4590E-07  0.1684E-02  0.2347E-03  0.1391E+02
   -1.200008   30.54827  0.7935E-14  0.1638E-04  0.4628E-07  0.1733E-02  0.2212E-03  0.2616E+01
   -1.250009   30.54880  0.7935E-14  0.1626E-04  0.4685E-07  0.1700E-02  0.2084E-03  0.2764E+01
   -1.300011   30.54935  0.7935E-14  0.1610E-04  0.4765E-07  0.1643E-02  0.1961E-03  0.3261E+01
   -1.350012   30.54991  0.7935E-14  0.1591E-04  0.4876E-07  0.1577E-02  0.1841E-03  0.3904E+01
   -1.400013   30.55048  0.7935E-14  0.1567E-04  0.5027E-07  0.1493E-02  0.1724E-03  0.4877E+01
   -1.450014   30.55110  0.7935E-14  0.1539E-04  0.5235E-07  0.1408E-02  0.1609E-03  0.6271E+01
   -1.500014   30.55174  0.7935E-14  0.1506E-04  0.5529E-07  0.1292E-02  0.1495E-03  0.8674E+01
   -1.550015   30.55246  0.7935E-14  0.1464E-04  0.5952E-07  0.1204E-02  0.1380E-03  0.1288E+02
   -1.600015   30.55324  0.7935E-14  0.1413E-04  0.6616E-07  0.1062E-02  0.1266E-03  0.3307E+02
   -1.650014   30.55421  0.7935E-14  0.1347E-04  0.7677E-07  0.9726E-03  0.1142E-03  0.1692E+05
   -1.700014   30.55540  0.7935E-14  0.1254E-04  0.9548E-07  0.7948E-03  0.1015E-03 -0.1254E+05
   -1.750013   30.55740  0.7935E-14  0.1139E-04  0.1254E-06  0.7113E-03  0.8494E-04  0.1134E+06
   -1.800012   30.55895  0.7935E-14  0.9882E-05  0.1946E-06  0.4850E-03  0.7267E-04  0.9627E+05
   -1.850010   30.56636  0.7935E-14  0.8326E-05  0.3185E-06  0.4603E-03  0.5023E-04  0.1587E+09
   -1.900008   30.56387  0.7935E-14  0.6602E-05  0.6713E-06  0.2153E-03  0.4144E-04 -0.5943E+05
   -1.950005   30.58442  0.7935E-14  0.4668E-05  0.1625E-05  0.2073E-03  0.2176E-04 -0.1708E+06
   -2.000002   30.58547  0.7935E-14  0.0000E+00  0.0000E+00  0.0000E+00  0.4364E-04  0.0000E+00
