 1 - depth, m
 2 - temperature, C
 3 - salinity, kg/kg
 4 - turbulent kinetic energy, m**2/s**2
 5 - dissipation rate, m**2/s**3
 6 - kinematic heat conductance, m**2/s
 7 - modulus of horizontal velocity, m/s
 8 - Richardson number, n/d
   -0.000000   30.36661  0.1002E-13  0.5351E-05  0.3283E-06  0.5281E-04  0.2629E-02  0.1654E+04
   -0.049997   30.39841  0.1002E-13  0.8879E-05  0.1441E-06  0.1947E-03  0.1443E-02  0.1352E+04
   -0.099994   30.40923  0.1002E-13  0.1061E-04  0.1006E-06  0.3986E-03  0.1100E-02  0.7297E+01
   -0.149992   30.41271  0.1002E-13  0.1173E-04  0.8432E-07  0.4917E-03  0.9739E-03  0.3706E+01
   -0.199991   30.41540  0.1002E-13  0.1260E-04  0.7481E-07  0.6475E-03  0.8741E-03  0.2396E+01
   -0.249989   30.41739  0.1002E-13  0.1330E-04  0.6861E-07  0.7721E-03  0.7984E-03  0.1785E+01
   -0.299988   30.41902  0.1002E-13  0.1388E-04  0.6420E-07  0.8910E-03  0.7352E-03  0.1453E+01
   -0.349988   30.42039  0.1002E-13  0.1437E-04  0.6084E-07  0.1001E-02  0.6803E-03  0.1331E+01
   -0.399988   30.42158  0.1002E-13  0.1479E-04  0.5815E-07  0.1112E-02  0.6296E-03  0.1276E+01
   -0.449988   30.42264  0.1002E-13  0.1518E-04  0.5590E-07  0.1221E-02  0.5832E-03  0.1262E+01
   -0.499988   30.42357  0.1002E-13  0.1551E-04  0.5402E-07  0.1324E-02  0.5414E-03  0.1258E+01
   -0.549989   30.42442  0.1002E-13  0.1580E-04  0.5245E-07  0.1419E-02  0.5035E-03  0.1256E+01
   -0.599989   30.42520  0.1002E-13  0.1606E-04  0.5113E-07  0.1505E-02  0.4693E-03  0.1251E+01
   -0.649990   30.42593  0.1002E-13  0.1627E-04  0.5003E-07  0.1581E-02  0.4382E-03  0.1249E+01
   -0.699992   30.42660  0.1002E-13  0.1644E-04  0.4912E-07  0.1647E-02  0.4101E-03  0.1244E+01
   -0.749993   30.42725  0.1002E-13  0.1659E-04  0.4838E-07  0.1702E-02  0.3845E-03  0.1245E+01
   -0.799994   30.42786  0.1002E-13  0.1670E-04  0.4779E-07  0.1746E-02  0.3611E-03  0.1245E+01
   -0.849996   30.42845  0.1002E-13  0.1678E-04  0.4733E-07  0.1780E-02  0.3399E-03  0.1259E+01
   -0.899998   30.42903  0.1002E-13  0.1683E-04  0.4699E-07  0.1804E-02  0.3204E-03  0.1284E+01
   -0.949999   30.42959  0.1002E-13  0.1686E-04  0.4678E-07  0.1819E-02  0.3024E-03  0.1338E+01
   -1.000001   30.43014  0.1002E-13  0.1687E-04  0.4667E-07  0.1825E-02  0.2858E-03  0.1413E+01
   -1.050003   30.43068  0.1002E-13  0.1685E-04  0.4668E-07  0.1820E-02  0.2702E-03  0.1584E+01
   -1.100004   30.43122  0.1002E-13  0.1682E-04  0.4682E-07  0.1931E-02  0.2554E-03  0.5126E+01
   -1.150006   30.43173  0.1002E-13  0.1675E-04  0.4711E-07  0.1699E-02  0.2424E-03  0.1223E+02
   -1.200008   30.43230  0.1002E-13  0.1666E-04  0.4754E-07  0.1745E-02  0.2285E-03  0.2305E+01
   -1.250009   30.43286  0.1002E-13  0.1655E-04  0.4817E-07  0.1711E-02  0.2153E-03  0.2453E+01
   -1.300010   30.43342  0.1002E-13  0.1640E-04  0.4904E-07  0.1655E-02  0.2026E-03  0.2890E+01
   -1.350012   30.43400  0.1002E-13  0.1621E-04  0.5023E-07  0.1590E-02  0.1903E-03  0.3479E+01
   -1.400013   30.43460  0.1002E-13  0.1599E-04  0.5184E-07  0.1506E-02  0.1782E-03  0.4348E+01
   -1.450013   30.43524  0.1002E-13  0.1572E-04  0.5403E-07  0.1423E-02  0.1663E-03  0.5613E+01
   -1.500014   30.43592  0.1002E-13  0.1539E-04  0.5710E-07  0.1305E-02  0.1546E-03  0.7795E+01
   -1.550014   30.43666  0.1002E-13  0.1498E-04  0.6150E-07  0.1220E-02  0.1427E-03  0.1177E+02
   -1.600014   30.43748  0.1002E-13  0.1448E-04  0.6841E-07  0.1072E-02  0.1310E-03  0.9976E+02
   -1.650014   30.43852  0.1002E-13  0.1381E-04  0.7931E-07  0.9870E-03  0.1181E-03  0.5941E+02
   -1.700014   30.43975  0.1002E-13  0.1290E-04  0.9863E-07  0.8042E-03  0.1052E-03  0.3382E+04
   -1.750013   30.44187  0.1002E-13  0.1177E-04  0.1292E-06  0.7231E-03  0.8825E-04  0.5072E+05
   -1.800011   30.44343  0.1002E-13  0.1030E-04  0.1955E-06  0.5039E-03  0.7586E-04  0.1931E+05
   -1.850010   30.45120  0.1002E-13  0.8734E-05  0.3211E-06  0.4670E-03  0.5297E-04  0.1773E+08
   -1.900008   30.44874  0.1002E-13  0.6940E-05  0.6743E-06  0.2178E-03  0.4354E-04 -0.3753E+05
   -1.950005   30.47067  0.1002E-13  0.4907E-05  0.1646E-05  0.2034E-03  0.2317E-04 -0.2763E+06
   -2.000002   30.47219  0.1002E-13  0.0000E+00  0.0000E+00  0.0000E+00  0.4468E-04  0.0000E+00
