 1 - depth, m
 2 - temperature, C
 3 - salinity, kg/kg
 4 - turbulent kinetic energy, m**2/s**2
 5 - dissipation rate, m**2/s**3
 6 - kinematic heat conductance, m**2/s
 7 - modulus of horizontal velocity, m/s
 8 - Richardson number, n/d
   -0.000000   30.25130  0.3225E-14  0.5434E-05  0.3150E-06  0.5215E-04  0.3303E-02  0.9164E+03
   -0.049997   30.28313  0.3225E-14  0.8808E-05  0.1370E-06  0.2012E-03  0.1791E-02  0.1316E+02
   -0.099994   30.29294  0.3225E-14  0.1038E-04  0.9705E-07  0.3867E-03  0.1401E-02  0.4963E+01
   -0.149992   30.29643  0.3225E-14  0.1141E-04  0.8166E-07  0.4830E-03  0.1247E-02  0.2562E+01
   -0.199991   30.29911  0.3225E-14  0.1222E-04  0.7263E-07  0.6226E-03  0.1127E-02  0.1701E+01
   -0.249989   30.30113  0.3225E-14  0.1287E-04  0.6671E-07  0.7326E-03  0.1033E-02  0.1330E+01
   -0.299989   30.30279  0.3225E-14  0.1342E-04  0.6235E-07  0.8394E-03  0.9540E-03  0.1253E+01
   -0.349988   30.30421  0.3225E-14  0.1392E-04  0.5883E-07  0.9585E-03  0.8797E-03  0.1315E+01
   -0.399988   30.30541  0.3225E-14  0.1438E-04  0.5589E-07  0.1087E-02  0.8074E-03  0.1340E+01
   -0.449988   30.30644  0.3225E-14  0.1479E-04  0.5340E-07  0.1212E-02  0.7403E-03  0.1351E+01
   -0.499988   30.30735  0.3225E-14  0.1515E-04  0.5131E-07  0.1328E-02  0.6797E-03  0.1358E+01
   -0.549989   30.30816  0.3225E-14  0.1545E-04  0.4955E-07  0.1435E-02  0.6252E-03  0.1354E+01
   -0.599990   30.30890  0.3225E-14  0.1571E-04  0.4808E-07  0.1532E-02  0.5762E-03  0.1346E+01
   -0.649991   30.30957  0.3225E-14  0.1591E-04  0.4685E-07  0.1617E-02  0.5322E-03  0.1332E+01
   -0.699992   30.31020  0.3225E-14  0.1607E-04  0.4583E-07  0.1688E-02  0.4925E-03  0.1315E+01
   -0.749993   30.31080  0.3225E-14  0.1619E-04  0.4499E-07  0.1747E-02  0.4568E-03  0.1292E+01
   -0.799995   30.31136  0.3225E-14  0.1628E-04  0.4432E-07  0.1792E-02  0.4247E-03  0.1267E+01
   -0.849996   30.31190  0.3225E-14  0.1632E-04  0.4379E-07  0.1825E-02  0.3958E-03  0.1238E+01
   -0.899998   30.31242  0.3225E-14  0.1634E-04  0.4340E-07  0.1844E-02  0.3698E-03  0.1206E+01
   -0.950000   30.31293  0.3225E-14  0.1633E-04  0.4314E-07  0.1852E-02  0.3464E-03  0.1172E+01
   -1.000001   30.31343  0.3225E-14  0.1630E-04  0.4299E-07  0.1850E-02  0.3254E-03  0.1150E+01
   -1.050003   30.31393  0.3225E-14  0.1624E-04  0.4296E-07  0.1836E-02  0.3064E-03  0.1181E+01
   -1.100005   30.31442  0.3225E-14  0.1616E-04  0.4303E-07  0.1976E-02  0.2891E-03  0.3460E+01
   -1.150007   30.31486  0.3225E-14  0.1606E-04  0.4325E-07  0.1670E-02  0.2748E-03  0.8925E+01
   -1.200008   30.31539  0.3225E-14  0.1594E-04  0.4359E-07  0.1741E-02  0.2588E-03  0.1613E+01
   -1.250010   30.31589  0.3225E-14  0.1578E-04  0.4412E-07  0.1706E-02  0.2440E-03  0.1702E+01
   -1.300011   30.31639  0.3225E-14  0.1560E-04  0.4487E-07  0.1644E-02  0.2297E-03  0.2005E+01
   -1.350012   30.31690  0.3225E-14  0.1538E-04  0.4592E-07  0.1573E-02  0.2158E-03  0.2425E+01
   -1.400013   30.31743  0.3225E-14  0.1512E-04  0.4737E-07  0.1483E-02  0.2021E-03  0.3045E+01
   -1.450014   30.31800  0.3225E-14  0.1482E-04  0.4940E-07  0.1395E-02  0.1886E-03  0.3967E+01
   -1.500015   30.31859  0.3225E-14  0.1445E-04  0.5228E-07  0.1275E-02  0.1752E-03  0.5574E+01
   -1.550015   30.31925  0.3225E-14  0.1402E-04  0.5650E-07  0.1186E-02  0.1617E-03  0.8567E+01
   -1.600015   30.31997  0.3225E-14  0.1347E-04  0.6327E-07  0.1044E-02  0.1483E-03  0.5828E+02
   -1.650015   30.32089  0.3225E-14  0.1277E-04  0.7418E-07  0.9537E-03  0.1335E-03  0.9218E+03
   -1.700014   30.32201  0.3225E-14  0.1179E-04  0.9307E-07  0.7804E-03  0.1182E-03  0.8228E+04
   -1.750013   30.32396  0.3225E-14  0.1059E-04  0.1235E-06  0.6849E-03  0.9809E-04  0.4163E+05
   -1.800012   30.32537  0.3225E-14  0.9061E-05  0.1912E-06  0.4696E-03  0.8351E-04  0.3535E+04
   -1.850011   30.33274  0.3225E-14  0.7563E-05  0.3164E-06  0.4420E-03  0.5640E-04  0.3275E+07
   -1.900008   30.32960  0.3225E-14  0.5965E-05  0.6690E-06  0.2081E-03  0.4681E-04  0.3061E+05
   -1.950006   30.34901  0.3225E-14  0.4246E-05  0.1599E-05  0.2146E-03  0.2413E-04 -0.1158E+06
   -2.000003   30.34817  0.3225E-14  0.0000E+00  0.0000E+00  0.0000E+00  0.5109E-04  0.0000E+00
