 1 - depth, m
 2 - temperature, C
 3 - salinity, kg/kg
 4 - turbulent kinetic energy, m**2/s**2
 5 - dissipation rate, m**2/s**3
 6 - kinematic heat conductance, m**2/s
 7 - modulus of horizontal velocity, m/s
 8 - Richardson number, n/d
   -0.000000   30.36350  0.8990E-14  0.4820E-05  0.2986E-06  0.5079E-04  0.1913E-02  0.9303E+04
   -0.049997   30.39296  0.8990E-14  0.8164E-05  0.1330E-06  0.1733E-03  0.1101E-02  0.1950E+03
   -0.099994   30.40469  0.8990E-14  0.9909E-05  0.9096E-07  0.3954E-03  0.8027E-03  0.1301E+02
   -0.149992   30.40789  0.8990E-14  0.1100E-04  0.7622E-07  0.4743E-03  0.7089E-03  0.6335E+01
   -0.199991   30.41045  0.8990E-14  0.1184E-04  0.6760E-07  0.6347E-03  0.6327E-03  0.4057E+01
   -0.249989   30.41231  0.8990E-14  0.1252E-04  0.6197E-07  0.7590E-03  0.5757E-03  0.2987E+01
   -0.299988   30.41382  0.8990E-14  0.1307E-04  0.5796E-07  0.8830E-03  0.5283E-03  0.2375E+01
   -0.349988   30.41509  0.8990E-14  0.1352E-04  0.5495E-07  0.9954E-03  0.4878E-03  0.2028E+01
   -0.399988   30.41619  0.8990E-14  0.1391E-04  0.5262E-07  0.1098E-02  0.4519E-03  0.1808E+01
   -0.449988   30.41717  0.8990E-14  0.1424E-04  0.5072E-07  0.1194E-02  0.4204E-03  0.1696E+01
   -0.499988   30.41805  0.8990E-14  0.1452E-04  0.4915E-07  0.1281E-02  0.3924E-03  0.1652E+01
   -0.549989   30.41885  0.8990E-14  0.1477E-04  0.4784E-07  0.1361E-02  0.3675E-03  0.1629E+01
   -0.599990   30.41960  0.8990E-14  0.1498E-04  0.4674E-07  0.1434E-02  0.3449E-03  0.1632E+01
   -0.649991   30.42029  0.8990E-14  0.1516E-04  0.4581E-07  0.1499E-02  0.3243E-03  0.1651E+01
   -0.699992   30.42095  0.8990E-14  0.1531E-04  0.4502E-07  0.1557E-02  0.3054E-03  0.1692E+01
   -0.749993   30.42157  0.8990E-14  0.1544E-04  0.4436E-07  0.1607E-02  0.2879E-03  0.1746E+01
   -0.799995   30.42217  0.8990E-14  0.1555E-04  0.4382E-07  0.1649E-02  0.2717E-03  0.1823E+01
   -0.849996   30.42274  0.8990E-14  0.1563E-04  0.4338E-07  0.1684E-02  0.2565E-03  0.1915E+01
   -0.899998   30.42330  0.8990E-14  0.1568E-04  0.4304E-07  0.1710E-02  0.2423E-03  0.2035E+01
   -0.950000   30.42384  0.8990E-14  0.1572E-04  0.4280E-07  0.1728E-02  0.2289E-03  0.2177E+01
   -1.000001   30.42437  0.8990E-14  0.1574E-04  0.4266E-07  0.1739E-02  0.2162E-03  0.2357E+01
   -1.050003   30.42489  0.8990E-14  0.1573E-04  0.4262E-07  0.1739E-02  0.2042E-03  0.2670E+01
   -1.100005   30.42541  0.8990E-14  0.1570E-04  0.4269E-07  0.1828E-02  0.1927E-03  0.8834E+01
   -1.150006   30.42590  0.8990E-14  0.1565E-04  0.4290E-07  0.1651E-02  0.1825E-03  0.2031E+02
   -1.200008   30.42644  0.8990E-14  0.1558E-04  0.4324E-07  0.1679E-02  0.1718E-03  0.3880E+01
   -1.250009   30.42697  0.8990E-14  0.1548E-04  0.4375E-07  0.1648E-02  0.1617E-03  0.4143E+01
   -1.300011   30.42750  0.8990E-14  0.1535E-04  0.4446E-07  0.1598E-02  0.1519E-03  0.4855E+01
   -1.350012   30.42805  0.8990E-14  0.1519E-04  0.4544E-07  0.1539E-02  0.1424E-03  0.5832E+01
   -1.400013   30.42862  0.8990E-14  0.1499E-04  0.4677E-07  0.1460E-02  0.1332E-03  0.7226E+01
   -1.450014   30.42922  0.8990E-14  0.1475E-04  0.4858E-07  0.1383E-02  0.1241E-03  0.9251E+01
   -1.500014   30.42985  0.8990E-14  0.1446E-04  0.5110E-07  0.1268E-02  0.1152E-03  0.1265E+02
   -1.550015   30.43055  0.8990E-14  0.1410E-04  0.5468E-07  0.1187E-02  0.1062E-03  0.1810E+02
   -1.600015   30.43130  0.8990E-14  0.1365E-04  0.6022E-07  0.1040E-02  0.9742E-04  0.3656E+02
   -1.650015   30.43223  0.8990E-14  0.1308E-04  0.6879E-07  0.9655E-03  0.8791E-04  0.1046E+03
   -1.700014   30.43324  0.8990E-14  0.1228E-04  0.8433E-07  0.7823E-03  0.7877E-04 -0.4519E+04
   -1.750013   30.43516  0.8990E-14  0.1122E-04  0.1102E-06  0.7040E-03  0.6620E-04  0.6159E+05
   -1.800012   30.43674  0.8990E-14  0.9802E-05  0.1662E-06  0.4883E-03  0.5658E-04  0.1106E+06
   -1.850010   30.44323  0.8990E-14  0.8251E-05  0.2688E-06  0.4485E-03  0.3986E-04  0.9879E+07
   -1.900008   30.44177  0.8990E-14  0.6461E-05  0.5682E-06  0.1988E-03  0.3233E-04  0.8113E+05
   -1.950006   30.46166  0.8990E-14  0.4564E-05  0.1394E-05  0.1956E-03  0.1694E-04 -0.1618E+06
   -2.000002   30.46244  0.8990E-14  0.0000E+00  0.0000E+00  0.0000E+00  0.3263E-04  0.0000E+00
