 1 - depth, m
 2 - temperature, C
 3 - salinity, kg/kg
 4 - turbulent kinetic energy, m**2/s**2
 5 - dissipation rate, m**2/s**3
 6 - kinematic heat conductance, m**2/s
 7 - modulus of horizontal velocity, m/s
 8 - Richardson number, n/d
   -0.000000   30.84289  0.2034E-14  0.5010E-05  0.3196E-06  0.5073E-04  0.8223E-03  0.1619E+05
   -0.049997   30.87562  0.2034E-14  0.8733E-05  0.1419E-06  0.1857E-03  0.4681E-03  0.1220E+03
   -0.099994   30.88760  0.2034E-14  0.1058E-04  0.9801E-07  0.4162E-03  0.3429E-03  0.9968E+02
   -0.149992   30.89093  0.2034E-14  0.1173E-04  0.8255E-07  0.4950E-03  0.3039E-03  0.4914E+02
   -0.199991   30.89361  0.2034E-14  0.1263E-04  0.7343E-07  0.6621E-03  0.2719E-03  0.3206E+02
   -0.249989   30.89556  0.2034E-14  0.1334E-04  0.6744E-07  0.7895E-03  0.2479E-03  0.2372E+02
   -0.299988   30.89715  0.2034E-14  0.1392E-04  0.6316E-07  0.9172E-03  0.2280E-03  0.1901E+02
   -0.349988   30.89848  0.2034E-14  0.1440E-04  0.5995E-07  0.1032E-02  0.2109E-03  0.1617E+02
   -0.399988   30.89963  0.2034E-14  0.1480E-04  0.5745E-07  0.1138E-02  0.1957E-03  0.1449E+02
   -0.449988   30.90065  0.2034E-14  0.1515E-04  0.5541E-07  0.1235E-02  0.1824E-03  0.1350E+02
   -0.499988   30.90158  0.2034E-14  0.1545E-04  0.5372E-07  0.1325E-02  0.1706E-03  0.1322E+02
   -0.549989   30.90242  0.2034E-14  0.1571E-04  0.5231E-07  0.1406E-02  0.1600E-03  0.1292E+02
   -0.599989   30.90321  0.2034E-14  0.1593E-04  0.5112E-07  0.1480E-02  0.1504E-03  0.1302E+02
   -0.649990   30.90394  0.2034E-14  0.1611E-04  0.5011E-07  0.1546E-02  0.1416E-03  0.1305E+02
   -0.699992   30.90463  0.2034E-14  0.1627E-04  0.4926E-07  0.1604E-02  0.1335E-03  0.1345E+02
   -0.749993   30.90528  0.2034E-14  0.1640E-04  0.4855E-07  0.1654E-02  0.1261E-03  0.1375E+02
   -0.799994   30.90591  0.2034E-14  0.1651E-04  0.4796E-07  0.1696E-02  0.1191E-03  0.1444E+02
   -0.849996   30.90651  0.2034E-14  0.1659E-04  0.4749E-07  0.1730E-02  0.1126E-03  0.1503E+02
   -0.899998   30.90710  0.2034E-14  0.1664E-04  0.4713E-07  0.1756E-02  0.1065E-03  0.1608E+02
   -0.949999   30.90767  0.2034E-14  0.1667E-04  0.4687E-07  0.1773E-02  0.1008E-03  0.1703E+02
   -1.000001   30.90823  0.2034E-14  0.1668E-04  0.4673E-07  0.1782E-02  0.9530E-04  0.1858E+02
   -1.050003   30.90878  0.2034E-14  0.1667E-04  0.4670E-07  0.1780E-02  0.9012E-04  0.2082E+02
   -1.100004   30.90933  0.2034E-14  0.1663E-04  0.4680E-07  0.1881E-02  0.8516E-04  0.6847E+02
   -1.150006   30.90984  0.2034E-14  0.1657E-04  0.4705E-07  0.1674E-02  0.8076E-04  0.1641E+03
   -1.200008   30.91042  0.2034E-14  0.1648E-04  0.4744E-07  0.1711E-02  0.7611E-04  0.3049E+02
   -1.250009   30.91098  0.2034E-14  0.1637E-04  0.4803E-07  0.1679E-02  0.7169E-04  0.3277E+02
   -1.300010   30.91155  0.2034E-14  0.1622E-04  0.4886E-07  0.1624E-02  0.6744E-04  0.3824E+02
   -1.350012   30.91213  0.2034E-14  0.1604E-04  0.5000E-07  0.1561E-02  0.6330E-04  0.4655E+02
   -1.400013   30.91273  0.2034E-14  0.1581E-04  0.5155E-07  0.1478E-02  0.5926E-04  0.5781E+02
   -1.450013   30.91337  0.2034E-14  0.1554E-04  0.5367E-07  0.1397E-02  0.5528E-04  0.7544E+02
   -1.500014   30.91405  0.2034E-14  0.1521E-04  0.5666E-07  0.1279E-02  0.5136E-04  0.1047E+03
   -1.550014   30.91480  0.2034E-14  0.1481E-04  0.6094E-07  0.1195E-02  0.4739E-04  0.1559E+03
   -1.600014   30.91562  0.2034E-14  0.1430E-04  0.6762E-07  0.1048E-02  0.4350E-04  0.9523E+03
   -1.650014   30.91665  0.2034E-14  0.1365E-04  0.7817E-07  0.9673E-03  0.3926E-04  0.1324E+05
   -1.700014   30.91785  0.2034E-14  0.1274E-04  0.9686E-07  0.7865E-03  0.3503E-04  0.1045E+05
   -1.750013   30.92000  0.2034E-14  0.1158E-04  0.1272E-06  0.7058E-03  0.2939E-04  0.8864E+06
   -1.800011   30.92165  0.2034E-14  0.1007E-04  0.1921E-06  0.4893E-03  0.2516E-04 -0.1296E+06
   -1.850010   30.92945  0.2034E-14  0.8471E-05  0.3157E-06  0.4567E-03  0.1757E-04  0.3769E+08
   -1.900008   30.92705  0.2034E-14  0.6668E-05  0.6636E-06  0.2041E-03  0.1435E-04  0.1036E+06
   -1.950005   30.94941  0.2034E-14  0.4757E-05  0.1605E-05  0.2076E-03  0.7532E-05 -0.4440E+07
   -2.000002   30.94882  0.2034E-14  0.0000E+00  0.0000E+00  0.0000E+00  0.1473E-04  0.0000E+00
