 1 - depth, m
 2 - temperature, C
 3 - salinity, kg/kg
 4 - turbulent kinetic energy, m**2/s**2
 5 - dissipation rate, m**2/s**3
 6 - kinematic heat conductance, m**2/s
 7 - modulus of horizontal velocity, m/s
 8 - Richardson number, n/d
   -0.000000   30.53680  0.1153E-13  0.4815E-05  0.2981E-06  0.4994E-04  0.1342E-02  0.9015E+04
   -0.049997   30.56758  0.1153E-13  0.8281E-05  0.1331E-06  0.1790E-03  0.7612E-03  0.7559E+02
   -0.099994   30.57917  0.1153E-13  0.1004E-04  0.9197E-07  0.3980E-03  0.5603E-03  0.2630E+02
   -0.149992   30.58243  0.1153E-13  0.1114E-04  0.7721E-07  0.4806E-03  0.4947E-03  0.1291E+02
   -0.199991   30.58502  0.1153E-13  0.1200E-04  0.6857E-07  0.6415E-03  0.4419E-03  0.8282E+01
   -0.249989   30.58689  0.1153E-13  0.1268E-04  0.6290E-07  0.7668E-03  0.4023E-03  0.6114E+01
   -0.299988   30.58842  0.1153E-13  0.1324E-04  0.5886E-07  0.8916E-03  0.3693E-03  0.4863E+01
   -0.349988   30.58970  0.1153E-13  0.1370E-04  0.5583E-07  0.1004E-02  0.3411E-03  0.4160E+01
   -0.399988   30.59081  0.1153E-13  0.1408E-04  0.5346E-07  0.1108E-02  0.3161E-03  0.3705E+01
   -0.449988   30.59179  0.1153E-13  0.1441E-04  0.5154E-07  0.1203E-02  0.2941E-03  0.3479E+01
   -0.499988   30.59268  0.1153E-13  0.1470E-04  0.4995E-07  0.1291E-02  0.2747E-03  0.3383E+01
   -0.549989   30.59349  0.1153E-13  0.1495E-04  0.4862E-07  0.1372E-02  0.2573E-03  0.3340E+01
   -0.599990   30.59424  0.1153E-13  0.1516E-04  0.4750E-07  0.1445E-02  0.2416E-03  0.3339E+01
   -0.649991   30.59494  0.1153E-13  0.1534E-04  0.4655E-07  0.1510E-02  0.2272E-03  0.3384E+01
   -0.699992   30.59560  0.1153E-13  0.1549E-04  0.4574E-07  0.1568E-02  0.2140E-03  0.3457E+01
   -0.749993   30.59623  0.1153E-13  0.1562E-04  0.4507E-07  0.1618E-02  0.2018E-03  0.3575E+01
   -0.799995   30.59683  0.1153E-13  0.1572E-04  0.4451E-07  0.1660E-02  0.1905E-03  0.3722E+01
   -0.849996   30.59740  0.1153E-13  0.1580E-04  0.4406E-07  0.1695E-02  0.1799E-03  0.3917E+01
   -0.899998   30.59796  0.1153E-13  0.1586E-04  0.4371E-07  0.1721E-02  0.1699E-03  0.4151E+01
   -0.949999   30.59850  0.1153E-13  0.1589E-04  0.4346E-07  0.1739E-02  0.1605E-03  0.4448E+01
   -1.000001   30.59904  0.1153E-13  0.1590E-04  0.4331E-07  0.1749E-02  0.1517E-03  0.4802E+01
   -1.050003   30.59956  0.1153E-13  0.1590E-04  0.4327E-07  0.1749E-02  0.1433E-03  0.5447E+01
   -1.100005   30.60008  0.1153E-13  0.1587E-04  0.4333E-07  0.1839E-02  0.1352E-03  0.1796E+02
   -1.150006   30.60057  0.1153E-13  0.1581E-04  0.4354E-07  0.1660E-02  0.1281E-03  0.4152E+02
   -1.200008   30.60112  0.1153E-13  0.1574E-04  0.4388E-07  0.1688E-02  0.1206E-03  0.7918E+01
   -1.250009   30.60164  0.1153E-13  0.1563E-04  0.4439E-07  0.1658E-02  0.1135E-03  0.8441E+01
   -1.300011   30.60218  0.1153E-13  0.1550E-04  0.4511E-07  0.1607E-02  0.1067E-03  0.9908E+01
   -1.350012   30.60273  0.1153E-13  0.1534E-04  0.4610E-07  0.1547E-02  0.1000E-03  0.1190E+02
   -1.400013   30.60330  0.1153E-13  0.1513E-04  0.4745E-07  0.1468E-02  0.9356E-04  0.1479E+02
   -1.450014   30.60390  0.1153E-13  0.1489E-04  0.4930E-07  0.1392E-02  0.8719E-04  0.1896E+02
   -1.500014   30.60453  0.1153E-13  0.1459E-04  0.5188E-07  0.1276E-02  0.8095E-04  0.2611E+02
   -1.550015   30.60523  0.1153E-13  0.1422E-04  0.5555E-07  0.1198E-02  0.7464E-04  0.3757E+02
   -1.600015   30.60598  0.1153E-13  0.1377E-04  0.6129E-07  0.1048E-02  0.6851E-04  0.7865E+02
   -1.650014   30.60692  0.1153E-13  0.1318E-04  0.7021E-07  0.9756E-03  0.6179E-04  0.2371E+04
   -1.700014   30.60796  0.1153E-13  0.1237E-04  0.8629E-07  0.7868E-03  0.5531E-04  0.8622E+02
   -1.750013   30.60993  0.1153E-13  0.1131E-04  0.1126E-06  0.7177E-03  0.4639E-04  0.1002E+06
   -1.800012   30.61139  0.1153E-13  0.9925E-05  0.1686E-06  0.4952E-03  0.3985E-04  0.3652E+06
   -1.850010   30.61817  0.1153E-13  0.8388E-05  0.2744E-06  0.4583E-03  0.2803E-04  0.5410E+07
   -1.900008   30.61633  0.1153E-13  0.6644E-05  0.5721E-06  0.2121E-03  0.2291E-04  0.3718E+06
   -1.950005   30.63604  0.1153E-13  0.4663E-05  0.1421E-05  0.1932E-03  0.1217E-04 -0.3497E+06
   -2.000002   30.63806  0.1153E-13  0.0000E+00  0.0000E+00  0.0000E+00  0.2315E-04  0.0000E+00
