 1 - depth, m
 2 - temperature, C
 3 - salinity, kg/kg
 4 - turbulent kinetic energy, m**2/s**2
 5 - dissipation rate, m**2/s**3
 6 - kinematic heat conductance, m**2/s
 7 - modulus of horizontal velocity, m/s
 8 - Richardson number, n/d
   -0.000000   30.86027  0.8726E-13  0.5342E-05  0.3501E-06  0.5363E-04  0.1965E-02  0.3128E+04
   -0.049997   30.89338  0.8726E-13  0.8992E-05  0.1560E-06  0.1816E-03  0.1129E-02  0.6550E+04
   -0.099994   30.90635  0.8726E-13  0.1090E-04  0.1067E-06  0.4072E-03  0.8311E-03  0.1327E+02
   -0.149992   30.90996  0.8726E-13  0.1210E-04  0.8911E-07  0.4888E-03  0.7345E-03  0.6532E+01
   -0.199990   30.91284  0.8726E-13  0.1303E-04  0.7886E-07  0.6566E-03  0.6562E-03  0.4156E+01
   -0.249989   30.91492  0.8726E-13  0.1377E-04  0.7218E-07  0.7853E-03  0.5979E-03  0.3059E+01
   -0.299988   30.91660  0.8726E-13  0.1437E-04  0.6743E-07  0.9148E-03  0.5494E-03  0.2424E+01
   -0.349988   30.91801  0.8726E-13  0.1487E-04  0.6387E-07  0.1032E-02  0.5079E-03  0.2068E+01
   -0.399987   30.91923  0.8726E-13  0.1528E-04  0.6110E-07  0.1139E-02  0.4712E-03  0.1837E+01
   -0.449987   30.92031  0.8726E-13  0.1564E-04  0.5885E-07  0.1238E-02  0.4390E-03  0.1722E+01
   -0.499988   30.92128  0.8726E-13  0.1594E-04  0.5699E-07  0.1329E-02  0.4104E-03  0.1671E+01
   -0.549988   30.92216  0.8726E-13  0.1621E-04  0.5543E-07  0.1412E-02  0.3848E-03  0.1647E+01
   -0.599989   30.92298  0.8726E-13  0.1644E-04  0.5412E-07  0.1488E-02  0.3616E-03  0.1643E+01
   -0.649990   30.92375  0.8726E-13  0.1663E-04  0.5301E-07  0.1555E-02  0.3404E-03  0.1660E+01
   -0.699991   30.92446  0.8726E-13  0.1679E-04  0.5208E-07  0.1615E-02  0.3210E-03  0.1691E+01
   -0.749992   30.92515  0.8726E-13  0.1692E-04  0.5130E-07  0.1666E-02  0.3030E-03  0.1744E+01
   -0.799994   30.92580  0.8726E-13  0.1703E-04  0.5065E-07  0.1709E-02  0.2863E-03  0.1813E+01
   -0.849995   30.92643  0.8726E-13  0.1711E-04  0.5013E-07  0.1744E-02  0.2707E-03  0.1906E+01
   -0.899997   30.92704  0.8726E-13  0.1717E-04  0.4973E-07  0.1770E-02  0.2561E-03  0.2018E+01
   -0.949998   30.92763  0.8726E-13  0.1720E-04  0.4945E-07  0.1788E-02  0.2422E-03  0.2161E+01
   -1.000000   30.92821  0.8726E-13  0.1721E-04  0.4929E-07  0.1798E-02  0.2291E-03  0.2331E+01
   -1.050002   30.92879  0.8726E-13  0.1720E-04  0.4926E-07  0.1796E-02  0.2166E-03  0.2643E+01
   -1.100003   30.92935  0.8726E-13  0.1716E-04  0.4935E-07  0.1897E-02  0.2048E-03  0.8627E+01
   -1.150005   30.92989  0.8726E-13  0.1710E-04  0.4962E-07  0.1689E-02  0.1942E-03  0.2047E+02
   -1.200007   30.93049  0.8726E-13  0.1701E-04  0.5004E-07  0.1726E-02  0.1830E-03  0.3860E+01
   -1.250008   30.93107  0.8726E-13  0.1689E-04  0.5067E-07  0.1694E-02  0.1725E-03  0.4108E+01
   -1.300009   30.93166  0.8726E-13  0.1674E-04  0.5156E-07  0.1639E-02  0.1622E-03  0.4837E+01
   -1.350010   30.93227  0.8726E-13  0.1655E-04  0.5278E-07  0.1575E-02  0.1523E-03  0.5830E+01
   -1.400011   30.93290  0.8726E-13  0.1632E-04  0.5445E-07  0.1491E-02  0.1426E-03  0.7290E+01
   -1.450012   30.93356  0.8726E-13  0.1604E-04  0.5675E-07  0.1411E-02  0.1330E-03  0.9430E+01
   -1.500013   30.93427  0.8726E-13  0.1569E-04  0.5998E-07  0.1291E-02  0.1236E-03  0.1317E+02
   -1.550013   30.93506  0.8726E-13  0.1527E-04  0.6463E-07  0.1211E-02  0.1141E-03  0.1971E+02
   -1.600013   30.93591  0.8726E-13  0.1475E-04  0.7204E-07  0.1058E-02  0.1047E-03  0.2954E+04
   -1.650013   30.93703  0.8726E-13  0.1406E-04  0.8358E-07  0.9812E-03  0.9426E-04  0.1213E+03
   -1.700012   30.93827  0.8726E-13  0.1312E-04  0.1038E-06  0.7946E-03  0.8410E-04  0.5979E+05
   -1.750011   30.94058  0.8726E-13  0.1193E-04  0.1371E-06  0.7197E-03  0.7026E-04  0.7925E+05
   -1.800010   30.94221  0.8726E-13  0.1040E-04  0.2094E-06  0.4955E-03  0.6036E-04  0.2717E+05
   -1.850008   30.95057  0.8726E-13  0.8785E-05  0.3452E-06  0.4625E-03  0.4185E-04  0.4685E+07
   -1.900006   30.94787  0.8726E-13  0.6981E-05  0.7210E-06  0.2176E-03  0.3440E-04 -0.4862E+05
   -1.950003   30.97132  0.8726E-13  0.4982E-05  0.1751E-05  0.2098E-03  0.1824E-04 -0.9213E+06
   -2.000000   30.97277  0.8726E-13  0.0000E+00  0.0000E+00  0.0000E+00  0.3584E-04  0.0000E+00
