 1 - depth, m
 2 - temperature, C
 3 - salinity, kg/kg
 4 - turbulent kinetic energy, m**2/s**2
 5 - dissipation rate, m**2/s**3
 6 - kinematic heat conductance, m**2/s
 7 - modulus of horizontal velocity, m/s
 8 - Richardson number, n/d
   -0.000000   30.23611  0.6333E-14  0.5139E-05  0.2907E-06  0.5054E-04  0.3149E-02  0.1820E+04
   -0.049997   30.26516  0.6333E-14  0.8377E-05  0.1262E-06  0.2000E-03  0.1684E-02  0.7035E+03
   -0.099994   30.27420  0.6333E-14  0.9910E-05  0.8927E-07  0.3867E-03  0.1318E-02  0.6000E+01
   -0.149992   30.27732  0.6333E-14  0.1092E-04  0.7524E-07  0.4817E-03  0.1173E-02  0.3043E+01
   -0.199991   30.27973  0.6333E-14  0.1172E-04  0.6707E-07  0.6207E-03  0.1060E-02  0.2022E+01
   -0.249989   30.28154  0.6333E-14  0.1239E-04  0.6170E-07  0.7337E-03  0.9720E-03  0.1608E+01
   -0.299988   30.28304  0.6333E-14  0.1296E-04  0.5776E-07  0.8517E-03  0.8949E-03  0.1475E+01
   -0.349988   30.28431  0.6333E-14  0.1349E-04  0.5466E-07  0.9772E-03  0.8227E-03  0.1452E+01
   -0.399988   30.28539  0.6333E-14  0.1397E-04  0.5215E-07  0.1106E-02  0.7534E-03  0.1428E+01
   -0.449988   30.28633  0.6333E-14  0.1440E-04  0.5009E-07  0.1231E-02  0.6898E-03  0.1407E+01
   -0.499988   30.28717  0.6333E-14  0.1478E-04  0.4840E-07  0.1348E-02  0.6327E-03  0.1402E+01
   -0.549989   30.28791  0.6333E-14  0.1512E-04  0.4703E-07  0.1455E-02  0.5817E-03  0.1386E+01
   -0.599989   30.28860  0.6333E-14  0.1541E-04  0.4592E-07  0.1550E-02  0.5361E-03  0.1379E+01
   -0.649991   30.28923  0.6333E-14  0.1565E-04  0.4503E-07  0.1634E-02  0.4953E-03  0.1365E+01
   -0.699992   30.28982  0.6333E-14  0.1585E-04  0.4433E-07  0.1704E-02  0.4586E-03  0.1359E+01
   -0.749993   30.29039  0.6333E-14  0.1602E-04  0.4380E-07  0.1761E-02  0.4257E-03  0.1346E+01
   -0.799995   30.29093  0.6333E-14  0.1615E-04  0.4342E-07  0.1806E-02  0.3961E-03  0.1343E+01
   -0.849996   30.29145  0.6333E-14  0.1625E-04  0.4317E-07  0.1837E-02  0.3696E-03  0.1333E+01
   -0.899998   30.29196  0.6333E-14  0.1632E-04  0.4304E-07  0.1857E-02  0.3456E-03  0.1338E+01
   -0.949999   30.29246  0.6333E-14  0.1636E-04  0.4302E-07  0.1865E-02  0.3240E-03  0.1337E+01
   -1.000001   30.29296  0.6333E-14  0.1638E-04  0.4311E-07  0.1864E-02  0.3044E-03  0.1363E+01
   -1.050003   30.29346  0.6333E-14  0.1637E-04  0.4331E-07  0.1851E-02  0.2867E-03  0.1440E+01
   -1.100005   30.29395  0.6333E-14  0.1634E-04  0.4360E-07  0.1983E-02  0.2705E-03  0.4395E+01
   -1.150006   30.29442  0.6333E-14  0.1629E-04  0.4404E-07  0.1702E-02  0.2571E-03  0.1077E+02
   -1.200008   30.29496  0.6333E-14  0.1622E-04  0.4460E-07  0.1762E-02  0.2423E-03  0.2002E+01
   -1.250009   30.29548  0.6333E-14  0.1612E-04  0.4537E-07  0.1726E-02  0.2285E-03  0.2154E+01
   -1.300011   30.29601  0.6333E-14  0.1599E-04  0.4638E-07  0.1666E-02  0.2152E-03  0.2535E+01
   -1.350012   30.29657  0.6333E-14  0.1582E-04  0.4769E-07  0.1597E-02  0.2022E-03  0.3090E+01
   -1.400013   30.29715  0.6333E-14  0.1562E-04  0.4943E-07  0.1510E-02  0.1894E-03  0.3867E+01
   -1.450014   30.29776  0.6333E-14  0.1537E-04  0.5175E-07  0.1424E-02  0.1768E-03  0.5055E+01
   -1.500014   30.29842  0.6333E-14  0.1506E-04  0.5496E-07  0.1305E-02  0.1644E-03  0.7061E+01
   -1.550015   30.29916  0.6333E-14  0.1468E-04  0.5951E-07  0.1217E-02  0.1517E-03  0.1143E+02
   -1.600015   30.29998  0.6333E-14  0.1419E-04  0.6658E-07  0.1068E-02  0.1392E-03  0.1972E+02
   -1.650014   30.30104  0.6333E-14  0.1355E-04  0.7755E-07  0.9830E-03  0.1255E-03  0.4471E+03
   -1.700014   30.30227  0.6333E-14  0.1267E-04  0.9701E-07  0.7983E-03  0.1116E-03  0.1122E+04
   -1.750013   30.30443  0.6333E-14  0.1157E-04  0.1278E-06  0.7187E-03  0.9361E-04  0.9852E+05
   -1.800012   30.30604  0.6333E-14  0.1013E-04  0.1945E-06  0.4909E-03  0.8029E-04  0.3073E+05
   -1.850010   30.31413  0.6333E-14  0.8608E-05  0.3188E-06  0.4638E-03  0.5599E-04  0.1118E+08
   -1.900008   30.31147  0.6333E-14  0.6878E-05  0.6692E-06  0.2103E-03  0.4616E-04  0.6306E+04
   -1.950005   30.33458  0.6333E-14  0.4883E-05  0.1613E-05  0.2052E-03  0.2463E-04 -0.1494E+06
   -2.000002   30.33563  0.6333E-14  0.0000E+00  0.0000E+00  0.0000E+00  0.4749E-04  0.0000E+00
