 1 - depth, m
 2 - temperature, C
 3 - salinity, kg/kg
 4 - turbulent kinetic energy, m**2/s**2
 5 - dissipation rate, m**2/s**3
 6 - kinematic heat conductance, m**2/s
 7 - modulus of horizontal velocity, m/s
 8 - Richardson number, n/d
   -0.000000   29.84368  0.1528E-14  0.5033E-05  0.2995E-06  0.5095E-04  0.2448E-02  0.2571E+04
   -0.049997   29.87411  0.1529E-14  0.8390E-05  0.1320E-06  0.1882E-03  0.1343E-02  0.8815E+02
   -0.099994   29.88464  0.1529E-14  0.1004E-04  0.9205E-07  0.3909E-03  0.1019E-02  0.9206E+01
   -0.149992   29.88795  0.1529E-14  0.1110E-04  0.7725E-07  0.4809E-03  0.9011E-03  0.4602E+01
   -0.199991   29.89053  0.1529E-14  0.1193E-04  0.6859E-07  0.6330E-03  0.8079E-03  0.2973E+01
   -0.249989   29.89244  0.1529E-14  0.1259E-04  0.6292E-07  0.7553E-03  0.7370E-03  0.2211E+01
   -0.299989   29.89399  0.1529E-14  0.1313E-04  0.5889E-07  0.8709E-03  0.6780E-03  0.1782E+01
   -0.349988   29.89530  0.1529E-14  0.1359E-04  0.5582E-07  0.9780E-03  0.6268E-03  0.1614E+01
   -0.399988   29.89645  0.1529E-14  0.1399E-04  0.5335E-07  0.1086E-02  0.5796E-03  0.1521E+01
   -0.449988   29.89745  0.1529E-14  0.1434E-04  0.5130E-07  0.1192E-02  0.5364E-03  0.1488E+01
   -0.499988   29.89835  0.1529E-14  0.1465E-04  0.4958E-07  0.1290E-02  0.4976E-03  0.1470E+01
   -0.549989   29.89917  0.1529E-14  0.1492E-04  0.4814E-07  0.1381E-02  0.4625E-03  0.1467E+01
   -0.599990   29.89992  0.1529E-14  0.1516E-04  0.4694E-07  0.1463E-02  0.4308E-03  0.1458E+01
   -0.649991   29.90061  0.1529E-14  0.1535E-04  0.4592E-07  0.1535E-02  0.4021E-03  0.1466E+01
   -0.699992   29.90127  0.1529E-14  0.1551E-04  0.4508E-07  0.1599E-02  0.3761E-03  0.1466E+01
   -0.749993   29.90189  0.1529E-14  0.1564E-04  0.4438E-07  0.1652E-02  0.3523E-03  0.1486E+01
   -0.799995   29.90248  0.1529E-14  0.1575E-04  0.4382E-07  0.1695E-02  0.3308E-03  0.1498E+01
   -0.849996   29.90304  0.1529E-14  0.1582E-04  0.4338E-07  0.1729E-02  0.3110E-03  0.1537E+01
   -0.899998   29.90360  0.1529E-14  0.1587E-04  0.4304E-07  0.1753E-02  0.2930E-03  0.1573E+01
   -0.950000   29.90413  0.1529E-14  0.1590E-04  0.4282E-07  0.1768E-02  0.2763E-03  0.1653E+01
   -1.000001   29.90466  0.1529E-14  0.1590E-04  0.4269E-07  0.1775E-02  0.2609E-03  0.1747E+01
   -1.050003   29.90518  0.1529E-14  0.1588E-04  0.4267E-07  0.1771E-02  0.2464E-03  0.1975E+01
   -1.100005   29.90570  0.1529E-14  0.1584E-04  0.4275E-07  0.1874E-02  0.2328E-03  0.6419E+01
   -1.150006   29.90618  0.1529E-14  0.1578E-04  0.4298E-07  0.1661E-02  0.2207E-03  0.1514E+02
   -1.200008   29.90672  0.1529E-14  0.1570E-04  0.4333E-07  0.1701E-02  0.2078E-03  0.2879E+01
   -1.250010   29.90725  0.1529E-14  0.1558E-04  0.4385E-07  0.1668E-02  0.1957E-03  0.3043E+01
   -1.300011   29.90778  0.1529E-14  0.1544E-04  0.4459E-07  0.1615E-02  0.1839E-03  0.3598E+01
   -1.350012   29.90833  0.1529E-14  0.1527E-04  0.4560E-07  0.1553E-02  0.1725E-03  0.4295E+01
   -1.400013   29.90890  0.1529E-14  0.1506E-04  0.4698E-07  0.1470E-02  0.1614E-03  0.5376E+01
   -1.450014   29.90950  0.1529E-14  0.1480E-04  0.4886E-07  0.1392E-02  0.1504E-03  0.6864E+01
   -1.500015   29.91013  0.1529E-14  0.1449E-04  0.5150E-07  0.1273E-02  0.1397E-03  0.9524E+01
   -1.550015   29.91083  0.1529E-14  0.1412E-04  0.5525E-07  0.1193E-02  0.1288E-03  0.1370E+02
   -1.600015   29.91158  0.1529E-14  0.1365E-04  0.6114E-07  0.1042E-02  0.1182E-03  0.2852E+02
   -1.650015   29.91254  0.1529E-14  0.1304E-04  0.7031E-07  0.9699E-03  0.1065E-03  0.1921E+03
   -1.700014   29.91359  0.1529E-14  0.1221E-04  0.8690E-07  0.7797E-03  0.9532E-04 -0.2110E+04
   -1.750013   29.91562  0.1529E-14  0.1111E-04  0.1142E-06  0.7102E-03  0.7956E-04  0.1110E+06
   -1.800012   29.91710  0.1529E-14  0.9676E-05  0.1743E-06  0.4824E-03  0.6820E-04  0.6832E+04
   -1.850010   29.92427  0.1529E-14  0.8125E-05  0.2845E-06  0.4521E-03  0.4724E-04  0.1342E+09
   -1.900008   29.92201  0.1529E-14  0.6427E-05  0.5988E-06  0.2103E-03  0.3872E-04 -0.1474E+05
   -1.950006   29.94224  0.1529E-14  0.4527E-05  0.1473E-05  0.1990E-03  0.2028E-04 -0.2432E+06
   -2.000003   29.94357  0.1529E-14  0.0000E+00  0.0000E+00  0.0000E+00  0.4005E-04  0.0000E+00
