 1 - depth, m
 2 - temperature, C
 3 - salinity, kg/kg
 4 - turbulent kinetic energy, m**2/s**2
 5 - dissipation rate, m**2/s**3
 6 - kinematic heat conductance, m**2/s
 7 - modulus of horizontal velocity, m/s
 8 - Richardson number, n/d
   -0.000000   30.48501  0.2553E-14  0.4473E-05  0.2658E-06  0.4716E-04  0.4685E-03  0.9457E+05
   -0.049997   30.51411  0.2553E-14  0.7968E-05  0.1177E-06  0.1829E-03  0.2602E-03  0.1130E+03
   -0.099994   30.52412  0.2553E-14  0.9631E-05  0.8204E-07  0.4117E-03  0.1904E-03  0.1976E+03
   -0.149992   30.52694  0.2553E-14  0.1068E-04  0.6954E-07  0.4891E-03  0.1687E-03  0.9753E+02
   -0.199991   30.52922  0.2553E-14  0.1149E-04  0.6215E-07  0.6504E-03  0.1509E-03  0.6423E+02
   -0.249989   30.53089  0.2553E-14  0.1215E-04  0.5728E-07  0.7753E-03  0.1375E-03  0.4805E+02
   -0.299988   30.53226  0.2553E-14  0.1269E-04  0.5381E-07  0.8987E-03  0.1263E-03  0.3865E+02
   -0.349988   30.53342  0.2553E-14  0.1314E-04  0.5121E-07  0.1011E-02  0.1167E-03  0.3330E+02
   -0.399988   30.53443  0.2553E-14  0.1353E-04  0.4920E-07  0.1113E-02  0.1082E-03  0.2984E+02
   -0.449988   30.53533  0.2553E-14  0.1386E-04  0.4758E-07  0.1208E-02  0.1007E-03  0.2812E+02
   -0.499988   30.53614  0.2553E-14  0.1415E-04  0.4624E-07  0.1296E-02  0.9406E-04  0.2744E+02
   -0.549989   30.53689  0.2553E-14  0.1441E-04  0.4514E-07  0.1376E-02  0.8811E-04  0.2715E+02
   -0.599989   30.53758  0.2553E-14  0.1463E-04  0.4423E-07  0.1448E-02  0.8273E-04  0.2727E+02
   -0.649991   30.53823  0.2553E-14  0.1483E-04  0.4347E-07  0.1513E-02  0.7782E-04  0.2771E+02
   -0.699992   30.53884  0.2553E-14  0.1500E-04  0.4284E-07  0.1571E-02  0.7330E-04  0.2846E+02
   -0.749993   30.53943  0.2553E-14  0.1514E-04  0.4234E-07  0.1621E-02  0.6912E-04  0.2951E+02
   -0.799995   30.53999  0.2553E-14  0.1527E-04  0.4194E-07  0.1663E-02  0.6524E-04  0.3090E+02
   -0.849996   30.54054  0.2553E-14  0.1537E-04  0.4164E-07  0.1698E-02  0.6161E-04  0.3263E+02
   -0.899998   30.54107  0.2553E-14  0.1545E-04  0.4144E-07  0.1725E-02  0.5821E-04  0.3478E+02
   -0.949999   30.54158  0.2553E-14  0.1551E-04  0.4133E-07  0.1743E-02  0.5499E-04  0.3739E+02
   -1.000001   30.54210  0.2553E-14  0.1555E-04  0.4132E-07  0.1754E-02  0.5195E-04  0.4060E+02
   -1.050003   30.54260  0.2553E-14  0.1557E-04  0.4141E-07  0.1755E-02  0.4907E-04  0.4628E+02
   -1.100005   30.54311  0.2553E-14  0.1557E-04  0.4160E-07  0.1839E-02  0.4632E-04  0.1550E+03
   -1.150006   30.54359  0.2553E-14  0.1555E-04  0.4193E-07  0.1676E-02  0.4386E-04  0.3451E+03
   -1.200008   30.54412  0.2553E-14  0.1551E-04  0.4238E-07  0.1698E-02  0.4132E-04  0.6740E+02
   -1.250009   30.54464  0.2553E-14  0.1544E-04  0.4299E-07  0.1667E-02  0.3888E-04  0.7255E+02
   -1.300011   30.54517  0.2553E-14  0.1534E-04  0.4381E-07  0.1618E-02  0.3653E-04  0.8517E+02
   -1.350012   30.54572  0.2553E-14  0.1522E-04  0.4489E-07  0.1560E-02  0.3426E-04  0.1023E+03
   -1.400013   30.54629  0.2553E-14  0.1505E-04  0.4630E-07  0.1484E-02  0.3204E-04  0.1265E+03
   -1.450014   30.54689  0.2553E-14  0.1485E-04  0.4816E-07  0.1407E-02  0.2986E-04  0.1613E+03
   -1.500014   30.54753  0.2553E-14  0.1460E-04  0.5070E-07  0.1296E-02  0.2773E-04  0.2182E+03
   -1.550015   30.54823  0.2553E-14  0.1428E-04  0.5423E-07  0.1211E-02  0.2558E-04  0.3089E+03
   -1.600015   30.54900  0.2553E-14  0.1388E-04  0.5951E-07  0.1067E-02  0.2348E-04  0.5535E+03
   -1.650014   30.54992  0.2553E-14  0.1337E-04  0.6751E-07  0.9864E-03  0.2123E-04  0.5285E+04
   -1.700014   30.55095  0.2553E-14  0.1266E-04  0.8178E-07  0.8077E-03  0.1906E-04 -0.1246E+05
   -1.750013   30.55278  0.2553E-14  0.1169E-04  0.1055E-06  0.7274E-03  0.1618E-04  0.3490E+06
   -1.800012   30.55443  0.2553E-14  0.1036E-04  0.1552E-06  0.5111E-03  0.1386E-04  0.2605E+06
   -1.850010   30.56047  0.2553E-14  0.8837E-05  0.2473E-06  0.4644E-03  0.9994E-05  0.9116E+09
   -1.900008   30.55982  0.2553E-14  0.7015E-05  0.5173E-06  0.2092E-03  0.8062E-05 -0.2462E+07
   -1.950005   30.57982  0.2553E-14  0.4906E-05  0.1299E-05  0.1826E-03  0.4356E-05 -0.5532E+07
   -2.000002   30.58210  0.2553E-14  0.0000E+00  0.0000E+00  0.0000E+00  0.7873E-05  0.0000E+00
