 1 - depth, m
 2 - temperature, C
 3 - salinity, kg/kg
 4 - turbulent kinetic energy, m**2/s**2
 5 - dissipation rate, m**2/s**3
 6 - kinematic heat conductance, m**2/s
 7 - modulus of horizontal velocity, m/s
 8 - Richardson number, n/d
   -0.000000   30.76028  0.1058E-14  0.5001E-05  0.3180E-06  0.5162E-04  0.1502E-02  0.9963E+04
   -0.049997   30.79175  0.1058E-14  0.8545E-05  0.1420E-06  0.1785E-03  0.8620E-03  0.8744E+04
   -0.099994   30.80406  0.1058E-14  0.1037E-04  0.9750E-07  0.4032E-03  0.6313E-03  0.2150E+02
   -0.149992   30.80745  0.1058E-14  0.1152E-04  0.8171E-07  0.4833E-03  0.5578E-03  0.1054E+02
   -0.199991   30.81015  0.1058E-14  0.1240E-04  0.7246E-07  0.6478E-03  0.4981E-03  0.6741E+01
   -0.249989   30.81211  0.1058E-14  0.1311E-04  0.6640E-07  0.7745E-03  0.4536E-03  0.4970E+01
   -0.299988   30.81369  0.1058E-14  0.1368E-04  0.6208E-07  0.9013E-03  0.4165E-03  0.3945E+01
   -0.349988   30.81502  0.1058E-14  0.1415E-04  0.5883E-07  0.1016E-02  0.3848E-03  0.3369E+01
   -0.399988   30.81617  0.1058E-14  0.1454E-04  0.5630E-07  0.1121E-02  0.3568E-03  0.2995E+01
   -0.449988   30.81719  0.1058E-14  0.1488E-04  0.5423E-07  0.1218E-02  0.3321E-03  0.2810E+01
   -0.499988   30.81810  0.1058E-14  0.1518E-04  0.5252E-07  0.1308E-02  0.3103E-03  0.2727E+01
   -0.549989   30.81894  0.1058E-14  0.1543E-04  0.5108E-07  0.1390E-02  0.2907E-03  0.2688E+01
   -0.599989   30.81971  0.1058E-14  0.1564E-04  0.4987E-07  0.1464E-02  0.2730E-03  0.2682E+01
   -0.649990   30.82044  0.1058E-14  0.1582E-04  0.4883E-07  0.1530E-02  0.2569E-03  0.2713E+01
   -0.699992   30.82112  0.1058E-14  0.1598E-04  0.4795E-07  0.1589E-02  0.2421E-03  0.2766E+01
   -0.749993   30.82176  0.1058E-14  0.1610E-04  0.4720E-07  0.1640E-02  0.2284E-03  0.2854E+01
   -0.799994   30.82237  0.1058E-14  0.1620E-04  0.4658E-07  0.1684E-02  0.2156E-03  0.2963E+01
   -0.849996   30.82296  0.1058E-14  0.1628E-04  0.4606E-07  0.1719E-02  0.2037E-03  0.3111E+01
   -0.899998   30.82354  0.1058E-14  0.1633E-04  0.4565E-07  0.1747E-02  0.1926E-03  0.3288E+01
   -0.949999   30.82409  0.1058E-14  0.1636E-04  0.4535E-07  0.1766E-02  0.1820E-03  0.3513E+01
   -1.000001   30.82464  0.1058E-14  0.1637E-04  0.4515E-07  0.1777E-02  0.1720E-03  0.3780E+01
   -1.050003   30.82517  0.1058E-14  0.1636E-04  0.4505E-07  0.1778E-02  0.1626E-03  0.4274E+01
   -1.100004   30.82570  0.1058E-14  0.1632E-04  0.4508E-07  0.1868E-02  0.1536E-03  0.1410E+02
   -1.150006   30.82620  0.1058E-14  0.1626E-04  0.4524E-07  0.1690E-02  0.1455E-03  0.3213E+02
   -1.200008   30.82674  0.1058E-14  0.1618E-04  0.4553E-07  0.1719E-02  0.1371E-03  0.6143E+01
   -1.250009   30.82727  0.1058E-14  0.1607E-04  0.4600E-07  0.1689E-02  0.1291E-03  0.6517E+01
   -1.300010   30.82781  0.1058E-14  0.1593E-04  0.4669E-07  0.1638E-02  0.1214E-03  0.7618E+01
   -1.350012   30.82836  0.1058E-14  0.1576E-04  0.4764E-07  0.1579E-02  0.1139E-03  0.9097E+01
   -1.400013   30.82893  0.1058E-14  0.1555E-04  0.4896E-07  0.1500E-02  0.1066E-03  0.1124E+02
   -1.450013   30.82953  0.1058E-14  0.1529E-04  0.5076E-07  0.1423E-02  0.9948E-04  0.1432E+02
   -1.500014   30.83015  0.1058E-14  0.1499E-04  0.5330E-07  0.1309E-02  0.9244E-04  0.1953E+02
   -1.550014   30.83084  0.1058E-14  0.1462E-04  0.5691E-07  0.1225E-02  0.8536E-04  0.2790E+02
   -1.600014   30.83158  0.1058E-14  0.1416E-04  0.6252E-07  0.1080E-02  0.7843E-04  0.5722E+02
   -1.650014   30.83249  0.1058E-14  0.1357E-04  0.7122E-07  0.9983E-03  0.7093E-04  0.2749E+03
   -1.700014   30.83350  0.1058E-14  0.1277E-04  0.8673E-07  0.8162E-03  0.6364E-04  0.4182E+05
   -1.750013   30.83533  0.1058E-14  0.1171E-04  0.1125E-06  0.7374E-03  0.5389E-04  0.3564E+05
   -1.800012   30.83681  0.1058E-14  0.1030E-04  0.1686E-06  0.5160E-03  0.4627E-04  0.1779E+06
   -1.850010   30.84299  0.1058E-14  0.8753E-05  0.2711E-06  0.4761E-03  0.3316E-04  0.1441E+08
   -1.900008   30.84160  0.1058E-14  0.6925E-05  0.5640E-06  0.2164E-03  0.2709E-04 -0.8040E+05
   -1.950005   30.86039  0.1058E-14  0.4837E-05  0.1406E-05  0.1921E-03  0.1459E-04 -0.5136E+06
   -2.000002   30.86199  0.1058E-14  0.0000E+00  0.0000E+00  0.0000E+00  0.2693E-04  0.0000E+00
