 1 - depth, m
 2 - temperature, C
 3 - salinity, kg/kg
 4 - turbulent kinetic energy, m**2/s**2
 5 - dissipation rate, m**2/s**3
 6 - kinematic heat conductance, m**2/s
 7 - modulus of horizontal velocity, m/s
 8 - Richardson number, n/d
   -0.000000   30.62970  0.1145E-13  0.5115E-05  0.3289E-06  0.5265E-04  0.2006E-02  0.4319E+04
   -0.049997   30.66077  0.1145E-13  0.8627E-05  0.1463E-06  0.1766E-03  0.1160E-02  0.2928E+04
   -0.099994   30.67339  0.1145E-13  0.1048E-04  0.9975E-07  0.4047E-03  0.8454E-03  0.1194E+02
   -0.149992   30.67678  0.1145E-13  0.1164E-04  0.8344E-07  0.4833E-03  0.7474E-03  0.5843E+01
   -0.199991   30.67951  0.1145E-13  0.1254E-04  0.7392E-07  0.6494E-03  0.6673E-03  0.3727E+01
   -0.249989   30.68148  0.1145E-13  0.1325E-04  0.6771E-07  0.7765E-03  0.6077E-03  0.2743E+01
   -0.299988   30.68308  0.1145E-13  0.1383E-04  0.6329E-07  0.9045E-03  0.5581E-03  0.2178E+01
   -0.349988   30.68442  0.1145E-13  0.1432E-04  0.5999E-07  0.1020E-02  0.5157E-03  0.1859E+01
   -0.399988   30.68558  0.1145E-13  0.1472E-04  0.5742E-07  0.1126E-02  0.4782E-03  0.1655E+01
   -0.449988   30.68661  0.1145E-13  0.1507E-04  0.5534E-07  0.1224E-02  0.4453E-03  0.1551E+01
   -0.499988   30.68754  0.1145E-13  0.1537E-04  0.5362E-07  0.1315E-02  0.4161E-03  0.1507E+01
   -0.549989   30.68839  0.1145E-13  0.1564E-04  0.5218E-07  0.1397E-02  0.3900E-03  0.1485E+01
   -0.599989   30.68917  0.1145E-13  0.1586E-04  0.5097E-07  0.1472E-02  0.3663E-03  0.1484E+01
   -0.649990   30.68990  0.1145E-13  0.1605E-04  0.4995E-07  0.1539E-02  0.3448E-03  0.1501E+01
   -0.699992   30.69059  0.1145E-13  0.1621E-04  0.4909E-07  0.1598E-02  0.3250E-03  0.1534E+01
   -0.749993   30.69125  0.1145E-13  0.1635E-04  0.4837E-07  0.1650E-02  0.3067E-03  0.1583E+01
   -0.799994   30.69188  0.1145E-13  0.1646E-04  0.4777E-07  0.1693E-02  0.2897E-03  0.1648E+01
   -0.849996   30.69248  0.1145E-13  0.1654E-04  0.4729E-07  0.1729E-02  0.2737E-03  0.1732E+01
   -0.899998   30.69307  0.1145E-13  0.1661E-04  0.4692E-07  0.1756E-02  0.2588E-03  0.1836E+01
   -0.949999   30.69363  0.1145E-13  0.1664E-04  0.4666E-07  0.1775E-02  0.2447E-03  0.1964E+01
   -1.000001   30.69419  0.1145E-13  0.1666E-04  0.4651E-07  0.1786E-02  0.2314E-03  0.2120E+01
   -1.050003   30.69474  0.1145E-13  0.1666E-04  0.4647E-07  0.1786E-02  0.2187E-03  0.2400E+01
   -1.100004   30.69529  0.1145E-13  0.1663E-04  0.4655E-07  0.1879E-02  0.2066E-03  0.7919E+01
   -1.150006   30.69580  0.1145E-13  0.1657E-04  0.4678E-07  0.1694E-02  0.1959E-03  0.1821E+02
   -1.200008   30.69637  0.1145E-13  0.1650E-04  0.4715E-07  0.1724E-02  0.1846E-03  0.3478E+01
   -1.250009   30.69693  0.1145E-13  0.1639E-04  0.4771E-07  0.1693E-02  0.1739E-03  0.3706E+01
   -1.300010   30.69749  0.1145E-13  0.1625E-04  0.4850E-07  0.1641E-02  0.1635E-03  0.4344E+01
   -1.350011   30.69807  0.1145E-13  0.1608E-04  0.4958E-07  0.1580E-02  0.1535E-03  0.5212E+01
   -1.400012   30.69867  0.1145E-13  0.1587E-04  0.5104E-07  0.1500E-02  0.1437E-03  0.6465E+01
   -1.450013   30.69930  0.1145E-13  0.1562E-04  0.5304E-07  0.1421E-02  0.1340E-03  0.8280E+01
   -1.500014   30.69996  0.1145E-13  0.1531E-04  0.5582E-07  0.1305E-02  0.1246E-03  0.1136E+02
   -1.550014   30.70070  0.1145E-13  0.1493E-04  0.5978E-07  0.1222E-02  0.1150E-03  0.1643E+02
   -1.600014   30.70149  0.1145E-13  0.1446E-04  0.6589E-07  0.1072E-02  0.1056E-03  0.3557E+02
   -1.650014   30.70248  0.1145E-13  0.1384E-04  0.7542E-07  0.9941E-03  0.9549E-04  0.1151E+03
   -1.700013   30.70360  0.1145E-13  0.1301E-04  0.9239E-07  0.8054E-03  0.8551E-04 -0.4621E+04
   -1.750013   30.70561  0.1145E-13  0.1191E-04  0.1201E-06  0.7309E-03  0.7216E-04  0.1134E+06
   -1.800011   30.70718  0.1145E-13  0.1047E-04  0.1799E-06  0.5059E-03  0.6203E-04  0.1580E+04
   -1.850010   30.71420  0.1145E-13  0.8872E-05  0.2913E-06  0.4677E-03  0.4411E-04  0.2119E+09
   -1.900007   30.71252  0.1145E-13  0.7006E-05  0.6108E-06  0.2126E-03  0.3594E-04 -0.5301E+05
   -1.950005   30.73354  0.1145E-13  0.4934E-05  0.1508E-05  0.1973E-03  0.1918E-04 -0.1117E+06
   -2.000002   30.73492  0.1145E-13  0.0000E+00  0.0000E+00  0.0000E+00  0.3603E-04  0.0000E+00
