 1 - depth, m
 2 - temperature, C
 3 - salinity, kg/kg
 4 - turbulent kinetic energy, m**2/s**2
 5 - dissipation rate, m**2/s**3
 6 - kinematic heat conductance, m**2/s
 7 - modulus of horizontal velocity, m/s
 8 - Richardson number, n/d
   -0.000000   29.20285  0.2776E-13  0.4514E-05  0.2502E-06  0.4771E-04  0.2368E-02  0.2118E+04
   -0.049997   29.22987  0.2776E-13  0.7569E-05  0.1103E-06  0.1816E-03  0.1288E-02  0.1736E+03
   -0.099994   29.23900  0.2776E-13  0.9050E-05  0.7729E-07  0.3777E-03  0.9746E-03  0.8808E+01
   -0.149992   29.24190  0.2776E-13  0.1000E-04  0.6505E-07  0.4670E-03  0.8605E-03  0.4367E+01
   -0.199991   29.24415  0.2776E-13  0.1075E-04  0.5787E-07  0.6124E-03  0.7705E-03  0.2841E+01
   -0.249989   29.24583  0.2776E-13  0.1135E-04  0.5316E-07  0.7313E-03  0.7020E-03  0.2104E+01
   -0.299989   29.24719  0.2776E-13  0.1185E-04  0.4981E-07  0.8435E-03  0.6448E-03  0.1701E+01
   -0.349988   29.24835  0.2776E-13  0.1227E-04  0.4728E-07  0.9466E-03  0.5954E-03  0.1526E+01
   -0.399988   29.24936  0.2776E-13  0.1264E-04  0.4526E-07  0.1050E-02  0.5500E-03  0.1449E+01
   -0.449988   29.25026  0.2776E-13  0.1297E-04  0.4358E-07  0.1151E-02  0.5087E-03  0.1412E+01
   -0.499988   29.25106  0.2776E-13  0.1326E-04  0.4218E-07  0.1246E-02  0.4715E-03  0.1405E+01
   -0.549989   29.25178  0.2776E-13  0.1352E-04  0.4102E-07  0.1334E-02  0.4380E-03  0.1394E+01
   -0.599990   29.25245  0.2776E-13  0.1374E-04  0.4004E-07  0.1413E-02  0.4077E-03  0.1396E+01
   -0.649991   29.25308  0.2776E-13  0.1393E-04  0.3923E-07  0.1484E-02  0.3803E-03  0.1395E+01
   -0.699992   29.25366  0.2776E-13  0.1409E-04  0.3856E-07  0.1546E-02  0.3555E-03  0.1406E+01
   -0.749993   29.25421  0.2776E-13  0.1423E-04  0.3801E-07  0.1599E-02  0.3329E-03  0.1415E+01
   -0.799995   29.25475  0.2776E-13  0.1434E-04  0.3758E-07  0.1643E-02  0.3123E-03  0.1440E+01
   -0.849997   29.25526  0.2776E-13  0.1442E-04  0.3724E-07  0.1678E-02  0.2935E-03  0.1466E+01
   -0.899998   29.25575  0.2776E-13  0.1449E-04  0.3700E-07  0.1703E-02  0.2763E-03  0.1518E+01
   -0.950000   29.25624  0.2776E-13  0.1453E-04  0.3684E-07  0.1721E-02  0.2604E-03  0.1583E+01
   -1.000002   29.25671  0.2776E-13  0.1456E-04  0.3677E-07  0.1730E-02  0.2457E-03  0.1697E+01
   -1.050003   29.25718  0.2776E-13  0.1456E-04  0.3678E-07  0.1731E-02  0.2319E-03  0.1911E+01
   -1.100005   29.25765  0.2776E-13  0.1455E-04  0.3688E-07  0.1812E-02  0.2188E-03  0.6414E+01
   -1.150007   29.25810  0.2776E-13  0.1452E-04  0.3709E-07  0.1656E-02  0.2071E-03  0.1426E+02
   -1.200008   29.25858  0.2776E-13  0.1447E-04  0.3740E-07  0.1678E-02  0.1950E-03  0.2755E+01
   -1.250010   29.25906  0.2776E-13  0.1439E-04  0.3786E-07  0.1648E-02  0.1834E-03  0.2955E+01
   -1.300011   29.25954  0.2776E-13  0.1430E-04  0.3848E-07  0.1603E-02  0.1722E-03  0.3434E+01
   -1.350013   29.26003  0.2776E-13  0.1417E-04  0.3931E-07  0.1547E-02  0.1614E-03  0.4120E+01
   -1.400014   29.26055  0.2776E-13  0.1401E-04  0.4041E-07  0.1475E-02  0.1509E-03  0.5039E+01
   -1.450014   29.26108  0.2776E-13  0.1382E-04  0.4189E-07  0.1400E-02  0.1406E-03  0.6407E+01
   -1.500015   29.26165  0.2776E-13  0.1359E-04  0.4389E-07  0.1295E-02  0.1305E-03  0.8556E+01
   -1.550015   29.26227  0.2776E-13  0.1330E-04  0.4669E-07  0.1211E-02  0.1204E-03  0.1201E+02
   -1.600016   29.26293  0.2776E-13  0.1294E-04  0.5083E-07  0.1071E-02  0.1106E-03  0.2032E+02
   -1.650015   29.26372  0.2776E-13  0.1248E-04  0.5710E-07  0.9933E-03  0.1002E-03  0.6665E+02
   -1.700015   29.26459  0.2776E-13  0.1186E-04  0.6840E-07  0.8141E-03  0.9014E-04  0.2692E+03
   -1.750014   29.26609  0.2776E-13  0.1100E-04  0.8717E-07  0.7356E-03  0.7705E-04  0.7991E+05
   -1.800013   29.26746  0.2776E-13  0.9819E-05  0.1254E-06  0.5194E-03  0.6629E-04 -0.7070E+03
   -1.850011   29.27226  0.2776E-13  0.8420E-05  0.1974E-06  0.4694E-03  0.4869E-04  0.1896E+07
   -1.900009   29.27195  0.2776E-13  0.6716E-05  0.4042E-06  0.2141E-03  0.3943E-04 -0.6136E+05
   -1.950006   29.28811  0.2777E-13  0.4609E-05  0.1040E-05  0.1682E-03  0.2178E-04 -0.6683E+05
   -2.000003   29.29099  0.2776E-13  0.0000E+00  0.0000E+00  0.0000E+00  0.3727E-04  0.0000E+00
