 1 - depth, m
 2 - temperature, C
 3 - salinity, kg/kg
 4 - turbulent kinetic energy, m**2/s**2
 5 - dissipation rate, m**2/s**3
 6 - kinematic heat conductance, m**2/s
 7 - modulus of horizontal velocity, m/s
 8 - Richardson number, n/d
   -0.000000   30.27338  0.3463E-13  0.4781E-05  0.2939E-06  0.5034E-04  0.1849E-02  0.7631E+04
   -0.049997   30.30299  0.3463E-13  0.8117E-05  0.1310E-06  0.1744E-03  0.1057E-02  0.4296E+03
   -0.099994   30.31446  0.3463E-13  0.9839E-05  0.8983E-07  0.3934E-03  0.7733E-03  0.1415E+02
   -0.149992   30.31766  0.3463E-13  0.1092E-04  0.7528E-07  0.4737E-03  0.6825E-03  0.6897E+01
   -0.199991   30.32021  0.3463E-13  0.1175E-04  0.6676E-07  0.6330E-03  0.6090E-03  0.4418E+01
   -0.249989   30.32207  0.3463E-13  0.1242E-04  0.6118E-07  0.7572E-03  0.5540E-03  0.3252E+01
   -0.299989   30.32357  0.3463E-13  0.1296E-04  0.5720E-07  0.8808E-03  0.5083E-03  0.2582E+01
   -0.349988   30.32483  0.3463E-13  0.1341E-04  0.5421E-07  0.9930E-03  0.4691E-03  0.2203E+01
   -0.399988   30.32592  0.3463E-13  0.1379E-04  0.5189E-07  0.1096E-02  0.4345E-03  0.1960E+01
   -0.449988   30.32689  0.3463E-13  0.1412E-04  0.4999E-07  0.1191E-02  0.4041E-03  0.1838E+01
   -0.499988   30.32776  0.3463E-13  0.1440E-04  0.4843E-07  0.1279E-02  0.3772E-03  0.1786E+01
   -0.549989   30.32856  0.3463E-13  0.1464E-04  0.4711E-07  0.1359E-02  0.3531E-03  0.1760E+01
   -0.599990   30.32929  0.3463E-13  0.1485E-04  0.4600E-07  0.1432E-02  0.3313E-03  0.1759E+01
   -0.649991   30.32998  0.3463E-13  0.1503E-04  0.4506E-07  0.1498E-02  0.3115E-03  0.1778E+01
   -0.699992   30.33063  0.3463E-13  0.1518E-04  0.4426E-07  0.1556E-02  0.2933E-03  0.1816E+01
   -0.749993   30.33124  0.3463E-13  0.1530E-04  0.4358E-07  0.1607E-02  0.2764E-03  0.1871E+01
   -0.799995   30.33183  0.3463E-13  0.1541E-04  0.4302E-07  0.1650E-02  0.2608E-03  0.1947E+01
   -0.849996   30.33239  0.3463E-13  0.1549E-04  0.4256E-07  0.1686E-02  0.2462E-03  0.2041E+01
   -0.899998   30.33294  0.3463E-13  0.1554E-04  0.4220E-07  0.1714E-02  0.2325E-03  0.2160E+01
   -0.950000   30.33347  0.3463E-13  0.1558E-04  0.4193E-07  0.1734E-02  0.2196E-03  0.2305E+01
   -1.000001   30.33399  0.3463E-13  0.1560E-04  0.4176E-07  0.1746E-02  0.2074E-03  0.2482E+01
   -1.050003   30.33450  0.3463E-13  0.1559E-04  0.4169E-07  0.1748E-02  0.1958E-03  0.2804E+01
   -1.100005   30.33500  0.3463E-13  0.1557E-04  0.4172E-07  0.1830E-02  0.1848E-03  0.9345E+01
   -1.150006   30.33548  0.3463E-13  0.1552E-04  0.4187E-07  0.1675E-02  0.1749E-03  0.2065E+02
   -1.200008   30.33600  0.3463E-13  0.1545E-04  0.4215E-07  0.1696E-02  0.1648E-03  0.3998E+01
   -1.250009   30.33651  0.3463E-13  0.1536E-04  0.4259E-07  0.1667E-02  0.1550E-03  0.4242E+01
   -1.300011   30.33703  0.3463E-13  0.1524E-04  0.4321E-07  0.1620E-02  0.1457E-03  0.4937E+01
   -1.350012   30.33755  0.3463E-13  0.1509E-04  0.4408E-07  0.1564E-02  0.1366E-03  0.5866E+01
   -1.400013   30.33810  0.3463E-13  0.1491E-04  0.4525E-07  0.1490E-02  0.1278E-03  0.7188E+01
   -1.450014   30.33866  0.3463E-13  0.1468E-04  0.4685E-07  0.1414E-02  0.1191E-03  0.9061E+01
   -1.500015   30.33926  0.3463E-13  0.1441E-04  0.4907E-07  0.1305E-02  0.1106E-03  0.1215E+02
   -1.550015   30.33991  0.3463E-13  0.1408E-04  0.5220E-07  0.1221E-02  0.1021E-03  0.1695E+02
   -1.600015   30.34062  0.3463E-13  0.1367E-04  0.5691E-07  0.1076E-02  0.9376E-04  0.2899E+02
   -1.650015   30.34145  0.3463E-13  0.1316E-04  0.6410E-07  0.1001E-02  0.8494E-04  0.9171E+02
   -1.700014   30.34237  0.3463E-13  0.1246E-04  0.7714E-07  0.8149E-03  0.7642E-04 -0.5217E+04
   -1.750013   30.34400  0.3463E-13  0.1150E-04  0.9879E-07  0.7429E-03  0.6514E-04  0.3480E+05
   -1.800012   30.34542  0.3463E-13  0.1020E-04  0.1446E-06  0.5179E-03  0.5604E-04  0.7584E+03
   -1.850010   30.35066  0.3463E-13  0.8678E-05  0.2291E-06  0.4738E-03  0.4071E-04  0.9078E+06
   -1.900008   30.35012  0.3463E-13  0.6857E-05  0.4716E-06  0.2124E-03  0.3295E-04  0.3427E+05
   -1.950006   30.36720  0.3463E-13  0.4746E-05  0.1212E-05  0.1779E-03  0.1780E-04 -0.2816E+06
   -2.000003   30.37023  0.3463E-13  0.0000E+00  0.0000E+00  0.0000E+00  0.3169E-04  0.0000E+00
