 1 - depth, m
 2 - temperature, C
 3 - salinity, kg/kg
 4 - turbulent kinetic energy, m**2/s**2
 5 - dissipation rate, m**2/s**3
 6 - kinematic heat conductance, m**2/s
 7 - modulus of horizontal velocity, m/s
 8 - Richardson number, n/d
   -0.000000   30.52329  0.5621E-13  0.4795E-05  0.3005E-06  0.5056E-04  0.9724E-03  0.7567E+04
   -0.049997   30.55397  0.5621E-13  0.8316E-05  0.1335E-06  0.1769E-03  0.5548E-03  0.3624E+02
   -0.099994   30.56602  0.5621E-13  0.1010E-04  0.9178E-07  0.4075E-03  0.4039E-03  0.5727E+02
   -0.149992   30.56923  0.5621E-13  0.1120E-04  0.7723E-07  0.4835E-03  0.3572E-03  0.2793E+02
   -0.199991   30.57182  0.5621E-13  0.1206E-04  0.6866E-07  0.6471E-03  0.3191E-03  0.1804E+02
   -0.249989   30.57369  0.5621E-13  0.1274E-04  0.6302E-07  0.7725E-03  0.2905E-03  0.1339E+02
   -0.299988   30.57522  0.5621E-13  0.1330E-04  0.5899E-07  0.8978E-03  0.2667E-03  0.1067E+02
   -0.349988   30.57650  0.5621E-13  0.1376E-04  0.5596E-07  0.1011E-02  0.2463E-03  0.9152E+01
   -0.399988   30.57761  0.5621E-13  0.1414E-04  0.5359E-07  0.1115E-02  0.2283E-03  0.8145E+01
   -0.449988   30.57859  0.5621E-13  0.1447E-04  0.5166E-07  0.1211E-02  0.2125E-03  0.7666E+01
   -0.499988   30.57948  0.5621E-13  0.1476E-04  0.5007E-07  0.1299E-02  0.1984E-03  0.7437E+01
   -0.549989   30.58029  0.5621E-13  0.1501E-04  0.4873E-07  0.1380E-02  0.1858E-03  0.7357E+01
   -0.599989   30.58103  0.5621E-13  0.1522E-04  0.4759E-07  0.1453E-02  0.1745E-03  0.7336E+01
   -0.649991   30.58173  0.5621E-13  0.1540E-04  0.4663E-07  0.1519E-02  0.1641E-03  0.7449E+01
   -0.699992   30.58239  0.5621E-13  0.1555E-04  0.4582E-07  0.1577E-02  0.1546E-03  0.7589E+01
   -0.749993   30.58302  0.5621E-13  0.1568E-04  0.4513E-07  0.1628E-02  0.1458E-03  0.7863E+01
   -0.799995   30.58361  0.5621E-13  0.1578E-04  0.4456E-07  0.1671E-02  0.1376E-03  0.8159E+01
   -0.849996   30.58419  0.5621E-13  0.1586E-04  0.4409E-07  0.1706E-02  0.1299E-03  0.8607E+01
   -0.899998   30.58474  0.5621E-13  0.1592E-04  0.4373E-07  0.1734E-02  0.1227E-03  0.9086E+01
   -0.949999   30.58528  0.5621E-13  0.1595E-04  0.4346E-07  0.1753E-02  0.1160E-03  0.9757E+01
   -1.000001   30.58581  0.5621E-13  0.1597E-04  0.4330E-07  0.1764E-02  0.1096E-03  0.1048E+02
   -1.050003   30.58633  0.5621E-13  0.1596E-04  0.4324E-07  0.1765E-02  0.1035E-03  0.1192E+02
   -1.100005   30.58685  0.5621E-13  0.1593E-04  0.4328E-07  0.1852E-02  0.9770E-04  0.3942E+02
   -1.150006   30.58734  0.5621E-13  0.1588E-04  0.4347E-07  0.1682E-02  0.9253E-04  0.8864E+02
   -1.200008   30.58787  0.5621E-13  0.1581E-04  0.4377E-07  0.1708E-02  0.8716E-04  0.1715E+02
   -1.250009   30.58839  0.5621E-13  0.1571E-04  0.4425E-07  0.1678E-02  0.8204E-04  0.1820E+02
   -1.300011   30.58892  0.5621E-13  0.1558E-04  0.4493E-07  0.1629E-02  0.7710E-04  0.2135E+02
   -1.350012   30.58946  0.5621E-13  0.1542E-04  0.4587E-07  0.1570E-02  0.7232E-04  0.2542E+02
   -1.400013   30.59001  0.5621E-13  0.1523E-04  0.4714E-07  0.1495E-02  0.6766E-04  0.3141E+02
   -1.450014   30.59060  0.5621E-13  0.1499E-04  0.4889E-07  0.1415E-02  0.6309E-04  0.3985E+02
   -1.500014   30.59122  0.5621E-13  0.1470E-04  0.5131E-07  0.1308E-02  0.5859E-04  0.5395E+02
   -1.550015   30.59189  0.5621E-13  0.1435E-04  0.5475E-07  0.1218E-02  0.5409E-04  0.7664E+02
   -1.600015   30.59262  0.5621E-13  0.1392E-04  0.5995E-07  0.1080E-02  0.4965E-04  0.1439E+03
   -1.650014   30.59349  0.5621E-13  0.1337E-04  0.6810E-07  0.9943E-03  0.4497E-04 -0.8771E+03
   -1.700014   30.59451  0.5621E-13  0.1261E-04  0.8254E-07  0.8191E-03  0.4025E-04  0.7034E+05
   -1.750013   30.59618  0.5621E-13  0.1160E-04  0.1063E-06  0.7339E-03  0.3424E-04  0.1132E+06
   -1.800012   30.59775  0.5621E-13  0.1022E-04  0.1601E-06  0.5104E-03  0.2932E-04  0.3192E+06
   -1.850010   30.60357  0.5621E-13  0.8703E-05  0.2550E-06  0.4704E-03  0.2102E-04  0.3182E+08
   -1.900008   30.60252  0.5621E-13  0.6911E-05  0.5303E-06  0.2153E-03  0.1716E-04  0.1010E+07
   -1.950005   30.62095  0.5621E-13  0.4822E-05  0.1331E-05  0.1861E-03  0.9309E-05 -0.1133E+07
   -2.000002   30.62289  0.5621E-13  0.0000E+00  0.0000E+00  0.0000E+00  0.1696E-04  0.0000E+00
