 1 - depth, m
 2 - temperature, C
 3 - salinity, kg/kg
 4 - turbulent kinetic energy, m**2/s**2
 5 - dissipation rate, m**2/s**3
 6 - kinematic heat conductance, m**2/s
 7 - modulus of horizontal velocity, m/s
 8 - Richardson number, n/d
   -0.000000   30.55224  0.1886E-13  0.5386E-05  0.3079E-06  0.5219E-04  0.3401E-02  0.1560E+04
   -0.049997   30.58233  0.1886E-13  0.8720E-05  0.1331E-06  0.2043E-03  0.1828E-02  0.1048E+04
   -0.099994   30.59145  0.1886E-13  0.1027E-04  0.9448E-07  0.3890E-03  0.1435E-02  0.4546E+01
   -0.149992   30.59473  0.1886E-13  0.1130E-04  0.7964E-07  0.4864E-03  0.1279E-02  0.2365E+01
   -0.199991   30.59724  0.1886E-13  0.1211E-04  0.7099E-07  0.6243E-03  0.1157E-02  0.1589E+01
   -0.249989   30.59915  0.1886E-13  0.1278E-04  0.6532E-07  0.7340E-03  0.1063E-02  0.1292E+01
   -0.299988   30.60073  0.1886E-13  0.1336E-04  0.6113E-07  0.8467E-03  0.9803E-03  0.1260E+01
   -0.349988   30.60206  0.1886E-13  0.1390E-04  0.5775E-07  0.9735E-03  0.9023E-03  0.1326E+01
   -0.399988   30.60320  0.1886E-13  0.1439E-04  0.5496E-07  0.1108E-02  0.8266E-03  0.1352E+01
   -0.449988   30.60418  0.1886E-13  0.1485E-04  0.5263E-07  0.1240E-02  0.7563E-03  0.1360E+01
   -0.499988   30.60504  0.1886E-13  0.1525E-04  0.5071E-07  0.1364E-02  0.6931E-03  0.1364E+01
   -0.549989   30.60581  0.1886E-13  0.1559E-04  0.4913E-07  0.1477E-02  0.6364E-03  0.1356E+01
   -0.599989   30.60651  0.1886E-13  0.1589E-04  0.4783E-07  0.1579E-02  0.5856E-03  0.1347E+01
   -0.649990   30.60715  0.1886E-13  0.1614E-04  0.4679E-07  0.1668E-02  0.5400E-03  0.1332E+01
   -0.699992   30.60775  0.1886E-13  0.1634E-04  0.4595E-07  0.1743E-02  0.4991E-03  0.1314E+01
   -0.749993   30.60832  0.1886E-13  0.1650E-04  0.4530E-07  0.1804E-02  0.4624E-03  0.1292E+01
   -0.799994   30.60886  0.1886E-13  0.1662E-04  0.4482E-07  0.1851E-02  0.4295E-03  0.1268E+01
   -0.849996   30.60939  0.1886E-13  0.1671E-04  0.4448E-07  0.1884E-02  0.3999E-03  0.1240E+01
   -0.899998   30.60990  0.1886E-13  0.1677E-04  0.4428E-07  0.1904E-02  0.3734E-03  0.1212E+01
   -0.949999   30.61040  0.1886E-13  0.1679E-04  0.4421E-07  0.1911E-02  0.3495E-03  0.1183E+01
   -1.000001   30.61089  0.1886E-13  0.1679E-04  0.4425E-07  0.1909E-02  0.3281E-03  0.1164E+01
   -1.050003   30.61138  0.1886E-13  0.1677E-04  0.4440E-07  0.1893E-02  0.3088E-03  0.1187E+01
   -1.100004   30.61187  0.1886E-13  0.1673E-04  0.4465E-07  0.2036E-02  0.2913E-03  0.3406E+01
   -1.150006   30.61233  0.1886E-13  0.1666E-04  0.4505E-07  0.1727E-02  0.2771E-03  0.8618E+01
   -1.200008   30.61287  0.1886E-13  0.1657E-04  0.4558E-07  0.1798E-02  0.2613E-03  0.1583E+01
   -1.250009   30.61338  0.1886E-13  0.1645E-04  0.4631E-07  0.1761E-02  0.2466E-03  0.1689E+01
   -1.300010   30.61390  0.1886E-13  0.1630E-04  0.4728E-07  0.1699E-02  0.2324E-03  0.1999E+01
   -1.350012   30.61444  0.1886E-13  0.1611E-04  0.4856E-07  0.1628E-02  0.2185E-03  0.2428E+01
   -1.400013   30.61500  0.1886E-13  0.1589E-04  0.5026E-07  0.1538E-02  0.2049E-03  0.3056E+01
   -1.450013   30.61560  0.1886E-13  0.1562E-04  0.5255E-07  0.1449E-02  0.1914E-03  0.3993E+01
   -1.500014   30.61625  0.1886E-13  0.1529E-04  0.5573E-07  0.1328E-02  0.1781E-03  0.5606E+01
   -1.550014   30.61696  0.1886E-13  0.1489E-04  0.6029E-07  0.1235E-02  0.1646E-03  0.8682E+01
   -1.600014   30.61775  0.1886E-13  0.1438E-04  0.6731E-07  0.1089E-02  0.1512E-03  0.1780E+02
   -1.650014   30.61874  0.1886E-13  0.1372E-04  0.7837E-07  0.9952E-03  0.1366E-03  0.5112E+03
   -1.700014   30.61997  0.1886E-13  0.1280E-04  0.9743E-07  0.8159E-03  0.1214E-03  0.1412E+04
   -1.750013   30.62199  0.1886E-13  0.1167E-04  0.1277E-06  0.7300E-03  0.1022E-03  0.4701E+06
   -1.800011   30.62356  0.1886E-13  0.1017E-04  0.1951E-06  0.4959E-03  0.8774E-04  0.1197E+05
   -1.850010   30.63148  0.1886E-13  0.8637E-05  0.3198E-06  0.4692E-03  0.6114E-04  0.4403E+08
   -1.900008   30.62872  0.1886E-13  0.6863E-05  0.6664E-06  0.2100E-03  0.5060E-04 -0.2954E+05
   -1.950005   30.65120  0.1886E-13  0.4873E-05  0.1613E-05  0.2087E-03  0.2685E-04 -0.8087E+05
   -2.000002   30.65095  0.1886E-13  0.0000E+00  0.0000E+00  0.0000E+00  0.5194E-04  0.0000E+00
