 1 - depth, m
 2 - temperature, C
 3 - salinity, kg/kg
 4 - turbulent kinetic energy, m**2/s**2
 5 - dissipation rate, m**2/s**3
 6 - kinematic heat conductance, m**2/s
 7 - modulus of horizontal velocity, m/s
 8 - Richardson number, n/d
   -0.000000   30.51290  0.1930E-14  0.4834E-05  0.3006E-06  0.4932E-04  0.8009E-03  0.2593E+05
   -0.049997   30.54462  0.1930E-14  0.8465E-05  0.1335E-06  0.1857E-03  0.4510E-03  0.1745E+03
   -0.099994   30.55585  0.1930E-14  0.1024E-04  0.9265E-07  0.4118E-03  0.3328E-03  0.1055E+03
   -0.149992   30.55904  0.1930E-14  0.1136E-04  0.7811E-07  0.4927E-03  0.2946E-03  0.5203E+02
   -0.199991   30.56159  0.1930E-14  0.1224E-04  0.6956E-07  0.6575E-03  0.2635E-03  0.3395E+02
   -0.249989   30.56345  0.1930E-14  0.1293E-04  0.6394E-07  0.7843E-03  0.2403E-03  0.2520E+02
   -0.299988   30.56497  0.1930E-14  0.1350E-04  0.5994E-07  0.9109E-03  0.2209E-03  0.2021E+02
   -0.349988   30.56624  0.1930E-14  0.1397E-04  0.5694E-07  0.1025E-02  0.2043E-03  0.1727E+02
   -0.399988   30.56735  0.1930E-14  0.1437E-04  0.5461E-07  0.1130E-02  0.1895E-03  0.1547E+02
   -0.449988   30.56834  0.1930E-14  0.1472E-04  0.5271E-07  0.1227E-02  0.1765E-03  0.1447E+02
   -0.499988   30.56923  0.1930E-14  0.1502E-04  0.5116E-07  0.1316E-02  0.1650E-03  0.1414E+02
   -0.549989   30.57004  0.1930E-14  0.1528E-04  0.4986E-07  0.1398E-02  0.1548E-03  0.1389E+02
   -0.599989   30.57080  0.1930E-14  0.1550E-04  0.4877E-07  0.1472E-02  0.1454E-03  0.1397E+02
   -0.649990   30.57150  0.1930E-14  0.1570E-04  0.4786E-07  0.1538E-02  0.1369E-03  0.1407E+02
   -0.699992   30.57217  0.1930E-14  0.1586E-04  0.4709E-07  0.1596E-02  0.1290E-03  0.1448E+02
   -0.749993   30.57280  0.1930E-14  0.1600E-04  0.4646E-07  0.1647E-02  0.1218E-03  0.1488E+02
   -0.799994   30.57341  0.1930E-14  0.1612E-04  0.4595E-07  0.1690E-02  0.1151E-03  0.1561E+02
   -0.849996   30.57400  0.1930E-14  0.1621E-04  0.4554E-07  0.1724E-02  0.1088E-03  0.1634E+02
   -0.899998   30.57456  0.1930E-14  0.1628E-04  0.4525E-07  0.1751E-02  0.1028E-03  0.1745E+02
   -0.949999   30.57512  0.1930E-14  0.1632E-04  0.4505E-07  0.1769E-02  0.9726E-04  0.1860E+02
   -1.000001   30.57567  0.1930E-14  0.1635E-04  0.4497E-07  0.1779E-02  0.9195E-04  0.2025E+02
   -1.050003   30.57620  0.1930E-14  0.1635E-04  0.4499E-07  0.1779E-02  0.8694E-04  0.2286E+02
   -1.100004   30.57674  0.1930E-14  0.1633E-04  0.4513E-07  0.1871E-02  0.8213E-04  0.7583E+02
   -1.150006   30.57725  0.1930E-14  0.1629E-04  0.4542E-07  0.1686E-02  0.7786E-04  0.1757E+03
   -1.200008   30.57781  0.1930E-14  0.1622E-04  0.4584E-07  0.1716E-02  0.7338E-04  0.3340E+02
   -1.250009   30.57836  0.1930E-14  0.1613E-04  0.4645E-07  0.1684E-02  0.6911E-04  0.3592E+02
   -1.300010   30.57892  0.1930E-14  0.1600E-04  0.4729E-07  0.1633E-02  0.6501E-04  0.4203E+02
   -1.350012   30.57949  0.1930E-14  0.1584E-04  0.4841E-07  0.1572E-02  0.6100E-04  0.5087E+02
   -1.400013   30.58009  0.1930E-14  0.1565E-04  0.4991E-07  0.1492E-02  0.5712E-04  0.6307E+02
   -1.450013   30.58071  0.1930E-14  0.1541E-04  0.5195E-07  0.1413E-02  0.5328E-04  0.8152E+02
   -1.500014   30.58138  0.1930E-14  0.1511E-04  0.5476E-07  0.1298E-02  0.4952E-04  0.1120E+03
   -1.550014   30.58212  0.1930E-14  0.1475E-04  0.5875E-07  0.1215E-02  0.4571E-04  0.1650E+03
   -1.600014   30.58292  0.1930E-14  0.1429E-04  0.6493E-07  0.1066E-02  0.4201E-04  0.3488E+03
   -1.650014   30.58392  0.1930E-14  0.1369E-04  0.7445E-07  0.9888E-03  0.3794E-04  0.4649E+03
   -1.700014   30.58504  0.1930E-14  0.1287E-04  0.9127E-07  0.8013E-03  0.3403E-04 -0.6180E+05
   -1.750013   30.58707  0.1930E-14  0.1181E-04  0.1190E-06  0.7296E-03  0.2876E-04  0.2835E+07
   -1.800011   30.58865  0.1930E-14  0.1037E-04  0.1788E-06  0.4969E-03  0.2473E-04  0.2237E+07
   -1.850010   30.59585  0.1930E-14  0.8792E-05  0.2907E-06  0.4681E-03  0.1752E-04  0.6422E+08
   -1.900008   30.59415  0.1930E-14  0.6987E-05  0.6078E-06  0.2108E-03  0.1431E-04 -0.9877E+06
   -1.950005   30.61557  0.1930E-14  0.4919E-05  0.1504E-05  0.1961E-03  0.7641E-05 -0.4338E+07
   -2.000002   30.61724  0.1930E-14  0.0000E+00  0.0000E+00  0.0000E+00  0.1428E-04  0.0000E+00
