 1 - depth, m
 2 - temperature, C
 3 - salinity, kg/kg
 4 - turbulent kinetic energy, m**2/s**2
 5 - dissipation rate, m**2/s**3
 6 - kinematic heat conductance, m**2/s
 7 - modulus of horizontal velocity, m/s
 8 - Richardson number, n/d
   -0.000000   30.23241  0.2189E-14  0.4760E-05  0.2910E-06  0.4998E-04  0.1811E-02  0.3109E+04
   -0.049997   30.26188  0.2189E-14  0.8098E-05  0.1294E-06  0.1759E-03  0.1033E-02  0.8788E+03
   -0.099994   30.27314  0.2189E-14  0.9808E-05  0.8898E-07  0.3940E-03  0.7569E-03  0.1667E+02
   -0.149992   30.27630  0.2189E-14  0.1088E-04  0.7462E-07  0.4755E-03  0.6683E-03  0.8146E+01
   -0.199991   30.27881  0.2189E-14  0.1172E-04  0.6621E-07  0.6345E-03  0.5965E-03  0.5233E+01
   -0.249989   30.28064  0.2189E-14  0.1238E-04  0.6071E-07  0.7588E-03  0.5429E-03  0.3845E+01
   -0.299988   30.28212  0.2189E-14  0.1293E-04  0.5678E-07  0.8825E-03  0.4981E-03  0.3064E+01
   -0.349988   30.28337  0.2189E-14  0.1338E-04  0.5384E-07  0.9948E-03  0.4599E-03  0.2605E+01
   -0.399988   30.28445  0.2189E-14  0.1376E-04  0.5156E-07  0.1098E-02  0.4260E-03  0.2329E+01
   -0.449988   30.28541  0.2189E-14  0.1409E-04  0.4970E-07  0.1193E-02  0.3963E-03  0.2174E+01
   -0.499988   30.28627  0.2189E-14  0.1437E-04  0.4816E-07  0.1281E-02  0.3699E-03  0.2125E+01
   -0.549989   30.28707  0.2189E-14  0.1462E-04  0.4688E-07  0.1362E-02  0.3464E-03  0.2084E+01
   -0.599990   30.28780  0.2189E-14  0.1483E-04  0.4579E-07  0.1435E-02  0.3251E-03  0.2095E+01
   -0.649991   30.28848  0.2189E-14  0.1501E-04  0.4488E-07  0.1501E-02  0.3057E-03  0.2106E+01
   -0.699992   30.28912  0.2189E-14  0.1517E-04  0.4410E-07  0.1559E-02  0.2878E-03  0.2164E+01
   -0.749993   30.28973  0.2189E-14  0.1530E-04  0.4345E-07  0.1610E-02  0.2714E-03  0.2217E+01
   -0.799995   30.29032  0.2189E-14  0.1540E-04  0.4291E-07  0.1653E-02  0.2560E-03  0.2322E+01
   -0.849996   30.29088  0.2189E-14  0.1548E-04  0.4248E-07  0.1689E-02  0.2418E-03  0.2422E+01
   -0.899998   30.29142  0.2189E-14  0.1555E-04  0.4214E-07  0.1717E-02  0.2283E-03  0.2582E+01
   -0.950000   30.29195  0.2189E-14  0.1559E-04  0.4189E-07  0.1737E-02  0.2157E-03  0.2740E+01
   -1.000001   30.29247  0.2189E-14  0.1561E-04  0.4174E-07  0.1749E-02  0.2038E-03  0.2974E+01
   -1.050003   30.29298  0.2189E-14  0.1561E-04  0.4169E-07  0.1751E-02  0.1924E-03  0.3341E+01
   -1.100005   30.29349  0.2189E-14  0.1559E-04  0.4175E-07  0.1832E-02  0.1816E-03  0.1121E+02
   -1.150006   30.29397  0.2189E-14  0.1555E-04  0.4193E-07  0.1679E-02  0.1720E-03  0.2495E+02
   -1.200008   30.29449  0.2189E-14  0.1548E-04  0.4223E-07  0.1699E-02  0.1620E-03  0.4790E+01
   -1.250009   30.29500  0.2189E-14  0.1539E-04  0.4270E-07  0.1670E-02  0.1525E-03  0.5128E+01
   -1.300011   30.29552  0.2189E-14  0.1528E-04  0.4335E-07  0.1623E-02  0.1433E-03  0.5943E+01
   -1.350012   30.29605  0.2189E-14  0.1513E-04  0.4424E-07  0.1567E-02  0.1344E-03  0.7129E+01
   -1.400013   30.29660  0.2189E-14  0.1495E-04  0.4546E-07  0.1493E-02  0.1257E-03  0.8720E+01
   -1.450014   30.29717  0.2189E-14  0.1473E-04  0.4710E-07  0.1418E-02  0.1172E-03  0.1110E+02
   -1.500014   30.29778  0.2189E-14  0.1446E-04  0.4938E-07  0.1309E-02  0.1089E-03  0.1492E+02
   -1.550015   30.29843  0.2189E-14  0.1413E-04  0.5259E-07  0.1227E-02  0.1005E-03  0.2109E+02
   -1.600015   30.29914  0.2189E-14  0.1373E-04  0.5746E-07  0.1083E-02  0.9234E-04  0.3864E+02
   -1.650015   30.29999  0.2189E-14  0.1321E-04  0.6496E-07  0.1007E-02  0.8363E-04  0.3636E+03
   -1.700014   30.30094  0.2189E-14  0.1250E-04  0.7840E-07  0.8197E-03  0.7518E-04  0.2952E+03
   -1.750013   30.30260  0.2189E-14  0.1154E-04  0.1005E-06  0.7484E-03  0.6404E-04  0.1048E+06
   -1.800012   30.30404  0.2189E-14  0.1025E-04  0.1468E-06  0.5218E-03  0.5515E-04  0.8742E+05
   -1.850010   30.30942  0.2189E-14  0.8779E-05  0.2333E-06  0.4800E-03  0.4013E-04  0.1640E+08
   -1.900008   30.30868  0.2189E-14  0.6999E-05  0.4796E-06  0.2190E-03  0.3275E-04 -0.5782E+07
   -1.950006   30.32613  0.2189E-14  0.4848E-05  0.1226E-05  0.1783E-03  0.1795E-04 -0.2909E+06
   -2.000003   30.32896  0.2189E-14  0.0000E+00  0.0000E+00  0.0000E+00  0.3152E-04  0.0000E+00
