 1 - depth, m
 2 - temperature, C
 3 - salinity, kg/kg
 4 - turbulent kinetic energy, m**2/s**2
 5 - dissipation rate, m**2/s**3
 6 - kinematic heat conductance, m**2/s
 7 - modulus of horizontal velocity, m/s
 8 - Richardson number, n/d
   -0.000000   30.29247  0.9217E-14  0.4873E-05  0.3083E-06  0.5133E-04  0.1251E-02  0.7670E+04
   -0.049997   30.32312  0.9217E-14  0.8398E-05  0.1372E-06  0.1772E-03  0.7169E-03  0.6925E+04
   -0.099994   30.33535  0.9217E-14  0.1021E-04  0.9421E-07  0.4066E-03  0.5228E-03  0.3682E+02
   -0.149992   30.33863  0.9217E-14  0.1134E-04  0.7913E-07  0.4843E-03  0.4620E-03  0.1805E+02
   -0.199991   30.34126  0.9217E-14  0.1223E-04  0.7031E-07  0.6497E-03  0.4126E-03  0.1162E+02
   -0.249989   30.34316  0.9217E-14  0.1293E-04  0.6454E-07  0.7762E-03  0.3757E-03  0.8638E+01
   -0.299988   30.34472  0.9217E-14  0.1350E-04  0.6043E-07  0.9030E-03  0.3450E-03  0.6870E+01
   -0.349988   30.34602  0.9217E-14  0.1397E-04  0.5736E-07  0.1018E-02  0.3187E-03  0.5912E+01
   -0.399988   30.34715  0.9217E-14  0.1437E-04  0.5497E-07  0.1122E-02  0.2955E-03  0.5253E+01
   -0.449988   30.34815  0.9217E-14  0.1472E-04  0.5304E-07  0.1219E-02  0.2750E-03  0.4962E+01
   -0.499988   30.34906  0.9217E-14  0.1502E-04  0.5144E-07  0.1309E-02  0.2569E-03  0.4803E+01
   -0.549989   30.34989  0.9217E-14  0.1528E-04  0.5011E-07  0.1390E-02  0.2407E-03  0.4772E+01
   -0.599989   30.35066  0.9217E-14  0.1550E-04  0.4899E-07  0.1464E-02  0.2261E-03  0.4746E+01
   -0.649990   30.35137  0.9217E-14  0.1569E-04  0.4805E-07  0.1530E-02  0.2127E-03  0.4844E+01
   -0.699992   30.35205  0.9217E-14  0.1585E-04  0.4726E-07  0.1589E-02  0.2004E-03  0.4919E+01
   -0.749993   30.35270  0.9217E-14  0.1599E-04  0.4660E-07  0.1639E-02  0.1890E-03  0.5126E+01
   -0.799994   30.35331  0.9217E-14  0.1610E-04  0.4607E-07  0.1682E-02  0.1785E-03  0.5301E+01
   -0.849996   30.35391  0.9217E-14  0.1619E-04  0.4564E-07  0.1717E-02  0.1686E-03  0.5627E+01
   -0.899998   30.35448  0.9217E-14  0.1625E-04  0.4532E-07  0.1743E-02  0.1593E-03  0.5919E+01
   -0.949999   30.35504  0.9217E-14  0.1630E-04  0.4510E-07  0.1761E-02  0.1506E-03  0.6400E+01
   -1.000001   30.35560  0.9217E-14  0.1632E-04  0.4499E-07  0.1771E-02  0.1423E-03  0.6852E+01
   -1.050003   30.35614  0.9217E-14  0.1631E-04  0.4499E-07  0.1771E-02  0.1345E-03  0.7847E+01
   -1.100004   30.35668  0.9217E-14  0.1629E-04  0.4511E-07  0.1864E-02  0.1270E-03  0.2569E+02
   -1.150006   30.35719  0.9217E-14  0.1624E-04  0.4537E-07  0.1677E-02  0.1203E-03  0.5891E+02
   -1.200008   30.35776  0.9217E-14  0.1617E-04  0.4577E-07  0.1707E-02  0.1133E-03  0.1139E+02
   -1.250009   30.35831  0.9218E-14  0.1606E-04  0.4635E-07  0.1676E-02  0.1067E-03  0.1204E+02
   -1.300010   30.35887  0.9218E-14  0.1593E-04  0.4716E-07  0.1624E-02  0.1003E-03  0.1426E+02
   -1.350012   30.35945  0.9218E-14  0.1577E-04  0.4826E-07  0.1563E-02  0.9406E-04  0.1695E+02
   -1.400013   30.36004  0.9218E-14  0.1557E-04  0.4974E-07  0.1483E-02  0.8798E-04  0.2120E+02
   -1.450013   30.36067  0.9218E-14  0.1532E-04  0.5176E-07  0.1403E-02  0.8202E-04  0.2695E+02
   -1.500014   30.36134  0.9218E-14  0.1501E-04  0.5458E-07  0.1290E-02  0.7614E-04  0.3714E+02
   -1.550014   30.36208  0.9218E-14  0.1464E-04  0.5858E-07  0.1205E-02  0.7023E-04  0.5373E+02
   -1.600014   30.36288  0.9218E-14  0.1417E-04  0.6483E-07  0.1062E-02  0.6442E-04  0.1164E+03
   -1.650014   30.36390  0.9218E-14  0.1356E-04  0.7460E-07  0.9768E-03  0.5808E-04  0.3048E+04
   -1.700014   30.36505  0.9218E-14  0.1272E-04  0.9172E-07  0.7984E-03  0.5181E-04 -0.3551E+05
   -1.750013   30.36708  0.9218E-14  0.1163E-04  0.1199E-06  0.7168E-03  0.4352E-04  0.2252E+06
   -1.800011   30.36871  0.9218E-14  0.1021E-04  0.1826E-06  0.4999E-03  0.3725E-04  0.9232E+05
   -1.850010   30.37585  0.9218E-14  0.8660E-05  0.2972E-06  0.4606E-03  0.2627E-04  0.4731E+08
   -1.900008   30.37404  0.9218E-14  0.6874E-05  0.6278E-06  0.2147E-03  0.2138E-04  0.2641E+07
   -1.950005   30.39494  0.9218E-14  0.4844E-05  0.1528E-05  0.1977E-03  0.1140E-04 -0.1833E+07
   -2.000002   30.39731  0.9218E-14  0.0000E+00  0.0000E+00  0.0000E+00  0.2184E-04  0.0000E+00
