 1 - depth, m
 2 - temperature, C
 3 - salinity, kg/kg
 4 - turbulent kinetic energy, m**2/s**2
 5 - dissipation rate, m**2/s**3
 6 - kinematic heat conductance, m**2/s
 7 - modulus of horizontal velocity, m/s
 8 - Richardson number, n/d
   -0.000000   31.01106  0.2231E-14  0.5015E-05  0.3202E-06  0.5139E-04  0.1115E-02  0.1316E+05
   -0.049997   31.04296  0.2231E-14  0.8663E-05  0.1426E-06  0.1817E-03  0.6354E-03  0.6431E+02
   -0.099994   31.05517  0.2231E-14  0.1051E-04  0.9826E-07  0.4105E-03  0.4659E-03  0.5268E+02
   -0.149992   31.05852  0.2231E-14  0.1167E-04  0.8256E-07  0.4899E-03  0.4118E-03  0.2603E+02
   -0.199991   31.06120  0.2231E-14  0.1256E-04  0.7333E-07  0.6564E-03  0.3680E-03  0.1681E+02
   -0.249989   31.06315  0.2231E-14  0.1328E-04  0.6728E-07  0.7839E-03  0.3352E-03  0.1254E+02
   -0.299988   31.06473  0.2231E-14  0.1385E-04  0.6296E-07  0.9116E-03  0.3079E-03  0.9960E+01
   -0.349988   31.06605  0.2231E-14  0.1433E-04  0.5972E-07  0.1027E-02  0.2845E-03  0.8586E+01
   -0.399988   31.06720  0.2231E-14  0.1474E-04  0.5719E-07  0.1132E-02  0.2639E-03  0.7607E+01
   -0.449988   31.06822  0.2231E-14  0.1508E-04  0.5514E-07  0.1230E-02  0.2457E-03  0.7201E+01
   -0.499988   31.06914  0.2231E-14  0.1538E-04  0.5344E-07  0.1320E-02  0.2297E-03  0.6948E+01
   -0.549989   31.06998  0.2231E-14  0.1564E-04  0.5201E-07  0.1402E-02  0.2152E-03  0.6915E+01
   -0.599989   31.07075  0.2231E-14  0.1586E-04  0.5080E-07  0.1476E-02  0.2022E-03  0.6850E+01
   -0.649990   31.07148  0.2231E-14  0.1604E-04  0.4978E-07  0.1543E-02  0.1903E-03  0.7000E+01
   -0.699992   31.07216  0.2231E-14  0.1620E-04  0.4891E-07  0.1602E-02  0.1794E-03  0.7079E+01
   -0.749993   31.07281  0.2231E-14  0.1633E-04  0.4818E-07  0.1653E-02  0.1692E-03  0.7382E+01
   -0.799994   31.07343  0.2231E-14  0.1644E-04  0.4758E-07  0.1696E-02  0.1598E-03  0.7600E+01
   -0.849996   31.07403  0.2231E-14  0.1651E-04  0.4709E-07  0.1731E-02  0.1510E-03  0.8069E+01
   -0.899998   31.07460  0.2231E-14  0.1657E-04  0.4670E-07  0.1758E-02  0.1428E-03  0.8450E+01
   -0.949999   31.07516  0.2231E-14  0.1660E-04  0.4643E-07  0.1776E-02  0.1350E-03  0.9134E+01
   -1.000001   31.07572  0.2231E-14  0.1661E-04  0.4626E-07  0.1786E-02  0.1276E-03  0.9739E+01
   -1.050003   31.07626  0.2231E-14  0.1660E-04  0.4620E-07  0.1786E-02  0.1206E-03  0.1113E+02
   -1.100004   31.07679  0.2231E-14  0.1657E-04  0.4626E-07  0.1881E-02  0.1139E-03  0.3614E+02
   -1.150006   31.07730  0.2231E-14  0.1651E-04  0.4647E-07  0.1689E-02  0.1080E-03  0.8401E+02
   -1.200008   31.07786  0.2231E-14  0.1642E-04  0.4682E-07  0.1722E-02  0.1017E-03  0.1608E+02
   -1.250009   31.07840  0.2231E-14  0.1631E-04  0.4736E-07  0.1691E-02  0.9582E-04  0.1693E+02
   -1.300010   31.07896  0.2231E-14  0.1617E-04  0.4812E-07  0.1639E-02  0.9010E-04  0.2000E+02
   -1.350012   31.07952  0.2231E-14  0.1599E-04  0.4918E-07  0.1578E-02  0.8456E-04  0.2375E+02
   -1.400013   31.08011  0.2231E-14  0.1578E-04  0.5062E-07  0.1498E-02  0.7913E-04  0.2966E+02
   -1.450013   31.08072  0.2231E-14  0.1552E-04  0.5260E-07  0.1418E-02  0.7382E-04  0.3772E+02
   -1.500014   31.08137  0.2231E-14  0.1520E-04  0.5537E-07  0.1304E-02  0.6857E-04  0.5200E+02
   -1.550014   31.08209  0.2231E-14  0.1482E-04  0.5934E-07  0.1220E-02  0.6331E-04  0.7523E+02
   -1.600014   31.08286  0.2231E-14  0.1434E-04  0.6551E-07  0.1074E-02  0.5813E-04  0.1593E+04
   -1.650014   31.08383  0.2231E-14  0.1372E-04  0.7519E-07  0.9911E-03  0.5251E-04  0.2602E+03
   -1.700014   31.08493  0.2231E-14  0.1287E-04  0.9221E-07  0.8096E-03  0.4696E-04  0.6162E+04
   -1.750013   31.08685  0.2231E-14  0.1177E-04  0.1200E-06  0.7276E-03  0.3964E-04  0.5162E+06
   -1.800011   31.08837  0.2231E-14  0.1033E-04  0.1803E-06  0.5117E-03  0.3406E-04  0.5128E+06
   -1.850010   31.09501  0.2231E-14  0.8771E-05  0.2925E-06  0.4656E-03  0.2421E-04  0.2441E+08
   -1.900008   31.09344  0.2231E-14  0.6910E-05  0.6127E-06  0.2158E-03  0.1974E-04  0.3284E+06
   -1.950005   31.11338  0.2231E-14  0.4874E-05  0.1503E-05  0.1986E-03  0.1054E-04 -0.2178E+07
   -2.000002   31.11497  0.2231E-14  0.0000E+00  0.0000E+00  0.0000E+00  0.1983E-04  0.0000E+00
