 1 - depth, m
 2 - temperature, C
 3 - salinity, kg/kg
 4 - turbulent kinetic energy, m**2/s**2
 5 - dissipation rate, m**2/s**3
 6 - kinematic heat conductance, m**2/s
 7 - modulus of horizontal velocity, m/s
 8 - Richardson number, n/d
   -0.000000   30.35676  0.1173E-13  0.5005E-05  0.3121E-06  0.4897E-04  0.4087E-03  0.7841E+05
   -0.049997   30.39150  0.1173E-13  0.8875E-05  0.1390E-06  0.1955E-03  0.2273E-03  0.9496E+05
   -0.099994   30.40239  0.1173E-13  0.1068E-04  0.9730E-07  0.4222E-03  0.1682E-03  0.3263E+03
   -0.149992   30.40575  0.1173E-13  0.1183E-04  0.8227E-07  0.5038E-03  0.1492E-03  0.1639E+03
   -0.199991   30.40842  0.1173E-13  0.1272E-04  0.7337E-07  0.6705E-03  0.1336E-03  0.1079E+03
   -0.249989   30.41038  0.1173E-13  0.1343E-04  0.6748E-07  0.7991E-03  0.1219E-03  0.8061E+02
   -0.299988   30.41198  0.1173E-13  0.1401E-04  0.6326E-07  0.9264E-03  0.1122E-03  0.6458E+02
   -0.349988   30.41332  0.1173E-13  0.1449E-04  0.6009E-07  0.1042E-02  0.1038E-03  0.5539E+02
   -0.399988   30.41449  0.1173E-13  0.1489E-04  0.5761E-07  0.1147E-02  0.9635E-04  0.4946E+02
   -0.449988   30.41553  0.1173E-13  0.1523E-04  0.5558E-07  0.1244E-02  0.8981E-04  0.4647E+02
   -0.499988   30.41646  0.1173E-13  0.1553E-04  0.5391E-07  0.1334E-02  0.8400E-04  0.4524E+02
   -0.549989   30.41732  0.1173E-13  0.1579E-04  0.5250E-07  0.1415E-02  0.7879E-04  0.4462E+02
   -0.599989   30.41811  0.1173E-13  0.1600E-04  0.5131E-07  0.1489E-02  0.7407E-04  0.4465E+02
   -0.649990   30.41886  0.1173E-13  0.1619E-04  0.5030E-07  0.1554E-02  0.6976E-04  0.4516E+02
   -0.699992   30.41956  0.1173E-13  0.1635E-04  0.4945E-07  0.1612E-02  0.6579E-04  0.4617E+02
   -0.749993   30.42022  0.1173E-13  0.1647E-04  0.4874E-07  0.1662E-02  0.6211E-04  0.4762E+02
   -0.799994   30.42086  0.1173E-13  0.1658E-04  0.4814E-07  0.1704E-02  0.5869E-04  0.4960E+02
   -0.849996   30.42147  0.1173E-13  0.1665E-04  0.4766E-07  0.1738E-02  0.5549E-04  0.5208E+02
   -0.899998   30.42207  0.1173E-13  0.1671E-04  0.4729E-07  0.1764E-02  0.5248E-04  0.5520E+02
   -0.949999   30.42265  0.1173E-13  0.1674E-04  0.4703E-07  0.1780E-02  0.4964E-04  0.5903E+02
   -1.000001   30.42322  0.1173E-13  0.1674E-04  0.4688E-07  0.1789E-02  0.4695E-04  0.6372E+02
   -1.050003   30.42378  0.1173E-13  0.1672E-04  0.4684E-07  0.1787E-02  0.4439E-04  0.7206E+02
   -1.100004   30.42433  0.1173E-13  0.1668E-04  0.4693E-07  0.1889E-02  0.4195E-04  0.2346E+03
   -1.150006   30.42485  0.1173E-13  0.1662E-04  0.4717E-07  0.1677E-02  0.3979E-04  0.5621E+03
   -1.200007   30.42544  0.1173E-13  0.1653E-04  0.4755E-07  0.1716E-02  0.3749E-04  0.1053E+03
   -1.250009   30.42600  0.1173E-13  0.1641E-04  0.4813E-07  0.1684E-02  0.3532E-04  0.1119E+03
   -1.300010   30.42657  0.1173E-13  0.1625E-04  0.4895E-07  0.1629E-02  0.3322E-04  0.1316E+03
   -1.350011   30.42716  0.1173E-13  0.1606E-04  0.5007E-07  0.1565E-02  0.3118E-04  0.1585E+03
   -1.400012   30.42777  0.1173E-13  0.1584E-04  0.5161E-07  0.1481E-02  0.2919E-04  0.1981E+03
   -1.450013   30.42841  0.1173E-13  0.1556E-04  0.5374E-07  0.1401E-02  0.2722E-04  0.2559E+03
   -1.500014   30.42909  0.1173E-13  0.1522E-04  0.5673E-07  0.1282E-02  0.2529E-04  0.3565E+03
   -1.550014   30.42985  0.1173E-13  0.1481E-04  0.6104E-07  0.1201E-02  0.2333E-04  0.5281E+03
   -1.600014   30.43066  0.1173E-13  0.1430E-04  0.6786E-07  0.1053E-02  0.2142E-04  0.9401E+03
   -1.650014   30.43171  0.1173E-13  0.1363E-04  0.7864E-07  0.9715E-03  0.1929E-04  0.1114E+06
   -1.700013   30.43291  0.1173E-13  0.1270E-04  0.9785E-07  0.7870E-03  0.1720E-04  0.9165E+04
   -1.750013   30.43514  0.1173E-13  0.1153E-04  0.1289E-06  0.7105E-03  0.1436E-04  0.5779E+07
   -1.800011   30.43670  0.1173E-13  0.1004E-04  0.1970E-06  0.4890E-03  0.1232E-04  0.4018E+07
   -1.850010   30.44465  0.1173E-13  0.8480E-05  0.3239E-06  0.4560E-03  0.8580E-05  0.3081E+09
   -1.900007   30.44186  0.1173E-13  0.6709E-05  0.6843E-06  0.2067E-03  0.7060E-05 -0.2613E+07
   -1.950005   30.46410  0.1173E-13  0.4761E-05  0.1656E-05  0.2085E-03  0.3714E-05 -0.2251E+07
   -2.000002   30.46488  0.1173E-13  0.0000E+00  0.0000E+00  0.0000E+00  0.7297E-05  0.0000E+00
