 1 - depth, m
 2 - temperature, C
 3 - salinity, kg/kg
 4 - turbulent kinetic energy, m**2/s**2
 5 - dissipation rate, m**2/s**3
 6 - kinematic heat conductance, m**2/s
 7 - modulus of horizontal velocity, m/s
 8 - Richardson number, n/d
   -0.000000   30.55936  0.2763E-13  0.4570E-05  0.2752E-06  0.4901E-04  0.1591E-02  0.4452E+04
   -0.049997   30.58719  0.2763E-13  0.7836E-05  0.1224E-06  0.1741E-03  0.9040E-03  0.1072E+03
   -0.099994   30.59790  0.2763E-13  0.9514E-05  0.8428E-07  0.3929E-03  0.6598E-03  0.1920E+02
   -0.149992   30.60085  0.2763E-13  0.1057E-04  0.7079E-07  0.4742E-03  0.5823E-03  0.9374E+01
   -0.199991   30.60319  0.2763E-13  0.1139E-04  0.6291E-07  0.6331E-03  0.5197E-03  0.6022E+01
   -0.249989   30.60490  0.2763E-13  0.1205E-04  0.5777E-07  0.7571E-03  0.4728E-03  0.4434E+01
   -0.299988   30.60629  0.2763E-13  0.1259E-04  0.5413E-07  0.8808E-03  0.4338E-03  0.3538E+01
   -0.349988   30.60746  0.2763E-13  0.1305E-04  0.5141E-07  0.9929E-03  0.4004E-03  0.3019E+01
   -0.399988   30.60848  0.2763E-13  0.1343E-04  0.4931E-07  0.1096E-02  0.3708E-03  0.2699E+01
   -0.449988   30.60939  0.2763E-13  0.1377E-04  0.4761E-07  0.1191E-02  0.3449E-03  0.2525E+01
   -0.499988   30.61021  0.2763E-13  0.1406E-04  0.4622E-07  0.1279E-02  0.3219E-03  0.2465E+01
   -0.549989   30.61095  0.2763E-13  0.1431E-04  0.4507E-07  0.1360E-02  0.3014E-03  0.2423E+01
   -0.599989   30.61165  0.2763E-13  0.1454E-04  0.4412E-07  0.1433E-02  0.2828E-03  0.2436E+01
   -0.649991   30.61230  0.2763E-13  0.1473E-04  0.4332E-07  0.1499E-02  0.2659E-03  0.2457E+01
   -0.699992   30.61291  0.2763E-13  0.1490E-04  0.4266E-07  0.1558E-02  0.2504E-03  0.2528E+01
   -0.749993   30.61349  0.2763E-13  0.1505E-04  0.4213E-07  0.1609E-02  0.2360E-03  0.2603E+01
   -0.799995   30.61405  0.2763E-13  0.1517E-04  0.4170E-07  0.1653E-02  0.2227E-03  0.2730E+01
   -0.849996   30.61459  0.2763E-13  0.1527E-04  0.4137E-07  0.1689E-02  0.2102E-03  0.2862E+01
   -0.899998   30.61512  0.2763E-13  0.1536E-04  0.4114E-07  0.1717E-02  0.1985E-03  0.3055E+01
   -0.949999   30.61563  0.2763E-13  0.1542E-04  0.4101E-07  0.1737E-02  0.1875E-03  0.3261E+01
   -1.000001   30.61614  0.2763E-13  0.1546E-04  0.4097E-07  0.1749E-02  0.1771E-03  0.3545E+01
   -1.050003   30.61664  0.2763E-13  0.1549E-04  0.4103E-07  0.1752E-02  0.1673E-03  0.4010E+01
   -1.100005   30.61714  0.2763E-13  0.1549E-04  0.4119E-07  0.1828E-02  0.1579E-03  0.1348E+02
   -1.150006   30.61761  0.2763E-13  0.1547E-04  0.4149E-07  0.1685E-02  0.1494E-03  0.2991E+02
   -1.200008   30.61813  0.2763E-13  0.1543E-04  0.4190E-07  0.1701E-02  0.1408E-03  0.5794E+01
   -1.250009   30.61864  0.2763E-13  0.1537E-04  0.4247E-07  0.1672E-02  0.1325E-03  0.6237E+01
   -1.300011   30.61916  0.2763E-13  0.1528E-04  0.4324E-07  0.1626E-02  0.1245E-03  0.7263E+01
   -1.350012   30.61970  0.2763E-13  0.1516E-04  0.4425E-07  0.1569E-02  0.1168E-03  0.8742E+01
   -1.400013   30.62025  0.2763E-13  0.1500E-04  0.4558E-07  0.1497E-02  0.1092E-03  0.1073E+02
   -1.450014   30.62084  0.2763E-13  0.1481E-04  0.4734E-07  0.1420E-02  0.1018E-03  0.1371E+02
   -1.500014   30.62146  0.2763E-13  0.1457E-04  0.4972E-07  0.1315E-02  0.9460E-04  0.1840E+02
   -1.550015   30.62214  0.2763E-13  0.1427E-04  0.5301E-07  0.1227E-02  0.8735E-04  0.2614E+02
   -1.600015   30.62288  0.2763E-13  0.1390E-04  0.5787E-07  0.1088E-02  0.8024E-04  0.4525E+02
   -1.650014   30.62375  0.2763E-13  0.1341E-04  0.6525E-07  0.1004E-02  0.7278E-04  0.4564E+04
   -1.700014   30.62475  0.2763E-13  0.1275E-04  0.7829E-07  0.8281E-03  0.6544E-04  0.4259E+03
   -1.750013   30.62639  0.2763E-13  0.1184E-04  0.9965E-07  0.7437E-03  0.5621E-04  0.1164E+06
   -1.800012   30.62794  0.2763E-13  0.1058E-04  0.1435E-06  0.5257E-03  0.4841E-04  0.7966E+04
   -1.850010   30.63327  0.2763E-13  0.9096E-05  0.2266E-06  0.4741E-03  0.3590E-04  0.1627E+08
   -1.900008   30.63312  0.2763E-13  0.7254E-05  0.4706E-06  0.2166E-03  0.2896E-04 -0.1070E+06
   -1.950005   30.65142  0.2763E-13  0.5031E-05  0.1199E-05  0.1742E-03  0.1614E-04  0.3875E+06
   -2.000002   30.65483  0.2763E-13  0.0000E+00  0.0000E+00  0.0000E+00  0.2711E-04  0.0000E+00
