 1 - depth, m
 2 - temperature, C
 3 - salinity, kg/kg
 4 - turbulent kinetic energy, m**2/s**2
 5 - dissipation rate, m**2/s**3
 6 - kinematic heat conductance, m**2/s
 7 - modulus of horizontal velocity, m/s
 8 - Richardson number, n/d
   -0.000000   29.69324  0.3342E-14  0.4553E-05  0.2722E-06  0.4900E-04  0.1790E-02  0.4295E+04
   -0.049997   29.72163  0.3342E-14  0.7758E-05  0.1213E-06  0.1713E-03  0.1021E-02  0.2423E+03
   -0.099994   29.73262  0.3342E-14  0.9407E-05  0.8329E-07  0.3878E-03  0.7447E-03  0.1455E+02
   -0.149992   29.73567  0.3342E-14  0.1044E-04  0.6992E-07  0.4674E-03  0.6570E-03  0.7073E+01
   -0.199991   29.73810  0.3342E-14  0.1124E-04  0.6208E-07  0.6231E-03  0.5860E-03  0.4547E+01
   -0.249989   29.73988  0.3342E-14  0.1188E-04  0.5695E-07  0.7453E-03  0.5327E-03  0.3354E+01
   -0.299989   29.74132  0.3342E-14  0.1240E-04  0.5329E-07  0.8664E-03  0.4885E-03  0.2669E+01
   -0.349988   29.74253  0.3342E-14  0.1283E-04  0.5054E-07  0.9763E-03  0.4505E-03  0.2284E+01
   -0.399988   29.74358  0.3342E-14  0.1320E-04  0.4841E-07  0.1077E-02  0.4170E-03  0.2036E+01
   -0.449988   29.74451  0.3342E-14  0.1351E-04  0.4668E-07  0.1170E-02  0.3875E-03  0.1914E+01
   -0.499988   29.74535  0.3342E-14  0.1379E-04  0.4525E-07  0.1257E-02  0.3615E-03  0.1863E+01
   -0.549989   29.74612  0.3342E-14  0.1402E-04  0.4405E-07  0.1335E-02  0.3382E-03  0.1842E+01
   -0.599990   29.74683  0.3342E-14  0.1423E-04  0.4304E-07  0.1407E-02  0.3171E-03  0.1844E+01
   -0.649991   29.74750  0.3342E-14  0.1440E-04  0.4219E-07  0.1471E-02  0.2979E-03  0.1871E+01
   -0.699992   29.74813  0.3342E-14  0.1455E-04  0.4148E-07  0.1528E-02  0.2803E-03  0.1914E+01
   -0.749993   29.74872  0.3342E-14  0.1468E-04  0.4088E-07  0.1578E-02  0.2640E-03  0.1981E+01
   -0.799995   29.74929  0.3342E-14  0.1478E-04  0.4038E-07  0.1620E-02  0.2489E-03  0.2064E+01
   -0.849996   29.74984  0.3342E-14  0.1486E-04  0.3999E-07  0.1655E-02  0.2348E-03  0.2175E+01
   -0.899998   29.75037  0.3342E-14  0.1492E-04  0.3968E-07  0.1682E-02  0.2216E-03  0.2306E+01
   -0.950000   29.75089  0.3342E-14  0.1497E-04  0.3946E-07  0.1701E-02  0.2092E-03  0.2473E+01
   -1.000002   29.75140  0.3342E-14  0.1499E-04  0.3934E-07  0.1712E-02  0.1974E-03  0.2670E+01
   -1.050003   29.75190  0.3342E-14  0.1499E-04  0.3930E-07  0.1714E-02  0.1863E-03  0.3033E+01
   -1.100005   29.75239  0.3342E-14  0.1497E-04  0.3937E-07  0.1793E-02  0.1757E-03  0.1011E+02
   -1.150007   29.75286  0.3342E-14  0.1493E-04  0.3956E-07  0.1641E-02  0.1662E-03  0.2260E+02
   -1.200008   29.75338  0.3342E-14  0.1487E-04  0.3986E-07  0.1661E-02  0.1564E-03  0.4377E+01
   -1.250010   29.75388  0.3342E-14  0.1478E-04  0.4032E-07  0.1632E-02  0.1471E-03  0.4666E+01
   -1.300011   29.75439  0.3342E-14  0.1467E-04  0.4095E-07  0.1585E-02  0.1381E-03  0.5459E+01
   -1.350012   29.75491  0.3342E-14  0.1453E-04  0.4182E-07  0.1529E-02  0.1293E-03  0.6521E+01
   -1.400013   29.75545  0.3342E-14  0.1435E-04  0.4299E-07  0.1456E-02  0.1209E-03  0.8038E+01
   -1.450014   29.75601  0.3342E-14  0.1414E-04  0.4458E-07  0.1381E-02  0.1126E-03  0.1020E+02
   -1.500015   29.75661  0.3342E-14  0.1388E-04  0.4677E-07  0.1273E-02  0.1044E-03  0.1377E+02
   -1.550015   29.75727  0.3342E-14  0.1356E-04  0.4984E-07  0.1191E-02  0.9626E-04  0.1939E+02
   -1.600015   29.75797  0.3342E-14  0.1317E-04  0.5454E-07  0.1047E-02  0.8829E-04  0.3560E+02
   -1.650015   29.75882  0.3342E-14  0.1266E-04  0.6171E-07  0.9727E-03  0.7975E-04  0.9143E+02
   -1.700014   29.75976  0.3342E-14  0.1197E-04  0.7463E-07  0.7912E-03  0.7160E-04  0.3231E+04
   -1.750014   29.76143  0.3342E-14  0.1103E-04  0.9605E-07  0.7167E-03  0.6071E-04  0.1061E+05
   -1.800012   29.76284  0.3342E-14  0.9760E-05  0.1399E-06  0.5010E-03  0.5213E-04  0.4633E+05
   -1.850011   29.76838  0.3342E-14  0.8266E-05  0.2241E-06  0.4541E-03  0.3743E-04  0.2309E+07
   -1.900009   29.76770  0.3342E-14  0.6514E-05  0.4660E-06  0.2056E-03  0.3017E-04  0.2343E+06
   -1.950006   29.78539  0.3342E-14  0.4516E-05  0.1182E-05  0.1782E-03  0.1617E-04 -0.2083E+06
   -2.000003   29.78777  0.3342E-14  0.0000E+00  0.0000E+00  0.0000E+00  0.2943E-04  0.0000E+00
