 1 - depth, m
 2 - temperature, C
 3 - salinity, kg/kg
 4 - turbulent kinetic energy, m**2/s**2
 5 - dissipation rate, m**2/s**3
 6 - kinematic heat conductance, m**2/s
 7 - modulus of horizontal velocity, m/s
 8 - Richardson number, n/d
   -0.000000   30.66525  0.1354E-14  0.5223E-05  0.3248E-06  0.5225E-04  0.2239E-02  0.4319E+04
   -0.049997   30.69662  0.1354E-14  0.8764E-05  0.1436E-06  0.1890E-03  0.1242E-02  0.1498E+03
   -0.099994   30.70787  0.1354E-14  0.1054E-04  0.9968E-07  0.4008E-03  0.9347E-03  0.1075E+02
   -0.149992   30.71127  0.1354E-14  0.1168E-04  0.8349E-07  0.4904E-03  0.8260E-03  0.5383E+01
   -0.199991   30.71393  0.1354E-14  0.1256E-04  0.7404E-07  0.6506E-03  0.7395E-03  0.3455E+01
   -0.249989   30.71588  0.1354E-14  0.1327E-04  0.6788E-07  0.7779E-03  0.6742E-03  0.2562E+01
   -0.299988   30.71747  0.1354E-14  0.1385E-04  0.6351E-07  0.9031E-03  0.6200E-03  0.2039E+01
   -0.349988   30.71881  0.1354E-14  0.1434E-04  0.6024E-07  0.1014E-02  0.5734E-03  0.1767E+01
   -0.399988   30.71998  0.1354E-14  0.1475E-04  0.5768E-07  0.1118E-02  0.5319E-03  0.1619E+01
   -0.449988   30.72101  0.1354E-14  0.1511E-04  0.5556E-07  0.1220E-02  0.4945E-03  0.1572E+01
   -0.499988   30.72194  0.1354E-14  0.1543E-04  0.5380E-07  0.1317E-02  0.4608E-03  0.1547E+01
   -0.549989   30.72278  0.1354E-14  0.1571E-04  0.5232E-07  0.1406E-02  0.4303E-03  0.1543E+01
   -0.599989   30.72356  0.1354E-14  0.1595E-04  0.5108E-07  0.1487E-02  0.4026E-03  0.1535E+01
   -0.649990   30.72428  0.1354E-14  0.1616E-04  0.5004E-07  0.1559E-02  0.3774E-03  0.1548E+01
   -0.699992   30.72496  0.1354E-14  0.1633E-04  0.4918E-07  0.1621E-02  0.3545E-03  0.1555E+01
   -0.749993   30.72561  0.1354E-14  0.1648E-04  0.4848E-07  0.1675E-02  0.3336E-03  0.1586E+01
   -0.799994   30.72623  0.1354E-14  0.1659E-04  0.4792E-07  0.1718E-02  0.3144E-03  0.1615E+01
   -0.849996   30.72683  0.1354E-14  0.1668E-04  0.4748E-07  0.1752E-02  0.2967E-03  0.1679E+01
   -0.899997   30.72740  0.1354E-14  0.1674E-04  0.4716E-07  0.1778E-02  0.2803E-03  0.1750E+01
   -0.949999   30.72797  0.1354E-14  0.1678E-04  0.4695E-07  0.1794E-02  0.2650E-03  0.1873E+01
   -1.000001   30.72853  0.1354E-14  0.1680E-04  0.4685E-07  0.1803E-02  0.2507E-03  0.2009E+01
   -1.050003   30.72908  0.1354E-14  0.1679E-04  0.4686E-07  0.1800E-02  0.2370E-03  0.2291E+01
   -1.100004   30.72962  0.1354E-14  0.1676E-04  0.4701E-07  0.1902E-02  0.2240E-03  0.7498E+01
   -1.150006   30.73014  0.1354E-14  0.1671E-04  0.4731E-07  0.1694E-02  0.2125E-03  0.1748E+02
   -1.200007   30.73071  0.1354E-14  0.1663E-04  0.4775E-07  0.1731E-02  0.2002E-03  0.3341E+01
   -1.250009   30.73127  0.1354E-14  0.1652E-04  0.4839E-07  0.1698E-02  0.1886E-03  0.3552E+01
   -1.300010   30.73184  0.1354E-14  0.1639E-04  0.4927E-07  0.1644E-02  0.1774E-03  0.4193E+01
   -1.350011   30.73243  0.1354E-14  0.1621E-04  0.5047E-07  0.1581E-02  0.1666E-03  0.5026E+01
   -1.400012   30.73304  0.1354E-14  0.1600E-04  0.5208E-07  0.1498E-02  0.1559E-03  0.6281E+01
   -1.450013   30.73368  0.1354E-14  0.1574E-04  0.5427E-07  0.1417E-02  0.1455E-03  0.8059E+01
   -1.500014   30.73437  0.1354E-14  0.1542E-04  0.5733E-07  0.1301E-02  0.1352E-03  0.1116E+02
   -1.550014   30.73513  0.1354E-14  0.1503E-04  0.6171E-07  0.1215E-02  0.1247E-03  0.1641E+02
   -1.600014   30.73596  0.1354E-14  0.1453E-04  0.6851E-07  0.1068E-02  0.1145E-03 -0.6835E+03
   -1.650014   30.73701  0.1354E-14  0.1389E-04  0.7915E-07  0.9857E-03  0.1033E-03  0.7565E+03
   -1.700013   30.73822  0.1354E-14  0.1301E-04  0.9770E-07  0.8028E-03  0.9209E-04  0.2091E+05
   -1.750012   30.74036  0.1354E-14  0.1189E-04  0.1279E-06  0.7239E-03  0.7740E-04  0.1328E+06
   -1.800011   30.74198  0.1354E-14  0.1041E-04  0.1941E-06  0.4990E-03  0.6650E-04 -0.2282E+05
   -1.850009   30.74977  0.1354E-14  0.8834E-05  0.3172E-06  0.4675E-03  0.4663E-04  0.5432E+08
   -1.900007   30.74744  0.1354E-14  0.7009E-05  0.6693E-06  0.2114E-03  0.3831E-04  0.1336E+06
   -1.950005   30.77000  0.1354E-14  0.4967E-05  0.1628E-05  0.2038E-03  0.2036E-04 -0.3142E+06
   -2.000002   30.77084  0.1354E-14  0.0000E+00  0.0000E+00  0.0000E+00  0.3891E-04  0.0000E+00
