 1 - depth, m
 2 - temperature, C
 3 - salinity, kg/kg
 4 - turbulent kinetic energy, m**2/s**2
 5 - dissipation rate, m**2/s**3
 6 - kinematic heat conductance, m**2/s
 7 - modulus of horizontal velocity, m/s
 8 - Richardson number, n/d
   -0.000000   29.97647  0.4736E-13  0.4494E-05  0.2671E-06  0.4835E-04  0.1431E-02  0.5288E+04
   -0.049997   30.00493  0.4736E-13  0.7740E-05  0.1191E-06  0.1739E-03  0.8106E-03  0.7464E+03
   -0.099994   30.01560  0.4736E-13  0.9382E-05  0.8229E-07  0.3890E-03  0.5941E-03  0.2290E+02
   -0.149992   30.01860  0.4736E-13  0.1041E-04  0.6919E-07  0.4704E-03  0.5241E-03  0.1116E+02
   -0.199991   30.02099  0.4736E-13  0.1122E-04  0.6151E-07  0.6264E-03  0.4677E-03  0.7188E+01
   -0.249989   30.02272  0.4736E-13  0.1186E-04  0.5647E-07  0.7491E-03  0.4254E-03  0.5300E+01
   -0.299989   30.02414  0.4736E-13  0.1238E-04  0.5288E-07  0.8705E-03  0.3902E-03  0.4226E+01
   -0.349988   30.02532  0.4736E-13  0.1282E-04  0.5020E-07  0.9807E-03  0.3600E-03  0.3611E+01
   -0.399988   30.02636  0.4736E-13  0.1319E-04  0.4811E-07  0.1082E-02  0.3333E-03  0.3225E+01
   -0.449988   30.02727  0.4736E-13  0.1350E-04  0.4642E-07  0.1175E-02  0.3099E-03  0.3023E+01
   -0.499988   30.02810  0.4736E-13  0.1378E-04  0.4502E-07  0.1262E-02  0.2891E-03  0.2948E+01
   -0.549989   30.02885  0.4736E-13  0.1402E-04  0.4386E-07  0.1341E-02  0.2706E-03  0.2905E+01
   -0.599990   30.02955  0.4736E-13  0.1423E-04  0.4288E-07  0.1413E-02  0.2538E-03  0.2915E+01
   -0.649991   30.03021  0.4736E-13  0.1441E-04  0.4206E-07  0.1477E-02  0.2385E-03  0.2948E+01
   -0.699992   30.03082  0.4736E-13  0.1456E-04  0.4138E-07  0.1534E-02  0.2244E-03  0.3025E+01
   -0.749993   30.03141  0.4736E-13  0.1470E-04  0.4081E-07  0.1584E-02  0.2115E-03  0.3121E+01
   -0.799995   30.03197  0.4736E-13  0.1480E-04  0.4034E-07  0.1627E-02  0.1994E-03  0.3265E+01
   -0.849996   30.03251  0.4736E-13  0.1489E-04  0.3997E-07  0.1662E-02  0.1882E-03  0.3428E+01
   -0.899998   30.03304  0.4736E-13  0.1496E-04  0.3970E-07  0.1689E-02  0.1776E-03  0.3650E+01
   -0.950000   30.03355  0.4736E-13  0.1501E-04  0.3951E-07  0.1708E-02  0.1677E-03  0.3902E+01
   -1.000001   30.03405  0.4736E-13  0.1504E-04  0.3942E-07  0.1720E-02  0.1583E-03  0.4230E+01
   -1.050003   30.03455  0.4736E-13  0.1504E-04  0.3942E-07  0.1722E-02  0.1494E-03  0.4793E+01
   -1.100005   30.03504  0.4736E-13  0.1503E-04  0.3952E-07  0.1800E-02  0.1409E-03  0.1608E+02
   -1.150007   30.03551  0.4736E-13  0.1500E-04  0.3974E-07  0.1652E-02  0.1333E-03  0.3561E+02
   -1.200008   30.03602  0.4736E-13  0.1495E-04  0.4008E-07  0.1670E-02  0.1255E-03  0.6916E+01
   -1.250010   30.03652  0.4736E-13  0.1487E-04  0.4057E-07  0.1641E-02  0.1180E-03  0.7406E+01
   -1.300011   30.03703  0.4736E-13  0.1477E-04  0.4125E-07  0.1595E-02  0.1108E-03  0.8645E+01
   -1.350012   30.03755  0.4736E-13  0.1464E-04  0.4215E-07  0.1538E-02  0.1039E-03  0.1035E+02
   -1.400013   30.03809  0.4736E-13  0.1447E-04  0.4337E-07  0.1466E-02  0.9708E-04  0.1272E+02
   -1.450014   30.03866  0.4736E-13  0.1427E-04  0.4500E-07  0.1390E-02  0.9042E-04  0.1617E+02
   -1.500015   30.03926  0.4736E-13  0.1402E-04  0.4723E-07  0.1284E-02  0.8391E-04  0.2172E+02
   -1.550015   30.03992  0.4736E-13  0.1371E-04  0.5035E-07  0.1200E-02  0.7738E-04  0.3063E+02
   -1.600015   30.04063  0.4736E-13  0.1332E-04  0.5505E-07  0.1061E-02  0.7099E-04  0.5429E+02
   -1.650015   30.04148  0.4736E-13  0.1283E-04  0.6225E-07  0.9789E-03  0.6421E-04  0.9805E+02
   -1.700014   30.04243  0.4736E-13  0.1215E-04  0.7510E-07  0.8049E-03  0.5761E-04 -0.8429E+04
   -1.750013   30.04408  0.4736E-13  0.1124E-04  0.9632E-07  0.7208E-03  0.4903E-04  0.5330E+05
   -1.800012   30.04558  0.4736E-13  0.9983E-05  0.1394E-06  0.5129E-03  0.4204E-04  0.1148E+06
   -1.850010   30.05086  0.4736E-13  0.8522E-05  0.2216E-06  0.4577E-03  0.3059E-04  0.4755E+08
   -1.900008   30.05039  0.4736E-13  0.6740E-05  0.4588E-06  0.2098E-03  0.2462E-04  0.1147E+06
   -1.950006   30.06822  0.4736E-13  0.4675E-05  0.1164E-05  0.1757E-03  0.1335E-04 -0.7147E+06
   -2.000003   30.07085  0.4736E-13  0.0000E+00  0.0000E+00  0.0000E+00  0.2378E-04  0.0000E+00
