 1 - depth, m
 2 - temperature, C
 3 - salinity, kg/kg
 4 - turbulent kinetic energy, m**2/s**2
 5 - dissipation rate, m**2/s**3
 6 - kinematic heat conductance, m**2/s
 7 - modulus of horizontal velocity, m/s
 8 - Richardson number, n/d
   -0.000000   30.46272  0.2132E-14  0.4812E-05  0.2984E-06  0.5059E-04  0.1639E-02  0.8959E+04
   -0.049997   30.49281  0.2133E-14  0.8206E-05  0.1332E-06  0.1749E-03  0.9397E-03  0.6653E+03
   -0.099994   30.50458  0.2133E-14  0.9956E-05  0.9140E-07  0.3959E-03  0.6866E-03  0.1843E+02
   -0.149992   30.50783  0.2133E-14  0.1105E-04  0.7664E-07  0.4754E-03  0.6062E-03  0.8997E+01
   -0.199991   30.51043  0.2133E-14  0.1190E-04  0.6799E-07  0.6356E-03  0.5410E-03  0.5768E+01
   -0.249989   30.51231  0.2133E-14  0.1257E-04  0.6232E-07  0.7601E-03  0.4922E-03  0.4255E+01
   -0.299989   30.51384  0.2133E-14  0.1311E-04  0.5827E-07  0.8839E-03  0.4517E-03  0.3379E+01
   -0.349988   30.51511  0.2133E-14  0.1357E-04  0.5522E-07  0.9962E-03  0.4169E-03  0.2890E+01
   -0.399988   30.51622  0.2133E-14  0.1394E-04  0.5285E-07  0.1099E-02  0.3862E-03  0.2570E+01
   -0.449988   30.51720  0.2133E-14  0.1427E-04  0.5091E-07  0.1194E-02  0.3592E-03  0.2416E+01
   -0.499988   30.51809  0.2133E-14  0.1455E-04  0.4931E-07  0.1282E-02  0.3353E-03  0.2346E+01
   -0.549989   30.51890  0.2133E-14  0.1479E-04  0.4796E-07  0.1362E-02  0.3139E-03  0.2317E+01
   -0.599990   30.51964  0.2133E-14  0.1499E-04  0.4682E-07  0.1434E-02  0.2946E-03  0.2313E+01
   -0.649991   30.52034  0.2133E-14  0.1517E-04  0.4585E-07  0.1499E-02  0.2770E-03  0.2345E+01
   -0.699992   30.52100  0.2133E-14  0.1532E-04  0.4502E-07  0.1557E-02  0.2608E-03  0.2391E+01
   -0.749993   30.52162  0.2133E-14  0.1544E-04  0.4432E-07  0.1607E-02  0.2458E-03  0.2473E+01
   -0.799995   30.52221  0.2133E-14  0.1553E-04  0.4373E-07  0.1649E-02  0.2319E-03  0.2569E+01
   -0.849996   30.52278  0.2133E-14  0.1560E-04  0.4325E-07  0.1684E-02  0.2190E-03  0.2703E+01
   -0.899998   30.52334  0.2133E-14  0.1566E-04  0.4286E-07  0.1711E-02  0.2068E-03  0.2856E+01
   -0.950000   30.52387  0.2133E-14  0.1568E-04  0.4258E-07  0.1730E-02  0.1953E-03  0.3059E+01
   -1.000001   30.52440  0.2133E-14  0.1569E-04  0.4239E-07  0.1740E-02  0.1845E-03  0.3291E+01
   -1.050003   30.52491  0.2133E-14  0.1568E-04  0.4230E-07  0.1741E-02  0.1742E-03  0.3730E+01
   -1.100005   30.52543  0.2133E-14  0.1564E-04  0.4232E-07  0.1829E-02  0.1644E-03  0.1231E+02
   -1.150006   30.52591  0.2133E-14  0.1559E-04  0.4247E-07  0.1656E-02  0.1556E-03  0.2800E+02
   -1.200008   30.52643  0.2133E-14  0.1550E-04  0.4274E-07  0.1684E-02  0.1465E-03  0.5370E+01
   -1.250010   30.52695  0.2133E-14  0.1540E-04  0.4318E-07  0.1654E-02  0.1379E-03  0.5691E+01
   -1.300011   30.52747  0.2133E-14  0.1526E-04  0.4382E-07  0.1604E-02  0.1295E-03  0.6661E+01
   -1.350012   30.52800  0.2133E-14  0.1510E-04  0.4470E-07  0.1546E-02  0.1214E-03  0.7937E+01
   -1.400013   30.52855  0.2133E-14  0.1490E-04  0.4593E-07  0.1469E-02  0.1135E-03  0.9801E+01
   -1.450014   30.52912  0.2133E-14  0.1465E-04  0.4761E-07  0.1393E-02  0.1058E-03  0.1243E+02
   -1.500015   30.52973  0.2133E-14  0.1436E-04  0.4996E-07  0.1280E-02  0.9823E-04  0.1688E+02
   -1.550015   30.53039  0.2133E-14  0.1400E-04  0.5331E-07  0.1201E-02  0.9061E-04  0.2386E+02
   -1.600015   30.53110  0.2133E-14  0.1356E-04  0.5850E-07  0.1051E-02  0.8317E-04  0.4624E+02
   -1.650015   30.53197  0.2133E-14  0.1300E-04  0.6656E-07  0.9818E-03  0.7511E-04  0.1891E+04
   -1.700014   30.53292  0.2133E-14  0.1223E-04  0.8114E-07  0.7909E-03  0.6738E-04 -0.6839E+02
   -1.750013   30.53468  0.2133E-14  0.1119E-04  0.1051E-06  0.7231E-03  0.5681E-04  0.4203E+05
   -1.800012   30.53606  0.2133E-14  0.9825E-05  0.1556E-06  0.4978E-03  0.4882E-04  0.4748E+05
   -1.850010   30.54190  0.2133E-14  0.8278E-05  0.2512E-06  0.4596E-03  0.3457E-04  0.2751E+08
   -1.900008   30.54079  0.2133E-14  0.6516E-05  0.5265E-06  0.2097E-03  0.2811E-04 -0.1626E+06
   -1.950006   30.55862  0.2133E-14  0.4551E-05  0.1326E-05  0.1879E-03  0.1488E-04 -0.1830E+07
   -2.000003   30.56083  0.2133E-14  0.0000E+00  0.0000E+00  0.0000E+00  0.2812E-04  0.0000E+00
