 1 - depth, m
 2 - temperature, C
 3 - salinity, kg/kg
 4 - turbulent kinetic energy, m**2/s**2
 5 - dissipation rate, m**2/s**3
 6 - kinematic heat conductance, m**2/s
 7 - modulus of horizontal velocity, m/s
 8 - Richardson number, n/d
   -0.000000   30.57486  0.1239E-14  0.4596E-05  0.2779E-06  0.4918E-04  0.1589E-02  0.6759E+04
   -0.049997   30.60284  0.1239E-14  0.7882E-05  0.1236E-06  0.1748E-03  0.9033E-03  0.2201E+04
   -0.099994   30.61358  0.1239E-14  0.9571E-05  0.8511E-07  0.3938E-03  0.6598E-03  0.1924E+02
   -0.149992   30.61655  0.1239E-14  0.1063E-04  0.7149E-07  0.4751E-03  0.5824E-03  0.9410E+01
   -0.199991   30.61891  0.1239E-14  0.1146E-04  0.6354E-07  0.6345E-03  0.5198E-03  0.6045E+01
   -0.249989   30.62063  0.1239E-14  0.1213E-04  0.5835E-07  0.7587E-03  0.4730E-03  0.4454E+01
   -0.299988   30.62203  0.1239E-14  0.1267E-04  0.5468E-07  0.8826E-03  0.4340E-03  0.3554E+01
   -0.349988   30.62321  0.1239E-14  0.1313E-04  0.5194E-07  0.9949E-03  0.4006E-03  0.3035E+01
   -0.399988   30.62424  0.1239E-14  0.1352E-04  0.4983E-07  0.1098E-02  0.3711E-03  0.2714E+01
   -0.449988   30.62515  0.1239E-14  0.1385E-04  0.4812E-07  0.1193E-02  0.3452E-03  0.2539E+01
   -0.499988   30.62598  0.1239E-14  0.1415E-04  0.4672E-07  0.1281E-02  0.3223E-03  0.2480E+01
   -0.549989   30.62673  0.1239E-14  0.1440E-04  0.4557E-07  0.1362E-02  0.3017E-03  0.2439E+01
   -0.599989   30.62743  0.1239E-14  0.1463E-04  0.4461E-07  0.1435E-02  0.2832E-03  0.2452E+01
   -0.649990   30.62809  0.1239E-14  0.1482E-04  0.4381E-07  0.1501E-02  0.2663E-03  0.2476E+01
   -0.699992   30.62871  0.1239E-14  0.1499E-04  0.4315E-07  0.1559E-02  0.2507E-03  0.2547E+01
   -0.749993   30.62930  0.1239E-14  0.1514E-04  0.4261E-07  0.1610E-02  0.2364E-03  0.2625E+01
   -0.799994   30.62986  0.1239E-14  0.1526E-04  0.4219E-07  0.1653E-02  0.2230E-03  0.2753E+01
   -0.849996   30.63041  0.1239E-14  0.1537E-04  0.4187E-07  0.1688E-02  0.2106E-03  0.2888E+01
   -0.899998   30.63094  0.1239E-14  0.1545E-04  0.4164E-07  0.1716E-02  0.1989E-03  0.3084E+01
   -0.949999   30.63146  0.1239E-14  0.1551E-04  0.4151E-07  0.1735E-02  0.1879E-03  0.3295E+01
   -1.000001   30.63197  0.1239E-14  0.1555E-04  0.4148E-07  0.1747E-02  0.1775E-03  0.3584E+01
   -1.050003   30.63248  0.1239E-14  0.1557E-04  0.4155E-07  0.1748E-02  0.1676E-03  0.4061E+01
   -1.100005   30.63299  0.1239E-14  0.1557E-04  0.4173E-07  0.1829E-02  0.1582E-03  0.1360E+02
   -1.150006   30.63347  0.1239E-14  0.1555E-04  0.4204E-07  0.1675E-02  0.1498E-03  0.3054E+02
   -1.200008   30.63399  0.1239E-14  0.1551E-04  0.4247E-07  0.1694E-02  0.1411E-03  0.5903E+01
   -1.250009   30.63451  0.1239E-14  0.1544E-04  0.4307E-07  0.1664E-02  0.1327E-03  0.6350E+01
   -1.300011   30.63504  0.1239E-14  0.1534E-04  0.4387E-07  0.1616E-02  0.1247E-03  0.7428E+01
   -1.350012   30.63559  0.1239E-14  0.1522E-04  0.4493E-07  0.1559E-02  0.1169E-03  0.8943E+01
   -1.400013   30.63616  0.1239E-14  0.1506E-04  0.4632E-07  0.1483E-02  0.1094E-03  0.1104E+02
   -1.450014   30.63676  0.1239E-14  0.1485E-04  0.4816E-07  0.1408E-02  0.1020E-03  0.1414E+02
   -1.500014   30.63739  0.1239E-14  0.1460E-04  0.5067E-07  0.1298E-02  0.9468E-04  0.1920E+02
   -1.550015   30.63809  0.1239E-14  0.1429E-04  0.5415E-07  0.1215E-02  0.8737E-04  0.2736E+02
   -1.600015   30.63885  0.1239E-14  0.1389E-04  0.5943E-07  0.1070E-02  0.8023E-04  0.5302E+02
   -1.650014   30.63977  0.1239E-14  0.1338E-04  0.6739E-07  0.9909E-03  0.7255E-04  0.1214E+03
   -1.700014   30.64079  0.1239E-14  0.1268E-04  0.8150E-07  0.8114E-03  0.6521E-04 -0.5476E+03
   -1.750013   30.64261  0.1239E-14  0.1172E-04  0.1049E-06  0.7312E-03  0.5553E-04  0.1236E+06
   -1.800012   30.64419  0.1239E-14  0.1042E-04  0.1530E-06  0.5168E-03  0.4769E-04  0.3811E+05
   -1.850010   30.65003  0.1239E-14  0.8917E-05  0.2440E-06  0.4665E-03  0.3484E-04  0.6500E+07
   -1.900008   30.64948  0.1239E-14  0.7052E-05  0.5100E-06  0.2100E-03  0.2809E-04 -0.3284E+06
   -1.950005   30.66890  0.1239E-14  0.4927E-05  0.1280E-05  0.1819E-03  0.1529E-04  0.8896E+05
   -2.000002   30.67197  0.1239E-14  0.0000E+00  0.0000E+00  0.0000E+00  0.2694E-04  0.0000E+00
