 1 - depth, m
 2 - temperature, C
 3 - salinity, kg/kg
 4 - turbulent kinetic energy, m**2/s**2
 5 - dissipation rate, m**2/s**3
 6 - kinematic heat conductance, m**2/s
 7 - modulus of horizontal velocity, m/s
 8 - Richardson number, n/d
   -0.000000   29.35480  0.2003E-14  0.5144E-05  0.2791E-06  0.5040E-04  0.3530E-02  0.5763E+03
   -0.049997   29.38413  0.2003E-14  0.8260E-05  0.1209E-06  0.1996E-03  0.1893E-02  0.2191E+02
   -0.099994   29.39282  0.2003E-14  0.9684E-05  0.8627E-07  0.3762E-03  0.1493E-02  0.4289E+01
   -0.149992   29.39605  0.2003E-14  0.1063E-04  0.7285E-07  0.4719E-03  0.1331E-02  0.2231E+01
   -0.199991   29.39852  0.2003E-14  0.1138E-04  0.6498E-07  0.6010E-03  0.1205E-02  0.1520E+01
   -0.249990   29.40040  0.2003E-14  0.1199E-04  0.5976E-07  0.7050E-03  0.1106E-02  0.1276E+01
   -0.299989   29.40196  0.2003E-14  0.1253E-04  0.5583E-07  0.8154E-03  0.1019E-02  0.1295E+01
   -0.349988   29.40328  0.2003E-14  0.1304E-04  0.5261E-07  0.9425E-03  0.9356E-03  0.1377E+01
   -0.399988   29.40439  0.2003E-14  0.1350E-04  0.4993E-07  0.1076E-02  0.8541E-03  0.1401E+01
   -0.449988   29.40534  0.2003E-14  0.1392E-04  0.4768E-07  0.1206E-02  0.7787E-03  0.1409E+01
   -0.499988   29.40617  0.2003E-14  0.1429E-04  0.4580E-07  0.1327E-02  0.7109E-03  0.1411E+01
   -0.549989   29.40691  0.2003E-14  0.1460E-04  0.4425E-07  0.1439E-02  0.6505E-03  0.1403E+01
   -0.599990   29.40758  0.2003E-14  0.1486E-04  0.4295E-07  0.1539E-02  0.5964E-03  0.1391E+01
   -0.649991   29.40820  0.2003E-14  0.1508E-04  0.4188E-07  0.1627E-02  0.5480E-03  0.1374E+01
   -0.699992   29.40877  0.2003E-14  0.1525E-04  0.4101E-07  0.1701E-02  0.5047E-03  0.1353E+01
   -0.749994   29.40931  0.2003E-14  0.1538E-04  0.4030E-07  0.1762E-02  0.4659E-03  0.1328E+01
   -0.799995   29.40982  0.2003E-14  0.1547E-04  0.3974E-07  0.1808E-02  0.4311E-03  0.1300E+01
   -0.849997   29.41032  0.2003E-14  0.1552E-04  0.3931E-07  0.1841E-02  0.4000E-03  0.1269E+01
   -0.899998   29.41079  0.2003E-14  0.1555E-04  0.3901E-07  0.1861E-02  0.3720E-03  0.1236E+01
   -0.950000   29.41126  0.2003E-14  0.1555E-04  0.3882E-07  0.1868E-02  0.3470E-03  0.1199E+01
   -1.000002   29.41172  0.2003E-14  0.1553E-04  0.3874E-07  0.1865E-02  0.3246E-03  0.1162E+01
   -1.050004   29.41217  0.2003E-14  0.1548E-04  0.3876E-07  0.1849E-02  0.3044E-03  0.1148E+01
   -1.100005   29.41263  0.2003E-14  0.1542E-04  0.3887E-07  0.1985E-02  0.2865E-03  0.3156E+01
   -1.150007   29.41304  0.2003E-14  0.1534E-04  0.3909E-07  0.1694E-02  0.2723E-03  0.7757E+01
   -1.200009   29.41352  0.2003E-14  0.1524E-04  0.3942E-07  0.1762E-02  0.2566E-03  0.1426E+01
   -1.250010   29.41398  0.2003E-14  0.1511E-04  0.3991E-07  0.1727E-02  0.2419E-03  0.1507E+01
   -1.300011   29.41445  0.2003E-14  0.1495E-04  0.4059E-07  0.1668E-02  0.2278E-03  0.1762E+01
   -1.350013   29.41492  0.2003E-14  0.1477E-04  0.4152E-07  0.1600E-02  0.2140E-03  0.2116E+01
   -1.400014   29.41541  0.2003E-14  0.1455E-04  0.4277E-07  0.1513E-02  0.2005E-03  0.2621E+01
   -1.450015   29.41593  0.2003E-14  0.1429E-04  0.4448E-07  0.1429E-02  0.1872E-03  0.3362E+01
   -1.500015   29.41648  0.2003E-14  0.1398E-04  0.4688E-07  0.1308E-02  0.1741E-03  0.4604E+01
   -1.550016   29.41708  0.2003E-14  0.1361E-04  0.5029E-07  0.1221E-02  0.1608E-03  0.6697E+01
   -1.600016   29.41773  0.2003E-14  0.1315E-04  0.5559E-07  0.1070E-02  0.1477E-03  0.1493E+02
   -1.650015   29.41853  0.2003E-14  0.1256E-04  0.6393E-07  0.9915E-03  0.1335E-03  0.4876E+02
   -1.700015   29.41944  0.2003E-14  0.1175E-04  0.7915E-07  0.7971E-03  0.1195E-03  0.1702E+05
   -1.750014   29.42112  0.2003E-14  0.1070E-04  0.1035E-06  0.7218E-03  0.1004E-03  0.6014E+05
   -1.800013   29.42239  0.2003E-14  0.9320E-05  0.1578E-06  0.4902E-03  0.8619E-04  0.4451E+05
   -1.850011   29.42830  0.2003E-14  0.7832E-05  0.2557E-06  0.4592E-03  0.6028E-04  0.1236E+08
   -1.900009   29.42654  0.2003E-14  0.6143E-05  0.5305E-06  0.2064E-03  0.4948E-04 -0.2975E+05
   -1.950007   29.44350  0.2003E-14  0.4292E-05  0.1309E-05  0.1954E-03  0.2592E-04 -0.1116E+06
   -2.000004   29.44422  0.2003E-14  0.0000E+00  0.0000E+00  0.0000E+00  0.5088E-04  0.0000E+00
