 1 - depth, m
 2 - temperature, C
 3 - salinity, kg/kg
 4 - turbulent kinetic energy, m**2/s**2
 5 - dissipation rate, m**2/s**3
 6 - kinematic heat conductance, m**2/s
 7 - modulus of horizontal velocity, m/s
 8 - Richardson number, n/d
   -0.000000   30.23125  0.2449E-14  0.5130E-05  0.2905E-06  0.5131E-04  0.3136E-02  0.1100E+04
   -0.049997   30.25980  0.2449E-14  0.8365E-05  0.1263E-06  0.1974E-03  0.1689E-02  0.2856E+02
   -0.099994   30.26894  0.2449E-14  0.9901E-05  0.8918E-07  0.3870E-03  0.1317E-02  0.5997E+01
   -0.149992   30.27206  0.2449E-14  0.1091E-04  0.7517E-07  0.4807E-03  0.1173E-02  0.3044E+01
   -0.199991   30.27447  0.2449E-14  0.1172E-04  0.6702E-07  0.6202E-03  0.1060E-02  0.2024E+01
   -0.249989   30.27628  0.2449E-14  0.1238E-04  0.6166E-07  0.7329E-03  0.9721E-03  0.1608E+01
   -0.299988   30.27778  0.2449E-14  0.1296E-04  0.5773E-07  0.8506E-03  0.8951E-03  0.1477E+01
   -0.349988   30.27905  0.2449E-14  0.1348E-04  0.5464E-07  0.9762E-03  0.8229E-03  0.1454E+01
   -0.399988   30.28014  0.2449E-14  0.1396E-04  0.5213E-07  0.1105E-02  0.7536E-03  0.1431E+01
   -0.449988   30.28108  0.2449E-14  0.1439E-04  0.5007E-07  0.1230E-02  0.6900E-03  0.1410E+01
   -0.499988   30.28191  0.2449E-14  0.1478E-04  0.4839E-07  0.1347E-02  0.6329E-03  0.1405E+01
   -0.549989   30.28266  0.2449E-14  0.1511E-04  0.4701E-07  0.1454E-02  0.5819E-03  0.1390E+01
   -0.599989   30.28334  0.2449E-14  0.1540E-04  0.4590E-07  0.1549E-02  0.5363E-03  0.1384E+01
   -0.649991   30.28398  0.2449E-14  0.1564E-04  0.4502E-07  0.1633E-02  0.4954E-03  0.1371E+01
   -0.699992   30.28457  0.2449E-14  0.1585E-04  0.4432E-07  0.1703E-02  0.4587E-03  0.1366E+01
   -0.749993   30.28514  0.2449E-14  0.1601E-04  0.4379E-07  0.1760E-02  0.4258E-03  0.1353E+01
   -0.799995   30.28568  0.2449E-14  0.1614E-04  0.4340E-07  0.1805E-02  0.3962E-03  0.1352E+01
   -0.849996   30.28620  0.2449E-14  0.1624E-04  0.4315E-07  0.1836E-02  0.3696E-03  0.1344E+01
   -0.899998   30.28672  0.2449E-14  0.1631E-04  0.4302E-07  0.1856E-02  0.3456E-03  0.1351E+01
   -0.949999   30.28722  0.2449E-14  0.1635E-04  0.4301E-07  0.1864E-02  0.3239E-03  0.1353E+01
   -1.000001   30.28772  0.2449E-14  0.1637E-04  0.4310E-07  0.1862E-02  0.3043E-03  0.1381E+01
   -1.050003   30.28821  0.2449E-14  0.1636E-04  0.4329E-07  0.1849E-02  0.2866E-03  0.1460E+01
   -1.100005   30.28871  0.2449E-14  0.1633E-04  0.4358E-07  0.1982E-02  0.2704E-03  0.4437E+01
   -1.150006   30.28918  0.2449E-14  0.1628E-04  0.4401E-07  0.1697E-02  0.2570E-03  0.1107E+02
   -1.200008   30.28972  0.2449E-14  0.1620E-04  0.4458E-07  0.1758E-02  0.2423E-03  0.2044E+01
   -1.250009   30.29024  0.2449E-14  0.1610E-04  0.4534E-07  0.1722E-02  0.2285E-03  0.2207E+01
   -1.300011   30.29078  0.2449E-14  0.1596E-04  0.4634E-07  0.1661E-02  0.2151E-03  0.2601E+01
   -1.350012   30.29133  0.2449E-14  0.1580E-04  0.4765E-07  0.1592E-02  0.2021E-03  0.3187E+01
   -1.400013   30.29191  0.2449E-14  0.1559E-04  0.4937E-07  0.1501E-02  0.1894E-03  0.4005E+01
   -1.450014   30.29253  0.2449E-14  0.1534E-04  0.5167E-07  0.1416E-02  0.1768E-03  0.5257E+01
   -1.500014   30.29320  0.2449E-14  0.1503E-04  0.5483E-07  0.1291E-02  0.1644E-03  0.7386E+01
   -1.550015   30.29394  0.2449E-14  0.1464E-04  0.5929E-07  0.1206E-02  0.1517E-03  0.1106E+02
   -1.600015   30.29476  0.2449E-14  0.1416E-04  0.6622E-07  0.1051E-02  0.1393E-03  0.2685E+02
   -1.650014   30.29581  0.2449E-14  0.1352E-04  0.7698E-07  0.9704E-03  0.1256E-03  0.5903E+04
   -1.700014   30.29702  0.2449E-14  0.1263E-04  0.9584E-07  0.7819E-03  0.1121E-03  0.2880E+05
   -1.750013   30.29928  0.2449E-14  0.1149E-04  0.1265E-06  0.7050E-03  0.9364E-04  0.1889E+05
   -1.800012   30.30097  0.2449E-14  0.9999E-05  0.1919E-06  0.4810E-03  0.8026E-04  0.2274E+05
   -1.850010   30.30930  0.2449E-14  0.8415E-05  0.3160E-06  0.4536E-03  0.5569E-04  0.2433E+08
   -1.900008   30.30667  0.2449E-14  0.6654E-05  0.6573E-06  0.2070E-03  0.4548E-04  0.2522E+05
   -1.950005   30.33058  0.2449E-14  0.4745E-05  0.1599E-05  0.2062E-03  0.2390E-04 -0.1416E+06
   -2.000002   30.33033  0.2449E-14  0.0000E+00  0.0000E+00  0.0000E+00  0.4695E-04  0.0000E+00
