 1 - depth, m
 2 - temperature, C
 3 - salinity, kg/kg
 4 - turbulent kinetic energy, m**2/s**2
 5 - dissipation rate, m**2/s**3
 6 - kinematic heat conductance, m**2/s
 7 - modulus of horizontal velocity, m/s
 8 - Richardson number, n/d
   -0.000000   30.75249  0.3670E-13  0.4853E-05  0.3058E-06  0.5056E-04  0.1036E-02  0.4333E+04
   -0.049997   30.78342  0.3670E-13  0.8406E-05  0.1358E-06  0.1799E-03  0.5899E-03  0.6226E+02
   -0.099994   30.79532  0.3670E-13  0.1021E-04  0.9349E-07  0.4078E-03  0.4308E-03  0.4532E+02
   -0.149992   30.79854  0.3670E-13  0.1133E-04  0.7862E-07  0.4865E-03  0.3811E-03  0.2219E+02
   -0.199991   30.80113  0.3670E-13  0.1220E-04  0.6989E-07  0.6511E-03  0.3406E-03  0.1429E+02
   -0.249989   30.80300  0.3670E-13  0.1290E-04  0.6417E-07  0.7771E-03  0.3103E-03  0.1058E+02
   -0.299988   30.80453  0.3670E-13  0.1347E-04  0.6009E-07  0.9036E-03  0.2850E-03  0.8427E+01
   -0.349988   30.80581  0.3670E-13  0.1394E-04  0.5704E-07  0.1018E-02  0.2634E-03  0.7213E+01
   -0.399988   30.80692  0.3670E-13  0.1433E-04  0.5466E-07  0.1122E-02  0.2442E-03  0.6428E+01
   -0.449988   30.80791  0.3670E-13  0.1467E-04  0.5273E-07  0.1219E-02  0.2274E-03  0.6035E+01
   -0.499988   30.80880  0.3670E-13  0.1497E-04  0.5114E-07  0.1308E-02  0.2125E-03  0.5866E+01
   -0.549989   30.80961  0.3670E-13  0.1523E-04  0.4981E-07  0.1389E-02  0.1991E-03  0.5788E+01
   -0.599989   30.81036  0.3670E-13  0.1545E-04  0.4869E-07  0.1463E-02  0.1870E-03  0.5786E+01
   -0.649990   30.81107  0.3670E-13  0.1564E-04  0.4775E-07  0.1529E-02  0.1760E-03  0.5861E+01
   -0.699992   30.81173  0.3670E-13  0.1580E-04  0.4696E-07  0.1587E-02  0.1659E-03  0.5989E+01
   -0.749993   30.81236  0.3670E-13  0.1593E-04  0.4630E-07  0.1638E-02  0.1565E-03  0.6192E+01
   -0.799994   30.81297  0.3670E-13  0.1604E-04  0.4576E-07  0.1681E-02  0.1478E-03  0.6448E+01
   -0.849996   30.81355  0.3670E-13  0.1613E-04  0.4533E-07  0.1716E-02  0.1396E-03  0.6790E+01
   -0.899998   30.81411  0.3670E-13  0.1619E-04  0.4501E-07  0.1742E-02  0.1319E-03  0.7195E+01
   -0.949999   30.81466  0.3670E-13  0.1624E-04  0.4479E-07  0.1761E-02  0.1247E-03  0.7717E+01
   -1.000001   30.81520  0.3670E-13  0.1626E-04  0.4468E-07  0.1771E-02  0.1179E-03  0.8329E+01
   -1.050003   30.81574  0.3670E-13  0.1626E-04  0.4468E-07  0.1771E-02  0.1114E-03  0.9456E+01
   -1.100004   30.81627  0.3670E-13  0.1623E-04  0.4479E-07  0.1862E-02  0.1052E-03  0.3118E+02
   -1.150006   30.81677  0.3670E-13  0.1619E-04  0.4505E-07  0.1680E-02  0.9969E-04  0.7191E+02
   -1.200008   30.81732  0.3670E-13  0.1611E-04  0.4545E-07  0.1709E-02  0.9393E-04  0.1375E+02
   -1.250009   30.81786  0.3670E-13  0.1602E-04  0.4603E-07  0.1677E-02  0.8843E-04  0.1467E+02
   -1.300010   30.81841  0.3670E-13  0.1589E-04  0.4683E-07  0.1626E-02  0.8314E-04  0.1724E+02
   -1.350012   30.81897  0.3670E-13  0.1573E-04  0.4791E-07  0.1566E-02  0.7800E-04  0.2070E+02
   -1.400013   30.81956  0.3670E-13  0.1553E-04  0.4937E-07  0.1486E-02  0.7299E-04  0.2575E+02
   -1.450013   30.82018  0.3670E-13  0.1529E-04  0.5136E-07  0.1408E-02  0.6806E-04  0.3301E+02
   -1.500014   30.82083  0.3670E-13  0.1499E-04  0.5412E-07  0.1294E-02  0.6321E-04  0.4541E+02
   -1.550014   30.82155  0.3670E-13  0.1462E-04  0.5803E-07  0.1211E-02  0.5833E-04  0.6596E+02
   -1.600014   30.82233  0.3670E-13  0.1417E-04  0.6409E-07  0.1065E-02  0.5355E-04  0.1605E+03
   -1.650014   30.82331  0.3670E-13  0.1357E-04  0.7348E-07  0.9853E-03  0.4835E-04  0.4215E+03
   -1.700014   30.82441  0.3670E-13  0.1275E-04  0.9009E-07  0.8039E-03  0.4326E-04 -0.3140E+04
   -1.750013   30.82639  0.3670E-13  0.1169E-04  0.1175E-06  0.7245E-03  0.3648E-04  0.6168E+05
   -1.800011   30.82795  0.3670E-13  0.1026E-04  0.1783E-06  0.5040E-03  0.3132E-04  0.8240E+05
   -1.850010   30.83495  0.3670E-13  0.8719E-05  0.2891E-06  0.4646E-03  0.2222E-04  0.6004E+08
   -1.900008   30.83324  0.3670E-13  0.6940E-05  0.6097E-06  0.2159E-03  0.1811E-04 -0.6194E+07
   -1.950005   30.85395  0.3670E-13  0.4881E-05  0.1498E-05  0.1953E-03  0.9757E-05 -0.2120E+07
   -2.000002   30.85570  0.3670E-13  0.0000E+00  0.0000E+00  0.0000E+00  0.1819E-04  0.0000E+00
