 1 - depth, m
 2 - temperature, C
 3 - salinity, kg/kg
 4 - turbulent kinetic energy, m**2/s**2
 5 - dissipation rate, m**2/s**3
 6 - kinematic heat conductance, m**2/s
 7 - modulus of horizontal velocity, m/s
 8 - Richardson number, n/d
   -0.000000   30.27699  0.4381E-14  0.4994E-05  0.3115E-06  0.5153E-04  0.2130E-02  0.3087E+04
   -0.049997   30.30767  0.4381E-14  0.8406E-05  0.1385E-06  0.1777E-03  0.1214E-02  0.4659E+03
   -0.099994   30.31941  0.4381E-14  0.1016E-04  0.9502E-07  0.3955E-03  0.8944E-03  0.1063E+02
   -0.149992   30.32276  0.4381E-14  0.1127E-04  0.7950E-07  0.4777E-03  0.7895E-03  0.5217E+01
   -0.199991   30.32543  0.4381E-14  0.1213E-04  0.7042E-07  0.6380E-03  0.7048E-03  0.3340E+01
   -0.249989   30.32736  0.4381E-14  0.1281E-04  0.6447E-07  0.7633E-03  0.6414E-03  0.2457E+01
   -0.299989   30.32893  0.4381E-14  0.1337E-04  0.6023E-07  0.8881E-03  0.5887E-03  0.1950E+01
   -0.349988   30.33025  0.4381E-14  0.1383E-04  0.5705E-07  0.1001E-02  0.5436E-03  0.1663E+01
   -0.399988   30.33139  0.4381E-14  0.1421E-04  0.5456E-07  0.1105E-02  0.5037E-03  0.1480E+01
   -0.449988   30.33239  0.4381E-14  0.1454E-04  0.5254E-07  0.1201E-02  0.4686E-03  0.1389E+01
   -0.499988   30.33330  0.4381E-14  0.1483E-04  0.5086E-07  0.1289E-02  0.4376E-03  0.1354E+01
   -0.549989   30.33413  0.4381E-14  0.1507E-04  0.4945E-07  0.1370E-02  0.4098E-03  0.1336E+01
   -0.599990   30.33490  0.4381E-14  0.1528E-04  0.4825E-07  0.1445E-02  0.3846E-03  0.1336E+01
   -0.649991   30.33561  0.4381E-14  0.1546E-04  0.4723E-07  0.1511E-02  0.3616E-03  0.1348E+01
   -0.699992   30.33629  0.4381E-14  0.1561E-04  0.4637E-07  0.1569E-02  0.3405E-03  0.1375E+01
   -0.749993   30.33693  0.4381E-14  0.1573E-04  0.4563E-07  0.1620E-02  0.3211E-03  0.1414E+01
   -0.799995   30.33753  0.4381E-14  0.1583E-04  0.4502E-07  0.1663E-02  0.3030E-03  0.1471E+01
   -0.849996   30.33812  0.4381E-14  0.1590E-04  0.4451E-07  0.1698E-02  0.2862E-03  0.1542E+01
   -0.899998   30.33869  0.4381E-14  0.1595E-04  0.4410E-07  0.1726E-02  0.2703E-03  0.1633E+01
   -0.950000   30.33924  0.4381E-14  0.1598E-04  0.4380E-07  0.1745E-02  0.2554E-03  0.1742E+01
   -1.000001   30.33977  0.4381E-14  0.1599E-04  0.4359E-07  0.1756E-02  0.2413E-03  0.1878E+01
   -1.050003   30.34030  0.4381E-14  0.1597E-04  0.4349E-07  0.1757E-02  0.2280E-03  0.2120E+01
   -1.100005   30.34082  0.4381E-14  0.1594E-04  0.4350E-07  0.1845E-02  0.2152E-03  0.7016E+01
   -1.150006   30.34132  0.4381E-14  0.1588E-04  0.4365E-07  0.1674E-02  0.2038E-03  0.1594E+02
   -1.200008   30.34186  0.4381E-14  0.1580E-04  0.4392E-07  0.1700E-02  0.1920E-03  0.3044E+01
   -1.250009   30.34238  0.4381E-14  0.1569E-04  0.4436E-07  0.1671E-02  0.1807E-03  0.3233E+01
   -1.300011   30.34291  0.4381E-14  0.1555E-04  0.4500E-07  0.1622E-02  0.1699E-03  0.3768E+01
   -1.350012   30.34345  0.4381E-14  0.1538E-04  0.4590E-07  0.1563E-02  0.1593E-03  0.4503E+01
   -1.400013   30.34401  0.4381E-14  0.1518E-04  0.4715E-07  0.1486E-02  0.1491E-03  0.5545E+01
   -1.450014   30.34459  0.4381E-14  0.1493E-04  0.4886E-07  0.1410E-02  0.1390E-03  0.7056E+01
   -1.500014   30.34521  0.4381E-14  0.1463E-04  0.5127E-07  0.1297E-02  0.1291E-03  0.9580E+01
   -1.550015   30.34588  0.4381E-14  0.1427E-04  0.5471E-07  0.1217E-02  0.1192E-03  0.1362E+02
   -1.600015   30.34660  0.4381E-14  0.1382E-04  0.6005E-07  0.1070E-02  0.1095E-03  0.2646E+02
   -1.650015   30.34749  0.4381E-14  0.1325E-04  0.6835E-07  0.9951E-03  0.9898E-04  0.1193E+03
   -1.700014   30.34847  0.4381E-14  0.1247E-04  0.8332E-07  0.8064E-03  0.8880E-04 -0.7160E+03
   -1.750013   30.35025  0.4381E-14  0.1143E-04  0.1079E-06  0.7344E-03  0.7503E-04  0.9552E+05
   -1.800012   30.35166  0.4381E-14  0.1007E-04  0.1616E-06  0.5102E-03  0.6457E-04  0.2406E+04
   -1.850010   30.35759  0.4381E-14  0.8548E-05  0.2606E-06  0.4681E-03  0.4612E-04  0.2373E+08
   -1.900008   30.35631  0.4381E-14  0.6779E-05  0.5478E-06  0.2160E-03  0.3770E-04 -0.2485E+05
   -1.950006   30.37421  0.4381E-14  0.4730E-05  0.1362E-05  0.1893E-03  0.2036E-04  0.1017E+06
   -2.000003   30.37662  0.4381E-14  0.0000E+00  0.0000E+00  0.0000E+00  0.3761E-04  0.0000E+00
