 1 - depth, m
 2 - temperature, C
 3 - salinity, kg/kg
 4 - turbulent kinetic energy, m**2/s**2
 5 - dissipation rate, m**2/s**3
 6 - kinematic heat conductance, m**2/s
 7 - modulus of horizontal velocity, m/s
 8 - Richardson number, n/d
   -0.000000   30.65652  0.6290E-14  0.5069E-05  0.3222E-06  0.5205E-04  0.1873E-02  0.6942E+04
   -0.049997   30.68778  0.6290E-14  0.8577E-05  0.1435E-06  0.1788E-03  0.1071E-02  0.3902E+03
   -0.099994   30.69997  0.6290E-14  0.1040E-04  0.9841E-07  0.4010E-03  0.7872E-03  0.1471E+02
   -0.149992   30.70338  0.6290E-14  0.1154E-04  0.8235E-07  0.4824E-03  0.6953E-03  0.7223E+01
   -0.199991   30.70609  0.6290E-14  0.1243E-04  0.7297E-07  0.6461E-03  0.6209E-03  0.4612E+01
   -0.249989   30.70806  0.6290E-14  0.1313E-04  0.6683E-07  0.7727E-03  0.5653E-03  0.3399E+01
   -0.299988   30.70965  0.6290E-14  0.1370E-04  0.6246E-07  0.8994E-03  0.5191E-03  0.2695E+01
   -0.349988   30.71099  0.6290E-14  0.1418E-04  0.5918E-07  0.1014E-02  0.4795E-03  0.2303E+01
   -0.399988   30.71214  0.6290E-14  0.1457E-04  0.5663E-07  0.1119E-02  0.4446E-03  0.2046E+01
   -0.449988   30.71317  0.6290E-14  0.1492E-04  0.5455E-07  0.1216E-02  0.4138E-03  0.1924E+01
   -0.499988   30.71409  0.6290E-14  0.1521E-04  0.5283E-07  0.1306E-02  0.3866E-03  0.1868E+01
   -0.549989   30.71493  0.6290E-14  0.1546E-04  0.5138E-07  0.1388E-02  0.3622E-03  0.1845E+01
   -0.599989   30.71571  0.6290E-14  0.1568E-04  0.5016E-07  0.1463E-02  0.3401E-03  0.1840E+01
   -0.649990   30.71644  0.6290E-14  0.1586E-04  0.4912E-07  0.1529E-02  0.3199E-03  0.1862E+01
   -0.699992   30.71713  0.6290E-14  0.1602E-04  0.4824E-07  0.1588E-02  0.3014E-03  0.1895E+01
   -0.749993   30.71778  0.6290E-14  0.1615E-04  0.4749E-07  0.1639E-02  0.2843E-03  0.1956E+01
   -0.799994   30.71840  0.6290E-14  0.1625E-04  0.4687E-07  0.1683E-02  0.2684E-03  0.2027E+01
   -0.849996   30.71899  0.6290E-14  0.1632E-04  0.4636E-07  0.1718E-02  0.2536E-03  0.2132E+01
   -0.899998   30.71957  0.6290E-14  0.1638E-04  0.4596E-07  0.1745E-02  0.2397E-03  0.2250E+01
   -0.949999   30.72013  0.6290E-14  0.1641E-04  0.4567E-07  0.1763E-02  0.2265E-03  0.2409E+01
   -1.000001   30.72068  0.6290E-14  0.1642E-04  0.4548E-07  0.1774E-02  0.2141E-03  0.2589E+01
   -1.050003   30.72122  0.6290E-14  0.1640E-04  0.4540E-07  0.1774E-02  0.2023E-03  0.2932E+01
   -1.100005   30.72176  0.6290E-14  0.1637E-04  0.4544E-07  0.1866E-02  0.1911E-03  0.9618E+01
   -1.150006   30.72226  0.6290E-14  0.1631E-04  0.4562E-07  0.1683E-02  0.1811E-03  0.2222E+02
   -1.200008   30.72282  0.6290E-14  0.1622E-04  0.4593E-07  0.1713E-02  0.1706E-03  0.4230E+01
   -1.250009   30.72336  0.6290E-14  0.1611E-04  0.4643E-07  0.1683E-02  0.1607E-03  0.4479E+01
   -1.300011   30.72391  0.6290E-14  0.1597E-04  0.4715E-07  0.1632E-02  0.1511E-03  0.5251E+01
   -1.350012   30.72447  0.6290E-14  0.1580E-04  0.4815E-07  0.1571E-02  0.1418E-03  0.6274E+01
   -1.400013   30.72505  0.6290E-14  0.1558E-04  0.4952E-07  0.1492E-02  0.1327E-03  0.7783E+01
   -1.450014   30.72565  0.6290E-14  0.1533E-04  0.5140E-07  0.1413E-02  0.1237E-03  0.9938E+01
   -1.500014   30.72630  0.6290E-14  0.1501E-04  0.5405E-07  0.1300E-02  0.1149E-03  0.1362E+02
   -1.550014   30.72700  0.6290E-14  0.1463E-04  0.5783E-07  0.1216E-02  0.1061E-03  0.1961E+02
   -1.600015   30.72776  0.6290E-14  0.1416E-04  0.6368E-07  0.1072E-02  0.9743E-04  0.4089E+02
   -1.650014   30.72870  0.6290E-14  0.1356E-04  0.7291E-07  0.9921E-03  0.8807E-04  0.3859E+04
   -1.700014   30.72978  0.6290E-14  0.1272E-04  0.8950E-07  0.8079E-03  0.7878E-04 -0.7547E+04
   -1.750013   30.73168  0.6290E-14  0.1163E-04  0.1163E-06  0.7327E-03  0.6642E-04  0.3676E+05
   -1.800012   30.73318  0.6290E-14  0.1019E-04  0.1750E-06  0.5027E-03  0.5711E-04  0.1988E+05
   -1.850010   30.73995  0.6290E-14  0.8644E-05  0.2840E-06  0.4703E-03  0.4035E-04  0.3201E+08
   -1.900008   30.73812  0.6290E-14  0.6869E-05  0.5934E-06  0.2161E-03  0.3312E-04  0.1405E+06
   -1.950005   30.75776  0.6290E-14  0.4832E-05  0.1471E-05  0.1964E-03  0.1781E-04 -0.2515E+07
   -2.000002   30.75933  0.6290E-14  0.0000E+00  0.0000E+00  0.0000E+00  0.3336E-04  0.0000E+00
