 1 - depth, m
 2 - temperature, C
 3 - salinity, kg/kg
 4 - turbulent kinetic energy, m**2/s**2
 5 - dissipation rate, m**2/s**3
 6 - kinematic heat conductance, m**2/s
 7 - modulus of horizontal velocity, m/s
 8 - Richardson number, n/d
   -0.000000   30.84104  0.4144E-14  0.5008E-05  0.3211E-06  0.5130E-04  0.8203E-03  0.1644E+05
   -0.049997   30.87338  0.4144E-14  0.8727E-05  0.1425E-06  0.1837E-03  0.4697E-03  0.1340E+03
   -0.099994   30.88558  0.4144E-14  0.1059E-04  0.9812E-07  0.4182E-03  0.3424E-03  0.9946E+02
   -0.149992   30.88889  0.4144E-14  0.1174E-04  0.8263E-07  0.4947E-03  0.3036E-03  0.4896E+02
   -0.199991   30.89158  0.4144E-14  0.1264E-04  0.7349E-07  0.6631E-03  0.2715E-03  0.3190E+02
   -0.249989   30.89352  0.4144E-14  0.1336E-04  0.6749E-07  0.7908E-03  0.2476E-03  0.2359E+02
   -0.299988   30.89510  0.4144E-14  0.1394E-04  0.6320E-07  0.9191E-03  0.2277E-03  0.1889E+02
   -0.349988   30.89643  0.4144E-14  0.1442E-04  0.5998E-07  0.1035E-02  0.2106E-03  0.1605E+02
   -0.399988   30.89758  0.4144E-14  0.1483E-04  0.5747E-07  0.1141E-02  0.1955E-03  0.1438E+02
   -0.449988   30.89860  0.4144E-14  0.1518E-04  0.5543E-07  0.1239E-02  0.1821E-03  0.1338E+02
   -0.499988   30.89952  0.4144E-14  0.1548E-04  0.5374E-07  0.1329E-02  0.1703E-03  0.1308E+02
   -0.549989   30.90036  0.4144E-14  0.1574E-04  0.5232E-07  0.1411E-02  0.1598E-03  0.1277E+02
   -0.599989   30.90114  0.4144E-14  0.1596E-04  0.5113E-07  0.1486E-02  0.1502E-03  0.1285E+02
   -0.649990   30.90187  0.4144E-14  0.1615E-04  0.5012E-07  0.1553E-02  0.1414E-03  0.1285E+02
   -0.699992   30.90256  0.4144E-14  0.1631E-04  0.4927E-07  0.1612E-02  0.1334E-03  0.1323E+02
   -0.749993   30.90321  0.4144E-14  0.1644E-04  0.4855E-07  0.1663E-02  0.1259E-03  0.1349E+02
   -0.799994   30.90383  0.4144E-14  0.1655E-04  0.4796E-07  0.1706E-02  0.1190E-03  0.1415E+02
   -0.849996   30.90443  0.4144E-14  0.1664E-04  0.4748E-07  0.1742E-02  0.1125E-03  0.1468E+02
   -0.899998   30.90502  0.4144E-14  0.1670E-04  0.4711E-07  0.1769E-02  0.1064E-03  0.1567E+02
   -0.949999   30.90558  0.4144E-14  0.1673E-04  0.4685E-07  0.1787E-02  0.1007E-03  0.1655E+02
   -1.000001   30.90614  0.4144E-14  0.1675E-04  0.4670E-07  0.1797E-02  0.9520E-04  0.1799E+02
   -1.050003   30.90669  0.4144E-14  0.1674E-04  0.4666E-07  0.1797E-02  0.9003E-04  0.2011E+02
   -1.100004   30.90723  0.4144E-14  0.1671E-04  0.4675E-07  0.1891E-02  0.8508E-04  0.6692E+02
   -1.150006   30.90774  0.4144E-14  0.1665E-04  0.4698E-07  0.1702E-02  0.8068E-04  0.1530E+03
   -1.200008   30.90831  0.4144E-14  0.1657E-04  0.4736E-07  0.1733E-02  0.7606E-04  0.2892E+02
   -1.250009   30.90886  0.4144E-14  0.1646E-04  0.4792E-07  0.1702E-02  0.7165E-04  0.3094E+02
   -1.300010   30.90942  0.4144E-14  0.1632E-04  0.4872E-07  0.1650E-02  0.6742E-04  0.3586E+02
   -1.350012   30.90999  0.4144E-14  0.1615E-04  0.4982E-07  0.1589E-02  0.6329E-04  0.4319E+02
   -1.400013   30.91058  0.4144E-14  0.1594E-04  0.5131E-07  0.1508E-02  0.5928E-04  0.5301E+02
   -1.450013   30.91121  0.4144E-14  0.1568E-04  0.5335E-07  0.1429E-02  0.5531E-04  0.6814E+02
   -1.500014   30.91187  0.4144E-14  0.1536E-04  0.5621E-07  0.1315E-02  0.5141E-04  0.9259E+02
   -1.550014   30.91260  0.4144E-14  0.1498E-04  0.6028E-07  0.1230E-02  0.4747E-04  0.1350E+03
   -1.600014   30.91339  0.4144E-14  0.1450E-04  0.6668E-07  0.1085E-02  0.4362E-04  0.2977E+03
   -1.650014   30.91438  0.4144E-14  0.1387E-04  0.7669E-07  0.9993E-03  0.3937E-04 -0.1075E+04
   -1.700014   30.91553  0.4144E-14  0.1301E-04  0.9422E-07  0.8174E-03  0.3518E-04 -0.1453E+06
   -1.750013   30.91755  0.4144E-14  0.1193E-04  0.1227E-06  0.7372E-03  0.2964E-04  0.4431E+07
   -1.800011   30.91905  0.4144E-14  0.1052E-04  0.1839E-06  0.5129E-03  0.2558E-04  0.5275E+06
   -1.850010   30.92618  0.4144E-14  0.8980E-05  0.2999E-06  0.4757E-03  0.1821E-04  0.2456E+09
   -1.900008   30.92415  0.4144E-14  0.7150E-05  0.6247E-06  0.2164E-03  0.1494E-04  0.2956E+07
   -1.950005   30.94470  0.4144E-14  0.5015E-05  0.1531E-05  0.1973E-03  0.8097E-05 -0.1193E+07
   -2.000002   30.94626  0.4144E-14  0.0000E+00  0.0000E+00  0.0000E+00  0.1504E-04  0.0000E+00
