 1 - depth, m
 2 - temperature, C
 3 - salinity, kg/kg
 4 - turbulent kinetic energy, m**2/s**2
 5 - dissipation rate, m**2/s**3
 6 - kinematic heat conductance, m**2/s
 7 - modulus of horizontal velocity, m/s
 8 - Richardson number, n/d
   -0.000000   30.64514  0.1460E-13  0.5303E-05  0.3224E-06  0.5223E-04  0.2580E-02  0.1989E+04
   -0.049997   30.67676  0.1460E-13  0.8814E-05  0.1420E-06  0.1943E-03  0.1412E-02  0.2828E+04
   -0.099994   30.68729  0.1460E-13  0.1053E-04  0.9945E-07  0.3951E-03  0.1079E-02  0.7297E+01
   -0.149992   30.69075  0.1460E-13  0.1163E-04  0.8330E-07  0.4898E-03  0.9539E-03  0.3720E+01
   -0.199991   30.69342  0.1460E-13  0.1250E-04  0.7387E-07  0.6444E-03  0.8554E-03  0.2406E+01
   -0.249989   30.69538  0.1460E-13  0.1319E-04  0.6770E-07  0.7702E-03  0.7806E-03  0.1782E+01
   -0.299988   30.69698  0.1460E-13  0.1376E-04  0.6332E-07  0.8903E-03  0.7183E-03  0.1432E+01
   -0.349988   30.69833  0.1460E-13  0.1423E-04  0.6001E-07  0.9977E-03  0.6646E-03  0.1275E+01
   -0.399988   30.69951  0.1460E-13  0.1464E-04  0.5738E-07  0.1103E-02  0.6161E-03  0.1223E+01
   -0.449988   30.70055  0.1460E-13  0.1500E-04  0.5518E-07  0.1209E-02  0.5717E-03  0.1216E+01
   -0.499988   30.70148  0.1460E-13  0.1533E-04  0.5333E-07  0.1309E-02  0.5315E-03  0.1221E+01
   -0.549989   30.70232  0.1460E-13  0.1561E-04  0.5177E-07  0.1402E-02  0.4951E-03  0.1220E+01
   -0.599989   30.70309  0.1460E-13  0.1585E-04  0.5046E-07  0.1486E-02  0.4620E-03  0.1218E+01
   -0.649990   30.70381  0.1460E-13  0.1605E-04  0.4936E-07  0.1561E-02  0.4320E-03  0.1213E+01
   -0.699992   30.70448  0.1460E-13  0.1622E-04  0.4845E-07  0.1626E-02  0.4047E-03  0.1207E+01
   -0.749993   30.70512  0.1460E-13  0.1636E-04  0.4770E-07  0.1680E-02  0.3799E-03  0.1202E+01
   -0.799994   30.70572  0.1460E-13  0.1646E-04  0.4709E-07  0.1724E-02  0.3573E-03  0.1202E+01
   -0.849996   30.70631  0.1460E-13  0.1654E-04  0.4662E-07  0.1758E-02  0.3367E-03  0.1214E+01
   -0.899998   30.70688  0.1460E-13  0.1659E-04  0.4627E-07  0.1782E-02  0.3177E-03  0.1243E+01
   -0.949999   30.70743  0.1460E-13  0.1662E-04  0.4602E-07  0.1797E-02  0.3002E-03  0.1300E+01
   -1.000001   30.70797  0.1460E-13  0.1662E-04  0.4589E-07  0.1804E-02  0.2838E-03  0.1387E+01
   -1.050003   30.70851  0.1460E-13  0.1660E-04  0.4587E-07  0.1799E-02  0.2684E-03  0.1564E+01
   -1.100004   30.70904  0.1460E-13  0.1656E-04  0.4597E-07  0.1906E-02  0.2537E-03  0.5089E+01
   -1.150006   30.70954  0.1460E-13  0.1650E-04  0.4622E-07  0.1684E-02  0.2406E-03  0.1226E+02
   -1.200008   30.71010  0.1460E-13  0.1641E-04  0.4661E-07  0.1726E-02  0.2268E-03  0.2295E+01
   -1.250009   30.71064  0.1460E-13  0.1629E-04  0.4720E-07  0.1693E-02  0.2136E-03  0.2446E+01
   -1.300010   30.71119  0.1460E-13  0.1614E-04  0.4802E-07  0.1638E-02  0.2010E-03  0.2880E+01
   -1.350012   30.71176  0.1460E-13  0.1595E-04  0.4915E-07  0.1574E-02  0.1887E-03  0.3477E+01
   -1.400013   30.71234  0.1460E-13  0.1573E-04  0.5068E-07  0.1490E-02  0.1766E-03  0.4348E+01
   -1.450013   30.71297  0.1460E-13  0.1546E-04  0.5279E-07  0.1409E-02  0.1648E-03  0.5632E+01
   -1.500014   30.71363  0.1460E-13  0.1513E-04  0.5576E-07  0.1290E-02  0.1531E-03  0.7843E+01
   -1.550014   30.71436  0.1460E-13  0.1472E-04  0.6001E-07  0.1208E-02  0.1413E-03  0.1170E+02
   -1.600014   30.71515  0.1460E-13  0.1422E-04  0.6677E-07  0.1059E-02  0.1297E-03  0.3148E+02
   -1.650014   30.71617  0.1460E-13  0.1356E-04  0.7744E-07  0.9789E-03  0.1168E-03 -0.1089E+03
   -1.700014   30.71734  0.1460E-13  0.1265E-04  0.9640E-07  0.7917E-03  0.1042E-03  0.1845E+05
   -1.750013   30.71947  0.1460E-13  0.1151E-04  0.1266E-06  0.7164E-03  0.8703E-04  0.1834E+05
   -1.800011   30.72094  0.1460E-13  0.1005E-04  0.1923E-06  0.4876E-03  0.7493E-04 -0.3284E+04
   -1.850010   30.72881  0.1460E-13  0.8502E-05  0.3173E-06  0.4636E-03  0.5200E-04  0.6148E+08
   -1.900008   30.72604  0.1460E-13  0.6762E-05  0.6667E-06  0.2092E-03  0.4301E-04 -0.5472E+05
   -1.950005   30.74767  0.1460E-13  0.4789E-05  0.1610E-05  0.2068E-03  0.2276E-04 -0.2131E+06
   -2.000002   30.74786  0.1460E-13  0.0000E+00  0.0000E+00  0.0000E+00  0.4438E-04  0.0000E+00
