 1 - depth, m
 2 - temperature, C
 3 - salinity, kg/kg
 4 - turbulent kinetic energy, m**2/s**2
 5 - dissipation rate, m**2/s**3
 6 - kinematic heat conductance, m**2/s
 7 - modulus of horizontal velocity, m/s
 8 - Richardson number, n/d
   -0.000000   30.57159  0.1715E-13  0.5786E-05  0.3178E-06  0.5565E-04  0.4211E-02  0.1456E+03
   -0.049997   30.60141  0.1715E-13  0.9072E-05  0.1358E-06  0.2125E-03  0.2261E-02  0.1365E+02
   -0.099994   30.61003  0.1715E-13  0.1053E-04  0.9795E-07  0.3869E-03  0.1825E-02  0.3251E+01
   -0.149992   30.61345  0.1715E-13  0.1152E-04  0.8300E-07  0.4821E-03  0.1639E-02  0.1758E+01
   -0.199991   30.61607  0.1715E-13  0.1232E-04  0.7422E-07  0.6026E-03  0.1493E-02  0.1308E+01
   -0.249989   30.61810  0.1715E-13  0.1301E-04  0.6819E-07  0.7126E-03  0.1375E-02  0.1299E+01
   -0.299988   30.61978  0.1715E-13  0.1366E-04  0.6348E-07  0.8451E-03  0.1263E-02  0.1394E+01
   -0.349988   30.62116  0.1715E-13  0.1428E-04  0.5960E-07  0.9937E-03  0.1154E-02  0.1492E+01
   -0.399988   30.62230  0.1715E-13  0.1485E-04  0.5640E-07  0.1148E-02  0.1047E-02  0.1514E+01
   -0.449988   30.62327  0.1715E-13  0.1536E-04  0.5375E-07  0.1300E-02  0.9488E-03  0.1513E+01
   -0.499988   30.62411  0.1715E-13  0.1580E-04  0.5157E-07  0.1440E-02  0.8607E-03  0.1507E+01
   -0.549989   30.62485  0.1715E-13  0.1618E-04  0.4979E-07  0.1568E-02  0.7825E-03  0.1490E+01
   -0.599989   30.62552  0.1715E-13  0.1649E-04  0.4834E-07  0.1681E-02  0.7130E-03  0.1469E+01
   -0.649991   30.62613  0.1715E-13  0.1673E-04  0.4717E-07  0.1778E-02  0.6512E-03  0.1445E+01
   -0.699992   30.62670  0.1715E-13  0.1693E-04  0.4624E-07  0.1858E-02  0.5962E-03  0.1416E+01
   -0.749993   30.62724  0.1715E-13  0.1707E-04  0.4553E-07  0.1919E-02  0.5472E-03  0.1386E+01
   -0.799995   30.62775  0.1715E-13  0.1716E-04  0.4499E-07  0.1963E-02  0.5036E-03  0.1352E+01
   -0.849996   30.62825  0.1715E-13  0.1721E-04  0.4463E-07  0.1990E-02  0.4648E-03  0.1316E+01
   -0.899998   30.62873  0.1715E-13  0.1723E-04  0.4442E-07  0.2001E-02  0.4301E-03  0.1277E+01
   -0.949999   30.62921  0.1715E-13  0.1721E-04  0.4435E-07  0.1998E-02  0.3993E-03  0.1236E+01
   -1.000001   30.62968  0.1715E-13  0.1716E-04  0.4441E-07  0.1981E-02  0.3717E-03  0.1191E+01
   -1.050003   30.63015  0.1715E-13  0.1709E-04  0.4460E-07  0.1942E-02  0.3472E-03  0.1148E+01
   -1.100005   30.63062  0.1715E-13  0.1701E-04  0.4487E-07  0.2129E-02  0.3256E-03  0.2570E+01
   -1.150006   30.63105  0.1715E-13  0.1690E-04  0.4529E-07  0.1726E-02  0.3104E-03  0.6972E+01
   -1.200008   30.63158  0.1715E-13  0.1677E-04  0.4585E-07  0.1830E-02  0.2928E-03  0.1269E+01
   -1.250009   30.63207  0.1715E-13  0.1661E-04  0.4662E-07  0.1787E-02  0.2762E-03  0.1320E+01
   -1.300011   30.63257  0.1715E-13  0.1642E-04  0.4765E-07  0.1716E-02  0.2605E-03  0.1548E+01
   -1.350012   30.63309  0.1715E-13  0.1619E-04  0.4902E-07  0.1640E-02  0.2451E-03  0.1888E+01
   -1.400013   30.63363  0.1715E-13  0.1592E-04  0.5086E-07  0.1537E-02  0.2301E-03  0.2408E+01
   -1.450014   30.63421  0.1715E-13  0.1560E-04  0.5339E-07  0.1447E-02  0.2151E-03  0.3182E+01
   -1.500014   30.63483  0.1715E-13  0.1521E-04  0.5695E-07  0.1314E-02  0.2002E-03  0.4608E+01
   -1.550015   30.63553  0.1715E-13  0.1475E-04  0.6211E-07  0.1230E-02  0.1850E-03  0.7691E+01
   -1.600015   30.63630  0.1715E-13  0.1416E-04  0.7050E-07  0.1071E-02  0.1700E-03 -0.2035E+03
   -1.650014   30.63737  0.1715E-13  0.1338E-04  0.8373E-07  0.9843E-03  0.1524E-03  0.1567E+04
   -1.700014   30.63858  0.1715E-13  0.1231E-04  0.1079E-06  0.7898E-03  0.1351E-03  0.4464E+04
   -1.750013   30.64091  0.1715E-13  0.1105E-04  0.1447E-06  0.7155E-03  0.1110E-03  0.3773E+05
   -1.800012   30.64220  0.1715E-13  0.9496E-05  0.2251E-06  0.4812E-03  0.9560E-04  0.1652E+05
   -1.850010   30.65097  0.1715E-13  0.7986E-05  0.3764E-06  0.4627E-03  0.6412E-04  0.1351E+08
   -1.900008   30.64681  0.1715E-13  0.6354E-05  0.7902E-06  0.2160E-03  0.5386E-04 -0.2941E+06
   -1.950005   30.66916  0.1715E-13  0.4556E-05  0.1866E-05  0.2280E-03  0.2787E-04 -0.5411E+05
   -2.000002   30.66841  0.1715E-13  0.0000E+00  0.0000E+00  0.0000E+00  0.5931E-04  0.0000E+00
