 1 - depth, m
 2 - temperature, C
 3 - salinity, kg/kg
 4 - turbulent kinetic energy, m**2/s**2
 5 - dissipation rate, m**2/s**3
 6 - kinematic heat conductance, m**2/s
 7 - modulus of horizontal velocity, m/s
 8 - Richardson number, n/d
   -0.000000   29.64068  0.8642E-14  0.4676E-05  0.2840E-06  0.4980E-04  0.1860E-02  0.4869E+04
   -0.049997   29.66991  0.8642E-14  0.7942E-05  0.1265E-06  0.1722E-03  0.1065E-02  0.2357E+04
   -0.099994   29.68136  0.8642E-14  0.9631E-05  0.8669E-07  0.3910E-03  0.7765E-03  0.1360E+02
   -0.149992   29.68452  0.8642E-14  0.1069E-04  0.7270E-07  0.4702E-03  0.6853E-03  0.6612E+01
   -0.199991   29.68704  0.8642E-14  0.1151E-04  0.6451E-07  0.6279E-03  0.6113E-03  0.4243E+01
   -0.249989   29.68887  0.8642E-14  0.1216E-04  0.5913E-07  0.7510E-03  0.5559E-03  0.3127E+01
   -0.299989   29.69036  0.8642E-14  0.1269E-04  0.5530E-07  0.8734E-03  0.5099E-03  0.2485E+01
   -0.349988   29.69161  0.8642E-14  0.1313E-04  0.5243E-07  0.9844E-03  0.4704E-03  0.2124E+01
   -0.399988   29.69270  0.8642E-14  0.1350E-04  0.5019E-07  0.1086E-02  0.4355E-03  0.1891E+01
   -0.449988   29.69366  0.8642E-14  0.1382E-04  0.4837E-07  0.1181E-02  0.4049E-03  0.1776E+01
   -0.499988   29.69452  0.8642E-14  0.1410E-04  0.4687E-07  0.1267E-02  0.3778E-03  0.1728E+01
   -0.549989   29.69532  0.8642E-14  0.1434E-04  0.4561E-07  0.1347E-02  0.3535E-03  0.1706E+01
   -0.599990   29.69605  0.8642E-14  0.1454E-04  0.4454E-07  0.1419E-02  0.3316E-03  0.1706E+01
   -0.649991   29.69673  0.8642E-14  0.1472E-04  0.4364E-07  0.1484E-02  0.3116E-03  0.1728E+01
   -0.699992   29.69737  0.8642E-14  0.1487E-04  0.4288E-07  0.1542E-02  0.2933E-03  0.1766E+01
   -0.749993   29.69799  0.8642E-14  0.1499E-04  0.4223E-07  0.1592E-02  0.2764E-03  0.1824E+01
   -0.799995   29.69857  0.8642E-14  0.1509E-04  0.4170E-07  0.1635E-02  0.2606E-03  0.1899E+01
   -0.849996   29.69913  0.8642E-14  0.1517E-04  0.4126E-07  0.1670E-02  0.2460E-03  0.1996E+01
   -0.899998   29.69968  0.8642E-14  0.1523E-04  0.4092E-07  0.1698E-02  0.2322E-03  0.2114E+01
   -0.950000   29.70021  0.8642E-14  0.1527E-04  0.4067E-07  0.1717E-02  0.2192E-03  0.2260E+01
   -1.000002   29.70072  0.8642E-14  0.1529E-04  0.4051E-07  0.1729E-02  0.2070E-03  0.2437E+01
   -1.050003   29.70123  0.8642E-14  0.1528E-04  0.4045E-07  0.1731E-02  0.1954E-03  0.2759E+01
   -1.100005   29.70174  0.8642E-14  0.1526E-04  0.4049E-07  0.1812E-02  0.1843E-03  0.9206E+01
   -1.150007   29.70222  0.8642E-14  0.1522E-04  0.4065E-07  0.1658E-02  0.1744E-03  0.2041E+02
   -1.200008   29.70274  0.8642E-14  0.1515E-04  0.4093E-07  0.1679E-02  0.1642E-03  0.3953E+01
   -1.250010   29.70325  0.8642E-14  0.1506E-04  0.4137E-07  0.1650E-02  0.1545E-03  0.4206E+01
   -1.300011   29.70376  0.8642E-14  0.1494E-04  0.4199E-07  0.1603E-02  0.1451E-03  0.4901E+01
   -1.350012   29.70429  0.8642E-14  0.1479E-04  0.4284E-07  0.1546E-02  0.1360E-03  0.5839E+01
   -1.400013   29.70483  0.8642E-14  0.1461E-04  0.4399E-07  0.1474E-02  0.1271E-03  0.7160E+01
   -1.450014   29.70540  0.8642E-14  0.1439E-04  0.4557E-07  0.1397E-02  0.1184E-03  0.9057E+01
   -1.500015   29.70600  0.8642E-14  0.1413E-04  0.4774E-07  0.1291E-02  0.1099E-03  0.1212E+02
   -1.550015   29.70666  0.8642E-14  0.1380E-04  0.5082E-07  0.1204E-02  0.1014E-03  0.1700E+02
   -1.600015   29.70736  0.8642E-14  0.1340E-04  0.5545E-07  0.1065E-02  0.9308E-04  0.2922E+02
   -1.650015   29.70820  0.8642E-14  0.1289E-04  0.6260E-07  0.9827E-03  0.8426E-04  0.7580E+02
   -1.700014   29.70913  0.8642E-14  0.1219E-04  0.7544E-07  0.8066E-03  0.7565E-04  0.4920E+04
   -1.750014   29.71074  0.8642E-14  0.1124E-04  0.9691E-07  0.7239E-03  0.6449E-04  0.2314E+05
   -1.800012   29.71228  0.8642E-14  0.9935E-05  0.1410E-06  0.5094E-03  0.5513E-04  0.6907E+04
   -1.850011   29.71748  0.8642E-14  0.8437E-05  0.2232E-06  0.4599E-03  0.4000E-04  0.1137E+07
   -1.900009   29.71696  0.8642E-14  0.6648E-05  0.4648E-06  0.2070E-03  0.3224E-04 -0.8686E+06
   -1.950006   29.73457  0.8642E-14  0.4613E-05  0.1176E-05  0.1797E-03  0.1735E-04 -0.3112E+06
   -2.000003   29.73585  0.8642E-14  0.0000E+00  0.0000E+00  0.0000E+00  0.3130E-04  0.0000E+00
