 1 - depth, m
 2 - temperature, C
 3 - salinity, kg/kg
 4 - turbulent kinetic energy, m**2/s**2
 5 - dissipation rate, m**2/s**3
 6 - kinematic heat conductance, m**2/s
 7 - modulus of horizontal velocity, m/s
 8 - Richardson number, n/d
   -0.000000   30.33953  0.1735E-14  0.4599E-05  0.2766E-06  0.4817E-04  0.1229E-02  0.3376E+04
   -0.049997   30.36906  0.1735E-14  0.7968E-05  0.1233E-06  0.1795E-03  0.6895E-03  0.2361E+03
   -0.099994   30.37975  0.1735E-14  0.9649E-05  0.8559E-07  0.3941E-03  0.5087E-03  0.3074E+02
   -0.149992   30.38282  0.1735E-14  0.1071E-04  0.7200E-07  0.4786E-03  0.4489E-03  0.1511E+02
   -0.199991   30.38524  0.1735E-14  0.1154E-04  0.6403E-07  0.6367E-03  0.4009E-03  0.9731E+01
   -0.249989   30.38700  0.1735E-14  0.1220E-04  0.5881E-07  0.7609E-03  0.3649E-03  0.7185E+01
   -0.299988   30.38844  0.1735E-14  0.1274E-04  0.5508E-07  0.8843E-03  0.3349E-03  0.5730E+01
   -0.349988   30.38965  0.1735E-14  0.1319E-04  0.5230E-07  0.9961E-03  0.3092E-03  0.4898E+01
   -0.399988   30.39070  0.1735E-14  0.1357E-04  0.5013E-07  0.1099E-02  0.2865E-03  0.4374E+01
   -0.449988   30.39163  0.1735E-14  0.1390E-04  0.4837E-07  0.1194E-02  0.2665E-03  0.4101E+01
   -0.499988   30.39247  0.1735E-14  0.1418E-04  0.4692E-07  0.1281E-02  0.2488E-03  0.3998E+01
   -0.549989   30.39324  0.1735E-14  0.1443E-04  0.4570E-07  0.1361E-02  0.2330E-03  0.3938E+01
   -0.599990   30.39396  0.1735E-14  0.1464E-04  0.4469E-07  0.1434E-02  0.2186E-03  0.3949E+01
   -0.649991   30.39462  0.1735E-14  0.1482E-04  0.4383E-07  0.1500E-02  0.2056E-03  0.3990E+01
   -0.699992   30.39525  0.1735E-14  0.1498E-04  0.4311E-07  0.1558E-02  0.1936E-03  0.4091E+01
   -0.749993   30.39585  0.1735E-14  0.1512E-04  0.4250E-07  0.1608E-02  0.1825E-03  0.4216E+01
   -0.799995   30.39642  0.1735E-14  0.1523E-04  0.4201E-07  0.1651E-02  0.1722E-03  0.4404E+01
   -0.849996   30.39697  0.1735E-14  0.1531E-04  0.4162E-07  0.1687E-02  0.1626E-03  0.4620E+01
   -0.899998   30.39751  0.1735E-14  0.1538E-04  0.4132E-07  0.1714E-02  0.1535E-03  0.4909E+01
   -0.950000   30.39803  0.1735E-14  0.1543E-04  0.4111E-07  0.1734E-02  0.1450E-03  0.5242E+01
   -1.000001   30.39854  0.1735E-14  0.1545E-04  0.4099E-07  0.1745E-02  0.1370E-03  0.5669E+01
   -1.050003   30.39904  0.1735E-14  0.1546E-04  0.4098E-07  0.1748E-02  0.1293E-03  0.6410E+01
   -1.100005   30.39954  0.1735E-14  0.1544E-04  0.4106E-07  0.1828E-02  0.1221E-03  0.2145E+02
   -1.150006   30.40001  0.1735E-14  0.1541E-04  0.4127E-07  0.1675E-02  0.1156E-03  0.4744E+02
   -1.200008   30.40053  0.1735E-14  0.1535E-04  0.4160E-07  0.1695E-02  0.1089E-03  0.9193E+01
   -1.250009   30.40104  0.1735E-14  0.1527E-04  0.4209E-07  0.1666E-02  0.1024E-03  0.9822E+01
   -1.300011   30.40155  0.1735E-14  0.1516E-04  0.4276E-07  0.1619E-02  0.9625E-04  0.1143E+02
   -1.350012   30.40208  0.1735E-14  0.1502E-04  0.4368E-07  0.1562E-02  0.9025E-04  0.1366E+02
   -1.400013   30.40262  0.1735E-14  0.1484E-04  0.4490E-07  0.1488E-02  0.8442E-04  0.1672E+02
   -1.450014   30.40319  0.1735E-14  0.1463E-04  0.4655E-07  0.1411E-02  0.7870E-04  0.2122E+02
   -1.500014   30.40379  0.1735E-14  0.1437E-04  0.4881E-07  0.1305E-02  0.7309E-04  0.2833E+02
   -1.550015   30.40445  0.1735E-14  0.1405E-04  0.5198E-07  0.1217E-02  0.6748E-04  0.3987E+02
   -1.600015   30.40516  0.1735E-14  0.1366E-04  0.5673E-07  0.1079E-02  0.6196E-04  0.6801E+02
   -1.650015   30.40600  0.1735E-14  0.1315E-04  0.6401E-07  0.9930E-03  0.5615E-04  0.5613E+03
   -1.700014   30.40696  0.1735E-14  0.1246E-04  0.7699E-07  0.8195E-03  0.5045E-04  0.6896E+03
   -1.750013   30.40856  0.1735E-14  0.1152E-04  0.9855E-07  0.7306E-03  0.4313E-04  0.3750E+05
   -1.800012   30.41010  0.1735E-14  0.1023E-04  0.1425E-06  0.5189E-03  0.3698E-04  0.4831E+07
   -1.850010   30.41525  0.1735E-14  0.8726E-05  0.2256E-06  0.4648E-03  0.2713E-04  0.9207E+07
   -1.900008   30.41501  0.1735E-14  0.6886E-05  0.4741E-06  0.2118E-03  0.2179E-04 -0.3415E+06
   -1.950005   30.43261  0.1735E-14  0.4781E-05  0.1187E-05  0.1789E-03  0.1189E-04 -0.5344E+06
   -2.000002   30.43417  0.1735E-14  0.0000E+00  0.0000E+00  0.0000E+00  0.2101E-04  0.0000E+00
