 1 - depth, m
 2 - temperature, C
 3 - salinity, kg/kg
 4 - turbulent kinetic energy, m**2/s**2
 5 - dissipation rate, m**2/s**3
 6 - kinematic heat conductance, m**2/s
 7 - modulus of horizontal velocity, m/s
 8 - Richardson number, n/d
   -0.000000   30.23868  0.1047E-14  0.4885E-05  0.2930E-06  0.5044E-04  0.2228E-02  0.3252E+04
   -0.049997   30.26845  0.1047E-14  0.8203E-05  0.1299E-06  0.1810E-03  0.1243E-02  0.3626E+03
   -0.099994   30.27913  0.1047E-14  0.9862E-05  0.9009E-07  0.3881E-03  0.9302E-03  0.1017E+02
   -0.149992   30.28238  0.1047E-14  0.1092E-04  0.7549E-07  0.4746E-03  0.8208E-03  0.5024E+01
   -0.199991   30.28493  0.1047E-14  0.1174E-04  0.6693E-07  0.6287E-03  0.7337E-03  0.3234E+01
   -0.249989   30.28679  0.1047E-14  0.1239E-04  0.6132E-07  0.7522E-03  0.6680E-03  0.2381E+01
   -0.299989   30.28831  0.1047E-14  0.1293E-04  0.5731E-07  0.8727E-03  0.6133E-03  0.1896E+01
   -0.349988   30.28958  0.1047E-14  0.1337E-04  0.5429E-07  0.9815E-03  0.5663E-03  0.1631E+01
   -0.399988   30.29068  0.1047E-14  0.1374E-04  0.5193E-07  0.1082E-02  0.5245E-03  0.1485E+01
   -0.449988   30.29166  0.1047E-14  0.1407E-04  0.4997E-07  0.1179E-02  0.4871E-03  0.1420E+01
   -0.499988   30.29254  0.1047E-14  0.1435E-04  0.4834E-07  0.1270E-02  0.4537E-03  0.1402E+01
   -0.549989   30.29334  0.1047E-14  0.1459E-04  0.4696E-07  0.1354E-02  0.4236E-03  0.1387E+01
   -0.599990   30.29408  0.1047E-14  0.1480E-04  0.4580E-07  0.1430E-02  0.3963E-03  0.1388E+01
   -0.649991   30.29476  0.1047E-14  0.1498E-04  0.4480E-07  0.1498E-02  0.3715E-03  0.1392E+01
   -0.699992   30.29541  0.1047E-14  0.1513E-04  0.4397E-07  0.1558E-02  0.3489E-03  0.1408E+01
   -0.749993   30.29602  0.1047E-14  0.1525E-04  0.4326E-07  0.1609E-02  0.3282E-03  0.1429E+01
   -0.799995   30.29660  0.1047E-14  0.1534E-04  0.4268E-07  0.1651E-02  0.3091E-03  0.1469E+01
   -0.849996   30.29716  0.1047E-14  0.1541E-04  0.4220E-07  0.1686E-02  0.2915E-03  0.1520E+01
   -0.899998   30.29770  0.1047E-14  0.1546E-04  0.4182E-07  0.1712E-02  0.2752E-03  0.1599E+01
   -0.950000   30.29823  0.1047E-14  0.1549E-04  0.4153E-07  0.1729E-02  0.2599E-03  0.1697E+01
   -1.000001   30.29875  0.1047E-14  0.1549E-04  0.4134E-07  0.1740E-02  0.2454E-03  0.1829E+01
   -1.050003   30.29925  0.1047E-14  0.1548E-04  0.4125E-07  0.1740E-02  0.2317E-03  0.2063E+01
   -1.100005   30.29975  0.1047E-14  0.1544E-04  0.4126E-07  0.1828E-02  0.2187E-03  0.6836E+01
   -1.150007   30.30023  0.1047E-14  0.1538E-04  0.4140E-07  0.1654E-02  0.2071E-03  0.1551E+02
   -1.200008   30.30074  0.1047E-14  0.1530E-04  0.4166E-07  0.1682E-02  0.1950E-03  0.2962E+01
   -1.250010   30.30125  0.1047E-14  0.1519E-04  0.4208E-07  0.1652E-02  0.1835E-03  0.3149E+01
   -1.300011   30.30176  0.1047E-14  0.1506E-04  0.4269E-07  0.1603E-02  0.1724E-03  0.3664E+01
   -1.350012   30.30228  0.1047E-14  0.1489E-04  0.4354E-07  0.1545E-02  0.1616E-03  0.4382E+01
   -1.400013   30.30281  0.1047E-14  0.1469E-04  0.4471E-07  0.1469E-02  0.1511E-03  0.5377E+01
   -1.450014   30.30338  0.1047E-14  0.1446E-04  0.4632E-07  0.1392E-02  0.1408E-03  0.6842E+01
   -1.500015   30.30397  0.1047E-14  0.1417E-04  0.4858E-07  0.1280E-02  0.1307E-03  0.9215E+01
   -1.550015   30.30461  0.1047E-14  0.1382E-04  0.5180E-07  0.1198E-02  0.1206E-03  0.1304E+02
   -1.600015   30.30531  0.1047E-14  0.1338E-04  0.5672E-07  0.1051E-02  0.1107E-03  0.2316E+02
   -1.650015   30.30615  0.1047E-14  0.1284E-04  0.6439E-07  0.9814E-03  0.1001E-03  0.1810E+03
   -1.700014   30.30708  0.1047E-14  0.1209E-04  0.7844E-07  0.7906E-03  0.8978E-04  0.3491E+04
   -1.750014   30.30878  0.1047E-14  0.1107E-04  0.1016E-06  0.7224E-03  0.7580E-04  0.1616E+05
   -1.800012   30.31020  0.1047E-14  0.9707E-05  0.1509E-06  0.4920E-03  0.6506E-04  0.1955E+05
   -1.850011   30.31596  0.1047E-14  0.8168E-05  0.2425E-06  0.4597E-03  0.4601E-04  0.9230E+07
   -1.900009   30.31477  0.1047E-14  0.6454E-05  0.5071E-06  0.2081E-03  0.3754E-04 -0.2225E+05
   -1.950006   30.33241  0.1047E-14  0.4504E-05  0.1275E-05  0.1875E-03  0.2001E-04 -0.8830E+05
   -2.000003   30.33338  0.1047E-14  0.0000E+00  0.0000E+00  0.0000E+00  0.3731E-04  0.0000E+00
