 1 - depth, m
 2 - temperature, C
 3 - salinity, kg/kg
 4 - turbulent kinetic energy, m**2/s**2
 5 - dissipation rate, m**2/s**3
 6 - kinematic heat conductance, m**2/s
 7 - modulus of horizontal velocity, m/s
 8 - Richardson number, n/d
   -0.000000   30.18654  0.4472E-14  0.4635E-05  0.2823E-06  0.4981E-04  0.1570E-02  0.9106E+04
   -0.049997   30.21527  0.4472E-14  0.7940E-05  0.1258E-06  0.1730E-03  0.8972E-03  0.1931E+04
   -0.099994   30.22654  0.4472E-14  0.9642E-05  0.8633E-07  0.3941E-03  0.6534E-03  0.1949E+02
   -0.149992   30.22962  0.4472E-14  0.1070E-04  0.7249E-07  0.4728E-03  0.5768E-03  0.9499E+01
   -0.199991   30.23209  0.4472E-14  0.1153E-04  0.6438E-07  0.6318E-03  0.5146E-03  0.6106E+01
   -0.249989   30.23388  0.4472E-14  0.1219E-04  0.5906E-07  0.7555E-03  0.4680E-03  0.4513E+01
   -0.299989   30.23534  0.4472E-14  0.1272E-04  0.5527E-07  0.8785E-03  0.4293E-03  0.3588E+01
   -0.349988   30.23657  0.4472E-14  0.1317E-04  0.5243E-07  0.9902E-03  0.3962E-03  0.3074E+01
   -0.399988   30.23763  0.4472E-14  0.1354E-04  0.5022E-07  0.1092E-02  0.3669E-03  0.2735E+01
   -0.449988   30.23857  0.4472E-14  0.1387E-04  0.4842E-07  0.1187E-02  0.3411E-03  0.2574E+01
   -0.499988   30.23942  0.4472E-14  0.1415E-04  0.4694E-07  0.1275E-02  0.3183E-03  0.2500E+01
   -0.549989   30.24020  0.4472E-14  0.1439E-04  0.4569E-07  0.1355E-02  0.2979E-03  0.2473E+01
   -0.599990   30.24092  0.4472E-14  0.1460E-04  0.4465E-07  0.1427E-02  0.2795E-03  0.2469E+01
   -0.649991   30.24159  0.4472E-14  0.1478E-04  0.4376E-07  0.1493E-02  0.2627E-03  0.2506E+01
   -0.699992   30.24222  0.4472E-14  0.1494E-04  0.4301E-07  0.1551E-02  0.2473E-03  0.2556E+01
   -0.749993   30.24282  0.4472E-14  0.1506E-04  0.4238E-07  0.1602E-02  0.2330E-03  0.2647E+01
   -0.799995   30.24340  0.4472E-14  0.1517E-04  0.4186E-07  0.1645E-02  0.2198E-03  0.2750E+01
   -0.849996   30.24395  0.4472E-14  0.1525E-04  0.4144E-07  0.1680E-02  0.2075E-03  0.2898E+01
   -0.899998   30.24449  0.4472E-14  0.1532E-04  0.4111E-07  0.1708E-02  0.1959E-03  0.3061E+01
   -0.950000   30.24501  0.4472E-14  0.1536E-04  0.4088E-07  0.1728E-02  0.1850E-03  0.3283E+01
   -1.000001   30.24552  0.4472E-14  0.1538E-04  0.4074E-07  0.1740E-02  0.1747E-03  0.3530E+01
   -1.050003   30.24602  0.4472E-14  0.1538E-04  0.4069E-07  0.1743E-02  0.1649E-03  0.4008E+01
   -1.100005   30.24652  0.4472E-14  0.1536E-04  0.4074E-07  0.1822E-02  0.1556E-03  0.1335E+02
   -1.150006   30.24699  0.4472E-14  0.1532E-04  0.4092E-07  0.1673E-02  0.1472E-03  0.2950E+02
   -1.200008   30.24751  0.4472E-14  0.1526E-04  0.4122E-07  0.1692E-02  0.1386E-03  0.5738E+01
   -1.250010   30.24801  0.4472E-14  0.1517E-04  0.4166E-07  0.1663E-02  0.1304E-03  0.6089E+01
   -1.300011   30.24852  0.4472E-14  0.1506E-04  0.4230E-07  0.1617E-02  0.1225E-03  0.7117E+01
   -1.350012   30.24904  0.4472E-14  0.1492E-04  0.4316E-07  0.1561E-02  0.1149E-03  0.8451E+01
   -1.400013   30.24958  0.4472E-14  0.1475E-04  0.4433E-07  0.1489E-02  0.1074E-03  0.1040E+02
   -1.450014   30.25014  0.4472E-14  0.1453E-04  0.4592E-07  0.1413E-02  0.1001E-03  0.1310E+02
   -1.500015   30.25073  0.4472E-14  0.1427E-04  0.4811E-07  0.1307E-02  0.9297E-04  0.1759E+02
   -1.550015   30.25138  0.4472E-14  0.1395E-04  0.5118E-07  0.1223E-02  0.8581E-04  0.2460E+02
   -1.600015   30.25207  0.4472E-14  0.1356E-04  0.5580E-07  0.1082E-02  0.7880E-04  0.4242E+02
   -1.650015   30.25290  0.4472E-14  0.1306E-04  0.6287E-07  0.1003E-02  0.7139E-04  0.1417E+03
   -1.700014   30.25382  0.4472E-14  0.1237E-04  0.7559E-07  0.8221E-03  0.6419E-04  0.3906E+03
   -1.750013   30.25540  0.4472E-14  0.1145E-04  0.9646E-07  0.7464E-03  0.5477E-04  0.6035E+05
   -1.800012   30.25678  0.4472E-14  0.1018E-04  0.1403E-06  0.5212E-03  0.4723E-04  0.4536E+05
   -1.850010   30.26196  0.4472E-14  0.8707E-05  0.2225E-06  0.4782E-03  0.3445E-04  0.1663E+07
   -1.900008   30.26142  0.4472E-14  0.6925E-05  0.4602E-06  0.2192E-03  0.2801E-04  0.7445E+06
   -1.950006   30.27836  0.4472E-14  0.4780E-05  0.1180E-05  0.1760E-03  0.1539E-04 -0.5191E+05
   -2.000003   30.28113  0.4472E-14  0.0000E+00  0.0000E+00  0.0000E+00  0.2685E-04  0.0000E+00
