 1 - depth, m
 2 - temperature, C
 3 - salinity, kg/kg
 4 - turbulent kinetic energy, m**2/s**2
 5 - dissipation rate, m**2/s**3
 6 - kinematic heat conductance, m**2/s
 7 - modulus of horizontal velocity, m/s
 8 - Richardson number, n/d
   -0.000000   30.66548  0.1069E-14  0.5220E-05  0.3245E-06  0.5224E-04  0.2240E-02  0.2061E+04
   -0.049997   30.69686  0.1069E-14  0.8758E-05  0.1435E-06  0.1888E-03  0.1243E-02  0.1620E+04
   -0.099994   30.70811  0.1069E-14  0.1053E-04  0.9961E-07  0.4005E-03  0.9356E-03  0.1078E+02
   -0.149992   30.71152  0.1069E-14  0.1167E-04  0.8344E-07  0.4899E-03  0.8268E-03  0.5395E+01
   -0.199991   30.71418  0.1069E-14  0.1255E-04  0.7401E-07  0.6499E-03  0.7402E-03  0.3465E+01
   -0.249989   30.71614  0.1069E-14  0.1326E-04  0.6786E-07  0.7769E-03  0.6749E-03  0.2569E+01
   -0.299988   30.71773  0.1069E-14  0.1384E-04  0.6349E-07  0.9019E-03  0.6206E-03  0.2046E+01
   -0.349988   30.71906  0.1069E-14  0.1432E-04  0.6022E-07  0.1013E-02  0.5739E-03  0.1773E+01
   -0.399988   30.72023  0.1069E-14  0.1473E-04  0.5766E-07  0.1116E-02  0.5324E-03  0.1625E+01
   -0.449988   30.72127  0.1069E-14  0.1510E-04  0.5555E-07  0.1218E-02  0.4950E-03  0.1578E+01
   -0.499988   30.72220  0.1069E-14  0.1541E-04  0.5379E-07  0.1314E-02  0.4612E-03  0.1554E+01
   -0.549989   30.72304  0.1069E-14  0.1569E-04  0.5231E-07  0.1403E-02  0.4307E-03  0.1550E+01
   -0.599989   30.72382  0.1069E-14  0.1593E-04  0.5107E-07  0.1483E-02  0.4030E-03  0.1542E+01
   -0.649990   30.72454  0.1069E-14  0.1614E-04  0.5004E-07  0.1554E-02  0.3778E-03  0.1557E+01
   -0.699992   30.72523  0.1069E-14  0.1631E-04  0.4919E-07  0.1616E-02  0.3549E-03  0.1564E+01
   -0.749993   30.72587  0.1069E-14  0.1645E-04  0.4848E-07  0.1669E-02  0.3339E-03  0.1598E+01
   -0.799994   30.72650  0.1069E-14  0.1656E-04  0.4792E-07  0.1712E-02  0.3147E-03  0.1628E+01
   -0.849996   30.72709  0.1069E-14  0.1665E-04  0.4749E-07  0.1745E-02  0.2970E-03  0.1697E+01
   -0.899997   30.72767  0.1069E-14  0.1671E-04  0.4717E-07  0.1770E-02  0.2807E-03  0.1772E+01
   -0.949999   30.72824  0.1069E-14  0.1675E-04  0.4696E-07  0.1786E-02  0.2654E-03  0.1902E+01
   -1.000001   30.72880  0.1069E-14  0.1676E-04  0.4687E-07  0.1793E-02  0.2510E-03  0.2042E+01
   -1.050003   30.72935  0.1069E-14  0.1675E-04  0.4689E-07  0.1790E-02  0.2373E-03  0.2335E+01
   -1.100004   30.72990  0.1069E-14  0.1672E-04  0.4704E-07  0.1894E-02  0.2242E-03  0.7592E+01
   -1.150006   30.73041  0.1069E-14  0.1666E-04  0.4735E-07  0.1679E-02  0.2127E-03  0.1814E+02
   -1.200007   30.73100  0.1069E-14  0.1658E-04  0.4780E-07  0.1718E-02  0.2004E-03  0.3439E+01
   -1.250009   30.73156  0.1069E-14  0.1647E-04  0.4846E-07  0.1685E-02  0.1887E-03  0.3663E+01
   -1.300010   30.73213  0.1069E-14  0.1633E-04  0.4936E-07  0.1630E-02  0.1775E-03  0.4343E+01
   -1.350011   30.73272  0.1069E-14  0.1615E-04  0.5059E-07  0.1565E-02  0.1666E-03  0.5235E+01
   -1.400012   30.73334  0.1069E-14  0.1593E-04  0.5224E-07  0.1482E-02  0.1559E-03  0.6586E+01
   -1.450013   30.73399  0.1069E-14  0.1566E-04  0.5450E-07  0.1399E-02  0.1454E-03  0.8532E+01
   -1.500014   30.73469  0.1069E-14  0.1533E-04  0.5766E-07  0.1283E-02  0.1350E-03  0.1193E+02
   -1.550014   30.73546  0.1069E-14  0.1493E-04  0.6220E-07  0.1198E-02  0.1246E-03  0.1798E+02
   -1.600014   30.73631  0.1069E-14  0.1442E-04  0.6929E-07  0.1051E-02  0.1142E-03  0.3952E+02
   -1.650014   30.73738  0.1069E-14  0.1375E-04  0.8044E-07  0.9691E-03  0.1029E-03  0.2573E+03
   -1.700013   30.73867  0.1069E-14  0.1283E-04  0.1000E-06  0.7876E-03  0.9151E-04  0.5298E+04
   -1.750012   30.74090  0.1069E-14  0.1167E-04  0.1316E-06  0.7086E-03  0.7648E-04  0.1020E+06
   -1.800011   30.74256  0.1069E-14  0.1017E-04  0.2034E-06  0.4844E-03  0.6565E-04  0.4690E+04
   -1.850009   30.75105  0.1069E-14  0.8592E-05  0.3352E-06  0.4594E-03  0.4520E-04  0.1753E+08
   -1.900007   30.74810  0.1069E-14  0.6827E-05  0.6989E-06  0.2074E-03  0.3731E-04 -0.2518E+05
   -1.950005   30.77185  0.1069E-14  0.4858E-05  0.1693E-05  0.2093E-03  0.1963E-04 -0.2062E+06
   -2.000002   30.77250  0.1069E-14  0.0000E+00  0.0000E+00  0.0000E+00  0.3869E-04  0.0000E+00
