 1 - depth, m
 2 - temperature, C
 3 - salinity, kg/kg
 4 - turbulent kinetic energy, m**2/s**2
 5 - dissipation rate, m**2/s**3
 6 - kinematic heat conductance, m**2/s
 7 - modulus of horizontal velocity, m/s
 8 - Richardson number, n/d
   -0.000000   29.99965  0.2692E-13  0.4718E-05  0.2935E-06  0.5035E-04  0.8762E-03  0.8238E+04
   -0.049997   30.03016  0.2692E-13  0.8214E-05  0.1303E-06  0.1753E-03  0.5022E-03  0.6284E+02
   -0.099994   30.04224  0.2692E-13  0.9975E-05  0.8950E-07  0.4083E-03  0.3631E-03  0.7236E+02
   -0.149992   30.04542  0.2692E-13  0.1106E-04  0.7542E-07  0.4818E-03  0.3214E-03  0.3530E+02
   -0.199991   30.04801  0.2692E-13  0.1190E-04  0.6710E-07  0.6447E-03  0.2870E-03  0.2290E+02
   -0.249989   30.04988  0.2692E-13  0.1257E-04  0.6161E-07  0.7694E-03  0.2613E-03  0.1702E+02
   -0.299989   30.05141  0.2692E-13  0.1312E-04  0.5768E-07  0.8935E-03  0.2398E-03  0.1357E+02
   -0.349988   30.05269  0.2692E-13  0.1357E-04  0.5472E-07  0.1006E-02  0.2214E-03  0.1165E+02
   -0.399988   30.05380  0.2692E-13  0.1394E-04  0.5240E-07  0.1109E-02  0.2052E-03  0.1037E+02
   -0.449988   30.05478  0.2692E-13  0.1427E-04  0.5051E-07  0.1204E-02  0.1909E-03  0.9764E+01
   -0.499988   30.05567  0.2692E-13  0.1455E-04  0.4895E-07  0.1292E-02  0.1783E-03  0.9476E+01
   -0.549989   30.05648  0.2692E-13  0.1479E-04  0.4763E-07  0.1372E-02  0.1669E-03  0.9375E+01
   -0.599990   30.05723  0.2692E-13  0.1500E-04  0.4651E-07  0.1445E-02  0.1567E-03  0.9349E+01
   -0.649991   30.05793  0.2692E-13  0.1517E-04  0.4556E-07  0.1510E-02  0.1473E-03  0.9488E+01
   -0.699992   30.05858  0.2692E-13  0.1532E-04  0.4475E-07  0.1568E-02  0.1387E-03  0.9664E+01
   -0.749993   30.05921  0.2692E-13  0.1544E-04  0.4406E-07  0.1618E-02  0.1307E-03  0.1000E+02
   -0.799995   30.05981  0.2692E-13  0.1554E-04  0.4348E-07  0.1661E-02  0.1234E-03  0.1037E+02
   -0.849996   30.06038  0.2692E-13  0.1561E-04  0.4301E-07  0.1696E-02  0.1165E-03  0.1093E+02
   -0.899998   30.06093  0.2692E-13  0.1567E-04  0.4263E-07  0.1723E-02  0.1100E-03  0.1153E+02
   -0.950000   30.06147  0.2692E-13  0.1570E-04  0.4235E-07  0.1742E-02  0.1039E-03  0.1236E+02
   -1.000001   30.06200  0.2692E-13  0.1571E-04  0.4217E-07  0.1753E-02  0.9814E-04  0.1326E+02
   -1.050003   30.06252  0.2692E-13  0.1570E-04  0.4208E-07  0.1755E-02  0.9266E-04  0.1504E+02
   -1.100005   30.06303  0.2692E-13  0.1567E-04  0.4210E-07  0.1840E-02  0.8745E-04  0.4983E+02
   -1.150006   30.06351  0.2692E-13  0.1561E-04  0.4225E-07  0.1674E-02  0.8280E-04  0.1110E+03
   -1.200008   30.06404  0.2692E-13  0.1553E-04  0.4251E-07  0.1699E-02  0.7798E-04  0.2149E+02
   -1.250010   30.06456  0.2692E-13  0.1543E-04  0.4294E-07  0.1670E-02  0.7338E-04  0.2275E+02
   -1.300011   30.06508  0.2692E-13  0.1530E-04  0.4356E-07  0.1622E-02  0.6894E-04  0.2657E+02
   -1.350012   30.06561  0.2692E-13  0.1514E-04  0.4443E-07  0.1564E-02  0.6465E-04  0.3151E+02
   -1.400013   30.06615  0.2692E-13  0.1495E-04  0.4561E-07  0.1488E-02  0.6046E-04  0.3877E+02
   -1.450014   30.06672  0.2692E-13  0.1472E-04  0.4724E-07  0.1413E-02  0.5636E-04  0.4879E+02
   -1.500015   30.06733  0.2692E-13  0.1443E-04  0.4950E-07  0.1302E-02  0.5234E-04  0.6569E+02
   -1.550015   30.06798  0.2692E-13  0.1409E-04  0.5272E-07  0.1219E-02  0.4831E-04  0.9165E+02
   -1.600015   30.06868  0.2692E-13  0.1366E-04  0.5764E-07  0.1074E-02  0.4436E-04  0.1680E+03
   -1.650015   30.06953  0.2692E-13  0.1313E-04  0.6521E-07  0.9975E-03  0.4014E-04  0.6334E+03
   -1.700014   30.07046  0.2692E-13  0.1239E-04  0.7887E-07  0.8142E-03  0.3605E-04  0.1846E+05
   -1.750013   30.07212  0.2692E-13  0.1141E-04  0.1014E-06  0.7355E-03  0.3060E-04  0.7124E+05
   -1.800012   30.07350  0.2692E-13  0.1008E-04  0.1479E-06  0.5190E-03  0.2630E-04  0.1350E+06
   -1.850010   30.07884  0.2692E-13  0.8556E-05  0.2367E-06  0.4677E-03  0.1891E-04  0.1060E+08
   -1.900008   30.07825  0.2692E-13  0.6727E-05  0.4951E-06  0.2139E-03  0.1529E-04  0.7414E+05
   -1.950006   30.09540  0.2692E-13  0.4681E-05  0.1251E-05  0.1825E-03  0.8188E-05 -0.2034E+07
   -2.000003   30.09793  0.2692E-13  0.0000E+00  0.0000E+00  0.0000E+00  0.1505E-04  0.0000E+00
