 1 - depth, m
 2 - temperature, C
 3 - salinity, kg/kg
 4 - turbulent kinetic energy, m**2/s**2
 5 - dissipation rate, m**2/s**3
 6 - kinematic heat conductance, m**2/s
 7 - modulus of horizontal velocity, m/s
 8 - Richardson number, n/d
   -0.000000   31.33184  0.1757E-14  0.5138E-05  0.3331E-06  0.5255E-04  0.1579E-02  0.1127E+05
   -0.049997   31.36334  0.1757E-14  0.8760E-05  0.1486E-06  0.1802E-03  0.9092E-03  0.2236E+04
   -0.099994   31.37584  0.1757E-14  0.1065E-04  0.1019E-06  0.4085E-03  0.6658E-03  0.1922E+02
   -0.149992   31.37924  0.1757E-14  0.1183E-04  0.8528E-07  0.4889E-03  0.5886E-03  0.9450E+01
   -0.199991   31.38196  0.1757E-14  0.1276E-04  0.7561E-07  0.6572E-03  0.5259E-03  0.6029E+01
   -0.249989   31.38392  0.1757E-14  0.1349E-04  0.6932E-07  0.7856E-03  0.4792E-03  0.4442E+01
   -0.299988   31.38552  0.1757E-14  0.1409E-04  0.6484E-07  0.9151E-03  0.4403E-03  0.3531E+01
   -0.349988   31.38685  0.1757E-14  0.1458E-04  0.6150E-07  0.1032E-02  0.4071E-03  0.3014E+01
   -0.399987   31.38801  0.1757E-14  0.1500E-04  0.5890E-07  0.1139E-02  0.3777E-03  0.2684E+01
   -0.449988   31.38904  0.1757E-14  0.1536E-04  0.5679E-07  0.1238E-02  0.3519E-03  0.2514E+01
   -0.499988   31.38996  0.1757E-14  0.1567E-04  0.5506E-07  0.1329E-02  0.3290E-03  0.2443E+01
   -0.549988   31.39081  0.1757E-14  0.1594E-04  0.5361E-07  0.1412E-02  0.3085E-03  0.2405E+01
   -0.599989   31.39159  0.1757E-14  0.1617E-04  0.5239E-07  0.1488E-02  0.2900E-03  0.2406E+01
   -0.649990   31.39232  0.1757E-14  0.1637E-04  0.5137E-07  0.1555E-02  0.2731E-03  0.2431E+01
   -0.699991   31.39301  0.1757E-14  0.1653E-04  0.5051E-07  0.1615E-02  0.2575E-03  0.2487E+01
   -0.749993   31.39366  0.1757E-14  0.1667E-04  0.4979E-07  0.1667E-02  0.2431E-03  0.2564E+01
   -0.799994   31.39429  0.1757E-14  0.1679E-04  0.4921E-07  0.1710E-02  0.2297E-03  0.2674E+01
   -0.849996   31.39489  0.1757E-14  0.1688E-04  0.4874E-07  0.1746E-02  0.2172E-03  0.2808E+01
   -0.899997   31.39548  0.1757E-14  0.1694E-04  0.4839E-07  0.1773E-02  0.2054E-03  0.2981E+01
   -0.949999   31.39605  0.1757E-14  0.1699E-04  0.4815E-07  0.1791E-02  0.1943E-03  0.3189E+01
   -1.000001   31.39661  0.1757E-14  0.1700E-04  0.4802E-07  0.1801E-02  0.1838E-03  0.3449E+01
   -1.050002   31.39716  0.1757E-14  0.1700E-04  0.4802E-07  0.1800E-02  0.1738E-03  0.3907E+01
   -1.100004   31.39771  0.1757E-14  0.1697E-04  0.4814E-07  0.1897E-02  0.1643E-03  0.1285E+02
   -1.150006   31.39823  0.1757E-14  0.1692E-04  0.4842E-07  0.1702E-02  0.1558E-03  0.3008E+02
   -1.200007   31.39881  0.1757E-14  0.1684E-04  0.4885E-07  0.1735E-02  0.1469E-03  0.5701E+01
   -1.250009   31.39937  0.1757E-14  0.1674E-04  0.4948E-07  0.1703E-02  0.1384E-03  0.6092E+01
   -1.300010   31.39994  0.1757E-14  0.1660E-04  0.5035E-07  0.1650E-02  0.1302E-03  0.7156E+01
   -1.350011   31.40052  0.1757E-14  0.1642E-04  0.5154E-07  0.1588E-02  0.1222E-03  0.8636E+01
   -1.400012   31.40113  0.1757E-14  0.1621E-04  0.5315E-07  0.1505E-02  0.1145E-03  0.1077E+02
   -1.450013   31.40178  0.1757E-14  0.1595E-04  0.5536E-07  0.1426E-02  0.1068E-03  0.1393E+02
   -1.500014   31.40246  0.1757E-14  0.1562E-04  0.5843E-07  0.1308E-02  0.9929E-04  0.1936E+02
   -1.550014   31.40322  0.1757E-14  0.1523E-04  0.6283E-07  0.1228E-02  0.9166E-04  0.2875E+02
   -1.600014   31.40403  0.1757E-14  0.1473E-04  0.6973E-07  0.1077E-02  0.8422E-04  0.5320E+04
   -1.650014   31.40509  0.1757E-14  0.1408E-04  0.8044E-07  0.9997E-03  0.7597E-04  0.2717E+04
   -1.700013   31.40626  0.1757E-14  0.1319E-04  0.9946E-07  0.8082E-03  0.6794E-04 -0.7366E+04
   -1.750012   31.40847  0.1757E-14  0.1206E-04  0.1302E-06  0.7374E-03  0.5695E-04  0.2313E+06
   -1.800011   31.40991  0.1757E-14  0.1061E-04  0.1967E-06  0.5020E-03  0.4927E-04  0.6537E+05
   -1.850009   31.41780  0.1757E-14  0.9060E-05  0.3228E-06  0.4802E-03  0.3463E-04  0.4452E+09
   -1.900007   31.41523  0.1757E-14  0.7278E-05  0.6711E-06  0.2220E-03  0.2874E-04  0.3412E+07
   -1.950004   31.43702  0.1757E-14  0.5125E-05  0.1644E-05  0.2027E-03  0.1561E-04 -0.7521E+06
   -2.000001   31.43881  0.1757E-14  0.0000E+00  0.0000E+00  0.0000E+00  0.2894E-04  0.0000E+00
