 1 - depth, m
 2 - temperature, C
 3 - salinity, kg/kg
 4 - turbulent kinetic energy, m**2/s**2
 5 - dissipation rate, m**2/s**3
 6 - kinematic heat conductance, m**2/s
 7 - modulus of horizontal velocity, m/s
 8 - Richardson number, n/d
   -0.000000   30.30893  0.1226E-14  0.4623E-05  0.2718E-06  0.4588E-04  0.4170E-03  0.7188E+06
   -0.049997   30.34136  0.1226E-14  0.8247E-05  0.1215E-06  0.1935E-03  0.2338E-03  0.1174E+07
   -0.099994   30.35091  0.1226E-14  0.9895E-05  0.8589E-07  0.4065E-03  0.1720E-03  0.9748E+03
   -0.149992   30.35398  0.1226E-14  0.1096E-04  0.7273E-07  0.4932E-03  0.1525E-03  0.4976E+03
   -0.199991   30.35640  0.1226E-14  0.1178E-04  0.6494E-07  0.6516E-03  0.1365E-03  0.3307E+03
   -0.249989   30.35818  0.1226E-14  0.1244E-04  0.5977E-07  0.7775E-03  0.1244E-03  0.2452E+03
   -0.299989   30.35963  0.1226E-14  0.1298E-04  0.5607E-07  0.9004E-03  0.1144E-03  0.1979E+03
   -0.349988   30.36085  0.1226E-14  0.1343E-04  0.5328E-07  0.1012E-02  0.1058E-03  0.1683E+03
   -0.399988   30.36191  0.1226E-14  0.1380E-04  0.5111E-07  0.1114E-02  0.9808E-04  0.1515E+03
   -0.449988   30.36286  0.1226E-14  0.1413E-04  0.4934E-07  0.1209E-02  0.9136E-04  0.1408E+03
   -0.499988   30.36371  0.1226E-14  0.1441E-04  0.4787E-07  0.1296E-02  0.8536E-04  0.1386E+03
   -0.549989   30.36450  0.1226E-14  0.1465E-04  0.4664E-07  0.1376E-02  0.8002E-04  0.1350E+03
   -0.599990   30.36522  0.1226E-14  0.1486E-04  0.4561E-07  0.1448E-02  0.7514E-04  0.1368E+03
   -0.649991   30.36590  0.1226E-14  0.1504E-04  0.4473E-07  0.1512E-02  0.7073E-04  0.1364E+03
   -0.699992   30.36654  0.1226E-14  0.1520E-04  0.4400E-07  0.1569E-02  0.6664E-04  0.1416E+03
   -0.749993   30.36714  0.1226E-14  0.1532E-04  0.4338E-07  0.1619E-02  0.6289E-04  0.1438E+03
   -0.799995   30.36773  0.1226E-14  0.1543E-04  0.4288E-07  0.1661E-02  0.5936E-04  0.1521E+03
   -0.849996   30.36829  0.1226E-14  0.1551E-04  0.4247E-07  0.1695E-02  0.5610E-04  0.1571E+03
   -0.899998   30.36883  0.1226E-14  0.1557E-04  0.4216E-07  0.1721E-02  0.5300E-04  0.1694E+03
   -0.950000   30.36936  0.1226E-14  0.1561E-04  0.4195E-07  0.1739E-02  0.5011E-04  0.1779E+03
   -1.000001   30.36988  0.1226E-14  0.1563E-04  0.4183E-07  0.1749E-02  0.4735E-04  0.1955E+03
   -1.050003   30.37039  0.1226E-14  0.1563E-04  0.4181E-07  0.1750E-02  0.4475E-04  0.2171E+03
   -1.100005   30.37090  0.1226E-14  0.1560E-04  0.4190E-07  0.1838E-02  0.4225E-04  0.7286E+03
   -1.150006   30.37138  0.1226E-14  0.1556E-04  0.4212E-07  0.1663E-02  0.4003E-04  0.1685E+04
   -1.200008   30.37191  0.1226E-14  0.1549E-04  0.4246E-07  0.1690E-02  0.3771E-04  0.3148E+03
   -1.250010   30.37243  0.1226E-14  0.1539E-04  0.4297E-07  0.1659E-02  0.3549E-04  0.3414E+03
   -1.300011   30.37295  0.1226E-14  0.1527E-04  0.4367E-07  0.1610E-02  0.3337E-04  0.3929E+03
   -1.350012   30.37349  0.1226E-14  0.1512E-04  0.4464E-07  0.1550E-02  0.3130E-04  0.4796E+03
   -1.400013   30.37405  0.1226E-14  0.1493E-04  0.4593E-07  0.1473E-02  0.2929E-04  0.5851E+03
   -1.450014   30.37463  0.1226E-14  0.1470E-04  0.4769E-07  0.1395E-02  0.2730E-04  0.7607E+03
   -1.500015   30.37525  0.1226E-14  0.1442E-04  0.5012E-07  0.1283E-02  0.2537E-04  0.1029E+04
   -1.550015   30.37593  0.1226E-14  0.1407E-04  0.5355E-07  0.1200E-02  0.2341E-04  0.1495E+04
   -1.600015   30.37666  0.1226E-14  0.1364E-04  0.5881E-07  0.1051E-02  0.2150E-04  0.3027E+04
   -1.650015   30.37756  0.1226E-14  0.1309E-04  0.6689E-07  0.9762E-03  0.1943E-04  0.1169E+05
   -1.700014   30.37855  0.1226E-14  0.1234E-04  0.8146E-07  0.7914E-03  0.1745E-04 -0.3419E+05
   -1.750013   30.38035  0.1226E-14  0.1132E-04  0.1057E-06  0.7183E-03  0.1476E-04  0.4021E+07
   -1.800012   30.38188  0.1226E-14  0.9948E-05  0.1577E-06  0.4969E-03  0.1266E-04  0.1199E+07
   -1.850010   30.38799  0.1226E-14  0.8386E-05  0.2532E-06  0.4543E-03  0.8969E-05  0.1095E+10
   -1.900008   30.38689  0.1226E-14  0.6597E-05  0.5272E-06  0.2048E-03  0.7244E-05  0.1551E+08
   -1.950006   30.40597  0.1226E-14  0.4619E-05  0.1321E-05  0.1880E-03  0.3809E-05  0.2711E+07
   -2.000003   30.40773  0.1226E-14  0.0000E+00  0.0000E+00  0.0000E+00  0.7204E-05  0.0000E+00
