 1 - depth, m
 2 - temperature, C
 3 - salinity, kg/kg
 4 - turbulent kinetic energy, m**2/s**2
 5 - dissipation rate, m**2/s**3
 6 - kinematic heat conductance, m**2/s
 7 - modulus of horizontal velocity, m/s
 8 - Richardson number, n/d
   -0.000000   30.46527  0.6280E-14  0.4835E-05  0.3008E-06  0.4924E-04  0.1015E-02  0.5136E+04
   -0.049997   30.49698  0.6280E-14  0.8394E-05  0.1337E-06  0.1839E-03  0.5692E-03  0.5399E+02
   -0.099994   30.50849  0.6280E-14  0.1016E-04  0.9263E-07  0.4045E-03  0.4206E-03  0.4972E+02
   -0.149992   30.51174  0.6280E-14  0.1128E-04  0.7795E-07  0.4878E-03  0.3719E-03  0.2440E+02
   -0.199991   30.51433  0.6280E-14  0.1214E-04  0.6932E-07  0.6499E-03  0.3325E-03  0.1575E+02
   -0.249989   30.51621  0.6280E-14  0.1283E-04  0.6365E-07  0.7754E-03  0.3030E-03  0.1164E+02
   -0.299988   30.51774  0.6280E-14  0.1339E-04  0.5960E-07  0.9011E-03  0.2784E-03  0.9287E+01
   -0.349988   30.51903  0.6280E-14  0.1386E-04  0.5657E-07  0.1014E-02  0.2573E-03  0.7924E+01
   -0.399988   30.52015  0.6280E-14  0.1425E-04  0.5420E-07  0.1118E-02  0.2386E-03  0.7080E+01
   -0.449988   30.52114  0.6280E-14  0.1458E-04  0.5228E-07  0.1214E-02  0.2221E-03  0.6623E+01
   -0.499988   30.52204  0.6280E-14  0.1487E-04  0.5069E-07  0.1303E-02  0.2076E-03  0.6464E+01
   -0.549989   30.52285  0.6280E-14  0.1512E-04  0.4935E-07  0.1383E-02  0.1945E-03  0.6349E+01
   -0.599990   30.52361  0.6280E-14  0.1534E-04  0.4823E-07  0.1456E-02  0.1827E-03  0.6374E+01
   -0.649991   30.52432  0.6280E-14  0.1552E-04  0.4728E-07  0.1522E-02  0.1719E-03  0.6420E+01
   -0.699992   30.52499  0.6280E-14  0.1568E-04  0.4648E-07  0.1579E-02  0.1620E-03  0.6591E+01
   -0.749993   30.52562  0.6280E-14  0.1580E-04  0.4580E-07  0.1629E-02  0.1528E-03  0.6770E+01
   -0.799995   30.52623  0.6280E-14  0.1591E-04  0.4525E-07  0.1672E-02  0.1443E-03  0.7083E+01
   -0.849996   30.52682  0.6280E-14  0.1599E-04  0.4480E-07  0.1706E-02  0.1363E-03  0.7404E+01
   -0.899998   30.52738  0.6280E-14  0.1604E-04  0.4445E-07  0.1732E-02  0.1288E-03  0.7887E+01
   -0.949999   30.52793  0.6280E-14  0.1608E-04  0.4421E-07  0.1750E-02  0.1218E-03  0.8391E+01
   -1.000001   30.52848  0.6280E-14  0.1609E-04  0.4407E-07  0.1760E-02  0.1151E-03  0.9108E+01
   -1.050003   30.52901  0.6280E-14  0.1608E-04  0.4403E-07  0.1759E-02  0.1088E-03  0.1025E+02
   -1.100005   30.52954  0.6280E-14  0.1605E-04  0.4411E-07  0.1852E-02  0.1027E-03  0.3392E+02
   -1.150006   30.53004  0.6280E-14  0.1600E-04  0.4434E-07  0.1665E-02  0.9732E-04  0.7897E+02
   -1.200008   30.53059  0.6280E-14  0.1592E-04  0.4469E-07  0.1696E-02  0.9167E-04  0.1489E+02
   -1.250009   30.53113  0.6280E-14  0.1581E-04  0.4523E-07  0.1665E-02  0.8629E-04  0.1595E+02
   -1.300011   30.53167  0.6280E-14  0.1568E-04  0.4598E-07  0.1613E-02  0.8112E-04  0.1860E+02
   -1.350012   30.53223  0.6280E-14  0.1551E-04  0.4701E-07  0.1553E-02  0.7609E-04  0.2249E+02
   -1.400013   30.53281  0.6280E-14  0.1530E-04  0.4842E-07  0.1473E-02  0.7119E-04  0.2785E+02
   -1.450014   30.53342  0.6280E-14  0.1505E-04  0.5034E-07  0.1395E-02  0.6636E-04  0.3594E+02
   -1.500014   30.53407  0.6280E-14  0.1474E-04  0.5303E-07  0.1281E-02  0.6163E-04  0.4946E+02
   -1.550015   30.53478  0.6280E-14  0.1437E-04  0.5688E-07  0.1199E-02  0.5684E-04  0.7239E+02
   -1.600015   30.53554  0.6280E-14  0.1390E-04  0.6289E-07  0.1055E-02  0.5216E-04  0.1633E+03
   -1.650014   30.53650  0.6280E-14  0.1330E-04  0.7234E-07  0.9759E-03  0.4707E-04  0.5106E+04
   -1.700014   30.53761  0.6280E-14  0.1246E-04  0.8913E-07  0.7923E-03  0.4203E-04 -0.1659E+05
   -1.750013   30.53959  0.6280E-14  0.1137E-04  0.1167E-06  0.7163E-03  0.3531E-04  0.4439E+06
   -1.800012   30.54119  0.6280E-14  0.9959E-05  0.1777E-06  0.4941E-03  0.3019E-04  0.1192E+07
   -1.850010   30.54800  0.6280E-14  0.8442E-05  0.2886E-06  0.4636E-03  0.2127E-04  0.7214E+08
   -1.900008   30.54605  0.6280E-14  0.6740E-05  0.6112E-06  0.2156E-03  0.1743E-04 -0.5050E+06
   -1.950005   30.56599  0.6280E-14  0.4733E-05  0.1508E-05  0.1963E-03  0.9330E-05 -0.5991E+06
   -2.000002   30.56860  0.6280E-14  0.0000E+00  0.0000E+00  0.0000E+00  0.1774E-04  0.0000E+00
