 1 - depth, m
 2 - temperature, C
 3 - salinity, kg/kg
 4 - turbulent kinetic energy, m**2/s**2
 5 - dissipation rate, m**2/s**3
 6 - kinematic heat conductance, m**2/s
 7 - modulus of horizontal velocity, m/s
 8 - Richardson number, n/d
   -0.000000   30.66759  0.9323E-14  0.5160E-05  0.3355E-06  0.5237E-04  0.1486E-02  0.4615E+04
   -0.049997   30.70019  0.9323E-14  0.8813E-05  0.1494E-06  0.1818E-03  0.8525E-03  0.9125E+02
   -0.099994   30.71297  0.9323E-14  0.1071E-04  0.1025E-06  0.4101E-03  0.6246E-03  0.2305E+02
   -0.149992   30.71644  0.9323E-14  0.1190E-04  0.8585E-07  0.4908E-03  0.5522E-03  0.1136E+02
   -0.199990   30.71922  0.9323E-14  0.1282E-04  0.7613E-07  0.6593E-03  0.4933E-03  0.7254E+01
   -0.249989   30.72123  0.9323E-14  0.1355E-04  0.6979E-07  0.7877E-03  0.4495E-03  0.5365E+01
   -0.299988   30.72287  0.9323E-14  0.1415E-04  0.6528E-07  0.9174E-03  0.4131E-03  0.4262E+01
   -0.349988   30.72424  0.9323E-14  0.1465E-04  0.6191E-07  0.1034E-02  0.3818E-03  0.3651E+01
   -0.399987   30.72542  0.9323E-14  0.1507E-04  0.5929E-07  0.1141E-02  0.3543E-03  0.3246E+01
   -0.449987   30.72647  0.9323E-14  0.1542E-04  0.5717E-07  0.1241E-02  0.3300E-03  0.3050E+01
   -0.499988   30.72742  0.9323E-14  0.1573E-04  0.5542E-07  0.1332E-02  0.3085E-03  0.2958E+01
   -0.549988   30.72829  0.9323E-14  0.1600E-04  0.5396E-07  0.1415E-02  0.2893E-03  0.2923E+01
   -0.599989   30.72909  0.9323E-14  0.1623E-04  0.5273E-07  0.1490E-02  0.2719E-03  0.2915E+01
   -0.649990   30.72984  0.9323E-14  0.1643E-04  0.5169E-07  0.1558E-02  0.2560E-03  0.2957E+01
   -0.699991   30.73055  0.9323E-14  0.1660E-04  0.5082E-07  0.1617E-02  0.2414E-03  0.3015E+01
   -0.749992   30.73122  0.9323E-14  0.1674E-04  0.5010E-07  0.1669E-02  0.2279E-03  0.3123E+01
   -0.799994   30.73186  0.9323E-14  0.1685E-04  0.4951E-07  0.1713E-02  0.2153E-03  0.3245E+01
   -0.849995   30.73248  0.9323E-14  0.1694E-04  0.4903E-07  0.1748E-02  0.2035E-03  0.3424E+01
   -0.899997   30.73308  0.9323E-14  0.1701E-04  0.4868E-07  0.1775E-02  0.1925E-03  0.3622E+01
   -0.949999   30.73366  0.9323E-14  0.1705E-04  0.4843E-07  0.1794E-02  0.1821E-03  0.3893E+01
   -1.000000   30.73424  0.9323E-14  0.1707E-04  0.4830E-07  0.1804E-02  0.1722E-03  0.4196E+01
   -1.050002   30.73480  0.9323E-14  0.1706E-04  0.4830E-07  0.1803E-02  0.1628E-03  0.4772E+01
   -1.100004   30.73537  0.9323E-14  0.1704E-04  0.4842E-07  0.1900E-02  0.1539E-03  0.1563E+02
   -1.150005   30.73590  0.9323E-14  0.1698E-04  0.4870E-07  0.1704E-02  0.1460E-03  0.3659E+02
   -1.200007   30.73649  0.9323E-14  0.1691E-04  0.4912E-07  0.1737E-02  0.1376E-03  0.6972E+01
   -1.250008   30.73706  0.9323E-14  0.1680E-04  0.4975E-07  0.1706E-02  0.1296E-03  0.7432E+01
   -1.300010   30.73764  0.9323E-14  0.1666E-04  0.5063E-07  0.1652E-02  0.1220E-03  0.8767E+01
   -1.350011   30.73824  0.9323E-14  0.1649E-04  0.5182E-07  0.1591E-02  0.1145E-03  0.1054E+02
   -1.400012   30.73887  0.9323E-14  0.1627E-04  0.5343E-07  0.1508E-02  0.1072E-03  0.1320E+02
   -1.450012   30.73953  0.9323E-14  0.1601E-04  0.5562E-07  0.1429E-02  0.1001E-03  0.1699E+02
   -1.500013   30.74023  0.9323E-14  0.1569E-04  0.5869E-07  0.1310E-02  0.9302E-04  0.2366E+02
   -1.550013   30.74100  0.9323E-14  0.1529E-04  0.6305E-07  0.1229E-02  0.8590E-04  0.3490E+02
   -1.600013   30.74184  0.9323E-14  0.1480E-04  0.6986E-07  0.1076E-02  0.7892E-04  0.8822E+02
   -1.650013   30.74291  0.9323E-14  0.1416E-04  0.8034E-07  0.1001E-02  0.7127E-04  0.7366E+02
   -1.700012   30.74409  0.9323E-14  0.1328E-04  0.9898E-07  0.8093E-03  0.6386E-04  0.1625E+06
   -1.750012   30.74631  0.9323E-14  0.1214E-04  0.1295E-06  0.7380E-03  0.5377E-04  0.9070E+05
   -1.800010   30.74790  0.9323E-14  0.1066E-04  0.1945E-06  0.5082E-03  0.4631E-04  0.1334E+05
   -1.850008   30.75564  0.9323E-14  0.9047E-05  0.3182E-06  0.4741E-03  0.3277E-04  0.4591E+09
   -1.900006   30.75352  0.9323E-14  0.7179E-05  0.6694E-06  0.2174E-03  0.2685E-04 -0.1954E+06
   -1.950004   30.77590  0.9323E-14  0.5084E-05  0.1653E-05  0.2014E-03  0.1439E-04 -0.9899E+06
   -2.000001   30.77821  0.9323E-14  0.0000E+00  0.0000E+00  0.0000E+00  0.2704E-04  0.0000E+00
