 1 - depth, m
 2 - temperature, C
 3 - salinity, kg/kg
 4 - turbulent kinetic energy, m**2/s**2
 5 - dissipation rate, m**2/s**3
 6 - kinematic heat conductance, m**2/s
 7 - modulus of horizontal velocity, m/s
 8 - Richardson number, n/d
   -0.000000   30.08002  0.4514E-13  0.4602E-05  0.2765E-06  0.4734E-04  0.9470E-03  0.2130E+03
   -0.049997   30.11075  0.4514E-13  0.8030E-05  0.1229E-06  0.1832E-03  0.5256E-03  0.7883E+02
   -0.099994   30.12142  0.4514E-13  0.9706E-05  0.8565E-07  0.3967E-03  0.3892E-03  0.5150E+02
   -0.149992   30.12452  0.4514E-13  0.1076E-04  0.7217E-07  0.4821E-03  0.3438E-03  0.2537E+02
   -0.199991   30.12697  0.4514E-13  0.1159E-04  0.6424E-07  0.6396E-03  0.3072E-03  0.1640E+02
   -0.249989   30.12876  0.4514E-13  0.1224E-04  0.5902E-07  0.7633E-03  0.2797E-03  0.1215E+02
   -0.299989   30.13022  0.4514E-13  0.1278E-04  0.5529E-07  0.8863E-03  0.2568E-03  0.9694E+01
   -0.349988   30.13145  0.4514E-13  0.1322E-04  0.5249E-07  0.9975E-03  0.2371E-03  0.8301E+01
   -0.399988   30.13251  0.4514E-13  0.1360E-04  0.5031E-07  0.1099E-02  0.2198E-03  0.7412E+01
   -0.449988   30.13346  0.4514E-13  0.1392E-04  0.4854E-07  0.1194E-02  0.2044E-03  0.6960E+01
   -0.499988   30.13431  0.4514E-13  0.1420E-04  0.4708E-07  0.1281E-02  0.1909E-03  0.6782E+01
   -0.549989   30.13509  0.4514E-13  0.1444E-04  0.4585E-07  0.1360E-02  0.1787E-03  0.6691E+01
   -0.599990   30.13581  0.4514E-13  0.1465E-04  0.4482E-07  0.1433E-02  0.1677E-03  0.6705E+01
   -0.649991   30.13649  0.4514E-13  0.1483E-04  0.4395E-07  0.1497E-02  0.1577E-03  0.6786E+01
   -0.699992   30.13713  0.4514E-13  0.1499E-04  0.4321E-07  0.1555E-02  0.1485E-03  0.6953E+01
   -0.749993   30.13773  0.4514E-13  0.1511E-04  0.4260E-07  0.1605E-02  0.1400E-03  0.7178E+01
   -0.799995   30.13831  0.4514E-13  0.1522E-04  0.4209E-07  0.1647E-02  0.1321E-03  0.7494E+01
   -0.849996   30.13887  0.4514E-13  0.1530E-04  0.4168E-07  0.1682E-02  0.1247E-03  0.7875E+01
   -0.899998   30.13941  0.4514E-13  0.1536E-04  0.4137E-07  0.1709E-02  0.1178E-03  0.8368E+01
   -0.950000   30.13993  0.4514E-13  0.1541E-04  0.4115E-07  0.1727E-02  0.1112E-03  0.8953E+01
   -1.000001   30.14045  0.4514E-13  0.1543E-04  0.4103E-07  0.1738E-02  0.1051E-03  0.9686E+01
   -1.050003   30.14096  0.4514E-13  0.1543E-04  0.4100E-07  0.1740E-02  0.9920E-04  0.1098E+02
   -1.100005   30.14146  0.4514E-13  0.1541E-04  0.4108E-07  0.1823E-02  0.9361E-04  0.3656E+02
   -1.150007   30.14194  0.4514E-13  0.1536E-04  0.4129E-07  0.1661E-02  0.8862E-04  0.8224E+02
   -1.200008   30.14247  0.4514E-13  0.1530E-04  0.4161E-07  0.1684E-02  0.8346E-04  0.1586E+02
   -1.250010   30.14298  0.4514E-13  0.1521E-04  0.4210E-07  0.1654E-02  0.7852E-04  0.1695E+02
   -1.300011   30.14350  0.4514E-13  0.1509E-04  0.4278E-07  0.1606E-02  0.7376E-04  0.1981E+02
   -1.350012   30.14403  0.4514E-13  0.1495E-04  0.4370E-07  0.1549E-02  0.6915E-04  0.2374E+02
   -1.400013   30.14458  0.4514E-13  0.1477E-04  0.4495E-07  0.1474E-02  0.6466E-04  0.2927E+02
   -1.450014   30.14516  0.4514E-13  0.1455E-04  0.4663E-07  0.1397E-02  0.6026E-04  0.3733E+02
   -1.500015   30.14577  0.4514E-13  0.1428E-04  0.4896E-07  0.1289E-02  0.5594E-04  0.5052E+02
   -1.550015   30.14644  0.4514E-13  0.1394E-04  0.5225E-07  0.1205E-02  0.5161E-04  0.7183E+02
   -1.600015   30.14716  0.4514E-13  0.1353E-04  0.5725E-07  0.1063E-02  0.4737E-04  0.1333E+03
   -1.650015   30.14803  0.4514E-13  0.1300E-04  0.6500E-07  0.9841E-03  0.4283E-04  0.1368E+04
   -1.700014   30.14901  0.4514E-13  0.1228E-04  0.7885E-07  0.8039E-03  0.3842E-04  0.1663E+05
   -1.750013   30.15073  0.4514E-13  0.1130E-04  0.1018E-06  0.7255E-03  0.3259E-04  0.2143E+07
   -1.800012   30.15226  0.4514E-13  0.9988E-05  0.1506E-06  0.5042E-03  0.2795E-04  0.8520E+05
   -1.850010   30.15798  0.4514E-13  0.8497E-05  0.2405E-06  0.4647E-03  0.2010E-04  0.3329E+08
   -1.900008   30.15701  0.4514E-13  0.6747E-05  0.5012E-06  0.2120E-03  0.1634E-04  0.2403E+06
   -1.950006   30.17532  0.4514E-13  0.4687E-05  0.1261E-05  0.1824E-03  0.8812E-05 -0.3129E+07
   -2.000003   30.17768  0.4514E-13  0.0000E+00  0.0000E+00  0.0000E+00  0.1605E-04  0.0000E+00
