 1 - depth, m
 2 - temperature, C
 3 - salinity, kg/kg
 4 - turbulent kinetic energy, m**2/s**2
 5 - dissipation rate, m**2/s**3
 6 - kinematic heat conductance, m**2/s
 7 - modulus of horizontal velocity, m/s
 8 - Richardson number, n/d
   -0.000000   29.88733  0.2808E-13  0.4814E-05  0.2766E-06  0.4948E-04  0.2479E-02  0.5266E+04
   -0.049997   29.91609  0.2808E-13  0.8037E-05  0.1220E-06  0.1862E-03  0.1352E-02  0.3965E+04
   -0.099994   29.92568  0.2808E-13  0.9599E-05  0.8547E-07  0.3831E-03  0.1026E-02  0.7657E+01
   -0.149992   29.92880  0.2808E-13  0.1061E-04  0.7174E-07  0.4748E-03  0.9056E-03  0.3850E+01
   -0.199991   29.93121  0.2808E-13  0.1140E-04  0.6370E-07  0.6236E-03  0.8108E-03  0.2497E+01
   -0.249989   29.93300  0.2808E-13  0.1203E-04  0.5843E-07  0.7456E-03  0.7387E-03  0.1848E+01
   -0.299989   29.93445  0.2808E-13  0.1255E-04  0.5467E-07  0.8619E-03  0.6786E-03  0.1484E+01
   -0.349988   29.93568  0.2808E-13  0.1299E-04  0.5184E-07  0.9663E-03  0.6269E-03  0.1315E+01
   -0.399988   29.93674  0.2808E-13  0.1336E-04  0.4959E-07  0.1068E-02  0.5802E-03  0.1255E+01
   -0.449988   29.93769  0.2808E-13  0.1370E-04  0.4772E-07  0.1170E-02  0.5377E-03  0.1237E+01
   -0.499988   29.93854  0.2808E-13  0.1400E-04  0.4615E-07  0.1266E-02  0.4993E-03  0.1236E+01
   -0.549989   29.93930  0.2808E-13  0.1426E-04  0.4483E-07  0.1355E-02  0.4646E-03  0.1231E+01
   -0.599990   29.94001  0.2808E-13  0.1449E-04  0.4372E-07  0.1436E-02  0.4332E-03  0.1230E+01
   -0.649991   29.94067  0.2808E-13  0.1468E-04  0.4278E-07  0.1509E-02  0.4047E-03  0.1225E+01
   -0.699992   29.94128  0.2808E-13  0.1484E-04  0.4201E-07  0.1572E-02  0.3788E-03  0.1224E+01
   -0.749993   29.94186  0.2808E-13  0.1497E-04  0.4137E-07  0.1625E-02  0.3553E-03  0.1224E+01
   -0.799995   29.94242  0.2808E-13  0.1508E-04  0.4086E-07  0.1669E-02  0.3339E-03  0.1231E+01
   -0.849996   29.94295  0.2808E-13  0.1516E-04  0.4045E-07  0.1704E-02  0.3143E-03  0.1247E+01
   -0.899998   29.94347  0.2808E-13  0.1522E-04  0.4014E-07  0.1730E-02  0.2963E-03  0.1284E+01
   -0.950000   29.94398  0.2808E-13  0.1526E-04  0.3993E-07  0.1748E-02  0.2797E-03  0.1343E+01
   -1.000002   29.94447  0.2808E-13  0.1527E-04  0.3980E-07  0.1757E-02  0.2641E-03  0.1438E+01
   -1.050003   29.94496  0.2808E-13  0.1527E-04  0.3977E-07  0.1758E-02  0.2494E-03  0.1623E+01
   -1.100005   29.94545  0.2808E-13  0.1525E-04  0.3984E-07  0.1843E-02  0.2354E-03  0.5409E+01
   -1.150007   29.94591  0.2808E-13  0.1520E-04  0.4003E-07  0.1677E-02  0.2230E-03  0.1209E+02
   -1.200008   29.94641  0.2808E-13  0.1514E-04  0.4033E-07  0.1702E-02  0.2100E-03  0.2331E+01
   -1.250010   29.94690  0.2808E-13  0.1505E-04  0.4078E-07  0.1672E-02  0.1976E-03  0.2483E+01
   -1.300011   29.94740  0.2808E-13  0.1494E-04  0.4142E-07  0.1625E-02  0.1857E-03  0.2891E+01
   -1.350012   29.94791  0.2808E-13  0.1479E-04  0.4229E-07  0.1567E-02  0.1742E-03  0.3449E+01
   -1.400013   29.94843  0.2808E-13  0.1462E-04  0.4345E-07  0.1494E-02  0.1629E-03  0.4227E+01
   -1.450014   29.94898  0.2808E-13  0.1441E-04  0.4503E-07  0.1416E-02  0.1519E-03  0.5352E+01
   -1.500015   29.94956  0.2808E-13  0.1415E-04  0.4719E-07  0.1310E-02  0.1411E-03  0.7162E+01
   -1.550015   29.95020  0.2808E-13  0.1383E-04  0.5024E-07  0.1222E-02  0.1302E-03  0.1007E+02
   -1.600015   29.95088  0.2808E-13  0.1344E-04  0.5481E-07  0.1082E-02  0.1196E-03  0.1806E+02
   -1.650015   29.95169  0.2808E-13  0.1294E-04  0.6182E-07  0.9980E-03  0.1084E-03  0.4945E+03
   -1.700014   29.95260  0.2808E-13  0.1226E-04  0.7431E-07  0.8217E-03  0.9741E-04  0.6068E+03
   -1.750014   29.95414  0.2808E-13  0.1135E-04  0.9500E-07  0.7373E-03  0.8326E-04  0.3727E+05
   -1.800012   29.95558  0.2808E-13  0.1009E-04  0.1379E-06  0.5233E-03  0.7153E-04  0.4280E+05
   -1.850011   29.96058  0.2808E-13  0.8628E-05  0.2183E-06  0.4708E-03  0.5238E-04  0.2104E+08
   -1.900009   29.96019  0.2808E-13  0.6829E-05  0.4540E-06  0.2112E-03  0.4230E-04  0.8909E+04
   -1.950006   29.97686  0.2808E-13  0.4722E-05  0.1149E-05  0.1757E-03  0.2310E-04 -0.1261E+06
   -2.000003   29.97924  0.2808E-13  0.0000E+00  0.0000E+00  0.0000E+00  0.4061E-04  0.0000E+00
