 1 - depth, m
 2 - temperature, C
 3 - salinity, kg/kg
 4 - turbulent kinetic energy, m**2/s**2
 5 - dissipation rate, m**2/s**3
 6 - kinematic heat conductance, m**2/s
 7 - modulus of horizontal velocity, m/s
 8 - Richardson number, n/d
   -0.000000   30.94878  0.3597E-14  0.5231E-05  0.3474E-06  0.5343E-04  0.7403E-03  0.5004E+04
   -0.049997   30.98227  0.3597E-14  0.9093E-05  0.1540E-06  0.1833E-03  0.4282E-03  0.6058E+02
   -0.099994   30.99560  0.3597E-14  0.1105E-04  0.1055E-06  0.4279E-03  0.3100E-03  0.9226E+02
   -0.149992   30.99908  0.3597E-14  0.1227E-04  0.8876E-07  0.4998E-03  0.2752E-03  0.4552E+02
   -0.199990   31.00192  0.3597E-14  0.1321E-04  0.7892E-07  0.6736E-03  0.2462E-03  0.2944E+02
   -0.249989   31.00397  0.3597E-14  0.1396E-04  0.7247E-07  0.8029E-03  0.2246E-03  0.2193E+02
   -0.299988   31.00564  0.3597E-14  0.1457E-04  0.6788E-07  0.9336E-03  0.2066E-03  0.1748E+02
   -0.349988   31.00704  0.3597E-14  0.1507E-04  0.6443E-07  0.1051E-02  0.1912E-03  0.1502E+02
   -0.399987   31.00826  0.3597E-14  0.1550E-04  0.6175E-07  0.1158E-02  0.1776E-03  0.1337E+02
   -0.449987   31.00934  0.3597E-14  0.1586E-04  0.5957E-07  0.1258E-02  0.1655E-03  0.1259E+02
   -0.499988   31.01031  0.3597E-14  0.1617E-04  0.5777E-07  0.1349E-02  0.1549E-03  0.1221E+02
   -0.549988   31.01120  0.3597E-14  0.1644E-04  0.5627E-07  0.1431E-02  0.1453E-03  0.1208E+02
   -0.599989   31.01203  0.3597E-14  0.1667E-04  0.5500E-07  0.1506E-02  0.1367E-03  0.1205E+02
   -0.649990   31.01280  0.3597E-14  0.1687E-04  0.5394E-07  0.1572E-02  0.1288E-03  0.1225E+02
   -0.699991   31.01352  0.3597E-14  0.1703E-04  0.5305E-07  0.1631E-02  0.1215E-03  0.1249E+02
   -0.749992   31.01422  0.3597E-14  0.1717E-04  0.5230E-07  0.1681E-02  0.1148E-03  0.1296E+02
   -0.799994   31.01488  0.3597E-14  0.1728E-04  0.5170E-07  0.1723E-02  0.1085E-03  0.1347E+02
   -0.849995   31.01552  0.3597E-14  0.1736E-04  0.5122E-07  0.1756E-02  0.1026E-03  0.1424E+02
   -0.899997   31.01614  0.3597E-14  0.1742E-04  0.5086E-07  0.1781E-02  0.9712E-04  0.1508E+02
   -0.949998   31.01674  0.3597E-14  0.1745E-04  0.5062E-07  0.1797E-02  0.9190E-04  0.1625E+02
   -1.000000   31.01734  0.3597E-14  0.1746E-04  0.5051E-07  0.1804E-02  0.8696E-04  0.1754E+02
   -1.050002   31.01792  0.3597E-14  0.1744E-04  0.5053E-07  0.1799E-02  0.8226E-04  0.2000E+02
   -1.100003   31.01851  0.3597E-14  0.1740E-04  0.5068E-07  0.1911E-02  0.7776E-04  0.6438E+02
   -1.150005   31.01905  0.3597E-14  0.1732E-04  0.5102E-07  0.1674E-02  0.7381E-04  0.1607E+03
   -1.200007   31.01968  0.3597E-14  0.1723E-04  0.5152E-07  0.1719E-02  0.6954E-04  0.2984E+02
   -1.250008   31.02028  0.3597E-14  0.1710E-04  0.5225E-07  0.1685E-02  0.6553E-04  0.3182E+02
   -1.300009   31.02089  0.3597E-14  0.1693E-04  0.5326E-07  0.1626E-02  0.6165E-04  0.3790E+02
   -1.350010   31.02152  0.3597E-14  0.1673E-04  0.5465E-07  0.1560E-02  0.5787E-04  0.4607E+02
   -1.400011   31.02218  0.3597E-14  0.1648E-04  0.5654E-07  0.1470E-02  0.5417E-04  0.5866E+02
   -1.450012   31.02288  0.3597E-14  0.1618E-04  0.5915E-07  0.1390E-02  0.5052E-04  0.7700E+02
   -1.500013   31.02363  0.3597E-14  0.1580E-04  0.6286E-07  0.1266E-02  0.4691E-04  0.1108E+03
   -1.550013   31.02447  0.3597E-14  0.1535E-04  0.6823E-07  0.1190E-02  0.4324E-04  0.1728E+03
   -1.600013   31.02538  0.3597E-14  0.1477E-04  0.7698E-07  0.1036E-02  0.3965E-04  0.3132E+03
   -1.650013   31.02664  0.3597E-14  0.1399E-04  0.9073E-07  0.9584E-03  0.3553E-04  0.7520E+05
   -1.700012   31.02805  0.3597E-14  0.1293E-04  0.1154E-06  0.7668E-03  0.3147E-04  0.2875E+05
   -1.750011   31.03079  0.3597E-14  0.1166E-04  0.1542E-06  0.7000E-03  0.2583E-04  0.9405E+06
   -1.800010   31.03229  0.3597E-14  0.1011E-04  0.2403E-06  0.4682E-03  0.2230E-04  0.3109E+07
   -1.850008   31.04262  0.3597E-14  0.8541E-05  0.4044E-06  0.4628E-03  0.1493E-04  0.3681E+09
   -1.900006   31.03803  0.3597E-14  0.6861E-05  0.8507E-06  0.2130E-03  0.1254E-04 -0.1999E+07
   -1.950003   31.06396  0.3597E-14  0.4917E-05  0.2015E-05  0.2248E-03  0.6556E-05 -0.2775E+07
   -2.000000   31.06466  0.3597E-14  0.0000E+00  0.0000E+00  0.0000E+00  0.1354E-04  0.0000E+00
