 1 - depth, m
 2 - temperature, C
 3 - salinity, kg/kg
 4 - turbulent kinetic energy, m**2/s**2
 5 - dissipation rate, m**2/s**3
 6 - kinematic heat conductance, m**2/s
 7 - modulus of horizontal velocity, m/s
 8 - Richardson number, n/d
   -0.000000   30.72303  0.1050E-14  0.4859E-05  0.3037E-06  0.5079E-04  0.1545E-02  0.8637E+04
   -0.049997   30.75322  0.1050E-14  0.8314E-05  0.1355E-06  0.1771E-03  0.8843E-03  0.1718E+04
   -0.099994   30.76497  0.1050E-14  0.1009E-04  0.9316E-07  0.3996E-03  0.6479E-03  0.2008E+02
   -0.149992   30.76821  0.1050E-14  0.1121E-04  0.7813E-07  0.4803E-03  0.5723E-03  0.9831E+01
   -0.199991   30.77079  0.1050E-14  0.1208E-04  0.6935E-07  0.6430E-03  0.5111E-03  0.6298E+01
   -0.249989   30.77266  0.1050E-14  0.1277E-04  0.6361E-07  0.7689E-03  0.4653E-03  0.4638E+01
   -0.299988   30.77418  0.1050E-14  0.1333E-04  0.5952E-07  0.8946E-03  0.4272E-03  0.3691E+01
   -0.349988   30.77546  0.1050E-14  0.1380E-04  0.5646E-07  0.1008E-02  0.3946E-03  0.3150E+01
   -0.399988   30.77656  0.1050E-14  0.1420E-04  0.5409E-07  0.1113E-02  0.3658E-03  0.2809E+01
   -0.449988   30.77755  0.1050E-14  0.1453E-04  0.5216E-07  0.1209E-02  0.3405E-03  0.2631E+01
   -0.499988   30.77843  0.1050E-14  0.1483E-04  0.5057E-07  0.1298E-02  0.3181E-03  0.2562E+01
   -0.549989   30.77924  0.1050E-14  0.1508E-04  0.4924E-07  0.1379E-02  0.2980E-03  0.2521E+01
   -0.599989   30.77999  0.1050E-14  0.1530E-04  0.4812E-07  0.1453E-02  0.2798E-03  0.2526E+01
   -0.649990   30.78069  0.1050E-14  0.1549E-04  0.4718E-07  0.1519E-02  0.2633E-03  0.2552E+01
   -0.699992   30.78135  0.1050E-14  0.1565E-04  0.4639E-07  0.1577E-02  0.2480E-03  0.2614E+01
   -0.749993   30.78198  0.1050E-14  0.1578E-04  0.4573E-07  0.1628E-02  0.2340E-03  0.2694E+01
   -0.799994   30.78258  0.1050E-14  0.1589E-04  0.4519E-07  0.1670E-02  0.2209E-03  0.2813E+01
   -0.849996   30.78316  0.1050E-14  0.1598E-04  0.4475E-07  0.1705E-02  0.2086E-03  0.2950E+01
   -0.899998   30.78372  0.1050E-14  0.1604E-04  0.4442E-07  0.1732E-02  0.1972E-03  0.3136E+01
   -0.949999   30.78426  0.1050E-14  0.1608E-04  0.4420E-07  0.1751E-02  0.1863E-03  0.3349E+01
   -1.000001   30.78480  0.1050E-14  0.1610E-04  0.4407E-07  0.1761E-02  0.1761E-03  0.3626E+01
   -1.050003   30.78533  0.1050E-14  0.1610E-04  0.4406E-07  0.1761E-02  0.1664E-03  0.4101E+01
   -1.100004   30.78585  0.1050E-14  0.1607E-04  0.4415E-07  0.1851E-02  0.1571E-03  0.1360E+02
   -1.150006   30.78635  0.1050E-14  0.1603E-04  0.4439E-07  0.1672E-02  0.1488E-03  0.3101E+02
   -1.200008   30.78690  0.1050E-14  0.1595E-04  0.4476E-07  0.1701E-02  0.1402E-03  0.5939E+01
   -1.250009   30.78743  0.1050E-14  0.1586E-04  0.4532E-07  0.1669E-02  0.1320E-03  0.6350E+01
   -1.300011   30.78797  0.1050E-14  0.1573E-04  0.4608E-07  0.1619E-02  0.1241E-03  0.7424E+01
   -1.350012   30.78853  0.1050E-14  0.1557E-04  0.4713E-07  0.1559E-02  0.1164E-03  0.8921E+01
   -1.400013   30.78911  0.1050E-14  0.1537E-04  0.4854E-07  0.1480E-02  0.1089E-03  0.1103E+02
   -1.450014   30.78972  0.1050E-14  0.1513E-04  0.5045E-07  0.1402E-02  0.1015E-03  0.1412E+02
   -1.500014   30.79036  0.1050E-14  0.1483E-04  0.5312E-07  0.1288E-02  0.9430E-04  0.1925E+02
   -1.550014   30.79107  0.1050E-14  0.1447E-04  0.5690E-07  0.1205E-02  0.8699E-04  0.2775E+02
   -1.600015   30.79183  0.1050E-14  0.1402E-04  0.6274E-07  0.1057E-02  0.7987E-04  0.6284E+02
   -1.650014   30.79279  0.1050E-14  0.1343E-04  0.7178E-07  0.9810E-03  0.7208E-04  0.1075E+03
   -1.700014   30.79386  0.1050E-14  0.1263E-04  0.8792E-07  0.7954E-03  0.6459E-04  0.1085E+05
   -1.750013   30.79579  0.1050E-14  0.1158E-04  0.1145E-06  0.7216E-03  0.5440E-04  0.2406E+05
   -1.800012   30.79731  0.1050E-14  0.1016E-04  0.1712E-06  0.4970E-03  0.4675E-04  0.3892E+05
   -1.850010   30.80400  0.1050E-14  0.8598E-05  0.2777E-06  0.4609E-03  0.3303E-04  0.8273E+07
   -1.900008   30.80256  0.1050E-14  0.6780E-05  0.5831E-06  0.2059E-03  0.2690E-04  0.2771E+05
   -1.950005   30.82306  0.1050E-14  0.4773E-05  0.1443E-05  0.1943E-03  0.1423E-04 -0.1856E+07
   -2.000002   30.82418  0.1050E-14  0.0000E+00  0.0000E+00  0.0000E+00  0.2690E-04  0.0000E+00
