 1 - depth, m
 2 - temperature, C
 3 - salinity, kg/kg
 4 - turbulent kinetic energy, m**2/s**2
 5 - dissipation rate, m**2/s**3
 6 - kinematic heat conductance, m**2/s
 7 - modulus of horizontal velocity, m/s
 8 - Richardson number, n/d
   -0.000000   31.20627  0.5321E-14  0.5102E-05  0.3201E-06  0.5187E-04  0.1993E-02  0.3841E+04
   -0.049997   31.23692  0.5321E-14  0.8618E-05  0.1421E-06  0.1837E-03  0.1121E-02  0.7540E+04
   -0.099994   31.24835  0.5321E-14  0.1041E-04  0.9799E-07  0.4011E-03  0.8338E-03  0.1457E+02
   -0.149992   31.25167  0.5321E-14  0.1155E-04  0.8208E-07  0.4864E-03  0.7365E-03  0.7218E+01
   -0.199991   31.25428  0.5321E-14  0.1243E-04  0.7279E-07  0.6485E-03  0.6585E-03  0.4625E+01
   -0.249989   31.25619  0.5321E-14  0.1314E-04  0.6674E-07  0.7754E-03  0.6000E-03  0.3431E+01
   -0.299988   31.25774  0.5321E-14  0.1372E-04  0.6244E-07  0.9013E-03  0.5513E-03  0.2726E+01
   -0.349988   31.25904  0.5321E-14  0.1420E-04  0.5922E-07  0.1015E-02  0.5096E-03  0.2353E+01
   -0.399988   31.26017  0.5321E-14  0.1460E-04  0.5672E-07  0.1119E-02  0.4725E-03  0.2109E+01
   -0.449988   31.26117  0.5321E-14  0.1496E-04  0.5468E-07  0.1219E-02  0.4395E-03  0.2010E+01
   -0.499988   31.26208  0.5321E-14  0.1527E-04  0.5299E-07  0.1311E-02  0.4101E-03  0.1955E+01
   -0.549989   31.26290  0.5321E-14  0.1553E-04  0.5158E-07  0.1396E-02  0.3837E-03  0.1948E+01
   -0.599989   31.26366  0.5321E-14  0.1577E-04  0.5040E-07  0.1472E-02  0.3597E-03  0.1937E+01
   -0.649990   31.26437  0.5321E-14  0.1597E-04  0.4942E-07  0.1541E-02  0.3379E-03  0.1971E+01
   -0.699992   31.26504  0.5321E-14  0.1613E-04  0.4859E-07  0.1601E-02  0.3179E-03  0.1994E+01
   -0.749993   31.26568  0.5321E-14  0.1627E-04  0.4792E-07  0.1652E-02  0.2996E-03  0.2067E+01
   -0.799994   31.26629  0.5321E-14  0.1639E-04  0.4737E-07  0.1695E-02  0.2827E-03  0.2127E+01
   -0.849996   31.26688  0.5321E-14  0.1647E-04  0.4695E-07  0.1729E-02  0.2669E-03  0.2249E+01
   -0.899997   31.26745  0.5321E-14  0.1654E-04  0.4663E-07  0.1754E-02  0.2523E-03  0.2363E+01
   -0.949999   31.26801  0.5321E-14  0.1658E-04  0.4643E-07  0.1771E-02  0.2385E-03  0.2554E+01
   -1.000001   31.26856  0.5321E-14  0.1660E-04  0.4634E-07  0.1780E-02  0.2255E-03  0.2744E+01
   -1.050003   31.26910  0.5321E-14  0.1660E-04  0.4636E-07  0.1778E-02  0.2132E-03  0.3147E+01
   -1.100004   31.26964  0.5321E-14  0.1657E-04  0.4651E-07  0.1877E-02  0.2014E-03  0.1021E+02
   -1.150006   31.27014  0.5321E-14  0.1652E-04  0.4681E-07  0.1674E-02  0.1909E-03  0.2442E+02
   -1.200007   31.27071  0.5321E-14  0.1644E-04  0.4726E-07  0.1709E-02  0.1799E-03  0.4647E+01
   -1.250009   31.27127  0.5321E-14  0.1634E-04  0.4791E-07  0.1676E-02  0.1694E-03  0.4935E+01
   -1.300010   31.27183  0.5321E-14  0.1620E-04  0.4880E-07  0.1622E-02  0.1593E-03  0.5879E+01
   -1.350011   31.27241  0.5321E-14  0.1603E-04  0.5001E-07  0.1559E-02  0.1495E-03  0.7065E+01
   -1.400012   31.27302  0.5321E-14  0.1581E-04  0.5163E-07  0.1476E-02  0.1399E-03  0.8932E+01
   -1.450013   31.27366  0.5321E-14  0.1555E-04  0.5384E-07  0.1396E-02  0.1304E-03  0.1154E+02
   -1.500014   31.27434  0.5321E-14  0.1524E-04  0.5693E-07  0.1279E-02  0.1211E-03  0.1626E+02
   -1.550014   31.27510  0.5321E-14  0.1484E-04  0.6132E-07  0.1196E-02  0.1117E-03  0.2417E+02
   -1.600014   31.27593  0.5321E-14  0.1435E-04  0.6821E-07  0.1050E-02  0.1025E-03  0.6159E+02
   -1.650014   31.27698  0.5321E-14  0.1370E-04  0.7910E-07  0.9690E-03  0.9239E-04  0.1220E+03
   -1.700013   31.27821  0.5321E-14  0.1280E-04  0.9813E-07  0.7883E-03  0.8229E-04  0.6935E+04
   -1.750012   31.28040  0.5321E-14  0.1165E-04  0.1290E-06  0.7098E-03  0.6895E-04  0.5786E+05
   -1.800011   31.28206  0.5321E-14  0.1018E-04  0.1965E-06  0.4891E-03  0.5909E-04  0.6203E+05
   -1.850009   31.29011  0.5321E-14  0.8610E-05  0.3233E-06  0.4578E-03  0.4117E-04  0.8898E+07
   -1.900007   31.28743  0.5321E-14  0.6852E-05  0.6814E-06  0.2117E-03  0.3386E-04 -0.7338E+05
   -1.950005   31.31019  0.5321E-14  0.4864E-05  0.1661E-05  0.2042E-03  0.1791E-04 -0.2763E+06
   -2.000002   31.31143  0.5321E-14  0.0000E+00  0.0000E+00  0.0000E+00  0.3475E-04  0.0000E+00
