 1 - depth, m
 2 - temperature, C
 3 - salinity, kg/kg
 4 - turbulent kinetic energy, m**2/s**2
 5 - dissipation rate, m**2/s**3
 6 - kinematic heat conductance, m**2/s
 7 - modulus of horizontal velocity, m/s
 8 - Richardson number, n/d
   -0.000000   29.56218  0.1324E-12  0.4132E-05  0.2326E-06  0.4543E-04  0.8011E-03  0.7008E+05
   -0.049997   29.59035  0.1324E-12  0.7239E-05  0.1035E-06  0.1695E-03  0.4477E-03  0.4380E+02
   -0.099994   29.60024  0.1324E-12  0.8729E-05  0.7193E-07  0.3828E-03  0.3264E-03  0.7314E+02
   -0.149992   29.60306  0.1324E-12  0.9650E-05  0.6081E-07  0.4594E-03  0.2882E-03  0.3502E+02
   -0.199991   29.60531  0.1324E-12  0.1036E-04  0.5416E-07  0.6066E-03  0.2571E-03  0.2287E+02
   -0.249989   29.60696  0.1324E-12  0.1093E-04  0.4973E-07  0.7240E-03  0.2336E-03  0.1690E+02
   -0.299989   29.60829  0.1324E-12  0.1138E-04  0.4653E-07  0.8382E-03  0.2140E-03  0.1347E+02
   -0.349988   29.60941  0.1324E-12  0.1176E-04  0.4410E-07  0.9426E-03  0.1972E-03  0.1150E+02
   -0.399988   29.61038  0.1324E-12  0.1208E-04  0.4219E-07  0.1038E-02  0.1822E-03  0.1025E+02
   -0.449988   29.61123  0.1324E-12  0.1235E-04  0.4063E-07  0.1127E-02  0.1691E-03  0.9604E+01
   -0.499988   29.61200  0.1324E-12  0.1259E-04  0.3932E-07  0.1208E-02  0.1575E-03  0.9348E+01
   -0.549989   29.61270  0.1324E-12  0.1279E-04  0.3822E-07  0.1283E-02  0.1471E-03  0.9201E+01
   -0.599990   29.61335  0.1324E-12  0.1296E-04  0.3728E-07  0.1352E-02  0.1378E-03  0.9208E+01
   -0.649991   29.61395  0.1324E-12  0.1311E-04  0.3648E-07  0.1413E-02  0.1292E-03  0.9294E+01
   -0.699992   29.61452  0.1324E-12  0.1323E-04  0.3579E-07  0.1468E-02  0.1214E-03  0.9506E+01
   -0.749993   29.61505  0.1324E-12  0.1334E-04  0.3521E-07  0.1516E-02  0.1142E-03  0.9782E+01
   -0.799995   29.61556  0.1324E-12  0.1342E-04  0.3471E-07  0.1557E-02  0.1075E-03  0.1019E+02
   -0.849997   29.61605  0.1324E-12  0.1349E-04  0.3430E-07  0.1592E-02  0.1012E-03  0.1067E+02
   -0.899998   29.61652  0.1324E-12  0.1353E-04  0.3397E-07  0.1619E-02  0.9537E-04  0.1131E+02
   -0.950000   29.61698  0.1324E-12  0.1356E-04  0.3371E-07  0.1639E-02  0.8988E-04  0.1204E+02
   -1.000002   29.61742  0.1324E-12  0.1358E-04  0.3353E-07  0.1652E-02  0.8469E-04  0.1298E+02
   -1.050003   29.61786  0.1324E-12  0.1357E-04  0.3343E-07  0.1657E-02  0.7978E-04  0.1464E+02
   -1.100005   29.61829  0.1324E-12  0.1356E-04  0.3341E-07  0.1721E-02  0.7511E-04  0.4958E+02
   -1.150007   29.61871  0.1324E-12  0.1352E-04  0.3349E-07  0.1611E-02  0.7091E-04  0.1057E+03
   -1.200008   29.61914  0.1324E-12  0.1346E-04  0.3366E-07  0.1618E-02  0.6668E-04  0.2069E+02
   -1.250010   29.61958  0.1324E-12  0.1339E-04  0.3394E-07  0.1593E-02  0.6260E-04  0.2197E+02
   -1.300011   29.62001  0.1324E-12  0.1329E-04  0.3437E-07  0.1553E-02  0.5868E-04  0.2538E+02
   -1.350013   29.62045  0.1324E-12  0.1318E-04  0.3497E-07  0.1503E-02  0.5489E-04  0.3003E+02
   -1.400014   29.62091  0.1324E-12  0.1303E-04  0.3579E-07  0.1440E-02  0.5123E-04  0.3632E+02
   -1.450014   29.62138  0.1324E-12  0.1286E-04  0.3691E-07  0.1370E-02  0.4765E-04  0.4533E+02
   -1.500015   29.62187  0.1324E-12  0.1264E-04  0.3845E-07  0.1276E-02  0.4416E-04  0.5913E+02
   -1.550015   29.62240  0.1324E-12  0.1239E-04  0.4060E-07  0.1193E-02  0.4070E-04  0.8066E+02
   -1.600016   29.62297  0.1324E-12  0.1207E-04  0.4374E-07  0.1063E-02  0.3731E-04  0.1252E+03
   -1.650015   29.62363  0.1324E-12  0.1168E-04  0.4849E-07  0.9830E-03  0.3382E-04  0.2666E+03
   -1.700015   29.62435  0.1324E-12  0.1116E-04  0.5696E-07  0.8130E-03  0.3043E-04  0.5007E+04
   -1.750014   29.62548  0.1324E-12  0.1043E-04  0.7117E-07  0.7323E-03  0.2624E-04  0.1971E+05
   -1.800013   29.62664  0.1324E-12  0.9399E-05  0.9971E-07  0.5223E-03  0.2256E-04  0.2705E+05
   -1.850011   29.62995  0.1324E-12  0.8110E-05  0.1534E-06  0.4644E-03  0.1691E-04  0.5052E+07
   -1.900009   29.63037  0.1324E-12  0.6453E-05  0.3104E-06  0.2069E-03  0.1358E-04  0.2142E+06
   -1.950006   29.64299  0.1324E-12  0.4364E-05  0.8192E-06  0.1520E-03  0.7531E-05 -0.1411E+07
   -2.000003   29.64715  0.1324E-12  0.0000E+00  0.0000E+00  0.0000E+00  0.1242E-04  0.0000E+00
