 1 - depth, m
 2 - temperature, C
 3 - salinity, kg/kg
 4 - turbulent kinetic energy, m**2/s**2
 5 - dissipation rate, m**2/s**3
 6 - kinematic heat conductance, m**2/s
 7 - modulus of horizontal velocity, m/s
 8 - Richardson number, n/d
   -0.000000   31.08203  0.3596E-14  0.5556E-05  0.3751E-06  0.5506E-04  0.1944E-02  0.3778E+04
   -0.049997   31.11608  0.3596E-14  0.9354E-05  0.1670E-06  0.1842E-03  0.1124E-02  0.1287E+04
   -0.099994   31.12977  0.3596E-14  0.1136E-04  0.1139E-06  0.4167E-03  0.8253E-03  0.1352E+02
   -0.149992   31.13349  0.3596E-14  0.1263E-04  0.9511E-07  0.4974E-03  0.7304E-03  0.6684E+01
   -0.199990   31.13648  0.3596E-14  0.1361E-04  0.8416E-07  0.6708E-03  0.6529E-03  0.4244E+01
   -0.249989   31.13863  0.3596E-14  0.1439E-04  0.7705E-07  0.8018E-03  0.5954E-03  0.3129E+01
   -0.299988   31.14037  0.3596E-14  0.1502E-04  0.7201E-07  0.9350E-03  0.5476E-03  0.2480E+01
   -0.349987   31.14183  0.3596E-14  0.1555E-04  0.6824E-07  0.1055E-02  0.5066E-03  0.2117E+01
   -0.399987   31.14310  0.3596E-14  0.1599E-04  0.6531E-07  0.1164E-02  0.4705E-03  0.1882E+01
   -0.449987   31.14422  0.3596E-14  0.1636E-04  0.6294E-07  0.1266E-02  0.4387E-03  0.1765E+01
   -0.499987   31.14523  0.3596E-14  0.1669E-04  0.6099E-07  0.1359E-02  0.4105E-03  0.1713E+01
   -0.549988   31.14615  0.3596E-14  0.1697E-04  0.5935E-07  0.1444E-02  0.3852E-03  0.1690E+01
   -0.599989   31.14701  0.3596E-14  0.1721E-04  0.5798E-07  0.1522E-02  0.3624E-03  0.1685E+01
   -0.649990   31.14780  0.3596E-14  0.1742E-04  0.5682E-07  0.1591E-02  0.3414E-03  0.1705E+01
   -0.699991   31.14855  0.3596E-14  0.1759E-04  0.5585E-07  0.1651E-02  0.3222E-03  0.1737E+01
   -0.749992   31.14927  0.3596E-14  0.1774E-04  0.5504E-07  0.1704E-02  0.3044E-03  0.1793E+01
   -0.799994   31.14995  0.3596E-14  0.1785E-04  0.5438E-07  0.1747E-02  0.2879E-03  0.1862E+01
   -0.849995   31.15061  0.3596E-14  0.1794E-04  0.5385E-07  0.1782E-02  0.2724E-03  0.1960E+01
   -0.899997   31.15125  0.3596E-14  0.1800E-04  0.5345E-07  0.1809E-02  0.2579E-03  0.2073E+01
   -0.949998   31.15187  0.3596E-14  0.1804E-04  0.5318E-07  0.1826E-02  0.2441E-03  0.2224E+01
   -1.000000   31.15248  0.3596E-14  0.1805E-04  0.5304E-07  0.1835E-02  0.2311E-03  0.2398E+01
   -1.050002   31.15308  0.3596E-14  0.1803E-04  0.5303E-07  0.1832E-02  0.2187E-03  0.2723E+01
   -1.100003   31.15368  0.3596E-14  0.1800E-04  0.5317E-07  0.1941E-02  0.2069E-03  0.8818E+01
   -1.150005   31.15424  0.3596E-14  0.1793E-04  0.5350E-07  0.1714E-02  0.1964E-03  0.2138E+02
   -1.200006   31.15488  0.3596E-14  0.1783E-04  0.5399E-07  0.1756E-02  0.1852E-03  0.4005E+01
   -1.250008   31.15549  0.3596E-14  0.1770E-04  0.5471E-07  0.1724E-02  0.1747E-03  0.4262E+01
   -1.300009   31.15612  0.3596E-14  0.1754E-04  0.5573E-07  0.1666E-02  0.1645E-03  0.5045E+01
   -1.350010   31.15676  0.3596E-14  0.1734E-04  0.5711E-07  0.1600E-02  0.1545E-03  0.6094E+01
   -1.400011   31.15743  0.3596E-14  0.1709E-04  0.5901E-07  0.1512E-02  0.1448E-03  0.7690E+01
   -1.450012   31.15814  0.3596E-14  0.1679E-04  0.6162E-07  0.1431E-02  0.1352E-03  0.1000E+02
   -1.500012   31.15889  0.3596E-14  0.1642E-04  0.6531E-07  0.1309E-02  0.1257E-03  0.1419E+02
   -1.550013   31.15974  0.3596E-14  0.1597E-04  0.7063E-07  0.1227E-02  0.1161E-03  0.2189E+02
   -1.600013   31.16066  0.3596E-14  0.1540E-04  0.7914E-07  0.1076E-02  0.1066E-03 -0.4411E+03
   -1.650012   31.16188  0.3596E-14  0.1464E-04  0.9249E-07  0.9919E-03  0.9597E-04  0.3283E+04
   -1.700012   31.16327  0.3596E-14  0.1361E-04  0.1164E-06  0.8063E-03  0.8540E-04  0.9287E+03
   -1.750011   31.16582  0.3596E-14  0.1236E-04  0.1541E-06  0.7250E-03  0.7119E-04  0.6981E+05
   -1.800009   31.16740  0.3596E-14  0.1077E-04  0.2364E-06  0.5079E-03  0.6142E-04  0.1271E+05
   -1.850008   31.17686  0.3596E-14  0.9143E-05  0.3929E-06  0.4692E-03  0.4252E-04  0.1111E+08
   -1.900006   31.17339  0.3596E-14  0.7273E-05  0.8322E-06  0.2230E-03  0.3517E-04 -0.1231E+06
   -1.950003   31.19874  0.3596E-14  0.5228E-05  0.1978E-05  0.2215E-03  0.1875E-04 -0.5833E+06
   -2.000000   31.19926  0.3596E-14  0.0000E+00  0.0000E+00  0.0000E+00  0.3673E-04  0.0000E+00
