 1 - depth, m
 2 - temperature, C
 3 - salinity, kg/kg
 4 - turbulent kinetic energy, m**2/s**2
 5 - dissipation rate, m**2/s**3
 6 - kinematic heat conductance, m**2/s
 7 - modulus of horizontal velocity, m/s
 8 - Richardson number, n/d
   -0.000000   31.03918  0.1915E-13  0.5519E-05  0.3706E-06  0.5472E-04  0.1949E-02  0.4221E+04
   -0.049997   31.07316  0.1915E-13  0.9294E-05  0.1650E-06  0.1842E-03  0.1123E-02  0.5280E+04
   -0.099994   31.08666  0.1915E-13  0.1128E-04  0.1127E-06  0.4146E-03  0.8263E-03  0.1348E+02
   -0.149992   31.09037  0.1915E-13  0.1254E-04  0.9408E-07  0.4961E-03  0.7309E-03  0.6660E+01
   -0.199990   31.09334  0.1915E-13  0.1351E-04  0.8326E-07  0.6683E-03  0.6533E-03  0.4231E+01
   -0.249989   31.09547  0.1915E-13  0.1428E-04  0.7622E-07  0.7989E-03  0.5957E-03  0.3118E+01
   -0.299988   31.09721  0.1915E-13  0.1491E-04  0.7122E-07  0.9314E-03  0.5478E-03  0.2472E+01
   -0.349987   31.09866  0.1915E-13  0.1543E-04  0.6749E-07  0.1051E-02  0.5068E-03  0.2109E+01
   -0.399987   31.09992  0.1915E-13  0.1587E-04  0.6459E-07  0.1160E-02  0.4706E-03  0.1875E+01
   -0.449987   31.10103  0.1915E-13  0.1624E-04  0.6224E-07  0.1261E-02  0.4387E-03  0.1758E+01
   -0.499987   31.10203  0.1915E-13  0.1656E-04  0.6030E-07  0.1354E-02  0.4104E-03  0.1706E+01
   -0.549988   31.10295  0.1915E-13  0.1684E-04  0.5868E-07  0.1439E-02  0.3851E-03  0.1683E+01
   -0.599989   31.10380  0.1915E-13  0.1708E-04  0.5732E-07  0.1515E-02  0.3622E-03  0.1678E+01
   -0.649990   31.10459  0.1915E-13  0.1728E-04  0.5617E-07  0.1584E-02  0.3412E-03  0.1697E+01
   -0.699991   31.10534  0.1915E-13  0.1745E-04  0.5520E-07  0.1644E-02  0.3220E-03  0.1730E+01
   -0.749992   31.10604  0.1915E-13  0.1759E-04  0.5440E-07  0.1696E-02  0.3042E-03  0.1784E+01
   -0.799994   31.10672  0.1915E-13  0.1771E-04  0.5374E-07  0.1740E-02  0.2876E-03  0.1855E+01
   -0.849995   31.10738  0.1915E-13  0.1779E-04  0.5321E-07  0.1775E-02  0.2721E-03  0.1950E+01
   -0.899997   31.10801  0.1915E-13  0.1786E-04  0.5281E-07  0.1802E-02  0.2575E-03  0.2066E+01
   -0.949998   31.10863  0.1915E-13  0.1789E-04  0.5254E-07  0.1819E-02  0.2438E-03  0.2213E+01
   -1.000000   31.10923  0.1915E-13  0.1790E-04  0.5240E-07  0.1828E-02  0.2308E-03  0.2391E+01
   -1.050002   31.10983  0.1915E-13  0.1789E-04  0.5238E-07  0.1825E-02  0.2184E-03  0.2710E+01
   -1.100003   31.11043  0.1915E-13  0.1785E-04  0.5252E-07  0.1933E-02  0.2065E-03  0.8799E+01
   -1.150005   31.11099  0.1915E-13  0.1778E-04  0.5283E-07  0.1709E-02  0.1961E-03  0.2138E+02
   -1.200006   31.11162  0.1915E-13  0.1769E-04  0.5331E-07  0.1750E-02  0.1849E-03  0.3992E+01
   -1.250008   31.11223  0.1915E-13  0.1756E-04  0.5402E-07  0.1718E-02  0.1743E-03  0.4258E+01
   -1.300009   31.11285  0.1915E-13  0.1740E-04  0.5502E-07  0.1660E-02  0.1641E-03  0.5035E+01
   -1.350010   31.11348  0.1915E-13  0.1720E-04  0.5639E-07  0.1595E-02  0.1541E-03  0.6102E+01
   -1.400011   31.11415  0.1915E-13  0.1695E-04  0.5825E-07  0.1507E-02  0.1444E-03  0.7706E+01
   -1.450012   31.11486  0.1915E-13  0.1665E-04  0.6082E-07  0.1427E-02  0.1348E-03  0.1006E+02
   -1.500012   31.11561  0.1915E-13  0.1629E-04  0.6446E-07  0.1304E-02  0.1253E-03  0.1437E+02
   -1.550013   31.11645  0.1915E-13  0.1584E-04  0.6974E-07  0.1225E-02  0.1157E-03  0.2270E+02
   -1.600013   31.11737  0.1915E-13  0.1527E-04  0.7820E-07  0.1069E-02  0.1062E-03  0.5874E+02
   -1.650012   31.11860  0.1915E-13  0.1452E-04  0.9127E-07  0.9909E-03  0.9551E-04  0.4631E+04
   -1.700012   31.11995  0.1915E-13  0.1351E-04  0.1147E-06  0.7988E-03  0.8511E-04  0.7312E+04
   -1.750011   31.12258  0.1915E-13  0.1227E-04  0.1523E-06  0.7302E-03  0.7076E-04  0.8319E+06
   -1.800010   31.12415  0.1915E-13  0.1072E-04  0.2336E-06  0.5015E-03  0.6106E-04  0.1930E+06
   -1.850008   31.13369  0.1915E-13  0.9105E-05  0.3885E-06  0.4734E-03  0.4243E-04  0.1449E+09
   -1.900006   31.12994  0.1915E-13  0.7267E-05  0.8214E-06  0.2196E-03  0.3513E-04 -0.1376E+06
   -1.950003   31.15518  0.1915E-13  0.5202E-05  0.1942E-05  0.2193E-03  0.1875E-04 -0.1707E+06
   -2.000000   31.15579  0.1915E-13  0.0000E+00  0.0000E+00  0.0000E+00  0.3677E-04  0.0000E+00
