 1 - depth, m
 2 - temperature, C
 3 - salinity, kg/kg
 4 - turbulent kinetic energy, m**2/s**2
 5 - dissipation rate, m**2/s**3
 6 - kinematic heat conductance, m**2/s
 7 - modulus of horizontal velocity, m/s
 8 - Richardson number, n/d
   -0.000000   31.33295  0.4536E-14  0.5138E-05  0.3330E-06  0.5198E-04  0.1241E-02  0.9452E+04
   -0.049997   31.36535  0.4536E-14  0.8833E-05  0.1483E-06  0.1834E-03  0.7101E-03  0.1972E+03
   -0.099994   31.37781  0.4536E-14  0.1072E-04  0.1020E-06  0.4119E-03  0.5218E-03  0.3608E+02
   -0.149992   31.38122  0.4536E-14  0.1191E-04  0.8558E-07  0.4927E-03  0.4617E-03  0.1772E+02
   -0.199991   31.38396  0.4536E-14  0.1283E-04  0.7595E-07  0.6608E-03  0.4128E-03  0.1137E+02
   -0.249989   31.38593  0.4536E-14  0.1356E-04  0.6966E-07  0.7891E-03  0.3763E-03  0.8372E+01
   -0.299988   31.38754  0.4536E-14  0.1415E-04  0.6518E-07  0.9184E-03  0.3459E-03  0.6671E+01
   -0.349988   31.38889  0.4536E-14  0.1464E-04  0.6181E-07  0.1035E-02  0.3199E-03  0.5674E+01
   -0.399987   31.39005  0.4536E-14  0.1506E-04  0.5920E-07  0.1142E-02  0.2969E-03  0.5067E+01
   -0.449988   31.39109  0.4536E-14  0.1541E-04  0.5707E-07  0.1240E-02  0.2767E-03  0.4724E+01
   -0.499988   31.39202  0.4536E-14  0.1572E-04  0.5532E-07  0.1331E-02  0.2587E-03  0.4608E+01
   -0.549988   31.39287  0.4536E-14  0.1598E-04  0.5385E-07  0.1414E-02  0.2427E-03  0.4512E+01
   -0.599989   31.39366  0.4536E-14  0.1621E-04  0.5261E-07  0.1489E-02  0.2281E-03  0.4528E+01
   -0.649990   31.39440  0.4536E-14  0.1640E-04  0.5156E-07  0.1556E-02  0.2148E-03  0.4547E+01
   -0.699991   31.39509  0.4536E-14  0.1656E-04  0.5067E-07  0.1615E-02  0.2026E-03  0.4668E+01
   -0.749993   31.39575  0.4536E-14  0.1670E-04  0.4993E-07  0.1666E-02  0.1913E-03  0.4780E+01
   -0.799994   31.39638  0.4536E-14  0.1680E-04  0.4932E-07  0.1709E-02  0.1808E-03  0.5003E+01
   -0.849996   31.39699  0.4536E-14  0.1689E-04  0.4883E-07  0.1744E-02  0.1710E-03  0.5215E+01
   -0.899997   31.39758  0.4536E-14  0.1695E-04  0.4845E-07  0.1771E-02  0.1617E-03  0.5558E+01
   -0.949999   31.39815  0.4536E-14  0.1698E-04  0.4818E-07  0.1789E-02  0.1530E-03  0.5899E+01
   -1.000001   31.39871  0.4536E-14  0.1699E-04  0.4803E-07  0.1799E-02  0.1447E-03  0.6405E+01
   -1.050002   31.39927  0.4536E-14  0.1698E-04  0.4799E-07  0.1797E-02  0.1369E-03  0.7193E+01
   -1.100004   31.39982  0.4536E-14  0.1695E-04  0.4808E-07  0.1897E-02  0.1293E-03  0.2369E+02
   -1.150006   31.40033  0.4536E-14  0.1689E-04  0.4833E-07  0.1694E-02  0.1227E-03  0.5563E+02
   -1.200007   31.40091  0.4536E-14  0.1680E-04  0.4873E-07  0.1730E-02  0.1157E-03  0.1045E+02
   -1.250009   31.40147  0.4536E-14  0.1668E-04  0.4932E-07  0.1698E-02  0.1090E-03  0.1118E+02
   -1.300010   31.40203  0.4536E-14  0.1654E-04  0.5016E-07  0.1644E-02  0.1025E-03  0.1304E+02
   -1.350011   31.40262  0.4536E-14  0.1636E-04  0.5131E-07  0.1581E-02  0.9627E-04  0.1577E+02
   -1.400012   31.40322  0.4536E-14  0.1613E-04  0.5288E-07  0.1499E-02  0.9016E-04  0.1951E+02
   -1.450013   31.40386  0.4536E-14  0.1586E-04  0.5504E-07  0.1417E-02  0.8413E-04  0.2527E+02
   -1.500014   31.40453  0.4536E-14  0.1553E-04  0.5805E-07  0.1302E-02  0.7820E-04  0.3478E+02
   -1.550014   31.40528  0.4536E-14  0.1513E-04  0.6240E-07  0.1214E-02  0.7221E-04  0.5177E+02
   -1.600014   31.40608  0.4536E-14  0.1462E-04  0.6916E-07  0.1070E-02  0.6630E-04  0.1496E+03
   -1.650014   31.40710  0.4536E-14  0.1396E-04  0.7981E-07  0.9836E-03  0.5988E-04  0.5539E+03
   -1.700013   31.40829  0.4536E-14  0.1306E-04  0.9848E-07  0.8059E-03  0.5341E-04  0.6938E+05
   -1.750012   31.41034  0.4536E-14  0.1192E-04  0.1289E-06  0.7216E-03  0.4505E-04  0.1803E+06
   -1.800011   31.41198  0.4536E-14  0.1041E-04  0.1941E-06  0.5028E-03  0.3856E-04  0.5768E+07
   -1.850009   31.41922  0.4536E-14  0.8790E-05  0.3170E-06  0.4630E-03  0.2721E-04  0.4088E+08
   -1.900007   31.41739  0.4536E-14  0.6952E-05  0.6700E-06  0.2168E-03  0.2212E-04 -0.2321E+06
   -1.950004   31.43867  0.4536E-14  0.4925E-05  0.1639E-05  0.2032E-03  0.1177E-04 -0.1870E+07
   -2.000001   31.44025  0.4536E-14  0.0000E+00  0.0000E+00  0.0000E+00  0.2272E-04  0.0000E+00
