 1 - depth, m
 2 - temperature, C
 3 - salinity, kg/kg
 4 - turbulent kinetic energy, m**2/s**2
 5 - dissipation rate, m**2/s**3
 6 - kinematic heat conductance, m**2/s
 7 - modulus of horizontal velocity, m/s
 8 - Richardson number, n/d
   -0.000000   30.88443  0.9319E-14  0.5247E-05  0.3416E-06  0.5141E-04  0.6681E-03  0.1321E+05
   -0.049997   30.91953  0.9319E-14  0.9177E-05  0.1517E-06  0.1922E-03  0.3776E-03  0.7540E+03
   -0.099994   30.93178  0.9319E-14  0.1109E-04  0.1051E-06  0.4259E-03  0.2795E-03  0.1417E+03
   -0.149992   30.93529  0.9319E-14  0.1230E-04  0.8857E-07  0.5054E-03  0.2479E-03  0.7045E+02
   -0.199990   30.93811  0.9319E-14  0.1324E-04  0.7882E-07  0.6765E-03  0.2220E-03  0.4593E+02
   -0.249989   30.94015  0.9319E-14  0.1398E-04  0.7241E-07  0.8062E-03  0.2027E-03  0.3419E+02
   -0.299988   30.94182  0.9319E-14  0.1459E-04  0.6784E-07  0.9363E-03  0.1866E-03  0.2739E+02
   -0.349988   30.94322  0.9319E-14  0.1509E-04  0.6441E-07  0.1054E-02  0.1728E-03  0.2344E+02
   -0.399987   30.94444  0.9319E-14  0.1551E-04  0.6174E-07  0.1161E-02  0.1605E-03  0.2097E+02
   -0.449987   30.94551  0.9319E-14  0.1587E-04  0.5956E-07  0.1260E-02  0.1497E-03  0.1964E+02
   -0.499988   30.94649  0.9319E-14  0.1618E-04  0.5777E-07  0.1350E-02  0.1401E-03  0.1916E+02
   -0.549988   30.94738  0.9319E-14  0.1645E-04  0.5627E-07  0.1433E-02  0.1316E-03  0.1885E+02
   -0.599989   30.94821  0.9319E-14  0.1668E-04  0.5501E-07  0.1507E-02  0.1238E-03  0.1892E+02
   -0.649990   30.94898  0.9319E-14  0.1687E-04  0.5395E-07  0.1573E-02  0.1166E-03  0.1911E+02
   -0.699991   30.94971  0.9319E-14  0.1704E-04  0.5306E-07  0.1631E-02  0.1101E-03  0.1963E+02
   -0.749992   30.95040  0.9319E-14  0.1717E-04  0.5232E-07  0.1681E-02  0.1040E-03  0.2023E+02
   -0.799994   30.95106  0.9319E-14  0.1728E-04  0.5171E-07  0.1723E-02  0.9835E-04  0.2120E+02
   -0.849995   30.95170  0.9319E-14  0.1736E-04  0.5124E-07  0.1756E-02  0.9307E-04  0.2226E+02
   -0.899997   30.95232  0.9319E-14  0.1742E-04  0.5088E-07  0.1780E-02  0.8807E-04  0.2377E+02
   -0.949999   30.95293  0.9319E-14  0.1745E-04  0.5065E-07  0.1796E-02  0.8338E-04  0.2545E+02
   -1.000000   30.95353  0.9319E-14  0.1746E-04  0.5054E-07  0.1803E-02  0.7890E-04  0.2773E+02
   -1.050002   30.95412  0.9319E-14  0.1744E-04  0.5056E-07  0.1798E-02  0.7467E-04  0.3142E+02
   -1.100004   30.95470  0.9319E-14  0.1739E-04  0.5072E-07  0.1911E-02  0.7059E-04  0.1019E+03
   -1.150005   30.95525  0.9319E-14  0.1732E-04  0.5106E-07  0.1670E-02  0.6702E-04  0.2552E+03
   -1.200007   30.95588  0.9319E-14  0.1723E-04  0.5157E-07  0.1716E-02  0.6316E-04  0.4710E+02
   -1.250008   30.95648  0.9319E-14  0.1709E-04  0.5231E-07  0.1683E-02  0.5952E-04  0.5073E+02
   -1.300009   30.95709  0.9319E-14  0.1693E-04  0.5333E-07  0.1623E-02  0.5602E-04  0.6018E+02
   -1.350010   30.95773  0.9319E-14  0.1672E-04  0.5472E-07  0.1557E-02  0.5259E-04  0.7383E+02
   -1.400011   30.95839  0.9319E-14  0.1647E-04  0.5663E-07  0.1466E-02  0.4925E-04  0.9385E+02
   -1.450012   30.95910  0.9319E-14  0.1617E-04  0.5925E-07  0.1386E-02  0.4593E-04  0.1244E+03
   -1.500013   30.95985  0.9319E-14  0.1580E-04  0.6298E-07  0.1260E-02  0.4267E-04  0.1796E+03
   -1.550013   30.96070  0.9319E-14  0.1534E-04  0.6836E-07  0.1186E-02  0.3933E-04  0.2924E+03
   -1.600013   30.96162  0.9319E-14  0.1476E-04  0.7711E-07  0.1029E-02  0.3609E-04 -0.4901E+02
   -1.650013   30.96289  0.9319E-14  0.1398E-04  0.9078E-07  0.9551E-03  0.3234E-04  0.4213E+04
   -1.700012   30.96429  0.9319E-14  0.1292E-04  0.1151E-06  0.7656E-03  0.2870E-04  0.6001E+06
   -1.750011   30.96709  0.9319E-14  0.1163E-04  0.1541E-06  0.6950E-03  0.2356E-04  0.5606E+06
   -1.800010   30.96861  0.9319E-14  0.1005E-04  0.2376E-06  0.4723E-03  0.2028E-04 -0.3118E+04
   -1.850008   30.97917  0.9319E-14  0.8462E-05  0.4001E-06  0.4518E-03  0.1357E-04  0.1839E+09
   -1.900006   30.97445  0.9319E-14  0.6729E-05  0.8438E-06  0.2077E-03  0.1129E-04 -0.3858E+07
   -1.950003   31.00132  0.9319E-14  0.4863E-05  0.1994E-05  0.2261E-03  0.5779E-05 -0.2583E+07
   -2.000000   31.00036  0.9319E-14  0.0000E+00  0.0000E+00  0.0000E+00  0.1228E-04  0.0000E+00
