 1 - depth, m
 2 - temperature, C
 3 - salinity, kg/kg
 4 - turbulent kinetic energy, m**2/s**2
 5 - dissipation rate, m**2/s**3
 6 - kinematic heat conductance, m**2/s
 7 - modulus of horizontal velocity, m/s
 8 - Richardson number, n/d
   -0.000000   30.37723  0.7398E-13  0.4683E-05  0.2847E-06  0.4840E-04  0.8076E-03  0.3647E+05
   -0.049997   30.40825  0.7399E-13  0.8201E-05  0.1266E-06  0.1828E-03  0.4545E-03  0.1232E+04
   -0.099994   30.41910  0.7399E-13  0.9912E-05  0.8795E-07  0.4053E-03  0.3348E-03  0.1042E+03
   -0.149992   30.42221  0.7399E-13  0.1099E-04  0.7420E-07  0.4856E-03  0.2962E-03  0.5122E+02
   -0.199991   30.42470  0.7399E-13  0.1182E-04  0.6609E-07  0.6462E-03  0.2649E-03  0.3350E+02
   -0.249989   30.42651  0.7399E-13  0.1249E-04  0.6074E-07  0.7710E-03  0.2414E-03  0.2486E+02
   -0.299988   30.42798  0.7399E-13  0.1303E-04  0.5692E-07  0.8947E-03  0.2217E-03  0.1993E+02
   -0.349988   30.42923  0.7399E-13  0.1349E-04  0.5406E-07  0.1007E-02  0.2049E-03  0.1704E+02
   -0.399988   30.43030  0.7399E-13  0.1387E-04  0.5182E-07  0.1109E-02  0.1899E-03  0.1526E+02
   -0.449988   30.43126  0.7399E-13  0.1419E-04  0.5001E-07  0.1204E-02  0.1768E-03  0.1428E+02
   -0.499988   30.43212  0.7399E-13  0.1448E-04  0.4851E-07  0.1291E-02  0.1652E-03  0.1396E+02
   -0.549989   30.43291  0.7399E-13  0.1472E-04  0.4726E-07  0.1371E-02  0.1548E-03  0.1372E+02
   -0.599989   30.43365  0.7399E-13  0.1494E-04  0.4621E-07  0.1443E-02  0.1453E-03  0.1381E+02
   -0.649990   30.43433  0.7399E-13  0.1512E-04  0.4532E-07  0.1508E-02  0.1367E-03  0.1392E+02
   -0.699992   30.43497  0.7399E-13  0.1528E-04  0.4458E-07  0.1565E-02  0.1288E-03  0.1434E+02
   -0.749993   30.43559  0.7399E-13  0.1541E-04  0.4396E-07  0.1615E-02  0.1215E-03  0.1474E+02
   -0.799994   30.43617  0.7399E-13  0.1551E-04  0.4346E-07  0.1657E-02  0.1147E-03  0.1549E+02
   -0.849996   30.43674  0.7399E-13  0.1560E-04  0.4307E-07  0.1691E-02  0.1083E-03  0.1622E+02
   -0.899998   30.43729  0.7399E-13  0.1566E-04  0.4277E-07  0.1717E-02  0.1024E-03  0.1735E+02
   -0.949999   30.43782  0.7399E-13  0.1570E-04  0.4257E-07  0.1735E-02  0.9675E-04  0.1851E+02
   -1.000001   30.43835  0.7399E-13  0.1573E-04  0.4248E-07  0.1744E-02  0.9141E-04  0.2019E+02
   -1.050003   30.43887  0.7399E-13  0.1573E-04  0.4248E-07  0.1744E-02  0.8637E-04  0.2281E+02
   -1.100005   30.43939  0.7399E-13  0.1570E-04  0.4260E-07  0.1833E-02  0.8153E-04  0.7553E+02
   -1.150006   30.43988  0.7399E-13  0.1566E-04  0.4286E-07  0.1656E-02  0.7723E-04  0.1785E+03
   -1.200008   30.44042  0.7399E-13  0.1560E-04  0.4324E-07  0.1683E-02  0.7275E-04  0.3363E+02
   -1.250009   30.44094  0.7399E-13  0.1550E-04  0.4381E-07  0.1652E-02  0.6846E-04  0.3625E+02
   -1.300011   30.44148  0.7399E-13  0.1538E-04  0.4458E-07  0.1601E-02  0.6436E-04  0.4253E+02
   -1.350012   30.44203  0.7399E-13  0.1523E-04  0.4562E-07  0.1542E-02  0.6034E-04  0.5177E+02
   -1.400013   30.44261  0.7399E-13  0.1504E-04  0.4703E-07  0.1463E-02  0.5646E-04  0.6453E+02
   -1.450014   30.44322  0.7399E-13  0.1481E-04  0.4892E-07  0.1386E-02  0.5262E-04  0.8401E+02
   -1.500014   30.44386  0.7399E-13  0.1452E-04  0.5156E-07  0.1273E-02  0.4887E-04  0.1168E+03
   -1.550015   30.44457  0.7399E-13  0.1417E-04  0.5528E-07  0.1192E-02  0.4507E-04  0.1726E+03
   -1.600015   30.44534  0.7399E-13  0.1373E-04  0.6108E-07  0.1045E-02  0.4138E-04  0.3707E+03
   -1.650014   30.44631  0.7399E-13  0.1315E-04  0.7001E-07  0.9686E-03  0.3734E-04  0.1922E+04
   -1.700014   30.44738  0.7399E-13  0.1237E-04  0.8587E-07  0.7850E-03  0.3348E-04  0.3377E+04
   -1.750013   30.44937  0.7399E-13  0.1132E-04  0.1122E-06  0.7109E-03  0.2827E-04  0.1025E+07
   -1.800012   30.45096  0.7399E-13  0.9951E-05  0.1689E-06  0.4912E-03  0.2424E-04  0.4975E+05
   -1.850010   30.45784  0.7399E-13  0.8438E-05  0.2734E-06  0.4575E-03  0.1724E-04  0.8239E+08
   -1.900008   30.45593  0.7399E-13  0.6705E-05  0.5706E-06  0.2068E-03  0.1405E-04  0.1193E+08
   -1.950005   30.47654  0.7399E-13  0.4707E-05  0.1412E-05  0.1928E-03  0.7473E-05 -0.3247E+07
   -2.000002   30.47886  0.7399E-13  0.0000E+00  0.0000E+00  0.0000E+00  0.1398E-04  0.0000E+00
