 1 - depth, m
 2 - temperature, C
 3 - salinity, kg/kg
 4 - turbulent kinetic energy, m**2/s**2
 5 - dissipation rate, m**2/s**3
 6 - kinematic heat conductance, m**2/s
 7 - modulus of horizontal velocity, m/s
 8 - Richardson number, n/d
   -0.000000   29.99436  0.1884E-14  0.6372E-05  0.3548E-06  0.5811E-04  0.4669E-02  0.6278E+02
   -0.049997   30.02748  0.1884E-14  0.9876E-05  0.1500E-06  0.2292E-03  0.2490E-02  0.3675E+02
   -0.099994   30.03622  0.1884E-14  0.1137E-04  0.1095E-06  0.3984E-03  0.2048E-02  0.2755E+01
   -0.149992   30.03998  0.1884E-14  0.1242E-04  0.9308E-07  0.4948E-03  0.1848E-02  0.1557E+01
   -0.199991   30.04287  0.1884E-14  0.1329E-04  0.8335E-07  0.6144E-03  0.1689E-02  0.1270E+01
   -0.249989   30.04513  0.1884E-14  0.1407E-04  0.7651E-07  0.7355E-03  0.1557E-02  0.1346E+01
   -0.299988   30.04697  0.1884E-14  0.1482E-04  0.7111E-07  0.8833E-03  0.1428E-02  0.1453E+01
   -0.349988   30.04847  0.1884E-14  0.1553E-04  0.6668E-07  0.1046E-02  0.1302E-02  0.1557E+01
   -0.399987   30.04970  0.1884E-14  0.1618E-04  0.6305E-07  0.1217E-02  0.1179E-02  0.1578E+01
   -0.449988   30.05074  0.1884E-14  0.1677E-04  0.6006E-07  0.1382E-02  0.1065E-02  0.1572E+01
   -0.499988   30.05163  0.1884E-14  0.1727E-04  0.5762E-07  0.1532E-02  0.9635E-03  0.1559E+01
   -0.549988   30.05243  0.1884E-14  0.1770E-04  0.5566E-07  0.1665E-02  0.8735E-03  0.1537E+01
   -0.599989   30.05314  0.1884E-14  0.1804E-04  0.5408E-07  0.1785E-02  0.7938E-03  0.1511E+01
   -0.649990   30.05380  0.1884E-14  0.1832E-04  0.5283E-07  0.1890E-02  0.7231E-03  0.1482E+01
   -0.699991   30.05442  0.1884E-14  0.1852E-04  0.5186E-07  0.1975E-02  0.6604E-03  0.1451E+01
   -0.749993   30.05499  0.1884E-14  0.1867E-04  0.5113E-07  0.2039E-02  0.6047E-03  0.1416E+01
   -0.799994   30.05555  0.1884E-14  0.1875E-04  0.5063E-07  0.2080E-02  0.5553E-03  0.1379E+01
   -0.849996   30.05609  0.1884E-14  0.1880E-04  0.5032E-07  0.2100E-02  0.5114E-03  0.1339E+01
   -0.899997   30.05661  0.1884E-14  0.1879E-04  0.5019E-07  0.2103E-02  0.4724E-03  0.1297E+01
   -0.949999   30.05713  0.1884E-14  0.1875E-04  0.5023E-07  0.2090E-02  0.4377E-03  0.1253E+01
   -1.000001   30.05765  0.1884E-14  0.1868E-04  0.5043E-07  0.2062E-02  0.4068E-03  0.1206E+01
   -1.050002   30.05817  0.1884E-14  0.1859E-04  0.5077E-07  0.2002E-02  0.3794E-03  0.1156E+01
   -1.100004   30.05870  0.1884E-14  0.1848E-04  0.5120E-07  0.2232E-02  0.3553E-03  0.2330E+01
   -1.150006   30.05917  0.1884E-14  0.1835E-04  0.5180E-07  0.1742E-02  0.3394E-03  0.6873E+01
   -1.200007   30.05978  0.1884E-14  0.1819E-04  0.5259E-07  0.1874E-02  0.3203E-03  0.1242E+01
   -1.250009   30.06034  0.1884E-14  0.1800E-04  0.5366E-07  0.1824E-02  0.3023E-03  0.1285E+01
   -1.300010   30.06091  0.1884E-14  0.1777E-04  0.5506E-07  0.1745E-02  0.2851E-03  0.1506E+01
   -1.350011   30.06151  0.1884E-14  0.1750E-04  0.5692E-07  0.1660E-02  0.2686E-03  0.1859E+01
   -1.400012   30.06214  0.1884E-14  0.1717E-04  0.5944E-07  0.1554E-02  0.2523E-03  0.2419E+01
   -1.450013   30.06281  0.1884E-14  0.1679E-04  0.6292E-07  0.1453E-02  0.2360E-03  0.3332E+01
   -1.500014   30.06355  0.1884E-14  0.1632E-04  0.6785E-07  0.1326E-02  0.2196E-03  0.5079E+01
   -1.550014   30.06438  0.1884E-14  0.1575E-04  0.7526E-07  0.1227E-02  0.2030E-03  0.7917E+03
   -1.600014   30.06540  0.1884E-14  0.1501E-04  0.8704E-07  0.1081E-02  0.1855E-03  0.3772E+02
   -1.650014   30.06675  0.1884E-14  0.1406E-04  0.1053E-06  0.9769E-03  0.1659E-03  0.4947E+04
   -1.700013   30.06834  0.1884E-14  0.1276E-04  0.1444E-06  0.7781E-03  0.1456E-03  0.1146E+05
   -1.750012   30.07146  0.1884E-14  0.1139E-04  0.1970E-06  0.7009E-03  0.1176E-03  0.1150E+06
   -1.800011   30.07260  0.1884E-14  0.9723E-05  0.3142E-06  0.4684E-03  0.1020E-03  0.2399E+04
   -1.850009   30.08521  0.1884E-14  0.8197E-05  0.5321E-06  0.4640E-03  0.6595E-04  0.4098E+09
   -1.900007   30.07793  0.1884E-14  0.6562E-05  0.1110E-05  0.2229E-03  0.5641E-04 -0.3198E+06
   -1.950005   30.10647  0.1884E-14  0.4801E-05  0.2493E-05  0.2593E-03  0.2865E-04 -0.2722E+05
   -2.000001   30.10384  0.1884E-14  0.0000E+00  0.0000E+00  0.0000E+00  0.6578E-04  0.0000E+00
