 1 - depth, m
 2 - temperature, C
 3 - salinity, kg/kg
 4 - turbulent kinetic energy, m**2/s**2
 5 - dissipation rate, m**2/s**3
 6 - kinematic heat conductance, m**2/s
 7 - modulus of horizontal velocity, m/s
 8 - Richardson number, n/d
   -0.000000   30.09664  0.3602E-14  0.5652E-05  0.3424E-06  0.5347E-04  0.3198E-02  0.1448E+04
   -0.049997   30.13006  0.3602E-14  0.9230E-05  0.1485E-06  0.2071E-03  0.1730E-02  0.1100E+03
   -0.099994   30.14044  0.3602E-14  0.1092E-04  0.1047E-06  0.3992E-03  0.1348E-02  0.5104E+01
   -0.149992   30.14406  0.3602E-14  0.1203E-04  0.8801E-07  0.4978E-03  0.1200E-02  0.2642E+01
   -0.199990   30.14684  0.3602E-14  0.1291E-04  0.7828E-07  0.6457E-03  0.1083E-02  0.1741E+01
   -0.249989   30.14892  0.3602E-14  0.1361E-04  0.7195E-07  0.7613E-03  0.9934E-03  0.1343E+01
   -0.299988   30.15063  0.3602E-14  0.1421E-04  0.6738E-07  0.8717E-03  0.9177E-03  0.1226E+01
   -0.349988   30.15210  0.3602E-14  0.1475E-04  0.6376E-07  0.9911E-03  0.8482E-03  0.1273E+01
   -0.399987   30.15335  0.3602E-14  0.1524E-04  0.6076E-07  0.1121E-02  0.7809E-03  0.1298E+01
   -0.449987   30.15444  0.3602E-14  0.1569E-04  0.5824E-07  0.1249E-02  0.7183E-03  0.1310E+01
   -0.499988   30.15540  0.3602E-14  0.1608E-04  0.5615E-07  0.1368E-02  0.6616E-03  0.1316E+01
   -0.549988   30.15626  0.3602E-14  0.1643E-04  0.5441E-07  0.1477E-02  0.6105E-03  0.1314E+01
   -0.599989   30.15704  0.3602E-14  0.1672E-04  0.5299E-07  0.1575E-02  0.5646E-03  0.1306E+01
   -0.649990   30.15776  0.3602E-14  0.1696E-04  0.5182E-07  0.1661E-02  0.5232E-03  0.1295E+01
   -0.699991   30.15844  0.3602E-14  0.1716E-04  0.5088E-07  0.1733E-02  0.4859E-03  0.1279E+01
   -0.749992   30.15908  0.3602E-14  0.1732E-04  0.5015E-07  0.1792E-02  0.4522E-03  0.1260E+01
   -0.799994   30.15969  0.3602E-14  0.1744E-04  0.4959E-07  0.1838E-02  0.4219E-03  0.1237E+01
   -0.849995   30.16028  0.3602E-14  0.1752E-04  0.4919E-07  0.1870E-02  0.3946E-03  0.1212E+01
   -0.899997   30.16085  0.3602E-14  0.1757E-04  0.4894E-07  0.1889E-02  0.3700E-03  0.1183E+01
   -0.949999   30.16141  0.3602E-14  0.1760E-04  0.4882E-07  0.1897E-02  0.3478E-03  0.1159E+01
   -1.000000   30.16196  0.3602E-14  0.1759E-04  0.4884E-07  0.1896E-02  0.3278E-03  0.1156E+01
   -1.050002   30.16251  0.3602E-14  0.1756E-04  0.4898E-07  0.1881E-02  0.3096E-03  0.1224E+01
   -1.100004   30.16307  0.3602E-14  0.1751E-04  0.4924E-07  0.2029E-02  0.2928E-03  0.3712E+01
   -1.150005   30.16358  0.3602E-14  0.1742E-04  0.4969E-07  0.1704E-02  0.2786E-03  0.9804E+01
   -1.200007   30.16418  0.3602E-14  0.1732E-04  0.5029E-07  0.1778E-02  0.2627E-03  0.1772E+01
   -1.250008   30.16476  0.3602E-14  0.1718E-04  0.5112E-07  0.1741E-02  0.2478E-03  0.1896E+01
   -1.300009   30.16535  0.3602E-14  0.1700E-04  0.5225E-07  0.1676E-02  0.2335E-03  0.2259E+01
   -1.350011   30.16595  0.3602E-14  0.1679E-04  0.5375E-07  0.1603E-02  0.2195E-03  0.2767E+01
   -1.400012   30.16659  0.3602E-14  0.1653E-04  0.5577E-07  0.1508E-02  0.2058E-03  0.3530E+01
   -1.450012   30.16728  0.3602E-14  0.1622E-04  0.5854E-07  0.1420E-02  0.1922E-03  0.4690E+01
   -1.500013   30.16801  0.3602E-14  0.1584E-04  0.6244E-07  0.1295E-02  0.1786E-03  0.6777E+01
   -1.550013   30.16883  0.3602E-14  0.1537E-04  0.6813E-07  0.1208E-02  0.1649E-03  0.1257E+02
   -1.600013   30.16976  0.3602E-14  0.1478E-04  0.7720E-07  0.1057E-02  0.1512E-03  0.1244E+02
   -1.650013   30.17100  0.3602E-14  0.1399E-04  0.9140E-07  0.9691E-03  0.1357E-03  0.5214E+04
   -1.700012   30.17246  0.3602E-14  0.1291E-04  0.1174E-06  0.7814E-03  0.1200E-03  0.1848E+05
   -1.750011   30.17511  0.3602E-14  0.1165E-04  0.1571E-06  0.7026E-03  0.9908E-04  0.5661E+05
   -1.800010   30.17668  0.3602E-14  0.1005E-04  0.2460E-06  0.4720E-03  0.8528E-04  0.2253E+05
   -1.850008   30.18722  0.3602E-14  0.8485E-05  0.4121E-06  0.4612E-03  0.5728E-04  0.5267E+07
   -1.900006   30.18246  0.3602E-14  0.6771E-05  0.8693E-06  0.2134E-03  0.4789E-04 -0.2940E+05
   -1.950004   30.20932  0.3602E-14  0.4883E-05  0.2028E-05  0.2291E-03  0.2486E-04 -0.1784E+06
   -2.000000   30.20761  0.3602E-14  0.0000E+00  0.0000E+00  0.0000E+00  0.5204E-04  0.0000E+00
