 1 - depth, m
 2 - temperature, C
 3 - salinity, kg/kg
 4 - turbulent kinetic energy, m**2/s**2
 5 - dissipation rate, m**2/s**3
 6 - kinematic heat conductance, m**2/s
 7 - modulus of horizontal velocity, m/s
 8 - Richardson number, n/d
   -0.000000   31.46074  0.2238E-14  0.5327E-05  0.3523E-06  0.5267E-04  0.6001E-03  0.3315E+05
   -0.049997   31.49544  0.2238E-14  0.9319E-05  0.1563E-06  0.1908E-03  0.3440E-03  0.2470E+05
   -0.099994   31.50805  0.2238E-14  0.1128E-04  0.1078E-06  0.4322E-03  0.2516E-03  0.1521E+03
   -0.149992   31.51154  0.2238E-14  0.1251E-04  0.9088E-07  0.5074E-03  0.2235E-03  0.7561E+02
   -0.199990   31.51438  0.2238E-14  0.1347E-04  0.8087E-07  0.6820E-03  0.2002E-03  0.4927E+02
   -0.249989   31.51643  0.2238E-14  0.1422E-04  0.7429E-07  0.8126E-03  0.1828E-03  0.3663E+02
   -0.299988   31.51810  0.2238E-14  0.1484E-04  0.6959E-07  0.9442E-03  0.1683E-03  0.2932E+02
   -0.349988   31.51951  0.2238E-14  0.1535E-04  0.6607E-07  0.1063E-02  0.1559E-03  0.2505E+02
   -0.399987   31.52072  0.2238E-14  0.1578E-04  0.6333E-07  0.1171E-02  0.1449E-03  0.2240E+02
   -0.449987   31.52181  0.2238E-14  0.1615E-04  0.6109E-07  0.1271E-02  0.1352E-03  0.2094E+02
   -0.499988   31.52278  0.2238E-14  0.1647E-04  0.5925E-07  0.1362E-02  0.1266E-03  0.2042E+02
   -0.549988   31.52367  0.2238E-14  0.1674E-04  0.5771E-07  0.1446E-02  0.1188E-03  0.2004E+02
   -0.599989   31.52450  0.2238E-14  0.1697E-04  0.5641E-07  0.1521E-02  0.1118E-03  0.2011E+02
   -0.649990   31.52527  0.2238E-14  0.1717E-04  0.5532E-07  0.1588E-02  0.1054E-03  0.2026E+02
   -0.699991   31.52600  0.2238E-14  0.1734E-04  0.5440E-07  0.1647E-02  0.9951E-04  0.2079E+02
   -0.749992   31.52670  0.2238E-14  0.1747E-04  0.5364E-07  0.1697E-02  0.9405E-04  0.2137E+02
   -0.799994   31.52736  0.2238E-14  0.1758E-04  0.5301E-07  0.1739E-02  0.8895E-04  0.2236E+02
   -0.849995   31.52800  0.2238E-14  0.1766E-04  0.5252E-07  0.1773E-02  0.8419E-04  0.2342E+02
   -0.899997   31.52862  0.2238E-14  0.1772E-04  0.5214E-07  0.1798E-02  0.7970E-04  0.2496E+02
   -0.949998   31.52923  0.2238E-14  0.1775E-04  0.5190E-07  0.1814E-02  0.7547E-04  0.2664E+02
   -1.000000   31.52982  0.2238E-14  0.1776E-04  0.5178E-07  0.1821E-02  0.7144E-04  0.2896E+02
   -1.050002   31.53041  0.2238E-14  0.1774E-04  0.5179E-07  0.1817E-02  0.6762E-04  0.3271E+02
   -1.100003   31.53100  0.2238E-14  0.1770E-04  0.5194E-07  0.1930E-02  0.6395E-04  0.1061E+03
   -1.150005   31.53154  0.2238E-14  0.1763E-04  0.5228E-07  0.1689E-02  0.6073E-04  0.2630E+03
   -1.200007   31.53217  0.2238E-14  0.1753E-04  0.5279E-07  0.1736E-02  0.5725E-04  0.4857E+02
   -1.250008   31.53277  0.2238E-14  0.1739E-04  0.5353E-07  0.1702E-02  0.5396E-04  0.5207E+02
   -1.300009   31.53338  0.2238E-14  0.1723E-04  0.5456E-07  0.1643E-02  0.5080E-04  0.6151E+02
   -1.350010   31.53401  0.2238E-14  0.1702E-04  0.5597E-07  0.1577E-02  0.4771E-04  0.7504E+02
   -1.400011   31.53467  0.2238E-14  0.1677E-04  0.5790E-07  0.1486E-02  0.4469E-04  0.9488E+02
   -1.450012   31.53537  0.2238E-14  0.1646E-04  0.6057E-07  0.1406E-02  0.4170E-04  0.1249E+03
   -1.500013   31.53612  0.2238E-14  0.1608E-04  0.6435E-07  0.1282E-02  0.3875E-04  0.1789E+03
   -1.550013   31.53695  0.2238E-14  0.1562E-04  0.6987E-07  0.1204E-02  0.3574E-04  0.2933E+03
   -1.600013   31.53787  0.2238E-14  0.1503E-04  0.7879E-07  0.1050E-02  0.3278E-04 -0.7022E+04
   -1.650013   31.53912  0.2238E-14  0.1425E-04  0.9263E-07  0.9703E-03  0.2939E-04  0.8074E+04
   -1.700012   31.54051  0.2238E-14  0.1318E-04  0.1171E-06  0.7840E-03  0.2608E-04  0.1321E+05
   -1.750011   31.54321  0.2238E-14  0.1192E-04  0.1564E-06  0.7139E-03  0.2147E-04  0.9565E+07
   -1.800010   31.54467  0.2238E-14  0.1034E-04  0.2427E-06  0.4803E-03  0.1855E-04  0.1407E+06
   -1.850008   31.55490  0.2238E-14  0.8752E-05  0.4077E-06  0.4663E-03  0.1248E-04  0.5090E+09
   -1.900006   31.55042  0.2238E-14  0.7014E-05  0.8610E-06  0.2166E-03  0.1048E-04  0.3458E+07
   -1.950003   31.57625  0.2238E-14  0.5038E-05  0.2038E-05  0.2243E-03  0.5491E-05 -0.3331E+07
   -2.000000   31.57655  0.2238E-14  0.0000E+00  0.0000E+00  0.0000E+00  0.1126E-04  0.0000E+00
