 1 - depth, m
 2 - temperature, C
 3 - salinity, kg/kg
 4 - turbulent kinetic energy, m**2/s**2
 5 - dissipation rate, m**2/s**3
 6 - kinematic heat conductance, m**2/s
 7 - modulus of horizontal velocity, m/s
 8 - Richardson number, n/d
   -0.000000   29.72207  0.4834E-13  0.4473E-05  0.2649E-06  0.4863E-04  0.1682E-02  0.5319E+04
   -0.049997   29.75011  0.4834E-13  0.7643E-05  0.1181E-06  0.1700E-03  0.9593E-03  0.1248E+05
   -0.099994   29.76096  0.4835E-13  0.9266E-05  0.8112E-07  0.3862E-03  0.6987E-03  0.1644E+02
   -0.149992   29.76396  0.4835E-13  0.1028E-04  0.6815E-07  0.4648E-03  0.6164E-03  0.7950E+01
   -0.199991   29.76636  0.4835E-13  0.1106E-04  0.6053E-07  0.6191E-03  0.5497E-03  0.5120E+01
   -0.249989   29.76810  0.4835E-13  0.1169E-04  0.5553E-07  0.7404E-03  0.4997E-03  0.3774E+01
   -0.299989   29.76952  0.4835E-13  0.1220E-04  0.5195E-07  0.8603E-03  0.4580E-03  0.3003E+01
   -0.349988   29.77071  0.4835E-13  0.1262E-04  0.4927E-07  0.9693E-03  0.4224E-03  0.2567E+01
   -0.399988   29.77175  0.4835E-13  0.1298E-04  0.4718E-07  0.1069E-02  0.3908E-03  0.2289E+01
   -0.449988   29.77266  0.4835E-13  0.1329E-04  0.4548E-07  0.1162E-02  0.3631E-03  0.2149E+01
   -0.499988   29.77349  0.4835E-13  0.1355E-04  0.4408E-07  0.1247E-02  0.3386E-03  0.2093E+01
   -0.549989   29.77424  0.4835E-13  0.1378E-04  0.4290E-07  0.1325E-02  0.3167E-03  0.2067E+01
   -0.599990   29.77494  0.4835E-13  0.1398E-04  0.4191E-07  0.1396E-02  0.2969E-03  0.2069E+01
   -0.649991   29.77559  0.4835E-13  0.1415E-04  0.4106E-07  0.1460E-02  0.2788E-03  0.2096E+01
   -0.699992   29.77621  0.4835E-13  0.1430E-04  0.4035E-07  0.1517E-02  0.2623E-03  0.2145E+01
   -0.749993   29.77679  0.4835E-13  0.1442E-04  0.3976E-07  0.1566E-02  0.2470E-03  0.2216E+01
   -0.799995   29.77735  0.4835E-13  0.1452E-04  0.3926E-07  0.1608E-02  0.2328E-03  0.2311E+01
   -0.849996   29.77788  0.4835E-13  0.1460E-04  0.3886E-07  0.1643E-02  0.2196E-03  0.2429E+01
   -0.899998   29.77840  0.4835E-13  0.1466E-04  0.3855E-07  0.1671E-02  0.2071E-03  0.2577E+01
   -0.950000   29.77891  0.4835E-13  0.1470E-04  0.3832E-07  0.1690E-02  0.1955E-03  0.2757E+01
   -1.000002   29.77940  0.4835E-13  0.1472E-04  0.3818E-07  0.1702E-02  0.1844E-03  0.2978E+01
   -1.050003   29.77989  0.4835E-13  0.1472E-04  0.3813E-07  0.1704E-02  0.1740E-03  0.3374E+01
   -1.100005   29.78037  0.4835E-13  0.1470E-04  0.3818E-07  0.1781E-02  0.1640E-03  0.1130E+02
   -1.150007   29.78083  0.4835E-13  0.1466E-04  0.3834E-07  0.1638E-02  0.1551E-03  0.2494E+02
   -1.200008   29.78133  0.4835E-13  0.1460E-04  0.3861E-07  0.1655E-02  0.1460E-03  0.4844E+01
   -1.250010   29.78181  0.4835E-13  0.1452E-04  0.3903E-07  0.1627E-02  0.1372E-03  0.5159E+01
   -1.300011   29.78231  0.4835E-13  0.1441E-04  0.3961E-07  0.1582E-02  0.1288E-03  0.6015E+01
   -1.350012   29.78281  0.4835E-13  0.1427E-04  0.4042E-07  0.1526E-02  0.1206E-03  0.7166E+01
   -1.400013   29.78333  0.4835E-13  0.1411E-04  0.4150E-07  0.1456E-02  0.1127E-03  0.8785E+01
   -1.450014   29.78388  0.4835E-13  0.1390E-04  0.4298E-07  0.1381E-02  0.1049E-03  0.1110E+02
   -1.500015   29.78445  0.4835E-13  0.1365E-04  0.4500E-07  0.1277E-02  0.9733E-04  0.1481E+02
   -1.550015   29.78508  0.4835E-13  0.1335E-04  0.4785E-07  0.1193E-02  0.8974E-04  0.2066E+02
   -1.600015   29.78575  0.4835E-13  0.1297E-04  0.5211E-07  0.1055E-02  0.8230E-04  0.3412E+02
   -1.650015   29.78654  0.4835E-13  0.1250E-04  0.5862E-07  0.9765E-03  0.7449E-04  0.1721E+03
   -1.700015   29.78743  0.4835E-13  0.1184E-04  0.7043E-07  0.8015E-03  0.6690E-04  0.3234E+04
   -1.750014   29.78895  0.4835E-13  0.1095E-04  0.9005E-07  0.7201E-03  0.5702E-04 -0.1666E+05
   -1.800012   29.79036  0.4835E-13  0.9701E-05  0.1308E-06  0.5054E-03  0.4889E-04  0.2294E+05
   -1.850011   29.79527  0.4835E-13  0.8245E-05  0.2072E-06  0.4566E-03  0.3544E-04  0.1621E+07
   -1.900009   29.79496  0.4835E-13  0.6503E-05  0.4304E-06  0.2052E-03  0.2851E-04 -0.7551E+07
   -1.950006   29.81163  0.4835E-13  0.4498E-05  0.1096E-05  0.1744E-03  0.1537E-04 -0.5780E+06
   -2.000003   29.81368  0.4835E-13  0.0000E+00  0.0000E+00  0.0000E+00  0.2742E-04  0.0000E+00
