 1 - depth, m
 2 - temperature, C
 3 - salinity, kg/kg
 4 - turbulent kinetic energy, m**2/s**2
 5 - dissipation rate, m**2/s**3
 6 - kinematic heat conductance, m**2/s
 7 - modulus of horizontal velocity, m/s
 8 - Richardson number, n/d
   -0.000000   30.38449  0.4956E-13  0.5027E-05  0.2956E-06  0.5057E-04  0.2549E-02  0.4001E+04
   -0.049997   30.41468  0.4956E-13  0.8356E-05  0.1304E-06  0.1884E-03  0.1398E-02  0.1181E+03
   -0.099994   30.42479  0.4956E-13  0.9972E-05  0.9132E-07  0.3862E-03  0.1064E-02  0.7607E+01
   -0.149992   30.42808  0.4956E-13  0.1101E-04  0.7657E-07  0.4781E-03  0.9404E-03  0.3828E+01
   -0.199991   30.43062  0.4956E-13  0.1183E-04  0.6793E-07  0.6279E-03  0.8428E-03  0.2479E+01
   -0.249989   30.43250  0.4956E-13  0.1247E-04  0.6225E-07  0.7503E-03  0.7685E-03  0.1833E+01
   -0.299989   30.43403  0.4956E-13  0.1300E-04  0.5820E-07  0.8661E-03  0.7066E-03  0.1475E+01
   -0.349988   30.43531  0.4956E-13  0.1345E-04  0.5513E-07  0.9710E-03  0.6532E-03  0.1322E+01
   -0.399988   30.43643  0.4956E-13  0.1383E-04  0.5267E-07  0.1075E-02  0.6045E-03  0.1267E+01
   -0.449988   30.43742  0.4956E-13  0.1417E-04  0.5061E-07  0.1179E-02  0.5600E-03  0.1248E+01
   -0.499988   30.43830  0.4956E-13  0.1447E-04  0.4888E-07  0.1276E-02  0.5199E-03  0.1247E+01
   -0.549989   30.43910  0.4956E-13  0.1473E-04  0.4741E-07  0.1365E-02  0.4836E-03  0.1242E+01
   -0.599990   30.43984  0.4956E-13  0.1495E-04  0.4618E-07  0.1447E-02  0.4507E-03  0.1240E+01
   -0.649991   30.44052  0.4956E-13  0.1514E-04  0.4513E-07  0.1519E-02  0.4209E-03  0.1235E+01
   -0.699992   30.44115  0.4956E-13  0.1529E-04  0.4426E-07  0.1583E-02  0.3938E-03  0.1234E+01
   -0.749993   30.44175  0.4956E-13  0.1542E-04  0.4353E-07  0.1636E-02  0.3692E-03  0.1232E+01
   -0.799995   30.44233  0.4956E-13  0.1551E-04  0.4294E-07  0.1679E-02  0.3468E-03  0.1238E+01
   -0.849996   30.44288  0.4956E-13  0.1558E-04  0.4246E-07  0.1713E-02  0.3263E-03  0.1248E+01
   -0.899998   30.44341  0.4956E-13  0.1562E-04  0.4210E-07  0.1738E-02  0.3075E-03  0.1276E+01
   -0.950000   30.44393  0.4956E-13  0.1565E-04  0.4183E-07  0.1753E-02  0.2902E-03  0.1325E+01
   -1.000001   30.44444  0.4956E-13  0.1565E-04  0.4167E-07  0.1761E-02  0.2740E-03  0.1413E+01
   -1.050003   30.44494  0.4956E-13  0.1563E-04  0.4160E-07  0.1759E-02  0.2589E-03  0.1588E+01
   -1.100005   30.44544  0.4956E-13  0.1558E-04  0.4164E-07  0.1856E-02  0.2444E-03  0.5218E+01
   -1.150006   30.44590  0.4956E-13  0.1552E-04  0.4181E-07  0.1658E-02  0.2316E-03  0.1218E+02
   -1.200008   30.44642  0.4956E-13  0.1543E-04  0.4211E-07  0.1693E-02  0.2181E-03  0.2302E+01
   -1.250009   30.44692  0.4956E-13  0.1532E-04  0.4256E-07  0.1662E-02  0.2053E-03  0.2449E+01
   -1.300011   30.44743  0.4956E-13  0.1518E-04  0.4322E-07  0.1611E-02  0.1930E-03  0.2863E+01
   -1.350012   30.44795  0.4956E-13  0.1501E-04  0.4414E-07  0.1550E-02  0.1810E-03  0.3436E+01
   -1.400013   30.44849  0.4956E-13  0.1480E-04  0.4539E-07  0.1471E-02  0.1693E-03  0.4250E+01
   -1.450014   30.44905  0.4956E-13  0.1456E-04  0.4711E-07  0.1392E-02  0.1578E-03  0.5439E+01
   -1.500015   30.44965  0.4956E-13  0.1426E-04  0.4953E-07  0.1278E-02  0.1465E-03  0.7427E+01
   -1.550015   30.45030  0.4956E-13  0.1389E-04  0.5298E-07  0.1195E-02  0.1352E-03  0.1066E+02
   -1.600015   30.45101  0.4956E-13  0.1345E-04  0.5832E-07  0.1051E-02  0.1241E-03  0.2085E+02
   -1.650015   30.45187  0.4956E-13  0.1287E-04  0.6667E-07  0.9731E-03  0.1121E-03  0.7854E+03
   -1.700014   30.45285  0.4956E-13  0.1207E-04  0.8176E-07  0.7893E-03  0.1002E-03  0.1802E+04
   -1.750013   30.45464  0.4956E-13  0.1103E-04  0.1065E-06  0.7143E-03  0.8435E-04  0.9111E+05
   -1.800012   30.45603  0.4956E-13  0.9643E-05  0.1613E-06  0.4887E-03  0.7234E-04  0.1934E+06
   -1.850010   30.46228  0.4956E-13  0.8120E-05  0.2616E-06  0.4553E-03  0.5084E-04  0.7937E+08
   -1.900008   30.46066  0.4956E-13  0.6409E-05  0.5585E-06  0.2090E-03  0.4145E-04 -0.1875E+06
   -1.950006   30.47880  0.4956E-13  0.4488E-05  0.1377E-05  0.1926E-03  0.2191E-04 -0.1302E+06
   -2.000003   30.48066  0.4956E-13  0.0000E+00  0.0000E+00  0.0000E+00  0.4216E-04  0.0000E+00
