 1 - depth, m
 2 - temperature, C
 3 - salinity, kg/kg
 4 - turbulent kinetic energy, m**2/s**2
 5 - dissipation rate, m**2/s**3
 6 - kinematic heat conductance, m**2/s
 7 - modulus of horizontal velocity, m/s
 8 - Richardson number, n/d
   -0.000000   30.21409  0.1055E-14  0.4699E-05  0.2877E-06  0.4970E-04  0.1586E-02  0.4799E+04
   -0.049997   30.24331  0.1055E-14  0.8053E-05  0.1281E-06  0.1759E-03  0.9059E-03  0.9424E+03
   -0.099994   30.25458  0.1055E-14  0.9776E-05  0.8812E-07  0.3962E-03  0.6622E-03  0.2061E+02
   -0.149992   30.25769  0.1055E-14  0.1086E-04  0.7399E-07  0.4771E-03  0.5849E-03  0.1009E+02
   -0.199991   30.26018  0.1055E-14  0.1170E-04  0.6572E-07  0.6374E-03  0.5222E-03  0.6484E+01
   -0.249989   30.26198  0.1055E-14  0.1237E-04  0.6032E-07  0.7620E-03  0.4753E-03  0.4773E+01
   -0.299989   30.26345  0.1055E-14  0.1292E-04  0.5648E-07  0.8864E-03  0.4363E-03  0.3810E+01
   -0.349988   30.26468  0.1055E-14  0.1338E-04  0.5361E-07  0.9990E-03  0.4028E-03  0.3247E+01
   -0.399988   30.26576  0.1055E-14  0.1376E-04  0.5138E-07  0.1102E-02  0.3733E-03  0.2906E+01
   -0.449988   30.26671  0.1055E-14  0.1410E-04  0.4957E-07  0.1198E-02  0.3473E-03  0.2715E+01
   -0.499988   30.26757  0.1055E-14  0.1439E-04  0.4808E-07  0.1286E-02  0.3243E-03  0.2654E+01
   -0.549989   30.26835  0.1055E-14  0.1464E-04  0.4684E-07  0.1367E-02  0.3037E-03  0.2606E+01
   -0.599990   30.26908  0.1055E-14  0.1486E-04  0.4580E-07  0.1440E-02  0.2851E-03  0.2621E+01
   -0.649991   30.26976  0.1055E-14  0.1504E-04  0.4492E-07  0.1506E-02  0.2681E-03  0.2639E+01
   -0.699992   30.27041  0.1055E-14  0.1520E-04  0.4419E-07  0.1564E-02  0.2525E-03  0.2716E+01
   -0.749993   30.27102  0.1055E-14  0.1534E-04  0.4358E-07  0.1615E-02  0.2381E-03  0.2790E+01
   -0.799995   30.27160  0.1055E-14  0.1545E-04  0.4308E-07  0.1658E-02  0.2247E-03  0.2926E+01
   -0.849996   30.27217  0.1055E-14  0.1554E-04  0.4269E-07  0.1693E-02  0.2122E-03  0.3059E+01
   -0.899998   30.27271  0.1055E-14  0.1561E-04  0.4239E-07  0.1721E-02  0.2005E-03  0.3265E+01
   -0.950000   30.27325  0.1055E-14  0.1566E-04  0.4219E-07  0.1740E-02  0.1894E-03  0.3475E+01
   -1.000001   30.27377  0.1055E-14  0.1569E-04  0.4208E-07  0.1751E-02  0.1790E-03  0.3776E+01
   -1.050003   30.27429  0.1055E-14  0.1569E-04  0.4208E-07  0.1753E-02  0.1690E-03  0.4258E+01
   -1.100005   30.27480  0.1055E-14  0.1568E-04  0.4218E-07  0.1836E-02  0.1596E-03  0.1428E+02
   -1.150006   30.27529  0.1055E-14  0.1564E-04  0.4241E-07  0.1676E-02  0.1511E-03  0.3188E+02
   -1.200008   30.27582  0.1055E-14  0.1558E-04  0.4277E-07  0.1698E-02  0.1424E-03  0.6136E+01
   -1.250010   30.27634  0.1055E-14  0.1549E-04  0.4329E-07  0.1668E-02  0.1340E-03  0.6594E+01
   -1.300011   30.27687  0.1055E-14  0.1538E-04  0.4402E-07  0.1620E-02  0.1259E-03  0.7666E+01
   -1.350012   30.27741  0.1055E-14  0.1524E-04  0.4499E-07  0.1562E-02  0.1181E-03  0.9225E+01
   -1.400013   30.27798  0.1055E-14  0.1506E-04  0.4630E-07  0.1487E-02  0.1105E-03  0.1132E+02
   -1.450014   30.27857  0.1055E-14  0.1484E-04  0.4807E-07  0.1411E-02  0.1030E-03  0.1448E+02
   -1.500015   30.27920  0.1055E-14  0.1457E-04  0.5050E-07  0.1302E-02  0.9565E-04  0.1950E+02
   -1.550015   30.27988  0.1055E-14  0.1424E-04  0.5393E-07  0.1217E-02  0.8827E-04  0.2793E+02
   -1.600015   30.28063  0.1055E-14  0.1382E-04  0.5914E-07  0.1076E-02  0.8105E-04  0.5101E+02
   -1.650015   30.28152  0.1055E-14  0.1329E-04  0.6715E-07  0.9939E-03  0.7332E-04  0.2803E+05
   -1.700014   30.28254  0.1055E-14  0.1256E-04  0.8137E-07  0.8138E-03  0.6577E-04 -0.3523E+03
   -1.750013   30.28431  0.1055E-14  0.1158E-04  0.1047E-06  0.7384E-03  0.5585E-04  0.1452E+06
   -1.800012   30.28578  0.1055E-14  0.1026E-04  0.1564E-06  0.5101E-03  0.4811E-04  0.6904E+06
   -1.850010   30.29183  0.1055E-14  0.8781E-05  0.2501E-06  0.4747E-03  0.3465E-04  0.3631E+08
   -1.900008   30.29073  0.1055E-14  0.7011E-05  0.5155E-06  0.2180E-03  0.2834E-04 -0.9177E+05
   -1.950006   30.30938  0.1055E-14  0.4871E-05  0.1305E-05  0.1826E-03  0.1546E-04 -0.5197E+06
   -2.000003   30.31266  0.1055E-14  0.0000E+00  0.0000E+00  0.0000E+00  0.2756E-04  0.0000E+00
