 1 - depth, m
 2 - temperature, C
 3 - salinity, kg/kg
 4 - turbulent kinetic energy, m**2/s**2
 5 - dissipation rate, m**2/s**3
 6 - kinematic heat conductance, m**2/s
 7 - modulus of horizontal velocity, m/s
 8 - Richardson number, n/d
   -0.000000   30.46362  0.1071E-14  0.4881E-05  0.3054E-06  0.5070E-04  0.1447E-02  0.1007E+05
   -0.049997   30.49456  0.1071E-14  0.8368E-05  0.1364E-06  0.1785E-03  0.8249E-03  0.1719E+03
   -0.099994   30.50643  0.1071E-14  0.1015E-04  0.9397E-07  0.3997E-03  0.6060E-03  0.2256E+02
   -0.149992   30.50974  0.1071E-14  0.1127E-04  0.7880E-07  0.4815E-03  0.5350E-03  0.1106E+02
   -0.199991   30.51237  0.1071E-14  0.1215E-04  0.6992E-07  0.6442E-03  0.4778E-03  0.7084E+01
   -0.249989   30.51428  0.1071E-14  0.1284E-04  0.6411E-07  0.7705E-03  0.4349E-03  0.5221E+01
   -0.299988   30.51583  0.1071E-14  0.1340E-04  0.5996E-07  0.8965E-03  0.3993E-03  0.4148E+01
   -0.349988   30.51713  0.1071E-14  0.1387E-04  0.5685E-07  0.1011E-02  0.3688E-03  0.3542E+01
   -0.399988   30.51825  0.1071E-14  0.1426E-04  0.5442E-07  0.1115E-02  0.3419E-03  0.3151E+01
   -0.449988   30.51924  0.1071E-14  0.1459E-04  0.5245E-07  0.1212E-02  0.3182E-03  0.2955E+01
   -0.499988   30.52014  0.1071E-14  0.1489E-04  0.5081E-07  0.1301E-02  0.2972E-03  0.2870E+01
   -0.549989   30.52096  0.1071E-14  0.1514E-04  0.4944E-07  0.1383E-02  0.2784E-03  0.2828E+01
   -0.599990   30.52172  0.1071E-14  0.1535E-04  0.4828E-07  0.1457E-02  0.2614E-03  0.2824E+01
   -0.649991   30.52243  0.1071E-14  0.1554E-04  0.4730E-07  0.1524E-02  0.2459E-03  0.2855E+01
   -0.699992   30.52309  0.1071E-14  0.1569E-04  0.4646E-07  0.1583E-02  0.2317E-03  0.2913E+01
   -0.749993   30.52373  0.1071E-14  0.1582E-04  0.4575E-07  0.1634E-02  0.2185E-03  0.3004E+01
   -0.799995   30.52433  0.1071E-14  0.1592E-04  0.4517E-07  0.1678E-02  0.2063E-03  0.3121E+01
   -0.849996   30.52491  0.1071E-14  0.1601E-04  0.4468E-07  0.1714E-02  0.1949E-03  0.3276E+01
   -0.899998   30.52547  0.1071E-14  0.1606E-04  0.4430E-07  0.1742E-02  0.1841E-03  0.3461E+01
   -0.949999   30.52602  0.1071E-14  0.1610E-04  0.4402E-07  0.1762E-02  0.1740E-03  0.3699E+01
   -1.000001   30.52655  0.1071E-14  0.1612E-04  0.4384E-07  0.1774E-02  0.1645E-03  0.3976E+01
   -1.050003   30.52708  0.1071E-14  0.1611E-04  0.4376E-07  0.1776E-02  0.1554E-03  0.4494E+01
   -1.100005   30.52760  0.1071E-14  0.1608E-04  0.4380E-07  0.1861E-02  0.1467E-03  0.1493E+02
   -1.150006   30.52809  0.1071E-14  0.1603E-04  0.4396E-07  0.1698E-02  0.1390E-03  0.3323E+02
   -1.200008   30.52862  0.1071E-14  0.1596E-04  0.4425E-07  0.1722E-02  0.1310E-03  0.6413E+01
   -1.250009   30.52915  0.1071E-14  0.1586E-04  0.4471E-07  0.1693E-02  0.1233E-03  0.6806E+01
   -1.300011   30.52967  0.1071E-14  0.1573E-04  0.4537E-07  0.1645E-02  0.1160E-03  0.7929E+01
   -1.350012   30.53022  0.1071E-14  0.1557E-04  0.4629E-07  0.1587E-02  0.1088E-03  0.9434E+01
   -1.400013   30.53077  0.1071E-14  0.1538E-04  0.4754E-07  0.1512E-02  0.1018E-03  0.1159E+02
   -1.450014   30.53136  0.1071E-14  0.1515E-04  0.4925E-07  0.1434E-02  0.9500E-04  0.1466E+02
   -1.500014   30.53197  0.1071E-14  0.1486E-04  0.5162E-07  0.1326E-02  0.8828E-04  0.1973E+02
   -1.550015   30.53264  0.1071E-14  0.1452E-04  0.5499E-07  0.1238E-02  0.8155E-04  0.2789E+02
   -1.600015   30.53337  0.1071E-14  0.1409E-04  0.6011E-07  0.1099E-02  0.7494E-04  0.5159E+02
   -1.650014   30.53423  0.1071E-14  0.1354E-04  0.6810E-07  0.1012E-02  0.6793E-04  0.3742E+03
   -1.700014   30.53523  0.1071E-14  0.1279E-04  0.8220E-07  0.8334E-03  0.6094E-04  0.1608E+04
   -1.750013   30.53688  0.1071E-14  0.1181E-04  0.1052E-06  0.7501E-03  0.5202E-04  0.8656E+05
   -1.800012   30.53837  0.1071E-14  0.1048E-04  0.1545E-06  0.5296E-03  0.4478E-04  0.1201E+05
   -1.850010   30.54385  0.1071E-14  0.8982E-05  0.2461E-06  0.4820E-03  0.3271E-04  0.7399E+07
   -1.900008   30.54309  0.1071E-14  0.7133E-05  0.5125E-06  0.2196E-03  0.2664E-04 -0.4549E+06
   -1.950005   30.56077  0.1071E-14  0.4948E-05  0.1282E-05  0.1837E-03  0.1464E-04 -0.1502E+07
   -2.000002   30.56280  0.1071E-14  0.0000E+00  0.0000E+00  0.0000E+00  0.2578E-04  0.0000E+00
