 1 - depth, m
 2 - temperature, C
 3 - salinity, kg/kg
 4 - turbulent kinetic energy, m**2/s**2
 5 - dissipation rate, m**2/s**3
 6 - kinematic heat conductance, m**2/s
 7 - modulus of horizontal velocity, m/s
 8 - Richardson number, n/d
   -0.000000   29.80852  0.1109E-13  0.4938E-05  0.2683E-06  0.4998E-04  0.3148E-02  0.2194E+04
   -0.049997   29.83615  0.1109E-13  0.8023E-05  0.1168E-06  0.1938E-03  0.1686E-02  0.6424E+02
   -0.099994   29.84470  0.1109E-13  0.9461E-05  0.8298E-07  0.3771E-03  0.1320E-02  0.5680E+01
   -0.149992   29.84773  0.1109E-13  0.1041E-04  0.6998E-07  0.4705E-03  0.1174E-02  0.2915E+01
   -0.199991   29.85006  0.1109E-13  0.1117E-04  0.6235E-07  0.6059E-03  0.1059E-02  0.1963E+01
   -0.249989   29.85182  0.1109E-13  0.1180E-04  0.5727E-07  0.7209E-03  0.9690E-03  0.1577E+01
   -0.299989   29.85327  0.1109E-13  0.1234E-04  0.5353E-07  0.8386E-03  0.8896E-03  0.1415E+01
   -0.349988   29.85448  0.1109E-13  0.1283E-04  0.5059E-07  0.9583E-03  0.8160E-03  0.1380E+01
   -0.399988   29.85552  0.1109E-13  0.1326E-04  0.4821E-07  0.1080E-02  0.7463E-03  0.1353E+01
   -0.449988   29.85642  0.1109E-13  0.1365E-04  0.4624E-07  0.1199E-02  0.6823E-03  0.1344E+01
   -0.499988   29.85722  0.1109E-13  0.1400E-04  0.4461E-07  0.1310E-02  0.6251E-03  0.1338E+01
   -0.549989   29.85794  0.1109E-13  0.1430E-04  0.4327E-07  0.1411E-02  0.5740E-03  0.1330E+01
   -0.599990   29.85860  0.1109E-13  0.1455E-04  0.4216E-07  0.1503E-02  0.5284E-03  0.1318E+01
   -0.649991   29.85921  0.1109E-13  0.1477E-04  0.4125E-07  0.1585E-02  0.4875E-03  0.1308E+01
   -0.699992   29.85977  0.1109E-13  0.1494E-04  0.4052E-07  0.1654E-02  0.4510E-03  0.1293E+01
   -0.749993   29.86031  0.1109E-13  0.1508E-04  0.3994E-07  0.1711E-02  0.4181E-03  0.1284E+01
   -0.799995   29.86083  0.1109E-13  0.1519E-04  0.3950E-07  0.1756E-02  0.3887E-03  0.1272E+01
   -0.849996   29.86132  0.1109E-13  0.1527E-04  0.3917E-07  0.1788E-02  0.3621E-03  0.1270E+01
   -0.899998   29.86181  0.1109E-13  0.1532E-04  0.3895E-07  0.1809E-02  0.3382E-03  0.1271E+01
   -0.950000   29.86228  0.1109E-13  0.1535E-04  0.3884E-07  0.1819E-02  0.3165E-03  0.1291E+01
   -1.000002   29.86275  0.1109E-13  0.1535E-04  0.3882E-07  0.1820E-02  0.2969E-03  0.1321E+01
   -1.050003   29.86321  0.1109E-13  0.1534E-04  0.3890E-07  0.1809E-02  0.2789E-03  0.1418E+01
   -1.100005   29.86367  0.1109E-13  0.1531E-04  0.3907E-07  0.1923E-02  0.2625E-03  0.4298E+01
   -1.150007   29.86410  0.1109E-13  0.1526E-04  0.3935E-07  0.1688E-02  0.2491E-03  0.9939E+01
   -1.200008   29.86459  0.1109E-13  0.1518E-04  0.3975E-07  0.1736E-02  0.2347E-03  0.1911E+01
   -1.250010   29.86507  0.1109E-13  0.1509E-04  0.4031E-07  0.1701E-02  0.2210E-03  0.2025E+01
   -1.300011   29.86555  0.1109E-13  0.1496E-04  0.4106E-07  0.1647E-02  0.2078E-03  0.2375E+01
   -1.350012   29.86605  0.1109E-13  0.1481E-04  0.4205E-07  0.1585E-02  0.1951E-03  0.2835E+01
   -1.400013   29.86656  0.1109E-13  0.1462E-04  0.4337E-07  0.1503E-02  0.1826E-03  0.3515E+01
   -1.450014   29.86711  0.1109E-13  0.1440E-04  0.4514E-07  0.1423E-02  0.1704E-03  0.4467E+01
   -1.500015   29.86768  0.1109E-13  0.1412E-04  0.4757E-07  0.1307E-02  0.1583E-03  0.6083E+01
   -1.550015   29.86832  0.1109E-13  0.1379E-04  0.5099E-07  0.1223E-02  0.1462E-03  0.8718E+01
   -1.600015   29.86901  0.1109E-13  0.1337E-04  0.5624E-07  0.1072E-02  0.1342E-03  0.1724E+02
   -1.650015   29.86987  0.1109E-13  0.1283E-04  0.6425E-07  0.9934E-03  0.1212E-03  0.2802E+02
   -1.700015   29.87082  0.1109E-13  0.1210E-04  0.7829E-07  0.8087E-03  0.1087E-03 -0.4372E+02
   -1.750014   29.87251  0.1109E-13  0.1114E-04  0.1014E-06  0.7301E-03  0.9188E-04  0.3659E+05
   -1.800012   29.87387  0.1109E-13  0.9847E-05  0.1501E-06  0.5120E-03  0.7907E-04  0.6138E+04
   -1.850011   29.87966  0.1109E-13  0.8371E-05  0.2417E-06  0.4648E-03  0.5654E-04  0.2134E+08
   -1.900009   29.87859  0.1109E-13  0.6598E-05  0.5052E-06  0.2061E-03  0.4593E-04  0.1308E+06
   -1.950006   29.89662  0.1109E-13  0.4598E-05  0.1251E-05  0.1862E-03  0.2456E-04 -0.1861E+06
   -2.000003   29.89845  0.1109E-13  0.0000E+00  0.0000E+00  0.0000E+00  0.4530E-04  0.0000E+00
