 1 - depth, m
 2 - temperature, C
 3 - salinity, kg/kg
 4 - turbulent kinetic energy, m**2/s**2
 5 - dissipation rate, m**2/s**3
 6 - kinematic heat conductance, m**2/s
 7 - modulus of horizontal velocity, m/s
 8 - Richardson number, n/d
   -0.000000   30.58885  0.3014E-13  0.5078E-05  0.3247E-06  0.5240E-04  0.2009E-02  0.2927E+04
   -0.049997   30.61974  0.3014E-13  0.8564E-05  0.1445E-06  0.1761E-03  0.1161E-02  0.1774E+03
   -0.099994   30.63225  0.3015E-13  0.1040E-04  0.9852E-07  0.4032E-03  0.8465E-03  0.1188E+02
   -0.149992   30.63562  0.3015E-13  0.1154E-04  0.8242E-07  0.4819E-03  0.7482E-03  0.5809E+01
   -0.199991   30.63832  0.3015E-13  0.1244E-04  0.7302E-07  0.6471E-03  0.6679E-03  0.3706E+01
   -0.249989   30.64028  0.3015E-13  0.1314E-04  0.6688E-07  0.7738E-03  0.6082E-03  0.2728E+01
   -0.299988   30.64187  0.3015E-13  0.1372E-04  0.6251E-07  0.9011E-03  0.5585E-03  0.2166E+01
   -0.349988   30.64320  0.3015E-13  0.1420E-04  0.5925E-07  0.1016E-02  0.5159E-03  0.1848E+01
   -0.399988   30.64435  0.3015E-13  0.1460E-04  0.5671E-07  0.1122E-02  0.4784E-03  0.1645E+01
   -0.449988   30.64537  0.3015E-13  0.1495E-04  0.5465E-07  0.1220E-02  0.4453E-03  0.1541E+01
   -0.499988   30.64629  0.3015E-13  0.1525E-04  0.5294E-07  0.1310E-02  0.4161E-03  0.1498E+01
   -0.549989   30.64713  0.3015E-13  0.1550E-04  0.5152E-07  0.1392E-02  0.3899E-03  0.1476E+01
   -0.599989   30.64791  0.3015E-13  0.1573E-04  0.5032E-07  0.1467E-02  0.3662E-03  0.1475E+01
   -0.649990   30.64864  0.3015E-13  0.1592E-04  0.4930E-07  0.1534E-02  0.3446E-03  0.1491E+01
   -0.699992   30.64932  0.3015E-13  0.1608E-04  0.4845E-07  0.1593E-02  0.3248E-03  0.1524E+01
   -0.749993   30.64997  0.3015E-13  0.1621E-04  0.4773E-07  0.1644E-02  0.3064E-03  0.1572E+01
   -0.799994   30.65059  0.3015E-13  0.1632E-04  0.4714E-07  0.1688E-02  0.2894E-03  0.1637E+01
   -0.849996   30.65119  0.3015E-13  0.1640E-04  0.4666E-07  0.1723E-02  0.2734E-03  0.1719E+01
   -0.899998   30.65177  0.3015E-13  0.1647E-04  0.4629E-07  0.1751E-02  0.2585E-03  0.1822E+01
   -0.949999   30.65233  0.3015E-13  0.1650E-04  0.4603E-07  0.1770E-02  0.2444E-03  0.1949E+01
   -1.000001   30.65289  0.3015E-13  0.1652E-04  0.4587E-07  0.1781E-02  0.2310E-03  0.2103E+01
   -1.050003   30.65343  0.3015E-13  0.1652E-04  0.4583E-07  0.1781E-02  0.2183E-03  0.2381E+01
   -1.100004   30.65397  0.3015E-13  0.1649E-04  0.4590E-07  0.1872E-02  0.2062E-03  0.7867E+01
   -1.150006   30.65448  0.3015E-13  0.1643E-04  0.4613E-07  0.1692E-02  0.1955E-03  0.1798E+02
   -1.200008   30.65504  0.3015E-13  0.1636E-04  0.4648E-07  0.1721E-02  0.1842E-03  0.3441E+01
   -1.250009   30.65559  0.3015E-13  0.1625E-04  0.4703E-07  0.1690E-02  0.1735E-03  0.3665E+01
   -1.300010   30.65615  0.3015E-13  0.1612E-04  0.4779E-07  0.1639E-02  0.1631E-03  0.4291E+01
   -1.350012   30.65672  0.3015E-13  0.1595E-04  0.4885E-07  0.1579E-02  0.1531E-03  0.5142E+01
   -1.400013   30.65731  0.3015E-13  0.1575E-04  0.5027E-07  0.1499E-02  0.1433E-03  0.6369E+01
   -1.450013   30.65793  0.3015E-13  0.1550E-04  0.5223E-07  0.1422E-02  0.1337E-03  0.8139E+01
   -1.500014   30.65858  0.3015E-13  0.1519E-04  0.5495E-07  0.1306E-02  0.1242E-03  0.1115E+02
   -1.550014   30.65930  0.3015E-13  0.1482E-04  0.5881E-07  0.1226E-02  0.1147E-03  0.1599E+02
   -1.600014   30.66008  0.3015E-13  0.1436E-04  0.6482E-07  0.1075E-02  0.1054E-03  0.6140E+02
   -1.650014   30.66105  0.3015E-13  0.1376E-04  0.7412E-07  0.1000E-02  0.9521E-04  0.1280E+03
   -1.700014   30.66213  0.3015E-13  0.1293E-04  0.9070E-07  0.8083E-03  0.8542E-04 -0.4539E+03
   -1.750013   30.66411  0.3015E-13  0.1185E-04  0.1181E-06  0.7386E-03  0.7204E-04  0.2893E+05
   -1.800011   30.66564  0.3015E-13  0.1043E-04  0.1771E-06  0.5082E-03  0.6202E-04  0.1280E+05
   -1.850010   30.67240  0.3015E-13  0.8864E-05  0.2867E-06  0.4722E-03  0.4412E-04  0.1806E+09
   -1.900008   30.67086  0.3015E-13  0.7056E-05  0.5982E-06  0.2195E-03  0.3610E-04 -0.6432E+05
   -1.950005   30.69108  0.3015E-13  0.4956E-05  0.1482E-05  0.1951E-03  0.1948E-04 -0.2144E+06
   -2.000002   30.69312  0.3015E-13  0.0000E+00  0.0000E+00  0.0000E+00  0.3606E-04  0.0000E+00
