 1 - depth, m
 2 - temperature, C
 3 - salinity, kg/kg
 4 - turbulent kinetic energy, m**2/s**2
 5 - dissipation rate, m**2/s**3
 6 - kinematic heat conductance, m**2/s
 7 - modulus of horizontal velocity, m/s
 8 - Richardson number, n/d
   -0.000000   30.57016  0.3862E-13  0.5057E-05  0.3223E-06  0.5227E-04  0.2012E-02  0.3233E+04
   -0.049997   30.60097  0.3862E-13  0.8527E-05  0.1435E-06  0.1756E-03  0.1163E-02  0.6707E+03
   -0.099994   30.61342  0.3862E-13  0.1035E-04  0.9785E-07  0.4021E-03  0.8478E-03  0.1187E+02
   -0.149992   30.61678  0.3862E-13  0.1149E-04  0.8187E-07  0.4807E-03  0.7493E-03  0.5799E+01
   -0.199991   30.61948  0.3862E-13  0.1238E-04  0.7253E-07  0.6452E-03  0.6689E-03  0.3701E+01
   -0.249989   30.62143  0.3862E-13  0.1308E-04  0.6643E-07  0.7715E-03  0.6090E-03  0.2724E+01
   -0.299988   30.62301  0.3862E-13  0.1365E-04  0.6210E-07  0.8983E-03  0.5592E-03  0.2163E+01
   -0.349988   30.62434  0.3862E-13  0.1413E-04  0.5885E-07  0.1013E-02  0.5165E-03  0.1846E+01
   -0.399988   30.62549  0.3862E-13  0.1453E-04  0.5633E-07  0.1118E-02  0.4789E-03  0.1643E+01
   -0.449988   30.62651  0.3862E-13  0.1487E-04  0.5428E-07  0.1215E-02  0.4457E-03  0.1540E+01
   -0.499988   30.62743  0.3862E-13  0.1517E-04  0.5258E-07  0.1305E-02  0.4164E-03  0.1496E+01
   -0.549989   30.62827  0.3862E-13  0.1542E-04  0.5117E-07  0.1387E-02  0.3902E-03  0.1474E+01
   -0.599989   30.62904  0.3862E-13  0.1564E-04  0.4997E-07  0.1461E-02  0.3665E-03  0.1474E+01
   -0.649990   30.62977  0.3862E-13  0.1583E-04  0.4896E-07  0.1528E-02  0.3448E-03  0.1491E+01
   -0.699992   30.63045  0.3862E-13  0.1599E-04  0.4811E-07  0.1586E-02  0.3249E-03  0.1524E+01
   -0.749993   30.63110  0.3862E-13  0.1612E-04  0.4740E-07  0.1637E-02  0.3065E-03  0.1573E+01
   -0.799994   30.63172  0.3862E-13  0.1623E-04  0.4681E-07  0.1681E-02  0.2894E-03  0.1638E+01
   -0.849996   30.63231  0.3862E-13  0.1631E-04  0.4633E-07  0.1716E-02  0.2735E-03  0.1721E+01
   -0.899998   30.63289  0.3862E-13  0.1637E-04  0.4597E-07  0.1743E-02  0.2585E-03  0.1825E+01
   -0.949999   30.63345  0.3862E-13  0.1641E-04  0.4570E-07  0.1762E-02  0.2443E-03  0.1952E+01
   -1.000001   30.63400  0.3862E-13  0.1642E-04  0.4555E-07  0.1772E-02  0.2309E-03  0.2108E+01
   -1.050003   30.63455  0.3862E-13  0.1642E-04  0.4551E-07  0.1772E-02  0.2182E-03  0.2388E+01
   -1.100004   30.63509  0.3862E-13  0.1639E-04  0.4559E-07  0.1865E-02  0.2061E-03  0.7879E+01
   -1.150006   30.63560  0.3862E-13  0.1633E-04  0.4581E-07  0.1680E-02  0.1953E-03  0.1812E+02
   -1.200008   30.63616  0.3862E-13  0.1625E-04  0.4617E-07  0.1710E-02  0.1841E-03  0.3460E+01
   -1.250009   30.63671  0.3862E-13  0.1615E-04  0.4671E-07  0.1680E-02  0.1733E-03  0.3690E+01
   -1.300010   30.63726  0.3862E-13  0.1601E-04  0.4748E-07  0.1628E-02  0.1629E-03  0.4324E+01
   -1.350012   30.63783  0.3862E-13  0.1584E-04  0.4854E-07  0.1567E-02  0.1529E-03  0.5191E+01
   -1.400013   30.63842  0.3862E-13  0.1564E-04  0.4997E-07  0.1488E-02  0.1431E-03  0.6434E+01
   -1.450013   30.63905  0.3862E-13  0.1538E-04  0.5193E-07  0.1409E-02  0.1334E-03  0.8246E+01
   -1.500014   30.63971  0.3862E-13  0.1508E-04  0.5466E-07  0.1294E-02  0.1240E-03  0.1128E+02
   -1.550014   30.64043  0.3862E-13  0.1470E-04  0.5855E-07  0.1211E-02  0.1144E-03  0.1627E+02
   -1.600014   30.64122  0.3862E-13  0.1423E-04  0.6454E-07  0.1062E-02  0.1050E-03  0.4093E+02
   -1.650014   30.64219  0.3862E-13  0.1363E-04  0.7390E-07  0.9871E-03  0.9491E-04  0.8881E+03
   -1.700014   30.64329  0.3862E-13  0.1280E-04  0.9071E-07  0.7992E-03  0.8497E-04  0.4090E+05
   -1.750013   30.64526  0.3862E-13  0.1171E-04  0.1180E-06  0.7245E-03  0.7165E-04  0.1187E+06
   -1.800011   30.64680  0.3862E-13  0.1026E-04  0.1783E-06  0.4997E-03  0.6160E-04  0.3673E+04
   -1.850010   30.65383  0.3862E-13  0.8666E-05  0.2894E-06  0.4630E-03  0.4344E-04  0.1757E+08
   -1.900008   30.65218  0.3862E-13  0.6834E-05  0.6070E-06  0.2109E-03  0.3541E-04  0.1082E+06
   -1.950005   30.67303  0.3862E-13  0.4827E-05  0.1503E-05  0.1973E-03  0.1879E-04 -0.3482E+06
   -2.000002   30.67451  0.3862E-13  0.0000E+00  0.0000E+00  0.0000E+00  0.3546E-04  0.0000E+00
