 1 - depth, m
 2 - temperature, C
 3 - salinity, kg/kg
 4 - turbulent kinetic energy, m**2/s**2
 5 - dissipation rate, m**2/s**3
 6 - kinematic heat conductance, m**2/s
 7 - modulus of horizontal velocity, m/s
 8 - Richardson number, n/d
   -0.000000   29.73365  0.2043E-14  0.4360E-05  0.2554E-06  0.4661E-04  0.6218E-03  0.7361E+05
   -0.049997   29.76229  0.2043E-14  0.7733E-05  0.1132E-06  0.1800E-03  0.3449E-03  0.7805E+02
   -0.099994   29.77232  0.2043E-14  0.9356E-05  0.7893E-07  0.4031E-03  0.2533E-03  0.1251E+03
   -0.149992   29.77515  0.2043E-14  0.1037E-04  0.6683E-07  0.4824E-03  0.2241E-03  0.6138E+02
   -0.199991   29.77741  0.2043E-14  0.1117E-04  0.5968E-07  0.6406E-03  0.2003E-03  0.4029E+02
   -0.249989   29.77908  0.2043E-14  0.1181E-04  0.5498E-07  0.7641E-03  0.1825E-03  0.3002E+02
   -0.299989   29.78044  0.2043E-14  0.1234E-04  0.5163E-07  0.8861E-03  0.1675E-03  0.2413E+02
   -0.349988   29.78159  0.2043E-14  0.1278E-04  0.4912E-07  0.9969E-03  0.1547E-03  0.2072E+02
   -0.399988   29.78259  0.2043E-14  0.1315E-04  0.4718E-07  0.1098E-02  0.1434E-03  0.1858E+02
   -0.449988   29.78349  0.2043E-14  0.1348E-04  0.4561E-07  0.1193E-02  0.1334E-03  0.1746E+02
   -0.499988   29.78429  0.2043E-14  0.1376E-04  0.4432E-07  0.1279E-02  0.1246E-03  0.1706E+02
   -0.549989   29.78503  0.2043E-14  0.1401E-04  0.4325E-07  0.1359E-02  0.1166E-03  0.1684E+02
   -0.599990   29.78572  0.2043E-14  0.1423E-04  0.4236E-07  0.1431E-02  0.1095E-03  0.1694E+02
   -0.649991   29.78636  0.2043E-14  0.1442E-04  0.4161E-07  0.1496E-02  0.1029E-03  0.1715E+02
   -0.699992   29.78697  0.2043E-14  0.1459E-04  0.4100E-07  0.1553E-02  0.9691E-04  0.1764E+02
   -0.749993   29.78755  0.2043E-14  0.1473E-04  0.4050E-07  0.1603E-02  0.9136E-04  0.1822E+02
   -0.799995   29.78811  0.2043E-14  0.1485E-04  0.4009E-07  0.1646E-02  0.8619E-04  0.1909E+02
   -0.849996   29.78865  0.2043E-14  0.1495E-04  0.3979E-07  0.1681E-02  0.8138E-04  0.2007E+02
   -0.899998   29.78917  0.2043E-14  0.1502E-04  0.3957E-07  0.1709E-02  0.7684E-04  0.2141E+02
   -0.950000   29.78968  0.2043E-14  0.1508E-04  0.3944E-07  0.1728E-02  0.7259E-04  0.2291E+02
   -1.000002   29.79018  0.2043E-14  0.1512E-04  0.3940E-07  0.1740E-02  0.6855E-04  0.2488E+02
   -1.050003   29.79068  0.2043E-14  0.1514E-04  0.3946E-07  0.1742E-02  0.6473E-04  0.2822E+02
   -1.100005   29.79118  0.2043E-14  0.1514E-04  0.3961E-07  0.1820E-02  0.6107E-04  0.9526E+02
   -1.150007   29.79165  0.2043E-14  0.1512E-04  0.3989E-07  0.1674E-02  0.5781E-04  0.2073E+03
   -1.200008   29.79216  0.2043E-14  0.1508E-04  0.4027E-07  0.1691E-02  0.5445E-04  0.4064E+02
   -1.250010   29.79267  0.2043E-14  0.1502E-04  0.4081E-07  0.1662E-02  0.5122E-04  0.4370E+02
   -1.300011   29.79318  0.2043E-14  0.1493E-04  0.4154E-07  0.1616E-02  0.4813E-04  0.5091E+02
   -1.350012   29.79371  0.2043E-14  0.1481E-04  0.4249E-07  0.1559E-02  0.4512E-04  0.6093E+02
   -1.400013   29.79426  0.2043E-14  0.1465E-04  0.4374E-07  0.1487E-02  0.4220E-04  0.7458E+02
   -1.450014   29.79484  0.2043E-14  0.1446E-04  0.4540E-07  0.1412E-02  0.3933E-04  0.9446E+02
   -1.500015   29.79545  0.2043E-14  0.1423E-04  0.4765E-07  0.1306E-02  0.3653E-04  0.1257E+03
   -1.550015   29.79612  0.2043E-14  0.1393E-04  0.5075E-07  0.1220E-02  0.3371E-04  0.1754E+03
   -1.600015   29.79684  0.2043E-14  0.1357E-04  0.5533E-07  0.1080E-02  0.3096E-04  0.2897E+03
   -1.650015   29.79769  0.2043E-14  0.1310E-04  0.6224E-07  0.9994E-03  0.2806E-04  0.5852E+03
   -1.700015   29.79864  0.2043E-14  0.1245E-04  0.7453E-07  0.8213E-03  0.2525E-04  0.5809E+04
   -1.750014   29.80023  0.2043E-14  0.1156E-04  0.9496E-07  0.7413E-03  0.2163E-04  0.2500E+06
   -1.800012   29.80179  0.2043E-14  0.1031E-04  0.1377E-06  0.5259E-03  0.1856E-04  0.3540E+06
   -1.850011   29.80684  0.2043E-14  0.8832E-05  0.2164E-06  0.4727E-03  0.1362E-04  0.6617E+08
   -1.900009   29.80685  0.2043E-14  0.7005E-05  0.4490E-06  0.2142E-03  0.1095E-04  0.1844E+06
   -1.950006   29.82464  0.2043E-14  0.4851E-05  0.1158E-05  0.1721E-03  0.5971E-05 -0.3117E+07
   -2.000003   29.82808  0.2043E-14  0.0000E+00  0.0000E+00  0.0000E+00  0.1043E-04  0.0000E+00
