 1 - depth, m
 2 - temperature, C
 3 - salinity, kg/kg
 4 - turbulent kinetic energy, m**2/s**2
 5 - dissipation rate, m**2/s**3
 6 - kinematic heat conductance, m**2/s
 7 - modulus of horizontal velocity, m/s
 8 - Richardson number, n/d
   -0.000000   30.60586  0.1378E-13  0.5835E-05  0.3251E-06  0.5617E-04  0.4161E-02  0.2449E+03
   -0.049997   30.63606  0.1378E-13  0.9185E-05  0.1388E-06  0.2137E-03  0.2236E-02  0.4070E+04
   -0.099994   30.64480  0.1378E-13  0.1067E-04  0.9999E-07  0.3901E-03  0.1803E-02  0.3293E+01
   -0.149992   30.64826  0.1378E-13  0.1168E-04  0.8470E-07  0.4861E-03  0.1619E-02  0.1775E+01
   -0.199991   30.65091  0.1378E-13  0.1250E-04  0.7574E-07  0.6084E-03  0.1474E-02  0.1306E+01
   -0.249989   30.65296  0.1378E-13  0.1320E-04  0.6961E-07  0.7180E-03  0.1358E-02  0.1284E+01
   -0.299988   30.65466  0.1378E-13  0.1386E-04  0.6482E-07  0.8503E-03  0.1249E-02  0.1377E+01
   -0.349988   30.65606  0.1378E-13  0.1448E-04  0.6090E-07  0.9992E-03  0.1142E-02  0.1474E+01
   -0.399988   30.65722  0.1378E-13  0.1506E-04  0.5765E-07  0.1154E-02  0.1037E-02  0.1497E+01
   -0.449988   30.65820  0.1378E-13  0.1558E-04  0.5496E-07  0.1306E-02  0.9409E-03  0.1498E+01
   -0.499988   30.65905  0.1378E-13  0.1603E-04  0.5275E-07  0.1448E-02  0.8545E-03  0.1494E+01
   -0.549989   30.65980  0.1378E-13  0.1641E-04  0.5094E-07  0.1576E-02  0.7776E-03  0.1478E+01
   -0.599989   30.66048  0.1378E-13  0.1673E-04  0.4948E-07  0.1691E-02  0.7092E-03  0.1459E+01
   -0.649990   30.66111  0.1378E-13  0.1699E-04  0.4829E-07  0.1789E-02  0.6483E-03  0.1435E+01
   -0.699992   30.66169  0.1378E-13  0.1719E-04  0.4735E-07  0.1869E-02  0.5941E-03  0.1409E+01
   -0.749993   30.66223  0.1378E-13  0.1734E-04  0.4663E-07  0.1932E-02  0.5457E-03  0.1379E+01
   -0.799994   30.66276  0.1378E-13  0.1744E-04  0.4610E-07  0.1978E-02  0.5026E-03  0.1347E+01
   -0.849996   30.66326  0.1378E-13  0.1749E-04  0.4573E-07  0.2006E-02  0.4642E-03  0.1311E+01
   -0.899998   30.66375  0.1378E-13  0.1752E-04  0.4552E-07  0.2018E-02  0.4299E-03  0.1274E+01
   -0.949999   30.66423  0.1378E-13  0.1750E-04  0.4546E-07  0.2016E-02  0.3993E-03  0.1234E+01
   -1.000001   30.66471  0.1378E-13  0.1746E-04  0.4553E-07  0.2001E-02  0.3719E-03  0.1190E+01
   -1.050003   30.66519  0.1378E-13  0.1740E-04  0.4573E-07  0.1963E-02  0.3475E-03  0.1150E+01
   -1.100004   30.66567  0.1378E-13  0.1732E-04  0.4602E-07  0.2149E-02  0.3260E-03  0.2591E+01
   -1.150006   30.66611  0.1378E-13  0.1721E-04  0.4645E-07  0.1749E-02  0.3109E-03  0.6964E+01
   -1.200008   30.66665  0.1378E-13  0.1709E-04  0.4703E-07  0.1852E-02  0.2933E-03  0.1271E+01
   -1.250009   30.66715  0.1378E-13  0.1693E-04  0.4783E-07  0.1809E-02  0.2769E-03  0.1323E+01
   -1.300011   30.66766  0.1378E-13  0.1674E-04  0.4889E-07  0.1740E-02  0.2611E-03  0.1551E+01
   -1.350012   30.66818  0.1378E-13  0.1652E-04  0.5030E-07  0.1663E-02  0.2459E-03  0.1892E+01
   -1.400013   30.66874  0.1378E-13  0.1625E-04  0.5219E-07  0.1564E-02  0.2309E-03  0.2406E+01
   -1.450014   30.66933  0.1378E-13  0.1593E-04  0.5478E-07  0.1469E-02  0.2159E-03  0.3193E+01
   -1.500014   30.66996  0.1378E-13  0.1555E-04  0.5841E-07  0.1344E-02  0.2011E-03  0.4605E+01
   -1.550014   30.67066  0.1378E-13  0.1508E-04  0.6376E-07  0.1250E-02  0.1860E-03  0.7976E+01
   -1.600015   30.67146  0.1378E-13  0.1449E-04  0.7227E-07  0.1098E-02  0.1707E-03  0.6254E+00
   -1.650014   30.67252  0.1378E-13  0.1372E-04  0.8552E-07  0.1001E-02  0.1536E-03  0.9471E+03
   -1.700014   30.67379  0.1378E-13  0.1267E-04  0.1092E-06  0.8176E-03  0.1359E-03  0.4281E+04
   -1.750013   30.67598  0.1378E-13  0.1146E-04  0.1457E-06  0.7290E-03  0.1131E-03  0.1016E+07
   -1.800012   30.67729  0.1378E-13  0.9917E-05  0.2271E-06  0.5004E-03  0.9749E-04  0.1275E+05
   -1.850010   30.68597  0.1378E-13  0.8393E-05  0.3778E-06  0.4748E-03  0.6657E-04  0.4484E+09
   -1.900008   30.68208  0.1378E-13  0.6664E-05  0.7833E-06  0.2219E-03  0.5569E-04 -0.6097E+06
   -1.950005   30.70443  0.1378E-13  0.4769E-05  0.1850E-05  0.2254E-03  0.2921E-04 -0.5993E+05
   -2.000002   30.70425  0.1378E-13  0.0000E+00  0.0000E+00  0.0000E+00  0.6030E-04  0.0000E+00
