 1 - depth, m
 2 - temperature, C
 3 - salinity, kg/kg
 4 - turbulent kinetic energy, m**2/s**2
 5 - dissipation rate, m**2/s**3
 6 - kinematic heat conductance, m**2/s
 7 - modulus of horizontal velocity, m/s
 8 - Richardson number, n/d
   -0.000000   30.43737  0.1090E-12  0.4579E-05  0.2745E-06  0.4899E-04  0.1572E-02  0.3091E+04
   -0.049997   30.46620  0.1090E-12  0.7830E-05  0.1225E-06  0.1721E-03  0.8964E-03  0.2605E+04
   -0.099994   30.47723  0.1090E-12  0.9484E-05  0.8430E-07  0.3883E-03  0.6553E-03  0.1952E+02
   -0.149992   30.48030  0.1090E-12  0.1052E-04  0.7078E-07  0.4679E-03  0.5782E-03  0.9449E+01
   -0.199991   30.48274  0.1090E-12  0.1132E-04  0.6283E-07  0.6234E-03  0.5158E-03  0.6072E+01
   -0.249989   30.48451  0.1090E-12  0.1195E-04  0.5761E-07  0.7456E-03  0.4691E-03  0.4465E+01
   -0.299988   30.48595  0.1090E-12  0.1247E-04  0.5387E-07  0.8663E-03  0.4302E-03  0.3551E+01
   -0.349988   30.48716  0.1090E-12  0.1290E-04  0.5107E-07  0.9760E-03  0.3968E-03  0.3028E+01
   -0.399988   30.48820  0.1090E-12  0.1326E-04  0.4888E-07  0.1076E-02  0.3673E-03  0.2699E+01
   -0.449988   30.48913  0.1090E-12  0.1357E-04  0.4710E-07  0.1170E-02  0.3414E-03  0.2527E+01
   -0.499988   30.48996  0.1090E-12  0.1384E-04  0.4562E-07  0.1255E-02  0.3185E-03  0.2460E+01
   -0.549989   30.49072  0.1090E-12  0.1407E-04  0.4438E-07  0.1334E-02  0.2980E-03  0.2421E+01
   -0.599990   30.49142  0.1090E-12  0.1427E-04  0.4334E-07  0.1405E-02  0.2794E-03  0.2426E+01
   -0.649991   30.49208  0.1090E-12  0.1444E-04  0.4245E-07  0.1470E-02  0.2625E-03  0.2449E+01
   -0.699992   30.49269  0.1090E-12  0.1458E-04  0.4170E-07  0.1526E-02  0.2470E-03  0.2509E+01
   -0.749993   30.49328  0.1090E-12  0.1471E-04  0.4107E-07  0.1576E-02  0.2327E-03  0.2585E+01
   -0.799995   30.49384  0.1090E-12  0.1480E-04  0.4055E-07  0.1618E-02  0.2194E-03  0.2699E+01
   -0.849996   30.49437  0.1090E-12  0.1488E-04  0.4013E-07  0.1653E-02  0.2070E-03  0.2830E+01
   -0.899998   30.49489  0.1090E-12  0.1494E-04  0.3980E-07  0.1680E-02  0.1953E-03  0.3007E+01
   -0.950000   30.49540  0.1090E-12  0.1498E-04  0.3956E-07  0.1699E-02  0.1844E-03  0.3210E+01
   -1.000001   30.49590  0.1090E-12  0.1499E-04  0.3941E-07  0.1711E-02  0.1740E-03  0.3474E+01
   -1.050003   30.49638  0.1090E-12  0.1499E-04  0.3936E-07  0.1713E-02  0.1642E-03  0.3928E+01
   -1.100005   30.49687  0.1090E-12  0.1497E-04  0.3941E-07  0.1792E-02  0.1549E-03  0.1313E+02
   -1.150006   30.49733  0.1090E-12  0.1493E-04  0.3958E-07  0.1642E-02  0.1465E-03  0.2935E+02
   -1.200008   30.49783  0.1090E-12  0.1487E-04  0.3986E-07  0.1661E-02  0.1379E-03  0.5655E+01
   -1.250009   30.49832  0.1090E-12  0.1478E-04  0.4030E-07  0.1632E-02  0.1297E-03  0.6044E+01
   -1.300011   30.49881  0.1090E-12  0.1467E-04  0.4092E-07  0.1586E-02  0.1217E-03  0.7039E+01
   -1.350012   30.49932  0.1090E-12  0.1453E-04  0.4176E-07  0.1530E-02  0.1141E-03  0.8438E+01
   -1.400013   30.49985  0.1090E-12  0.1435E-04  0.4291E-07  0.1457E-02  0.1066E-03  0.1036E+02
   -1.450014   30.50040  0.1090E-12  0.1414E-04  0.4447E-07  0.1383E-02  0.9927E-04  0.1319E+02
   -1.500014   30.50098  0.1090E-12  0.1388E-04  0.4662E-07  0.1276E-02  0.9211E-04  0.1774E+02
   -1.550015   30.50161  0.1090E-12  0.1357E-04  0.4965E-07  0.1193E-02  0.8492E-04  0.2507E+02
   -1.600015   30.50230  0.1090E-12  0.1317E-04  0.5426E-07  0.1053E-02  0.7791E-04  0.4452E+02
   -1.650015   30.50312  0.1090E-12  0.1267E-04  0.6135E-07  0.9739E-03  0.7044E-04  0.1022E+04
   -1.700014   30.50404  0.1090E-12  0.1199E-04  0.7407E-07  0.7990E-03  0.6319E-04 -0.1318E+04
   -1.750013   30.50564  0.1090E-12  0.1106E-04  0.9518E-07  0.7162E-03  0.5372E-04  0.1448E+06
   -1.800012   30.50710  0.1090E-12  0.9792E-05  0.1385E-06  0.5079E-03  0.4601E-04  0.3347E+05
   -1.850010   30.51233  0.1090E-12  0.8326E-05  0.2208E-06  0.4575E-03  0.3333E-04  0.6004E+08
   -1.900008   30.51172  0.1090E-12  0.6562E-05  0.4652E-06  0.2038E-03  0.2684E-04 -0.8019E+06
   -1.950006   30.52903  0.1090E-12  0.4562E-05  0.1169E-05  0.1789E-03  0.1443E-04 -0.6405E+06
   -2.000003   30.53146  0.1090E-12  0.0000E+00  0.0000E+00  0.0000E+00  0.2608E-04  0.0000E+00
