 1 - depth, m
 2 - temperature, C
 3 - salinity, kg/kg
 4 - turbulent kinetic energy, m**2/s**2
 5 - dissipation rate, m**2/s**3
 6 - kinematic heat conductance, m**2/s
 7 - modulus of horizontal velocity, m/s
 8 - Richardson number, n/d
   -0.000000   31.03637  0.5325E-14  0.4950E-05  0.3042E-06  0.4790E-04  0.3794E-03  0.1726E+06
   -0.049997   31.07051  0.5325E-14  0.8810E-05  0.1356E-06  0.1987E-03  0.2107E-03  0.1434E+06
   -0.099994   31.08064  0.5325E-14  0.1058E-04  0.9541E-07  0.4200E-03  0.1555E-03  0.6116E+03
   -0.149992   31.08387  0.5325E-14  0.1171E-04  0.8071E-07  0.5050E-03  0.1377E-03  0.3105E+03
   -0.199991   31.08643  0.5325E-14  0.1260E-04  0.7201E-07  0.6705E-03  0.1232E-03  0.2056E+03
   -0.249989   31.08831  0.5325E-14  0.1330E-04  0.6626E-07  0.7995E-03  0.1123E-03  0.1543E+03
   -0.299988   31.08984  0.5325E-14  0.1388E-04  0.6215E-07  0.9266E-03  0.1033E-03  0.1240E+03
   -0.349988   31.09113  0.5325E-14  0.1436E-04  0.5905E-07  0.1042E-02  0.9547E-04  0.1068E+03
   -0.399988   31.09225  0.5325E-14  0.1476E-04  0.5664E-07  0.1147E-02  0.8860E-04  0.9547E+02
   -0.449988   31.09325  0.5325E-14  0.1511E-04  0.5468E-07  0.1245E-02  0.8251E-04  0.8992E+02
   -0.499988   31.09415  0.5325E-14  0.1541E-04  0.5306E-07  0.1335E-02  0.7715E-04  0.8750E+02
   -0.549989   31.09497  0.5325E-14  0.1567E-04  0.5171E-07  0.1416E-02  0.7231E-04  0.8656E+02
   -0.599989   31.09574  0.5325E-14  0.1589E-04  0.5057E-07  0.1490E-02  0.6795E-04  0.8661E+02
   -0.649990   31.09645  0.5325E-14  0.1609E-04  0.4961E-07  0.1556E-02  0.6395E-04  0.8793E+02
   -0.699992   31.09712  0.5325E-14  0.1625E-04  0.4881E-07  0.1615E-02  0.6029E-04  0.8995E+02
   -0.749993   31.09776  0.5325E-14  0.1638E-04  0.4814E-07  0.1665E-02  0.5689E-04  0.9321E+02
   -0.799994   31.09838  0.5325E-14  0.1650E-04  0.4759E-07  0.1708E-02  0.5374E-04  0.9718E+02
   -0.849996   31.09897  0.5325E-14  0.1658E-04  0.4716E-07  0.1742E-02  0.5077E-04  0.1026E+03
   -0.899998   31.09954  0.5325E-14  0.1665E-04  0.4684E-07  0.1769E-02  0.4801E-04  0.1089E+03
   -0.949999   31.10011  0.5325E-14  0.1669E-04  0.4662E-07  0.1786E-02  0.4538E-04  0.1170E+03
   -1.000001   31.10066  0.5325E-14  0.1671E-04  0.4652E-07  0.1796E-02  0.4292E-04  0.1266E+03
   -1.050003   31.10120  0.5325E-14  0.1670E-04  0.4653E-07  0.1794E-02  0.4055E-04  0.1441E+03
   -1.100004   31.10174  0.5325E-14  0.1668E-04  0.4666E-07  0.1892E-02  0.3831E-04  0.4731E+03
   -1.150006   31.10225  0.5325E-14  0.1663E-04  0.4695E-07  0.1693E-02  0.3632E-04  0.1107E+04
   -1.200008   31.10282  0.5325E-14  0.1655E-04  0.4737E-07  0.1727E-02  0.3422E-04  0.2112E+03
   -1.250009   31.10337  0.5325E-14  0.1645E-04  0.4800E-07  0.1695E-02  0.3223E-04  0.2260E+03
   -1.300010   31.10393  0.5325E-14  0.1631E-04  0.4886E-07  0.1642E-02  0.3030E-04  0.2667E+03
   -1.350011   31.10451  0.5325E-14  0.1614E-04  0.5002E-07  0.1580E-02  0.2844E-04  0.3215E+03
   -1.400013   31.10511  0.5325E-14  0.1593E-04  0.5159E-07  0.1498E-02  0.2661E-04  0.4018E+03
   -1.450013   31.10574  0.5325E-14  0.1568E-04  0.5373E-07  0.1417E-02  0.2482E-04  0.5187E+03
   -1.500014   31.10642  0.5325E-14  0.1536E-04  0.5670E-07  0.1303E-02  0.2305E-04  0.7176E+03
   -1.550014   31.10716  0.5325E-14  0.1498E-04  0.6094E-07  0.1216E-02  0.2128E-04  0.1059E+04
   -1.600014   31.10797  0.5325E-14  0.1449E-04  0.6755E-07  0.1072E-02  0.1952E-04  0.3893E+04
   -1.650014   31.10900  0.5325E-14  0.1386E-04  0.7788E-07  0.9843E-03  0.1762E-04  0.1327E+05
   -1.700013   31.11018  0.5325E-14  0.1300E-04  0.9582E-07  0.8076E-03  0.1570E-04 -0.1089E+07
   -1.750013   31.11222  0.5325E-14  0.1189E-04  0.1255E-06  0.7204E-03  0.1326E-04  0.2554E+07
   -1.800011   31.11392  0.5325E-14  0.1044E-04  0.1938E-06  0.5074E-03  0.1134E-04  0.3955E+07
   -1.850010   31.12121  0.5325E-14  0.8885E-05  0.3144E-06  0.4655E-03  0.8076E-05  0.4485E+09
   -1.900007   31.11921  0.5325E-14  0.7051E-05  0.6577E-06  0.2205E-03  0.6588E-05 -0.8132E+08
   -1.950005   31.14052  0.5325E-14  0.4971E-05  0.1601E-05  0.1996E-03  0.3526E-05 -0.9275E+07
   -2.000002   31.14283  0.5325E-14  0.0000E+00  0.0000E+00  0.0000E+00  0.6708E-05  0.0000E+00
