 1 - depth, m
 2 - temperature, C
 3 - salinity, kg/kg
 4 - turbulent kinetic energy, m**2/s**2
 5 - dissipation rate, m**2/s**3
 6 - kinematic heat conductance, m**2/s
 7 - modulus of horizontal velocity, m/s
 8 - Richardson number, n/d
   -0.000000   29.98096  0.2847E-13  0.5814E-05  0.3225E-06  0.5538E-04  0.4148E-02  0.3136E+03
   -0.049997   30.01230  0.2847E-13  0.9132E-05  0.1384E-06  0.2109E-03  0.2237E-02  0.1059E+02
   -0.099994   30.02145  0.2847E-13  0.1061E-04  0.9964E-07  0.3860E-03  0.1802E-02  0.3426E+01
   -0.149992   30.02505  0.2847E-13  0.1160E-04  0.8434E-07  0.4813E-03  0.1617E-02  0.1837E+01
   -0.199991   30.02780  0.2847E-13  0.1240E-04  0.7535E-07  0.6025E-03  0.1472E-02  0.1339E+01
   -0.249989   30.02993  0.2847E-13  0.1308E-04  0.6918E-07  0.7102E-03  0.1355E-02  0.1299E+01
   -0.299989   30.03169  0.2847E-13  0.1371E-04  0.6436E-07  0.8386E-03  0.1246E-02  0.1388E+01
   -0.349988   30.03313  0.2847E-13  0.1430E-04  0.6037E-07  0.9831E-03  0.1140E-02  0.1482E+01
   -0.399988   30.03433  0.2847E-13  0.1484E-04  0.5705E-07  0.1133E-02  0.1035E-02  0.1505E+01
   -0.449988   30.03534  0.2847E-13  0.1532E-04  0.5428E-07  0.1280E-02  0.9390E-03  0.1507E+01
   -0.499988   30.03622  0.2847E-13  0.1574E-04  0.5198E-07  0.1416E-02  0.8528E-03  0.1504E+01
   -0.549989   30.03700  0.2847E-13  0.1609E-04  0.5008E-07  0.1540E-02  0.7760E-03  0.1489E+01
   -0.599990   30.03770  0.2847E-13  0.1637E-04  0.4851E-07  0.1650E-02  0.7077E-03  0.1471E+01
   -0.649991   30.03834  0.2847E-13  0.1659E-04  0.4721E-07  0.1745E-02  0.6468E-03  0.1447E+01
   -0.699992   30.03894  0.2847E-13  0.1676E-04  0.4615E-07  0.1823E-02  0.5926E-03  0.1420E+01
   -0.749993   30.03950  0.2847E-13  0.1687E-04  0.4531E-07  0.1883E-02  0.5442E-03  0.1389E+01
   -0.799995   30.04003  0.2847E-13  0.1694E-04  0.4464E-07  0.1927E-02  0.5010E-03  0.1356E+01
   -0.849996   30.04055  0.2847E-13  0.1697E-04  0.4414E-07  0.1954E-02  0.4625E-03  0.1319E+01
   -0.899998   30.04105  0.2847E-13  0.1696E-04  0.4380E-07  0.1965E-02  0.4282E-03  0.1280E+01
   -0.950000   30.04153  0.2847E-13  0.1691E-04  0.4360E-07  0.1963E-02  0.3975E-03  0.1237E+01
   -1.000001   30.04201  0.2847E-13  0.1684E-04  0.4353E-07  0.1947E-02  0.3701E-03  0.1190E+01
   -1.050003   30.04249  0.2847E-13  0.1675E-04  0.4358E-07  0.1908E-02  0.3457E-03  0.1145E+01
   -1.100005   30.04297  0.2847E-13  0.1665E-04  0.4375E-07  0.2093E-02  0.3241E-03  0.2594E+01
   -1.150007   30.04340  0.2847E-13  0.1652E-04  0.4405E-07  0.1693E-02  0.3088E-03  0.7035E+01
   -1.200008   30.04392  0.2847E-13  0.1638E-04  0.4449E-07  0.1798E-02  0.2911E-03  0.1260E+01
   -1.250010   30.04441  0.2847E-13  0.1620E-04  0.4512E-07  0.1756E-02  0.2746E-03  0.1308E+01
   -1.300011   30.04491  0.2847E-13  0.1599E-04  0.4600E-07  0.1686E-02  0.2589E-03  0.1534E+01
   -1.350012   30.04541  0.2847E-13  0.1574E-04  0.4721E-07  0.1609E-02  0.2435E-03  0.1865E+01
   -1.400013   30.04594  0.2847E-13  0.1545E-04  0.4887E-07  0.1508E-02  0.2284E-03  0.2366E+01
   -1.450014   30.04650  0.2847E-13  0.1511E-04  0.5118E-07  0.1415E-02  0.2134E-03  0.3117E+01
   -1.500015   30.04710  0.2847E-13  0.1471E-04  0.5446E-07  0.1284E-02  0.1985E-03  0.4476E+01
   -1.550015   30.04777  0.2847E-13  0.1422E-04  0.5931E-07  0.1197E-02  0.1833E-03  0.7445E+01
   -1.600015   30.04850  0.2847E-13  0.1362E-04  0.6725E-07  0.1044E-02  0.1682E-03  0.2241E+02
   -1.650015   30.04949  0.2847E-13  0.1283E-04  0.7992E-07  0.9535E-03  0.1509E-03  0.1246E+04
   -1.700014   30.05067  0.2847E-13  0.1175E-04  0.1020E-06  0.7693E-03  0.1332E-03  0.5700E+03
   -1.750013   30.05281  0.2847E-13  0.1046E-04  0.1370E-06  0.6828E-03  0.1094E-03  0.2438E+05
   -1.800012   30.05415  0.2847E-13  0.8854E-05  0.2136E-06  0.4653E-03  0.9319E-04  0.1026E+05
   -1.850010   30.06226  0.2847E-13  0.7332E-05  0.3571E-06  0.4380E-03  0.6163E-04  0.2317E+08
   -1.900008   30.05832  0.2847E-13  0.5729E-05  0.7580E-06  0.2025E-03  0.5149E-04 -0.3261E+05
   -1.950006   30.07906  0.2847E-13  0.4121E-05  0.1785E-05  0.2307E-03  0.2562E-04 -0.2788E+05
   -2.000003   30.07715  0.2847E-13  0.0000E+00  0.0000E+00  0.0000E+00  0.5842E-04  0.0000E+00
