 1 - depth, m
 2 - temperature, C
 3 - salinity, kg/kg
 4 - turbulent kinetic energy, m**2/s**2
 5 - dissipation rate, m**2/s**3
 6 - kinematic heat conductance, m**2/s
 7 - modulus of horizontal velocity, m/s
 8 - Richardson number, n/d
   -0.000000   29.77684  0.1414E-12  0.3974E-05  0.2146E-06  0.4459E-04  0.1451E-02  0.1292E+05
   -0.049997   29.80372  0.1414E-12  0.6779E-05  0.9579E-07  0.1586E-03  0.8194E-03  0.1641E+02
   -0.099994   29.81347  0.1414E-12  0.8144E-05  0.6612E-07  0.3606E-03  0.5954E-03  0.2513E+02
   -0.149992   29.81625  0.1414E-12  0.8977E-05  0.5569E-07  0.4357E-03  0.5241E-03  0.1168E+02
   -0.199991   29.81844  0.1414E-12  0.9614E-05  0.4942E-07  0.5723E-03  0.4664E-03  0.7560E+01
   -0.249989   29.82004  0.1414E-12  0.1011E-04  0.4521E-07  0.6833E-03  0.4227E-03  0.5542E+01
   -0.299989   29.82133  0.1414E-12  0.1052E-04  0.4214E-07  0.7906E-03  0.3862E-03  0.4385E+01
   -0.349988   29.82240  0.1414E-12  0.1084E-04  0.3980E-07  0.8887E-03  0.3549E-03  0.3728E+01
   -0.399988   29.82333  0.1414E-12  0.1111E-04  0.3794E-07  0.9785E-03  0.3272E-03  0.3303E+01
   -0.449988   29.82414  0.1414E-12  0.1134E-04  0.3641E-07  0.1062E-02  0.3028E-03  0.3089E+01
   -0.499988   29.82486  0.1414E-12  0.1154E-04  0.3512E-07  0.1139E-02  0.2813E-03  0.2995E+01
   -0.549989   29.82552  0.1414E-12  0.1170E-04  0.3402E-07  0.1210E-02  0.2621E-03  0.2945E+01
   -0.599990   29.82612  0.1414E-12  0.1184E-04  0.3307E-07  0.1274E-02  0.2448E-03  0.2936E+01
   -0.649991   29.82667  0.1414E-12  0.1196E-04  0.3226E-07  0.1333E-02  0.2291E-03  0.2963E+01
   -0.699992   29.82719  0.1414E-12  0.1206E-04  0.3155E-07  0.1385E-02  0.2147E-03  0.3018E+01
   -0.749993   29.82768  0.1414E-12  0.1213E-04  0.3094E-07  0.1431E-02  0.2014E-03  0.3106E+01
   -0.799995   29.82815  0.1414E-12  0.1219E-04  0.3041E-07  0.1471E-02  0.1892E-03  0.3222E+01
   -0.849997   29.82859  0.1414E-12  0.1224E-04  0.2996E-07  0.1504E-02  0.1777E-03  0.3374E+01
   -0.899998   29.82901  0.1414E-12  0.1227E-04  0.2958E-07  0.1531E-02  0.1671E-03  0.3559E+01
   -0.950000   29.82942  0.1414E-12  0.1228E-04  0.2927E-07  0.1551E-02  0.1571E-03  0.3792E+01
   -1.000002   29.82982  0.1414E-12  0.1228E-04  0.2904E-07  0.1565E-02  0.1477E-03  0.4070E+01
   -1.050003   29.83021  0.1414E-12  0.1227E-04  0.2887E-07  0.1571E-02  0.1388E-03  0.4600E+01
   -1.100005   29.83059  0.1414E-12  0.1224E-04  0.2877E-07  0.1627E-02  0.1303E-03  0.1559E+02
   -1.150007   29.83096  0.1414E-12  0.1220E-04  0.2875E-07  0.1540E-02  0.1227E-03  0.3295E+02
   -1.200008   29.83134  0.1414E-12  0.1214E-04  0.2881E-07  0.1541E-02  0.1152E-03  0.6464E+01
   -1.250010   29.83172  0.1414E-12  0.1206E-04  0.2898E-07  0.1518E-02  0.1079E-03  0.6815E+01
   -1.300011   29.83209  0.1414E-12  0.1197E-04  0.2925E-07  0.1483E-02  0.1009E-03  0.7869E+01
   -1.350013   29.83248  0.1414E-12  0.1186E-04  0.2967E-07  0.1438E-02  0.9417E-04  0.9255E+01
   -1.400014   29.83287  0.1414E-12  0.1173E-04  0.3026E-07  0.1381E-02  0.8767E-04  0.1116E+02
   -1.450014   29.83327  0.1414E-12  0.1157E-04  0.3109E-07  0.1315E-02  0.8136E-04  0.1383E+02
   -1.500015   29.83369  0.1414E-12  0.1138E-04  0.3224E-07  0.1232E-02  0.7522E-04  0.1786E+02
   -1.550015   29.83414  0.1414E-12  0.1116E-04  0.3385E-07  0.1148E-02  0.6917E-04  0.2409E+02
   -1.600016   29.83462  0.1414E-12  0.1088E-04  0.3618E-07  0.1030E-02  0.6325E-04  0.3563E+02
   -1.650015   29.83517  0.1414E-12  0.1055E-04  0.3966E-07  0.9459E-03  0.5725E-04  0.6038E+02
   -1.700015   29.83576  0.1414E-12  0.1012E-04  0.4568E-07  0.7904E-03  0.5143E-04  0.1079E+05
   -1.750014   29.83661  0.1414E-12  0.9520E-05  0.5613E-07  0.7080E-03  0.4469E-04  0.5024E+04
   -1.800013   29.83758  0.1414E-12  0.8633E-05  0.7734E-07  0.5108E-03  0.3834E-04  0.1965E+05
   -1.850011   29.84000  0.1414E-12  0.7433E-05  0.1172E-06  0.4395E-03  0.2908E-04  0.8047E+06
   -1.900009   29.84081  0.1414E-12  0.5844E-05  0.2375E-06  0.2015E-03  0.2285E-04 -0.3909E+06
   -1.950006   29.85100  0.1414E-12  0.3897E-05  0.6337E-06  0.1361E-03  0.1259E-04 -0.2446E+06
   -2.000003   29.85511  0.1414E-12  0.0000E+00  0.0000E+00  0.0000E+00  0.2050E-04  0.0000E+00
