 1 - depth, m
 2 - temperature, C
 3 - salinity, kg/kg
 4 - turbulent kinetic energy, m**2/s**2
 5 - dissipation rate, m**2/s**3
 6 - kinematic heat conductance, m**2/s
 7 - modulus of horizontal velocity, m/s
 8 - Richardson number, n/d
   -0.000000   30.01881  0.8403E-14  0.4588E-05  0.2737E-06  0.4925E-04  0.1889E-02  0.5471E+04
   -0.049997   30.04662  0.8403E-14  0.7805E-05  0.1216E-06  0.1737E-03  0.1070E-02  0.6390E+03
   -0.099994   30.05725  0.8403E-14  0.9451E-05  0.8364E-07  0.3894E-03  0.7843E-03  0.1395E+02
   -0.149992   30.06024  0.8403E-14  0.1049E-04  0.7021E-07  0.4709E-03  0.6920E-03  0.6802E+01
   -0.199991   30.06262  0.8403E-14  0.1130E-04  0.6236E-07  0.6275E-03  0.6175E-03  0.4376E+01
   -0.249989   30.06435  0.8403E-14  0.1195E-04  0.5722E-07  0.7507E-03  0.5616E-03  0.3219E+01
   -0.299989   30.06577  0.8403E-14  0.1248E-04  0.5357E-07  0.8729E-03  0.5152E-03  0.2567E+01
   -0.349988   30.06695  0.8403E-14  0.1292E-04  0.5085E-07  0.9839E-03  0.4753E-03  0.2189E+01
   -0.399988   30.06799  0.8403E-14  0.1330E-04  0.4874E-07  0.1086E-02  0.4401E-03  0.1957E+01
   -0.449988   30.06891  0.8403E-14  0.1362E-04  0.4703E-07  0.1180E-02  0.4092E-03  0.1833E+01
   -0.499988   30.06973  0.8403E-14  0.1390E-04  0.4562E-07  0.1267E-02  0.3818E-03  0.1792E+01
   -0.549989   30.07049  0.8403E-14  0.1415E-04  0.4445E-07  0.1348E-02  0.3573E-03  0.1763E+01
   -0.599990   30.07119  0.8403E-14  0.1437E-04  0.4347E-07  0.1420E-02  0.3351E-03  0.1772E+01
   -0.649991   30.07185  0.8403E-14  0.1455E-04  0.4265E-07  0.1486E-02  0.3150E-03  0.1786E+01
   -0.699992   30.07247  0.8403E-14  0.1471E-04  0.4196E-07  0.1544E-02  0.2964E-03  0.1834E+01
   -0.749993   30.07306  0.8403E-14  0.1485E-04  0.4139E-07  0.1594E-02  0.2793E-03  0.1884E+01
   -0.799995   30.07362  0.8403E-14  0.1496E-04  0.4093E-07  0.1637E-02  0.2634E-03  0.1974E+01
   -0.849996   30.07417  0.8403E-14  0.1506E-04  0.4057E-07  0.1673E-02  0.2486E-03  0.2067E+01
   -0.899998   30.07470  0.8403E-14  0.1513E-04  0.4030E-07  0.1701E-02  0.2347E-03  0.2203E+01
   -0.950000   30.07521  0.8403E-14  0.1518E-04  0.4012E-07  0.1720E-02  0.2217E-03  0.2348E+01
   -1.000001   30.07572  0.8403E-14  0.1521E-04  0.4003E-07  0.1733E-02  0.2093E-03  0.2548E+01
   -1.050003   30.07622  0.8403E-14  0.1523E-04  0.4004E-07  0.1735E-02  0.1976E-03  0.2878E+01
   -1.100005   30.07672  0.8403E-14  0.1522E-04  0.4015E-07  0.1812E-02  0.1864E-03  0.9684E+01
   -1.150007   30.07719  0.8403E-14  0.1519E-04  0.4038E-07  0.1668E-02  0.1764E-03  0.2128E+02
   -1.200008   30.07770  0.8403E-14  0.1514E-04  0.4073E-07  0.1685E-02  0.1661E-03  0.4132E+01
   -1.250010   30.07821  0.8403E-14  0.1507E-04  0.4123E-07  0.1656E-02  0.1563E-03  0.4428E+01
   -1.300011   30.07872  0.8403E-14  0.1497E-04  0.4192E-07  0.1610E-02  0.1468E-03  0.5148E+01
   -1.350012   30.07925  0.8403E-14  0.1484E-04  0.4284E-07  0.1554E-02  0.1376E-03  0.6161E+01
   -1.400013   30.07979  0.8403E-14  0.1468E-04  0.4406E-07  0.1482E-02  0.1287E-03  0.7541E+01
   -1.450014   30.08037  0.8403E-14  0.1448E-04  0.4570E-07  0.1407E-02  0.1199E-03  0.9565E+01
   -1.500015   30.08097  0.8403E-14  0.1423E-04  0.4793E-07  0.1300E-02  0.1113E-03  0.1278E+02
   -1.550015   30.08163  0.8403E-14  0.1392E-04  0.5104E-07  0.1217E-02  0.1027E-03  0.1792E+02
   -1.600015   30.08235  0.8403E-14  0.1355E-04  0.5567E-07  0.1075E-02  0.9430E-04  0.3034E+02
   -1.650015   30.08319  0.8403E-14  0.1306E-04  0.6269E-07  0.9987E-03  0.8542E-04  0.1584E+03
   -1.700014   30.08413  0.8403E-14  0.1240E-04  0.7537E-07  0.8166E-03  0.7685E-04  0.6850E+05
   -1.750013   30.08576  0.8403E-14  0.1148E-04  0.9628E-07  0.7375E-03  0.6558E-04  0.3214E+05
   -1.800012   30.08724  0.8403E-14  0.1022E-04  0.1390E-06  0.5206E-03  0.5640E-04  0.1113E+06
   -1.850011   30.09245  0.8403E-14  0.8755E-05  0.2198E-06  0.4707E-03  0.4125E-04  0.1187E+08
   -1.900008   30.09216  0.8403E-14  0.6982E-05  0.4535E-06  0.2171E-03  0.3338E-04  0.2377E+07
   -1.950006   30.10960  0.8403E-14  0.4834E-05  0.1161E-05  0.1735E-03  0.1841E-04 -0.3620E+06
   -2.000003   30.11289  0.8403E-14  0.0000E+00  0.0000E+00  0.0000E+00  0.3178E-04  0.0000E+00
