 1 - depth, m
 2 - temperature, C
 3 - salinity, kg/kg
 4 - turbulent kinetic energy, m**2/s**2
 5 - dissipation rate, m**2/s**3
 6 - kinematic heat conductance, m**2/s
 7 - modulus of horizontal velocity, m/s
 8 - Richardson number, n/d
   -0.000000   29.83354  0.3390E-14  0.4482E-05  0.2667E-06  0.4871E-04  0.1537E-02  0.5135E+04
   -0.049997   29.86157  0.3391E-14  0.7698E-05  0.1189E-06  0.1717E-03  0.8744E-03  0.2566E+04
   -0.099994   29.87237  0.3391E-14  0.9340E-05  0.8185E-07  0.3890E-03  0.6378E-03  0.1964E+02
   -0.149992   29.87536  0.3391E-14  0.1037E-04  0.6880E-07  0.4684E-03  0.5627E-03  0.9551E+01
   -0.199991   29.87775  0.3391E-14  0.1117E-04  0.6115E-07  0.6244E-03  0.5019E-03  0.6154E+01
   -0.249989   29.87949  0.3391E-14  0.1180E-04  0.5613E-07  0.7467E-03  0.4563E-03  0.4546E+01
   -0.299989   29.88090  0.3391E-14  0.1232E-04  0.5255E-07  0.8679E-03  0.4184E-03  0.3621E+01
   -0.349988   29.88209  0.3391E-14  0.1276E-04  0.4987E-07  0.9779E-03  0.3859E-03  0.3101E+01
   -0.399988   29.88312  0.3391E-14  0.1312E-04  0.4779E-07  0.1079E-02  0.3572E-03  0.2765E+01
   -0.449988   29.88404  0.3391E-14  0.1344E-04  0.4609E-07  0.1172E-02  0.3320E-03  0.2600E+01
   -0.499988   29.88487  0.3391E-14  0.1371E-04  0.4469E-07  0.1258E-02  0.3097E-03  0.2531E+01
   -0.549989   29.88562  0.3391E-14  0.1395E-04  0.4353E-07  0.1337E-02  0.2897E-03  0.2502E+01
   -0.599990   29.88632  0.3391E-14  0.1416E-04  0.4254E-07  0.1409E-02  0.2717E-03  0.2505E+01
   -0.649991   29.88698  0.3391E-14  0.1433E-04  0.4172E-07  0.1474E-02  0.2552E-03  0.2541E+01
   -0.699992   29.88759  0.3391E-14  0.1448E-04  0.4102E-07  0.1531E-02  0.2401E-03  0.2600E+01
   -0.749993   29.88818  0.3391E-14  0.1461E-04  0.4044E-07  0.1581E-02  0.2262E-03  0.2690E+01
   -0.799995   29.88874  0.3391E-14  0.1472E-04  0.3996E-07  0.1623E-02  0.2133E-03  0.2804E+01
   -0.849996   29.88928  0.3391E-14  0.1480E-04  0.3957E-07  0.1658E-02  0.2012E-03  0.2952E+01
   -0.899998   29.88980  0.3391E-14  0.1487E-04  0.3927E-07  0.1686E-02  0.1899E-03  0.3131E+01
   -0.950000   29.89031  0.3391E-14  0.1491E-04  0.3907E-07  0.1705E-02  0.1792E-03  0.3354E+01
   -1.000002   29.89081  0.3391E-14  0.1494E-04  0.3895E-07  0.1717E-02  0.1691E-03  0.3621E+01
   -1.050003   29.89130  0.3391E-14  0.1494E-04  0.3892E-07  0.1720E-02  0.1596E-03  0.4110E+01
   -1.100005   29.89179  0.3391E-14  0.1493E-04  0.3899E-07  0.1797E-02  0.1505E-03  0.1377E+02
   -1.150007   29.89226  0.3391E-14  0.1489E-04  0.3918E-07  0.1653E-02  0.1424E-03  0.3027E+02
   -1.200008   29.89276  0.3391E-14  0.1483E-04  0.3947E-07  0.1670E-02  0.1340E-03  0.5898E+01
   -1.250010   29.89325  0.3391E-14  0.1475E-04  0.3992E-07  0.1641E-02  0.1260E-03  0.6290E+01
   -1.300011   29.89375  0.3391E-14  0.1465E-04  0.4055E-07  0.1596E-02  0.1183E-03  0.7338E+01
   -1.350012   29.89427  0.3391E-14  0.1451E-04  0.4139E-07  0.1540E-02  0.1109E-03  0.8744E+01
   -1.400013   29.89480  0.3391E-14  0.1435E-04  0.4253E-07  0.1469E-02  0.1036E-03  0.1072E+02
   -1.450014   29.89535  0.3391E-14  0.1415E-04  0.4406E-07  0.1394E-02  0.9651E-04  0.1355E+02
   -1.500015   29.89594  0.3391E-14  0.1390E-04  0.4617E-07  0.1289E-02  0.8955E-04  0.1810E+02
   -1.550015   29.89657  0.3391E-14  0.1359E-04  0.4912E-07  0.1204E-02  0.8260E-04  0.2528E+02
   -1.600015   29.89726  0.3391E-14  0.1321E-04  0.5352E-07  0.1066E-02  0.7579E-04  0.4259E+02
   -1.650015   29.89807  0.3391E-14  0.1273E-04  0.6025E-07  0.9854E-03  0.6861E-04  0.1843E+03
   -1.700015   29.89898  0.3391E-14  0.1207E-04  0.7234E-07  0.8114E-03  0.6165E-04 -0.2892E+03
   -1.750014   29.90051  0.3391E-14  0.1117E-04  0.9248E-07  0.7271E-03  0.5262E-04  0.4019E+05
   -1.800013   29.90196  0.3391E-14  0.9925E-05  0.1338E-06  0.5128E-03  0.4512E-04  0.5955E+04
   -1.850011   29.90688  0.3391E-14  0.8472E-05  0.2111E-06  0.4639E-03  0.3287E-04  0.1162E+07
   -1.900009   29.90659  0.3391E-14  0.6717E-05  0.4416E-06  0.2094E-03  0.2654E-04  0.1095E+07
   -1.950006   29.92338  0.3391E-14  0.4643E-05  0.1123E-05  0.1738E-03  0.1445E-04 -0.6322E+06
   -2.000003   29.92585  0.3391E-14  0.0000E+00  0.0000E+00  0.0000E+00  0.2545E-04  0.0000E+00
