 1 - depth, m
 2 - temperature, C
 3 - salinity, kg/kg
 4 - turbulent kinetic energy, m**2/s**2
 5 - dissipation rate, m**2/s**3
 6 - kinematic heat conductance, m**2/s
 7 - modulus of horizontal velocity, m/s
 8 - Richardson number, n/d
   -0.000000   30.12751  0.1560E-14  0.4662E-05  0.2833E-06  0.4789E-04  0.9433E-03  0.3066E+04
   -0.049997   30.15842  0.1560E-14  0.8132E-05  0.1258E-06  0.1837E-03  0.5254E-03  0.6263E+02
   -0.099994   30.16934  0.1560E-14  0.9839E-05  0.8753E-07  0.4000E-03  0.3883E-03  0.5194E+02
   -0.149992   30.17246  0.1560E-14  0.1092E-04  0.7375E-07  0.4846E-03  0.3432E-03  0.2560E+02
   -0.199991   30.17494  0.1560E-14  0.1175E-04  0.6564E-07  0.6439E-03  0.3068E-03  0.1654E+02
   -0.249989   30.17675  0.1560E-14  0.1242E-04  0.6032E-07  0.7682E-03  0.2794E-03  0.1226E+02
   -0.299989   30.17823  0.1560E-14  0.1297E-04  0.5652E-07  0.8922E-03  0.2566E-03  0.9792E+01
   -0.349988   30.17948  0.1560E-14  0.1342E-04  0.5368E-07  0.1004E-02  0.2370E-03  0.8390E+01
   -0.399988   30.18056  0.1560E-14  0.1380E-04  0.5146E-07  0.1107E-02  0.2197E-03  0.7495E+01
   -0.449988   30.18151  0.1560E-14  0.1413E-04  0.4966E-07  0.1202E-02  0.2045E-03  0.7042E+01
   -0.499988   30.18238  0.1560E-14  0.1442E-04  0.4817E-07  0.1289E-02  0.1910E-03  0.6864E+01
   -0.549989   30.18317  0.1560E-14  0.1466E-04  0.4693E-07  0.1369E-02  0.1789E-03  0.6775E+01
   -0.599990   30.18391  0.1560E-14  0.1488E-04  0.4589E-07  0.1441E-02  0.1679E-03  0.6792E+01
   -0.649991   30.18460  0.1560E-14  0.1506E-04  0.4501E-07  0.1506E-02  0.1579E-03  0.6880E+01
   -0.699992   30.18524  0.1560E-14  0.1521E-04  0.4427E-07  0.1563E-02  0.1488E-03  0.7051E+01
   -0.749993   30.18586  0.1560E-14  0.1534E-04  0.4365E-07  0.1613E-02  0.1403E-03  0.7285E+01
   -0.799995   30.18645  0.1560E-14  0.1545E-04  0.4314E-07  0.1655E-02  0.1324E-03  0.7608E+01
   -0.849996   30.18702  0.1560E-14  0.1553E-04  0.4274E-07  0.1689E-02  0.1250E-03  0.8002E+01
   -0.899998   30.18757  0.1560E-14  0.1560E-04  0.4243E-07  0.1716E-02  0.1181E-03  0.8507E+01
   -0.950000   30.18811  0.1560E-14  0.1564E-04  0.4222E-07  0.1734E-02  0.1116E-03  0.9109E+01
   -1.000001   30.18863  0.1560E-14  0.1566E-04  0.4210E-07  0.1744E-02  0.1054E-03  0.9863E+01
   -1.050003   30.18915  0.1560E-14  0.1565E-04  0.4209E-07  0.1744E-02  0.9954E-04  0.1118E+02
   -1.100005   30.18967  0.1560E-14  0.1563E-04  0.4219E-07  0.1832E-02  0.9396E-04  0.3709E+02
   -1.150006   30.19016  0.1560E-14  0.1558E-04  0.4242E-07  0.1657E-02  0.8899E-04  0.8478E+02
   -1.200008   30.19070  0.1560E-14  0.1552E-04  0.4277E-07  0.1684E-02  0.8380E-04  0.1625E+02
   -1.250010   30.19122  0.1560E-14  0.1542E-04  0.4330E-07  0.1653E-02  0.7885E-04  0.1739E+02
   -1.300011   30.19176  0.1560E-14  0.1530E-04  0.4403E-07  0.1603E-02  0.7408E-04  0.2037E+02
   -1.350012   30.19230  0.1560E-14  0.1514E-04  0.4501E-07  0.1544E-02  0.6946E-04  0.2449E+02
   -1.400013   30.19287  0.1560E-14  0.1495E-04  0.4635E-07  0.1466E-02  0.6496E-04  0.3031E+02
   -1.450014   30.19347  0.1560E-14  0.1472E-04  0.4816E-07  0.1389E-02  0.6053E-04  0.3884E+02
   -1.500015   30.19410  0.1560E-14  0.1443E-04  0.5067E-07  0.1276E-02  0.5619E-04  0.5294E+02
   -1.550015   30.19480  0.1560E-14  0.1408E-04  0.5422E-07  0.1193E-02  0.5181E-04  0.7588E+02
   -1.600015   30.19555  0.1560E-14  0.1365E-04  0.5967E-07  0.1050E-02  0.4753E-04  0.1447E+03
   -1.650015   30.19647  0.1560E-14  0.1308E-04  0.6815E-07  0.9724E-03  0.4292E-04  0.4293E+05
   -1.700014   30.19751  0.1560E-14  0.1230E-04  0.8342E-07  0.7895E-03  0.3841E-04 -0.1003E+05
   -1.750013   30.19939  0.1560E-14  0.1127E-04  0.1085E-06  0.7135E-03  0.3233E-04  0.2391E+06
   -1.800012   30.20095  0.1560E-14  0.9879E-05  0.1624E-06  0.4897E-03  0.2769E-04  0.9044E+06
   -1.850010   30.20744  0.1560E-14  0.8358E-05  0.2621E-06  0.4566E-03  0.1952E-04  0.9205E+08
   -1.900008   30.20589  0.1560E-14  0.6634E-05  0.5464E-06  0.2074E-03  0.1592E-04 -0.1498E+07
   -1.950006   30.22563  0.1560E-14  0.4651E-05  0.1361E-05  0.1906E-03  0.8466E-05 -0.3201E+07
   -2.000003   30.22697  0.1560E-14  0.0000E+00  0.0000E+00  0.0000E+00  0.1601E-04  0.0000E+00
