 1 - depth, m
 2 - temperature, C
 3 - salinity, kg/kg
 4 - turbulent kinetic energy, m**2/s**2
 5 - dissipation rate, m**2/s**3
 6 - kinematic heat conductance, m**2/s
 7 - modulus of horizontal velocity, m/s
 8 - Richardson number, n/d
   -0.000000   31.34231  0.1386E-14  0.5141E-05  0.3333E-06  0.5257E-04  0.1580E-02  0.8815E+04
   -0.049997   31.37388  0.1386E-14  0.8765E-05  0.1487E-06  0.1803E-03  0.9097E-03  0.4632E+04
   -0.099994   31.38638  0.1386E-14  0.1065E-04  0.1019E-06  0.4084E-03  0.6664E-03  0.1924E+02
   -0.149992   31.38978  0.1386E-14  0.1184E-04  0.8537E-07  0.4887E-03  0.5892E-03  0.9465E+01
   -0.199991   31.39251  0.1386E-14  0.1276E-04  0.7570E-07  0.6569E-03  0.5264E-03  0.6040E+01
   -0.249989   31.39447  0.1386E-14  0.1349E-04  0.6939E-07  0.7852E-03  0.4797E-03  0.4452E+01
   -0.299988   31.39607  0.1386E-14  0.1409E-04  0.6492E-07  0.9145E-03  0.4408E-03  0.3539E+01
   -0.349988   31.39741  0.1386E-14  0.1459E-04  0.6157E-07  0.1031E-02  0.4075E-03  0.3021E+01
   -0.399987   31.39857  0.1386E-14  0.1500E-04  0.5897E-07  0.1138E-02  0.3781E-03  0.2691E+01
   -0.449988   31.39960  0.1386E-14  0.1536E-04  0.5686E-07  0.1237E-02  0.3523E-03  0.2522E+01
   -0.499988   31.40053  0.1386E-14  0.1567E-04  0.5513E-07  0.1328E-02  0.3294E-03  0.2451E+01
   -0.549988   31.40138  0.1386E-14  0.1594E-04  0.5368E-07  0.1411E-02  0.3088E-03  0.2415E+01
   -0.599989   31.40217  0.1386E-14  0.1617E-04  0.5246E-07  0.1486E-02  0.2903E-03  0.2416E+01
   -0.649990   31.40290  0.1386E-14  0.1636E-04  0.5144E-07  0.1553E-02  0.2733E-03  0.2443E+01
   -0.699991   31.40359  0.1386E-14  0.1653E-04  0.5058E-07  0.1612E-02  0.2577E-03  0.2499E+01
   -0.749993   31.40425  0.1386E-14  0.1667E-04  0.4986E-07  0.1663E-02  0.2433E-03  0.2579E+01
   -0.799994   31.40488  0.1386E-14  0.1678E-04  0.4928E-07  0.1707E-02  0.2299E-03  0.2689E+01
   -0.849996   31.40549  0.1386E-14  0.1687E-04  0.4881E-07  0.1742E-02  0.2174E-03  0.2827E+01
   -0.899997   31.40608  0.1386E-14  0.1694E-04  0.4846E-07  0.1768E-02  0.2056E-03  0.3002E+01
   -0.949999   31.40665  0.1386E-14  0.1698E-04  0.4823E-07  0.1786E-02  0.1944E-03  0.3215E+01
   -1.000001   31.40721  0.1386E-14  0.1699E-04  0.4810E-07  0.1796E-02  0.1839E-03  0.3478E+01
   -1.050002   31.40777  0.1386E-14  0.1699E-04  0.4810E-07  0.1794E-02  0.1739E-03  0.3944E+01
   -1.100004   31.40833  0.1386E-14  0.1696E-04  0.4823E-07  0.1894E-02  0.1643E-03  0.1293E+02
   -1.150006   31.40885  0.1386E-14  0.1690E-04  0.4852E-07  0.1691E-02  0.1559E-03  0.3049E+02
   -1.200007   31.40943  0.1386E-14  0.1682E-04  0.4895E-07  0.1726E-02  0.1469E-03  0.5777E+01
   -1.250009   31.40999  0.1386E-14  0.1671E-04  0.4959E-07  0.1694E-02  0.1384E-03  0.6174E+01
   -1.300010   31.41057  0.1386E-14  0.1657E-04  0.5047E-07  0.1640E-02  0.1302E-03  0.7274E+01
   -1.350011   31.41116  0.1386E-14  0.1639E-04  0.5168E-07  0.1577E-02  0.1222E-03  0.8779E+01
   -1.400012   31.41178  0.1386E-14  0.1617E-04  0.5331E-07  0.1494E-02  0.1144E-03  0.1099E+02
   -1.450013   31.41243  0.1386E-14  0.1591E-04  0.5554E-07  0.1413E-02  0.1067E-03  0.1421E+02
   -1.500013   31.41312  0.1386E-14  0.1558E-04  0.5865E-07  0.1294E-02  0.9919E-04  0.1982E+02
   -1.550014   31.41389  0.1386E-14  0.1518E-04  0.6309E-07  0.1211E-02  0.9155E-04  0.2958E+02
   -1.600014   31.41472  0.1386E-14  0.1467E-04  0.7002E-07  0.1060E-02  0.8405E-04  0.8904E+02
   -1.650014   31.41578  0.1386E-14  0.1401E-04  0.8082E-07  0.9810E-03  0.7583E-04  0.2227E+05
   -1.700013   31.41699  0.1386E-14  0.1311E-04  0.1002E-06  0.7943E-03  0.6773E-04  0.5061E+04
   -1.750012   31.41920  0.1386E-14  0.1196E-04  0.1315E-06  0.7191E-03  0.5683E-04  0.5002E+06
   -1.800011   31.42078  0.1386E-14  0.1045E-04  0.1999E-06  0.4935E-03  0.4885E-04  0.7687E+05
   -1.850009   31.42886  0.1386E-14  0.8813E-05  0.3283E-06  0.4606E-03  0.3414E-04  0.1285E+08
   -1.900007   31.42646  0.1386E-14  0.6972E-05  0.6908E-06  0.2133E-03  0.2783E-04 -0.3346E+05
   -1.950004   31.44924  0.1386E-14  0.4954E-05  0.1674E-05  0.2066E-03  0.1472E-04 -0.1996E+07
   -2.000001   31.44996  0.1386E-14  0.0000E+00  0.0000E+00  0.0000E+00  0.2851E-04  0.0000E+00
