 1 - depth, m
 2 - temperature, C
 3 - salinity, kg/kg
 4 - turbulent kinetic energy, m**2/s**2
 5 - dissipation rate, m**2/s**3
 6 - kinematic heat conductance, m**2/s
 7 - modulus of horizontal velocity, m/s
 8 - Richardson number, n/d
   -0.000000   29.25841  0.1394E-12  0.3615E-05  0.1843E-06  0.4148E-04  0.9383E-03  0.1256E+03
   -0.049997   29.28358  0.1394E-12  0.6324E-05  0.8225E-07  0.1616E-03  0.5153E-03  0.4233E+02
   -0.099994   29.29175  0.1394E-12  0.7585E-05  0.5761E-07  0.3569E-03  0.3769E-03  0.5798E+02
   -0.149992   29.29422  0.1394E-12  0.8367E-05  0.4879E-07  0.4347E-03  0.3316E-03  0.2730E+02
   -0.199991   29.29616  0.1394E-12  0.8969E-05  0.4348E-07  0.5680E-03  0.2952E-03  0.1791E+02
   -0.249990   29.29759  0.1394E-12  0.9447E-05  0.3992E-07  0.6777E-03  0.2675E-03  0.1320E+02
   -0.299989   29.29874  0.1394E-12  0.9835E-05  0.3733E-07  0.7831E-03  0.2444E-03  0.1052E+02
   -0.349988   29.29971  0.1394E-12  0.1016E-04  0.3536E-07  0.8796E-03  0.2245E-03  0.8973E+01
   -0.399988   29.30055  0.1394E-12  0.1042E-04  0.3381E-07  0.9682E-03  0.2069E-03  0.7997E+01
   -0.449988   29.30129  0.1394E-12  0.1065E-04  0.3254E-07  0.1050E-02  0.1914E-03  0.7489E+01
   -0.499988   29.30195  0.1394E-12  0.1085E-04  0.3147E-07  0.1127E-02  0.1777E-03  0.7301E+01
   -0.549989   29.30255  0.1394E-12  0.1102E-04  0.3057E-07  0.1197E-02  0.1655E-03  0.7186E+01
   -0.599990   29.30311  0.1394E-12  0.1117E-04  0.2981E-07  0.1260E-02  0.1546E-03  0.7207E+01
   -0.649991   29.30362  0.1394E-12  0.1130E-04  0.2915E-07  0.1318E-02  0.1446E-03  0.7278E+01
   -0.699992   29.30411  0.1394E-12  0.1141E-04  0.2859E-07  0.1370E-02  0.1354E-03  0.7463E+01
   -0.749994   29.30456  0.1394E-12  0.1150E-04  0.2812E-07  0.1416E-02  0.1270E-03  0.7686E+01
   -0.799995   29.30500  0.1394E-12  0.1157E-04  0.2772E-07  0.1455E-02  0.1192E-03  0.8030E+01
   -0.849997   29.30541  0.1394E-12  0.1163E-04  0.2739E-07  0.1488E-02  0.1120E-03  0.8416E+01
   -0.899998   29.30582  0.1394E-12  0.1168E-04  0.2712E-07  0.1515E-02  0.1052E-03  0.8946E+01
   -0.950000   29.30621  0.1394E-12  0.1171E-04  0.2692E-07  0.1536E-02  0.9889E-04  0.9538E+01
   -1.000002   29.30659  0.1394E-12  0.1173E-04  0.2678E-07  0.1549E-02  0.9292E-04  0.1032E+02
   -1.050004   29.30696  0.1394E-12  0.1174E-04  0.2670E-07  0.1556E-02  0.8729E-04  0.1169E+02
   -1.100005   29.30733  0.1394E-12  0.1173E-04  0.2669E-07  0.1606E-02  0.8195E-04  0.4005E+02
   -1.150007   29.30768  0.1394E-12  0.1171E-04  0.2675E-07  0.1532E-02  0.7713E-04  0.8383E+02
   -1.200009   29.30805  0.1394E-12  0.1167E-04  0.2688E-07  0.1528E-02  0.7238E-04  0.1655E+02
   -1.250010   29.30842  0.1394E-12  0.1162E-04  0.2711E-07  0.1506E-02  0.6775E-04  0.1764E+02
   -1.300012   29.30879  0.1394E-12  0.1155E-04  0.2744E-07  0.1472E-02  0.6333E-04  0.2037E+02
   -1.350013   29.30917  0.1394E-12  0.1147E-04  0.2791E-07  0.1428E-02  0.5907E-04  0.2413E+02
   -1.400014   29.30956  0.1394E-12  0.1136E-04  0.2853E-07  0.1374E-02  0.5496E-04  0.2908E+02
   -1.450015   29.30996  0.1394E-12  0.1123E-04  0.2938E-07  0.1310E-02  0.5098E-04  0.3623E+02
   -1.500015   29.31039  0.1394E-12  0.1107E-04  0.3052E-07  0.1229E-02  0.4711E-04  0.4673E+02
   -1.550016   29.31084  0.1394E-12  0.1088E-04  0.3208E-07  0.1148E-02  0.4330E-04  0.6325E+02
   -1.600016   29.31133  0.1394E-12  0.1064E-04  0.3430E-07  0.1032E-02  0.3957E-04  0.9318E+02
   -1.650016   29.31187  0.1394E-12  0.1035E-04  0.3755E-07  0.9488E-03  0.3581E-04  0.1518E+03
   -1.700015   29.31247  0.1394E-12  0.9963E-05  0.4306E-07  0.7922E-03  0.3217E-04  0.9097E+05
   -1.750014   29.31332  0.1394E-12  0.9429E-05  0.5242E-07  0.7129E-03  0.2799E-04  0.2144E+07
   -1.800013   29.31427  0.1394E-12  0.8640E-05  0.7147E-07  0.5118E-03  0.2413E-04  0.2038E+06
   -1.850011   29.31666  0.1394E-12  0.7547E-05  0.1074E-06  0.4472E-03  0.1850E-04  0.1687E+07
   -1.900009   29.31747  0.1394E-12  0.6046E-05  0.2135E-06  0.2045E-03  0.1470E-04 -0.4568E+05
   -1.950007   29.32735  0.1394E-12  0.4001E-05  0.5752E-06  0.1279E-03  0.8275E-05 -0.3082E+07
   -2.000004   29.33252  0.1394E-12  0.0000E+00  0.0000E+00  0.0000E+00  0.1272E-04  0.0000E+00
