 1 - depth, m
 2 - temperature, C
 3 - salinity, kg/kg
 4 - turbulent kinetic energy, m**2/s**2
 5 - dissipation rate, m**2/s**3
 6 - kinematic heat conductance, m**2/s
 7 - modulus of horizontal velocity, m/s
 8 - Richardson number, n/d
   -0.000000   30.10261  0.2220E-13  0.4339E-05  0.2552E-06  0.4704E-04  0.5571E-03  0.1191E+06
   -0.049997   30.13051  0.2220E-13  0.7713E-05  0.1129E-06  0.1780E-03  0.3110E-03  0.7012E+02
   -0.099994   30.14055  0.2220E-13  0.9344E-05  0.7849E-07  0.4066E-03  0.2262E-03  0.1350E+03
   -0.149992   30.14329  0.2220E-13  0.1036E-04  0.6651E-07  0.4826E-03  0.2003E-03  0.6619E+02
   -0.199991   30.14552  0.2220E-13  0.1116E-04  0.5943E-07  0.6421E-03  0.1790E-03  0.4345E+02
   -0.249989   30.14715  0.2220E-13  0.1180E-04  0.5478E-07  0.7658E-03  0.1630E-03  0.3243E+02
   -0.299989   30.14848  0.2220E-13  0.1233E-04  0.5146E-07  0.8881E-03  0.1497E-03  0.2605E+02
   -0.349988   30.14961  0.2220E-13  0.1277E-04  0.4899E-07  0.9991E-03  0.1382E-03  0.2242E+02
   -0.399988   30.15060  0.2220E-13  0.1315E-04  0.4707E-07  0.1101E-02  0.1281E-03  0.2008E+02
   -0.449988   30.15148  0.2220E-13  0.1348E-04  0.4553E-07  0.1195E-02  0.1192E-03  0.1892E+02
   -0.499988   30.15227  0.2220E-13  0.1377E-04  0.4426E-07  0.1282E-02  0.1113E-03  0.1846E+02
   -0.549989   30.15300  0.2220E-13  0.1402E-04  0.4321E-07  0.1362E-02  0.1042E-03  0.1827E+02
   -0.599990   30.15367  0.2220E-13  0.1424E-04  0.4235E-07  0.1434E-02  0.9776E-04  0.1833E+02
   -0.649991   30.15431  0.2220E-13  0.1444E-04  0.4163E-07  0.1499E-02  0.9192E-04  0.1863E+02
   -0.699992   30.15491  0.2220E-13  0.1461E-04  0.4105E-07  0.1556E-02  0.8655E-04  0.1912E+02
   -0.749993   30.15548  0.2220E-13  0.1475E-04  0.4057E-07  0.1607E-02  0.8158E-04  0.1984E+02
   -0.799995   30.15603  0.2220E-13  0.1488E-04  0.4020E-07  0.1649E-02  0.7697E-04  0.2075E+02
   -0.849996   30.15656  0.2220E-13  0.1498E-04  0.3992E-07  0.1684E-02  0.7266E-04  0.2192E+02
   -0.899998   30.15707  0.2220E-13  0.1507E-04  0.3974E-07  0.1712E-02  0.6861E-04  0.2334E+02
   -0.950000   30.15758  0.2220E-13  0.1513E-04  0.3965E-07  0.1731E-02  0.6480E-04  0.2510E+02
   -1.000001   30.15808  0.2220E-13  0.1518E-04  0.3964E-07  0.1743E-02  0.6120E-04  0.2722E+02
   -1.050003   30.15858  0.2220E-13  0.1521E-04  0.3974E-07  0.1745E-02  0.5778E-04  0.3105E+02
   -1.100005   30.15907  0.2220E-13  0.1521E-04  0.3993E-07  0.1822E-02  0.5452E-04  0.1042E+03
   -1.150006   30.15954  0.2220E-13  0.1520E-04  0.4025E-07  0.1677E-02  0.5160E-04  0.2302E+03
   -1.200008   30.16005  0.2220E-13  0.1517E-04  0.4068E-07  0.1693E-02  0.4860E-04  0.4511E+02
   -1.250010   30.16056  0.2220E-13  0.1511E-04  0.4128E-07  0.1663E-02  0.4572E-04  0.4845E+02
   -1.300011   30.16108  0.2220E-13  0.1502E-04  0.4206E-07  0.1617E-02  0.4295E-04  0.5689E+02
   -1.350012   30.16161  0.2220E-13  0.1491E-04  0.4308E-07  0.1560E-02  0.4026E-04  0.6816E+02
   -1.400013   30.16217  0.2220E-13  0.1476E-04  0.4442E-07  0.1488E-02  0.3765E-04  0.8422E+02
   -1.450014   30.16276  0.2220E-13  0.1458E-04  0.4618E-07  0.1412E-02  0.3509E-04  0.1071E+03
   -1.500015   30.16338  0.2220E-13  0.1434E-04  0.4856E-07  0.1307E-02  0.3257E-04  0.1447E+03
   -1.550015   30.16406  0.2220E-13  0.1405E-04  0.5185E-07  0.1222E-02  0.3006E-04  0.2045E+03
   -1.600015   30.16480  0.2220E-13  0.1368E-04  0.5674E-07  0.1083E-02  0.2759E-04  0.3652E+03
   -1.650015   30.16569  0.2220E-13  0.1321E-04  0.6414E-07  0.9991E-03  0.2498E-04  0.8593E+03
   -1.700014   30.16669  0.2220E-13  0.1255E-04  0.7723E-07  0.8212E-03  0.2244E-04 -0.5319E+05
   -1.750013   30.16841  0.2220E-13  0.1165E-04  0.9884E-07  0.7375E-03  0.1916E-04  0.1853E+08
   -1.800012   30.16998  0.2220E-13  0.1043E-04  0.1437E-06  0.5230E-03  0.1646E-04  0.1285E+06
   -1.850010   30.17547  0.2220E-13  0.9015E-05  0.2271E-06  0.4729E-03  0.1216E-04  0.6933E+08
   -1.900008   30.17503  0.2220E-13  0.7244E-05  0.4690E-06  0.2194E-03  0.9848E-05  0.5865E+07
   -1.950006   30.19336  0.2220E-13  0.5007E-05  0.1181E-05  0.1731E-03  0.5502E-05 -0.4963E+05
   -2.000003   30.19709  0.2220E-13  0.0000E+00  0.0000E+00  0.0000E+00  0.9323E-05  0.0000E+00
