 1 - depth, m
 2 - temperature, C
 3 - salinity, kg/kg
 4 - turbulent kinetic energy, m**2/s**2
 5 - dissipation rate, m**2/s**3
 6 - kinematic heat conductance, m**2/s
 7 - modulus of horizontal velocity, m/s
 8 - Richardson number, n/d
   -0.000000   29.81297  0.4304E-14  0.4564E-05  0.2742E-06  0.4925E-04  0.1670E-02  0.6276E+04
   -0.049997   29.84141  0.4304E-14  0.7803E-05  0.1222E-06  0.1719E-03  0.9531E-03  0.1941E+04
   -0.099994   29.85248  0.4304E-14  0.9469E-05  0.8396E-07  0.3902E-03  0.6948E-03  0.1654E+02
   -0.149992   29.85553  0.4304E-14  0.1051E-04  0.7049E-07  0.4695E-03  0.6131E-03  0.8040E+01
   -0.199991   29.85797  0.4304E-14  0.1132E-04  0.6260E-07  0.6266E-03  0.5469E-03  0.5168E+01
   -0.249989   29.85974  0.4304E-14  0.1196E-04  0.5743E-07  0.7495E-03  0.4973E-03  0.3810E+01
   -0.299989   29.86118  0.4304E-14  0.1249E-04  0.5374E-07  0.8715E-03  0.4560E-03  0.3031E+01
   -0.349988   29.86240  0.4304E-14  0.1293E-04  0.5097E-07  0.9824E-03  0.4207E-03  0.2592E+01
   -0.399988   29.86345  0.4304E-14  0.1330E-04  0.4882E-07  0.1084E-02  0.3895E-03  0.2309E+01
   -0.449988   29.86438  0.4304E-14  0.1362E-04  0.4708E-07  0.1178E-02  0.3620E-03  0.2168E+01
   -0.499988   29.86522  0.4304E-14  0.1389E-04  0.4563E-07  0.1265E-02  0.3378E-03  0.2110E+01
   -0.549989   29.86598  0.4304E-14  0.1413E-04  0.4442E-07  0.1345E-02  0.3161E-03  0.2081E+01
   -0.599990   29.86670  0.4304E-14  0.1434E-04  0.4340E-07  0.1417E-02  0.2964E-03  0.2083E+01
   -0.649991   29.86736  0.4304E-14  0.1452E-04  0.4254E-07  0.1482E-02  0.2786E-03  0.2109E+01
   -0.699992   29.86799  0.4304E-14  0.1467E-04  0.4182E-07  0.1540E-02  0.2621E-03  0.2156E+01
   -0.749993   29.86858  0.4304E-14  0.1480E-04  0.4121E-07  0.1591E-02  0.2470E-03  0.2227E+01
   -0.799995   29.86915  0.4304E-14  0.1491E-04  0.4070E-07  0.1634E-02  0.2329E-03  0.2318E+01
   -0.849996   29.86969  0.4304E-14  0.1499E-04  0.4029E-07  0.1670E-02  0.2198E-03  0.2436E+01
   -0.899998   29.87022  0.4304E-14  0.1505E-04  0.3997E-07  0.1698E-02  0.2074E-03  0.2580E+01
   -0.950000   29.87074  0.4304E-14  0.1510E-04  0.3974E-07  0.1718E-02  0.1959E-03  0.2758E+01
   -1.000002   29.87124  0.4304E-14  0.1512E-04  0.3961E-07  0.1731E-02  0.1849E-03  0.2972E+01
   -1.050003   29.87174  0.4304E-14  0.1513E-04  0.3956E-07  0.1734E-02  0.1745E-03  0.3364E+01
   -1.100005   29.87223  0.4304E-14  0.1511E-04  0.3961E-07  0.1810E-02  0.1646E-03  0.1129E+02
   -1.150007   29.87270  0.4304E-14  0.1507E-04  0.3978E-07  0.1670E-02  0.1557E-03  0.2450E+02
   -1.200008   29.87320  0.4304E-14  0.1502E-04  0.4006E-07  0.1686E-02  0.1467E-03  0.4788E+01
   -1.250010   29.87370  0.4304E-14  0.1494E-04  0.4048E-07  0.1658E-02  0.1380E-03  0.5095E+01
   -1.300011   29.87420  0.4304E-14  0.1483E-04  0.4109E-07  0.1614E-02  0.1296E-03  0.5918E+01
   -1.350012   29.87471  0.4304E-14  0.1470E-04  0.4191E-07  0.1558E-02  0.1215E-03  0.7028E+01
   -1.400013   29.87524  0.4304E-14  0.1453E-04  0.4302E-07  0.1488E-02  0.1136E-03  0.8568E+01
   -1.450014   29.87580  0.4304E-14  0.1433E-04  0.4452E-07  0.1413E-02  0.1058E-03  0.1077E+02
   -1.500015   29.87638  0.4304E-14  0.1408E-04  0.4657E-07  0.1309E-02  0.9827E-04  0.1426E+02
   -1.550015   29.87701  0.4304E-14  0.1378E-04  0.4944E-07  0.1222E-02  0.9072E-04  0.1972E+02
   -1.600015   29.87769  0.4304E-14  0.1340E-04  0.5368E-07  0.1083E-02  0.8330E-04  0.3185E+02
   -1.650015   29.87848  0.4304E-14  0.1293E-04  0.6014E-07  0.1002E-02  0.7556E-04  0.9969E+02
   -1.700015   29.87937  0.4304E-14  0.1229E-04  0.7167E-07  0.8231E-03  0.6799E-04 -0.9425E+04
   -1.750014   29.88083  0.4304E-14  0.1141E-04  0.9077E-07  0.7457E-03  0.5839E-04  0.1886E+05
   -1.800012   29.88222  0.4304E-14  0.1018E-04  0.1302E-06  0.5240E-03  0.5029E-04  0.4977E+04
   -1.850011   29.88686  0.4304E-14  0.8706E-05  0.2043E-06  0.4749E-03  0.3700E-04  0.6720E+07
   -1.900009   29.88688  0.4304E-14  0.6874E-05  0.4171E-06  0.2107E-03  0.2985E-04 -0.3398E+06
   -1.950006   29.90319  0.4304E-14  0.4729E-05  0.1080E-05  0.1708E-03  0.1628E-04 -0.2215E+07
   -2.000003   29.90577  0.4304E-14  0.0000E+00  0.0000E+00  0.0000E+00  0.2804E-04  0.0000E+00
