 1 - depth, m
 2 - temperature, C
 3 - salinity, kg/kg
 4 - turbulent kinetic energy, m**2/s**2
 5 - dissipation rate, m**2/s**3
 6 - kinematic heat conductance, m**2/s
 7 - modulus of horizontal velocity, m/s
 8 - Richardson number, n/d
   -0.000000   30.46323  0.8737E-13  0.4965E-05  0.3133E-06  0.5088E-04  0.1500E-02  0.8291E+04
   -0.049997   30.49504  0.8738E-13  0.8484E-05  0.1397E-06  0.1797E-03  0.8561E-03  0.3739E+04
   -0.099994   30.50716  0.8738E-13  0.1029E-04  0.9608E-07  0.4015E-03  0.6280E-03  0.2257E+02
   -0.149992   30.51053  0.8738E-13  0.1142E-04  0.8053E-07  0.4834E-03  0.5546E-03  0.1109E+02
   -0.199990   30.51321  0.8738E-13  0.1230E-04  0.7142E-07  0.6468E-03  0.4952E-03  0.7090E+01
   -0.249989   30.51515  0.8738E-13  0.1299E-04  0.6546E-07  0.7731E-03  0.4508E-03  0.5237E+01
   -0.299988   30.51672  0.8738E-13  0.1356E-04  0.6121E-07  0.8997E-03  0.4140E-03  0.4157E+01
   -0.349988   30.51804  0.8738E-13  0.1403E-04  0.5802E-07  0.1014E-02  0.3823E-03  0.3559E+01
   -0.399987   30.51918  0.8738E-13  0.1443E-04  0.5554E-07  0.1119E-02  0.3544E-03  0.3161E+01
   -0.449987   30.52019  0.8738E-13  0.1477E-04  0.5352E-07  0.1216E-02  0.3299E-03  0.2971E+01
   -0.499988   30.52110  0.8738E-13  0.1506E-04  0.5185E-07  0.1306E-02  0.3082E-03  0.2878E+01
   -0.549988   30.52193  0.8738E-13  0.1531E-04  0.5046E-07  0.1387E-02  0.2887E-03  0.2844E+01
   -0.599989   30.52270  0.8738E-13  0.1553E-04  0.4928E-07  0.1462E-02  0.2711E-03  0.2834E+01
   -0.649990   30.52342  0.8738E-13  0.1572E-04  0.4829E-07  0.1528E-02  0.2550E-03  0.2875E+01
   -0.699991   30.52409  0.8738E-13  0.1588E-04  0.4745E-07  0.1587E-02  0.2403E-03  0.2928E+01
   -0.749993   30.52473  0.8738E-13  0.1601E-04  0.4675E-07  0.1638E-02  0.2266E-03  0.3033E+01
   -0.799994   30.52534  0.8738E-13  0.1612E-04  0.4617E-07  0.1682E-02  0.2140E-03  0.3147E+01
   -0.849996   30.52593  0.8738E-13  0.1620E-04  0.4570E-07  0.1718E-02  0.2021E-03  0.3321E+01
   -0.899997   30.52650  0.8738E-13  0.1627E-04  0.4534E-07  0.1745E-02  0.1910E-03  0.3505E+01
   -0.949999   30.52706  0.8738E-13  0.1631E-04  0.4509E-07  0.1765E-02  0.1805E-03  0.3768E+01
   -1.000000   30.52760  0.8738E-13  0.1633E-04  0.4494E-07  0.1776E-02  0.1706E-03  0.4050E+01
   -1.050002   30.52814  0.8738E-13  0.1632E-04  0.4490E-07  0.1777E-02  0.1612E-03  0.4609E+01
   -1.100004   30.52867  0.8738E-13  0.1630E-04  0.4498E-07  0.1864E-02  0.1522E-03  0.1520E+02
   -1.150005   30.52918  0.8738E-13  0.1625E-04  0.4520E-07  0.1693E-02  0.1442E-03  0.3461E+02
   -1.200007   30.52973  0.8738E-13  0.1618E-04  0.4555E-07  0.1719E-02  0.1359E-03  0.6671E+01
   -1.250008   30.53027  0.8738E-13  0.1608E-04  0.4609E-07  0.1689E-02  0.1280E-03  0.7081E+01
   -1.300010   30.53082  0.8738E-13  0.1596E-04  0.4684E-07  0.1639E-02  0.1203E-03  0.8335E+01
   -1.350011   30.53138  0.8738E-13  0.1580E-04  0.4787E-07  0.1580E-02  0.1129E-03  0.9941E+01
   -1.400012   30.53196  0.8738E-13  0.1560E-04  0.4926E-07  0.1502E-02  0.1056E-03  0.1237E+02
   -1.450013   30.53258  0.8738E-13  0.1536E-04  0.5116E-07  0.1424E-02  0.9853E-04  0.1573E+02
   -1.500013   30.53323  0.8738E-13  0.1507E-04  0.5379E-07  0.1313E-02  0.9153E-04  0.2154E+02
   -1.550014   30.53394  0.8738E-13  0.1472E-04  0.5752E-07  0.1228E-02  0.8451E-04  0.3086E+02
   -1.600014   30.53471  0.8738E-13  0.1427E-04  0.6327E-07  0.1084E-02  0.7762E-04  0.7940E+02
   -1.650013   30.53566  0.8738E-13  0.1369E-04  0.7223E-07  0.1001E-02  0.7018E-04  0.3157E+04
   -1.700013   30.53674  0.8738E-13  0.1290E-04  0.8793E-07  0.8177E-03  0.6283E-04  0.3463E+05
   -1.750012   30.53861  0.8738E-13  0.1188E-04  0.1135E-06  0.7409E-03  0.5325E-04  0.9961E+05
   -1.800010   30.54013  0.8738E-13  0.1051E-04  0.1680E-06  0.5135E-03  0.4590E-04  0.9212E+04
   -1.850009   30.54665  0.8738E-13  0.8987E-05  0.2715E-06  0.4774E-03  0.3293E-04  0.7001E+07
   -1.900007   30.54523  0.8738E-13  0.7173E-05  0.5602E-06  0.2180E-03  0.2699E-04  0.2078E+06
   -1.950004   30.56521  0.8738E-13  0.5016E-05  0.1397E-05  0.1895E-03  0.1470E-04 -0.9942E+06
   -2.000001   30.56751  0.8738E-13  0.0000E+00  0.0000E+00  0.0000E+00  0.2657E-04  0.0000E+00
