 1 - depth, m
 2 - temperature, C
 3 - salinity, kg/kg
 4 - turbulent kinetic energy, m**2/s**2
 5 - dissipation rate, m**2/s**3
 6 - kinematic heat conductance, m**2/s
 7 - modulus of horizontal velocity, m/s
 8 - Richardson number, n/d
   -0.000000   29.81668  0.5972E-13  0.4741E-05  0.2688E-06  0.4893E-04  0.2495E-02  0.3370E+04
   -0.049997   29.84513  0.5972E-13  0.7905E-05  0.1186E-06  0.1848E-03  0.1359E-02  0.5955E+03
   -0.099994   29.85455  0.5972E-13  0.9431E-05  0.8317E-07  0.3793E-03  0.1032E-02  0.7604E+01
   -0.149992   29.85763  0.5972E-13  0.1042E-04  0.6984E-07  0.4707E-03  0.9109E-03  0.3816E+01
   -0.199991   29.86001  0.5972E-13  0.1119E-04  0.6202E-07  0.6171E-03  0.8154E-03  0.2477E+01
   -0.249989   29.86177  0.5972E-13  0.1181E-04  0.5688E-07  0.7377E-03  0.7427E-03  0.1833E+01
   -0.299989   29.86320  0.5972E-13  0.1231E-04  0.5322E-07  0.8521E-03  0.6822E-03  0.1473E+01
   -0.349988   29.86441  0.5972E-13  0.1274E-04  0.5046E-07  0.9550E-03  0.6300E-03  0.1311E+01
   -0.399988   29.86547  0.5972E-13  0.1310E-04  0.4826E-07  0.1056E-02  0.5828E-03  0.1256E+01
   -0.449988   29.86640  0.5972E-13  0.1343E-04  0.4642E-07  0.1157E-02  0.5397E-03  0.1239E+01
   -0.499988   29.86724  0.5972E-13  0.1372E-04  0.4487E-07  0.1252E-02  0.5007E-03  0.1237E+01
   -0.549989   29.86799  0.5972E-13  0.1398E-04  0.4358E-07  0.1340E-02  0.4657E-03  0.1232E+01
   -0.599990   29.86869  0.5972E-13  0.1419E-04  0.4249E-07  0.1419E-02  0.4339E-03  0.1229E+01
   -0.649991   29.86933  0.5972E-13  0.1438E-04  0.4157E-07  0.1491E-02  0.4051E-03  0.1224E+01
   -0.699992   29.86994  0.5972E-13  0.1453E-04  0.4081E-07  0.1552E-02  0.3790E-03  0.1222E+01
   -0.749993   29.87051  0.5972E-13  0.1466E-04  0.4019E-07  0.1605E-02  0.3553E-03  0.1221E+01
   -0.799995   29.87106  0.5972E-13  0.1476E-04  0.3968E-07  0.1648E-02  0.3337E-03  0.1227E+01
   -0.849996   29.87159  0.5972E-13  0.1484E-04  0.3928E-07  0.1681E-02  0.3140E-03  0.1240E+01
   -0.899998   29.87210  0.5972E-13  0.1489E-04  0.3898E-07  0.1706E-02  0.2959E-03  0.1275E+01
   -0.950000   29.87260  0.5972E-13  0.1492E-04  0.3877E-07  0.1723E-02  0.2793E-03  0.1338E+01
   -1.000002   29.87309  0.5972E-13  0.1494E-04  0.3864E-07  0.1732E-02  0.2636E-03  0.1436E+01
   -1.050003   29.87357  0.5972E-13  0.1493E-04  0.3861E-07  0.1731E-02  0.2489E-03  0.1626E+01
   -1.100005   29.87405  0.5972E-13  0.1490E-04  0.3868E-07  0.1818E-02  0.2348E-03  0.5399E+01
   -1.150007   29.87450  0.5972E-13  0.1486E-04  0.3886E-07  0.1647E-02  0.2223E-03  0.1223E+02
   -1.200008   29.87500  0.5972E-13  0.1479E-04  0.3915E-07  0.1674E-02  0.2093E-03  0.2348E+01
   -1.250010   29.87548  0.5972E-13  0.1470E-04  0.3960E-07  0.1643E-02  0.1968E-03  0.2502E+01
   -1.300011   29.87597  0.5972E-13  0.1458E-04  0.4022E-07  0.1595E-02  0.1848E-03  0.2921E+01
   -1.350012   29.87647  0.5972E-13  0.1443E-04  0.4107E-07  0.1538E-02  0.1732E-03  0.3493E+01
   -1.400013   29.87699  0.5972E-13  0.1426E-04  0.4222E-07  0.1463E-02  0.1619E-03  0.4296E+01
   -1.450014   29.87754  0.5972E-13  0.1404E-04  0.4377E-07  0.1387E-02  0.1509E-03  0.5457E+01
   -1.500015   29.87812  0.5972E-13  0.1378E-04  0.4592E-07  0.1278E-02  0.1400E-03  0.7342E+01
   -1.550015   29.87874  0.5972E-13  0.1346E-04  0.4894E-07  0.1194E-02  0.1291E-03  0.1037E+02
   -1.600015   29.87942  0.5972E-13  0.1306E-04  0.5352E-07  0.1052E-02  0.1185E-03  0.1994E+02
   -1.650015   29.88023  0.5972E-13  0.1255E-04  0.6056E-07  0.9754E-03  0.1071E-03  0.3824E+02
   -1.700015   29.88114  0.5972E-13  0.1186E-04  0.7328E-07  0.7944E-03  0.9615E-04 -0.3132E+04
   -1.750014   29.88273  0.5972E-13  0.1092E-04  0.9446E-07  0.7176E-03  0.8161E-04  0.4159E+05
   -1.800012   29.88416  0.5972E-13  0.9623E-05  0.1409E-06  0.4965E-03  0.6995E-04  0.1897E+06
   -1.850011   29.88950  0.5972E-13  0.8144E-05  0.2248E-06  0.4563E-03  0.5013E-04  0.2119E+07
   -1.900009   29.88875  0.5972E-13  0.6415E-05  0.4698E-06  0.2059E-03  0.4049E-04  0.9447E+07
   -1.950006   29.90590  0.5972E-13  0.4455E-05  0.1183E-05  0.1803E-03  0.2163E-04 -0.2282E+06
   -2.000003   29.90800  0.5972E-13  0.0000E+00  0.0000E+00  0.0000E+00  0.3983E-04  0.0000E+00
