 1 - depth, m
 2 - temperature, C
 3 - salinity, kg/kg
 4 - turbulent kinetic energy, m**2/s**2
 5 - dissipation rate, m**2/s**3
 6 - kinematic heat conductance, m**2/s
 7 - modulus of horizontal velocity, m/s
 8 - Richardson number, n/d
   -0.000000   30.68004  0.8138E-14  0.4875E-05  0.3066E-06  0.5033E-04  0.1115E-02  0.6856E+04
   -0.049997   30.71128  0.8138E-14  0.8426E-05  0.1363E-06  0.1807E-03  0.6323E-03  0.6308E+02
   -0.099994   30.72319  0.8138E-14  0.1022E-04  0.9402E-07  0.4057E-03  0.4639E-03  0.4161E+02
   -0.149992   30.72645  0.8138E-14  0.1135E-04  0.7903E-07  0.4862E-03  0.4100E-03  0.2041E+02
   -0.199991   30.72906  0.8138E-14  0.1222E-04  0.7022E-07  0.6499E-03  0.3663E-03  0.1313E+02
   -0.249989   30.73096  0.8138E-14  0.1291E-04  0.6445E-07  0.7758E-03  0.3336E-03  0.9741E+01
   -0.299988   30.73250  0.8138E-14  0.1348E-04  0.6033E-07  0.9021E-03  0.3064E-03  0.7756E+01
   -0.349988   30.73379  0.8138E-14  0.1395E-04  0.5724E-07  0.1016E-02  0.2830E-03  0.6654E+01
   -0.399988   30.73491  0.8138E-14  0.1434E-04  0.5484E-07  0.1120E-02  0.2624E-03  0.5925E+01
   -0.449988   30.73591  0.8138E-14  0.1468E-04  0.5288E-07  0.1217E-02  0.2443E-03  0.5577E+01
   -0.499988   30.73680  0.8138E-14  0.1497E-04  0.5127E-07  0.1306E-02  0.2282E-03  0.5415E+01
   -0.549989   30.73762  0.8138E-14  0.1523E-04  0.4991E-07  0.1387E-02  0.2138E-03  0.5358E+01
   -0.599989   30.73838  0.8138E-14  0.1544E-04  0.4877E-07  0.1460E-02  0.2008E-03  0.5349E+01
   -0.649990   30.73909  0.8138E-14  0.1563E-04  0.4781E-07  0.1526E-02  0.1889E-03  0.5433E+01
   -0.699992   30.73976  0.8138E-14  0.1579E-04  0.4699E-07  0.1584E-02  0.1780E-03  0.5543E+01
   -0.749993   30.74039  0.8138E-14  0.1592E-04  0.4631E-07  0.1635E-02  0.1679E-03  0.5746E+01
   -0.799994   30.74100  0.8138E-14  0.1602E-04  0.4575E-07  0.1677E-02  0.1585E-03  0.5973E+01
   -0.849996   30.74159  0.8138E-14  0.1610E-04  0.4529E-07  0.1712E-02  0.1497E-03  0.6306E+01
   -0.899998   30.74215  0.8138E-14  0.1616E-04  0.4495E-07  0.1739E-02  0.1415E-03  0.6671E+01
   -0.949999   30.74270  0.8138E-14  0.1620E-04  0.4470E-07  0.1757E-02  0.1337E-03  0.7173E+01
   -1.000001   30.74325  0.8138E-14  0.1622E-04  0.4456E-07  0.1767E-02  0.1264E-03  0.7729E+01
   -1.050003   30.74378  0.8138E-14  0.1621E-04  0.4452E-07  0.1767E-02  0.1194E-03  0.8797E+01
   -1.100005   30.74431  0.8138E-14  0.1618E-04  0.4461E-07  0.1859E-02  0.1127E-03  0.2890E+02
   -1.150006   30.74481  0.8138E-14  0.1613E-04  0.4483E-07  0.1675E-02  0.1068E-03  0.6709E+02
   -1.200008   30.74536  0.8138E-14  0.1605E-04  0.4519E-07  0.1704E-02  0.1006E-03  0.1282E+02
   -1.250009   30.74590  0.8138E-14  0.1594E-04  0.4573E-07  0.1673E-02  0.9473E-04  0.1365E+02
   -1.300011   30.74644  0.8138E-14  0.1581E-04  0.4649E-07  0.1622E-02  0.8903E-04  0.1608E+02
   -1.350012   30.74700  0.8138E-14  0.1564E-04  0.4754E-07  0.1561E-02  0.8352E-04  0.1930E+02
   -1.400013   30.74758  0.8138E-14  0.1544E-04  0.4895E-07  0.1482E-02  0.7813E-04  0.2408E+02
   -1.450014   30.74819  0.8138E-14  0.1519E-04  0.5089E-07  0.1403E-02  0.7285E-04  0.3090E+02
   -1.500014   30.74884  0.8138E-14  0.1489E-04  0.5359E-07  0.1290E-02  0.6764E-04  0.4267E+02
   -1.550015   30.74955  0.8138E-14  0.1451E-04  0.5745E-07  0.1207E-02  0.6241E-04  0.6234E+02
   -1.600015   30.75032  0.8138E-14  0.1405E-04  0.6349E-07  0.1061E-02  0.5728E-04  0.1328E+03
   -1.650014   30.75129  0.8138E-14  0.1345E-04  0.7288E-07  0.9794E-03  0.5167E-04 -0.1466E+04
   -1.700014   30.75238  0.8138E-14  0.1262E-04  0.8941E-07  0.7995E-03  0.4619E-04  0.1460E+05
   -1.750013   30.75434  0.8138E-14  0.1155E-04  0.1166E-06  0.7202E-03  0.3888E-04  0.7238E+05
   -1.800012   30.75587  0.8138E-14  0.1015E-04  0.1734E-06  0.5034E-03  0.3336E-04  0.1123E+06
   -1.850010   30.76265  0.8138E-14  0.8602E-05  0.2827E-06  0.4608E-03  0.2363E-04  0.5945E+08
   -1.900008   30.76100  0.8138E-14  0.6821E-05  0.6023E-06  0.2141E-03  0.1923E-04 -0.6094E+07
   -1.950005   30.78089  0.8138E-14  0.4789E-05  0.1478E-05  0.1946E-03  0.1027E-04 -0.3244E+07
   -2.000002   30.78313  0.8138E-14  0.0000E+00  0.0000E+00  0.0000E+00  0.1950E-04  0.0000E+00
