 1 - depth, m
 2 - temperature, C
 3 - salinity, kg/kg
 4 - turbulent kinetic energy, m**2/s**2
 5 - dissipation rate, m**2/s**3
 6 - kinematic heat conductance, m**2/s
 7 - modulus of horizontal velocity, m/s
 8 - Richardson number, n/d
   -0.000000   29.64687  0.3691E-13  0.4706E-05  0.2665E-06  0.4892E-04  0.2455E-02  0.3295E+04
   -0.049997   29.67497  0.3691E-13  0.7870E-05  0.1175E-06  0.1852E-03  0.1332E-02  0.5283E+03
   -0.099994   29.68423  0.3691E-13  0.9396E-05  0.8252E-07  0.3798E-03  0.1012E-02  0.7597E+01
   -0.149992   29.68727  0.3691E-13  0.1039E-04  0.6929E-07  0.4722E-03  0.8922E-03  0.3828E+01
   -0.199991   29.68962  0.3691E-13  0.1117E-04  0.6155E-07  0.6197E-03  0.7983E-03  0.2485E+01
   -0.249989   29.69135  0.3691E-13  0.1179E-04  0.5648E-07  0.7414E-03  0.7268E-03  0.1842E+01
   -0.299989   29.69277  0.3691E-13  0.1230E-04  0.5288E-07  0.8576E-03  0.6674E-03  0.1478E+01
   -0.349988   29.69396  0.3691E-13  0.1273E-04  0.5018E-07  0.9623E-03  0.6162E-03  0.1304E+01
   -0.399988   29.69501  0.3692E-13  0.1311E-04  0.4804E-07  0.1062E-02  0.5702E-03  0.1230E+01
   -0.449988   29.69593  0.3692E-13  0.1344E-04  0.4628E-07  0.1162E-02  0.5285E-03  0.1215E+01
   -0.499988   29.69676  0.3692E-13  0.1373E-04  0.4480E-07  0.1256E-02  0.4909E-03  0.1216E+01
   -0.549989   29.69752  0.3692E-13  0.1399E-04  0.4356E-07  0.1344E-02  0.4569E-03  0.1214E+01
   -0.599990   29.69821  0.3692E-13  0.1422E-04  0.4253E-07  0.1423E-02  0.4262E-03  0.1211E+01
   -0.649991   29.69886  0.3692E-13  0.1441E-04  0.4167E-07  0.1494E-02  0.3984E-03  0.1208E+01
   -0.699992   29.69947  0.3692E-13  0.1457E-04  0.4097E-07  0.1556E-02  0.3731E-03  0.1204E+01
   -0.749993   29.70004  0.3692E-13  0.1471E-04  0.4039E-07  0.1608E-02  0.3501E-03  0.1205E+01
   -0.799995   29.70059  0.3692E-13  0.1482E-04  0.3994E-07  0.1650E-02  0.3292E-03  0.1214E+01
   -0.849996   29.70113  0.3692E-13  0.1491E-04  0.3958E-07  0.1684E-02  0.3101E-03  0.1240E+01
   -0.899998   29.70164  0.3692E-13  0.1497E-04  0.3933E-07  0.1709E-02  0.2925E-03  0.1290E+01
   -0.950000   29.70215  0.3692E-13  0.1502E-04  0.3916E-07  0.1726E-02  0.2761E-03  0.1369E+01
   -1.000001   29.70264  0.3692E-13  0.1504E-04  0.3909E-07  0.1735E-02  0.2607E-03  0.1476E+01
   -1.050003   29.70313  0.3692E-13  0.1505E-04  0.3911E-07  0.1736E-02  0.2461E-03  0.1679E+01
   -1.100005   29.70362  0.3692E-13  0.1503E-04  0.3922E-07  0.1820E-02  0.2322E-03  0.5586E+01
   -1.150007   29.70408  0.3692E-13  0.1500E-04  0.3946E-07  0.1655E-02  0.2198E-03  0.1260E+02
   -1.200008   29.70459  0.3692E-13  0.1494E-04  0.3982E-07  0.1679E-02  0.2069E-03  0.2436E+01
   -1.250010   29.70509  0.3692E-13  0.1486E-04  0.4033E-07  0.1649E-02  0.1946E-03  0.2602E+01
   -1.300011   29.70560  0.3692E-13  0.1475E-04  0.4102E-07  0.1601E-02  0.1828E-03  0.3049E+01
   -1.350012   29.70612  0.3692E-13  0.1462E-04  0.4195E-07  0.1544E-02  0.1713E-03  0.3649E+01
   -1.400013   29.70666  0.3692E-13  0.1445E-04  0.4318E-07  0.1469E-02  0.1602E-03  0.4503E+01
   -1.450014   29.70722  0.3692E-13  0.1425E-04  0.4484E-07  0.1394E-02  0.1492E-03  0.5723E+01
   -1.500015   29.70783  0.3692E-13  0.1399E-04  0.4711E-07  0.1284E-02  0.1385E-03  0.7726E+01
   -1.550015   29.70848  0.3692E-13  0.1368E-04  0.5028E-07  0.1204E-02  0.1277E-03  0.1089E+02
   -1.600015   29.70919  0.3692E-13  0.1329E-04  0.5506E-07  0.1058E-02  0.1172E-03  0.1977E+02
   -1.650015   29.71005  0.3692E-13  0.1279E-04  0.6235E-07  0.9882E-03  0.1060E-03  0.6618E+03
   -1.700014   29.71100  0.3692E-13  0.1211E-04  0.7549E-07  0.8011E-03  0.9520E-04 -0.2537E+04
   -1.750014   29.71267  0.3692E-13  0.1117E-04  0.9710E-07  0.7307E-03  0.8078E-04  0.1053E+06
   -1.800012   29.71410  0.3692E-13  0.9898E-05  0.1418E-06  0.5096E-03  0.6946E-04  0.3525E+06
   -1.850011   29.71965  0.3692E-13  0.8421E-05  0.2266E-06  0.4676E-03  0.4985E-04  0.2431E+07
   -1.900009   29.71901  0.3692E-13  0.6713E-05  0.4708E-06  0.2140E-03  0.4046E-04  0.3276E+06
   -1.950006   29.73700  0.3692E-13  0.4659E-05  0.1205E-05  0.1768E-03  0.2200E-04 -0.2043E+06
   -2.000003   29.74024  0.3692E-13  0.0000E+00  0.0000E+00  0.0000E+00  0.3924E-04  0.0000E+00
