 1 - depth, m
 2 - temperature, C
 3 - salinity, kg/kg
 4 - turbulent kinetic energy, m**2/s**2
 5 - dissipation rate, m**2/s**3
 6 - kinematic heat conductance, m**2/s
 7 - modulus of horizontal velocity, m/s
 8 - Richardson number, n/d
   -0.000000   30.95063  0.1517E-14  0.5261E-05  0.3376E-06  0.5307E-04  0.2062E-02  0.2066E+04
   -0.049997   30.98263  0.1517E-14  0.8852E-05  0.1501E-06  0.1833E-03  0.1170E-02  0.2214E+04
   -0.099994   30.99483  0.1517E-14  0.1070E-04  0.1032E-06  0.4036E-03  0.8684E-03  0.1254E+02
   -0.149992   30.99834  0.1517E-14  0.1187E-04  0.8631E-07  0.4876E-03  0.7674E-03  0.6202E+01
   -0.199991   31.00112  0.1517E-14  0.1278E-04  0.7648E-07  0.6516E-03  0.6860E-03  0.3970E+01
   -0.249989   31.00314  0.1517E-14  0.1350E-04  0.7007E-07  0.7791E-03  0.6251E-03  0.2936E+01
   -0.299988   31.00478  0.1517E-14  0.1409E-04  0.6551E-07  0.9062E-03  0.5745E-03  0.2332E+01
   -0.349988   31.00615  0.1517E-14  0.1458E-04  0.6210E-07  0.1020E-02  0.5311E-03  0.2001E+01
   -0.399988   31.00735  0.1517E-14  0.1499E-04  0.5945E-07  0.1125E-02  0.4927E-03  0.1789E+01
   -0.449988   31.00841  0.1517E-14  0.1534E-04  0.5729E-07  0.1222E-02  0.4588E-03  0.1698E+01
   -0.499988   31.00936  0.1517E-14  0.1564E-04  0.5551E-07  0.1313E-02  0.4286E-03  0.1659E+01
   -0.549988   31.01024  0.1517E-14  0.1591E-04  0.5401E-07  0.1396E-02  0.4014E-03  0.1648E+01
   -0.599989   31.01105  0.1517E-14  0.1613E-04  0.5275E-07  0.1471E-02  0.3768E-03  0.1647E+01
   -0.649990   31.01180  0.1517E-14  0.1632E-04  0.5170E-07  0.1538E-02  0.3544E-03  0.1672E+01
   -0.699991   31.01251  0.1517E-14  0.1648E-04  0.5081E-07  0.1596E-02  0.3339E-03  0.1702E+01
   -0.749993   31.01319  0.1517E-14  0.1661E-04  0.5008E-07  0.1645E-02  0.3149E-03  0.1762E+01
   -0.799994   31.01383  0.1517E-14  0.1671E-04  0.4947E-07  0.1686E-02  0.2974E-03  0.1829E+01
   -0.849996   31.01446  0.1517E-14  0.1678E-04  0.4900E-07  0.1718E-02  0.2810E-03  0.1935E+01
   -0.899997   31.01506  0.1517E-14  0.1683E-04  0.4864E-07  0.1741E-02  0.2657E-03  0.2051E+01
   -0.949999   31.01565  0.1517E-14  0.1686E-04  0.4840E-07  0.1756E-02  0.2512E-03  0.2219E+01
   -1.000001   31.01623  0.1517E-14  0.1686E-04  0.4828E-07  0.1762E-02  0.2376E-03  0.2405E+01
   -1.050003   31.01681  0.1517E-14  0.1684E-04  0.4828E-07  0.1756E-02  0.2246E-03  0.2758E+01
   -1.100004   31.01738  0.1517E-14  0.1679E-04  0.4842E-07  0.1869E-02  0.2122E-03  0.8733E+01
   -1.150006   31.01791  0.1517E-14  0.1671E-04  0.4874E-07  0.1629E-02  0.2012E-03  0.2323E+02
   -1.200007   31.01852  0.1517E-14  0.1661E-04  0.4921E-07  0.1674E-02  0.1895E-03  0.4223E+01
   -1.250009   31.01911  0.1517E-14  0.1648E-04  0.4990E-07  0.1640E-02  0.1784E-03  0.4514E+01
   -1.300010   31.01971  0.1517E-14  0.1631E-04  0.5088E-07  0.1580E-02  0.1677E-03  0.5457E+01
   -1.350011   31.02033  0.1517E-14  0.1610E-04  0.5221E-07  0.1515E-02  0.1573E-03  0.6705E+01
   -1.400012   31.02097  0.1517E-14  0.1585E-04  0.5405E-07  0.1421E-02  0.1471E-03  0.8760E+01
   -1.450013   31.02167  0.1517E-14  0.1554E-04  0.5659E-07  0.1347E-02  0.1371E-03  0.1168E+02
   -1.500014   31.02240  0.1517E-14  0.1516E-04  0.6023E-07  0.1214E-02  0.1272E-03  0.1769E+02
   -1.550014   31.02324  0.1517E-14  0.1470E-04  0.6548E-07  0.1152E-02  0.1171E-03  0.2777E+02
   -1.600014   31.02414  0.1517E-14  0.1412E-04  0.7428E-07  0.9861E-03  0.1073E-03  0.8670E+02
   -1.650014   31.02541  0.1517E-14  0.1333E-04  0.8778E-07  0.9248E-03  0.9592E-04  0.2160E+04
   -1.700013   31.02675  0.1517E-14  0.1224E-04  0.1125E-06  0.7186E-03  0.8524E-04  0.1849E+04
   -1.750012   31.02980  0.1517E-14  0.1092E-04  0.1524E-06  0.6687E-03  0.6918E-04  0.1311E+06
   -1.800011   31.03111  0.1517E-14  0.9405E-05  0.2367E-06  0.4423E-03  0.5962E-04  0.1223E+06
   -1.850009   31.04229  0.1517E-14  0.7861E-05  0.4041E-06  0.4330E-03  0.3956E-04  0.8852E+08
   -1.900007   31.03648  0.1517E-14  0.6311E-05  0.8537E-06  0.2074E-03  0.3301E-04 -0.2322E+06
   -1.950005   31.06247  0.1517E-14  0.4538E-05  0.1999E-05  0.2276E-03  0.1699E-04 -0.2742E+06
   -2.000002   31.06206  0.1517E-14  0.0000E+00  0.0000E+00  0.0000E+00  0.3612E-04  0.0000E+00
