 1 - depth, m
 2 - temperature, C
 3 - salinity, kg/kg
 4 - turbulent kinetic energy, m**2/s**2
 5 - dissipation rate, m**2/s**3
 6 - kinematic heat conductance, m**2/s
 7 - modulus of horizontal velocity, m/s
 8 - Richardson number, n/d
   -0.000000   30.34800  0.1369E-14  0.4607E-05  0.2781E-06  0.4836E-04  0.1228E-02  0.2271E+04
   -0.049997   30.37746  0.1369E-14  0.7982E-05  0.1238E-06  0.1794E-03  0.6902E-03  0.1573E+04
   -0.099994   30.38823  0.1369E-14  0.9671E-05  0.8582E-07  0.3956E-03  0.5079E-03  0.3069E+02
   -0.149992   30.39128  0.1369E-14  0.1074E-04  0.7219E-07  0.4793E-03  0.4484E-03  0.1508E+02
   -0.199991   30.39370  0.1369E-14  0.1157E-04  0.6420E-07  0.6381E-03  0.4004E-03  0.9710E+01
   -0.249989   30.39547  0.1369E-14  0.1223E-04  0.5896E-07  0.7624E-03  0.3645E-03  0.7169E+01
   -0.299988   30.39690  0.1369E-14  0.1277E-04  0.5523E-07  0.8863E-03  0.3345E-03  0.5716E+01
   -0.349988   30.39811  0.1369E-14  0.1322E-04  0.5243E-07  0.9984E-03  0.3089E-03  0.4885E+01
   -0.399988   30.39916  0.1369E-14  0.1360E-04  0.5026E-07  0.1101E-02  0.2862E-03  0.4361E+01
   -0.449988   30.40009  0.1369E-14  0.1393E-04  0.4849E-07  0.1197E-02  0.2662E-03  0.4087E+01
   -0.499988   30.40093  0.1369E-14  0.1422E-04  0.4703E-07  0.1285E-02  0.2486E-03  0.3982E+01
   -0.549989   30.40170  0.1369E-14  0.1447E-04  0.4582E-07  0.1365E-02  0.2328E-03  0.3921E+01
   -0.599990   30.40241  0.1369E-14  0.1468E-04  0.4480E-07  0.1439E-02  0.2184E-03  0.3929E+01
   -0.649991   30.40308  0.1369E-14  0.1487E-04  0.4394E-07  0.1504E-02  0.2054E-03  0.3967E+01
   -0.699992   30.40371  0.1369E-14  0.1503E-04  0.4321E-07  0.1563E-02  0.1934E-03  0.4064E+01
   -0.749993   30.40430  0.1369E-14  0.1516E-04  0.4261E-07  0.1614E-02  0.1824E-03  0.4186E+01
   -0.799995   30.40487  0.1369E-14  0.1527E-04  0.4211E-07  0.1658E-02  0.1721E-03  0.4368E+01
   -0.849996   30.40543  0.1369E-14  0.1536E-04  0.4171E-07  0.1694E-02  0.1625E-03  0.4578E+01
   -0.899998   30.40596  0.1369E-14  0.1543E-04  0.4141E-07  0.1722E-02  0.1534E-03  0.4860E+01
   -0.950000   30.40648  0.1369E-14  0.1548E-04  0.4120E-07  0.1742E-02  0.1450E-03  0.5182E+01
   -1.000001   30.40699  0.1369E-14  0.1551E-04  0.4108E-07  0.1755E-02  0.1369E-03  0.5599E+01
   -1.050003   30.40749  0.1369E-14  0.1552E-04  0.4106E-07  0.1758E-02  0.1293E-03  0.6322E+01
   -1.100005   30.40799  0.1369E-14  0.1551E-04  0.4114E-07  0.1835E-02  0.1220E-03  0.2126E+02
   -1.150006   30.40846  0.1369E-14  0.1547E-04  0.4135E-07  0.1690E-02  0.1155E-03  0.4614E+02
   -1.200008   30.40897  0.1369E-14  0.1542E-04  0.4167E-07  0.1708E-02  0.1089E-03  0.9007E+01
   -1.250009   30.40948  0.1369E-14  0.1534E-04  0.4215E-07  0.1680E-02  0.1025E-03  0.9607E+01
   -1.300011   30.40999  0.1369E-14  0.1524E-04  0.4281E-07  0.1634E-02  0.9629E-04  0.1116E+02
   -1.350012   30.41051  0.1369E-14  0.1510E-04  0.4370E-07  0.1578E-02  0.9030E-04  0.1327E+02
   -1.400013   30.41105  0.1369E-14  0.1493E-04  0.4490E-07  0.1506E-02  0.8449E-04  0.1620E+02
   -1.450014   30.41161  0.1369E-14  0.1473E-04  0.4651E-07  0.1431E-02  0.7879E-04  0.2039E+02
   -1.500014   30.41221  0.1369E-14  0.1448E-04  0.4871E-07  0.1325E-02  0.7321E-04  0.2711E+02
   -1.550015   30.41285  0.1369E-14  0.1417E-04  0.5178E-07  0.1242E-02  0.6762E-04  0.3765E+02
   -1.600015   30.41355  0.1369E-14  0.1379E-04  0.5639E-07  0.1099E-02  0.6215E-04  0.6510E+02
   -1.650015   30.41438  0.1369E-14  0.1330E-04  0.6338E-07  0.1020E-02  0.5634E-04  0.1682E+03
   -1.700014   30.41529  0.1369E-14  0.1263E-04  0.7577E-07  0.8369E-03  0.5074E-04  0.3939E+03
   -1.750013   30.41683  0.1369E-14  0.1173E-04  0.9616E-07  0.7592E-03  0.4349E-04 -0.2422E+05
   -1.800012   30.41822  0.1369E-14  0.1050E-04  0.1372E-06  0.5401E-03  0.3755E-04  0.1229E+07
   -1.850010   30.42298  0.1369E-14  0.9036E-05  0.2161E-06  0.4866E-03  0.2778E-04  0.7430E+07
   -1.900008   30.42293  0.1369E-14  0.7184E-05  0.4432E-06  0.2231E-03  0.2248E-04 -0.1348E+07
   -1.950005   30.43938  0.1369E-14  0.4952E-05  0.1147E-05  0.1717E-03  0.1241E-04 -0.1640E+06
   -2.000002   30.44328  0.1369E-14  0.0000E+00  0.0000E+00  0.0000E+00  0.2121E-04  0.0000E+00
