 1 - depth, m
 2 - temperature, C
 3 - salinity, kg/kg
 4 - turbulent kinetic energy, m**2/s**2
 5 - dissipation rate, m**2/s**3
 6 - kinematic heat conductance, m**2/s
 7 - modulus of horizontal velocity, m/s
 8 - Richardson number, n/d
   -0.000000   29.56983  0.2893E-13  0.4332E-05  0.2548E-06  0.4828E-04  0.1320E-02  0.8394E+04
   -0.049997   29.59698  0.2893E-13  0.7493E-05  0.1133E-06  0.1686E-03  0.7527E-03  0.1840E+03
   -0.099994   29.60772  0.2893E-13  0.9103E-05  0.7795E-07  0.3895E-03  0.5452E-03  0.2601E+02
   -0.149992   29.61059  0.2893E-13  0.1010E-04  0.6567E-07  0.4658E-03  0.4813E-03  0.1257E+02
   -0.199991   29.61291  0.2893E-13  0.1088E-04  0.5844E-07  0.6206E-03  0.4293E-03  0.8130E+01
   -0.249989   29.61460  0.2893E-13  0.1150E-04  0.5370E-07  0.7417E-03  0.3903E-03  0.6016E+01
   -0.299989   29.61597  0.2893E-13  0.1201E-04  0.5032E-07  0.8613E-03  0.3578E-03  0.4800E+01
   -0.349988   29.61713  0.2893E-13  0.1243E-04  0.4778E-07  0.9700E-03  0.3300E-03  0.4117E+01
   -0.399988   29.61814  0.2893E-13  0.1279E-04  0.4581E-07  0.1070E-02  0.3054E-03  0.3675E+01
   -0.449988   29.61903  0.2893E-13  0.1310E-04  0.4422E-07  0.1162E-02  0.2837E-03  0.3459E+01
   -0.499988   29.61984  0.2893E-13  0.1337E-04  0.4290E-07  0.1247E-02  0.2646E-03  0.3372E+01
   -0.549989   29.62058  0.2893E-13  0.1360E-04  0.4180E-07  0.1325E-02  0.2474E-03  0.3336E+01
   -0.599990   29.62126  0.2893E-13  0.1380E-04  0.4088E-07  0.1396E-02  0.2320E-03  0.3344E+01
   -0.649991   29.62190  0.2893E-13  0.1398E-04  0.4011E-07  0.1459E-02  0.2179E-03  0.3396E+01
   -0.699992   29.62250  0.2893E-13  0.1413E-04  0.3946E-07  0.1516E-02  0.2049E-03  0.3480E+01
   -0.749993   29.62308  0.2893E-13  0.1426E-04  0.3892E-07  0.1565E-02  0.1930E-03  0.3605E+01
   -0.799995   29.62362  0.2893E-13  0.1437E-04  0.3848E-07  0.1607E-02  0.1819E-03  0.3764E+01
   -0.849996   29.62415  0.2893E-13  0.1445E-04  0.3813E-07  0.1641E-02  0.1715E-03  0.3969E+01
   -0.899998   29.62467  0.2893E-13  0.1452E-04  0.3787E-07  0.1668E-02  0.1618E-03  0.4218E+01
   -0.950000   29.62517  0.2893E-13  0.1456E-04  0.3769E-07  0.1687E-02  0.1527E-03  0.4528E+01
   -1.000002   29.62566  0.2893E-13  0.1459E-04  0.3760E-07  0.1698E-02  0.1441E-03  0.4897E+01
   -1.050003   29.62615  0.2893E-13  0.1460E-04  0.3760E-07  0.1701E-02  0.1359E-03  0.5574E+01
   -1.100005   29.62663  0.2893E-13  0.1459E-04  0.3769E-07  0.1777E-02  0.1281E-03  0.1865E+02
   -1.150007   29.62709  0.2893E-13  0.1456E-04  0.3790E-07  0.1633E-02  0.1211E-03  0.4130E+02
   -1.200008   29.62758  0.2893E-13  0.1451E-04  0.3821E-07  0.1650E-02  0.1140E-03  0.8054E+01
   -1.250010   29.62807  0.2893E-13  0.1443E-04  0.3867E-07  0.1621E-02  0.1071E-03  0.8604E+01
   -1.300011   29.62857  0.2893E-13  0.1433E-04  0.3930E-07  0.1576E-02  0.1005E-03  0.1007E+02
   -1.350012   29.62908  0.2893E-13  0.1420E-04  0.4015E-07  0.1520E-02  0.9415E-04  0.1203E+02
   -1.400013   29.62961  0.2893E-13  0.1405E-04  0.4129E-07  0.1449E-02  0.8795E-04  0.1480E+02
   -1.450014   29.63016  0.2893E-13  0.1385E-04  0.4280E-07  0.1374E-02  0.8188E-04  0.1875E+02
   -1.500015   29.63075  0.2893E-13  0.1361E-04  0.4488E-07  0.1270E-02  0.7593E-04  0.2511E+02
   -1.550015   29.63138  0.2893E-13  0.1331E-04  0.4777E-07  0.1184E-02  0.7000E-04  0.3517E+02
   -1.600015   29.63207  0.2893E-13  0.1294E-04  0.5205E-07  0.1047E-02  0.6417E-04  0.5724E+02
   -1.650015   29.63288  0.2893E-13  0.1247E-04  0.5859E-07  0.9687E-03  0.5809E-04  0.7289E+03
   -1.700015   29.63379  0.2893E-13  0.1183E-04  0.7044E-07  0.7948E-03  0.5216E-04 -0.4490E+04
   -1.750014   29.63533  0.2893E-13  0.1093E-04  0.9037E-07  0.7117E-03  0.4450E-04  0.1011E+06
   -1.800012   29.63690  0.2893E-13  0.9663E-05  0.1322E-06  0.5039E-03  0.3794E-04  0.8043E+05
   -1.850011   29.64185  0.2893E-13  0.8198E-05  0.2079E-06  0.4525E-03  0.2751E-04  0.4113E+08
   -1.900009   29.64159  0.2893E-13  0.6470E-05  0.4375E-06  0.2022E-03  0.2206E-04  0.3424E+07
   -1.950006   29.65886  0.2893E-13  0.4488E-05  0.1115E-05  0.1740E-03  0.1186E-04 -0.1765E+07
   -2.000003   29.66111  0.2893E-13  0.0000E+00  0.0000E+00  0.0000E+00  0.2133E-04  0.0000E+00
