 1 - depth, m
 2 - temperature, C
 3 - salinity, kg/kg
 4 - turbulent kinetic energy, m**2/s**2
 5 - dissipation rate, m**2/s**3
 6 - kinematic heat conductance, m**2/s
 7 - modulus of horizontal velocity, m/s
 8 - Richardson number, n/d
   -0.000000   30.45209  0.3075E-14  0.4757E-05  0.2944E-06  0.4934E-04  0.5479E-03  0.4148E+05
   -0.049997   30.48330  0.3075E-14  0.8396E-05  0.1305E-06  0.1835E-03  0.3089E-03  0.8992E+02
   -0.099994   30.49453  0.3075E-14  0.1016E-04  0.9046E-07  0.4167E-03  0.2256E-03  0.1510E+03
   -0.149992   30.49764  0.3075E-14  0.1126E-04  0.7647E-07  0.4925E-03  0.2000E-03  0.7440E+02
   -0.199991   30.50016  0.3075E-14  0.1212E-04  0.6819E-07  0.6575E-03  0.1789E-03  0.4867E+02
   -0.249989   30.50200  0.3075E-14  0.1281E-04  0.6274E-07  0.7838E-03  0.1632E-03  0.3626E+02
   -0.299988   30.50350  0.3075E-14  0.1337E-04  0.5884E-07  0.9093E-03  0.1500E-03  0.2906E+02
   -0.349988   30.50476  0.3075E-14  0.1383E-04  0.5591E-07  0.1023E-02  0.1387E-03  0.2492E+02
   -0.399988   30.50586  0.3075E-14  0.1422E-04  0.5363E-07  0.1127E-02  0.1286E-03  0.2229E+02
   -0.449988   30.50683  0.3075E-14  0.1456E-04  0.5177E-07  0.1223E-02  0.1198E-03  0.2094E+02
   -0.499988   30.50771  0.3075E-14  0.1485E-04  0.5024E-07  0.1311E-02  0.1120E-03  0.2042E+02
   -0.549989   30.50852  0.3075E-14  0.1511E-04  0.4896E-07  0.1392E-02  0.1050E-03  0.2014E+02
   -0.599990   30.50927  0.3075E-14  0.1533E-04  0.4789E-07  0.1465E-02  0.9860E-04  0.2020E+02
   -0.649991   30.50997  0.3075E-14  0.1551E-04  0.4698E-07  0.1530E-02  0.9280E-04  0.2044E+02
   -0.699992   30.51063  0.3075E-14  0.1567E-04  0.4622E-07  0.1588E-02  0.8747E-04  0.2096E+02
   -0.749993   30.51126  0.3075E-14  0.1581E-04  0.4559E-07  0.1638E-02  0.8253E-04  0.2165E+02
   -0.799995   30.51186  0.3075E-14  0.1592E-04  0.4507E-07  0.1680E-02  0.7793E-04  0.2262E+02
   -0.849996   30.51244  0.3075E-14  0.1600E-04  0.4467E-07  0.1714E-02  0.7364E-04  0.2378E+02
   -0.899998   30.51301  0.3075E-14  0.1607E-04  0.4436E-07  0.1740E-02  0.6961E-04  0.2530E+02
   -0.949999   30.51356  0.3075E-14  0.1611E-04  0.4415E-07  0.1758E-02  0.6580E-04  0.2709E+02
   -1.000001   30.51410  0.3075E-14  0.1613E-04  0.4405E-07  0.1768E-02  0.6220E-04  0.2935E+02
   -1.050003   30.51463  0.3075E-14  0.1612E-04  0.4405E-07  0.1767E-02  0.5878E-04  0.3327E+02
   -1.100005   30.51516  0.3075E-14  0.1610E-04  0.4417E-07  0.1860E-02  0.5551E-04  0.1098E+03
   -1.150006   30.51566  0.3075E-14  0.1605E-04  0.4443E-07  0.1672E-02  0.5261E-04  0.2546E+03
   -1.200008   30.51621  0.3075E-14  0.1598E-04  0.4482E-07  0.1703E-02  0.4956E-04  0.4855E+02
   -1.250009   30.51675  0.3075E-14  0.1588E-04  0.4539E-07  0.1672E-02  0.4666E-04  0.5196E+02
   -1.300011   30.51730  0.3075E-14  0.1575E-04  0.4619E-07  0.1620E-02  0.4387E-04  0.6099E+02
   -1.350012   30.51786  0.3075E-14  0.1559E-04  0.4726E-07  0.1559E-02  0.4116E-04  0.7347E+02
   -1.400013   30.51844  0.3075E-14  0.1539E-04  0.4871E-07  0.1479E-02  0.3851E-04  0.9125E+02
   -1.450014   30.51906  0.3075E-14  0.1514E-04  0.5067E-07  0.1400E-02  0.3591E-04  0.1174E+03
   -1.500014   30.51971  0.3075E-14  0.1484E-04  0.5340E-07  0.1287E-02  0.3335E-04  0.1612E+03
   -1.550015   30.52043  0.3075E-14  0.1448E-04  0.5727E-07  0.1202E-02  0.3077E-04  0.2345E+03
   -1.600015   30.52121  0.3075E-14  0.1402E-04  0.6326E-07  0.1058E-02  0.2825E-04  0.6123E+03
   -1.650014   30.52218  0.3075E-14  0.1342E-04  0.7263E-07  0.9761E-03  0.2551E-04  0.3240E+05
   -1.700014   30.52328  0.3075E-14  0.1260E-04  0.8917E-07  0.7978E-03  0.2279E-04  0.1114E+06
   -1.750013   30.52524  0.3075E-14  0.1152E-04  0.1164E-06  0.7161E-03  0.1924E-04  0.6075E+06
   -1.800012   30.52686  0.3075E-14  0.1008E-04  0.1759E-06  0.4974E-03  0.1644E-04  0.1619E+06
   -1.850010   30.53366  0.3075E-14  0.8539E-05  0.2848E-06  0.4588E-03  0.1162E-04  0.7033E+09
   -1.900008   30.53206  0.3075E-14  0.6749E-05  0.5997E-06  0.2102E-03  0.9471E-05  0.5344E+07
   -1.950005   30.55267  0.3075E-14  0.4768E-05  0.1478E-05  0.1964E-03  0.5028E-05 -0.1837E+08
   -2.000002   30.55446  0.3075E-14  0.0000E+00  0.0000E+00  0.0000E+00  0.9568E-05  0.0000E+00
