 1 - depth, m
 2 - temperature, C
 3 - salinity, kg/kg
 4 - turbulent kinetic energy, m**2/s**2
 5 - dissipation rate, m**2/s**3
 6 - kinematic heat conductance, m**2/s
 7 - modulus of horizontal velocity, m/s
 8 - Richardson number, n/d
   -0.000000   30.60983  0.3067E-14  0.4890E-05  0.3109E-06  0.5119E-04  0.9677E-03  0.1614E+04
   -0.049997   30.64095  0.3067E-14  0.8480E-05  0.1380E-06  0.1786E-03  0.5529E-03  0.3911E+02
   -0.099994   30.65326  0.3068E-14  0.1031E-04  0.9482E-07  0.4117E-03  0.4026E-03  0.5783E+02
   -0.149992   30.65652  0.3068E-14  0.1144E-04  0.7977E-07  0.4876E-03  0.3563E-03  0.2830E+02
   -0.199991   30.65916  0.3068E-14  0.1232E-04  0.7091E-07  0.6538E-03  0.3183E-03  0.1826E+02
   -0.249989   30.66107  0.3068E-14  0.1302E-04  0.6510E-07  0.7802E-03  0.2899E-03  0.1357E+02
   -0.299988   30.66262  0.3068E-14  0.1359E-04  0.6095E-07  0.9071E-03  0.2663E-03  0.1081E+02
   -0.349988   30.66393  0.3068E-14  0.1406E-04  0.5784E-07  0.1022E-02  0.2461E-03  0.9278E+01
   -0.399988   30.66506  0.3068E-14  0.1446E-04  0.5541E-07  0.1126E-02  0.2282E-03  0.8260E+01
   -0.449988   30.66606  0.3068E-14  0.1480E-04  0.5344E-07  0.1224E-02  0.2124E-03  0.7776E+01
   -0.499988   30.66697  0.3068E-14  0.1510E-04  0.5180E-07  0.1313E-02  0.1985E-03  0.7546E+01
   -0.549989   30.66779  0.3068E-14  0.1535E-04  0.5043E-07  0.1394E-02  0.1860E-03  0.7466E+01
   -0.599989   30.66856  0.3068E-14  0.1557E-04  0.4928E-07  0.1468E-02  0.1747E-03  0.7448E+01
   -0.649990   30.66928  0.3068E-14  0.1576E-04  0.4830E-07  0.1535E-02  0.1644E-03  0.7564E+01
   -0.699992   30.66995  0.3068E-14  0.1591E-04  0.4748E-07  0.1593E-02  0.1549E-03  0.7710E+01
   -0.749993   30.67059  0.3068E-14  0.1604E-04  0.4678E-07  0.1644E-02  0.1461E-03  0.7989E+01
   -0.799994   30.67120  0.3068E-14  0.1615E-04  0.4621E-07  0.1687E-02  0.1380E-03  0.8295E+01
   -0.849996   30.67179  0.3068E-14  0.1623E-04  0.4574E-07  0.1722E-02  0.1304E-03  0.8751E+01
   -0.899998   30.67236  0.3068E-14  0.1629E-04  0.4538E-07  0.1749E-02  0.1232E-03  0.9245E+01
   -0.949999   30.67292  0.3068E-14  0.1633E-04  0.4512E-07  0.1767E-02  0.1165E-03  0.9930E+01
   -1.000001   30.67346  0.3068E-14  0.1634E-04  0.4497E-07  0.1778E-02  0.1101E-03  0.1068E+02
   -1.050003   30.67400  0.3068E-14  0.1633E-04  0.4492E-07  0.1778E-02  0.1040E-03  0.1214E+02
   -1.100004   30.67453  0.3068E-14  0.1630E-04  0.4499E-07  0.1870E-02  0.9823E-04  0.4002E+02
   -1.150006   30.67503  0.3068E-14  0.1625E-04  0.4521E-07  0.1687E-02  0.9308E-04  0.9119E+02
   -1.200008   30.67558  0.3068E-14  0.1617E-04  0.4555E-07  0.1717E-02  0.8769E-04  0.1755E+02
   -1.250009   30.67612  0.3068E-14  0.1607E-04  0.4608E-07  0.1686E-02  0.8257E-04  0.1865E+02
   -1.300010   30.67667  0.3068E-14  0.1593E-04  0.4682E-07  0.1635E-02  0.7762E-04  0.2191E+02
   -1.350012   30.67723  0.3068E-14  0.1576E-04  0.4784E-07  0.1575E-02  0.7283E-04  0.2614E+02
   -1.400013   30.67781  0.3068E-14  0.1556E-04  0.4923E-07  0.1496E-02  0.6815E-04  0.3246E+02
   -1.450014   30.67842  0.3068E-14  0.1531E-04  0.5113E-07  0.1417E-02  0.6356E-04  0.4129E+02
   -1.500014   30.67906  0.3068E-14  0.1501E-04  0.5378E-07  0.1303E-02  0.5903E-04  0.5644E+02
   -1.550014   30.67977  0.3068E-14  0.1464E-04  0.5756E-07  0.1219E-02  0.5449E-04  0.8073E+02
   -1.600015   30.68053  0.3068E-14  0.1418E-04  0.6340E-07  0.1074E-02  0.5003E-04  0.1660E+03
   -1.650014   30.68147  0.3068E-14  0.1358E-04  0.7252E-07  0.9925E-03  0.4520E-04  0.5886E+03
   -1.700014   30.68254  0.3068E-14  0.1276E-04  0.8871E-07  0.8106E-03  0.4043E-04  0.8039E+05
   -1.750013   30.68444  0.3068E-14  0.1170E-04  0.1153E-06  0.7288E-03  0.3410E-04  0.2297E+06
   -1.800012   30.68597  0.3068E-14  0.1028E-04  0.1739E-06  0.5080E-03  0.2928E-04  0.3822E+06
   -1.850010   30.69246  0.3068E-14  0.8740E-05  0.2811E-06  0.4671E-03  0.2078E-04  0.3440E+08
   -1.900008   30.69098  0.3068E-14  0.6913E-05  0.5888E-06  0.2146E-03  0.1699E-04 -0.2773E+06
   -1.950005   30.71053  0.3068E-14  0.4856E-05  0.1454E-05  0.1952E-03  0.9098E-05 -0.4281E+06
   -2.000002   30.71245  0.3068E-14  0.0000E+00  0.0000E+00  0.0000E+00  0.1705E-04  0.0000E+00
