 1 - depth, m
 2 - temperature, C
 3 - salinity, kg/kg
 4 - turbulent kinetic energy, m**2/s**2
 5 - dissipation rate, m**2/s**3
 6 - kinematic heat conductance, m**2/s
 7 - modulus of horizontal velocity, m/s
 8 - Richardson number, n/d
   -0.000000   29.82110  0.8766E-14  0.4754E-05  0.2665E-06  0.4875E-04  0.2604E-02  0.2024E+04
   -0.049997   29.84933  0.8766E-14  0.7893E-05  0.1173E-06  0.1867E-03  0.1410E-02  0.1781E+03
   -0.099994   29.85856  0.8766E-14  0.9397E-05  0.8244E-07  0.3787E-03  0.1076E-02  0.7211E+01
   -0.149992   29.86161  0.8766E-14  0.1037E-04  0.6930E-07  0.4708E-03  0.9507E-03  0.3632E+01
   -0.199991   29.86396  0.8766E-14  0.1113E-04  0.6159E-07  0.6153E-03  0.8523E-03  0.2365E+01
   -0.249989   29.86571  0.8766E-14  0.1175E-04  0.5653E-07  0.7339E-03  0.7771E-03  0.1762E+01
   -0.299989   29.86714  0.8766E-14  0.1225E-04  0.5292E-07  0.8441E-03  0.7144E-03  0.1437E+01
   -0.349988   29.86835  0.8766E-14  0.1268E-04  0.5016E-07  0.9475E-03  0.6598E-03  0.1339E+01
   -0.399988   29.86940  0.8766E-14  0.1306E-04  0.4793E-07  0.1054E-02  0.6091E-03  0.1299E+01
   -0.449988   29.87033  0.8766E-14  0.1340E-04  0.4606E-07  0.1159E-02  0.5625E-03  0.1288E+01
   -0.499988   29.87116  0.8766E-14  0.1370E-04  0.4450E-07  0.1258E-02  0.5206E-03  0.1285E+01
   -0.549989   29.87191  0.8766E-14  0.1396E-04  0.4319E-07  0.1348E-02  0.4828E-03  0.1282E+01
   -0.599990   29.87259  0.8766E-14  0.1418E-04  0.4209E-07  0.1431E-02  0.4486E-03  0.1277E+01
   -0.649991   29.87323  0.8766E-14  0.1437E-04  0.4116E-07  0.1504E-02  0.4178E-03  0.1275E+01
   -0.699992   29.87382  0.8766E-14  0.1453E-04  0.4040E-07  0.1568E-02  0.3898E-03  0.1270E+01
   -0.749993   29.87439  0.8766E-14  0.1466E-04  0.3977E-07  0.1622E-02  0.3645E-03  0.1270E+01
   -0.799995   29.87493  0.8766E-14  0.1476E-04  0.3927E-07  0.1666E-02  0.3415E-03  0.1269E+01
   -0.849997   29.87544  0.8766E-14  0.1484E-04  0.3887E-07  0.1701E-02  0.3205E-03  0.1277E+01
   -0.899998   29.87594  0.8766E-14  0.1489E-04  0.3858E-07  0.1726E-02  0.3015E-03  0.1292E+01
   -0.950000   29.87643  0.8766E-14  0.1492E-04  0.3837E-07  0.1741E-02  0.2840E-03  0.1332E+01
   -1.000002   29.87691  0.8766E-14  0.1493E-04  0.3826E-07  0.1749E-02  0.2679E-03  0.1400E+01
   -1.050003   29.87739  0.8766E-14  0.1492E-04  0.3824E-07  0.1748E-02  0.2529E-03  0.1573E+01
   -1.100005   29.87786  0.8766E-14  0.1490E-04  0.3831E-07  0.1839E-02  0.2387E-03  0.5187E+01
   -1.150007   29.87830  0.8766E-14  0.1485E-04  0.3849E-07  0.1656E-02  0.2260E-03  0.1182E+02
   -1.200008   29.87879  0.8766E-14  0.1478E-04  0.3879E-07  0.1687E-02  0.2128E-03  0.2271E+01
   -1.250010   29.87926  0.8766E-14  0.1469E-04  0.3923E-07  0.1656E-02  0.2002E-03  0.2413E+01
   -1.300011   29.87975  0.8766E-14  0.1457E-04  0.3985E-07  0.1607E-02  0.1881E-03  0.2825E+01
   -1.350012   29.88024  0.8766E-14  0.1442E-04  0.4069E-07  0.1548E-02  0.1763E-03  0.3367E+01
   -1.400014   29.88075  0.8766E-14  0.1424E-04  0.4182E-07  0.1473E-02  0.1649E-03  0.4149E+01
   -1.450014   29.88129  0.8766E-14  0.1402E-04  0.4335E-07  0.1395E-02  0.1537E-03  0.5254E+01
   -1.500015   29.88185  0.8766E-14  0.1376E-04  0.4546E-07  0.1287E-02  0.1426E-03  0.7070E+01
   -1.550015   29.88247  0.8766E-14  0.1344E-04  0.4842E-07  0.1200E-02  0.1316E-03  0.9928E+01
   -1.600015   29.88314  0.8766E-14  0.1305E-04  0.5287E-07  0.1057E-02  0.1207E-03  0.1704E+02
   -1.650015   29.88393  0.8766E-14  0.1255E-04  0.5971E-07  0.9782E-03  0.1093E-03  0.3228E+04
   -1.700015   29.88481  0.8766E-14  0.1187E-04  0.7205E-07  0.7985E-03  0.9817E-04 -0.6167E+03
   -1.750014   29.88634  0.8766E-14  0.1094E-04  0.9269E-07  0.7182E-03  0.8362E-04  0.5372E+04
   -1.800013   29.88779  0.8766E-14  0.9646E-05  0.1357E-06  0.5023E-03  0.7149E-04  0.1948E+05
   -1.850011   29.89280  0.8766E-14  0.8155E-05  0.2149E-06  0.4560E-03  0.5163E-04  0.1852E+07
   -1.900009   29.89231  0.8766E-14  0.6410E-05  0.4473E-06  0.2033E-03  0.4154E-04  0.3159E+04
   -1.950006   29.90910  0.8767E-14  0.4440E-05  0.1133E-05  0.1791E-03  0.2216E-04 -0.3244E+06
   -2.000003   29.91060  0.8766E-14  0.0000E+00  0.0000E+00  0.0000E+00  0.4029E-04  0.0000E+00
