 1 - depth, m
 2 - temperature, C
 3 - salinity, kg/kg
 4 - turbulent kinetic energy, m**2/s**2
 5 - dissipation rate, m**2/s**3
 6 - kinematic heat conductance, m**2/s
 7 - modulus of horizontal velocity, m/s
 8 - Richardson number, n/d
   -0.000000   30.96507  0.4712E-13  0.4873E-05  0.2956E-06  0.4725E-04  0.3811E-03  0.2579E+06
   -0.049997   30.99895  0.4712E-13  0.8675E-05  0.1319E-06  0.1978E-03  0.2110E-03  0.1329E+06
   -0.099994   31.00884  0.4712E-13  0.1041E-04  0.9297E-07  0.4160E-03  0.1560E-03  0.6073E+03
   -0.149992   31.01204  0.4712E-13  0.1152E-04  0.7867E-07  0.5018E-03  0.1381E-03  0.3081E+03
   -0.199991   31.01457  0.4712E-13  0.1238E-04  0.7019E-07  0.6650E-03  0.1235E-03  0.2041E+03
   -0.249989   31.01642  0.4712E-13  0.1307E-04  0.6458E-07  0.7930E-03  0.1126E-03  0.1531E+03
   -0.299988   31.01793  0.4712E-13  0.1364E-04  0.6056E-07  0.9187E-03  0.1034E-03  0.1230E+03
   -0.349988   31.01920  0.4712E-13  0.1411E-04  0.5753E-07  0.1033E-02  0.9560E-04  0.1059E+03
   -0.399988   31.02030  0.4712E-13  0.1450E-04  0.5517E-07  0.1137E-02  0.8868E-04  0.9465E+02
   -0.449988   31.02128  0.4712E-13  0.1484E-04  0.5325E-07  0.1234E-02  0.8256E-04  0.8915E+02
   -0.499988   31.02217  0.4712E-13  0.1513E-04  0.5166E-07  0.1323E-02  0.7717E-04  0.8675E+02
   -0.549989   31.02298  0.4712E-13  0.1539E-04  0.5033E-07  0.1404E-02  0.7230E-04  0.8581E+02
   -0.599989   31.02373  0.4712E-13  0.1561E-04  0.4921E-07  0.1477E-02  0.6792E-04  0.8587E+02
   -0.649990   31.02443  0.4712E-13  0.1579E-04  0.4827E-07  0.1543E-02  0.6390E-04  0.8718E+02
   -0.699992   31.02510  0.4712E-13  0.1595E-04  0.4748E-07  0.1601E-02  0.6022E-04  0.8919E+02
   -0.749993   31.02573  0.4712E-13  0.1609E-04  0.4682E-07  0.1651E-02  0.5680E-04  0.9242E+02
   -0.799994   31.02633  0.4712E-13  0.1619E-04  0.4628E-07  0.1693E-02  0.5364E-04  0.9637E+02
   -0.849996   31.02691  0.4712E-13  0.1628E-04  0.4585E-07  0.1728E-02  0.5066E-04  0.1017E+03
   -0.899998   31.02747  0.4712E-13  0.1634E-04  0.4553E-07  0.1754E-02  0.4789E-04  0.1080E+03
   -0.949999   31.02802  0.4712E-13  0.1638E-04  0.4531E-07  0.1772E-02  0.4525E-04  0.1161E+03
   -1.000001   31.02856  0.4712E-13  0.1640E-04  0.4520E-07  0.1781E-02  0.4277E-04  0.1256E+03
   -1.050003   31.02910  0.4712E-13  0.1640E-04  0.4520E-07  0.1781E-02  0.4040E-04  0.1430E+03
   -1.100004   31.02963  0.4712E-13  0.1637E-04  0.4532E-07  0.1875E-02  0.3816E-04  0.4703E+03
   -1.150006   31.03012  0.4712E-13  0.1632E-04  0.4558E-07  0.1684E-02  0.3616E-04  0.1097E+04
   -1.200008   31.03068  0.4712E-13  0.1625E-04  0.4598E-07  0.1716E-02  0.3406E-04  0.2097E+03
   -1.250009   31.03122  0.4712E-13  0.1614E-04  0.4658E-07  0.1684E-02  0.3207E-04  0.2245E+03
   -1.300010   31.03177  0.4712E-13  0.1601E-04  0.4739E-07  0.1632E-02  0.3013E-04  0.2650E+03
   -1.350012   31.03233  0.4712E-13  0.1585E-04  0.4850E-07  0.1571E-02  0.2827E-04  0.3195E+03
   -1.400013   31.03292  0.4712E-13  0.1565E-04  0.5000E-07  0.1490E-02  0.2644E-04  0.3997E+03
   -1.450013   31.03354  0.4712E-13  0.1540E-04  0.5203E-07  0.1412E-02  0.2465E-04  0.5157E+03
   -1.500014   31.03420  0.4712E-13  0.1509E-04  0.5487E-07  0.1296E-02  0.2289E-04  0.7163E+03
   -1.550014   31.03492  0.4712E-13  0.1472E-04  0.5889E-07  0.1215E-02  0.2111E-04  0.1049E+04
   -1.600014   31.03571  0.4712E-13  0.1425E-04  0.6514E-07  0.1064E-02  0.1937E-04  0.2499E+04
   -1.650014   31.03670  0.4712E-13  0.1364E-04  0.7488E-07  0.9903E-03  0.1748E-04  0.4139E+05
   -1.700014   31.03782  0.4712E-13  0.1280E-04  0.9223E-07  0.7983E-03  0.1562E-04  0.5806E+05
   -1.750013   31.03986  0.4712E-13  0.1172E-04  0.1204E-06  0.7294E-03  0.1309E-04  0.1603E+07
   -1.800011   31.04140  0.4712E-13  0.1031E-04  0.1828E-06  0.4995E-03  0.1128E-04  0.4563E+06
   -1.850010   31.04862  0.4712E-13  0.8763E-05  0.2969E-06  0.4727E-03  0.7907E-05  0.1681E+09
   -1.900008   31.04649  0.4712E-13  0.6984E-05  0.6125E-06  0.2133E-03  0.6552E-05 -0.4992E+07
   -1.950005   31.06758  0.4712E-13  0.4922E-05  0.1518E-05  0.1976E-03  0.3516E-05 -0.4271E+06
   -2.000002   31.06936  0.4712E-13  0.0000E+00  0.0000E+00  0.0000E+00  0.6592E-05  0.0000E+00
