 1 - depth, m
 2 - temperature, C
 3 - salinity, kg/kg
 4 - turbulent kinetic energy, m**2/s**2
 5 - dissipation rate, m**2/s**3
 6 - kinematic heat conductance, m**2/s
 7 - modulus of horizontal velocity, m/s
 8 - Richardson number, n/d
   -0.000000   29.21595  0.2175E-13  0.4523E-05  0.2511E-06  0.4774E-04  0.2366E-02  0.2822E+04
   -0.049997   29.24305  0.2175E-13  0.7585E-05  0.1108E-06  0.1817E-03  0.1287E-02  0.6583E+03
   -0.099994   29.25221  0.2175E-13  0.9070E-05  0.7761E-07  0.3778E-03  0.9744E-03  0.8814E+01
   -0.149992   29.25511  0.2175E-13  0.1003E-04  0.6531E-07  0.4672E-03  0.8603E-03  0.4377E+01
   -0.199991   29.25738  0.2175E-13  0.1078E-04  0.5810E-07  0.6127E-03  0.7703E-03  0.2846E+01
   -0.249989   29.25905  0.2175E-13  0.1138E-04  0.5337E-07  0.7317E-03  0.7018E-03  0.2107E+01
   -0.299989   29.26043  0.2175E-13  0.1188E-04  0.5001E-07  0.8441E-03  0.6446E-03  0.1703E+01
   -0.349988   29.26159  0.2175E-13  0.1230E-04  0.4747E-07  0.9473E-03  0.5952E-03  0.1526E+01
   -0.399988   29.26261  0.2175E-13  0.1267E-04  0.4544E-07  0.1050E-02  0.5499E-03  0.1447E+01
   -0.449988   29.26350  0.2175E-13  0.1300E-04  0.4376E-07  0.1152E-02  0.5086E-03  0.1409E+01
   -0.499988   29.26431  0.2175E-13  0.1329E-04  0.4236E-07  0.1246E-02  0.4715E-03  0.1401E+01
   -0.549989   29.26504  0.2175E-13  0.1354E-04  0.4119E-07  0.1333E-02  0.4380E-03  0.1389E+01
   -0.599990   29.26571  0.2175E-13  0.1377E-04  0.4022E-07  0.1412E-02  0.4078E-03  0.1391E+01
   -0.649991   29.26633  0.2175E-13  0.1396E-04  0.3941E-07  0.1483E-02  0.3806E-03  0.1389E+01
   -0.699992   29.26692  0.2175E-13  0.1412E-04  0.3874E-07  0.1544E-02  0.3558E-03  0.1401E+01
   -0.749993   29.26748  0.2175E-13  0.1425E-04  0.3820E-07  0.1597E-02  0.3332E-03  0.1409E+01
   -0.799995   29.26801  0.2175E-13  0.1436E-04  0.3776E-07  0.1640E-02  0.3127E-03  0.1434E+01
   -0.849997   29.26853  0.2175E-13  0.1445E-04  0.3743E-07  0.1674E-02  0.2940E-03  0.1460E+01
   -0.899998   29.26903  0.2175E-13  0.1451E-04  0.3719E-07  0.1699E-02  0.2768E-03  0.1514E+01
   -0.950000   29.26952  0.2175E-13  0.1455E-04  0.3703E-07  0.1716E-02  0.2609E-03  0.1584E+01
   -1.000002   29.27000  0.2175E-13  0.1458E-04  0.3696E-07  0.1725E-02  0.2462E-03  0.1701E+01
   -1.050003   29.27047  0.2175E-13  0.1458E-04  0.3698E-07  0.1726E-02  0.2323E-03  0.1916E+01
   -1.100005   29.27094  0.2175E-13  0.1457E-04  0.3708E-07  0.1808E-02  0.2192E-03  0.6428E+01
   -1.150007   29.27139  0.2175E-13  0.1454E-04  0.3730E-07  0.1648E-02  0.2074E-03  0.1426E+02
   -1.200008   29.27188  0.2175E-13  0.1448E-04  0.3762E-07  0.1671E-02  0.1953E-03  0.2760E+01
   -1.250010   29.27236  0.2175E-13  0.1441E-04  0.3809E-07  0.1641E-02  0.1836E-03  0.2959E+01
   -1.300011   29.27285  0.2175E-13  0.1430E-04  0.3873E-07  0.1594E-02  0.1725E-03  0.3440E+01
   -1.350013   29.27335  0.2175E-13  0.1418E-04  0.3958E-07  0.1538E-02  0.1616E-03  0.4121E+01
   -1.400014   29.27386  0.2175E-13  0.1402E-04  0.4071E-07  0.1465E-02  0.1511E-03  0.5038E+01
   -1.450014   29.27441  0.2175E-13  0.1382E-04  0.4222E-07  0.1390E-02  0.1407E-03  0.6394E+01
   -1.500015   29.27498  0.2175E-13  0.1358E-04  0.4428E-07  0.1284E-02  0.1306E-03  0.8513E+01
   -1.550015   29.27561  0.2175E-13  0.1328E-04  0.4715E-07  0.1199E-02  0.1204E-03  0.1192E+02
   -1.600016   29.27628  0.2175E-13  0.1292E-04  0.5142E-07  0.1059E-02  0.1105E-03  0.1972E+02
   -1.650015   29.27708  0.2175E-13  0.1245E-04  0.5789E-07  0.9821E-03  0.1000E-03  0.9743E+02
   -1.700015   29.27796  0.2175E-13  0.1181E-04  0.6963E-07  0.8020E-03  0.8992E-04 -0.2250E+03
   -1.750014   29.27951  0.2175E-13  0.1093E-04  0.8903E-07  0.7242E-03  0.7658E-04  0.6591E+04
   -1.800013   29.28091  0.2175E-13  0.9712E-05  0.1287E-06  0.5081E-03  0.6579E-04  0.7743E+04
   -1.850011   29.28586  0.2175E-13  0.8271E-05  0.2038E-06  0.4593E-03  0.4779E-04  0.2269E+08
   -1.900009   29.28561  0.2175E-13  0.6544E-05  0.4233E-06  0.2081E-03  0.3851E-04  0.5599E+06
   -1.950006   29.30232  0.2175E-13  0.4515E-05  0.1077E-05  0.1728E-03  0.2086E-04 -0.1376E+07
   -2.000003   29.30481  0.2175E-13  0.0000E+00  0.0000E+00  0.0000E+00  0.3697E-04  0.0000E+00
