 1 - depth, m
 2 - temperature, C
 3 - salinity, kg/kg
 4 - turbulent kinetic energy, m**2/s**2
 5 - dissipation rate, m**2/s**3
 6 - kinematic heat conductance, m**2/s
 7 - modulus of horizontal velocity, m/s
 8 - Richardson number, n/d
   -0.000000   30.25880  0.1004E-12  0.4801E-05  0.2967E-06  0.5044E-04  0.1691E-02  0.6102E+04
   -0.049997   30.28918  0.1004E-12  0.8168E-05  0.1324E-06  0.1743E-03  0.9699E-03  0.2965E+04
   -0.099994   30.30096  0.1004E-12  0.9903E-05  0.9082E-07  0.3941E-03  0.7092E-03  0.1690E+02
   -0.149992   30.30423  0.1004E-12  0.1098E-04  0.7612E-07  0.4734E-03  0.6262E-03  0.8212E+01
   -0.199991   30.30683  0.1004E-12  0.1182E-04  0.6750E-07  0.6327E-03  0.5589E-03  0.5261E+01
   -0.249989   30.30872  0.1004E-12  0.1249E-04  0.6184E-07  0.7566E-03  0.5085E-03  0.3870E+01
   -0.299988   30.31025  0.1004E-12  0.1303E-04  0.5780E-07  0.8798E-03  0.4666E-03  0.3073E+01
   -0.349988   30.31153  0.1004E-12  0.1347E-04  0.5476E-07  0.9916E-03  0.4306E-03  0.2620E+01
   -0.399988   30.31264  0.1004E-12  0.1385E-04  0.5239E-07  0.1094E-02  0.3989E-03  0.2332E+01
   -0.449988   30.31362  0.1004E-12  0.1417E-04  0.5046E-07  0.1189E-02  0.3710E-03  0.2184E+01
   -0.499988   30.31451  0.1004E-12  0.1445E-04  0.4885E-07  0.1276E-02  0.3463E-03  0.2123E+01
   -0.549989   30.31532  0.1004E-12  0.1468E-04  0.4750E-07  0.1356E-02  0.3242E-03  0.2091E+01
   -0.599990   30.31606  0.1004E-12  0.1489E-04  0.4636E-07  0.1428E-02  0.3042E-03  0.2091E+01
   -0.649991   30.31676  0.1004E-12  0.1506E-04  0.4539E-07  0.1493E-02  0.2860E-03  0.2113E+01
   -0.699992   30.31741  0.1004E-12  0.1521E-04  0.4457E-07  0.1551E-02  0.2693E-03  0.2159E+01
   -0.749993   30.31803  0.1004E-12  0.1533E-04  0.4387E-07  0.1601E-02  0.2538E-03  0.2226E+01
   -0.799995   30.31862  0.1004E-12  0.1542E-04  0.4329E-07  0.1643E-02  0.2394E-03  0.2318E+01
   -0.849996   30.31919  0.1004E-12  0.1550E-04  0.4281E-07  0.1678E-02  0.2260E-03  0.2432E+01
   -0.899998   30.31974  0.1004E-12  0.1555E-04  0.4244E-07  0.1705E-02  0.2134E-03  0.2578E+01
   -0.950000   30.32027  0.1004E-12  0.1558E-04  0.4216E-07  0.1724E-02  0.2016E-03  0.2754E+01
   -1.000001   30.32080  0.1004E-12  0.1559E-04  0.4197E-07  0.1735E-02  0.1904E-03  0.2971E+01
   -1.050003   30.32131  0.1004E-12  0.1558E-04  0.4189E-07  0.1736E-02  0.1797E-03  0.3361E+01
   -1.100005   30.32182  0.1004E-12  0.1555E-04  0.4192E-07  0.1821E-02  0.1696E-03  0.1115E+02
   -1.150006   30.32230  0.1004E-12  0.1549E-04  0.4207E-07  0.1656E-02  0.1606E-03  0.2527E+02
   -1.200008   30.32283  0.1004E-12  0.1542E-04  0.4235E-07  0.1680E-02  0.1512E-03  0.4845E+01
   -1.250009   30.32334  0.1004E-12  0.1532E-04  0.4280E-07  0.1651E-02  0.1422E-03  0.5157E+01
   -1.300011   30.32386  0.1004E-12  0.1519E-04  0.4344E-07  0.1602E-02  0.1336E-03  0.6027E+01
   -1.350012   30.32440  0.1004E-12  0.1503E-04  0.4433E-07  0.1544E-02  0.1253E-03  0.7209E+01
   -1.400013   30.32495  0.1004E-12  0.1483E-04  0.4555E-07  0.1468E-02  0.1171E-03  0.8901E+01
   -1.450014   30.32552  0.1004E-12  0.1460E-04  0.4723E-07  0.1393E-02  0.1091E-03  0.1133E+02
   -1.500014   30.32613  0.1004E-12  0.1431E-04  0.4956E-07  0.1282E-02  0.1013E-03  0.1541E+02
   -1.550015   30.32680  0.1004E-12  0.1397E-04  0.5288E-07  0.1200E-02  0.9344E-04  0.2190E+02
   -1.600015   30.32751  0.1004E-12  0.1354E-04  0.5801E-07  0.1055E-02  0.8576E-04  0.4455E+02
   -1.650015   30.32840  0.1004E-12  0.1299E-04  0.6596E-07  0.9797E-03  0.7746E-04  0.2226E+03
   -1.700014   30.32936  0.1004E-12  0.1224E-04  0.8026E-07  0.7965E-03  0.6948E-04  0.5462E+01
   -1.750013   30.33112  0.1004E-12  0.1123E-04  0.1041E-06  0.7190E-03  0.5876E-04  0.7650E+05
   -1.800012   30.33260  0.1004E-12  0.9884E-05  0.1552E-06  0.5011E-03  0.5033E-04  0.3007E+05
   -1.850010   30.33847  0.1004E-12  0.8372E-05  0.2488E-06  0.4603E-03  0.3596E-04  0.4560E+08
   -1.900008   30.33730  0.1004E-12  0.6621E-05  0.5171E-06  0.2101E-03  0.2924E-04 -0.3839E+05
   -1.950006   30.35570  0.1004E-12  0.4620E-05  0.1299E-05  0.1864E-03  0.1562E-04 -0.4802E+07
   -2.000003   30.35793  0.1004E-12  0.0000E+00  0.0000E+00  0.0000E+00  0.2893E-04  0.0000E+00
