 1 - depth, m
 2 - temperature, C
 3 - salinity, kg/kg
 4 - turbulent kinetic energy, m**2/s**2
 5 - dissipation rate, m**2/s**3
 6 - kinematic heat conductance, m**2/s
 7 - modulus of horizontal velocity, m/s
 8 - Richardson number, n/d
   -0.000000   30.16532  0.7269E-13  0.4808E-05  0.2978E-06  0.5009E-04  0.1425E-02  0.6897E+04
   -0.049997   30.19627  0.7269E-13  0.8244E-05  0.1329E-06  0.1778E-03  0.8106E-03  0.3245E+04
   -0.099994   30.20800  0.7269E-13  0.9995E-05  0.9154E-07  0.3972E-03  0.5944E-03  0.2416E+02
   -0.149992   30.21128  0.7269E-13  0.1109E-04  0.7679E-07  0.4788E-03  0.5248E-03  0.1184E+02
   -0.199991   30.21389  0.7269E-13  0.1194E-04  0.6814E-07  0.6396E-03  0.4685E-03  0.7586E+01
   -0.249989   30.21578  0.7269E-13  0.1262E-04  0.6246E-07  0.7646E-03  0.4263E-03  0.5598E+01
   -0.299988   30.21732  0.7269E-13  0.1317E-04  0.5840E-07  0.8894E-03  0.3912E-03  0.4442E+01
   -0.349988   30.21860  0.7269E-13  0.1362E-04  0.5535E-07  0.1002E-02  0.3612E-03  0.3798E+01
   -0.399988   30.21972  0.7269E-13  0.1400E-04  0.5297E-07  0.1106E-02  0.3347E-03  0.3374E+01
   -0.449988   30.22070  0.7269E-13  0.1433E-04  0.5104E-07  0.1202E-02  0.3113E-03  0.3167E+01
   -0.499988   30.22159  0.7269E-13  0.1461E-04  0.4943E-07  0.1290E-02  0.2907E-03  0.3070E+01
   -0.549989   30.22240  0.7269E-13  0.1486E-04  0.4808E-07  0.1372E-02  0.2722E-03  0.3030E+01
   -0.599990   30.22315  0.7269E-13  0.1507E-04  0.4693E-07  0.1445E-02  0.2555E-03  0.3018E+01
   -0.649991   30.22385  0.7269E-13  0.1525E-04  0.4596E-07  0.1511E-02  0.2402E-03  0.3056E+01
   -0.699992   30.22450  0.7269E-13  0.1540E-04  0.4513E-07  0.1570E-02  0.2262E-03  0.3110E+01
   -0.749993   30.22513  0.7269E-13  0.1552E-04  0.4443E-07  0.1622E-02  0.2133E-03  0.3211E+01
   -0.799995   30.22572  0.7269E-13  0.1563E-04  0.4384E-07  0.1666E-02  0.2012E-03  0.3327E+01
   -0.849996   30.22629  0.7269E-13  0.1570E-04  0.4336E-07  0.1702E-02  0.1900E-03  0.3496E+01
   -0.899998   30.22685  0.7269E-13  0.1576E-04  0.4298E-07  0.1730E-02  0.1795E-03  0.3683E+01
   -0.950000   30.22738  0.7269E-13  0.1580E-04  0.4269E-07  0.1751E-02  0.1696E-03  0.3938E+01
   -1.000001   30.22791  0.7269E-13  0.1581E-04  0.4250E-07  0.1763E-02  0.1602E-03  0.4221E+01
   -1.050003   30.22842  0.7269E-13  0.1581E-04  0.4241E-07  0.1766E-02  0.1513E-03  0.4774E+01
   -1.100005   30.22893  0.7269E-13  0.1578E-04  0.4242E-07  0.1846E-02  0.1428E-03  0.1592E+02
   -1.150006   30.22941  0.7269E-13  0.1574E-04  0.4256E-07  0.1696E-02  0.1352E-03  0.3470E+02
   -1.200008   30.22994  0.7269E-13  0.1567E-04  0.4283E-07  0.1716E-02  0.1274E-03  0.6763E+01
   -1.250009   30.23045  0.7269E-13  0.1557E-04  0.4325E-07  0.1688E-02  0.1199E-03  0.7146E+01
   -1.300011   30.23097  0.7269E-13  0.1545E-04  0.4386E-07  0.1641E-02  0.1127E-03  0.8315E+01
   -1.350012   30.23149  0.7269E-13  0.1530E-04  0.4471E-07  0.1585E-02  0.1057E-03  0.9823E+01
   -1.400013   30.23204  0.7269E-13  0.1512E-04  0.4588E-07  0.1513E-02  0.9891E-04  0.1201E+02
   -1.450014   30.23260  0.7269E-13  0.1489E-04  0.4746E-07  0.1436E-02  0.9225E-04  0.1505E+02
   -1.500014   30.23320  0.7269E-13  0.1462E-04  0.4967E-07  0.1331E-02  0.8571E-04  0.2005E+02
   -1.550015   30.23385  0.7269E-13  0.1430E-04  0.5279E-07  0.1244E-02  0.7918E-04  0.2791E+02
   -1.600015   30.23454  0.7269E-13  0.1389E-04  0.5749E-07  0.1105E-02  0.7276E-04  0.4942E+02
   -1.650015   30.23537  0.7269E-13  0.1338E-04  0.6476E-07  0.1021E-02  0.6598E-04  0.1269E+01
   -1.700014   30.23630  0.7269E-13  0.1268E-04  0.7761E-07  0.8417E-03  0.5931E-04 -0.6018E+03
   -1.750013   30.23784  0.7269E-13  0.1175E-04  0.9884E-07  0.7573E-03  0.5079E-04  0.7044E+04
   -1.800012   30.23927  0.7269E-13  0.1048E-04  0.1430E-06  0.5384E-03  0.4372E-04  0.8296E+04
   -1.850010   30.24411  0.7269E-13  0.9017E-05  0.2256E-06  0.4878E-03  0.3227E-04  0.1843E+09
   -1.900008   30.24383  0.7269E-13  0.7191E-05  0.4687E-06  0.2239E-03  0.2617E-04 -0.9961E+04
   -1.950005   30.26008  0.7269E-13  0.4962E-05  0.1190E-05  0.1755E-03  0.1454E-04 -0.6235E+06
   -2.000002   30.26351  0.7269E-13  0.0000E+00  0.0000E+00  0.0000E+00  0.2504E-04  0.0000E+00
