 1 - depth, m
 2 - temperature, C
 3 - salinity, kg/kg
 4 - turbulent kinetic energy, m**2/s**2
 5 - dissipation rate, m**2/s**3
 6 - kinematic heat conductance, m**2/s
 7 - modulus of horizontal velocity, m/s
 8 - Richardson number, n/d
   -0.000000   30.57799  0.1348E-13  0.5787E-05  0.3184E-06  0.5565E-04  0.4211E-02  0.1414E+03
   -0.049997   30.60785  0.1348E-13  0.9075E-05  0.1360E-06  0.2123E-03  0.2262E-02  0.6643E+01
   -0.099994   30.61649  0.1348E-13  0.1053E-04  0.9809E-07  0.3867E-03  0.1826E-02  0.3262E+01
   -0.149992   30.61992  0.1348E-13  0.1152E-04  0.8312E-07  0.4818E-03  0.1639E-02  0.1762E+01
   -0.199991   30.62254  0.1348E-13  0.1232E-04  0.7432E-07  0.6023E-03  0.1493E-02  0.1311E+01
   -0.249989   30.62458  0.1348E-13  0.1302E-04  0.6828E-07  0.7121E-03  0.1375E-02  0.1301E+01
   -0.299988   30.62626  0.1348E-13  0.1367E-04  0.6356E-07  0.8444E-03  0.1263E-02  0.1395E+01
   -0.349988   30.62764  0.1348E-13  0.1428E-04  0.5969E-07  0.9926E-03  0.1154E-02  0.1493E+01
   -0.399988   30.62879  0.1348E-13  0.1485E-04  0.5649E-07  0.1147E-02  0.1047E-02  0.1515E+01
   -0.449988   30.62976  0.1348E-13  0.1536E-04  0.5383E-07  0.1297E-02  0.9489E-03  0.1514E+01
   -0.499988   30.63060  0.1348E-13  0.1580E-04  0.5165E-07  0.1437E-02  0.8608E-03  0.1508E+01
   -0.549989   30.63135  0.1348E-13  0.1617E-04  0.4987E-07  0.1564E-02  0.7827E-03  0.1491E+01
   -0.599989   30.63202  0.1348E-13  0.1648E-04  0.4842E-07  0.1677E-02  0.7132E-03  0.1470E+01
   -0.649991   30.63264  0.1348E-13  0.1673E-04  0.4725E-07  0.1773E-02  0.6514E-03  0.1445E+01
   -0.699992   30.63321  0.1348E-13  0.1692E-04  0.4633E-07  0.1851E-02  0.5964E-03  0.1417E+01
   -0.749993   30.63375  0.1348E-13  0.1705E-04  0.4561E-07  0.1912E-02  0.5475E-03  0.1386E+01
   -0.799995   30.63427  0.1348E-13  0.1714E-04  0.4508E-07  0.1955E-02  0.5039E-03  0.1352E+01
   -0.849996   30.63477  0.1348E-13  0.1719E-04  0.4472E-07  0.1981E-02  0.4651E-03  0.1315E+01
   -0.899998   30.63526  0.1348E-13  0.1721E-04  0.4451E-07  0.1992E-02  0.4305E-03  0.1277E+01
   -0.949999   30.63573  0.1348E-13  0.1718E-04  0.4445E-07  0.1988E-02  0.3997E-03  0.1235E+01
   -1.000001   30.63621  0.1348E-13  0.1714E-04  0.4451E-07  0.1970E-02  0.3722E-03  0.1190E+01
   -1.050003   30.63668  0.1348E-13  0.1706E-04  0.4470E-07  0.1930E-02  0.3477E-03  0.1147E+01
   -1.100005   30.63716  0.1348E-13  0.1698E-04  0.4499E-07  0.2120E-02  0.3262E-03  0.2589E+01
   -1.150006   30.63759  0.1348E-13  0.1687E-04  0.4542E-07  0.1711E-02  0.3109E-03  0.7108E+01
   -1.200008   30.63812  0.1348E-13  0.1674E-04  0.4599E-07  0.1816E-02  0.2932E-03  0.1282E+01
   -1.250009   30.63862  0.1348E-13  0.1657E-04  0.4678E-07  0.1774E-02  0.2766E-03  0.1338E+01
   -1.300011   30.63913  0.1348E-13  0.1638E-04  0.4783E-07  0.1702E-02  0.2608E-03  0.1578E+01
   -1.350012   30.63965  0.1348E-13  0.1615E-04  0.4924E-07  0.1626E-02  0.2454E-03  0.1932E+01
   -1.400013   30.64020  0.1348E-13  0.1587E-04  0.5114E-07  0.1521E-02  0.2303E-03  0.2475E+01
   -1.450014   30.64079  0.1348E-13  0.1554E-04  0.5374E-07  0.1432E-02  0.2152E-03  0.3289E+01
   -1.500014   30.64142  0.1348E-13  0.1515E-04  0.5741E-07  0.1296E-02  0.2002E-03  0.4805E+01
   -1.550015   30.64213  0.1348E-13  0.1467E-04  0.6276E-07  0.1216E-02  0.1849E-03  0.8202E+01
   -1.600015   30.64291  0.1348E-13  0.1407E-04  0.7153E-07  0.1052E-02  0.1697E-03 -0.8505E+02
   -1.650014   30.64404  0.1348E-13  0.1327E-04  0.8520E-07  0.9729E-03  0.1519E-03  0.4949E+04
   -1.700014   30.64527  0.1348E-13  0.1219E-04  0.1089E-06  0.7734E-03  0.1345E-03  0.9139E+03
   -1.750013   30.64768  0.1348E-13  0.1091E-04  0.1469E-06  0.6979E-03  0.1101E-03  0.1027E+06
   -1.800012   30.64900  0.1348E-13  0.9355E-05  0.2319E-06  0.4710E-03  0.9462E-04  0.1669E+05
   -1.850010   30.65824  0.1348E-13  0.7831E-05  0.3891E-06  0.4519E-03  0.6290E-04  0.5502E+08
   -1.900008   30.65373  0.1348E-13  0.6191E-05  0.8233E-06  0.2120E-03  0.5269E-04 -0.5847E+05
   -1.950005   30.67684  0.1348E-13  0.4467E-05  0.1918E-05  0.2322E-03  0.2683E-04 -0.2630E+06
   -2.000002   30.67566  0.1348E-13  0.0000E+00  0.0000E+00  0.0000E+00  0.5888E-04  0.0000E+00
