 1 - depth, m
 2 - temperature, C
 3 - salinity, kg/kg
 4 - turbulent kinetic energy, m**2/s**2
 5 - dissipation rate, m**2/s**3
 6 - kinematic heat conductance, m**2/s
 7 - modulus of horizontal velocity, m/s
 8 - Richardson number, n/d
   -0.000000   30.45981  0.1012E-13  0.4840E-05  0.3003E-06  0.4883E-04  0.1015E-02  0.5615E+04
   -0.049997   30.49178  0.1012E-13  0.8409E-05  0.1334E-06  0.1859E-03  0.5666E-03  0.7181E+02
   -0.099994   30.50309  0.1012E-13  0.1017E-04  0.9268E-07  0.4040E-03  0.4198E-03  0.4939E+02
   -0.149992   30.50634  0.1012E-13  0.1129E-04  0.7797E-07  0.4894E-03  0.3711E-03  0.2432E+02
   -0.199991   30.50891  0.1012E-13  0.1215E-04  0.6932E-07  0.6514E-03  0.3318E-03  0.1568E+02
   -0.249989   30.51078  0.1012E-13  0.1284E-04  0.6365E-07  0.7773E-03  0.3023E-03  0.1158E+02
   -0.299988   30.51231  0.1012E-13  0.1341E-04  0.5960E-07  0.9034E-03  0.2778E-03  0.9242E+01
   -0.349988   30.51360  0.1012E-13  0.1387E-04  0.5656E-07  0.1017E-02  0.2567E-03  0.7883E+01
   -0.399988   30.51471  0.1012E-13  0.1426E-04  0.5419E-07  0.1121E-02  0.2381E-03  0.7041E+01
   -0.449988   30.51570  0.1012E-13  0.1460E-04  0.5227E-07  0.1218E-02  0.2217E-03  0.6584E+01
   -0.499988   30.51659  0.1012E-13  0.1489E-04  0.5067E-07  0.1307E-02  0.2071E-03  0.6422E+01
   -0.549989   30.51740  0.1012E-13  0.1515E-04  0.4934E-07  0.1388E-02  0.1941E-03  0.6304E+01
   -0.599990   30.51816  0.1012E-13  0.1536E-04  0.4821E-07  0.1462E-02  0.1823E-03  0.6325E+01
   -0.649991   30.51886  0.1012E-13  0.1555E-04  0.4726E-07  0.1528E-02  0.1716E-03  0.6368E+01
   -0.699992   30.51952  0.1012E-13  0.1571E-04  0.4645E-07  0.1587E-02  0.1617E-03  0.6530E+01
   -0.749993   30.52016  0.1012E-13  0.1584E-04  0.4577E-07  0.1638E-02  0.1526E-03  0.6705E+01
   -0.799995   30.52076  0.1012E-13  0.1594E-04  0.4521E-07  0.1681E-02  0.1441E-03  0.7005E+01
   -0.849996   30.52134  0.1012E-13  0.1603E-04  0.4476E-07  0.1716E-02  0.1361E-03  0.7320E+01
   -0.899998   30.52190  0.1012E-13  0.1609E-04  0.4441E-07  0.1743E-02  0.1286E-03  0.7782E+01
   -0.949999   30.52245  0.1012E-13  0.1613E-04  0.4416E-07  0.1762E-02  0.1216E-03  0.8278E+01
   -1.000001   30.52298  0.1012E-13  0.1614E-04  0.4401E-07  0.1773E-02  0.1150E-03  0.8961E+01
   -1.050003   30.52351  0.1012E-13  0.1614E-04  0.4396E-07  0.1774E-02  0.1086E-03  0.1008E+02
   -1.100005   30.52403  0.1012E-13  0.1611E-04  0.4403E-07  0.1862E-02  0.1026E-03  0.3349E+02
   -1.150006   30.52453  0.1012E-13  0.1606E-04  0.4423E-07  0.1689E-02  0.9722E-04  0.7626E+02
   -1.200008   30.52507  0.1012E-13  0.1599E-04  0.4456E-07  0.1716E-02  0.9162E-04  0.1452E+02
   -1.250009   30.52560  0.1012E-13  0.1589E-04  0.4507E-07  0.1686E-02  0.8627E-04  0.1550E+02
   -1.300011   30.52614  0.1012E-13  0.1576E-04  0.4579E-07  0.1636E-02  0.8113E-04  0.1804E+02
   -1.350012   30.52669  0.1012E-13  0.1560E-04  0.4677E-07  0.1577E-02  0.7612E-04  0.2166E+02
   -1.400013   30.52725  0.1012E-13  0.1540E-04  0.4810E-07  0.1500E-02  0.7126E-04  0.2667E+02
   -1.450014   30.52785  0.1012E-13  0.1517E-04  0.4992E-07  0.1423E-02  0.6646E-04  0.3412E+02
   -1.500014   30.52848  0.1012E-13  0.1488E-04  0.5245E-07  0.1310E-02  0.6177E-04  0.4641E+02
   -1.550015   30.52917  0.1012E-13  0.1452E-04  0.5604E-07  0.1228E-02  0.5703E-04  0.6672E+02
   -1.600015   30.52991  0.1012E-13  0.1408E-04  0.6158E-07  0.1081E-02  0.5242E-04  0.5384E+04
   -1.650014   30.53083  0.1012E-13  0.1351E-04  0.7015E-07  0.1004E-02  0.4740E-04  0.9110E+03
   -1.700014   30.53184  0.1012E-13  0.1273E-04  0.8538E-07  0.8166E-03  0.4256E-04  0.2666E+05
   -1.750013   30.53367  0.1012E-13  0.1171E-04  0.1103E-06  0.7407E-03  0.3606E-04  0.4976E+06
   -1.800012   30.53511  0.1012E-13  0.1036E-04  0.1633E-06  0.5212E-03  0.3110E-04  0.2026E+06
   -1.850010   30.54118  0.1012E-13  0.8846E-05  0.2632E-06  0.4782E-03  0.2241E-04  0.2420E+08
   -1.900008   30.54008  0.1012E-13  0.7047E-05  0.5522E-06  0.2230E-03  0.1828E-04  0.5251E+07
   -1.950005   30.55850  0.1012E-13  0.4916E-05  0.1381E-05  0.1874E-03  0.9979E-05 -0.2842E+07
   -2.000002   30.56147  0.1012E-13  0.0000E+00  0.0000E+00  0.0000E+00  0.1795E-04  0.0000E+00
