 1 - depth, m
 2 - temperature, C
 3 - salinity, kg/kg
 4 - turbulent kinetic energy, m**2/s**2
 5 - dissipation rate, m**2/s**3
 6 - kinematic heat conductance, m**2/s
 7 - modulus of horizontal velocity, m/s
 8 - Richardson number, n/d
   -0.000000   30.39349  0.5629E-14  0.4779E-05  0.2949E-06  0.4956E-04  0.1350E-02  0.6160E+04
   -0.049997   30.42400  0.5629E-14  0.8234E-05  0.1314E-06  0.1802E-03  0.7653E-03  0.1890E+03
   -0.099994   30.43534  0.5630E-14  0.9983E-05  0.9082E-07  0.3989E-03  0.5629E-03  0.2738E+02
   -0.149992   30.43854  0.5630E-14  0.1108E-04  0.7628E-07  0.4822E-03  0.4971E-03  0.1347E+02
   -0.199991   30.44108  0.5630E-14  0.1194E-04  0.6777E-07  0.6435E-03  0.4441E-03  0.8656E+01
   -0.249989   30.44292  0.5630E-14  0.1262E-04  0.6220E-07  0.7690E-03  0.4043E-03  0.6381E+01
   -0.299988   30.44443  0.5630E-14  0.1318E-04  0.5823E-07  0.8944E-03  0.3713E-03  0.5087E+01
   -0.349988   30.44569  0.5630E-14  0.1365E-04  0.5526E-07  0.1008E-02  0.3429E-03  0.4339E+01
   -0.399988   30.44678  0.5630E-14  0.1404E-04  0.5295E-07  0.1112E-02  0.3179E-03  0.3875E+01
   -0.449988   30.44776  0.5630E-14  0.1437E-04  0.5107E-07  0.1208E-02  0.2959E-03  0.3626E+01
   -0.499988   30.44863  0.5630E-14  0.1466E-04  0.4952E-07  0.1297E-02  0.2763E-03  0.3536E+01
   -0.549989   30.44943  0.5630E-14  0.1492E-04  0.4823E-07  0.1378E-02  0.2589E-03  0.3475E+01
   -0.599990   30.45018  0.5630E-14  0.1513E-04  0.4714E-07  0.1451E-02  0.2431E-03  0.3487E+01
   -0.649991   30.45087  0.5630E-14  0.1532E-04  0.4622E-07  0.1517E-02  0.2287E-03  0.3515E+01
   -0.699992   30.45153  0.5630E-14  0.1548E-04  0.4545E-07  0.1576E-02  0.2154E-03  0.3606E+01
   -0.749993   30.45215  0.5630E-14  0.1562E-04  0.4480E-07  0.1627E-02  0.2032E-03  0.3707E+01
   -0.799995   30.45274  0.5630E-14  0.1573E-04  0.4427E-07  0.1670E-02  0.1918E-03  0.3877E+01
   -0.849996   30.45331  0.5630E-14  0.1581E-04  0.4385E-07  0.1706E-02  0.1812E-03  0.4056E+01
   -0.899998   30.45387  0.5630E-14  0.1588E-04  0.4352E-07  0.1733E-02  0.1712E-03  0.4317E+01
   -0.949999   30.45441  0.5630E-14  0.1592E-04  0.4330E-07  0.1752E-02  0.1618E-03  0.4599E+01
   -1.000001   30.45494  0.5630E-14  0.1595E-04  0.4317E-07  0.1764E-02  0.1529E-03  0.4983E+01
   -1.050003   30.45547  0.5630E-14  0.1595E-04  0.4314E-07  0.1765E-02  0.1444E-03  0.5621E+01
   -1.100005   30.45598  0.5630E-14  0.1593E-04  0.4323E-07  0.1851E-02  0.1364E-03  0.1873E+02
   -1.150006   30.45648  0.5630E-14  0.1588E-04  0.4345E-07  0.1684E-02  0.1292E-03  0.4210E+02
   -1.200008   30.45701  0.5630E-14  0.1582E-04  0.4379E-07  0.1709E-02  0.1217E-03  0.8100E+01
   -1.250009   30.45754  0.5630E-14  0.1573E-04  0.4431E-07  0.1679E-02  0.1146E-03  0.8656E+01
   -1.300011   30.45807  0.5630E-14  0.1561E-04  0.4503E-07  0.1630E-02  0.1077E-03  0.1009E+02
   -1.350012   30.45862  0.5630E-14  0.1546E-04  0.4600E-07  0.1571E-02  0.1010E-03  0.1209E+02
   -1.400013   30.45919  0.5630E-14  0.1527E-04  0.4731E-07  0.1495E-02  0.9456E-04  0.1487E+02
   -1.450014   30.45978  0.5630E-14  0.1504E-04  0.4909E-07  0.1417E-02  0.8818E-04  0.1893E+02
   -1.500014   30.46041  0.5630E-14  0.1476E-04  0.5154E-07  0.1306E-02  0.8193E-04  0.2556E+02
   -1.550015   30.46110  0.5630E-14  0.1442E-04  0.5499E-07  0.1221E-02  0.7564E-04  0.3616E+02
   -1.600015   30.46185  0.5630E-14  0.1400E-04  0.6023E-07  0.1075E-02  0.6949E-04  0.6546E+02
   -1.650014   30.46274  0.5630E-14  0.1345E-04  0.6825E-07  0.9961E-03  0.6290E-04  0.2097E+03
   -1.700014   30.46374  0.5630E-14  0.1271E-04  0.8262E-07  0.8144E-03  0.5652E-04  0.3891E+05
   -1.750013   30.46550  0.5630E-14  0.1170E-04  0.1065E-06  0.7352E-03  0.4808E-04  0.5889E+05
   -1.800012   30.46706  0.5630E-14  0.1033E-04  0.1571E-06  0.5127E-03  0.4128E-04  0.1352E+05
   -1.850010   30.47294  0.5630E-14  0.8777E-05  0.2502E-06  0.4695E-03  0.2981E-04  0.1162E+08
   -1.900008   30.47212  0.5630E-14  0.6922E-05  0.5210E-06  0.2104E-03  0.2416E-04 -0.8062E+06
   -1.950005   30.49114  0.5630E-14  0.4843E-05  0.1312E-05  0.1868E-03  0.1300E-04 -0.5552E+06
   -2.000002   30.49294  0.5630E-14  0.0000E+00  0.0000E+00  0.0000E+00  0.2350E-04  0.0000E+00
