 1 - depth, m
 2 - temperature, C
 3 - salinity, kg/kg
 4 - turbulent kinetic energy, m**2/s**2
 5 - dissipation rate, m**2/s**3
 6 - kinematic heat conductance, m**2/s
 7 - modulus of horizontal velocity, m/s
 8 - Richardson number, n/d
   -0.000000   29.93881  0.9797E-13  0.4492E-05  0.2706E-06  0.4865E-04  0.7814E-03  0.2144E+05
   -0.049997   29.96818  0.9797E-13  0.7859E-05  0.1201E-06  0.1732E-03  0.4443E-03  0.3784E+02
   -0.099994   29.97942  0.9797E-13  0.9529E-05  0.8279E-07  0.4012E-03  0.3218E-03  0.7602E+02
   -0.149992   29.98243  0.9797E-13  0.1056E-04  0.6988E-07  0.4754E-03  0.2848E-03  0.3679E+02
   -0.199991   29.98487  0.9797E-13  0.1136E-04  0.6223E-07  0.6336E-03  0.2544E-03  0.2392E+02
   -0.249989   29.98664  0.9797E-13  0.1199E-04  0.5717E-07  0.7560E-03  0.2315E-03  0.1771E+02
   -0.299989   29.98809  0.9797E-13  0.1251E-04  0.5354E-07  0.8771E-03  0.2125E-03  0.1414E+02
   -0.349988   29.98930  0.9797E-13  0.1294E-04  0.5081E-07  0.9871E-03  0.1961E-03  0.1209E+02
   -0.399988   29.99035  0.9797E-13  0.1330E-04  0.4867E-07  0.1088E-02  0.1816E-03  0.1079E+02
   -0.449988   29.99128  0.9797E-13  0.1361E-04  0.4693E-07  0.1181E-02  0.1689E-03  0.1011E+02
   -0.499988   29.99212  0.9797E-13  0.1388E-04  0.4548E-07  0.1267E-02  0.1576E-03  0.9851E+01
   -0.549989   29.99288  0.9797E-13  0.1411E-04  0.4427E-07  0.1345E-02  0.1475E-03  0.9701E+01
   -0.599990   29.99359  0.9797E-13  0.1431E-04  0.4324E-07  0.1416E-02  0.1384E-03  0.9716E+01
   -0.649991   29.99426  0.9797E-13  0.1448E-04  0.4237E-07  0.1480E-02  0.1301E-03  0.9814E+01
   -0.699992   29.99488  0.9797E-13  0.1462E-04  0.4163E-07  0.1537E-02  0.1224E-03  0.1005E+02
   -0.749993   29.99547  0.9797E-13  0.1474E-04  0.4100E-07  0.1587E-02  0.1154E-03  0.1035E+02
   -0.799995   29.99603  0.9797E-13  0.1484E-04  0.4048E-07  0.1629E-02  0.1088E-03  0.1079E+02
   -0.849996   29.99658  0.9797E-13  0.1492E-04  0.4006E-07  0.1664E-02  0.1027E-03  0.1131E+02
   -0.899998   29.99710  0.9797E-13  0.1497E-04  0.3973E-07  0.1691E-02  0.9690E-04  0.1200E+02
   -0.950000   29.99761  0.9797E-13  0.1501E-04  0.3948E-07  0.1710E-02  0.9148E-04  0.1281E+02
   -1.000001   29.99811  0.9797E-13  0.1502E-04  0.3933E-07  0.1721E-02  0.8636E-04  0.1383E+02
   -1.050003   29.99861  0.9797E-13  0.1502E-04  0.3927E-07  0.1723E-02  0.8150E-04  0.1562E+02
   -1.100005   29.99909  0.9797E-13  0.1500E-04  0.3931E-07  0.1803E-02  0.7688E-04  0.5222E+02
   -1.150007   29.99956  0.9797E-13  0.1495E-04  0.3946E-07  0.1652E-02  0.7274E-04  0.1156E+03
   -1.200008   30.00006  0.9797E-13  0.1489E-04  0.3973E-07  0.1672E-02  0.6848E-04  0.2236E+02
   -1.250010   30.00055  0.9797E-13  0.1480E-04  0.4015E-07  0.1643E-02  0.6440E-04  0.2381E+02
   -1.300011   30.00104  0.9797E-13  0.1469E-04  0.4075E-07  0.1597E-02  0.6048E-04  0.2770E+02
   -1.350012   30.00155  0.9797E-13  0.1454E-04  0.4157E-07  0.1541E-02  0.5667E-04  0.3301E+02
   -1.400013   30.00208  0.9797E-13  0.1437E-04  0.4269E-07  0.1469E-02  0.5298E-04  0.4042E+02
   -1.450014   30.00262  0.9797E-13  0.1416E-04  0.4420E-07  0.1394E-02  0.4936E-04  0.5112E+02
   -1.500015   30.00320  0.9797E-13  0.1390E-04  0.4629E-07  0.1288E-02  0.4581E-04  0.6831E+02
   -1.550015   30.00383  0.9797E-13  0.1358E-04  0.4924E-07  0.1203E-02  0.4226E-04  0.9569E+02
   -1.600015   30.00451  0.9797E-13  0.1320E-04  0.5369E-07  0.1064E-02  0.3878E-04  0.1663E+03
   -1.650015   30.00531  0.9797E-13  0.1270E-04  0.6051E-07  0.9850E-03  0.3510E-04  0.9808E+03
   -1.700014   30.00620  0.9797E-13  0.1203E-04  0.7283E-07  0.8051E-03  0.3155E-04  0.1137E+06
   -1.750013   30.00776  0.9797E-13  0.1110E-04  0.9342E-07  0.7268E-03  0.2687E-04  0.1862E+06
   -1.800012   30.00919  0.9797E-13  0.9835E-05  0.1376E-06  0.5085E-03  0.2303E-04  0.9685E+06
   -1.850011   30.01422  0.9797E-13  0.8380E-05  0.2178E-06  0.4624E-03  0.1670E-04  0.5369E+09
   -1.900008   30.01370  0.9797E-13  0.6639E-05  0.4497E-06  0.2093E-03  0.1353E-04 -0.2621E+08
   -1.950006   30.03044  0.9797E-13  0.4584E-05  0.1143E-05  0.1769E-03  0.7313E-05 -0.2103E+07
   -2.000003   30.03314  0.9797E-13  0.0000E+00  0.0000E+00  0.0000E+00  0.1306E-04  0.0000E+00
