 1 - depth, m
 2 - temperature, C
 3 - salinity, kg/kg
 4 - turbulent kinetic energy, m**2/s**2
 5 - dissipation rate, m**2/s**3
 6 - kinematic heat conductance, m**2/s
 7 - modulus of horizontal velocity, m/s
 8 - Richardson number, n/d
   -0.000000   29.87881  0.1770E-13  0.4661E-05  0.2787E-06  0.4958E-04  0.2038E-02  0.6161E+04
   -0.049997   29.90716  0.1770E-13  0.7893E-05  0.1237E-06  0.1751E-03  0.1151E-02  0.7908E+03
   -0.099994   29.91781  0.1770E-13  0.9543E-05  0.8520E-07  0.3887E-03  0.8475E-03  0.1121E+02
   -0.149992   29.92086  0.1770E-13  0.1059E-04  0.7144E-07  0.4715E-03  0.7474E-03  0.5488E+01
   -0.199991   29.92328  0.1770E-13  0.1140E-04  0.6341E-07  0.6279E-03  0.6670E-03  0.3527E+01
   -0.249989   29.92505  0.1770E-13  0.1205E-04  0.5815E-07  0.7514E-03  0.6067E-03  0.2598E+01
   -0.299989   29.92649  0.1770E-13  0.1259E-04  0.5442E-07  0.8738E-03  0.5565E-03  0.2069E+01
   -0.349988   29.92770  0.1770E-13  0.1303E-04  0.5163E-07  0.9851E-03  0.5135E-03  0.1767E+01
   -0.399988   29.92875  0.1770E-13  0.1341E-04  0.4946E-07  0.1087E-02  0.4755E-03  0.1578E+01
   -0.449988   29.92968  0.1770E-13  0.1373E-04  0.4771E-07  0.1181E-02  0.4421E-03  0.1483E+01
   -0.499988   29.93052  0.1770E-13  0.1402E-04  0.4626E-07  0.1269E-02  0.4125E-03  0.1451E+01
   -0.549989   29.93129  0.1770E-13  0.1426E-04  0.4506E-07  0.1350E-02  0.3859E-03  0.1433E+01
   -0.599990   29.93201  0.1770E-13  0.1448E-04  0.4405E-07  0.1424E-02  0.3619E-03  0.1437E+01
   -0.649991   29.93267  0.1770E-13  0.1467E-04  0.4320E-07  0.1490E-02  0.3401E-03  0.1450E+01
   -0.699992   29.93330  0.1770E-13  0.1483E-04  0.4249E-07  0.1548E-02  0.3200E-03  0.1483E+01
   -0.749993   29.93389  0.1770E-13  0.1496E-04  0.4191E-07  0.1599E-02  0.3015E-03  0.1526E+01
   -0.799995   29.93446  0.1770E-13  0.1508E-04  0.4143E-07  0.1642E-02  0.2844E-03  0.1593E+01
   -0.849996   29.93501  0.1770E-13  0.1517E-04  0.4105E-07  0.1678E-02  0.2684E-03  0.1673E+01
   -0.899998   29.93555  0.1770E-13  0.1524E-04  0.4077E-07  0.1705E-02  0.2534E-03  0.1779E+01
   -0.950000   29.93607  0.1770E-13  0.1529E-04  0.4058E-07  0.1725E-02  0.2393E-03  0.1902E+01
   -1.000001   29.93658  0.1770E-13  0.1532E-04  0.4049E-07  0.1738E-02  0.2260E-03  0.2060E+01
   -1.050003   29.93709  0.1770E-13  0.1533E-04  0.4049E-07  0.1740E-02  0.2134E-03  0.2335E+01
   -1.100005   29.93759  0.1770E-13  0.1532E-04  0.4059E-07  0.1817E-02  0.2013E-03  0.7840E+01
   -1.150007   29.93807  0.1770E-13  0.1529E-04  0.4082E-07  0.1673E-02  0.1905E-03  0.1727E+02
   -1.200008   29.93858  0.1770E-13  0.1524E-04  0.4117E-07  0.1690E-02  0.1795E-03  0.3360E+01
   -1.250010   29.93910  0.1770E-13  0.1517E-04  0.4167E-07  0.1661E-02  0.1688E-03  0.3597E+01
   -1.300011   29.93961  0.1770E-13  0.1507E-04  0.4236E-07  0.1615E-02  0.1586E-03  0.4196E+01
   -1.350012   29.94015  0.1770E-13  0.1494E-04  0.4329E-07  0.1560E-02  0.1487E-03  0.5021E+01
   -1.400013   29.94070  0.1770E-13  0.1477E-04  0.4452E-07  0.1487E-02  0.1390E-03  0.6169E+01
   -1.450014   29.94127  0.1770E-13  0.1457E-04  0.4618E-07  0.1412E-02  0.1296E-03  0.7834E+01
   -1.500015   29.94189  0.1770E-13  0.1432E-04  0.4844E-07  0.1306E-02  0.1203E-03  0.1054E+02
   -1.550015   29.94256  0.1770E-13  0.1401E-04  0.5160E-07  0.1222E-02  0.1110E-03  0.1484E+02
   -1.600015   29.94328  0.1770E-13  0.1363E-04  0.5636E-07  0.1081E-02  0.1020E-03  0.2725E+02
   -1.650015   29.94415  0.1770E-13  0.1314E-04  0.6358E-07  0.1001E-02  0.9233E-04  0.9150E+04
   -1.700014   29.94510  0.1770E-13  0.1247E-04  0.7643E-07  0.8207E-03  0.8302E-04  0.1195E+03
   -1.750013   29.94678  0.1770E-13  0.1155E-04  0.9767E-07  0.7438E-03  0.7087E-04  0.1113E+05
   -1.800012   29.94825  0.1770E-13  0.1031E-04  0.1421E-06  0.5206E-03  0.6107E-04  0.2229E+04
   -1.850010   29.95366  0.1770E-13  0.8853E-05  0.2251E-06  0.4775E-03  0.4483E-04  0.7293E+07
   -1.900008   29.95317  0.1770E-13  0.7070E-05  0.4690E-06  0.2162E-03  0.3636E-04 -0.7813E+05
   -1.950006   29.97082  0.1770E-13  0.4887E-05  0.1190E-05  0.1752E-03  0.2009E-04 -0.3072E+06
   -2.000003   29.97432  0.1770E-13  0.0000E+00  0.0000E+00  0.0000E+00  0.3454E-04  0.0000E+00
