 1 - depth, m
 2 - temperature, C
 3 - salinity, kg/kg
 4 - turbulent kinetic energy, m**2/s**2
 5 - dissipation rate, m**2/s**3
 6 - kinematic heat conductance, m**2/s
 7 - modulus of horizontal velocity, m/s
 8 - Richardson number, n/d
   -0.000000   29.79299  0.1310E-14  0.4759E-05  0.2691E-06  0.4894E-04  0.2549E-02  0.2001E+04
   -0.049997   29.82131  0.1310E-14  0.7920E-05  0.1185E-06  0.1862E-03  0.1385E-02  0.2813E+04
   -0.099994   29.83067  0.1310E-14  0.9444E-05  0.8314E-07  0.3802E-03  0.1055E-02  0.7413E+01
   -0.149992   29.83373  0.1310E-14  0.1043E-04  0.6986E-07  0.4720E-03  0.9316E-03  0.3726E+01
   -0.199991   29.83610  0.1310E-14  0.1120E-04  0.6208E-07  0.6180E-03  0.8348E-03  0.2423E+01
   -0.249989   29.83785  0.1310E-14  0.1182E-04  0.5697E-07  0.7379E-03  0.7610E-03  0.1797E+01
   -0.299989   29.83928  0.1310E-14  0.1233E-04  0.5333E-07  0.8500E-03  0.6995E-03  0.1456E+01
   -0.349988   29.84050  0.1310E-14  0.1276E-04  0.5057E-07  0.9532E-03  0.6463E-03  0.1332E+01
   -0.399988   29.84156  0.1310E-14  0.1314E-04  0.4836E-07  0.1058E-02  0.5973E-03  0.1288E+01
   -0.449988   29.84249  0.1310E-14  0.1348E-04  0.4650E-07  0.1162E-02  0.5524E-03  0.1272E+01
   -0.499988   29.84332  0.1310E-14  0.1378E-04  0.4495E-07  0.1260E-02  0.5118E-03  0.1272E+01
   -0.549989   29.84408  0.1310E-14  0.1404E-04  0.4365E-07  0.1350E-02  0.4752E-03  0.1266E+01
   -0.599990   29.84477  0.1310E-14  0.1427E-04  0.4255E-07  0.1431E-02  0.4422E-03  0.1265E+01
   -0.649991   29.84541  0.1310E-14  0.1446E-04  0.4164E-07  0.1504E-02  0.4123E-03  0.1260E+01
   -0.699992   29.84602  0.1310E-14  0.1462E-04  0.4089E-07  0.1568E-02  0.3852E-03  0.1260E+01
   -0.749993   29.84659  0.1310E-14  0.1475E-04  0.4026E-07  0.1621E-02  0.3606E-03  0.1258E+01
   -0.799995   29.84713  0.1310E-14  0.1485E-04  0.3977E-07  0.1665E-02  0.3382E-03  0.1263E+01
   -0.849996   29.84766  0.1310E-14  0.1493E-04  0.3938E-07  0.1700E-02  0.3178E-03  0.1269E+01
   -0.899998   29.84817  0.1310E-14  0.1499E-04  0.3909E-07  0.1724E-02  0.2992E-03  0.1291E+01
   -0.950000   29.84866  0.1310E-14  0.1502E-04  0.3889E-07  0.1740E-02  0.2821E-03  0.1332E+01
   -1.000002   29.84915  0.1310E-14  0.1504E-04  0.3879E-07  0.1748E-02  0.2663E-03  0.1419E+01
   -1.050003   29.84963  0.1310E-14  0.1503E-04  0.3877E-07  0.1747E-02  0.2515E-03  0.1597E+01
   -1.100005   29.85011  0.1310E-14  0.1500E-04  0.3885E-07  0.1838E-02  0.2374E-03  0.5299E+01
   -1.150007   29.85056  0.1310E-14  0.1496E-04  0.3905E-07  0.1657E-02  0.2248E-03  0.1206E+02
   -1.200008   29.85105  0.1310E-14  0.1489E-04  0.3936E-07  0.1687E-02  0.2117E-03  0.2309E+01
   -1.250010   29.85154  0.1310E-14  0.1480E-04  0.3983E-07  0.1656E-02  0.1992E-03  0.2465E+01
   -1.300011   29.85203  0.1310E-14  0.1468E-04  0.4047E-07  0.1607E-02  0.1871E-03  0.2874E+01
   -1.350012   29.85253  0.1310E-14  0.1453E-04  0.4134E-07  0.1548E-02  0.1754E-03  0.3441E+01
   -1.400013   29.85305  0.1310E-14  0.1436E-04  0.4251E-07  0.1473E-02  0.1641E-03  0.4225E+01
   -1.450014   29.85360  0.1310E-14  0.1414E-04  0.4409E-07  0.1395E-02  0.1529E-03  0.5375E+01
   -1.500015   29.85417  0.1310E-14  0.1388E-04  0.4627E-07  0.1287E-02  0.1420E-03  0.7207E+01
   -1.550015   29.85480  0.1310E-14  0.1355E-04  0.4933E-07  0.1199E-02  0.1310E-03  0.1018E+02
   -1.600015   29.85548  0.1310E-14  0.1316E-04  0.5394E-07  0.1060E-02  0.1202E-03  0.1748E+02
   -1.650015   29.85629  0.1310E-14  0.1265E-04  0.6106E-07  0.9763E-03  0.1089E-03  0.1132E+03
   -1.700015   29.85720  0.1310E-14  0.1196E-04  0.7379E-07  0.8037E-03  0.9769E-04 -0.3707E+03
   -1.750014   29.85874  0.1310E-14  0.1101E-04  0.9521E-07  0.7154E-03  0.8334E-04  0.2851E+05
   -1.800012   29.86029  0.1310E-14  0.9702E-05  0.1404E-06  0.5096E-03  0.7095E-04  0.4759E+05
   -1.850011   29.86521  0.1310E-14  0.8205E-05  0.2220E-06  0.4519E-03  0.5150E-04  0.5637E+06
   -1.900009   29.86491  0.1310E-14  0.6450E-05  0.4681E-06  0.2122E-03  0.4117E-04  0.1073E+06
   -1.950006   29.88176  0.1310E-14  0.4487E-05  0.1178E-05  0.1787E-03  0.2216E-04 -0.1830E+06
   -2.000003   29.88411  0.1310E-14  0.0000E+00  0.0000E+00  0.0000E+00  0.4076E-04  0.0000E+00
