 1 - depth, m
 2 - temperature, C
 3 - salinity, kg/kg
 4 - turbulent kinetic energy, m**2/s**2
 5 - dissipation rate, m**2/s**3
 6 - kinematic heat conductance, m**2/s
 7 - modulus of horizontal velocity, m/s
 8 - Richardson number, n/d
   -0.000000   30.48887  0.3510E-14  0.4686E-05  0.2880E-06  0.4927E-04  0.1011E-02  0.1442E+05
   -0.049997   30.51873  0.3510E-14  0.8156E-05  0.1279E-06  0.1794E-03  0.5701E-03  0.1134E+03
   -0.099994   30.52997  0.3510E-14  0.9896E-05  0.8846E-07  0.4040E-03  0.4176E-03  0.5301E+02
   -0.149992   30.53305  0.3510E-14  0.1098E-04  0.7450E-07  0.4841E-03  0.3691E-03  0.2605E+02
   -0.199991   30.53552  0.3510E-14  0.1183E-04  0.6631E-07  0.6461E-03  0.3297E-03  0.1687E+02
   -0.249989   30.53732  0.3510E-14  0.1251E-04  0.6094E-07  0.7714E-03  0.3002E-03  0.1257E+02
   -0.299988   30.53878  0.3510E-14  0.1307E-04  0.5712E-07  0.8964E-03  0.2756E-03  0.1002E+02
   -0.349988   30.54001  0.3510E-14  0.1353E-04  0.5426E-07  0.1009E-02  0.2546E-03  0.8637E+01
   -0.399988   30.54109  0.3510E-14  0.1392E-04  0.5204E-07  0.1113E-02  0.2360E-03  0.7687E+01
   -0.449988   30.54204  0.3510E-14  0.1426E-04  0.5025E-07  0.1209E-02  0.2196E-03  0.7266E+01
   -0.499988   30.54290  0.3510E-14  0.1455E-04  0.4876E-07  0.1297E-02  0.2051E-03  0.7045E+01
   -0.549989   30.54368  0.3510E-14  0.1480E-04  0.4753E-07  0.1378E-02  0.1921E-03  0.7002E+01
   -0.599990   30.54441  0.3510E-14  0.1503E-04  0.4650E-07  0.1451E-02  0.1804E-03  0.6977E+01
   -0.649991   30.54510  0.3510E-14  0.1522E-04  0.4564E-07  0.1516E-02  0.1696E-03  0.7123E+01
   -0.699992   30.54574  0.3510E-14  0.1538E-04  0.4492E-07  0.1574E-02  0.1598E-03  0.7250E+01
   -0.749993   30.54635  0.3510E-14  0.1552E-04  0.4432E-07  0.1625E-02  0.1507E-03  0.7559E+01
   -0.799995   30.54694  0.3510E-14  0.1563E-04  0.4384E-07  0.1667E-02  0.1422E-03  0.7835E+01
   -0.849996   30.54751  0.3510E-14  0.1573E-04  0.4347E-07  0.1702E-02  0.1343E-03  0.8321E+01
   -0.899998   30.54806  0.3510E-14  0.1580E-04  0.4319E-07  0.1729E-02  0.1269E-03  0.8774E+01
   -0.949999   30.54859  0.3510E-14  0.1585E-04  0.4301E-07  0.1747E-02  0.1199E-03  0.9491E+01
   -1.000001   30.54912  0.3510E-14  0.1587E-04  0.4294E-07  0.1758E-02  0.1133E-03  0.1019E+02
   -1.050003   30.54965  0.3510E-14  0.1588E-04  0.4296E-07  0.1758E-02  0.1070E-03  0.1167E+02
   -1.100005   30.55016  0.3510E-14  0.1587E-04  0.4310E-07  0.1846E-02  0.1010E-03  0.3841E+02
   -1.150006   30.55066  0.3510E-14  0.1583E-04  0.4338E-07  0.1673E-02  0.9566E-04  0.8758E+02
   -1.200008   30.55120  0.3510E-14  0.1577E-04  0.4378E-07  0.1699E-02  0.9010E-04  0.1697E+02
   -1.250009   30.55173  0.3510E-14  0.1568E-04  0.4437E-07  0.1668E-02  0.8480E-04  0.1804E+02
   -1.300011   30.55227  0.3510E-14  0.1557E-04  0.4516E-07  0.1618E-02  0.7968E-04  0.2133E+02
   -1.350012   30.55283  0.3510E-14  0.1542E-04  0.4622E-07  0.1559E-02  0.7473E-04  0.2546E+02
   -1.400013   30.55340  0.3510E-14  0.1524E-04  0.4764E-07  0.1481E-02  0.6989E-04  0.3174E+02
   -1.450014   30.55401  0.3510E-14  0.1501E-04  0.4954E-07  0.1403E-02  0.6514E-04  0.4045E+02
   -1.500014   30.55466  0.3510E-14  0.1473E-04  0.5218E-07  0.1291E-02  0.6048E-04  0.5541E+02
   -1.550015   30.55537  0.3510E-14  0.1439E-04  0.5588E-07  0.1208E-02  0.5579E-04  0.7953E+02
   -1.600015   30.55614  0.3510E-14  0.1395E-04  0.6154E-07  0.1062E-02  0.5120E-04  0.1532E+03
   -1.650015   30.55709  0.3510E-14  0.1339E-04  0.7029E-07  0.9860E-03  0.4624E-04 -0.1244E+04
   -1.700014   30.55817  0.3510E-14  0.1262E-04  0.8587E-07  0.8004E-03  0.4142E-04  0.1994E+06
   -1.750013   30.56008  0.3510E-14  0.1160E-04  0.1112E-06  0.7262E-03  0.3494E-04  0.4208E+06
   -1.800012   30.56160  0.3510E-14  0.1023E-04  0.1661E-06  0.4989E-03  0.3008E-04  0.2349E+06
   -1.850010   30.56834  0.3510E-14  0.8701E-05  0.2684E-06  0.4657E-03  0.2137E-04  0.4571E+09
   -1.900008   30.56683  0.3510E-14  0.6927E-05  0.5616E-06  0.2101E-03  0.1750E-04  0.1976E+06
   -1.950005   30.58726  0.3510E-14  0.4858E-05  0.1401E-05  0.1897E-03  0.9410E-05 -0.9364E+06
   -2.000002   30.58940  0.3510E-14  0.0000E+00  0.0000E+00  0.0000E+00  0.1718E-04  0.0000E+00
