 1 - depth, m
 2 - temperature, C
 3 - salinity, kg/kg
 4 - turbulent kinetic energy, m**2/s**2
 5 - dissipation rate, m**2/s**3
 6 - kinematic heat conductance, m**2/s
 7 - modulus of horizontal velocity, m/s
 8 - Richardson number, n/d
   -0.000000   30.60769  0.1630E-13  0.4877E-05  0.3100E-06  0.5137E-04  0.9673E-03  0.5540E+04
   -0.049997   30.63861  0.1630E-13  0.8455E-05  0.1376E-06  0.1773E-03  0.5547E-03  0.3327E+04
   -0.099994   30.65098  0.1630E-13  0.1028E-04  0.9447E-07  0.4115E-03  0.4029E-03  0.5794E+02
   -0.149992   30.65424  0.1630E-13  0.1141E-04  0.7948E-07  0.4863E-03  0.3566E-03  0.2831E+02
   -0.199991   30.65687  0.1630E-13  0.1229E-04  0.7066E-07  0.6523E-03  0.3186E-03  0.1829E+02
   -0.249989   30.65878  0.1630E-13  0.1298E-04  0.6487E-07  0.7785E-03  0.2901E-03  0.1359E+02
   -0.299988   30.66034  0.1630E-13  0.1355E-04  0.6073E-07  0.9050E-03  0.2665E-03  0.1083E+02
   -0.349988   30.66164  0.1630E-13  0.1402E-04  0.5763E-07  0.1019E-02  0.2462E-03  0.9299E+01
   -0.399988   30.66277  0.1630E-13  0.1442E-04  0.5521E-07  0.1124E-02  0.2283E-03  0.8282E+01
   -0.449988   30.66377  0.1630E-13  0.1476E-04  0.5324E-07  0.1220E-02  0.2126E-03  0.7802E+01
   -0.499988   30.66468  0.1630E-13  0.1505E-04  0.5161E-07  0.1309E-02  0.1986E-03  0.7575E+01
   -0.549989   30.66550  0.1630E-13  0.1530E-04  0.5025E-07  0.1391E-02  0.1861E-03  0.7502E+01
   -0.599989   30.66627  0.1630E-13  0.1552E-04  0.4910E-07  0.1464E-02  0.1748E-03  0.7487E+01
   -0.649990   30.66698  0.1630E-13  0.1570E-04  0.4812E-07  0.1530E-02  0.1644E-03  0.7612E+01
   -0.699992   30.66766  0.1630E-13  0.1586E-04  0.4730E-07  0.1588E-02  0.1550E-03  0.7763E+01
   -0.749993   30.66830  0.1630E-13  0.1599E-04  0.4660E-07  0.1639E-02  0.1462E-03  0.8055E+01
   -0.799994   30.66891  0.1630E-13  0.1609E-04  0.4603E-07  0.1681E-02  0.1380E-03  0.8368E+01
   -0.849996   30.66950  0.1630E-13  0.1617E-04  0.4556E-07  0.1716E-02  0.1304E-03  0.8844E+01
   -0.899998   30.67007  0.1630E-13  0.1623E-04  0.4521E-07  0.1743E-02  0.1232E-03  0.9350E+01
   -0.949999   30.67062  0.1630E-13  0.1627E-04  0.4495E-07  0.1761E-02  0.1164E-03  0.1006E+02
   -1.000001   30.67117  0.1630E-13  0.1628E-04  0.4480E-07  0.1771E-02  0.1101E-03  0.1084E+02
   -1.050003   30.67171  0.1630E-13  0.1627E-04  0.4475E-07  0.1771E-02  0.1040E-03  0.1235E+02
   -1.100004   30.67224  0.1630E-13  0.1624E-04  0.4482E-07  0.1864E-02  0.9819E-04  0.4044E+02
   -1.150006   30.67274  0.1630E-13  0.1618E-04  0.4504E-07  0.1676E-02  0.9304E-04  0.9413E+02
   -1.200008   30.67329  0.1630E-13  0.1610E-04  0.4538E-07  0.1708E-02  0.8765E-04  0.1800E+02
   -1.250009   30.67383  0.1630E-13  0.1599E-04  0.4591E-07  0.1676E-02  0.8253E-04  0.1915E+02
   -1.300010   30.67438  0.1630E-13  0.1586E-04  0.4666E-07  0.1625E-02  0.7757E-04  0.2259E+02
   -1.350012   30.67494  0.1630E-13  0.1569E-04  0.4768E-07  0.1564E-02  0.7278E-04  0.2708E+02
   -1.400013   30.67552  0.1630E-13  0.1548E-04  0.4908E-07  0.1485E-02  0.6809E-04  0.3379E+02
   -1.450014   30.67613  0.1630E-13  0.1523E-04  0.5098E-07  0.1404E-02  0.6350E-04  0.4331E+02
   -1.500014   30.67678  0.1630E-13  0.1492E-04  0.5364E-07  0.1292E-02  0.5897E-04  0.5962E+02
   -1.550014   30.67749  0.1630E-13  0.1455E-04  0.5743E-07  0.1203E-02  0.5444E-04  0.8644E+02
   -1.600015   30.67826  0.1630E-13  0.1408E-04  0.6324E-07  0.1062E-02  0.4996E-04  0.1762E+03
   -1.650014   30.67920  0.1630E-13  0.1348E-04  0.7236E-07  0.9772E-03  0.4520E-04  0.5618E+03
   -1.700014   30.68029  0.1630E-13  0.1266E-04  0.8856E-07  0.8028E-03  0.4040E-04  0.2291E+05
   -1.750013   30.68216  0.1630E-13  0.1158E-04  0.1154E-06  0.7144E-03  0.3424E-04  0.4005E+06
   -1.800012   30.68386  0.1630E-13  0.1009E-04  0.1768E-06  0.4943E-03  0.2925E-04  0.2115E+06
   -1.850010   30.69058  0.1630E-13  0.8517E-05  0.2841E-06  0.4604E-03  0.2074E-04  0.2723E+09
   -1.900008   30.68887  0.1630E-13  0.6719E-05  0.5973E-06  0.2055E-03  0.1692E-04 -0.1069E+06
   -1.950005   30.70937  0.1630E-13  0.4743E-05  0.1469E-05  0.1988E-03  0.8980E-05 -0.1485E+07
   -2.000002   30.70987  0.1630E-13  0.0000E+00  0.0000E+00  0.0000E+00  0.1700E-04  0.0000E+00
