 1 - depth, m
 2 - temperature, C
 3 - salinity, kg/kg
 4 - turbulent kinetic energy, m**2/s**2
 5 - dissipation rate, m**2/s**3
 6 - kinematic heat conductance, m**2/s
 7 - modulus of horizontal velocity, m/s
 8 - Richardson number, n/d
   -0.000000   29.78670  0.2285E-13  0.4920E-05  0.2664E-06  0.4982E-04  0.3153E-02  0.2145E+04
   -0.049997   29.81423  0.2285E-13  0.7989E-05  0.1159E-06  0.1935E-03  0.1688E-02  0.8669E+02
   -0.099994   29.82273  0.2285E-13  0.9418E-05  0.8237E-07  0.3763E-03  0.1321E-02  0.5663E+01
   -0.149992   29.82575  0.2285E-13  0.1037E-04  0.6947E-07  0.4697E-03  0.1175E-02  0.2906E+01
   -0.199991   29.82807  0.2285E-13  0.1112E-04  0.6190E-07  0.6046E-03  0.1060E-02  0.1958E+01
   -0.249989   29.82982  0.2285E-13  0.1174E-04  0.5685E-07  0.7194E-03  0.9699E-03  0.1574E+01
   -0.299989   29.83126  0.2285E-13  0.1228E-04  0.5313E-07  0.8369E-03  0.8904E-03  0.1414E+01
   -0.349988   29.83247  0.2285E-13  0.1277E-04  0.5021E-07  0.9565E-03  0.8167E-03  0.1379E+01
   -0.399988   29.83350  0.2285E-13  0.1320E-04  0.4784E-07  0.1078E-02  0.7467E-03  0.1353E+01
   -0.449988   29.83440  0.2285E-13  0.1359E-04  0.4588E-07  0.1197E-02  0.6826E-03  0.1346E+01
   -0.499988   29.83519  0.2285E-13  0.1393E-04  0.4425E-07  0.1309E-02  0.6252E-03  0.1340E+01
   -0.549989   29.83590  0.2285E-13  0.1423E-04  0.4291E-07  0.1411E-02  0.5740E-03  0.1333E+01
   -0.599990   29.83655  0.2285E-13  0.1449E-04  0.4181E-07  0.1504E-02  0.5282E-03  0.1321E+01
   -0.649991   29.83716  0.2285E-13  0.1470E-04  0.4090E-07  0.1586E-02  0.4872E-03  0.1310E+01
   -0.699992   29.83772  0.2285E-13  0.1488E-04  0.4017E-07  0.1656E-02  0.4506E-03  0.1295E+01
   -0.749993   29.83826  0.2285E-13  0.1502E-04  0.3959E-07  0.1713E-02  0.4176E-03  0.1285E+01
   -0.799995   29.83877  0.2285E-13  0.1513E-04  0.3914E-07  0.1758E-02  0.3881E-03  0.1274E+01
   -0.849996   29.83926  0.2285E-13  0.1521E-04  0.3881E-07  0.1791E-02  0.3615E-03  0.1271E+01
   -0.899998   29.83974  0.2285E-13  0.1526E-04  0.3859E-07  0.1812E-02  0.3375E-03  0.1271E+01
   -0.950000   29.84020  0.2285E-13  0.1529E-04  0.3847E-07  0.1823E-02  0.3158E-03  0.1289E+01
   -1.000002   29.84067  0.2285E-13  0.1530E-04  0.3845E-07  0.1825E-02  0.2961E-03  0.1317E+01
   -1.050003   29.84112  0.2285E-13  0.1528E-04  0.3852E-07  0.1814E-02  0.2781E-03  0.1413E+01
   -1.100005   29.84158  0.2285E-13  0.1525E-04  0.3868E-07  0.1926E-02  0.2616E-03  0.4275E+01
   -1.150007   29.84201  0.2285E-13  0.1520E-04  0.3895E-07  0.1696E-02  0.2483E-03  0.9799E+01
   -1.200008   29.84249  0.2285E-13  0.1513E-04  0.3933E-07  0.1743E-02  0.2340E-03  0.1891E+01
   -1.250010   29.84296  0.2285E-13  0.1504E-04  0.3987E-07  0.1709E-02  0.2203E-03  0.2003E+01
   -1.300011   29.84344  0.2285E-13  0.1492E-04  0.4059E-07  0.1656E-02  0.2072E-03  0.2343E+01
   -1.350012   29.84393  0.2285E-13  0.1477E-04  0.4155E-07  0.1593E-02  0.1946E-03  0.2795E+01
   -1.400013   29.84444  0.2285E-13  0.1459E-04  0.4281E-07  0.1514E-02  0.1822E-03  0.3452E+01
   -1.450014   29.84497  0.2285E-13  0.1437E-04  0.4451E-07  0.1431E-02  0.1700E-03  0.4381E+01
   -1.500015   29.84554  0.2285E-13  0.1411E-04  0.4682E-07  0.1320E-02  0.1580E-03  0.5910E+01
   -1.550015   29.84616  0.2285E-13  0.1378E-04  0.5006E-07  0.1229E-02  0.1460E-03  0.8401E+01
   -1.600015   29.84684  0.2285E-13  0.1338E-04  0.5492E-07  0.1085E-02  0.1341E-03  0.1518E+02
   -1.650015   29.84765  0.2285E-13  0.1287E-04  0.6243E-07  0.9997E-03  0.1215E-03  0.6570E+02
   -1.700015   29.84859  0.2285E-13  0.1216E-04  0.7559E-07  0.8183E-03  0.1088E-03  0.4694E+03
   -1.750014   29.85014  0.2285E-13  0.1123E-04  0.9710E-07  0.7359E-03  0.9286E-04  0.1730E+05
   -1.800012   29.85158  0.2285E-13  0.9932E-05  0.1427E-06  0.5080E-03  0.7972E-04  0.1960E+05
   -1.850011   29.85691  0.2285E-13  0.8453E-05  0.2270E-06  0.4699E-03  0.5760E-04  0.3685E+07
   -1.900009   29.85622  0.2285E-13  0.6670E-05  0.4771E-06  0.2068E-03  0.4673E-04 -0.2313E+07
   -1.950006   29.87382  0.2285E-13  0.4632E-05  0.1193E-05  0.1830E-03  0.2509E-04 -0.2814E+06
   -2.000003   29.87513  0.2285E-13  0.0000E+00  0.0000E+00  0.0000E+00  0.4523E-04  0.0000E+00
