 1 - depth, m
 2 - temperature, C
 3 - salinity, kg/kg
 4 - turbulent kinetic energy, m**2/s**2
 5 - dissipation rate, m**2/s**3
 6 - kinematic heat conductance, m**2/s
 7 - modulus of horizontal velocity, m/s
 8 - Richardson number, n/d
   -0.000000   30.70690  0.2677E-13  0.4836E-05  0.2949E-06  0.4777E-04  0.3745E-03  0.1256E+06
   -0.049997   30.73999  0.2677E-13  0.8614E-05  0.1313E-06  0.1947E-03  0.2071E-03  0.1763E+06
   -0.099994   30.75014  0.2677E-13  0.1036E-04  0.9226E-07  0.4187E-03  0.1535E-03  0.4246E+03
   -0.149992   30.75329  0.2677E-13  0.1148E-04  0.7810E-07  0.5018E-03  0.1361E-03  0.2136E+03
   -0.199991   30.75579  0.2677E-13  0.1235E-04  0.6973E-07  0.6666E-03  0.1219E-03  0.1410E+03
   -0.249989   30.75763  0.2677E-13  0.1305E-04  0.6421E-07  0.7947E-03  0.1112E-03  0.1048E+03
   -0.299988   30.75913  0.2677E-13  0.1362E-04  0.6027E-07  0.9210E-03  0.1023E-03  0.8436E+02
   -0.349988   30.76039  0.2677E-13  0.1409E-04  0.5731E-07  0.1036E-02  0.9468E-04  0.7192E+02
   -0.399988   30.76150  0.2677E-13  0.1449E-04  0.5501E-07  0.1140E-02  0.8789E-04  0.6459E+02
   -0.449988   30.76248  0.2677E-13  0.1484E-04  0.5315E-07  0.1237E-02  0.8192E-04  0.6021E+02
   -0.499988   30.76336  0.2677E-13  0.1514E-04  0.5161E-07  0.1326E-02  0.7661E-04  0.5900E+02
   -0.549989   30.76418  0.2677E-13  0.1540E-04  0.5034E-07  0.1407E-02  0.7186E-04  0.5770E+02
   -0.599989   30.76493  0.2677E-13  0.1563E-04  0.4927E-07  0.1481E-02  0.6754E-04  0.5820E+02
   -0.649990   30.76563  0.2677E-13  0.1583E-04  0.4838E-07  0.1546E-02  0.6360E-04  0.5837E+02
   -0.699992   30.76630  0.2677E-13  0.1599E-04  0.4764E-07  0.1604E-02  0.5997E-04  0.6024E+02
   -0.749993   30.76694  0.2677E-13  0.1614E-04  0.4704E-07  0.1654E-02  0.5662E-04  0.6162E+02
   -0.799994   30.76754  0.2677E-13  0.1625E-04  0.4655E-07  0.1696E-02  0.5350E-04  0.6485E+02
   -0.849996   30.76813  0.2677E-13  0.1635E-04  0.4618E-07  0.1730E-02  0.5058E-04  0.6754E+02
   -0.899998   30.76871  0.2677E-13  0.1642E-04  0.4591E-07  0.1755E-02  0.4783E-04  0.7239E+02
   -0.949999   30.76927  0.2677E-13  0.1647E-04  0.4576E-07  0.1772E-02  0.4524E-04  0.7680E+02
   -1.000001   30.76982  0.2677E-13  0.1649E-04  0.4571E-07  0.1781E-02  0.4278E-04  0.8386E+02
   -1.050003   30.77036  0.2677E-13  0.1649E-04  0.4577E-07  0.1779E-02  0.4044E-04  0.9421E+02
   -1.100004   30.77091  0.2677E-13  0.1648E-04  0.4596E-07  0.1877E-02  0.3821E-04  0.3123E+03
   -1.150006   30.77142  0.2677E-13  0.1643E-04  0.4630E-07  0.1676E-02  0.3623E-04  0.7320E+03
   -1.200007   30.77199  0.2677E-13  0.1636E-04  0.4679E-07  0.1710E-02  0.3414E-04  0.1378E+03
   -1.250009   30.77255  0.2677E-13  0.1627E-04  0.4747E-07  0.1677E-02  0.3215E-04  0.1486E+03
   -1.300010   30.77312  0.2677E-13  0.1614E-04  0.4839E-07  0.1623E-02  0.3024E-04  0.1733E+03
   -1.350011   30.77371  0.2677E-13  0.1598E-04  0.4961E-07  0.1560E-02  0.2837E-04  0.2107E+03
   -1.400012   30.77433  0.2677E-13  0.1578E-04  0.5125E-07  0.1477E-02  0.2655E-04  0.2611E+03
   -1.450013   30.77498  0.2677E-13  0.1553E-04  0.5346E-07  0.1397E-02  0.2476E-04  0.3393E+03
   -1.500014   30.77567  0.2677E-13  0.1522E-04  0.5652E-07  0.1280E-02  0.2300E-04  0.4678E+03
   -1.550014   30.77644  0.2677E-13  0.1484E-04  0.6086E-07  0.1195E-02  0.2121E-04  0.6987E+03
   -1.600014   30.77728  0.2677E-13  0.1436E-04  0.6756E-07  0.1048E-02  0.1946E-04  0.1595E+04
   -1.650014   30.77835  0.2677E-13  0.1373E-04  0.7795E-07  0.9684E-03  0.1755E-04  0.1314E+05
   -1.700013   30.77955  0.2677E-13  0.1287E-04  0.9638E-07  0.7859E-03  0.1568E-04  0.1161E+06
   -1.750013   30.78175  0.2677E-13  0.1173E-04  0.1267E-06  0.7068E-03  0.1315E-04  0.1679E+07
   -1.800011   30.78355  0.2677E-13  0.1024E-04  0.1911E-06  0.4914E-03  0.1122E-04  0.1284E+07
   -1.850010   30.79130  0.2677E-13  0.8644E-05  0.3120E-06  0.4536E-03  0.7835E-05  0.7842E+09
   -1.900007   30.78929  0.2677E-13  0.6819E-05  0.6578E-06  0.2041E-03  0.6357E-05 -0.5075E+07
   -1.950005   30.81268  0.2677E-13  0.4863E-05  0.1601E-05  0.2036E-03  0.3327E-05 -0.4907E+07
   -2.000002   30.81315  0.2677E-13  0.0000E+00  0.0000E+00  0.0000E+00  0.6496E-05  0.0000E+00
