 1 - depth, m
 2 - temperature, C
 3 - salinity, kg/kg
 4 - turbulent kinetic energy, m**2/s**2
 5 - dissipation rate, m**2/s**3
 6 - kinematic heat conductance, m**2/s
 7 - modulus of horizontal velocity, m/s
 8 - Richardson number, n/d
   -0.000000   30.23847  0.1326E-14  0.4888E-05  0.2931E-06  0.5042E-04  0.2228E-02  0.3736E+04
   -0.049997   30.26825  0.1326E-14  0.8207E-05  0.1300E-06  0.1813E-03  0.1242E-02  0.3232E+03
   -0.099994   30.27893  0.1326E-14  0.9868E-05  0.9014E-07  0.3883E-03  0.9297E-03  0.1016E+02
   -0.149992   30.28218  0.1326E-14  0.1092E-04  0.7552E-07  0.4750E-03  0.8203E-03  0.5019E+01
   -0.199991   30.28472  0.1326E-14  0.1175E-04  0.6697E-07  0.6292E-03  0.7332E-03  0.3230E+01
   -0.249989   30.28658  0.1326E-14  0.1240E-04  0.6135E-07  0.7528E-03  0.6675E-03  0.2378E+01
   -0.299989   30.28810  0.1326E-14  0.1293E-04  0.5733E-07  0.8735E-03  0.6129E-03  0.1894E+01
   -0.349988   30.28937  0.1326E-14  0.1338E-04  0.5432E-07  0.9824E-03  0.5659E-03  0.1629E+01
   -0.399988   30.29047  0.1326E-14  0.1375E-04  0.5195E-07  0.1084E-02  0.5242E-03  0.1483E+01
   -0.449988   30.29145  0.1326E-14  0.1408E-04  0.4999E-07  0.1181E-02  0.4869E-03  0.1418E+01
   -0.499988   30.29232  0.1326E-14  0.1436E-04  0.4836E-07  0.1272E-02  0.4535E-03  0.1399E+01
   -0.549989   30.29312  0.1326E-14  0.1461E-04  0.4698E-07  0.1356E-02  0.4234E-03  0.1385E+01
   -0.599990   30.29386  0.1326E-14  0.1482E-04  0.4581E-07  0.1432E-02  0.3961E-03  0.1386E+01
   -0.649991   30.29454  0.1326E-14  0.1500E-04  0.4482E-07  0.1501E-02  0.3713E-03  0.1389E+01
   -0.699992   30.29519  0.1326E-14  0.1514E-04  0.4398E-07  0.1561E-02  0.3487E-03  0.1405E+01
   -0.749993   30.29580  0.1326E-14  0.1526E-04  0.4327E-07  0.1612E-02  0.3280E-03  0.1425E+01
   -0.799995   30.29638  0.1326E-14  0.1536E-04  0.4268E-07  0.1655E-02  0.3089E-03  0.1465E+01
   -0.849996   30.29694  0.1326E-14  0.1543E-04  0.4220E-07  0.1689E-02  0.2913E-03  0.1514E+01
   -0.899998   30.29748  0.1326E-14  0.1548E-04  0.4182E-07  0.1716E-02  0.2750E-03  0.1592E+01
   -0.950000   30.29800  0.1326E-14  0.1551E-04  0.4153E-07  0.1734E-02  0.2597E-03  0.1687E+01
   -1.000001   30.29852  0.1326E-14  0.1551E-04  0.4134E-07  0.1744E-02  0.2453E-03  0.1817E+01
   -1.050003   30.29902  0.1326E-14  0.1550E-04  0.4124E-07  0.1745E-02  0.2316E-03  0.2046E+01
   -1.100005   30.29952  0.1326E-14  0.1546E-04  0.4125E-07  0.1832E-02  0.2186E-03  0.6799E+01
   -1.150007   30.29999  0.1326E-14  0.1540E-04  0.4138E-07  0.1662E-02  0.2070E-03  0.1530E+02
   -1.200008   30.30050  0.1326E-14  0.1532E-04  0.4163E-07  0.1689E-02  0.1949E-03  0.2927E+01
   -1.250010   30.30101  0.1326E-14  0.1522E-04  0.4204E-07  0.1659E-02  0.1834E-03  0.3112E+01
   -1.300011   30.30151  0.1326E-14  0.1509E-04  0.4264E-07  0.1611E-02  0.1724E-03  0.3611E+01
   -1.350012   30.30203  0.1326E-14  0.1492E-04  0.4347E-07  0.1552E-02  0.1616E-03  0.4314E+01
   -1.400013   30.30256  0.1326E-14  0.1473E-04  0.4462E-07  0.1477E-02  0.1512E-03  0.5273E+01
   -1.450014   30.30312  0.1326E-14  0.1449E-04  0.4621E-07  0.1400E-02  0.1409E-03  0.6699E+01
   -1.500015   30.30370  0.1326E-14  0.1421E-04  0.4841E-07  0.1290E-02  0.1308E-03  0.8965E+01
   -1.550015   30.30434  0.1326E-14  0.1386E-04  0.5155E-07  0.1206E-02  0.1207E-03  0.1265E+02
   -1.600015   30.30503  0.1326E-14  0.1344E-04  0.5632E-07  0.1061E-02  0.1108E-03  0.2183E+02
   -1.650015   30.30585  0.1326E-14  0.1290E-04  0.6372E-07  0.9865E-03  0.1003E-03  0.8130E+02
   -1.700014   30.30676  0.1326E-14  0.1217E-04  0.7724E-07  0.8022E-03  0.9010E-04 -0.7606E+03
   -1.750014   30.30840  0.1326E-14  0.1118E-04  0.9956E-07  0.7265E-03  0.7637E-04  0.1247E+05
   -1.800012   30.30979  0.1326E-14  0.9826E-05  0.1471E-06  0.5000E-03  0.6559E-04  0.3237E+05
   -1.850011   30.31530  0.1326E-14  0.8293E-05  0.2353E-06  0.4629E-03  0.4679E-04  0.9726E+07
   -1.900009   30.31441  0.1326E-14  0.6532E-05  0.4911E-06  0.2058E-03  0.3796E-04 -0.7342E+06
   -1.950006   30.33162  0.1326E-14  0.4545E-05  0.1242E-05  0.1843E-03  0.2025E-04 -0.6522E+06
   -2.000003   30.33310  0.1326E-14  0.0000E+00  0.0000E+00  0.0000E+00  0.3737E-04  0.0000E+00
