 1 - depth, m
 2 - temperature, C
 3 - salinity, kg/kg
 4 - turbulent kinetic energy, m**2/s**2
 5 - dissipation rate, m**2/s**3
 6 - kinematic heat conductance, m**2/s
 7 - modulus of horizontal velocity, m/s
 8 - Richardson number, n/d
   -0.000000   29.58344  0.2266E-13  0.4349E-05  0.2545E-06  0.4772E-04  0.1322E-02  0.5781E+04
   -0.049997   29.61108  0.2266E-13  0.7526E-05  0.1134E-06  0.1715E-03  0.7475E-03  0.7175E+04
   -0.099994   29.62156  0.2266E-13  0.9128E-05  0.7836E-07  0.3873E-03  0.5456E-03  0.2593E+02
   -0.149992   29.62447  0.2266E-13  0.1013E-04  0.6600E-07  0.4670E-03  0.4814E-03  0.1261E+02
   -0.199991   29.62679  0.2266E-13  0.1091E-04  0.5873E-07  0.6211E-03  0.4294E-03  0.8149E+01
   -0.249989   29.62848  0.2266E-13  0.1153E-04  0.5396E-07  0.7424E-03  0.3904E-03  0.6029E+01
   -0.299989   29.62986  0.2266E-13  0.1204E-04  0.5056E-07  0.8622E-03  0.3580E-03  0.4810E+01
   -0.349988   29.63103  0.2266E-13  0.1247E-04  0.4802E-07  0.9711E-03  0.3301E-03  0.4125E+01
   -0.399988   29.63203  0.2266E-13  0.1283E-04  0.4604E-07  0.1071E-02  0.3055E-03  0.3682E+01
   -0.449988   29.63293  0.2266E-13  0.1314E-04  0.4444E-07  0.1163E-02  0.2839E-03  0.3467E+01
   -0.499988   29.63374  0.2266E-13  0.1341E-04  0.4312E-07  0.1248E-02  0.2647E-03  0.3378E+01
   -0.549989   29.63448  0.2266E-13  0.1364E-04  0.4201E-07  0.1326E-02  0.2476E-03  0.3343E+01
   -0.599990   29.63517  0.2266E-13  0.1385E-04  0.4109E-07  0.1397E-02  0.2321E-03  0.3351E+01
   -0.649991   29.63581  0.2266E-13  0.1402E-04  0.4031E-07  0.1461E-02  0.2180E-03  0.3404E+01
   -0.699992   29.63642  0.2266E-13  0.1418E-04  0.3966E-07  0.1517E-02  0.2051E-03  0.3488E+01
   -0.749993   29.63700  0.2266E-13  0.1430E-04  0.3912E-07  0.1566E-02  0.1931E-03  0.3616E+01
   -0.799995   29.63755  0.2266E-13  0.1441E-04  0.3868E-07  0.1608E-02  0.1820E-03  0.3774E+01
   -0.849996   29.63808  0.2266E-13  0.1449E-04  0.3833E-07  0.1642E-02  0.1717E-03  0.3983E+01
   -0.899998   29.63860  0.2266E-13  0.1456E-04  0.3807E-07  0.1669E-02  0.1620E-03  0.4229E+01
   -0.950000   29.63910  0.2266E-13  0.1461E-04  0.3790E-07  0.1688E-02  0.1528E-03  0.4545E+01
   -1.000002   29.63960  0.2266E-13  0.1463E-04  0.3781E-07  0.1699E-02  0.1442E-03  0.4911E+01
   -1.050003   29.64009  0.2266E-13  0.1464E-04  0.3781E-07  0.1701E-02  0.1360E-03  0.5593E+01
   -1.100005   29.64057  0.2266E-13  0.1463E-04  0.3791E-07  0.1778E-02  0.1282E-03  0.1869E+02
   -1.150007   29.64103  0.2266E-13  0.1460E-04  0.3812E-07  0.1632E-02  0.1212E-03  0.4149E+02
   -1.200008   29.64153  0.2266E-13  0.1455E-04  0.3844E-07  0.1650E-02  0.1141E-03  0.8082E+01
   -1.250010   29.64202  0.2266E-13  0.1447E-04  0.3891E-07  0.1621E-02  0.1072E-03  0.8635E+01
   -1.300011   29.64252  0.2266E-13  0.1437E-04  0.3955E-07  0.1575E-02  0.1006E-03  0.1011E+02
   -1.350012   29.64304  0.2266E-13  0.1424E-04  0.4041E-07  0.1519E-02  0.9423E-04  0.1208E+02
   -1.400013   29.64357  0.2266E-13  0.1408E-04  0.4156E-07  0.1447E-02  0.8802E-04  0.1488E+02
   -1.450014   29.64413  0.2266E-13  0.1388E-04  0.4311E-07  0.1372E-02  0.8194E-04  0.1886E+02
   -1.500015   29.64472  0.2266E-13  0.1363E-04  0.4522E-07  0.1267E-02  0.7598E-04  0.2534E+02
   -1.550015   29.64536  0.2266E-13  0.1333E-04  0.4818E-07  0.1183E-02  0.7003E-04  0.3547E+02
   -1.600015   29.64606  0.2266E-13  0.1296E-04  0.5259E-07  0.1043E-02  0.6419E-04  0.5936E+02
   -1.650015   29.64688  0.2266E-13  0.1248E-04  0.5932E-07  0.9669E-03  0.5806E-04  0.5188E+03
   -1.700015   29.64780  0.2266E-13  0.1182E-04  0.7153E-07  0.7892E-03  0.5210E-04  0.2421E+03
   -1.750014   29.64940  0.2266E-13  0.1091E-04  0.9198E-07  0.7106E-03  0.4431E-04  0.9282E+05
   -1.800012   29.65091  0.2266E-13  0.9645E-05  0.1342E-06  0.4973E-03  0.3785E-04  0.1931E+04
   -1.850011   29.65607  0.2266E-13  0.8171E-05  0.2128E-06  0.4486E-03  0.2731E-04  0.3513E+07
   -1.900009   29.65574  0.2266E-13  0.6451E-05  0.4527E-06  0.2044E-03  0.2193E-04 -0.6166E+06
   -1.950006   29.67317  0.2266E-13  0.4477E-05  0.1143E-05  0.1767E-03  0.1177E-04 -0.7242E+05
   -2.000003   29.67554  0.2266E-13  0.0000E+00  0.0000E+00  0.0000E+00  0.2127E-04  0.0000E+00
