 1 - depth, m
 2 - temperature, C
 3 - salinity, kg/kg
 4 - turbulent kinetic energy, m**2/s**2
 5 - dissipation rate, m**2/s**3
 6 - kinematic heat conductance, m**2/s
 7 - modulus of horizontal velocity, m/s
 8 - Richardson number, n/d
   -0.000000   31.01433  0.2242E-13  0.4921E-05  0.3005E-06  0.4756E-04  0.3802E-03  0.2064E+06
   -0.049997   31.04849  0.2242E-13  0.8758E-05  0.1341E-06  0.1985E-03  0.2108E-03  0.1651E+06
   -0.099994   31.05851  0.2242E-13  0.1051E-04  0.9452E-07  0.4175E-03  0.1558E-03  0.6118E+03
   -0.149992   31.06174  0.2242E-13  0.1164E-04  0.7998E-07  0.5033E-03  0.1380E-03  0.3108E+03
   -0.199991   31.06429  0.2242E-13  0.1251E-04  0.7136E-07  0.6674E-03  0.1235E-03  0.2058E+03
   -0.249989   31.06617  0.2242E-13  0.1321E-04  0.6567E-07  0.7958E-03  0.1125E-03  0.1544E+03
   -0.299988   31.06769  0.2242E-13  0.1378E-04  0.6159E-07  0.9220E-03  0.1035E-03  0.1241E+03
   -0.349988   31.06898  0.2242E-13  0.1426E-04  0.5853E-07  0.1037E-02  0.9564E-04  0.1069E+03
   -0.399988   31.07010  0.2242E-13  0.1465E-04  0.5614E-07  0.1141E-02  0.8875E-04  0.9561E+02
   -0.449988   31.07109  0.2242E-13  0.1500E-04  0.5419E-07  0.1238E-02  0.8264E-04  0.9011E+02
   -0.499988   31.07199  0.2242E-13  0.1529E-04  0.5259E-07  0.1327E-02  0.7726E-04  0.8773E+02
   -0.549989   31.07282  0.2242E-13  0.1555E-04  0.5124E-07  0.1408E-02  0.7240E-04  0.8685E+02
   -0.599989   31.07358  0.2242E-13  0.1577E-04  0.5012E-07  0.1481E-02  0.6804E-04  0.8696E+02
   -0.649990   31.07429  0.2242E-13  0.1596E-04  0.4917E-07  0.1546E-02  0.6402E-04  0.8837E+02
   -0.699992   31.07496  0.2242E-13  0.1612E-04  0.4837E-07  0.1604E-02  0.6035E-04  0.9047E+02
   -0.749993   31.07560  0.2242E-13  0.1625E-04  0.4771E-07  0.1653E-02  0.5693E-04  0.9385E+02
   -0.799994   31.07622  0.2242E-13  0.1636E-04  0.4717E-07  0.1695E-02  0.5378E-04  0.9794E+02
   -0.849996   31.07681  0.2242E-13  0.1644E-04  0.4675E-07  0.1728E-02  0.5080E-04  0.1035E+03
   -0.899998   31.07738  0.2242E-13  0.1650E-04  0.4643E-07  0.1754E-02  0.4803E-04  0.1100E+03
   -0.949999   31.07794  0.2242E-13  0.1654E-04  0.4622E-07  0.1770E-02  0.4539E-04  0.1185E+03
   -1.000001   31.07850  0.2242E-13  0.1656E-04  0.4613E-07  0.1778E-02  0.4292E-04  0.1283E+03
   -1.050003   31.07904  0.2242E-13  0.1655E-04  0.4614E-07  0.1776E-02  0.4055E-04  0.1463E+03
   -1.100004   31.07958  0.2242E-13  0.1652E-04  0.4628E-07  0.1877E-02  0.3830E-04  0.4779E+03
   -1.150006   31.08009  0.2242E-13  0.1646E-04  0.4658E-07  0.1667E-02  0.3630E-04  0.1147E+04
   -1.200008   31.08066  0.2242E-13  0.1638E-04  0.4702E-07  0.1704E-02  0.3419E-04  0.2168E+03
   -1.250009   31.08122  0.2242E-13  0.1627E-04  0.4766E-07  0.1672E-02  0.3220E-04  0.2324E+03
   -1.300010   31.08178  0.2242E-13  0.1613E-04  0.4854E-07  0.1617E-02  0.3026E-04  0.2755E+03
   -1.350012   31.08236  0.2242E-13  0.1595E-04  0.4974E-07  0.1553E-02  0.2839E-04  0.3339E+03
   -1.400013   31.08297  0.2242E-13  0.1573E-04  0.5136E-07  0.1470E-02  0.2656E-04  0.4208E+03
   -1.450013   31.08361  0.2242E-13  0.1547E-04  0.5357E-07  0.1389E-02  0.2476E-04  0.5478E+03
   -1.500014   31.08429  0.2242E-13  0.1514E-04  0.5666E-07  0.1271E-02  0.2299E-04  0.7707E+03
   -1.550014   31.08505  0.2242E-13  0.1474E-04  0.6109E-07  0.1190E-02  0.2120E-04  0.1158E+04
   -1.600014   31.08588  0.2242E-13  0.1424E-04  0.6806E-07  0.1041E-02  0.1945E-04  0.2990E+04
   -1.650014   31.08694  0.2242E-13  0.1357E-04  0.7904E-07  0.9629E-03  0.1752E-04  0.1341E+06
   -1.700014   31.08817  0.2242E-13  0.1266E-04  0.9853E-07  0.7774E-03  0.1562E-04  0.2974E+07
   -1.750013   31.09043  0.2242E-13  0.1150E-04  0.1299E-06  0.7066E-03  0.1306E-04  0.6050E+07
   -1.800011   31.09204  0.2242E-13  0.1002E-04  0.1966E-06  0.4798E-03  0.1122E-04  0.5997E+06
   -1.850010   31.10029  0.2242E-13  0.8445E-05  0.3247E-06  0.4547E-03  0.7800E-05  0.2589E+10
   -1.900007   31.09740  0.2242E-13  0.6717E-05  0.6842E-06  0.2070E-03  0.6444E-05 -0.4292E+07
   -1.950005   31.12036  0.2242E-13  0.4776E-05  0.1663E-05  0.2066E-03  0.3426E-05 -0.6859E+07
   -2.000002   31.12121  0.2242E-13  0.0000E+00  0.0000E+00  0.0000E+00  0.6602E-05  0.0000E+00
