 1 - depth, m
 2 - temperature, C
 3 - salinity, kg/kg
 4 - turbulent kinetic energy, m**2/s**2
 5 - dissipation rate, m**2/s**3
 6 - kinematic heat conductance, m**2/s
 7 - modulus of horizontal velocity, m/s
 8 - Richardson number, n/d
   -0.000000   30.44284  0.2754E-13  0.4988E-05  0.3169E-06  0.5170E-04  0.1670E-02  0.5441E+04
   -0.049997   30.47406  0.2754E-13  0.8492E-05  0.1414E-06  0.1774E-03  0.9608E-03  0.7360E+03
   -0.099994   30.48637  0.2754E-13  0.1031E-04  0.9687E-07  0.4021E-03  0.7027E-03  0.1722E+02
   -0.149992   30.48975  0.2754E-13  0.1145E-04  0.8114E-07  0.4818E-03  0.6209E-03  0.8427E+01
   -0.199991   30.49245  0.2754E-13  0.1234E-04  0.7194E-07  0.6462E-03  0.5544E-03  0.5388E+01
   -0.249989   30.49440  0.2754E-13  0.1304E-04  0.6593E-07  0.7727E-03  0.5049E-03  0.3967E+01
   -0.299988   30.49599  0.2754E-13  0.1361E-04  0.6165E-07  0.8994E-03  0.4636E-03  0.3151E+01
   -0.349988   30.49732  0.2754E-13  0.1408E-04  0.5843E-07  0.1014E-02  0.4283E-03  0.2689E+01
   -0.399988   30.49847  0.2754E-13  0.1448E-04  0.5594E-07  0.1119E-02  0.3971E-03  0.2394E+01
   -0.449988   30.49948  0.2754E-13  0.1482E-04  0.5390E-07  0.1216E-02  0.3697E-03  0.2242E+01
   -0.499988   30.50040  0.2754E-13  0.1512E-04  0.5222E-07  0.1306E-02  0.3454E-03  0.2181E+01
   -0.549989   30.50124  0.2754E-13  0.1537E-04  0.5081E-07  0.1387E-02  0.3236E-03  0.2146E+01
   -0.599989   30.50202  0.2754E-13  0.1559E-04  0.4962E-07  0.1462E-02  0.3040E-03  0.2147E+01
   -0.649991   30.50274  0.2754E-13  0.1577E-04  0.4861E-07  0.1528E-02  0.2860E-03  0.2168E+01
   -0.699992   30.50342  0.2754E-13  0.1593E-04  0.4776E-07  0.1587E-02  0.2695E-03  0.2217E+01
   -0.749993   30.50407  0.2754E-13  0.1606E-04  0.4704E-07  0.1638E-02  0.2543E-03  0.2283E+01
   -0.799995   30.50469  0.2754E-13  0.1617E-04  0.4645E-07  0.1681E-02  0.2401E-03  0.2380E+01
   -0.849996   30.50528  0.2754E-13  0.1625E-04  0.4596E-07  0.1716E-02  0.2269E-03  0.2495E+01
   -0.899998   30.50586  0.2754E-13  0.1630E-04  0.4558E-07  0.1744E-02  0.2144E-03  0.2647E+01
   -0.949999   30.50642  0.2754E-13  0.1634E-04  0.4531E-07  0.1762E-02  0.2027E-03  0.2824E+01
   -1.000001   30.50697  0.2754E-13  0.1635E-04  0.4514E-07  0.1773E-02  0.1916E-03  0.3052E+01
   -1.050003   30.50751  0.2754E-13  0.1634E-04  0.4508E-07  0.1774E-02  0.1811E-03  0.3446E+01
   -1.100005   30.50805  0.2754E-13  0.1631E-04  0.4513E-07  0.1865E-02  0.1710E-03  0.1140E+02
   -1.150006   30.50855  0.2754E-13  0.1626E-04  0.4534E-07  0.1684E-02  0.1621E-03  0.2612E+02
   -1.200008   30.50911  0.2754E-13  0.1618E-04  0.4567E-07  0.1713E-02  0.1527E-03  0.4976E+01
   -1.250009   30.50965  0.2754E-13  0.1607E-04  0.4618E-07  0.1683E-02  0.1438E-03  0.5309E+01
   -1.300011   30.51020  0.2754E-13  0.1593E-04  0.4692E-07  0.1632E-02  0.1352E-03  0.6197E+01
   -1.350012   30.51076  0.2754E-13  0.1576E-04  0.4793E-07  0.1572E-02  0.1269E-03  0.7446E+01
   -1.400013   30.51135  0.2754E-13  0.1556E-04  0.4931E-07  0.1493E-02  0.1187E-03  0.9194E+01
   -1.450014   30.51196  0.2754E-13  0.1531E-04  0.5120E-07  0.1414E-02  0.1107E-03  0.1179E+02
   -1.500014   30.51261  0.2754E-13  0.1500E-04  0.5384E-07  0.1302E-02  0.1029E-03  0.1610E+02
   -1.550015   30.51332  0.2754E-13  0.1463E-04  0.5761E-07  0.1216E-02  0.9500E-04  0.2330E+02
   -1.600015   30.51408  0.2754E-13  0.1417E-04  0.6346E-07  0.1073E-02  0.8725E-04  0.4866E+02
   -1.650014   30.51504  0.2754E-13  0.1357E-04  0.7259E-07  0.9884E-03  0.7886E-04  0.1134E+04
   -1.700014   30.51611  0.2754E-13  0.1276E-04  0.8869E-07  0.8108E-03  0.7061E-04 -0.1336E+04
   -1.750013   30.51801  0.2754E-13  0.1169E-04  0.1153E-06  0.7273E-03  0.5976E-04  0.1238E+06
   -1.800012   30.51961  0.2754E-13  0.1027E-04  0.1732E-06  0.5090E-03  0.5120E-04  0.9699E+05
   -1.850010   30.52613  0.2754E-13  0.8719E-05  0.2789E-06  0.4650E-03  0.3659E-04  0.1245E+08
   -1.900008   30.52454  0.2754E-13  0.6893E-05  0.5824E-06  0.2147E-03  0.2982E-04 -0.1037E+06
   -1.950005   30.54431  0.2754E-13  0.4846E-05  0.1442E-05  0.1941E-03  0.1602E-04  0.2041E+06
   -2.000002   30.54623  0.2754E-13  0.0000E+00  0.0000E+00  0.0000E+00  0.2988E-04  0.0000E+00
