 1 - depth, m
 2 - temperature, C
 3 - salinity, kg/kg
 4 - turbulent kinetic energy, m**2/s**2
 5 - dissipation rate, m**2/s**3
 6 - kinematic heat conductance, m**2/s
 7 - modulus of horizontal velocity, m/s
 8 - Richardson number, n/d
   -0.000000   30.60409  0.1084E-13  0.5840E-05  0.3252E-06  0.5623E-04  0.4160E-02  0.3158E+03
   -0.049997   30.63423  0.1084E-13  0.9192E-05  0.1389E-06  0.2138E-03  0.2236E-02  0.8613E+03
   -0.099994   30.64299  0.1084E-13  0.1068E-04  0.1000E-06  0.3907E-03  0.1802E-02  0.3284E+01
   -0.149992   30.64644  0.1084E-13  0.1169E-04  0.8474E-07  0.4865E-03  0.1618E-02  0.1773E+01
   -0.199991   30.64909  0.1084E-13  0.1251E-04  0.7578E-07  0.6089E-03  0.1474E-02  0.1305E+01
   -0.249989   30.65115  0.1084E-13  0.1321E-04  0.6965E-07  0.7187E-03  0.1358E-02  0.1284E+01
   -0.299988   30.65284  0.1084E-13  0.1387E-04  0.6486E-07  0.8511E-03  0.1249E-02  0.1377E+01
   -0.349988   30.65424  0.1084E-13  0.1450E-04  0.6093E-07  0.1000E-02  0.1142E-02  0.1474E+01
   -0.399988   30.65540  0.1084E-13  0.1507E-04  0.5768E-07  0.1156E-02  0.1037E-02  0.1498E+01
   -0.449988   30.65638  0.1084E-13  0.1559E-04  0.5499E-07  0.1308E-02  0.9407E-03  0.1499E+01
   -0.499988   30.65723  0.1084E-13  0.1605E-04  0.5278E-07  0.1450E-02  0.8543E-03  0.1494E+01
   -0.549989   30.65798  0.1084E-13  0.1643E-04  0.5097E-07  0.1579E-02  0.7774E-03  0.1479E+01
   -0.599989   30.65866  0.1084E-13  0.1675E-04  0.4950E-07  0.1693E-02  0.7090E-03  0.1460E+01
   -0.649990   30.65929  0.1084E-13  0.1701E-04  0.4832E-07  0.1792E-02  0.6481E-03  0.1436E+01
   -0.699992   30.65987  0.1084E-13  0.1721E-04  0.4738E-07  0.1873E-02  0.5939E-03  0.1410E+01
   -0.749993   30.66041  0.1084E-13  0.1736E-04  0.4665E-07  0.1936E-02  0.5455E-03  0.1380E+01
   -0.799994   30.66093  0.1084E-13  0.1746E-04  0.4612E-07  0.1982E-02  0.5024E-03  0.1348E+01
   -0.849996   30.66144  0.1084E-13  0.1752E-04  0.4575E-07  0.2010E-02  0.4640E-03  0.1312E+01
   -0.899998   30.66193  0.1084E-13  0.1754E-04  0.4554E-07  0.2023E-02  0.4297E-03  0.1276E+01
   -0.949999   30.66241  0.1084E-13  0.1753E-04  0.4547E-07  0.2021E-02  0.3990E-03  0.1235E+01
   -1.000001   30.66289  0.1084E-13  0.1749E-04  0.4554E-07  0.2006E-02  0.3717E-03  0.1192E+01
   -1.050003   30.66337  0.1084E-13  0.1743E-04  0.4574E-07  0.1968E-02  0.3473E-03  0.1151E+01
   -1.100004   30.66385  0.1084E-13  0.1735E-04  0.4603E-07  0.2154E-02  0.3257E-03  0.2584E+01
   -1.150006   30.66429  0.1084E-13  0.1725E-04  0.4646E-07  0.1757E-02  0.3106E-03  0.6875E+01
   -1.200008   30.66482  0.1084E-13  0.1712E-04  0.4704E-07  0.1859E-02  0.2932E-03  0.1262E+01
   -1.250009   30.66532  0.1084E-13  0.1697E-04  0.4783E-07  0.1816E-02  0.2767E-03  0.1311E+01
   -1.300011   30.66583  0.1084E-13  0.1678E-04  0.4888E-07  0.1747E-02  0.2610E-03  0.1532E+01
   -1.350012   30.66635  0.1084E-13  0.1656E-04  0.5028E-07  0.1670E-02  0.2458E-03  0.1866E+01
   -1.400013   30.66690  0.1084E-13  0.1629E-04  0.5216E-07  0.1572E-02  0.2308E-03  0.2365E+01
   -1.450014   30.66749  0.1084E-13  0.1598E-04  0.5472E-07  0.1477E-02  0.2159E-03  0.3125E+01
   -1.500014   30.66812  0.1084E-13  0.1560E-04  0.5831E-07  0.1353E-02  0.2011E-03  0.4464E+01
   -1.550014   30.66882  0.1084E-13  0.1514E-04  0.6358E-07  0.1258E-02  0.1860E-03  0.7727E+01
   -1.600015   30.66961  0.1084E-13  0.1456E-04  0.7197E-07  0.1107E-02  0.1708E-03 -0.4720E+01
   -1.650014   30.67065  0.1084E-13  0.1379E-04  0.8519E-07  0.1009E-02  0.1538E-03  0.4807E+04
   -1.700014   30.67193  0.1084E-13  0.1275E-04  0.1090E-06  0.8183E-03  0.1360E-03  0.8269E+03
   -1.750013   30.67405  0.1084E-13  0.1156E-04  0.1447E-06  0.7289E-03  0.1136E-03  0.5329E+05
   -1.800012   30.67544  0.1084E-13  0.1005E-04  0.2231E-06  0.5088E-03  0.9775E-04  0.1382E+05
   -1.850010   30.68359  0.1084E-13  0.8546E-05  0.3710E-06  0.4771E-03  0.6786E-04  0.2411E+09
   -1.900008   30.68030  0.1084E-13  0.6765E-05  0.7912E-06  0.2195E-03  0.5616E-04 -0.1220E+06
   -1.950005   30.70192  0.1084E-13  0.4820E-05  0.1860E-05  0.2212E-03  0.2958E-04 -0.1686E+06
   -2.000002   30.70268  0.1084E-13  0.0000E+00  0.0000E+00  0.0000E+00  0.6029E-04  0.0000E+00
