 1 - depth, m
 2 - temperature, C
 3 - salinity, kg/kg
 4 - turbulent kinetic energy, m**2/s**2
 5 - dissipation rate, m**2/s**3
 6 - kinematic heat conductance, m**2/s
 7 - modulus of horizontal velocity, m/s
 8 - Richardson number, n/d
   -0.000000   30.31787  0.1969E-14  0.4633E-05  0.2716E-06  0.4549E-04  0.4180E-03  0.3521E+06
   -0.049997   30.35063  0.1969E-14  0.8269E-05  0.1214E-06  0.1954E-03  0.2315E-03  0.5531E+06
   -0.099994   30.36001  0.1969E-14  0.9911E-05  0.8613E-07  0.4053E-03  0.1720E-03  0.9742E+03
   -0.149992   30.36310  0.1969E-14  0.1097E-04  0.7292E-07  0.4942E-03  0.1523E-03  0.4973E+03
   -0.199991   30.36551  0.1969E-14  0.1180E-04  0.6510E-07  0.6522E-03  0.1363E-03  0.3304E+03
   -0.249989   30.36729  0.1970E-14  0.1246E-04  0.5992E-07  0.7783E-03  0.1243E-03  0.2450E+03
   -0.299989   30.36874  0.1970E-14  0.1300E-04  0.5620E-07  0.9013E-03  0.1143E-03  0.1976E+03
   -0.349988   30.36996  0.1970E-14  0.1345E-04  0.5341E-07  0.1013E-02  0.1057E-03  0.1679E+03
   -0.399988   30.37103  0.1970E-14  0.1383E-04  0.5122E-07  0.1116E-02  0.9801E-04  0.1512E+03
   -0.449988   30.37197  0.1970E-14  0.1415E-04  0.4945E-07  0.1211E-02  0.9130E-04  0.1405E+03
   -0.499988   30.37283  0.1970E-14  0.1444E-04  0.4798E-07  0.1298E-02  0.8531E-04  0.1382E+03
   -0.549989   30.37361  0.1970E-14  0.1468E-04  0.4675E-07  0.1378E-02  0.7997E-04  0.1346E+03
   -0.599990   30.37433  0.1970E-14  0.1489E-04  0.4571E-07  0.1450E-02  0.7511E-04  0.1363E+03
   -0.649991   30.37501  0.1970E-14  0.1507E-04  0.4483E-07  0.1515E-02  0.7070E-04  0.1359E+03
   -0.699992   30.37565  0.1970E-14  0.1523E-04  0.4410E-07  0.1572E-02  0.6661E-04  0.1409E+03
   -0.749993   30.37626  0.1970E-14  0.1536E-04  0.4348E-07  0.1622E-02  0.6287E-04  0.1431E+03
   -0.799995   30.37684  0.1970E-14  0.1546E-04  0.4297E-07  0.1664E-02  0.5934E-04  0.1513E+03
   -0.849996   30.37740  0.1970E-14  0.1554E-04  0.4256E-07  0.1698E-02  0.5609E-04  0.1562E+03
   -0.899998   30.37794  0.1970E-14  0.1560E-04  0.4225E-07  0.1725E-02  0.5300E-04  0.1682E+03
   -0.950000   30.37847  0.1970E-14  0.1564E-04  0.4204E-07  0.1743E-02  0.5011E-04  0.1767E+03
   -1.000001   30.37899  0.1970E-14  0.1566E-04  0.4192E-07  0.1754E-02  0.4735E-04  0.1939E+03
   -1.050003   30.37950  0.1970E-14  0.1566E-04  0.4190E-07  0.1754E-02  0.4476E-04  0.2156E+03
   -1.100005   30.38001  0.1970E-14  0.1564E-04  0.4199E-07  0.1842E-02  0.4226E-04  0.7241E+03
   -1.150006   30.38049  0.1970E-14  0.1560E-04  0.4220E-07  0.1670E-02  0.4004E-04  0.1657E+04
   -1.200008   30.38102  0.1970E-14  0.1553E-04  0.4254E-07  0.1696E-02  0.3773E-04  0.3118E+03
   -1.250010   30.38154  0.1970E-14  0.1544E-04  0.4305E-07  0.1666E-02  0.3551E-04  0.3369E+03
   -1.300011   30.38206  0.1970E-14  0.1532E-04  0.4375E-07  0.1617E-02  0.3340E-04  0.3885E+03
   -1.350012   30.38260  0.1970E-14  0.1516E-04  0.4471E-07  0.1558E-02  0.3133E-04  0.4718E+03
   -1.400013   30.38315  0.1970E-14  0.1498E-04  0.4599E-07  0.1481E-02  0.2933E-04  0.5765E+03
   -1.450014   30.38374  0.1970E-14  0.1475E-04  0.4774E-07  0.1404E-02  0.2734E-04  0.7445E+03
   -1.500015   30.38435  0.1970E-14  0.1447E-04  0.5015E-07  0.1292E-02  0.2541E-04  0.1006E+04
   -1.550015   30.38503  0.1970E-14  0.1413E-04  0.5355E-07  0.1209E-02  0.2345E-04  0.1449E+04
   -1.600015   30.38576  0.1970E-14  0.1371E-04  0.5873E-07  0.1063E-02  0.2155E-04  0.2843E+04
   -1.650015   30.38665  0.1970E-14  0.1317E-04  0.6668E-07  0.9843E-03  0.1949E-04  0.2193E+05
   -1.700014   30.38763  0.1970E-14  0.1243E-04  0.8093E-07  0.8047E-03  0.1752E-04  0.2484E+05
   -1.750013   30.38939  0.1970E-14  0.1143E-04  0.1044E-06  0.7247E-03  0.1487E-04  0.3025E+08
   -1.800012   30.39084  0.1970E-14  0.1008E-04  0.1540E-06  0.5081E-03  0.1278E-04  0.1380E+07
   -1.850010   30.39679  0.1970E-14  0.8533E-05  0.2474E-06  0.4603E-03  0.9191E-05  0.2455E+09
   -1.900008   30.39592  0.1970E-14  0.6725E-05  0.5157E-06  0.2095E-03  0.7448E-05 -0.6980E+06
   -1.950006   30.41458  0.1970E-14  0.4698E-05  0.1298E-05  0.1850E-03  0.4030E-05 -0.3318E+08
   -2.000003   30.41677  0.1970E-14  0.0000E+00  0.0000E+00  0.0000E+00  0.7317E-05  0.0000E+00
