 1 - depth, m
 2 - temperature, C
 3 - salinity, kg/kg
 4 - turbulent kinetic energy, m**2/s**2
 5 - dissipation rate, m**2/s**3
 6 - kinematic heat conductance, m**2/s
 7 - modulus of horizontal velocity, m/s
 8 - Richardson number, n/d
   -0.000000   31.01168  0.1761E-14  0.5014E-05  0.3204E-06  0.5144E-04  0.1115E-02  0.1844E+05
   -0.049997   31.04354  0.1761E-14  0.8660E-05  0.1427E-06  0.1814E-03  0.6365E-03  0.6356E+02
   -0.099994   31.05579  0.1761E-14  0.1051E-04  0.9824E-07  0.4107E-03  0.4662E-03  0.5274E+02
   -0.149992   31.05914  0.1761E-14  0.1166E-04  0.8254E-07  0.4895E-03  0.4122E-03  0.2605E+02
   -0.199991   31.06183  0.1761E-14  0.1256E-04  0.7332E-07  0.6561E-03  0.3683E-03  0.1683E+02
   -0.249989   31.06378  0.1761E-14  0.1327E-04  0.6728E-07  0.7834E-03  0.3355E-03  0.1256E+02
   -0.299988   31.06536  0.1761E-14  0.1385E-04  0.6296E-07  0.9110E-03  0.3082E-03  0.9975E+01
   -0.349988   31.06669  0.1761E-14  0.1433E-04  0.5972E-07  0.1026E-02  0.2848E-03  0.8601E+01
   -0.399988   31.06784  0.1761E-14  0.1473E-04  0.5719E-07  0.1132E-02  0.2642E-03  0.7622E+01
   -0.449988   31.06885  0.1761E-14  0.1508E-04  0.5514E-07  0.1229E-02  0.2459E-03  0.7218E+01
   -0.499988   31.06977  0.1761E-14  0.1537E-04  0.5344E-07  0.1319E-02  0.2299E-03  0.6965E+01
   -0.549989   31.07061  0.1761E-14  0.1563E-04  0.5201E-07  0.1401E-02  0.2154E-03  0.6937E+01
   -0.599989   31.07139  0.1761E-14  0.1585E-04  0.5081E-07  0.1475E-02  0.2024E-03  0.6873E+01
   -0.649990   31.07212  0.1761E-14  0.1603E-04  0.4978E-07  0.1541E-02  0.1904E-03  0.7030E+01
   -0.699992   31.07280  0.1761E-14  0.1619E-04  0.4892E-07  0.1599E-02  0.1795E-03  0.7111E+01
   -0.749993   31.07345  0.1761E-14  0.1632E-04  0.4819E-07  0.1650E-02  0.1694E-03  0.7425E+01
   -0.799994   31.07407  0.1761E-14  0.1642E-04  0.4759E-07  0.1693E-02  0.1600E-03  0.7645E+01
   -0.849996   31.07467  0.1761E-14  0.1650E-04  0.4710E-07  0.1727E-02  0.1511E-03  0.8129E+01
   -0.899998   31.07525  0.1761E-14  0.1656E-04  0.4672E-07  0.1754E-02  0.1429E-03  0.8516E+01
   -0.949999   31.07581  0.1761E-14  0.1659E-04  0.4644E-07  0.1772E-02  0.1350E-03  0.9220E+01
   -1.000001   31.07636  0.1761E-14  0.1660E-04  0.4628E-07  0.1782E-02  0.1277E-03  0.9840E+01
   -1.050003   31.07691  0.1761E-14  0.1658E-04  0.4623E-07  0.1781E-02  0.1207E-03  0.1126E+02
   -1.100004   31.07745  0.1761E-14  0.1655E-04  0.4630E-07  0.1877E-02  0.1140E-03  0.3641E+02
   -1.150006   31.07795  0.1761E-14  0.1649E-04  0.4652E-07  0.1681E-02  0.1080E-03  0.8651E+02
   -1.200008   31.07852  0.1761E-14  0.1640E-04  0.4687E-07  0.1715E-02  0.1018E-03  0.1643E+02
   -1.250009   31.07906  0.1761E-14  0.1629E-04  0.4742E-07  0.1684E-02  0.9585E-04  0.1731E+02
   -1.300010   31.07962  0.1761E-14  0.1614E-04  0.4821E-07  0.1631E-02  0.9011E-04  0.2056E+02
   -1.350012   31.08018  0.1761E-14  0.1596E-04  0.4928E-07  0.1570E-02  0.8456E-04  0.2453E+02
   -1.400013   31.08077  0.1761E-14  0.1574E-04  0.5076E-07  0.1487E-02  0.7912E-04  0.3092E+02
   -1.450013   31.08139  0.1761E-14  0.1548E-04  0.5279E-07  0.1410E-02  0.7379E-04  0.3954E+02
   -1.500014   31.08205  0.1761E-14  0.1515E-04  0.5564E-07  0.1291E-02  0.6854E-04  0.5559E+02
   -1.550014   31.08277  0.1761E-14  0.1476E-04  0.5973E-07  0.1213E-02  0.6324E-04  0.8087E+02
   -1.600014   31.08355  0.1761E-14  0.1427E-04  0.6618E-07  0.1062E-02  0.5806E-04  0.1969E+03
   -1.650014   31.08455  0.1761E-14  0.1363E-04  0.7626E-07  0.9887E-03  0.5236E-04  0.8160E+03
   -1.700014   31.08566  0.1761E-14  0.1275E-04  0.9433E-07  0.7978E-03  0.4681E-04  0.4418E+04
   -1.750013   31.08775  0.1761E-14  0.1162E-04  0.1237E-06  0.7251E-03  0.3918E-04  0.2489E+06
   -1.800011   31.08922  0.1761E-14  0.1017E-04  0.1876E-06  0.5021E-03  0.3372E-04  0.4807E+05
   -1.850010   31.09657  0.1761E-14  0.8627E-05  0.3070E-06  0.4692E-03  0.2359E-04  0.2254E+09
   -1.900008   31.09429  0.1761E-14  0.6893E-05  0.6407E-06  0.2209E-03  0.1941E-04 -0.3193E+06
   -1.950005   31.11481  0.1761E-14  0.4855E-05  0.1579E-05  0.2002E-03  0.1039E-04 -0.1184E+07
   -2.000002   31.11637  0.1761E-14  0.0000E+00  0.0000E+00  0.0000E+00  0.1985E-04  0.0000E+00
