 1 - depth, m
 2 - temperature, C
 3 - salinity, kg/kg
 4 - turbulent kinetic energy, m**2/s**2
 5 - dissipation rate, m**2/s**3
 6 - kinematic heat conductance, m**2/s
 7 - modulus of horizontal velocity, m/s
 8 - Richardson number, n/d
   -0.000000   30.94929  0.2837E-14  0.5229E-05  0.3471E-06  0.5340E-04  0.7407E-03  0.2300E+05
   -0.049997   30.98279  0.2837E-14  0.9089E-05  0.1538E-06  0.1831E-03  0.4285E-03  0.5400E+02
   -0.099994   30.99614  0.2837E-14  0.1105E-04  0.1054E-06  0.4276E-03  0.3103E-03  0.9234E+02
   -0.149992   30.99962  0.2837E-14  0.1226E-04  0.8870E-07  0.4995E-03  0.2754E-03  0.4555E+02
   -0.199990   31.00246  0.2837E-14  0.1320E-04  0.7887E-07  0.6730E-03  0.2464E-03  0.2947E+02
   -0.249989   31.00452  0.2837E-14  0.1395E-04  0.7244E-07  0.8021E-03  0.2248E-03  0.2195E+02
   -0.299988   31.00619  0.2837E-14  0.1456E-04  0.6785E-07  0.9325E-03  0.2068E-03  0.1750E+02
   -0.349988   31.00759  0.2837E-14  0.1506E-04  0.6440E-07  0.1050E-02  0.1914E-03  0.1503E+02
   -0.399987   31.00881  0.2837E-14  0.1548E-04  0.6173E-07  0.1157E-02  0.1777E-03  0.1338E+02
   -0.449987   31.00989  0.2837E-14  0.1585E-04  0.5955E-07  0.1256E-02  0.1657E-03  0.1260E+02
   -0.499988   31.01086  0.2837E-14  0.1616E-04  0.5775E-07  0.1346E-02  0.1551E-03  0.1223E+02
   -0.549988   31.01175  0.2837E-14  0.1642E-04  0.5625E-07  0.1429E-02  0.1455E-03  0.1211E+02
   -0.599989   31.01258  0.2837E-14  0.1665E-04  0.5499E-07  0.1503E-02  0.1368E-03  0.1208E+02
   -0.649990   31.01335  0.2837E-14  0.1685E-04  0.5393E-07  0.1569E-02  0.1289E-03  0.1228E+02
   -0.699991   31.01408  0.2837E-14  0.1701E-04  0.5304E-07  0.1627E-02  0.1216E-03  0.1252E+02
   -0.749992   31.01477  0.2837E-14  0.1715E-04  0.5230E-07  0.1677E-02  0.1149E-03  0.1300E+02
   -0.799994   31.01544  0.2837E-14  0.1725E-04  0.5170E-07  0.1718E-02  0.1086E-03  0.1352E+02
   -0.849995   31.01608  0.2837E-14  0.1733E-04  0.5123E-07  0.1751E-02  0.1027E-03  0.1429E+02
   -0.899997   31.01670  0.2837E-14  0.1739E-04  0.5087E-07  0.1775E-02  0.9719E-04  0.1514E+02
   -0.949998   31.01731  0.2837E-14  0.1742E-04  0.5064E-07  0.1790E-02  0.9197E-04  0.1632E+02
   -1.000000   31.01790  0.2837E-14  0.1743E-04  0.5053E-07  0.1797E-02  0.8702E-04  0.1763E+02
   -1.050002   31.01849  0.2837E-14  0.1741E-04  0.5056E-07  0.1791E-02  0.8231E-04  0.2011E+02
   -1.100003   31.01908  0.2837E-14  0.1736E-04  0.5072E-07  0.1906E-02  0.7781E-04  0.6460E+02
   -1.150005   31.01963  0.2837E-14  0.1729E-04  0.5107E-07  0.1661E-02  0.7385E-04  0.1619E+03
   -1.200007   31.02026  0.2837E-14  0.1719E-04  0.5158E-07  0.1709E-02  0.6957E-04  0.3004E+02
   -1.250008   31.02086  0.2837E-14  0.1706E-04  0.5233E-07  0.1674E-02  0.6554E-04  0.3205E+02
   -1.300009   31.02148  0.2837E-14  0.1689E-04  0.5337E-07  0.1614E-02  0.6165E-04  0.3819E+02
   -1.350010   31.02211  0.2837E-14  0.1668E-04  0.5478E-07  0.1548E-02  0.5787E-04  0.4641E+02
   -1.400011   31.02278  0.2837E-14  0.1643E-04  0.5671E-07  0.1456E-02  0.5416E-04  0.5911E+02
   -1.450012   31.02348  0.2837E-14  0.1611E-04  0.5937E-07  0.1376E-02  0.5049E-04  0.7749E+02
   -1.500013   31.02424  0.2837E-14  0.1574E-04  0.6315E-07  0.1250E-02  0.4688E-04  0.1114E+03
   -1.550013   31.02509  0.2837E-14  0.1527E-04  0.6865E-07  0.1177E-02  0.4319E-04  0.1741E+03
   -1.600013   31.02601  0.2837E-14  0.1468E-04  0.7764E-07  0.1019E-02  0.3958E-04  0.5167E+03
   -1.650013   31.02728  0.2837E-14  0.1388E-04  0.9178E-07  0.9455E-03  0.3542E-04  0.5403E+04
   -1.700012   31.02872  0.2837E-14  0.1280E-04  0.1168E-06  0.7505E-03  0.3133E-04 -0.3550E+04
   -1.750011   31.03151  0.2837E-14  0.1149E-04  0.1567E-06  0.6871E-03  0.2563E-04  0.1663E+07
   -1.800010   31.03308  0.2837E-14  0.9912E-05  0.2439E-06  0.4623E-03  0.2205E-04  0.2236E+06
   -1.850008   31.04365  0.2837E-14  0.8310E-05  0.4117E-06  0.4479E-03  0.1461E-04  0.5539E+09
   -1.900006   31.03890  0.2837E-14  0.6633E-05  0.8663E-06  0.2088E-03  0.1221E-04 -0.1181E+07
   -1.950003   31.06559  0.2837E-14  0.4794E-05  0.2044E-05  0.2276E-03  0.6268E-05 -0.1074E+07
   -2.000000   31.06563  0.2837E-14  0.0000E+00  0.0000E+00  0.0000E+00  0.1344E-04  0.0000E+00
