 1 - depth, m
 2 - temperature, C
 3 - salinity, kg/kg
 4 - turbulent kinetic energy, m**2/s**2
 5 - dissipation rate, m**2/s**3
 6 - kinematic heat conductance, m**2/s
 7 - modulus of horizontal velocity, m/s
 8 - Richardson number, n/d
   -0.000000   30.29595  0.1001E-13  0.5920E-05  0.3389E-06  0.5636E-04  0.4068E-02  0.4963E+03
   -0.049997   30.32766  0.1001E-13  0.9361E-05  0.1449E-06  0.2147E-03  0.2189E-02  0.1155E+04
   -0.099994   30.33690  0.1001E-13  0.1091E-04  0.1039E-06  0.3935E-03  0.1759E-02  0.3521E+01
   -0.149992   30.34049  0.1001E-13  0.1195E-04  0.8791E-07  0.4902E-03  0.1578E-02  0.1887E+01
   -0.199991   30.34326  0.1001E-13  0.1280E-04  0.7852E-07  0.6170E-03  0.1436E-02  0.1361E+01
   -0.249989   30.34539  0.1001E-13  0.1351E-04  0.7216E-07  0.7280E-03  0.1322E-02  0.1286E+01
   -0.299988   30.34714  0.1001E-13  0.1418E-04  0.6725E-07  0.8579E-03  0.1216E-02  0.1355E+01
   -0.349988   30.34860  0.1001E-13  0.1480E-04  0.6324E-07  0.1004E-02  0.1114E-02  0.1448E+01
   -0.399988   30.34981  0.1001E-13  0.1538E-04  0.5992E-07  0.1157E-02  0.1013E-02  0.1471E+01
   -0.449988   30.35084  0.1001E-13  0.1590E-04  0.5716E-07  0.1307E-02  0.9205E-03  0.1475E+01
   -0.499988   30.35174  0.1001E-13  0.1635E-04  0.5490E-07  0.1446E-02  0.8375E-03  0.1471E+01
   -0.549989   30.35253  0.1001E-13  0.1673E-04  0.5304E-07  0.1573E-02  0.7634E-03  0.1458E+01
   -0.599989   30.35325  0.1001E-13  0.1705E-04  0.5154E-07  0.1685E-02  0.6975E-03  0.1440E+01
   -0.649990   30.35391  0.1001E-13  0.1731E-04  0.5032E-07  0.1781E-02  0.6387E-03  0.1419E+01
   -0.699992   30.35452  0.1001E-13  0.1751E-04  0.4936E-07  0.1860E-02  0.5863E-03  0.1393E+01
   -0.749993   30.35510  0.1001E-13  0.1765E-04  0.4861E-07  0.1921E-02  0.5396E-03  0.1365E+01
   -0.799994   30.35565  0.1001E-13  0.1775E-04  0.4806E-07  0.1965E-02  0.4979E-03  0.1333E+01
   -0.849996   30.35619  0.1001E-13  0.1781E-04  0.4769E-07  0.1993E-02  0.4606E-03  0.1300E+01
   -0.899998   30.35671  0.1001E-13  0.1783E-04  0.4748E-07  0.2004E-02  0.4274E-03  0.1262E+01
   -0.949999   30.35722  0.1001E-13  0.1782E-04  0.4741E-07  0.2001E-02  0.3977E-03  0.1224E+01
   -1.000001   30.35773  0.1001E-13  0.1777E-04  0.4749E-07  0.1986E-02  0.3712E-03  0.1180E+01
   -1.050003   30.35823  0.1001E-13  0.1771E-04  0.4769E-07  0.1949E-02  0.3475E-03  0.1152E+01
   -1.100004   30.35875  0.1001E-13  0.1762E-04  0.4800E-07  0.2139E-02  0.3266E-03  0.2731E+01
   -1.150006   30.35921  0.1001E-13  0.1751E-04  0.4847E-07  0.1728E-02  0.3114E-03  0.7503E+01
   -1.200008   30.35978  0.1001E-13  0.1738E-04  0.4909E-07  0.1833E-02  0.2937E-03  0.1352E+01
   -1.250009   30.36031  0.1001E-13  0.1721E-04  0.4995E-07  0.1791E-02  0.2773E-03  0.1414E+01
   -1.300010   30.36085  0.1001E-13  0.1701E-04  0.5110E-07  0.1719E-02  0.2615E-03  0.1674E+01
   -1.350012   30.36142  0.1001E-13  0.1677E-04  0.5263E-07  0.1642E-02  0.2461E-03  0.2045E+01
   -1.400013   30.36201  0.1001E-13  0.1649E-04  0.5469E-07  0.1538E-02  0.2310E-03  0.2623E+01
   -1.450013   30.36264  0.1001E-13  0.1615E-04  0.5753E-07  0.1447E-02  0.2160E-03  0.3486E+01
   -1.500014   30.36331  0.1001E-13  0.1574E-04  0.6154E-07  0.1313E-02  0.2010E-03  0.5113E+01
   -1.550014   30.36408  0.1001E-13  0.1524E-04  0.6743E-07  0.1228E-02  0.1857E-03 -0.1579E+02
   -1.600014   30.36494  0.1001E-13  0.1461E-04  0.7692E-07  0.1068E-02  0.1703E-03 -0.7367E+03
   -1.650014   30.36613  0.1001E-13  0.1378E-04  0.9160E-07  0.9829E-03  0.1527E-03  0.1402E+04
   -1.700014   30.36746  0.1001E-13  0.1266E-04  0.1179E-06  0.7887E-03  0.1351E-03  0.3616E+03
   -1.750013   30.37006  0.1001E-13  0.1135E-04  0.1592E-06  0.7110E-03  0.1108E-03  0.6878E+05
   -1.800011   30.37146  0.1001E-13  0.9744E-05  0.2505E-06  0.4812E-03  0.9530E-04  0.1825E+05
   -1.850010   30.38140  0.1001E-13  0.8187E-05  0.4196E-06  0.4627E-03  0.6352E-04  0.1093E+09
   -1.900008   30.37659  0.1001E-13  0.6491E-05  0.8808E-06  0.2153E-03  0.5333E-04 -0.1051E+06
   -1.950005   30.40136  0.1001E-13  0.4696E-05  0.2069E-05  0.2344E-03  0.2725E-04 -0.1403E+06
   -2.000002   30.40057  0.1001E-13  0.0000E+00  0.0000E+00  0.0000E+00  0.5937E-04  0.0000E+00
