 1 - depth, m
 2 - temperature, C
 3 - salinity, kg/kg
 4 - turbulent kinetic energy, m**2/s**2
 5 - dissipation rate, m**2/s**3
 6 - kinematic heat conductance, m**2/s
 7 - modulus of horizontal velocity, m/s
 8 - Richardson number, n/d
   -0.000000   30.58859  0.6525E-14  0.4598E-05  0.2779E-06  0.4916E-04  0.1590E-02  0.5703E+04
   -0.049997   30.61664  0.6525E-14  0.7884E-05  0.1237E-06  0.1746E-03  0.9043E-03  0.4159E+03
   -0.099994   30.62740  0.6525E-14  0.9572E-05  0.8516E-07  0.3935E-03  0.6605E-03  0.1933E+02
   -0.149992   30.63037  0.6525E-14  0.1063E-04  0.7154E-07  0.4748E-03  0.5831E-03  0.9452E+01
   -0.199991   30.63274  0.6525E-14  0.1146E-04  0.6359E-07  0.6339E-03  0.5204E-03  0.6074E+01
   -0.249989   30.63446  0.6525E-14  0.1213E-04  0.5840E-07  0.7579E-03  0.4736E-03  0.4475E+01
   -0.299988   30.63587  0.6525E-14  0.1267E-04  0.5473E-07  0.8815E-03  0.4345E-03  0.3573E+01
   -0.349988   30.63705  0.6525E-14  0.1313E-04  0.5199E-07  0.9934E-03  0.4011E-03  0.3051E+01
   -0.399988   30.63809  0.6525E-14  0.1351E-04  0.4987E-07  0.1096E-02  0.3716E-03  0.2729E+01
   -0.449988   30.63900  0.6525E-14  0.1385E-04  0.4816E-07  0.1191E-02  0.3456E-03  0.2556E+01
   -0.499988   30.63983  0.6525E-14  0.1414E-04  0.4677E-07  0.1279E-02  0.3227E-03  0.2497E+01
   -0.549989   30.64059  0.6525E-14  0.1439E-04  0.4561E-07  0.1359E-02  0.3021E-03  0.2458E+01
   -0.599989   30.64129  0.6525E-14  0.1462E-04  0.4465E-07  0.1432E-02  0.2835E-03  0.2473E+01
   -0.649990   30.64195  0.6525E-14  0.1481E-04  0.4385E-07  0.1497E-02  0.2666E-03  0.2498E+01
   -0.699992   30.64257  0.6525E-14  0.1498E-04  0.4319E-07  0.1555E-02  0.2510E-03  0.2572E+01
   -0.749993   30.64316  0.6525E-14  0.1513E-04  0.4266E-07  0.1605E-02  0.2367E-03  0.2653E+01
   -0.799994   30.64373  0.6525E-14  0.1525E-04  0.4224E-07  0.1648E-02  0.2233E-03  0.2785E+01
   -0.849996   30.64428  0.6525E-14  0.1535E-04  0.4192E-07  0.1682E-02  0.2108E-03  0.2926E+01
   -0.899998   30.64481  0.6525E-14  0.1543E-04  0.4169E-07  0.1709E-02  0.1991E-03  0.3129E+01
   -0.949999   30.64533  0.6525E-14  0.1549E-04  0.4157E-07  0.1728E-02  0.1881E-03  0.3349E+01
   -1.000001   30.64585  0.6525E-14  0.1552E-04  0.4154E-07  0.1738E-02  0.1777E-03  0.3647E+01
   -1.050003   30.64636  0.6525E-14  0.1554E-04  0.4162E-07  0.1739E-02  0.1678E-03  0.4141E+01
   -1.100005   30.64687  0.6525E-14  0.1554E-04  0.4181E-07  0.1823E-02  0.1583E-03  0.1378E+02
   -1.150006   30.64735  0.6525E-14  0.1551E-04  0.4213E-07  0.1660E-02  0.1499E-03  0.3175E+02
   -1.200008   30.64788  0.6525E-14  0.1547E-04  0.4257E-07  0.1682E-02  0.1412E-03  0.6079E+01
   -1.250009   30.64841  0.6525E-14  0.1539E-04  0.4319E-07  0.1651E-02  0.1328E-03  0.6549E+01
   -1.300011   30.64894  0.6525E-14  0.1529E-04  0.4402E-07  0.1602E-02  0.1248E-03  0.7693E+01
   -1.350012   30.64949  0.6525E-14  0.1516E-04  0.4511E-07  0.1543E-02  0.1170E-03  0.9313E+01
   -1.400013   30.65007  0.6525E-14  0.1499E-04  0.4655E-07  0.1466E-02  0.1094E-03  0.1159E+02
   -1.450014   30.65067  0.6525E-14  0.1478E-04  0.4847E-07  0.1390E-02  0.1019E-03  0.1495E+02
   -1.500014   30.65132  0.6525E-14  0.1452E-04  0.5109E-07  0.1278E-02  0.9461E-04  0.2060E+02
   -1.550015   30.65203  0.6525E-14  0.1420E-04  0.5476E-07  0.1197E-02  0.8725E-04  0.2981E+02
   -1.600015   30.65281  0.6525E-14  0.1378E-04  0.6035E-07  0.1052E-02  0.8007E-04  0.6279E+02
   -1.650014   30.65377  0.6525E-14  0.1325E-04  0.6890E-07  0.9739E-03  0.7230E-04  0.5058E+03
   -1.700014   30.65483  0.6525E-14  0.1250E-04  0.8413E-07  0.7924E-03  0.6483E-04 -0.4673E+02
   -1.750013   30.65678  0.6525E-14  0.1151E-04  0.1092E-06  0.7182E-03  0.5485E-04  0.8684E+05
   -1.800012   30.65838  0.6525E-14  0.1017E-04  0.1621E-06  0.4957E-03  0.4712E-04  0.8044E+05
   -1.850010   30.66498  0.6525E-14  0.8674E-05  0.2612E-06  0.4583E-03  0.3389E-04  0.6883E+08
   -1.900008   30.66372  0.6525E-14  0.6923E-05  0.5390E-06  0.2114E-03  0.2749E-04  0.2084E+07
   -1.950005   30.68417  0.6525E-14  0.4844E-05  0.1342E-05  0.1860E-03  0.1497E-04 -0.2242E+06
   -2.000002   30.68633  0.6525E-14  0.0000E+00  0.0000E+00  0.0000E+00  0.2688E-04  0.0000E+00
