 1 - depth, m
 2 - temperature, C
 3 - salinity, kg/kg
 4 - turbulent kinetic energy, m**2/s**2
 5 - dissipation rate, m**2/s**3
 6 - kinematic heat conductance, m**2/s
 7 - modulus of horizontal velocity, m/s
 8 - Richardson number, n/d
   -0.000000   30.42458  0.1100E-14  0.5207E-05  0.3409E-06  0.5191E-04  0.9762E-03  0.2686E+04
   -0.049997   30.45890  0.1100E-14  0.9009E-05  0.1513E-06  0.1871E-03  0.5552E-03  0.8182E+04
   -0.099994   30.47180  0.1100E-14  0.1093E-04  0.1042E-06  0.4189E-03  0.4085E-03  0.5597E+02
   -0.149992   30.47533  0.1100E-14  0.1213E-04  0.8758E-07  0.4992E-03  0.3620E-03  0.2754E+02
   -0.199990   30.47817  0.1100E-14  0.1307E-04  0.7780E-07  0.6693E-03  0.3239E-03  0.1773E+02
   -0.249989   30.48023  0.1100E-14  0.1381E-04  0.7141E-07  0.7981E-03  0.2956E-03  0.1311E+02
   -0.299988   30.48190  0.1100E-14  0.1441E-04  0.6685E-07  0.9284E-03  0.2719E-03  0.1046E+02
   -0.349988   30.48330  0.1100E-14  0.1491E-04  0.6344E-07  0.1045E-02  0.2516E-03  0.8917E+01
   -0.399987   30.48452  0.1100E-14  0.1533E-04  0.6078E-07  0.1153E-02  0.2336E-03  0.7967E+01
   -0.449987   30.48560  0.1100E-14  0.1569E-04  0.5863E-07  0.1252E-02  0.2178E-03  0.7440E+01
   -0.499988   30.48658  0.1100E-14  0.1600E-04  0.5685E-07  0.1343E-02  0.2038E-03  0.7255E+01
   -0.549988   30.48747  0.1100E-14  0.1627E-04  0.5536E-07  0.1426E-02  0.1913E-03  0.7116E+01
   -0.599989   30.48829  0.1100E-14  0.1650E-04  0.5411E-07  0.1500E-02  0.1799E-03  0.7141E+01
   -0.649990   30.48906  0.1100E-14  0.1670E-04  0.5305E-07  0.1567E-02  0.1695E-03  0.7187E+01
   -0.699991   30.48979  0.1100E-14  0.1686E-04  0.5217E-07  0.1626E-02  0.1599E-03  0.7378E+01
   -0.749992   30.49048  0.1100E-14  0.1700E-04  0.5143E-07  0.1677E-02  0.1511E-03  0.7576E+01
   -0.799994   30.49114  0.1100E-14  0.1711E-04  0.5082E-07  0.1719E-02  0.1428E-03  0.7930E+01
   -0.849995   30.49178  0.1100E-14  0.1719E-04  0.5034E-07  0.1753E-02  0.1351E-03  0.8293E+01
   -0.899997   30.49240  0.1100E-14  0.1725E-04  0.4998E-07  0.1779E-02  0.1278E-03  0.8841E+01
   -0.949999   30.49300  0.1100E-14  0.1729E-04  0.4973E-07  0.1796E-02  0.1210E-03  0.9421E+01
   -1.000000   30.49359  0.1100E-14  0.1730E-04  0.4961E-07  0.1804E-02  0.1145E-03  0.1024E+02
   -1.050002   30.49418  0.1100E-14  0.1729E-04  0.4961E-07  0.1801E-02  0.1083E-03  0.1155E+02
   -1.100004   30.49476  0.1100E-14  0.1725E-04  0.4975E-07  0.1908E-02  0.1024E-03  0.3774E+02
   -1.150005   30.49530  0.1100E-14  0.1719E-04  0.5005E-07  0.1686E-02  0.9715E-04  0.9118E+02
   -1.200007   30.49592  0.1100E-14  0.1709E-04  0.5051E-07  0.1727E-02  0.9157E-04  0.1700E+02
   -1.250008   30.49652  0.1100E-14  0.1697E-04  0.5119E-07  0.1694E-02  0.8629E-04  0.1822E+02
   -1.300009   30.49712  0.1100E-14  0.1682E-04  0.5214E-07  0.1637E-02  0.8121E-04  0.2143E+02
   -1.350011   30.49774  0.1100E-14  0.1663E-04  0.5343E-07  0.1573E-02  0.7624E-04  0.2604E+02
   -1.400012   30.49839  0.1100E-14  0.1639E-04  0.5519E-07  0.1486E-02  0.7141E-04  0.3264E+02
   -1.450012   30.49908  0.1100E-14  0.1610E-04  0.5761E-07  0.1407E-02  0.6661E-04  0.4263E+02
   -1.500013   30.49982  0.1100E-14  0.1575E-04  0.6101E-07  0.1284E-02  0.6190E-04  0.6001E+02
   -1.550013   30.50063  0.1100E-14  0.1532E-04  0.6594E-07  0.1206E-02  0.5711E-04  0.9282E+02
   -1.600013   30.50152  0.1100E-14  0.1478E-04  0.7378E-07  0.1051E-02  0.5241E-04  0.1445E+04
   -1.650013   30.50270  0.1100E-14  0.1406E-04  0.8594E-07  0.9785E-03  0.4713E-04  0.1051E+04
   -1.700012   30.50401  0.1100E-14  0.1308E-04  0.1078E-06  0.7850E-03  0.4199E-04  0.2269E+05
   -1.750011   30.50650  0.1100E-14  0.1186E-04  0.1427E-06  0.7141E-03  0.3485E-04  0.2137E+06
   -1.800010   30.50806  0.1100E-14  0.1033E-04  0.2186E-06  0.4972E-03  0.3002E-04  0.1117E+07
   -1.850008   30.51717  0.1100E-14  0.8731E-05  0.3627E-06  0.4617E-03  0.2060E-04  0.8115E+08
   -1.900006   30.51377  0.1100E-14  0.6907E-05  0.7583E-06  0.2160E-03  0.1703E-04 -0.5584E+06
   -1.950004   30.53832  0.1100E-14  0.4954E-05  0.1828E-05  0.2154E-03  0.8909E-05 -0.1005E+07
   -2.000000   30.53926  0.1100E-14  0.0000E+00  0.0000E+00  0.0000E+00  0.1799E-04  0.0000E+00
