 1 - depth, m
 2 - temperature, C
 3 - salinity, kg/kg
 4 - turbulent kinetic energy, m**2/s**2
 5 - dissipation rate, m**2/s**3
 6 - kinematic heat conductance, m**2/s
 7 - modulus of horizontal velocity, m/s
 8 - Richardson number, n/d
   -0.000000   30.29238  0.2785E-14  0.4676E-05  0.2809E-06  0.4693E-04  0.9876E-03  0.1317E+04
   -0.049997   30.32398  0.2785E-14  0.8149E-05  0.1250E-06  0.1870E-03  0.5433E-03  0.6913E+02
   -0.099994   30.33448  0.2785E-14  0.9828E-05  0.8748E-07  0.3956E-03  0.4055E-03  0.4818E+02
   -0.149992   30.33764  0.2785E-14  0.1090E-04  0.7365E-07  0.4848E-03  0.3578E-03  0.2388E+02
   -0.199991   30.34012  0.2785E-14  0.1173E-04  0.6551E-07  0.6419E-03  0.3198E-03  0.1540E+02
   -0.249989   30.34193  0.2785E-14  0.1239E-04  0.6015E-07  0.7662E-03  0.2912E-03  0.1141E+02
   -0.299988   30.34341  0.2785E-14  0.1293E-04  0.5631E-07  0.8898E-03  0.2673E-03  0.9086E+01
   -0.349988   30.34465  0.2785E-14  0.1337E-04  0.5342E-07  0.1002E-02  0.2468E-03  0.7778E+01
   -0.399988   30.34572  0.2785E-14  0.1375E-04  0.5117E-07  0.1104E-02  0.2287E-03  0.6930E+01
   -0.449988   30.34667  0.2785E-14  0.1407E-04  0.4933E-07  0.1199E-02  0.2128E-03  0.6510E+01
   -0.499988   30.34753  0.2785E-14  0.1435E-04  0.4781E-07  0.1287E-02  0.1987E-03  0.6329E+01
   -0.549989   30.34832  0.2785E-14  0.1459E-04  0.4653E-07  0.1367E-02  0.1860E-03  0.6244E+01
   -0.599990   30.34905  0.2785E-14  0.1480E-04  0.4544E-07  0.1440E-02  0.1746E-03  0.6239E+01
   -0.649991   30.34972  0.2785E-14  0.1498E-04  0.4452E-07  0.1506E-02  0.1642E-03  0.6313E+01
   -0.699992   30.35036  0.2785E-14  0.1513E-04  0.4374E-07  0.1564E-02  0.1546E-03  0.6444E+01
   -0.749993   30.35097  0.2785E-14  0.1525E-04  0.4308E-07  0.1615E-02  0.1457E-03  0.6649E+01
   -0.799995   30.35155  0.2785E-14  0.1535E-04  0.4252E-07  0.1658E-02  0.1375E-03  0.6910E+01
   -0.849996   30.35210  0.2785E-14  0.1543E-04  0.4207E-07  0.1694E-02  0.1298E-03  0.7256E+01
   -0.899998   30.35264  0.2785E-14  0.1549E-04  0.4171E-07  0.1722E-02  0.1226E-03  0.7668E+01
   -0.950000   30.35317  0.2785E-14  0.1552E-04  0.4144E-07  0.1742E-02  0.1158E-03  0.8192E+01
   -1.000001   30.35368  0.2785E-14  0.1554E-04  0.4126E-07  0.1754E-02  0.1094E-03  0.8808E+01
   -1.050003   30.35418  0.2785E-14  0.1554E-04  0.4118E-07  0.1757E-02  0.1033E-03  0.9959E+01
   -1.100005   30.35468  0.2785E-14  0.1551E-04  0.4120E-07  0.1836E-02  0.9748E-04  0.3325E+02
   -1.150006   30.35515  0.2785E-14  0.1547E-04  0.4134E-07  0.1686E-02  0.9228E-04  0.7270E+02
   -1.200008   30.35566  0.2785E-14  0.1540E-04  0.4160E-07  0.1707E-02  0.8694E-04  0.1415E+02
   -1.250009   30.35615  0.2785E-14  0.1531E-04  0.4201E-07  0.1678E-02  0.8182E-04  0.1500E+02
   -1.300011   30.35666  0.2785E-14  0.1519E-04  0.4261E-07  0.1632E-02  0.7688E-04  0.1744E+02
   -1.350012   30.35717  0.2785E-14  0.1504E-04  0.4344E-07  0.1576E-02  0.7211E-04  0.2065E+02
   -1.400013   30.35770  0.2785E-14  0.1486E-04  0.4456E-07  0.1504E-02  0.6746E-04  0.2523E+02
   -1.450014   30.35825  0.2785E-14  0.1464E-04  0.4609E-07  0.1429E-02  0.6291E-04  0.3168E+02
   -1.500014   30.35883  0.2785E-14  0.1438E-04  0.4822E-07  0.1322E-02  0.5844E-04  0.4214E+02
   -1.550015   30.35946  0.2785E-14  0.1405E-04  0.5121E-07  0.1236E-02  0.5398E-04  0.5849E+02
   -1.600015   30.36014  0.2785E-14  0.1366E-04  0.5569E-07  0.1096E-02  0.4960E-04  0.9920E+02
   -1.650015   30.36094  0.2785E-14  0.1316E-04  0.6254E-07  0.1016E-02  0.4499E-04  0.2464E+03
   -1.700014   30.36181  0.2785E-14  0.1248E-04  0.7488E-07  0.8343E-03  0.4052E-04 -0.1120E+04
   -1.750013   30.36332  0.2785E-14  0.1156E-04  0.9526E-07  0.7537E-03  0.3467E-04  0.1318E+06
   -1.800012   30.36466  0.2785E-14  0.1030E-04  0.1374E-06  0.5336E-03  0.2993E-04  0.4436E+06
   -1.850010   30.36939  0.2785E-14  0.8829E-05  0.2173E-06  0.4857E-03  0.2202E-04  0.2987E+08
   -1.900008   30.36924  0.2785E-14  0.7003E-05  0.4521E-06  0.2171E-03  0.1782E-04 -0.8555E+05
   -1.950006   30.38512  0.2785E-14  0.4831E-05  0.1151E-05  0.1751E-03  0.9829E-05 -0.1848E+07
   -2.000003   30.38769  0.2785E-14  0.0000E+00  0.0000E+00  0.0000E+00  0.1695E-04  0.0000E+00
