 1 - depth, m
 2 - temperature, C
 3 - salinity, kg/kg
 4 - turbulent kinetic energy, m**2/s**2
 5 - dissipation rate, m**2/s**3
 6 - kinematic heat conductance, m**2/s
 7 - modulus of horizontal velocity, m/s
 8 - Richardson number, n/d
   -0.000000   30.46311  0.1683E-14  0.4815E-05  0.2988E-06  0.5067E-04  0.1638E-02  0.6108E+04
   -0.049997   30.49316  0.1683E-14  0.8212E-05  0.1334E-06  0.1748E-03  0.9390E-03  0.1455E+04
   -0.099994   30.50495  0.1683E-14  0.9965E-05  0.9151E-07  0.3964E-03  0.6858E-03  0.1840E+02
   -0.149992   30.50820  0.1683E-14  0.1106E-04  0.7673E-07  0.4758E-03  0.6054E-03  0.8981E+01
   -0.199991   30.51079  0.1683E-14  0.1191E-04  0.6806E-07  0.6365E-03  0.5403E-03  0.5755E+01
   -0.249989   30.51267  0.1683E-14  0.1258E-04  0.6238E-07  0.7612E-03  0.4915E-03  0.4245E+01
   -0.299989   30.51420  0.1683E-14  0.1313E-04  0.5832E-07  0.8855E-03  0.4511E-03  0.3369E+01
   -0.349988   30.51547  0.1683E-14  0.1358E-04  0.5527E-07  0.9981E-03  0.4163E-03  0.2881E+01
   -0.399988   30.51658  0.1683E-14  0.1396E-04  0.5289E-07  0.1101E-02  0.3857E-03  0.2561E+01
   -0.449988   30.51756  0.1683E-14  0.1429E-04  0.5095E-07  0.1197E-02  0.3587E-03  0.2407E+01
   -0.499988   30.51844  0.1683E-14  0.1457E-04  0.4934E-07  0.1285E-02  0.3349E-03  0.2336E+01
   -0.549989   30.51925  0.1683E-14  0.1481E-04  0.4799E-07  0.1365E-02  0.3135E-03  0.2307E+01
   -0.599990   30.51999  0.1683E-14  0.1502E-04  0.4685E-07  0.1438E-02  0.2943E-03  0.2301E+01
   -0.649991   30.52069  0.1683E-14  0.1520E-04  0.4587E-07  0.1504E-02  0.2767E-03  0.2332E+01
   -0.699992   30.52134  0.1683E-14  0.1535E-04  0.4504E-07  0.1562E-02  0.2605E-03  0.2376E+01
   -0.749993   30.52196  0.1683E-14  0.1547E-04  0.4434E-07  0.1613E-02  0.2456E-03  0.2456E+01
   -0.799995   30.52256  0.1683E-14  0.1557E-04  0.4375E-07  0.1656E-02  0.2317E-03  0.2548E+01
   -0.849996   30.52313  0.1683E-14  0.1564E-04  0.4326E-07  0.1692E-02  0.2187E-03  0.2680E+01
   -0.899998   30.52368  0.1683E-14  0.1569E-04  0.4287E-07  0.1719E-02  0.2066E-03  0.2828E+01
   -0.950000   30.52421  0.1683E-14  0.1573E-04  0.4258E-07  0.1739E-02  0.1951E-03  0.3027E+01
   -1.000001   30.52473  0.1683E-14  0.1574E-04  0.4238E-07  0.1750E-02  0.1843E-03  0.3250E+01
   -1.050003   30.52525  0.1683E-14  0.1573E-04  0.4229E-07  0.1752E-02  0.1740E-03  0.3680E+01
   -1.100005   30.52576  0.1683E-14  0.1569E-04  0.4230E-07  0.1836E-02  0.1643E-03  0.1219E+02
   -1.150006   30.52624  0.1683E-14  0.1564E-04  0.4243E-07  0.1674E-02  0.1555E-03  0.2725E+02
   -1.200008   30.52676  0.1683E-14  0.1556E-04  0.4269E-07  0.1698E-02  0.1465E-03  0.5259E+01
   -1.250010   30.52727  0.1683E-14  0.1546E-04  0.4311E-07  0.1669E-02  0.1378E-03  0.5568E+01
   -1.300011   30.52779  0.1683E-14  0.1533E-04  0.4372E-07  0.1621E-02  0.1295E-03  0.6497E+01
   -1.350012   30.52831  0.1683E-14  0.1517E-04  0.4458E-07  0.1564E-02  0.1215E-03  0.7714E+01
   -1.400013   30.52886  0.1683E-14  0.1498E-04  0.4576E-07  0.1488E-02  0.1136E-03  0.9488E+01
   -1.450014   30.52942  0.1683E-14  0.1474E-04  0.4737E-07  0.1412E-02  0.1059E-03  0.1196E+02
   -1.500015   30.53002  0.1683E-14  0.1446E-04  0.4962E-07  0.1301E-02  0.9836E-04  0.1612E+02
   -1.550015   30.53067  0.1683E-14  0.1411E-04  0.5281E-07  0.1219E-02  0.9079E-04  0.2253E+02
   -1.600015   30.53136  0.1683E-14  0.1369E-04  0.5770E-07  0.1073E-02  0.8339E-04  0.4117E+02
   -1.650015   30.53220  0.1683E-14  0.1315E-04  0.6523E-07  0.9968E-03  0.7547E-04  0.1338E+03
   -1.700014   30.53312  0.1683E-14  0.1241E-04  0.7887E-07  0.8117E-03  0.6786E-04 -0.2231E+03
   -1.750013   30.53479  0.1683E-14  0.1142E-04  0.1015E-06  0.7357E-03  0.5763E-04  0.6219E+05
   -1.800012   30.53617  0.1683E-14  0.1008E-04  0.1489E-06  0.5120E-03  0.4958E-04  0.8491E+05
   -1.850010   30.54163  0.1683E-14  0.8549E-05  0.2383E-06  0.4700E-03  0.3575E-04  0.7024E+07
   -1.900008   30.54087  0.1683E-14  0.6729E-05  0.4992E-06  0.2101E-03  0.2898E-04  0.1417E+06
   -1.950006   30.55821  0.1683E-14  0.4676E-05  0.1248E-05  0.1858E-03  0.1556E-04 -0.4633E+07
   -2.000003   30.55952  0.1683E-14  0.0000E+00  0.0000E+00  0.0000E+00  0.2834E-04  0.0000E+00
