 1 - depth, m
 2 - temperature, C
 3 - salinity, kg/kg
 4 - turbulent kinetic energy, m**2/s**2
 5 - dissipation rate, m**2/s**3
 6 - kinematic heat conductance, m**2/s
 7 - modulus of horizontal velocity, m/s
 8 - Richardson number, n/d
   -0.000000   29.66326  0.1042E-14  0.4241E-05  0.2406E-06  0.4480E-04  0.4574E-03  0.1265E+06
   -0.049997   29.69224  0.1042E-14  0.7581E-05  0.1069E-06  0.1825E-03  0.2512E-03  0.4376E+03
   -0.099994   29.70144  0.1042E-14  0.9124E-05  0.7509E-07  0.3991E-03  0.1846E-03  0.2646E+03
   -0.149992   29.70421  0.1042E-14  0.1010E-04  0.6374E-07  0.4793E-03  0.1633E-03  0.1311E+03
   -0.199991   29.70643  0.1042E-14  0.1086E-04  0.5699E-07  0.6326E-03  0.1459E-03  0.8707E+02
   -0.249989   29.70806  0.1042E-14  0.1147E-04  0.5251E-07  0.7541E-03  0.1328E-03  0.6523E+02
   -0.299989   29.70940  0.1042E-14  0.1196E-04  0.4929E-07  0.8727E-03  0.1219E-03  0.5247E+02
   -0.349988   29.71052  0.1042E-14  0.1238E-04  0.4687E-07  0.9808E-03  0.1125E-03  0.4522E+02
   -0.399988   29.71150  0.1042E-14  0.1273E-04  0.4498E-07  0.1080E-02  0.1041E-03  0.4052E+02
   -0.449988   29.71238  0.1042E-14  0.1303E-04  0.4345E-07  0.1171E-02  0.9679E-04  0.3824E+02
   -0.499988   29.71317  0.1042E-14  0.1330E-04  0.4217E-07  0.1255E-02  0.9029E-04  0.3735E+02
   -0.549989   29.71389  0.1042E-14  0.1353E-04  0.4111E-07  0.1333E-02  0.8446E-04  0.3701E+02
   -0.599990   29.71456  0.1042E-14  0.1373E-04  0.4022E-07  0.1403E-02  0.7920E-04  0.3715E+02
   -0.649991   29.71519  0.1042E-14  0.1390E-04  0.3947E-07  0.1466E-02  0.7440E-04  0.3777E+02
   -0.699992   29.71578  0.1042E-14  0.1404E-04  0.3883E-07  0.1521E-02  0.6999E-04  0.3875E+02
   -0.749993   29.71634  0.1042E-14  0.1417E-04  0.3830E-07  0.1570E-02  0.6591E-04  0.4018E+02
   -0.799995   29.71688  0.1042E-14  0.1427E-04  0.3787E-07  0.1611E-02  0.6213E-04  0.4199E+02
   -0.849996   29.71740  0.1042E-14  0.1435E-04  0.3753E-07  0.1645E-02  0.5859E-04  0.4431E+02
   -0.899998   29.71791  0.1042E-14  0.1442E-04  0.3726E-07  0.1672E-02  0.5528E-04  0.4712E+02
   -0.950000   29.71840  0.1042E-14  0.1446E-04  0.3708E-07  0.1690E-02  0.5216E-04  0.5061E+02
   -1.000002   29.71888  0.1042E-14  0.1448E-04  0.3699E-07  0.1702E-02  0.4922E-04  0.5478E+02
   -1.050003   29.71936  0.1042E-14  0.1449E-04  0.3698E-07  0.1704E-02  0.4642E-04  0.6236E+02
   -1.100005   29.71983  0.1042E-14  0.1447E-04  0.3706E-07  0.1780E-02  0.4376E-04  0.2090E+03
   -1.150007   29.72028  0.1042E-14  0.1444E-04  0.3725E-07  0.1635E-02  0.4138E-04  0.4635E+03
   -1.200008   29.72077  0.1042E-14  0.1439E-04  0.3755E-07  0.1653E-02  0.3894E-04  0.9027E+02
   -1.250010   29.72125  0.1042E-14  0.1431E-04  0.3798E-07  0.1624E-02  0.3660E-04  0.9657E+02
   -1.300011   29.72173  0.1042E-14  0.1421E-04  0.3859E-07  0.1579E-02  0.3434E-04  0.1131E+03
   -1.350012   29.72223  0.1042E-14  0.1408E-04  0.3941E-07  0.1523E-02  0.3216E-04  0.1353E+03
   -1.400013   29.72274  0.1042E-14  0.1392E-04  0.4051E-07  0.1452E-02  0.3004E-04  0.1667E+03
   -1.450014   29.72328  0.1042E-14  0.1372E-04  0.4198E-07  0.1378E-02  0.2797E-04  0.2116E+03
   -1.500015   29.72385  0.1042E-14  0.1348E-04  0.4400E-07  0.1273E-02  0.2593E-04  0.2851E+03
   -1.550015   29.72447  0.1042E-14  0.1318E-04  0.4683E-07  0.1192E-02  0.2390E-04  0.4009E+03
   -1.600015   29.72514  0.1042E-14  0.1282E-04  0.5106E-07  0.1052E-02  0.2191E-04  0.7029E+03
   -1.650015   29.72593  0.1042E-14  0.1235E-04  0.5750E-07  0.9776E-03  0.1982E-04  0.9831E+05
   -1.700015   29.72681  0.1042E-14  0.1170E-04  0.6927E-07  0.7963E-03  0.1780E-04 -0.6068E+04
   -1.750014   29.72836  0.1042E-14  0.1082E-04  0.8860E-07  0.7207E-03  0.1512E-04  0.4425E+06
   -1.800013   29.72973  0.1042E-14  0.9611E-05  0.1282E-06  0.5045E-03  0.1297E-04  0.2740E+06
   -1.850011   29.73478  0.1042E-14  0.8199E-05  0.2038E-06  0.4610E-03  0.9357E-05  0.3125E+08
   -1.900009   29.73422  0.1042E-14  0.6525E-05  0.4233E-06  0.2073E-03  0.7569E-05  0.1964E+06
   -1.950006   29.75061  0.1042E-14  0.4494E-05  0.1081E-05  0.1716E-03  0.4088E-05 -0.4004E+07
   -2.000003   29.75330  0.1042E-14  0.0000E+00  0.0000E+00  0.0000E+00  0.7274E-05  0.0000E+00
