 1 - depth, m
 2 - temperature, C
 3 - salinity, kg/kg
 4 - turbulent kinetic energy, m**2/s**2
 5 - dissipation rate, m**2/s**3
 6 - kinematic heat conductance, m**2/s
 7 - modulus of horizontal velocity, m/s
 8 - Richardson number, n/d
   -0.000000   29.72697  0.1272E-14  0.4354E-05  0.2555E-06  0.4678E-04  0.6214E-03  0.8413E+05
   -0.049997   29.75545  0.1272E-14  0.7723E-05  0.1132E-06  0.1790E-03  0.3459E-03  0.7422E+02
   -0.099994   29.76556  0.1272E-14  0.9348E-05  0.7882E-07  0.4038E-03  0.2533E-03  0.1251E+03
   -0.149992   29.76838  0.1272E-14  0.1037E-04  0.6674E-07  0.4819E-03  0.2241E-03  0.6137E+02
   -0.199991   29.77065  0.1272E-14  0.1116E-04  0.5961E-07  0.6403E-03  0.2004E-03  0.4029E+02
   -0.249989   29.77231  0.1272E-14  0.1180E-04  0.5492E-07  0.7638E-03  0.1825E-03  0.3002E+02
   -0.299989   29.77367  0.1272E-14  0.1233E-04  0.5157E-07  0.8857E-03  0.1676E-03  0.2413E+02
   -0.349988   29.77482  0.1272E-14  0.1277E-04  0.4907E-07  0.9965E-03  0.1548E-03  0.2072E+02
   -0.399988   29.77582  0.1272E-14  0.1314E-04  0.4713E-07  0.1098E-02  0.1434E-03  0.1858E+02
   -0.449988   29.77671  0.1272E-14  0.1347E-04  0.4556E-07  0.1192E-02  0.1334E-03  0.1746E+02
   -0.499988   29.77752  0.1272E-14  0.1375E-04  0.4427E-07  0.1279E-02  0.1246E-03  0.1707E+02
   -0.549989   29.77826  0.1272E-14  0.1400E-04  0.4320E-07  0.1358E-02  0.1166E-03  0.1684E+02
   -0.599990   29.77894  0.1272E-14  0.1422E-04  0.4231E-07  0.1430E-02  0.1095E-03  0.1694E+02
   -0.649991   29.77959  0.1272E-14  0.1441E-04  0.4157E-07  0.1495E-02  0.1029E-03  0.1715E+02
   -0.699992   29.78020  0.1272E-14  0.1457E-04  0.4095E-07  0.1552E-02  0.9692E-04  0.1764E+02
   -0.749993   29.78077  0.1272E-14  0.1471E-04  0.4045E-07  0.1602E-02  0.9137E-04  0.1822E+02
   -0.799995   29.78133  0.1272E-14  0.1483E-04  0.4005E-07  0.1645E-02  0.8620E-04  0.1910E+02
   -0.849996   29.78187  0.1272E-14  0.1493E-04  0.3974E-07  0.1680E-02  0.8138E-04  0.2009E+02
   -0.899998   29.78239  0.1272E-14  0.1501E-04  0.3953E-07  0.1707E-02  0.7685E-04  0.2143E+02
   -0.950000   29.78290  0.1272E-14  0.1507E-04  0.3940E-07  0.1727E-02  0.7259E-04  0.2293E+02
   -1.000002   29.78340  0.1272E-14  0.1511E-04  0.3936E-07  0.1738E-02  0.6855E-04  0.2490E+02
   -1.050003   29.78390  0.1272E-14  0.1513E-04  0.3941E-07  0.1741E-02  0.6473E-04  0.2824E+02
   -1.100005   29.78440  0.1272E-14  0.1513E-04  0.3957E-07  0.1818E-02  0.6107E-04  0.9530E+02
   -1.150007   29.78487  0.1272E-14  0.1511E-04  0.3984E-07  0.1672E-02  0.5781E-04  0.2079E+03
   -1.200008   29.78538  0.1272E-14  0.1507E-04  0.4023E-07  0.1690E-02  0.5445E-04  0.4069E+02
   -1.250010   29.78589  0.1272E-14  0.1500E-04  0.4077E-07  0.1660E-02  0.5122E-04  0.4377E+02
   -1.300011   29.78640  0.1272E-14  0.1491E-04  0.4149E-07  0.1614E-02  0.4813E-04  0.5097E+02
   -1.350012   29.78693  0.1272E-14  0.1479E-04  0.4245E-07  0.1558E-02  0.4511E-04  0.6110E+02
   -1.400013   29.78748  0.1272E-14  0.1464E-04  0.4370E-07  0.1486E-02  0.4219E-04  0.7475E+02
   -1.450014   29.78806  0.1272E-14  0.1445E-04  0.4537E-07  0.1410E-02  0.3932E-04  0.9491E+02
   -1.500015   29.78867  0.1272E-14  0.1421E-04  0.4762E-07  0.1304E-02  0.3651E-04  0.1265E+03
   -1.550015   29.78934  0.1272E-14  0.1391E-04  0.5074E-07  0.1218E-02  0.3369E-04  0.1772E+03
   -1.600015   29.79006  0.1272E-14  0.1355E-04  0.5535E-07  0.1078E-02  0.3093E-04  0.3038E+03
   -1.650015   29.79092  0.1272E-14  0.1307E-04  0.6234E-07  0.9961E-03  0.2802E-04 -0.6490E+03
   -1.700015   29.79188  0.1272E-14  0.1242E-04  0.7472E-07  0.8181E-03  0.2520E-04 -0.1211E+04
   -1.750014   29.79349  0.1272E-14  0.1153E-04  0.9529E-07  0.7362E-03  0.2155E-04  0.2284E+06
   -1.800012   29.79504  0.1272E-14  0.1029E-04  0.1383E-06  0.5213E-03  0.1850E-04  0.1723E+06
   -1.850011   29.80022  0.1272E-14  0.8823E-05  0.2174E-06  0.4714E-03  0.1353E-04  0.2732E+10
   -1.900009   29.80002  0.1272E-14  0.7006E-05  0.4452E-06  0.2135E-03  0.1094E-04  0.4181E+06
   -1.950006   29.81799  0.1272E-14  0.4850E-05  0.1143E-05  0.1729E-03  0.5974E-05 -0.1441E+07
   -2.000003   29.82096  0.1272E-14  0.0000E+00  0.0000E+00  0.0000E+00  0.1039E-04  0.0000E+00
