 1 - depth, m
 2 - temperature, C
 3 - salinity, kg/kg
 4 - turbulent kinetic energy, m**2/s**2
 5 - dissipation rate, m**2/s**3
 6 - kinematic heat conductance, m**2/s
 7 - modulus of horizontal velocity, m/s
 8 - Richardson number, n/d
   -0.000000   30.80898  0.2188E-13  0.4796E-05  0.2989E-06  0.4999E-04  0.1179E-02  0.9015E+04
   -0.049997   30.83923  0.2188E-13  0.8293E-05  0.1328E-06  0.1794E-03  0.6692E-03  0.5311E+02
   -0.099994   30.85076  0.2188E-13  0.1006E-04  0.9152E-07  0.4047E-03  0.4896E-03  0.4624E+02
   -0.149992   30.85391  0.2188E-13  0.1117E-04  0.7695E-07  0.4845E-03  0.4325E-03  0.2270E+02
   -0.199991   30.85643  0.2188E-13  0.1203E-04  0.6840E-07  0.6477E-03  0.3862E-03  0.1467E+02
   -0.249989   30.85826  0.2188E-13  0.1272E-04  0.6280E-07  0.7734E-03  0.3516E-03  0.1093E+02
   -0.299988   30.85976  0.2188E-13  0.1328E-04  0.5882E-07  0.8992E-03  0.3228E-03  0.8712E+01
   -0.349988   30.86101  0.2188E-13  0.1375E-04  0.5584E-07  0.1013E-02  0.2981E-03  0.7509E+01
   -0.399988   30.86210  0.2188E-13  0.1414E-04  0.5353E-07  0.1117E-02  0.2763E-03  0.6678E+01
   -0.449988   30.86307  0.2188E-13  0.1448E-04  0.5165E-07  0.1214E-02  0.2571E-03  0.6313E+01
   -0.499988   30.86394  0.2188E-13  0.1478E-04  0.5010E-07  0.1302E-02  0.2401E-03  0.6113E+01
   -0.549989   30.86474  0.2188E-13  0.1504E-04  0.4882E-07  0.1383E-02  0.2249E-03  0.6077E+01
   -0.599989   30.86548  0.2188E-13  0.1526E-04  0.4774E-07  0.1457E-02  0.2112E-03  0.6050E+01
   -0.649990   30.86617  0.2188E-13  0.1545E-04  0.4683E-07  0.1523E-02  0.1986E-03  0.6176E+01
   -0.699992   30.86682  0.2188E-13  0.1561E-04  0.4608E-07  0.1581E-02  0.1871E-03  0.6283E+01
   -0.749993   30.86744  0.2188E-13  0.1575E-04  0.4545E-07  0.1632E-02  0.1764E-03  0.6550E+01
   -0.799994   30.86803  0.2188E-13  0.1586E-04  0.4494E-07  0.1675E-02  0.1665E-03  0.6788E+01
   -0.849996   30.86861  0.2188E-13  0.1596E-04  0.4454E-07  0.1710E-02  0.1573E-03  0.7208E+01
   -0.899998   30.86916  0.2188E-13  0.1602E-04  0.4424E-07  0.1737E-02  0.1486E-03  0.7602E+01
   -0.949999   30.86971  0.2188E-13  0.1607E-04  0.4405E-07  0.1755E-02  0.1404E-03  0.8222E+01
   -1.000001   30.87024  0.2188E-13  0.1610E-04  0.4396E-07  0.1765E-02  0.1327E-03  0.8829E+01
   -1.050003   30.87077  0.2188E-13  0.1610E-04  0.4398E-07  0.1766E-02  0.1253E-03  0.1012E+02
   -1.100004   30.87129  0.2188E-13  0.1609E-04  0.4411E-07  0.1855E-02  0.1183E-03  0.3336E+02
   -1.150006   30.87179  0.2188E-13  0.1605E-04  0.4439E-07  0.1679E-02  0.1121E-03  0.7555E+02
   -1.200008   30.87233  0.2188E-13  0.1598E-04  0.4479E-07  0.1705E-02  0.1055E-03  0.1471E+02
   -1.250009   30.87287  0.2188E-13  0.1589E-04  0.4538E-07  0.1674E-02  0.9934E-04  0.1563E+02
   -1.300010   30.87341  0.2188E-13  0.1577E-04  0.4619E-07  0.1624E-02  0.9333E-04  0.1850E+02
   -1.350012   30.87397  0.2188E-13  0.1562E-04  0.4727E-07  0.1563E-02  0.8754E-04  0.2203E+02
   -1.400013   30.87456  0.2188E-13  0.1543E-04  0.4872E-07  0.1486E-02  0.8186E-04  0.2752E+02
   -1.450013   30.87517  0.2188E-13  0.1520E-04  0.5068E-07  0.1406E-02  0.7632E-04  0.3495E+02
   -1.500014   30.87582  0.2188E-13  0.1491E-04  0.5339E-07  0.1296E-02  0.7084E-04  0.4792E+02
   -1.550014   30.87654  0.2188E-13  0.1456E-04  0.5723E-07  0.1208E-02  0.6535E-04  0.6847E+02
   -1.600014   30.87732  0.2188E-13  0.1412E-04  0.6306E-07  0.1069E-02  0.5993E-04  0.1363E+03
   -1.650014   30.87827  0.2188E-13  0.1354E-04  0.7222E-07  0.9800E-03  0.5417E-04  0.3677E+04
   -1.700014   30.87940  0.2188E-13  0.1275E-04  0.8826E-07  0.8083E-03  0.4828E-04 -0.1475E+05
   -1.750013   30.88127  0.2188E-13  0.1172E-04  0.1142E-06  0.7208E-03  0.4085E-04  0.2417E+06
   -1.800011   30.88292  0.2188E-13  0.1034E-04  0.1697E-06  0.5109E-03  0.3498E-04  0.5786E+06
   -1.850010   30.88955  0.2188E-13  0.8801E-05  0.2739E-06  0.4622E-03  0.2490E-04  0.2875E+08
   -1.900008   30.88819  0.2188E-13  0.6975E-05  0.5770E-06  0.2110E-03  0.2025E-04  0.1179E+06
   -1.950005   30.90872  0.2188E-13  0.4903E-05  0.1423E-05  0.1914E-03  0.1087E-04 -0.2426E+07
   -2.000002   30.91027  0.2188E-13  0.0000E+00  0.0000E+00  0.0000E+00  0.2032E-04  0.0000E+00
