 1 - depth, m
 2 - temperature, C
 3 - salinity, kg/kg
 4 - turbulent kinetic energy, m**2/s**2
 5 - dissipation rate, m**2/s**3
 6 - kinematic heat conductance, m**2/s
 7 - modulus of horizontal velocity, m/s
 8 - Richardson number, n/d
   -0.000000   29.68900  0.2302E-13  0.4310E-05  0.2518E-06  0.4797E-04  0.1436E-02  0.6618E+04
   -0.049997   29.71573  0.2302E-13  0.7439E-05  0.1121E-06  0.1691E-03  0.8160E-03  0.1314E+04
   -0.099994   29.72613  0.2302E-13  0.9034E-05  0.7720E-07  0.3868E-03  0.5927E-03  0.2153E+02
   -0.149992   29.72897  0.2302E-13  0.1003E-04  0.6500E-07  0.4648E-03  0.5230E-03  0.1043E+02
   -0.199991   29.73124  0.2302E-13  0.1080E-04  0.5784E-07  0.6191E-03  0.4664E-03  0.6741E+01
   -0.249989   29.73290  0.2302E-13  0.1142E-04  0.5315E-07  0.7401E-03  0.4240E-03  0.4985E+01
   -0.299989   29.73426  0.2302E-13  0.1193E-04  0.4981E-07  0.8597E-03  0.3887E-03  0.3979E+01
   -0.349988   29.73540  0.2302E-13  0.1236E-04  0.4732E-07  0.9685E-03  0.3584E-03  0.3412E+01
   -0.399988   29.73639  0.2302E-13  0.1272E-04  0.4538E-07  0.1068E-02  0.3316E-03  0.3048E+01
   -0.449988   29.73727  0.2302E-13  0.1303E-04  0.4381E-07  0.1161E-02  0.3081E-03  0.2869E+01
   -0.499988   29.73806  0.2302E-13  0.1330E-04  0.4252E-07  0.1246E-02  0.2873E-03  0.2798E+01
   -0.549989   29.73879  0.2302E-13  0.1354E-04  0.4145E-07  0.1324E-02  0.2687E-03  0.2768E+01
   -0.599990   29.73947  0.2302E-13  0.1374E-04  0.4055E-07  0.1395E-02  0.2519E-03  0.2777E+01
   -0.649991   29.74010  0.2302E-13  0.1392E-04  0.3980E-07  0.1458E-02  0.2365E-03  0.2820E+01
   -0.699992   29.74070  0.2302E-13  0.1408E-04  0.3917E-07  0.1515E-02  0.2225E-03  0.2893E+01
   -0.749993   29.74126  0.2302E-13  0.1421E-04  0.3865E-07  0.1564E-02  0.2095E-03  0.2997E+01
   -0.799995   29.74181  0.2302E-13  0.1432E-04  0.3823E-07  0.1606E-02  0.1975E-03  0.3133E+01
   -0.849996   29.74233  0.2302E-13  0.1441E-04  0.3790E-07  0.1641E-02  0.1862E-03  0.3305E+01
   -0.899998   29.74284  0.2302E-13  0.1448E-04  0.3766E-07  0.1668E-02  0.1757E-03  0.3516E+01
   -0.950000   29.74334  0.2302E-13  0.1453E-04  0.3750E-07  0.1687E-02  0.1658E-03  0.3775E+01
   -1.000002   29.74383  0.2302E-13  0.1456E-04  0.3743E-07  0.1699E-02  0.1564E-03  0.4088E+01
   -1.050003   29.74431  0.2302E-13  0.1457E-04  0.3745E-07  0.1701E-02  0.1475E-03  0.4653E+01
   -1.100005   29.74479  0.2302E-13  0.1457E-04  0.3756E-07  0.1776E-02  0.1391E-03  0.1561E+02
   -1.150007   29.74525  0.2302E-13  0.1454E-04  0.3778E-07  0.1636E-02  0.1315E-03  0.3449E+02
   -1.200008   29.74574  0.2302E-13  0.1449E-04  0.3811E-07  0.1652E-02  0.1237E-03  0.6731E+01
   -1.250010   29.74623  0.2302E-13  0.1442E-04  0.3859E-07  0.1623E-02  0.1163E-03  0.7206E+01
   -1.300011   29.74672  0.2302E-13  0.1433E-04  0.3924E-07  0.1578E-02  0.1091E-03  0.8434E+01
   -1.350012   29.74723  0.2302E-13  0.1421E-04  0.4011E-07  0.1523E-02  0.1022E-03  0.1008E+02
   -1.400013   29.74776  0.2302E-13  0.1405E-04  0.4126E-07  0.1452E-02  0.9549E-04  0.1241E+02
   -1.450014   29.74831  0.2302E-13  0.1386E-04  0.4280E-07  0.1378E-02  0.8890E-04  0.1573E+02
   -1.500015   29.74890  0.2302E-13  0.1363E-04  0.4489E-07  0.1274E-02  0.8244E-04  0.2108E+02
   -1.550015   29.74954  0.2302E-13  0.1334E-04  0.4780E-07  0.1189E-02  0.7600E-04  0.2956E+02
   -1.600015   29.75023  0.2302E-13  0.1297E-04  0.5212E-07  0.1053E-02  0.6967E-04  0.4906E+02
   -1.650015   29.75104  0.2302E-13  0.1251E-04  0.5871E-07  0.9709E-03  0.6306E-04  0.9181E+03
   -1.700015   29.75196  0.2302E-13  0.1187E-04  0.7051E-07  0.7997E-03  0.5658E-04  0.9051E+02
   -1.750014   29.75351  0.2302E-13  0.1099E-04  0.9012E-07  0.7172E-03  0.4829E-04  0.1970E+05
   -1.800012   29.75501  0.2302E-13  0.9773E-05  0.1296E-06  0.5048E-03  0.4132E-04  0.1870E+06
   -1.850011   29.75994  0.2302E-13  0.8336E-05  0.2047E-06  0.4548E-03  0.3012E-04  0.9599E+07
   -1.900009   29.75978  0.2302E-13  0.6608E-05  0.4233E-06  0.2059E-03  0.2420E-04  0.1968E+07
   -1.950006   29.77682  0.2302E-13  0.4563E-05  0.1086E-05  0.1703E-03  0.1317E-04 -0.1021E+07
   -2.000003   29.77963  0.2302E-13  0.0000E+00  0.0000E+00  0.0000E+00  0.2311E-04  0.0000E+00
