 1 - depth, m
 2 - temperature, C
 3 - salinity, kg/kg
 4 - turbulent kinetic energy, m**2/s**2
 5 - dissipation rate, m**2/s**3
 6 - kinematic heat conductance, m**2/s
 7 - modulus of horizontal velocity, m/s
 8 - Richardson number, n/d
   -0.000000   29.73084  0.1371E-13  0.4352E-05  0.2549E-06  0.4663E-04  0.6217E-03  0.6227E+05
   -0.049997   29.75938  0.1371E-13  0.7720E-05  0.1129E-06  0.1796E-03  0.3452E-03  0.7892E+02
   -0.099994   29.76943  0.1371E-13  0.9341E-05  0.7870E-07  0.4033E-03  0.2532E-03  0.1248E+03
   -0.149992   29.77224  0.1371E-13  0.1036E-04  0.6664E-07  0.4822E-03  0.2240E-03  0.6122E+02
   -0.199991   29.77450  0.1371E-13  0.1116E-04  0.5951E-07  0.6404E-03  0.2002E-03  0.4019E+02
   -0.249989   29.77616  0.1371E-13  0.1179E-04  0.5482E-07  0.7639E-03  0.1824E-03  0.2994E+02
   -0.299989   29.77752  0.1371E-13  0.1232E-04  0.5148E-07  0.8860E-03  0.1674E-03  0.2406E+02
   -0.349988   29.77867  0.1371E-13  0.1276E-04  0.4898E-07  0.9968E-03  0.1546E-03  0.2065E+02
   -0.399988   29.77967  0.1371E-13  0.1313E-04  0.4704E-07  0.1098E-02  0.1433E-03  0.1852E+02
   -0.449988   29.78056  0.1371E-13  0.1346E-04  0.4547E-07  0.1193E-02  0.1333E-03  0.1740E+02
   -0.499988   29.78136  0.1371E-13  0.1374E-04  0.4418E-07  0.1279E-02  0.1245E-03  0.1700E+02
   -0.549989   29.78210  0.1371E-13  0.1399E-04  0.4311E-07  0.1359E-02  0.1165E-03  0.1677E+02
   -0.599990   29.78278  0.1371E-13  0.1421E-04  0.4222E-07  0.1431E-02  0.1094E-03  0.1686E+02
   -0.649991   29.78342  0.1371E-13  0.1440E-04  0.4147E-07  0.1496E-02  0.1028E-03  0.1707E+02
   -0.699992   29.78403  0.1371E-13  0.1456E-04  0.4086E-07  0.1554E-02  0.9683E-04  0.1755E+02
   -0.749993   29.78461  0.1371E-13  0.1471E-04  0.4036E-07  0.1604E-02  0.9129E-04  0.1812E+02
   -0.799995   29.78516  0.1371E-13  0.1483E-04  0.3995E-07  0.1647E-02  0.8612E-04  0.1899E+02
   -0.849996   29.78570  0.1371E-13  0.1493E-04  0.3964E-07  0.1683E-02  0.8131E-04  0.1996E+02
   -0.899998   29.78622  0.1371E-13  0.1500E-04  0.3942E-07  0.1711E-02  0.7678E-04  0.2127E+02
   -0.950000   29.78672  0.1371E-13  0.1506E-04  0.3929E-07  0.1730E-02  0.7252E-04  0.2275E+02
   -1.000002   29.78722  0.1371E-13  0.1511E-04  0.3925E-07  0.1742E-02  0.6849E-04  0.2469E+02
   -1.050003   29.78772  0.1371E-13  0.1513E-04  0.3930E-07  0.1745E-02  0.6467E-04  0.2799E+02
   -1.100005   29.78821  0.1371E-13  0.1513E-04  0.3945E-07  0.1821E-02  0.6102E-04  0.9467E+02
   -1.150007   29.78868  0.1371E-13  0.1511E-04  0.3971E-07  0.1680E-02  0.5776E-04  0.2042E+03
   -1.200008   29.78919  0.1371E-13  0.1507E-04  0.4009E-07  0.1696E-02  0.5441E-04  0.4016E+02
   -1.250010   29.78969  0.1371E-13  0.1501E-04  0.4062E-07  0.1667E-02  0.5119E-04  0.4315E+02
   -1.300011   29.79020  0.1371E-13  0.1492E-04  0.4133E-07  0.1622E-02  0.4810E-04  0.5020E+02
   -1.350012   29.79073  0.1371E-13  0.1480E-04  0.4226E-07  0.1567E-02  0.4509E-04  0.5995E+02
   -1.400013   29.79127  0.1371E-13  0.1465E-04  0.4348E-07  0.1495E-02  0.4218E-04  0.7320E+02
   -1.450014   29.79184  0.1371E-13  0.1447E-04  0.4510E-07  0.1420E-02  0.3932E-04  0.9242E+02
   -1.500015   29.79245  0.1371E-13  0.1424E-04  0.4729E-07  0.1316E-02  0.3652E-04  0.1225E+03
   -1.550015   29.79311  0.1371E-13  0.1395E-04  0.5031E-07  0.1229E-02  0.3372E-04  0.1699E+03
   -1.600015   29.79382  0.1371E-13  0.1359E-04  0.5475E-07  0.1089E-02  0.3098E-04  0.2821E+03
   -1.650015   29.79466  0.1371E-13  0.1314E-04  0.6141E-07  0.1006E-02  0.2809E-04  0.5404E+03
   -1.700015   29.79559  0.1371E-13  0.1252E-04  0.7309E-07  0.8324E-03  0.2530E-04  0.2097E+05
   -1.750014   29.79711  0.1371E-13  0.1166E-04  0.9256E-07  0.7455E-03  0.2176E-04  0.1383E+07
   -1.800012   29.79862  0.1371E-13  0.1044E-04  0.1318E-06  0.5371E-03  0.1871E-04  0.5198E+06
   -1.850011   29.80331  0.1371E-13  0.8983E-05  0.2060E-06  0.4756E-03  0.1387E-04  0.1081E+08
   -1.900009   29.80361  0.1371E-13  0.7111E-05  0.4226E-06  0.2119E-03  0.1114E-04  0.1334E+07
   -1.950006   29.82068  0.1371E-13  0.4920E-05  0.1094E-05  0.1684E-03  0.6123E-05 -0.3406E+07
   -2.000003   29.82460  0.1371E-13  0.0000E+00  0.0000E+00  0.0000E+00  0.1042E-04  0.0000E+00
