 1 - depth, m
 2 - temperature, C
 3 - salinity, kg/kg
 4 - turbulent kinetic energy, m**2/s**2
 5 - dissipation rate, m**2/s**3
 6 - kinematic heat conductance, m**2/s
 7 - modulus of horizontal velocity, m/s
 8 - Richardson number, n/d
   -0.000000   30.60982  0.6730E-14  0.5840E-05  0.3252E-06  0.5613E-04  0.4160E-02  0.2396E+03
   -0.049997   30.64005  0.6730E-14  0.9190E-05  0.1389E-06  0.2136E-03  0.2236E-02  0.1953E+04
   -0.099994   30.64883  0.6730E-14  0.1068E-04  0.1001E-06  0.3902E-03  0.1803E-02  0.3295E+01
   -0.149992   30.65229  0.6730E-14  0.1169E-04  0.8478E-07  0.4861E-03  0.1619E-02  0.1778E+01
   -0.199991   30.65495  0.6730E-14  0.1250E-04  0.7582E-07  0.6083E-03  0.1474E-02  0.1306E+01
   -0.249989   30.65701  0.6730E-14  0.1321E-04  0.6969E-07  0.7178E-03  0.1358E-02  0.1285E+01
   -0.299988   30.65871  0.6730E-14  0.1386E-04  0.6491E-07  0.8498E-03  0.1249E-02  0.1378E+01
   -0.349988   30.66011  0.6730E-14  0.1449E-04  0.6098E-07  0.9983E-03  0.1142E-02  0.1475E+01
   -0.399988   30.66128  0.6730E-14  0.1506E-04  0.5773E-07  0.1153E-02  0.1037E-02  0.1498E+01
   -0.449988   30.66226  0.6730E-14  0.1558E-04  0.5504E-07  0.1304E-02  0.9410E-03  0.1499E+01
   -0.499988   30.66311  0.6730E-14  0.1603E-04  0.5283E-07  0.1444E-02  0.8546E-03  0.1494E+01
   -0.549989   30.66387  0.6730E-14  0.1641E-04  0.5103E-07  0.1572E-02  0.7778E-03  0.1479E+01
   -0.599989   30.66455  0.6730E-14  0.1672E-04  0.4956E-07  0.1685E-02  0.7094E-03  0.1460E+01
   -0.649990   30.66518  0.6730E-14  0.1698E-04  0.4838E-07  0.1782E-02  0.6485E-03  0.1436E+01
   -0.699992   30.66576  0.6730E-14  0.1717E-04  0.4745E-07  0.1862E-02  0.5943E-03  0.1409E+01
   -0.749993   30.66632  0.6730E-14  0.1732E-04  0.4673E-07  0.1924E-02  0.5460E-03  0.1379E+01
   -0.799994   30.66684  0.6730E-14  0.1741E-04  0.4619E-07  0.1967E-02  0.5030E-03  0.1347E+01
   -0.849996   30.66735  0.6730E-14  0.1747E-04  0.4583E-07  0.1995E-02  0.4646E-03  0.1311E+01
   -0.899998   30.66784  0.6730E-14  0.1748E-04  0.4563E-07  0.2006E-02  0.4304E-03  0.1273E+01
   -0.949999   30.66833  0.6730E-14  0.1747E-04  0.4557E-07  0.2002E-02  0.3998E-03  0.1232E+01
   -1.000001   30.66881  0.6730E-14  0.1742E-04  0.4565E-07  0.1986E-02  0.3726E-03  0.1188E+01
   -1.050003   30.66930  0.6730E-14  0.1736E-04  0.4585E-07  0.1947E-02  0.3483E-03  0.1146E+01
   -1.100004   30.66978  0.6730E-14  0.1727E-04  0.4615E-07  0.2137E-02  0.3269E-03  0.2611E+01
   -1.150006   30.67022  0.6730E-14  0.1716E-04  0.4660E-07  0.1727E-02  0.3117E-03  0.7122E+01
   -1.200008   30.67077  0.6730E-14  0.1703E-04  0.4719E-07  0.1833E-02  0.2940E-03  0.1287E+01
   -1.250009   30.67127  0.6730E-14  0.1687E-04  0.4801E-07  0.1790E-02  0.2775E-03  0.1347E+01
   -1.300011   30.67179  0.6730E-14  0.1668E-04  0.4909E-07  0.1718E-02  0.2617E-03  0.1584E+01
   -1.350012   30.67233  0.6730E-14  0.1645E-04  0.5053E-07  0.1641E-02  0.2463E-03  0.1940E+01
   -1.400013   30.67289  0.6730E-14  0.1617E-04  0.5248E-07  0.1537E-02  0.2313E-03  0.2477E+01
   -1.450014   30.67349  0.6730E-14  0.1584E-04  0.5514E-07  0.1447E-02  0.2162E-03  0.3287E+01
   -1.500014   30.67413  0.6730E-14  0.1544E-04  0.5889E-07  0.1310E-02  0.2013E-03  0.4772E+01
   -1.550014   30.67485  0.6730E-14  0.1496E-04  0.6432E-07  0.1229E-02  0.1859E-03  0.7919E+01
   -1.600015   30.67565  0.6730E-14  0.1436E-04  0.7318E-07  0.1065E-02  0.1708E-03 -0.3933E+03
   -1.650014   30.67678  0.6730E-14  0.1356E-04  0.8705E-07  0.9863E-03  0.1531E-03  0.1339E+03
   -1.700014   30.67803  0.6730E-14  0.1246E-04  0.1118E-06  0.7795E-03  0.1357E-03  0.1031E+04
   -1.750013   30.68051  0.6730E-14  0.1117E-04  0.1505E-06  0.7094E-03  0.1113E-03  0.5868E+05
   -1.800012   30.68191  0.6730E-14  0.9578E-05  0.2354E-06  0.4756E-03  0.9571E-04  0.6589E+04
   -1.850010   30.69120  0.6730E-14  0.8038E-05  0.3936E-06  0.4620E-03  0.6390E-04  0.4949E+07
   -1.900008   30.68671  0.6730E-14  0.6366E-05  0.8302E-06  0.2126E-03  0.5368E-04 -0.1771E+06
   -1.950005   30.71051  0.6730E-14  0.4599E-05  0.1945E-05  0.2334E-03  0.2747E-04 -0.1089E+06
   -2.000002   30.70872  0.6730E-14  0.0000E+00  0.0000E+00  0.0000E+00  0.5931E-04  0.0000E+00
