 1 - depth, m
 2 - temperature, C
 3 - salinity, kg/kg
 4 - turbulent kinetic energy, m**2/s**2
 5 - dissipation rate, m**2/s**3
 6 - kinematic heat conductance, m**2/s
 7 - modulus of horizontal velocity, m/s
 8 - Richardson number, n/d
   -0.000000   30.08626  0.1885E-14  0.6229E-05  0.3528E-06  0.5842E-04  0.4469E-02  0.2199E+03
   -0.049997   30.11870  0.1885E-14  0.9728E-05  0.1498E-06  0.2228E-03  0.2399E-02  0.1420E+03
   -0.099994   30.12775  0.1885E-14  0.1125E-04  0.1084E-06  0.3975E-03  0.1954E-02  0.4337E+01
   -0.149992   30.13148  0.1885E-14  0.1231E-04  0.9200E-07  0.4934E-03  0.1760E-02  0.1644E+01
   -0.199991   30.13434  0.1885E-14  0.1317E-04  0.8231E-07  0.6146E-03  0.1607E-02  0.1276E+01
   -0.249989   30.13658  0.1885E-14  0.1393E-04  0.7559E-07  0.7309E-03  0.1481E-02  0.1317E+01
   -0.299988   30.13841  0.1885E-14  0.1465E-04  0.7031E-07  0.8732E-03  0.1360E-02  0.1419E+01
   -0.349988   30.13991  0.1885E-14  0.1533E-04  0.6597E-07  0.1031E-02  0.1242E-02  0.1519E+01
   -0.399988   30.14114  0.1885E-14  0.1596E-04  0.6241E-07  0.1196E-02  0.1126E-02  0.1541E+01
   -0.449988   30.14219  0.1885E-14  0.1653E-04  0.5946E-07  0.1357E-02  0.1020E-02  0.1540E+01
   -0.499988   30.14309  0.1885E-14  0.1702E-04  0.5705E-07  0.1506E-02  0.9242E-03  0.1531E+01
   -0.549988   30.14388  0.1885E-14  0.1743E-04  0.5510E-07  0.1640E-02  0.8395E-03  0.1513E+01
   -0.599989   30.14460  0.1885E-14  0.1777E-04  0.5352E-07  0.1758E-02  0.7642E-03  0.1490E+01
   -0.649990   30.14526  0.1885E-14  0.1804E-04  0.5226E-07  0.1859E-02  0.6973E-03  0.1464E+01
   -0.699991   30.14588  0.1885E-14  0.1824E-04  0.5127E-07  0.1942E-02  0.6379E-03  0.1434E+01
   -0.749993   30.14646  0.1885E-14  0.1839E-04  0.5052E-07  0.2004E-02  0.5851E-03  0.1402E+01
   -0.799994   30.14701  0.1885E-14  0.1848E-04  0.4999E-07  0.2045E-02  0.5381E-03  0.1366E+01
   -0.849996   30.14755  0.1885E-14  0.1852E-04  0.4964E-07  0.2069E-02  0.4962E-03  0.1328E+01
   -0.899997   30.14807  0.1885E-14  0.1853E-04  0.4947E-07  0.2075E-02  0.4590E-03  0.1287E+01
   -0.949999   30.14859  0.1885E-14  0.1850E-04  0.4947E-07  0.2066E-02  0.4258E-03  0.1245E+01
   -1.000001   30.14911  0.1885E-14  0.1843E-04  0.4961E-07  0.2042E-02  0.3963E-03  0.1198E+01
   -1.050003   30.14962  0.1885E-14  0.1835E-04  0.4990E-07  0.1990E-02  0.3700E-03  0.1152E+01
   -1.100004   30.15015  0.1885E-14  0.1824E-04  0.5028E-07  0.2208E-02  0.3468E-03  0.2422E+01
   -1.150006   30.15061  0.1885E-14  0.1812E-04  0.5084E-07  0.1742E-02  0.3312E-03  0.6998E+01
   -1.200007   30.15121  0.1885E-14  0.1797E-04  0.5156E-07  0.1865E-02  0.3125E-03  0.1263E+01
   -1.250009   30.15176  0.1885E-14  0.1778E-04  0.5255E-07  0.1818E-02  0.2950E-03  0.1308E+01
   -1.300010   30.15232  0.1885E-14  0.1756E-04  0.5387E-07  0.1741E-02  0.2783E-03  0.1536E+01
   -1.350011   30.15290  0.1885E-14  0.1730E-04  0.5561E-07  0.1659E-02  0.2621E-03  0.1895E+01
   -1.400012   30.15352  0.1885E-14  0.1698E-04  0.5798E-07  0.1553E-02  0.2462E-03  0.2459E+01
   -1.450013   30.15418  0.1885E-14  0.1661E-04  0.6125E-07  0.1456E-02  0.2303E-03  0.3349E+01
   -1.500014   30.15489  0.1885E-14  0.1616E-04  0.6588E-07  0.1326E-02  0.2144E-03  0.5069E+01
   -1.550014   30.15570  0.1885E-14  0.1561E-04  0.7282E-07  0.1234E-02  0.1981E-03  0.2483E+01
   -1.600014   30.15666  0.1885E-14  0.1491E-04  0.8405E-07  0.1081E-02  0.1814E-03 -0.1569E+01
   -1.650014   30.15799  0.1885E-14  0.1398E-04  0.1013E-06  0.9809E-03  0.1621E-03 -0.6889E+02
   -1.700013   30.15951  0.1885E-14  0.1274E-04  0.1350E-06  0.7796E-03  0.1426E-03  0.2615E+05
   -1.750012   30.16245  0.1885E-14  0.1139E-04  0.1835E-06  0.7128E-03  0.1158E-03  0.1174E+06
   -1.800011   30.16356  0.1885E-14  0.9804E-05  0.2917E-06  0.4811E-03  0.1006E-03  0.2543E+04
   -1.850009   30.17527  0.1885E-14  0.8272E-05  0.4950E-06  0.4717E-03  0.6623E-04  0.2024E+08
   -1.900007   30.16880  0.1885E-14  0.6605E-05  0.1044E-05  0.2243E-03  0.5619E-04 -0.9039E+05
   -1.950005   30.19553  0.1885E-14  0.4795E-05  0.2370E-05  0.2506E-03  0.2882E-04 -0.5429E+05
   -2.000002   30.19509  0.1885E-14  0.0000E+00  0.0000E+00  0.0000E+00  0.6438E-04  0.0000E+00
