 1 - depth, m
 2 - temperature, C
 3 - salinity, kg/kg
 4 - turbulent kinetic energy, m**2/s**2
 5 - dissipation rate, m**2/s**3
 6 - kinematic heat conductance, m**2/s
 7 - modulus of horizontal velocity, m/s
 8 - Richardson number, n/d
   -0.000000   29.77620  0.6293E-13  0.4479E-05  0.2678E-06  0.4910E-04  0.1356E-02  0.2586E+04
   -0.049997   29.80477  0.6294E-13  0.7701E-05  0.1193E-06  0.1685E-03  0.7778E-03  0.1569E+04
   -0.099994   29.81617  0.6294E-13  0.9344E-05  0.8187E-07  0.3899E-03  0.5635E-03  0.2652E+02
   -0.149992   29.81923  0.6294E-13  0.1036E-04  0.6888E-07  0.4650E-03  0.4977E-03  0.1275E+02
   -0.199991   29.82169  0.6294E-13  0.1114E-04  0.6120E-07  0.6196E-03  0.4440E-03  0.8228E+01
   -0.249989   29.82348  0.6294E-13  0.1176E-04  0.5613E-07  0.7402E-03  0.4036E-03  0.6070E+01
   -0.299989   29.82494  0.6294E-13  0.1226E-04  0.5249E-07  0.8593E-03  0.3701E-03  0.4826E+01
   -0.349988   29.82615  0.6294E-13  0.1268E-04  0.4975E-07  0.9676E-03  0.3412E-03  0.4125E+01
   -0.399988   29.82721  0.6294E-13  0.1302E-04  0.4760E-07  0.1066E-02  0.3158E-03  0.3673E+01
   -0.449988   29.82814  0.6294E-13  0.1332E-04  0.4584E-07  0.1158E-02  0.2934E-03  0.3451E+01
   -0.499988   29.82898  0.6294E-13  0.1358E-04  0.4438E-07  0.1242E-02  0.2736E-03  0.3357E+01
   -0.549989   29.82975  0.6294E-13  0.1380E-04  0.4314E-07  0.1320E-02  0.2558E-03  0.3314E+01
   -0.599990   29.83046  0.6294E-13  0.1398E-04  0.4209E-07  0.1390E-02  0.2398E-03  0.3313E+01
   -0.649991   29.83112  0.6294E-13  0.1414E-04  0.4119E-07  0.1453E-02  0.2252E-03  0.3355E+01
   -0.699992   29.83174  0.6294E-13  0.1427E-04  0.4042E-07  0.1508E-02  0.2118E-03  0.3426E+01
   -0.749993   29.83233  0.6294E-13  0.1438E-04  0.3976E-07  0.1557E-02  0.1994E-03  0.3537E+01
   -0.799995   29.83289  0.6294E-13  0.1446E-04  0.3920E-07  0.1598E-02  0.1879E-03  0.3677E+01
   -0.849997   29.83343  0.6294E-13  0.1453E-04  0.3873E-07  0.1632E-02  0.1772E-03  0.3862E+01
   -0.899998   29.83395  0.6294E-13  0.1457E-04  0.3835E-07  0.1658E-02  0.1672E-03  0.4083E+01
   -0.950000   29.83445  0.6294E-13  0.1459E-04  0.3806E-07  0.1677E-02  0.1577E-03  0.4363E+01
   -1.000002   29.83495  0.6294E-13  0.1459E-04  0.3785E-07  0.1688E-02  0.1488E-03  0.4694E+01
   -1.050003   29.83543  0.6294E-13  0.1458E-04  0.3773E-07  0.1690E-02  0.1403E-03  0.5306E+01
   -1.100005   29.83591  0.6294E-13  0.1454E-04  0.3770E-07  0.1770E-02  0.1322E-03  0.1762E+02
   -1.150007   29.83636  0.6294E-13  0.1448E-04  0.3779E-07  0.1616E-02  0.1250E-03  0.3942E+02
   -1.200008   29.83685  0.6294E-13  0.1441E-04  0.3798E-07  0.1638E-02  0.1176E-03  0.7579E+01
   -1.250010   29.83732  0.6294E-13  0.1430E-04  0.3831E-07  0.1609E-02  0.1105E-03  0.8031E+01
   -1.300011   29.83780  0.6294E-13  0.1418E-04  0.3881E-07  0.1564E-02  0.1037E-03  0.9342E+01
   -1.350013   29.83829  0.6294E-13  0.1402E-04  0.3952E-07  0.1507E-02  0.9711E-04  0.1111E+02
   -1.400014   29.83880  0.6294E-13  0.1384E-04  0.4051E-07  0.1436E-02  0.9070E-04  0.1359E+02
   -1.450014   29.83932  0.6294E-13  0.1361E-04  0.4187E-07  0.1360E-02  0.8443E-04  0.1715E+02
   -1.500015   29.83987  0.6294E-13  0.1335E-04  0.4377E-07  0.1255E-02  0.7828E-04  0.2286E+02
   -1.550015   29.84047  0.6294E-13  0.1302E-04  0.4648E-07  0.1168E-02  0.7215E-04  0.3192E+02
   -1.600016   29.84111  0.6294E-13  0.1263E-04  0.5054E-07  0.1031E-02  0.6612E-04  0.5159E+02
   -1.650015   29.84186  0.6294E-13  0.1214E-04  0.5681E-07  0.9512E-03  0.5983E-04  0.2636E+03
   -1.700015   29.84269  0.6294E-13  0.1146E-04  0.6836E-07  0.7808E-03  0.5370E-04 -0.7487E+02
   -1.750014   29.84412  0.6294E-13  0.1054E-04  0.8792E-07  0.6952E-03  0.4573E-04  0.5095E+05
   -1.800013   29.84554  0.6294E-13  0.9228E-05  0.1287E-06  0.4882E-03  0.3893E-04  0.1698E+06
   -1.850011   29.85018  0.6294E-13  0.7711E-05  0.2039E-06  0.4353E-03  0.2788E-04  0.3818E+08
   -1.900009   29.84992  0.6294E-13  0.5949E-05  0.4303E-06  0.1937E-03  0.2216E-04 -0.4263E+06
   -1.950006   29.86578  0.6294E-13  0.4130E-05  0.1093E-05  0.1785E-03  0.1151E-04 -0.4003E+06
   -2.000003   29.86675  0.6294E-13  0.0000E+00  0.0000E+00  0.0000E+00  0.2180E-04  0.0000E+00
