 1 - depth, m
 2 - temperature, C
 3 - salinity, kg/kg
 4 - turbulent kinetic energy, m**2/s**2
 5 - dissipation rate, m**2/s**3
 6 - kinematic heat conductance, m**2/s
 7 - modulus of horizontal velocity, m/s
 8 - Richardson number, n/d
   -0.000000   30.05141  0.8613E-14  0.4567E-05  0.2754E-06  0.4910E-04  0.1424E-02  0.6254E+04
   -0.049997   30.08008  0.8614E-14  0.7866E-05  0.1227E-06  0.1742E-03  0.8096E-03  0.1460E+04
   -0.099994   30.09106  0.8614E-14  0.9547E-05  0.8461E-07  0.3932E-03  0.5922E-03  0.2316E+02
   -0.149992   30.09410  0.8614E-14  0.1060E-04  0.7112E-07  0.4734E-03  0.5228E-03  0.1129E+02
   -0.199991   30.09653  0.8614E-14  0.1142E-04  0.6323E-07  0.6317E-03  0.4666E-03  0.7271E+01
   -0.249989   30.09829  0.8614E-14  0.1208E-04  0.5806E-07  0.7552E-03  0.4246E-03  0.5365E+01
   -0.299989   30.09973  0.8614E-14  0.1261E-04  0.5439E-07  0.8779E-03  0.3896E-03  0.4280E+01
   -0.349988   30.10094  0.8614E-14  0.1306E-04  0.5164E-07  0.9892E-03  0.3596E-03  0.3659E+01
   -0.399988   30.10199  0.8614E-14  0.1344E-04  0.4950E-07  0.1091E-02  0.3331E-03  0.3269E+01
   -0.449988   30.10292  0.8614E-14  0.1376E-04  0.4777E-07  0.1186E-02  0.3098E-03  0.3067E+01
   -0.499988   30.10376  0.8614E-14  0.1404E-04  0.4635E-07  0.1273E-02  0.2891E-03  0.2991E+01
   -0.549989   30.10453  0.8614E-14  0.1429E-04  0.4516E-07  0.1352E-02  0.2707E-03  0.2949E+01
   -0.599990   30.10525  0.8614E-14  0.1450E-04  0.4417E-07  0.1424E-02  0.2540E-03  0.2960E+01
   -0.649991   30.10591  0.8614E-14  0.1469E-04  0.4333E-07  0.1489E-02  0.2388E-03  0.2996E+01
   -0.699992   30.10654  0.8614E-14  0.1485E-04  0.4264E-07  0.1546E-02  0.2248E-03  0.3075E+01
   -0.749993   30.10714  0.8614E-14  0.1498E-04  0.4206E-07  0.1596E-02  0.2119E-03  0.3175E+01
   -0.799995   30.10771  0.8614E-14  0.1509E-04  0.4159E-07  0.1639E-02  0.1999E-03  0.3322E+01
   -0.849996   30.10827  0.8614E-14  0.1518E-04  0.4122E-07  0.1673E-02  0.1887E-03  0.3492E+01
   -0.899998   30.10880  0.8614E-14  0.1525E-04  0.4095E-07  0.1700E-02  0.1781E-03  0.3719E+01
   -0.950000   30.10933  0.8614E-14  0.1530E-04  0.4077E-07  0.1719E-02  0.1682E-03  0.3980E+01
   -1.000001   30.10984  0.8614E-14  0.1532E-04  0.4068E-07  0.1730E-02  0.1589E-03  0.4318E+01
   -1.050003   30.11035  0.8614E-14  0.1533E-04  0.4069E-07  0.1731E-02  0.1500E-03  0.4896E+01
   -1.100005   30.11086  0.8614E-14  0.1532E-04  0.4081E-07  0.1814E-02  0.1415E-03  0.1634E+02
   -1.150006   30.11133  0.8614E-14  0.1528E-04  0.4105E-07  0.1653E-02  0.1340E-03  0.3683E+02
   -1.200008   30.11186  0.8614E-14  0.1522E-04  0.4141E-07  0.1675E-02  0.1261E-03  0.7106E+01
   -1.250010   30.11238  0.8614E-14  0.1514E-04  0.4194E-07  0.1645E-02  0.1186E-03  0.7624E+01
   -1.300011   30.11290  0.8614E-14  0.1503E-04  0.4266E-07  0.1597E-02  0.1114E-03  0.8917E+01
   -1.350012   30.11344  0.8614E-14  0.1489E-04  0.4363E-07  0.1539E-02  0.1045E-03  0.1072E+02
   -1.400013   30.11400  0.8614E-14  0.1472E-04  0.4492E-07  0.1463E-02  0.9766E-04  0.1323E+02
   -1.450014   30.11458  0.8614E-14  0.1450E-04  0.4666E-07  0.1387E-02  0.9098E-04  0.1690E+02
   -1.500015   30.11521  0.8614E-14  0.1424E-04  0.4904E-07  0.1276E-02  0.8445E-04  0.2291E+02
   -1.550015   30.11589  0.8614E-14  0.1391E-04  0.5238E-07  0.1194E-02  0.7787E-04  0.3250E+02
   -1.600015   30.11663  0.8614E-14  0.1351E-04  0.5745E-07  0.1047E-02  0.7145E-04  0.5942E+02
   -1.650015   30.11753  0.8614E-14  0.1298E-04  0.6516E-07  0.9730E-03  0.6456E-04  0.4907E+03
   -1.700014   30.11851  0.8614E-14  0.1226E-04  0.7917E-07  0.7896E-03  0.5798E-04 -0.1862E+04
   -1.750013   30.12032  0.8614E-14  0.1129E-04  0.1024E-06  0.7146E-03  0.4906E-04  0.3045E+05
   -1.800012   30.12183  0.8614E-14  0.9951E-05  0.1501E-06  0.4958E-03  0.4211E-04  0.1054E+06
   -1.850010   30.12790  0.8614E-14  0.8412E-05  0.2412E-06  0.4530E-03  0.3005E-04  0.1252E+08
   -1.900008   30.12702  0.8614E-14  0.6630E-05  0.5093E-06  0.2002E-03  0.2424E-04 -0.6037E+05
   -1.950006   30.14645  0.8614E-14  0.4647E-05  0.1273E-05  0.1848E-03  0.1296E-04 -0.1844E+06
   -2.000003   30.14812  0.8614E-14  0.0000E+00  0.0000E+00  0.0000E+00  0.2370E-04  0.0000E+00
