 1 - depth, m
 2 - temperature, C
 3 - salinity, kg/kg
 4 - turbulent kinetic energy, m**2/s**2
 5 - dissipation rate, m**2/s**3
 6 - kinematic heat conductance, m**2/s
 7 - modulus of horizontal velocity, m/s
 8 - Richardson number, n/d
   -0.000000   29.64457  0.9775E-13  0.4836E-05  0.2778E-06  0.4940E-04  0.2486E-02  0.5050E+04
   -0.049997   29.67413  0.9775E-13  0.8037E-05  0.1225E-06  0.1852E-03  0.1357E-02  0.9821E+02
   -0.099994   29.68409  0.9775E-13  0.9592E-05  0.8568E-07  0.3814E-03  0.1032E-02  0.9000E+01
   -0.149992   29.68729  0.9776E-13  0.1059E-04  0.7195E-07  0.4713E-03  0.9118E-03  0.4476E+01
   -0.199991   29.68976  0.9776E-13  0.1137E-04  0.6388E-07  0.6179E-03  0.8172E-03  0.2896E+01
   -0.249989   29.69159  0.9776E-13  0.1199E-04  0.5858E-07  0.7369E-03  0.7450E-03  0.2152E+01
   -0.299989   29.69309  0.9776E-13  0.1250E-04  0.5479E-07  0.8483E-03  0.6849E-03  0.1742E+01
   -0.349988   29.69435  0.9776E-13  0.1293E-04  0.5189E-07  0.9533E-03  0.6325E-03  0.1594E+01
   -0.399988   29.69544  0.9776E-13  0.1331E-04  0.4954E-07  0.1060E-02  0.5839E-03  0.1507E+01
   -0.449988   29.69640  0.9776E-13  0.1364E-04  0.4758E-07  0.1165E-02  0.5394E-03  0.1474E+01
   -0.499988   29.69726  0.9776E-13  0.1394E-04  0.4594E-07  0.1262E-02  0.4993E-03  0.1456E+01
   -0.549989   29.69804  0.9776E-13  0.1419E-04  0.4456E-07  0.1351E-02  0.4633E-03  0.1451E+01
   -0.599990   29.69875  0.9776E-13  0.1441E-04  0.4339E-07  0.1432E-02  0.4308E-03  0.1441E+01
   -0.649991   29.69940  0.9776E-13  0.1460E-04  0.4241E-07  0.1505E-02  0.4013E-03  0.1446E+01
   -0.699992   29.70002  0.9776E-13  0.1475E-04  0.4159E-07  0.1568E-02  0.3747E-03  0.1443E+01
   -0.749993   29.70060  0.9776E-13  0.1487E-04  0.4091E-07  0.1621E-02  0.3504E-03  0.1459E+01
   -0.799995   29.70116  0.9776E-13  0.1496E-04  0.4036E-07  0.1665E-02  0.3284E-03  0.1467E+01
   -0.849996   29.70169  0.9776E-13  0.1503E-04  0.3992E-07  0.1699E-02  0.3083E-03  0.1498E+01
   -0.899998   29.70221  0.9776E-13  0.1508E-04  0.3958E-07  0.1724E-02  0.2900E-03  0.1525E+01
   -0.950000   29.70271  0.9776E-13  0.1510E-04  0.3934E-07  0.1739E-02  0.2731E-03  0.1592E+01
   -1.000001   29.70320  0.9776E-13  0.1511E-04  0.3919E-07  0.1747E-02  0.2576E-03  0.1673E+01
   -1.050003   29.70369  0.9776E-13  0.1509E-04  0.3913E-07  0.1746E-02  0.2431E-03  0.1879E+01
   -1.100005   29.70417  0.9776E-13  0.1506E-04  0.3918E-07  0.1838E-02  0.2294E-03  0.6163E+01
   -1.150007   29.70462  0.9776E-13  0.1500E-04  0.3934E-07  0.1652E-02  0.2173E-03  0.1402E+02
   -1.200008   29.70512  0.9776E-13  0.1492E-04  0.3962E-07  0.1684E-02  0.2045E-03  0.2694E+01
   -1.250010   29.70561  0.9776E-13  0.1482E-04  0.4004E-07  0.1653E-02  0.1924E-03  0.2844E+01
   -1.300011   29.70610  0.9776E-13  0.1469E-04  0.4066E-07  0.1604E-02  0.1808E-03  0.3332E+01
   -1.350012   29.70660  0.9776E-13  0.1454E-04  0.4150E-07  0.1545E-02  0.1695E-03  0.3955E+01
   -1.400013   29.70712  0.9776E-13  0.1435E-04  0.4265E-07  0.1469E-02  0.1584E-03  0.4881E+01
   -1.450014   29.70767  0.9776E-13  0.1412E-04  0.4422E-07  0.1391E-02  0.1476E-03  0.6163E+01
   -1.500015   29.70824  0.9776E-13  0.1384E-04  0.4641E-07  0.1282E-02  0.1370E-03  0.8322E+01
   -1.550015   29.70887  0.9776E-13  0.1351E-04  0.4951E-07  0.1196E-02  0.1264E-03  0.1172E+02
   -1.600015   29.70955  0.9776E-13  0.1310E-04  0.5425E-07  0.1056E-02  0.1159E-03  0.2056E+02
   -1.650015   29.71036  0.9776E-13  0.1257E-04  0.6160E-07  0.9745E-03  0.1048E-03  0.6472E+04
   -1.700014   29.71129  0.9776E-13  0.1184E-04  0.7484E-07  0.7980E-03  0.9383E-04 -0.1708E+03
   -1.750014   29.71291  0.9776E-13  0.1088E-04  0.9655E-07  0.7174E-03  0.7939E-04  0.1046E+06
   -1.800012   29.71428  0.9776E-13  0.9569E-05  0.1429E-06  0.4968E-03  0.6808E-04  0.1059E+05
   -1.850011   29.71988  0.9776E-13  0.8103E-05  0.2297E-06  0.4555E-03  0.4849E-04  0.1306E+07
   -1.900009   29.71884  0.9776E-13  0.6372E-05  0.4785E-06  0.2056E-03  0.3935E-04  0.1801E+05
   -1.950006   29.73639  0.9776E-13  0.4427E-05  0.1198E-05  0.1837E-03  0.2088E-04 -0.1133E+06
   -2.000003   29.73789  0.9776E-13  0.0000E+00  0.0000E+00  0.0000E+00  0.3904E-04  0.0000E+00
