 1 - depth, m
 2 - temperature, C
 3 - salinity, kg/kg
 4 - turbulent kinetic energy, m**2/s**2
 5 - dissipation rate, m**2/s**3
 6 - kinematic heat conductance, m**2/s
 7 - modulus of horizontal velocity, m/s
 8 - Richardson number, n/d
   -0.000000   29.55110  0.5291E-14  0.5129E-05  0.2952E-06  0.5099E-04  0.2919E-02  0.1888E+04
   -0.049997   29.58162  0.5291E-14  0.8434E-05  0.1291E-06  0.1950E-03  0.1583E-02  0.4312E+03
   -0.099994   29.59130  0.5291E-14  0.9999E-05  0.9114E-07  0.3854E-03  0.1225E-02  0.6071E+01
   -0.149992   29.59464  0.5291E-14  0.1102E-04  0.7662E-07  0.4802E-03  0.1087E-02  0.3101E+01
   -0.199991   29.59721  0.5291E-14  0.1182E-04  0.6812E-07  0.6245E-03  0.9784E-03  0.2033E+01
   -0.249989   29.59913  0.5291E-14  0.1247E-04  0.6255E-07  0.7401E-03  0.8952E-03  0.1540E+01
   -0.299989   29.60071  0.5291E-14  0.1301E-04  0.5851E-07  0.8511E-03  0.8251E-03  0.1340E+01
   -0.349988   29.60204  0.5291E-14  0.1348E-04  0.5535E-07  0.9640E-03  0.7615E-03  0.1301E+01
   -0.399988   29.60319  0.5291E-14  0.1390E-04  0.5276E-07  0.1080E-02  0.7013E-03  0.1286E+01
   -0.449988   29.60419  0.5291E-14  0.1428E-04  0.5059E-07  0.1195E-02  0.6458E-03  0.1287E+01
   -0.499988   29.60508  0.5291E-14  0.1461E-04  0.4876E-07  0.1303E-02  0.5956E-03  0.1294E+01
   -0.549989   29.60588  0.5291E-14  0.1490E-04  0.4723E-07  0.1402E-02  0.5504E-03  0.1290E+01
   -0.599990   29.60661  0.5291E-14  0.1515E-04  0.4594E-07  0.1492E-02  0.5096E-03  0.1286E+01
   -0.649991   29.60729  0.5291E-14  0.1535E-04  0.4486E-07  0.1572E-02  0.4729E-03  0.1275E+01
   -0.699992   29.60792  0.5291E-14  0.1552E-04  0.4397E-07  0.1641E-02  0.4396E-03  0.1265E+01
   -0.749993   29.60851  0.5291E-14  0.1565E-04  0.4323E-07  0.1698E-02  0.4096E-03  0.1249E+01
   -0.799995   29.60908  0.5291E-14  0.1574E-04  0.4264E-07  0.1743E-02  0.3825E-03  0.1239E+01
   -0.849996   29.60962  0.5291E-14  0.1581E-04  0.4218E-07  0.1777E-02  0.3580E-03  0.1227E+01
   -0.899998   29.61015  0.5291E-14  0.1585E-04  0.4183E-07  0.1801E-02  0.3357E-03  0.1227E+01
   -0.950000   29.61066  0.5291E-14  0.1586E-04  0.4159E-07  0.1814E-02  0.3155E-03  0.1233E+01
   -1.000002   29.61117  0.5291E-14  0.1586E-04  0.4145E-07  0.1818E-02  0.2970E-03  0.1262E+01
   -1.050003   29.61166  0.5291E-14  0.1583E-04  0.4142E-07  0.1811E-02  0.2800E-03  0.1351E+01
   -1.100005   29.61216  0.5291E-14  0.1578E-04  0.4149E-07  0.1924E-02  0.2643E-03  0.4263E+01
   -1.150007   29.61262  0.5291E-14  0.1571E-04  0.4168E-07  0.1687E-02  0.2508E-03  0.1003E+02
   -1.200008   29.61313  0.5291E-14  0.1562E-04  0.4200E-07  0.1737E-02  0.2364E-03  0.1884E+01
   -1.250010   29.61363  0.5291E-14  0.1550E-04  0.4248E-07  0.1704E-02  0.2227E-03  0.2000E+01
   -1.300011   29.61414  0.5291E-14  0.1535E-04  0.4315E-07  0.1649E-02  0.2096E-03  0.2332E+01
   -1.350012   29.61465  0.5291E-14  0.1517E-04  0.4408E-07  0.1585E-02  0.1968E-03  0.2794E+01
   -1.400013   29.61519  0.5291E-14  0.1496E-04  0.4535E-07  0.1503E-02  0.1843E-03  0.3441E+01
   -1.450014   29.61575  0.5291E-14  0.1470E-04  0.4709E-07  0.1420E-02  0.1720E-03  0.4395E+01
   -1.500015   29.61634  0.5291E-14  0.1439E-04  0.4952E-07  0.1305E-02  0.1598E-03  0.5956E+01
   -1.550015   29.61698  0.5291E-14  0.1402E-04  0.5299E-07  0.1216E-02  0.1476E-03  0.8570E+01
   -1.600015   29.61769  0.5291E-14  0.1357E-04  0.5831E-07  0.1071E-02  0.1356E-03  0.1594E+02
   -1.650015   29.61853  0.5291E-14  0.1298E-04  0.6666E-07  0.9871E-03  0.1227E-03  0.2603E+03
   -1.700015   29.61952  0.5291E-14  0.1219E-04  0.8153E-07  0.8073E-03  0.1098E-03  0.5064E+01
   -1.750014   29.62121  0.5291E-14  0.1114E-04  0.1060E-06  0.7211E-03  0.9292E-04  0.7504E+05
   -1.800012   29.62268  0.5291E-14  0.9731E-05  0.1595E-06  0.5000E-03  0.7948E-04  0.2294E+05
   -1.850011   29.62860  0.5291E-14  0.8177E-05  0.2570E-06  0.4568E-03  0.5630E-04  0.8158E+07
   -1.900009   29.62730  0.5291E-14  0.6409E-05  0.5512E-06  0.2061E-03  0.4565E-04 -0.9892E+04
   -1.950006   29.64529  0.5291E-14  0.4498E-05  0.1356E-05  0.1940E-03  0.2415E-04 -0.2413E+06
   -2.000003   29.64608  0.5291E-14  0.0000E+00  0.0000E+00  0.0000E+00  0.4643E-04  0.0000E+00
