 1 - depth, m
 2 - temperature, C
 3 - salinity, kg/kg
 4 - turbulent kinetic energy, m**2/s**2
 5 - dissipation rate, m**2/s**3
 6 - kinematic heat conductance, m**2/s
 7 - modulus of horizontal velocity, m/s
 8 - Richardson number, n/d
   -0.000000   29.76558  0.8745E-14  0.4525E-05  0.2692E-06  0.4886E-04  0.1828E-02  0.4067E+04
   -0.049997   29.79360  0.8745E-14  0.7702E-05  0.1199E-06  0.1707E-03  0.1042E-02  0.1075E+05
   -0.099994   29.80444  0.8745E-14  0.9337E-05  0.8228E-07  0.3867E-03  0.7601E-03  0.1392E+02
   -0.149992   29.80745  0.8745E-14  0.1036E-04  0.6907E-07  0.4662E-03  0.6705E-03  0.6756E+01
   -0.199991   29.80985  0.8745E-14  0.1115E-04  0.6133E-07  0.6212E-03  0.5979E-03  0.4346E+01
   -0.249989   29.81160  0.8745E-14  0.1179E-04  0.5625E-07  0.7431E-03  0.5435E-03  0.3203E+01
   -0.299989   29.81303  0.8745E-14  0.1230E-04  0.5262E-07  0.8637E-03  0.4983E-03  0.2549E+01
   -0.349988   29.81422  0.8745E-14  0.1273E-04  0.4991E-07  0.9734E-03  0.4595E-03  0.2180E+01
   -0.399988   29.81526  0.8745E-14  0.1309E-04  0.4780E-07  0.1074E-02  0.4253E-03  0.1943E+01
   -0.449988   29.81618  0.8745E-14  0.1341E-04  0.4608E-07  0.1167E-02  0.3952E-03  0.1826E+01
   -0.499988   29.81701  0.8745E-14  0.1368E-04  0.4466E-07  0.1253E-02  0.3685E-03  0.1778E+01
   -0.549989   29.81777  0.8745E-14  0.1391E-04  0.4347E-07  0.1332E-02  0.3447E-03  0.1755E+01
   -0.599990   29.81847  0.8745E-14  0.1412E-04  0.4247E-07  0.1403E-02  0.3232E-03  0.1758E+01
   -0.649991   29.81913  0.8745E-14  0.1429E-04  0.4162E-07  0.1468E-02  0.3036E-03  0.1781E+01
   -0.699992   29.81974  0.8745E-14  0.1444E-04  0.4091E-07  0.1525E-02  0.2856E-03  0.1823E+01
   -0.749993   29.82033  0.8745E-14  0.1456E-04  0.4031E-07  0.1575E-02  0.2690E-03  0.1883E+01
   -0.799995   29.82089  0.8745E-14  0.1466E-04  0.3981E-07  0.1617E-02  0.2536E-03  0.1963E+01
   -0.849996   29.82143  0.8745E-14  0.1475E-04  0.3941E-07  0.1653E-02  0.2392E-03  0.2065E+01
   -0.899998   29.82195  0.8745E-14  0.1481E-04  0.3909E-07  0.1680E-02  0.2258E-03  0.2189E+01
   -0.950000   29.82246  0.8745E-14  0.1485E-04  0.3887E-07  0.1700E-02  0.2131E-03  0.2343E+01
   -1.000002   29.82296  0.8745E-14  0.1487E-04  0.3873E-07  0.1712E-02  0.2011E-03  0.2529E+01
   -1.050003   29.82345  0.8745E-14  0.1487E-04  0.3868E-07  0.1715E-02  0.1897E-03  0.2865E+01
   -1.100005   29.82394  0.8745E-14  0.1485E-04  0.3873E-07  0.1791E-02  0.1789E-03  0.9603E+01
   -1.150007   29.82440  0.8745E-14  0.1481E-04  0.3890E-07  0.1648E-02  0.1692E-03  0.2107E+02
   -1.200008   29.82490  0.8745E-14  0.1476E-04  0.3917E-07  0.1666E-02  0.1593E-03  0.4101E+01
   -1.250010   29.82539  0.8745E-14  0.1467E-04  0.3960E-07  0.1637E-02  0.1497E-03  0.4370E+01
   -1.300011   29.82588  0.8745E-14  0.1456E-04  0.4019E-07  0.1592E-02  0.1406E-03  0.5085E+01
   -1.350012   29.82639  0.8745E-14  0.1443E-04  0.4101E-07  0.1537E-02  0.1317E-03  0.6058E+01
   -1.400013   29.82692  0.8745E-14  0.1426E-04  0.4211E-07  0.1465E-02  0.1231E-03  0.7406E+01
   -1.450014   29.82747  0.8745E-14  0.1406E-04  0.4359E-07  0.1391E-02  0.1147E-03  0.9350E+01
   -1.500015   29.82804  0.8745E-14  0.1381E-04  0.4564E-07  0.1286E-02  0.1064E-03  0.1244E+02
   -1.550015   29.82867  0.8745E-14  0.1350E-04  0.4851E-07  0.1202E-02  0.9813E-04  0.1731E+02
   -1.600015   29.82935  0.8745E-14  0.1312E-04  0.5279E-07  0.1061E-02  0.9005E-04  0.2850E+02
   -1.650015   29.83015  0.8745E-14  0.1264E-04  0.5929E-07  0.9848E-03  0.8153E-04  0.9055E+02
   -1.700015   29.83103  0.8745E-14  0.1199E-04  0.7111E-07  0.8067E-03  0.7332E-04 -0.4332E+04
   -1.750014   29.83255  0.8745E-14  0.1110E-04  0.9070E-07  0.7269E-03  0.6252E-04  0.2829E+05
   -1.800013   29.83392  0.8745E-14  0.9849E-05  0.1307E-06  0.5081E-03  0.5377E-04  0.4150E+04
   -1.850011   29.83889  0.8745E-14  0.8384E-05  0.2064E-06  0.4625E-03  0.3904E-04  0.1089E+07
   -1.900009   29.83856  0.8745E-14  0.6609E-05  0.4245E-06  0.2043E-03  0.3155E-04 -0.3229E+05
   -1.950006   29.85528  0.8745E-14  0.4562E-05  0.1083E-05  0.1745E-03  0.1703E-04 -0.5003E+06
   -2.000003   29.85678  0.8745E-14  0.0000E+00  0.0000E+00  0.0000E+00  0.3010E-04  0.0000E+00
