 1 - depth, m
 2 - temperature, C
 3 - salinity, kg/kg
 4 - turbulent kinetic energy, m**2/s**2
 5 - dissipation rate, m**2/s**3
 6 - kinematic heat conductance, m**2/s
 7 - modulus of horizontal velocity, m/s
 8 - Richardson number, n/d
   -0.000000   30.11886  0.1052E-13  0.4396E-05  0.2594E-06  0.4849E-04  0.1657E-02  0.7190E+04
   -0.049997   30.14525  0.1052E-13  0.7541E-05  0.1154E-06  0.1702E-03  0.9419E-03  0.3246E+03
   -0.099994   30.15557  0.1052E-13  0.9165E-05  0.7927E-07  0.3888E-03  0.6845E-03  0.1618E+02
   -0.149992   30.15838  0.1052E-13  0.1018E-04  0.6664E-07  0.4681E-03  0.6038E-03  0.7875E+01
   -0.199991   30.16063  0.1052E-13  0.1098E-04  0.5927E-07  0.6248E-03  0.5385E-03  0.5073E+01
   -0.249989   30.16228  0.1052E-13  0.1162E-04  0.5446E-07  0.7474E-03  0.4896E-03  0.3751E+01
   -0.299989   30.16362  0.1052E-13  0.1214E-04  0.5105E-07  0.8692E-03  0.4489E-03  0.2993E+01
   -0.349988   30.16475  0.1052E-13  0.1259E-04  0.4852E-07  0.9798E-03  0.4140E-03  0.2569E+01
   -0.399988   30.16573  0.1052E-13  0.1296E-04  0.4656E-07  0.1081E-02  0.3833E-03  0.2294E+01
   -0.449988   30.16661  0.1052E-13  0.1329E-04  0.4499E-07  0.1176E-02  0.3562E-03  0.2160E+01
   -0.499988   30.16740  0.1052E-13  0.1357E-04  0.4370E-07  0.1263E-02  0.3323E-03  0.2104E+01
   -0.549989   30.16812  0.1052E-13  0.1382E-04  0.4264E-07  0.1342E-02  0.3109E-03  0.2084E+01
   -0.599990   30.16879  0.1052E-13  0.1405E-04  0.4175E-07  0.1415E-02  0.2916E-03  0.2088E+01
   -0.649991   30.16942  0.1052E-13  0.1424E-04  0.4102E-07  0.1480E-02  0.2739E-03  0.2124E+01
   -0.699992   30.17002  0.1052E-13  0.1441E-04  0.4042E-07  0.1538E-02  0.2578E-03  0.2177E+01
   -0.749993   30.17058  0.1052E-13  0.1456E-04  0.3994E-07  0.1589E-02  0.2429E-03  0.2260E+01
   -0.799995   30.17113  0.1052E-13  0.1468E-04  0.3956E-07  0.1632E-02  0.2290E-03  0.2360E+01
   -0.849996   30.17166  0.1052E-13  0.1479E-04  0.3927E-07  0.1668E-02  0.2161E-03  0.2496E+01
   -0.899998   30.17217  0.1052E-13  0.1487E-04  0.3907E-07  0.1696E-02  0.2039E-03  0.2653E+01
   -0.950000   30.17267  0.1052E-13  0.1494E-04  0.3896E-07  0.1716E-02  0.1925E-03  0.2857E+01
   -1.000001   30.17316  0.1052E-13  0.1499E-04  0.3894E-07  0.1729E-02  0.1817E-03  0.3090E+01
   -1.050003   30.17365  0.1052E-13  0.1501E-04  0.3902E-07  0.1732E-02  0.1715E-03  0.3530E+01
   -1.100005   30.17414  0.1052E-13  0.1502E-04  0.3919E-07  0.1804E-02  0.1618E-03  0.1188E+02
   -1.150007   30.17461  0.1052E-13  0.1501E-04  0.3949E-07  0.1672E-02  0.1530E-03  0.2586E+02
   -1.200008   30.17511  0.1052E-13  0.1498E-04  0.3990E-07  0.1684E-02  0.1441E-03  0.5102E+01
   -1.250010   30.17561  0.1052E-13  0.1492E-04  0.4046E-07  0.1656E-02  0.1355E-03  0.5469E+01
   -1.300011   30.17612  0.1052E-13  0.1484E-04  0.4120E-07  0.1611E-02  0.1273E-03  0.6414E+01
   -1.350012   30.17665  0.1052E-13  0.1474E-04  0.4216E-07  0.1556E-02  0.1193E-03  0.7656E+01
   -1.400013   30.17719  0.1052E-13  0.1459E-04  0.4343E-07  0.1485E-02  0.1115E-03  0.9434E+01
   -1.450014   30.17777  0.1052E-13  0.1442E-04  0.4509E-07  0.1410E-02  0.1039E-03  0.1193E+02
   -1.500015   30.17838  0.1052E-13  0.1419E-04  0.4732E-07  0.1307E-02  0.9644E-04  0.1599E+02
   -1.550015   30.17904  0.1052E-13  0.1391E-04  0.5040E-07  0.1220E-02  0.8900E-04  0.2229E+02
   -1.600015   30.17976  0.1052E-13  0.1356E-04  0.5491E-07  0.1083E-02  0.8169E-04  0.3764E+02
   -1.650015   30.18062  0.1052E-13  0.1311E-04  0.6168E-07  0.9996E-03  0.7405E-04  0.1039E+03
   -1.700014   30.18157  0.1052E-13  0.1249E-04  0.7362E-07  0.8255E-03  0.6661E-04 -0.2582E+03
   -1.750013   30.18314  0.1052E-13  0.1164E-04  0.9340E-07  0.7423E-03  0.5721E-04  0.3074E+06
   -1.800012   30.18469  0.1052E-13  0.1043E-04  0.1332E-06  0.5290E-03  0.4917E-04  0.5160E+03
   -1.850010   30.18961  0.1052E-13  0.8996E-05  0.2084E-06  0.4764E-03  0.3654E-04  0.3032E+08
   -1.900008   30.18972  0.1052E-13  0.7177E-05  0.4289E-06  0.2120E-03  0.2946E-04  0.1179E+07
   -1.950006   30.20732  0.1052E-13  0.4955E-05  0.1110E-05  0.1684E-03  0.1637E-04 -0.2975E+06
   -2.000003   30.21140  0.1052E-13  0.0000E+00  0.0000E+00  0.0000E+00  0.2731E-04  0.0000E+00
