 1 - depth, m
 2 - temperature, C
 3 - salinity, kg/kg
 4 - turbulent kinetic energy, m**2/s**2
 5 - dissipation rate, m**2/s**3
 6 - kinematic heat conductance, m**2/s
 7 - modulus of horizontal velocity, m/s
 8 - Richardson number, n/d
   -0.000000   29.89137  0.1291E-14  0.4677E-05  0.2804E-06  0.4973E-04  0.2036E-02  0.4284E+04
   -0.049997   29.91978  0.1291E-14  0.7921E-05  0.1245E-06  0.1753E-03  0.1150E-02  0.2610E+04
   -0.099994   29.93048  0.1291E-14  0.9578E-05  0.8569E-07  0.3895E-03  0.8468E-03  0.1124E+02
   -0.149992   29.93355  0.1291E-14  0.1063E-04  0.7186E-07  0.4722E-03  0.7469E-03  0.5504E+01
   -0.199991   29.93598  0.1291E-14  0.1144E-04  0.6377E-07  0.6289E-03  0.6666E-03  0.3539E+01
   -0.249989   29.93775  0.1291E-14  0.1210E-04  0.5849E-07  0.7527E-03  0.6063E-03  0.2607E+01
   -0.299989   29.93920  0.1291E-14  0.1263E-04  0.5474E-07  0.8753E-03  0.5562E-03  0.2077E+01
   -0.349988   29.94041  0.1291E-14  0.1308E-04  0.5194E-07  0.9867E-03  0.5133E-03  0.1774E+01
   -0.399988   29.94146  0.1291E-14  0.1346E-04  0.4976E-07  0.1089E-02  0.4753E-03  0.1584E+01
   -0.449988   29.94240  0.1291E-14  0.1378E-04  0.4800E-07  0.1183E-02  0.4420E-03  0.1488E+01
   -0.499988   29.94325  0.1291E-14  0.1407E-04  0.4655E-07  0.1271E-02  0.4124E-03  0.1454E+01
   -0.549989   29.94402  0.1291E-14  0.1432E-04  0.4534E-07  0.1352E-02  0.3860E-03  0.1436E+01
   -0.599990   29.94474  0.1291E-14  0.1453E-04  0.4433E-07  0.1425E-02  0.3620E-03  0.1441E+01
   -0.649991   29.94540  0.1291E-14  0.1472E-04  0.4348E-07  0.1491E-02  0.3402E-03  0.1454E+01
   -0.699992   29.94604  0.1291E-14  0.1488E-04  0.4277E-07  0.1549E-02  0.3202E-03  0.1489E+01
   -0.749993   29.94664  0.1291E-14  0.1502E-04  0.4219E-07  0.1600E-02  0.3018E-03  0.1534E+01
   -0.799995   29.94721  0.1291E-14  0.1513E-04  0.4171E-07  0.1643E-02  0.2846E-03  0.1603E+01
   -0.849996   29.94776  0.1291E-14  0.1522E-04  0.4133E-07  0.1678E-02  0.2687E-03  0.1685E+01
   -0.899998   29.94830  0.1291E-14  0.1529E-04  0.4105E-07  0.1706E-02  0.2537E-03  0.1793E+01
   -0.950000   29.94883  0.1291E-14  0.1534E-04  0.4087E-07  0.1725E-02  0.2396E-03  0.1918E+01
   -1.000001   29.94934  0.1291E-14  0.1537E-04  0.4077E-07  0.1737E-02  0.2263E-03  0.2077E+01
   -1.050003   29.94985  0.1291E-14  0.1539E-04  0.4078E-07  0.1740E-02  0.2136E-03  0.2355E+01
   -1.100005   29.95036  0.1291E-14  0.1538E-04  0.4089E-07  0.1819E-02  0.2015E-03  0.7891E+01
   -1.150007   29.95084  0.1291E-14  0.1534E-04  0.4112E-07  0.1669E-02  0.1908E-03  0.1751E+02
   -1.200008   29.95136  0.1291E-14  0.1529E-04  0.4147E-07  0.1688E-02  0.1797E-03  0.3399E+01
   -1.250010   29.95188  0.1291E-14  0.1521E-04  0.4199E-07  0.1659E-02  0.1690E-03  0.3637E+01
   -1.300011   29.95240  0.1291E-14  0.1511E-04  0.4269E-07  0.1612E-02  0.1588E-03  0.4247E+01
   -1.350012   29.95294  0.1291E-14  0.1498E-04  0.4363E-07  0.1555E-02  0.1489E-03  0.5084E+01
   -1.400013   29.95349  0.1291E-14  0.1481E-04  0.4489E-07  0.1482E-02  0.1392E-03  0.6256E+01
   -1.450014   29.95408  0.1291E-14  0.1460E-04  0.4658E-07  0.1406E-02  0.1297E-03  0.7949E+01
   -1.500015   29.95470  0.1291E-14  0.1435E-04  0.4889E-07  0.1299E-02  0.1205E-03  0.1071E+02
   -1.550015   29.95537  0.1291E-14  0.1403E-04  0.5212E-07  0.1214E-02  0.1112E-03  0.1511E+02
   -1.600015   29.95610  0.1291E-14  0.1364E-04  0.5698E-07  0.1072E-02  0.1020E-03  0.2756E+02
   -1.650015   29.95698  0.1291E-14  0.1314E-04  0.6438E-07  0.9922E-03  0.9236E-04  0.1709E+03
   -1.700014   29.95796  0.1291E-14  0.1245E-04  0.7757E-07  0.8128E-03  0.8300E-04 -0.1218E+03
   -1.750013   29.95965  0.1291E-14  0.1152E-04  0.9950E-07  0.7344E-03  0.7080E-04  0.1687E+05
   -1.800012   29.96118  0.1291E-14  0.1024E-04  0.1446E-06  0.5137E-03  0.6083E-04 -0.4790E+04
   -1.850010   29.96666  0.1291E-14  0.8752E-05  0.2296E-06  0.4701E-03  0.4436E-04  0.1098E+09
   -1.900008   29.96619  0.1291E-14  0.6941E-05  0.4766E-06  0.2112E-03  0.3586E-04  0.1288E+06
   -1.950006   29.98458  0.1291E-14  0.4820E-05  0.1201E-05  0.1792E-03  0.1955E-04 -0.2625E+06
   -2.000003   29.98665  0.1291E-14  0.0000E+00  0.0000E+00  0.0000E+00  0.3432E-04  0.0000E+00
