 1 - depth, m
 2 - temperature, C
 3 - salinity, kg/kg
 4 - turbulent kinetic energy, m**2/s**2
 5 - dissipation rate, m**2/s**3
 6 - kinematic heat conductance, m**2/s
 7 - modulus of horizontal velocity, m/s
 8 - Richardson number, n/d
   -0.000000   30.05458  0.2625E-14  0.4577E-05  0.2755E-06  0.4892E-04  0.1423E-02  0.1059E+05
   -0.049997   30.08340  0.2625E-14  0.7886E-05  0.1229E-06  0.1753E-03  0.8065E-03  0.1534E+03
   -0.099994   30.09432  0.2625E-14  0.9567E-05  0.8489E-07  0.3926E-03  0.5913E-03  0.2308E+02
   -0.149992   30.09737  0.2625E-14  0.1062E-04  0.7134E-07  0.4745E-03  0.5218E-03  0.1129E+02
   -0.199991   30.09979  0.2625E-14  0.1145E-04  0.6341E-07  0.6329E-03  0.4658E-03  0.7260E+01
   -0.249989   30.10156  0.2625E-14  0.1211E-04  0.5822E-07  0.7570E-03  0.4238E-03  0.5353E+01
   -0.299989   30.10299  0.2625E-14  0.1265E-04  0.5453E-07  0.8802E-03  0.3889E-03  0.4268E+01
   -0.349988   30.10420  0.2625E-14  0.1310E-04  0.5177E-07  0.9920E-03  0.3590E-03  0.3648E+01
   -0.399988   30.10525  0.2625E-14  0.1347E-04  0.4963E-07  0.1094E-02  0.3325E-03  0.3257E+01
   -0.449988   30.10618  0.2625E-14  0.1380E-04  0.4789E-07  0.1190E-02  0.3092E-03  0.3053E+01
   -0.499988   30.10702  0.2625E-14  0.1409E-04  0.4647E-07  0.1277E-02  0.2886E-03  0.2976E+01
   -0.549989   30.10779  0.2625E-14  0.1434E-04  0.4528E-07  0.1357E-02  0.2702E-03  0.2931E+01
   -0.599990   30.10850  0.2625E-14  0.1455E-04  0.4428E-07  0.1430E-02  0.2536E-03  0.2940E+01
   -0.649991   30.10917  0.2625E-14  0.1474E-04  0.4344E-07  0.1496E-02  0.2384E-03  0.2971E+01
   -0.699992   30.10980  0.2625E-14  0.1490E-04  0.4274E-07  0.1554E-02  0.2245E-03  0.3049E+01
   -0.749993   30.11039  0.2625E-14  0.1504E-04  0.4216E-07  0.1605E-02  0.2116E-03  0.3142E+01
   -0.799995   30.11097  0.2625E-14  0.1515E-04  0.4169E-07  0.1648E-02  0.1996E-03  0.3286E+01
   -0.849996   30.11152  0.2625E-14  0.1524E-04  0.4132E-07  0.1683E-02  0.1884E-03  0.3447E+01
   -0.899998   30.11205  0.2625E-14  0.1531E-04  0.4104E-07  0.1711E-02  0.1779E-03  0.3669E+01
   -0.950000   30.11258  0.2625E-14  0.1537E-04  0.4085E-07  0.1731E-02  0.1681E-03  0.3917E+01
   -1.000001   30.11309  0.2625E-14  0.1540E-04  0.4076E-07  0.1743E-02  0.1587E-03  0.4245E+01
   -1.050003   30.11359  0.2625E-14  0.1541E-04  0.4076E-07  0.1745E-02  0.1499E-03  0.4803E+01
   -1.100005   30.11410  0.2625E-14  0.1540E-04  0.4087E-07  0.1824E-02  0.1414E-03  0.1614E+02
   -1.150006   30.11457  0.2625E-14  0.1537E-04  0.4110E-07  0.1675E-02  0.1339E-03  0.3541E+02
   -1.200008   30.11509  0.2625E-14  0.1532E-04  0.4145E-07  0.1694E-02  0.1261E-03  0.6900E+01
   -1.250010   30.11561  0.2625E-14  0.1524E-04  0.4196E-07  0.1665E-02  0.1186E-03  0.7386E+01
   -1.300011   30.11612  0.2625E-14  0.1514E-04  0.4265E-07  0.1618E-02  0.1115E-03  0.8606E+01
   -1.350012   30.11666  0.2625E-14  0.1500E-04  0.4358E-07  0.1562E-02  0.1045E-03  0.1028E+02
   -1.400013   30.11721  0.2625E-14  0.1484E-04  0.4482E-07  0.1488E-02  0.9776E-04  0.1260E+02
   -1.450014   30.11779  0.2625E-14  0.1463E-04  0.4648E-07  0.1412E-02  0.9112E-04  0.1595E+02
   -1.500015   30.11840  0.2625E-14  0.1438E-04  0.4875E-07  0.1305E-02  0.8462E-04  0.2131E+02
   -1.550015   30.11906  0.2625E-14  0.1407E-04  0.5191E-07  0.1219E-02  0.7811E-04  0.2982E+02
   -1.600015   30.11979  0.2625E-14  0.1368E-04  0.5661E-07  0.1078E-02  0.7173E-04  0.5047E+02
   -1.650015   30.12064  0.2625E-14  0.1319E-04  0.6373E-07  0.9961E-03  0.6498E-04  0.2787E+03
   -1.700014   30.12160  0.2625E-14  0.1252E-04  0.7649E-07  0.8194E-03  0.5846E-04 -0.3688E+04
   -1.750013   30.12323  0.2625E-14  0.1159E-04  0.9775E-07  0.7371E-03  0.4996E-04  0.1899E+05
   -1.800012   30.12476  0.2625E-14  0.1031E-04  0.1423E-06  0.5212E-03  0.4291E-04  0.5324E+05
   -1.850010   30.13004  0.2625E-14  0.8798E-05  0.2248E-06  0.4698E-03  0.3140E-04  0.1523E+07
   -1.900008   30.12985  0.2625E-14  0.6957E-05  0.4658E-06  0.2125E-03  0.2522E-04 -0.6816E+06
   -1.950006   30.14767  0.2625E-14  0.4817E-05  0.1189E-05  0.1761E-03  0.1374E-04 -0.4615E+06
   -2.000003   30.15055  0.2625E-14  0.0000E+00  0.0000E+00  0.0000E+00  0.2416E-04  0.0000E+00
