 1 - depth, m
 2 - temperature, C
 3 - salinity, kg/kg
 4 - turbulent kinetic energy, m**2/s**2
 5 - dissipation rate, m**2/s**3
 6 - kinematic heat conductance, m**2/s
 7 - modulus of horizontal velocity, m/s
 8 - Richardson number, n/d
   -0.000000   30.66595  0.1279E-14  0.6019E-05  0.3215E-06  0.5780E-04  0.4755E-02  0.7591E+02
   -0.049997   30.69484  0.1279E-14  0.9243E-05  0.1361E-06  0.2174E-03  0.2553E-02  0.2442E+02
   -0.099994   30.70282  0.1279E-14  0.1063E-04  0.9916E-07  0.3860E-03  0.2095E-02  0.2708E+01
   -0.149992   30.70623  0.1279E-14  0.1161E-04  0.8430E-07  0.4768E-03  0.1890E-02  0.1541E+01
   -0.199991   30.70886  0.1279E-14  0.1243E-04  0.7543E-07  0.5942E-03  0.1727E-02  0.1304E+01
   -0.249989   30.71092  0.1279E-14  0.1317E-04  0.6914E-07  0.7161E-03  0.1587E-02  0.1388E+01
   -0.299988   30.71258  0.1279E-14  0.1388E-04  0.6418E-07  0.8622E-03  0.1452E-02  0.1500E+01
   -0.349988   30.71393  0.1279E-14  0.1456E-04  0.6012E-07  0.1024E-02  0.1320E-02  0.1609E+01
   -0.399988   30.71503  0.1279E-14  0.1519E-04  0.5680E-07  0.1190E-02  0.1191E-02  0.1625E+01
   -0.449988   30.71597  0.1279E-14  0.1574E-04  0.5406E-07  0.1342E-02  0.1073E-02  0.1610E+01
   -0.499988   30.71678  0.1279E-14  0.1622E-04  0.5183E-07  0.1480E-02  0.9673E-03  0.1589E+01
   -0.549989   30.71750  0.1279E-14  0.1663E-04  0.5004E-07  0.1607E-02  0.8742E-03  0.1561E+01
   -0.599989   30.71815  0.1279E-14  0.1696E-04  0.4859E-07  0.1726E-02  0.7919E-03  0.1531E+01
   -0.649990   30.71875  0.1279E-14  0.1722E-04  0.4745E-07  0.1833E-02  0.7191E-03  0.1500E+01
   -0.699992   30.71931  0.1279E-14  0.1742E-04  0.4656E-07  0.1927E-02  0.6548E-03  0.1466E+01
   -0.749993   30.71983  0.1279E-14  0.1756E-04  0.4589E-07  0.2000E-02  0.5978E-03  0.1430E+01
   -0.799994   30.72032  0.1279E-14  0.1764E-04  0.4542E-07  0.2051E-02  0.5473E-03  0.1392E+01
   -0.849996   30.72080  0.1279E-14  0.1769E-04  0.4513E-07  0.2078E-02  0.5026E-03  0.1351E+01
   -0.899998   30.72127  0.1279E-14  0.1769E-04  0.4500E-07  0.2083E-02  0.4630E-03  0.1308E+01
   -0.949999   30.72173  0.1279E-14  0.1766E-04  0.4501E-07  0.2072E-02  0.4278E-03  0.1263E+01
   -1.000001   30.72219  0.1279E-14  0.1760E-04  0.4517E-07  0.2047E-02  0.3966E-03  0.1215E+01
   -1.050003   30.72265  0.1279E-14  0.1751E-04  0.4546E-07  0.1989E-02  0.3688E-03  0.1163E+01
   -1.100005   30.72312  0.1279E-14  0.1742E-04  0.4582E-07  0.2199E-02  0.3444E-03  0.2279E+01
   -1.150006   30.72355  0.1279E-14  0.1731E-04  0.4631E-07  0.1755E-02  0.3288E-03  0.6335E+01
   -1.200008   30.72408  0.1279E-14  0.1717E-04  0.4696E-07  0.1874E-02  0.3103E-03  0.1201E+01
   -1.250009   30.72457  0.1279E-14  0.1700E-04  0.4786E-07  0.1820E-02  0.2925E-03  0.1229E+01
   -1.300011   30.72507  0.1279E-14  0.1680E-04  0.4902E-07  0.1745E-02  0.2756E-03  0.1413E+01
   -1.350012   30.72559  0.1279E-14  0.1656E-04  0.5054E-07  0.1667E-02  0.2595E-03  0.1713E+01
   -1.400013   30.72614  0.1279E-14  0.1628E-04  0.5258E-07  0.1562E-02  0.2437E-03  0.2199E+01
   -1.450014   30.72673  0.1279E-14  0.1594E-04  0.5536E-07  0.1468E-02  0.2280E-03  0.2936E+01
   -1.500014   30.72736  0.1279E-14  0.1554E-04  0.5928E-07  0.1334E-02  0.2123E-03  0.4318E+01
   -1.550014   30.72807  0.1279E-14  0.1505E-04  0.6502E-07  0.1247E-02  0.1963E-03  0.8219E+01
   -1.600015   30.72888  0.1279E-14  0.1443E-04  0.7435E-07  0.1087E-02  0.1802E-03 -0.2658E+01
   -1.650014   30.73001  0.1279E-14  0.1361E-04  0.8889E-07  0.9952E-03  0.1615E-03 -0.9482E+03
   -1.700014   30.73130  0.1279E-14  0.1248E-04  0.1161E-06  0.7966E-03  0.1426E-03  0.1391E+05
   -1.750013   30.73374  0.1279E-14  0.1122E-04  0.1559E-06  0.7182E-03  0.1171E-03  0.1342E+06
   -1.800012   30.73488  0.1279E-14  0.9688E-05  0.2427E-06  0.4860E-03  0.1014E-03  0.4036E+05
   -1.850010   30.74442  0.1279E-14  0.8196E-05  0.4094E-06  0.4689E-03  0.6802E-04  0.5268E+07
   -1.900008   30.73965  0.1279E-14  0.6523E-05  0.8606E-06  0.2234E-03  0.5728E-04 -0.6685E+05
   -1.950005   30.76289  0.1279E-14  0.4687E-05  0.1998E-05  0.2334E-03  0.2974E-04 -0.1164E+06
   -2.000002   30.76209  0.1279E-14  0.0000E+00  0.0000E+00  0.0000E+00  0.6342E-04  0.0000E+00
