 1 - depth, m
 2 - temperature, C
 3 - salinity, kg/kg
 4 - turbulent kinetic energy, m**2/s**2
 5 - dissipation rate, m**2/s**3
 6 - kinematic heat conductance, m**2/s
 7 - modulus of horizontal velocity, m/s
 8 - Richardson number, n/d
   -0.000000   30.05386  0.5838E-13  0.4724E-05  0.2874E-06  0.4857E-04  0.1285E-02  0.4807E+04
   -0.049997   30.08495  0.5838E-13  0.8151E-05  0.1282E-06  0.1810E-03  0.7210E-03  0.8256E+02
   -0.099994   30.09614  0.5838E-13  0.9860E-05  0.8897E-07  0.3949E-03  0.5331E-03  0.2917E+02
   -0.149992   30.09937  0.5838E-13  0.1094E-04  0.7478E-07  0.4800E-03  0.4705E-03  0.1435E+02
   -0.199991   30.10191  0.5838E-13  0.1178E-04  0.6644E-07  0.6383E-03  0.4202E-03  0.9220E+01
   -0.249989   30.10377  0.5838E-13  0.1244E-04  0.6097E-07  0.7625E-03  0.3825E-03  0.6809E+01
   -0.299989   30.10528  0.5838E-13  0.1299E-04  0.5706E-07  0.8862E-03  0.3511E-03  0.5416E+01
   -0.349988   30.10654  0.5838E-13  0.1344E-04  0.5413E-07  0.9980E-03  0.3242E-03  0.4632E+01
   -0.399988   30.10764  0.5838E-13  0.1382E-04  0.5184E-07  0.1100E-02  0.3004E-03  0.4126E+01
   -0.449988   30.10861  0.5838E-13  0.1414E-04  0.4998E-07  0.1195E-02  0.2795E-03  0.3874E+01
   -0.499988   30.10949  0.5838E-13  0.1442E-04  0.4844E-07  0.1283E-02  0.2609E-03  0.3767E+01
   -0.549989   30.11029  0.5838E-13  0.1466E-04  0.4715E-07  0.1363E-02  0.2443E-03  0.3717E+01
   -0.599990   30.11103  0.5838E-13  0.1487E-04  0.4606E-07  0.1435E-02  0.2293E-03  0.3717E+01
   -0.649991   30.11173  0.5838E-13  0.1505E-04  0.4514E-07  0.1500E-02  0.2156E-03  0.3762E+01
   -0.699992   30.11238  0.5838E-13  0.1520E-04  0.4436E-07  0.1557E-02  0.2030E-03  0.3845E+01
   -0.749993   30.11300  0.5838E-13  0.1533E-04  0.4370E-07  0.1607E-02  0.1914E-03  0.3969E+01
   -0.799995   30.11359  0.5838E-13  0.1543E-04  0.4315E-07  0.1650E-02  0.1806E-03  0.4132E+01
   -0.849996   30.11416  0.5838E-13  0.1551E-04  0.4271E-07  0.1684E-02  0.1705E-03  0.4344E+01
   -0.899998   30.11471  0.5838E-13  0.1556E-04  0.4237E-07  0.1711E-02  0.1611E-03  0.4601E+01
   -0.950000   30.11525  0.5838E-13  0.1560E-04  0.4212E-07  0.1730E-02  0.1521E-03  0.4924E+01
   -1.000001   30.11578  0.5838E-13  0.1561E-04  0.4197E-07  0.1740E-02  0.1437E-03  0.5309E+01
   -1.050003   30.11630  0.5838E-13  0.1561E-04  0.4192E-07  0.1741E-02  0.1357E-03  0.6014E+01
   -1.100005   30.11681  0.5838E-13  0.1558E-04  0.4198E-07  0.1827E-02  0.1280E-03  0.1989E+02
   -1.150006   30.11730  0.5838E-13  0.1553E-04  0.4216E-07  0.1658E-02  0.1212E-03  0.4529E+02
   -1.200008   30.11783  0.5838E-13  0.1546E-04  0.4248E-07  0.1684E-02  0.1142E-03  0.8683E+01
   -1.250010   30.11835  0.5838E-13  0.1536E-04  0.4295E-07  0.1654E-02  0.1074E-03  0.9231E+01
   -1.300011   30.11888  0.5838E-13  0.1523E-04  0.4363E-07  0.1605E-02  0.1009E-03  0.1080E+02
   -1.350012   30.11942  0.5838E-13  0.1508E-04  0.4456E-07  0.1546E-02  0.9462E-04  0.1291E+02
   -1.400013   30.11997  0.5838E-13  0.1489E-04  0.4582E-07  0.1470E-02  0.8847E-04  0.1596E+02
   -1.450014   30.12056  0.5838E-13  0.1465E-04  0.4754E-07  0.1392E-02  0.8245E-04  0.2032E+02
   -1.500015   30.12118  0.5838E-13  0.1437E-04  0.4994E-07  0.1283E-02  0.7653E-04  0.2759E+02
   -1.550015   30.12186  0.5838E-13  0.1402E-04  0.5334E-07  0.1197E-02  0.7059E-04  0.3931E+02
   -1.600015   30.12259  0.5838E-13  0.1359E-04  0.5854E-07  0.1056E-02  0.6477E-04  0.7410E+02
   -1.650015   30.12348  0.5838E-13  0.1304E-04  0.6662E-07  0.9755E-03  0.5854E-04  0.4842E+04
   -1.700014   30.12449  0.5838E-13  0.1228E-04  0.8110E-07  0.7980E-03  0.5245E-04  0.2093E+05
   -1.750013   30.12626  0.5838E-13  0.1127E-04  0.1051E-06  0.7162E-03  0.4438E-04  0.1296E+06
   -1.800012   30.12780  0.5838E-13  0.9892E-05  0.1574E-06  0.4959E-03  0.3800E-04  0.1173E+06
   -1.850010   30.13395  0.5838E-13  0.8375E-05  0.2528E-06  0.4592E-03  0.2703E-04  0.3077E+07
   -1.900008   30.13265  0.5838E-13  0.6628E-05  0.5271E-06  0.2068E-03  0.2197E-04 -0.5699E+06
   -1.950006   30.15160  0.5838E-13  0.4637E-05  0.1315E-05  0.1882E-03  0.1176E-04 -0.2528E+07
   -2.000003   30.15306  0.5838E-13  0.0000E+00  0.0000E+00  0.0000E+00  0.2186E-04  0.0000E+00
