 1 - depth, m
 2 - temperature, C
 3 - salinity, kg/kg
 4 - turbulent kinetic energy, m**2/s**2
 5 - dissipation rate, m**2/s**3
 6 - kinematic heat conductance, m**2/s
 7 - modulus of horizontal velocity, m/s
 8 - Richardson number, n/d
   -0.000000   30.25555  0.1326E-13  0.4604E-05  0.2801E-06  0.4907E-04  0.1123E-02  0.1147E+05
   -0.049997   30.28475  0.1326E-13  0.7989E-05  0.1247E-06  0.1767E-03  0.6345E-03  0.6773E+03
   -0.099994   30.29591  0.1326E-13  0.9698E-05  0.8614E-07  0.3985E-03  0.4644E-03  0.3663E+02
   -0.149992   30.29897  0.1326E-13  0.1077E-04  0.7251E-07  0.4789E-03  0.4102E-03  0.1792E+02
   -0.199991   30.30141  0.1326E-13  0.1160E-04  0.6451E-07  0.6390E-03  0.3663E-03  0.1156E+02
   -0.249989   30.30318  0.1326E-13  0.1227E-04  0.5927E-07  0.7633E-03  0.3334E-03  0.8565E+01
   -0.299988   30.30463  0.1326E-13  0.1281E-04  0.5554E-07  0.8871E-03  0.3061E-03  0.6832E+01
   -0.349988   30.30585  0.1326E-13  0.1327E-04  0.5275E-07  0.9991E-03  0.2826E-03  0.5863E+01
   -0.399988   30.30691  0.1326E-13  0.1365E-04  0.5059E-07  0.1102E-02  0.2618E-03  0.5230E+01
   -0.449988   30.30785  0.1326E-13  0.1398E-04  0.4883E-07  0.1197E-02  0.2436E-03  0.4924E+01
   -0.499988   30.30870  0.1326E-13  0.1427E-04  0.4739E-07  0.1284E-02  0.2274E-03  0.4791E+01
   -0.549989   30.30948  0.1326E-13  0.1452E-04  0.4618E-07  0.1364E-02  0.2129E-03  0.4741E+01
   -0.599990   30.31020  0.1326E-13  0.1473E-04  0.4517E-07  0.1437E-02  0.1999E-03  0.4745E+01
   -0.649991   30.31087  0.1326E-13  0.1492E-04  0.4433E-07  0.1502E-02  0.1879E-03  0.4820E+01
   -0.699992   30.31151  0.1326E-13  0.1508E-04  0.4362E-07  0.1560E-02  0.1770E-03  0.4932E+01
   -0.749993   30.31211  0.1326E-13  0.1522E-04  0.4304E-07  0.1610E-02  0.1668E-03  0.5113E+01
   -0.799995   30.31269  0.1326E-13  0.1533E-04  0.4256E-07  0.1652E-02  0.1574E-03  0.5332E+01
   -0.849996   30.31325  0.1326E-13  0.1542E-04  0.4219E-07  0.1687E-02  0.1486E-03  0.5629E+01
   -0.899998   30.31380  0.1326E-13  0.1549E-04  0.4191E-07  0.1714E-02  0.1404E-03  0.5973E+01
   -0.950000   30.31433  0.1326E-13  0.1554E-04  0.4173E-07  0.1732E-02  0.1326E-03  0.6423E+01
   -1.000001   30.31485  0.1326E-13  0.1556E-04  0.4165E-07  0.1743E-02  0.1252E-03  0.6939E+01
   -1.050003   30.31536  0.1326E-13  0.1557E-04  0.4166E-07  0.1744E-02  0.1182E-03  0.7906E+01
   -1.100005   30.31587  0.1326E-13  0.1556E-04  0.4178E-07  0.1829E-02  0.1116E-03  0.2621E+02
   -1.150006   30.31636  0.1326E-13  0.1552E-04  0.4204E-07  0.1663E-02  0.1057E-03  0.5954E+02
   -1.200008   30.31689  0.1326E-13  0.1546E-04  0.4242E-07  0.1686E-02  0.9950E-04  0.1150E+02
   -1.250009   30.31741  0.1326E-13  0.1538E-04  0.4297E-07  0.1656E-02  0.9362E-04  0.1229E+02
   -1.300011   30.31794  0.1326E-13  0.1526E-04  0.4371E-07  0.1607E-02  0.8795E-04  0.1445E+02
   -1.350012   30.31849  0.1326E-13  0.1512E-04  0.4472E-07  0.1548E-02  0.8245E-04  0.1733E+02
   -1.400013   30.31905  0.1326E-13  0.1494E-04  0.4606E-07  0.1472E-02  0.7710E-04  0.2152E+02
   -1.450014   30.31965  0.1326E-13  0.1472E-04  0.4786E-07  0.1396E-02  0.7185E-04  0.2749E+02
   -1.500014   30.32028  0.1326E-13  0.1445E-04  0.5035E-07  0.1285E-02  0.6669E-04  0.3755E+02
   -1.550015   30.32097  0.1326E-13  0.1411E-04  0.5385E-07  0.1202E-02  0.6152E-04  0.5357E+02
   -1.600015   30.32172  0.1326E-13  0.1370E-04  0.5916E-07  0.1058E-02  0.5645E-04  0.1017E+03
   -1.650015   30.32264  0.1326E-13  0.1316E-04  0.6735E-07  0.9806E-03  0.5102E-04  0.1876E+04
   -1.700014   30.32367  0.1326E-13  0.1241E-04  0.8203E-07  0.8004E-03  0.4573E-04  0.1242E+04
   -1.750013   30.32551  0.1326E-13  0.1141E-04  0.1062E-06  0.7237E-03  0.3873E-04  0.6596E+06
   -1.800012   30.32706  0.1326E-13  0.1006E-04  0.1567E-06  0.5010E-03  0.3319E-04 -0.1558E+05
   -1.850010   30.33329  0.1326E-13  0.8544E-05  0.2515E-06  0.4631E-03  0.2373E-04  0.4445E+08
   -1.900008   30.33209  0.1326E-13  0.6794E-05  0.5267E-06  0.2103E-03  0.1933E-04  0.1815E+06
   -1.950006   30.35167  0.1326E-13  0.4755E-05  0.1328E-05  0.1858E-03  0.1044E-04 -0.2277E+07
   -2.000003   30.35408  0.1326E-13  0.0000E+00  0.0000E+00  0.0000E+00  0.1902E-04  0.0000E+00
