 1 - depth, m
 2 - temperature, C
 3 - salinity, kg/kg
 4 - turbulent kinetic energy, m**2/s**2
 5 - dissipation rate, m**2/s**3
 6 - kinematic heat conductance, m**2/s
 7 - modulus of horizontal velocity, m/s
 8 - Richardson number, n/d
   -0.000000   28.65697  0.1376E-12  0.3492E-05  0.1754E-06  0.4193E-04  0.1414E-02  0.7518E+02
   -0.049997   28.67969  0.1376E-12  0.6027E-05  0.7798E-07  0.1532E-03  0.7880E-03  0.1475E+02
   -0.099995   28.68799  0.1376E-12  0.7260E-05  0.5411E-07  0.3525E-03  0.5695E-03  0.2275E+02
   -0.149992   28.69030  0.1376E-12  0.8018E-05  0.4577E-07  0.4273E-03  0.5007E-03  0.1055E+02
   -0.199991   28.69214  0.1376E-12  0.8607E-05  0.4079E-07  0.5599E-03  0.4453E-03  0.6878E+01
   -0.249990   28.69349  0.1376E-12  0.9077E-05  0.3746E-07  0.6688E-03  0.4032E-03  0.5065E+01
   -0.299989   28.69459  0.1376E-12  0.9463E-05  0.3507E-07  0.7738E-03  0.3681E-03  0.4040E+01
   -0.349988   28.69551  0.1376E-12  0.9784E-05  0.3326E-07  0.8700E-03  0.3379E-03  0.3456E+01
   -0.399988   28.69631  0.1376E-12  0.1005E-04  0.3185E-07  0.9584E-03  0.3112E-03  0.3085E+01
   -0.449988   28.69702  0.1376E-12  0.1029E-04  0.3069E-07  0.1041E-02  0.2878E-03  0.2898E+01
   -0.499989   28.69765  0.1376E-12  0.1049E-04  0.2973E-07  0.1117E-02  0.2671E-03  0.2829E+01
   -0.549989   28.69823  0.1376E-12  0.1067E-04  0.2893E-07  0.1187E-02  0.2487E-03  0.2795E+01
   -0.599990   28.69877  0.1376E-12  0.1083E-04  0.2826E-07  0.1251E-02  0.2321E-03  0.2810E+01
   -0.649991   28.69926  0.1376E-12  0.1097E-04  0.2769E-07  0.1310E-02  0.2170E-03  0.2850E+01
   -0.699992   28.69973  0.1376E-12  0.1109E-04  0.2721E-07  0.1362E-02  0.2032E-03  0.2931E+01
   -0.749994   28.70018  0.1376E-12  0.1119E-04  0.2681E-07  0.1408E-02  0.1905E-03  0.3034E+01
   -0.799995   28.70060  0.1376E-12  0.1128E-04  0.2649E-07  0.1448E-02  0.1788E-03  0.3179E+01
   -0.849997   28.70101  0.1376E-12  0.1135E-04  0.2622E-07  0.1481E-02  0.1679E-03  0.3351E+01
   -0.899999   28.70140  0.1376E-12  0.1141E-04  0.2602E-07  0.1509E-02  0.1577E-03  0.3573E+01
   -0.950000   28.70179  0.1376E-12  0.1146E-04  0.2588E-07  0.1530E-02  0.1481E-03  0.3832E+01
   -1.000002   28.70216  0.1376E-12  0.1150E-04  0.2580E-07  0.1544E-02  0.1392E-03  0.4159E+01
   -1.050004   28.70253  0.1376E-12  0.1152E-04  0.2578E-07  0.1552E-02  0.1307E-03  0.4745E+01
   -1.100006   28.70290  0.1376E-12  0.1153E-04  0.2582E-07  0.1597E-02  0.1227E-03  0.1641E+02
   -1.150007   28.70326  0.1376E-12  0.1152E-04  0.2594E-07  0.1536E-02  0.1154E-03  0.3367E+02
   -1.200009   28.70363  0.1376E-12  0.1151E-04  0.2612E-07  0.1527E-02  0.1083E-03  0.6763E+01
   -1.250010   28.70400  0.1376E-12  0.1147E-04  0.2639E-07  0.1506E-02  0.1013E-03  0.7250E+01
   -1.300012   28.70438  0.1376E-12  0.1142E-04  0.2677E-07  0.1473E-02  0.9470E-04  0.8408E+01
   -1.350013   28.70476  0.1376E-12  0.1136E-04  0.2727E-07  0.1431E-02  0.8832E-04  0.9962E+01
   -1.400014   28.70516  0.1376E-12  0.1127E-04  0.2793E-07  0.1378E-02  0.8216E-04  0.1203E+02
   -1.450015   28.70557  0.1376E-12  0.1116E-04  0.2879E-07  0.1315E-02  0.7619E-04  0.1495E+02
   -1.500016   28.70600  0.1376E-12  0.1102E-04  0.2994E-07  0.1238E-02  0.7040E-04  0.1920E+02
   -1.550016   28.70647  0.1376E-12  0.1085E-04  0.3147E-07  0.1156E-02  0.6471E-04  0.2579E+02
   -1.600016   28.70697  0.1376E-12  0.1064E-04  0.3361E-07  0.1045E-02  0.5914E-04  0.3727E+02
   -1.650016   28.70753  0.1376E-12  0.1038E-04  0.3669E-07  0.9552E-03  0.5355E-04  0.5839E+02
   -1.700015   28.70815  0.1376E-12  0.1003E-04  0.4163E-07  0.8052E-03  0.4809E-04  0.2017E+03
   -1.750015   28.70896  0.1376E-12  0.9559E-05  0.4993E-07  0.7221E-03  0.4212E-04  0.1175E+04
   -1.800013   28.70992  0.1376E-12  0.8846E-05  0.6669E-07  0.5282E-03  0.3642E-04  0.3843E+04
   -1.850012   28.71201  0.1376E-12  0.7812E-05  0.9853E-07  0.4548E-03  0.2843E-04  0.4643E+06
   -1.900010   28.71322  0.1376E-12  0.6263E-05  0.1917E-06  0.2077E-03  0.2250E-04 -0.6835E+06
   -1.950007   28.72290  0.1376E-12  0.4122E-05  0.5253E-06  0.1210E-03  0.1278E-04 -0.4473E+08
   -2.000004   28.72873  0.1376E-12  0.0000E+00  0.0000E+00  0.0000E+00  0.1900E-04  0.0000E+00
