 1 - depth, m
 2 - temperature, C
 3 - salinity, kg/kg
 4 - turbulent kinetic energy, m**2/s**2
 5 - dissipation rate, m**2/s**3
 6 - kinematic heat conductance, m**2/s
 7 - modulus of horizontal velocity, m/s
 8 - Richardson number, n/d
   -0.000000   30.76806  0.1505E-13  0.5299E-05  0.3381E-06  0.5294E-04  0.2117E-02  0.6304E+04
   -0.049997   30.80028  0.1505E-13  0.8913E-05  0.1500E-06  0.1870E-03  0.1191E-02  0.8622E+02
   -0.099994   30.81229  0.1505E-13  0.1076E-04  0.1034E-06  0.4053E-03  0.8890E-03  0.1207E+02
   -0.149992   30.81578  0.1505E-13  0.1193E-04  0.8655E-07  0.4919E-03  0.7860E-03  0.5985E+01
   -0.199990   30.81854  0.1505E-13  0.1284E-04  0.7670E-07  0.6563E-03  0.7034E-03  0.3826E+01
   -0.249989   30.82054  0.1505E-13  0.1357E-04  0.7028E-07  0.7846E-03  0.6414E-03  0.2814E+01
   -0.299988   30.82217  0.1505E-13  0.1417E-04  0.6572E-07  0.9120E-03  0.5899E-03  0.2242E+01
   -0.349988   30.82354  0.1505E-13  0.1466E-04  0.6231E-07  0.1026E-02  0.5456E-03  0.1922E+01
   -0.399987   30.82473  0.1505E-13  0.1508E-04  0.5965E-07  0.1133E-02  0.5062E-03  0.1741E+01
   -0.449987   30.82579  0.1505E-13  0.1545E-04  0.5747E-07  0.1235E-02  0.4711E-03  0.1650E+01
   -0.499988   30.82673  0.1505E-13  0.1577E-04  0.5567E-07  0.1330E-02  0.4396E-03  0.1621E+01
   -0.549988   30.82760  0.1505E-13  0.1605E-04  0.5416E-07  0.1418E-02  0.4113E-03  0.1595E+01
   -0.599989   30.82839  0.1505E-13  0.1629E-04  0.5290E-07  0.1497E-02  0.3856E-03  0.1597E+01
   -0.649990   30.82913  0.1505E-13  0.1650E-04  0.5184E-07  0.1568E-02  0.3622E-03  0.1599E+01
   -0.699991   30.82983  0.1505E-13  0.1667E-04  0.5095E-07  0.1630E-02  0.3408E-03  0.1628E+01
   -0.749992   30.83049  0.1505E-13  0.1682E-04  0.5023E-07  0.1683E-02  0.3212E-03  0.1655E+01
   -0.799994   30.83113  0.1505E-13  0.1693E-04  0.4964E-07  0.1727E-02  0.3031E-03  0.1713E+01
   -0.849995   30.83174  0.1505E-13  0.1702E-04  0.4918E-07  0.1762E-02  0.2863E-03  0.1772E+01
   -0.899997   30.83233  0.1505E-13  0.1709E-04  0.4883E-07  0.1788E-02  0.2707E-03  0.1873E+01
   -0.949999   30.83291  0.1505E-13  0.1713E-04  0.4860E-07  0.1805E-02  0.2561E-03  0.1984E+01
   -1.000000   30.83348  0.1505E-13  0.1715E-04  0.4849E-07  0.1814E-02  0.2422E-03  0.2149E+01
   -1.050002   30.83404  0.1505E-13  0.1714E-04  0.4850E-07  0.1812E-02  0.2292E-03  0.2419E+01
   -1.100004   30.83460  0.1505E-13  0.1711E-04  0.4863E-07  0.1913E-02  0.2166E-03  0.7965E+01
   -1.150005   30.83513  0.1505E-13  0.1706E-04  0.4894E-07  0.1708E-02  0.2056E-03  0.1874E+02
   -1.200007   30.83572  0.1505E-13  0.1698E-04  0.4938E-07  0.1744E-02  0.1938E-03  0.3524E+01
   -1.250008   30.83629  0.1505E-13  0.1687E-04  0.5004E-07  0.1711E-02  0.1827E-03  0.3775E+01
   -1.300009   30.83687  0.1505E-13  0.1673E-04  0.5095E-07  0.1657E-02  0.1719E-03  0.4411E+01
   -1.350011   30.83747  0.1505E-13  0.1656E-04  0.5217E-07  0.1594E-02  0.1614E-03  0.5340E+01
   -1.400012   30.83809  0.1505E-13  0.1634E-04  0.5383E-07  0.1512E-02  0.1512E-03  0.6616E+01
   -1.450012   30.83875  0.1505E-13  0.1607E-04  0.5610E-07  0.1428E-02  0.1412E-03  0.8592E+01
   -1.500013   30.83945  0.1505E-13  0.1575E-04  0.5925E-07  0.1316E-02  0.1312E-03  0.1180E+02
   -1.550013   30.84023  0.1505E-13  0.1535E-04  0.6379E-07  0.1225E-02  0.1212E-03  0.1793E+02
   -1.600013   30.84107  0.1505E-13  0.1485E-04  0.7083E-07  0.1083E-02  0.1113E-03  0.5791E+02
   -1.650013   30.84214  0.1505E-13  0.1419E-04  0.8188E-07  0.9919E-03  0.1005E-03  0.1897E+03
   -1.700012   30.84341  0.1505E-13  0.1329E-04  0.1010E-06  0.8181E-03  0.8965E-04  0.2500E+06
   -1.750011   30.84548  0.1505E-13  0.1217E-04  0.1321E-06  0.7278E-03  0.7586E-04  0.6843E+05
   -1.800010   30.84722  0.1505E-13  0.1066E-04  0.2026E-06  0.5097E-03  0.6508E-04  0.6254E+05
   -1.850008   30.85488  0.1505E-13  0.9083E-05  0.3300E-06  0.4734E-03  0.4615E-04  0.2282E+08
   -1.900006   30.85279  0.1505E-13  0.7208E-05  0.6971E-06  0.2154E-03  0.3781E-04 -0.2442E+06
   -1.950004   30.87561  0.1505E-13  0.5115E-05  0.1688E-05  0.2059E-03  0.2033E-04 -0.2836E+06
   -2.000001   30.87697  0.1505E-13  0.0000E+00  0.0000E+00  0.0000E+00  0.3831E-04  0.0000E+00
