 1 - depth, m
 2 - temperature, C
 3 - salinity, kg/kg
 4 - turbulent kinetic energy, m**2/s**2
 5 - dissipation rate, m**2/s**3
 6 - kinematic heat conductance, m**2/s
 7 - modulus of horizontal velocity, m/s
 8 - Richardson number, n/d
   -0.000000   30.60602  0.4183E-14  0.5850E-05  0.3236E-06  0.5492E-04  0.4174E-02  0.2655E+03
   -0.049997   30.63698  0.4183E-14  0.9212E-05  0.1383E-06  0.2172E-03  0.2230E-02  0.1368E+02
   -0.099994   30.64558  0.4183E-14  0.1069E-04  0.9993E-07  0.3899E-03  0.1803E-02  0.3278E+01
   -0.149992   30.64904  0.4183E-14  0.1170E-04  0.8471E-07  0.4876E-03  0.1619E-02  0.1774E+01
   -0.199991   30.65169  0.4183E-14  0.1251E-04  0.7578E-07  0.6092E-03  0.1475E-02  0.1307E+01
   -0.249989   30.65375  0.4183E-14  0.1321E-04  0.6966E-07  0.7189E-03  0.1359E-02  0.1288E+01
   -0.299988   30.65545  0.4183E-14  0.1387E-04  0.6489E-07  0.8510E-03  0.1250E-02  0.1380E+01
   -0.349988   30.65685  0.4183E-14  0.1449E-04  0.6096E-07  0.9995E-03  0.1143E-02  0.1477E+01
   -0.399988   30.65801  0.4183E-14  0.1507E-04  0.5772E-07  0.1154E-02  0.1038E-02  0.1500E+01
   -0.449988   30.65899  0.4183E-14  0.1558E-04  0.5503E-07  0.1305E-02  0.9413E-03  0.1501E+01
   -0.499988   30.65985  0.4183E-14  0.1603E-04  0.5283E-07  0.1445E-02  0.8549E-03  0.1496E+01
   -0.549989   30.66060  0.4183E-14  0.1641E-04  0.5103E-07  0.1572E-02  0.7780E-03  0.1480E+01
   -0.599989   30.66128  0.4183E-14  0.1672E-04  0.4957E-07  0.1685E-02  0.7096E-03  0.1461E+01
   -0.649990   30.66191  0.4183E-14  0.1697E-04  0.4839E-07  0.1782E-02  0.6488E-03  0.1437E+01
   -0.699992   30.66249  0.4183E-14  0.1717E-04  0.4746E-07  0.1861E-02  0.5945E-03  0.1410E+01
   -0.749993   30.66304  0.4183E-14  0.1731E-04  0.4674E-07  0.1922E-02  0.5462E-03  0.1380E+01
   -0.799994   30.66357  0.4183E-14  0.1741E-04  0.4621E-07  0.1965E-02  0.5032E-03  0.1347E+01
   -0.849996   30.66408  0.4183E-14  0.1746E-04  0.4586E-07  0.1992E-02  0.4648E-03  0.1311E+01
   -0.899998   30.66457  0.4183E-14  0.1747E-04  0.4566E-07  0.2002E-02  0.4306E-03  0.1273E+01
   -0.949999   30.66506  0.4183E-14  0.1746E-04  0.4560E-07  0.1998E-02  0.4001E-03  0.1233E+01
   -1.000001   30.66555  0.4183E-14  0.1741E-04  0.4568E-07  0.1981E-02  0.3729E-03  0.1188E+01
   -1.050003   30.66603  0.4183E-14  0.1734E-04  0.4589E-07  0.1942E-02  0.3486E-03  0.1148E+01
   -1.100004   30.66652  0.4183E-14  0.1726E-04  0.4619E-07  0.2133E-02  0.3272E-03  0.2620E+01
   -1.150006   30.66696  0.4183E-14  0.1715E-04  0.4665E-07  0.1720E-02  0.3120E-03  0.7231E+01
   -1.200008   30.66750  0.4183E-14  0.1702E-04  0.4725E-07  0.1827E-02  0.2942E-03  0.1302E+01
   -1.250009   30.66801  0.4183E-14  0.1685E-04  0.4809E-07  0.1783E-02  0.2777E-03  0.1362E+01
   -1.300011   30.66853  0.4183E-14  0.1665E-04  0.4919E-07  0.1712E-02  0.2618E-03  0.1608E+01
   -1.350012   30.66907  0.4183E-14  0.1642E-04  0.5066E-07  0.1633E-02  0.2464E-03  0.1975E+01
   -1.400013   30.66963  0.4183E-14  0.1614E-04  0.5264E-07  0.1532E-02  0.2313E-03  0.2528E+01
   -1.450014   30.67024  0.4183E-14  0.1581E-04  0.5537E-07  0.1436E-02  0.2162E-03  0.3387E+01
   -1.500014   30.67089  0.4183E-14  0.1541E-04  0.5920E-07  0.1309E-02  0.2012E-03  0.4968E+01
   -1.550014   30.67162  0.4183E-14  0.1492E-04  0.6485E-07  0.1214E-02  0.1858E-03  0.1398E+02
   -1.600015   30.67245  0.4183E-14  0.1430E-04  0.7387E-07  0.1066E-02  0.1704E-03  0.4052E+02
   -1.650014   30.67357  0.4183E-14  0.1349E-04  0.8808E-07  0.9662E-03  0.1529E-03  0.1304E+03
   -1.700014   30.67491  0.4183E-14  0.1237E-04  0.1140E-06  0.7849E-03  0.1348E-03  0.6815E+04
   -1.750013   30.67734  0.4183E-14  0.1110E-04  0.1533E-06  0.6980E-03  0.1109E-03  0.5467E+05
   -1.800012   30.67875  0.4183E-14  0.9494E-05  0.2415E-06  0.4719E-03  0.9508E-04  0.4539E+05
   -1.850010   30.68846  0.4183E-14  0.7973E-05  0.4047E-06  0.4517E-03  0.6334E-04  0.3447E+08
   -1.900008   30.68360  0.4183E-14  0.6316E-05  0.8539E-06  0.2109E-03  0.5303E-04 -0.9582E+06
   -1.950005   30.70774  0.4183E-14  0.4565E-05  0.1978E-05  0.2350E-03  0.2712E-04 -0.7876E+05
   -2.000002   30.70580  0.4183E-14  0.0000E+00  0.0000E+00  0.0000E+00  0.5937E-04  0.0000E+00
