 1 - depth, m
 2 - temperature, C
 3 - salinity, kg/kg
 4 - turbulent kinetic energy, m**2/s**2
 5 - dissipation rate, m**2/s**3
 6 - kinematic heat conductance, m**2/s
 7 - modulus of horizontal velocity, m/s
 8 - Richardson number, n/d
   -0.000000   30.51581  0.8030E-14  0.4820E-05  0.3022E-06  0.5038E-04  0.7977E-03  0.1705E+05
   -0.049997   30.54680  0.8030E-14  0.8432E-05  0.1341E-06  0.1810E-03  0.4566E-03  0.9980E+02
   -0.099994   30.55847  0.8030E-14  0.1023E-04  0.9252E-07  0.4146E-03  0.3328E-03  0.1059E+03
   -0.149992   30.56164  0.8030E-14  0.1135E-04  0.7802E-07  0.4903E-03  0.2949E-03  0.5206E+02
   -0.199991   30.56420  0.8030E-14  0.1222E-04  0.6948E-07  0.6565E-03  0.2637E-03  0.3399E+02
   -0.249989   30.56606  0.8030E-14  0.1292E-04  0.6387E-07  0.7831E-03  0.2404E-03  0.2523E+02
   -0.299988   30.56758  0.8030E-14  0.1349E-04  0.5987E-07  0.9096E-03  0.2210E-03  0.2024E+02
   -0.349988   30.56886  0.8030E-14  0.1396E-04  0.5688E-07  0.1024E-02  0.2044E-03  0.1730E+02
   -0.399988   30.56997  0.8030E-14  0.1436E-04  0.5455E-07  0.1129E-02  0.1896E-03  0.1550E+02
   -0.449988   30.57096  0.8030E-14  0.1470E-04  0.5266E-07  0.1226E-02  0.1766E-03  0.1450E+02
   -0.499988   30.57185  0.8030E-14  0.1500E-04  0.5111E-07  0.1315E-02  0.1651E-03  0.1417E+02
   -0.549989   30.57266  0.8030E-14  0.1526E-04  0.4981E-07  0.1396E-02  0.1548E-03  0.1393E+02
   -0.599989   30.57342  0.8030E-14  0.1548E-04  0.4872E-07  0.1469E-02  0.1454E-03  0.1401E+02
   -0.649990   30.57412  0.8030E-14  0.1568E-04  0.4781E-07  0.1535E-02  0.1370E-03  0.1412E+02
   -0.699992   30.57479  0.8030E-14  0.1584E-04  0.4705E-07  0.1593E-02  0.1291E-03  0.1453E+02
   -0.749993   30.57543  0.8030E-14  0.1598E-04  0.4642E-07  0.1644E-02  0.1219E-03  0.1495E+02
   -0.799994   30.57603  0.8030E-14  0.1609E-04  0.4591E-07  0.1686E-02  0.1151E-03  0.1569E+02
   -0.849996   30.57662  0.8030E-14  0.1618E-04  0.4551E-07  0.1721E-02  0.1088E-03  0.1643E+02
   -0.899998   30.57719  0.8030E-14  0.1625E-04  0.4522E-07  0.1747E-02  0.1029E-03  0.1756E+02
   -0.949999   30.57775  0.8030E-14  0.1630E-04  0.4503E-07  0.1765E-02  0.9728E-04  0.1873E+02
   -1.000001   30.57829  0.8030E-14  0.1632E-04  0.4494E-07  0.1775E-02  0.9196E-04  0.2040E+02
   -1.050003   30.57883  0.8030E-14  0.1632E-04  0.4497E-07  0.1774E-02  0.8695E-04  0.2305E+02
   -1.100004   30.57937  0.8030E-14  0.1630E-04  0.4511E-07  0.1868E-02  0.8213E-04  0.7618E+02
   -1.150006   30.57988  0.8030E-14  0.1626E-04  0.4541E-07  0.1679E-02  0.7786E-04  0.1789E+03
   -1.200008   30.58044  0.8030E-14  0.1619E-04  0.4584E-07  0.1709E-02  0.7338E-04  0.3384E+02
   -1.250009   30.58099  0.8030E-14  0.1609E-04  0.4646E-07  0.1678E-02  0.6909E-04  0.3640E+02
   -1.300010   30.58155  0.8030E-14  0.1597E-04  0.4730E-07  0.1626E-02  0.6499E-04  0.4270E+02
   -1.350012   30.58213  0.8030E-14  0.1581E-04  0.4844E-07  0.1565E-02  0.6098E-04  0.5179E+02
   -1.400013   30.58273  0.8030E-14  0.1561E-04  0.4996E-07  0.1484E-02  0.5709E-04  0.6449E+02
   -1.450013   30.58336  0.8030E-14  0.1537E-04  0.5203E-07  0.1406E-02  0.5324E-04  0.8362E+02
   -1.500014   30.58404  0.8030E-14  0.1507E-04  0.5490E-07  0.1290E-02  0.4947E-04  0.1159E+03
   -1.550014   30.58478  0.8030E-14  0.1470E-04  0.5896E-07  0.1209E-02  0.4566E-04  0.1716E+03
   -1.600014   30.58559  0.8030E-14  0.1423E-04  0.6526E-07  0.1061E-02  0.4193E-04  0.4235E+03
   -1.650014   30.58660  0.8030E-14  0.1363E-04  0.7504E-07  0.9846E-03  0.3786E-04  0.1146E+04
   -1.700014   30.58774  0.8030E-14  0.1279E-04  0.9236E-07  0.7981E-03  0.3388E-04 -0.2310E+05
   -1.750013   30.58981  0.8030E-14  0.1171E-04  0.1206E-06  0.7237E-03  0.2858E-04  0.1543E+07
   -1.800011   30.59141  0.8030E-14  0.1028E-04  0.1805E-06  0.5033E-03  0.2453E-04  0.2003E+06
   -1.850010   30.59861  0.8030E-14  0.8732E-05  0.2940E-06  0.4652E-03  0.1741E-04  0.9271E+08
   -1.900008   30.59672  0.8030E-14  0.6955E-05  0.6137E-06  0.2150E-03  0.1425E-04 -0.7358E+06
   -1.950005   30.61828  0.8030E-14  0.4907E-05  0.1519E-05  0.1970E-03  0.7672E-05 -0.4622E+07
   -2.000002   30.62036  0.8030E-14  0.0000E+00  0.0000E+00  0.0000E+00  0.1422E-04  0.0000E+00
