 1 - depth, m
 2 - temperature, C
 3 - salinity, kg/kg
 4 - turbulent kinetic energy, m**2/s**2
 5 - dissipation rate, m**2/s**3
 6 - kinematic heat conductance, m**2/s
 7 - modulus of horizontal velocity, m/s
 8 - Richardson number, n/d
   -0.000000   29.73214  0.8498E-14  0.4351E-05  0.2551E-06  0.4673E-04  0.6218E-03  0.6845E+05
   -0.049997   29.76066  0.8498E-14  0.7716E-05  0.1130E-06  0.1791E-03  0.3461E-03  0.7594E+02
   -0.099994   29.77075  0.8498E-14  0.9338E-05  0.7872E-07  0.4032E-03  0.2535E-03  0.1253E+03
   -0.149992   29.77357  0.8498E-14  0.1035E-04  0.6666E-07  0.4814E-03  0.2243E-03  0.6147E+02
   -0.199991   29.77584  0.8498E-14  0.1115E-04  0.5954E-07  0.6395E-03  0.2005E-03  0.4038E+02
   -0.249989   29.77750  0.8498E-14  0.1179E-04  0.5485E-07  0.7626E-03  0.1826E-03  0.3010E+02
   -0.299989   29.77887  0.8498E-14  0.1231E-04  0.5151E-07  0.8843E-03  0.1677E-03  0.2420E+02
   -0.349988   29.78002  0.8498E-14  0.1275E-04  0.4901E-07  0.9948E-03  0.1549E-03  0.2079E+02
   -0.399988   29.78102  0.8498E-14  0.1312E-04  0.4707E-07  0.1096E-02  0.1435E-03  0.1865E+02
   -0.449988   29.78191  0.8498E-14  0.1345E-04  0.4550E-07  0.1190E-02  0.1335E-03  0.1753E+02
   -0.499988   29.78272  0.8498E-14  0.1373E-04  0.4421E-07  0.1276E-02  0.1246E-03  0.1715E+02
   -0.549989   29.78346  0.8498E-14  0.1398E-04  0.4315E-07  0.1355E-02  0.1167E-03  0.1693E+02
   -0.599990   29.78415  0.8498E-14  0.1419E-04  0.4226E-07  0.1427E-02  0.1095E-03  0.1704E+02
   -0.649991   29.78479  0.8498E-14  0.1438E-04  0.4152E-07  0.1491E-02  0.1030E-03  0.1727E+02
   -0.699992   29.78540  0.8498E-14  0.1454E-04  0.4091E-07  0.1548E-02  0.9697E-04  0.1777E+02
   -0.749993   29.78598  0.8498E-14  0.1468E-04  0.4040E-07  0.1598E-02  0.9141E-04  0.1837E+02
   -0.799995   29.78654  0.8498E-14  0.1480E-04  0.4001E-07  0.1640E-02  0.8624E-04  0.1928E+02
   -0.849996   29.78708  0.8498E-14  0.1490E-04  0.3970E-07  0.1675E-02  0.8141E-04  0.2029E+02
   -0.899998   29.78760  0.8498E-14  0.1498E-04  0.3949E-07  0.1701E-02  0.7687E-04  0.2168E+02
   -0.950000   29.78811  0.8498E-14  0.1503E-04  0.3936E-07  0.1720E-02  0.7261E-04  0.2323E+02
   -1.000002   29.78862  0.8498E-14  0.1507E-04  0.3933E-07  0.1731E-02  0.6857E-04  0.2528E+02
   -1.050003   29.78912  0.8498E-14  0.1509E-04  0.3938E-07  0.1733E-02  0.6474E-04  0.2871E+02
   -1.100005   29.78961  0.8498E-14  0.1509E-04  0.3954E-07  0.1812E-02  0.6108E-04  0.9641E+02
   -1.150007   29.79008  0.8498E-14  0.1506E-04  0.3982E-07  0.1661E-02  0.5782E-04  0.2153E+03
   -1.200008   29.79060  0.8498E-14  0.1502E-04  0.4022E-07  0.1679E-02  0.5445E-04  0.4181E+02
   -1.250010   29.79111  0.8498E-14  0.1495E-04  0.4077E-07  0.1650E-02  0.5122E-04  0.4503E+02
   -1.300011   29.79163  0.8498E-14  0.1486E-04  0.4151E-07  0.1603E-02  0.4812E-04  0.5273E+02
   -1.350012   29.79216  0.8498E-14  0.1473E-04  0.4249E-07  0.1546E-02  0.4510E-04  0.6346E+02
   -1.400013   29.79271  0.8498E-14  0.1458E-04  0.4377E-07  0.1472E-02  0.4217E-04  0.7835E+02
   -1.450014   29.79330  0.8498E-14  0.1438E-04  0.4548E-07  0.1398E-02  0.3929E-04  0.1002E+03
   -1.500015   29.79391  0.8498E-14  0.1414E-04  0.4781E-07  0.1290E-02  0.3648E-04  0.1356E+03
   -1.550015   29.79459  0.8498E-14  0.1383E-04  0.5104E-07  0.1207E-02  0.3365E-04  0.1926E+03
   -1.600015   29.79532  0.8498E-14  0.1345E-04  0.5591E-07  0.1065E-02  0.3089E-04  0.3575E+03
   -1.650015   29.79621  0.8498E-14  0.1296E-04  0.6330E-07  0.9869E-03  0.2794E-04  0.5694E+03
   -1.700015   29.79719  0.8498E-14  0.1229E-04  0.7644E-07  0.8056E-03  0.2510E-04 -0.1332E+04
   -1.750014   29.79892  0.8498E-14  0.1137E-04  0.9810E-07  0.7296E-03  0.2135E-04  0.3284E+06
   -1.800012   29.80043  0.8498E-14  0.1013E-04  0.1421E-06  0.5146E-03  0.1838E-04  0.1204E+07
   -1.850011   29.80600  0.8498E-14  0.8661E-05  0.2269E-06  0.4676E-03  0.1337E-04  0.2598E+09
   -1.900009   29.80553  0.8498E-14  0.6894E-05  0.4777E-06  0.2113E-03  0.1080E-04 -0.8070E+08
   -1.950006   29.82402  0.8498E-14  0.4783E-05  0.1203E-05  0.1766E-03  0.5896E-05 -0.3407E+07
   -2.000003   29.82733  0.8498E-14  0.0000E+00  0.0000E+00  0.0000E+00  0.1035E-04  0.0000E+00
