 1 - depth, m
 2 - temperature, C
 3 - salinity, kg/kg
 4 - turbulent kinetic energy, m**2/s**2
 5 - dissipation rate, m**2/s**3
 6 - kinematic heat conductance, m**2/s
 7 - modulus of horizontal velocity, m/s
 8 - Richardson number, n/d
   -0.000000   30.67530  0.5741E-14  0.5127E-05  0.3304E-06  0.5177E-04  0.8869E-03  0.3036E+04
   -0.049997   30.70965  0.5741E-14  0.8877E-05  0.1472E-06  0.1817E-03  0.5148E-03  0.1130E+03
   -0.099994   30.72257  0.5741E-14  0.1074E-04  0.1014E-06  0.4136E-03  0.3755E-03  0.9809E+02
   -0.149992   30.72615  0.5741E-14  0.1189E-04  0.8552E-07  0.4879E-03  0.3334E-03  0.4829E+02
   -0.199991   30.72906  0.5741E-14  0.1278E-04  0.7610E-07  0.6511E-03  0.2984E-03  0.3171E+02
   -0.249989   30.73117  0.5741E-14  0.1348E-04  0.6989E-07  0.7752E-03  0.2723E-03  0.2347E+02
   -0.299988   30.73289  0.5741E-14  0.1404E-04  0.6543E-07  0.8978E-03  0.2504E-03  0.1888E+02
   -0.349988   30.73433  0.5741E-14  0.1449E-04  0.6206E-07  0.1008E-02  0.2317E-03  0.1607E+02
   -0.399988   30.73558  0.5741E-14  0.1487E-04  0.5943E-07  0.1108E-02  0.2150E-03  0.1449E+02
   -0.449988   30.73669  0.5741E-14  0.1519E-04  0.5728E-07  0.1199E-02  0.2004E-03  0.1353E+02
   -0.499988   30.73770  0.5741E-14  0.1546E-04  0.5549E-07  0.1282E-02  0.1873E-03  0.1337E+02
   -0.549988   30.73862  0.5741E-14  0.1568E-04  0.5399E-07  0.1356E-02  0.1757E-03  0.1312E+02
   -0.599989   30.73947  0.5741E-14  0.1587E-04  0.5271E-07  0.1422E-02  0.1651E-03  0.1335E+02
   -0.649990   30.74027  0.5741E-14  0.1601E-04  0.5163E-07  0.1479E-02  0.1554E-03  0.1343E+02
   -0.699991   30.74103  0.5741E-14  0.1613E-04  0.5071E-07  0.1529E-02  0.1465E-03  0.1400E+02
   -0.749993   30.74175  0.5741E-14  0.1621E-04  0.4993E-07  0.1569E-02  0.1382E-03  0.1438E+02
   -0.799994   30.74244  0.5741E-14  0.1627E-04  0.4929E-07  0.1601E-02  0.1305E-03  0.1532E+02
   -0.849996   30.74310  0.5741E-14  0.1629E-04  0.4877E-07  0.1624E-02  0.1233E-03  0.1604E+02
   -0.899997   30.74375  0.5741E-14  0.1629E-04  0.4837E-07  0.1637E-02  0.1165E-03  0.1744E+02
   -0.949999   30.74438  0.5741E-14  0.1626E-04  0.4810E-07  0.1641E-02  0.1101E-03  0.1865E+02
   -1.000001   30.74500  0.5741E-14  0.1620E-04  0.4796E-07  0.1636E-02  0.1040E-03  0.2076E+02
   -1.050003   30.74561  0.5741E-14  0.1611E-04  0.4796E-07  0.1617E-02  0.9823E-04  0.2355E+02
   -1.100004   30.74623  0.5741E-14  0.1600E-04  0.4811E-07  0.1771E-02  0.9266E-04  0.7221E+02
   -1.150006   30.74678  0.5741E-14  0.1585E-04  0.4848E-07  0.1409E-02  0.8793E-04  0.2288E+03
   -1.200007   30.74747  0.5741E-14  0.1567E-04  0.4903E-07  0.1488E-02  0.8245E-04  0.3837E+02
   -1.250009   30.74811  0.5741E-14  0.1545E-04  0.4988E-07  0.1446E-02  0.7742E-04  0.4192E+02
   -1.300010   30.74877  0.5741E-14  0.1519E-04  0.5108E-07  0.1366E-02  0.7258E-04  0.5122E+02
   -1.350011   30.74945  0.5741E-14  0.1488E-04  0.5279E-07  0.1296E-02  0.6783E-04  0.6576E+02
   -1.400012   30.75018  0.5741E-14  0.1451E-04  0.5523E-07  0.1165E-02  0.6319E-04  0.8885E+02
   -1.450013   30.75098  0.5741E-14  0.1406E-04  0.5874E-07  0.1116E-02  0.5848E-04  0.1245E+03
   -1.500014   30.75184  0.5741E-14  0.1352E-04  0.6402E-07  0.9281E-03  0.5395E-04  0.2022E+03
   -1.550014   30.75291  0.5741E-14  0.1285E-04  0.7181E-07  0.9434E-03  0.4897E-04  0.3351E+03
   -1.600014   30.75398  0.5741E-14  0.1201E-04  0.8650E-07  0.7252E-03  0.4460E-04  0.1206E+04
   -1.650014   30.75586  0.5741E-14  0.1078E-04  0.1083E-06  0.7236E-03  0.3828E-04 -0.6848E+03
   -1.700013   30.75761  0.5741E-14  0.9117E-05  0.1489E-06  0.4612E-03  0.3314E-04 -0.2658E+04
   -1.750012   30.76351  0.5741E-14  0.7233E-05  0.2159E-06  0.4918E-03  0.2227E-04  0.7999E+05
   -1.800011   30.76342  0.5741E-14  0.5766E-05  0.3559E-06  0.2749E-03  0.1977E-04 -0.3698E+05
   -1.850009   30.78554  0.5741E-14  0.4512E-05  0.6532E-06  0.3409E-03  0.9023E-05  0.3127E+08
   -1.900007   30.76727  0.5741E-14  0.3848E-05  0.1407E-05  0.1748E-03  0.9088E-05 -0.4253E+07
   -1.950005   30.80261  0.5741E-14  0.2972E-05  0.3078E-05  0.3026E-03  0.3636E-05  0.2838E+04
   -2.000002   30.79853  0.5741E-14  0.0000E+00  0.0000E+00  0.0000E+00  0.1438E-04  0.0000E+00
