 1 - depth, m
 2 - temperature, C
 3 - salinity, kg/kg
 4 - turbulent kinetic energy, m**2/s**2
 5 - dissipation rate, m**2/s**3
 6 - kinematic heat conductance, m**2/s
 7 - modulus of horizontal velocity, m/s
 8 - Richardson number, n/d
   -0.000000   30.76747  0.6519E-14  0.4844E-05  0.3014E-06  0.4938E-04  0.6702E-03  0.2886E+05
   -0.049997   30.79947  0.6519E-14  0.8496E-05  0.1338E-06  0.1849E-03  0.3764E-03  0.8203E+02
   -0.099994   30.81080  0.6520E-14  0.1027E-04  0.9283E-07  0.4131E-03  0.2771E-03  0.1164E+03
   -0.149992   30.81401  0.6520E-14  0.1138E-04  0.7832E-07  0.4920E-03  0.2454E-03  0.5729E+02
   -0.199991   30.81658  0.6520E-14  0.1225E-04  0.6974E-07  0.6560E-03  0.2195E-03  0.3736E+02
   -0.249989   30.81845  0.6520E-14  0.1294E-04  0.6409E-07  0.7823E-03  0.2002E-03  0.2777E+02
   -0.299988   30.81998  0.6520E-14  0.1350E-04  0.6004E-07  0.9079E-03  0.1840E-03  0.2222E+02
   -0.349988   30.82126  0.6520E-14  0.1396E-04  0.5700E-07  0.1022E-02  0.1701E-03  0.1902E+02
   -0.399988   30.82237  0.6520E-14  0.1435E-04  0.5462E-07  0.1125E-02  0.1578E-03  0.1700E+02
   -0.449988   30.82336  0.6520E-14  0.1468E-04  0.5269E-07  0.1222E-02  0.1470E-03  0.1594E+02
   -0.499988   30.82425  0.6520E-14  0.1497E-04  0.5109E-07  0.1310E-02  0.1373E-03  0.1553E+02
   -0.549989   30.82506  0.6520E-14  0.1522E-04  0.4974E-07  0.1391E-02  0.1287E-03  0.1529E+02
   -0.599989   30.82581  0.6520E-14  0.1544E-04  0.4861E-07  0.1464E-02  0.1209E-03  0.1533E+02
   -0.649990   30.82652  0.6520E-14  0.1562E-04  0.4765E-07  0.1529E-02  0.1138E-03  0.1549E+02
   -0.699992   30.82718  0.6520E-14  0.1577E-04  0.4684E-07  0.1587E-02  0.1073E-03  0.1588E+02
   -0.749993   30.82781  0.6520E-14  0.1590E-04  0.4616E-07  0.1637E-02  0.1012E-03  0.1637E+02
   -0.799994   30.82841  0.6520E-14  0.1601E-04  0.4560E-07  0.1679E-02  0.9561E-04  0.1710E+02
   -0.849996   30.82899  0.6520E-14  0.1609E-04  0.4515E-07  0.1714E-02  0.9035E-04  0.1794E+02
   -0.899998   30.82956  0.6520E-14  0.1614E-04  0.4480E-07  0.1740E-02  0.8540E-04  0.1909E+02
   -0.949999   30.83011  0.6520E-14  0.1618E-04  0.4455E-07  0.1758E-02  0.8074E-04  0.2040E+02
   -1.000001   30.83064  0.6520E-14  0.1619E-04  0.4441E-07  0.1767E-02  0.7632E-04  0.2211E+02
   -1.050003   30.83117  0.6520E-14  0.1618E-04  0.4438E-07  0.1767E-02  0.7213E-04  0.2501E+02
   -1.100004   30.83170  0.6520E-14  0.1615E-04  0.4446E-07  0.1860E-02  0.6813E-04  0.8247E+02
   -1.150006   30.83219  0.6520E-14  0.1610E-04  0.4468E-07  0.1672E-02  0.6457E-04  0.1925E+03
   -1.200008   30.83274  0.6520E-14  0.1602E-04  0.4504E-07  0.1704E-02  0.6084E-04  0.3650E+02
   -1.250009   30.83327  0.6520E-14  0.1591E-04  0.4558E-07  0.1672E-02  0.5728E-04  0.3907E+02
   -1.300010   30.83382  0.6520E-14  0.1578E-04  0.4633E-07  0.1621E-02  0.5386E-04  0.4581E+02
   -1.350012   30.83437  0.6520E-14  0.1561E-04  0.4737E-07  0.1560E-02  0.5053E-04  0.5532E+02
   -1.400013   30.83495  0.6520E-14  0.1540E-04  0.4878E-07  0.1480E-02  0.4729E-04  0.6869E+02
   -1.450014   30.83555  0.6520E-14  0.1515E-04  0.5071E-07  0.1401E-02  0.4410E-04  0.8880E+02
   -1.500014   30.83620  0.6520E-14  0.1485E-04  0.5339E-07  0.1287E-02  0.4097E-04  0.1219E+03
   -1.550014   30.83691  0.6520E-14  0.1448E-04  0.5723E-07  0.1201E-02  0.3780E-04  0.1794E+03
   -1.600015   30.83768  0.6520E-14  0.1401E-04  0.6314E-07  0.1059E-02  0.3471E-04  0.9982E+04
   -1.650014   30.83862  0.6520E-14  0.1341E-04  0.7243E-07  0.9750E-03  0.3136E-04  0.5108E+04
   -1.700014   30.83973  0.6520E-14  0.1258E-04  0.8890E-07  0.7993E-03  0.2804E-04  0.1865E+05
   -1.750013   30.84165  0.6520E-14  0.1151E-04  0.1157E-06  0.7152E-03  0.2366E-04  0.5337E+06
   -1.800012   30.84320  0.6520E-14  0.1007E-04  0.1732E-06  0.4960E-03  0.2031E-04  0.7651E+06
   -1.850010   30.85013  0.6520E-14  0.8515E-05  0.2818E-06  0.4570E-03  0.1437E-04  0.1243E+09
   -1.900008   30.84839  0.6520E-14  0.6722E-05  0.5875E-06  0.2083E-03  0.1170E-04 -0.2081E+07
   -1.950005   30.86886  0.6520E-14  0.4743E-05  0.1439E-05  0.1969E-03  0.6227E-05 -0.1476E+07
   -2.000002   30.86913  0.6520E-14  0.0000E+00  0.0000E+00  0.0000E+00  0.1176E-04  0.0000E+00
