 1 - depth, m
 2 - temperature, C
 3 - salinity, kg/kg
 4 - turbulent kinetic energy, m**2/s**2
 5 - dissipation rate, m**2/s**3
 6 - kinematic heat conductance, m**2/s
 7 - modulus of horizontal velocity, m/s
 8 - Richardson number, n/d
   -0.000000   30.56571  0.6548E-13  0.4957E-05  0.2983E-06  0.5068E-04  0.2234E-02  0.3514E+04
   -0.049997   30.59569  0.6548E-13  0.8319E-05  0.1322E-06  0.1838E-03  0.1240E-02  0.1561E+03
   -0.099994   30.60630  0.6548E-13  0.9993E-05  0.9181E-07  0.3903E-03  0.9323E-03  0.1029E+02
   -0.149992   30.60956  0.6548E-13  0.1106E-04  0.7693E-07  0.4787E-03  0.8230E-03  0.5095E+01
   -0.199991   30.61209  0.6548E-13  0.1190E-04  0.6822E-07  0.6337E-03  0.7362E-03  0.3278E+01
   -0.249989   30.61395  0.6548E-13  0.1256E-04  0.6252E-07  0.7581E-03  0.6706E-03  0.2412E+01
   -0.299988   30.61546  0.6548E-13  0.1311E-04  0.5846E-07  0.8795E-03  0.6161E-03  0.1924E+01
   -0.349988   30.61673  0.6548E-13  0.1356E-04  0.5541E-07  0.9884E-03  0.5692E-03  0.1655E+01
   -0.399988   30.61783  0.6548E-13  0.1394E-04  0.5302E-07  0.1090E-02  0.5275E-03  0.1517E+01
   -0.449988   30.61881  0.6548E-13  0.1428E-04  0.5105E-07  0.1189E-02  0.4900E-03  0.1458E+01
   -0.499988   30.61969  0.6548E-13  0.1458E-04  0.4940E-07  0.1282E-02  0.4563E-03  0.1443E+01
   -0.549989   30.62049  0.6548E-13  0.1483E-04  0.4801E-07  0.1368E-02  0.4259E-03  0.1427E+01
   -0.599989   30.62123  0.6548E-13  0.1506E-04  0.4685E-07  0.1446E-02  0.3983E-03  0.1429E+01
   -0.649990   30.62191  0.6548E-13  0.1524E-04  0.4587E-07  0.1516E-02  0.3733E-03  0.1428E+01
   -0.699992   30.62255  0.6548E-13  0.1540E-04  0.4505E-07  0.1577E-02  0.3505E-03  0.1445E+01
   -0.749993   30.62316  0.6548E-13  0.1553E-04  0.4437E-07  0.1629E-02  0.3296E-03  0.1460E+01
   -0.799994   30.62375  0.6548E-13  0.1564E-04  0.4382E-07  0.1672E-02  0.3105E-03  0.1501E+01
   -0.849996   30.62431  0.6548E-13  0.1572E-04  0.4338E-07  0.1706E-02  0.2928E-03  0.1547E+01
   -0.899998   30.62485  0.6548E-13  0.1578E-04  0.4305E-07  0.1732E-02  0.2764E-03  0.1630E+01
   -0.949999   30.62538  0.6548E-13  0.1581E-04  0.4282E-07  0.1749E-02  0.2612E-03  0.1725E+01
   -1.000001   30.62590  0.6548E-13  0.1583E-04  0.4268E-07  0.1759E-02  0.2467E-03  0.1866E+01
   -1.050003   30.62641  0.6548E-13  0.1582E-04  0.4266E-07  0.1759E-02  0.2331E-03  0.2104E+01
   -1.100004   30.62692  0.6548E-13  0.1580E-04  0.4274E-07  0.1849E-02  0.2201E-03  0.6977E+01
   -1.150006   30.62740  0.6548E-13  0.1575E-04  0.4296E-07  0.1669E-02  0.2085E-03  0.1605E+02
   -1.200008   30.62793  0.6548E-13  0.1567E-04  0.4330E-07  0.1698E-02  0.1964E-03  0.3050E+01
   -1.250009   30.62845  0.6548E-13  0.1558E-04  0.4382E-07  0.1667E-02  0.1849E-03  0.3265E+01
   -1.300010   30.62898  0.6548E-13  0.1545E-04  0.4454E-07  0.1617E-02  0.1738E-03  0.3806E+01
   -1.350012   30.62951  0.6548E-13  0.1529E-04  0.4553E-07  0.1557E-02  0.1630E-03  0.4590E+01
   -1.400013   30.63007  0.6548E-13  0.1510E-04  0.4686E-07  0.1479E-02  0.1525E-03  0.5658E+01
   -1.450013   30.63066  0.6548E-13  0.1486E-04  0.4867E-07  0.1401E-02  0.1422E-03  0.7275E+01
   -1.500014   30.63128  0.6548E-13  0.1458E-04  0.5119E-07  0.1288E-02  0.1321E-03  0.9901E+01
   -1.550014   30.63196  0.6548E-13  0.1423E-04  0.5476E-07  0.1205E-02  0.1219E-03  0.1427E+02
   -1.600014   30.63270  0.6548E-13  0.1379E-04  0.6024E-07  0.1060E-02  0.1119E-03  0.2852E+02
   -1.650014   30.63361  0.6548E-13  0.1322E-04  0.6874E-07  0.9802E-03  0.1011E-03  0.1763E+04
   -1.700014   30.63463  0.6548E-13  0.1245E-04  0.8390E-07  0.7988E-03  0.9059E-04  0.9069E+01
   -1.750013   30.63646  0.6548E-13  0.1142E-04  0.1088E-06  0.7200E-03  0.7661E-04  0.1583E+06
   -1.800011   30.63794  0.6548E-13  0.1004E-04  0.1633E-06  0.4977E-03  0.6581E-04  0.1086E+05
   -1.850010   30.64431  0.6548E-13  0.8508E-05  0.2636E-06  0.4576E-03  0.4689E-04  0.3654E+07
   -1.900008   30.64296  0.6548E-13  0.6718E-05  0.5562E-06  0.2096E-03  0.3812E-04 -0.3091E+05
   -1.950005   30.66239  0.6548E-13  0.4708E-05  0.1378E-05  0.1910E-03  0.2039E-04 -0.2625E+06
   -2.000002   30.66443  0.6548E-13  0.0000E+00  0.0000E+00  0.0000E+00  0.3779E-04  0.0000E+00
