 1 - depth, m
 2 - temperature, C
 3 - salinity, kg/kg
 4 - turbulent kinetic energy, m**2/s**2
 5 - dissipation rate, m**2/s**3
 6 - kinematic heat conductance, m**2/s
 7 - modulus of horizontal velocity, m/s
 8 - Richardson number, n/d
   -0.000000   30.44414  0.5634E-14  0.4862E-05  0.3040E-06  0.5078E-04  0.1448E-02  0.8274E+04
   -0.049997   30.47489  0.5634E-14  0.8336E-05  0.1357E-06  0.1774E-03  0.8276E-03  0.6704E+04
   -0.099994   30.48680  0.5635E-14  0.1012E-04  0.9341E-07  0.3998E-03  0.6065E-03  0.2257E+02
   -0.149992   30.49010  0.5635E-14  0.1123E-04  0.7836E-07  0.4803E-03  0.5356E-03  0.1105E+02
   -0.199991   30.49273  0.5635E-14  0.1210E-04  0.6954E-07  0.6428E-03  0.4782E-03  0.7081E+01
   -0.249989   30.49463  0.5635E-14  0.1279E-04  0.6376E-07  0.7686E-03  0.4354E-03  0.5220E+01
   -0.299988   30.49618  0.5635E-14  0.1335E-04  0.5964E-07  0.8941E-03  0.3997E-03  0.4148E+01
   -0.349988   30.49748  0.5635E-14  0.1381E-04  0.5654E-07  0.1008E-02  0.3691E-03  0.3543E+01
   -0.399988   30.49860  0.5635E-14  0.1420E-04  0.5413E-07  0.1112E-02  0.3422E-03  0.3154E+01
   -0.449988   30.49959  0.5635E-14  0.1453E-04  0.5217E-07  0.1208E-02  0.3184E-03  0.2958E+01
   -0.499988   30.50049  0.5635E-14  0.1482E-04  0.5054E-07  0.1297E-02  0.2974E-03  0.2874E+01
   -0.549989   30.50131  0.5635E-14  0.1507E-04  0.4918E-07  0.1378E-02  0.2786E-03  0.2833E+01
   -0.599990   30.50206  0.5635E-14  0.1528E-04  0.4803E-07  0.1452E-02  0.2616E-03  0.2830E+01
   -0.649991   30.50277  0.5635E-14  0.1547E-04  0.4705E-07  0.1518E-02  0.2460E-03  0.2862E+01
   -0.699992   30.50343  0.5635E-14  0.1562E-04  0.4622E-07  0.1577E-02  0.2318E-03  0.2922E+01
   -0.749993   30.50407  0.5635E-14  0.1575E-04  0.4552E-07  0.1628E-02  0.2186E-03  0.3013E+01
   -0.799995   30.50467  0.5635E-14  0.1585E-04  0.4493E-07  0.1671E-02  0.2063E-03  0.3134E+01
   -0.849996   30.50525  0.5635E-14  0.1593E-04  0.4445E-07  0.1706E-02  0.1949E-03  0.3290E+01
   -0.899998   30.50581  0.5635E-14  0.1598E-04  0.4408E-07  0.1734E-02  0.1841E-03  0.3481E+01
   -0.949999   30.50636  0.5635E-14  0.1602E-04  0.4380E-07  0.1753E-02  0.1740E-03  0.3719E+01
   -1.000001   30.50689  0.5635E-14  0.1603E-04  0.4362E-07  0.1764E-02  0.1644E-03  0.4006E+01
   -1.050003   30.50742  0.5635E-14  0.1602E-04  0.4355E-07  0.1766E-02  0.1553E-03  0.4528E+01
   -1.100005   30.50794  0.5635E-14  0.1599E-04  0.4359E-07  0.1852E-02  0.1467E-03  0.1501E+02
   -1.150006   30.50843  0.5635E-14  0.1594E-04  0.4376E-07  0.1683E-02  0.1389E-03  0.3380E+02
   -1.200008   30.50896  0.5635E-14  0.1586E-04  0.4405E-07  0.1709E-02  0.1309E-03  0.6491E+01
   -1.250009   30.50949  0.5635E-14  0.1576E-04  0.4452E-07  0.1679E-02  0.1232E-03  0.6903E+01
   -1.300011   30.51002  0.5635E-14  0.1563E-04  0.4519E-07  0.1631E-02  0.1158E-03  0.8045E+01
   -1.350012   30.51056  0.5635E-14  0.1547E-04  0.4612E-07  0.1572E-02  0.1087E-03  0.9611E+01
   -1.400013   30.51112  0.5635E-14  0.1527E-04  0.4739E-07  0.1496E-02  0.1017E-03  0.1182E+02
   -1.450014   30.51171  0.5635E-14  0.1503E-04  0.4913E-07  0.1418E-02  0.9482E-04  0.1504E+02
   -1.500014   30.51233  0.5635E-14  0.1474E-04  0.5154E-07  0.1307E-02  0.8809E-04  0.2032E+02
   -1.550015   30.51301  0.5635E-14  0.1439E-04  0.5497E-07  0.1222E-02  0.8133E-04  0.2889E+02
   -1.600015   30.51374  0.5635E-14  0.1395E-04  0.6019E-07  0.1078E-02  0.7470E-04  0.5609E+02
   -1.650014   30.51462  0.5635E-14  0.1340E-04  0.6830E-07  0.1000E-02  0.6764E-04  0.3111E+05
   -1.700014   30.51562  0.5635E-14  0.1263E-04  0.8287E-07  0.8167E-03  0.6070E-04  0.2882E+05
   -1.750013   30.51734  0.5635E-14  0.1162E-04  0.1069E-06  0.7360E-03  0.5157E-04  0.1634E+06
   -1.800012   30.51887  0.5635E-14  0.1025E-04  0.1574E-06  0.5184E-03  0.4424E-04  0.5266E+04
   -1.850010   30.52464  0.5635E-14  0.8715E-05  0.2513E-06  0.4720E-03  0.3187E-04  0.3051E+08
   -1.900008   30.52366  0.5635E-14  0.6922E-05  0.5217E-06  0.2197E-03  0.2593E-04 -0.6215E+05
   -1.950005   30.54194  0.5635E-14  0.4824E-05  0.1315E-05  0.1853E-03  0.1409E-04 -0.1219E+07
   -2.000002   30.54393  0.5635E-14  0.0000E+00  0.0000E+00  0.0000E+00  0.2546E-04  0.0000E+00
