 1 - depth, m
 2 - temperature, C
 3 - salinity, kg/kg
 4 - turbulent kinetic energy, m**2/s**2
 5 - dissipation rate, m**2/s**3
 6 - kinematic heat conductance, m**2/s
 7 - modulus of horizontal velocity, m/s
 8 - Richardson number, n/d
   -0.000000   30.67150  0.9244E-14  0.5124E-05  0.3300E-06  0.5175E-04  0.8870E-03  0.3259E+04
   -0.049997   30.70583  0.9244E-14  0.8871E-05  0.1471E-06  0.1817E-03  0.5148E-03  0.1132E+03
   -0.099994   30.71874  0.9244E-14  0.1073E-04  0.1013E-06  0.4135E-03  0.3755E-03  0.9806E+02
   -0.149992   30.72232  0.9244E-14  0.1188E-04  0.8542E-07  0.4878E-03  0.3334E-03  0.4827E+02
   -0.199991   30.72522  0.9244E-14  0.1277E-04  0.7601E-07  0.6508E-03  0.2984E-03  0.3170E+02
   -0.249989   30.72733  0.9244E-14  0.1346E-04  0.6980E-07  0.7749E-03  0.2723E-03  0.2346E+02
   -0.299988   30.72905  0.9244E-14  0.1403E-04  0.6535E-07  0.8974E-03  0.2505E-03  0.1887E+02
   -0.349988   30.73049  0.9244E-14  0.1448E-04  0.6199E-07  0.1008E-02  0.2317E-03  0.1606E+02
   -0.399988   30.73174  0.9244E-14  0.1486E-04  0.5936E-07  0.1107E-02  0.2150E-03  0.1448E+02
   -0.449988   30.73285  0.9244E-14  0.1518E-04  0.5721E-07  0.1198E-02  0.2004E-03  0.1353E+02
   -0.499988   30.73386  0.9244E-14  0.1545E-04  0.5542E-07  0.1281E-02  0.1873E-03  0.1337E+02
   -0.549988   30.73478  0.9244E-14  0.1567E-04  0.5392E-07  0.1355E-02  0.1757E-03  0.1311E+02
   -0.599989   30.73563  0.9244E-14  0.1585E-04  0.5265E-07  0.1421E-02  0.1651E-03  0.1334E+02
   -0.649990   30.73643  0.9244E-14  0.1600E-04  0.5156E-07  0.1479E-02  0.1554E-03  0.1343E+02
   -0.699991   30.73719  0.9244E-14  0.1611E-04  0.5064E-07  0.1528E-02  0.1464E-03  0.1400E+02
   -0.749993   30.73791  0.9244E-14  0.1620E-04  0.4987E-07  0.1568E-02  0.1382E-03  0.1437E+02
   -0.799994   30.73859  0.9244E-14  0.1625E-04  0.4922E-07  0.1600E-02  0.1305E-03  0.1531E+02
   -0.849996   30.73926  0.9244E-14  0.1628E-04  0.4870E-07  0.1623E-02  0.1233E-03  0.1603E+02
   -0.899997   30.73990  0.9244E-14  0.1627E-04  0.4831E-07  0.1637E-02  0.1165E-03  0.1743E+02
   -0.949999   30.74053  0.9244E-14  0.1625E-04  0.4804E-07  0.1641E-02  0.1101E-03  0.1864E+02
   -1.000001   30.74115  0.9244E-14  0.1619E-04  0.4789E-07  0.1636E-02  0.1040E-03  0.2075E+02
   -1.050003   30.74177  0.9244E-14  0.1610E-04  0.4789E-07  0.1616E-02  0.9821E-04  0.2354E+02
   -1.100004   30.74238  0.9244E-14  0.1599E-04  0.4804E-07  0.1770E-02  0.9264E-04  0.7218E+02
   -1.150006   30.74293  0.9244E-14  0.1584E-04  0.4841E-07  0.1408E-02  0.8791E-04  0.2286E+03
   -1.200007   30.74362  0.9244E-14  0.1566E-04  0.4897E-07  0.1487E-02  0.8243E-04  0.3835E+02
   -1.250009   30.74426  0.9244E-14  0.1544E-04  0.4981E-07  0.1446E-02  0.7740E-04  0.4189E+02
   -1.300010   30.74492  0.9244E-14  0.1518E-04  0.5101E-07  0.1365E-02  0.7257E-04  0.5119E+02
   -1.350011   30.74560  0.9244E-14  0.1487E-04  0.5272E-07  0.1296E-02  0.6781E-04  0.6572E+02
   -1.400012   30.74633  0.9244E-14  0.1449E-04  0.5515E-07  0.1165E-02  0.6318E-04  0.8877E+02
   -1.450013   30.74713  0.9244E-14  0.1405E-04  0.5865E-07  0.1115E-02  0.5846E-04  0.1244E+03
   -1.500014   30.74799  0.9244E-14  0.1351E-04  0.6391E-07  0.9280E-03  0.5393E-04  0.2020E+03
   -1.550014   30.74906  0.9244E-14  0.1284E-04  0.7170E-07  0.9429E-03  0.4895E-04  0.3346E+03
   -1.600014   30.75013  0.9244E-14  0.1200E-04  0.8634E-07  0.7252E-03  0.4459E-04  0.1198E+04
   -1.650014   30.75200  0.9244E-14  0.1078E-04  0.1080E-06  0.7234E-03  0.3827E-04 -0.6871E+03
   -1.700013   30.75375  0.9244E-14  0.9113E-05  0.1486E-06  0.4611E-03  0.3313E-04 -0.2656E+04
   -1.750012   30.75964  0.9244E-14  0.7230E-05  0.2154E-06  0.4917E-03  0.2227E-04  0.8177E+05
   -1.800011   30.75955  0.9244E-14  0.5763E-05  0.3551E-06  0.2749E-03  0.1976E-04 -0.3691E+05
   -1.850009   30.78165  0.9244E-14  0.4508E-05  0.6518E-06  0.3407E-03  0.9022E-05  0.3194E+08
   -1.900007   30.76340  0.9244E-14  0.3845E-05  0.1405E-05  0.1747E-03  0.9084E-05 -0.4241E+07
   -1.950005   30.79870  0.9244E-14  0.2969E-05  0.3072E-05  0.3023E-03  0.3634E-05  0.2633E+04
   -2.000002   30.79478  0.9244E-14  0.0000E+00  0.0000E+00  0.0000E+00  0.1437E-04  0.0000E+00
