 1 - depth, m
 2 - temperature, C
 3 - salinity, kg/kg
 4 - turbulent kinetic energy, m**2/s**2
 5 - dissipation rate, m**2/s**3
 6 - kinematic heat conductance, m**2/s
 7 - modulus of horizontal velocity, m/s
 8 - Richardson number, n/d
   -0.000000   30.92482  0.8578E-14  0.4918E-05  0.3095E-06  0.4997E-04  0.6331E-03  0.7502E+05
   -0.049997   30.95703  0.8578E-14  0.8638E-05  0.1374E-06  0.1866E-03  0.3573E-03  0.2196E+03
   -0.099994   30.96848  0.8578E-14  0.1045E-04  0.9527E-07  0.4175E-03  0.2623E-03  0.1391E+03
   -0.149992   30.97170  0.8578E-14  0.1159E-04  0.8039E-07  0.4961E-03  0.2325E-03  0.6876E+02
   -0.199991   30.97429  0.8578E-14  0.1248E-04  0.7161E-07  0.6628E-03  0.2081E-03  0.4496E+02
   -0.249989   30.97618  0.8578E-14  0.1318E-04  0.6584E-07  0.7902E-03  0.1898E-03  0.3336E+02
   -0.299988   30.97772  0.8578E-14  0.1376E-04  0.6172E-07  0.9175E-03  0.1745E-03  0.2677E+02
   -0.349988   30.97901  0.8578E-14  0.1424E-04  0.5863E-07  0.1032E-02  0.1614E-03  0.2284E+02
   -0.399988   30.98014  0.8578E-14  0.1464E-04  0.5622E-07  0.1137E-02  0.1498E-03  0.2048E+02
   -0.449988   30.98114  0.8578E-14  0.1499E-04  0.5427E-07  0.1235E-02  0.1396E-03  0.1912E+02
   -0.499988   30.98204  0.8578E-14  0.1529E-04  0.5266E-07  0.1324E-02  0.1306E-03  0.1872E+02
   -0.549989   30.98287  0.8578E-14  0.1555E-04  0.5132E-07  0.1406E-02  0.1225E-03  0.1835E+02
   -0.599989   30.98363  0.8578E-14  0.1577E-04  0.5019E-07  0.1479E-02  0.1151E-03  0.1849E+02
   -0.649990   30.98435  0.8578E-14  0.1597E-04  0.4924E-07  0.1545E-02  0.1084E-03  0.1860E+02
   -0.699992   30.98502  0.8578E-14  0.1613E-04  0.4845E-07  0.1603E-02  0.1022E-03  0.1917E+02
   -0.749993   30.98566  0.8578E-14  0.1626E-04  0.4779E-07  0.1653E-02  0.9650E-04  0.1967E+02
   -0.799994   30.98628  0.8578E-14  0.1638E-04  0.4726E-07  0.1695E-02  0.9117E-04  0.2068E+02
   -0.849996   30.98687  0.8578E-14  0.1646E-04  0.4684E-07  0.1729E-02  0.8620E-04  0.2161E+02
   -0.899997   30.98745  0.8578E-14  0.1653E-04  0.4653E-07  0.1755E-02  0.8151E-04  0.2314E+02
   -0.949999   30.98801  0.8578E-14  0.1657E-04  0.4632E-07  0.1772E-02  0.7711E-04  0.2464E+02
   -1.000001   30.98856  0.8578E-14  0.1659E-04  0.4623E-07  0.1781E-02  0.7292E-04  0.2690E+02
   -1.050003   30.98911  0.8578E-14  0.1658E-04  0.4625E-07  0.1779E-02  0.6895E-04  0.3032E+02
   -1.100004   30.98965  0.8578E-14  0.1656E-04  0.4640E-07  0.1878E-02  0.6514E-04  0.9962E+02
   -1.150006   30.99017  0.8578E-14  0.1650E-04  0.4670E-07  0.1675E-02  0.6178E-04  0.2408E+03
   -1.200007   30.99074  0.8578E-14  0.1643E-04  0.4715E-07  0.1710E-02  0.5822E-04  0.4484E+02
   -1.250009   30.99130  0.8578E-14  0.1632E-04  0.4779E-07  0.1678E-02  0.5483E-04  0.4838E+02
   -1.300010   30.99186  0.8578E-14  0.1618E-04  0.4868E-07  0.1624E-02  0.5158E-04  0.5677E+02
   -1.350011   30.99245  0.8578E-14  0.1601E-04  0.4987E-07  0.1561E-02  0.4841E-04  0.6941E+02
   -1.400012   30.99306  0.8578E-14  0.1580E-04  0.5149E-07  0.1478E-02  0.4532E-04  0.8684E+02
   -1.450013   30.99370  0.8578E-14  0.1554E-04  0.5369E-07  0.1398E-02  0.4226E-04  0.1140E+03
   -1.500014   30.99439  0.8578E-14  0.1522E-04  0.5676E-07  0.1282E-02  0.3927E-04  0.1598E+03
   -1.550014   30.99515  0.8578E-14  0.1483E-04  0.6116E-07  0.1199E-02  0.3623E-04  0.2448E+03
   -1.600014   30.99598  0.8578E-14  0.1433E-04  0.6808E-07  0.1051E-02  0.3325E-04  0.6999E+03
   -1.650014   30.99705  0.8578E-14  0.1368E-04  0.7890E-07  0.9713E-03  0.2997E-04  0.2272E+04
   -1.700013   30.99827  0.8578E-14  0.1279E-04  0.9789E-07  0.7861E-03  0.2675E-04  0.4945E+04
   -1.750012   31.00046  0.8578E-14  0.1165E-04  0.1288E-06  0.7126E-03  0.2246E-04  0.4235E+06
   -1.800011   31.00209  0.8578E-14  0.1018E-04  0.1976E-06  0.4895E-03  0.1931E-04  0.1623E+06
   -1.850009   31.01013  0.8578E-14  0.8622E-05  0.3242E-06  0.4620E-03  0.1354E-04  0.2002E+09
   -1.900007   31.00740  0.8578E-14  0.6851E-05  0.6780E-06  0.2069E-03  0.1114E-04  0.5434E+06
   -1.950005   31.03029  0.8578E-14  0.4853E-05  0.1651E-05  0.2053E-03  0.5898E-05 -0.3110E+07
   -2.000002   31.03183  0.8578E-14  0.0000E+00  0.0000E+00  0.0000E+00  0.1127E-04  0.0000E+00
