 1 - depth, m
 2 - temperature, C
 3 - salinity, kg/kg
 4 - turbulent kinetic energy, m**2/s**2
 5 - dissipation rate, m**2/s**3
 6 - kinematic heat conductance, m**2/s
 7 - modulus of horizontal velocity, m/s
 8 - Richardson number, n/d
   -0.000000   30.08565  0.1124E-13  0.4534E-05  0.2732E-06  0.4855E-04  0.1040E-02  0.7401E+04
   -0.049997   30.11487  0.1124E-13  0.7883E-05  0.1215E-06  0.1753E-03  0.5895E-03  0.5490E+02
   -0.099994   30.12597  0.1124E-13  0.9560E-05  0.8392E-07  0.3968E-03  0.4305E-03  0.4669E+02
   -0.149992   30.12901  0.1124E-13  0.1060E-04  0.7072E-07  0.4754E-03  0.3805E-03  0.2275E+02
   -0.199991   30.13145  0.1124E-13  0.1141E-04  0.6294E-07  0.6331E-03  0.3398E-03  0.1473E+02
   -0.249989   30.13322  0.1124E-13  0.1206E-04  0.5781E-07  0.7558E-03  0.3093E-03  0.1091E+02
   -0.299989   30.13467  0.1124E-13  0.1259E-04  0.5415E-07  0.8776E-03  0.2839E-03  0.8708E+01
   -0.349988   30.13588  0.1124E-13  0.1302E-04  0.5140E-07  0.9879E-03  0.2621E-03  0.7454E+01
   -0.399988   30.13694  0.1124E-13  0.1339E-04  0.4925E-07  0.1089E-02  0.2427E-03  0.6660E+01
   -0.449988   30.13787  0.1124E-13  0.1371E-04  0.4751E-07  0.1182E-02  0.2258E-03  0.6254E+01
   -0.499988   30.13872  0.1124E-13  0.1398E-04  0.4606E-07  0.1268E-02  0.2107E-03  0.6101E+01
   -0.549989   30.13949  0.1124E-13  0.1421E-04  0.4485E-07  0.1347E-02  0.1972E-03  0.6019E+01
   -0.599990   30.14021  0.1124E-13  0.1442E-04  0.4382E-07  0.1418E-02  0.1851E-03  0.6038E+01
   -0.649991   30.14087  0.1124E-13  0.1459E-04  0.4295E-07  0.1482E-02  0.1740E-03  0.6111E+01
   -0.699992   30.14150  0.1124E-13  0.1474E-04  0.4222E-07  0.1539E-02  0.1638E-03  0.6267E+01
   -0.749993   30.14210  0.1124E-13  0.1486E-04  0.4160E-07  0.1588E-02  0.1543E-03  0.6467E+01
   -0.799995   30.14268  0.1124E-13  0.1496E-04  0.4109E-07  0.1630E-02  0.1456E-03  0.6758E+01
   -0.849996   30.14323  0.1124E-13  0.1504E-04  0.4068E-07  0.1664E-02  0.1374E-03  0.7099E+01
   -0.899998   30.14376  0.1124E-13  0.1509E-04  0.4035E-07  0.1690E-02  0.1297E-03  0.7550E+01
   -0.950000   30.14428  0.1124E-13  0.1513E-04  0.4012E-07  0.1709E-02  0.1225E-03  0.8072E+01
   -1.000002   30.14479  0.1124E-13  0.1514E-04  0.3998E-07  0.1719E-02  0.1156E-03  0.8743E+01
   -1.050003   30.14529  0.1124E-13  0.1514E-04  0.3993E-07  0.1720E-02  0.1092E-03  0.9899E+01
   -1.100005   30.14579  0.1124E-13  0.1511E-04  0.3999E-07  0.1804E-02  0.1030E-03  0.3290E+02
   -1.150007   30.14626  0.1124E-13  0.1506E-04  0.4017E-07  0.1640E-02  0.9746E-04  0.7497E+02
   -1.200008   30.14677  0.1124E-13  0.1499E-04  0.4046E-07  0.1664E-02  0.9174E-04  0.1436E+02
   -1.250010   30.14727  0.1124E-13  0.1490E-04  0.4091E-07  0.1634E-02  0.8628E-04  0.1534E+02
   -1.300011   30.14778  0.1124E-13  0.1478E-04  0.4155E-07  0.1586E-02  0.8103E-04  0.1795E+02
   -1.350012   30.14830  0.1124E-13  0.1462E-04  0.4242E-07  0.1528E-02  0.7593E-04  0.2155E+02
   -1.400013   30.14884  0.1124E-13  0.1444E-04  0.4361E-07  0.1453E-02  0.7098E-04  0.2663E+02
   -1.450014   30.14940  0.1124E-13  0.1421E-04  0.4523E-07  0.1377E-02  0.6611E-04  0.3407E+02
   -1.500015   30.15000  0.1124E-13  0.1394E-04  0.4748E-07  0.1268E-02  0.6135E-04  0.4634E+02
   -1.550015   30.15065  0.1124E-13  0.1360E-04  0.5067E-07  0.1184E-02  0.5656E-04  0.6628E+02
   -1.600015   30.15135  0.1124E-13  0.1319E-04  0.5553E-07  0.1043E-02  0.5187E-04  0.1281E+03
   -1.650015   30.15220  0.1124E-13  0.1266E-04  0.6309E-07  0.9657E-03  0.4689E-04  0.1398E+05
   -1.700014   30.15316  0.1124E-13  0.1193E-04  0.7680E-07  0.7885E-03  0.4201E-04  0.1532E+04
   -1.750014   30.15485  0.1124E-13  0.1095E-04  0.9934E-07  0.7076E-03  0.3556E-04  0.4774E+06
   -1.800012   30.15632  0.1124E-13  0.9614E-05  0.1467E-06  0.4928E-03  0.3044E-04  0.1175E+08
   -1.850011   30.16207  0.1124E-13  0.8116E-05  0.2355E-06  0.4502E-03  0.2167E-04  0.6382E+07
   -1.900009   30.16100  0.1124E-13  0.6395E-05  0.4906E-06  0.2042E-03  0.1752E-04  0.9671E+06
   -1.950006   30.17896  0.1124E-13  0.4457E-05  0.1232E-05  0.1837E-03  0.9303E-05 -0.2686E+07
   -2.000003   30.18040  0.1124E-13  0.0000E+00  0.0000E+00  0.0000E+00  0.1738E-04  0.0000E+00
