 1 - depth, m
 2 - temperature, C
 3 - salinity, kg/kg
 4 - turbulent kinetic energy, m**2/s**2
 5 - dissipation rate, m**2/s**3
 6 - kinematic heat conductance, m**2/s
 7 - modulus of horizontal velocity, m/s
 8 - Richardson number, n/d
   -0.000000   30.48529  0.1374E-14  0.5213E-05  0.3058E-06  0.5170E-04  0.2829E-02  0.2584E+04
   -0.049997   30.51542  0.1374E-14  0.8609E-05  0.1335E-06  0.1974E-03  0.1529E-02  0.3091E+03
   -0.099994   30.52511  0.1374E-14  0.1023E-04  0.9403E-07  0.3921E-03  0.1178E-02  0.6027E+01
   -0.149992   30.52838  0.1374E-14  0.1128E-04  0.7900E-07  0.4880E-03  0.1043E-02  0.3100E+01
   -0.199991   30.53090  0.1374E-14  0.1211E-04  0.7021E-07  0.6371E-03  0.9381E-03  0.2026E+01
   -0.249989   30.53278  0.1374E-14  0.1278E-04  0.6447E-07  0.7579E-03  0.8576E-03  0.1521E+01
   -0.299988   30.53431  0.1374E-14  0.1333E-04  0.6039E-07  0.8698E-03  0.7903E-03  0.1273E+01
   -0.349988   30.53562  0.1374E-14  0.1381E-04  0.5724E-07  0.9769E-03  0.7311E-03  0.1233E+01
   -0.399988   30.53676  0.1374E-14  0.1424E-04  0.5468E-07  0.1091E-02  0.6753E-03  0.1241E+01
   -0.449988   30.53776  0.1374E-14  0.1463E-04  0.5251E-07  0.1207E-02  0.6236E-03  0.1254E+01
   -0.499988   30.53864  0.1374E-14  0.1498E-04  0.5070E-07  0.1316E-02  0.5766E-03  0.1262E+01
   -0.549989   30.53944  0.1374E-14  0.1528E-04  0.4919E-07  0.1415E-02  0.5342E-03  0.1262E+01
   -0.599989   30.54017  0.1374E-14  0.1554E-04  0.4793E-07  0.1506E-02  0.4959E-03  0.1257E+01
   -0.649990   30.54084  0.1374E-14  0.1576E-04  0.4688E-07  0.1587E-02  0.4612E-03  0.1249E+01
   -0.699992   30.54147  0.1374E-14  0.1595E-04  0.4603E-07  0.1656E-02  0.4299E-03  0.1235E+01
   -0.749993   30.54207  0.1374E-14  0.1610E-04  0.4534E-07  0.1714E-02  0.4015E-03  0.1219E+01
   -0.799994   30.54264  0.1374E-14  0.1622E-04  0.4480E-07  0.1761E-02  0.3759E-03  0.1200E+01
   -0.849996   30.54319  0.1374E-14  0.1630E-04  0.4440E-07  0.1795E-02  0.3527E-03  0.1182E+01
   -0.899998   30.54372  0.1374E-14  0.1636E-04  0.4411E-07  0.1819E-02  0.3318E-03  0.1175E+01
   -0.949999   30.54424  0.1374E-14  0.1640E-04  0.4394E-07  0.1833E-02  0.3127E-03  0.1190E+01
   -1.000001   30.54476  0.1374E-14  0.1641E-04  0.4388E-07  0.1839E-02  0.2951E-03  0.1231E+01
   -1.050003   30.54526  0.1374E-14  0.1640E-04  0.4392E-07  0.1833E-02  0.2788E-03  0.1354E+01
   -1.100005   30.54577  0.1374E-14  0.1637E-04  0.4407E-07  0.1943E-02  0.2636E-03  0.4368E+01
   -1.150006   30.54624  0.1374E-14  0.1631E-04  0.4436E-07  0.1714E-02  0.2502E-03  0.1033E+02
   -1.200008   30.54678  0.1374E-14  0.1623E-04  0.4478E-07  0.1759E-02  0.2359E-03  0.1954E+01
   -1.250009   30.54729  0.1374E-14  0.1613E-04  0.4538E-07  0.1726E-02  0.2223E-03  0.2082E+01
   -1.300011   30.54782  0.1374E-14  0.1599E-04  0.4620E-07  0.1671E-02  0.2092E-03  0.2446E+01
   -1.350012   30.54836  0.1374E-14  0.1583E-04  0.4730E-07  0.1607E-02  0.1965E-03  0.2937E+01
   -1.400013   30.54892  0.1374E-14  0.1562E-04  0.4878E-07  0.1525E-02  0.1841E-03  0.3649E+01
   -1.450014   30.54952  0.1374E-14  0.1538E-04  0.5077E-07  0.1442E-02  0.1719E-03  0.4679E+01
   -1.500014   30.55015  0.1374E-14  0.1508E-04  0.5352E-07  0.1327E-02  0.1598E-03  0.6418E+01
   -1.550014   30.55084  0.1374E-14  0.1471E-04  0.5744E-07  0.1240E-02  0.1477E-03  0.9422E+01
   -1.600015   30.55159  0.1374E-14  0.1425E-04  0.6347E-07  0.1090E-02  0.1357E-03  0.2068E+02
   -1.650014   30.55253  0.1374E-14  0.1365E-04  0.7284E-07  0.1009E-02  0.1227E-03  0.2372E+03
   -1.700014   30.55362  0.1374E-14  0.1283E-04  0.8913E-07  0.8190E-03  0.1098E-03  0.1782E+03
   -1.750013   30.55547  0.1374E-14  0.1179E-04  0.1154E-06  0.7448E-03  0.9301E-04  0.2705E+05
   -1.800012   30.55692  0.1374E-14  0.1039E-04  0.1718E-06  0.5128E-03  0.8029E-04  0.6219E+07
   -1.850010   30.56357  0.1374E-14  0.8836E-05  0.2790E-06  0.4759E-03  0.5716E-04  0.3956E+07
   -1.900008   30.56200  0.1374E-14  0.6993E-05  0.5840E-06  0.2147E-03  0.4684E-04 -0.2163E+05
   -1.950005   30.58204  0.1374E-14  0.4911E-05  0.1448E-05  0.1946E-03  0.2515E-04 -0.1407E+06
   -2.000002   30.58352  0.1374E-14  0.0000E+00  0.0000E+00  0.0000E+00  0.4660E-04  0.0000E+00
