 1 - depth, m
 2 - temperature, C
 3 - salinity, kg/kg
 4 - turbulent kinetic energy, m**2/s**2
 5 - dissipation rate, m**2/s**3
 6 - kinematic heat conductance, m**2/s
 7 - modulus of horizontal velocity, m/s
 8 - Richardson number, n/d
   -0.000000   30.21487  0.3951E-13  0.4806E-05  0.3008E-06  0.5078E-04  0.1256E-02  0.5564E+04
   -0.049997   30.24526  0.3951E-13  0.8284E-05  0.1339E-06  0.1766E-03  0.7177E-03  0.3905E+03
   -0.099994   30.25725  0.3951E-13  0.1007E-04  0.9200E-07  0.4038E-03  0.5234E-03  0.3657E+02
   -0.149992   30.26048  0.3951E-13  0.1118E-04  0.7731E-07  0.4818E-03  0.4624E-03  0.1790E+02
   -0.199991   30.26307  0.3951E-13  0.1204E-04  0.6869E-07  0.6454E-03  0.4129E-03  0.1154E+02
   -0.249989   30.26495  0.3951E-13  0.1273E-04  0.6305E-07  0.7711E-03  0.3758E-03  0.8575E+01
   -0.299988   30.26648  0.3951E-13  0.1329E-04  0.5903E-07  0.8967E-03  0.3450E-03  0.6822E+01
   -0.349988   30.26777  0.3951E-13  0.1376E-04  0.5602E-07  0.1010E-02  0.3186E-03  0.5870E+01
   -0.399988   30.26888  0.3951E-13  0.1415E-04  0.5368E-07  0.1114E-02  0.2953E-03  0.5217E+01
   -0.449988   30.26987  0.3951E-13  0.1449E-04  0.5178E-07  0.1211E-02  0.2748E-03  0.4928E+01
   -0.499988   30.27076  0.3951E-13  0.1478E-04  0.5021E-07  0.1299E-02  0.2567E-03  0.4773E+01
   -0.549989   30.27158  0.3951E-13  0.1504E-04  0.4891E-07  0.1380E-02  0.2404E-03  0.4740E+01
   -0.599989   30.27234  0.3951E-13  0.1525E-04  0.4780E-07  0.1454E-02  0.2257E-03  0.4719E+01
   -0.649990   30.27304  0.3951E-13  0.1544E-04  0.4688E-07  0.1519E-02  0.2123E-03  0.4812E+01
   -0.699992   30.27371  0.3951E-13  0.1560E-04  0.4610E-07  0.1578E-02  0.2000E-03  0.4894E+01
   -0.749993   30.27434  0.3951E-13  0.1573E-04  0.4545E-07  0.1628E-02  0.1886E-03  0.5095E+01
   -0.799994   30.27495  0.3951E-13  0.1584E-04  0.4491E-07  0.1671E-02  0.1780E-03  0.5278E+01
   -0.849996   30.27553  0.3951E-13  0.1593E-04  0.4449E-07  0.1706E-02  0.1681E-03  0.5596E+01
   -0.899998   30.27610  0.3951E-13  0.1599E-04  0.4417E-07  0.1732E-02  0.1588E-03  0.5899E+01
   -0.949999   30.27665  0.3951E-13  0.1603E-04  0.4395E-07  0.1751E-02  0.1501E-03  0.6369E+01
   -1.000001   30.27719  0.3951E-13  0.1605E-04  0.4383E-07  0.1761E-02  0.1418E-03  0.6835E+01
   -1.050003   30.27772  0.3951E-13  0.1605E-04  0.4381E-07  0.1761E-02  0.1339E-03  0.7813E+01
   -1.100004   30.27825  0.3951E-13  0.1603E-04  0.4391E-07  0.1851E-02  0.1265E-03  0.2562E+02
   -1.150006   30.27875  0.3951E-13  0.1598E-04  0.4416E-07  0.1672E-02  0.1198E-03  0.5897E+02
   -1.200008   30.27931  0.3951E-13  0.1591E-04  0.4453E-07  0.1700E-02  0.1128E-03  0.1135E+02
   -1.250009   30.27985  0.3951E-13  0.1581E-04  0.4508E-07  0.1669E-02  0.1062E-03  0.1205E+02
   -1.300010   30.28039  0.3951E-13  0.1569E-04  0.4584E-07  0.1619E-02  0.9981E-04  0.1423E+02
   -1.350012   30.28096  0.3951E-13  0.1553E-04  0.4688E-07  0.1559E-02  0.9362E-04  0.1699E+02
   -1.400013   30.28154  0.3951E-13  0.1533E-04  0.4829E-07  0.1480E-02  0.8757E-04  0.2121E+02
   -1.450013   30.28215  0.3951E-13  0.1509E-04  0.5019E-07  0.1402E-02  0.8163E-04  0.2704E+02
   -1.500014   30.28280  0.3951E-13  0.1480E-04  0.5283E-07  0.1289E-02  0.7580E-04  0.3723E+02
   -1.550014   30.28352  0.3951E-13  0.1444E-04  0.5658E-07  0.1206E-02  0.6993E-04  0.5377E+02
   -1.600014   30.28429  0.3951E-13  0.1399E-04  0.6237E-07  0.1059E-02  0.6418E-04  0.1052E+03
   -1.650014   30.28525  0.3951E-13  0.1341E-04  0.7133E-07  0.9834E-03  0.5797E-04  0.1930E+03
   -1.700014   30.28633  0.3951E-13  0.1260E-04  0.8744E-07  0.7956E-03  0.5191E-04  0.1558E+04
   -1.750013   30.28830  0.3951E-13  0.1154E-04  0.1138E-06  0.7248E-03  0.4372E-04  0.1570E+07
   -1.800011   30.28987  0.3951E-13  0.1014E-04  0.1705E-06  0.5011E-03  0.3750E-04  0.2052E+06
   -1.850010   30.29660  0.3951E-13  0.8595E-05  0.2759E-06  0.4633E-03  0.2652E-04  0.1228E+08
   -1.900008   30.29505  0.3951E-13  0.6818E-05  0.5744E-06  0.2128E-03  0.2163E-04  0.1020E+07
   -1.950005   30.31549  0.3951E-13  0.4792E-05  0.1431E-05  0.1930E-03  0.1156E-04 -0.1996E+06
   -2.000002   30.31762  0.3951E-13  0.0000E+00  0.0000E+00  0.0000E+00  0.2171E-04  0.0000E+00
