 1 - depth, m
 2 - temperature, C
 3 - salinity, kg/kg
 4 - turbulent kinetic energy, m**2/s**2
 5 - dissipation rate, m**2/s**3
 6 - kinematic heat conductance, m**2/s
 7 - modulus of horizontal velocity, m/s
 8 - Richardson number, n/d
   -0.000000   30.48117  0.7090E-14  0.5119E-05  0.3054E-06  0.5118E-04  0.2531E-02  0.2525E+04
   -0.049997   30.51179  0.7090E-14  0.8519E-05  0.1347E-06  0.1900E-03  0.1390E-02  0.9519E+02
   -0.099994   30.52212  0.7090E-14  0.1018E-04  0.9423E-07  0.3906E-03  0.1058E-02  0.7664E+01
   -0.149992   30.52547  0.7090E-14  0.1125E-04  0.7899E-07  0.4828E-03  0.9349E-03  0.3868E+01
   -0.199991   30.52805  0.7090E-14  0.1208E-04  0.7007E-07  0.6352E-03  0.8379E-03  0.2503E+01
   -0.249989   30.52996  0.7090E-14  0.1275E-04  0.6422E-07  0.7590E-03  0.7643E-03  0.1851E+01
   -0.299988   30.53151  0.7090E-14  0.1329E-04  0.6005E-07  0.8770E-03  0.7029E-03  0.1487E+01
   -0.349988   30.53282  0.7090E-14  0.1375E-04  0.5690E-07  0.9833E-03  0.6500E-03  0.1325E+01
   -0.399988   30.53395  0.7090E-14  0.1414E-04  0.5439E-07  0.1088E-02  0.6020E-03  0.1266E+01
   -0.449988   30.53496  0.7090E-14  0.1449E-04  0.5228E-07  0.1192E-02  0.5582E-03  0.1247E+01
   -0.499988   30.53586  0.7090E-14  0.1480E-04  0.5051E-07  0.1290E-02  0.5185E-03  0.1245E+01
   -0.549989   30.53667  0.7090E-14  0.1506E-04  0.4902E-07  0.1380E-02  0.4827E-03  0.1240E+01
   -0.599990   30.53742  0.7090E-14  0.1529E-04  0.4775E-07  0.1463E-02  0.4503E-03  0.1239E+01
   -0.649991   30.53811  0.7090E-14  0.1548E-04  0.4669E-07  0.1536E-02  0.4208E-03  0.1234E+01
   -0.699992   30.53877  0.7090E-14  0.1564E-04  0.4580E-07  0.1599E-02  0.3941E-03  0.1234E+01
   -0.749993   30.53938  0.7090E-14  0.1577E-04  0.4506E-07  0.1653E-02  0.3697E-03  0.1232E+01
   -0.799995   30.53997  0.7090E-14  0.1587E-04  0.4446E-07  0.1697E-02  0.3475E-03  0.1237E+01
   -0.849996   30.54053  0.7090E-14  0.1594E-04  0.4398E-07  0.1731E-02  0.3272E-03  0.1246E+01
   -0.899998   30.54108  0.7090E-14  0.1599E-04  0.4361E-07  0.1756E-02  0.3085E-03  0.1276E+01
   -0.950000   30.54161  0.7090E-14  0.1601E-04  0.4335E-07  0.1772E-02  0.2914E-03  0.1329E+01
   -1.000001   30.54213  0.7090E-14  0.1602E-04  0.4319E-07  0.1780E-02  0.2753E-03  0.1420E+01
   -1.050003   30.54265  0.7090E-14  0.1600E-04  0.4313E-07  0.1778E-02  0.2602E-03  0.1597E+01
   -1.100005   30.54315  0.7090E-14  0.1596E-04  0.4318E-07  0.1876E-02  0.2458E-03  0.5251E+01
   -1.150006   30.54363  0.7090E-14  0.1589E-04  0.4336E-07  0.1674E-02  0.2330E-03  0.1221E+02
   -1.200008   30.54416  0.7090E-14  0.1581E-04  0.4367E-07  0.1711E-02  0.2195E-03  0.2310E+01
   -1.250009   30.54468  0.7090E-14  0.1569E-04  0.4416E-07  0.1679E-02  0.2067E-03  0.2457E+01
   -1.300011   30.54520  0.7090E-14  0.1555E-04  0.4485E-07  0.1627E-02  0.1944E-03  0.2870E+01
   -1.350012   30.54573  0.7090E-14  0.1538E-04  0.4581E-07  0.1566E-02  0.1824E-03  0.3441E+01
   -1.400013   30.54629  0.7090E-14  0.1516E-04  0.4713E-07  0.1486E-02  0.1707E-03  0.4252E+01
   -1.450014   30.54687  0.7090E-14  0.1491E-04  0.4893E-07  0.1406E-02  0.1592E-03  0.5438E+01
   -1.500014   30.54748  0.7090E-14  0.1460E-04  0.5146E-07  0.1291E-02  0.1479E-03  0.7426E+01
   -1.550015   30.54815  0.7090E-14  0.1423E-04  0.5508E-07  0.1208E-02  0.1364E-03  0.1071E+02
   -1.600015   30.54887  0.7090E-14  0.1377E-04  0.6073E-07  0.1061E-02  0.1253E-03  0.2231E+02
   -1.650015   30.54978  0.7090E-14  0.1317E-04  0.6955E-07  0.9815E-03  0.1131E-03  0.3221E+02
   -1.700014   30.55078  0.7090E-14  0.1236E-04  0.8527E-07  0.7974E-03  0.1013E-03 -0.1225E+04
   -1.750013   30.55262  0.7090E-14  0.1129E-04  0.1112E-06  0.7186E-03  0.8529E-04  0.8412E+04
   -1.800012   30.55406  0.7090E-14  0.9882E-05  0.1684E-06  0.4970E-03  0.7313E-04  0.6805E+04
   -1.850010   30.56050  0.7090E-14  0.8335E-05  0.2730E-06  0.4579E-03  0.5157E-04  0.5185E+07
   -1.900008   30.55880  0.7090E-14  0.6566E-05  0.5742E-06  0.2101E-03  0.4208E-04  0.2297E+06
   -1.950006   30.57769  0.7090E-14  0.4610E-05  0.1414E-05  0.1953E-03  0.2227E-04 -0.1396E+06
   -2.000003   30.57884  0.7090E-14  0.0000E+00  0.0000E+00  0.0000E+00  0.4273E-04  0.0000E+00
