 1 - depth, m
 2 - temperature, C
 3 - salinity, kg/kg
 4 - turbulent kinetic energy, m**2/s**2
 5 - dissipation rate, m**2/s**3
 6 - kinematic heat conductance, m**2/s
 7 - modulus of horizontal velocity, m/s
 8 - Richardson number, n/d
   -0.000000   29.92056  0.5225E-14  0.4848E-05  0.2805E-06  0.4976E-04  0.2470E-02  0.5312E+04
   -0.049997   29.94946  0.5226E-14  0.8099E-05  0.1237E-06  0.1866E-03  0.1349E-02  0.6225E+02
   -0.099994   29.95917  0.5226E-14  0.9680E-05  0.8658E-07  0.3850E-03  0.1023E-02  0.7685E+01
   -0.149992   29.96231  0.5226E-14  0.1070E-04  0.7266E-07  0.4767E-03  0.9032E-03  0.3867E+01
   -0.199991   29.96473  0.5226E-14  0.1150E-04  0.6452E-07  0.6267E-03  0.8087E-03  0.2507E+01
   -0.249989   29.96653  0.5226E-14  0.1214E-04  0.5918E-07  0.7493E-03  0.7369E-03  0.1856E+01
   -0.299989   29.96799  0.5226E-14  0.1267E-04  0.5538E-07  0.8665E-03  0.6771E-03  0.1489E+01
   -0.349988   29.96922  0.5226E-14  0.1311E-04  0.5253E-07  0.9715E-03  0.6256E-03  0.1317E+01
   -0.399988   29.97030  0.5226E-14  0.1349E-04  0.5026E-07  0.1073E-02  0.5792E-03  0.1255E+01
   -0.449988   29.97125  0.5226E-14  0.1383E-04  0.4837E-07  0.1176E-02  0.5369E-03  0.1237E+01
   -0.499988   29.97210  0.5226E-14  0.1413E-04  0.4678E-07  0.1273E-02  0.4987E-03  0.1235E+01
   -0.549989   29.97288  0.5226E-14  0.1440E-04  0.4545E-07  0.1362E-02  0.4642E-03  0.1230E+01
   -0.599990   29.97359  0.5226E-14  0.1462E-04  0.4433E-07  0.1443E-02  0.4330E-03  0.1229E+01
   -0.649991   29.97425  0.5226E-14  0.1482E-04  0.4339E-07  0.1516E-02  0.4047E-03  0.1226E+01
   -0.699992   29.97487  0.5226E-14  0.1498E-04  0.4261E-07  0.1579E-02  0.3789E-03  0.1226E+01
   -0.749993   29.97546  0.5226E-14  0.1512E-04  0.4197E-07  0.1633E-02  0.3555E-03  0.1227E+01
   -0.799995   29.97602  0.5226E-14  0.1523E-04  0.4145E-07  0.1678E-02  0.3341E-03  0.1236E+01
   -0.849996   29.97656  0.5226E-14  0.1531E-04  0.4104E-07  0.1713E-02  0.3146E-03  0.1252E+01
   -0.899998   29.97709  0.5226E-14  0.1537E-04  0.4074E-07  0.1739E-02  0.2966E-03  0.1288E+01
   -0.950000   29.97760  0.5226E-14  0.1541E-04  0.4052E-07  0.1756E-02  0.2800E-03  0.1347E+01
   -1.000002   29.97810  0.5226E-14  0.1543E-04  0.4040E-07  0.1766E-02  0.2645E-03  0.1441E+01
   -1.050003   29.97859  0.5226E-14  0.1542E-04  0.4037E-07  0.1767E-02  0.2498E-03  0.1628E+01
   -1.100005   29.97908  0.5226E-14  0.1540E-04  0.4044E-07  0.1853E-02  0.2359E-03  0.5423E+01
   -1.150007   29.97955  0.5226E-14  0.1536E-04  0.4064E-07  0.1685E-02  0.2234E-03  0.1211E+02
   -1.200008   29.98005  0.5226E-14  0.1529E-04  0.4095E-07  0.1711E-02  0.2105E-03  0.2334E+01
   -1.250010   29.98055  0.5226E-14  0.1521E-04  0.4141E-07  0.1681E-02  0.1981E-03  0.2485E+01
   -1.300011   29.98105  0.5226E-14  0.1509E-04  0.4206E-07  0.1633E-02  0.1862E-03  0.2891E+01
   -1.350012   29.98157  0.5226E-14  0.1495E-04  0.4294E-07  0.1576E-02  0.1747E-03  0.3448E+01
   -1.400013   29.98210  0.5226E-14  0.1477E-04  0.4413E-07  0.1502E-02  0.1634E-03  0.4221E+01
   -1.450014   29.98265  0.5226E-14  0.1456E-04  0.4573E-07  0.1425E-02  0.1524E-03  0.5342E+01
   -1.500015   29.98324  0.5226E-14  0.1429E-04  0.4793E-07  0.1318E-02  0.1416E-03  0.7143E+01
   -1.550015   29.98388  0.5226E-14  0.1397E-04  0.5103E-07  0.1232E-02  0.1308E-03  0.1004E+02
   -1.600015   29.98457  0.5226E-14  0.1358E-04  0.5570E-07  0.1090E-02  0.1201E-03  0.1779E+02
   -1.650015   29.98539  0.5226E-14  0.1307E-04  0.6289E-07  0.1009E-02  0.1089E-03  0.4366E+02
   -1.700014   29.98632  0.5226E-14  0.1239E-04  0.7559E-07  0.8259E-03  0.9781E-04  0.8063E+00
   -1.750014   29.98787  0.5226E-14  0.1147E-04  0.9650E-07  0.7499E-03  0.8366E-04  0.1834E+05
   -1.800012   29.98928  0.5226E-14  0.1022E-04  0.1401E-06  0.5269E-03  0.7204E-04  0.1291E+06
   -1.850011   29.99420  0.5226E-14  0.8749E-05  0.2216E-06  0.4814E-03  0.5284E-04  0.5978E+06
   -1.900009   29.99386  0.5226E-14  0.6947E-05  0.4640E-06  0.2190E-03  0.4283E-04  0.6185E+06
   -1.950006   30.01043  0.5226E-14  0.4788E-05  0.1182E-05  0.1764E-03  0.2347E-04 -0.2217E+06
   -2.000003   30.01347  0.5226E-14  0.0000E+00  0.0000E+00  0.0000E+00  0.4101E-04  0.0000E+00
