 1 - depth, m
 2 - temperature, C
 3 - salinity, kg/kg
 4 - turbulent kinetic energy, m**2/s**2
 5 - dissipation rate, m**2/s**3
 6 - kinematic heat conductance, m**2/s
 7 - modulus of horizontal velocity, m/s
 8 - Richardson number, n/d
   -0.000000   29.73714  0.4822E-13  0.4678E-05  0.2584E-06  0.4817E-04  0.2621E-02  0.1653E+04
   -0.049997   29.76500  0.4823E-13  0.7755E-05  0.1137E-06  0.1855E-03  0.1416E-02  0.3206E+02
   -0.099994   29.77401  0.4823E-13  0.9222E-05  0.8003E-07  0.3750E-03  0.1082E-02  0.7134E+01
   -0.149992   29.77701  0.4823E-13  0.1017E-04  0.6729E-07  0.4670E-03  0.9557E-03  0.3588E+01
   -0.199991   29.77932  0.4823E-13  0.1092E-04  0.5981E-07  0.6092E-03  0.8567E-03  0.2338E+01
   -0.249989   29.78104  0.4823E-13  0.1151E-04  0.5489E-07  0.7265E-03  0.7809E-03  0.1742E+01
   -0.299989   29.78245  0.4823E-13  0.1200E-04  0.5137E-07  0.8349E-03  0.7177E-03  0.1426E+01
   -0.349988   29.78364  0.4823E-13  0.1242E-04  0.4868E-07  0.9376E-03  0.6626E-03  0.1337E+01
   -0.399988   29.78467  0.4823E-13  0.1279E-04  0.4649E-07  0.1044E-02  0.6112E-03  0.1299E+01
   -0.449988   29.78558  0.4823E-13  0.1313E-04  0.4466E-07  0.1149E-02  0.5640E-03  0.1288E+01
   -0.499988   29.78639  0.4823E-13  0.1342E-04  0.4312E-07  0.1247E-02  0.5215E-03  0.1285E+01
   -0.549989   29.78712  0.4823E-13  0.1368E-04  0.4183E-07  0.1337E-02  0.4832E-03  0.1282E+01
   -0.599990   29.78779  0.4823E-13  0.1390E-04  0.4075E-07  0.1420E-02  0.4487E-03  0.1277E+01
   -0.649991   29.78841  0.4823E-13  0.1408E-04  0.3984E-07  0.1493E-02  0.4175E-03  0.1274E+01
   -0.699992   29.78900  0.4823E-13  0.1424E-04  0.3909E-07  0.1557E-02  0.3893E-03  0.1268E+01
   -0.749993   29.78955  0.4823E-13  0.1437E-04  0.3847E-07  0.1611E-02  0.3637E-03  0.1268E+01
   -0.799995   29.79007  0.4823E-13  0.1446E-04  0.3797E-07  0.1655E-02  0.3405E-03  0.1267E+01
   -0.849997   29.79058  0.4823E-13  0.1454E-04  0.3757E-07  0.1690E-02  0.3193E-03  0.1274E+01
   -0.899998   29.79106  0.4823E-13  0.1459E-04  0.3728E-07  0.1715E-02  0.3001E-03  0.1285E+01
   -0.950000   29.79154  0.4823E-13  0.1462E-04  0.3707E-07  0.1731E-02  0.2825E-03  0.1318E+01
   -1.000002   29.79201  0.4823E-13  0.1463E-04  0.3695E-07  0.1740E-02  0.2664E-03  0.1381E+01
   -1.050003   29.79247  0.4823E-13  0.1462E-04  0.3692E-07  0.1739E-02  0.2513E-03  0.1546E+01
   -1.100005   29.79292  0.4823E-13  0.1460E-04  0.3698E-07  0.1826E-02  0.2372E-03  0.5111E+01
   -1.150007   29.79335  0.4823E-13  0.1455E-04  0.3714E-07  0.1654E-02  0.2245E-03  0.1153E+02
   -1.200008   29.79382  0.4823E-13  0.1449E-04  0.3741E-07  0.1681E-02  0.2113E-03  0.2223E+01
   -1.250010   29.79429  0.4823E-13  0.1440E-04  0.3782E-07  0.1651E-02  0.1988E-03  0.2360E+01
   -1.300011   29.79475  0.4823E-13  0.1428E-04  0.3839E-07  0.1604E-02  0.1867E-03  0.2757E+01
   -1.350013   29.79523  0.4823E-13  0.1414E-04  0.3918E-07  0.1547E-02  0.1750E-03  0.3279E+01
   -1.400014   29.79572  0.4823E-13  0.1397E-04  0.4024E-07  0.1474E-02  0.1636E-03  0.4028E+01
   -1.450014   29.79624  0.4823E-13  0.1377E-04  0.4166E-07  0.1398E-02  0.1524E-03  0.5080E+01
   -1.500015   29.79678  0.4823E-13  0.1352E-04  0.4362E-07  0.1291E-02  0.1415E-03  0.6794E+01
   -1.550015   29.79737  0.4823E-13  0.1321E-04  0.4638E-07  0.1205E-02  0.1305E-03  0.9467E+01
   -1.600016   29.79801  0.4823E-13  0.1284E-04  0.5047E-07  0.1064E-02  0.1198E-03  0.1574E+02
   -1.650015   29.79876  0.4823E-13  0.1237E-04  0.5671E-07  0.9845E-03  0.1085E-03  0.2526E+03
   -1.700015   29.79959  0.4823E-13  0.1173E-04  0.6796E-07  0.8084E-03  0.9759E-04  0.9413E+02
   -1.750014   29.80101  0.4823E-13  0.1086E-04  0.8675E-07  0.7251E-03  0.8346E-04  0.3565E+04
   -1.800013   29.80235  0.4823E-13  0.9635E-05  0.1251E-06  0.5126E-03  0.7158E-04  0.2941E+05
   -1.850011   29.80683  0.4823E-13  0.8176E-05  0.1973E-06  0.4561E-03  0.5232E-04  0.1614E+07
   -1.900009   29.80677  0.4823E-13  0.6425E-05  0.4126E-06  0.2087E-03  0.4188E-04  0.2410E+05
   -1.950006   29.82212  0.4823E-13  0.4431E-05  0.1057E-05  0.1706E-03  0.2269E-04 -0.3680E+06
   -2.000003   29.82502  0.4823E-13  0.0000E+00  0.0000E+00  0.0000E+00  0.4010E-04  0.0000E+00
