 1 - depth, m
 2 - temperature, C
 3 - salinity, kg/kg
 4 - turbulent kinetic energy, m**2/s**2
 5 - dissipation rate, m**2/s**3
 6 - kinematic heat conductance, m**2/s
 7 - modulus of horizontal velocity, m/s
 8 - Richardson number, n/d
   -0.000000   31.47410  0.2236E-14  0.5664E-05  0.3881E-06  0.5398E-04  0.1204E-02  0.8334E+04
   -0.049997   31.51090  0.2236E-14  0.9700E-05  0.1724E-06  0.1932E-03  0.6877E-03  0.1712E+04
   -0.099994   31.52475  0.2236E-14  0.1177E-04  0.1186E-06  0.4263E-03  0.5080E-03  0.3552E+02
   -0.149992   31.52858  0.2236E-14  0.1307E-04  0.9928E-07  0.5098E-03  0.4502E-03  0.1763E+02
   -0.199990   31.53165  0.2236E-14  0.1407E-04  0.8799E-07  0.6854E-03  0.4030E-03  0.1124E+02
   -0.249989   31.53385  0.2236E-14  0.1487E-04  0.8063E-07  0.8172E-03  0.3679E-03  0.8321E+01
   -0.299988   31.53565  0.2236E-14  0.1552E-04  0.7539E-07  0.9522E-03  0.3386E-03  0.6604E+01
   -0.349987   31.53716  0.2236E-14  0.1606E-04  0.7146E-07  0.1073E-02  0.3136E-03  0.5649E+01
   -0.399987   31.53845  0.2236E-14  0.1650E-04  0.6840E-07  0.1183E-02  0.2915E-03  0.5019E+01
   -0.449987   31.53961  0.2236E-14  0.1688E-04  0.6592E-07  0.1285E-02  0.2720E-03  0.4709E+01
   -0.499987   31.54065  0.2236E-14  0.1721E-04  0.6386E-07  0.1379E-02  0.2547E-03  0.4562E+01
   -0.549988   31.54160  0.2236E-14  0.1749E-04  0.6213E-07  0.1464E-02  0.2392E-03  0.4499E+01
   -0.599989   31.54247  0.2236E-14  0.1773E-04  0.6068E-07  0.1541E-02  0.2251E-03  0.4482E+01
   -0.649990   31.54330  0.2236E-14  0.1793E-04  0.5944E-07  0.1610E-02  0.2123E-03  0.4537E+01
   -0.699991   31.54407  0.2236E-14  0.1810E-04  0.5840E-07  0.1670E-02  0.2005E-03  0.4621E+01
   -0.749992   31.54480  0.2236E-14  0.1824E-04  0.5752E-07  0.1722E-02  0.1895E-03  0.4774E+01
   -0.799994   31.54550  0.2236E-14  0.1834E-04  0.5679E-07  0.1765E-02  0.1793E-03  0.4955E+01
   -0.849995   31.54618  0.2236E-14  0.1842E-04  0.5620E-07  0.1799E-02  0.1697E-03  0.5217E+01
   -0.899997   31.54683  0.2236E-14  0.1847E-04  0.5574E-07  0.1825E-02  0.1607E-03  0.5511E+01
   -0.949998   31.54747  0.2236E-14  0.1849E-04  0.5542E-07  0.1841E-02  0.1522E-03  0.5915E+01
   -1.000000   31.54810  0.2236E-14  0.1849E-04  0.5523E-07  0.1849E-02  0.1442E-03  0.6366E+01
   -1.050002   31.54871  0.2236E-14  0.1846E-04  0.5518E-07  0.1845E-02  0.1365E-03  0.7225E+01
   -1.100003   31.54932  0.2236E-14  0.1841E-04  0.5528E-07  0.1963E-02  0.1292E-03  0.2321E+02
   -1.150005   31.54989  0.2236E-14  0.1832E-04  0.5558E-07  0.1711E-02  0.1227E-03  0.5736E+02
   -1.200006   31.55054  0.2236E-14  0.1821E-04  0.5605E-07  0.1762E-02  0.1157E-03  0.1064E+02
   -1.250008   31.55116  0.2236E-14  0.1806E-04  0.5677E-07  0.1729E-02  0.1091E-03  0.1130E+02
   -1.300009   31.55180  0.2236E-14  0.1787E-04  0.5780E-07  0.1668E-02  0.1028E-03  0.1339E+02
   -1.350010   31.55245  0.2236E-14  0.1765E-04  0.5923E-07  0.1601E-02  0.9661E-04  0.1618E+02
   -1.400011   31.55312  0.2236E-14  0.1737E-04  0.6120E-07  0.1509E-02  0.9054E-04  0.2048E+02
   -1.450012   31.55384  0.2236E-14  0.1704E-04  0.6394E-07  0.1427E-02  0.8454E-04  0.2669E+02
   -1.500012   31.55460  0.2236E-14  0.1663E-04  0.6786E-07  0.1302E-02  0.7861E-04  0.3815E+02
   -1.550013   31.55546  0.2236E-14  0.1614E-04  0.7359E-07  0.1222E-02  0.7258E-04  0.6025E+02
   -1.600013   31.55639  0.2236E-14  0.1552E-04  0.8298E-07  0.1068E-02  0.6663E-04 -0.9854E+03
   -1.650013   31.55767  0.2236E-14  0.1469E-04  0.9770E-07  0.9841E-03  0.5979E-04 -0.8188E+04
   -1.700012   31.55909  0.2236E-14  0.1357E-04  0.1238E-06  0.7958E-03  0.5306E-04  0.8490E+03
   -1.750011   31.56179  0.2236E-14  0.1225E-04  0.1656E-06  0.7198E-03  0.4385E-04  0.6079E+06
   -1.800010   31.56344  0.2236E-14  0.1058E-04  0.2563E-06  0.4922E-03  0.3768E-04  0.5363E+05
   -1.850008   31.57338  0.2236E-14  0.8949E-05  0.4278E-06  0.4705E-03  0.2558E-04  0.3174E+08
   -1.900006   31.56903  0.2236E-14  0.7115E-05  0.9050E-06  0.2177E-03  0.2138E-04 -0.8177E+05
   -1.950003   31.59526  0.2236E-14  0.5147E-05  0.2126E-05  0.2324E-03  0.1112E-04 -0.1041E+07
   -2.000000   31.59416  0.2236E-14  0.0000E+00  0.0000E+00  0.0000E+00  0.2324E-04  0.0000E+00
