 1 - depth, m
 2 - temperature, C
 3 - salinity, kg/kg
 4 - turbulent kinetic energy, m**2/s**2
 5 - dissipation rate, m**2/s**3
 6 - kinematic heat conductance, m**2/s
 7 - modulus of horizontal velocity, m/s
 8 - Richardson number, n/d
   -0.000000   30.50299  0.2099E-13  0.4814E-05  0.2993E-06  0.4950E-04  0.8016E-03  0.1768E+05
   -0.049997   30.53441  0.2099E-13  0.8426E-05  0.1328E-06  0.1839E-03  0.4529E-03  0.9435E+02
   -0.099994   30.54575  0.2099E-13  0.1020E-04  0.9203E-07  0.4121E-03  0.3332E-03  0.1053E+03
   -0.149992   30.54892  0.2099E-13  0.1132E-04  0.7761E-07  0.4914E-03  0.2950E-03  0.5184E+02
   -0.199991   30.55147  0.2099E-13  0.1218E-04  0.6911E-07  0.6561E-03  0.2639E-03  0.3382E+02
   -0.249989   30.55332  0.2099E-13  0.1288E-04  0.6353E-07  0.7827E-03  0.2406E-03  0.2509E+02
   -0.299988   30.55483  0.2099E-13  0.1344E-04  0.5955E-07  0.9089E-03  0.2211E-03  0.2012E+02
   -0.349988   30.55610  0.2099E-13  0.1391E-04  0.5657E-07  0.1023E-02  0.2045E-03  0.1719E+02
   -0.399988   30.55721  0.2099E-13  0.1431E-04  0.5425E-07  0.1128E-02  0.1897E-03  0.1539E+02
   -0.449988   30.55819  0.2099E-13  0.1465E-04  0.5237E-07  0.1224E-02  0.1767E-03  0.1439E+02
   -0.499988   30.55908  0.2099E-13  0.1495E-04  0.5081E-07  0.1313E-02  0.1652E-03  0.1406E+02
   -0.549989   30.55989  0.2099E-13  0.1521E-04  0.4952E-07  0.1395E-02  0.1549E-03  0.1380E+02
   -0.599989   30.56064  0.2099E-13  0.1543E-04  0.4844E-07  0.1468E-02  0.1455E-03  0.1388E+02
   -0.649990   30.56134  0.2099E-13  0.1562E-04  0.4753E-07  0.1534E-02  0.1370E-03  0.1397E+02
   -0.699992   30.56201  0.2099E-13  0.1579E-04  0.4677E-07  0.1592E-02  0.1291E-03  0.1437E+02
   -0.749993   30.56264  0.2099E-13  0.1593E-04  0.4613E-07  0.1643E-02  0.1219E-03  0.1476E+02
   -0.799994   30.56324  0.2099E-13  0.1604E-04  0.4562E-07  0.1686E-02  0.1151E-03  0.1548E+02
   -0.849996   30.56382  0.2099E-13  0.1613E-04  0.4522E-07  0.1720E-02  0.1088E-03  0.1618E+02
   -0.899998   30.56439  0.2099E-13  0.1620E-04  0.4492E-07  0.1747E-02  0.1028E-03  0.1728E+02
   -0.949999   30.56494  0.2099E-13  0.1624E-04  0.4473E-07  0.1765E-02  0.9725E-04  0.1838E+02
   -1.000001   30.56549  0.2099E-13  0.1627E-04  0.4463E-07  0.1775E-02  0.9193E-04  0.2001E+02
   -1.050003   30.56602  0.2099E-13  0.1627E-04  0.4465E-07  0.1775E-02  0.8691E-04  0.2254E+02
   -1.100004   30.56656  0.2099E-13  0.1625E-04  0.4479E-07  0.1867E-02  0.8209E-04  0.7505E+02
   -1.150006   30.56706  0.2099E-13  0.1621E-04  0.4507E-07  0.1682E-02  0.7781E-04  0.1715E+03
   -1.200008   30.56762  0.2099E-13  0.1614E-04  0.4548E-07  0.1712E-02  0.7333E-04  0.3273E+02
   -1.250009   30.56816  0.2099E-13  0.1605E-04  0.4608E-07  0.1680E-02  0.6904E-04  0.3522E+02
   -1.300010   30.56871  0.2099E-13  0.1592E-04  0.4690E-07  0.1629E-02  0.6494E-04  0.4106E+02
   -1.350012   30.56928  0.2099E-13  0.1577E-04  0.4800E-07  0.1568E-02  0.6092E-04  0.4961E+02
   -1.400013   30.56988  0.2099E-13  0.1557E-04  0.4947E-07  0.1488E-02  0.5704E-04  0.6117E+02
   -1.450013   30.57050  0.2099E-13  0.1533E-04  0.5146E-07  0.1409E-02  0.5318E-04  0.7873E+02
   -1.500014   30.57116  0.2099E-13  0.1504E-04  0.5421E-07  0.1293E-02  0.4942E-04  0.1072E+03
   -1.550014   30.57189  0.2099E-13  0.1468E-04  0.5810E-07  0.1210E-02  0.4560E-04  0.1543E+03
   -1.600014   30.57269  0.2099E-13  0.1422E-04  0.6404E-07  0.1061E-02  0.4188E-04  0.3058E+03
   -1.650014   30.57367  0.2099E-13  0.1364E-04  0.7321E-07  0.9858E-03  0.3783E-04  0.2202E+04
   -1.700014   30.57475  0.2099E-13  0.1283E-04  0.8971E-07  0.7988E-03  0.3392E-04  0.2409E+06
   -1.750013   30.57677  0.2099E-13  0.1175E-04  0.1168E-06  0.7237E-03  0.2856E-04  0.3269E+08
   -1.800011   30.57841  0.2099E-13  0.1030E-04  0.1741E-06  0.4956E-03  0.2444E-04  0.7675E+06
   -1.850010   30.58541  0.2099E-13  0.8710E-05  0.2813E-06  0.4604E-03  0.1720E-04  0.6490E+09
   -1.900008   30.58383  0.2099E-13  0.6889E-05  0.5849E-06  0.2109E-03  0.1402E-04  0.7656E+06
   -1.950005   30.60534  0.2099E-13  0.4867E-05  0.1460E-05  0.1959E-03  0.7395E-05 -0.7271E+07
   -2.000002   30.60624  0.2099E-13  0.0000E+00  0.0000E+00  0.0000E+00  0.1413E-04  0.0000E+00
