 1 - depth, m
 2 - temperature, C
 3 - salinity, kg/kg
 4 - turbulent kinetic energy, m**2/s**2
 5 - dissipation rate, m**2/s**3
 6 - kinematic heat conductance, m**2/s
 7 - modulus of horizontal velocity, m/s
 8 - Richardson number, n/d
   -0.000000   31.64045  0.5784E-14  0.5216E-05  0.3461E-06  0.5342E-04  0.7602E-03  0.4404E+03
   -0.049997   31.67305  0.5784E-14  0.9072E-05  0.1533E-06  0.1830E-03  0.4399E-03  0.2164E+03
   -0.099994   31.68609  0.5784E-14  0.1103E-04  0.1050E-06  0.4284E-03  0.3185E-03  0.8324E+02
   -0.149992   31.68947  0.5784E-14  0.1225E-04  0.8839E-07  0.5003E-03  0.2828E-03  0.4096E+02
   -0.199990   31.69224  0.5784E-14  0.1319E-04  0.7861E-07  0.6744E-03  0.2530E-03  0.2647E+02
   -0.249989   31.69424  0.5784E-14  0.1394E-04  0.7222E-07  0.8039E-03  0.2309E-03  0.1966E+02
   -0.299988   31.69586  0.5784E-14  0.1455E-04  0.6766E-07  0.9348E-03  0.2124E-03  0.1570E+02
   -0.349988   31.69723  0.5784E-14  0.1506E-04  0.6424E-07  0.1053E-02  0.1966E-03  0.1344E+02
   -0.399987   31.69842  0.5784E-14  0.1549E-04  0.6159E-07  0.1160E-02  0.1826E-03  0.1199E+02
   -0.449987   31.69947  0.5784E-14  0.1585E-04  0.5944E-07  0.1259E-02  0.1703E-03  0.1125E+02
   -0.499988   31.70042  0.5784E-14  0.1617E-04  0.5767E-07  0.1351E-02  0.1594E-03  0.1094E+02
   -0.549988   31.70129  0.5784E-14  0.1644E-04  0.5619E-07  0.1434E-02  0.1496E-03  0.1079E+02
   -0.599989   31.70210  0.5784E-14  0.1668E-04  0.5495E-07  0.1508E-02  0.1407E-03  0.1079E+02
   -0.649990   31.70285  0.5784E-14  0.1688E-04  0.5391E-07  0.1575E-02  0.1326E-03  0.1093E+02
   -0.699991   31.70356  0.5784E-14  0.1705E-04  0.5305E-07  0.1634E-02  0.1251E-03  0.1118E+02
   -0.749992   31.70424  0.5784E-14  0.1719E-04  0.5233E-07  0.1684E-02  0.1182E-03  0.1156E+02
   -0.799994   31.70489  0.5784E-14  0.1730E-04  0.5175E-07  0.1726E-02  0.1117E-03  0.1206E+02
   -0.849995   31.70552  0.5784E-14  0.1739E-04  0.5129E-07  0.1759E-02  0.1057E-03  0.1270E+02
   -0.899997   31.70613  0.5784E-14  0.1745E-04  0.5096E-07  0.1784E-02  0.1000E-03  0.1350E+02
   -0.949998   31.70672  0.5784E-14  0.1749E-04  0.5075E-07  0.1800E-02  0.9467E-04  0.1449E+02
   -1.000000   31.70731  0.5784E-14  0.1750E-04  0.5067E-07  0.1807E-02  0.8959E-04  0.1571E+02
   -1.050002   31.70789  0.5784E-14  0.1749E-04  0.5071E-07  0.1802E-02  0.8476E-04  0.1785E+02
   -1.100003   31.70846  0.5784E-14  0.1745E-04  0.5090E-07  0.1914E-02  0.8014E-04  0.5773E+02
   -1.150005   31.70900  0.5784E-14  0.1738E-04  0.5126E-07  0.1677E-02  0.7607E-04  0.1429E+03
   -1.200007   31.70962  0.5784E-14  0.1729E-04  0.5179E-07  0.1722E-02  0.7168E-04  0.2658E+02
   -1.250008   31.71021  0.5784E-14  0.1717E-04  0.5256E-07  0.1688E-02  0.6755E-04  0.2849E+02
   -1.300009   31.71082  0.5784E-14  0.1701E-04  0.5360E-07  0.1629E-02  0.6356E-04  0.3383E+02
   -1.350010   31.71144  0.5784E-14  0.1681E-04  0.5502E-07  0.1562E-02  0.5967E-04  0.4124E+02
   -1.400011   31.71210  0.5784E-14  0.1657E-04  0.5695E-07  0.1473E-02  0.5587E-04  0.5232E+02
   -1.450012   31.71279  0.5784E-14  0.1627E-04  0.5960E-07  0.1391E-02  0.5210E-04  0.6887E+02
   -1.500013   31.71354  0.5784E-14  0.1590E-04  0.6333E-07  0.1268E-02  0.4840E-04  0.9858E+02
   -1.550013   31.71438  0.5784E-14  0.1545E-04  0.6871E-07  0.1186E-02  0.4462E-04  0.1540E+03
   -1.600013   31.71530  0.5784E-14  0.1488E-04  0.7731E-07  0.1036E-02  0.4091E-04  0.5380E+03
   -1.650013   31.71652  0.5784E-14  0.1412E-04  0.9079E-07  0.9551E-03  0.3674E-04  0.9571E+04
   -1.700012   31.71793  0.5784E-14  0.1307E-04  0.1149E-06  0.7730E-03  0.3259E-04  0.2618E+05
   -1.750011   31.72062  0.5784E-14  0.1179E-04  0.1536E-06  0.6964E-03  0.2692E-04  0.7984E+06
   -1.800010   31.72227  0.5784E-14  0.1017E-04  0.2431E-06  0.4718E-03  0.2308E-04 -0.1189E+05
   -1.850008   31.73269  0.5784E-14  0.8561E-05  0.4052E-06  0.4518E-03  0.1556E-04  0.3900E+09
   -1.900006   31.72808  0.5784E-14  0.6814E-05  0.8480E-06  0.2125E-03  0.1294E-04 -0.2530E+07
   -1.950003   31.75490  0.5784E-14  0.4924E-05  0.2009E-05  0.2249E-03  0.6722E-05 -0.3302E+07
   -2.000000   31.75402  0.5784E-14  0.0000E+00  0.0000E+00  0.0000E+00  0.1390E-04  0.0000E+00
