 1 - depth, m
 2 - temperature, C
 3 - salinity, kg/kg
 4 - turbulent kinetic energy, m**2/s**2
 5 - dissipation rate, m**2/s**3
 6 - kinematic heat conductance, m**2/s
 7 - modulus of horizontal velocity, m/s
 8 - Richardson number, n/d
   -0.000000   30.78883  0.7343E-14  0.5309E-05  0.3398E-06  0.5310E-04  0.2117E-02  0.4282E+04
   -0.049997   30.82109  0.7343E-14  0.8928E-05  0.1507E-06  0.1865E-03  0.1193E-02  0.4273E+04
   -0.099994   30.83318  0.7343E-14  0.1078E-04  0.1038E-06  0.4059E-03  0.8900E-03  0.1214E+02
   -0.149992   30.83669  0.7343E-14  0.1195E-04  0.8689E-07  0.4916E-03  0.7871E-03  0.6007E+01
   -0.199990   30.83946  0.7343E-14  0.1287E-04  0.7701E-07  0.6561E-03  0.7044E-03  0.3845E+01
   -0.249989   30.84147  0.7343E-14  0.1360E-04  0.7057E-07  0.7843E-03  0.6424E-03  0.2830E+01
   -0.299988   30.84311  0.7343E-14  0.1419E-04  0.6600E-07  0.9114E-03  0.5908E-03  0.2255E+01
   -0.349988   30.84449  0.7343E-14  0.1469E-04  0.6259E-07  0.1026E-02  0.5465E-03  0.1934E+01
   -0.399987   30.84569  0.7343E-14  0.1511E-04  0.5992E-07  0.1132E-02  0.5071E-03  0.1752E+01
   -0.449987   30.84675  0.7343E-14  0.1547E-04  0.5774E-07  0.1233E-02  0.4719E-03  0.1661E+01
   -0.499988   30.84770  0.7343E-14  0.1579E-04  0.5593E-07  0.1328E-02  0.4404E-03  0.1632E+01
   -0.549988   30.84857  0.7343E-14  0.1607E-04  0.5442E-07  0.1415E-02  0.4120E-03  0.1608E+01
   -0.599989   30.84937  0.7343E-14  0.1631E-04  0.5315E-07  0.1493E-02  0.3863E-03  0.1611E+01
   -0.649990   30.85012  0.7343E-14  0.1652E-04  0.5210E-07  0.1563E-02  0.3630E-03  0.1616E+01
   -0.699991   30.85083  0.7343E-14  0.1669E-04  0.5122E-07  0.1624E-02  0.3415E-03  0.1645E+01
   -0.749992   30.85150  0.7343E-14  0.1683E-04  0.5049E-07  0.1676E-02  0.3219E-03  0.1675E+01
   -0.799994   30.85214  0.7343E-14  0.1694E-04  0.4991E-07  0.1719E-02  0.3038E-03  0.1736E+01
   -0.849995   30.85275  0.7343E-14  0.1703E-04  0.4945E-07  0.1753E-02  0.2870E-03  0.1802E+01
   -0.899997   30.85335  0.7343E-14  0.1709E-04  0.4911E-07  0.1778E-02  0.2713E-03  0.1908E+01
   -0.949999   30.85394  0.7343E-14  0.1713E-04  0.4889E-07  0.1794E-02  0.2567E-03  0.2027E+01
   -1.000000   30.85452  0.7343E-14  0.1714E-04  0.4879E-07  0.1802E-02  0.2428E-03  0.2199E+01
   -1.050002   30.85509  0.7343E-14  0.1713E-04  0.4881E-07  0.1799E-02  0.2297E-03  0.2483E+01
   -1.100004   30.85565  0.7343E-14  0.1710E-04  0.4896E-07  0.1905E-02  0.2171E-03  0.8104E+01
   -1.150005   30.85618  0.7343E-14  0.1704E-04  0.4929E-07  0.1684E-02  0.2060E-03  0.1967E+02
   -1.200007   30.85679  0.7343E-14  0.1695E-04  0.4976E-07  0.1725E-02  0.1942E-03  0.3663E+01
   -1.250008   30.85737  0.7343E-14  0.1684E-04  0.5046E-07  0.1692E-02  0.1829E-03  0.3927E+01
   -1.300009   30.85796  0.7343E-14  0.1669E-04  0.5141E-07  0.1635E-02  0.1721E-03  0.4618E+01
   -1.350011   30.85857  0.7343E-14  0.1650E-04  0.5271E-07  0.1571E-02  0.1616E-03  0.5618E+01
   -1.400012   30.85921  0.7343E-14  0.1627E-04  0.5447E-07  0.1483E-02  0.1513E-03  0.7044E+01
   -1.450012   30.85989  0.7343E-14  0.1599E-04  0.5687E-07  0.1405E-02  0.1411E-03  0.9203E+01
   -1.500013   30.86061  0.7343E-14  0.1565E-04  0.6025E-07  0.1282E-02  0.1312E-03  0.1297E+02
   -1.550013   30.86141  0.7343E-14  0.1523E-04  0.6510E-07  0.1205E-02  0.1210E-03  0.1980E+02
   -1.600013   30.86228  0.7343E-14  0.1469E-04  0.7285E-07  0.1051E-02  0.1111E-03  0.1127E+04
   -1.650013   30.86345  0.7343E-14  0.1399E-04  0.8489E-07  0.9765E-03  0.9987E-04  0.7112E+03
   -1.700012   30.86472  0.7343E-14  0.1302E-04  0.1067E-06  0.7849E-03  0.8905E-04  0.1383E+05
   -1.750011   30.86724  0.7343E-14  0.1181E-04  0.1416E-06  0.7169E-03  0.7387E-04  0.5670E+05
   -1.800010   30.86880  0.7343E-14  0.1028E-04  0.2203E-06  0.4842E-03  0.6365E-04  0.2299E+06
   -1.850008   30.87797  0.7343E-14  0.8700E-05  0.3646E-06  0.4650E-03  0.4369E-04  0.1044E+08
   -1.900006   30.87439  0.7343E-14  0.6960E-05  0.7595E-06  0.2140E-03  0.3634E-04 -0.1640E+06
   -1.950004   30.89888  0.7343E-14  0.4973E-05  0.1834E-05  0.2136E-03  0.1925E-04 -0.2361E+06
   -2.000000   30.90025  0.7343E-14  0.0000E+00  0.0000E+00  0.0000E+00  0.3797E-04  0.0000E+00
