 1 - depth, m
 2 - temperature, C
 3 - salinity, kg/kg
 4 - turbulent kinetic energy, m**2/s**2
 5 - dissipation rate, m**2/s**3
 6 - kinematic heat conductance, m**2/s
 7 - modulus of horizontal velocity, m/s
 8 - Richardson number, n/d
   -0.000000   30.37973  0.1111E-12  0.4715E-05  0.2882E-06  0.4997E-04  0.1708E-02  0.7588E+04
   -0.049997   30.40913  0.1111E-12  0.8031E-05  0.1285E-06  0.1734E-03  0.9779E-03  0.3450E+04
   -0.099994   30.42053  0.1111E-12  0.9738E-05  0.8820E-07  0.3925E-03  0.7148E-03  0.1654E+02
   -0.149992   30.42368  0.1111E-12  0.1080E-04  0.7397E-07  0.4722E-03  0.6310E-03  0.8039E+01
   -0.199991   30.42619  0.1111E-12  0.1163E-04  0.6564E-07  0.6307E-03  0.5631E-03  0.5157E+01
   -0.249989   30.42802  0.1111E-12  0.1229E-04  0.6018E-07  0.7543E-03  0.5123E-03  0.3796E+01
   -0.299988   30.42950  0.1111E-12  0.1283E-04  0.5629E-07  0.8771E-03  0.4700E-03  0.3020E+01
   -0.349988   30.43074  0.1111E-12  0.1328E-04  0.5337E-07  0.9885E-03  0.4338E-03  0.2579E+01
   -0.399988   30.43182  0.1111E-12  0.1365E-04  0.5111E-07  0.1090E-02  0.4018E-03  0.2299E+01
   -0.449988   30.43277  0.1111E-12  0.1398E-04  0.4927E-07  0.1185E-02  0.3736E-03  0.2155E+01
   -0.499988   30.43363  0.1111E-12  0.1426E-04  0.4775E-07  0.1272E-02  0.3487E-03  0.2098E+01
   -0.549989   30.43441  0.1111E-12  0.1450E-04  0.4648E-07  0.1352E-02  0.3264E-03  0.2067E+01
   -0.599989   30.43514  0.1111E-12  0.1471E-04  0.4541E-07  0.1424E-02  0.3063E-03  0.2071E+01
   -0.649990   30.43582  0.1111E-12  0.1489E-04  0.4451E-07  0.1488E-02  0.2879E-03  0.2096E+01
   -0.699992   30.43646  0.1111E-12  0.1504E-04  0.4376E-07  0.1546E-02  0.2711E-03  0.2148E+01
   -0.749993   30.43706  0.1111E-12  0.1517E-04  0.4313E-07  0.1596E-02  0.2555E-03  0.2218E+01
   -0.799994   30.43764  0.1111E-12  0.1527E-04  0.4262E-07  0.1638E-02  0.2410E-03  0.2317E+01
   -0.849996   30.43820  0.1111E-12  0.1536E-04  0.4220E-07  0.1672E-02  0.2275E-03  0.2438E+01
   -0.899998   30.43875  0.1111E-12  0.1542E-04  0.4189E-07  0.1699E-02  0.2148E-03  0.2593E+01
   -0.949999   30.43927  0.1111E-12  0.1546E-04  0.4168E-07  0.1717E-02  0.2029E-03  0.2778E+01
   -1.000001   30.43979  0.1111E-12  0.1548E-04  0.4156E-07  0.1728E-02  0.1916E-03  0.3009E+01
   -1.050003   30.44030  0.1111E-12  0.1548E-04  0.4155E-07  0.1729E-02  0.1809E-03  0.3417E+01
   -1.100004   30.44081  0.1111E-12  0.1546E-04  0.4165E-07  0.1814E-02  0.1706E-03  0.1136E+02
   -1.150006   30.44129  0.1111E-12  0.1542E-04  0.4188E-07  0.1647E-02  0.1615E-03  0.2587E+02
   -1.200008   30.44182  0.1111E-12  0.1535E-04  0.4223E-07  0.1671E-02  0.1521E-03  0.4974E+01
   -1.250009   30.44234  0.1111E-12  0.1526E-04  0.4275E-07  0.1640E-02  0.1431E-03  0.5328E+01
   -1.300010   30.44287  0.1111E-12  0.1515E-04  0.4348E-07  0.1591E-02  0.1344E-03  0.6252E+01
   -1.350012   30.44341  0.1111E-12  0.1500E-04  0.4446E-07  0.1533E-02  0.1259E-03  0.7520E+01
   -1.400013   30.44397  0.1111E-12  0.1481E-04  0.4578E-07  0.1456E-02  0.1177E-03  0.9324E+01
   -1.450013   30.44456  0.1111E-12  0.1459E-04  0.4757E-07  0.1380E-02  0.1097E-03  0.1194E+02
   -1.500014   30.44519  0.1111E-12  0.1431E-04  0.5005E-07  0.1267E-02  0.1018E-03  0.1632E+02
   -1.550014   30.44588  0.1111E-12  0.1397E-04  0.5355E-07  0.1188E-02  0.9381E-04  0.2333E+02
   -1.600014   30.44662  0.1111E-12  0.1355E-04  0.5891E-07  0.1040E-02  0.8606E-04  0.4561E+02
   -1.650014   30.44754  0.1111E-12  0.1300E-04  0.6717E-07  0.9688E-03  0.7765E-04  0.2860E+04
   -1.700014   30.44856  0.1111E-12  0.1224E-04  0.8215E-07  0.7819E-03  0.6961E-04 -0.1714E+03
   -1.750013   30.45045  0.1111E-12  0.1122E-04  0.1067E-06  0.7109E-03  0.5856E-04  0.1491E+06
   -1.800011   30.45193  0.1111E-12  0.9858E-05  0.1580E-06  0.4868E-03  0.5031E-04  0.6823E+05
   -1.850010   30.45847  0.1111E-12  0.8324E-05  0.2564E-06  0.4521E-03  0.3545E-04  0.4140E+08
   -1.900008   30.45711  0.1111E-12  0.6594E-05  0.5347E-06  0.2054E-03  0.2882E-04  0.4113E+06
   -1.950005   30.47705  0.1111E-12  0.4625E-05  0.1343E-05  0.1879E-03  0.1530E-04 -0.1250E+07
   -2.000002   30.47927  0.1111E-12  0.0000E+00  0.0000E+00  0.0000E+00  0.2867E-04  0.0000E+00
