 1 - depth, m
 2 - temperature, C
 3 - salinity, kg/kg
 4 - turbulent kinetic energy, m**2/s**2
 5 - dissipation rate, m**2/s**3
 6 - kinematic heat conductance, m**2/s
 7 - modulus of horizontal velocity, m/s
 8 - Richardson number, n/d
   -0.000000   31.17117  0.1098E-14  0.5622E-05  0.3828E-06  0.5470E-04  0.1616E-02  0.8001E+04
   -0.049997   31.20699  0.1098E-14  0.9526E-05  0.1709E-06  0.1862E-03  0.9355E-03  0.2536E+03
   -0.099994   31.22115  0.1098E-14  0.1157E-04  0.1170E-06  0.4186E-03  0.6881E-03  0.2022E+02
   -0.149992   31.22504  0.1098E-14  0.1285E-04  0.9779E-07  0.4996E-03  0.6091E-03  0.1001E+02
   -0.199990   31.22814  0.1098E-14  0.1384E-04  0.8656E-07  0.6730E-03  0.5447E-03  0.6358E+01
   -0.249989   31.23037  0.1098E-14  0.1462E-04  0.7924E-07  0.8038E-03  0.4968E-03  0.4693E+01
   -0.299988   31.23218  0.1098E-14  0.1526E-04  0.7402E-07  0.9366E-03  0.4570E-03  0.3718E+01
   -0.349988   31.23369  0.1098E-14  0.1578E-04  0.7011E-07  0.1056E-02  0.4229E-03  0.3176E+01
   -0.399987   31.23499  0.1098E-14  0.1621E-04  0.6706E-07  0.1165E-02  0.3928E-03  0.2820E+01
   -0.449987   31.23615  0.1098E-14  0.1658E-04  0.6458E-07  0.1265E-02  0.3663E-03  0.2646E+01
   -0.499988   31.23719  0.1098E-14  0.1690E-04  0.6252E-07  0.1357E-02  0.3428E-03  0.2565E+01
   -0.549988   31.23814  0.1098E-14  0.1716E-04  0.6079E-07  0.1441E-02  0.3218E-03  0.2530E+01
   -0.599989   31.23902  0.1098E-14  0.1739E-04  0.5932E-07  0.1517E-02  0.3027E-03  0.2521E+01
   -0.649990   31.23985  0.1098E-14  0.1758E-04  0.5808E-07  0.1584E-02  0.2853E-03  0.2554E+01
   -0.699991   31.24062  0.1098E-14  0.1774E-04  0.5701E-07  0.1643E-02  0.2692E-03  0.2601E+01
   -0.749992   31.24135  0.1098E-14  0.1786E-04  0.5612E-07  0.1693E-02  0.2544E-03  0.2689E+01
   -0.799994   31.24206  0.1098E-14  0.1796E-04  0.5536E-07  0.1735E-02  0.2406E-03  0.2790E+01
   -0.849995   31.24273  0.1098E-14  0.1802E-04  0.5475E-07  0.1768E-02  0.2276E-03  0.2938E+01
   -0.899997   31.24338  0.1098E-14  0.1806E-04  0.5426E-07  0.1793E-02  0.2154E-03  0.3105E+01
   -0.949999   31.24402  0.1098E-14  0.1807E-04  0.5391E-07  0.1808E-02  0.2039E-03  0.3332E+01
   -1.000000   31.24464  0.1098E-14  0.1806E-04  0.5368E-07  0.1815E-02  0.1930E-03  0.3590E+01
   -1.050002   31.24525  0.1098E-14  0.1802E-04  0.5359E-07  0.1809E-02  0.1827E-03  0.4072E+01
   -1.100004   31.24586  0.1098E-14  0.1795E-04  0.5366E-07  0.1930E-02  0.1727E-03  0.1301E+02
   -1.150005   31.24642  0.1098E-14  0.1785E-04  0.5391E-07  0.1669E-02  0.1640E-03  0.3285E+02
   -1.200007   31.24707  0.1098E-14  0.1772E-04  0.5434E-07  0.1723E-02  0.1546E-03  0.6035E+01
   -1.250008   31.24769  0.1098E-14  0.1756E-04  0.5501E-07  0.1689E-02  0.1457E-03  0.6407E+01
   -1.300010   31.24831  0.1098E-14  0.1736E-04  0.5598E-07  0.1627E-02  0.1371E-03  0.7601E+01
   -1.350011   31.24896  0.1098E-14  0.1712E-04  0.5735E-07  0.1558E-02  0.1287E-03  0.9223E+01
   -1.400012   31.24963  0.1098E-14  0.1683E-04  0.5926E-07  0.1465E-02  0.1206E-03  0.1171E+02
   -1.450012   31.25034  0.1098E-14  0.1649E-04  0.6196E-07  0.1381E-02  0.1125E-03  0.1536E+02
   -1.500013   31.25110  0.1098E-14  0.1607E-04  0.6584E-07  0.1256E-02  0.1044E-03  0.2204E+02
   -1.550013   31.25195  0.1098E-14  0.1556E-04  0.7152E-07  0.1176E-02  0.9627E-04  0.3442E+02
   -1.600013   31.25287  0.1098E-14  0.1491E-04  0.8089E-07  0.1028E-02  0.8827E-04 -0.5107E+04
   -1.650013   31.25415  0.1098E-14  0.1406E-04  0.9589E-07  0.9423E-03  0.7903E-04  0.4029E+03
   -1.700012   31.25560  0.1098E-14  0.1288E-04  0.1236E-06  0.7635E-03  0.6977E-04 -0.3850E+04
   -1.750011   31.25844  0.1098E-14  0.1150E-04  0.1665E-06  0.6791E-03  0.5693E-04  0.2971E+06
   -1.800010   31.26002  0.1098E-14  0.9803E-05  0.2607E-06  0.4597E-03  0.4876E-04  0.2939E+06
   -1.850008   31.27079  0.1098E-14  0.8184E-05  0.4398E-06  0.4408E-03  0.3196E-04  0.2175E+08
   -1.900006   31.26557  0.1098E-14  0.6489E-05  0.9356E-06  0.2094E-03  0.2674E-04 -0.1478E+06
   -1.950004   31.29216  0.1098E-14  0.4730E-05  0.2173E-05  0.2377E-03  0.1355E-04 -0.6262E+05
   -2.000001   31.28969  0.1098E-14  0.0000E+00  0.0000E+00  0.0000E+00  0.3032E-04  0.0000E+00
