 1 - depth, m
 2 - temperature, C
 3 - salinity, kg/kg
 4 - turbulent kinetic energy, m**2/s**2
 5 - dissipation rate, m**2/s**3
 6 - kinematic heat conductance, m**2/s
 7 - modulus of horizontal velocity, m/s
 8 - Richardson number, n/d
   -0.000000   29.72391  0.7990E-13  0.4510E-05  0.2625E-06  0.4846E-04  0.2063E-02  0.3072E+04
   -0.049997   29.75161  0.7990E-13  0.7625E-05  0.1166E-06  0.1726E-03  0.1161E-02  0.1368E+04
   -0.099994   29.76182  0.7990E-13  0.9199E-05  0.8042E-07  0.3812E-03  0.8557E-03  0.1106E+02
   -0.149992   29.76480  0.7990E-13  0.1019E-04  0.6748E-07  0.4638E-03  0.7540E-03  0.5377E+01
   -0.199991   29.76714  0.7990E-13  0.1097E-04  0.5990E-07  0.6154E-03  0.6726E-03  0.3464E+01
   -0.249989   29.76886  0.7990E-13  0.1159E-04  0.5492E-07  0.7365E-03  0.6113E-03  0.2549E+01
   -0.299989   29.77026  0.7990E-13  0.1209E-04  0.5138E-07  0.8555E-03  0.5604E-03  0.2031E+01
   -0.349988   29.77143  0.7990E-13  0.1252E-04  0.4873E-07  0.9639E-03  0.5167E-03  0.1735E+01
   -0.399988   29.77245  0.7990E-13  0.1287E-04  0.4667E-07  0.1063E-02  0.4780E-03  0.1550E+01
   -0.449988   29.77336  0.7990E-13  0.1318E-04  0.4499E-07  0.1155E-02  0.4441E-03  0.1459E+01
   -0.499988   29.77417  0.7990E-13  0.1345E-04  0.4361E-07  0.1240E-02  0.4139E-03  0.1430E+01
   -0.549989   29.77492  0.7990E-13  0.1368E-04  0.4245E-07  0.1319E-02  0.3870E-03  0.1413E+01
   -0.599990   29.77560  0.7990E-13  0.1388E-04  0.4148E-07  0.1391E-02  0.3625E-03  0.1418E+01
   -0.649991   29.77625  0.7990E-13  0.1406E-04  0.4066E-07  0.1456E-02  0.3403E-03  0.1431E+01
   -0.699992   29.77685  0.7990E-13  0.1421E-04  0.3998E-07  0.1512E-02  0.3200E-03  0.1463E+01
   -0.749993   29.77743  0.7990E-13  0.1433E-04  0.3942E-07  0.1562E-02  0.3013E-03  0.1507E+01
   -0.799995   29.77798  0.7990E-13  0.1444E-04  0.3895E-07  0.1603E-02  0.2839E-03  0.1574E+01
   -0.849996   29.77851  0.7990E-13  0.1452E-04  0.3859E-07  0.1638E-02  0.2677E-03  0.1654E+01
   -0.899998   29.77903  0.7990E-13  0.1459E-04  0.3831E-07  0.1665E-02  0.2526E-03  0.1762E+01
   -0.950000   29.77953  0.7990E-13  0.1463E-04  0.3812E-07  0.1684E-02  0.2383E-03  0.1885E+01
   -1.000002   29.78002  0.7990E-13  0.1466E-04  0.3802E-07  0.1695E-02  0.2249E-03  0.2046E+01
   -1.050003   29.78051  0.7990E-13  0.1467E-04  0.3801E-07  0.1697E-02  0.2121E-03  0.2322E+01
   -1.100005   29.78099  0.7990E-13  0.1465E-04  0.3810E-07  0.1774E-02  0.1999E-03  0.7784E+01
   -1.150007   29.78145  0.7990E-13  0.1462E-04  0.3831E-07  0.1630E-02  0.1891E-03  0.1736E+02
   -1.200008   29.78195  0.7990E-13  0.1457E-04  0.3863E-07  0.1647E-02  0.1779E-03  0.3362E+01
   -1.250010   29.78244  0.7990E-13  0.1449E-04  0.3910E-07  0.1618E-02  0.1672E-03  0.3606E+01
   -1.300011   29.78294  0.7990E-13  0.1439E-04  0.3974E-07  0.1572E-02  0.1569E-03  0.4210E+01
   -1.350012   29.78346  0.7990E-13  0.1426E-04  0.4061E-07  0.1516E-02  0.1470E-03  0.5056E+01
   -1.400013   29.78399  0.7990E-13  0.1410E-04  0.4177E-07  0.1445E-02  0.1373E-03  0.6214E+01
   -1.450014   29.78454  0.7990E-13  0.1390E-04  0.4332E-07  0.1370E-02  0.1278E-03  0.7922E+01
   -1.500015   29.78513  0.7990E-13  0.1366E-04  0.4545E-07  0.1265E-02  0.1185E-03  0.1063E+02
   -1.550015   29.78578  0.7990E-13  0.1336E-04  0.4843E-07  0.1181E-02  0.1092E-03  0.1500E+02
   -1.600015   29.78648  0.7990E-13  0.1298E-04  0.5286E-07  0.1042E-02  0.1001E-03  0.2537E+02
   -1.650015   29.78730  0.7990E-13  0.1250E-04  0.5963E-07  0.9652E-03  0.9057E-04  0.1062E+03
   -1.700014   29.78823  0.7990E-13  0.1185E-04  0.7191E-07  0.7907E-03  0.8130E-04 -0.4017E+03
   -1.750014   29.78984  0.7990E-13  0.1094E-04  0.9226E-07  0.7092E-03  0.6914E-04  0.8422E+05
   -1.800012   29.79131  0.7990E-13  0.9676E-05  0.1339E-06  0.4963E-03  0.5920E-04  0.4262E+04
   -1.850011   29.79664  0.7990E-13  0.8206E-05  0.2130E-06  0.4502E-03  0.4263E-04  0.8137E+07
   -1.900009   29.79621  0.7990E-13  0.6494E-05  0.4435E-06  0.2049E-03  0.3426E-04 -0.2234E+06
   -1.950006   29.81413  0.7990E-13  0.4507E-05  0.1129E-05  0.1750E-03  0.1846E-04 -0.1028E+07
   -2.000003   29.81628  0.7990E-13  0.0000E+00  0.0000E+00  0.0000E+00  0.3312E-04  0.0000E+00
