 1 - depth, m
 2 - temperature, C
 3 - salinity, kg/kg
 4 - turbulent kinetic energy, m**2/s**2
 5 - dissipation rate, m**2/s**3
 6 - kinematic heat conductance, m**2/s
 7 - modulus of horizontal velocity, m/s
 8 - Richardson number, n/d
   -0.000000   31.13446  0.7340E-14  0.5411E-05  0.3621E-06  0.5393E-04  0.1604E-02  0.8077E+04
   -0.049997   31.16825  0.7340E-14  0.9194E-05  0.1614E-06  0.1836E-03  0.9279E-03  0.5862E+04
   -0.099994   31.18173  0.7340E-14  0.1118E-04  0.1104E-06  0.4162E-03  0.6799E-03  0.1981E+02
   -0.149992   31.18537  0.7340E-14  0.1242E-04  0.9232E-07  0.4963E-03  0.6019E-03  0.9765E+01
   -0.199990   31.18829  0.7340E-14  0.1339E-04  0.8181E-07  0.6686E-03  0.5382E-03  0.6221E+01
   -0.249989   31.19039  0.7340E-14  0.1416E-04  0.7497E-07  0.7985E-03  0.4908E-03  0.4583E+01
   -0.299988   31.19210  0.7340E-14  0.1478E-04  0.7011E-07  0.9305E-03  0.4514E-03  0.3644E+01
   -0.349987   31.19353  0.7340E-14  0.1530E-04  0.6649E-07  0.1049E-02  0.4177E-03  0.3107E+01
   -0.399987   31.19477  0.7340E-14  0.1573E-04  0.6367E-07  0.1157E-02  0.3879E-03  0.2770E+01
   -0.449987   31.19587  0.7340E-14  0.1610E-04  0.6139E-07  0.1258E-02  0.3617E-03  0.2590E+01
   -0.499987   31.19687  0.7340E-14  0.1643E-04  0.5951E-07  0.1350E-02  0.3385E-03  0.2521E+01
   -0.549988   31.19777  0.7340E-14  0.1670E-04  0.5794E-07  0.1434E-02  0.3176E-03  0.2478E+01
   -0.599989   31.19861  0.7340E-14  0.1694E-04  0.5662E-07  0.1509E-02  0.2988E-03  0.2483E+01
   -0.649990   31.19940  0.7340E-14  0.1714E-04  0.5551E-07  0.1577E-02  0.2816E-03  0.2505E+01
   -0.699991   31.20014  0.7340E-14  0.1731E-04  0.5459E-07  0.1636E-02  0.2657E-03  0.2568E+01
   -0.749992   31.20084  0.7340E-14  0.1745E-04  0.5382E-07  0.1687E-02  0.2511E-03  0.2645E+01
   -0.799994   31.20151  0.7340E-14  0.1756E-04  0.5319E-07  0.1729E-02  0.2374E-03  0.2766E+01
   -0.849995   31.20216  0.7340E-14  0.1765E-04  0.5269E-07  0.1763E-02  0.2246E-03  0.2902E+01
   -0.899997   31.20279  0.7340E-14  0.1771E-04  0.5232E-07  0.1789E-02  0.2126E-03  0.3092E+01
   -0.949998   31.20341  0.7340E-14  0.1774E-04  0.5208E-07  0.1805E-02  0.2012E-03  0.3305E+01
   -1.000000   31.20401  0.7340E-14  0.1775E-04  0.5196E-07  0.1812E-02  0.1905E-03  0.3593E+01
   -1.050002   31.20461  0.7340E-14  0.1773E-04  0.5198E-07  0.1808E-02  0.1802E-03  0.4065E+01
   -1.100003   31.20521  0.7340E-14  0.1769E-04  0.5214E-07  0.1921E-02  0.1704E-03  0.1318E+02
   -1.150005   31.20576  0.7340E-14  0.1762E-04  0.5249E-07  0.1682E-02  0.1618E-03  0.3273E+02
   -1.200006   31.20640  0.7340E-14  0.1753E-04  0.5301E-07  0.1728E-02  0.1525E-03  0.6050E+01
   -1.250008   31.20701  0.7340E-14  0.1740E-04  0.5376E-07  0.1694E-02  0.1438E-03  0.6496E+01
   -1.300009   31.20763  0.7340E-14  0.1723E-04  0.5481E-07  0.1635E-02  0.1353E-03  0.7679E+01
   -1.350010   31.20828  0.7340E-14  0.1703E-04  0.5623E-07  0.1568E-02  0.1271E-03  0.9382E+01
   -1.400011   31.20895  0.7340E-14  0.1677E-04  0.5817E-07  0.1478E-02  0.1190E-03  0.1186E+02
   -1.450012   31.20966  0.7340E-14  0.1647E-04  0.6085E-07  0.1396E-02  0.1110E-03  0.1561E+02
   -1.500012   31.21042  0.7340E-14  0.1609E-04  0.6463E-07  0.1272E-02  0.1032E-03  0.2228E+02
   -1.550013   31.21128  0.7340E-14  0.1563E-04  0.7014E-07  0.1193E-02  0.9515E-04  0.3550E+02
   -1.600013   31.21221  0.7340E-14  0.1504E-04  0.7901E-07  0.1038E-02  0.8727E-04  0.9470E+03
   -1.650012   31.21348  0.7340E-14  0.1426E-04  0.9287E-07  0.9597E-03  0.7830E-04  0.1189E+04
   -1.700012   31.21491  0.7340E-14  0.1318E-04  0.1179E-06  0.7707E-03  0.6946E-04  0.3505E+05
   -1.750011   31.21764  0.7340E-14  0.1189E-04  0.1576E-06  0.7000E-03  0.5729E-04  0.1307E+07
   -1.800010   31.21930  0.7340E-14  0.1028E-04  0.2456E-06  0.4728E-03  0.4926E-04  0.1174E+05
   -1.850008   31.22967  0.7340E-14  0.8637E-05  0.4113E-06  0.4535E-03  0.3316E-04  0.3929E+08
   -1.900006   31.22532  0.7340E-14  0.6855E-05  0.8639E-06  0.2121E-03  0.2758E-04 -0.9457E+06
   -1.950003   31.25222  0.7340E-14  0.4950E-05  0.2052E-05  0.2263E-03  0.1419E-04 -0.3243E+06
   -2.000000   31.25188  0.7340E-14  0.0000E+00  0.0000E+00  0.0000E+00  0.2979E-04  0.0000E+00
