 1 - depth, m
 2 - temperature, C
 3 - salinity, kg/kg
 4 - turbulent kinetic energy, m**2/s**2
 5 - dissipation rate, m**2/s**3
 6 - kinematic heat conductance, m**2/s
 7 - modulus of horizontal velocity, m/s
 8 - Richardson number, n/d
   -0.000000   30.42788  0.1951E-14  0.4749E-05  0.2938E-06  0.4997E-04  0.1179E-02  0.5687E+04
   -0.049997   30.45821  0.1951E-14  0.8205E-05  0.1309E-06  0.1769E-03  0.6698E-03  0.1724E+04
   -0.099994   30.46992  0.1951E-14  0.9953E-05  0.9019E-07  0.4008E-03  0.4901E-03  0.3846E+02
   -0.149992   30.47313  0.1951E-14  0.1104E-04  0.7583E-07  0.4798E-03  0.4329E-03  0.1879E+02
   -0.199991   30.47569  0.1951E-14  0.1189E-04  0.6738E-07  0.6409E-03  0.3865E-03  0.1211E+02
   -0.249989   30.47755  0.1951E-14  0.1256E-04  0.6183E-07  0.7657E-03  0.3518E-03  0.8975E+01
   -0.299989   30.47906  0.1951E-14  0.1311E-04  0.5786E-07  0.8899E-03  0.3229E-03  0.7135E+01
   -0.349988   30.48033  0.1951E-14  0.1356E-04  0.5487E-07  0.1002E-02  0.2981E-03  0.6120E+01
   -0.399988   30.48143  0.1951E-14  0.1394E-04  0.5254E-07  0.1105E-02  0.2762E-03  0.5440E+01
   -0.449988   30.48240  0.1951E-14  0.1427E-04  0.5064E-07  0.1201E-02  0.2569E-03  0.5124E+01
   -0.499988   30.48328  0.1951E-14  0.1455E-04  0.4907E-07  0.1288E-02  0.2399E-03  0.4967E+01
   -0.549989   30.48408  0.1951E-14  0.1479E-04  0.4774E-07  0.1369E-02  0.2246E-03  0.4917E+01
   -0.599990   30.48483  0.1951E-14  0.1500E-04  0.4662E-07  0.1441E-02  0.2108E-03  0.4897E+01
   -0.649991   30.48552  0.1951E-14  0.1518E-04  0.4567E-07  0.1507E-02  0.1982E-03  0.4974E+01
   -0.699992   30.48617  0.1951E-14  0.1532E-04  0.4486E-07  0.1564E-02  0.1867E-03  0.5059E+01
   -0.749993   30.48679  0.1951E-14  0.1545E-04  0.4417E-07  0.1615E-02  0.1760E-03  0.5241E+01
   -0.799995   30.48738  0.1951E-14  0.1555E-04  0.4360E-07  0.1658E-02  0.1660E-03  0.5428E+01
   -0.849996   30.48795  0.1951E-14  0.1562E-04  0.4313E-07  0.1693E-02  0.1567E-03  0.5723E+01
   -0.899998   30.48850  0.1951E-14  0.1567E-04  0.4276E-07  0.1720E-02  0.1480E-03  0.6027E+01
   -0.950000   30.48903  0.1951E-14  0.1571E-04  0.4248E-07  0.1739E-02  0.1398E-03  0.6466E+01
   -1.000001   30.48956  0.1951E-14  0.1572E-04  0.4230E-07  0.1750E-02  0.1321E-03  0.6930E+01
   -1.050003   30.49007  0.1951E-14  0.1571E-04  0.4221E-07  0.1751E-02  0.1247E-03  0.7864E+01
   -1.100005   30.49058  0.1951E-14  0.1568E-04  0.4224E-07  0.1837E-02  0.1177E-03  0.2598E+02
   -1.150006   30.49106  0.1951E-14  0.1562E-04  0.4239E-07  0.1669E-02  0.1114E-03  0.5819E+02
   -1.200008   30.49158  0.1951E-14  0.1555E-04  0.4267E-07  0.1695E-02  0.1049E-03  0.1124E+02
   -1.250010   30.49210  0.1951E-14  0.1544E-04  0.4311E-07  0.1665E-02  0.9875E-04  0.1189E+02
   -1.300011   30.49261  0.1951E-14  0.1531E-04  0.4374E-07  0.1617E-02  0.9277E-04  0.1390E+02
   -1.350012   30.49314  0.1951E-14  0.1515E-04  0.4462E-07  0.1559E-02  0.8699E-04  0.1648E+02
   -1.400013   30.49369  0.1951E-14  0.1496E-04  0.4583E-07  0.1483E-02  0.8135E-04  0.2030E+02
   -1.450014   30.49426  0.1951E-14  0.1472E-04  0.4748E-07  0.1406E-02  0.7583E-04  0.2558E+02
   -1.500015   30.49486  0.1951E-14  0.1444E-04  0.4978E-07  0.1295E-02  0.7040E-04  0.3448E+02
   -1.550015   30.49552  0.1951E-14  0.1409E-04  0.5304E-07  0.1210E-02  0.6496E-04  0.4829E+02
   -1.600015   30.49622  0.1951E-14  0.1366E-04  0.5803E-07  0.1068E-02  0.5963E-04  0.8724E+02
   -1.650015   30.49707  0.1951E-14  0.1312E-04  0.6574E-07  0.9873E-03  0.5395E-04  0.5330E+03
   -1.700014   30.49802  0.1951E-14  0.1237E-04  0.7966E-07  0.8075E-03  0.4840E-04 -0.1481E+04
   -1.750013   30.49970  0.1951E-14  0.1137E-04  0.1027E-06  0.7278E-03  0.4103E-04  0.3131E+05
   -1.800012   30.50114  0.1951E-14  0.1001E-04  0.1525E-06  0.5077E-03  0.3520E-04  0.1637E+06
   -1.850010   30.50677  0.1951E-14  0.8480E-05  0.2433E-06  0.4615E-03  0.2519E-04  0.1363E+08
   -1.900008   30.50586  0.1951E-14  0.6660E-05  0.5069E-06  0.2077E-03  0.2040E-04 -0.1159E+07
   -1.950006   30.52371  0.1951E-14  0.4639E-05  0.1271E-05  0.1867E-03  0.1084E-04 -0.5797E+06
   -2.000003   30.52498  0.1951E-14  0.0000E+00  0.0000E+00  0.0000E+00  0.2016E-04  0.0000E+00
