 1 - depth, m
 2 - temperature, C
 3 - salinity, kg/kg
 4 - turbulent kinetic energy, m**2/s**2
 5 - dissipation rate, m**2/s**3
 6 - kinematic heat conductance, m**2/s
 7 - modulus of horizontal velocity, m/s
 8 - Richardson number, n/d
   -0.000000   30.78996  0.1639E-13  0.4982E-05  0.3179E-06  0.5084E-04  0.9368E-03  0.3705E+04
   -0.049997   30.82225  0.1639E-13  0.8642E-05  0.1412E-06  0.1831E-03  0.5318E-03  0.1495E+04
   -0.099994   30.83446  0.1639E-13  0.1048E-04  0.9740E-07  0.4120E-03  0.3902E-03  0.5855E+02
   -0.149992   30.83780  0.1639E-13  0.1163E-04  0.8193E-07  0.4914E-03  0.3453E-03  0.2879E+02
   -0.199991   30.84048  0.1639E-13  0.1252E-04  0.7282E-07  0.6574E-03  0.3088E-03  0.1857E+02
   -0.249989   30.84243  0.1639E-13  0.1323E-04  0.6684E-07  0.7843E-03  0.2814E-03  0.1378E+02
   -0.299988   30.84401  0.1639E-13  0.1381E-04  0.6257E-07  0.9116E-03  0.2586E-03  0.1099E+02
   -0.349988   30.84534  0.1639E-13  0.1429E-04  0.5937E-07  0.1026E-02  0.2391E-03  0.9417E+01
   -0.399988   30.84649  0.1639E-13  0.1469E-04  0.5687E-07  0.1131E-02  0.2218E-03  0.8399E+01
   -0.449988   30.84751  0.1639E-13  0.1503E-04  0.5484E-07  0.1229E-02  0.2066E-03  0.7891E+01
   -0.499988   30.84843  0.1639E-13  0.1532E-04  0.5315E-07  0.1318E-02  0.1931E-03  0.7676E+01
   -0.549989   30.84928  0.1639E-13  0.1558E-04  0.5174E-07  0.1399E-02  0.1810E-03  0.7578E+01
   -0.599989   30.85005  0.1639E-13  0.1580E-04  0.5055E-07  0.1473E-02  0.1701E-03  0.7581E+01
   -0.649990   30.85078  0.1639E-13  0.1598E-04  0.4954E-07  0.1539E-02  0.1601E-03  0.7683E+01
   -0.699992   30.85147  0.1639E-13  0.1614E-04  0.4869E-07  0.1597E-02  0.1509E-03  0.7857E+01
   -0.749993   30.85212  0.1639E-13  0.1627E-04  0.4797E-07  0.1647E-02  0.1424E-03  0.8126E+01
   -0.799994   30.85274  0.1639E-13  0.1637E-04  0.4737E-07  0.1690E-02  0.1345E-03  0.8467E+01
   -0.849996   30.85334  0.1639E-13  0.1645E-04  0.4689E-07  0.1724E-02  0.1271E-03  0.8919E+01
   -0.899998   30.85392  0.1639E-13  0.1650E-04  0.4652E-07  0.1750E-02  0.1202E-03  0.9461E+01
   -0.949999   30.85449  0.1639E-13  0.1653E-04  0.4625E-07  0.1767E-02  0.1136E-03  0.1015E+02
   -1.000001   30.85504  0.1639E-13  0.1654E-04  0.4609E-07  0.1777E-02  0.1074E-03  0.1097E+02
   -1.050003   30.85559  0.1639E-13  0.1653E-04  0.4605E-07  0.1775E-02  0.1015E-03  0.1246E+02
   -1.100004   30.85613  0.1639E-13  0.1649E-04  0.4612E-07  0.1874E-02  0.9589E-04  0.4087E+02
   -1.150006   30.85664  0.1639E-13  0.1643E-04  0.4635E-07  0.1673E-02  0.9090E-04  0.9573E+02
   -1.200008   30.85721  0.1639E-13  0.1634E-04  0.4671E-07  0.1708E-02  0.8564E-04  0.1821E+02
   -1.250009   30.85776  0.1639E-13  0.1623E-04  0.4726E-07  0.1676E-02  0.8064E-04  0.1945E+02
   -1.300010   30.85831  0.1639E-13  0.1608E-04  0.4805E-07  0.1623E-02  0.7582E-04  0.2290E+02
   -1.350012   30.85889  0.1639E-13  0.1590E-04  0.4913E-07  0.1560E-02  0.7115E-04  0.2758E+02
   -1.400013   30.85948  0.1639E-13  0.1568E-04  0.5061E-07  0.1479E-02  0.6658E-04  0.3440E+02
   -1.450013   30.86011  0.1639E-13  0.1541E-04  0.5264E-07  0.1397E-02  0.6209E-04  0.4437E+02
   -1.500014   30.86077  0.1639E-13  0.1509E-04  0.5549E-07  0.1282E-02  0.5766E-04  0.6121E+02
   -1.550014   30.86150  0.1639E-13  0.1469E-04  0.5959E-07  0.1195E-02  0.5320E-04  0.9013E+02
   -1.600014   30.86230  0.1639E-13  0.1420E-04  0.6590E-07  0.1051E-02  0.4880E-04  0.1760E+03
   -1.650014   30.86327  0.1639E-13  0.1356E-04  0.7592E-07  0.9695E-03  0.4408E-04  0.2195E+04
   -1.700014   30.86443  0.1639E-13  0.1268E-04  0.9373E-07  0.7906E-03  0.3928E-04  0.9336E+05
   -1.750013   30.86643  0.1639E-13  0.1154E-04  0.1228E-06  0.7082E-03  0.3301E-04  0.1443E+06
   -1.800011   30.86810  0.1639E-13  0.1001E-04  0.1895E-06  0.4862E-03  0.2817E-04  0.1063E+06
   -1.850010   30.87552  0.1639E-13  0.8411E-05  0.3079E-06  0.4534E-03  0.1951E-04  0.2801E+08
   -1.900008   30.87325  0.1639E-13  0.6638E-05  0.6421E-06  0.2055E-03  0.1599E-04  0.2899E+07
   -1.950005   30.89487  0.1639E-13  0.4713E-05  0.1577E-05  0.2051E-03  0.8335E-05 -0.1037E+07
   -2.000002   30.89487  0.1639E-13  0.0000E+00  0.0000E+00  0.0000E+00  0.1652E-04  0.0000E+00
