 1 - depth, m
 2 - temperature, C
 3 - salinity, kg/kg
 4 - turbulent kinetic energy, m**2/s**2
 5 - dissipation rate, m**2/s**3
 6 - kinematic heat conductance, m**2/s
 7 - modulus of horizontal velocity, m/s
 8 - Richardson number, n/d
   -0.000000   30.90979  0.8466E-14  0.5108E-05  0.3280E-06  0.5123E-04  0.1348E-02  0.6735E+04
   -0.049997   30.94263  0.8466E-14  0.8759E-05  0.1460E-06  0.1843E-03  0.7668E-03  0.6148E+03
   -0.099994   30.95496  0.8466E-14  0.1062E-04  0.1007E-06  0.4075E-03  0.5648E-03  0.2747E+02
   -0.149992   30.95841  0.8466E-14  0.1179E-04  0.8442E-07  0.4909E-03  0.4993E-03  0.1355E+02
   -0.199991   30.96115  0.8466E-14  0.1270E-04  0.7489E-07  0.6567E-03  0.4462E-03  0.8660E+01
   -0.249989   30.96313  0.8466E-14  0.1341E-04  0.6866E-07  0.7842E-03  0.4066E-03  0.6395E+01
   -0.299988   30.96475  0.8467E-14  0.1400E-04  0.6421E-07  0.9127E-03  0.3737E-03  0.5079E+01
   -0.349988   30.96610  0.8467E-14  0.1448E-04  0.6088E-07  0.1028E-02  0.3454E-03  0.4340E+01
   -0.399988   30.96727  0.8467E-14  0.1489E-04  0.5828E-07  0.1134E-02  0.3204E-03  0.3861E+01
   -0.449988   30.96831  0.8467E-14  0.1524E-04  0.5617E-07  0.1233E-02  0.2985E-03  0.3620E+01
   -0.499988   30.96924  0.8467E-14  0.1554E-04  0.5442E-07  0.1323E-02  0.2790E-03  0.3514E+01
   -0.549989   30.97009  0.8467E-14  0.1580E-04  0.5295E-07  0.1405E-02  0.2616E-03  0.3463E+01
   -0.599989   30.97088  0.8467E-14  0.1602E-04  0.5171E-07  0.1480E-02  0.2458E-03  0.3457E+01
   -0.649990   30.97162  0.8467E-14  0.1621E-04  0.5066E-07  0.1547E-02  0.2314E-03  0.3496E+01
   -0.699992   30.97231  0.8467E-14  0.1637E-04  0.4977E-07  0.1606E-02  0.2181E-03  0.3566E+01
   -0.749993   30.97297  0.8467E-14  0.1650E-04  0.4902E-07  0.1657E-02  0.2059E-03  0.3679E+01
   -0.799994   30.97360  0.8467E-14  0.1660E-04  0.4840E-07  0.1700E-02  0.1945E-03  0.3824E+01
   -0.849996   30.97421  0.8467E-14  0.1668E-04  0.4790E-07  0.1735E-02  0.1838E-03  0.4017E+01
   -0.899998   30.97479  0.8467E-14  0.1674E-04  0.4750E-07  0.1762E-02  0.1738E-03  0.4250E+01
   -0.949999   30.97536  0.8467E-14  0.1677E-04  0.4722E-07  0.1781E-02  0.1644E-03  0.4544E+01
   -1.000001   30.97592  0.8467E-14  0.1678E-04  0.4705E-07  0.1791E-02  0.1555E-03  0.4898E+01
   -1.050003   30.97647  0.8467E-14  0.1677E-04  0.4699E-07  0.1790E-02  0.1470E-03  0.5541E+01
   -1.100004   30.97702  0.8467E-14  0.1673E-04  0.4705E-07  0.1886E-02  0.1389E-03  0.1819E+02
   -1.150006   30.97753  0.8467E-14  0.1667E-04  0.4727E-07  0.1692E-02  0.1317E-03  0.4229E+02
   -1.200008   30.97810  0.8467E-14  0.1658E-04  0.4763E-07  0.1726E-02  0.1241E-03  0.8029E+01
   -1.250009   30.97865  0.8467E-14  0.1647E-04  0.4818E-07  0.1694E-02  0.1169E-03  0.8529E+01
   -1.300010   30.97921  0.8467E-14  0.1632E-04  0.4897E-07  0.1642E-02  0.1100E-03  0.1000E+02
   -1.350011   30.97979  0.8467E-14  0.1614E-04  0.5005E-07  0.1579E-02  0.1032E-03  0.1199E+02
   -1.400013   30.98038  0.8467E-14  0.1593E-04  0.5154E-07  0.1499E-02  0.9663E-04  0.1488E+02
   -1.450013   30.98101  0.8467E-14  0.1566E-04  0.5358E-07  0.1417E-02  0.9015E-04  0.1912E+02
   -1.500014   30.98167  0.8467E-14  0.1534E-04  0.5645E-07  0.1304E-02  0.8377E-04  0.2621E+02
   -1.550014   30.98240  0.8467E-14  0.1494E-04  0.6057E-07  0.1216E-02  0.7734E-04  0.3870E+02
   -1.600014   30.98320  0.8467E-14  0.1445E-04  0.6693E-07  0.1074E-02  0.7100E-04  0.8088E+02
   -1.650014   30.98417  0.8467E-14  0.1382E-04  0.7702E-07  0.9880E-03  0.6419E-04  0.1239E+04
   -1.700013   30.98534  0.8467E-14  0.1294E-04  0.9488E-07  0.8073E-03  0.5726E-04 -0.1220E+04
   -1.750013   30.98731  0.8467E-14  0.1183E-04  0.1235E-06  0.7242E-03  0.4830E-04  0.4042E+06
   -1.800011   30.98888  0.8467E-14  0.1036E-04  0.1849E-06  0.5024E-03  0.4149E-04  0.8258E+05
   -1.850010   30.99604  0.8467E-14  0.8784E-05  0.3018E-06  0.4654E-03  0.2927E-04  0.1747E+08
   -1.900007   30.99408  0.8467E-14  0.6972E-05  0.6305E-06  0.2153E-03  0.2395E-04  0.6546E+05
   -1.950005   31.01503  0.8467E-14  0.4915E-05  0.1545E-05  0.2002E-03  0.1280E-04 -0.1585E+06
   -2.000002   31.01564  0.8467E-14  0.0000E+00  0.0000E+00  0.0000E+00  0.2428E-04  0.0000E+00
