 1 - depth, m
 2 - temperature, C
 3 - salinity, kg/kg
 4 - turbulent kinetic energy, m**2/s**2
 5 - dissipation rate, m**2/s**3
 6 - kinematic heat conductance, m**2/s
 7 - modulus of horizontal velocity, m/s
 8 - Richardson number, n/d
   -0.000000   30.64322  0.6996E-14  0.4881E-05  0.3041E-06  0.5015E-04  0.1308E-02  0.8954E+04
   -0.049997   30.67457  0.6996E-14  0.8393E-05  0.1358E-06  0.1803E-03  0.7412E-03  0.2179E+03
   -0.099994   30.68635  0.6997E-14  0.1017E-04  0.9391E-07  0.3996E-03  0.5465E-03  0.2782E+02
   -0.149992   30.68967  0.6997E-14  0.1129E-04  0.7881E-07  0.4829E-03  0.4826E-03  0.1367E+02
   -0.199991   30.69229  0.6997E-14  0.1216E-04  0.6996E-07  0.6447E-03  0.4311E-03  0.8756E+01
   -0.249989   30.69420  0.6997E-14  0.1284E-04  0.6415E-07  0.7706E-03  0.3925E-03  0.6457E+01
   -0.299988   30.69574  0.6997E-14  0.1340E-04  0.6000E-07  0.8962E-03  0.3604E-03  0.5131E+01
   -0.349988   30.69704  0.6997E-14  0.1387E-04  0.5689E-07  0.1010E-02  0.3329E-03  0.4382E+01
   -0.399988   30.69816  0.6997E-14  0.1425E-04  0.5445E-07  0.1114E-02  0.3086E-03  0.3900E+01
   -0.449988   30.69916  0.6997E-14  0.1459E-04  0.5247E-07  0.1210E-02  0.2872E-03  0.3656E+01
   -0.499988   30.70005  0.6997E-14  0.1488E-04  0.5083E-07  0.1299E-02  0.2683E-03  0.3553E+01
   -0.549989   30.70087  0.6997E-14  0.1512E-04  0.4945E-07  0.1380E-02  0.2513E-03  0.3500E+01
   -0.599990   30.70163  0.6997E-14  0.1533E-04  0.4828E-07  0.1454E-02  0.2360E-03  0.3496E+01
   -0.649991   30.70234  0.6997E-14  0.1551E-04  0.4729E-07  0.1520E-02  0.2220E-03  0.3533E+01
   -0.699992   30.70300  0.6997E-14  0.1567E-04  0.4644E-07  0.1578E-02  0.2091E-03  0.3607E+01
   -0.749993   30.70363  0.6997E-14  0.1579E-04  0.4573E-07  0.1629E-02  0.1972E-03  0.3718E+01
   -0.799995   30.70424  0.6997E-14  0.1589E-04  0.4513E-07  0.1673E-02  0.1862E-03  0.3865E+01
   -0.849996   30.70481  0.6997E-14  0.1597E-04  0.4464E-07  0.1708E-02  0.1758E-03  0.4055E+01
   -0.899998   30.70537  0.6997E-14  0.1602E-04  0.4425E-07  0.1735E-02  0.1662E-03  0.4289E+01
   -0.950000   30.70592  0.6997E-14  0.1605E-04  0.4396E-07  0.1755E-02  0.1570E-03  0.4579E+01
   -1.000001   30.70645  0.6997E-14  0.1607E-04  0.4377E-07  0.1766E-02  0.1484E-03  0.4929E+01
   -1.050003   30.70697  0.6997E-14  0.1605E-04  0.4368E-07  0.1767E-02  0.1402E-03  0.5567E+01
   -1.100005   30.70749  0.6997E-14  0.1602E-04  0.4371E-07  0.1855E-02  0.1324E-03  0.1845E+02
   -1.150006   30.70798  0.6997E-14  0.1597E-04  0.4387E-07  0.1684E-02  0.1254E-03  0.4154E+02
   -1.200008   30.70852  0.6997E-14  0.1589E-04  0.4416E-07  0.1710E-02  0.1181E-03  0.7973E+01
   -1.250009   30.70904  0.6997E-14  0.1578E-04  0.4461E-07  0.1680E-02  0.1112E-03  0.8463E+01
   -1.300011   30.70956  0.6997E-14  0.1565E-04  0.4528E-07  0.1632E-02  0.1046E-03  0.9866E+01
   -1.350012   30.71010  0.6997E-14  0.1548E-04  0.4620E-07  0.1573E-02  0.9809E-04  0.1176E+02
   -1.400013   30.71066  0.6997E-14  0.1528E-04  0.4746E-07  0.1496E-02  0.9179E-04  0.1447E+02
   -1.450014   30.71124  0.6997E-14  0.1504E-04  0.4920E-07  0.1419E-02  0.8560E-04  0.1836E+02
   -1.500014   30.71185  0.6997E-14  0.1475E-04  0.5162E-07  0.1308E-02  0.7953E-04  0.2483E+02
   -1.550015   30.71252  0.6997E-14  0.1439E-04  0.5508E-07  0.1224E-02  0.7343E-04  0.3521E+02
   -1.600015   30.71324  0.6997E-14  0.1395E-04  0.6038E-07  0.1080E-02  0.6745E-04  0.6970E+02
   -1.650015   30.71411  0.6997E-14  0.1338E-04  0.6862E-07  0.9997E-03  0.6104E-04  0.1278E+03
   -1.700014   30.71510  0.6997E-14  0.1261E-04  0.8335E-07  0.8183E-03  0.5476E-04  0.1216E+05
   -1.750013   30.71683  0.6997E-14  0.1159E-04  0.1075E-06  0.7372E-03  0.4643E-04  0.2783E+05
   -1.800012   30.71823  0.6997E-14  0.1023E-04  0.1605E-06  0.5157E-03  0.3997E-04  0.1377E+05
   -1.850010   30.72412  0.6997E-14  0.8707E-05  0.2580E-06  0.4730E-03  0.2872E-04  0.2196E+08
   -1.900008   30.72304  0.6997E-14  0.6904E-05  0.5379E-06  0.2193E-03  0.2339E-04 -0.1073E+07
   -1.950006   30.74090  0.6997E-14  0.4805E-05  0.1351E-05  0.1863E-03  0.1266E-04 -0.2152E+07
   -2.000003   30.74338  0.6997E-14  0.0000E+00  0.0000E+00  0.0000E+00  0.2311E-04  0.0000E+00
