 1 - depth, m
 2 - temperature, C
 3 - salinity, kg/kg
 4 - turbulent kinetic energy, m**2/s**2
 5 - dissipation rate, m**2/s**3
 6 - kinematic heat conductance, m**2/s
 7 - modulus of horizontal velocity, m/s
 8 - Richardson number, n/d
   -0.000000   31.43682  0.1503E-13  0.5630E-05  0.3845E-06  0.5383E-04  0.1206E-02  0.6770E+04
   -0.049997   31.47343  0.1503E-13  0.9640E-05  0.1708E-06  0.1922E-03  0.6892E-03  0.1762E+03
   -0.099994   31.48726  0.1503E-13  0.1169E-04  0.1174E-06  0.4251E-03  0.5090E-03  0.3553E+02
   -0.149992   31.49108  0.1503E-13  0.1298E-04  0.9833E-07  0.5081E-03  0.4510E-03  0.1761E+02
   -0.199990   31.49413  0.1503E-13  0.1398E-04  0.8717E-07  0.6828E-03  0.4037E-03  0.1123E+02
   -0.249989   31.49633  0.1503E-13  0.1477E-04  0.7988E-07  0.8140E-03  0.3686E-03  0.8318E+01
   -0.299988   31.49813  0.1503E-13  0.1542E-04  0.7469E-07  0.9481E-03  0.3392E-03  0.6605E+01
   -0.349987   31.49962  0.1503E-13  0.1594E-04  0.7081E-07  0.1068E-02  0.3141E-03  0.5650E+01
   -0.399987   31.50092  0.1503E-13  0.1639E-04  0.6778E-07  0.1178E-02  0.2919E-03  0.5023E+01
   -0.449987   31.50207  0.1503E-13  0.1676E-04  0.6532E-07  0.1279E-02  0.2724E-03  0.4716E+01
   -0.499988   31.50311  0.1503E-13  0.1709E-04  0.6328E-07  0.1372E-02  0.2550E-03  0.4572E+01
   -0.549988   31.50405  0.1503E-13  0.1736E-04  0.6157E-07  0.1456E-02  0.2395E-03  0.4512E+01
   -0.599989   31.50493  0.1503E-13  0.1760E-04  0.6013E-07  0.1532E-02  0.2254E-03  0.4499E+01
   -0.649990   31.50575  0.1503E-13  0.1780E-04  0.5890E-07  0.1600E-02  0.2125E-03  0.4559E+01
   -0.699991   31.50652  0.1503E-13  0.1796E-04  0.5787E-07  0.1659E-02  0.2006E-03  0.4646E+01
   -0.749992   31.50725  0.1503E-13  0.1809E-04  0.5700E-07  0.1710E-02  0.1896E-03  0.4807E+01
   -0.799994   31.50795  0.1503E-13  0.1819E-04  0.5628E-07  0.1752E-02  0.1794E-03  0.4993E+01
   -0.849995   31.50863  0.1503E-13  0.1827E-04  0.5570E-07  0.1786E-02  0.1698E-03  0.5264E+01
   -0.899997   31.50928  0.1503E-13  0.1831E-04  0.5525E-07  0.1811E-02  0.1608E-03  0.5568E+01
   -0.949998   31.50992  0.1503E-13  0.1833E-04  0.5494E-07  0.1826E-02  0.1523E-03  0.5984E+01
   -1.000000   31.51054  0.1503E-13  0.1833E-04  0.5475E-07  0.1833E-02  0.1442E-03  0.6455E+01
   -1.050002   31.51116  0.1503E-13  0.1829E-04  0.5471E-07  0.1827E-02  0.1365E-03  0.7338E+01
   -1.100003   31.51177  0.1503E-13  0.1823E-04  0.5483E-07  0.1948E-02  0.1291E-03  0.2343E+02
   -1.150005   31.51234  0.1503E-13  0.1814E-04  0.5514E-07  0.1687E-02  0.1226E-03  0.5964E+02
   -1.200006   31.51299  0.1503E-13  0.1802E-04  0.5563E-07  0.1740E-02  0.1156E-03  0.1094E+02
   -1.250008   31.51362  0.1503E-13  0.1787E-04  0.5638E-07  0.1706E-02  0.1090E-03  0.1164E+02
   -1.300009   31.51425  0.1503E-13  0.1768E-04  0.5744E-07  0.1644E-02  0.1026E-03  0.1385E+02
   -1.350010   31.51491  0.1503E-13  0.1744E-04  0.5891E-07  0.1576E-02  0.9640E-04  0.1686E+02
   -1.400011   31.51559  0.1503E-13  0.1716E-04  0.6095E-07  0.1482E-02  0.9031E-04  0.2153E+02
   -1.450012   31.51632  0.1503E-13  0.1682E-04  0.6380E-07  0.1401E-02  0.8426E-04  0.2840E+02
   -1.500013   31.51710  0.1503E-13  0.1640E-04  0.6790E-07  0.1273E-02  0.7830E-04  0.4131E+02
   -1.550013   31.51797  0.1503E-13  0.1589E-04  0.7391E-07  0.1199E-02  0.7220E-04  0.6693E+02
   -1.600013   31.51893  0.1503E-13  0.1524E-04  0.8386E-07  0.1041E-02  0.6623E-04 -0.2760E+04
   -1.650013   31.52029  0.1503E-13  0.1438E-04  0.9949E-07  0.9626E-03  0.5922E-04  0.7300E+04
   -1.700012   31.52177  0.1503E-13  0.1321E-04  0.1282E-06  0.7704E-03  0.5238E-04  0.1216E+06
   -1.750011   31.52473  0.1503E-13  0.1185E-04  0.1727E-06  0.7010E-03  0.4279E-04  0.2455E+06
   -1.800010   31.52613  0.1503E-13  0.1023E-04  0.2697E-06  0.4801E-03  0.3696E-04  0.5360E+05
   -1.850008   31.53736  0.1503E-13  0.8608E-05  0.4575E-06  0.4574E-03  0.2462E-04  0.1565E+09
   -1.900006   31.53189  0.1503E-13  0.6888E-05  0.9725E-06  0.2207E-03  0.2062E-04 -0.5022E+06
   -1.950003   31.55876  0.1503E-13  0.4983E-05  0.2259E-05  0.2359E-03  0.1072E-04 -0.6395E+06
   -2.000000   31.55876  0.1503E-13  0.0000E+00  0.0000E+00  0.0000E+00  0.2296E-04  0.0000E+00
