 1 - depth, m
 2 - temperature, C
 3 - salinity, kg/kg
 4 - turbulent kinetic energy, m**2/s**2
 5 - dissipation rate, m**2/s**3
 6 - kinematic heat conductance, m**2/s
 7 - modulus of horizontal velocity, m/s
 8 - Richardson number, n/d
   -0.000000   31.15008  0.2238E-14  0.5425E-05  0.3631E-06  0.5387E-04  0.1604E-02  0.6004E+04
   -0.049997   31.18403  0.2238E-14  0.9217E-05  0.1618E-06  0.1843E-03  0.9270E-03  0.1054E+05
   -0.099994   31.19750  0.2238E-14  0.1121E-04  0.1108E-06  0.4163E-03  0.6799E-03  0.1982E+02
   -0.149992   31.20115  0.2238E-14  0.1245E-04  0.9265E-07  0.4970E-03  0.6019E-03  0.9777E+01
   -0.199990   31.20407  0.2238E-14  0.1342E-04  0.8209E-07  0.6693E-03  0.5382E-03  0.6225E+01
   -0.249989   31.20618  0.2238E-14  0.1419E-04  0.7523E-07  0.7993E-03  0.4909E-03  0.4587E+01
   -0.299988   31.20789  0.2238E-14  0.1482E-04  0.7036E-07  0.9315E-03  0.4515E-03  0.3647E+01
   -0.349987   31.20933  0.2238E-14  0.1533E-04  0.6672E-07  0.1050E-02  0.4178E-03  0.3109E+01
   -0.399987   31.21057  0.2238E-14  0.1577E-04  0.6389E-07  0.1159E-02  0.3880E-03  0.2771E+01
   -0.449987   31.21168  0.2238E-14  0.1614E-04  0.6160E-07  0.1259E-02  0.3618E-03  0.2591E+01
   -0.499987   31.21267  0.2238E-14  0.1646E-04  0.5972E-07  0.1351E-02  0.3385E-03  0.2522E+01
   -0.549988   31.21358  0.2238E-14  0.1674E-04  0.5815E-07  0.1435E-02  0.3177E-03  0.2479E+01
   -0.599989   31.21442  0.2238E-14  0.1698E-04  0.5683E-07  0.1511E-02  0.2989E-03  0.2484E+01
   -0.649990   31.21521  0.2238E-14  0.1718E-04  0.5572E-07  0.1578E-02  0.2817E-03  0.2506E+01
   -0.699991   31.21595  0.2238E-14  0.1735E-04  0.5479E-07  0.1637E-02  0.2658E-03  0.2570E+01
   -0.749992   31.21665  0.2238E-14  0.1749E-04  0.5402E-07  0.1688E-02  0.2511E-03  0.2647E+01
   -0.799994   31.21733  0.2238E-14  0.1760E-04  0.5339E-07  0.1731E-02  0.2375E-03  0.2768E+01
   -0.849995   31.21798  0.2238E-14  0.1769E-04  0.5290E-07  0.1765E-02  0.2247E-03  0.2905E+01
   -0.899997   31.21861  0.2238E-14  0.1775E-04  0.5253E-07  0.1790E-02  0.2127E-03  0.3095E+01
   -0.949998   31.21923  0.2238E-14  0.1778E-04  0.5229E-07  0.1806E-02  0.2013E-03  0.3310E+01
   -1.000000   31.21984  0.2238E-14  0.1779E-04  0.5217E-07  0.1814E-02  0.1905E-03  0.3597E+01
   -1.050002   31.22044  0.2238E-14  0.1778E-04  0.5220E-07  0.1809E-02  0.1803E-03  0.4074E+01
   -1.100003   31.22104  0.2238E-14  0.1774E-04  0.5236E-07  0.1922E-02  0.1705E-03  0.1319E+02
   -1.150005   31.22159  0.2238E-14  0.1767E-04  0.5272E-07  0.1684E-02  0.1619E-03  0.3290E+02
   -1.200006   31.22223  0.2238E-14  0.1757E-04  0.5325E-07  0.1729E-02  0.1526E-03  0.6077E+01
   -1.250008   31.22285  0.2238E-14  0.1744E-04  0.5401E-07  0.1695E-02  0.1438E-03  0.6522E+01
   -1.300009   31.22347  0.2238E-14  0.1727E-04  0.5508E-07  0.1636E-02  0.1354E-03  0.7731E+01
   -1.350010   31.22412  0.2238E-14  0.1707E-04  0.5653E-07  0.1569E-02  0.1271E-03  0.9456E+01
   -1.400011   31.22480  0.2238E-14  0.1681E-04  0.5851E-07  0.1479E-02  0.1190E-03  0.1201E+02
   -1.450012   31.22552  0.2238E-14  0.1650E-04  0.6124E-07  0.1398E-02  0.1110E-03  0.1588E+02
   -1.500012   31.22629  0.2238E-14  0.1613E-04  0.6511E-07  0.1274E-02  0.1032E-03  0.2293E+02
   -1.550013   31.22715  0.2238E-14  0.1566E-04  0.7074E-07  0.1197E-02  0.9512E-04  0.3720E+02
   -1.600013   31.22810  0.2238E-14  0.1507E-04  0.7986E-07  0.1043E-02  0.8724E-04 -0.8280E+03
   -1.650012   31.22941  0.2238E-14  0.1428E-04  0.9407E-07  0.9634E-03  0.7822E-04  0.1789E+04
   -1.700012   31.23087  0.2238E-14  0.1321E-04  0.1191E-06  0.7797E-03  0.6933E-04 -0.3930E+04
   -1.750011   31.23365  0.2238E-14  0.1192E-04  0.1593E-06  0.7064E-03  0.5716E-04  0.2554E+06
   -1.800010   31.23519  0.2238E-14  0.1033E-04  0.2468E-06  0.4803E-03  0.4927E-04  0.6364E+05
   -1.850008   31.24580  0.2238E-14  0.8733E-05  0.4152E-06  0.4603E-03  0.3323E-04  0.9329E+08
   -1.900006   31.24103  0.2238E-14  0.6987E-05  0.8787E-06  0.2192E-03  0.2777E-04 -0.3074E+06
   -1.950003   31.26769  0.2238E-14  0.5038E-05  0.2082E-05  0.2260E-03  0.1457E-04 -0.1193E+07
   -2.000000   31.26842  0.2238E-14  0.0000E+00  0.0000E+00  0.0000E+00  0.2990E-04  0.0000E+00
