 1 - depth, m
 2 - temperature, C
 3 - salinity, kg/kg
 4 - turbulent kinetic energy, m**2/s**2
 5 - dissipation rate, m**2/s**3
 6 - kinematic heat conductance, m**2/s
 7 - modulus of horizontal velocity, m/s
 8 - Richardson number, n/d
   -0.000000   29.89430  0.2073E-14  0.4680E-05  0.2808E-06  0.4975E-04  0.2035E-02  0.7700E+04
   -0.049997   29.92271  0.2073E-14  0.7927E-05  0.1246E-06  0.1753E-03  0.1150E-02  0.9998E+03
   -0.099994   29.93343  0.2073E-14  0.9587E-05  0.8579E-07  0.3899E-03  0.8465E-03  0.1124E+02
   -0.149992   29.93649  0.2073E-14  0.1063E-04  0.7194E-07  0.4725E-03  0.7466E-03  0.5503E+01
   -0.199991   29.93892  0.2073E-14  0.1145E-04  0.6384E-07  0.6295E-03  0.6663E-03  0.3537E+01
   -0.249989   29.94069  0.2073E-14  0.1211E-04  0.5856E-07  0.7533E-03  0.6061E-03  0.2605E+01
   -0.299989   29.94214  0.2073E-14  0.1265E-04  0.5480E-07  0.8761E-03  0.5560E-03  0.2075E+01
   -0.349988   29.94335  0.2073E-14  0.1309E-04  0.5199E-07  0.9877E-03  0.5131E-03  0.1773E+01
   -0.399988   29.94441  0.2073E-14  0.1347E-04  0.4981E-07  0.1090E-02  0.4752E-03  0.1583E+01
   -0.449988   29.94534  0.2073E-14  0.1380E-04  0.4805E-07  0.1185E-02  0.4418E-03  0.1489E+01
   -0.499988   29.94619  0.2073E-14  0.1409E-04  0.4659E-07  0.1273E-02  0.4123E-03  0.1456E+01
   -0.549989   29.94696  0.2073E-14  0.1434E-04  0.4538E-07  0.1354E-02  0.3858E-03  0.1437E+01
   -0.599990   29.94767  0.2073E-14  0.1455E-04  0.4436E-07  0.1428E-02  0.3618E-03  0.1442E+01
   -0.649991   29.94834  0.2073E-14  0.1474E-04  0.4351E-07  0.1494E-02  0.3400E-03  0.1455E+01
   -0.699992   29.94897  0.2073E-14  0.1490E-04  0.4280E-07  0.1553E-02  0.3200E-03  0.1488E+01
   -0.749993   29.94957  0.2073E-14  0.1504E-04  0.4221E-07  0.1604E-02  0.3015E-03  0.1531E+01
   -0.799995   29.95014  0.2073E-14  0.1515E-04  0.4173E-07  0.1647E-02  0.2844E-03  0.1598E+01
   -0.849996   29.95069  0.2073E-14  0.1525E-04  0.4135E-07  0.1683E-02  0.2685E-03  0.1676E+01
   -0.899998   29.95123  0.2073E-14  0.1532E-04  0.4107E-07  0.1711E-02  0.2535E-03  0.1784E+01
   -0.950000   29.95175  0.2073E-14  0.1537E-04  0.4088E-07  0.1731E-02  0.2395E-03  0.1906E+01
   -1.000001   29.95227  0.2073E-14  0.1540E-04  0.4079E-07  0.1743E-02  0.2261E-03  0.2065E+01
   -1.050003   29.95277  0.2073E-14  0.1542E-04  0.4079E-07  0.1746E-02  0.2135E-03  0.2338E+01
   -1.100005   29.95328  0.2073E-14  0.1541E-04  0.4090E-07  0.1823E-02  0.2015E-03  0.7856E+01
   -1.150007   29.95376  0.2073E-14  0.1538E-04  0.4113E-07  0.1679E-02  0.1907E-03  0.1731E+02
   -1.200008   29.95428  0.2073E-14  0.1533E-04  0.4148E-07  0.1696E-02  0.1796E-03  0.3362E+01
   -1.250010   29.95479  0.2073E-14  0.1525E-04  0.4199E-07  0.1667E-02  0.1690E-03  0.3603E+01
   -1.300011   29.95531  0.2073E-14  0.1515E-04  0.4268E-07  0.1621E-02  0.1588E-03  0.4194E+01
   -1.350012   29.95584  0.2073E-14  0.1502E-04  0.4362E-07  0.1565E-02  0.1489E-03  0.5027E+01
   -1.400013   29.95640  0.2073E-14  0.1486E-04  0.4487E-07  0.1493E-02  0.1393E-03  0.6164E+01
   -1.450014   29.95698  0.2073E-14  0.1465E-04  0.4654E-07  0.1418E-02  0.1298E-03  0.7842E+01
   -1.500015   29.95759  0.2073E-14  0.1440E-04  0.4883E-07  0.1312E-02  0.1205E-03  0.1053E+02
   -1.550015   29.95827  0.2073E-14  0.1410E-04  0.5203E-07  0.1229E-02  0.1113E-03  0.1486E+02
   -1.600015   29.95899  0.2073E-14  0.1371E-04  0.5685E-07  0.1087E-02  0.1022E-03  0.2676E+02
   -1.650015   29.95986  0.2073E-14  0.1322E-04  0.6417E-07  0.1009E-02  0.9254E-04  0.3158E+03
   -1.700014   29.96083  0.2073E-14  0.1254E-04  0.7726E-07  0.8244E-03  0.8320E-04 -0.5864E+04
   -1.750013   29.96252  0.2073E-14  0.1162E-04  0.9859E-07  0.7507E-03  0.7088E-04  0.1500E+05
   -1.800012   29.96391  0.2073E-14  0.1039E-04  0.1432E-06  0.5216E-03  0.6132E-04  0.4677E+04
   -1.850010   29.96953  0.2073E-14  0.8951E-05  0.2280E-06  0.4837E-03  0.4486E-04  0.2422E+08
   -1.900008   29.96879  0.2073E-14  0.7194E-05  0.4681E-06  0.2200E-03  0.3665E-04  0.3827E+05
   -1.950006   29.98657  0.2073E-14  0.4955E-05  0.1190E-05  0.1748E-03  0.2040E-04 -0.3030E+06
   -2.000003   29.98950  0.2073E-14  0.0000E+00  0.0000E+00  0.0000E+00  0.3481E-04  0.0000E+00
