 1 - depth, m
 2 - temperature, C
 3 - salinity, kg/kg
 4 - turbulent kinetic energy, m**2/s**2
 5 - dissipation rate, m**2/s**3
 6 - kinematic heat conductance, m**2/s
 7 - modulus of horizontal velocity, m/s
 8 - Richardson number, n/d
   -0.000000   30.48011  0.4451E-14  0.4686E-05  0.2882E-06  0.4939E-04  0.1009E-02  0.1065E+05
   -0.049997   30.50986  0.4451E-14  0.8158E-05  0.1280E-06  0.1793E-03  0.5690E-03  0.6498E+03
   -0.099994   30.52111  0.4451E-14  0.9902E-05  0.8848E-07  0.4048E-03  0.4164E-03  0.5287E+02
   -0.149992   30.52418  0.4451E-14  0.1099E-04  0.7450E-07  0.4847E-03  0.3680E-03  0.2598E+02
   -0.199991   30.52664  0.4451E-14  0.1185E-04  0.6630E-07  0.6475E-03  0.3287E-03  0.1681E+02
   -0.249989   30.52843  0.4451E-14  0.1253E-04  0.6093E-07  0.7733E-03  0.2992E-03  0.1253E+02
   -0.299988   30.52989  0.4451E-14  0.1308E-04  0.5710E-07  0.8989E-03  0.2748E-03  0.9985E+01
   -0.349988   30.53112  0.4451E-14  0.1355E-04  0.5424E-07  0.1013E-02  0.2537E-03  0.8601E+01
   -0.399988   30.53219  0.4451E-14  0.1394E-04  0.5201E-07  0.1117E-02  0.2352E-03  0.7652E+01
   -0.449988   30.53313  0.4451E-14  0.1428E-04  0.5021E-07  0.1214E-02  0.2189E-03  0.7230E+01
   -0.499988   30.53399  0.4451E-14  0.1457E-04  0.4873E-07  0.1303E-02  0.2044E-03  0.7005E+01
   -0.549989   30.53477  0.4451E-14  0.1483E-04  0.4749E-07  0.1384E-02  0.1915E-03  0.6959E+01
   -0.599990   30.53550  0.4451E-14  0.1506E-04  0.4646E-07  0.1458E-02  0.1798E-03  0.6929E+01
   -0.649991   30.53617  0.4451E-14  0.1525E-04  0.4559E-07  0.1525E-02  0.1691E-03  0.7068E+01
   -0.699992   30.53681  0.4451E-14  0.1542E-04  0.4487E-07  0.1584E-02  0.1593E-03  0.7190E+01
   -0.749993   30.53742  0.4451E-14  0.1556E-04  0.4427E-07  0.1635E-02  0.1502E-03  0.7487E+01
   -0.799995   30.53801  0.4451E-14  0.1568E-04  0.4378E-07  0.1679E-02  0.1418E-03  0.7757E+01
   -0.849996   30.53857  0.4451E-14  0.1577E-04  0.4340E-07  0.1715E-02  0.1339E-03  0.8225E+01
   -0.899998   30.53911  0.4451E-14  0.1585E-04  0.4312E-07  0.1743E-02  0.1266E-03  0.8669E+01
   -0.949999   30.53964  0.4451E-14  0.1590E-04  0.4293E-07  0.1763E-02  0.1196E-03  0.9359E+01
   -1.000001   30.54017  0.4451E-14  0.1594E-04  0.4284E-07  0.1775E-02  0.1130E-03  0.1004E+02
   -1.050003   30.54068  0.4451E-14  0.1595E-04  0.4285E-07  0.1777E-02  0.1068E-03  0.1148E+02
   -1.100005   30.54120  0.4451E-14  0.1594E-04  0.4298E-07  0.1859E-02  0.1008E-03  0.3799E+02
   -1.150006   30.54168  0.4451E-14  0.1591E-04  0.4323E-07  0.1704E-02  0.9547E-04  0.8494E+02
   -1.200008   30.54221  0.4451E-14  0.1585E-04  0.4361E-07  0.1725E-02  0.8998E-04  0.1656E+02
   -1.250009   30.54274  0.4451E-14  0.1578E-04  0.4416E-07  0.1695E-02  0.8472E-04  0.1758E+02
   -1.300011   30.54326  0.4451E-14  0.1567E-04  0.4490E-07  0.1648E-02  0.7964E-04  0.2071E+02
   -1.350012   30.54381  0.4451E-14  0.1553E-04  0.4590E-07  0.1590E-02  0.7473E-04  0.2463E+02
   -1.400013   30.54437  0.4451E-14  0.1536E-04  0.4723E-07  0.1515E-02  0.6993E-04  0.3054E+02
   -1.450014   30.54496  0.4451E-14  0.1515E-04  0.4902E-07  0.1440E-02  0.6524E-04  0.3869E+02
   -1.500014   30.54559  0.4451E-14  0.1489E-04  0.5145E-07  0.1330E-02  0.6063E-04  0.5267E+02
   -1.550015   30.54628  0.4451E-14  0.1457E-04  0.5486E-07  0.1246E-02  0.5602E-04  0.7440E+02
   -1.600015   30.54701  0.4451E-14  0.1417E-04  0.5998E-07  0.1101E-02  0.5149E-04  0.1472E+03
   -1.650015   30.54791  0.4451E-14  0.1366E-04  0.6775E-07  0.1024E-02  0.4669E-04  0.3147E+03
   -1.700014   30.54889  0.4451E-14  0.1295E-04  0.8163E-07  0.8359E-03  0.4206E-04 -0.2742E+04
   -1.750013   30.55060  0.4451E-14  0.1200E-04  0.1046E-06  0.7598E-03  0.3595E-04  0.3425E+06
   -1.800012   30.55212  0.4451E-14  0.1070E-04  0.1542E-06  0.5329E-03  0.3101E-04  0.3338E+06
   -1.850010   30.55762  0.4451E-14  0.9216E-05  0.2435E-06  0.4902E-03  0.2282E-04  0.3139E+08
   -1.900008   30.55705  0.4451E-14  0.7389E-05  0.5041E-06  0.2226E-03  0.1862E-04  0.1425E+06
   -1.950005   30.57520  0.4451E-14  0.5124E-05  0.1283E-05  0.1789E-03  0.1037E-04 -0.8513E+06
   -2.000002   30.57879  0.4451E-14  0.0000E+00  0.0000E+00  0.0000E+00  0.1761E-04  0.0000E+00
