 1 - depth, m
 2 - temperature, C
 3 - salinity, kg/kg
 4 - turbulent kinetic energy, m**2/s**2
 5 - dissipation rate, m**2/s**3
 6 - kinematic heat conductance, m**2/s
 7 - modulus of horizontal velocity, m/s
 8 - Richardson number, n/d
   -0.000000   30.61117  0.8974E-14  0.4682E-05  0.2871E-06  0.4881E-04  0.6211E-03  0.2450E+05
   -0.049997   30.64151  0.8974E-14  0.8257E-05  0.1272E-06  0.1829E-03  0.3485E-03  0.1030E+03
   -0.099994   30.65244  0.8974E-14  0.9998E-05  0.8824E-07  0.4133E-03  0.2553E-03  0.1296E+03
   -0.149992   30.65546  0.8974E-14  0.1109E-04  0.7456E-07  0.4909E-03  0.2261E-03  0.6380E+02
   -0.199991   30.65790  0.8974E-14  0.1194E-04  0.6648E-07  0.6549E-03  0.2022E-03  0.4170E+02
   -0.249989   30.65968  0.8974E-14  0.1262E-04  0.6117E-07  0.7810E-03  0.1843E-03  0.3106E+02
   -0.299988   30.66113  0.8974E-14  0.1317E-04  0.5738E-07  0.9065E-03  0.1694E-03  0.2490E+02
   -0.349988   30.66235  0.8974E-14  0.1364E-04  0.5454E-07  0.1020E-02  0.1566E-03  0.2136E+02
   -0.399988   30.66342  0.8974E-14  0.1403E-04  0.5233E-07  0.1124E-02  0.1452E-03  0.1911E+02
   -0.449988   30.66436  0.8974E-14  0.1437E-04  0.5054E-07  0.1221E-02  0.1352E-03  0.1794E+02
   -0.499988   30.66522  0.8974E-14  0.1467E-04  0.4906E-07  0.1310E-02  0.1264E-03  0.1749E+02
   -0.549989   30.66600  0.8974E-14  0.1492E-04  0.4783E-07  0.1391E-02  0.1184E-03  0.1725E+02
   -0.599989   30.66673  0.8974E-14  0.1515E-04  0.4681E-07  0.1465E-02  0.1112E-03  0.1729E+02
   -0.649990   30.66740  0.8974E-14  0.1534E-04  0.4594E-07  0.1531E-02  0.1047E-03  0.1750E+02
   -0.699992   30.66804  0.8974E-14  0.1551E-04  0.4522E-07  0.1589E-02  0.9865E-04  0.1794E+02
   -0.749993   30.66865  0.8974E-14  0.1565E-04  0.4463E-07  0.1640E-02  0.9307E-04  0.1852E+02
   -0.799994   30.66924  0.8974E-14  0.1577E-04  0.4415E-07  0.1683E-02  0.8788E-04  0.1935E+02
   -0.849996   30.66980  0.8974E-14  0.1586E-04  0.4377E-07  0.1719E-02  0.8304E-04  0.2033E+02
   -0.899998   30.67035  0.8974E-14  0.1593E-04  0.4350E-07  0.1746E-02  0.7848E-04  0.2162E+02
   -0.949999   30.67089  0.8974E-14  0.1599E-04  0.4332E-07  0.1766E-02  0.7419E-04  0.2314E+02
   -1.000001   30.67141  0.8974E-14  0.1602E-04  0.4324E-07  0.1777E-02  0.7012E-04  0.2506E+02
   -1.050003   30.67193  0.8974E-14  0.1603E-04  0.4327E-07  0.1778E-02  0.6627E-04  0.2839E+02
   -1.100004   30.67245  0.8974E-14  0.1602E-04  0.4340E-07  0.1863E-02  0.6258E-04  0.9493E+02
   -1.150006   30.67293  0.8974E-14  0.1598E-04  0.4368E-07  0.1698E-02  0.5930E-04  0.2113E+03
   -1.200008   30.67347  0.8974E-14  0.1593E-04  0.4408E-07  0.1722E-02  0.5588E-04  0.4099E+02
   -1.250009   30.67400  0.8974E-14  0.1585E-04  0.4465E-07  0.1692E-02  0.5262E-04  0.4392E+02
   -1.300010   30.67454  0.8974E-14  0.1574E-04  0.4543E-07  0.1643E-02  0.4948E-04  0.5131E+02
   -1.350012   30.67509  0.8974E-14  0.1560E-04  0.4647E-07  0.1584E-02  0.4642E-04  0.6151E+02
   -1.400013   30.67566  0.8974E-14  0.1542E-04  0.4786E-07  0.1508E-02  0.4345E-04  0.7578E+02
   -1.450013   30.67626  0.8974E-14  0.1520E-04  0.4973E-07  0.1431E-02  0.4053E-04  0.9656E+02
   -1.500014   30.67690  0.8974E-14  0.1493E-04  0.5228E-07  0.1320E-02  0.3766E-04  0.1307E+03
   -1.550014   30.67760  0.8974E-14  0.1460E-04  0.5586E-07  0.1236E-02  0.3478E-04  0.1853E+03
   -1.600014   30.67835  0.8974E-14  0.1419E-04  0.6129E-07  0.1091E-02  0.3195E-04  0.3552E+03
   -1.650014   30.67928  0.8974E-14  0.1365E-04  0.6958E-07  0.1011E-02  0.2893E-04  0.9929E+03
   -1.700014   30.68031  0.8974E-14  0.1291E-04  0.8429E-07  0.8264E-03  0.2598E-04  0.6669E+05
   -1.750013   30.68213  0.8974E-14  0.1192E-04  0.1083E-06  0.7464E-03  0.2209E-04  0.3400E+06
   -1.800011   30.68363  0.8974E-14  0.1060E-04  0.1604E-06  0.5252E-03  0.1902E-04  0.1980E+06
   -1.850010   30.68979  0.8974E-14  0.9113E-05  0.2558E-06  0.4833E-03  0.1383E-04  0.2279E+10
   -1.900008   30.68870  0.8974E-14  0.7280E-05  0.5264E-06  0.2168E-03  0.1129E-04 -0.1209E+05
   -1.950005   30.70791  0.8974E-14  0.5068E-05  0.1325E-05  0.1837E-03  0.6192E-05 -0.4167E+07
   -2.000002   30.71090  0.8974E-14  0.0000E+00  0.0000E+00  0.0000E+00  0.1089E-04  0.0000E+00
