 1 - depth, m
 2 - temperature, C
 3 - salinity, kg/kg
 4 - turbulent kinetic energy, m**2/s**2
 5 - dissipation rate, m**2/s**3
 6 - kinematic heat conductance, m**2/s
 7 - modulus of horizontal velocity, m/s
 8 - Richardson number, n/d
   -0.000000   29.61394  0.3778E-13  0.4295E-05  0.2457E-06  0.4554E-04  0.9840E-03  0.1573E+05
   -0.049997   29.64282  0.3778E-13  0.7511E-05  0.1096E-06  0.1778E-03  0.5429E-03  0.7789E+02
   -0.099994   29.65264  0.3778E-13  0.9061E-05  0.7670E-07  0.3843E-03  0.4031E-03  0.5263E+02
   -0.149992   29.65557  0.3778E-13  0.1004E-04  0.6472E-07  0.4692E-03  0.3554E-03  0.2569E+02
   -0.199991   29.65787  0.3778E-13  0.1080E-04  0.5765E-07  0.6198E-03  0.3174E-03  0.1672E+02
   -0.249990   29.65955  0.3778E-13  0.1141E-04  0.5297E-07  0.7402E-03  0.2886E-03  0.1235E+02
   -0.299989   29.66093  0.3778E-13  0.1190E-04  0.4962E-07  0.8584E-03  0.2647E-03  0.9875E+01
   -0.349988   29.66208  0.3778E-13  0.1231E-04  0.4710E-07  0.9659E-03  0.2441E-03  0.8428E+01
   -0.399988   29.66308  0.3778E-13  0.1266E-04  0.4512E-07  0.1064E-02  0.2259E-03  0.7544E+01
   -0.449988   29.66397  0.3778E-13  0.1296E-04  0.4351E-07  0.1155E-02  0.2099E-03  0.7063E+01
   -0.499988   29.66477  0.3778E-13  0.1321E-04  0.4218E-07  0.1240E-02  0.1957E-03  0.6911E+01
   -0.549989   29.66551  0.3778E-13  0.1344E-04  0.4106E-07  0.1317E-02  0.1831E-03  0.6791E+01
   -0.599990   29.66619  0.3778E-13  0.1363E-04  0.4010E-07  0.1386E-02  0.1716E-03  0.6835E+01
   -0.649991   29.66682  0.3778E-13  0.1379E-04  0.3930E-07  0.1449E-02  0.1612E-03  0.6883E+01
   -0.699992   29.66742  0.3778E-13  0.1393E-04  0.3861E-07  0.1505E-02  0.1516E-03  0.7081E+01
   -0.749994   29.66799  0.3778E-13  0.1404E-04  0.3803E-07  0.1554E-02  0.1427E-03  0.7266E+01
   -0.799995   29.66853  0.3778E-13  0.1414E-04  0.3754E-07  0.1596E-02  0.1345E-03  0.7616E+01
   -0.849997   29.66905  0.3778E-13  0.1421E-04  0.3714E-07  0.1630E-02  0.1268E-03  0.7946E+01
   -0.899998   29.66955  0.3778E-13  0.1427E-04  0.3682E-07  0.1657E-02  0.1196E-03  0.8476E+01
   -0.950000   29.67004  0.3778E-13  0.1430E-04  0.3659E-07  0.1676E-02  0.1129E-03  0.8993E+01
   -1.000002   29.67052  0.3778E-13  0.1432E-04  0.3643E-07  0.1688E-02  0.1065E-03  0.9763E+01
   -1.050004   29.67099  0.3778E-13  0.1431E-04  0.3636E-07  0.1691E-02  0.1004E-03  0.1097E+02
   -1.100005   29.67146  0.3778E-13  0.1429E-04  0.3638E-07  0.1765E-02  0.9463E-04  0.3702E+02
   -1.150007   29.67190  0.3778E-13  0.1425E-04  0.3650E-07  0.1627E-02  0.8946E-04  0.8090E+02
   -1.200009   29.67237  0.3778E-13  0.1419E-04  0.3672E-07  0.1644E-02  0.8418E-04  0.1563E+02
   -1.250010   29.67284  0.3778E-13  0.1410E-04  0.3708E-07  0.1616E-02  0.7910E-04  0.1672E+02
   -1.300011   29.67331  0.3778E-13  0.1400E-04  0.3760E-07  0.1572E-02  0.7424E-04  0.1929E+02
   -1.350013   29.67379  0.3778E-13  0.1386E-04  0.3831E-07  0.1518E-02  0.6951E-04  0.2305E+02
   -1.400014   29.67429  0.3778E-13  0.1370E-04  0.3928E-07  0.1449E-02  0.6494E-04  0.2793E+02
   -1.450015   29.67480  0.3778E-13  0.1350E-04  0.4061E-07  0.1376E-02  0.6046E-04  0.3530E+02
   -1.500015   29.67534  0.3778E-13  0.1326E-04  0.4243E-07  0.1274E-02  0.5608E-04  0.4641E+02
   -1.550016   29.67593  0.3778E-13  0.1296E-04  0.4499E-07  0.1190E-02  0.5170E-04  0.6444E+02
   -1.600016   29.67656  0.3778E-13  0.1260E-04  0.4879E-07  0.1052E-02  0.4743E-04  0.1023E+03
   -1.650015   29.67729  0.3778E-13  0.1215E-04  0.5457E-07  0.9739E-03  0.4295E-04  0.5783E+03
   -1.700015   29.67810  0.3778E-13  0.1154E-04  0.6506E-07  0.8010E-03  0.3863E-04  0.1435E+06
   -1.750014   29.67945  0.3778E-13  0.1069E-04  0.8263E-07  0.7191E-03  0.3306E-04  0.8845E+05
   -1.800013   29.68073  0.3778E-13  0.9494E-05  0.1185E-06  0.5095E-03  0.2837E-04  0.2503E+07
   -1.850011   29.68498  0.3778E-13  0.8059E-05  0.1864E-06  0.4521E-03  0.2072E-04  0.2696E+09
   -1.900009   29.68505  0.3778E-13  0.6291E-05  0.3860E-06  0.2011E-03  0.1658E-04  0.3509E+07
   -1.950007   29.70009  0.3778E-13  0.4331E-05  0.9924E-06  0.1689E-03  0.8888E-05 -0.2202E+07
   -2.000004   29.70210  0.3778E-13  0.0000E+00  0.0000E+00  0.0000E+00  0.1574E-04  0.0000E+00
