 1 - depth, m
 2 - temperature, C
 3 - salinity, kg/kg
 4 - turbulent kinetic energy, m**2/s**2
 5 - dissipation rate, m**2/s**3
 6 - kinematic heat conductance, m**2/s
 7 - modulus of horizontal velocity, m/s
 8 - Richardson number, n/d
   -0.000000   30.42871  0.8981E-14  0.4732E-05  0.2911E-06  0.5014E-04  0.1674E-02  0.6009E+04
   -0.049997   30.45769  0.8982E-14  0.8081E-05  0.1295E-06  0.1750E-03  0.9579E-03  0.1253E+04
   -0.099994   30.46904  0.8982E-14  0.9814E-05  0.8891E-07  0.3965E-03  0.6989E-03  0.1826E+02
   -0.149992   30.47215  0.8982E-14  0.1090E-04  0.7459E-07  0.4769E-03  0.6173E-03  0.8924E+01
   -0.199991   30.47463  0.8982E-14  0.1174E-04  0.6622E-07  0.6378E-03  0.5510E-03  0.5725E+01
   -0.249989   30.47643  0.8982E-14  0.1242E-04  0.6075E-07  0.7627E-03  0.5014E-03  0.4211E+01
   -0.299988   30.47790  0.8982E-14  0.1297E-04  0.5687E-07  0.8875E-03  0.4602E-03  0.3357E+01
   -0.349988   30.47913  0.8982E-14  0.1343E-04  0.5397E-07  0.1001E-02  0.4249E-03  0.2860E+01
   -0.399988   30.48020  0.8982E-14  0.1382E-04  0.5172E-07  0.1104E-02  0.3937E-03  0.2556E+01
   -0.449988   30.48115  0.8982E-14  0.1416E-04  0.4989E-07  0.1200E-02  0.3663E-03  0.2387E+01
   -0.499988   30.48201  0.8982E-14  0.1445E-04  0.4839E-07  0.1289E-02  0.3420E-03  0.2331E+01
   -0.549989   30.48279  0.8982E-14  0.1470E-04  0.4714E-07  0.1370E-02  0.3203E-03  0.2288E+01
   -0.599989   30.48352  0.8982E-14  0.1492E-04  0.4609E-07  0.1444E-02  0.3007E-03  0.2299E+01
   -0.649991   30.48419  0.8982E-14  0.1511E-04  0.4521E-07  0.1510E-02  0.2828E-03  0.2315E+01
   -0.699992   30.48483  0.8982E-14  0.1528E-04  0.4447E-07  0.1569E-02  0.2663E-03  0.2379E+01
   -0.749993   30.48544  0.8982E-14  0.1542E-04  0.4386E-07  0.1620E-02  0.2512E-03  0.2443E+01
   -0.799995   30.48602  0.8982E-14  0.1553E-04  0.4336E-07  0.1664E-02  0.2370E-03  0.2559E+01
   -0.849996   30.48659  0.8982E-14  0.1562E-04  0.4297E-07  0.1700E-02  0.2238E-03  0.2674E+01
   -0.899998   30.48713  0.8982E-14  0.1570E-04  0.4267E-07  0.1728E-02  0.2115E-03  0.2850E+01
   -0.949999   30.48766  0.8982E-14  0.1575E-04  0.4247E-07  0.1747E-02  0.1998E-03  0.3031E+01
   -1.000001   30.48818  0.8982E-14  0.1578E-04  0.4237E-07  0.1759E-02  0.1888E-03  0.3290E+01
   -1.050003   30.48870  0.8982E-14  0.1578E-04  0.4236E-07  0.1762E-02  0.1783E-03  0.3706E+01
   -1.100005   30.48921  0.8982E-14  0.1577E-04  0.4247E-07  0.1843E-02  0.1683E-03  0.1246E+02
   -1.150006   30.48969  0.8982E-14  0.1574E-04  0.4271E-07  0.1688E-02  0.1594E-03  0.2752E+02
   -1.200008   30.49022  0.8982E-14  0.1568E-04  0.4307E-07  0.1708E-02  0.1502E-03  0.5318E+01
   -1.250009   30.49074  0.8982E-14  0.1560E-04  0.4359E-07  0.1679E-02  0.1414E-03  0.5705E+01
   -1.300011   30.49127  0.8982E-14  0.1549E-04  0.4432E-07  0.1631E-02  0.1329E-03  0.6625E+01
   -1.350012   30.49181  0.8982E-14  0.1535E-04  0.4529E-07  0.1574E-02  0.1247E-03  0.7947E+01
   -1.400013   30.49237  0.8982E-14  0.1518E-04  0.4659E-07  0.1499E-02  0.1166E-03  0.9728E+01
   -1.450014   30.49295  0.8982E-14  0.1496E-04  0.4835E-07  0.1424E-02  0.1088E-03  0.1239E+02
   -1.500014   30.49358  0.8982E-14  0.1470E-04  0.5075E-07  0.1314E-02  0.1011E-03  0.1663E+02
   -1.550015   30.49426  0.8982E-14  0.1437E-04  0.5412E-07  0.1231E-02  0.9331E-04  0.2353E+02
   -1.600015   30.49499  0.8982E-14  0.1397E-04  0.5923E-07  0.1086E-02  0.8574E-04  0.6577E+02
   -1.650014   30.49588  0.8982E-14  0.1345E-04  0.6699E-07  0.1008E-02  0.7763E-04  0.2945E+04
   -1.700014   30.49686  0.8982E-14  0.1273E-04  0.8086E-07  0.8233E-03  0.6983E-04 -0.1906E+03
   -1.750013   30.49860  0.8982E-14  0.1177E-04  0.1038E-06  0.7486E-03  0.5948E-04  0.3107E+05
   -1.800012   30.50009  0.8982E-14  0.1047E-04  0.1521E-06  0.5256E-03  0.5125E-04  0.1788E+06
   -1.850010   30.50576  0.8982E-14  0.8971E-05  0.2419E-06  0.4810E-03  0.3737E-04  0.2554E+10
   -1.900008   30.50507  0.8982E-14  0.7169E-05  0.5019E-06  0.2192E-03  0.3038E-04  0.1358E+06
   -1.950005   30.52336  0.8982E-14  0.4974E-05  0.1273E-05  0.1799E-03  0.1674E-04 -0.2541E+07
   -2.000002   30.52644  0.8982E-14  0.0000E+00  0.0000E+00  0.0000E+00  0.2921E-04  0.0000E+00
