 1 - depth, m
 2 - temperature, C
 3 - salinity, kg/kg
 4 - turbulent kinetic energy, m**2/s**2
 5 - dissipation rate, m**2/s**3
 6 - kinematic heat conductance, m**2/s
 7 - modulus of horizontal velocity, m/s
 8 - Richardson number, n/d
   -0.000000   29.66153  0.2120E-14  0.4242E-05  0.2410E-06  0.4487E-04  0.4567E-03  0.1355E+06
   -0.049997   29.69043  0.2120E-14  0.7585E-05  0.1070E-06  0.1822E-03  0.2510E-03  0.2220E+03
   -0.099994   29.69967  0.2120E-14  0.9132E-05  0.7512E-07  0.3999E-03  0.1843E-03  0.2642E+03
   -0.149992   29.70243  0.2120E-14  0.1011E-04  0.6376E-07  0.4799E-03  0.1630E-03  0.1307E+03
   -0.199991   29.70464  0.2120E-14  0.1087E-04  0.5700E-07  0.6336E-03  0.1457E-03  0.8680E+02
   -0.249989   29.70627  0.2120E-14  0.1148E-04  0.5252E-07  0.7553E-03  0.1326E-03  0.6502E+02
   -0.299989   29.70760  0.2120E-14  0.1198E-04  0.4930E-07  0.8743E-03  0.1216E-03  0.5230E+02
   -0.349988   29.70872  0.2120E-14  0.1239E-04  0.4688E-07  0.9827E-03  0.1123E-03  0.4506E+02
   -0.399988   29.70970  0.2120E-14  0.1274E-04  0.4499E-07  0.1082E-02  0.1039E-03  0.4037E+02
   -0.449988   29.71057  0.2120E-14  0.1305E-04  0.4345E-07  0.1174E-02  0.9661E-04  0.3809E+02
   -0.499988   29.71136  0.2120E-14  0.1331E-04  0.4218E-07  0.1258E-02  0.9013E-04  0.3719E+02
   -0.549989   29.71208  0.2120E-14  0.1355E-04  0.4112E-07  0.1336E-02  0.8432E-04  0.3684E+02
   -0.599990   29.71275  0.2120E-14  0.1375E-04  0.4022E-07  0.1406E-02  0.7907E-04  0.3697E+02
   -0.649991   29.71338  0.2120E-14  0.1392E-04  0.3947E-07  0.1470E-02  0.7427E-04  0.3757E+02
   -0.699992   29.71397  0.2120E-14  0.1407E-04  0.3883E-07  0.1526E-02  0.6988E-04  0.3852E+02
   -0.749993   29.71453  0.2120E-14  0.1419E-04  0.3830E-07  0.1575E-02  0.6581E-04  0.3992E+02
   -0.799995   29.71507  0.2120E-14  0.1430E-04  0.3787E-07  0.1617E-02  0.6204E-04  0.4168E+02
   -0.849996   29.71558  0.2120E-14  0.1438E-04  0.3752E-07  0.1652E-02  0.5851E-04  0.4397E+02
   -0.899998   29.71609  0.2120E-14  0.1444E-04  0.3726E-07  0.1679E-02  0.5521E-04  0.4670E+02
   -0.950000   29.71658  0.2120E-14  0.1449E-04  0.3707E-07  0.1698E-02  0.5210E-04  0.5012E+02
   -1.000002   29.71706  0.2120E-14  0.1452E-04  0.3697E-07  0.1710E-02  0.4916E-04  0.5417E+02
   -1.050003   29.71753  0.2120E-14  0.1452E-04  0.3695E-07  0.1713E-02  0.4638E-04  0.6160E+02
   -1.100005   29.71800  0.2120E-14  0.1451E-04  0.3703E-07  0.1787E-02  0.4373E-04  0.2070E+03
   -1.150007   29.71845  0.2120E-14  0.1448E-04  0.3721E-07  0.1649E-02  0.4135E-04  0.4512E+03
   -1.200008   29.71893  0.2120E-14  0.1443E-04  0.3750E-07  0.1665E-02  0.3892E-04  0.8845E+02
   -1.250010   29.71940  0.2120E-14  0.1436E-04  0.3792E-07  0.1637E-02  0.3659E-04  0.9452E+02
   -1.300011   29.71988  0.2120E-14  0.1426E-04  0.3851E-07  0.1593E-02  0.3434E-04  0.1103E+03
   -1.350012   29.72037  0.2120E-14  0.1414E-04  0.3930E-07  0.1538E-02  0.3217E-04  0.1313E+03
   -1.400013   29.72088  0.2120E-14  0.1398E-04  0.4036E-07  0.1469E-02  0.3007E-04  0.1608E+03
   -1.450014   29.72141  0.2120E-14  0.1379E-04  0.4178E-07  0.1395E-02  0.2800E-04  0.2027E+03
   -1.500015   29.72197  0.2120E-14  0.1356E-04  0.4371E-07  0.1292E-02  0.2599E-04  0.2694E+03
   -1.550015   29.72258  0.2120E-14  0.1327E-04  0.4640E-07  0.1207E-02  0.2397E-04  0.3735E+03
   -1.600015   29.72323  0.2120E-14  0.1292E-04  0.5038E-07  0.1069E-02  0.2200E-04  0.5997E+03
   -1.650015   29.72399  0.2120E-14  0.1247E-04  0.5638E-07  0.9902E-03  0.1994E-04  0.1967E+04
   -1.700015   29.72484  0.2120E-14  0.1187E-04  0.6716E-07  0.8122E-03  0.1795E-04  0.3561E+04
   -1.750014   29.72624  0.2120E-14  0.1103E-04  0.8522E-07  0.7331E-03  0.1540E-04  0.2143E+06
   -1.800013   29.72762  0.2120E-14  0.9843E-05  0.1223E-06  0.5189E-03  0.1324E-04  0.2235E+07
   -1.850011   29.73198  0.2120E-14  0.8419E-05  0.1911E-06  0.4651E-03  0.9788E-05  0.1101E+09
   -1.900009   29.73208  0.2120E-14  0.6648E-05  0.3923E-06  0.2086E-03  0.7863E-05  0.7543E+07
   -1.950006   29.74770  0.2120E-14  0.4562E-05  0.1013E-05  0.1671E-03  0.4299E-05 -0.2547E+08
   -2.000003   29.75028  0.2120E-14  0.0000E+00  0.0000E+00  0.0000E+00  0.7398E-05  0.0000E+00
