 1 - depth, m
 2 - temperature, C
 3 - salinity, kg/kg
 4 - turbulent kinetic energy, m**2/s**2
 5 - dissipation rate, m**2/s**3
 6 - kinematic heat conductance, m**2/s
 7 - modulus of horizontal velocity, m/s
 8 - Richardson number, n/d
   -0.000000   30.11924  0.2018E-14  0.4531E-05  0.2722E-06  0.4798E-04  0.7503E-03  0.2696E+05
   -0.049997   30.14891  0.2018E-14  0.7959E-05  0.1208E-06  0.1789E-03  0.4205E-03  0.5695E+02
   -0.099994   30.15971  0.2018E-14  0.9636E-05  0.8383E-07  0.4030E-03  0.3085E-03  0.9005E+02
   -0.149992   30.16271  0.2018E-14  0.1068E-04  0.7080E-07  0.4816E-03  0.2729E-03  0.4402E+02
   -0.199991   30.16511  0.2018E-14  0.1150E-04  0.6309E-07  0.6407E-03  0.2439E-03  0.2870E+02
   -0.249989   30.16687  0.2018E-14  0.1215E-04  0.5802E-07  0.7644E-03  0.2221E-03  0.2132E+02
   -0.299989   30.16830  0.2018E-14  0.1268E-04  0.5439E-07  0.8870E-03  0.2039E-03  0.1706E+02
   -0.349988   30.16951  0.2018E-14  0.1312E-04  0.5166E-07  0.9982E-03  0.1884E-03  0.1462E+02
   -0.399988   30.17056  0.2018E-14  0.1349E-04  0.4953E-07  0.1100E-02  0.1746E-03  0.1307E+02
   -0.449988   30.17149  0.2018E-14  0.1382E-04  0.4780E-07  0.1194E-02  0.1624E-03  0.1227E+02
   -0.499988   30.17233  0.2018E-14  0.1410E-04  0.4637E-07  0.1281E-02  0.1516E-03  0.1197E+02
   -0.549989   30.17310  0.2018E-14  0.1434E-04  0.4518E-07  0.1360E-02  0.1420E-03  0.1180E+02
   -0.599990   30.17381  0.2018E-14  0.1455E-04  0.4417E-07  0.1432E-02  0.1333E-03  0.1184E+02
   -0.649991   30.17447  0.2018E-14  0.1473E-04  0.4332E-07  0.1497E-02  0.1253E-03  0.1197E+02
   -0.699992   30.17510  0.2018E-14  0.1488E-04  0.4260E-07  0.1554E-02  0.1180E-03  0.1228E+02
   -0.749993   30.17570  0.2018E-14  0.1501E-04  0.4200E-07  0.1604E-02  0.1113E-03  0.1266E+02
   -0.799995   30.17627  0.2018E-14  0.1511E-04  0.4151E-07  0.1646E-02  0.1050E-03  0.1323E+02
   -0.849996   30.17682  0.2018E-14  0.1520E-04  0.4112E-07  0.1681E-02  0.9910E-04  0.1389E+02
   -0.899998   30.17735  0.2018E-14  0.1526E-04  0.4081E-07  0.1708E-02  0.9358E-04  0.1476E+02
   -0.950000   30.17787  0.2018E-14  0.1530E-04  0.4060E-07  0.1727E-02  0.8840E-04  0.1577E+02
   -1.000001   30.17838  0.2018E-14  0.1532E-04  0.4048E-07  0.1738E-02  0.8348E-04  0.1706E+02
   -1.050003   30.17888  0.2018E-14  0.1532E-04  0.4046E-07  0.1740E-02  0.7883E-04  0.1931E+02
   -1.100005   30.17938  0.2018E-14  0.1531E-04  0.4053E-07  0.1822E-02  0.7439E-04  0.6463E+02
   -1.150006   30.17985  0.2018E-14  0.1526E-04  0.4074E-07  0.1663E-02  0.7042E-04  0.1429E+03
   -1.200008   30.18037  0.2018E-14  0.1520E-04  0.4105E-07  0.1686E-02  0.6632E-04  0.2772E+02
   -1.250010   30.18087  0.2018E-14  0.1512E-04  0.4153E-07  0.1656E-02  0.6239E-04  0.2963E+02
   -1.300011   30.18138  0.2018E-14  0.1500E-04  0.4219E-07  0.1609E-02  0.5862E-04  0.3450E+02
   -1.350012   30.18190  0.2018E-14  0.1486E-04  0.4309E-07  0.1551E-02  0.5496E-04  0.4123E+02
   -1.400013   30.18245  0.2018E-14  0.1468E-04  0.4431E-07  0.1477E-02  0.5140E-04  0.5050E+02
   -1.450014   30.18301  0.2018E-14  0.1447E-04  0.4594E-07  0.1401E-02  0.4790E-04  0.6408E+02
   -1.500015   30.18361  0.2018E-14  0.1420E-04  0.4820E-07  0.1293E-02  0.4448E-04  0.8567E+02
   -1.550015   30.18427  0.2018E-14  0.1388E-04  0.5137E-07  0.1207E-02  0.4104E-04  0.1205E+03
   -1.600015   30.18497  0.2018E-14  0.1348E-04  0.5614E-07  0.1066E-02  0.3767E-04  0.2079E+03
   -1.650015   30.18581  0.2018E-14  0.1297E-04  0.6346E-07  0.9888E-03  0.3410E-04  0.2348E+05
   -1.700014   30.18676  0.2018E-14  0.1226E-04  0.7671E-07  0.8085E-03  0.3062E-04 -0.3104E+04
   -1.750013   30.18839  0.2018E-14  0.1131E-04  0.9854E-07  0.7280E-03  0.2605E-04  0.8590E+05
   -1.800012   30.18987  0.2018E-14  0.9997E-05  0.1434E-06  0.5113E-03  0.2233E-04  0.1460E+06
   -1.850010   30.19526  0.2018E-14  0.8503E-05  0.2281E-06  0.4669E-03  0.1608E-04  0.2703E+08
   -1.900008   30.19463  0.2018E-14  0.6737E-05  0.4744E-06  0.2091E-03  0.1304E-04 -0.3213E+07
   -1.950006   30.21244  0.2018E-14  0.4683E-05  0.1208E-05  0.1801E-03  0.7013E-05 -0.2450E+07
   -2.000003   30.21432  0.2018E-14  0.0000E+00  0.0000E+00  0.0000E+00  0.1264E-04  0.0000E+00
