 1 - depth, m
 2 - temperature, C
 3 - salinity, kg/kg
 4 - turbulent kinetic energy, m**2/s**2
 5 - dissipation rate, m**2/s**3
 6 - kinematic heat conductance, m**2/s
 7 - modulus of horizontal velocity, m/s
 8 - Richardson number, n/d
   -0.000000   30.44156  0.2159E-14  0.4741E-05  0.2915E-06  0.5012E-04  0.1674E-02  0.7163E+04
   -0.049997   30.47065  0.2159E-14  0.8095E-05  0.1298E-06  0.1753E-03  0.9575E-03  0.1012E+03
   -0.099994   30.48200  0.2159E-14  0.9829E-05  0.8915E-07  0.3963E-03  0.6994E-03  0.1831E+02
   -0.149992   30.48511  0.2159E-14  0.1092E-04  0.7479E-07  0.4770E-03  0.6177E-03  0.8955E+01
   -0.199991   30.48760  0.2159E-14  0.1176E-04  0.6641E-07  0.6378E-03  0.5514E-03  0.5745E+01
   -0.249989   30.48941  0.2159E-14  0.1244E-04  0.6093E-07  0.7626E-03  0.5018E-03  0.4226E+01
   -0.299988   30.49088  0.2159E-14  0.1299E-04  0.5704E-07  0.8874E-03  0.4606E-03  0.3369E+01
   -0.349988   30.49212  0.2159E-14  0.1345E-04  0.5413E-07  0.1000E-02  0.4253E-03  0.2872E+01
   -0.399988   30.49319  0.2159E-14  0.1384E-04  0.5188E-07  0.1104E-02  0.3941E-03  0.2567E+01
   -0.449988   30.49415  0.2159E-14  0.1418E-04  0.5005E-07  0.1200E-02  0.3666E-03  0.2399E+01
   -0.499988   30.49501  0.2159E-14  0.1447E-04  0.4854E-07  0.1288E-02  0.3423E-03  0.2343E+01
   -0.549989   30.49580  0.2159E-14  0.1472E-04  0.4729E-07  0.1369E-02  0.3206E-03  0.2301E+01
   -0.599989   30.49652  0.2159E-14  0.1494E-04  0.4624E-07  0.1443E-02  0.3010E-03  0.2312E+01
   -0.649991   30.49721  0.2159E-14  0.1513E-04  0.4536E-07  0.1509E-02  0.2831E-03  0.2330E+01
   -0.699992   30.49785  0.2159E-14  0.1529E-04  0.4462E-07  0.1567E-02  0.2666E-03  0.2395E+01
   -0.749993   30.49846  0.2159E-14  0.1543E-04  0.4401E-07  0.1618E-02  0.2514E-03  0.2461E+01
   -0.799995   30.49905  0.2159E-14  0.1555E-04  0.4351E-07  0.1661E-02  0.2373E-03  0.2579E+01
   -0.849996   30.49961  0.2159E-14  0.1564E-04  0.4311E-07  0.1696E-02  0.2241E-03  0.2698E+01
   -0.899998   30.50016  0.2159E-14  0.1571E-04  0.4282E-07  0.1724E-02  0.2117E-03  0.2876E+01
   -0.949999   30.50069  0.2159E-14  0.1576E-04  0.4262E-07  0.1743E-02  0.2000E-03  0.3064E+01
   -1.000001   30.50122  0.2159E-14  0.1578E-04  0.4252E-07  0.1754E-02  0.1890E-03  0.3326E+01
   -1.050003   30.50174  0.2159E-14  0.1579E-04  0.4252E-07  0.1756E-02  0.1785E-03  0.3753E+01
   -1.100005   30.50225  0.2159E-14  0.1578E-04  0.4264E-07  0.1840E-02  0.1685E-03  0.1256E+02
   -1.150006   30.50274  0.2159E-14  0.1574E-04  0.4288E-07  0.1677E-02  0.1596E-03  0.2803E+02
   -1.200008   30.50327  0.2159E-14  0.1568E-04  0.4325E-07  0.1700E-02  0.1503E-03  0.5408E+01
   -1.250009   30.50380  0.2159E-14  0.1559E-04  0.4379E-07  0.1670E-02  0.1415E-03  0.5799E+01
   -1.300011   30.50433  0.2159E-14  0.1548E-04  0.4453E-07  0.1621E-02  0.1330E-03  0.6750E+01
   -1.350012   30.50488  0.2159E-14  0.1534E-04  0.4552E-07  0.1562E-02  0.1247E-03  0.8103E+01
   -1.400013   30.50544  0.2159E-14  0.1516E-04  0.4685E-07  0.1487E-02  0.1167E-03  0.9942E+01
   -1.450014   30.50604  0.2159E-14  0.1493E-04  0.4864E-07  0.1408E-02  0.1088E-03  0.1268E+02
   -1.500014   30.50667  0.2159E-14  0.1466E-04  0.5110E-07  0.1299E-02  0.1010E-03  0.1704E+02
   -1.550015   30.50736  0.2159E-14  0.1433E-04  0.5455E-07  0.1210E-02  0.9327E-04  0.2415E+02
   -1.600015   30.50811  0.2159E-14  0.1391E-04  0.5972E-07  0.1068E-02  0.8563E-04  0.4270E+02
   -1.650014   30.50900  0.2159E-14  0.1338E-04  0.6765E-07  0.9865E-03  0.7755E-04  0.8290E+03
   -1.700014   30.51002  0.2159E-14  0.1265E-04  0.8185E-07  0.8090E-03  0.6963E-04  0.5532E+04
   -1.750013   30.51175  0.2159E-14  0.1165E-04  0.1055E-06  0.7270E-03  0.5936E-04 -0.6354E+04
   -1.800012   30.51341  0.2159E-14  0.1026E-04  0.1554E-06  0.5042E-03  0.5078E-04  0.2623E+05
   -1.850010   30.51928  0.2159E-14  0.8681E-05  0.2472E-06  0.4604E-03  0.3658E-04  0.4587E+07
   -1.900008   30.51872  0.2159E-14  0.6826E-05  0.5159E-06  0.2069E-03  0.2938E-04  0.1578E+05
   -1.950005   30.53818  0.2159E-14  0.4791E-05  0.1294E-05  0.1862E-03  0.1573E-04 -0.2708E+06
   -2.000002   30.53947  0.2159E-14  0.0000E+00  0.0000E+00  0.0000E+00  0.2875E-04  0.0000E+00
