 1 - depth, m
 2 - temperature, C
 3 - salinity, kg/kg
 4 - turbulent kinetic energy, m**2/s**2
 5 - dissipation rate, m**2/s**3
 6 - kinematic heat conductance, m**2/s
 7 - modulus of horizontal velocity, m/s
 8 - Richardson number, n/d
   -0.000000   30.96949  0.1292E-13  0.5051E-05  0.3226E-06  0.5079E-04  0.5421E-03  0.2610E+05
   -0.049997   31.00282  0.1292E-13  0.8881E-05  0.1432E-06  0.1884E-03  0.3067E-03  0.2355E+04
   -0.099994   31.01463  0.1292E-13  0.1074E-04  0.9914E-07  0.4243E-03  0.2244E-03  0.1687E+03
   -0.149992   31.01795  0.1292E-13  0.1190E-04  0.8368E-07  0.5006E-03  0.1991E-03  0.8376E+02
   -0.199991   31.02064  0.1292E-13  0.1281E-04  0.7453E-07  0.6699E-03  0.1782E-03  0.5470E+02
   -0.249989   31.02259  0.1292E-13  0.1352E-04  0.6850E-07  0.7985E-03  0.1625E-03  0.4082E+02
   -0.299988   31.02418  0.1292E-13  0.1411E-04  0.6418E-07  0.9269E-03  0.1495E-03  0.3262E+02
   -0.349988   31.02552  0.1292E-13  0.1459E-04  0.6093E-07  0.1043E-02  0.1383E-03  0.2801E+02
   -0.399988   31.02668  0.1292E-13  0.1500E-04  0.5840E-07  0.1149E-02  0.1284E-03  0.2495E+02
   -0.449988   31.02771  0.1292E-13  0.1535E-04  0.5634E-07  0.1247E-02  0.1197E-03  0.2348E+02
   -0.499988   31.02864  0.1292E-13  0.1565E-04  0.5463E-07  0.1337E-02  0.1119E-03  0.2280E+02
   -0.549989   31.02949  0.1292E-13  0.1591E-04  0.5320E-07  0.1419E-02  0.1050E-03  0.2254E+02
   -0.599989   31.03027  0.1292E-13  0.1614E-04  0.5199E-07  0.1493E-02  0.9868E-04  0.2249E+02
   -0.649990   31.03101  0.1292E-13  0.1633E-04  0.5097E-07  0.1560E-02  0.9293E-04  0.2281E+02
   -0.699992   31.03170  0.1292E-13  0.1648E-04  0.5011E-07  0.1618E-02  0.8765E-04  0.2326E+02
   -0.749993   31.03236  0.1292E-13  0.1662E-04  0.4939E-07  0.1669E-02  0.8275E-04  0.2408E+02
   -0.799994   31.03299  0.1292E-13  0.1672E-04  0.4879E-07  0.1712E-02  0.7820E-04  0.2502E+02
   -0.849996   31.03360  0.1292E-13  0.1680E-04  0.4831E-07  0.1746E-02  0.7393E-04  0.2636E+02
   -0.899997   31.03419  0.1292E-13  0.1686E-04  0.4794E-07  0.1772E-02  0.6993E-04  0.2788E+02
   -0.949999   31.03476  0.1292E-13  0.1689E-04  0.4768E-07  0.1790E-02  0.6614E-04  0.2992E+02
   -1.000001   31.03533  0.1292E-13  0.1691E-04  0.4753E-07  0.1799E-02  0.6257E-04  0.3224E+02
   -1.050003   31.03588  0.1292E-13  0.1689E-04  0.4750E-07  0.1797E-02  0.5916E-04  0.3659E+02
   -1.100004   31.03643  0.1292E-13  0.1686E-04  0.4760E-07  0.1898E-02  0.5591E-04  0.1192E+03
   -1.150006   31.03695  0.1292E-13  0.1680E-04  0.4785E-07  0.1691E-02  0.5303E-04  0.2834E+03
   -1.200007   31.03753  0.1292E-13  0.1671E-04  0.4825E-07  0.1728E-02  0.4998E-04  0.5348E+02
   -1.250009   31.03809  0.1292E-13  0.1659E-04  0.4884E-07  0.1696E-02  0.4708E-04  0.5685E+02
   -1.300010   31.03866  0.1292E-13  0.1645E-04  0.4968E-07  0.1642E-02  0.4429E-04  0.6701E+02
   -1.350011   31.03924  0.1292E-13  0.1626E-04  0.5082E-07  0.1579E-02  0.4158E-04  0.8061E+02
   -1.400012   31.03985  0.1292E-13  0.1604E-04  0.5239E-07  0.1496E-02  0.3893E-04  0.1008E+03
   -1.450013   31.04049  0.1292E-13  0.1577E-04  0.5453E-07  0.1415E-02  0.3632E-04  0.1302E+03
   -1.500014   31.04116  0.1292E-13  0.1544E-04  0.5753E-07  0.1299E-02  0.3375E-04  0.1810E+03
   -1.550014   31.04191  0.1292E-13  0.1503E-04  0.6186E-07  0.1213E-02  0.3116E-04  0.2698E+03
   -1.600014   31.04273  0.1292E-13  0.1453E-04  0.6860E-07  0.1068E-02  0.2860E-04  0.6244E+03
   -1.650014   31.04375  0.1292E-13  0.1387E-04  0.7923E-07  0.9841E-03  0.2583E-04  0.2719E+04
   -1.700013   31.04496  0.1292E-13  0.1296E-04  0.9826E-07  0.8015E-03  0.2303E-04  0.8019E+06
   -1.750012   31.04706  0.1292E-13  0.1181E-04  0.1286E-06  0.7198E-03  0.1935E-04  0.1387E+07
   -1.800011   31.04867  0.1292E-13  0.1032E-04  0.1947E-06  0.4975E-03  0.1661E-04  0.2620E+07
   -1.850009   31.05634  0.1292E-13  0.8742E-05  0.3193E-06  0.4640E-03  0.1166E-04  0.5524E+09
   -1.900007   31.05393  0.1292E-13  0.6944E-05  0.6707E-06  0.2133E-03  0.9564E-05 -0.1289E+07
   -1.950005   31.07561  0.1292E-13  0.4926E-05  0.1631E-05  0.2046E-03  0.5109E-05 -0.8749E+07
   -2.000002   31.07696  0.1292E-13  0.0000E+00  0.0000E+00  0.0000E+00  0.9814E-05  0.0000E+00
