 1 - depth, m
 2 - temperature, C
 3 - salinity, kg/kg
 4 - turbulent kinetic energy, m**2/s**2
 5 - dissipation rate, m**2/s**3
 6 - kinematic heat conductance, m**2/s
 7 - modulus of horizontal velocity, m/s
 8 - Richardson number, n/d
   -0.000000   30.22383  0.9850E-13  0.4528E-05  0.2726E-06  0.4912E-04  0.1193E-02  0.9745E+04
   -0.049997   30.25281  0.9850E-13  0.7816E-05  0.1213E-06  0.1703E-03  0.6822E-03  0.1038E+03
   -0.099994   30.26421  0.9850E-13  0.9478E-05  0.8337E-07  0.3938E-03  0.4946E-03  0.3784E+02
   -0.149992   30.26727  0.9850E-13  0.1050E-04  0.7018E-07  0.4690E-03  0.4369E-03  0.1826E+02
   -0.199991   30.26973  0.9850E-13  0.1129E-04  0.6237E-07  0.6250E-03  0.3897E-03  0.1181E+02
   -0.249989   30.27152  0.9850E-13  0.1192E-04  0.5721E-07  0.7465E-03  0.3543E-03  0.8745E+01
   -0.299989   30.27297  0.9850E-13  0.1243E-04  0.5350E-07  0.8666E-03  0.3249E-03  0.6949E+01
   -0.349988   30.27419  0.9850E-13  0.1285E-04  0.5071E-07  0.9757E-03  0.2996E-03  0.5957E+01
   -0.399988   30.27524  0.9850E-13  0.1321E-04  0.4852E-07  0.1075E-02  0.2773E-03  0.5292E+01
   -0.449988   30.27617  0.9850E-13  0.1351E-04  0.4673E-07  0.1168E-02  0.2577E-03  0.4984E+01
   -0.499988   30.27701  0.9850E-13  0.1377E-04  0.4524E-07  0.1253E-02  0.2403E-03  0.4832E+01
   -0.549989   30.27777  0.9850E-13  0.1399E-04  0.4398E-07  0.1331E-02  0.2247E-03  0.4783E+01
   -0.599990   30.27848  0.9850E-13  0.1418E-04  0.4292E-07  0.1402E-02  0.2107E-03  0.4764E+01
   -0.649991   30.27914  0.9850E-13  0.1434E-04  0.4200E-07  0.1465E-02  0.1979E-03  0.4838E+01
   -0.699992   30.27976  0.9850E-13  0.1448E-04  0.4123E-07  0.1522E-02  0.1862E-03  0.4922E+01
   -0.749993   30.28034  0.9850E-13  0.1459E-04  0.4056E-07  0.1571E-02  0.1753E-03  0.5098E+01
   -0.799995   30.28090  0.9850E-13  0.1468E-04  0.4000E-07  0.1613E-02  0.1652E-03  0.5280E+01
   -0.849996   30.28144  0.9850E-13  0.1474E-04  0.3954E-07  0.1647E-02  0.1558E-03  0.5564E+01
   -0.899998   30.28196  0.9850E-13  0.1479E-04  0.3916E-07  0.1674E-02  0.1470E-03  0.5862E+01
   -0.950000   30.28246  0.9850E-13  0.1482E-04  0.3888E-07  0.1693E-02  0.1387E-03  0.6285E+01
   -1.000002   30.28295  0.9850E-13  0.1483E-04  0.3868E-07  0.1705E-02  0.1309E-03  0.6738E+01
   -1.050003   30.28344  0.9850E-13  0.1481E-04  0.3857E-07  0.1707E-02  0.1234E-03  0.7644E+01
   -1.100005   30.28391  0.9850E-13  0.1478E-04  0.3856E-07  0.1786E-02  0.1164E-03  0.2536E+02
   -1.150007   30.28436  0.9850E-13  0.1473E-04  0.3867E-07  0.1637E-02  0.1101E-03  0.5636E+02
   -1.200008   30.28485  0.9850E-13  0.1466E-04  0.3888E-07  0.1657E-02  0.1036E-03  0.1091E+02
   -1.250010   30.28533  0.9850E-13  0.1456E-04  0.3924E-07  0.1628E-02  0.9735E-04  0.1152E+02
   -1.300011   30.28581  0.9850E-13  0.1444E-04  0.3977E-07  0.1583E-02  0.9136E-04  0.1344E+02
   -1.350012   30.28630  0.9850E-13  0.1429E-04  0.4052E-07  0.1528E-02  0.8558E-04  0.1591E+02
   -1.400013   30.28680  0.9850E-13  0.1411E-04  0.4156E-07  0.1456E-02  0.7994E-04  0.1952E+02
   -1.450014   30.28733  0.9850E-13  0.1389E-04  0.4298E-07  0.1382E-02  0.7444E-04  0.2451E+02
   -1.500015   30.28788  0.9850E-13  0.1363E-04  0.4497E-07  0.1277E-02  0.6905E-04  0.3278E+02
   -1.550015   30.28848  0.9850E-13  0.1331E-04  0.4778E-07  0.1195E-02  0.6366E-04  0.4557E+02
   -1.600015   30.28913  0.9850E-13  0.1292E-04  0.5206E-07  0.1055E-02  0.5839E-04  0.7895E+02
   -1.650015   30.28989  0.9850E-13  0.1242E-04  0.5867E-07  0.9808E-03  0.5281E-04  0.6441E+03
   -1.700014   30.29074  0.9850E-13  0.1175E-04  0.7071E-07  0.8000E-03  0.4742E-04  0.6788E+05
   -1.750014   30.29221  0.9850E-13  0.1083E-04  0.9067E-07  0.7236E-03  0.4027E-04  0.1619E+06
   -1.800012   30.29351  0.9850E-13  0.9577E-05  0.1324E-06  0.5056E-03  0.3452E-04  0.3122E+05
   -1.850011   30.29824  0.9850E-13  0.8133E-05  0.2102E-06  0.4597E-03  0.2486E-04  0.1835E+08
   -1.900009   30.29774  0.9850E-13  0.6445E-05  0.4367E-06  0.2099E-03  0.2012E-04  0.6014E+05
   -1.950006   30.31317  0.9850E-13  0.4445E-05  0.1120E-05  0.1739E-03  0.1088E-04 -0.5899E+06
   -2.000003   30.31611  0.9850E-13  0.0000E+00  0.0000E+00  0.0000E+00  0.1972E-04  0.0000E+00
