 1 - depth, m
 2 - temperature, C
 3 - salinity, kg/kg
 4 - turbulent kinetic energy, m**2/s**2
 5 - dissipation rate, m**2/s**3
 6 - kinematic heat conductance, m**2/s
 7 - modulus of horizontal velocity, m/s
 8 - Richardson number, n/d
   -0.000000   30.30887  0.1163E-13  0.4837E-05  0.3018E-06  0.5069E-04  0.1461E-02  0.6790E+04
   -0.049997   30.33945  0.1163E-13  0.8293E-05  0.1347E-06  0.1768E-03  0.8360E-03  0.4086E+04
   -0.099994   30.35135  0.1163E-13  0.1007E-04  0.9262E-07  0.3996E-03  0.6117E-03  0.2232E+02
   -0.149992   30.35463  0.1163E-13  0.1118E-04  0.7772E-07  0.4796E-03  0.5404E-03  0.1092E+02
   -0.199991   30.35725  0.1163E-13  0.1204E-04  0.6899E-07  0.6417E-03  0.4825E-03  0.7001E+01
   -0.249989   30.35915  0.1163E-13  0.1272E-04  0.6327E-07  0.7671E-03  0.4392E-03  0.5165E+01
   -0.299988   30.36069  0.1163E-13  0.1328E-04  0.5919E-07  0.8922E-03  0.4032E-03  0.4105E+01
   -0.349988   30.36198  0.1163E-13  0.1374E-04  0.5612E-07  0.1006E-02  0.3724E-03  0.3509E+01
   -0.399988   30.36310  0.1163E-13  0.1413E-04  0.5374E-07  0.1109E-02  0.3451E-03  0.3124E+01
   -0.449988   30.36410  0.1163E-13  0.1446E-04  0.5180E-07  0.1205E-02  0.3212E-03  0.2933E+01
   -0.499988   30.36499  0.1163E-13  0.1475E-04  0.5019E-07  0.1294E-02  0.2999E-03  0.2850E+01
   -0.549989   30.36581  0.1163E-13  0.1500E-04  0.4884E-07  0.1374E-02  0.2809E-03  0.2812E+01
   -0.599990   30.36657  0.1163E-13  0.1521E-04  0.4770E-07  0.1448E-02  0.2638E-03  0.2810E+01
   -0.649991   30.36727  0.1163E-13  0.1539E-04  0.4674E-07  0.1513E-02  0.2481E-03  0.2843E+01
   -0.699992   30.36794  0.1163E-13  0.1554E-04  0.4592E-07  0.1572E-02  0.2337E-03  0.2904E+01
   -0.749993   30.36857  0.1163E-13  0.1567E-04  0.4523E-07  0.1622E-02  0.2204E-03  0.2997E+01
   -0.799995   30.36918  0.1163E-13  0.1577E-04  0.4465E-07  0.1665E-02  0.2080E-03  0.3118E+01
   -0.849996   30.36976  0.1163E-13  0.1585E-04  0.4418E-07  0.1700E-02  0.1964E-03  0.3276E+01
   -0.899998   30.37032  0.1163E-13  0.1590E-04  0.4381E-07  0.1727E-02  0.1856E-03  0.3468E+01
   -0.950000   30.37087  0.1163E-13  0.1594E-04  0.4354E-07  0.1746E-02  0.1754E-03  0.3709E+01
   -1.000001   30.37140  0.1163E-13  0.1595E-04  0.4337E-07  0.1757E-02  0.1657E-03  0.3997E+01
   -1.050003   30.37193  0.1163E-13  0.1594E-04  0.4331E-07  0.1758E-02  0.1565E-03  0.4524E+01
   -1.100005   30.37245  0.1163E-13  0.1591E-04  0.4335E-07  0.1846E-02  0.1478E-03  0.1495E+02
   -1.150006   30.37294  0.1163E-13  0.1586E-04  0.4353E-07  0.1672E-02  0.1400E-03  0.3403E+02
   -1.200008   30.37349  0.1163E-13  0.1578E-04  0.4384E-07  0.1700E-02  0.1318E-03  0.6519E+01
   -1.250009   30.37401  0.1163E-13  0.1568E-04  0.4432E-07  0.1669E-02  0.1241E-03  0.6927E+01
   -1.300011   30.37455  0.1163E-13  0.1555E-04  0.4500E-07  0.1620E-02  0.1166E-03  0.8101E+01
   -1.350012   30.37509  0.1163E-13  0.1538E-04  0.4594E-07  0.1561E-02  0.1094E-03  0.9680E+01
   -1.400013   30.37566  0.1163E-13  0.1518E-04  0.4723E-07  0.1483E-02  0.1023E-03  0.1196E+02
   -1.450014   30.37625  0.1163E-13  0.1494E-04  0.4899E-07  0.1406E-02  0.9541E-04  0.1522E+02
   -1.500014   30.37687  0.1163E-13  0.1464E-04  0.5145E-07  0.1293E-02  0.8861E-04  0.2071E+02
   -1.550015   30.37756  0.1163E-13  0.1429E-04  0.5495E-07  0.1211E-02  0.8177E-04  0.2947E+02
   -1.600015   30.37829  0.1163E-13  0.1384E-04  0.6033E-07  0.1064E-02  0.7508E-04  0.5958E+02
   -1.650015   30.37920  0.1163E-13  0.1327E-04  0.6869E-07  0.9888E-03  0.6787E-04  0.2250E+03
   -1.700014   30.38021  0.1163E-13  0.1249E-04  0.8375E-07  0.8028E-03  0.6086E-04  0.6637E+04
   -1.750013   30.38202  0.1163E-13  0.1146E-04  0.1085E-06  0.7261E-03  0.5147E-04  0.3638E+06
   -1.800012   30.38350  0.1163E-13  0.1006E-04  0.1609E-06  0.5043E-03  0.4418E-04  0.4318E+05
   -1.850010   30.38977  0.1163E-13  0.8515E-05  0.2594E-06  0.4628E-03  0.3143E-04  0.3271E+08
   -1.900008   30.38841  0.1163E-13  0.6736E-05  0.5431E-06  0.2119E-03  0.2560E-04  0.2404E+07
   -1.950006   30.40746  0.1163E-13  0.4709E-05  0.1363E-05  0.1890E-03  0.1368E-04 -0.1200E+07
   -2.000003   30.40890  0.1163E-13  0.0000E+00  0.0000E+00  0.0000E+00  0.2544E-04  0.0000E+00
