 1 - depth, m
 2 - temperature, C
 3 - salinity, kg/kg
 4 - turbulent kinetic energy, m**2/s**2
 5 - dissipation rate, m**2/s**3
 6 - kinematic heat conductance, m**2/s
 7 - modulus of horizontal velocity, m/s
 8 - Richardson number, n/d
   -0.000000   29.35607  0.1317E-12  0.4417E-05  0.2311E-06  0.4606E-04  0.2668E-02  0.4175E+02
   -0.049997   29.38292  0.1318E-12  0.7280E-05  0.1017E-06  0.1816E-03  0.1426E-02  0.1468E+02
   -0.099994   29.39112  0.1318E-12  0.8612E-05  0.7209E-07  0.3602E-03  0.1096E-02  0.6721E+01
   -0.149992   29.39400  0.1318E-12  0.9482E-05  0.6063E-07  0.4529E-03  0.9657E-03  0.3372E+01
   -0.199991   29.39618  0.1318E-12  0.1016E-04  0.5386E-07  0.5873E-03  0.8647E-03  0.2203E+01
   -0.249989   29.39780  0.1318E-12  0.1071E-04  0.4939E-07  0.7007E-03  0.7870E-03  0.1638E+01
   -0.299989   29.39913  0.1318E-12  0.1115E-04  0.4619E-07  0.8055E-03  0.7223E-03  0.1341E+01
   -0.349988   29.40025  0.1318E-12  0.1154E-04  0.4373E-07  0.9026E-03  0.6658E-03  0.1249E+01
   -0.399988   29.40122  0.1318E-12  0.1187E-04  0.4174E-07  0.1002E-02  0.6136E-03  0.1240E+01
   -0.449988   29.40208  0.1318E-12  0.1218E-04  0.4005E-07  0.1104E-02  0.5654E-03  0.1247E+01
   -0.499988   29.40284  0.1318E-12  0.1244E-04  0.3863E-07  0.1199E-02  0.5218E-03  0.1250E+01
   -0.549989   29.40352  0.1318E-12  0.1268E-04  0.3743E-07  0.1287E-02  0.4825E-03  0.1246E+01
   -0.599990   29.40415  0.1318E-12  0.1288E-04  0.3643E-07  0.1368E-02  0.4472E-03  0.1238E+01
   -0.649991   29.40472  0.1318E-12  0.1305E-04  0.3559E-07  0.1439E-02  0.4153E-03  0.1227E+01
   -0.699992   29.40526  0.1318E-12  0.1319E-04  0.3490E-07  0.1501E-02  0.3866E-03  0.1212E+01
   -0.749993   29.40577  0.1318E-12  0.1331E-04  0.3433E-07  0.1554E-02  0.3606E-03  0.1194E+01
   -0.799995   29.40626  0.1318E-12  0.1340E-04  0.3387E-07  0.1597E-02  0.3372E-03  0.1178E+01
   -0.849997   29.40672  0.1318E-12  0.1347E-04  0.3352E-07  0.1630E-02  0.3161E-03  0.1172E+01
   -0.899998   29.40717  0.1318E-12  0.1352E-04  0.3325E-07  0.1654E-02  0.2969E-03  0.1187E+01
   -0.950000   29.40762  0.1318E-12  0.1355E-04  0.3307E-07  0.1670E-02  0.2793E-03  0.1230E+01
   -1.000002   29.40805  0.1318E-12  0.1357E-04  0.3296E-07  0.1679E-02  0.2630E-03  0.1302E+01
   -1.050003   29.40847  0.1318E-12  0.1357E-04  0.3294E-07  0.1680E-02  0.2478E-03  0.1463E+01
   -1.100005   29.40890  0.1318E-12  0.1355E-04  0.3299E-07  0.1757E-02  0.2334E-03  0.4880E+01
   -1.150007   29.40930  0.1318E-12  0.1351E-04  0.3314E-07  0.1610E-02  0.2206E-03  0.1082E+02
   -1.200008   29.40973  0.1318E-12  0.1346E-04  0.3339E-07  0.1629E-02  0.2075E-03  0.2104E+01
   -1.250010   29.41016  0.1318E-12  0.1339E-04  0.3376E-07  0.1601E-02  0.1948E-03  0.2244E+01
   -1.300011   29.41060  0.1318E-12  0.1329E-04  0.3427E-07  0.1557E-02  0.1827E-03  0.2618E+01
   -1.350013   29.41104  0.1318E-12  0.1317E-04  0.3497E-07  0.1504E-02  0.1710E-03  0.3120E+01
   -1.400014   29.41150  0.1318E-12  0.1303E-04  0.3590E-07  0.1436E-02  0.1596E-03  0.3815E+01
   -1.450014   29.41198  0.1318E-12  0.1285E-04  0.3714E-07  0.1362E-02  0.1485E-03  0.4810E+01
   -1.500015   29.41249  0.1318E-12  0.1264E-04  0.3884E-07  0.1264E-02  0.1376E-03  0.6357E+01
   -1.550015   29.41304  0.1318E-12  0.1238E-04  0.4119E-07  0.1178E-02  0.1268E-03  0.8797E+01
   -1.600016   29.41363  0.1318E-12  0.1205E-04  0.4461E-07  0.1046E-02  0.1162E-03  0.1381E+02
   -1.650015   29.41432  0.1318E-12  0.1165E-04  0.4980E-07  0.9613E-03  0.1052E-03  0.3407E+03
   -1.700015   29.41510  0.1318E-12  0.1110E-04  0.5896E-07  0.7980E-03  0.9445E-04  0.1217E+03
   -1.750014   29.41630  0.1318E-12  0.1034E-04  0.7430E-07  0.7121E-03  0.8134E-04  0.9661E+04
   -1.800013   29.41759  0.1318E-12  0.9252E-05  0.1048E-06  0.5132E-03  0.6955E-04  0.2115E+05
   -1.850011   29.42131  0.1318E-12  0.7889E-05  0.1628E-06  0.4443E-03  0.5141E-04  0.8596E+06
   -1.900009   29.42179  0.1318E-12  0.6156E-05  0.3352E-06  0.1969E-03  0.4070E-04 -0.1386E+06
   -1.950006   29.43630  0.1318E-12  0.4219E-05  0.8771E-06  0.1579E-03  0.2189E-04  0.3883E+06
   -2.000003   29.43970  0.1318E-12  0.0000E+00  0.0000E+00  0.0000E+00  0.3798E-04  0.0000E+00
