 1 - depth, m
 2 - temperature, C
 3 - salinity, kg/kg
 4 - turbulent kinetic energy, m**2/s**2
 5 - dissipation rate, m**2/s**3
 6 - kinematic heat conductance, m**2/s
 7 - modulus of horizontal velocity, m/s
 8 - Richardson number, n/d
   -0.000000   29.20560  0.7696E-13  0.5003E-05  0.2636E-06  0.4886E-04  0.3580E-02  0.6934E+03
   -0.049997   29.23443  0.7696E-13  0.7989E-05  0.1144E-06  0.1965E-03  0.1916E-02  0.2615E+02
   -0.099994   29.24283  0.7696E-13  0.9347E-05  0.8186E-07  0.3681E-03  0.1515E-02  0.4243E+01
   -0.149992   29.24599  0.7696E-13  0.1025E-04  0.6913E-07  0.4633E-03  0.1350E-02  0.2201E+01
   -0.199991   29.24839  0.7696E-13  0.1096E-04  0.6166E-07  0.5876E-03  0.1221E-02  0.1507E+01
   -0.249990   29.25023  0.7696E-13  0.1155E-04  0.5668E-07  0.6897E-03  0.1121E-02  0.1285E+01
   -0.299989   29.25175  0.7696E-13  0.1207E-04  0.5289E-07  0.7992E-03  0.1032E-02  0.1315E+01
   -0.349988   29.25302  0.7696E-13  0.1255E-04  0.4979E-07  0.9250E-03  0.9455E-03  0.1399E+01
   -0.399988   29.25410  0.7696E-13  0.1300E-04  0.4720E-07  0.1056E-02  0.8616E-03  0.1422E+01
   -0.449988   29.25502  0.7696E-13  0.1340E-04  0.4502E-07  0.1185E-02  0.7842E-03  0.1427E+01
   -0.499988   29.25582  0.7696E-13  0.1375E-04  0.4321E-07  0.1305E-02  0.7147E-03  0.1427E+01
   -0.549989   29.25653  0.7696E-13  0.1405E-04  0.4170E-07  0.1415E-02  0.6528E-03  0.1416E+01
   -0.599990   29.25718  0.7696E-13  0.1429E-04  0.4044E-07  0.1513E-02  0.5975E-03  0.1402E+01
   -0.649991   29.25777  0.7696E-13  0.1449E-04  0.3940E-07  0.1600E-02  0.5481E-03  0.1383E+01
   -0.699992   29.25832  0.7696E-13  0.1465E-04  0.3854E-07  0.1673E-02  0.5040E-03  0.1361E+01
   -0.749994   29.25884  0.7696E-13  0.1477E-04  0.3785E-07  0.1733E-02  0.4645E-03  0.1335E+01
   -0.799995   29.25933  0.7696E-13  0.1485E-04  0.3729E-07  0.1778E-02  0.4292E-03  0.1306E+01
   -0.849997   29.25980  0.7696E-13  0.1490E-04  0.3687E-07  0.1811E-02  0.3976E-03  0.1274E+01
   -0.899998   29.26025  0.7696E-13  0.1493E-04  0.3656E-07  0.1831E-02  0.3693E-03  0.1240E+01
   -0.950000   29.26070  0.7696E-13  0.1492E-04  0.3636E-07  0.1838E-02  0.3439E-03  0.1201E+01
   -1.000002   29.26114  0.7696E-13  0.1490E-04  0.3626E-07  0.1835E-02  0.3212E-03  0.1162E+01
   -1.050004   29.26157  0.7696E-13  0.1485E-04  0.3626E-07  0.1819E-02  0.3009E-03  0.1140E+01
   -1.100005   29.26200  0.7696E-13  0.1479E-04  0.3634E-07  0.1950E-02  0.2829E-03  0.3107E+01
   -1.150007   29.26240  0.7696E-13  0.1471E-04  0.3653E-07  0.1672E-02  0.2687E-03  0.7587E+01
   -1.200009   29.26285  0.7696E-13  0.1461E-04  0.3682E-07  0.1736E-02  0.2531E-03  0.1399E+01
   -1.250010   29.26329  0.7696E-13  0.1448E-04  0.3725E-07  0.1701E-02  0.2384E-03  0.1475E+01
   -1.300012   29.26373  0.7696E-13  0.1434E-04  0.3785E-07  0.1644E-02  0.2243E-03  0.1722E+01
   -1.350013   29.26418  0.7696E-13  0.1416E-04  0.3868E-07  0.1578E-02  0.2106E-03  0.2064E+01
   -1.400014   29.26464  0.7696E-13  0.1395E-04  0.3981E-07  0.1494E-02  0.1972E-03  0.2550E+01
   -1.450015   29.26513  0.7696E-13  0.1370E-04  0.4135E-07  0.1411E-02  0.1839E-03  0.3259E+01
   -1.500015   29.26564  0.7696E-13  0.1341E-04  0.4349E-07  0.1293E-02  0.1709E-03  0.4438E+01
   -1.550016   29.26621  0.7696E-13  0.1306E-04  0.4656E-07  0.1206E-02  0.1578E-03  0.6375E+01
   -1.600016   29.26681  0.7696E-13  0.1262E-04  0.5131E-07  0.1061E-02  0.1449E-03  0.1202E+02
   -1.650016   29.26755  0.7696E-13  0.1207E-04  0.5880E-07  0.9771E-03  0.1310E-03  0.9636E+03
   -1.700015   29.26841  0.7696E-13  0.1132E-04  0.7214E-07  0.7973E-03  0.1171E-03 -0.1854E+04
   -1.750014   29.26992  0.7696E-13  0.1032E-04  0.9395E-07  0.7093E-03  0.9878E-04  0.3525E+05
   -1.800013   29.27117  0.7696E-13  0.8998E-05  0.1418E-06  0.4984E-03  0.8438E-04  0.1018E+05
   -1.850011   29.27635  0.7696E-13  0.7562E-05  0.2288E-06  0.4473E-03  0.5957E-04  0.1078E+07
   -1.900009   29.27506  0.7696E-13  0.5917E-05  0.4799E-06  0.2100E-03  0.4837E-04  0.5283E+04
   -1.950007   29.29055  0.7696E-13  0.4124E-05  0.1190E-05  0.1868E-03  0.2549E-04 -0.7933E+05
   -2.000004   29.29225  0.7696E-13  0.0000E+00  0.0000E+00  0.0000E+00  0.4971E-04  0.0000E+00
