 1 - depth, m
 2 - temperature, C
 3 - salinity, kg/kg
 4 - turbulent kinetic energy, m**2/s**2
 5 - dissipation rate, m**2/s**3
 6 - kinematic heat conductance, m**2/s
 7 - modulus of horizontal velocity, m/s
 8 - Richardson number, n/d
   -0.000000   29.90348  0.5492E-14  0.4613E-05  0.2777E-06  0.4869E-04  0.1349E-02  0.3182E+04
   -0.049997   29.93346  0.5492E-14  0.7942E-05  0.1240E-06  0.1760E-03  0.7629E-03  0.7049E+04
   -0.099994   29.94463  0.5492E-14  0.9616E-05  0.8582E-07  0.3903E-03  0.5610E-03  0.2657E+02
   -0.149992   29.94781  0.5492E-14  0.1067E-04  0.7212E-07  0.4726E-03  0.4949E-03  0.1298E+02
   -0.199991   29.95032  0.5492E-14  0.1148E-04  0.6406E-07  0.6287E-03  0.4417E-03  0.8351E+01
   -0.249989   29.95215  0.5492E-14  0.1213E-04  0.5876E-07  0.7516E-03  0.4018E-03  0.6161E+01
   -0.299989   29.95364  0.5492E-14  0.1265E-04  0.5496E-07  0.8731E-03  0.3686E-03  0.4897E+01
   -0.349988   29.95489  0.5492E-14  0.1308E-04  0.5210E-07  0.9835E-03  0.3401E-03  0.4185E+01
   -0.399988   29.95596  0.5492E-14  0.1345E-04  0.4987E-07  0.1084E-02  0.3149E-03  0.3726E+01
   -0.449988   29.95692  0.5492E-14  0.1376E-04  0.4804E-07  0.1178E-02  0.2928E-03  0.3499E+01
   -0.499988   29.95778  0.5492E-14  0.1403E-04  0.4652E-07  0.1264E-02  0.2732E-03  0.3404E+01
   -0.549989   29.95857  0.5492E-14  0.1426E-04  0.4525E-07  0.1343E-02  0.2556E-03  0.3359E+01
   -0.599990   29.95930  0.5492E-14  0.1446E-04  0.4416E-07  0.1414E-02  0.2398E-03  0.3357E+01
   -0.649991   29.95998  0.5492E-14  0.1462E-04  0.4323E-07  0.1479E-02  0.2253E-03  0.3397E+01
   -0.699992   29.96062  0.5492E-14  0.1476E-04  0.4244E-07  0.1535E-02  0.2120E-03  0.3468E+01
   -0.749993   29.96122  0.5492E-14  0.1488E-04  0.4177E-07  0.1585E-02  0.1998E-03  0.3578E+01
   -0.799995   29.96180  0.5492E-14  0.1497E-04  0.4120E-07  0.1627E-02  0.1884E-03  0.3718E+01
   -0.849997   29.96236  0.5492E-14  0.1504E-04  0.4072E-07  0.1662E-02  0.1778E-03  0.3903E+01
   -0.899998   29.96289  0.5492E-14  0.1508E-04  0.4034E-07  0.1689E-02  0.1678E-03  0.4125E+01
   -0.950000   29.96341  0.5492E-14  0.1511E-04  0.4005E-07  0.1708E-02  0.1584E-03  0.4404E+01
   -1.000002   29.96392  0.5492E-14  0.1512E-04  0.3985E-07  0.1719E-02  0.1495E-03  0.4737E+01
   -1.050003   29.96442  0.5492E-14  0.1510E-04  0.3973E-07  0.1721E-02  0.1411E-03  0.5347E+01
   -1.100005   29.96491  0.5492E-14  0.1507E-04  0.3972E-07  0.1803E-02  0.1331E-03  0.1777E+02
   -1.150007   29.96538  0.5492E-14  0.1501E-04  0.3983E-07  0.1646E-02  0.1259E-03  0.3959E+02
   -1.200008   29.96589  0.5492E-14  0.1493E-04  0.4005E-07  0.1669E-02  0.1186E-03  0.7619E+01
   -1.250010   29.96638  0.5492E-14  0.1483E-04  0.4042E-07  0.1640E-02  0.1115E-03  0.8075E+01
   -1.300011   29.96687  0.5492E-14  0.1470E-04  0.4096E-07  0.1593E-02  0.1047E-03  0.9384E+01
   -1.350012   29.96738  0.5492E-14  0.1455E-04  0.4173E-07  0.1536E-02  0.9811E-04  0.1115E+02
   -1.400014   29.96790  0.5492E-14  0.1436E-04  0.4280E-07  0.1463E-02  0.9171E-04  0.1364E+02
   -1.450014   29.96845  0.5492E-14  0.1413E-04  0.4427E-07  0.1388E-02  0.8543E-04  0.1720E+02
   -1.500015   29.96901  0.5492E-14  0.1385E-04  0.4632E-07  0.1280E-02  0.7929E-04  0.2295E+02
   -1.550015   29.96963  0.5492E-14  0.1352E-04  0.4923E-07  0.1196E-02  0.7314E-04  0.3204E+02
   -1.600015   29.97030  0.5492E-14  0.1311E-04  0.5366E-07  0.1055E-02  0.6711E-04  0.5476E+02
   -1.650015   29.97108  0.5492E-14  0.1260E-04  0.6052E-07  0.9785E-03  0.6073E-04  0.8747E+04
   -1.700015   29.97196  0.5492E-14  0.1190E-04  0.7300E-07  0.7999E-03  0.5456E-04 -0.3668E+04
   -1.750014   29.97348  0.5492E-14  0.1094E-04  0.9397E-07  0.7182E-03  0.4639E-04  0.1329E+06
   -1.800013   29.97490  0.5492E-14  0.9616E-05  0.1383E-06  0.5054E-03  0.3962E-04  0.7969E+05
   -1.850011   29.97984  0.5492E-14  0.8122E-05  0.2190E-06  0.4550E-03  0.2848E-04  0.1638E+08
   -1.900009   29.97918  0.5492E-14  0.6370E-05  0.4561E-06  0.2079E-03  0.2303E-04 -0.1056E+07
   -1.950006   29.99551  0.5492E-14  0.4415E-05  0.1158E-05  0.1806E-03  0.1226E-04 -0.9958E+07
   -2.000003   29.99696  0.5492E-14  0.0000E+00  0.0000E+00  0.0000E+00  0.2266E-04  0.0000E+00
