 1 - depth, m
 2 - temperature, C
 3 - salinity, kg/kg
 4 - turbulent kinetic energy, m**2/s**2
 5 - dissipation rate, m**2/s**3
 6 - kinematic heat conductance, m**2/s
 7 - modulus of horizontal velocity, m/s
 8 - Richardson number, n/d
   -0.000000   30.59771  0.1448E-13  0.4665E-05  0.2857E-06  0.4883E-04  0.6215E-03  0.3802E+05
   -0.049997   30.62792  0.1448E-13  0.8225E-05  0.1266E-06  0.1820E-03  0.3498E-03  0.3205E+04
   -0.099994   30.63888  0.1448E-13  0.9961E-05  0.8775E-07  0.4127E-03  0.2556E-03  0.1297E+03
   -0.149992   30.64189  0.1448E-13  0.1104E-04  0.7417E-07  0.4895E-03  0.2265E-03  0.6384E+02
   -0.199991   30.64433  0.1448E-13  0.1189E-04  0.6614E-07  0.6530E-03  0.2025E-03  0.4176E+02
   -0.249989   30.64611  0.1448E-13  0.1257E-04  0.6086E-07  0.7787E-03  0.1846E-03  0.3112E+02
   -0.299988   30.64756  0.1448E-13  0.1312E-04  0.5709E-07  0.9036E-03  0.1696E-03  0.2496E+02
   -0.349988   30.64878  0.1448E-13  0.1358E-04  0.5427E-07  0.1017E-02  0.1568E-03  0.2142E+02
   -0.399988   30.64984  0.1448E-13  0.1397E-04  0.5207E-07  0.1120E-02  0.1454E-03  0.1917E+02
   -0.449988   30.65079  0.1448E-13  0.1431E-04  0.5029E-07  0.1216E-02  0.1354E-03  0.1801E+02
   -0.499988   30.65164  0.1448E-13  0.1460E-04  0.4882E-07  0.1304E-02  0.1265E-03  0.1757E+02
   -0.549989   30.65243  0.1448E-13  0.1486E-04  0.4760E-07  0.1385E-02  0.1186E-03  0.1734E+02
   -0.599989   30.65315  0.1448E-13  0.1508E-04  0.4658E-07  0.1458E-02  0.1114E-03  0.1740E+02
   -0.649990   30.65383  0.1448E-13  0.1527E-04  0.4573E-07  0.1523E-02  0.1048E-03  0.1763E+02
   -0.699992   30.65447  0.1448E-13  0.1543E-04  0.4501E-07  0.1581E-02  0.9873E-04  0.1809E+02
   -0.749993   30.65508  0.1448E-13  0.1557E-04  0.4442E-07  0.1631E-02  0.9315E-04  0.1870E+02
   -0.799994   30.65567  0.1448E-13  0.1568E-04  0.4395E-07  0.1674E-02  0.8794E-04  0.1956E+02
   -0.849996   30.65623  0.1448E-13  0.1578E-04  0.4358E-07  0.1709E-02  0.8309E-04  0.2058E+02
   -0.899998   30.65678  0.1448E-13  0.1585E-04  0.4331E-07  0.1735E-02  0.7851E-04  0.2192E+02
   -0.949999   30.65732  0.1448E-13  0.1590E-04  0.4313E-07  0.1753E-02  0.7422E-04  0.2350E+02
   -1.000001   30.65785  0.1448E-13  0.1593E-04  0.4306E-07  0.1764E-02  0.7014E-04  0.2549E+02
   -1.050003   30.65837  0.1448E-13  0.1593E-04  0.4310E-07  0.1764E-02  0.6627E-04  0.2895E+02
   -1.100004   30.65888  0.1448E-13  0.1592E-04  0.4324E-07  0.1852E-02  0.6258E-04  0.9615E+02
   -1.150006   30.65937  0.1448E-13  0.1588E-04  0.4353E-07  0.1678E-02  0.5929E-04  0.2196E+03
   -1.200008   30.65992  0.1448E-13  0.1582E-04  0.4394E-07  0.1704E-02  0.5586E-04  0.4222E+02
   -1.250009   30.66045  0.1448E-13  0.1573E-04  0.4452E-07  0.1673E-02  0.5258E-04  0.4535E+02
   -1.300010   30.66098  0.1448E-13  0.1562E-04  0.4533E-07  0.1623E-02  0.4943E-04  0.5323E+02
   -1.350012   30.66154  0.1448E-13  0.1547E-04  0.4640E-07  0.1563E-02  0.4637E-04  0.6414E+02
   -1.400013   30.66212  0.1448E-13  0.1529E-04  0.4782E-07  0.1485E-02  0.4338E-04  0.7957E+02
   -1.450014   30.66272  0.1448E-13  0.1506E-04  0.4974E-07  0.1407E-02  0.4045E-04  0.1022E+03
   -1.500014   30.66337  0.1448E-13  0.1478E-04  0.5239E-07  0.1295E-02  0.3757E-04  0.1398E+03
   -1.550014   30.66408  0.1448E-13  0.1444E-04  0.5612E-07  0.1211E-02  0.3467E-04  0.2010E+03
   -1.600015   30.66485  0.1448E-13  0.1401E-04  0.6181E-07  0.1068E-02  0.3183E-04  0.4025E+03
   -1.650014   30.66580  0.1448E-13  0.1345E-04  0.7056E-07  0.9873E-03  0.2877E-04  0.6211E+04
   -1.700014   30.66686  0.1448E-13  0.1267E-04  0.8623E-07  0.8051E-03  0.2578E-04  0.1709E+04
   -1.750013   30.66880  0.1448E-13  0.1164E-04  0.1121E-06  0.7290E-03  0.2177E-04  0.7878E+05
   -1.800012   30.67042  0.1448E-13  0.1027E-04  0.1676E-06  0.5043E-03  0.1867E-04  0.6814E+06
   -1.850010   30.67690  0.1448E-13  0.8741E-05  0.2700E-06  0.4669E-03  0.1336E-04  0.6166E+09
   -1.900008   30.67561  0.1448E-13  0.6981E-05  0.5672E-06  0.2167E-03  0.1088E-04 -0.1545E+07
   -1.950005   30.69578  0.1448E-13  0.4893E-05  0.1412E-05  0.1894E-03  0.5915E-05 -0.1041E+08
   -2.000002   30.69841  0.1448E-13  0.0000E+00  0.0000E+00  0.0000E+00  0.1084E-04  0.0000E+00
