 1 - depth, m
 2 - temperature, C
 3 - salinity, kg/kg
 4 - turbulent kinetic energy, m**2/s**2
 5 - dissipation rate, m**2/s**3
 6 - kinematic heat conductance, m**2/s
 7 - modulus of horizontal velocity, m/s
 8 - Richardson number, n/d
   -0.000000   30.10757  0.2167E-13  0.4381E-05  0.2577E-06  0.4829E-04  0.1660E-02  0.5667E+04
   -0.049997   30.13394  0.2167E-13  0.7515E-05  0.1146E-06  0.1702E-03  0.9423E-03  0.1485E+04
   -0.099994   30.14422  0.2167E-13  0.9130E-05  0.7879E-07  0.3878E-03  0.6853E-03  0.1617E+02
   -0.149992   30.14702  0.2167E-13  0.1014E-04  0.6624E-07  0.4674E-03  0.6045E-03  0.7864E+01
   -0.199991   30.14927  0.2167E-13  0.1093E-04  0.5891E-07  0.6234E-03  0.5391E-03  0.5066E+01
   -0.249989   30.15090  0.2167E-13  0.1157E-04  0.5414E-07  0.7457E-03  0.4900E-03  0.3745E+01
   -0.299989   30.15224  0.2167E-13  0.1209E-04  0.5075E-07  0.8671E-03  0.4493E-03  0.2988E+01
   -0.349988   30.15336  0.2167E-13  0.1253E-04  0.4823E-07  0.9773E-03  0.4144E-03  0.2565E+01
   -0.399988   30.15435  0.2167E-13  0.1290E-04  0.4628E-07  0.1079E-02  0.3835E-03  0.2290E+01
   -0.449988   30.15522  0.2167E-13  0.1323E-04  0.4471E-07  0.1173E-02  0.3564E-03  0.2156E+01
   -0.499988   30.15601  0.2167E-13  0.1351E-04  0.4343E-07  0.1259E-02  0.3325E-03  0.2100E+01
   -0.549989   30.15673  0.2167E-13  0.1376E-04  0.4237E-07  0.1339E-02  0.3110E-03  0.2079E+01
   -0.599990   30.15740  0.2167E-13  0.1398E-04  0.4149E-07  0.1411E-02  0.2917E-03  0.2084E+01
   -0.649991   30.15802  0.2167E-13  0.1417E-04  0.4077E-07  0.1476E-02  0.2740E-03  0.2119E+01
   -0.699992   30.15862  0.2167E-13  0.1434E-04  0.4017E-07  0.1534E-02  0.2578E-03  0.2173E+01
   -0.749993   30.15918  0.2167E-13  0.1449E-04  0.3969E-07  0.1584E-02  0.2429E-03  0.2255E+01
   -0.799995   30.15972  0.2167E-13  0.1461E-04  0.3930E-07  0.1627E-02  0.2290E-03  0.2357E+01
   -0.849996   30.16025  0.2167E-13  0.1472E-04  0.3902E-07  0.1663E-02  0.2160E-03  0.2491E+01
   -0.899998   30.16076  0.2167E-13  0.1480E-04  0.3882E-07  0.1691E-02  0.2039E-03  0.2649E+01
   -0.950000   30.16126  0.2167E-13  0.1487E-04  0.3871E-07  0.1711E-02  0.1925E-03  0.2851E+01
   -1.000001   30.16175  0.2167E-13  0.1491E-04  0.3869E-07  0.1723E-02  0.1817E-03  0.3086E+01
   -1.050003   30.16224  0.2167E-13  0.1494E-04  0.3877E-07  0.1726E-02  0.1714E-03  0.3524E+01
   -1.100005   30.16272  0.2167E-13  0.1495E-04  0.3894E-07  0.1799E-02  0.1617E-03  0.1186E+02
   -1.150007   30.16319  0.2167E-13  0.1494E-04  0.3924E-07  0.1666E-02  0.1529E-03  0.2586E+02
   -1.200008   30.16369  0.2167E-13  0.1490E-04  0.3964E-07  0.1678E-02  0.1440E-03  0.5096E+01
   -1.250010   30.16419  0.2167E-13  0.1485E-04  0.4020E-07  0.1649E-02  0.1354E-03  0.5463E+01
   -1.300011   30.16470  0.2167E-13  0.1477E-04  0.4095E-07  0.1605E-02  0.1271E-03  0.6402E+01
   -1.350012   30.16522  0.2167E-13  0.1466E-04  0.4191E-07  0.1550E-02  0.1191E-03  0.7648E+01
   -1.400013   30.16576  0.2167E-13  0.1452E-04  0.4318E-07  0.1479E-02  0.1114E-03  0.9412E+01
   -1.450014   30.16633  0.2167E-13  0.1434E-04  0.4485E-07  0.1405E-02  0.1037E-03  0.1192E+02
   -1.500015   30.16694  0.2167E-13  0.1411E-04  0.4709E-07  0.1301E-02  0.9628E-04  0.1594E+02
   -1.550015   30.16760  0.2167E-13  0.1383E-04  0.5019E-07  0.1216E-02  0.8883E-04  0.2229E+02
   -1.600015   30.16832  0.2167E-13  0.1348E-04  0.5474E-07  0.1080E-02  0.8151E-04  0.3673E+02
   -1.650015   30.16917  0.2167E-13  0.1303E-04  0.6160E-07  0.9986E-03  0.7386E-04  0.1008E+03
   -1.700014   30.17012  0.2167E-13  0.1240E-04  0.7387E-07  0.8237E-03  0.6639E-04 -0.2074E+03
   -1.750013   30.17172  0.2167E-13  0.1153E-04  0.9406E-07  0.7382E-03  0.5680E-04  0.4882E+05
   -1.800012   30.17325  0.2167E-13  0.1032E-04  0.1357E-06  0.5242E-03  0.4882E-04  0.7253E+06
   -1.850010   30.17829  0.2167E-13  0.8914E-05  0.2131E-06  0.4745E-03  0.3600E-04  0.3178E+07
   -1.900008   30.17821  0.2167E-13  0.7177E-05  0.4428E-06  0.2195E-03  0.2918E-04 -0.2197E+05
   -1.950006   30.19579  0.2167E-13  0.4952E-05  0.1131E-05  0.1694E-03  0.1633E-04 -0.7913E+06
   -2.000003   30.19947  0.2167E-13  0.0000E+00  0.0000E+00  0.0000E+00  0.2746E-04  0.0000E+00
