 1 - depth, m
 2 - temperature, C
 3 - salinity, kg/kg
 4 - turbulent kinetic energy, m**2/s**2
 5 - dissipation rate, m**2/s**3
 6 - kinematic heat conductance, m**2/s
 7 - modulus of horizontal velocity, m/s
 8 - Richardson number, n/d
   -0.000000   31.20434  0.1766E-14  0.5354E-05  0.3541E-06  0.5238E-04  0.9763E-03  0.2500E+05
   -0.049997   31.23928  0.1766E-14  0.9263E-05  0.1574E-06  0.1906E-03  0.5568E-03  0.2613E+03
   -0.099994   31.25208  0.1766E-14  0.1122E-04  0.1086E-06  0.4227E-03  0.4105E-03  0.7587E+02
   -0.149992   31.25566  0.1766E-14  0.1245E-04  0.9122E-07  0.5040E-03  0.3639E-03  0.3753E+02
   -0.199990   31.25853  0.1766E-14  0.1341E-04  0.8103E-07  0.6760E-03  0.3257E-03  0.2435E+02
   -0.249989   31.26061  0.1766E-14  0.1417E-04  0.7437E-07  0.8060E-03  0.2973E-03  0.1796E+02
   -0.299988   31.26230  0.1766E-14  0.1479E-04  0.6962E-07  0.9375E-03  0.2736E-03  0.1438E+02
   -0.349987   31.26372  0.1766E-14  0.1530E-04  0.6607E-07  0.1056E-02  0.2533E-03  0.1218E+02
   -0.399987   31.26495  0.1766E-14  0.1573E-04  0.6330E-07  0.1164E-02  0.2354E-03  0.1093E+02
   -0.449987   31.26604  0.1766E-14  0.1610E-04  0.6105E-07  0.1263E-02  0.2195E-03  0.1013E+02
   -0.499988   31.26703  0.1766E-14  0.1641E-04  0.5919E-07  0.1355E-02  0.2055E-03  0.9938E+01
   -0.549988   31.26793  0.1766E-14  0.1668E-04  0.5764E-07  0.1438E-02  0.1929E-03  0.9661E+01
   -0.599989   31.26876  0.1766E-14  0.1692E-04  0.5634E-07  0.1513E-02  0.1815E-03  0.9762E+01
   -0.649990   31.26954  0.1766E-14  0.1712E-04  0.5524E-07  0.1580E-02  0.1711E-03  0.9725E+01
   -0.699991   31.27028  0.1766E-14  0.1728E-04  0.5432E-07  0.1639E-02  0.1615E-03  0.1006E+02
   -0.749992   31.27098  0.1766E-14  0.1742E-04  0.5355E-07  0.1689E-02  0.1526E-03  0.1022E+02
   -0.799994   31.27165  0.1766E-14  0.1753E-04  0.5292E-07  0.1731E-02  0.1443E-03  0.1079E+02
   -0.849995   31.27230  0.1766E-14  0.1761E-04  0.5242E-07  0.1764E-02  0.1366E-03  0.1116E+02
   -0.899997   31.27293  0.1766E-14  0.1766E-04  0.5205E-07  0.1789E-02  0.1293E-03  0.1201E+02
   -0.949998   31.27354  0.1766E-14  0.1769E-04  0.5180E-07  0.1805E-02  0.1224E-03  0.1265E+02
   -1.000000   31.27414  0.1766E-14  0.1770E-04  0.5168E-07  0.1812E-02  0.1158E-03  0.1388E+02
   -1.050002   31.27473  0.1766E-14  0.1768E-04  0.5169E-07  0.1807E-02  0.1096E-03  0.1547E+02
   -1.100003   31.27533  0.1766E-14  0.1763E-04  0.5184E-07  0.1921E-02  0.1037E-03  0.5052E+02
   -1.150005   31.27588  0.1766E-14  0.1756E-04  0.5218E-07  0.1678E-02  0.9843E-04  0.1265E+03
   -1.200006   31.27651  0.1766E-14  0.1746E-04  0.5269E-07  0.1725E-02  0.9278E-04  0.2294E+02
   -1.250008   31.27712  0.1766E-14  0.1732E-04  0.5344E-07  0.1691E-02  0.8743E-04  0.2483E+02
   -1.300009   31.27774  0.1766E-14  0.1715E-04  0.5447E-07  0.1631E-02  0.8230E-04  0.2901E+02
   -1.350010   31.27838  0.1766E-14  0.1694E-04  0.5589E-07  0.1566E-02  0.7727E-04  0.3581E+02
   -1.400011   31.27905  0.1766E-14  0.1669E-04  0.5784E-07  0.1473E-02  0.7237E-04  0.4500E+02
   -1.450012   31.27976  0.1766E-14  0.1637E-04  0.6053E-07  0.1395E-02  0.6749E-04  0.5984E+02
   -1.500013   31.28052  0.1766E-14  0.1599E-04  0.6437E-07  0.1266E-02  0.6272E-04  0.8576E+02
   -1.550013   31.28139  0.1766E-14  0.1552E-04  0.6992E-07  0.1195E-02  0.5779E-04  0.1350E+03
   -1.600013   31.28231  0.1766E-14  0.1493E-04  0.7903E-07  0.1032E-02  0.5304E-04 -0.7604E+03
   -1.650013   31.28363  0.1766E-14  0.1414E-04  0.9303E-07  0.9624E-03  0.4747E-04  0.5155E+05
   -1.700012   31.28501  0.1766E-14  0.1305E-04  0.1181E-06  0.7613E-03  0.4221E-04  0.2829E+04
   -1.750011   31.28798  0.1766E-14  0.1175E-04  0.1586E-06  0.7067E-03  0.3447E-04  0.3323E+07
   -1.800010   31.28936  0.1766E-14  0.1020E-04  0.2453E-06  0.4684E-03  0.2986E-04  0.6313E+08
   -1.850008   31.30036  0.1766E-14  0.8593E-05  0.4152E-06  0.4593E-03  0.2006E-04  0.7380E+09
   -1.900006   31.29517  0.1766E-14  0.6862E-05  0.8721E-06  0.2148E-03  0.1678E-04 -0.4197E+06
   -1.950003   31.32194  0.1766E-14  0.4924E-05  0.2073E-05  0.2260E-03  0.8719E-05 -0.8832E+06
   -2.000000   31.32205  0.1766E-14  0.0000E+00  0.0000E+00  0.0000E+00  0.1800E-04  0.0000E+00
