 1 - depth, m
 2 - temperature, C
 3 - salinity, kg/kg
 4 - turbulent kinetic energy, m**2/s**2
 5 - dissipation rate, m**2/s**3
 6 - kinematic heat conductance, m**2/s
 7 - modulus of horizontal velocity, m/s
 8 - Richardson number, n/d
   -0.000000   30.45045  0.5301E-14  0.5697E-05  0.3231E-06  0.5458E-04  0.3875E-02  0.7973E+03
   -0.049997   30.48145  0.5301E-14  0.9067E-05  0.1389E-06  0.2098E-03  0.2088E-02  0.7422E+02
   -0.099994   30.49058  0.5301E-14  0.1059E-04  0.9935E-07  0.3891E-03  0.1665E-02  0.3713E+01
   -0.149992   30.49406  0.5301E-14  0.1161E-04  0.8393E-07  0.4862E-03  0.1490E-02  0.1965E+01
   -0.199991   30.49673  0.5301E-14  0.1242E-04  0.7494E-07  0.6139E-03  0.1354E-02  0.1372E+01
   -0.249989   30.49878  0.5301E-14  0.1310E-04  0.6890E-07  0.7193E-03  0.1246E-02  0.1251E+01
   -0.299988   30.50048  0.5301E-14  0.1372E-04  0.6427E-07  0.8416E-03  0.1149E-02  0.1327E+01
   -0.349988   30.50190  0.5301E-14  0.1431E-04  0.6044E-07  0.9828E-03  0.1053E-02  0.1418E+01
   -0.399988   30.50308  0.5301E-14  0.1484E-04  0.5727E-07  0.1129E-02  0.9598E-03  0.1443E+01
   -0.449988   30.50408  0.5301E-14  0.1533E-04  0.5461E-07  0.1272E-02  0.8736E-03  0.1449E+01
   -0.499988   30.50496  0.5301E-14  0.1575E-04  0.5242E-07  0.1406E-02  0.7961E-03  0.1449E+01
   -0.549989   30.50573  0.5301E-14  0.1611E-04  0.5061E-07  0.1529E-02  0.7270E-03  0.1438E+01
   -0.599989   30.50643  0.5301E-14  0.1641E-04  0.4913E-07  0.1638E-02  0.6653E-03  0.1424E+01
   -0.649990   30.50707  0.5301E-14  0.1666E-04  0.4791E-07  0.1732E-02  0.6101E-03  0.1404E+01
   -0.699992   30.50767  0.5301E-14  0.1684E-04  0.4693E-07  0.1811E-02  0.5608E-03  0.1381E+01
   -0.749993   30.50823  0.5301E-14  0.1699E-04  0.4615E-07  0.1874E-02  0.5167E-03  0.1355E+01
   -0.799995   30.50877  0.5301E-14  0.1708E-04  0.4555E-07  0.1920E-02  0.4773E-03  0.1325E+01
   -0.849996   30.50928  0.5301E-14  0.1714E-04  0.4512E-07  0.1951E-02  0.4420E-03  0.1292E+01
   -0.899998   30.50978  0.5301E-14  0.1716E-04  0.4484E-07  0.1967E-02  0.4104E-03  0.1257E+01
   -0.949999   30.51027  0.5301E-14  0.1715E-04  0.4470E-07  0.1969E-02  0.3821E-03  0.1218E+01
   -1.000001   30.51076  0.5301E-14  0.1711E-04  0.4468E-07  0.1958E-02  0.3568E-03  0.1176E+01
   -1.050003   30.51124  0.5301E-14  0.1705E-04  0.4479E-07  0.1930E-02  0.3342E-03  0.1141E+01
   -1.100005   30.51172  0.5301E-14  0.1697E-04  0.4500E-07  0.2101E-02  0.3142E-03  0.2790E+01
   -1.150006   30.51216  0.5301E-14  0.1687E-04  0.4536E-07  0.1731E-02  0.2993E-03  0.7306E+01
   -1.200008   30.51269  0.5301E-14  0.1675E-04  0.4585E-07  0.1825E-02  0.2824E-03  0.1320E+01
   -1.250009   30.51319  0.5301E-14  0.1659E-04  0.4654E-07  0.1786E-02  0.2665E-03  0.1385E+01
   -1.300011   30.51369  0.5301E-14  0.1641E-04  0.4748E-07  0.1719E-02  0.2514E-03  0.1629E+01
   -1.350012   30.51421  0.5301E-14  0.1619E-04  0.4874E-07  0.1644E-02  0.2365E-03  0.1978E+01
   -1.400013   30.51475  0.5301E-14  0.1592E-04  0.5044E-07  0.1546E-02  0.2220E-03  0.2491E+01
   -1.450014   30.51533  0.5301E-14  0.1561E-04  0.5279E-07  0.1456E-02  0.2075E-03  0.3260E+01
   -1.500014   30.51594  0.5301E-14  0.1524E-04  0.5608E-07  0.1327E-02  0.1932E-03  0.4615E+01
   -1.550015   30.51662  0.5301E-14  0.1479E-04  0.6087E-07  0.1239E-02  0.1786E-03  0.7852E+01
   -1.600015   30.51737  0.5301E-14  0.1423E-04  0.6854E-07  0.1083E-02  0.1641E-03  0.3719E+02
   -1.650014   30.51837  0.5301E-14  0.1349E-04  0.8061E-07  0.9949E-03  0.1477E-03  0.5091E+04
   -1.700014   30.51952  0.5301E-14  0.1248E-04  0.1027E-06  0.7994E-03  0.1313E-03  0.2810E+04
   -1.750013   30.52163  0.5301E-14  0.1127E-04  0.1365E-06  0.7202E-03  0.1092E-03  0.1105E+06
   -1.800012   30.52304  0.5301E-14  0.9731E-05  0.2118E-06  0.4910E-03  0.9368E-04  0.3793E+05
   -1.850010   30.53074  0.5301E-14  0.8182E-05  0.3502E-06  0.4630E-03  0.6427E-04  0.5142E+08
   -1.900008   30.52769  0.5301E-14  0.6463E-05  0.7434E-06  0.2177E-03  0.5315E-04  0.1388E+07
   -1.950005   30.54841  0.5301E-14  0.4611E-05  0.1763E-05  0.2207E-03  0.2774E-04 -0.1178E+06
   -2.000002   30.54866  0.5301E-14  0.0000E+00  0.0000E+00  0.0000E+00  0.5719E-04  0.0000E+00
