 1 - depth, m
 2 - temperature, C
 3 - salinity, kg/kg
 4 - turbulent kinetic energy, m**2/s**2
 5 - dissipation rate, m**2/s**3
 6 - kinematic heat conductance, m**2/s
 7 - modulus of horizontal velocity, m/s
 8 - Richardson number, n/d
   -0.000000   30.49085  0.3476E-14  0.5126E-05  0.3062E-06  0.5127E-04  0.2530E-02  0.2818E+04
   -0.049997   30.52149  0.3476E-14  0.8531E-05  0.1351E-06  0.1900E-03  0.1390E-02  0.4428E+03
   -0.099994   30.53185  0.3476E-14  0.1019E-04  0.9449E-07  0.3908E-03  0.1058E-02  0.7679E+01
   -0.149992   30.53520  0.3476E-14  0.1126E-04  0.7920E-07  0.4830E-03  0.9347E-03  0.3876E+01
   -0.199991   30.53779  0.3476E-14  0.1210E-04  0.7026E-07  0.6355E-03  0.8377E-03  0.2507E+01
   -0.249989   30.53970  0.3476E-14  0.1277E-04  0.6439E-07  0.7594E-03  0.7641E-03  0.1854E+01
   -0.299988   30.54126  0.3476E-14  0.1331E-04  0.6021E-07  0.8776E-03  0.7028E-03  0.1489E+01
   -0.349988   30.54257  0.3476E-14  0.1377E-04  0.5705E-07  0.9840E-03  0.6499E-03  0.1327E+01
   -0.399988   30.54371  0.3476E-14  0.1416E-04  0.5453E-07  0.1089E-02  0.6019E-03  0.1266E+01
   -0.449988   30.54471  0.3476E-14  0.1451E-04  0.5242E-07  0.1193E-02  0.5581E-03  0.1245E+01
   -0.499988   30.54561  0.3476E-14  0.1482E-04  0.5065E-07  0.1291E-02  0.5185E-03  0.1243E+01
   -0.549989   30.54643  0.3476E-14  0.1509E-04  0.4915E-07  0.1381E-02  0.4828E-03  0.1237E+01
   -0.599990   30.54718  0.3476E-14  0.1532E-04  0.4789E-07  0.1463E-02  0.4504E-03  0.1235E+01
   -0.649991   30.54787  0.3476E-14  0.1551E-04  0.4683E-07  0.1536E-02  0.4210E-03  0.1231E+01
   -0.699992   30.54853  0.3476E-14  0.1567E-04  0.4594E-07  0.1600E-02  0.3942E-03  0.1231E+01
   -0.749993   30.54914  0.3476E-14  0.1580E-04  0.4520E-07  0.1653E-02  0.3699E-03  0.1231E+01
   -0.799995   30.54973  0.3476E-14  0.1590E-04  0.4460E-07  0.1697E-02  0.3477E-03  0.1238E+01
   -0.849996   30.55030  0.3476E-14  0.1597E-04  0.4412E-07  0.1731E-02  0.3274E-03  0.1253E+01
   -0.899998   30.55084  0.3476E-14  0.1601E-04  0.4375E-07  0.1756E-02  0.3087E-03  0.1284E+01
   -0.950000   30.55138  0.3476E-14  0.1604E-04  0.4348E-07  0.1772E-02  0.2915E-03  0.1338E+01
   -1.000001   30.55190  0.3476E-14  0.1604E-04  0.4332E-07  0.1779E-02  0.2754E-03  0.1426E+01
   -1.050003   30.55241  0.3476E-14  0.1602E-04  0.4326E-07  0.1777E-02  0.2603E-03  0.1604E+01
   -1.100005   30.55292  0.3476E-14  0.1598E-04  0.4331E-07  0.1877E-02  0.2459E-03  0.5265E+01
   -1.150006   30.55340  0.3476E-14  0.1591E-04  0.4350E-07  0.1672E-02  0.2331E-03  0.1228E+02
   -1.200008   30.55394  0.3476E-14  0.1583E-04  0.4382E-07  0.1710E-02  0.2196E-03  0.2322E+01
   -1.250009   30.55445  0.3476E-14  0.1571E-04  0.4431E-07  0.1678E-02  0.2068E-03  0.2470E+01
   -1.300011   30.55498  0.3476E-14  0.1557E-04  0.4501E-07  0.1626E-02  0.1944E-03  0.2887E+01
   -1.350012   30.55551  0.3476E-14  0.1539E-04  0.4598E-07  0.1564E-02  0.1824E-03  0.3464E+01
   -1.400013   30.55606  0.3476E-14  0.1518E-04  0.4730E-07  0.1484E-02  0.1707E-03  0.4282E+01
   -1.450014   30.55665  0.3476E-14  0.1492E-04  0.4913E-07  0.1403E-02  0.1592E-03  0.5489E+01
   -1.500014   30.55726  0.3476E-14  0.1461E-04  0.5168E-07  0.1289E-02  0.1479E-03  0.7487E+01
   -1.550015   30.55794  0.3476E-14  0.1424E-04  0.5534E-07  0.1203E-02  0.1365E-03  0.1085E+02
   -1.600015   30.55867  0.3476E-14  0.1377E-04  0.6099E-07  0.1059E-02  0.1253E-03  0.2738E+02
   -1.650015   30.55956  0.3476E-14  0.1318E-04  0.6985E-07  0.9786E-03  0.1132E-03  0.6551E+03
   -1.700014   30.56060  0.3476E-14  0.1236E-04  0.8567E-07  0.7970E-03  0.1012E-03  0.1085E+04
   -1.750013   30.56241  0.3476E-14  0.1129E-04  0.1114E-06  0.7159E-03  0.8528E-04  0.4211E+05
   -1.800012   30.56388  0.3476E-14  0.9863E-05  0.1670E-06  0.4944E-03  0.7309E-04  0.1078E+08
   -1.850010   30.57038  0.3476E-14  0.8320E-05  0.2708E-06  0.4590E-03  0.5136E-04  0.4357E+08
   -1.900008   30.56868  0.3476E-14  0.6558E-05  0.5654E-06  0.2050E-03  0.4198E-04  0.7183E+05
   -1.950006   30.58788  0.3476E-14  0.4610E-05  0.1398E-05  0.1956E-03  0.2217E-04 -0.2108E+06
   -2.000003   30.58842  0.3476E-14  0.0000E+00  0.0000E+00  0.0000E+00  0.4238E-04  0.0000E+00
