 1 - depth, m
 2 - temperature, C
 3 - salinity, kg/kg
 4 - turbulent kinetic energy, m**2/s**2
 5 - dissipation rate, m**2/s**3
 6 - kinematic heat conductance, m**2/s
 7 - modulus of horizontal velocity, m/s
 8 - Richardson number, n/d
   -0.000000   30.04937  0.2957E-13  0.4518E-05  0.2668E-06  0.4677E-04  0.1046E-02  0.2069E+04
   -0.049997   30.07948  0.2957E-13  0.7869E-05  0.1189E-06  0.1817E-03  0.5813E-03  0.7754E+02
   -0.099994   30.08980  0.2957E-13  0.9501E-05  0.8303E-07  0.3909E-03  0.4309E-03  0.4577E+02
   -0.149992   30.09286  0.2957E-13  0.1054E-04  0.6994E-07  0.4772E-03  0.3802E-03  0.2258E+02
   -0.199991   30.09526  0.2957E-13  0.1134E-04  0.6224E-07  0.6321E-03  0.3397E-03  0.1461E+02
   -0.249989   30.09702  0.2957E-13  0.1198E-04  0.5716E-07  0.7548E-03  0.3091E-03  0.1081E+02
   -0.299989   30.09845  0.2957E-13  0.1250E-04  0.5353E-07  0.8762E-03  0.2837E-03  0.8623E+01
   -0.349988   30.09965  0.2957E-13  0.1293E-04  0.5080E-07  0.9864E-03  0.2618E-03  0.7377E+01
   -0.399988   30.10070  0.2957E-13  0.1330E-04  0.4868E-07  0.1087E-02  0.2425E-03  0.6588E+01
   -0.449988   30.10162  0.2957E-13  0.1361E-04  0.4694E-07  0.1181E-02  0.2255E-03  0.6184E+01
   -0.499988   30.10246  0.2957E-13  0.1388E-04  0.4550E-07  0.1267E-02  0.2104E-03  0.6029E+01
   -0.549989   30.10322  0.2957E-13  0.1412E-04  0.4430E-07  0.1346E-02  0.1970E-03  0.5944E+01
   -0.599990   30.10393  0.2957E-13  0.1432E-04  0.4328E-07  0.1417E-02  0.1848E-03  0.5959E+01
   -0.649991   30.10459  0.2957E-13  0.1449E-04  0.4241E-07  0.1482E-02  0.1737E-03  0.6026E+01
   -0.699992   30.10521  0.2957E-13  0.1464E-04  0.4168E-07  0.1539E-02  0.1635E-03  0.6173E+01
   -0.749993   30.10580  0.2957E-13  0.1476E-04  0.4106E-07  0.1588E-02  0.1540E-03  0.6365E+01
   -0.799995   30.10637  0.2957E-13  0.1486E-04  0.4055E-07  0.1631E-02  0.1453E-03  0.6644E+01
   -0.849996   30.10691  0.2957E-13  0.1494E-04  0.4013E-07  0.1666E-02  0.1371E-03  0.6969E+01
   -0.899998   30.10743  0.2957E-13  0.1500E-04  0.3980E-07  0.1693E-02  0.1294E-03  0.7402E+01
   -0.950000   30.10794  0.2957E-13  0.1504E-04  0.3956E-07  0.1712E-02  0.1222E-03  0.7900E+01
   -1.000002   30.10844  0.2957E-13  0.1505E-04  0.3941E-07  0.1724E-02  0.1154E-03  0.8540E+01
   -1.050003   30.10894  0.2957E-13  0.1505E-04  0.3935E-07  0.1726E-02  0.1089E-03  0.9653E+01
   -1.100005   30.10942  0.2957E-13  0.1503E-04  0.3939E-07  0.1805E-02  0.1027E-03  0.3229E+02
   -1.150007   30.10989  0.2957E-13  0.1499E-04  0.3955E-07  0.1655E-02  0.9722E-04  0.7150E+02
   -1.200008   30.11039  0.2957E-13  0.1492E-04  0.3982E-07  0.1675E-02  0.9155E-04  0.1383E+02
   -1.250010   30.11088  0.2957E-13  0.1483E-04  0.4024E-07  0.1646E-02  0.8610E-04  0.1475E+02
   -1.300011   30.11137  0.2957E-13  0.1472E-04  0.4083E-07  0.1600E-02  0.8087E-04  0.1716E+02
   -1.350012   30.11188  0.2957E-13  0.1457E-04  0.4165E-07  0.1544E-02  0.7579E-04  0.2049E+02
   -1.400013   30.11241  0.2957E-13  0.1440E-04  0.4276E-07  0.1472E-02  0.7087E-04  0.2507E+02
   -1.450014   30.11295  0.2957E-13  0.1419E-04  0.4427E-07  0.1397E-02  0.6603E-04  0.3176E+02
   -1.500015   30.11353  0.2957E-13  0.1393E-04  0.4636E-07  0.1291E-02  0.6131E-04  0.4245E+02
   -1.550015   30.11415  0.2957E-13  0.1361E-04  0.4930E-07  0.1207E-02  0.5657E-04  0.5950E+02
   -1.600015   30.11483  0.2957E-13  0.1322E-04  0.5375E-07  0.1067E-02  0.5194E-04  0.1045E+03
   -1.650015   30.11563  0.2957E-13  0.1273E-04  0.6057E-07  0.9877E-03  0.4701E-04  0.2001E+05
   -1.700015   30.11652  0.2957E-13  0.1205E-04  0.7280E-07  0.8098E-03  0.4227E-04  0.8887E+03
   -1.750014   30.11805  0.2957E-13  0.1114E-04  0.9316E-07  0.7306E-03  0.3606E-04  0.5074E+05
   -1.800012   30.11942  0.2957E-13  0.9883E-05  0.1352E-06  0.5149E-03  0.3100E-04  0.4548E+06
   -1.850011   30.12434  0.2957E-13  0.8415E-05  0.2143E-06  0.4649E-03  0.2259E-04  0.6957E+07
   -1.900009   30.12394  0.2957E-13  0.6645E-05  0.4414E-06  0.2108E-03  0.1825E-04  0.9389E+06
   -1.950006   30.14028  0.2957E-13  0.4586E-05  0.1130E-05  0.1746E-03  0.9911E-05 -0.6689E+06
   -2.000003   30.14278  0.2957E-13  0.0000E+00  0.0000E+00  0.0000E+00  0.1762E-04  0.0000E+00
