 1 - depth, m
 2 - temperature, C
 3 - salinity, kg/kg
 4 - turbulent kinetic energy, m**2/s**2
 5 - dissipation rate, m**2/s**3
 6 - kinematic heat conductance, m**2/s
 7 - modulus of horizontal velocity, m/s
 8 - Richardson number, n/d
   -0.000000   30.89165  0.2436E-14  0.5176E-05  0.3358E-06  0.5232E-04  0.1597E-02  0.6842E+04
   -0.049997   30.92420  0.2436E-14  0.8811E-05  0.1497E-06  0.1813E-03  0.9200E-03  0.3511E+04
   -0.099994   30.93691  0.2436E-14  0.1070E-04  0.1027E-06  0.4077E-03  0.6746E-03  0.2088E+02
   -0.149992   30.94041  0.2436E-14  0.1188E-04  0.8599E-07  0.4888E-03  0.5967E-03  0.1027E+02
   -0.199991   30.94320  0.2436E-14  0.1280E-04  0.7623E-07  0.6558E-03  0.5332E-03  0.6559E+01
   -0.249989   30.94521  0.2436E-14  0.1353E-04  0.6985E-07  0.7835E-03  0.4860E-03  0.4824E+01
   -0.299988   30.94685  0.2436E-14  0.1412E-04  0.6532E-07  0.9122E-03  0.4466E-03  0.3837E+01
   -0.349988   30.94823  0.2436E-14  0.1461E-04  0.6192E-07  0.1028E-02  0.4129E-03  0.3266E+01
   -0.399988   30.94941  0.2436E-14  0.1502E-04  0.5927E-07  0.1134E-02  0.3831E-03  0.2914E+01
   -0.449988   30.95047  0.2436E-14  0.1537E-04  0.5712E-07  0.1232E-02  0.3570E-03  0.2720E+01
   -0.499988   30.95142  0.2436E-14  0.1567E-04  0.5534E-07  0.1323E-02  0.3337E-03  0.2652E+01
   -0.549989   30.95229  0.2436E-14  0.1593E-04  0.5385E-07  0.1405E-02  0.3130E-03  0.2601E+01
   -0.599989   30.95309  0.2436E-14  0.1615E-04  0.5260E-07  0.1479E-02  0.2941E-03  0.2610E+01
   -0.649990   30.95384  0.2436E-14  0.1634E-04  0.5153E-07  0.1546E-02  0.2770E-03  0.2626E+01
   -0.699992   30.95455  0.2436E-14  0.1650E-04  0.5064E-07  0.1604E-02  0.2612E-03  0.2694E+01
   -0.749993   30.95522  0.2436E-14  0.1663E-04  0.4988E-07  0.1655E-02  0.2466E-03  0.2765E+01
   -0.799994   30.95586  0.2436E-14  0.1673E-04  0.4926E-07  0.1697E-02  0.2329E-03  0.2892E+01
   -0.849996   30.95647  0.2436E-14  0.1681E-04  0.4875E-07  0.1732E-02  0.2202E-03  0.3022E+01
   -0.899998   30.95707  0.2436E-14  0.1687E-04  0.4836E-07  0.1758E-02  0.2083E-03  0.3218E+01
   -0.949999   30.95766  0.2436E-14  0.1690E-04  0.4808E-07  0.1775E-02  0.1970E-03  0.3425E+01
   -1.000001   30.95823  0.2436E-14  0.1690E-04  0.4792E-07  0.1784E-02  0.1863E-03  0.3717E+01
   -1.050003   30.95879  0.2436E-14  0.1688E-04  0.4787E-07  0.1782E-02  0.1762E-03  0.4183E+01
   -1.100004   30.95935  0.2436E-14  0.1684E-04  0.4796E-07  0.1884E-02  0.1665E-03  0.1372E+02
   -1.150006   30.95987  0.2436E-14  0.1678E-04  0.4820E-07  0.1672E-02  0.1579E-03  0.3278E+02
   -1.200008   30.96046  0.2436E-14  0.1668E-04  0.4859E-07  0.1711E-02  0.1488E-03  0.6118E+01
   -1.250009   30.96103  0.2436E-14  0.1656E-04  0.4919E-07  0.1678E-02  0.1401E-03  0.6545E+01
   -1.300010   30.96160  0.2436E-14  0.1640E-04  0.5004E-07  0.1624E-02  0.1318E-03  0.7660E+01
   -1.350011   30.96220  0.2436E-14  0.1621E-04  0.5121E-07  0.1559E-02  0.1237E-03  0.9284E+01
   -1.400012   30.96281  0.2436E-14  0.1598E-04  0.5281E-07  0.1476E-02  0.1158E-03  0.1155E+02
   -1.450013   30.96346  0.2436E-14  0.1570E-04  0.5502E-07  0.1394E-02  0.1080E-03  0.1503E+02
   -1.500014   30.96415  0.2436E-14  0.1535E-04  0.5814E-07  0.1277E-02  0.1003E-03  0.2085E+02
   -1.550014   30.96492  0.2436E-14  0.1493E-04  0.6266E-07  0.1194E-02  0.9254E-04  0.3155E+02
   -1.600014   30.96575  0.2436E-14  0.1441E-04  0.6980E-07  0.1047E-02  0.8488E-04  0.1993E+03
   -1.650014   30.96681  0.2436E-14  0.1372E-04  0.8114E-07  0.9661E-03  0.7643E-04  0.1568E+04
   -1.700013   30.96807  0.2436E-14  0.1277E-04  0.1010E-06  0.7859E-03  0.6792E-04 -0.4414E+04
   -1.750013   30.97024  0.2436E-14  0.1159E-04  0.1328E-06  0.7072E-03  0.5671E-04  0.1258E+06
   -1.800011   30.97175  0.2436E-14  0.1006E-04  0.2030E-06  0.4808E-03  0.4874E-04  0.7192E+05
   -1.850010   30.98001  0.2436E-14  0.8470E-05  0.3362E-06  0.4572E-03  0.3333E-04  0.5051E+08
   -1.900007   30.97719  0.2436E-14  0.6730E-05  0.7046E-06  0.2114E-03  0.2750E-04 -0.4275E+05
   -1.950005   30.99967  0.2436E-14  0.4793E-05  0.1713E-05  0.2092E-03  0.1440E-04 -0.6038E+06
   -2.000002   31.00065  0.2436E-14  0.0000E+00  0.0000E+00  0.0000E+00  0.2886E-04  0.0000E+00
