 1 - depth, m
 2 - temperature, C
 3 - salinity, kg/kg
 4 - turbulent kinetic energy, m**2/s**2
 5 - dissipation rate, m**2/s**3
 6 - kinematic heat conductance, m**2/s
 7 - modulus of horizontal velocity, m/s
 8 - Richardson number, n/d
   -0.000000   30.79310  0.1143E-12  0.4850E-05  0.2983E-06  0.4882E-04  0.6299E-03  0.5504E+05
   -0.049997   30.82626  0.1143E-12  0.8508E-05  0.1330E-06  0.1864E-03  0.3553E-03  0.1527E+06
   -0.099994   30.83733  0.1143E-12  0.1025E-04  0.9250E-07  0.4093E-03  0.2601E-03  0.1986E+03
   -0.149992   30.84062  0.1143E-12  0.1134E-04  0.7804E-07  0.4888E-03  0.2302E-03  0.9955E+02
   -0.199991   30.84324  0.1143E-12  0.1218E-04  0.6945E-07  0.6498E-03  0.2058E-03  0.6542E+02
   -0.249989   30.84515  0.1143E-12  0.1284E-04  0.6374E-07  0.7751E-03  0.1874E-03  0.4912E+02
   -0.299988   30.84670  0.1143E-12  0.1338E-04  0.5962E-07  0.8986E-03  0.1721E-03  0.3907E+02
   -0.349988   30.84799  0.1143E-12  0.1383E-04  0.5650E-07  0.1011E-02  0.1589E-03  0.3374E+02
   -0.399988   30.84911  0.1143E-12  0.1420E-04  0.5405E-07  0.1113E-02  0.1473E-03  0.2986E+02
   -0.449988   30.85011  0.1143E-12  0.1451E-04  0.5204E-07  0.1208E-02  0.1371E-03  0.2833E+02
   -0.499988   30.85100  0.1143E-12  0.1478E-04  0.5036E-07  0.1295E-02  0.1280E-03  0.2727E+02
   -0.549989   30.85181  0.1143E-12  0.1501E-04  0.4895E-07  0.1375E-02  0.1199E-03  0.2720E+02
   -0.599989   30.85257  0.1143E-12  0.1521E-04  0.4773E-07  0.1447E-02  0.1125E-03  0.2686E+02
   -0.649990   30.85327  0.1143E-12  0.1537E-04  0.4669E-07  0.1512E-02  0.1058E-03  0.2750E+02
   -0.699992   30.85393  0.1143E-12  0.1551E-04  0.4580E-07  0.1569E-02  0.9965E-04  0.2771E+02
   -0.749993   30.85455  0.1143E-12  0.1562E-04  0.4504E-07  0.1619E-02  0.9393E-04  0.2894E+02
   -0.799994   30.85514  0.1143E-12  0.1570E-04  0.4439E-07  0.1661E-02  0.8864E-04  0.2967E+02
   -0.849996   30.85571  0.1143E-12  0.1577E-04  0.4385E-07  0.1696E-02  0.8368E-04  0.3155E+02
   -0.899998   30.85626  0.1143E-12  0.1581E-04  0.4340E-07  0.1723E-02  0.7904E-04  0.3288E+02
   -0.949999   30.85680  0.1143E-12  0.1582E-04  0.4306E-07  0.1741E-02  0.7465E-04  0.3559E+02
   -1.000001   30.85732  0.1143E-12  0.1582E-04  0.4281E-07  0.1752E-02  0.7052E-04  0.3775E+02
   -1.050003   30.85783  0.1143E-12  0.1580E-04  0.4266E-07  0.1753E-02  0.6658E-04  0.4319E+02
   -1.100004   30.85833  0.1143E-12  0.1575E-04  0.4263E-07  0.1841E-02  0.6285E-04  0.1401E+03
   -1.150006   30.85880  0.1143E-12  0.1568E-04  0.4272E-07  0.1668E-02  0.5950E-04  0.3225E+03
   -1.200008   30.85932  0.1143E-12  0.1559E-04  0.4294E-07  0.1696E-02  0.5604E-04  0.6198E+02
   -1.250009   30.85982  0.1143E-12  0.1548E-04  0.4332E-07  0.1666E-02  0.5274E-04  0.6481E+02
   -1.300010   30.86033  0.1143E-12  0.1534E-04  0.4390E-07  0.1617E-02  0.4954E-04  0.7657E+02
   -1.350012   30.86085  0.1143E-12  0.1516E-04  0.4473E-07  0.1559E-02  0.4646E-04  0.9029E+02
   -1.400013   30.86138  0.1143E-12  0.1495E-04  0.4589E-07  0.1483E-02  0.4345E-04  0.1126E+03
   -1.450013   30.86193  0.1143E-12  0.1470E-04  0.4750E-07  0.1406E-02  0.4051E-04  0.1419E+03
   -1.500014   30.86252  0.1143E-12  0.1440E-04  0.4978E-07  0.1296E-02  0.3761E-04  0.1947E+03
   -1.550014   30.86315  0.1143E-12  0.1404E-04  0.5304E-07  0.1211E-02  0.3472E-04  0.2758E+03
   -1.600014   30.86384  0.1143E-12  0.1360E-04  0.5808E-07  0.1071E-02  0.3187E-04  0.5301E+03
   -1.650014   30.86466  0.1143E-12  0.1304E-04  0.6600E-07  0.9884E-03  0.2885E-04  0.1729E+06
   -1.700014   30.86560  0.1143E-12  0.1226E-04  0.8027E-07  0.8095E-03  0.2585E-04 -0.5638E+04
   -1.750013   30.86724  0.1143E-12  0.1125E-04  0.1035E-06  0.7282E-03  0.2192E-04  0.4747E+06
   -1.800011   30.86859  0.1143E-12  0.9890E-05  0.1556E-06  0.5062E-03  0.1886E-04  0.4460E+06
   -1.850010   30.87423  0.1143E-12  0.8394E-05  0.2500E-06  0.4657E-03  0.1351E-04  0.2952E+10
   -1.900008   30.87300  0.1143E-12  0.6635E-05  0.5160E-06  0.2113E-03  0.1103E-04 -0.6002E+06
   -1.950005   30.89007  0.1143E-12  0.4616E-05  0.1285E-05  0.1874E-03  0.5950E-05 -0.3109E+07
   -2.000002   30.89182  0.1143E-12  0.0000E+00  0.0000E+00  0.0000E+00  0.1093E-04  0.0000E+00
