 1 - depth, m
 2 - temperature, C
 3 - salinity, kg/kg
 4 - turbulent kinetic energy, m**2/s**2
 5 - dissipation rate, m**2/s**3
 6 - kinematic heat conductance, m**2/s
 7 - modulus of horizontal velocity, m/s
 8 - Richardson number, n/d
   -0.000000   30.33616  0.3125E-13  0.5001E-05  0.3185E-06  0.5080E-04  0.5864E-03  0.3075E+05
   -0.049997   30.36953  0.3125E-13  0.8776E-05  0.1413E-06  0.1855E-03  0.3327E-03  0.7945E+02
   -0.099994   30.38167  0.3125E-13  0.1062E-04  0.9765E-07  0.4219E-03  0.2432E-03  0.1360E+03
   -0.149992   30.38502  0.3125E-13  0.1177E-04  0.8240E-07  0.4971E-03  0.2158E-03  0.6706E+02
   -0.199990   30.38774  0.3125E-13  0.1266E-04  0.7338E-07  0.6654E-03  0.1931E-03  0.4369E+02
   -0.249989   30.38971  0.3125E-13  0.1337E-04  0.6744E-07  0.7930E-03  0.1761E-03  0.3253E+02
   -0.299988   30.39131  0.3125E-13  0.1395E-04  0.6318E-07  0.9205E-03  0.1620E-03  0.2601E+02
   -0.349988   30.39266  0.3125E-13  0.1443E-04  0.5998E-07  0.1036E-02  0.1498E-03  0.2230E+02
   -0.399987   30.39383  0.3125E-13  0.1483E-04  0.5748E-07  0.1141E-02  0.1390E-03  0.1990E+02
   -0.449987   30.39487  0.3125E-13  0.1517E-04  0.5545E-07  0.1238E-02  0.1296E-03  0.1869E+02
   -0.499988   30.39581  0.3125E-13  0.1547E-04  0.5376E-07  0.1327E-02  0.1212E-03  0.1818E+02
   -0.549988   30.39667  0.3125E-13  0.1573E-04  0.5235E-07  0.1409E-02  0.1136E-03  0.1794E+02
   -0.599989   30.39746  0.3125E-13  0.1595E-04  0.5116E-07  0.1483E-02  0.1068E-03  0.1794E+02
   -0.649990   30.39820  0.3125E-13  0.1613E-04  0.5015E-07  0.1548E-02  0.1005E-03  0.1817E+02
   -0.699991   30.39890  0.3125E-13  0.1629E-04  0.4931E-07  0.1606E-02  0.9481E-04  0.1858E+02
   -0.749993   30.39956  0.3125E-13  0.1642E-04  0.4860E-07  0.1656E-02  0.8950E-04  0.1921E+02
   -0.799994   30.40020  0.3125E-13  0.1652E-04  0.4801E-07  0.1698E-02  0.8455E-04  0.2002E+02
   -0.849996   30.40081  0.3125E-13  0.1660E-04  0.4754E-07  0.1732E-02  0.7993E-04  0.2107E+02
   -0.899997   30.40141  0.3125E-13  0.1666E-04  0.4718E-07  0.1758E-02  0.7558E-04  0.2236E+02
   -0.949999   30.40198  0.3125E-13  0.1669E-04  0.4693E-07  0.1775E-02  0.7148E-04  0.2397E+02
   -1.000000   30.40255  0.3125E-13  0.1670E-04  0.4679E-07  0.1784E-02  0.6760E-04  0.2592E+02
   -1.050002   30.40311  0.3125E-13  0.1669E-04  0.4676E-07  0.1782E-02  0.6390E-04  0.2942E+02
   -1.100004   30.40367  0.3125E-13  0.1665E-04  0.4686E-07  0.1883E-02  0.6038E-04  0.9627E+02
   -1.150005   30.40419  0.3125E-13  0.1659E-04  0.4712E-07  0.1674E-02  0.5725E-04  0.2276E+03
   -1.200007   30.40477  0.3125E-13  0.1650E-04  0.4752E-07  0.1711E-02  0.5394E-04  0.4311E+02
   -1.250008   30.40534  0.3125E-13  0.1639E-04  0.4811E-07  0.1679E-02  0.5080E-04  0.4601E+02
   -1.300010   30.40592  0.3125E-13  0.1624E-04  0.4895E-07  0.1625E-02  0.4777E-04  0.5424E+02
   -1.350011   30.40651  0.3125E-13  0.1606E-04  0.5010E-07  0.1561E-02  0.4483E-04  0.6534E+02
   -1.400012   30.40712  0.3125E-13  0.1583E-04  0.5166E-07  0.1478E-02  0.4196E-04  0.8172E+02
   -1.450013   30.40777  0.3125E-13  0.1556E-04  0.5379E-07  0.1397E-02  0.3913E-04  0.1054E+03
   -1.500013   30.40846  0.3125E-13  0.1523E-04  0.5679E-07  0.1279E-02  0.3634E-04  0.1463E+03
   -1.550014   30.40922  0.3125E-13  0.1483E-04  0.6109E-07  0.1196E-02  0.3352E-04  0.2155E+03
   -1.600014   30.41005  0.3125E-13  0.1432E-04  0.6787E-07  0.1048E-02  0.3076E-04  0.4744E+03
   -1.650013   30.41110  0.3125E-13  0.1366E-04  0.7853E-07  0.9672E-03  0.2771E-04  0.4746E+05
   -1.700013   30.41231  0.3125E-13  0.1276E-04  0.9739E-07  0.7848E-03  0.2469E-04  0.5049E+05
   -1.750012   30.41448  0.3125E-13  0.1159E-04  0.1283E-06  0.7053E-03  0.2065E-04  0.6315E+07
   -1.800010   30.41620  0.3125E-13  0.1007E-04  0.1962E-06  0.4912E-03  0.1763E-04  0.4947E+06
   -1.850009   30.42398  0.3125E-13  0.8472E-05  0.3209E-06  0.4531E-03  0.1223E-04  0.8304E+09
   -1.900007   30.42158  0.3125E-13  0.6682E-05  0.6736E-06  0.2113E-03  0.9995E-05  0.5921E+08
   -1.950004   30.44414  0.3125E-13  0.4758E-05  0.1636E-05  0.2075E-03  0.5218E-05 -0.2746E+07
   -2.000001   30.44473  0.3125E-13  0.0000E+00  0.0000E+00  0.0000E+00  0.1046E-04  0.0000E+00
