 1 - depth, m
 2 - temperature, C
 3 - salinity, kg/kg
 4 - turbulent kinetic energy, m**2/s**2
 5 - dissipation rate, m**2/s**3
 6 - kinematic heat conductance, m**2/s
 7 - modulus of horizontal velocity, m/s
 8 - Richardson number, n/d
   -0.000000   29.70483  0.6245E-13  0.4357E-05  0.2546E-06  0.4802E-04  0.1550E-02  0.5807E+04
   -0.049997   29.73216  0.6245E-13  0.7479E-05  0.1134E-06  0.1687E-03  0.8817E-03  0.5014E+03
   -0.099994   29.74272  0.6245E-13  0.9068E-05  0.7805E-07  0.3845E-03  0.6413E-03  0.1939E+02
   -0.149992   29.74563  0.6245E-13  0.1006E-04  0.6564E-07  0.4626E-03  0.5656E-03  0.9363E+01
   -0.199991   29.74795  0.6245E-13  0.1083E-04  0.5835E-07  0.6155E-03  0.5042E-03  0.6043E+01
   -0.249989   29.74965  0.6245E-13  0.1144E-04  0.5355E-07  0.7360E-03  0.4582E-03  0.4461E+01
   -0.299989   29.75102  0.6245E-13  0.1194E-04  0.5012E-07  0.8548E-03  0.4199E-03  0.3552E+01
   -0.349988   29.75218  0.6245E-13  0.1236E-04  0.4755E-07  0.9630E-03  0.3870E-03  0.3042E+01
   -0.399988   29.75319  0.6245E-13  0.1271E-04  0.4555E-07  0.1062E-02  0.3580E-03  0.2712E+01
   -0.449988   29.75408  0.6245E-13  0.1301E-04  0.4392E-07  0.1154E-02  0.3325E-03  0.2550E+01
   -0.499988   29.75488  0.6245E-13  0.1327E-04  0.4257E-07  0.1239E-02  0.3099E-03  0.2482E+01
   -0.549989   29.75561  0.6245E-13  0.1350E-04  0.4144E-07  0.1316E-02  0.2898E-03  0.2454E+01
   -0.599990   29.75629  0.6245E-13  0.1370E-04  0.4049E-07  0.1387E-02  0.2716E-03  0.2457E+01
   -0.649991   29.75693  0.6245E-13  0.1387E-04  0.3969E-07  0.1451E-02  0.2550E-03  0.2493E+01
   -0.699992   29.75752  0.6245E-13  0.1401E-04  0.3901E-07  0.1507E-02  0.2397E-03  0.2550E+01
   -0.749993   29.75809  0.6245E-13  0.1413E-04  0.3844E-07  0.1557E-02  0.2257E-03  0.2640E+01
   -0.799995   29.75863  0.6245E-13  0.1423E-04  0.3797E-07  0.1599E-02  0.2126E-03  0.2751E+01
   -0.849997   29.75915  0.6245E-13  0.1431E-04  0.3759E-07  0.1634E-02  0.2005E-03  0.2899E+01
   -0.899998   29.75966  0.6245E-13  0.1437E-04  0.3729E-07  0.1661E-02  0.1891E-03  0.3072E+01
   -0.950000   29.76015  0.6245E-13  0.1442E-04  0.3708E-07  0.1681E-02  0.1784E-03  0.3295E+01
   -1.000002   29.76063  0.6245E-13  0.1444E-04  0.3695E-07  0.1693E-02  0.1682E-03  0.3553E+01
   -1.050003   29.76111  0.6245E-13  0.1445E-04  0.3691E-07  0.1696E-02  0.1586E-03  0.4038E+01
   -1.100005   29.76158  0.6245E-13  0.1443E-04  0.3696E-07  0.1769E-02  0.1495E-03  0.1355E+02
   -1.150007   29.76202  0.6245E-13  0.1440E-04  0.3712E-07  0.1636E-02  0.1413E-03  0.2959E+02
   -1.200008   29.76250  0.6245E-13  0.1434E-04  0.3739E-07  0.1650E-02  0.1330E-03  0.5786E+01
   -1.250010   29.76298  0.6245E-13  0.1427E-04  0.3779E-07  0.1623E-02  0.1250E-03  0.6164E+01
   -1.300011   29.76346  0.6245E-13  0.1417E-04  0.3836E-07  0.1579E-02  0.1173E-03  0.7191E+01
   -1.350013   29.76395  0.6245E-13  0.1404E-04  0.3913E-07  0.1525E-02  0.1098E-03  0.8553E+01
   -1.400014   29.76446  0.6245E-13  0.1389E-04  0.4017E-07  0.1457E-02  0.1026E-03  0.1048E+02
   -1.450014   29.76499  0.6245E-13  0.1369E-04  0.4157E-07  0.1383E-02  0.9549E-04  0.1320E+02
   -1.500015   29.76554  0.6245E-13  0.1346E-04  0.4349E-07  0.1282E-02  0.8857E-04  0.1756E+02
   -1.550015   29.76615  0.6245E-13  0.1317E-04  0.4617E-07  0.1197E-02  0.8167E-04  0.2441E+02
   -1.600016   29.76680  0.6245E-13  0.1282E-04  0.5014E-07  0.1062E-02  0.7489E-04  0.3963E+02
   -1.650015   29.76756  0.6245E-13  0.1237E-04  0.5619E-07  0.9809E-03  0.6785E-04  0.3817E+04
   -1.700015   29.76841  0.6245E-13  0.1175E-04  0.6705E-07  0.8097E-03  0.6095E-04 -0.7006E+03
   -1.750014   29.76982  0.6245E-13  0.1091E-04  0.8516E-07  0.7252E-03  0.5224E-04  0.3218E+06
   -1.800013   29.77121  0.6245E-13  0.9721E-05  0.1231E-06  0.5149E-03  0.4478E-04  0.5445E+05
   -1.850011   29.77565  0.6245E-13  0.8311E-05  0.1931E-06  0.4611E-03  0.3291E-04  0.1451E+08
   -1.900009   29.77563  0.6245E-13  0.6577E-05  0.4025E-06  0.2071E-03  0.2644E-04  0.7950E+06
   -1.950006   29.79125  0.6246E-13  0.4517E-05  0.1034E-05  0.1670E-03  0.1443E-04 -0.2200E+07
   -2.000003   29.79451  0.6245E-13  0.0000E+00  0.0000E+00  0.0000E+00  0.2506E-04  0.0000E+00
