 1 - depth, m
 2 - temperature, C
 3 - salinity, kg/kg
 4 - turbulent kinetic energy, m**2/s**2
 5 - dissipation rate, m**2/s**3
 6 - kinematic heat conductance, m**2/s
 7 - modulus of horizontal velocity, m/s
 8 - Richardson number, n/d
   -0.000000   30.24320  0.2393E-13  0.4593E-05  0.2830E-06  0.5020E-04  0.9781E-03  0.4202E+04
   -0.049997   30.27213  0.2393E-13  0.7979E-05  0.1255E-06  0.1708E-03  0.5635E-03  0.2241E+02
   -0.099994   30.28404  0.2393E-13  0.9707E-05  0.8596E-07  0.4037E-03  0.4055E-03  0.4928E+02
   -0.149992   30.28709  0.2393E-13  0.1077E-04  0.7243E-07  0.4758E-03  0.3590E-03  0.2382E+02
   -0.199991   30.28959  0.2393E-13  0.1159E-04  0.6444E-07  0.6368E-03  0.3204E-03  0.1540E+02
   -0.249989   30.29139  0.2393E-13  0.1224E-04  0.5917E-07  0.7601E-03  0.2916E-03  0.1140E+02
   -0.299989   30.29286  0.2393E-13  0.1277E-04  0.5539E-07  0.8829E-03  0.2676E-03  0.9087E+01
   -0.349988   30.29409  0.2393E-13  0.1321E-04  0.5255E-07  0.9942E-03  0.2471E-03  0.7779E+01
   -0.399988   30.29516  0.2393E-13  0.1358E-04  0.5033E-07  0.1096E-02  0.2289E-03  0.6933E+01
   -0.449988   30.29611  0.2393E-13  0.1390E-04  0.4853E-07  0.1190E-02  0.2129E-03  0.6513E+01
   -0.499988   30.29696  0.2393E-13  0.1418E-04  0.4702E-07  0.1277E-02  0.1987E-03  0.6334E+01
   -0.549989   30.29774  0.2393E-13  0.1441E-04  0.4576E-07  0.1357E-02  0.1860E-03  0.6252E+01
   -0.599990   30.29846  0.2393E-13  0.1462E-04  0.4469E-07  0.1429E-02  0.1745E-03  0.6249E+01
   -0.649991   30.29914  0.2393E-13  0.1479E-04  0.4379E-07  0.1494E-02  0.1641E-03  0.6327E+01
   -0.699992   30.29977  0.2393E-13  0.1494E-04  0.4301E-07  0.1551E-02  0.1545E-03  0.6462E+01
   -0.749993   30.30037  0.2393E-13  0.1506E-04  0.4236E-07  0.1601E-02  0.1456E-03  0.6673E+01
   -0.799995   30.30095  0.2393E-13  0.1516E-04  0.4181E-07  0.1644E-02  0.1373E-03  0.6940E+01
   -0.849996   30.30150  0.2393E-13  0.1523E-04  0.4136E-07  0.1679E-02  0.1296E-03  0.7293E+01
   -0.899998   30.30203  0.2393E-13  0.1529E-04  0.4101E-07  0.1706E-02  0.1224E-03  0.7715E+01
   -0.950000   30.30255  0.2393E-13  0.1532E-04  0.4074E-07  0.1726E-02  0.1156E-03  0.8249E+01
   -1.000001   30.30306  0.2393E-13  0.1534E-04  0.4057E-07  0.1737E-02  0.1091E-03  0.8882E+01
   -1.050003   30.30356  0.2393E-13  0.1533E-04  0.4049E-07  0.1740E-02  0.1030E-03  0.1005E+02
   -1.100005   30.30405  0.2393E-13  0.1530E-04  0.4052E-07  0.1821E-02  0.9721E-04  0.3345E+02
   -1.150006   30.30452  0.2393E-13  0.1525E-04  0.4066E-07  0.1666E-02  0.9200E-04  0.7431E+02
   -1.200008   30.30503  0.2393E-13  0.1518E-04  0.4092E-07  0.1687E-02  0.8664E-04  0.1437E+02
   -1.250009   30.30553  0.2393E-13  0.1509E-04  0.4133E-07  0.1658E-02  0.8151E-04  0.1526E+02
   -1.300011   30.30603  0.2393E-13  0.1497E-04  0.4192E-07  0.1612E-02  0.7657E-04  0.1778E+02
   -1.350012   30.30654  0.2393E-13  0.1482E-04  0.4275E-07  0.1555E-02  0.7178E-04  0.2116E+02
   -1.400013   30.30707  0.2393E-13  0.1463E-04  0.4387E-07  0.1482E-02  0.6713E-04  0.2596E+02
   -1.450014   30.30762  0.2393E-13  0.1441E-04  0.4541E-07  0.1407E-02  0.6256E-04  0.3278E+02
   -1.500015   30.30820  0.2393E-13  0.1414E-04  0.4754E-07  0.1299E-02  0.5809E-04  0.4399E+02
   -1.550015   30.30883  0.2393E-13  0.1382E-04  0.5054E-07  0.1215E-02  0.5362E-04  0.6152E+02
   -1.600015   30.30951  0.2393E-13  0.1342E-04  0.5510E-07  0.1072E-02  0.4923E-04  0.1085E+03
   -1.650015   30.31032  0.2393E-13  0.1291E-04  0.6208E-07  0.9947E-03  0.4458E-04  0.3785E+03
   -1.700014   30.31121  0.2393E-13  0.1221E-04  0.7470E-07  0.8133E-03  0.4010E-04 -0.4749E+04
   -1.750013   30.31277  0.2393E-13  0.1127E-04  0.9576E-07  0.7365E-03  0.3420E-04  0.4853E+05
   -1.800012   30.31418  0.2393E-13  0.9982E-05  0.1400E-06  0.5134E-03  0.2938E-04 -0.3189E+05
   -1.850010   30.31922  0.2393E-13  0.8487E-05  0.2224E-06  0.4698E-03  0.2136E-04  0.2249E+08
   -1.900008   30.31873  0.2393E-13  0.6700E-05  0.4703E-06  0.2107E-03  0.1728E-04 -0.1539E+06
   -1.950006   30.33519  0.2393E-13  0.4638E-05  0.1185E-05  0.1792E-03  0.9364E-05  0.2797E+06
   -2.000003   30.33734  0.2393E-13  0.0000E+00  0.0000E+00  0.0000E+00  0.1672E-04  0.0000E+00
