 1 - depth, m
 2 - temperature, C
 3 - salinity, kg/kg
 4 - turbulent kinetic energy, m**2/s**2
 5 - dissipation rate, m**2/s**3
 6 - kinematic heat conductance, m**2/s
 7 - modulus of horizontal velocity, m/s
 8 - Richardson number, n/d
   -0.000000   29.85908  0.7892E-13  0.5698E-05  0.3096E-06  0.5425E-04  0.4192E-02  0.2322E+03
   -0.049997   29.88998  0.7892E-13  0.8910E-05  0.1330E-06  0.2082E-03  0.2260E-02  0.6289E+01
   -0.099994   29.89891  0.7892E-13  0.1033E-04  0.9587E-07  0.3796E-03  0.1822E-02  0.3411E+01
   -0.149992   29.90245  0.7892E-13  0.1129E-04  0.8118E-07  0.4741E-03  0.1635E-02  0.1825E+01
   -0.199991   29.90516  0.7892E-13  0.1206E-04  0.7252E-07  0.5919E-03  0.1488E-02  0.1342E+01
   -0.249989   29.90725  0.7892E-13  0.1272E-04  0.6655E-07  0.6987E-03  0.1370E-02  0.1317E+01
   -0.299989   29.90898  0.7892E-13  0.1333E-04  0.6186E-07  0.8260E-03  0.1258E-02  0.1408E+01
   -0.349988   29.91039  0.7892E-13  0.1390E-04  0.5798E-07  0.9685E-03  0.1149E-02  0.1504E+01
   -0.399988   29.91156  0.7892E-13  0.1442E-04  0.5475E-07  0.1116E-02  0.1043E-02  0.1525E+01
   -0.449988   29.91256  0.7892E-13  0.1488E-04  0.5205E-07  0.1260E-02  0.9444E-03  0.1525E+01
   -0.499988   29.91341  0.7892E-13  0.1528E-04  0.4981E-07  0.1394E-02  0.8566E-03  0.1519E+01
   -0.549989   29.91417  0.7892E-13  0.1561E-04  0.4795E-07  0.1515E-02  0.7786E-03  0.1502E+01
   -0.599990   29.91486  0.7892E-13  0.1587E-04  0.4642E-07  0.1623E-02  0.7092E-03  0.1482E+01
   -0.649991   29.91549  0.7892E-13  0.1608E-04  0.4515E-07  0.1715E-02  0.6474E-03  0.1457E+01
   -0.699992   29.91607  0.7892E-13  0.1623E-04  0.4411E-07  0.1790E-02  0.5925E-03  0.1428E+01
   -0.749993   29.91662  0.7892E-13  0.1633E-04  0.4327E-07  0.1849E-02  0.5435E-03  0.1395E+01
   -0.799995   29.91714  0.7892E-13  0.1639E-04  0.4262E-07  0.1890E-02  0.5000E-03  0.1360E+01
   -0.849996   29.91764  0.7892E-13  0.1640E-04  0.4212E-07  0.1915E-02  0.4611E-03  0.1321E+01
   -0.899998   29.91812  0.7892E-13  0.1638E-04  0.4178E-07  0.1925E-02  0.4265E-03  0.1280E+01
   -0.950000   29.91860  0.7892E-13  0.1633E-04  0.4157E-07  0.1921E-02  0.3957E-03  0.1236E+01
   -1.000001   29.91907  0.7892E-13  0.1626E-04  0.4149E-07  0.1904E-02  0.3682E-03  0.1188E+01
   -1.050003   29.91953  0.7892E-13  0.1616E-04  0.4153E-07  0.1866E-02  0.3437E-03  0.1143E+01
   -1.100005   29.92000  0.7892E-13  0.1605E-04  0.4168E-07  0.2048E-02  0.3221E-03  0.2610E+01
   -1.150007   29.92042  0.7892E-13  0.1592E-04  0.4197E-07  0.1650E-02  0.3067E-03  0.7371E+01
   -1.200008   29.92094  0.7892E-13  0.1577E-04  0.4238E-07  0.1752E-02  0.2889E-03  0.1308E+01
   -1.250010   29.92142  0.7892E-13  0.1559E-04  0.4300E-07  0.1709E-02  0.2723E-03  0.1363E+01
   -1.300011   29.92190  0.7892E-13  0.1538E-04  0.4385E-07  0.1637E-02  0.2564E-03  0.1607E+01
   -1.350012   29.92240  0.7892E-13  0.1513E-04  0.4502E-07  0.1562E-02  0.2409E-03  0.1972E+01
   -1.400013   29.92292  0.7892E-13  0.1484E-04  0.4665E-07  0.1455E-02  0.2258E-03  0.2544E+01
   -1.450014   29.92347  0.7892E-13  0.1449E-04  0.4892E-07  0.1372E-02  0.2106E-03  0.3389E+01
   -1.500015   29.92406  0.7892E-13  0.1409E-04  0.5219E-07  0.1227E-02  0.1957E-03  0.5046E+01
   -1.550015   29.92474  0.7892E-13  0.1360E-04  0.5697E-07  0.1162E-02  0.1802E-03  0.7914E+01
   -1.600015   29.92545  0.7892E-13  0.1299E-04  0.6512E-07  0.9943E-03  0.1654E-03  0.8036E+02
   -1.650015   29.92649  0.7892E-13  0.1217E-04  0.7790E-07  0.9211E-03  0.1475E-03  0.3650E+04
   -1.700014   29.92762  0.7892E-13  0.1105E-04  0.1005E-06  0.7204E-03  0.1303E-03 -0.7376E+04
   -1.750014   29.93020  0.7892E-13  0.9700E-05  0.1369E-06  0.6561E-03  0.1040E-03  0.3778E+05
   -1.800012   29.93118  0.7892E-13  0.8192E-05  0.2177E-06  0.4364E-03  0.8937E-04  0.5192E+04
   -1.850011   29.94068  0.7892E-13  0.6753E-05  0.3716E-06  0.4231E-03  0.5714E-04  0.1848E+09
   -1.900009   29.93499  0.7892E-13  0.5335E-05  0.7972E-06  0.1998E-03  0.4857E-04  0.2176E+05
   -1.950006   29.95575  0.7892E-13  0.3840E-05  0.1845E-05  0.2368E-03  0.2403E-04 -0.2343E+06
   -2.000003   29.95525  0.7892E-13  0.0000E+00  0.0000E+00  0.0000E+00  0.5698E-04  0.0000E+00
