 1 - depth, m
 2 - temperature, C
 3 - salinity, kg/kg
 4 - turbulent kinetic energy, m**2/s**2
 5 - dissipation rate, m**2/s**3
 6 - kinematic heat conductance, m**2/s
 7 - modulus of horizontal velocity, m/s
 8 - Richardson number, n/d
   -0.000000   30.32827  0.7621E-13  0.4875E-05  0.3045E-06  0.5090E-04  0.1682E-02  0.9105E+04
   -0.049997   30.35897  0.7621E-13  0.8298E-05  0.1359E-06  0.1756E-03  0.9650E-03  0.3700E+04
   -0.099994   30.37094  0.7621E-13  0.1007E-04  0.9321E-07  0.3972E-03  0.7061E-03  0.1699E+02
   -0.149992   30.37425  0.7621E-13  0.1117E-04  0.7810E-07  0.4771E-03  0.6235E-03  0.8284E+01
   -0.199991   30.37689  0.7621E-13  0.1203E-04  0.6924E-07  0.6385E-03  0.5566E-03  0.5301E+01
   -0.249989   30.37880  0.7621E-13  0.1271E-04  0.6344E-07  0.7637E-03  0.5066E-03  0.3899E+01
   -0.299988   30.38035  0.7621E-13  0.1326E-04  0.5930E-07  0.8885E-03  0.4649E-03  0.3096E+01
   -0.349988   30.38165  0.7621E-13  0.1372E-04  0.5620E-07  0.1002E-02  0.4293E-03  0.2640E+01
   -0.399988   30.38277  0.7621E-13  0.1411E-04  0.5377E-07  0.1105E-02  0.3978E-03  0.2349E+01
   -0.449988   30.38377  0.7621E-13  0.1444E-04  0.5180E-07  0.1201E-02  0.3701E-03  0.2200E+01
   -0.499988   30.38466  0.7621E-13  0.1472E-04  0.5016E-07  0.1290E-02  0.3456E-03  0.2138E+01
   -0.549989   30.38548  0.7621E-13  0.1497E-04  0.4879E-07  0.1371E-02  0.3237E-03  0.2103E+01
   -0.599990   30.38624  0.7621E-13  0.1518E-04  0.4763E-07  0.1444E-02  0.3039E-03  0.2103E+01
   -0.649991   30.38694  0.7621E-13  0.1536E-04  0.4665E-07  0.1510E-02  0.2858E-03  0.2123E+01
   -0.699992   30.38761  0.7621E-13  0.1551E-04  0.4581E-07  0.1568E-02  0.2692E-03  0.2170E+01
   -0.749993   30.38823  0.7621E-13  0.1563E-04  0.4510E-07  0.1619E-02  0.2538E-03  0.2235E+01
   -0.799995   30.38884  0.7621E-13  0.1573E-04  0.4451E-07  0.1662E-02  0.2395E-03  0.2327E+01
   -0.849996   30.38941  0.7621E-13  0.1581E-04  0.4403E-07  0.1698E-02  0.2262E-03  0.2439E+01
   -0.899998   30.38997  0.7621E-13  0.1587E-04  0.4365E-07  0.1726E-02  0.2137E-03  0.2584E+01
   -0.950000   30.39051  0.7621E-13  0.1590E-04  0.4337E-07  0.1745E-02  0.2019E-03  0.2756E+01
   -1.000001   30.39105  0.7621E-13  0.1591E-04  0.4319E-07  0.1756E-02  0.1908E-03  0.2972E+01
   -1.050003   30.39157  0.7621E-13  0.1591E-04  0.4311E-07  0.1758E-02  0.1802E-03  0.3356E+01
   -1.100005   30.39209  0.7621E-13  0.1588E-04  0.4314E-07  0.1843E-02  0.1701E-03  0.1116E+02
   -1.150006   30.39257  0.7621E-13  0.1582E-04  0.4331E-07  0.1678E-02  0.1611E-03  0.2503E+02
   -1.200008   30.39311  0.7621E-13  0.1575E-04  0.4360E-07  0.1703E-02  0.1518E-03  0.4811E+01
   -1.250009   30.39363  0.7621E-13  0.1565E-04  0.4406E-07  0.1673E-02  0.1429E-03  0.5119E+01
   -1.300011   30.39416  0.7621E-13  0.1552E-04  0.4472E-07  0.1625E-02  0.1343E-03  0.5963E+01
   -1.350012   30.39470  0.7621E-13  0.1536E-04  0.4564E-07  0.1566E-02  0.1259E-03  0.7122E+01
   -1.400013   30.39525  0.7621E-13  0.1517E-04  0.4689E-07  0.1491E-02  0.1178E-03  0.8752E+01
   -1.450014   30.39584  0.7621E-13  0.1493E-04  0.4860E-07  0.1414E-02  0.1099E-03  0.1112E+02
   -1.500014   30.39645  0.7621E-13  0.1465E-04  0.5099E-07  0.1304E-02  0.1021E-03  0.1500E+02
   -1.550015   30.39712  0.7621E-13  0.1430E-04  0.5438E-07  0.1220E-02  0.9422E-04  0.2133E+02
   -1.600015   30.39785  0.7621E-13  0.1387E-04  0.5958E-07  0.1076E-02  0.8655E-04  0.3935E+02
   -1.650015   30.39873  0.7621E-13  0.1331E-04  0.6766E-07  0.9980E-03  0.7831E-04  0.1014E+04
   -1.700014   30.39972  0.7621E-13  0.1256E-04  0.8209E-07  0.8143E-03  0.7023E-04  0.2537E+04
   -1.750013   30.40145  0.7621E-13  0.1155E-04  0.1057E-06  0.7388E-03  0.5959E-04  0.9439E+04
   -1.800012   30.40288  0.7621E-13  0.1020E-04  0.1552E-06  0.5145E-03  0.5131E-04  0.1942E+06
   -1.850010   30.40873  0.7621E-13  0.8690E-05  0.2496E-06  0.4729E-03  0.3684E-04  0.5480E+07
   -1.900008   30.40771  0.7621E-13  0.6907E-05  0.5174E-06  0.2179E-03  0.3004E-04 -0.4473E+05
   -1.950005   30.42591  0.7621E-13  0.4814E-05  0.1307E-05  0.1851E-03  0.1633E-04 -0.4052E+06
   -2.000002   30.42843  0.7621E-13  0.0000E+00  0.0000E+00  0.0000E+00  0.2950E-04  0.0000E+00
