 1 - depth, m
 2 - temperature, C
 3 - salinity, kg/kg
 4 - turbulent kinetic energy, m**2/s**2
 5 - dissipation rate, m**2/s**3
 6 - kinematic heat conductance, m**2/s
 7 - modulus of horizontal velocity, m/s
 8 - Richardson number, n/d
   -0.000000   30.58881  0.3321E-14  0.4841E-05  0.3016E-06  0.5025E-04  0.1375E-02  0.9960E+04
   -0.049997   30.61940  0.3321E-14  0.8321E-05  0.1345E-06  0.1795E-03  0.7816E-03  0.6961E+02
   -0.099994   30.63102  0.3321E-14  0.1010E-04  0.9275E-07  0.4005E-03  0.5743E-03  0.2525E+02
   -0.149992   30.63425  0.3321E-14  0.1121E-04  0.7785E-07  0.4830E-03  0.5072E-03  0.1240E+02
   -0.199991   30.63682  0.3321E-14  0.1208E-04  0.6913E-07  0.6458E-03  0.4530E-03  0.7949E+01
   -0.249989   30.63868  0.3321E-14  0.1278E-04  0.6344E-07  0.7720E-03  0.4125E-03  0.5860E+01
   -0.299988   30.64020  0.3321E-14  0.1334E-04  0.5938E-07  0.8982E-03  0.3788E-03  0.4666E+01
   -0.349988   30.64147  0.3321E-14  0.1381E-04  0.5635E-07  0.1012E-02  0.3500E-03  0.3984E+01
   -0.399988   30.64258  0.3321E-14  0.1421E-04  0.5400E-07  0.1117E-02  0.3245E-03  0.3554E+01
   -0.449988   30.64356  0.3321E-14  0.1455E-04  0.5209E-07  0.1214E-02  0.3020E-03  0.3328E+01
   -0.499988   30.64444  0.3321E-14  0.1485E-04  0.5051E-07  0.1303E-02  0.2821E-03  0.3240E+01
   -0.549989   30.64525  0.3321E-14  0.1511E-04  0.4920E-07  0.1385E-02  0.2644E-03  0.3189E+01
   -0.599989   30.64600  0.3321E-14  0.1533E-04  0.4810E-07  0.1459E-02  0.2483E-03  0.3195E+01
   -0.649990   30.64670  0.3321E-14  0.1552E-04  0.4717E-07  0.1525E-02  0.2336E-03  0.3226E+01
   -0.699992   30.64736  0.3321E-14  0.1568E-04  0.4640E-07  0.1584E-02  0.2201E-03  0.3306E+01
   -0.749993   30.64799  0.3321E-14  0.1582E-04  0.4575E-07  0.1635E-02  0.2076E-03  0.3405E+01
   -0.799994   30.64859  0.3321E-14  0.1593E-04  0.4522E-07  0.1678E-02  0.1960E-03  0.3558E+01
   -0.849996   30.64916  0.3321E-14  0.1602E-04  0.4480E-07  0.1714E-02  0.1852E-03  0.3731E+01
   -0.899998   30.64973  0.3321E-14  0.1609E-04  0.4449E-07  0.1741E-02  0.1750E-03  0.3968E+01
   -0.949999   30.65027  0.3321E-14  0.1614E-04  0.4428E-07  0.1760E-02  0.1655E-03  0.4238E+01
   -1.000001   30.65081  0.3321E-14  0.1616E-04  0.4417E-07  0.1771E-02  0.1564E-03  0.4590E+01
   -1.050003   30.65134  0.3321E-14  0.1617E-04  0.4416E-07  0.1772E-02  0.1478E-03  0.5192E+01
   -1.100004   30.65187  0.3321E-14  0.1615E-04  0.4427E-07  0.1860E-02  0.1395E-03  0.1725E+02
   -1.150006   30.65237  0.3321E-14  0.1611E-04  0.4453E-07  0.1688E-02  0.1322E-03  0.3918E+02
   -1.200008   30.65291  0.3321E-14  0.1604E-04  0.4491E-07  0.1714E-02  0.1246E-03  0.7517E+01
   -1.250009   30.65345  0.3321E-14  0.1595E-04  0.4547E-07  0.1683E-02  0.1173E-03  0.8045E+01
   -1.300010   30.65400  0.3321E-14  0.1583E-04  0.4624E-07  0.1634E-02  0.1103E-03  0.9409E+01
   -1.350012   30.65456  0.3321E-14  0.1568E-04  0.4729E-07  0.1574E-02  0.1035E-03  0.1131E+02
   -1.400013   30.65514  0.3321E-14  0.1549E-04  0.4869E-07  0.1496E-02  0.9685E-04  0.1399E+02
   -1.450014   30.65575  0.3321E-14  0.1526E-04  0.5059E-07  0.1419E-02  0.9033E-04  0.1791E+02
   -1.500014   30.65640  0.3321E-14  0.1497E-04  0.5322E-07  0.1306E-02  0.8393E-04  0.2448E+02
   -1.550014   30.65711  0.3321E-14  0.1462E-04  0.5692E-07  0.1224E-02  0.7749E-04  0.3518E+02
   -1.600015   30.65788  0.3321E-14  0.1418E-04  0.6261E-07  0.1076E-02  0.7119E-04  0.7449E+02
   -1.650014   30.65882  0.3321E-14  0.1362E-04  0.7134E-07  0.9997E-03  0.6437E-04  0.2913E+04
   -1.700014   30.65988  0.3321E-14  0.1284E-04  0.8696E-07  0.8106E-03  0.5779E-04  0.4823E+04
   -1.750013   30.66181  0.3321E-14  0.1181E-04  0.1126E-06  0.7401E-03  0.4892E-04  0.9560E+05
   -1.800012   30.66331  0.3321E-14  0.1043E-04  0.1666E-06  0.5089E-03  0.4218E-04  0.1273E+06
   -1.850010   30.66989  0.3321E-14  0.8882E-05  0.2691E-06  0.4753E-03  0.3025E-04  0.1700E+09
   -1.900008   30.66858  0.3321E-14  0.7068E-05  0.5602E-06  0.2145E-03  0.2468E-04  0.1272E+07
   -1.950005   30.68861  0.3321E-14  0.4946E-05  0.1398E-05  0.1906E-03  0.1339E-04 -0.5352E+06
   -2.000002   30.69077  0.3321E-14  0.0000E+00  0.0000E+00  0.0000E+00  0.2419E-04  0.0000E+00
