 1 - depth, m
 2 - temperature, C
 3 - salinity, kg/kg
 4 - turbulent kinetic energy, m**2/s**2
 5 - dissipation rate, m**2/s**3
 6 - kinematic heat conductance, m**2/s
 7 - modulus of horizontal velocity, m/s
 8 - Richardson number, n/d
   -0.000000   30.51703  0.4589E-13  0.5732E-05  0.3118E-06  0.5513E-04  0.4232E-02  0.1613E+03
   -0.049997   30.54661  0.4589E-13  0.8966E-05  0.1333E-06  0.2111E-03  0.2272E-02  0.7033E+01
   -0.099994   30.55513  0.4589E-13  0.1040E-04  0.9616E-07  0.3841E-03  0.1835E-02  0.3241E+01
   -0.149992   30.55852  0.4589E-13  0.1137E-04  0.8150E-07  0.4788E-03  0.1647E-02  0.1751E+01
   -0.199991   30.56112  0.4589E-13  0.1216E-04  0.7287E-07  0.5978E-03  0.1500E-02  0.1310E+01
   -0.249989   30.56313  0.4589E-13  0.1284E-04  0.6693E-07  0.7075E-03  0.1381E-02  0.1307E+01
   -0.299988   30.56479  0.4589E-13  0.1349E-04  0.6228E-07  0.8396E-03  0.1268E-02  0.1403E+01
   -0.349988   30.56615  0.4589E-13  0.1409E-04  0.5845E-07  0.9875E-03  0.1158E-02  0.1501E+01
   -0.399988   30.56728  0.4589E-13  0.1465E-04  0.5529E-07  0.1141E-02  0.1050E-02  0.1523E+01
   -0.449988   30.56824  0.4589E-13  0.1515E-04  0.5267E-07  0.1292E-02  0.9510E-03  0.1521E+01
   -0.499988   30.56907  0.4589E-13  0.1559E-04  0.5051E-07  0.1431E-02  0.8622E-03  0.1513E+01
   -0.549989   30.56980  0.4589E-13  0.1596E-04  0.4875E-07  0.1557E-02  0.7834E-03  0.1495E+01
   -0.599990   30.57046  0.4589E-13  0.1626E-04  0.4732E-07  0.1670E-02  0.7134E-03  0.1473E+01
   -0.649991   30.57106  0.4589E-13  0.1650E-04  0.4616E-07  0.1767E-02  0.6511E-03  0.1448E+01
   -0.699992   30.57162  0.4589E-13  0.1669E-04  0.4524E-07  0.1846E-02  0.5958E-03  0.1419E+01
   -0.749993   30.57215  0.4589E-13  0.1682E-04  0.4452E-07  0.1908E-02  0.5466E-03  0.1388E+01
   -0.799995   30.57266  0.4589E-13  0.1691E-04  0.4399E-07  0.1951E-02  0.5027E-03  0.1354E+01
   -0.849996   30.57315  0.4589E-13  0.1696E-04  0.4362E-07  0.1978E-02  0.4637E-03  0.1317E+01
   -0.899998   30.57362  0.4589E-13  0.1698E-04  0.4341E-07  0.1989E-02  0.4289E-03  0.1278E+01
   -0.949999   30.57409  0.4589E-13  0.1696E-04  0.4333E-07  0.1986E-02  0.3979E-03  0.1237E+01
   -1.000001   30.57455  0.4589E-13  0.1691E-04  0.4338E-07  0.1969E-02  0.3703E-03  0.1192E+01
   -1.050003   30.57502  0.4589E-13  0.1684E-04  0.4356E-07  0.1930E-02  0.3457E-03  0.1147E+01
   -1.100005   30.57548  0.4589E-13  0.1676E-04  0.4382E-07  0.2115E-02  0.3240E-03  0.2561E+01
   -1.150006   30.57591  0.4589E-13  0.1665E-04  0.4422E-07  0.1718E-02  0.3088E-03  0.6907E+01
   -1.200008   30.57642  0.4589E-13  0.1652E-04  0.4476E-07  0.1820E-02  0.2913E-03  0.1259E+01
   -1.250009   30.57691  0.4589E-13  0.1637E-04  0.4551E-07  0.1777E-02  0.2747E-03  0.1310E+01
   -1.300011   30.57740  0.4589E-13  0.1618E-04  0.4650E-07  0.1708E-02  0.2590E-03  0.1534E+01
   -1.350012   30.57791  0.4589E-13  0.1596E-04  0.4782E-07  0.1631E-02  0.2437E-03  0.1872E+01
   -1.400013   30.57844  0.4589E-13  0.1569E-04  0.4960E-07  0.1531E-02  0.2287E-03  0.2380E+01
   -1.450014   30.57901  0.4589E-13  0.1537E-04  0.5205E-07  0.1439E-02  0.2137E-03  0.3148E+01
   -1.500014   30.57962  0.4589E-13  0.1500E-04  0.5548E-07  0.1309E-02  0.1989E-03  0.4523E+01
   -1.550015   30.58030  0.4589E-13  0.1454E-04  0.6047E-07  0.1221E-02  0.1837E-03  0.7678E+01
   -1.600015   30.58105  0.4589E-13  0.1396E-04  0.6849E-07  0.1065E-02  0.1687E-03 -0.5845E+03
   -1.650014   30.58207  0.4589E-13  0.1320E-04  0.8123E-07  0.9769E-03  0.1515E-03  0.5235E+04
   -1.700014   30.58329  0.4589E-13  0.1216E-04  0.1053E-06  0.7824E-03  0.1340E-03  0.6282E+04
   -1.750013   30.58550  0.4589E-13  0.1093E-04  0.1408E-06  0.7041E-03  0.1106E-03  0.9872E+05
   -1.800012   30.58681  0.4589E-13  0.9398E-05  0.2178E-06  0.4779E-03  0.9493E-04  0.1202E+06
   -1.850010   30.59529  0.4589E-13  0.7881E-05  0.3642E-06  0.4558E-03  0.6389E-04  0.3903E+08
   -1.900008   30.59150  0.4589E-13  0.6244E-05  0.7645E-06  0.2127E-03  0.5313E-04 -0.4136E+05
   -1.950005   30.61324  0.4589E-13  0.4480E-05  0.1798E-05  0.2242E-03  0.2746E-04 -0.2636E+06
   -2.000002   30.61266  0.4589E-13  0.0000E+00  0.0000E+00  0.0000E+00  0.5840E-04  0.0000E+00
