 1 - depth, m
 2 - temperature, C
 3 - salinity, kg/kg
 4 - turbulent kinetic energy, m**2/s**2
 5 - dissipation rate, m**2/s**3
 6 - kinematic heat conductance, m**2/s
 7 - modulus of horizontal velocity, m/s
 8 - Richardson number, n/d
   -0.000000   30.30155  0.1620E-13  0.4975E-05  0.3161E-06  0.5193E-04  0.1860E-02  0.3927E+04
   -0.049997   30.33196  0.1620E-13  0.8432E-05  0.1407E-06  0.1755E-03  0.1073E-02  0.3957E+03
   -0.099994   30.34430  0.1620E-13  0.1025E-04  0.9609E-07  0.4026E-03  0.7812E-03  0.1381E+02
   -0.149992   30.34761  0.1620E-13  0.1139E-04  0.8047E-07  0.4813E-03  0.6904E-03  0.6762E+01
   -0.199991   30.35027  0.1620E-13  0.1228E-04  0.7135E-07  0.6463E-03  0.6163E-03  0.4320E+01
   -0.249989   30.35219  0.1620E-13  0.1298E-04  0.6541E-07  0.7727E-03  0.5611E-03  0.3188E+01
   -0.299988   30.35376  0.1620E-13  0.1356E-04  0.6120E-07  0.8998E-03  0.5152E-03  0.2534E+01
   -0.349988   30.35507  0.1620E-13  0.1404E-04  0.5805E-07  0.1015E-02  0.4759E-03  0.2169E+01
   -0.399988   30.35621  0.1620E-13  0.1444E-04  0.5561E-07  0.1120E-02  0.4412E-03  0.1932E+01
   -0.449988   30.35722  0.1620E-13  0.1479E-04  0.5363E-07  0.1217E-02  0.4107E-03  0.1815E+01
   -0.499988   30.35814  0.1620E-13  0.1509E-04  0.5200E-07  0.1307E-02  0.3837E-03  0.1764E+01
   -0.549989   30.35897  0.1620E-13  0.1535E-04  0.5065E-07  0.1389E-02  0.3596E-03  0.1744E+01
   -0.599989   30.35974  0.1620E-13  0.1558E-04  0.4951E-07  0.1463E-02  0.3377E-03  0.1743E+01
   -0.649990   30.36047  0.1620E-13  0.1577E-04  0.4856E-07  0.1530E-02  0.3178E-03  0.1769E+01
   -0.699992   30.36115  0.1620E-13  0.1594E-04  0.4775E-07  0.1589E-02  0.2994E-03  0.1808E+01
   -0.749993   30.36179  0.1620E-13  0.1608E-04  0.4709E-07  0.1640E-02  0.2825E-03  0.1873E+01
   -0.799994   30.36241  0.1620E-13  0.1619E-04  0.4655E-07  0.1683E-02  0.2668E-03  0.1950E+01
   -0.849996   30.36301  0.1620E-13  0.1628E-04  0.4612E-07  0.1718E-02  0.2520E-03  0.2058E+01
   -0.899998   30.36359  0.1620E-13  0.1635E-04  0.4580E-07  0.1745E-02  0.2382E-03  0.2181E+01
   -0.949999   30.36416  0.1620E-13  0.1639E-04  0.4558E-07  0.1763E-02  0.2252E-03  0.2344E+01
   -1.000001   30.36472  0.1620E-13  0.1641E-04  0.4548E-07  0.1773E-02  0.2128E-03  0.2531E+01
   -1.050003   30.36526  0.1620E-13  0.1641E-04  0.4548E-07  0.1773E-02  0.2011E-03  0.2880E+01
   -1.100004   30.36581  0.1620E-13  0.1639E-04  0.4561E-07  0.1865E-02  0.1900E-03  0.9484E+01
   -1.150006   30.36632  0.1620E-13  0.1634E-04  0.4588E-07  0.1681E-02  0.1800E-03  0.2200E+02
   -1.200008   30.36690  0.1620E-13  0.1627E-04  0.4629E-07  0.1710E-02  0.1696E-03  0.4205E+01
   -1.250009   30.36745  0.1620E-13  0.1617E-04  0.4689E-07  0.1679E-02  0.1597E-03  0.4489E+01
   -1.300010   30.36802  0.1620E-13  0.1604E-04  0.4772E-07  0.1627E-02  0.1502E-03  0.5286E+01
   -1.350012   30.36860  0.1620E-13  0.1588E-04  0.4884E-07  0.1566E-02  0.1409E-03  0.6358E+01
   -1.400013   30.36921  0.1620E-13  0.1568E-04  0.5035E-07  0.1485E-02  0.1318E-03  0.7931E+01
   -1.450013   30.36985  0.1620E-13  0.1543E-04  0.5241E-07  0.1408E-02  0.1229E-03  0.1019E+02
   -1.500014   30.37052  0.1620E-13  0.1513E-04  0.5526E-07  0.1292E-02  0.1142E-03  0.1410E+02
   -1.550014   30.37127  0.1620E-13  0.1476E-04  0.5932E-07  0.1210E-02  0.1053E-03  0.2048E+02
   -1.600014   30.37208  0.1620E-13  0.1429E-04  0.6562E-07  0.1064E-02  0.9670E-04  0.4608E+02
   -1.650014   30.37310  0.1620E-13  0.1368E-04  0.7542E-07  0.9858E-03  0.8729E-04 -0.5000E+03
   -1.700014   30.37425  0.1620E-13  0.1283E-04  0.9293E-07  0.8006E-03  0.7803E-04 -0.1152E+04
   -1.750013   30.37634  0.1620E-13  0.1174E-04  0.1215E-06  0.7246E-03  0.6559E-04  0.1608E+06
   -1.800011   30.37796  0.1620E-13  0.1030E-04  0.1841E-06  0.5034E-03  0.5627E-04  0.1432E+07
   -1.850010   30.38527  0.1620E-13  0.8759E-05  0.2990E-06  0.4674E-03  0.3967E-04  0.3463E+07
   -1.900008   30.38328  0.1620E-13  0.7000E-05  0.6224E-06  0.2170E-03  0.3257E-04  0.2686E+06
   -1.950005   30.40476  0.1620E-13  0.4931E-05  0.1540E-05  0.1972E-03  0.1753E-04 -0.1796E+05
   -2.000002   30.40685  0.1620E-13  0.0000E+00  0.0000E+00  0.0000E+00  0.3289E-04  0.0000E+00
