 1 - depth, m
 2 - temperature, C
 3 - salinity, kg/kg
 4 - turbulent kinetic energy, m**2/s**2
 5 - dissipation rate, m**2/s**3
 6 - kinematic heat conductance, m**2/s
 7 - modulus of horizontal velocity, m/s
 8 - Richardson number, n/d
   -0.000000   30.25893  0.4505E-13  0.4705E-05  0.2885E-06  0.4991E-04  0.1426E-02  0.9656E+04
   -0.049997   30.28867  0.4505E-13  0.8077E-05  0.1287E-06  0.1752E-03  0.8129E-03  0.1443E+03
   -0.099994   30.30014  0.4505E-13  0.9801E-05  0.8863E-07  0.3955E-03  0.5945E-03  0.2316E+02
   -0.149992   30.30332  0.4505E-13  0.1088E-04  0.7440E-07  0.4756E-03  0.5248E-03  0.1131E+02
   -0.199991   30.30584  0.4505E-13  0.1172E-04  0.6606E-07  0.6355E-03  0.4684E-03  0.7258E+01
   -0.249989   30.30768  0.4505E-13  0.1238E-04  0.6059E-07  0.7599E-03  0.4262E-03  0.5356E+01
   -0.299989   30.30917  0.4505E-13  0.1293E-04  0.5669E-07  0.8836E-03  0.3910E-03  0.4257E+01
   -0.349988   30.31042  0.4505E-13  0.1338E-04  0.5376E-07  0.9958E-03  0.3609E-03  0.3641E+01
   -0.399988   30.31150  0.4505E-13  0.1375E-04  0.5148E-07  0.1099E-02  0.3344E-03  0.3240E+01
   -0.449988   30.31246  0.4505E-13  0.1408E-04  0.4963E-07  0.1194E-02  0.3110E-03  0.3043E+01
   -0.499988   30.31333  0.4505E-13  0.1436E-04  0.4809E-07  0.1282E-02  0.2903E-03  0.2956E+01
   -0.549989   30.31412  0.4505E-13  0.1461E-04  0.4680E-07  0.1362E-02  0.2718E-03  0.2918E+01
   -0.599990   30.31485  0.4505E-13  0.1482E-04  0.4572E-07  0.1435E-02  0.2550E-03  0.2914E+01
   -0.649991   30.31553  0.4505E-13  0.1500E-04  0.4480E-07  0.1501E-02  0.2398E-03  0.2952E+01
   -0.699992   30.31618  0.4505E-13  0.1515E-04  0.4402E-07  0.1559E-02  0.2258E-03  0.3013E+01
   -0.749993   30.31679  0.4505E-13  0.1528E-04  0.4337E-07  0.1609E-02  0.2128E-03  0.3113E+01
   -0.799995   30.31737  0.4505E-13  0.1538E-04  0.4282E-07  0.1653E-02  0.2008E-03  0.3236E+01
   -0.849996   30.31793  0.4505E-13  0.1546E-04  0.4238E-07  0.1688E-02  0.1895E-03  0.3404E+01
   -0.899998   30.31847  0.4505E-13  0.1552E-04  0.4203E-07  0.1716E-02  0.1790E-03  0.3600E+01
   -0.950000   30.31900  0.4505E-13  0.1556E-04  0.4178E-07  0.1736E-02  0.1691E-03  0.3852E+01
   -1.000001   30.31952  0.4505E-13  0.1558E-04  0.4163E-07  0.1747E-02  0.1597E-03  0.4148E+01
   -1.050003   30.32003  0.4505E-13  0.1558E-04  0.4157E-07  0.1750E-02  0.1508E-03  0.4698E+01
   -1.100005   30.32053  0.4505E-13  0.1556E-04  0.4162E-07  0.1831E-02  0.1423E-03  0.1565E+02
   -1.150006   30.32101  0.4505E-13  0.1552E-04  0.4179E-07  0.1676E-02  0.1347E-03  0.3469E+02
   -1.200008   30.32153  0.4505E-13  0.1545E-04  0.4209E-07  0.1698E-02  0.1269E-03  0.6722E+01
   -1.250009   30.32204  0.4505E-13  0.1536E-04  0.4254E-07  0.1668E-02  0.1194E-03  0.7150E+01
   -1.300011   30.32255  0.4505E-13  0.1524E-04  0.4318E-07  0.1622E-02  0.1122E-03  0.8335E+01
   -1.350012   30.32308  0.4505E-13  0.1510E-04  0.4406E-07  0.1564E-02  0.1052E-03  0.9926E+01
   -1.400013   30.32363  0.4505E-13  0.1492E-04  0.4526E-07  0.1491E-02  0.9841E-04  0.1218E+02
   -1.450014   30.32420  0.4505E-13  0.1470E-04  0.4687E-07  0.1413E-02  0.9175E-04  0.1540E+02
   -1.500015   30.32480  0.4505E-13  0.1443E-04  0.4911E-07  0.1307E-02  0.8521E-04  0.2064E+02
   -1.550015   30.32545  0.4505E-13  0.1410E-04  0.5225E-07  0.1219E-02  0.7867E-04  0.2895E+02
   -1.600015   30.32616  0.4505E-13  0.1370E-04  0.5699E-07  0.1079E-02  0.7225E-04  0.5063E+02
   -1.650015   30.32700  0.4505E-13  0.1318E-04  0.6429E-07  0.9947E-03  0.6547E-04  0.1998E+03
   -1.700014   30.32794  0.4505E-13  0.1248E-04  0.7724E-07  0.8176E-03  0.5882E-04  0.8225E+03
   -1.750013   30.32953  0.4505E-13  0.1153E-04  0.9892E-07  0.7354E-03  0.5033E-04  0.1744E+05
   -1.800012   30.33107  0.4505E-13  0.1022E-04  0.1448E-06  0.5187E-03  0.4311E-04  0.6419E+05
   -1.850010   30.33623  0.4505E-13  0.8706E-05  0.2285E-06  0.4683E-03  0.3153E-04  0.2783E+07
   -1.900008   30.33583  0.4505E-13  0.6858E-05  0.4747E-06  0.2119E-03  0.2540E-04 -0.2245E+06
   -1.950006   30.35331  0.4505E-13  0.4754E-05  0.1209E-05  0.1790E-03  0.1372E-04 -0.5576E+06
   -2.000003   30.35570  0.4505E-13  0.0000E+00  0.0000E+00  0.0000E+00  0.2452E-04  0.0000E+00
