 1 - depth, m
 2 - temperature, C
 3 - salinity, kg/kg
 4 - turbulent kinetic energy, m**2/s**2
 5 - dissipation rate, m**2/s**3
 6 - kinematic heat conductance, m**2/s
 7 - modulus of horizontal velocity, m/s
 8 - Richardson number, n/d
   -0.000000   30.29971  0.1899E-14  0.4944E-05  0.3123E-06  0.5089E-04  0.1415E-02  0.6803E+04
   -0.049997   30.33137  0.1899E-14  0.8476E-05  0.1392E-06  0.1801E-03  0.8072E-03  0.1742E+05
   -0.099994   30.34349  0.1900E-14  0.1029E-04  0.9584E-07  0.4028E-03  0.5920E-03  0.2457E+02
   -0.149992   30.34686  0.1900E-14  0.1142E-04  0.8039E-07  0.4844E-03  0.5231E-03  0.1209E+02
   -0.199991   30.34954  0.1900E-14  0.1230E-04  0.7134E-07  0.6482E-03  0.4672E-03  0.7741E+01
   -0.249989   30.35148  0.1900E-14  0.1300E-04  0.6542E-07  0.7745E-03  0.4254E-03  0.5720E+01
   -0.299988   30.35306  0.1900E-14  0.1357E-04  0.6120E-07  0.9012E-03  0.3907E-03  0.4545E+01
   -0.349988   30.35439  0.1900E-14  0.1405E-04  0.5803E-07  0.1016E-02  0.3609E-03  0.3889E+01
   -0.399988   30.35553  0.1900E-14  0.1444E-04  0.5557E-07  0.1120E-02  0.3347E-03  0.3460E+01
   -0.449988   30.35655  0.1900E-14  0.1478E-04  0.5356E-07  0.1217E-02  0.3115E-03  0.3251E+01
   -0.499988   30.35747  0.1900E-14  0.1508E-04  0.5190E-07  0.1307E-02  0.2910E-03  0.3156E+01
   -0.549989   30.35831  0.1900E-14  0.1533E-04  0.5051E-07  0.1388E-02  0.2727E-03  0.3117E+01
   -0.599989   30.35908  0.1900E-14  0.1555E-04  0.4933E-07  0.1462E-02  0.2561E-03  0.3110E+01
   -0.649991   30.35981  0.1900E-14  0.1573E-04  0.4834E-07  0.1528E-02  0.2410E-03  0.3152E+01
   -0.699992   30.36049  0.1900E-14  0.1589E-04  0.4749E-07  0.1587E-02  0.2271E-03  0.3214E+01
   -0.749993   30.36114  0.1900E-14  0.1602E-04  0.4678E-07  0.1638E-02  0.2142E-03  0.3324E+01
   -0.799995   30.36176  0.1900E-14  0.1612E-04  0.4619E-07  0.1681E-02  0.2022E-03  0.3451E+01
   -0.849996   30.36235  0.1900E-14  0.1620E-04  0.4571E-07  0.1716E-02  0.1911E-03  0.3633E+01
   -0.899998   30.36293  0.1900E-14  0.1626E-04  0.4534E-07  0.1743E-02  0.1806E-03  0.3837E+01
   -0.949999   30.36349  0.1900E-14  0.1629E-04  0.4506E-07  0.1762E-02  0.1707E-03  0.4112E+01
   -1.000001   30.36404  0.1900E-14  0.1630E-04  0.4489E-07  0.1772E-02  0.1613E-03  0.4423E+01
   -1.050003   30.36458  0.1900E-14  0.1629E-04  0.4483E-07  0.1772E-02  0.1524E-03  0.5013E+01
   -1.100005   30.36511  0.1900E-14  0.1626E-04  0.4489E-07  0.1864E-02  0.1440E-03  0.1651E+02
   -1.150006   30.36562  0.1900E-14  0.1620E-04  0.4509E-07  0.1682E-02  0.1364E-03  0.3775E+02
   -1.200008   30.36618  0.1900E-14  0.1612E-04  0.4541E-07  0.1712E-02  0.1285E-03  0.7227E+01
   -1.250009   30.36672  0.1900E-14  0.1602E-04  0.4592E-07  0.1681E-02  0.1210E-03  0.7671E+01
   -1.300011   30.36727  0.1900E-14  0.1588E-04  0.4665E-07  0.1630E-02  0.1138E-03  0.8985E+01
   -1.350012   30.36783  0.1900E-14  0.1571E-04  0.4765E-07  0.1570E-02  0.1067E-03  0.1073E+02
   -1.400013   30.36841  0.1900E-14  0.1550E-04  0.4901E-07  0.1491E-02  0.9989E-04  0.1328E+02
   -1.450014   30.36902  0.1900E-14  0.1525E-04  0.5089E-07  0.1413E-02  0.9316E-04  0.1692E+02
   -1.500014   30.36967  0.1900E-14  0.1494E-04  0.5350E-07  0.1298E-02  0.8654E-04  0.2310E+02
   -1.550015   30.37037  0.1900E-14  0.1457E-04  0.5723E-07  0.1215E-02  0.7988E-04  0.3303E+02
   -1.600015   30.37114  0.1900E-14  0.1411E-04  0.6302E-07  0.1067E-02  0.7336E-04  0.1243E+03
   -1.650014   30.37209  0.1900E-14  0.1351E-04  0.7200E-07  0.9899E-03  0.6627E-04  0.5802E+04
   -1.700014   30.37314  0.1900E-14  0.1270E-04  0.8814E-07  0.8053E-03  0.5939E-04  0.2477E+04
   -1.750013   30.37507  0.1900E-14  0.1163E-04  0.1145E-06  0.7290E-03  0.5010E-04  0.1430E+06
   -1.800012   30.37652  0.1900E-14  0.1021E-04  0.1697E-06  0.5046E-03  0.4311E-04  0.4227E+05
   -1.850010   30.38319  0.1900E-14  0.8635E-05  0.2757E-06  0.4640E-03  0.3055E-04  0.1026E+08
   -1.900008   30.38167  0.1900E-14  0.6809E-05  0.5788E-06  0.2111E-03  0.2488E-04 -0.5899E+07
   -1.950005   30.40156  0.1900E-14  0.4788E-05  0.1436E-05  0.1944E-03  0.1324E-04 -0.6231E+06
   -2.000002   30.40276  0.1900E-14  0.0000E+00  0.0000E+00  0.0000E+00  0.2492E-04  0.0000E+00
