 1 - depth, m
 2 - temperature, C
 3 - salinity, kg/kg
 4 - turbulent kinetic energy, m**2/s**2
 5 - dissipation rate, m**2/s**3
 6 - kinematic heat conductance, m**2/s
 7 - modulus of horizontal velocity, m/s
 8 - Richardson number, n/d
   -0.000000   30.09963  0.6503E-13  0.4824E-05  0.2790E-06  0.4969E-04  0.2428E-02  0.4075E+04
   -0.049997   30.12865  0.6503E-13  0.8064E-05  0.1233E-06  0.1853E-03  0.1325E-02  0.2254E+03
   -0.099994   30.13826  0.6503E-13  0.9634E-05  0.8642E-07  0.3814E-03  0.1006E-02  0.7900E+01
   -0.149992   30.14143  0.6503E-13  0.1065E-04  0.7244E-07  0.4736E-03  0.8868E-03  0.3973E+01
   -0.199991   30.14386  0.6503E-13  0.1145E-04  0.6426E-07  0.6230E-03  0.7931E-03  0.2570E+01
   -0.249989   30.14566  0.6503E-13  0.1208E-04  0.5889E-07  0.7460E-03  0.7219E-03  0.1897E+01
   -0.299989   30.14712  0.6503E-13  0.1260E-04  0.5506E-07  0.8647E-03  0.6627E-03  0.1514E+01
   -0.349988   30.14835  0.6503E-13  0.1303E-04  0.5218E-07  0.9707E-03  0.6119E-03  0.1309E+01
   -0.399988   30.14941  0.6503E-13  0.1340E-04  0.4993E-07  0.1069E-02  0.5667E-03  0.1218E+01
   -0.449988   30.15036  0.6503E-13  0.1373E-04  0.4806E-07  0.1166E-02  0.5260E-03  0.1201E+01
   -0.499988   30.15121  0.6503E-13  0.1402E-04  0.4648E-07  0.1260E-02  0.4892E-03  0.1202E+01
   -0.549989   30.15199  0.6503E-13  0.1427E-04  0.4515E-07  0.1347E-02  0.4560E-03  0.1200E+01
   -0.599990   30.15270  0.6503E-13  0.1449E-04  0.4403E-07  0.1426E-02  0.4258E-03  0.1197E+01
   -0.649991   30.15335  0.6503E-13  0.1467E-04  0.4309E-07  0.1497E-02  0.3984E-03  0.1192E+01
   -0.699992   30.15397  0.6503E-13  0.1483E-04  0.4231E-07  0.1559E-02  0.3736E-03  0.1187E+01
   -0.749993   30.15456  0.6503E-13  0.1496E-04  0.4166E-07  0.1611E-02  0.3509E-03  0.1187E+01
   -0.799995   30.15512  0.6503E-13  0.1506E-04  0.4113E-07  0.1653E-02  0.3303E-03  0.1198E+01
   -0.849996   30.15566  0.6503E-13  0.1514E-04  0.4071E-07  0.1688E-02  0.3113E-03  0.1227E+01
   -0.899998   30.15618  0.6503E-13  0.1519E-04  0.4039E-07  0.1713E-02  0.2938E-03  0.1281E+01
   -0.950000   30.15669  0.6503E-13  0.1523E-04  0.4015E-07  0.1731E-02  0.2774E-03  0.1362E+01
   -1.000001   30.15719  0.6503E-13  0.1525E-04  0.4001E-07  0.1742E-02  0.2620E-03  0.1468E+01
   -1.050003   30.15768  0.6503E-13  0.1524E-04  0.3997E-07  0.1743E-02  0.2474E-03  0.1663E+01
   -1.100005   30.15817  0.6503E-13  0.1522E-04  0.4003E-07  0.1826E-02  0.2334E-03  0.5539E+01
   -1.150006   30.15863  0.6503E-13  0.1518E-04  0.4020E-07  0.1666E-02  0.2210E-03  0.1236E+02
   -1.200008   30.15913  0.6503E-13  0.1511E-04  0.4049E-07  0.1689E-02  0.2081E-03  0.2387E+01
   -1.250010   30.15962  0.6503E-13  0.1502E-04  0.4094E-07  0.1660E-02  0.1958E-03  0.2541E+01
   -1.300011   30.16012  0.6503E-13  0.1491E-04  0.4157E-07  0.1613E-02  0.1839E-03  0.2962E+01
   -1.350012   30.16063  0.6503E-13  0.1476E-04  0.4243E-07  0.1556E-02  0.1724E-03  0.3532E+01
   -1.400013   30.16116  0.6503E-13  0.1459E-04  0.4360E-07  0.1482E-02  0.1612E-03  0.4333E+01
   -1.450014   30.16171  0.6503E-13  0.1437E-04  0.4517E-07  0.1407E-02  0.1503E-03  0.5485E+01
   -1.500015   30.16230  0.6503E-13  0.1411E-04  0.4735E-07  0.1299E-02  0.1395E-03  0.7356E+01
   -1.550015   30.16293  0.6503E-13  0.1379E-04  0.5041E-07  0.1217E-02  0.1287E-03  0.1032E+02
   -1.600015   30.16362  0.6503E-13  0.1340E-04  0.5504E-07  0.1072E-02  0.1182E-03  0.1850E+02
   -1.650015   30.16444  0.6503E-13  0.1290E-04  0.6210E-07  0.9975E-03  0.1070E-03  0.8802E+02
   -1.700014   30.16534  0.6503E-13  0.1221E-04  0.7486E-07  0.8128E-03  0.9621E-04  0.9398E+04
   -1.750013   30.16693  0.6503E-13  0.1129E-04  0.9585E-07  0.7384E-03  0.8186E-04  0.4009E+05
   -1.800012   30.16827  0.6503E-13  0.1002E-04  0.1407E-06  0.5160E-03  0.7059E-04  0.9553E+04
   -1.850010   30.17349  0.6503E-13  0.8554E-05  0.2237E-06  0.4725E-03  0.5112E-04  0.1114E+08
   -1.900008   30.17290  0.6503E-13  0.6791E-05  0.4614E-06  0.2126E-03  0.4154E-04 -0.7232E+05
   -1.950006   30.18981  0.6503E-13  0.4696E-05  0.1180E-05  0.1764E-03  0.2262E-04 -0.4386E+06
   -2.000003   30.19280  0.6503E-13  0.0000E+00  0.0000E+00  0.0000E+00  0.3987E-04  0.0000E+00
