 1 - depth, m
 2 - temperature, C
 3 - salinity, kg/kg
 4 - turbulent kinetic energy, m**2/s**2
 5 - dissipation rate, m**2/s**3
 6 - kinematic heat conductance, m**2/s
 7 - modulus of horizontal velocity, m/s
 8 - Richardson number, n/d
   -0.000000   31.57644  0.5780E-14  0.5620E-05  0.3981E-06  0.5516E-04  0.9465E-03  0.9312E+04
   -0.049997   31.61284  0.5780E-14  0.9670E-05  0.1756E-06  0.1908E-03  0.5441E-03  0.7995E+04
   -0.099994   31.62698  0.5780E-14  0.1177E-04  0.1198E-06  0.4297E-03  0.3983E-03  0.7470E+02
   -0.149992   31.63080  0.5780E-14  0.1309E-04  0.1000E-06  0.5085E-03  0.3529E-03  0.2988E+02
   -0.199990   31.63392  0.5780E-14  0.1411E-04  0.8849E-07  0.6866E-03  0.3153E-03  0.1922E+02
   -0.249989   31.63613  0.5780E-14  0.1492E-04  0.8106E-07  0.8184E-03  0.2878E-03  0.1430E+02
   -0.299988   31.63793  0.5780E-14  0.1558E-04  0.7580E-07  0.9543E-03  0.2648E-03  0.1131E+02
   -0.349987   31.63943  0.5780E-14  0.1612E-04  0.7186E-07  0.1075E-02  0.2452E-03  0.9672E+01
   -0.399987   31.64073  0.5780E-14  0.1657E-04  0.6881E-07  0.1187E-02  0.2279E-03  0.8580E+01
   -0.449987   31.64188  0.5780E-14  0.1696E-04  0.6633E-07  0.1289E-02  0.2127E-03  0.8057E+01
   -0.499987   31.64292  0.5780E-14  0.1730E-04  0.6429E-07  0.1383E-02  0.1992E-03  0.7794E+01
   -0.549988   31.64387  0.5780E-14  0.1758E-04  0.6258E-07  0.1469E-02  0.1871E-03  0.7696E+01
   -0.599989   31.64475  0.5780E-14  0.1783E-04  0.6114E-07  0.1547E-02  0.1761E-03  0.7657E+01
   -0.649990   31.64557  0.5780E-14  0.1804E-04  0.5992E-07  0.1616E-02  0.1661E-03  0.7764E+01
   -0.699991   31.64634  0.5780E-14  0.1821E-04  0.5890E-07  0.1676E-02  0.1568E-03  0.7897E+01
   -0.749992   31.64708  0.5780E-14  0.1835E-04  0.5805E-07  0.1728E-02  0.1483E-03  0.8176E+01
   -0.799994   31.64778  0.5780E-14  0.1847E-04  0.5735E-07  0.1772E-02  0.1403E-03  0.8475E+01
   -0.849995   31.64846  0.5780E-14  0.1855E-04  0.5679E-07  0.1806E-02  0.1328E-03  0.8940E+01
   -0.899997   31.64912  0.5780E-14  0.1861E-04  0.5636E-07  0.1832E-02  0.1258E-03  0.9437E+01
   -0.949998   31.64976  0.5780E-14  0.1864E-04  0.5607E-07  0.1848E-02  0.1192E-03  0.1015E+02
   -1.000000   31.65039  0.5780E-14  0.1864E-04  0.5591E-07  0.1856E-02  0.1129E-03  0.1092E+02
   -1.050002   31.65101  0.5780E-14  0.1862E-04  0.5590E-07  0.1852E-02  0.1069E-03  0.1241E+02
   -1.100003   31.65163  0.5780E-14  0.1857E-04  0.5605E-07  0.1970E-02  0.1012E-03  0.3980E+02
   -1.150005   31.65220  0.5780E-14  0.1849E-04  0.5640E-07  0.1718E-02  0.9613E-04  0.9907E+02
   -1.200006   31.65286  0.5780E-14  0.1838E-04  0.5692E-07  0.1768E-02  0.9067E-04  0.1837E+02
   -1.250008   31.65349  0.5780E-14  0.1824E-04  0.5770E-07  0.1735E-02  0.8553E-04  0.1950E+02
   -1.300009   31.65413  0.5780E-14  0.1806E-04  0.5880E-07  0.1674E-02  0.8057E-04  0.2317E+02
   -1.350010   31.65480  0.5780E-14  0.1783E-04  0.6031E-07  0.1606E-02  0.7573E-04  0.2802E+02
   -1.400011   31.65549  0.5780E-14  0.1756E-04  0.6238E-07  0.1515E-02  0.7098E-04  0.3560E+02
   -1.450012   31.65622  0.5780E-14  0.1723E-04  0.6526E-07  0.1431E-02  0.6629E-04  0.4655E+02
   -1.500012   31.65700  0.5780E-14  0.1683E-04  0.6935E-07  0.1308E-02  0.6164E-04  0.6678E+02
   -1.550013   31.65788  0.5780E-14  0.1634E-04  0.7534E-07  0.1225E-02  0.5692E-04  0.1086E+03
   -1.600013   31.65884  0.5780E-14  0.1571E-04  0.8504E-07  0.1075E-02  0.5225E-04  0.5351E+04
   -1.650012   31.66015  0.5780E-14  0.1488E-04  0.1003E-06  0.9860E-03  0.4692E-04  0.8692E+04
   -1.700012   31.66164  0.5780E-14  0.1375E-04  0.1277E-06  0.8021E-03  0.4159E-04  0.8675E+05
   -1.750011   31.66441  0.5780E-14  0.1243E-04  0.1703E-06  0.7212E-03  0.3442E-04  0.1182E+07
   -1.800009   31.66596  0.5780E-14  0.1078E-04  0.2648E-06  0.4955E-03  0.2972E-04  0.3673E+05
   -1.850008   31.67657  0.5780E-14  0.9153E-05  0.4440E-06  0.4704E-03  0.2020E-04  0.3610E+09
   -1.900005   31.67202  0.5780E-14  0.7315E-05  0.9322E-06  0.2203E-03  0.1684E-04 -0.1227E+07
   -1.950003   31.69910  0.5780E-14  0.5293E-05  0.2178E-05  0.2318E-03  0.8898E-05 -0.1629E+07
   -2.000000   31.69840  0.5780E-14  0.0000E+00  0.0000E+00  0.0000E+00  0.1816E-04  0.0000E+00
