 1 - depth, m
 2 - temperature, C
 3 - salinity, kg/kg
 4 - turbulent kinetic energy, m**2/s**2
 5 - dissipation rate, m**2/s**3
 6 - kinematic heat conductance, m**2/s
 7 - modulus of horizontal velocity, m/s
 8 - Richardson number, n/d
   -0.000000   30.31972  0.1088E-14  0.4895E-05  0.3109E-06  0.5156E-04  0.1249E-02  0.4333E+04
   -0.049997   30.35040  0.1088E-14  0.8435E-05  0.1383E-06  0.1773E-03  0.7166E-03  0.3270E+04
   -0.099994   30.36272  0.1088E-14  0.1026E-04  0.9488E-07  0.4082E-03  0.5218E-03  0.3687E+02
   -0.149992   30.36599  0.1088E-14  0.1140E-04  0.7969E-07  0.4854E-03  0.4613E-03  0.1808E+02
   -0.199991   30.36863  0.1088E-14  0.1229E-04  0.7079E-07  0.6516E-03  0.4119E-03  0.1163E+02
   -0.249989   30.37054  0.1088E-14  0.1299E-04  0.6498E-07  0.7785E-03  0.3751E-03  0.8649E+01
   -0.299988   30.37210  0.1088E-14  0.1357E-04  0.6084E-07  0.9058E-03  0.3445E-03  0.6878E+01
   -0.349988   30.37340  0.1088E-14  0.1405E-04  0.5775E-07  0.1021E-02  0.3183E-03  0.5917E+01
   -0.399988   30.37453  0.1088E-14  0.1445E-04  0.5534E-07  0.1126E-02  0.2951E-03  0.5256E+01
   -0.449988   30.37554  0.1088E-14  0.1480E-04  0.5339E-07  0.1224E-02  0.2747E-03  0.4962E+01
   -0.499988   30.37645  0.1088E-14  0.1510E-04  0.5178E-07  0.1314E-02  0.2567E-03  0.4801E+01
   -0.549989   30.37728  0.1088E-14  0.1536E-04  0.5044E-07  0.1396E-02  0.2405E-03  0.4766E+01
   -0.599989   30.37805  0.1088E-14  0.1558E-04  0.4932E-07  0.1470E-02  0.2259E-03  0.4739E+01
   -0.649990   30.37876  0.1088E-14  0.1578E-04  0.4837E-07  0.1537E-02  0.2125E-03  0.4830E+01
   -0.699992   30.37944  0.1088E-14  0.1594E-04  0.4757E-07  0.1596E-02  0.2003E-03  0.4906E+01
   -0.749993   30.38009  0.1088E-14  0.1608E-04  0.4691E-07  0.1647E-02  0.1889E-03  0.5102E+01
   -0.799994   30.38070  0.1088E-14  0.1619E-04  0.4636E-07  0.1690E-02  0.1784E-03  0.5279E+01
   -0.849996   30.38130  0.1088E-14  0.1628E-04  0.4593E-07  0.1725E-02  0.1686E-03  0.5588E+01
   -0.899998   30.38187  0.1088E-14  0.1635E-04  0.4561E-07  0.1753E-02  0.1593E-03  0.5883E+01
   -0.949999   30.38244  0.1088E-14  0.1639E-04  0.4538E-07  0.1771E-02  0.1506E-03  0.6339E+01
   -1.000001   30.38299  0.1088E-14  0.1642E-04  0.4527E-07  0.1782E-02  0.1424E-03  0.6796E+01
   -1.050003   30.38353  0.1088E-14  0.1642E-04  0.4526E-07  0.1782E-02  0.1345E-03  0.7748E+01
   -1.100004   30.38407  0.1088E-14  0.1639E-04  0.4537E-07  0.1873E-02  0.1270E-03  0.2554E+02
   -1.150006   30.38458  0.1088E-14  0.1635E-04  0.4563E-07  0.1692E-02  0.1204E-03  0.5763E+02
   -1.200008   30.38515  0.1088E-14  0.1628E-04  0.4602E-07  0.1721E-02  0.1134E-03  0.1117E+02
   -1.250009   30.38570  0.1088E-14  0.1618E-04  0.4659E-07  0.1690E-02  0.1068E-03  0.1184E+02
   -1.300010   30.38626  0.1088E-14  0.1605E-04  0.4739E-07  0.1639E-02  0.1004E-03  0.1393E+02
   -1.350012   30.38683  0.1088E-14  0.1589E-04  0.4847E-07  0.1579E-02  0.9422E-04  0.1656E+02
   -1.400013   30.38742  0.1088E-14  0.1569E-04  0.4992E-07  0.1499E-02  0.8816E-04  0.2056E+02
   -1.450013   30.38805  0.1088E-14  0.1545E-04  0.5189E-07  0.1421E-02  0.8222E-04  0.2603E+02
   -1.500014   30.38871  0.1088E-14  0.1515E-04  0.5462E-07  0.1306E-02  0.7637E-04  0.3552E+02
   -1.550014   30.38944  0.1088E-14  0.1479E-04  0.5848E-07  0.1222E-02  0.7049E-04  0.5033E+02
   -1.600014   30.39023  0.1088E-14  0.1433E-04  0.6442E-07  0.1074E-02  0.6472E-04  0.1018E+03
   -1.650014   30.39121  0.1088E-14  0.1375E-04  0.7360E-07  0.9957E-03  0.5848E-04  0.4720E+04
   -1.700014   30.39230  0.1088E-14  0.1294E-04  0.8994E-07  0.8102E-03  0.5237E-04 -0.4823E+04
   -1.750013   30.39428  0.1088E-14  0.1188E-04  0.1166E-06  0.7318E-03  0.4416E-04  0.2486E+06
   -1.800011   30.39582  0.1088E-14  0.1046E-04  0.1736E-06  0.5129E-03  0.3795E-04  0.1769E+06
   -1.850010   30.40262  0.1088E-14  0.8894E-05  0.2806E-06  0.4697E-03  0.2687E-04  0.1195E+08
   -1.900008   30.40116  0.1088E-14  0.7028E-05  0.5877E-06  0.2141E-03  0.2192E-04  0.2129E+07
   -1.950005   30.42181  0.1088E-14  0.4952E-05  0.1461E-05  0.1937E-03  0.1166E-04 -0.1198E+07
   -2.000002   30.42370  0.1088E-14  0.0000E+00  0.0000E+00  0.0000E+00  0.2195E-04  0.0000E+00
