 1 - depth, m
 2 - temperature, C
 3 - salinity, kg/kg
 4 - turbulent kinetic energy, m**2/s**2
 5 - dissipation rate, m**2/s**3
 6 - kinematic heat conductance, m**2/s
 7 - modulus of horizontal velocity, m/s
 8 - Richardson number, n/d
   -0.000000   30.04035  0.1768E-13  0.4559E-05  0.2744E-06  0.4900E-04  0.1423E-02  0.6357E+04
   -0.049997   30.06896  0.1768E-13  0.7853E-05  0.1223E-06  0.1743E-03  0.8085E-03  0.1301E+03
   -0.099994   30.07992  0.1768E-13  0.9531E-05  0.8435E-07  0.3929E-03  0.5914E-03  0.2307E+02
   -0.149992   30.08295  0.1768E-13  0.1058E-04  0.7089E-07  0.4736E-03  0.5220E-03  0.1126E+02
   -0.199991   30.08537  0.1768E-13  0.1140E-04  0.6301E-07  0.6319E-03  0.4659E-03  0.7244E+01
   -0.249989   30.08712  0.1768E-13  0.1206E-04  0.5786E-07  0.7557E-03  0.4239E-03  0.5342E+01
   -0.299989   30.08855  0.1768E-13  0.1259E-04  0.5419E-07  0.8786E-03  0.3889E-03  0.4260E+01
   -0.349988   30.08976  0.1768E-13  0.1304E-04  0.5144E-07  0.9902E-03  0.3589E-03  0.3640E+01
   -0.399988   30.09080  0.1768E-13  0.1342E-04  0.4931E-07  0.1092E-02  0.3325E-03  0.3251E+01
   -0.449988   30.09173  0.1768E-13  0.1374E-04  0.4758E-07  0.1187E-02  0.3092E-03  0.3047E+01
   -0.499988   30.09257  0.1768E-13  0.1403E-04  0.4616E-07  0.1275E-02  0.2886E-03  0.2971E+01
   -0.549989   30.09333  0.1768E-13  0.1427E-04  0.4497E-07  0.1355E-02  0.2701E-03  0.2927E+01
   -0.599990   30.09404  0.1768E-13  0.1449E-04  0.4398E-07  0.1428E-02  0.2535E-03  0.2937E+01
   -0.649991   30.09470  0.1768E-13  0.1468E-04  0.4315E-07  0.1493E-02  0.2383E-03  0.2968E+01
   -0.699992   30.09533  0.1768E-13  0.1484E-04  0.4245E-07  0.1551E-02  0.2243E-03  0.3046E+01
   -0.749993   30.09592  0.1768E-13  0.1497E-04  0.4187E-07  0.1602E-02  0.2114E-03  0.3141E+01
   -0.799995   30.09649  0.1768E-13  0.1508E-04  0.4140E-07  0.1645E-02  0.1994E-03  0.3284E+01
   -0.849996   30.09704  0.1768E-13  0.1518E-04  0.4102E-07  0.1681E-02  0.1883E-03  0.3447E+01
   -0.899998   30.09757  0.1768E-13  0.1525E-04  0.4075E-07  0.1708E-02  0.1778E-03  0.3669E+01
   -0.950000   30.09809  0.1768E-13  0.1530E-04  0.4056E-07  0.1728E-02  0.1679E-03  0.3921E+01
   -1.000001   30.09860  0.1768E-13  0.1533E-04  0.4046E-07  0.1740E-02  0.1586E-03  0.4249E+01
   -1.050003   30.09910  0.1768E-13  0.1534E-04  0.4047E-07  0.1743E-02  0.1497E-03  0.4811E+01
   -1.100005   30.09960  0.1768E-13  0.1533E-04  0.4057E-07  0.1820E-02  0.1413E-03  0.1615E+02
   -1.150006   30.10007  0.1768E-13  0.1530E-04  0.4080E-07  0.1675E-02  0.1337E-03  0.3572E+02
   -1.200008   30.10059  0.1768E-13  0.1525E-04  0.4115E-07  0.1692E-02  0.1260E-03  0.6932E+01
   -1.250010   30.10110  0.1768E-13  0.1517E-04  0.4165E-07  0.1663E-02  0.1185E-03  0.7429E+01
   -1.300011   30.10161  0.1768E-13  0.1507E-04  0.4234E-07  0.1617E-02  0.1113E-03  0.8662E+01
   -1.350012   30.10214  0.1768E-13  0.1494E-04  0.4326E-07  0.1561E-02  0.1044E-03  0.1038E+02
   -1.400013   30.10269  0.1768E-13  0.1477E-04  0.4450E-07  0.1488E-02  0.9763E-04  0.1276E+02
   -1.450014   30.10326  0.1768E-13  0.1457E-04  0.4616E-07  0.1414E-02  0.9100E-04  0.1625E+02
   -1.500015   30.10387  0.1768E-13  0.1432E-04  0.4843E-07  0.1307E-02  0.8452E-04  0.2187E+02
   -1.550015   30.10453  0.1768E-13  0.1401E-04  0.5160E-07  0.1224E-02  0.7801E-04  0.3098E+02
   -1.600015   30.10525  0.1768E-13  0.1363E-04  0.5638E-07  0.1082E-02  0.7165E-04  0.5729E+02
   -1.650015   30.10611  0.1768E-13  0.1313E-04  0.6368E-07  0.1004E-02  0.6488E-04  0.4504E+04
   -1.700014   30.10707  0.1768E-13  0.1245E-04  0.7669E-07  0.8194E-03  0.5834E-04  0.1061E+04
   -1.750013   30.10874  0.1768E-13  0.1154E-04  0.9797E-07  0.7452E-03  0.4975E-04  0.1335E+06
   -1.800012   30.11018  0.1768E-13  0.1030E-04  0.1426E-06  0.5195E-03  0.4296E-04  0.7169E+05
   -1.850010   30.11562  0.1768E-13  0.8860E-05  0.2264E-06  0.4806E-03  0.3147E-04  0.2941E+09
   -1.900008   30.11495  0.1768E-13  0.7089E-05  0.4670E-06  0.2160E-03  0.2569E-04 -0.2581E+06
   -1.950006   30.13263  0.1768E-13  0.4887E-05  0.1192E-05  0.1751E-03  0.1420E-04 -0.1113E+07
   -2.000003   30.13595  0.1768E-13  0.0000E+00  0.0000E+00  0.0000E+00  0.2430E-04  0.0000E+00
