 1 - depth, m
 2 - temperature, C
 3 - salinity, kg/kg
 4 - turbulent kinetic energy, m**2/s**2
 5 - dissipation rate, m**2/s**3
 6 - kinematic heat conductance, m**2/s
 7 - modulus of horizontal velocity, m/s
 8 - Richardson number, n/d
   -0.000000   30.49238  0.1707E-14  0.5129E-05  0.3067E-06  0.5130E-04  0.2528E-02  0.3236E+04
   -0.049997   30.52302  0.1707E-14  0.8537E-05  0.1353E-06  0.1901E-03  0.1389E-02  0.3261E+02
   -0.099994   30.53339  0.1707E-14  0.1020E-04  0.9458E-07  0.3912E-03  0.1056E-02  0.7670E+01
   -0.149992   30.53673  0.1707E-14  0.1128E-04  0.7928E-07  0.4834E-03  0.9338E-03  0.3871E+01
   -0.199991   30.53932  0.1707E-14  0.1211E-04  0.7032E-07  0.6363E-03  0.8369E-03  0.2503E+01
   -0.249989   30.54123  0.1707E-14  0.1278E-04  0.6445E-07  0.7604E-03  0.7634E-03  0.1851E+01
   -0.299988   30.54278  0.1707E-14  0.1333E-04  0.6026E-07  0.8788E-03  0.7022E-03  0.1487E+01
   -0.349988   30.54409  0.1707E-14  0.1379E-04  0.5710E-07  0.9854E-03  0.6494E-03  0.1325E+01
   -0.399988   30.54523  0.1707E-14  0.1418E-04  0.5458E-07  0.1090E-02  0.6014E-03  0.1264E+01
   -0.449988   30.54624  0.1707E-14  0.1453E-04  0.5246E-07  0.1195E-02  0.5577E-03  0.1244E+01
   -0.499988   30.54714  0.1707E-14  0.1484E-04  0.5069E-07  0.1293E-02  0.5181E-03  0.1243E+01
   -0.549989   30.54795  0.1707E-14  0.1511E-04  0.4919E-07  0.1384E-02  0.4824E-03  0.1238E+01
   -0.599990   30.54870  0.1707E-14  0.1534E-04  0.4792E-07  0.1467E-02  0.4500E-03  0.1236E+01
   -0.649991   30.54940  0.1707E-14  0.1554E-04  0.4686E-07  0.1540E-02  0.4206E-03  0.1232E+01
   -0.699992   30.55005  0.1707E-14  0.1570E-04  0.4596E-07  0.1605E-02  0.3939E-03  0.1231E+01
   -0.749993   30.55066  0.1707E-14  0.1583E-04  0.4522E-07  0.1659E-02  0.3695E-03  0.1230E+01
   -0.799995   30.55125  0.1707E-14  0.1593E-04  0.4462E-07  0.1703E-02  0.3473E-03  0.1237E+01
   -0.849996   30.55181  0.1707E-14  0.1600E-04  0.4413E-07  0.1738E-02  0.3270E-03  0.1249E+01
   -0.899998   30.55236  0.1707E-14  0.1605E-04  0.4376E-07  0.1763E-02  0.3084E-03  0.1278E+01
   -0.950000   30.55289  0.1707E-14  0.1608E-04  0.4349E-07  0.1780E-02  0.2912E-03  0.1327E+01
   -1.000001   30.55341  0.1707E-14  0.1608E-04  0.4332E-07  0.1788E-02  0.2751E-03  0.1413E+01
   -1.050003   30.55392  0.1707E-14  0.1606E-04  0.4326E-07  0.1787E-02  0.2600E-03  0.1587E+01
   -1.100005   30.55443  0.1707E-14  0.1602E-04  0.4330E-07  0.1884E-02  0.2457E-03  0.5228E+01
   -1.150006   30.55491  0.1707E-14  0.1596E-04  0.4348E-07  0.1686E-02  0.2329E-03  0.1199E+02
   -1.200008   30.55544  0.1707E-14  0.1588E-04  0.4378E-07  0.1722E-02  0.2195E-03  0.2282E+01
   -1.250009   30.55595  0.1707E-14  0.1577E-04  0.4426E-07  0.1691E-02  0.2067E-03  0.2424E+01
   -1.300011   30.55647  0.1707E-14  0.1563E-04  0.4493E-07  0.1639E-02  0.1944E-03  0.2825E+01
   -1.350012   30.55700  0.1707E-14  0.1546E-04  0.4587E-07  0.1578E-02  0.1824E-03  0.3373E+01
   -1.400013   30.55755  0.1707E-14  0.1525E-04  0.4715E-07  0.1499E-02  0.1708E-03  0.4149E+01
   -1.450014   30.55813  0.1707E-14  0.1500E-04  0.4889E-07  0.1419E-02  0.1593E-03  0.5270E+01
   -1.500014   30.55874  0.1707E-14  0.1470E-04  0.5133E-07  0.1305E-02  0.1481E-03  0.7115E+01
   -1.550015   30.55940  0.1707E-14  0.1433E-04  0.5480E-07  0.1217E-02  0.1367E-03  0.1011E+02
   -1.600015   30.56011  0.1707E-14  0.1388E-04  0.6010E-07  0.1072E-02  0.1256E-03  0.2223E+02
   -1.650015   30.56098  0.1707E-14  0.1331E-04  0.6832E-07  0.9890E-03  0.1137E-03  0.9602E+03
   -1.700014   30.56195  0.1707E-14  0.1253E-04  0.8303E-07  0.8079E-03  0.1020E-03  0.1693E+03
   -1.750013   30.56367  0.1707E-14  0.1148E-04  0.1075E-06  0.7239E-03  0.8658E-04  0.1536E+05
   -1.800012   30.56516  0.1707E-14  0.1005E-04  0.1608E-06  0.5028E-03  0.7409E-04  0.4128E+06
   -1.850010   30.57098  0.1707E-14  0.8482E-05  0.2575E-06  0.4575E-03  0.5298E-04  0.6341E+07
   -1.900008   30.57001  0.1707E-14  0.6617E-05  0.5378E-06  0.2046E-03  0.4278E-04 -0.1686E+05
   -1.950006   30.58854  0.1707E-14  0.4642E-05  0.1329E-05  0.1930E-03  0.2255E-04 -0.2161E+06
   -2.000003   30.58893  0.1707E-14  0.0000E+00  0.0000E+00  0.0000E+00  0.4258E-04  0.0000E+00
