 1 - depth, m
 2 - temperature, C
 3 - salinity, kg/kg
 4 - turbulent kinetic energy, m**2/s**2
 5 - dissipation rate, m**2/s**3
 6 - kinematic heat conductance, m**2/s
 7 - modulus of horizontal velocity, m/s
 8 - Richardson number, n/d
   -0.000000   29.63317  0.2950E-13  0.4313E-05  0.2482E-06  0.4593E-04  0.9819E-03  0.2266E+05
   -0.049997   29.66196  0.2950E-13  0.7541E-05  0.1106E-06  0.1770E-03  0.5437E-03  0.6689E+02
   -0.099994   29.67197  0.2950E-13  0.9106E-05  0.7726E-07  0.3864E-03  0.4025E-03  0.5282E+02
   -0.149992   29.67489  0.2950E-13  0.1009E-04  0.6520E-07  0.4700E-03  0.3551E-03  0.2572E+02
   -0.199991   29.67720  0.2950E-13  0.1086E-04  0.5807E-07  0.6216E-03  0.3171E-03  0.1674E+02
   -0.249990   29.67889  0.2950E-13  0.1147E-04  0.5337E-07  0.7422E-03  0.2884E-03  0.1237E+02
   -0.299989   29.68027  0.2950E-13  0.1197E-04  0.4999E-07  0.8609E-03  0.2645E-03  0.9889E+01
   -0.349988   29.68143  0.2950E-13  0.1238E-04  0.4745E-07  0.9687E-03  0.2440E-03  0.8440E+01
   -0.399988   29.68243  0.2950E-13  0.1273E-04  0.4547E-07  0.1067E-02  0.2258E-03  0.7555E+01
   -0.449988   29.68332  0.2950E-13  0.1303E-04  0.4385E-07  0.1159E-02  0.2098E-03  0.7074E+01
   -0.499988   29.68413  0.2950E-13  0.1329E-04  0.4251E-07  0.1243E-02  0.1957E-03  0.6921E+01
   -0.549989   29.68487  0.2950E-13  0.1351E-04  0.4138E-07  0.1321E-02  0.1830E-03  0.6803E+01
   -0.599990   29.68555  0.2950E-13  0.1370E-04  0.4042E-07  0.1391E-02  0.1716E-03  0.6844E+01
   -0.649991   29.68618  0.2950E-13  0.1387E-04  0.3961E-07  0.1454E-02  0.1612E-03  0.6896E+01
   -0.699992   29.68678  0.2950E-13  0.1401E-04  0.3892E-07  0.1510E-02  0.1516E-03  0.7090E+01
   -0.749994   29.68735  0.2950E-13  0.1413E-04  0.3834E-07  0.1559E-02  0.1427E-03  0.7280E+01
   -0.799995   29.68790  0.2950E-13  0.1422E-04  0.3785E-07  0.1601E-02  0.1345E-03  0.7625E+01
   -0.849997   29.68842  0.2950E-13  0.1429E-04  0.3745E-07  0.1635E-02  0.1269E-03  0.7963E+01
   -0.899998   29.68893  0.2950E-13  0.1435E-04  0.3713E-07  0.1662E-02  0.1197E-03  0.8484E+01
   -0.950000   29.68942  0.2950E-13  0.1438E-04  0.3689E-07  0.1682E-02  0.1129E-03  0.9012E+01
   -1.000002   29.68990  0.2950E-13  0.1440E-04  0.3674E-07  0.1694E-02  0.1065E-03  0.9771E+01
   -1.050004   29.69037  0.2950E-13  0.1440E-04  0.3667E-07  0.1697E-02  0.1005E-03  0.1099E+02
   -1.100005   29.69084  0.2950E-13  0.1438E-04  0.3669E-07  0.1771E-02  0.9473E-04  0.3705E+02
   -1.150007   29.69128  0.2950E-13  0.1433E-04  0.3681E-07  0.1633E-02  0.8957E-04  0.8093E+02
   -1.200009   29.69176  0.2950E-13  0.1427E-04  0.3704E-07  0.1649E-02  0.8429E-04  0.1567E+02
   -1.250010   29.69223  0.2950E-13  0.1419E-04  0.3741E-07  0.1622E-02  0.7922E-04  0.1673E+02
   -1.300011   29.69270  0.2950E-13  0.1408E-04  0.3793E-07  0.1578E-02  0.7435E-04  0.1935E+02
   -1.350013   29.69319  0.2950E-13  0.1395E-04  0.3865E-07  0.1524E-02  0.6963E-04  0.2307E+02
   -1.400014   29.69368  0.2950E-13  0.1378E-04  0.3964E-07  0.1454E-02  0.6506E-04  0.2802E+02
   -1.450015   29.69420  0.2950E-13  0.1358E-04  0.4097E-07  0.1381E-02  0.6058E-04  0.3533E+02
   -1.500015   29.69475  0.2950E-13  0.1334E-04  0.4282E-07  0.1279E-02  0.5620E-04  0.4661E+02
   -1.550016   29.69534  0.2950E-13  0.1304E-04  0.4540E-07  0.1195E-02  0.5182E-04  0.6459E+02
   -1.600016   29.69597  0.2950E-13  0.1268E-04  0.4926E-07  0.1056E-02  0.4755E-04  0.1042E+03
   -1.650015   29.69671  0.2950E-13  0.1223E-04  0.5511E-07  0.9789E-03  0.4306E-04  0.5001E+03
   -1.700015   29.69752  0.2950E-13  0.1161E-04  0.6571E-07  0.8043E-03  0.3874E-04 -0.1054E+05
   -1.750014   29.69888  0.2950E-13  0.1076E-04  0.8350E-07  0.7247E-03  0.3317E-04  0.1791E+06
   -1.800013   29.70019  0.2950E-13  0.9561E-05  0.1193E-06  0.5101E-03  0.2848E-04  0.1429E+06
   -1.850011   29.70442  0.2950E-13  0.8120E-05  0.1875E-06  0.4581E-03  0.2080E-04  0.7185E+07
   -1.900009   29.70455  0.2950E-13  0.6400E-05  0.3890E-06  0.2066E-03  0.1667E-04  0.1303E+07
   -1.950007   29.71950  0.2950E-13  0.4395E-05  0.1002E-05  0.1674E-03  0.9054E-05 -0.1838E+07
   -2.000004   29.72194  0.2950E-13  0.0000E+00  0.0000E+00  0.0000E+00  0.1585E-04  0.0000E+00
