 1 - depth, m
 2 - temperature, C
 3 - salinity, kg/kg
 4 - turbulent kinetic energy, m**2/s**2
 5 - dissipation rate, m**2/s**3
 6 - kinematic heat conductance, m**2/s
 7 - modulus of horizontal velocity, m/s
 8 - Richardson number, n/d
   -0.000000   30.26455  0.4636E-13  0.4844E-05  0.2970E-06  0.4834E-04  0.1153E-02  0.2344E+04
   -0.049997   30.29741  0.4636E-13  0.8370E-05  0.1325E-06  0.1854E-03  0.6439E-03  0.9025E+02
   -0.099994   30.30867  0.4636E-13  0.1010E-04  0.9231E-07  0.3963E-03  0.4786E-03  0.4156E+02
   -0.149992   30.31204  0.4636E-13  0.1119E-04  0.7759E-07  0.4835E-03  0.4224E-03  0.2058E+02
   -0.199991   30.31468  0.4636E-13  0.1204E-04  0.6891E-07  0.6414E-03  0.3774E-03  0.1325E+02
   -0.249989   30.31660  0.4636E-13  0.1271E-04  0.6319E-07  0.7657E-03  0.3435E-03  0.9813E+01
   -0.299989   30.31817  0.4636E-13  0.1325E-04  0.5909E-07  0.8892E-03  0.3153E-03  0.7802E+01
   -0.349988   30.31948  0.4636E-13  0.1369E-04  0.5599E-07  0.1001E-02  0.2911E-03  0.6678E+01
   -0.399988   30.32061  0.4636E-13  0.1407E-04  0.5357E-07  0.1103E-02  0.2698E-03  0.5942E+01
   -0.449988   30.32161  0.4636E-13  0.1439E-04  0.5159E-07  0.1197E-02  0.2509E-03  0.5586E+01
   -0.499988   30.32252  0.4636E-13  0.1466E-04  0.4994E-07  0.1284E-02  0.2343E-03  0.5426E+01
   -0.549989   30.32335  0.4636E-13  0.1489E-04  0.4855E-07  0.1364E-02  0.2193E-03  0.5359E+01
   -0.599990   30.32411  0.4636E-13  0.1509E-04  0.4737E-07  0.1435E-02  0.2059E-03  0.5350E+01
   -0.649991   30.32482  0.4636E-13  0.1526E-04  0.4635E-07  0.1500E-02  0.1935E-03  0.5420E+01
   -0.699992   30.32549  0.4636E-13  0.1539E-04  0.4548E-07  0.1556E-02  0.1822E-03  0.5527E+01
   -0.749993   30.32612  0.4636E-13  0.1550E-04  0.4474E-07  0.1606E-02  0.1718E-03  0.5711E+01
   -0.799995   30.32673  0.4636E-13  0.1559E-04  0.4411E-07  0.1647E-02  0.1621E-03  0.5930E+01
   -0.849996   30.32731  0.4636E-13  0.1565E-04  0.4359E-07  0.1681E-02  0.1530E-03  0.6237E+01
   -0.899998   30.32787  0.4636E-13  0.1569E-04  0.4317E-07  0.1707E-02  0.1445E-03  0.6589E+01
   -0.950000   30.32842  0.4636E-13  0.1571E-04  0.4284E-07  0.1725E-02  0.1364E-03  0.7053E+01
   -1.000001   30.32895  0.4636E-13  0.1571E-04  0.4262E-07  0.1734E-02  0.1288E-03  0.7587E+01
   -1.050003   30.32947  0.4636E-13  0.1568E-04  0.4249E-07  0.1734E-02  0.1216E-03  0.8590E+01
   -1.100005   30.32999  0.4636E-13  0.1563E-04  0.4248E-07  0.1826E-02  0.1148E-03  0.2818E+02
   -1.150007   30.33047  0.4636E-13  0.1556E-04  0.4259E-07  0.1641E-02  0.1087E-03  0.6538E+02
   -1.200008   30.33101  0.4636E-13  0.1547E-04  0.4283E-07  0.1672E-02  0.1023E-03  0.1241E+02
   -1.250010   30.33152  0.4636E-13  0.1535E-04  0.4324E-07  0.1642E-02  0.9623E-04  0.1315E+02
   -1.300011   30.33204  0.4636E-13  0.1520E-04  0.4386E-07  0.1591E-02  0.9037E-04  0.1541E+02
   -1.350012   30.33258  0.4636E-13  0.1502E-04  0.4473E-07  0.1531E-02  0.8471E-04  0.1842E+02
   -1.400013   30.33313  0.4636E-13  0.1480E-04  0.4595E-07  0.1453E-02  0.7918E-04  0.2284E+02
   -1.450014   30.33370  0.4636E-13  0.1454E-04  0.4764E-07  0.1376E-02  0.7376E-04  0.2914E+02
   -1.500015   30.33431  0.4636E-13  0.1423E-04  0.5004E-07  0.1261E-02  0.6844E-04  0.3992E+02
   -1.550015   30.33497  0.4636E-13  0.1385E-04  0.5349E-07  0.1182E-02  0.6308E-04  0.5724E+02
   -1.600015   30.33568  0.4636E-13  0.1339E-04  0.5892E-07  0.1036E-02  0.5785E-04  0.1206E+03
   -1.650015   30.33656  0.4636E-13  0.1279E-04  0.6746E-07  0.9631E-03  0.5217E-04  0.5533E+03
   -1.700014   30.33755  0.4636E-13  0.1197E-04  0.8299E-07  0.7810E-03  0.4663E-04 -0.8011E+03
   -1.750013   30.33938  0.4636E-13  0.1088E-04  0.1085E-06  0.7048E-03  0.3903E-04  0.3505E+06
   -1.800012   30.34080  0.4636E-13  0.9459E-05  0.1645E-06  0.4883E-03  0.3336E-04  0.3185E+05
   -1.850011   30.34711  0.4636E-13  0.7934E-05  0.2671E-06  0.4521E-03  0.2313E-04  0.2664E+10
   -1.900008   30.34531  0.4636E-13  0.6268E-05  0.5635E-06  0.2090E-03  0.1895E-04  0.1542E+06
   -1.950006   30.36347  0.4636E-13  0.4404E-05  0.1401E-05  0.1949E-03  0.9939E-05 -0.5656E+06
   -2.000003   30.36558  0.4636E-13  0.0000E+00  0.0000E+00  0.0000E+00  0.1960E-04  0.0000E+00
