 1 - depth, m
 2 - temperature, C
 3 - salinity, kg/kg
 4 - turbulent kinetic energy, m**2/s**2
 5 - dissipation rate, m**2/s**3
 6 - kinematic heat conductance, m**2/s
 7 - modulus of horizontal velocity, m/s
 8 - Richardson number, n/d
   -0.000000   30.72784  0.3099E-14  0.4866E-05  0.2985E-06  0.4807E-04  0.3735E-03  0.1619E+06
   -0.049997   30.76097  0.3099E-14  0.8667E-05  0.1327E-06  0.1950E-03  0.2070E-03  0.9696E+05
   -0.099994   30.77123  0.3099E-14  0.1043E-04  0.9321E-07  0.4207E-03  0.1532E-03  0.4254E+03
   -0.149992   30.77439  0.3099E-14  0.1156E-04  0.7890E-07  0.5032E-03  0.1359E-03  0.2140E+03
   -0.199991   30.77691  0.3099E-14  0.1244E-04  0.7044E-07  0.6691E-03  0.1217E-03  0.1413E+03
   -0.249989   30.77875  0.3099E-14  0.1314E-04  0.6487E-07  0.7977E-03  0.1111E-03  0.1051E+03
   -0.299988   30.78026  0.3099E-14  0.1372E-04  0.6088E-07  0.9247E-03  0.1022E-03  0.8463E+02
   -0.349988   30.78153  0.3099E-14  0.1420E-04  0.5790E-07  0.1040E-02  0.9456E-04  0.7215E+02
   -0.399988   30.78264  0.3099E-14  0.1460E-04  0.5558E-07  0.1145E-02  0.8779E-04  0.6483E+02
   -0.449988   30.78362  0.3099E-14  0.1495E-04  0.5370E-07  0.1243E-02  0.8183E-04  0.6041E+02
   -0.499988   30.78451  0.3099E-14  0.1526E-04  0.5216E-07  0.1332E-02  0.7654E-04  0.5923E+02
   -0.549989   30.78533  0.3099E-14  0.1552E-04  0.5087E-07  0.1414E-02  0.7180E-04  0.5788E+02
   -0.599989   30.78609  0.3099E-14  0.1575E-04  0.4980E-07  0.1487E-02  0.6750E-04  0.5844E+02
   -0.649990   30.78680  0.3099E-14  0.1595E-04  0.4890E-07  0.1553E-02  0.6358E-04  0.5855E+02
   -0.699992   30.78747  0.3099E-14  0.1612E-04  0.4816E-07  0.1611E-02  0.5996E-04  0.6050E+02
   -0.749993   30.78811  0.3099E-14  0.1626E-04  0.4755E-07  0.1662E-02  0.5662E-04  0.6180E+02
   -0.799994   30.78872  0.3099E-14  0.1638E-04  0.4706E-07  0.1704E-02  0.5350E-04  0.6514E+02
   -0.849996   30.78931  0.3099E-14  0.1648E-04  0.4669E-07  0.1738E-02  0.5059E-04  0.6772E+02
   -0.899998   30.78989  0.3099E-14  0.1655E-04  0.4642E-07  0.1764E-02  0.4784E-04  0.7273E+02
   -0.949999   30.79045  0.3099E-14  0.1660E-04  0.4626E-07  0.1781E-02  0.4526E-04  0.7699E+02
   -1.000001   30.79100  0.3099E-14  0.1663E-04  0.4621E-07  0.1790E-02  0.4281E-04  0.8429E+02
   -1.050003   30.79155  0.3099E-14  0.1663E-04  0.4628E-07  0.1788E-02  0.4048E-04  0.9448E+02
   -1.100004   30.79210  0.3099E-14  0.1661E-04  0.4647E-07  0.1887E-02  0.3825E-04  0.3133E+03
   -1.150006   30.79261  0.3099E-14  0.1657E-04  0.4682E-07  0.1686E-02  0.3628E-04  0.7376E+03
   -1.200007   30.79319  0.3099E-14  0.1650E-04  0.4730E-07  0.1720E-02  0.3419E-04  0.1383E+03
   -1.250009   30.79375  0.3099E-14  0.1641E-04  0.4799E-07  0.1687E-02  0.3221E-04  0.1495E+03
   -1.300010   30.79432  0.3099E-14  0.1628E-04  0.4892E-07  0.1633E-02  0.3030E-04  0.1739E+03
   -1.350011   30.79491  0.3099E-14  0.1612E-04  0.5015E-07  0.1570E-02  0.2844E-04  0.2123E+03
   -1.400012   30.79553  0.3099E-14  0.1592E-04  0.5180E-07  0.1488E-02  0.2663E-04  0.2619E+03
   -1.450013   30.79618  0.3099E-14  0.1567E-04  0.5402E-07  0.1407E-02  0.2483E-04  0.3424E+03
   -1.500014   30.79688  0.3099E-14  0.1536E-04  0.5709E-07  0.1291E-02  0.2308E-04  0.4694E+03
   -1.550014   30.79765  0.3099E-14  0.1498E-04  0.6145E-07  0.1206E-02  0.2129E-04  0.7013E+03
   -1.600014   30.79849  0.3099E-14  0.1450E-04  0.6819E-07  0.1060E-02  0.1955E-04  0.5206E+03
   -1.650014   30.79955  0.3099E-14  0.1387E-04  0.7867E-07  0.9776E-03  0.1764E-04  0.4886E+06
   -1.700013   30.80077  0.3099E-14  0.1300E-04  0.9709E-07  0.7993E-03  0.1576E-04  0.1778E+05
   -1.750013   30.80295  0.3099E-14  0.1188E-04  0.1271E-06  0.7168E-03  0.1324E-04  0.3538E+07
   -1.800011   30.80466  0.3099E-14  0.1038E-04  0.1927E-06  0.4966E-03  0.1134E-04  0.4230E+06
   -1.850010   30.81255  0.3099E-14  0.8791E-05  0.3150E-06  0.4598E-03  0.7944E-05  0.2695E+10
   -1.900007   30.81038  0.3099E-14  0.6983E-05  0.6620E-06  0.2141E-03  0.6498E-05  0.7670E+07
   -1.950005   30.83358  0.3099E-14  0.4967E-05  0.1617E-05  0.2026E-03  0.3463E-05 -0.1705E+08
   -2.000002   30.83493  0.3099E-14  0.0000E+00  0.0000E+00  0.0000E+00  0.6622E-05  0.0000E+00
