 1 - depth, m
 2 - temperature, C
 3 - salinity, kg/kg
 4 - turbulent kinetic energy, m**2/s**2
 5 - dissipation rate, m**2/s**3
 6 - kinematic heat conductance, m**2/s
 7 - modulus of horizontal velocity, m/s
 8 - Richardson number, n/d
   -0.000000   30.47686  0.7161E-14  0.4679E-05  0.2871E-06  0.4921E-04  0.1011E-02  0.6314E+04
   -0.049997   30.50669  0.7161E-14  0.8145E-05  0.1276E-06  0.1795E-03  0.5696E-03  0.7236E+02
   -0.099994   30.51790  0.7161E-14  0.9882E-05  0.8823E-07  0.4037E-03  0.4175E-03  0.5291E+02
   -0.149992   30.52097  0.7161E-14  0.1097E-04  0.7431E-07  0.4840E-03  0.3689E-03  0.2601E+02
   -0.199991   30.52343  0.7161E-14  0.1182E-04  0.6614E-07  0.6460E-03  0.3296E-03  0.1683E+02
   -0.249989   30.52523  0.7161E-14  0.1250E-04  0.6078E-07  0.7713E-03  0.3001E-03  0.1254E+02
   -0.299988   30.52669  0.7161E-14  0.1305E-04  0.5697E-07  0.8964E-03  0.2755E-03  0.9999E+01
   -0.349988   30.52792  0.7161E-14  0.1351E-04  0.5412E-07  0.1009E-02  0.2545E-03  0.8617E+01
   -0.399988   30.52899  0.7161E-14  0.1390E-04  0.5190E-07  0.1113E-02  0.2359E-03  0.7667E+01
   -0.449988   30.52994  0.7161E-14  0.1424E-04  0.5011E-07  0.1209E-02  0.2195E-03  0.7248E+01
   -0.499988   30.53079  0.7161E-14  0.1453E-04  0.4863E-07  0.1298E-02  0.2050E-03  0.7024E+01
   -0.549989   30.53158  0.7161E-14  0.1479E-04  0.4740E-07  0.1378E-02  0.1920E-03  0.6983E+01
   -0.599990   30.53231  0.7161E-14  0.1501E-04  0.4637E-07  0.1452E-02  0.1802E-03  0.6954E+01
   -0.649991   30.53299  0.7161E-14  0.1520E-04  0.4551E-07  0.1517E-02  0.1695E-03  0.7099E+01
   -0.699992   30.53363  0.7161E-14  0.1536E-04  0.4479E-07  0.1576E-02  0.1597E-03  0.7224E+01
   -0.749993   30.53424  0.7161E-14  0.1550E-04  0.4420E-07  0.1626E-02  0.1506E-03  0.7528E+01
   -0.799995   30.53483  0.7161E-14  0.1562E-04  0.4371E-07  0.1669E-02  0.1421E-03  0.7801E+01
   -0.849996   30.53539  0.7161E-14  0.1571E-04  0.4334E-07  0.1704E-02  0.1342E-03  0.8280E+01
   -0.899998   30.53594  0.7161E-14  0.1578E-04  0.4306E-07  0.1731E-02  0.1268E-03  0.8730E+01
   -0.949999   30.53648  0.7161E-14  0.1583E-04  0.4288E-07  0.1750E-02  0.1198E-03  0.9435E+01
   -1.000001   30.53700  0.7161E-14  0.1586E-04  0.4280E-07  0.1761E-02  0.1132E-03  0.1013E+02
   -1.050003   30.53752  0.7161E-14  0.1587E-04  0.4282E-07  0.1762E-02  0.1069E-03  0.1159E+02
   -1.100005   30.53804  0.7161E-14  0.1586E-04  0.4295E-07  0.1848E-02  0.1009E-03  0.3825E+02
   -1.150006   30.53853  0.7161E-14  0.1582E-04  0.4322E-07  0.1680E-02  0.9558E-04  0.8630E+02
   -1.200008   30.53907  0.7161E-14  0.1576E-04  0.4362E-07  0.1704E-02  0.9004E-04  0.1682E+02
   -1.250009   30.53960  0.7161E-14  0.1568E-04  0.4418E-07  0.1674E-02  0.8475E-04  0.1784E+02
   -1.300011   30.54014  0.7161E-14  0.1557E-04  0.4496E-07  0.1624E-02  0.7963E-04  0.2111E+02
   -1.350012   30.54069  0.7161E-14  0.1542E-04  0.4599E-07  0.1565E-02  0.7469E-04  0.2507E+02
   -1.400013   30.54126  0.7161E-14  0.1524E-04  0.4738E-07  0.1488E-02  0.6986E-04  0.3127E+02
   -1.450014   30.54186  0.7161E-14  0.1502E-04  0.4923E-07  0.1411E-02  0.6513E-04  0.3956E+02
   -1.500014   30.54251  0.7161E-14  0.1475E-04  0.5179E-07  0.1299E-02  0.6047E-04  0.5414E+02
   -1.550015   30.54321  0.7161E-14  0.1441E-04  0.5537E-07  0.1215E-02  0.5580E-04  0.7659E+02
   -1.600015   30.54397  0.7161E-14  0.1399E-04  0.6082E-07  0.1069E-02  0.5122E-04  0.1494E+03
   -1.650015   30.54491  0.7161E-14  0.1344E-04  0.6918E-07  0.9886E-03  0.4631E-04  0.2101E+03
   -1.700014   30.54595  0.7161E-14  0.1270E-04  0.8402E-07  0.8078E-03  0.4153E-04 -0.8142E+04
   -1.750013   30.54779  0.7161E-14  0.1170E-04  0.1086E-06  0.7253E-03  0.3524E-04  0.4257E+06
   -1.800012   30.54942  0.7161E-14  0.1034E-04  0.1605E-06  0.5120E-03  0.3021E-04  0.2222E+05
   -1.850010   30.55551  0.7161E-14  0.8803E-05  0.2573E-06  0.4625E-03  0.2177E-04  0.1508E+08
   -1.900008   30.55463  0.7161E-14  0.6949E-05  0.5398E-06  0.2084E-03  0.1759E-04  0.2601E+07
   -1.950005   30.57426  0.7161E-14  0.4878E-05  0.1340E-05  0.1880E-03  0.9485E-05 -0.5327E+07
   -2.000002   30.57636  0.7161E-14  0.0000E+00  0.0000E+00  0.0000E+00  0.1720E-04  0.0000E+00
