 1 - depth, m
 2 - temperature, C
 3 - salinity, kg/kg
 4 - turbulent kinetic energy, m**2/s**2
 5 - dissipation rate, m**2/s**3
 6 - kinematic heat conductance, m**2/s
 7 - modulus of horizontal velocity, m/s
 8 - Richardson number, n/d
   -0.000000   30.62095  0.4414E-14  0.5228E-05  0.3249E-06  0.5237E-04  0.2349E-02  0.1763E+04
   -0.049997   30.65235  0.4414E-14  0.8746E-05  0.1437E-06  0.1876E-03  0.1309E-02  0.8690E+02
   -0.099994   30.66366  0.4414E-14  0.1051E-04  0.9960E-07  0.3992E-03  0.9832E-03  0.9013E+01
   -0.149992   30.66709  0.4414E-14  0.1164E-04  0.8338E-07  0.4877E-03  0.8689E-03  0.4512E+01
   -0.199991   30.66977  0.4414E-14  0.1252E-04  0.7391E-07  0.6472E-03  0.7777E-03  0.2899E+01
   -0.249989   30.67173  0.4414E-14  0.1323E-04  0.6773E-07  0.7739E-03  0.7091E-03  0.2145E+01
   -0.299988   30.67333  0.4414E-14  0.1380E-04  0.6333E-07  0.8978E-03  0.6519E-03  0.1711E+01
   -0.349988   30.67468  0.4414E-14  0.1428E-04  0.6003E-07  0.1009E-02  0.6028E-03  0.1490E+01
   -0.399988   30.67585  0.4414E-14  0.1469E-04  0.5743E-07  0.1114E-02  0.5588E-03  0.1368E+01
   -0.449988   30.67688  0.4414E-14  0.1504E-04  0.5529E-07  0.1216E-02  0.5193E-03  0.1324E+01
   -0.499988   30.67781  0.4414E-14  0.1536E-04  0.5350E-07  0.1311E-02  0.4839E-03  0.1308E+01
   -0.549989   30.67866  0.4414E-14  0.1563E-04  0.5200E-07  0.1399E-02  0.4518E-03  0.1301E+01
   -0.599989   30.67944  0.4414E-14  0.1586E-04  0.5074E-07  0.1479E-02  0.4228E-03  0.1298E+01
   -0.649990   30.68016  0.4414E-14  0.1606E-04  0.4967E-07  0.1550E-02  0.3964E-03  0.1305E+01
   -0.699992   30.68084  0.4414E-14  0.1622E-04  0.4878E-07  0.1613E-02  0.3724E-03  0.1312E+01
   -0.749993   30.68149  0.4414E-14  0.1636E-04  0.4805E-07  0.1665E-02  0.3503E-03  0.1333E+01
   -0.799994   30.68211  0.4414E-14  0.1647E-04  0.4745E-07  0.1709E-02  0.3301E-03  0.1359E+01
   -0.849996   30.68270  0.4414E-14  0.1655E-04  0.4697E-07  0.1743E-02  0.3114E-03  0.1407E+01
   -0.899998   30.68328  0.4414E-14  0.1660E-04  0.4661E-07  0.1769E-02  0.2941E-03  0.1467E+01
   -0.949999   30.68384  0.4414E-14  0.1664E-04  0.4636E-07  0.1785E-02  0.2780E-03  0.1559E+01
   -1.000001   30.68439  0.4414E-14  0.1665E-04  0.4622E-07  0.1794E-02  0.2628E-03  0.1672E+01
   -1.050003   30.68494  0.4414E-14  0.1663E-04  0.4619E-07  0.1792E-02  0.2485E-03  0.1895E+01
   -1.100004   30.68548  0.4414E-14  0.1660E-04  0.4629E-07  0.1893E-02  0.2348E-03  0.6197E+01
   -1.150006   30.68599  0.4414E-14  0.1654E-04  0.4653E-07  0.1686E-02  0.2227E-03  0.1452E+02
   -1.200008   30.68655  0.4414E-14  0.1645E-04  0.4691E-07  0.1724E-02  0.2098E-03  0.2760E+01
   -1.250009   30.68710  0.4414E-14  0.1634E-04  0.4748E-07  0.1691E-02  0.1976E-03  0.2936E+01
   -1.300010   30.68766  0.4414E-14  0.1620E-04  0.4828E-07  0.1638E-02  0.1859E-03  0.3455E+01
   -1.350012   30.68824  0.4414E-14  0.1602E-04  0.4938E-07  0.1574E-02  0.1745E-03  0.4145E+01
   -1.400013   30.68883  0.4414E-14  0.1580E-04  0.5087E-07  0.1493E-02  0.1633E-03  0.5161E+01
   -1.450013   30.68946  0.4414E-14  0.1554E-04  0.5291E-07  0.1409E-02  0.1524E-03  0.6624E+01
   -1.500014   30.69012  0.4414E-14  0.1522E-04  0.5575E-07  0.1295E-02  0.1416E-03  0.9088E+01
   -1.550014   30.69086  0.4414E-14  0.1483E-04  0.5981E-07  0.1204E-02  0.1307E-03  0.1332E+02
   -1.600014   30.69166  0.4414E-14  0.1434E-04  0.6603E-07  0.1060E-02  0.1199E-03  0.2740E+02
   -1.650014   30.69262  0.4414E-14  0.1371E-04  0.7581E-07  0.9747E-03  0.1085E-03  0.1212E+04
   -1.700014   30.69379  0.4414E-14  0.1284E-04  0.9312E-07  0.7987E-03  0.9683E-04  0.8440E+04
   -1.750013   30.69573  0.4414E-14  0.1173E-04  0.1213E-06  0.7124E-03  0.8186E-04  0.7377E+04
   -1.800011   30.69742  0.4414E-14  0.1019E-04  0.1826E-06  0.4909E-03  0.6998E-04  0.5094E+05
   -1.850010   30.70460  0.4414E-14  0.8550E-05  0.2968E-06  0.4552E-03  0.4901E-04  0.3118E+07
   -1.900008   30.70292  0.4414E-14  0.6682E-05  0.6244E-06  0.2029E-03  0.3973E-04 -0.1240E+05
   -1.950005   30.72463  0.4414E-14  0.4749E-05  0.1537E-05  0.2029E-03  0.2068E-04 -0.1370E+06
   -2.000002   30.72445  0.4414E-14  0.0000E+00  0.0000E+00  0.0000E+00  0.4035E-04  0.0000E+00
