 1 - depth, m
 2 - temperature, C
 3 - salinity, kg/kg
 4 - turbulent kinetic energy, m**2/s**2
 5 - dissipation rate, m**2/s**3
 6 - kinematic heat conductance, m**2/s
 7 - modulus of horizontal velocity, m/s
 8 - Richardson number, n/d
   -0.000000   29.49706  0.6704E-14  0.4541E-05  0.2716E-06  0.4882E-04  0.1641E-02  0.6854E+04
   -0.049997   29.52540  0.6704E-14  0.7790E-05  0.1208E-06  0.1741E-03  0.9320E-03  0.4998E+03
   -0.099994   29.53623  0.6704E-14  0.9449E-05  0.8323E-07  0.3916E-03  0.6815E-03  0.1924E+02
   -0.149992   29.53924  0.6704E-14  0.1049E-04  0.6994E-07  0.4729E-03  0.6016E-03  0.9403E+01
   -0.199991   29.54164  0.6704E-14  0.1131E-04  0.6217E-07  0.6305E-03  0.5369E-03  0.6061E+01
   -0.249989   29.54339  0.6704E-14  0.1196E-04  0.5709E-07  0.7539E-03  0.4885E-03  0.4466E+01
   -0.299989   29.54482  0.6704E-14  0.1249E-04  0.5349E-07  0.8767E-03  0.4481E-03  0.3568E+01
   -0.349988   29.54603  0.6704E-14  0.1294E-04  0.5079E-07  0.9881E-03  0.4136E-03  0.3044E+01
   -0.399988   29.54707  0.6704E-14  0.1332E-04  0.4870E-07  0.1090E-02  0.3831E-03  0.2726E+01
   -0.449988   29.54800  0.6704E-14  0.1365E-04  0.4701E-07  0.1185E-02  0.3562E-03  0.2550E+01
   -0.499988   29.54884  0.6704E-14  0.1393E-04  0.4562E-07  0.1272E-02  0.3325E-03  0.2495E+01
   -0.549989   29.54961  0.6704E-14  0.1418E-04  0.4447E-07  0.1353E-02  0.3112E-03  0.2453E+01
   -0.599990   29.55032  0.6704E-14  0.1440E-04  0.4350E-07  0.1425E-02  0.2920E-03  0.2469E+01
   -0.649991   29.55099  0.6704E-14  0.1459E-04  0.4269E-07  0.1491E-02  0.2745E-03  0.2489E+01
   -0.699992   29.55162  0.6704E-14  0.1475E-04  0.4202E-07  0.1549E-02  0.2584E-03  0.2562E+01
   -0.749993   29.55221  0.6704E-14  0.1489E-04  0.4146E-07  0.1600E-02  0.2436E-03  0.2633E+01
   -0.799995   29.55279  0.6704E-14  0.1500E-04  0.4100E-07  0.1643E-02  0.2298E-03  0.2763E+01
   -0.849996   29.55334  0.6704E-14  0.1510E-04  0.4065E-07  0.1678E-02  0.2169E-03  0.2891E+01
   -0.899998   29.55388  0.6704E-14  0.1517E-04  0.4038E-07  0.1706E-02  0.2048E-03  0.3088E+01
   -0.950000   29.55440  0.6704E-14  0.1522E-04  0.4021E-07  0.1726E-02  0.1934E-03  0.3286E+01
   -1.000002   29.55492  0.6704E-14  0.1526E-04  0.4013E-07  0.1738E-02  0.1827E-03  0.3574E+01
   -1.050003   29.55543  0.6704E-14  0.1527E-04  0.4014E-07  0.1741E-02  0.1725E-03  0.4031E+01
   -1.100005   29.55593  0.6704E-14  0.1526E-04  0.4025E-07  0.1818E-02  0.1627E-03  0.1361E+02
   -1.150007   29.55641  0.6704E-14  0.1524E-04  0.4049E-07  0.1674E-02  0.1540E-03  0.2987E+02
   -1.200008   29.55693  0.6704E-14  0.1519E-04  0.4084E-07  0.1691E-02  0.1451E-03  0.5794E+01
   -1.250010   29.55745  0.6704E-14  0.1511E-04  0.4135E-07  0.1662E-02  0.1365E-03  0.6228E+01
   -1.300011   29.55797  0.6704E-14  0.1502E-04  0.4204E-07  0.1616E-02  0.1283E-03  0.7228E+01
   -1.350012   29.55850  0.6704E-14  0.1489E-04  0.4296E-07  0.1561E-02  0.1202E-03  0.8676E+01
   -1.400013   29.55906  0.6704E-14  0.1473E-04  0.4419E-07  0.1488E-02  0.1125E-03  0.1060E+02
   -1.450014   29.55964  0.6704E-14  0.1453E-04  0.4583E-07  0.1414E-02  0.1048E-03  0.1349E+02
   -1.500015   29.56025  0.6704E-14  0.1428E-04  0.4807E-07  0.1307E-02  0.9736E-04  0.1802E+02
   -1.550015   29.56092  0.6704E-14  0.1398E-04  0.5119E-07  0.1224E-02  0.8986E-04  0.2534E+02
   -1.600015   29.56165  0.6704E-14  0.1360E-04  0.5586E-07  0.1083E-02  0.8254E-04  0.4455E+02
   -1.650015   29.56251  0.6704E-14  0.1311E-04  0.6294E-07  0.1004E-02  0.7476E-04  0.1327E+03
   -1.700015   29.56346  0.6704E-14  0.1245E-04  0.7557E-07  0.8213E-03  0.6729E-04  0.1463E+04
   -1.750014   29.56512  0.6704E-14  0.1154E-04  0.9646E-07  0.7445E-03  0.5749E-04  0.1875E+06
   -1.800012   29.56660  0.6704E-14  0.1031E-04  0.1395E-06  0.5264E-03  0.4955E-04  0.5262E+06
   -1.850011   29.57180  0.6704E-14  0.8865E-05  0.2205E-06  0.4785E-03  0.3652E-04  0.1702E+08
   -1.900009   29.57151  0.6704E-14  0.7072E-05  0.4567E-06  0.2191E-03  0.2955E-04  0.9585E+06
   -1.950006   29.58891  0.6704E-14  0.4873E-05  0.1162E-05  0.1735E-03  0.1636E-04 -0.6301E+06
   -2.000003   29.59230  0.6704E-14  0.0000E+00  0.0000E+00  0.0000E+00  0.2802E-04  0.0000E+00
