 1 - depth, m
 2 - temperature, C
 3 - salinity, kg/kg
 4 - turbulent kinetic energy, m**2/s**2
 5 - dissipation rate, m**2/s**3
 6 - kinematic heat conductance, m**2/s
 7 - modulus of horizontal velocity, m/s
 8 - Richardson number, n/d
   -0.000000   27.36498  0.1382E-12  0.1441E-05  0.3009E-07  0.1497E-04  0.2363E-02 -0.2545E+01
   -0.049997   27.38705  0.1383E-12  0.1922E-05  0.1418E-07  0.9495E-04  0.1229E-02 -0.1129E+02
   -0.099995   27.39004  0.1383E-12  0.2010E-05  0.1076E-07  0.1287E-03  0.1041E-02  0.4475E+04
   -0.149993   27.39192  0.1383E-12  0.2012E-05  0.8748E-08  0.1548E-03  0.9223E-03  0.9554E+03
   -0.199991   27.39323  0.1383E-12  0.1962E-05  0.7311E-08  0.1742E-03  0.8304E-03  0.7233E+02
   -0.249990   27.39420  0.1383E-12  0.1878E-05  0.6193E-08  0.1878E-03  0.7536E-03  0.4440E+02
   -0.299989   27.39493  0.1383E-12  0.1771E-05  0.5287E-08  0.1962E-03  0.6865E-03  0.3430E+02
   -0.349989   27.39550  0.1383E-12  0.1650E-05  0.4537E-08  0.2002E-03  0.6258E-03  0.3523E+02
   -0.399988   27.39594  0.1383E-12  0.1521E-05  0.3914E-08  0.2021E-03  0.5695E-03  0.4535E+03
   -0.449989   27.39622  0.1383E-12  0.1369E-05  0.3330E-08  0.1368E-03  0.5244E-03  0.2219E+04
   -0.499989   27.39636  0.1383E-12  0.1138E-05  0.2655E-08  0.4456E-04  0.4730E-03  0.2552E+02
   -0.549990   27.39023  0.1385E-12  0.7257E-06  0.1655E-08  0.8496E-05  0.3788E-03  0.4584E+03
   -0.599991   27.25954  0.1432E-12  0.2658E-06  0.6026E-09  0.5619E-07  0.1518E-03  0.1795E+05
   -0.649992   26.96263  0.1500E-12  0.3190E-07  0.7509E-10  0.2978E-08  0.3083E-04  0.6724E+06
   -0.699993   26.58678  0.1526E-12  0.3336E-08  0.8312E-11  0.3376E-09  0.5068E-05  0.2483E+08
   -0.749994   26.20388  0.1529E-12  0.1657E-08  0.2719E-11  0.1276E-09  0.8006E-06  0.9198E+09
   -0.799996   25.83929  0.1529E-12  0.9162E-08  0.1168E-10  0.5076E-09  0.1229E-06  0.3404E+11
   -0.849998   25.51050  0.1529E-12  0.5634E-07  0.6804E-10  0.3524E-08  0.1831E-07  0.1241E+13
   -0.899999   25.23493  0.1529E-12  0.3223E-06  0.3732E-09  0.2898E-07  0.2636E-08  0.3938E+14
   -0.950001   25.04689  0.1529E-12  0.1122E-05  0.1265E-08  0.9054E-06  0.3310E-09  0.4770E+15
   -1.000003   25.00833  0.1529E-12  0.1319E-05  0.1493E-08  0.4225E-04  0.2881E-10  0.9812E+14
   -1.050005   25.00790  0.1529E-12  0.1442E-05  0.1648E-08  0.1222E-03  0.1820E-10  0.1067E+14
   -1.100007   25.00786  0.1529E-12  0.1542E-05  0.1793E-08  0.2993E-03  0.1354E-10 -0.5078E+13
   -1.150008   25.00788  0.1529E-12  0.1619E-05  0.1920E-08  0.4587E-03  0.1091E-10 -0.9626E+13
   -1.200010   25.00792  0.1529E-12  0.1694E-05  0.2056E-08  0.4531E-03  0.9513E-11 -0.1641E+14
   -1.250012   25.00798  0.1529E-12  0.1777E-05  0.2221E-08  0.4546E-03  0.8256E-11 -0.2330E+14
   -1.300013   25.00808  0.1529E-12  0.1866E-05  0.2415E-08  0.4566E-03  0.7136E-11 -0.3037E+14
   -1.350014   25.00820  0.1529E-12  0.1959E-05  0.2636E-08  0.4577E-03  0.6148E-11 -0.3771E+14
   -1.400015   25.00835  0.1529E-12  0.2054E-05  0.2886E-08  0.4569E-03  0.5274E-11 -0.4548E+14
   -1.450016   25.00853  0.1529E-12  0.2148E-05  0.3168E-08  0.4536E-03  0.4504E-11 -0.5380E+14
   -1.500017   25.00874  0.1529E-12  0.2240E-05  0.3484E-08  0.4472E-03  0.3824E-11 -0.6293E+14
   -1.550017   25.00899  0.1529E-12  0.2328E-05  0.3843E-08  0.4369E-03  0.3226E-11 -0.7321E+14
   -1.600018   25.00928  0.1529E-12  0.2409E-05  0.4256E-08  0.4222E-03  0.2698E-11 -0.8518E+14
   -1.650018   25.00962  0.1529E-12  0.2481E-05  0.4741E-08  0.4022E-03  0.2233E-11 -0.9970E+14
   -1.700017   25.01002  0.1529E-12  0.2542E-05  0.5330E-08  0.3760E-03  0.1821E-11 -0.1181E+15
   -1.750016   25.01049  0.1529E-12  0.2586E-05  0.6083E-08  0.3424E-03  0.1459E-11 -0.1431E+15
   -1.800015   25.01106  0.1529E-12  0.2608E-05  0.7122E-08  0.3001E-03  0.1140E-11 -0.1801E+15
   -1.850013   25.01177  0.1529E-12  0.2593E-05  0.8742E-08  0.2447E-03  0.8585E-12 -0.2448E+15
   -1.900011   25.01274  0.1529E-12  0.2508E-05  0.1189E-07  0.1875E-03  0.6111E-12 -0.3613E+15
   -1.950009   25.01418  0.1529E-12  0.1816E-05  0.3546E-07  0.1994E-04  0.4159E-12 -0.4148E+16
   -2.000006   25.03066  0.1529E-12  0.0000E+00  0.0000E+00  0.0000E+00  0.4155E-12  0.0000E+00
