 1 - depth, m
 2 - temperature, C
 3 - salinity, kg/kg
 4 - turbulent kinetic energy, m**2/s**2
 5 - dissipation rate, m**2/s**3
 6 - kinematic heat conductance, m**2/s
 7 - modulus of horizontal velocity, m/s
 8 - Richardson number, n/d
   -0.000000   30.70893  0.4002E-13  0.5237E-05  0.3309E-06  0.5246E-04  0.2127E-02  0.3469E+04
   -0.049997   30.74095  0.4002E-13  0.8804E-05  0.1469E-06  0.1860E-03  0.1195E-02  0.1827E+04
   -0.099994   30.75276  0.4002E-13  0.1062E-04  0.1014E-06  0.4021E-03  0.8930E-03  0.1204E+02
   -0.149992   30.75624  0.4002E-13  0.1177E-04  0.8485E-07  0.4886E-03  0.7893E-03  0.5957E+01
   -0.199990   30.75897  0.4002E-13  0.1267E-04  0.7521E-07  0.6509E-03  0.7062E-03  0.3812E+01
   -0.249989   30.76096  0.4002E-13  0.1338E-04  0.6891E-07  0.7782E-03  0.6439E-03  0.2804E+01
   -0.299988   30.76258  0.4002E-13  0.1396E-04  0.6444E-07  0.9039E-03  0.5919E-03  0.2234E+01
   -0.349988   30.76394  0.4002E-13  0.1445E-04  0.6109E-07  0.1017E-02  0.5474E-03  0.1916E+01
   -0.399987   30.76512  0.4002E-13  0.1486E-04  0.5848E-07  0.1122E-02  0.5077E-03  0.1737E+01
   -0.449987   30.76616  0.4002E-13  0.1522E-04  0.5634E-07  0.1223E-02  0.4722E-03  0.1646E+01
   -0.499988   30.76710  0.4002E-13  0.1553E-04  0.5456E-07  0.1317E-02  0.4405E-03  0.1616E+01
   -0.549988   30.76796  0.4002E-13  0.1580E-04  0.5308E-07  0.1403E-02  0.4120E-03  0.1591E+01
   -0.599989   30.76875  0.4002E-13  0.1604E-04  0.5184E-07  0.1481E-02  0.3862E-03  0.1593E+01
   -0.649990   30.76949  0.4002E-13  0.1624E-04  0.5080E-07  0.1550E-02  0.3627E-03  0.1596E+01
   -0.699991   30.77018  0.4002E-13  0.1640E-04  0.4993E-07  0.1611E-02  0.3412E-03  0.1624E+01
   -0.749992   30.77084  0.4002E-13  0.1654E-04  0.4922E-07  0.1662E-02  0.3215E-03  0.1652E+01
   -0.799994   30.77147  0.4002E-13  0.1665E-04  0.4864E-07  0.1705E-02  0.3033E-03  0.1711E+01
   -0.849995   30.77208  0.4002E-13  0.1674E-04  0.4818E-07  0.1738E-02  0.2865E-03  0.1775E+01
   -0.899997   30.77267  0.4002E-13  0.1680E-04  0.4785E-07  0.1763E-02  0.2708E-03  0.1880E+01
   -0.949999   30.77325  0.4002E-13  0.1683E-04  0.4762E-07  0.1779E-02  0.2561E-03  0.1998E+01
   -1.000000   30.77381  0.4002E-13  0.1685E-04  0.4751E-07  0.1788E-02  0.2422E-03  0.2167E+01
   -1.050002   30.77437  0.4002E-13  0.1684E-04  0.4752E-07  0.1785E-02  0.2290E-03  0.2445E+01
   -1.100004   30.77493  0.4002E-13  0.1680E-04  0.4767E-07  0.1888E-02  0.2164E-03  0.8015E+01
   -1.150005   30.77545  0.4002E-13  0.1675E-04  0.4797E-07  0.1674E-02  0.2052E-03  0.1921E+02
   -1.200007   30.77604  0.4002E-13  0.1666E-04  0.4842E-07  0.1712E-02  0.1934E-03  0.3589E+01
   -1.250008   30.77661  0.4002E-13  0.1655E-04  0.4908E-07  0.1679E-02  0.1821E-03  0.3855E+01
   -1.300009   30.77720  0.4002E-13  0.1640E-04  0.5000E-07  0.1624E-02  0.1713E-03  0.4519E+01
   -1.350011   30.77780  0.4002E-13  0.1622E-04  0.5123E-07  0.1560E-02  0.1608E-03  0.5499E+01
   -1.400012   30.77842  0.4002E-13  0.1600E-04  0.5291E-07  0.1475E-02  0.1505E-03  0.6865E+01
   -1.450012   30.77909  0.4002E-13  0.1573E-04  0.5520E-07  0.1394E-02  0.1403E-03  0.8953E+01
   -1.500013   30.77979  0.4002E-13  0.1539E-04  0.5841E-07  0.1275E-02  0.1303E-03  0.1248E+02
   -1.550013   30.78058  0.4002E-13  0.1498E-04  0.6300E-07  0.1193E-02  0.1202E-03  0.1871E+02
   -1.600013   30.78144  0.4002E-13  0.1447E-04  0.7023E-07  0.1044E-02  0.1102E-03  0.5229E+02
   -1.650013   30.78255  0.4002E-13  0.1379E-04  0.8154E-07  0.9673E-03  0.9923E-04  0.2929E+03
   -1.700012   30.78380  0.4002E-13  0.1286E-04  0.1019E-06  0.7816E-03  0.8843E-04  0.5442E+04
   -1.750011   30.78615  0.4002E-13  0.1167E-04  0.1347E-06  0.7060E-03  0.7362E-04  0.2108E+06
   -1.800010   30.78787  0.4002E-13  0.1013E-04  0.2086E-06  0.4818E-03  0.6299E-04  0.1475E+05
   -1.850008   30.79655  0.4002E-13  0.8534E-05  0.3428E-06  0.4575E-03  0.4326E-04  0.1129E+09
   -1.900006   30.79342  0.4002E-13  0.6799E-05  0.7214E-06  0.2123E-03  0.3565E-04 -0.7580E+05
   -1.950004   30.81767  0.4002E-13  0.4858E-05  0.1750E-05  0.2099E-03  0.1870E-04 -0.1653E+06
   -2.000001   30.81818  0.4002E-13  0.0000E+00  0.0000E+00  0.0000E+00  0.3725E-04  0.0000E+00
