 1 - depth, m
 2 - temperature, C
 3 - salinity, kg/kg
 4 - turbulent kinetic energy, m**2/s**2
 5 - dissipation rate, m**2/s**3
 6 - kinematic heat conductance, m**2/s
 7 - modulus of horizontal velocity, m/s
 8 - Richardson number, n/d
   -0.000000   30.51523  0.4726E-13  0.4762E-05  0.2936E-06  0.4980E-04  0.1382E-02  0.5086E+04
   -0.049997   30.54542  0.4727E-13  0.8187E-05  0.1309E-06  0.1782E-03  0.7849E-03  0.3496E+04
   -0.099994   30.55681  0.4727E-13  0.9929E-05  0.9027E-07  0.3976E-03  0.5760E-03  0.2501E+02
   -0.149992   30.55999  0.4727E-13  0.1102E-04  0.7579E-07  0.4796E-03  0.5086E-03  0.1225E+02
   -0.199991   30.56252  0.4727E-13  0.1187E-04  0.6730E-07  0.6406E-03  0.4542E-03  0.7861E+01
   -0.249989   30.56436  0.4727E-13  0.1255E-04  0.6175E-07  0.7657E-03  0.4135E-03  0.5794E+01
   -0.299988   30.56585  0.4727E-13  0.1310E-04  0.5779E-07  0.8906E-03  0.3796E-03  0.4612E+01
   -0.349988   30.56710  0.4727E-13  0.1356E-04  0.5483E-07  0.1004E-02  0.3505E-03  0.3937E+01
   -0.399988   30.56819  0.4727E-13  0.1395E-04  0.5253E-07  0.1107E-02  0.3248E-03  0.3510E+01
   -0.449988   30.56915  0.4727E-13  0.1428E-04  0.5066E-07  0.1203E-02  0.3023E-03  0.3286E+01
   -0.499988   30.57002  0.4727E-13  0.1457E-04  0.4912E-07  0.1292E-02  0.2823E-03  0.3199E+01
   -0.549989   30.57081  0.4727E-13  0.1483E-04  0.4783E-07  0.1373E-02  0.2644E-03  0.3147E+01
   -0.599989   30.57155  0.4727E-13  0.1504E-04  0.4674E-07  0.1446E-02  0.2482E-03  0.3153E+01
   -0.649990   30.57223  0.4727E-13  0.1523E-04  0.4583E-07  0.1512E-02  0.2334E-03  0.3184E+01
   -0.699992   30.57288  0.4727E-13  0.1539E-04  0.4507E-07  0.1571E-02  0.2199E-03  0.3260E+01
   -0.749993   30.57349  0.4727E-13  0.1552E-04  0.4443E-07  0.1622E-02  0.2074E-03  0.3360E+01
   -0.799995   30.57408  0.4727E-13  0.1563E-04  0.4391E-07  0.1665E-02  0.1957E-03  0.3506E+01
   -0.849996   30.57465  0.4727E-13  0.1572E-04  0.4349E-07  0.1700E-02  0.1848E-03  0.3679E+01
   -0.899998   30.57520  0.4727E-13  0.1579E-04  0.4317E-07  0.1728E-02  0.1746E-03  0.3907E+01
   -0.949999   30.57573  0.4727E-13  0.1584E-04  0.4295E-07  0.1747E-02  0.1650E-03  0.4174E+01
   -1.000001   30.57626  0.4727E-13  0.1586E-04  0.4284E-07  0.1759E-02  0.1559E-03  0.4514E+01
   -1.050003   30.57677  0.4727E-13  0.1586E-04  0.4282E-07  0.1760E-02  0.1473E-03  0.5107E+01
   -1.100005   30.57729  0.4727E-13  0.1585E-04  0.4292E-07  0.1844E-02  0.1390E-03  0.1703E+02
   -1.150006   30.57777  0.4727E-13  0.1581E-04  0.4315E-07  0.1683E-02  0.1317E-03  0.3815E+02
   -1.200008   30.57831  0.4727E-13  0.1575E-04  0.4351E-07  0.1705E-02  0.1240E-03  0.7365E+01
   -1.250009   30.57883  0.4727E-13  0.1566E-04  0.4403E-07  0.1675E-02  0.1168E-03  0.7875E+01
   -1.300011   30.57936  0.4727E-13  0.1554E-04  0.4476E-07  0.1627E-02  0.1097E-03  0.9198E+01
   -1.350012   30.57991  0.4727E-13  0.1540E-04  0.4575E-07  0.1569E-02  0.1029E-03  0.1102E+02
   -1.400013   30.58047  0.4727E-13  0.1522E-04  0.4707E-07  0.1493E-02  0.9631E-04  0.1359E+02
   -1.450014   30.58106  0.4727E-13  0.1499E-04  0.4886E-07  0.1416E-02  0.8980E-04  0.1733E+02
   -1.500014   30.58169  0.4727E-13  0.1472E-04  0.5132E-07  0.1306E-02  0.8341E-04  0.2347E+02
   -1.550015   30.58238  0.4727E-13  0.1439E-04  0.5479E-07  0.1221E-02  0.7699E-04  0.3335E+02
   -1.600015   30.58313  0.4727E-13  0.1397E-04  0.6003E-07  0.1077E-02  0.7071E-04  0.6213E+02
   -1.650014   30.58403  0.4727E-13  0.1343E-04  0.6807E-07  0.9985E-03  0.6400E-04  0.5655E+03
   -1.700014   30.58504  0.4727E-13  0.1270E-04  0.8256E-07  0.8140E-03  0.5750E-04  0.1006E+06
   -1.750013   30.58684  0.4727E-13  0.1171E-04  0.1064E-06  0.7372E-03  0.4887E-04  0.2453E+06
   -1.800012   30.58840  0.4727E-13  0.1036E-04  0.1564E-06  0.5164E-03  0.4200E-04 -0.1404E+05
   -1.850010   30.59444  0.4727E-13  0.8846E-05  0.2495E-06  0.4747E-03  0.3038E-04  0.6944E+08
   -1.900008   30.59346  0.4727E-13  0.7027E-05  0.5159E-06  0.2090E-03  0.2470E-04 -0.1432E+07
   -1.950005   30.61283  0.4727E-13  0.4907E-05  0.1294E-05  0.1857E-03  0.1342E-04 -0.2166E+06
   -2.000002   30.61444  0.4727E-13  0.0000E+00  0.0000E+00  0.0000E+00  0.2385E-04  0.0000E+00
