 1 - depth, m
 2 - temperature, C
 3 - salinity, kg/kg
 4 - turbulent kinetic energy, m**2/s**2
 5 - dissipation rate, m**2/s**3
 6 - kinematic heat conductance, m**2/s
 7 - modulus of horizontal velocity, m/s
 8 - Richardson number, n/d
   -0.000000   30.61038  0.2420E-14  0.4892E-05  0.3105E-06  0.5096E-04  0.9685E-03  0.3947E+04
   -0.049997   30.64165  0.2420E-14  0.8484E-05  0.1378E-06  0.1794E-03  0.5518E-03  0.4232E+02
   -0.099994   30.65389  0.2420E-14  0.1031E-04  0.9481E-07  0.4110E-03  0.4027E-03  0.5785E+02
   -0.149992   30.65716  0.2420E-14  0.1144E-04  0.7976E-07  0.4879E-03  0.3563E-03  0.2832E+02
   -0.199991   30.65979  0.2420E-14  0.1232E-04  0.7090E-07  0.6536E-03  0.3184E-03  0.1828E+02
   -0.249989   30.66170  0.2420E-14  0.1302E-04  0.6509E-07  0.7800E-03  0.2900E-03  0.1358E+02
   -0.299988   30.66326  0.2420E-14  0.1359E-04  0.6094E-07  0.9067E-03  0.2664E-03  0.1082E+02
   -0.349988   30.66456  0.2420E-14  0.1406E-04  0.5783E-07  0.1021E-02  0.2461E-03  0.9291E+01
   -0.399988   30.66569  0.2420E-14  0.1445E-04  0.5540E-07  0.1126E-02  0.2283E-03  0.8273E+01
   -0.449988   30.66670  0.2420E-14  0.1480E-04  0.5343E-07  0.1223E-02  0.2125E-03  0.7790E+01
   -0.499988   30.66760  0.2420E-14  0.1509E-04  0.5180E-07  0.1312E-02  0.1986E-03  0.7562E+01
   -0.549989   30.66843  0.2420E-14  0.1534E-04  0.5043E-07  0.1393E-02  0.1860E-03  0.7483E+01
   -0.599989   30.66920  0.2420E-14  0.1556E-04  0.4927E-07  0.1467E-02  0.1748E-03  0.7468E+01
   -0.649990   30.66991  0.2420E-14  0.1575E-04  0.4830E-07  0.1533E-02  0.1644E-03  0.7585E+01
   -0.699992   30.67059  0.2420E-14  0.1591E-04  0.4747E-07  0.1592E-02  0.1549E-03  0.7735E+01
   -0.749993   30.67123  0.2420E-14  0.1604E-04  0.4678E-07  0.1642E-02  0.1462E-03  0.8016E+01
   -0.799994   30.67184  0.2420E-14  0.1614E-04  0.4620E-07  0.1685E-02  0.1380E-03  0.8328E+01
   -0.849996   30.67243  0.2420E-14  0.1622E-04  0.4574E-07  0.1720E-02  0.1304E-03  0.8787E+01
   -0.899998   30.67300  0.2420E-14  0.1628E-04  0.4538E-07  0.1747E-02  0.1232E-03  0.9290E+01
   -0.949999   30.67356  0.2420E-14  0.1632E-04  0.4512E-07  0.1765E-02  0.1165E-03  0.9981E+01
   -1.000001   30.67410  0.2420E-14  0.1633E-04  0.4497E-07  0.1776E-02  0.1101E-03  0.1075E+02
   -1.050003   30.67464  0.2420E-14  0.1632E-04  0.4493E-07  0.1775E-02  0.1040E-03  0.1222E+02
   -1.100004   30.67517  0.2420E-14  0.1629E-04  0.4500E-07  0.1868E-02  0.9824E-04  0.4020E+02
   -1.150006   30.67568  0.2420E-14  0.1624E-04  0.4522E-07  0.1683E-02  0.9309E-04  0.9233E+02
   -1.200008   30.67623  0.2420E-14  0.1616E-04  0.4556E-07  0.1713E-02  0.8770E-04  0.1771E+02
   -1.250009   30.67677  0.2420E-14  0.1605E-04  0.4609E-07  0.1682E-02  0.8258E-04  0.1884E+02
   -1.300010   30.67732  0.2420E-14  0.1592E-04  0.4684E-07  0.1631E-02  0.7763E-04  0.2216E+02
   -1.350012   30.67788  0.2420E-14  0.1575E-04  0.4787E-07  0.1570E-02  0.7284E-04  0.2650E+02
   -1.400013   30.67846  0.2420E-14  0.1554E-04  0.4926E-07  0.1491E-02  0.6815E-04  0.3295E+02
   -1.450014   30.67907  0.2420E-14  0.1529E-04  0.5117E-07  0.1412E-02  0.6356E-04  0.4204E+02
   -1.500014   30.67971  0.2420E-14  0.1499E-04  0.5384E-07  0.1299E-02  0.5903E-04  0.5764E+02
   -1.550014   30.68042  0.2420E-14  0.1461E-04  0.5764E-07  0.1213E-02  0.5449E-04  0.8289E+02
   -1.600015   30.68119  0.2420E-14  0.1415E-04  0.6351E-07  0.1071E-02  0.5001E-04  0.1593E+03
   -1.650014   30.68213  0.2420E-14  0.1355E-04  0.7267E-07  0.9841E-03  0.4522E-04  0.3244E+04
   -1.700014   30.68322  0.2420E-14  0.1273E-04  0.8893E-07  0.8091E-03  0.4038E-04  0.4808E+05
   -1.750013   30.68512  0.2420E-14  0.1166E-04  0.1154E-06  0.7216E-03  0.3413E-04  0.1890E+06
   -1.800012   30.68668  0.2420E-14  0.1024E-04  0.1728E-06  0.5122E-03  0.2924E-04 -0.8936E+04
   -1.850010   30.69321  0.2420E-14  0.8685E-05  0.2804E-06  0.4614E-03  0.2083E-04  0.1835E+08
   -1.900008   30.69191  0.2420E-14  0.6840E-05  0.5976E-06  0.2124E-03  0.1687E-04  0.2792E+07
   -1.950005   30.71156  0.2420E-14  0.4822E-05  0.1462E-05  0.1958E-03  0.9038E-05 -0.8301E+06
   -2.000002   30.71352  0.2420E-14  0.0000E+00  0.0000E+00  0.0000E+00  0.1708E-04  0.0000E+00
