 1 - depth, m
 2 - temperature, C
 3 - salinity, kg/kg
 4 - turbulent kinetic energy, m**2/s**2
 5 - dissipation rate, m**2/s**3
 6 - kinematic heat conductance, m**2/s
 7 - modulus of horizontal velocity, m/s
 8 - Richardson number, n/d
   -0.000000   29.35161  0.1058E-13  0.5135E-05  0.2782E-06  0.5014E-04  0.3534E-02  0.4796E+03
   -0.049997   29.38103  0.1058E-13  0.8241E-05  0.1206E-06  0.1993E-03  0.1895E-02  0.1292E+02
   -0.099994   29.38973  0.1058E-13  0.9661E-05  0.8608E-07  0.3752E-03  0.1495E-02  0.4302E+01
   -0.149992   29.39296  0.1058E-13  0.1060E-04  0.7267E-07  0.4710E-03  0.1333E-02  0.2237E+01
   -0.199991   29.39543  0.1058E-13  0.1135E-04  0.6482E-07  0.5996E-03  0.1206E-02  0.1523E+01
   -0.249990   29.39732  0.1058E-13  0.1196E-04  0.5961E-07  0.7036E-03  0.1107E-02  0.1279E+01
   -0.299989   29.39888  0.1058E-13  0.1250E-04  0.5568E-07  0.8138E-03  0.1020E-02  0.1296E+01
   -0.349988   29.40020  0.1058E-13  0.1301E-04  0.5247E-07  0.9405E-03  0.9363E-03  0.1379E+01
   -0.399988   29.40130  0.1058E-13  0.1347E-04  0.4979E-07  0.1073E-02  0.8547E-03  0.1403E+01
   -0.449988   29.40226  0.1058E-13  0.1388E-04  0.4755E-07  0.1203E-02  0.7792E-03  0.1410E+01
   -0.499988   29.40309  0.1058E-13  0.1425E-04  0.4568E-07  0.1324E-02  0.7114E-03  0.1412E+01
   -0.549989   29.40383  0.1058E-13  0.1456E-04  0.4412E-07  0.1435E-02  0.6508E-03  0.1404E+01
   -0.599990   29.40450  0.1058E-13  0.1482E-04  0.4283E-07  0.1535E-02  0.5966E-03  0.1391E+01
   -0.649991   29.40512  0.1058E-13  0.1503E-04  0.4177E-07  0.1622E-02  0.5482E-03  0.1374E+01
   -0.699992   29.40569  0.1058E-13  0.1520E-04  0.4089E-07  0.1696E-02  0.5049E-03  0.1353E+01
   -0.749994   29.40623  0.1058E-13  0.1533E-04  0.4019E-07  0.1756E-02  0.4660E-03  0.1328E+01
   -0.799995   29.40675  0.1058E-13  0.1542E-04  0.3963E-07  0.1802E-02  0.4313E-03  0.1300E+01
   -0.849997   29.40724  0.1058E-13  0.1547E-04  0.3921E-07  0.1834E-02  0.4001E-03  0.1269E+01
   -0.899998   29.40772  0.1058E-13  0.1550E-04  0.3891E-07  0.1853E-02  0.3722E-03  0.1235E+01
   -0.950000   29.40819  0.1058E-13  0.1550E-04  0.3872E-07  0.1860E-02  0.3472E-03  0.1198E+01
   -1.000002   29.40865  0.1058E-13  0.1547E-04  0.3864E-07  0.1857E-02  0.3248E-03  0.1161E+01
   -1.050004   29.40910  0.1058E-13  0.1543E-04  0.3866E-07  0.1840E-02  0.3047E-03  0.1151E+01
   -1.100005   29.40955  0.1058E-13  0.1536E-04  0.3877E-07  0.1977E-02  0.2867E-03  0.3172E+01
   -1.150007   29.40997  0.1058E-13  0.1528E-04  0.3900E-07  0.1683E-02  0.2725E-03  0.7901E+01
   -1.200009   29.41046  0.1058E-13  0.1518E-04  0.3934E-07  0.1752E-02  0.2567E-03  0.1450E+01
   -1.250010   29.41092  0.1058E-13  0.1505E-04  0.3983E-07  0.1716E-02  0.2420E-03  0.1529E+01
   -1.300011   29.41138  0.1058E-13  0.1489E-04  0.4052E-07  0.1657E-02  0.2278E-03  0.1792E+01
   -1.350013   29.41186  0.1058E-13  0.1470E-04  0.4146E-07  0.1589E-02  0.2139E-03  0.2155E+01
   -1.400014   29.41235  0.1058E-13  0.1448E-04  0.4273E-07  0.1501E-02  0.2004E-03  0.2680E+01
   -1.450015   29.41287  0.1058E-13  0.1421E-04  0.4447E-07  0.1416E-02  0.1870E-03  0.3449E+01
   -1.500015   29.41342  0.1058E-13  0.1390E-04  0.4691E-07  0.1295E-02  0.1738E-03  0.4749E+01
   -1.550016   29.41403  0.1058E-13  0.1352E-04  0.5039E-07  0.1210E-02  0.1605E-03  0.6962E+01
   -1.600016   29.41468  0.1058E-13  0.1305E-04  0.5585E-07  0.1059E-02  0.1474E-03  0.1657E+02
   -1.650015   29.41550  0.1058E-13  0.1245E-04  0.6451E-07  0.9796E-03  0.1331E-03  0.5849E+03
   -1.700015   29.41646  0.1058E-13  0.1162E-04  0.7983E-07  0.7900E-03  0.1187E-03  0.7176E+04
   -1.750014   29.41815  0.1058E-13  0.1056E-04  0.1044E-06  0.7102E-03  0.9948E-04  0.2215E+05
   -1.800013   29.41940  0.1058E-13  0.9167E-05  0.1573E-06  0.4776E-03  0.8542E-04  0.7439E+05
   -1.850011   29.42557  0.1058E-13  0.7679E-05  0.2572E-06  0.4512E-03  0.5908E-04  0.5116E+07
   -1.900009   29.42362  0.1058E-13  0.6057E-05  0.5356E-06  0.2070E-03  0.4860E-04 -0.1235E+05
   -1.950007   29.44095  0.1058E-13  0.4242E-05  0.1317E-05  0.1963E-03  0.2550E-04 -0.5955E+05
   -2.000004   29.44111  0.1058E-13  0.0000E+00  0.0000E+00  0.0000E+00  0.5047E-04  0.0000E+00
