 1 - depth, m
 2 - temperature, C
 3 - salinity, kg/kg
 4 - turbulent kinetic energy, m**2/s**2
 5 - dissipation rate, m**2/s**3
 6 - kinematic heat conductance, m**2/s
 7 - modulus of horizontal velocity, m/s
 8 - Richardson number, n/d
   -0.000000   29.66198  0.2883E-13  0.4722E-05  0.2683E-06  0.4904E-04  0.2451E-02  0.4178E+04
   -0.049997   29.69015  0.2883E-13  0.7900E-05  0.1183E-06  0.1855E-03  0.1330E-02  0.4076E+03
   -0.099994   29.69945  0.2883E-13  0.9435E-05  0.8305E-07  0.3808E-03  0.1011E-02  0.7605E+01
   -0.149992   29.70250  0.2883E-13  0.1043E-04  0.6972E-07  0.4732E-03  0.8910E-03  0.3835E+01
   -0.199991   29.70485  0.2883E-13  0.1122E-04  0.6194E-07  0.6214E-03  0.7972E-03  0.2489E+01
   -0.249989   29.70659  0.2883E-13  0.1184E-04  0.5684E-07  0.7433E-03  0.7259E-03  0.1845E+01
   -0.299989   29.70801  0.2883E-13  0.1236E-04  0.5321E-07  0.8600E-03  0.6666E-03  0.1481E+01
   -0.349988   29.70921  0.2883E-13  0.1279E-04  0.5049E-07  0.9651E-03  0.6155E-03  0.1306E+01
   -0.399988   29.71026  0.2883E-13  0.1317E-04  0.4835E-07  0.1065E-02  0.5696E-03  0.1231E+01
   -0.449988   29.71119  0.2883E-13  0.1350E-04  0.4657E-07  0.1165E-02  0.5281E-03  0.1215E+01
   -0.499988   29.71202  0.2883E-13  0.1380E-04  0.4509E-07  0.1260E-02  0.4906E-03  0.1215E+01
   -0.549989   29.71278  0.2883E-13  0.1406E-04  0.4385E-07  0.1348E-02  0.4567E-03  0.1213E+01
   -0.599990   29.71347  0.2883E-13  0.1429E-04  0.4281E-07  0.1428E-02  0.4261E-03  0.1210E+01
   -0.649991   29.71412  0.2883E-13  0.1448E-04  0.4195E-07  0.1499E-02  0.3983E-03  0.1207E+01
   -0.699992   29.71473  0.2883E-13  0.1465E-04  0.4124E-07  0.1561E-02  0.3731E-03  0.1205E+01
   -0.749993   29.71531  0.2883E-13  0.1479E-04  0.4066E-07  0.1614E-02  0.3502E-03  0.1208E+01
   -0.799995   29.71586  0.2883E-13  0.1490E-04  0.4020E-07  0.1657E-02  0.3293E-03  0.1219E+01
   -0.849996   29.71640  0.2883E-13  0.1499E-04  0.3985E-07  0.1690E-02  0.3101E-03  0.1247E+01
   -0.899998   29.71692  0.2883E-13  0.1505E-04  0.3959E-07  0.1716E-02  0.2925E-03  0.1295E+01
   -0.950000   29.71742  0.2883E-13  0.1510E-04  0.3942E-07  0.1733E-02  0.2761E-03  0.1373E+01
   -1.000001   29.71792  0.2883E-13  0.1512E-04  0.3934E-07  0.1743E-02  0.2607E-03  0.1477E+01
   -1.050003   29.71841  0.2883E-13  0.1513E-04  0.3936E-07  0.1744E-02  0.2461E-03  0.1678E+01
   -1.100005   29.71890  0.2883E-13  0.1512E-04  0.3948E-07  0.1828E-02  0.2323E-03  0.5586E+01
   -1.150007   29.71937  0.2883E-13  0.1508E-04  0.3971E-07  0.1664E-02  0.2199E-03  0.1255E+02
   -1.200008   29.71988  0.2883E-13  0.1503E-04  0.4006E-07  0.1688E-02  0.2070E-03  0.2431E+01
   -1.250010   29.72038  0.2883E-13  0.1495E-04  0.4057E-07  0.1658E-02  0.1948E-03  0.2596E+01
   -1.300011   29.72088  0.2883E-13  0.1484E-04  0.4126E-07  0.1610E-02  0.1830E-03  0.3041E+01
   -1.350012   29.72141  0.2883E-13  0.1471E-04  0.4218E-07  0.1553E-02  0.1715E-03  0.3635E+01
   -1.400013   29.72195  0.2883E-13  0.1454E-04  0.4341E-07  0.1478E-02  0.1604E-03  0.4486E+01
   -1.450014   29.72251  0.2883E-13  0.1434E-04  0.4505E-07  0.1402E-02  0.1494E-03  0.5692E+01
   -1.500015   29.72312  0.2883E-13  0.1409E-04  0.4730E-07  0.1294E-02  0.1387E-03  0.7679E+01
   -1.550015   29.72377  0.2883E-13  0.1378E-04  0.5044E-07  0.1210E-02  0.1280E-03  0.1080E+02
   -1.600015   29.72448  0.2883E-13  0.1339E-04  0.5513E-07  0.1068E-02  0.1175E-03  0.1869E+02
   -1.650015   29.72533  0.2883E-13  0.1290E-04  0.6227E-07  0.9888E-03  0.1063E-03  0.4125E+02
   -1.700014   29.72628  0.2883E-13  0.1222E-04  0.7514E-07  0.8075E-03  0.9554E-04 -0.7512E+02
   -1.750014   29.72794  0.2883E-13  0.1129E-04  0.9641E-07  0.7290E-03  0.8134E-04  0.2569E+05
   -1.800012   29.72945  0.2883E-13  0.1003E-04  0.1397E-06  0.5088E-03  0.6982E-04  0.2467E+05
   -1.850011   29.73478  0.2883E-13  0.8558E-05  0.2218E-06  0.4645E-03  0.5079E-04  0.3297E+08
   -1.900009   29.73438  0.2883E-13  0.6803E-05  0.4601E-06  0.2124E-03  0.4099E-04  0.8413E+06
   -1.950006   29.75219  0.2883E-13  0.4712E-05  0.1165E-05  0.1764E-03  0.2240E-04 -0.1733E+06
   -2.000003   29.75461  0.2883E-13  0.0000E+00  0.0000E+00  0.0000E+00  0.3938E-04  0.0000E+00
