 1 - depth, m
 2 - temperature, C
 3 - salinity, kg/kg
 4 - turbulent kinetic energy, m**2/s**2
 5 - dissipation rate, m**2/s**3
 6 - kinematic heat conductance, m**2/s
 7 - modulus of horizontal velocity, m/s
 8 - Richardson number, n/d
   -0.000000   30.25095  0.2504E-14  0.4610E-05  0.2813E-06  0.4926E-04  0.1120E-02  0.7233E+04
   -0.049997   30.28006  0.2504E-14  0.8002E-05  0.1251E-06  0.1765E-03  0.6343E-03  0.5096E+04
   -0.099994   30.29128  0.2504E-14  0.9719E-05  0.8636E-07  0.3998E-03  0.4634E-03  0.3655E+02
   -0.149992   30.29432  0.2504E-14  0.1079E-04  0.7269E-07  0.4797E-03  0.4094E-03  0.1788E+02
   -0.199991   30.29676  0.2504E-14  0.1163E-04  0.6467E-07  0.6405E-03  0.3656E-03  0.1153E+02
   -0.249989   30.29854  0.2504E-14  0.1230E-04  0.5941E-07  0.7652E-03  0.3327E-03  0.8542E+01
   -0.299988   30.29998  0.2504E-14  0.1285E-04  0.5568E-07  0.8895E-03  0.3054E-03  0.6812E+01
   -0.349988   30.30120  0.2504E-14  0.1330E-04  0.5288E-07  0.1002E-02  0.2820E-03  0.5844E+01
   -0.399988   30.30226  0.2504E-14  0.1369E-04  0.5071E-07  0.1105E-02  0.2613E-03  0.5211E+01
   -0.449988   30.30320  0.2504E-14  0.1402E-04  0.4895E-07  0.1201E-02  0.2431E-03  0.4903E+01
   -0.499988   30.30404  0.2504E-14  0.1431E-04  0.4750E-07  0.1289E-02  0.2270E-03  0.4768E+01
   -0.549989   30.30482  0.2504E-14  0.1456E-04  0.4629E-07  0.1370E-02  0.2126E-03  0.4715E+01
   -0.599990   30.30554  0.2504E-14  0.1478E-04  0.4528E-07  0.1443E-02  0.1995E-03  0.4716E+01
   -0.649991   30.30621  0.2504E-14  0.1497E-04  0.4443E-07  0.1509E-02  0.1876E-03  0.4786E+01
   -0.699992   30.30684  0.2504E-14  0.1514E-04  0.4372E-07  0.1567E-02  0.1767E-03  0.4893E+01
   -0.749993   30.30745  0.2504E-14  0.1527E-04  0.4313E-07  0.1618E-02  0.1666E-03  0.5067E+01
   -0.799995   30.30803  0.2504E-14  0.1539E-04  0.4265E-07  0.1661E-02  0.1572E-03  0.5278E+01
   -0.849996   30.30858  0.2504E-14  0.1548E-04  0.4227E-07  0.1697E-02  0.1484E-03  0.5564E+01
   -0.899998   30.30912  0.2504E-14  0.1555E-04  0.4199E-07  0.1724E-02  0.1402E-03  0.5898E+01
   -0.950000   30.30965  0.2504E-14  0.1560E-04  0.4181E-07  0.1744E-02  0.1324E-03  0.6328E+01
   -1.000001   30.31017  0.2504E-14  0.1564E-04  0.4172E-07  0.1756E-02  0.1251E-03  0.6830E+01
   -1.050003   30.31068  0.2504E-14  0.1565E-04  0.4173E-07  0.1758E-02  0.1182E-03  0.7762E+01
   -1.100005   30.31119  0.2504E-14  0.1563E-04  0.4184E-07  0.1839E-02  0.1115E-03  0.2590E+02
   -1.150006   30.31167  0.2504E-14  0.1560E-04  0.4208E-07  0.1684E-02  0.1056E-03  0.5742E+02
   -1.200008   30.31220  0.2504E-14  0.1555E-04  0.4245E-07  0.1704E-02  0.9948E-04  0.1118E+02
   -1.250009   30.31272  0.2504E-14  0.1547E-04  0.4297E-07  0.1675E-02  0.9362E-04  0.1194E+02
   -1.300011   30.31324  0.2504E-14  0.1536E-04  0.4370E-07  0.1627E-02  0.8798E-04  0.1397E+02
   -1.350012   30.31378  0.2504E-14  0.1523E-04  0.4467E-07  0.1570E-02  0.8251E-04  0.1668E+02
   -1.400013   30.31434  0.2504E-14  0.1506E-04  0.4596E-07  0.1496E-02  0.7718E-04  0.2055E+02
   -1.450014   30.31493  0.2504E-14  0.1484E-04  0.4769E-07  0.1419E-02  0.7196E-04  0.2606E+02
   -1.500014   30.31555  0.2504E-14  0.1458E-04  0.5006E-07  0.1312E-02  0.6683E-04  0.3509E+02
   -1.550015   30.31623  0.2504E-14  0.1427E-04  0.5338E-07  0.1224E-02  0.6171E-04  0.4951E+02
   -1.600015   30.31696  0.2504E-14  0.1387E-04  0.5833E-07  0.1085E-02  0.5666E-04  0.1802E+03
   -1.650015   30.31784  0.2504E-14  0.1336E-04  0.6595E-07  0.1001E-02  0.5135E-04  0.2159E+04
   -1.700014   30.31884  0.2504E-14  0.1266E-04  0.7948E-07  0.8240E-03  0.4611E-04 -0.9581E+04
   -1.750013   30.32051  0.2504E-14  0.1171E-04  0.1018E-06  0.7405E-03  0.3940E-04  0.6009E+05
   -1.800012   30.32212  0.2504E-14  0.1041E-04  0.1480E-06  0.5230E-03  0.3380E-04  0.1005E+06
   -1.850010   30.32753  0.2504E-14  0.8910E-05  0.2343E-06  0.4759E-03  0.2476E-04  0.4205E+07
   -1.900008   30.32704  0.2504E-14  0.7066E-05  0.4874E-06  0.2139E-03  0.2002E-04  0.2063E+07
   -1.950006   30.34537  0.2504E-14  0.4909E-05  0.1237E-05  0.1796E-03  0.1091E-04 -0.7872E+06
   -2.000003   30.34809  0.2504E-14  0.0000E+00  0.0000E+00  0.0000E+00  0.1920E-04  0.0000E+00
