 1 - depth, m
 2 - temperature, C
 3 - salinity, kg/kg
 4 - turbulent kinetic energy, m**2/s**2
 5 - dissipation rate, m**2/s**3
 6 - kinematic heat conductance, m**2/s
 7 - modulus of horizontal velocity, m/s
 8 - Richardson number, n/d
   -0.000000   30.19784  0.8936E-14  0.4688E-05  0.2864E-06  0.4959E-04  0.1587E-02  0.5584E+04
   -0.049997   30.22700  0.8936E-14  0.8034E-05  0.1275E-06  0.1758E-03  0.9060E-03  0.3742E+03
   -0.099994   30.23824  0.8936E-14  0.9750E-05  0.8773E-07  0.3958E-03  0.6622E-03  0.2056E+02
   -0.149992   30.24134  0.8936E-14  0.1083E-04  0.7366E-07  0.4768E-03  0.5849E-03  0.1006E+02
   -0.199991   30.24381  0.8936E-14  0.1167E-04  0.6543E-07  0.6368E-03  0.5222E-03  0.6468E+01
   -0.249989   30.24561  0.8936E-14  0.1234E-04  0.6005E-07  0.7613E-03  0.4753E-03  0.4762E+01
   -0.299989   30.24708  0.8936E-14  0.1288E-04  0.5623E-07  0.8856E-03  0.4362E-03  0.3800E+01
   -0.349988   30.24831  0.8936E-14  0.1334E-04  0.5337E-07  0.9981E-03  0.4028E-03  0.3239E+01
   -0.399988   30.24938  0.8936E-14  0.1372E-04  0.5115E-07  0.1101E-02  0.3732E-03  0.2897E+01
   -0.449988   30.25033  0.8936E-14  0.1406E-04  0.4935E-07  0.1197E-02  0.3472E-03  0.2708E+01
   -0.499988   30.25118  0.8936E-14  0.1435E-04  0.4786E-07  0.1285E-02  0.3242E-03  0.2646E+01
   -0.549989   30.25197  0.8936E-14  0.1460E-04  0.4663E-07  0.1366E-02  0.3036E-03  0.2598E+01
   -0.599990   30.25269  0.8936E-14  0.1482E-04  0.4559E-07  0.1439E-02  0.2850E-03  0.2613E+01
   -0.649991   30.25337  0.8936E-14  0.1500E-04  0.4472E-07  0.1505E-02  0.2680E-03  0.2630E+01
   -0.699992   30.25401  0.8936E-14  0.1516E-04  0.4398E-07  0.1563E-02  0.2524E-03  0.2706E+01
   -0.749993   30.25462  0.8936E-14  0.1530E-04  0.4337E-07  0.1614E-02  0.2380E-03  0.2778E+01
   -0.799995   30.25520  0.8936E-14  0.1541E-04  0.4288E-07  0.1657E-02  0.2246E-03  0.2914E+01
   -0.849996   30.25577  0.8936E-14  0.1550E-04  0.4248E-07  0.1693E-02  0.2121E-03  0.3045E+01
   -0.899998   30.25631  0.8936E-14  0.1557E-04  0.4218E-07  0.1720E-02  0.2004E-03  0.3250E+01
   -0.950000   30.25684  0.8936E-14  0.1562E-04  0.4198E-07  0.1740E-02  0.1893E-03  0.3456E+01
   -1.000001   30.25736  0.8936E-14  0.1565E-04  0.4187E-07  0.1752E-02  0.1788E-03  0.3755E+01
   -1.050003   30.25788  0.8936E-14  0.1565E-04  0.4186E-07  0.1754E-02  0.1689E-03  0.4231E+01
   -1.100005   30.25839  0.8936E-14  0.1564E-04  0.4196E-07  0.1836E-02  0.1595E-03  0.1423E+02
   -1.150006   30.25887  0.8936E-14  0.1560E-04  0.4219E-07  0.1679E-02  0.1510E-03  0.3147E+02
   -1.200008   30.25940  0.8936E-14  0.1555E-04  0.4254E-07  0.1700E-02  0.1423E-03  0.6081E+01
   -1.250010   30.25992  0.8936E-14  0.1546E-04  0.4305E-07  0.1670E-02  0.1339E-03  0.6530E+01
   -1.300011   30.26045  0.8936E-14  0.1535E-04  0.4376E-07  0.1623E-02  0.1258E-03  0.7583E+01
   -1.350012   30.26099  0.8936E-14  0.1521E-04  0.4471E-07  0.1565E-02  0.1180E-03  0.9104E+01
   -1.400013   30.26154  0.8936E-14  0.1503E-04  0.4599E-07  0.1490E-02  0.1104E-03  0.1115E+02
   -1.450014   30.26213  0.8936E-14  0.1482E-04  0.4772E-07  0.1414E-02  0.1029E-03  0.1420E+02
   -1.500015   30.26275  0.8936E-14  0.1455E-04  0.5008E-07  0.1305E-02  0.9562E-04  0.1906E+02
   -1.550015   30.26343  0.8936E-14  0.1423E-04  0.5340E-07  0.1220E-02  0.8826E-04  0.2695E+02
   -1.600015   30.26416  0.8936E-14  0.1382E-04  0.5841E-07  0.1077E-02  0.8107E-04  0.4879E+02
   -1.650015   30.26505  0.8936E-14  0.1330E-04  0.6606E-07  0.9982E-03  0.7338E-04  0.5643E+04
   -1.700014   30.26603  0.8936E-14  0.1259E-04  0.7977E-07  0.8163E-03  0.6597E-04  0.9868E+02
   -1.750013   30.26775  0.8936E-14  0.1162E-04  0.1024E-06  0.7380E-03  0.5614E-04  0.3327E+05
   -1.800012   30.26927  0.8936E-14  0.1031E-04  0.1498E-06  0.5180E-03  0.4827E-04  0.3458E+06
   -1.850010   30.27496  0.8936E-14  0.8798E-05  0.2384E-06  0.4732E-03  0.3499E-04  0.3654E+07
   -1.900008   30.27425  0.8936E-14  0.6971E-05  0.4968E-06  0.2120E-03  0.2834E-04  0.3276E+06
   -1.950006   30.29275  0.8936E-14  0.4848E-05  0.1252E-05  0.1827E-03  0.1536E-04 -0.7222E+06
   -2.000003   30.29490  0.8936E-14  0.0000E+00  0.0000E+00  0.0000E+00  0.2743E-04  0.0000E+00
