 1 - depth, m
 2 - temperature, C
 3 - salinity, kg/kg
 4 - turbulent kinetic energy, m**2/s**2
 5 - dissipation rate, m**2/s**3
 6 - kinematic heat conductance, m**2/s
 7 - modulus of horizontal velocity, m/s
 8 - Richardson number, n/d
   -0.000000   29.71466  0.2222E-13  0.4332E-05  0.2529E-06  0.4649E-04  0.6229E-03  0.7190E+05
   -0.049997   29.74314  0.2222E-13  0.7684E-05  0.1121E-06  0.1791E-03  0.3460E-03  0.7567E+02
   -0.099994   29.75314  0.2222E-13  0.9295E-05  0.7813E-07  0.4020E-03  0.2538E-03  0.1248E+03
   -0.149992   29.75595  0.2222E-13  0.1031E-04  0.6617E-07  0.4808E-03  0.2245E-03  0.6121E+02
   -0.199991   29.75821  0.2222E-13  0.1110E-04  0.5910E-07  0.6382E-03  0.2007E-03  0.4020E+02
   -0.249989   29.75986  0.2222E-13  0.1173E-04  0.5445E-07  0.7612E-03  0.1828E-03  0.2995E+02
   -0.299989   29.76122  0.2222E-13  0.1225E-04  0.5113E-07  0.8825E-03  0.1678E-03  0.2407E+02
   -0.349988   29.76236  0.2222E-13  0.1269E-04  0.4864E-07  0.9928E-03  0.1549E-03  0.2067E+02
   -0.399988   29.76336  0.2222E-13  0.1306E-04  0.4671E-07  0.1094E-02  0.1436E-03  0.1854E+02
   -0.449988   29.76425  0.2222E-13  0.1338E-04  0.4515E-07  0.1187E-02  0.1335E-03  0.1742E+02
   -0.499988   29.76505  0.2222E-13  0.1366E-04  0.4387E-07  0.1274E-02  0.1247E-03  0.1704E+02
   -0.549989   29.76579  0.2222E-13  0.1391E-04  0.4281E-07  0.1353E-02  0.1167E-03  0.1681E+02
   -0.599990   29.76647  0.2222E-13  0.1412E-04  0.4192E-07  0.1424E-02  0.1095E-03  0.1692E+02
   -0.649991   29.76711  0.2222E-13  0.1431E-04  0.4119E-07  0.1488E-02  0.1030E-03  0.1713E+02
   -0.699992   29.76772  0.2222E-13  0.1447E-04  0.4058E-07  0.1545E-02  0.9694E-04  0.1763E+02
   -0.749993   29.76830  0.2222E-13  0.1461E-04  0.4008E-07  0.1595E-02  0.9138E-04  0.1820E+02
   -0.799995   29.76885  0.2222E-13  0.1473E-04  0.3968E-07  0.1637E-02  0.8619E-04  0.1910E+02
   -0.849996   29.76938  0.2222E-13  0.1483E-04  0.3937E-07  0.1672E-02  0.8137E-04  0.2007E+02
   -0.899998   29.76990  0.2222E-13  0.1490E-04  0.3916E-07  0.1699E-02  0.7682E-04  0.2144E+02
   -0.950000   29.77041  0.2222E-13  0.1496E-04  0.3903E-07  0.1718E-02  0.7256E-04  0.2294E+02
   -1.000002   29.77091  0.2222E-13  0.1500E-04  0.3899E-07  0.1730E-02  0.6851E-04  0.2494E+02
   -1.050003   29.77141  0.2222E-13  0.1502E-04  0.3904E-07  0.1732E-02  0.6468E-04  0.2829E+02
   -1.100005   29.77190  0.2222E-13  0.1502E-04  0.3919E-07  0.1810E-02  0.6102E-04  0.9539E+02
   -1.150007   29.77237  0.2222E-13  0.1499E-04  0.3947E-07  0.1662E-02  0.5775E-04  0.2093E+03
   -1.200008   29.77288  0.2222E-13  0.1495E-04  0.3985E-07  0.1680E-02  0.5438E-04  0.4088E+02
   -1.250010   29.77338  0.2222E-13  0.1488E-04  0.4039E-07  0.1650E-02  0.5115E-04  0.4402E+02
   -1.300011   29.77390  0.2222E-13  0.1479E-04  0.4111E-07  0.1604E-02  0.4805E-04  0.5131E+02
   -1.350012   29.77442  0.2222E-13  0.1467E-04  0.4206E-07  0.1547E-02  0.4503E-04  0.6161E+02
   -1.400013   29.77497  0.2222E-13  0.1452E-04  0.4331E-07  0.1475E-02  0.4210E-04  0.7549E+02
   -1.450014   29.77555  0.2222E-13  0.1432E-04  0.4497E-07  0.1398E-02  0.3923E-04  0.9609E+02
   -1.500015   29.77616  0.2222E-13  0.1409E-04  0.4722E-07  0.1293E-02  0.3642E-04  0.1282E+03
   -1.550015   29.77682  0.2222E-13  0.1379E-04  0.5034E-07  0.1206E-02  0.3359E-04  0.1803E+03
   -1.600015   29.77755  0.2222E-13  0.1342E-04  0.5494E-07  0.1068E-02  0.3083E-04  0.2989E+03
   -1.650015   29.77840  0.2222E-13  0.1294E-04  0.6194E-07  0.9836E-03  0.2792E-04  0.2649E+04
   -1.700015   29.77937  0.2222E-13  0.1229E-04  0.7434E-07  0.8118E-03  0.2508E-04  0.3755E+04
   -1.750014   29.78098  0.2222E-13  0.1139E-04  0.9511E-07  0.7257E-03  0.2144E-04  0.6227E+05
   -1.800012   29.78262  0.2222E-13  0.1013E-04  0.1386E-06  0.5141E-03  0.1832E-04  0.1055E+06
   -1.850011   29.78775  0.2222E-13  0.8661E-05  0.2174E-06  0.4652E-03  0.1337E-04  0.7733E+08
   -1.900009   29.78757  0.2222E-13  0.6843E-05  0.4501E-06  0.2054E-03  0.1076E-04 -0.6344E+06
   -1.950006   29.80590  0.2222E-13  0.4746E-05  0.1150E-05  0.1761E-03  0.5788E-05 -0.4362E+07
   -2.000003   29.80843  0.2222E-13  0.0000E+00  0.0000E+00  0.0000E+00  0.1029E-04  0.0000E+00
