 1 - depth, m
 2 - temperature, C
 3 - salinity, kg/kg
 4 - turbulent kinetic energy, m**2/s**2
 5 - dissipation rate, m**2/s**3
 6 - kinematic heat conductance, m**2/s
 7 - modulus of horizontal velocity, m/s
 8 - Richardson number, n/d
   -0.000000   30.57353  0.1061E-13  0.5791E-05  0.3186E-06  0.5576E-04  0.4209E-02  0.2688E+03
   -0.049997   30.60335  0.1061E-13  0.9083E-05  0.1361E-06  0.2126E-03  0.2260E-02  0.4025E+02
   -0.099994   30.61196  0.1061E-13  0.1054E-04  0.9813E-07  0.3873E-03  0.1824E-02  0.3250E+01
   -0.149992   30.61538  0.1061E-13  0.1153E-04  0.8315E-07  0.4825E-03  0.1638E-02  0.1757E+01
   -0.199991   30.61800  0.1061E-13  0.1234E-04  0.7435E-07  0.6032E-03  0.1492E-02  0.1307E+01
   -0.249989   30.62004  0.1061E-13  0.1303E-04  0.6831E-07  0.7132E-03  0.1374E-02  0.1299E+01
   -0.299988   30.62172  0.1061E-13  0.1368E-04  0.6359E-07  0.8458E-03  0.1262E-02  0.1393E+01
   -0.349988   30.62310  0.1061E-13  0.1430E-04  0.5971E-07  0.9946E-03  0.1153E-02  0.1491E+01
   -0.399988   30.62424  0.1061E-13  0.1487E-04  0.5651E-07  0.1149E-02  0.1047E-02  0.1514E+01
   -0.449988   30.62521  0.1061E-13  0.1538E-04  0.5385E-07  0.1301E-02  0.9484E-03  0.1513E+01
   -0.499988   30.62605  0.1061E-13  0.1583E-04  0.5167E-07  0.1442E-02  0.8604E-03  0.1506E+01
   -0.549989   30.62679  0.1061E-13  0.1620E-04  0.4988E-07  0.1569E-02  0.7823E-03  0.1489E+01
   -0.599989   30.62746  0.1061E-13  0.1651E-04  0.4843E-07  0.1683E-02  0.7128E-03  0.1469E+01
   -0.649991   30.62807  0.1061E-13  0.1676E-04  0.4726E-07  0.1780E-02  0.6510E-03  0.1445E+01
   -0.699992   30.62865  0.1061E-13  0.1696E-04  0.4633E-07  0.1860E-02  0.5960E-03  0.1417E+01
   -0.749993   30.62918  0.1061E-13  0.1710E-04  0.4561E-07  0.1922E-02  0.5471E-03  0.1386E+01
   -0.799995   30.62970  0.1061E-13  0.1719E-04  0.4507E-07  0.1967E-02  0.5035E-03  0.1353E+01
   -0.849996   30.63020  0.1061E-13  0.1724E-04  0.4470E-07  0.1994E-02  0.4646E-03  0.1316E+01
   -0.899998   30.63068  0.1061E-13  0.1726E-04  0.4449E-07  0.2005E-02  0.4300E-03  0.1278E+01
   -0.949999   30.63115  0.1061E-13  0.1724E-04  0.4442E-07  0.2002E-02  0.3991E-03  0.1237E+01
   -1.000001   30.63163  0.1061E-13  0.1720E-04  0.4448E-07  0.1986E-02  0.3716E-03  0.1193E+01
   -1.050003   30.63210  0.1061E-13  0.1713E-04  0.4466E-07  0.1947E-02  0.3470E-03  0.1149E+01
   -1.100005   30.63257  0.1061E-13  0.1705E-04  0.4493E-07  0.2133E-02  0.3254E-03  0.2567E+01
   -1.150006   30.63300  0.1061E-13  0.1694E-04  0.4535E-07  0.1732E-02  0.3102E-03  0.6870E+01
   -1.200008   30.63353  0.1061E-13  0.1681E-04  0.4590E-07  0.1836E-02  0.2926E-03  0.1252E+01
   -1.250009   30.63402  0.1061E-13  0.1666E-04  0.4667E-07  0.1793E-02  0.2762E-03  0.1305E+01
   -1.300011   30.63452  0.1061E-13  0.1647E-04  0.4769E-07  0.1723E-02  0.2604E-03  0.1529E+01
   -1.350012   30.63504  0.1061E-13  0.1624E-04  0.4904E-07  0.1647E-02  0.2451E-03  0.1863E+01
   -1.400013   30.63558  0.1061E-13  0.1597E-04  0.5086E-07  0.1545E-02  0.2301E-03  0.2364E+01
   -1.450014   30.63616  0.1061E-13  0.1566E-04  0.5335E-07  0.1453E-02  0.2151E-03  0.3116E+01
   -1.500014   30.63678  0.1061E-13  0.1528E-04  0.5685E-07  0.1320E-02  0.2003E-03  0.4462E+01
   -1.550015   30.63747  0.1061E-13  0.1481E-04  0.6193E-07  0.1232E-02  0.1851E-03  0.7265E+01
   -1.600015   30.63824  0.1061E-13  0.1423E-04  0.7006E-07  0.1073E-02  0.1701E-03 -0.1347E+03
   -1.650014   30.63928  0.1061E-13  0.1348E-04  0.8277E-07  0.9879E-03  0.1529E-03  0.5377E+04
   -1.700014   30.64047  0.1061E-13  0.1243E-04  0.1056E-06  0.7914E-03  0.1358E-03  0.4331E+04
   -1.750013   30.64270  0.1061E-13  0.1118E-04  0.1412E-06  0.7116E-03  0.1122E-03  0.6095E+05
   -1.800012   30.64409  0.1061E-13  0.9599E-05  0.2219E-06  0.4826E-03  0.9639E-04  0.8172E+04
   -1.850010   30.65261  0.1061E-13  0.8043E-05  0.3682E-06  0.4580E-03  0.6496E-04  0.4320E+08
   -1.900008   30.64892  0.1061E-13  0.6320E-05  0.7736E-06  0.2103E-03  0.5407E-04 -0.6452E+05
   -1.950005   30.67133  0.1061E-13  0.4553E-05  0.1825E-05  0.2278E-03  0.2764E-04 -0.1122E+06
   -2.000002   30.66997  0.1061E-13  0.0000E+00  0.0000E+00  0.0000E+00  0.5910E-04  0.0000E+00
