 1 - depth, m
 2 - temperature, C
 3 - salinity, kg/kg
 4 - turbulent kinetic energy, m**2/s**2
 5 - dissipation rate, m**2/s**3
 6 - kinematic heat conductance, m**2/s
 7 - modulus of horizontal velocity, m/s
 8 - Richardson number, n/d
   -0.000000   30.08838  0.4431E-13  0.4642E-05  0.2872E-06  0.5000E-04  0.7732E-03  0.5714E+04
   -0.049997   30.11819  0.4431E-13  0.8117E-05  0.1273E-06  0.1747E-03  0.4425E-03  0.3556E+02
   -0.099994   30.13001  0.4431E-13  0.9863E-05  0.8748E-07  0.4090E-03  0.3196E-03  0.7710E+02
   -0.149992   30.13309  0.4431E-13  0.1094E-04  0.7379E-07  0.4820E-03  0.2831E-03  0.3747E+02
   -0.199991   30.13560  0.4431E-13  0.1178E-04  0.6569E-07  0.6449E-03  0.2529E-03  0.2431E+02
   -0.249989   30.13743  0.4431E-13  0.1244E-04  0.6036E-07  0.7696E-03  0.2303E-03  0.1801E+02
   -0.299989   30.13891  0.4431E-13  0.1299E-04  0.5655E-07  0.8937E-03  0.2115E-03  0.1438E+02
   -0.349988   30.14016  0.4431E-13  0.1344E-04  0.5368E-07  0.1006E-02  0.1954E-03  0.1230E+02
   -0.399988   30.14124  0.4431E-13  0.1382E-04  0.5144E-07  0.1109E-02  0.1811E-03  0.1097E+02
   -0.449988   30.14220  0.4431E-13  0.1414E-04  0.4962E-07  0.1205E-02  0.1685E-03  0.1028E+02
   -0.499988   30.14306  0.4431E-13  0.1443E-04  0.4811E-07  0.1292E-02  0.1574E-03  0.1001E+02
   -0.549989   30.14385  0.4431E-13  0.1467E-04  0.4685E-07  0.1373E-02  0.1474E-03  0.9856E+01
   -0.599990   30.14458  0.4431E-13  0.1488E-04  0.4578E-07  0.1446E-02  0.1384E-03  0.9869E+01
   -0.649991   30.14527  0.4431E-13  0.1506E-04  0.4488E-07  0.1511E-02  0.1302E-03  0.9960E+01
   -0.699992   30.14591  0.4431E-13  0.1522E-04  0.4411E-07  0.1570E-02  0.1226E-03  0.1019E+02
   -0.749993   30.14652  0.4431E-13  0.1535E-04  0.4347E-07  0.1620E-02  0.1156E-03  0.1049E+02
   -0.799995   30.14711  0.4431E-13  0.1545E-04  0.4294E-07  0.1663E-02  0.1091E-03  0.1094E+02
   -0.849996   30.14767  0.4431E-13  0.1553E-04  0.4250E-07  0.1699E-02  0.1030E-03  0.1145E+02
   -0.899998   30.14821  0.4431E-13  0.1560E-04  0.4217E-07  0.1727E-02  0.9734E-04  0.1215E+02
   -0.950000   30.14874  0.4431E-13  0.1564E-04  0.4193E-07  0.1746E-02  0.9198E-04  0.1294E+02
   -1.000001   30.14926  0.4431E-13  0.1566E-04  0.4178E-07  0.1758E-02  0.8689E-04  0.1398E+02
   -1.050003   30.14977  0.4431E-13  0.1566E-04  0.4173E-07  0.1760E-02  0.8208E-04  0.1576E+02
   -1.100005   30.15028  0.4431E-13  0.1564E-04  0.4179E-07  0.1842E-02  0.7748E-04  0.5271E+02
   -1.150006   30.15076  0.4431E-13  0.1559E-04  0.4197E-07  0.1685E-02  0.7337E-04  0.1160E+03
   -1.200008   30.15128  0.4431E-13  0.1553E-04  0.4227E-07  0.1708E-02  0.6913E-04  0.2245E+02
   -1.250010   30.15179  0.4431E-13  0.1544E-04  0.4274E-07  0.1678E-02  0.6506E-04  0.2394E+02
   -1.300011   30.15231  0.4431E-13  0.1532E-04  0.4339E-07  0.1631E-02  0.6116E-04  0.2775E+02
   -1.350012   30.15284  0.4431E-13  0.1518E-04  0.4428E-07  0.1574E-02  0.5736E-04  0.3311E+02
   -1.400013   30.15338  0.4431E-13  0.1500E-04  0.4548E-07  0.1501E-02  0.5368E-04  0.4034E+02
   -1.450014   30.15396  0.4431E-13  0.1478E-04  0.4712E-07  0.1423E-02  0.5006E-04  0.5109E+02
   -1.500015   30.15456  0.4431E-13  0.1451E-04  0.4937E-07  0.1317E-02  0.4651E-04  0.6784E+02
   -1.550015   30.15521  0.4431E-13  0.1419E-04  0.5254E-07  0.1228E-02  0.4296E-04  0.9562E+02
   -1.600015   30.15592  0.4431E-13  0.1379E-04  0.5727E-07  0.1090E-02  0.3946E-04  0.1604E+03
   -1.650015   30.15675  0.4431E-13  0.1327E-04  0.6456E-07  0.1004E-02  0.3579E-04 -0.8250E+03
   -1.700014   30.15770  0.4431E-13  0.1258E-04  0.7747E-07  0.8292E-03  0.3217E-04  0.1023E+05
   -1.750013   30.15925  0.4431E-13  0.1164E-04  0.9882E-07  0.7432E-03  0.2757E-04  0.9623E+05
   -1.800012   30.16075  0.4431E-13  0.1034E-04  0.1441E-06  0.5299E-03  0.2367E-04  0.3132E+05
   -1.850010   30.16576  0.4431E-13  0.8836E-05  0.2272E-06  0.4776E-03  0.1735E-04  0.6005E+08
   -1.900008   30.16554  0.4431E-13  0.6980E-05  0.4691E-06  0.2149E-03  0.1401E-04  0.4525E+05
   -1.950006   30.18264  0.4431E-13  0.4836E-05  0.1200E-05  0.1779E-03  0.7630E-05 -0.2062E+07
   -2.000003   30.18575  0.4431E-13  0.0000E+00  0.0000E+00  0.0000E+00  0.1339E-04  0.0000E+00
