 1 - depth, m
 2 - temperature, C
 3 - salinity, kg/kg
 4 - turbulent kinetic energy, m**2/s**2
 5 - dissipation rate, m**2/s**3
 6 - kinematic heat conductance, m**2/s
 7 - modulus of horizontal velocity, m/s
 8 - Richardson number, n/d
   -0.000000   29.75150  0.2170E-13  0.4327E-05  0.2521E-06  0.4738E-04  0.1285E-02  0.6502E+04
   -0.049997   29.77884  0.2170E-13  0.7507E-05  0.1124E-06  0.1730E-03  0.7224E-03  0.7450E+02
   -0.099994   29.78902  0.2170E-13  0.9103E-05  0.7791E-07  0.3869E-03  0.5293E-03  0.2665E+02
   -0.149992   29.79188  0.2170E-13  0.1011E-04  0.6561E-07  0.4687E-03  0.4667E-03  0.1300E+02
   -0.199991   29.79415  0.2170E-13  0.1089E-04  0.5840E-07  0.6233E-03  0.4163E-03  0.8398E+01
   -0.249989   29.79581  0.2170E-13  0.1152E-04  0.5369E-07  0.7453E-03  0.3785E-03  0.6214E+01
   -0.299989   29.79717  0.2170E-13  0.1204E-04  0.5033E-07  0.8659E-03  0.3471E-03  0.4960E+01
   -0.349988   29.79831  0.2170E-13  0.1247E-04  0.4782E-07  0.9755E-03  0.3201E-03  0.4255E+01
   -0.399988   29.79930  0.2170E-13  0.1283E-04  0.4588E-07  0.1076E-02  0.2963E-03  0.3800E+01
   -0.449988   29.80018  0.2170E-13  0.1315E-04  0.4431E-07  0.1169E-02  0.2753E-03  0.3576E+01
   -0.499988   29.80098  0.2170E-13  0.1343E-04  0.4301E-07  0.1255E-02  0.2568E-03  0.3485E+01
   -0.549989   29.80171  0.2170E-13  0.1367E-04  0.4194E-07  0.1334E-02  0.2402E-03  0.3448E+01
   -0.599990   29.80238  0.2170E-13  0.1388E-04  0.4105E-07  0.1406E-02  0.2253E-03  0.3456E+01
   -0.649991   29.80302  0.2170E-13  0.1407E-04  0.4030E-07  0.1470E-02  0.2116E-03  0.3510E+01
   -0.699992   29.80361  0.2170E-13  0.1423E-04  0.3968E-07  0.1527E-02  0.1991E-03  0.3597E+01
   -0.749993   29.80418  0.2170E-13  0.1436E-04  0.3917E-07  0.1577E-02  0.1875E-03  0.3728E+01
   -0.799995   29.80473  0.2170E-13  0.1448E-04  0.3875E-07  0.1620E-02  0.1768E-03  0.3893E+01
   -0.849996   29.80525  0.2170E-13  0.1457E-04  0.3843E-07  0.1655E-02  0.1667E-03  0.4106E+01
   -0.899998   29.80576  0.2170E-13  0.1465E-04  0.3820E-07  0.1683E-02  0.1573E-03  0.4364E+01
   -0.950000   29.80626  0.2170E-13  0.1470E-04  0.3806E-07  0.1703E-02  0.1485E-03  0.4685E+01
   -1.000002   29.80675  0.2170E-13  0.1474E-04  0.3800E-07  0.1715E-02  0.1401E-03  0.5069E+01
   -1.050003   29.80724  0.2170E-13  0.1476E-04  0.3803E-07  0.1719E-02  0.1322E-03  0.5770E+01
   -1.100005   29.80772  0.2170E-13  0.1476E-04  0.3815E-07  0.1791E-02  0.1247E-03  0.1943E+02
   -1.150007   29.80818  0.2170E-13  0.1474E-04  0.3839E-07  0.1658E-02  0.1179E-03  0.4225E+02
   -1.200008   29.80868  0.2170E-13  0.1470E-04  0.3874E-07  0.1671E-02  0.1110E-03  0.8306E+01
   -1.250010   29.80917  0.2170E-13  0.1464E-04  0.3924E-07  0.1643E-02  0.1044E-03  0.8893E+01
   -1.300011   29.80967  0.2170E-13  0.1455E-04  0.3991E-07  0.1598E-02  0.9797E-04  0.1039E+02
   -1.350012   29.81018  0.2170E-13  0.1443E-04  0.4079E-07  0.1544E-02  0.9179E-04  0.1240E+02
   -1.400013   29.81071  0.2170E-13  0.1428E-04  0.4196E-07  0.1474E-02  0.8578E-04  0.1522E+02
   -1.450014   29.81127  0.2170E-13  0.1410E-04  0.4351E-07  0.1400E-02  0.7991E-04  0.1921E+02
   -1.500015   29.81186  0.2170E-13  0.1387E-04  0.4561E-07  0.1297E-02  0.7415E-04  0.2563E+02
   -1.550015   29.81250  0.2170E-13  0.1359E-04  0.4852E-07  0.1213E-02  0.6841E-04  0.3568E+02
   -1.600015   29.81320  0.2170E-13  0.1324E-04  0.5282E-07  0.1075E-02  0.6278E-04  0.5995E+02
   -1.650015   29.81401  0.2170E-13  0.1279E-04  0.5932E-07  0.9949E-03  0.5687E-04  0.1964E+03
   -1.700015   29.81493  0.2170E-13  0.1217E-04  0.7083E-07  0.8178E-03  0.5115E-04 -0.8132E+03
   -1.750014   29.81645  0.2170E-13  0.1132E-04  0.8990E-07  0.7386E-03  0.4385E-04  0.1517E+06
   -1.800012   29.81791  0.2170E-13  0.1013E-04  0.1293E-06  0.5255E-03  0.3772E-04  0.5522E+05
   -1.850011   29.82263  0.2170E-13  0.8704E-05  0.2030E-06  0.4727E-03  0.2784E-04  0.6188E+07
   -1.900009   29.82269  0.2170E-13  0.6917E-05  0.4179E-06  0.2120E-03  0.2245E-04  0.5278E+05
   -1.950006   29.83950  0.2170E-13  0.4771E-05  0.1080E-05  0.1678E-03  0.1237E-04 -0.1302E+07
   -2.000003   29.84314  0.2170E-13  0.0000E+00  0.0000E+00  0.0000E+00  0.2102E-04  0.0000E+00
