 1 - depth, m
 2 - temperature, C
 3 - salinity, kg/kg
 4 - turbulent kinetic energy, m**2/s**2
 5 - dissipation rate, m**2/s**3
 6 - kinematic heat conductance, m**2/s
 7 - modulus of horizontal velocity, m/s
 8 - Richardson number, n/d
   -0.000000   30.62202  0.4891E-13  0.4760E-05  0.2930E-06  0.5009E-04  0.1555E-02  0.4989E+04
   -0.049997   30.65179  0.4891E-13  0.8142E-05  0.1308E-06  0.1756E-03  0.8884E-03  0.5175E+04
   -0.099994   30.66324  0.4891E-13  0.9876E-05  0.8998E-07  0.3952E-03  0.6510E-03  0.1991E+02
   -0.149992   30.66643  0.4891E-13  0.1096E-04  0.7550E-07  0.4758E-03  0.5748E-03  0.9715E+01
   -0.199991   30.66896  0.4891E-13  0.1181E-04  0.6702E-07  0.6357E-03  0.5132E-03  0.6233E+01
   -0.249989   30.67080  0.4891E-13  0.1248E-04  0.6147E-07  0.7601E-03  0.4670E-03  0.4590E+01
   -0.299988   30.67230  0.4891E-13  0.1302E-04  0.5751E-07  0.8839E-03  0.4286E-03  0.3653E+01
   -0.349988   30.67355  0.4891E-13  0.1348E-04  0.5454E-07  0.9961E-03  0.3958E-03  0.3118E+01
   -0.399988   30.67464  0.4891E-13  0.1386E-04  0.5224E-07  0.1099E-02  0.3667E-03  0.2781E+01
   -0.449988   30.67560  0.4891E-13  0.1419E-04  0.5036E-07  0.1194E-02  0.3411E-03  0.2605E+01
   -0.499988   30.67647  0.4891E-13  0.1447E-04  0.4881E-07  0.1281E-02  0.3185E-03  0.2538E+01
   -0.549989   30.67727  0.4891E-13  0.1472E-04  0.4752E-07  0.1361E-02  0.2982E-03  0.2499E+01
   -0.599989   30.67800  0.4891E-13  0.1493E-04  0.4643E-07  0.1434E-02  0.2799E-03  0.2506E+01
   -0.649991   30.67869  0.4891E-13  0.1511E-04  0.4551E-07  0.1499E-02  0.2632E-03  0.2532E+01
   -0.699992   30.67934  0.4891E-13  0.1526E-04  0.4474E-07  0.1556E-02  0.2479E-03  0.2596E+01
   -0.749993   30.67995  0.4891E-13  0.1539E-04  0.4409E-07  0.1606E-02  0.2337E-03  0.2676E+01
   -0.799995   30.68054  0.4891E-13  0.1549E-04  0.4356E-07  0.1648E-02  0.2205E-03  0.2797E+01
   -0.849996   30.68111  0.4891E-13  0.1558E-04  0.4313E-07  0.1683E-02  0.2082E-03  0.2936E+01
   -0.899998   30.68165  0.4891E-13  0.1563E-04  0.4281E-07  0.1709E-02  0.1967E-03  0.3124E+01
   -0.949999   30.68219  0.4891E-13  0.1567E-04  0.4258E-07  0.1727E-02  0.1858E-03  0.3341E+01
   -1.000001   30.68271  0.4891E-13  0.1569E-04  0.4245E-07  0.1737E-02  0.1755E-03  0.3619E+01
   -1.050003   30.68323  0.4891E-13  0.1569E-04  0.4243E-07  0.1738E-02  0.1657E-03  0.4100E+01
   -1.100005   30.68375  0.4891E-13  0.1566E-04  0.4251E-07  0.1826E-02  0.1564E-03  0.1357E+02
   -1.150006   30.68423  0.4891E-13  0.1561E-04  0.4274E-07  0.1651E-02  0.1481E-03  0.3127E+02
   -1.200008   30.68476  0.4891E-13  0.1554E-04  0.4309E-07  0.1678E-02  0.1395E-03  0.5972E+01
   -1.250009   30.68529  0.4891E-13  0.1545E-04  0.4361E-07  0.1647E-02  0.1312E-03  0.6386E+01
   -1.300011   30.68582  0.4891E-13  0.1532E-04  0.4434E-07  0.1597E-02  0.1233E-03  0.7489E+01
   -1.350012   30.68636  0.4891E-13  0.1516E-04  0.4534E-07  0.1537E-02  0.1156E-03  0.9011E+01
   -1.400013   30.68693  0.4891E-13  0.1497E-04  0.4668E-07  0.1459E-02  0.1081E-03  0.1118E+02
   -1.450014   30.68752  0.4891E-13  0.1473E-04  0.4851E-07  0.1381E-02  0.1007E-03  0.1435E+02
   -1.500014   30.68815  0.4891E-13  0.1444E-04  0.5106E-07  0.1270E-02  0.9345E-04  0.1962E+02
   -1.550015   30.68884  0.4891E-13  0.1409E-04  0.5466E-07  0.1184E-02  0.8616E-04  0.2829E+02
   -1.600015   30.68959  0.4891E-13  0.1365E-04  0.6018E-07  0.1043E-02  0.7902E-04  0.5624E+02
   -1.650014   30.69051  0.4891E-13  0.1308E-04  0.6879E-07  0.9597E-03  0.7137E-04  0.1026E+04
   -1.700014   30.69157  0.4891E-13  0.1229E-04  0.8419E-07  0.7868E-03  0.6378E-04  0.5873E+03
   -1.750013   30.69342  0.4891E-13  0.1125E-04  0.1095E-06  0.7012E-03  0.5384E-04  0.8398E+05
   -1.800012   30.69502  0.4891E-13  0.9829E-05  0.1652E-06  0.4869E-03  0.4595E-04  0.1231E+05
   -1.850010   30.70158  0.4891E-13  0.8287E-05  0.2669E-06  0.4458E-03  0.3239E-04  0.4770E+08
   -1.900008   30.70012  0.4891E-13  0.6522E-05  0.5643E-06  0.2017E-03  0.2624E-04  0.8770E+06
   -1.950005   30.72023  0.4891E-13  0.4595E-05  0.1390E-05  0.1929E-03  0.1383E-04 -0.4687E+06
   -2.000002   30.72135  0.4891E-13  0.0000E+00  0.0000E+00  0.0000E+00  0.2638E-04  0.0000E+00
