 1 - depth, m
 2 - temperature, C
 3 - salinity, kg/kg
 4 - turbulent kinetic energy, m**2/s**2
 5 - dissipation rate, m**2/s**3
 6 - kinematic heat conductance, m**2/s
 7 - modulus of horizontal velocity, m/s
 8 - Richardson number, n/d
   -0.000000   30.75121  0.2442E-13  0.5278E-05  0.3362E-06  0.5289E-04  0.2120E-02  0.5942E+04
   -0.049997   30.78331  0.2442E-13  0.8876E-05  0.1491E-06  0.1863E-03  0.1193E-02  0.1505E+04
   -0.099994   30.79529  0.2442E-13  0.1071E-04  0.1028E-06  0.4046E-03  0.8904E-03  0.1208E+02
   -0.149992   30.79878  0.2442E-13  0.1188E-04  0.8602E-07  0.4907E-03  0.7872E-03  0.5973E+01
   -0.199990   30.80153  0.2442E-13  0.1279E-04  0.7624E-07  0.6546E-03  0.7044E-03  0.3822E+01
   -0.249989   30.80353  0.2442E-13  0.1351E-04  0.6986E-07  0.7826E-03  0.6423E-03  0.2812E+01
   -0.299988   30.80516  0.2442E-13  0.1410E-04  0.6532E-07  0.9096E-03  0.5906E-03  0.2240E+01
   -0.349988   30.80652  0.2442E-13  0.1460E-04  0.6193E-07  0.1024E-02  0.5463E-03  0.1921E+01
   -0.399987   30.80771  0.2442E-13  0.1501E-04  0.5928E-07  0.1130E-02  0.5068E-03  0.1741E+01
   -0.449987   30.80876  0.2442E-13  0.1538E-04  0.5712E-07  0.1231E-02  0.4715E-03  0.1651E+01
   -0.499988   30.80971  0.2442E-13  0.1570E-04  0.5532E-07  0.1326E-02  0.4400E-03  0.1621E+01
   -0.549988   30.81057  0.2442E-13  0.1597E-04  0.5382E-07  0.1413E-02  0.4116E-03  0.1597E+01
   -0.599989   30.81137  0.2442E-13  0.1621E-04  0.5256E-07  0.1492E-02  0.3858E-03  0.1599E+01
   -0.649990   30.81211  0.2442E-13  0.1642E-04  0.5151E-07  0.1563E-02  0.3624E-03  0.1602E+01
   -0.699991   30.81281  0.2442E-13  0.1659E-04  0.5064E-07  0.1624E-02  0.3409E-03  0.1629E+01
   -0.749992   30.81347  0.2442E-13  0.1673E-04  0.4991E-07  0.1677E-02  0.3213E-03  0.1659E+01
   -0.799994   30.81411  0.2442E-13  0.1685E-04  0.4933E-07  0.1720E-02  0.3031E-03  0.1715E+01
   -0.849995   30.81472  0.2442E-13  0.1694E-04  0.4887E-07  0.1755E-02  0.2864E-03  0.1780E+01
   -0.899997   30.81531  0.2442E-13  0.1700E-04  0.4853E-07  0.1781E-02  0.2707E-03  0.1880E+01
   -0.949999   30.81589  0.2442E-13  0.1704E-04  0.4830E-07  0.1798E-02  0.2561E-03  0.1998E+01
   -1.000000   30.81646  0.2442E-13  0.1706E-04  0.4819E-07  0.1807E-02  0.2422E-03  0.2162E+01
   -1.050002   30.81702  0.2442E-13  0.1705E-04  0.4820E-07  0.1804E-02  0.2291E-03  0.2440E+01
   -1.100004   30.81758  0.2442E-13  0.1702E-04  0.4834E-07  0.1906E-02  0.2165E-03  0.8006E+01
   -1.150005   30.81811  0.2442E-13  0.1697E-04  0.4864E-07  0.1698E-02  0.2054E-03  0.1903E+02
   -1.200007   30.81870  0.2442E-13  0.1689E-04  0.4909E-07  0.1735E-02  0.1936E-03  0.3577E+01
   -1.250008   30.81927  0.2442E-13  0.1678E-04  0.4975E-07  0.1702E-02  0.1825E-03  0.3823E+01
   -1.300009   30.81986  0.2442E-13  0.1663E-04  0.5066E-07  0.1648E-02  0.1717E-03  0.4493E+01
   -1.350011   30.82046  0.2442E-13  0.1646E-04  0.5189E-07  0.1585E-02  0.1612E-03  0.5435E+01
   -1.400012   30.82108  0.2442E-13  0.1624E-04  0.5356E-07  0.1501E-02  0.1509E-03  0.6796E+01
   -1.450012   30.82174  0.2442E-13  0.1597E-04  0.5585E-07  0.1421E-02  0.1408E-03  0.8817E+01
   -1.500013   30.82245  0.2442E-13  0.1564E-04  0.5904E-07  0.1302E-02  0.1309E-03  0.1235E+02
   -1.550013   30.82323  0.2442E-13  0.1524E-04  0.6362E-07  0.1222E-02  0.1208E-03  0.1888E+02
   -1.600013   30.82408  0.2442E-13  0.1473E-04  0.7081E-07  0.1068E-02  0.1109E-03  0.4639E+02
   -1.650013   30.82519  0.2442E-13  0.1406E-04  0.8193E-07  0.9950E-03  0.9997E-04  0.3912E+02
   -1.700012   30.82642  0.2442E-13  0.1315E-04  0.1019E-06  0.7989E-03  0.8933E-04  0.1661E+04
   -1.750011   30.82873  0.2442E-13  0.1200E-04  0.1339E-06  0.7331E-03  0.7472E-04  0.8876E+05
   -1.800010   30.83025  0.2442E-13  0.1052E-04  0.2037E-06  0.4957E-03  0.6452E-04  0.1543E+05
   -1.850008   30.83877  0.2442E-13  0.8938E-05  0.3360E-06  0.4748E-03  0.4504E-04  0.8684E+09
   -1.900006   30.83572  0.2442E-13  0.7161E-05  0.7039E-06  0.2175E-03  0.3732E-04 -0.1404E+06
   -1.950004   30.85904  0.2442E-13  0.5067E-05  0.1714E-05  0.2067E-03  0.2006E-04 -0.6222E+05
   -2.000001   30.86020  0.2442E-13  0.0000E+00  0.0000E+00  0.0000E+00  0.3805E-04  0.0000E+00
