 1 - depth, m
 2 - temperature, C
 3 - salinity, kg/kg
 4 - turbulent kinetic energy, m**2/s**2
 5 - dissipation rate, m**2/s**3
 6 - kinematic heat conductance, m**2/s
 7 - modulus of horizontal velocity, m/s
 8 - Richardson number, n/d
   -0.000000   30.29048  0.2154E-13  0.4903E-05  0.3061E-06  0.4910E-04  0.1015E-02  0.1846E+04
   -0.049997   30.32342  0.2154E-13  0.8504E-05  0.1360E-06  0.1862E-03  0.5683E-03  0.3486E+03
   -0.099994   30.33508  0.2154E-13  0.1028E-04  0.9440E-07  0.4045E-03  0.4206E-03  0.4631E+02
   -0.149992   30.33843  0.2154E-13  0.1140E-04  0.7939E-07  0.4894E-03  0.3718E-03  0.2284E+02
   -0.199991   30.34108  0.2154E-13  0.1227E-04  0.7054E-07  0.6512E-03  0.3324E-03  0.1470E+02
   -0.249989   30.34301  0.2154E-13  0.1296E-04  0.6472E-07  0.7769E-03  0.3029E-03  0.1087E+02
   -0.299988   30.34459  0.2154E-13  0.1351E-04  0.6055E-07  0.9028E-03  0.2782E-03  0.8652E+01
   -0.349988   30.34590  0.2154E-13  0.1398E-04  0.5741E-07  0.1016E-02  0.2571E-03  0.7393E+01
   -0.399988   30.34704  0.2154E-13  0.1436E-04  0.5496E-07  0.1120E-02  0.2384E-03  0.6585E+01
   -0.449988   30.34805  0.2154E-13  0.1470E-04  0.5296E-07  0.1217E-02  0.2220E-03  0.6173E+01
   -0.499988   30.34897  0.2154E-13  0.1498E-04  0.5129E-07  0.1306E-02  0.2074E-03  0.6001E+01
   -0.549989   30.34980  0.2154E-13  0.1523E-04  0.4989E-07  0.1387E-02  0.1943E-03  0.5909E+01
   -0.599990   30.35057  0.2154E-13  0.1544E-04  0.4870E-07  0.1460E-02  0.1825E-03  0.5905E+01
   -0.649991   30.35129  0.2154E-13  0.1561E-04  0.4769E-07  0.1526E-02  0.1717E-03  0.5963E+01
   -0.699992   30.35196  0.2154E-13  0.1576E-04  0.4682E-07  0.1585E-02  0.1618E-03  0.6088E+01
   -0.749993   30.35260  0.2154E-13  0.1588E-04  0.4608E-07  0.1635E-02  0.1526E-03  0.6268E+01
   -0.799995   30.35322  0.2154E-13  0.1598E-04  0.4547E-07  0.1679E-02  0.1441E-03  0.6518E+01
   -0.849996   30.35380  0.2154E-13  0.1605E-04  0.4495E-07  0.1714E-02  0.1361E-03  0.6828E+01
   -0.899998   30.35437  0.2154E-13  0.1610E-04  0.4454E-07  0.1741E-02  0.1287E-03  0.7223E+01
   -0.950000   30.35492  0.2154E-13  0.1613E-04  0.4423E-07  0.1761E-02  0.1216E-03  0.7701E+01
   -1.000001   30.35546  0.2154E-13  0.1614E-04  0.4402E-07  0.1772E-02  0.1149E-03  0.8293E+01
   -1.050003   30.35599  0.2154E-13  0.1612E-04  0.4392E-07  0.1773E-02  0.1086E-03  0.9349E+01
   -1.100005   30.35652  0.2154E-13  0.1609E-04  0.4392E-07  0.1861E-02  0.1025E-03  0.3096E+02
   -1.150006   30.35701  0.2154E-13  0.1603E-04  0.4406E-07  0.1688E-02  0.9716E-04  0.6992E+02
   -1.200008   30.35755  0.2154E-13  0.1594E-04  0.4432E-07  0.1716E-02  0.9155E-04  0.1338E+02
   -1.250009   30.35807  0.2154E-13  0.1583E-04  0.4476E-07  0.1686E-02  0.8620E-04  0.1420E+02
   -1.300011   30.35860  0.2154E-13  0.1570E-04  0.4540E-07  0.1637E-02  0.8105E-04  0.1653E+02
   -1.350012   30.35915  0.2154E-13  0.1553E-04  0.4630E-07  0.1579E-02  0.7605E-04  0.1972E+02
   -1.400013   30.35970  0.2154E-13  0.1532E-04  0.4753E-07  0.1502E-02  0.7118E-04  0.2425E+02
   -1.450014   30.36029  0.2154E-13  0.1508E-04  0.4924E-07  0.1425E-02  0.6639E-04  0.3078E+02
   -1.500014   30.36090  0.2154E-13  0.1478E-04  0.5164E-07  0.1312E-02  0.6170E-04  0.4166E+02
   -1.550015   30.36157  0.2154E-13  0.1442E-04  0.5505E-07  0.1232E-02  0.5697E-04  0.5912E+02
   -1.600015   30.36229  0.2154E-13  0.1397E-04  0.6034E-07  0.1083E-02  0.5237E-04  0.4877E+03
   -1.650015   30.36317  0.2154E-13  0.1340E-04  0.6855E-07  0.1010E-02  0.4736E-04  0.1068E+04
   -1.700014   30.36415  0.2154E-13  0.1263E-04  0.8326E-07  0.8207E-03  0.4256E-04  0.1095E+05
   -1.750013   30.36590  0.2154E-13  0.1160E-04  0.1074E-06  0.7466E-03  0.3603E-04  0.9186E+06
   -1.800012   30.36726  0.2154E-13  0.1025E-04  0.1587E-06  0.5221E-03  0.3112E-04  0.6592E+04
   -1.850010   30.37310  0.2154E-13  0.8731E-05  0.2551E-06  0.4807E-03  0.2237E-04  0.1639E+09
   -1.900008   30.37195  0.2154E-13  0.6915E-05  0.5325E-06  0.2175E-03  0.1832E-04  0.1413E+06
   -1.950006   30.38967  0.2154E-13  0.4813E-05  0.1345E-05  0.1871E-03  0.9920E-05 -0.1208E+07
   -2.000002   30.39222  0.2154E-13  0.0000E+00  0.0000E+00  0.0000E+00  0.1799E-04  0.0000E+00
