 1 - depth, m
 2 - temperature, C
 3 - salinity, kg/kg
 4 - turbulent kinetic energy, m**2/s**2
 5 - dissipation rate, m**2/s**3
 6 - kinematic heat conductance, m**2/s
 7 - modulus of horizontal velocity, m/s
 8 - Richardson number, n/d
   -0.000000   30.61378  0.1282E-13  0.4884E-05  0.3112E-06  0.5149E-04  0.9672E-03  0.7512E+03
   -0.049997   30.64467  0.1282E-13  0.8467E-05  0.1381E-06  0.1772E-03  0.5554E-03  0.2882E+04
   -0.099994   30.65712  0.1282E-13  0.1030E-04  0.9472E-07  0.4123E-03  0.4029E-03  0.5783E+02
   -0.149992   30.66037  0.1282E-13  0.1143E-04  0.7969E-07  0.4868E-03  0.3567E-03  0.2827E+02
   -0.199991   30.66301  0.1282E-13  0.1231E-04  0.7084E-07  0.6532E-03  0.3186E-03  0.1824E+02
   -0.249989   30.66492  0.1282E-13  0.1301E-04  0.6503E-07  0.7796E-03  0.2902E-03  0.1355E+02
   -0.299988   30.66647  0.1282E-13  0.1358E-04  0.6088E-07  0.9064E-03  0.2666E-03  0.1079E+02
   -0.349988   30.66778  0.1282E-13  0.1405E-04  0.5777E-07  0.1021E-02  0.2463E-03  0.9262E+01
   -0.399988   30.66891  0.1282E-13  0.1445E-04  0.5535E-07  0.1126E-02  0.2284E-03  0.8245E+01
   -0.449988   30.66991  0.1282E-13  0.1479E-04  0.5337E-07  0.1223E-02  0.2126E-03  0.7760E+01
   -0.499988   30.67082  0.1282E-13  0.1508E-04  0.5174E-07  0.1312E-02  0.1987E-03  0.7529E+01
   -0.549989   30.67164  0.1282E-13  0.1533E-04  0.5037E-07  0.1393E-02  0.1862E-03  0.7448E+01
   -0.599989   30.67241  0.1282E-13  0.1555E-04  0.4922E-07  0.1467E-02  0.1749E-03  0.7428E+01
   -0.649990   30.67312  0.1282E-13  0.1574E-04  0.4824E-07  0.1533E-02  0.1645E-03  0.7542E+01
   -0.699992   30.67380  0.1282E-13  0.1590E-04  0.4741E-07  0.1592E-02  0.1550E-03  0.7685E+01
   -0.749993   30.67444  0.1282E-13  0.1603E-04  0.4672E-07  0.1642E-02  0.1462E-03  0.7963E+01
   -0.799994   30.67505  0.1282E-13  0.1613E-04  0.4615E-07  0.1685E-02  0.1381E-03  0.8263E+01
   -0.849996   30.67564  0.1282E-13  0.1621E-04  0.4568E-07  0.1720E-02  0.1304E-03  0.8717E+01
   -0.899998   30.67621  0.1282E-13  0.1627E-04  0.4532E-07  0.1747E-02  0.1233E-03  0.9203E+01
   -0.949999   30.67676  0.1282E-13  0.1631E-04  0.4506E-07  0.1765E-02  0.1165E-03  0.9884E+01
   -1.000001   30.67731  0.1282E-13  0.1632E-04  0.4491E-07  0.1776E-02  0.1101E-03  0.1062E+02
   -1.050003   30.67784  0.1282E-13  0.1631E-04  0.4486E-07  0.1776E-02  0.1040E-03  0.1208E+02
   -1.100004   30.67837  0.1282E-13  0.1628E-04  0.4493E-07  0.1868E-02  0.9826E-04  0.3985E+02
   -1.150006   30.67887  0.1282E-13  0.1622E-04  0.4515E-07  0.1683E-02  0.9311E-04  0.9026E+02
   -1.200008   30.67943  0.1282E-13  0.1615E-04  0.4549E-07  0.1714E-02  0.8771E-04  0.1741E+02
   -1.250009   30.67996  0.1282E-13  0.1604E-04  0.4602E-07  0.1682E-02  0.8258E-04  0.1848E+02
   -1.300010   30.68051  0.1282E-13  0.1590E-04  0.4676E-07  0.1631E-02  0.7762E-04  0.2169E+02
   -1.350012   30.68107  0.1282E-13  0.1574E-04  0.4779E-07  0.1570E-02  0.7282E-04  0.2585E+02
   -1.400013   30.68164  0.1282E-13  0.1553E-04  0.4918E-07  0.1491E-02  0.6814E-04  0.3202E+02
   -1.450014   30.68225  0.1282E-13  0.1528E-04  0.5108E-07  0.1412E-02  0.6353E-04  0.4068E+02
   -1.500014   30.68290  0.1282E-13  0.1497E-04  0.5374E-07  0.1299E-02  0.5900E-04  0.5535E+02
   -1.550014   30.68360  0.1282E-13  0.1460E-04  0.5753E-07  0.1212E-02  0.5444E-04  0.7904E+02
   -1.600015   30.68436  0.1282E-13  0.1414E-04  0.6340E-07  0.1071E-02  0.4997E-04  0.1602E+03
   -1.650014   30.68530  0.1282E-13  0.1354E-04  0.7263E-07  0.9843E-03  0.4512E-04  0.1104E+04
   -1.700014   30.68639  0.1282E-13  0.1271E-04  0.8889E-07  0.8084E-03  0.4027E-04  0.8808E+05
   -1.750013   30.68827  0.1282E-13  0.1164E-04  0.1156E-06  0.7217E-03  0.3392E-04  0.1250E+06
   -1.800012   30.68984  0.1282E-13  0.1021E-04  0.1751E-06  0.5054E-03  0.2899E-04  0.9513E+05
   -1.850010   30.69636  0.1282E-13  0.8668E-05  0.2829E-06  0.4612E-03  0.2046E-04  0.1766E+08
   -1.900008   30.69480  0.1282E-13  0.6849E-05  0.5984E-06  0.2128E-03  0.1671E-04 -0.1630E+07
   -1.950005   30.71456  0.1282E-13  0.4811E-05  0.1466E-05  0.1971E-03  0.8841E-05 -0.5138E+07
   -2.000002   30.71605  0.1282E-13  0.0000E+00  0.0000E+00  0.0000E+00  0.1711E-04  0.0000E+00
