 1 - depth, m
 2 - temperature, C
 3 - salinity, kg/kg
 4 - turbulent kinetic energy, m**2/s**2
 5 - dissipation rate, m**2/s**3
 6 - kinematic heat conductance, m**2/s
 7 - modulus of horizontal velocity, m/s
 8 - Richardson number, n/d
   -0.000000   30.57503  0.2009E-14  0.5796E-05  0.3192E-06  0.5577E-04  0.4207E-02  0.1668E+03
   -0.049997   30.60489  0.2009E-14  0.9094E-05  0.1364E-06  0.2128E-03  0.2259E-02  0.1551E+02
   -0.099994   30.61351  0.2009E-14  0.1055E-04  0.9832E-07  0.3876E-03  0.1823E-02  0.3252E+01
   -0.149992   30.61693  0.2009E-14  0.1155E-04  0.8331E-07  0.4829E-03  0.1637E-02  0.1758E+01
   -0.199991   30.61955  0.2009E-14  0.1235E-04  0.7450E-07  0.6038E-03  0.1491E-02  0.1307E+01
   -0.249989   30.62159  0.2009E-14  0.1305E-04  0.6845E-07  0.7139E-03  0.1373E-02  0.1297E+01
   -0.299988   30.62327  0.2009E-14  0.1371E-04  0.6372E-07  0.8467E-03  0.1262E-02  0.1392E+01
   -0.349988   30.62465  0.2009E-14  0.1432E-04  0.5984E-07  0.9956E-03  0.1153E-02  0.1489E+01
   -0.399988   30.62580  0.2009E-14  0.1490E-04  0.5663E-07  0.1151E-02  0.1046E-02  0.1512E+01
   -0.449988   30.62677  0.2009E-14  0.1541E-04  0.5396E-07  0.1302E-02  0.9480E-03  0.1511E+01
   -0.499988   30.62761  0.2009E-14  0.1586E-04  0.5178E-07  0.1444E-02  0.8601E-03  0.1505E+01
   -0.549989   30.62835  0.2009E-14  0.1623E-04  0.5000E-07  0.1572E-02  0.7821E-03  0.1488E+01
   -0.599989   30.62902  0.2009E-14  0.1655E-04  0.4854E-07  0.1686E-02  0.7127E-03  0.1468E+01
   -0.649991   30.62964  0.2009E-14  0.1680E-04  0.4737E-07  0.1784E-02  0.6510E-03  0.1444E+01
   -0.699992   30.63021  0.2009E-14  0.1699E-04  0.4644E-07  0.1864E-02  0.5960E-03  0.1416E+01
   -0.749993   30.63075  0.2009E-14  0.1714E-04  0.4572E-07  0.1927E-02  0.5471E-03  0.1385E+01
   -0.799995   30.63126  0.2009E-14  0.1723E-04  0.4518E-07  0.1971E-02  0.5035E-03  0.1352E+01
   -0.849996   30.63176  0.2009E-14  0.1729E-04  0.4482E-07  0.1999E-02  0.4647E-03  0.1316E+01
   -0.899998   30.63224  0.2009E-14  0.1731E-04  0.4460E-07  0.2011E-02  0.4301E-03  0.1278E+01
   -0.949999   30.63272  0.2009E-14  0.1729E-04  0.4453E-07  0.2008E-02  0.3992E-03  0.1237E+01
   -1.000001   30.63319  0.2009E-14  0.1725E-04  0.4459E-07  0.1993E-02  0.3717E-03  0.1193E+01
   -1.050003   30.63366  0.2009E-14  0.1718E-04  0.4478E-07  0.1954E-02  0.3471E-03  0.1149E+01
   -1.100005   30.63413  0.2009E-14  0.1710E-04  0.4505E-07  0.2140E-02  0.3254E-03  0.2564E+01
   -1.150006   30.63456  0.2009E-14  0.1699E-04  0.4547E-07  0.1741E-02  0.3103E-03  0.6885E+01
   -1.200008   30.63509  0.2009E-14  0.1687E-04  0.4602E-07  0.1844E-02  0.2928E-03  0.1262E+01
   -1.250009   30.63558  0.2009E-14  0.1671E-04  0.4680E-07  0.1800E-02  0.2762E-03  0.1310E+01
   -1.300011   30.63608  0.2009E-14  0.1652E-04  0.4782E-07  0.1731E-02  0.2605E-03  0.1531E+01
   -1.350012   30.63660  0.2009E-14  0.1630E-04  0.4918E-07  0.1655E-02  0.2452E-03  0.1864E+01
   -1.400013   30.63714  0.2009E-14  0.1603E-04  0.5101E-07  0.1555E-02  0.2302E-03  0.2368E+01
   -1.450014   30.63772  0.2009E-14  0.1571E-04  0.5351E-07  0.1461E-02  0.2152E-03  0.3127E+01
   -1.500014   30.63834  0.2009E-14  0.1533E-04  0.5703E-07  0.1333E-02  0.2004E-03  0.4494E+01
   -1.550015   30.63903  0.2009E-14  0.1487E-04  0.6215E-07  0.1243E-02  0.1853E-03  0.7499E+01
   -1.600015   30.63979  0.2009E-14  0.1429E-04  0.7041E-07  0.1090E-02  0.1702E-03 -0.1820E+03
   -1.650014   30.64084  0.2009E-14  0.1353E-04  0.8347E-07  0.9936E-03  0.1529E-03  0.8463E+03
   -1.700014   30.64207  0.2009E-14  0.1248E-04  0.1065E-06  0.8087E-03  0.1354E-03  0.1688E+04
   -1.750013   30.64425  0.2009E-14  0.1126E-04  0.1422E-06  0.7198E-03  0.1123E-03  0.4948E+07
   -1.800012   30.64560  0.2009E-14  0.9711E-05  0.2219E-06  0.4912E-03  0.9654E-04  0.1638E+05
   -1.850010   30.65414  0.2009E-14  0.8215E-05  0.3693E-06  0.4659E-03  0.6559E-04  0.1022E+08
   -1.900008   30.65030  0.2009E-14  0.6562E-05  0.7765E-06  0.2260E-03  0.5490E-04 -0.5145E+05
   -1.950005   30.67208  0.2009E-14  0.4683E-05  0.1828E-05  0.2235E-03  0.2895E-04  0.2308E+05
   -2.000002   30.67185  0.2009E-14  0.0000E+00  0.0000E+00  0.0000E+00  0.5984E-04  0.0000E+00
