 1 - depth, m
 2 - temperature, C
 3 - salinity, kg/kg
 4 - turbulent kinetic energy, m**2/s**2
 5 - dissipation rate, m**2/s**3
 6 - kinematic heat conductance, m**2/s
 7 - modulus of horizontal velocity, m/s
 8 - Richardson number, n/d
   -0.000000   30.02881  0.5734E-13  0.4571E-05  0.2795E-06  0.4930E-04  0.7278E-03  0.7400E+05
   -0.049997   30.05828  0.5734E-13  0.8019E-05  0.1238E-06  0.1754E-03  0.4145E-03  0.4448E+02
   -0.099994   30.06969  0.5734E-13  0.9737E-05  0.8535E-07  0.4078E-03  0.2996E-03  0.9024E+02
   -0.149992   30.07271  0.5734E-13  0.1080E-04  0.7207E-07  0.4816E-03  0.2654E-03  0.4403E+02
   -0.199991   30.07516  0.5734E-13  0.1163E-04  0.6422E-07  0.6434E-03  0.2371E-03  0.2867E+02
   -0.249989   30.07695  0.5734E-13  0.1228E-04  0.5906E-07  0.7676E-03  0.2159E-03  0.2133E+02
   -0.299988   30.07840  0.5734E-13  0.1282E-04  0.5536E-07  0.8909E-03  0.1982E-03  0.1705E+02
   -0.349988   30.07963  0.5734E-13  0.1327E-04  0.5259E-07  0.1003E-02  0.1830E-03  0.1464E+02
   -0.399988   30.08069  0.5734E-13  0.1365E-04  0.5043E-07  0.1105E-02  0.1696E-03  0.1306E+02
   -0.449988   30.08164  0.5734E-13  0.1398E-04  0.4868E-07  0.1200E-02  0.1578E-03  0.1230E+02
   -0.499988   30.08249  0.5734E-13  0.1426E-04  0.4723E-07  0.1287E-02  0.1474E-03  0.1196E+02
   -0.549989   30.08327  0.5734E-13  0.1450E-04  0.4602E-07  0.1367E-02  0.1380E-03  0.1183E+02
   -0.599990   30.08399  0.5734E-13  0.1472E-04  0.4501E-07  0.1439E-02  0.1295E-03  0.1183E+02
   -0.649991   30.08467  0.5734E-13  0.1490E-04  0.4415E-07  0.1504E-02  0.1218E-03  0.1201E+02
   -0.699992   30.08531  0.5734E-13  0.1506E-04  0.4343E-07  0.1561E-02  0.1147E-03  0.1227E+02
   -0.749993   30.08591  0.5734E-13  0.1519E-04  0.4284E-07  0.1611E-02  0.1081E-03  0.1271E+02
   -0.799995   30.08650  0.5734E-13  0.1530E-04  0.4235E-07  0.1653E-02  0.1020E-03  0.1322E+02
   -0.849996   30.08706  0.5734E-13  0.1538E-04  0.4196E-07  0.1688E-02  0.9633E-04  0.1394E+02
   -0.899998   30.08760  0.5734E-13  0.1545E-04  0.4167E-07  0.1715E-02  0.9098E-04  0.1477E+02
   -0.950000   30.08813  0.5734E-13  0.1549E-04  0.4147E-07  0.1733E-02  0.8594E-04  0.1585E+02
   -1.000001   30.08865  0.5734E-13  0.1552E-04  0.4136E-07  0.1744E-02  0.8117E-04  0.1709E+02
   -1.050003   30.08916  0.5734E-13  0.1552E-04  0.4136E-07  0.1745E-02  0.7665E-04  0.1942E+02
   -1.100005   30.08967  0.5734E-13  0.1550E-04  0.4146E-07  0.1830E-02  0.7233E-04  0.6444E+02
   -1.150006   30.09015  0.5734E-13  0.1546E-04  0.4169E-07  0.1664E-02  0.6849E-04  0.1447E+03
   -1.200008   30.09068  0.5734E-13  0.1540E-04  0.4204E-07  0.1688E-02  0.6450E-04  0.2802E+02
   -1.250009   30.09120  0.5734E-13  0.1531E-04  0.4256E-07  0.1658E-02  0.6068E-04  0.2985E+02
   -1.300011   30.09172  0.5734E-13  0.1520E-04  0.4327E-07  0.1609E-02  0.5701E-04  0.3497E+02
   -1.350012   30.09226  0.5734E-13  0.1505E-04  0.4423E-07  0.1551E-02  0.5345E-04  0.4174E+02
   -1.400013   30.09282  0.5734E-13  0.1487E-04  0.4551E-07  0.1475E-02  0.4998E-04  0.5150E+02
   -1.450014   30.09341  0.5734E-13  0.1465E-04  0.4725E-07  0.1397E-02  0.4658E-04  0.6538E+02
   -1.500014   30.09403  0.5734E-13  0.1438E-04  0.4963E-07  0.1289E-02  0.4324E-04  0.8815E+02
   -1.550015   30.09471  0.5734E-13  0.1405E-04  0.5299E-07  0.1201E-02  0.3990E-04  0.1245E+03
   -1.600015   30.09545  0.5734E-13  0.1364E-04  0.5805E-07  0.1061E-02  0.3661E-04  0.2194E+03
   -1.650015   30.09633  0.5734E-13  0.1311E-04  0.6587E-07  0.9793E-03  0.3313E-04  0.6616E+03
   -1.700014   30.09734  0.5734E-13  0.1238E-04  0.7984E-07  0.8031E-03  0.2970E-04 -0.1439E+05
   -1.750013   30.09906  0.5734E-13  0.1140E-04  0.1031E-06  0.7192E-03  0.2525E-04  0.2141E+06
   -1.800012   30.10070  0.5734E-13  0.1003E-04  0.1528E-06  0.5062E-03  0.2154E-04  0.2272E+06
   -1.850010   30.10645  0.5734E-13  0.8499E-05  0.2431E-06  0.4584E-03  0.1548E-04  0.5509E+08
   -1.900008   30.10572  0.5734E-13  0.6708E-05  0.5089E-06  0.2092E-03  0.1249E-04 -0.1875E+07
   -1.950006   30.12482  0.5734E-13  0.4688E-05  0.1282E-05  0.1841E-03  0.6682E-05 -0.1359E+07
   -2.000003   30.12696  0.5734E-13  0.0000E+00  0.0000E+00  0.0000E+00  0.1234E-04  0.0000E+00
